Time,ECG
2021-10-21 16:05:59.647803,-201
2021-10-21 16:05:59.647822,29
2021-10-21 16:05:59.647831,-72
2021-10-21 16:05:59.647840,-238
2021-10-21 16:05:59.647848,-175
2021-10-21 16:05:59.647857,-136
2021-10-21 16:05:59.647865,-172
2021-10-21 16:05:59.647874,-170
2021-10-21 16:05:59.647882,-167
2021-10-21 16:05:59.647891,-177
2021-10-21 16:05:59.647899,-158
2021-10-21 16:05:59.647908,-126
2021-10-21 16:05:59.647916,-121
2021-10-21 16:05:59.647924,-107
2021-10-21 16:05:59.647932,-82
2021-10-21 16:05:59.647941,-80
2021-10-21 16:05:59.647949,-75
2021-10-21 16:05:59.647957,-55
2021-10-21 16:05:59.647966,-43
2021-10-21 16:05:59.647974,-29
2021-10-21 16:05:59.647982,-12
2021-10-21 16:05:59.647990,-4
2021-10-21 16:05:59.647999,7
2021-10-21 16:05:59.648007,12
2021-10-21 16:05:59.648015,9
2021-10-21 16:05:59.648024,14
2021-10-21 16:05:59.648032,17
2021-10-21 16:05:59.648041,4
2021-10-21 16:05:59.648049,-4
2021-10-21 16:05:59.648057,-9
2021-10-21 16:05:59.718107,-36
2021-10-21 16:05:59.718124,-72
2021-10-21 16:05:59.718134,-97
2021-10-21 16:05:59.718142,-102
2021-10-21 16:05:59.718151,-109
2021-10-21 16:05:59.718159,-131
2021-10-21 16:05:59.718169,-138
2021-10-21 16:05:59.718177,-138
2021-10-21 16:05:59.718186,-160
2021-10-21 16:05:59.718194,-167
2021-10-21 16:05:59.718202,-145
2021-10-21 16:05:59.718211,-133
2021-10-21 16:05:59.718219,-128
2021-10-21 16:05:59.718227,-124
2021-10-21 16:05:59.718235,-133
2021-10-21 16:05:59.718244,-138
2021-10-21 16:05:59.718252,-116
2021-10-21 16:05:59.718261,-99
2021-10-21 16:05:59.718269,-99
2021-10-21 16:05:59.718277,-99
2021-10-21 16:05:59.718286,-94
2021-10-21 16:05:59.718294,-94
2021-10-21 16:05:59.718302,-90
2021-10-21 16:05:59.718310,-80
2021-10-21 16:05:59.718319,-75
2021-10-21 16:05:59.718327,-77
2021-10-21 16:05:59.718335,-85
2021-10-21 16:05:59.718344,-85
2021-10-21 16:05:59.718352,-77
2021-10-21 16:05:59.718362,-75
2021-10-21 16:05:59.943593,-70
2021-10-21 16:05:59.943611,-70
2021-10-21 16:05:59.943620,-77
2021-10-21 16:05:59.943629,-77
2021-10-21 16:05:59.943638,-72
2021-10-21 16:05:59.943646,-68
2021-10-21 16:05:59.943655,-65
2021-10-21 16:05:59.943663,-70
2021-10-21 16:05:59.943671,-77
2021-10-21 16:05:59.943680,-75
2021-10-21 16:05:59.943688,-65
2021-10-21 16:05:59.943696,-58
2021-10-21 16:05:59.943705,-60
2021-10-21 16:05:59.943717,-70
2021-10-21 16:05:59.943725,-82
2021-10-21 16:05:59.943734,-80
2021-10-21 16:05:59.943742,-60
2021-10-21 16:05:59.943750,-51
2021-10-21 16:05:59.943759,-53
2021-10-21 16:05:59.943767,-55
2021-10-21 16:05:59.943775,-46
2021-10-21 16:05:59.943784,-24
2021-10-21 16:05:59.943792,-24
2021-10-21 16:05:59.943800,-31
2021-10-21 16:05:59.943808,-24
2021-10-21 16:05:59.943817,-31
2021-10-21 16:05:59.943825,-51
2021-10-21 16:05:59.943833,-46
2021-10-21 16:05:59.943842,-36
2021-10-21 16:05:59.943851,-34
2021-10-21 16:06:00.256832,-31
2021-10-21 16:06:00.256853,-24
2021-10-21 16:06:00.256863,-29
2021-10-21 16:06:00.256872,-31
2021-10-21 16:06:00.256880,-38
2021-10-21 16:06:00.256888,-92
2021-10-21 16:06:00.256897,-177
2021-10-21 16:06:00.256905,-158
2021-10-21 16:06:00.256914,180
2021-10-21 16:06:00.256922,941
2021-10-21 16:06:00.256931,1659
2021-10-21 16:06:00.256939,1369
2021-10-21 16:06:00.256947,274
2021-10-21 16:06:00.256956,-211
2021-10-21 16:06:00.256964,-9
2021-10-21 16:06:00.256972,-46
2021-10-21 16:06:00.256980,-209
2021-10-21 16:06:00.256992,-155
2021-10-21 16:06:00.257000,-126
2021-10-21 16:06:00.257009,-180
2021-10-21 16:06:00.257017,-165
2021-10-21 16:06:00.257025,-121
2021-10-21 16:06:00.257034,-116
2021-10-21 16:06:00.257042,-107
2021-10-21 16:06:00.257050,-87
2021-10-21 16:06:00.257058,-82
2021-10-21 16:06:00.257067,-75
2021-10-21 16:06:00.257075,-58
2021-10-21 16:06:00.257083,-46
2021-10-21 16:06:00.257091,-41
2021-10-21 16:06:00.348108,-29
2021-10-21 16:06:00.348126,-14
2021-10-21 16:06:00.348136,-4
2021-10-21 16:06:00.348145,7
2021-10-21 16:06:00.348153,26
2021-10-21 16:06:00.348162,31
2021-10-21 16:06:00.348171,14
2021-10-21 16:06:00.348183,-2
2021-10-21 16:06:00.348192,-2
2021-10-21 16:06:00.348201,0
2021-10-21 16:06:00.348209,0
2021-10-21 16:06:00.348217,-4
2021-10-21 16:06:00.348226,-19
2021-10-21 16:06:00.348234,-36
2021-10-21 16:06:00.348242,-53
2021-10-21 16:06:00.348251,-70
2021-10-21 16:06:00.348259,-80
2021-10-21 16:06:00.348267,-97
2021-10-21 16:06:00.348276,-128
2021-10-21 16:06:00.348284,-150
2021-10-21 16:06:00.348292,-150
2021-10-21 16:06:00.348301,-143
2021-10-21 16:06:00.348309,-141
2021-10-21 16:06:00.348318,-141
2021-10-21 16:06:00.348326,-141
2021-10-21 16:06:00.348335,-133
2021-10-21 16:06:00.348343,-121
2021-10-21 16:06:00.348351,-116
2021-10-21 16:06:00.348359,-119
2021-10-21 16:06:00.348369,-114
2021-10-21 16:06:00.708636,-97
2021-10-21 16:06:00.708656,-87
2021-10-21 16:06:00.708665,-92
2021-10-21 16:06:00.708674,-92
2021-10-21 16:06:00.708682,-77
2021-10-21 16:06:00.708691,-77
2021-10-21 16:06:00.708699,-87
2021-10-21 16:06:00.708708,-80
2021-10-21 16:06:00.708716,-82
2021-10-21 16:06:00.708724,-94
2021-10-21 16:06:00.708733,-92
2021-10-21 16:06:00.708741,-90
2021-10-21 16:06:00.708749,-99
2021-10-21 16:06:00.708758,-94
2021-10-21 16:06:00.708766,-85
2021-10-21 16:06:00.708774,-87
2021-10-21 16:06:00.708783,-85
2021-10-21 16:06:00.708791,-77
2021-10-21 16:06:00.708799,-75
2021-10-21 16:06:00.708808,-68
2021-10-21 16:06:00.708816,-58
2021-10-21 16:06:00.708825,-55
2021-10-21 16:06:00.708833,-55
2021-10-21 16:06:00.708841,-55
2021-10-21 16:06:00.708854,-51
2021-10-21 16:06:00.708862,-41
2021-10-21 16:06:00.708871,-29
2021-10-21 16:06:00.708879,-4
2021-10-21 16:06:00.708888,9
2021-10-21 16:06:00.708896,0
2021-10-21 16:06:00.798093,0
2021-10-21 16:06:00.798112,4
2021-10-21 16:06:00.798122,-4
2021-10-21 16:06:00.798131,-19
2021-10-21 16:06:00.798139,-24
2021-10-21 16:06:00.798147,-29
2021-10-21 16:06:00.798156,-29
2021-10-21 16:06:00.798164,-21
2021-10-21 16:06:00.798172,-21
2021-10-21 16:06:00.798180,-19
2021-10-21 16:06:00.798189,-12
2021-10-21 16:06:00.798197,-26
2021-10-21 16:06:00.798205,-92
2021-10-21 16:06:00.798213,-153
2021-10-21 16:06:00.798222,-77
2021-10-21 16:06:00.798230,340
2021-10-21 16:06:00.798238,1133
2021-10-21 16:06:00.798247,1652
2021-10-21 16:06:00.798255,1082
2021-10-21 16:06:00.798263,72
2021-10-21 16:06:00.798271,-136
2021-10-21 16:06:00.798280,58
2021-10-21 16:06:00.798290,-75
2021-10-21 16:06:00.798298,-189
2021-10-21 16:06:00.798307,-126
2021-10-21 16:06:00.798315,-136
2021-10-21 16:06:00.798323,-160
2021-10-21 16:06:00.798332,-128
2021-10-21 16:06:00.798340,-124
2021-10-21 16:06:00.798349,-133
2021-10-21 16:06:01.113170,-107
2021-10-21 16:06:01.113191,-80
2021-10-21 16:06:01.113200,-77
2021-10-21 16:06:01.113209,-77
2021-10-21 16:06:01.113218,-70
2021-10-21 16:06:01.113226,-58
2021-10-21 16:06:01.113235,-41
2021-10-21 16:06:01.113243,-19
2021-10-21 16:06:01.113252,-4
2021-10-21 16:06:01.113260,-7
2021-10-21 16:06:01.113269,-7
2021-10-21 16:06:01.113277,14
2021-10-21 16:06:01.113286,34
2021-10-21 16:06:01.113294,34
2021-10-21 16:06:01.113302,29
2021-10-21 16:06:01.113311,26
2021-10-21 16:06:01.113319,19
2021-10-21 16:06:01.113328,17
2021-10-21 16:06:01.113336,14
2021-10-21 16:06:01.113344,-2
2021-10-21 16:06:01.113353,-29
2021-10-21 16:06:01.113361,-55
2021-10-21 16:06:01.113369,-70
2021-10-21 16:06:01.113378,-77
2021-10-21 16:06:01.113389,-85
2021-10-21 16:06:01.113398,-90
2021-10-21 16:06:01.113406,-92
2021-10-21 16:06:01.113415,-99
2021-10-21 16:06:01.113423,-102
2021-10-21 16:06:01.113431,-94
2021-10-21 16:06:01.293153,-87
2021-10-21 16:06:01.293174,-82
2021-10-21 16:06:01.293184,-82
2021-10-21 16:06:01.293192,-90
2021-10-21 16:06:01.293201,-90
2021-10-21 16:06:01.293210,-75
2021-10-21 16:06:01.293218,-65
2021-10-21 16:06:01.293226,-65
2021-10-21 16:06:01.293235,-72
2021-10-21 16:06:01.293243,-80
2021-10-21 16:06:01.293252,-77
2021-10-21 16:06:01.293260,-68
2021-10-21 16:06:01.293268,-63
2021-10-21 16:06:01.293277,-60
2021-10-21 16:06:01.293285,-58
2021-10-21 16:06:01.293294,-63
2021-10-21 16:06:01.293302,-65
2021-10-21 16:06:01.293310,-63
2021-10-21 16:06:01.293319,-53
2021-10-21 16:06:01.293327,-48
2021-10-21 16:06:01.293335,-58
2021-10-21 16:06:01.293344,-68
2021-10-21 16:06:01.293352,-58
2021-10-21 16:06:01.293360,-48
2021-10-21 16:06:01.293369,-51
2021-10-21 16:06:01.293377,-46
2021-10-21 16:06:01.293385,-41
2021-10-21 16:06:01.293394,-43
2021-10-21 16:06:01.293402,-36
2021-10-21 16:06:01.293410,-14
2021-10-21 16:06:01.607540,-7
2021-10-21 16:06:01.607560,-14
2021-10-21 16:06:01.607569,-21
2021-10-21 16:06:01.607578,-29
2021-10-21 16:06:01.607587,-24
2021-10-21 16:06:01.607596,-21
2021-10-21 16:06:01.607604,-24
2021-10-21 16:06:01.607612,-26
2021-10-21 16:06:01.607621,-29
2021-10-21 16:06:01.607629,-31
2021-10-21 16:06:01.607638,-26
2021-10-21 16:06:01.607646,-19
2021-10-21 16:06:01.607654,-17
2021-10-21 16:06:01.607663,-21
2021-10-21 16:06:01.607671,-58
2021-10-21 16:06:01.607679,-136
2021-10-21 16:06:01.607688,-148
2021-10-21 16:06:01.607696,104
2021-10-21 16:06:01.607704,759
2021-10-21 16:06:01.607712,1474
2021-10-21 16:06:01.607721,1316
2021-10-21 16:06:01.607729,284
2021-10-21 16:06:01.607737,-226
2021-10-21 16:06:01.607746,19
2021-10-21 16:06:01.607754,31
2021-10-21 16:06:01.607762,-153
2021-10-21 16:06:01.607771,-114
2021-10-21 16:06:01.607779,-65
2021-10-21 16:06:01.607787,-102
2021-10-21 16:06:01.607795,-82
2021-10-21 16:06:01.788127,-46
2021-10-21 16:06:01.788146,-48
2021-10-21 16:06:01.788156,-41
2021-10-21 16:06:01.788165,-19
2021-10-21 16:06:01.788173,-9
2021-10-21 16:06:01.788182,-2
2021-10-21 16:06:01.788190,17
2021-10-21 16:06:01.788199,31
2021-10-21 16:06:01.788207,29
2021-10-21 16:06:01.788215,34
2021-10-21 16:06:01.788227,55
2021-10-21 16:06:01.788235,77
2021-10-21 16:06:01.788244,92
2021-10-21 16:06:01.788252,102
2021-10-21 16:06:01.788261,94
2021-10-21 16:06:01.788269,102
2021-10-21 16:06:01.788277,116
2021-10-21 16:06:01.788286,111
2021-10-21 16:06:01.788294,109
2021-10-21 16:06:01.788302,109
2021-10-21 16:06:01.788311,90
2021-10-21 16:06:01.788319,63
2021-10-21 16:06:01.788327,38
2021-10-21 16:06:01.788336,19
2021-10-21 16:06:01.788344,0
2021-10-21 16:06:01.788352,-26
2021-10-21 16:06:01.788361,-55
2021-10-21 16:06:01.788369,-68
2021-10-21 16:06:01.788377,-58
2021-10-21 16:06:01.788386,-48
2021-10-21 16:06:01.968168,-53
2021-10-21 16:06:01.968188,-55
2021-10-21 16:06:01.968198,-46
2021-10-21 16:06:01.968207,-38
2021-10-21 16:06:01.968215,-34
2021-10-21 16:06:01.968224,-21
2021-10-21 16:06:01.968232,-29
2021-10-21 16:06:01.968240,-58
2021-10-21 16:06:01.968249,-65
2021-10-21 16:06:01.968257,-51
2021-10-21 16:06:01.968266,-51
2021-10-21 16:06:01.968274,-46
2021-10-21 16:06:01.968282,-46
2021-10-21 16:06:01.968291,-60
2021-10-21 16:06:01.968299,-60
2021-10-21 16:06:01.968308,-51
2021-10-21 16:06:01.968316,-48
2021-10-21 16:06:01.968324,-51
2021-10-21 16:06:01.968333,-58
2021-10-21 16:06:01.968341,-63
2021-10-21 16:06:01.968350,-55
2021-10-21 16:06:01.968358,-51
2021-10-21 16:06:01.968366,-60
2021-10-21 16:06:01.968374,-63
2021-10-21 16:06:01.968382,-58
2021-10-21 16:06:01.968395,-60
2021-10-21 16:06:01.968404,-53
2021-10-21 16:06:01.968412,-29
2021-10-21 16:06:01.968420,-7
2021-10-21 16:06:01.968428,4
2021-10-21 16:06:02.236782,0
2021-10-21 16:06:02.236801,-9
2021-10-21 16:06:02.236810,-7
2021-10-21 16:06:02.236819,-7
2021-10-21 16:06:02.236827,-9
2021-10-21 16:06:02.236836,-7
2021-10-21 16:06:02.236844,-12
2021-10-21 16:06:02.236853,-14
2021-10-21 16:06:02.236861,-4
2021-10-21 16:06:02.236870,-4
2021-10-21 16:06:02.236878,-7
2021-10-21 16:06:02.236886,-2
2021-10-21 16:06:02.236895,-21
2021-10-21 16:06:02.236903,-82
2021-10-21 16:06:02.236911,-153
2021-10-21 16:06:02.236919,-55
2021-10-21 16:06:02.236927,440
2021-10-21 16:06:02.236936,1260
2021-10-21 16:06:02.236944,1649
2021-10-21 16:06:02.236952,912
2021-10-21 16:06:02.236961,-46
2021-10-21 16:06:02.236969,-102
2021-10-21 16:06:02.236977,97
2021-10-21 16:06:02.236986,-68
2021-10-21 16:06:02.236994,-148
2021-10-21 16:06:02.237002,-63
2021-10-21 16:06:02.237010,-70
2021-10-21 16:06:02.237018,-94
2021-10-21 16:06:02.237027,-51
2021-10-21 16:06:02.237035,-34
2021-10-21 16:06:02.418596,-46
2021-10-21 16:06:02.418615,-29
2021-10-21 16:06:02.418624,-4
2021-10-21 16:06:02.418633,-2
2021-10-21 16:06:02.418641,4
2021-10-21 16:06:02.418650,17
2021-10-21 16:06:02.418658,21
2021-10-21 16:06:02.418666,31
2021-10-21 16:06:02.418675,51
2021-10-21 16:06:02.418683,60
2021-10-21 16:06:02.418692,72
2021-10-21 16:06:02.418700,82
2021-10-21 16:06:02.418708,70
2021-10-21 16:06:02.418716,60
2021-10-21 16:06:02.418725,77
2021-10-21 16:06:02.418733,85
2021-10-21 16:06:02.418744,80
2021-10-21 16:06:02.418753,80
2021-10-21 16:06:02.418761,75
2021-10-21 16:06:02.418769,58
2021-10-21 16:06:02.418778,36
2021-10-21 16:06:02.418786,12
2021-10-21 16:06:02.418795,-9
2021-10-21 16:06:02.418803,-36
2021-10-21 16:06:02.418812,-53
2021-10-21 16:06:02.418820,-55
2021-10-21 16:06:02.418828,-70
2021-10-21 16:06:02.418837,-85
2021-10-21 16:06:02.418845,-82
2021-10-21 16:06:02.418853,-70
2021-10-21 16:06:02.687439,-55
2021-10-21 16:06:02.687457,-46
2021-10-21 16:06:02.687467,-43
2021-10-21 16:06:02.687476,-41
2021-10-21 16:06:02.687484,-34
2021-10-21 16:06:02.687493,-34
2021-10-21 16:06:02.687502,-43
2021-10-21 16:06:02.687510,-36
2021-10-21 16:06:02.687518,-31
2021-10-21 16:06:02.687527,-36
2021-10-21 16:06:02.687535,-43
2021-10-21 16:06:02.687543,-48
2021-10-21 16:06:02.687552,-43
2021-10-21 16:06:02.687560,-36
2021-10-21 16:06:02.687568,-36
2021-10-21 16:06:02.687577,-36
2021-10-21 16:06:02.687585,-36
2021-10-21 16:06:02.687593,-38
2021-10-21 16:06:02.687601,-41
2021-10-21 16:06:02.687609,-46
2021-10-21 16:06:02.687618,-48
2021-10-21 16:06:02.687626,-53
2021-10-21 16:06:02.687634,-63
2021-10-21 16:06:02.687642,-63
2021-10-21 16:06:02.687651,-60
2021-10-21 16:06:02.687659,-58
2021-10-21 16:06:02.687667,-58
2021-10-21 16:06:02.687675,-60
2021-10-21 16:06:02.687684,-63
2021-10-21 16:06:02.687692,-58
2021-10-21 16:06:02.868142,-51
2021-10-21 16:06:02.868161,-34
2021-10-21 16:06:02.868171,-14
2021-10-21 16:06:02.868179,-9
2021-10-21 16:06:02.868188,-24
2021-10-21 16:06:02.868196,-26
2021-10-21 16:06:02.868205,-26
2021-10-21 16:06:02.868213,-41
2021-10-21 16:06:02.868222,-41
2021-10-21 16:06:02.868230,-34
2021-10-21 16:06:02.868238,-48
2021-10-21 16:06:02.868247,-53
2021-10-21 16:06:02.868255,-36
2021-10-21 16:06:02.868267,-29
2021-10-21 16:06:02.868275,-34
2021-10-21 16:06:02.868284,-43
2021-10-21 16:06:02.868292,-72
2021-10-21 16:06:02.868300,-150
2021-10-21 16:06:02.868308,-214
2021-10-21 16:06:02.868317,-31
2021-10-21 16:06:02.868325,598
2021-10-21 16:06:02.868333,1447
2021-10-21 16:06:02.868341,1603
2021-10-21 16:06:02.868350,647
2021-10-21 16:06:02.868358,-197
2021-10-21 16:06:02.868366,-124
2021-10-21 16:06:02.868375,-2
2021-10-21 16:06:02.868383,-194
2021-10-21 16:06:02.868391,-231
2021-10-21 16:06:02.868399,-158
2021-10-21 16:06:03.138142,-187
2021-10-21 16:06:03.138161,-194
2021-10-21 16:06:03.138170,-148
2021-10-21 16:06:03.138179,-155
2021-10-21 16:06:03.138188,-165
2021-10-21 16:06:03.138197,-131
2021-10-21 16:06:03.138205,-114
2021-10-21 16:06:03.138214,-107
2021-10-21 16:06:03.138223,-87
2021-10-21 16:06:03.138231,-85
2021-10-21 16:06:03.138240,-82
2021-10-21 16:06:03.138248,-55
2021-10-21 16:06:03.138256,-31
2021-10-21 16:06:03.138265,-26
2021-10-21 16:06:03.138274,-17
2021-10-21 16:06:03.138282,-2
2021-10-21 16:06:03.138291,12
2021-10-21 16:06:03.138299,26
2021-10-21 16:06:03.138308,41
2021-10-21 16:06:03.138317,46
2021-10-21 16:06:03.138325,43
2021-10-21 16:06:03.138333,36
2021-10-21 16:06:03.138342,31
2021-10-21 16:06:03.138350,24
2021-10-21 16:06:03.138358,2
2021-10-21 16:06:03.138367,-14
2021-10-21 16:06:03.138375,-26
2021-10-21 16:06:03.138384,-51
2021-10-21 16:06:03.138392,-72
2021-10-21 16:06:03.138401,-77
2021-10-21 16:06:03.408123,-80
2021-10-21 16:06:03.408141,-82
2021-10-21 16:06:03.408151,-90
2021-10-21 16:06:03.408160,-99
2021-10-21 16:06:03.408168,-92
2021-10-21 16:06:03.408177,-77
2021-10-21 16:06:03.408185,-65
2021-10-21 16:06:03.408194,-60
2021-10-21 16:06:03.408202,-65
2021-10-21 16:06:03.408211,-77
2021-10-21 16:06:03.408219,-70
2021-10-21 16:06:03.408227,-53
2021-10-21 16:06:03.408236,-51
2021-10-21 16:06:03.408244,-53
2021-10-21 16:06:03.408253,-55
2021-10-21 16:06:03.408261,-68
2021-10-21 16:06:03.408269,-68
2021-10-21 16:06:03.408280,-53
2021-10-21 16:06:03.408289,-41
2021-10-21 16:06:03.408297,-51
2021-10-21 16:06:03.408306,-65
2021-10-21 16:06:03.408314,-72
2021-10-21 16:06:03.408322,-65
2021-10-21 16:06:03.408331,-65
2021-10-21 16:06:03.408339,-85
2021-10-21 16:06:03.408348,-99
2021-10-21 16:06:03.408356,-97
2021-10-21 16:06:03.408364,-85
2021-10-21 16:06:03.408373,-70
2021-10-21 16:06:03.408381,-63
2021-10-21 16:06:03.588188,-65
2021-10-21 16:06:03.588207,-70
2021-10-21 16:06:03.588215,-75
2021-10-21 16:06:03.588222,-82
2021-10-21 16:06:03.588228,-94
2021-10-21 16:06:03.588235,-99
2021-10-21 16:06:03.588242,-92
2021-10-21 16:06:03.588249,-85
2021-10-21 16:06:03.588256,-75
2021-10-21 16:06:03.588262,-55
2021-10-21 16:06:03.588269,-41
2021-10-21 16:06:03.588276,-41
2021-10-21 16:06:03.588283,-46
2021-10-21 16:06:03.588289,-58
2021-10-21 16:06:03.588296,-80
2021-10-21 16:06:03.588303,-85
2021-10-21 16:06:03.588310,-75
2021-10-21 16:06:03.588317,-68
2021-10-21 16:06:03.588323,-63
2021-10-21 16:06:03.588330,-65
2021-10-21 16:06:03.588337,-75
2021-10-21 16:06:03.588343,-77
2021-10-21 16:06:03.588350,-68
2021-10-21 16:06:03.588357,-82
2021-10-21 16:06:03.588364,-155
2021-10-21 16:06:03.588370,-192
2021-10-21 16:06:03.588377,41
2021-10-21 16:06:03.588384,717
2021-10-21 16:06:03.588390,1537
2021-10-21 16:06:03.588397,1547
2021-10-21 16:06:03.858205,537
2021-10-21 16:06:03.858225,-175
2021-10-21 16:06:03.858235,-51
2021-10-21 16:06:03.858244,7
2021-10-21 16:06:03.858253,-182
2021-10-21 16:06:03.858261,-182
2021-10-21 16:06:03.858270,-124
2021-10-21 16:06:03.858278,-170
2021-10-21 16:06:03.858287,-175
2021-10-21 16:06:03.858295,-138
2021-10-21 16:06:03.858304,-133
2021-10-21 16:06:03.858312,-124
2021-10-21 16:06:03.858321,-104
2021-10-21 16:06:03.858329,-97
2021-10-21 16:06:03.858338,-92
2021-10-21 16:06:03.858346,-77
2021-10-21 16:06:03.858355,-58
2021-10-21 16:06:03.858363,-46
2021-10-21 16:06:03.858372,-36
2021-10-21 16:06:03.858380,-24
2021-10-21 16:06:03.858388,-9
2021-10-21 16:06:03.858397,4
2021-10-21 16:06:03.858405,21
2021-10-21 16:06:03.858414,34
2021-10-21 16:06:03.858422,36
2021-10-21 16:06:03.858430,38
2021-10-21 16:06:03.858439,46
2021-10-21 16:06:03.858447,43
2021-10-21 16:06:03.858455,36
2021-10-21 16:06:03.858467,24
2021-10-21 16:06:04.128167,2
2021-10-21 16:06:04.128186,-19
2021-10-21 16:06:04.128196,-38
2021-10-21 16:06:04.128205,-63
2021-10-21 16:06:04.128213,-80
2021-10-21 16:06:04.128222,-85
2021-10-21 16:06:04.128230,-97
2021-10-21 16:06:04.128239,-116
2021-10-21 16:06:04.128247,-126
2021-10-21 16:06:04.128255,-128
2021-10-21 16:06:04.128264,-116
2021-10-21 16:06:04.128272,-102
2021-10-21 16:06:04.128281,-94
2021-10-21 16:06:04.128289,-87
2021-10-21 16:06:04.128297,-70
2021-10-21 16:06:04.128306,-58
2021-10-21 16:06:04.128314,-58
2021-10-21 16:06:04.128323,-58
2021-10-21 16:06:04.128331,-63
2021-10-21 16:06:04.128339,-70
2021-10-21 16:06:04.128347,-58
2021-10-21 16:06:04.128356,-41
2021-10-21 16:06:04.128364,-36
2021-10-21 16:06:04.128373,-41
2021-10-21 16:06:04.128381,-48
2021-10-21 16:06:04.128389,-46
2021-10-21 16:06:04.128398,-36
2021-10-21 16:06:04.128406,-41
2021-10-21 16:06:04.128415,-53
2021-10-21 16:06:04.128423,-48
2021-10-21 16:06:04.351814,-46
2021-10-21 16:06:04.351832,-46
2021-10-21 16:06:04.351841,-46
2021-10-21 16:06:04.351850,-43
2021-10-21 16:06:04.351859,-46
2021-10-21 16:06:04.351867,-46
2021-10-21 16:06:04.351876,-41
2021-10-21 16:06:04.351884,-36
2021-10-21 16:06:04.351892,-41
2021-10-21 16:06:04.351901,-55
2021-10-21 16:06:04.351909,-70
2021-10-21 16:06:04.351918,-77
2021-10-21 16:06:04.351926,-75
2021-10-21 16:06:04.351934,-70
2021-10-21 16:06:04.351943,-70
2021-10-21 16:06:04.351951,-70
2021-10-21 16:06:04.351960,-68
2021-10-21 16:06:04.351968,-75
2021-10-21 16:06:04.351976,-68
2021-10-21 16:06:04.351984,-38
2021-10-21 16:06:04.351993,-21
2021-10-21 16:06:04.352001,-38
2021-10-21 16:06:04.352009,-48
2021-10-21 16:06:04.352018,-53
2021-10-21 16:06:04.352026,-63
2021-10-21 16:06:04.352034,-65
2021-10-21 16:06:04.352042,-58
2021-10-21 16:06:04.352050,-55
2021-10-21 16:06:04.352059,-60
2021-10-21 16:06:04.352067,-55
2021-10-21 16:06:04.532507,-48
2021-10-21 16:06:04.532526,-48
2021-10-21 16:06:04.532535,-48
2021-10-21 16:06:04.532544,-70
2021-10-21 16:06:04.532553,-143
2021-10-21 16:06:04.532561,-233
2021-10-21 16:06:04.532570,-155
2021-10-21 16:06:04.532578,316
2021-10-21 16:06:04.532587,1146
2021-10-21 16:06:04.532595,1654
2021-10-21 16:06:04.532603,1041
2021-10-21 16:06:04.532611,7
2021-10-21 16:06:04.532620,-209
2021-10-21 16:06:04.532628,-19
2021-10-21 16:06:04.532636,-141
2021-10-21 16:06:04.532645,-253
2021-10-21 16:06:04.532653,-187
2021-10-21 16:06:04.532662,-184
2021-10-21 16:06:04.532670,-206
2021-10-21 16:06:04.532678,-163
2021-10-21 16:06:04.532691,-138
2021-10-21 16:06:04.532700,-143
2021-10-21 16:06:04.532708,-128
2021-10-21 16:06:04.532716,-111
2021-10-21 16:06:04.532725,-102
2021-10-21 16:06:04.532733,-85
2021-10-21 16:06:04.532741,-65
2021-10-21 16:06:04.532750,-58
2021-10-21 16:06:04.532758,-48
2021-10-21 16:06:04.532766,-34
2021-10-21 16:06:04.713155,-14
2021-10-21 16:06:04.713173,-2
2021-10-21 16:06:04.713183,9
2021-10-21 16:06:04.713192,19
2021-10-21 16:06:04.713201,14
2021-10-21 16:06:04.713209,12
2021-10-21 16:06:04.713218,24
2021-10-21 16:06:04.713226,31
2021-10-21 16:06:04.713234,31
2021-10-21 16:06:04.713243,26
2021-10-21 16:06:04.713251,9
2021-10-21 16:06:04.713259,-12
2021-10-21 16:06:04.713268,-24
2021-10-21 16:06:04.713276,-41
2021-10-21 16:06:04.713284,-75
2021-10-21 16:06:04.713293,-107
2021-10-21 16:06:04.713301,-116
2021-10-21 16:06:04.713309,-114
2021-10-21 16:06:04.713318,-116
2021-10-21 16:06:04.713326,-116
2021-10-21 16:06:04.713334,-109
2021-10-21 16:06:04.713343,-99
2021-10-21 16:06:04.713351,-97
2021-10-21 16:06:04.713359,-92
2021-10-21 16:06:04.713368,-80
2021-10-21 16:06:04.713376,-70
2021-10-21 16:06:04.713384,-68
2021-10-21 16:06:04.713393,-72
2021-10-21 16:06:04.713401,-75
2021-10-21 16:06:04.713409,-65
2021-10-21 16:06:05.073275,-60
2021-10-21 16:06:05.073297,-63
2021-10-21 16:06:05.073306,-65
2021-10-21 16:06:05.073315,-75
2021-10-21 16:06:05.073324,-80
2021-10-21 16:06:05.073332,-75
2021-10-21 16:06:05.073341,-63
2021-10-21 16:06:05.073349,-51
2021-10-21 16:06:05.073357,-58
2021-10-21 16:06:05.073366,-77
2021-10-21 16:06:05.073374,-97
2021-10-21 16:06:05.073382,-109
2021-10-21 16:06:05.073391,-102
2021-10-21 16:06:05.073399,-99
2021-10-21 16:06:05.073407,-109
2021-10-21 16:06:05.073416,-111
2021-10-21 16:06:05.073424,-109
2021-10-21 16:06:05.073432,-109
2021-10-21 16:06:05.073441,-107
2021-10-21 16:06:05.073449,-94
2021-10-21 16:06:05.073457,-87
2021-10-21 16:06:05.073466,-92
2021-10-21 16:06:05.073474,-87
2021-10-21 16:06:05.073482,-77
2021-10-21 16:06:05.073490,-77
2021-10-21 16:06:05.073499,-75
2021-10-21 16:06:05.073507,-65
2021-10-21 16:06:05.073515,-46
2021-10-21 16:06:05.073524,-21
2021-10-21 16:06:05.073532,-14
2021-10-21 16:06:05.208163,-21
2021-10-21 16:06:05.208182,-19
2021-10-21 16:06:05.208192,-26
2021-10-21 16:06:05.208201,-43
2021-10-21 16:06:05.208209,-46
2021-10-21 16:06:05.208218,-31
2021-10-21 16:06:05.208226,-21
2021-10-21 16:06:05.208235,-21
2021-10-21 16:06:05.208243,-26
2021-10-21 16:06:05.208252,-34
2021-10-21 16:06:05.208260,-31
2021-10-21 16:06:05.208268,-29
2021-10-21 16:06:05.208276,-51
2021-10-21 16:06:05.208285,-109
2021-10-21 16:06:05.208293,-155
2021-10-21 16:06:05.208301,29
2021-10-21 16:06:05.208309,666
2021-10-21 16:06:05.208318,1489
2021-10-21 16:06:05.208326,1576
2021-10-21 16:06:05.208334,620
2021-10-21 16:06:05.208342,-145
2021-10-21 16:06:05.208351,-58
2021-10-21 16:06:05.208362,26
2021-10-21 16:06:05.208370,-145
2021-10-21 16:06:05.208379,-153
2021-10-21 16:06:05.208387,-94
2021-10-21 16:06:05.208395,-138
2021-10-21 16:06:05.208403,-153
2021-10-21 16:06:05.208412,-104
2021-10-21 16:06:05.208420,-92
2021-10-21 16:06:05.433161,-94
2021-10-21 16:06:05.433179,-75
2021-10-21 16:06:05.433189,-63
2021-10-21 16:06:05.433198,-53
2021-10-21 16:06:05.433207,-31
2021-10-21 16:06:05.433216,-19
2021-10-21 16:06:05.433224,-12
2021-10-21 16:06:05.433232,-2
2021-10-21 16:06:05.433241,-4
2021-10-21 16:06:05.433250,2
2021-10-21 16:06:05.433258,29
2021-10-21 16:06:05.433266,46
2021-10-21 16:06:05.433275,53
2021-10-21 16:06:05.433283,55
2021-10-21 16:06:05.433292,53
2021-10-21 16:06:05.433300,51
2021-10-21 16:06:05.433309,36
2021-10-21 16:06:05.433317,29
2021-10-21 16:06:05.433325,36
2021-10-21 16:06:05.433334,26
2021-10-21 16:06:05.433342,-9
2021-10-21 16:06:05.433351,-36
2021-10-21 16:06:05.433359,-46
2021-10-21 16:06:05.433367,-60
2021-10-21 16:06:05.433375,-72
2021-10-21 16:06:05.433384,-80
2021-10-21 16:06:05.433392,-94
2021-10-21 16:06:05.433400,-97
2021-10-21 16:06:05.433409,-97
2021-10-21 16:06:05.433417,-99
2021-10-21 16:06:05.702522,-87
2021-10-21 16:06:05.702540,-72
2021-10-21 16:06:05.702550,-70
2021-10-21 16:06:05.702559,-68
2021-10-21 16:06:05.702567,-60
2021-10-21 16:06:05.702576,-51
2021-10-21 16:06:05.702584,-46
2021-10-21 16:06:05.702593,-55
2021-10-21 16:06:05.702601,-60
2021-10-21 16:06:05.702609,-58
2021-10-21 16:06:05.702618,-60
2021-10-21 16:06:05.702626,-63
2021-10-21 16:06:05.702635,-68
2021-10-21 16:06:05.702643,-75
2021-10-21 16:06:05.702651,-80
2021-10-21 16:06:05.702660,-77
2021-10-21 16:06:05.702668,-75
2021-10-21 16:06:05.702676,-72
2021-10-21 16:06:05.702685,-68
2021-10-21 16:06:05.702693,-70
2021-10-21 16:06:05.702701,-70
2021-10-21 16:06:05.702710,-68
2021-10-21 16:06:05.702718,-75
2021-10-21 16:06:05.702726,-82
2021-10-21 16:06:05.702735,-75
2021-10-21 16:06:05.702743,-65
2021-10-21 16:06:05.702751,-70
2021-10-21 16:06:05.702760,-70
2021-10-21 16:06:05.702768,-55
2021-10-21 16:06:05.702776,-51
2021-10-21 16:06:05.883169,-53
2021-10-21 16:06:05.883188,-46
2021-10-21 16:06:05.883197,-38
2021-10-21 16:06:05.883206,-41
2021-10-21 16:06:05.883215,-31
2021-10-21 16:06:05.883223,-9
2021-10-21 16:06:05.883231,2
2021-10-21 16:06:05.883240,-7
2021-10-21 16:06:05.883248,-14
2021-10-21 16:06:05.883257,-12
2021-10-21 16:06:05.883265,-19
2021-10-21 16:06:05.883273,-29
2021-10-21 16:06:05.883281,-38
2021-10-21 16:06:05.883290,-34
2021-10-21 16:06:05.883298,-24
2021-10-21 16:06:05.883306,-29
2021-10-21 16:06:05.883314,-34
2021-10-21 16:06:05.883323,-29
2021-10-21 16:06:05.883331,-29
2021-10-21 16:06:05.883339,-31
2021-10-21 16:06:05.883347,-58
2021-10-21 16:06:05.883356,-136
2021-10-21 16:06:05.883364,-182
2021-10-21 16:06:05.883373,29
2021-10-21 16:06:05.883381,678
2021-10-21 16:06:05.883389,1469
2021-10-21 16:06:05.883398,1484
2021-10-21 16:06:05.883406,515
2021-10-21 16:06:05.883414,-165
2021-10-21 16:06:05.883422,-41
2021-10-21 16:06:06.197576,14
2021-10-21 16:06:06.197594,-165
2021-10-21 16:06:06.197604,-158
2021-10-21 16:06:06.197613,-97
2021-10-21 16:06:06.197621,-136
2021-10-21 16:06:06.197632,-141
2021-10-21 16:06:06.197641,-104
2021-10-21 16:06:06.197649,-92
2021-10-21 16:06:06.197658,-92
2021-10-21 16:06:06.197666,-75
2021-10-21 16:06:06.197675,-53
2021-10-21 16:06:06.197683,-51
2021-10-21 16:06:06.197692,-53
2021-10-21 16:06:06.197700,-34
2021-10-21 16:06:06.197708,-14
2021-10-21 16:06:06.197717,-12
2021-10-21 16:06:06.197725,7
2021-10-21 16:06:06.197734,29
2021-10-21 16:06:06.197742,38
2021-10-21 16:06:06.197750,51
2021-10-21 16:06:06.197759,65
2021-10-21 16:06:06.197767,68
2021-10-21 16:06:06.197775,75
2021-10-21 16:06:06.197784,80
2021-10-21 16:06:06.197792,77
2021-10-21 16:06:06.197800,72
2021-10-21 16:06:06.197809,65
2021-10-21 16:06:06.197817,48
2021-10-21 16:06:06.197826,24
2021-10-21 16:06:06.197834,7
2021-10-21 16:06:06.376804,-12
2021-10-21 16:06:06.376823,-31
2021-10-21 16:06:06.376832,-51
2021-10-21 16:06:06.376841,-65
2021-10-21 16:06:06.376850,-68
2021-10-21 16:06:06.376858,-75
2021-10-21 16:06:06.376867,-82
2021-10-21 16:06:06.376875,-75
2021-10-21 16:06:06.376884,-60
2021-10-21 16:06:06.376892,-58
2021-10-21 16:06:06.376901,-63
2021-10-21 16:06:06.376909,-60
2021-10-21 16:06:06.376918,-53
2021-10-21 16:06:06.376926,-48
2021-10-21 16:06:06.376935,-51
2021-10-21 16:06:06.376943,-55
2021-10-21 16:06:06.376952,-60
2021-10-21 16:06:06.376960,-60
2021-10-21 16:06:06.376969,-51
2021-10-21 16:06:06.376977,-41
2021-10-21 16:06:06.376985,-38
2021-10-21 16:06:06.376994,-41
2021-10-21 16:06:06.377002,-48
2021-10-21 16:06:06.377010,-51
2021-10-21 16:06:06.377019,-41
2021-10-21 16:06:06.377027,-31
2021-10-21 16:06:06.377036,-34
2021-10-21 16:06:06.377044,-53
2021-10-21 16:06:06.377052,-72
2021-10-21 16:06:06.377061,-70
2021-10-21 16:06:06.647552,-58
2021-10-21 16:06:06.647571,-58
2021-10-21 16:06:06.647581,-58
2021-10-21 16:06:06.647590,-58
2021-10-21 16:06:06.647598,-65
2021-10-21 16:06:06.647607,-63
2021-10-21 16:06:06.647615,-43
2021-10-21 16:06:06.647624,-29
2021-10-21 16:06:06.647632,-36
2021-10-21 16:06:06.647640,-43
2021-10-21 16:06:06.647649,-41
2021-10-21 16:06:06.647657,-41
2021-10-21 16:06:06.647665,-36
2021-10-21 16:06:06.647674,-31
2021-10-21 16:06:06.647682,-29
2021-10-21 16:06:06.647690,-9
2021-10-21 16:06:06.647699,21
2021-10-21 16:06:06.647707,24
2021-10-21 16:06:06.647715,17
2021-10-21 16:06:06.647724,24
2021-10-21 16:06:06.647732,26
2021-10-21 16:06:06.647740,9
2021-10-21 16:06:06.647749,-2
2021-10-21 16:06:06.647757,7
2021-10-21 16:06:06.647765,17
2021-10-21 16:06:06.647774,17
2021-10-21 16:06:06.647782,21
2021-10-21 16:06:06.647790,19
2021-10-21 16:06:06.647799,17
2021-10-21 16:06:06.647807,19
2021-10-21 16:06:06.918359,-2
2021-10-21 16:06:06.918380,-72
2021-10-21 16:06:06.918390,-136
2021-10-21 16:06:06.918399,-19
2021-10-21 16:06:06.918408,484
2021-10-21 16:06:06.918416,1296
2021-10-21 16:06:06.918425,1632
2021-10-21 16:06:06.918433,868
2021-10-21 16:06:06.918441,-29
2021-10-21 16:06:06.918450,-65
2021-10-21 16:06:06.918458,85
2021-10-21 16:06:06.918466,-75
2021-10-21 16:06:06.918475,-131
2021-10-21 16:06:06.918483,-60
2021-10-21 16:06:06.918491,-77
2021-10-21 16:06:06.918500,-107
2021-10-21 16:06:06.918508,-72
2021-10-21 16:06:06.918517,-48
2021-10-21 16:06:06.918525,-46
2021-10-21 16:06:06.918534,-34
2021-10-21 16:06:06.918542,-19
2021-10-21 16:06:06.918550,-19
2021-10-21 16:06:06.918559,-7
2021-10-21 16:06:06.918567,12
2021-10-21 16:06:06.918575,21
2021-10-21 16:06:06.918584,34
2021-10-21 16:06:06.918592,53
2021-10-21 16:06:06.918600,53
2021-10-21 16:06:06.918609,60
2021-10-21 16:06:06.918617,87
2021-10-21 16:06:07.143318,99
2021-10-21 16:06:07.143343,97
2021-10-21 16:06:07.143353,90
2021-10-21 16:06:07.143362,77
2021-10-21 16:06:07.143370,82
2021-10-21 16:06:07.143379,92
2021-10-21 16:06:07.143387,80
2021-10-21 16:06:07.143395,63
2021-10-21 16:06:07.143404,48
2021-10-21 16:06:07.143412,9
2021-10-21 16:06:07.143420,-17
2021-10-21 16:06:07.143428,-21
2021-10-21 16:06:07.143437,-34
2021-10-21 16:06:07.143445,-46
2021-10-21 16:06:07.143453,-63
2021-10-21 16:06:07.143461,-80
2021-10-21 16:06:07.143469,-80
2021-10-21 16:06:07.143478,-63
2021-10-21 16:06:07.143486,-58
2021-10-21 16:06:07.143494,-63
2021-10-21 16:06:07.143503,-72
2021-10-21 16:06:07.143511,-82
2021-10-21 16:06:07.143519,-80
2021-10-21 16:06:07.143527,-70
2021-10-21 16:06:07.143536,-68
2021-10-21 16:06:07.143544,-72
2021-10-21 16:06:07.143552,-85
2021-10-21 16:06:07.143561,-90
2021-10-21 16:06:07.143569,-72
2021-10-21 16:06:07.143577,-58
2021-10-21 16:06:07.323706,-63
2021-10-21 16:06:07.323726,-65
2021-10-21 16:06:07.323735,-65
2021-10-21 16:06:07.323745,-68
2021-10-21 16:06:07.323753,-75
2021-10-21 16:06:07.323762,-87
2021-10-21 16:06:07.323770,-77
2021-10-21 16:06:07.323779,-60
2021-10-21 16:06:07.323787,-65
2021-10-21 16:06:07.323796,-68
2021-10-21 16:06:07.323804,-58
2021-10-21 16:06:07.323813,-55
2021-10-21 16:06:07.323821,-55
2021-10-21 16:06:07.323830,-53
2021-10-21 16:06:07.323838,-55
2021-10-21 16:06:07.323846,-60
2021-10-21 16:06:07.323855,-53
2021-10-21 16:06:07.323863,-38
2021-10-21 16:06:07.323871,-29
2021-10-21 16:06:07.323879,-34
2021-10-21 16:06:07.323888,-51
2021-10-21 16:06:07.323896,-51
2021-10-21 16:06:07.323905,-29
2021-10-21 16:06:07.323913,-4
2021-10-21 16:06:07.323921,14
2021-10-21 16:06:07.323930,4
2021-10-21 16:06:07.323938,-21
2021-10-21 16:06:07.323946,-19
2021-10-21 16:06:07.323955,-12
2021-10-21 16:06:07.323963,-21
2021-10-21 16:06:07.503203,-26
2021-10-21 16:06:07.503222,-24
2021-10-21 16:06:07.503231,-26
2021-10-21 16:06:07.503240,-31
2021-10-21 16:06:07.503248,-26
2021-10-21 16:06:07.503257,-21
2021-10-21 16:06:07.503265,-19
2021-10-21 16:06:07.503274,-31
2021-10-21 16:06:07.503282,-82
2021-10-21 16:06:07.503290,-167
2021-10-21 16:06:07.503299,-184
2021-10-21 16:06:07.503307,24
2021-10-21 16:06:07.503315,627
2021-10-21 16:06:07.503324,1406
2021-10-21 16:06:07.503332,1486
2021-10-21 16:06:07.503340,557
2021-10-21 16:06:07.503349,-167
2021-10-21 16:06:07.503357,-58
2021-10-21 16:06:07.503366,19
2021-10-21 16:06:07.503374,-182
2021-10-21 16:06:07.503382,-194
2021-10-21 16:06:07.503390,-114
2021-10-21 16:06:07.503399,-141
2021-10-21 16:06:07.503407,-148
2021-10-21 16:06:07.503415,-109
2021-10-21 16:06:07.503424,-104
2021-10-21 16:06:07.503432,-102
2021-10-21 16:06:07.503440,-80
2021-10-21 16:06:07.503449,-60
2021-10-21 16:06:07.503457,-53
2021-10-21 16:06:07.772571,-41
2021-10-21 16:06:07.772590,-29
2021-10-21 16:06:07.772600,-19
2021-10-21 16:06:07.772609,-7
2021-10-21 16:06:07.772617,17
2021-10-21 16:06:07.772626,26
2021-10-21 16:06:07.772634,21
2021-10-21 16:06:07.772643,24
2021-10-21 16:06:07.772651,34
2021-10-21 16:06:07.772659,29
2021-10-21 16:06:07.772668,31
2021-10-21 16:06:07.772676,51
2021-10-21 16:06:07.772684,41
2021-10-21 16:06:07.772693,14
2021-10-21 16:06:07.772701,12
2021-10-21 16:06:07.772709,12
2021-10-21 16:06:07.772718,-4
2021-10-21 16:06:07.772726,-34
2021-10-21 16:06:07.772734,-63
2021-10-21 16:06:07.772743,-80
2021-10-21 16:06:07.772751,-99
2021-10-21 16:06:07.772759,-116
2021-10-21 16:06:07.772768,-119
2021-10-21 16:06:07.772776,-121
2021-10-21 16:06:07.772784,-124
2021-10-21 16:06:07.772793,-111
2021-10-21 16:06:07.772801,-97
2021-10-21 16:06:07.772810,-99
2021-10-21 16:06:07.772818,-99
2021-10-21 16:06:07.772826,-77
2021-10-21 16:06:08.087614,-75
2021-10-21 16:06:08.087634,-90
2021-10-21 16:06:08.087643,-85
2021-10-21 16:06:08.087652,-82
2021-10-21 16:06:08.087661,-92
2021-10-21 16:06:08.087670,-85
2021-10-21 16:06:08.087678,-87
2021-10-21 16:06:08.087687,-99
2021-10-21 16:06:08.087695,-85
2021-10-21 16:06:08.087704,-63
2021-10-21 16:06:08.087712,-75
2021-10-21 16:06:08.087726,-109
2021-10-21 16:06:08.087735,-116
2021-10-21 16:06:08.087743,-111
2021-10-21 16:06:08.087752,-128
2021-10-21 16:06:08.087760,-133
2021-10-21 16:06:08.087769,-116
2021-10-21 16:06:08.087777,-111
2021-10-21 16:06:08.087786,-116
2021-10-21 16:06:08.087794,-111
2021-10-21 16:06:08.087803,-97
2021-10-21 16:06:08.087811,-82
2021-10-21 16:06:08.087820,-82
2021-10-21 16:06:08.087828,-87
2021-10-21 16:06:08.087837,-80
2021-10-21 16:06:08.087845,-68
2021-10-21 16:06:08.087854,-63
2021-10-21 16:06:08.087862,-60
2021-10-21 16:06:08.087871,-63
2021-10-21 16:06:08.087879,-70
2021-10-21 16:06:08.267570,-55
2021-10-21 16:06:08.267588,-26
2021-10-21 16:06:08.267598,-14
2021-10-21 16:06:08.267606,-19
2021-10-21 16:06:08.267615,-24
2021-10-21 16:06:08.267623,-21
2021-10-21 16:06:08.267632,-29
2021-10-21 16:06:08.267640,-31
2021-10-21 16:06:08.267648,-26
2021-10-21 16:06:08.267657,-24
2021-10-21 16:06:08.267665,-29
2021-10-21 16:06:08.267674,-36
2021-10-21 16:06:08.267682,-41
2021-10-21 16:06:08.267690,-38
2021-10-21 16:06:08.267699,-34
2021-10-21 16:06:08.267707,-34
2021-10-21 16:06:08.267715,-55
2021-10-21 16:06:08.267724,-121
2021-10-21 16:06:08.267732,-160
2021-10-21 16:06:08.267740,29
2021-10-21 16:06:08.267749,622
2021-10-21 16:06:08.267757,1343
2021-10-21 16:06:08.267765,1304
2021-10-21 16:06:08.267774,318
2021-10-21 16:06:08.267782,-291
2021-10-21 16:06:08.267790,-24
2021-10-21 16:06:08.267798,65
2021-10-21 16:06:08.267806,-155
2021-10-21 16:06:08.267815,-128
2021-10-21 16:06:08.267823,-48
2021-10-21 16:06:08.491836,-99
2021-10-21 16:06:08.491855,-99
2021-10-21 16:06:08.491864,-48
2021-10-21 16:06:08.491873,-48
2021-10-21 16:06:08.491882,-58
2021-10-21 16:06:08.491890,-43
2021-10-21 16:06:08.491899,-29
2021-10-21 16:06:08.491907,-9
2021-10-21 16:06:08.491916,0
2021-10-21 16:06:08.491924,2
2021-10-21 16:06:08.491932,7
2021-10-21 16:06:08.491940,19
2021-10-21 16:06:08.491949,31
2021-10-21 16:06:08.491957,43
2021-10-21 16:06:08.491965,55
2021-10-21 16:06:08.491973,48
2021-10-21 16:06:08.491981,43
2021-10-21 16:06:08.491990,58
2021-10-21 16:06:08.491998,53
2021-10-21 16:06:08.492006,29
2021-10-21 16:06:08.492014,24
2021-10-21 16:06:08.492023,21
2021-10-21 16:06:08.492031,4
2021-10-21 16:06:08.492039,-4
2021-10-21 16:06:08.492048,-9
2021-10-21 16:06:08.492056,-29
2021-10-21 16:06:08.492064,-55
2021-10-21 16:06:08.492072,-82
2021-10-21 16:06:08.492081,-104
2021-10-21 16:06:08.492089,-116
2021-10-21 16:06:08.673212,-119
2021-10-21 16:06:08.673229,-116
2021-10-21 16:06:08.673239,-114
2021-10-21 16:06:08.673248,-116
2021-10-21 16:06:08.673256,-114
2021-10-21 16:06:08.673265,-99
2021-10-21 16:06:08.673273,-87
2021-10-21 16:06:08.673282,-85
2021-10-21 16:06:08.673290,-85
2021-10-21 16:06:08.673298,-94
2021-10-21 16:06:08.673307,-102
2021-10-21 16:06:08.673315,-99
2021-10-21 16:06:08.673323,-94
2021-10-21 16:06:08.673331,-92
2021-10-21 16:06:08.673340,-85
2021-10-21 16:06:08.673348,-92
2021-10-21 16:06:08.673357,-107
2021-10-21 16:06:08.673365,-107
2021-10-21 16:06:08.673374,-99
2021-10-21 16:06:08.673382,-99
2021-10-21 16:06:08.673390,-104
2021-10-21 16:06:08.673398,-104
2021-10-21 16:06:08.673407,-99
2021-10-21 16:06:08.673415,-97
2021-10-21 16:06:08.673423,-94
2021-10-21 16:06:08.673431,-85
2021-10-21 16:06:08.673440,-82
2021-10-21 16:06:08.673448,-80
2021-10-21 16:06:08.673456,-58
2021-10-21 16:06:08.673465,-36
2021-10-21 16:06:08.943205,-41
2021-10-21 16:06:08.943224,-43
2021-10-21 16:06:08.943233,-46
2021-10-21 16:06:08.943242,-68
2021-10-21 16:06:08.943250,-77
2021-10-21 16:06:08.943259,-63
2021-10-21 16:06:08.943267,-58
2021-10-21 16:06:08.943276,-58
2021-10-21 16:06:08.943284,-53
2021-10-21 16:06:08.943292,-58
2021-10-21 16:06:08.943301,-53
2021-10-21 16:06:08.943309,-43
2021-10-21 16:06:08.943318,-60
2021-10-21 16:06:08.943326,-126
2021-10-21 16:06:08.943335,-194
2021-10-21 16:06:08.943343,-70
2021-10-21 16:06:08.943351,496
2021-10-21 16:06:08.943360,1384
2021-10-21 16:06:08.943368,1742
2021-10-21 16:06:08.943376,893
2021-10-21 16:06:08.943385,-145
2021-10-21 16:06:08.943393,-187
2021-10-21 16:06:08.943402,38
2021-10-21 16:06:08.943410,-138
2021-10-21 16:06:08.943419,-231
2021-10-21 16:06:08.943427,-148
2021-10-21 16:06:08.943435,-170
2021-10-21 16:06:08.943444,-197
2021-10-21 16:06:08.943452,-148
2021-10-21 16:06:08.943461,-126
2021-10-21 16:06:09.167644,-124
2021-10-21 16:06:09.167662,-99
2021-10-21 16:06:09.167672,-92
2021-10-21 16:06:09.167681,-94
2021-10-21 16:06:09.167689,-77
2021-10-21 16:06:09.167697,-51
2021-10-21 16:06:09.167706,-38
2021-10-21 16:06:09.167714,-31
2021-10-21 16:06:09.167729,-31
2021-10-21 16:06:09.167737,-21
2021-10-21 16:06:09.167746,0
2021-10-21 16:06:09.167754,14
2021-10-21 16:06:09.167763,24
2021-10-21 16:06:09.167771,36
2021-10-21 16:06:09.167779,38
2021-10-21 16:06:09.167788,38
2021-10-21 16:06:09.167796,46
2021-10-21 16:06:09.167805,51
2021-10-21 16:06:09.167813,43
2021-10-21 16:06:09.167821,24
2021-10-21 16:06:09.167829,-17
2021-10-21 16:06:09.167838,-60
2021-10-21 16:06:09.167846,-82
2021-10-21 16:06:09.167854,-85
2021-10-21 16:06:09.167862,-97
2021-10-21 16:06:09.167871,-116
2021-10-21 16:06:09.167879,-121
2021-10-21 16:06:09.167887,-116
2021-10-21 16:06:09.167895,-111
2021-10-21 16:06:09.167903,-107
2021-10-21 16:06:09.348212,-97
2021-10-21 16:06:09.348230,-90
2021-10-21 16:06:09.348240,-87
2021-10-21 16:06:09.348248,-85
2021-10-21 16:06:09.348257,-75
2021-10-21 16:06:09.348265,-70
2021-10-21 16:06:09.348274,-75
2021-10-21 16:06:09.348282,-82
2021-10-21 16:06:09.348290,-87
2021-10-21 16:06:09.348299,-82
2021-10-21 16:06:09.348307,-77
2021-10-21 16:06:09.348315,-72
2021-10-21 16:06:09.348324,-68
2021-10-21 16:06:09.348332,-72
2021-10-21 16:06:09.348340,-82
2021-10-21 16:06:09.348349,-75
2021-10-21 16:06:09.348357,-68
2021-10-21 16:06:09.348365,-77
2021-10-21 16:06:09.348373,-87
2021-10-21 16:06:09.348382,-94
2021-10-21 16:06:09.348390,-107
2021-10-21 16:06:09.348398,-107
2021-10-21 16:06:09.348406,-87
2021-10-21 16:06:09.348415,-75
2021-10-21 16:06:09.348423,-75
2021-10-21 16:06:09.348431,-75
2021-10-21 16:06:09.348440,-75
2021-10-21 16:06:09.348448,-77
2021-10-21 16:06:09.348456,-82
2021-10-21 16:06:09.348465,-82
2021-10-21 16:06:09.662594,-87
2021-10-21 16:06:09.662612,-99
2021-10-21 16:06:09.662622,-97
2021-10-21 16:06:09.662631,-85
2021-10-21 16:06:09.662640,-82
2021-10-21 16:06:09.662648,-75
2021-10-21 16:06:09.662656,-77
2021-10-21 16:06:09.662665,-111
2021-10-21 16:06:09.662673,-187
2021-10-21 16:06:09.662682,-236
2021-10-21 16:06:09.662690,-26
2021-10-21 16:06:09.662699,654
2021-10-21 16:06:09.662708,1532
2021-10-21 16:06:09.662716,1642
2021-10-21 16:06:09.662725,618
2021-10-21 16:06:09.662733,-231
2021-10-21 16:06:09.662741,-116
2021-10-21 16:06:09.662750,12
2021-10-21 16:06:09.662758,-199
2021-10-21 16:06:09.662767,-218
2021-10-21 16:06:09.662775,-126
2021-10-21 16:06:09.662784,-153
2021-10-21 16:06:09.662792,-163
2021-10-21 16:06:09.662800,-114
2021-10-21 16:06:09.662809,-107
2021-10-21 16:06:09.662817,-114
2021-10-21 16:06:09.662825,-97
2021-10-21 16:06:09.662833,-82
2021-10-21 16:06:09.662842,-75
2021-10-21 16:06:09.662850,-55
2021-10-21 16:06:09.843222,-43
2021-10-21 16:06:09.843240,-34
2021-10-21 16:06:09.843250,-21
2021-10-21 16:06:09.843259,-9
2021-10-21 16:06:09.843268,7
2021-10-21 16:06:09.843276,24
2021-10-21 16:06:09.843285,36
2021-10-21 16:06:09.843293,53
2021-10-21 16:06:09.843302,68
2021-10-21 16:06:09.843310,70
2021-10-21 16:06:09.843319,72
2021-10-21 16:06:09.843327,75
2021-10-21 16:06:09.843335,63
2021-10-21 16:06:09.843344,51
2021-10-21 16:06:09.843352,38
2021-10-21 16:06:09.843360,9
2021-10-21 16:06:09.843369,-19
2021-10-21 16:06:09.843377,-46
2021-10-21 16:06:09.843386,-72
2021-10-21 16:06:09.843394,-87
2021-10-21 16:06:09.843403,-90
2021-10-21 16:06:09.843411,-94
2021-10-21 16:06:09.843419,-94
2021-10-21 16:06:09.843427,-92
2021-10-21 16:06:09.843435,-92
2021-10-21 16:06:09.843444,-85
2021-10-21 16:06:09.843452,-75
2021-10-21 16:06:09.843461,-77
2021-10-21 16:06:09.843469,-77
2021-10-21 16:06:09.843477,-70
2021-10-21 16:06:10.023222,-63
2021-10-21 16:06:10.023240,-58
2021-10-21 16:06:10.023250,-53
2021-10-21 16:06:10.023259,-53
2021-10-21 16:06:10.023267,-46
2021-10-21 16:06:10.023276,-43
2021-10-21 16:06:10.023284,-58
2021-10-21 16:06:10.023292,-65
2021-10-21 16:06:10.023301,-51
2021-10-21 16:06:10.023309,-46
2021-10-21 16:06:10.023317,-55
2021-10-21 16:06:10.023326,-63
2021-10-21 16:06:10.023334,-63
2021-10-21 16:06:10.023343,-55
2021-10-21 16:06:10.023351,-55
2021-10-21 16:06:10.023359,-60
2021-10-21 16:06:10.023367,-70
2021-10-21 16:06:10.023376,-85
2021-10-21 16:06:10.023384,-85
2021-10-21 16:06:10.023392,-72
2021-10-21 16:06:10.023401,-63
2021-10-21 16:06:10.023409,-43
2021-10-21 16:06:10.023417,-29
2021-10-21 16:06:10.023426,-31
2021-10-21 16:06:10.023434,-36
2021-10-21 16:06:10.023443,-34
2021-10-21 16:06:10.023451,-41
2021-10-21 16:06:10.023459,-58
2021-10-21 16:06:10.023467,-60
2021-10-21 16:06:10.023476,-65
2021-10-21 16:06:10.337632,-77
2021-10-21 16:06:10.337651,-77
2021-10-21 16:06:10.337660,-70
2021-10-21 16:06:10.337669,-75
2021-10-21 16:06:10.337677,-85
2021-10-21 16:06:10.337686,-99
2021-10-21 16:06:10.337694,-150
2021-10-21 16:06:10.337703,-216
2021-10-21 16:06:10.337711,-136
2021-10-21 16:06:10.337720,328
2021-10-21 16:06:10.337728,1146
2021-10-21 16:06:10.337736,1618
2021-10-21 16:06:10.337745,985
2021-10-21 16:06:10.337754,-24
2021-10-21 16:06:10.337762,-197
2021-10-21 16:06:10.337770,2
2021-10-21 16:06:10.337779,-136
2021-10-21 16:06:10.337788,-238
2021-10-21 16:06:10.337796,-155
2021-10-21 16:06:10.337804,-150
2021-10-21 16:06:10.337812,-177
2021-10-21 16:06:10.337821,-145
2021-10-21 16:06:10.337829,-128
2021-10-21 16:06:10.337840,-131
2021-10-21 16:06:10.337848,-107
2021-10-21 16:06:10.337857,-85
2021-10-21 16:06:10.337865,-80
2021-10-21 16:06:10.337873,-72
2021-10-21 16:06:10.337882,-60
2021-10-21 16:06:10.337890,-43
2021-10-21 16:06:10.741770,-29
2021-10-21 16:06:10.741790,-24
2021-10-21 16:06:10.741800,-19
2021-10-21 16:06:10.741809,-12
2021-10-21 16:06:10.741818,-4
2021-10-21 16:06:10.741826,7
2021-10-21 16:06:10.741835,24
2021-10-21 16:06:10.741843,34
2021-10-21 16:06:10.741851,38
2021-10-21 16:06:10.741859,26
2021-10-21 16:06:10.741868,14
2021-10-21 16:06:10.741876,4
2021-10-21 16:06:10.741884,-12
2021-10-21 16:06:10.741893,-34
2021-10-21 16:06:10.741901,-53
2021-10-21 16:06:10.741910,-87
2021-10-21 16:06:10.741918,-116
2021-10-21 16:06:10.741926,-119
2021-10-21 16:06:10.741935,-116
2021-10-21 16:06:10.741943,-124
2021-10-21 16:06:10.741952,-126
2021-10-21 16:06:10.741966,-128
2021-10-21 16:06:10.741975,-128
2021-10-21 16:06:10.741983,-109
2021-10-21 16:06:10.741992,-94
2021-10-21 16:06:10.742008,-90
2021-10-21 16:06:10.742045,-85
2021-10-21 16:06:10.742056,-77
2021-10-21 16:06:10.742065,-72
2021-10-21 16:06:10.742073,-65
2021-10-21 16:06:10.832551,-58
2021-10-21 16:06:10.832568,-53
2021-10-21 16:06:10.832578,-53
2021-10-21 16:06:10.832586,-58
2021-10-21 16:06:10.832595,-60
2021-10-21 16:06:10.832603,-55
2021-10-21 16:06:10.832611,-48
2021-10-21 16:06:10.832620,-46
2021-10-21 16:06:10.832628,-51
2021-10-21 16:06:10.832636,-63
2021-10-21 16:06:10.832645,-68
2021-10-21 16:06:10.832653,-55
2021-10-21 16:06:10.832662,-53
2021-10-21 16:06:10.832670,-51
2021-10-21 16:06:10.832678,-53
2021-10-21 16:06:10.832687,-63
2021-10-21 16:06:10.832695,-63
2021-10-21 16:06:10.832703,-51
2021-10-21 16:06:10.832712,-48
2021-10-21 16:06:10.832720,-43
2021-10-21 16:06:10.832728,-41
2021-10-21 16:06:10.832736,-46
2021-10-21 16:06:10.832745,-41
2021-10-21 16:06:10.832753,-36
2021-10-21 16:06:10.832762,-48
2021-10-21 16:06:10.832770,-51
2021-10-21 16:06:10.832778,-41
2021-10-21 16:06:10.832786,-26
2021-10-21 16:06:10.832795,-9
2021-10-21 16:06:10.832803,-2
2021-10-21 16:06:11.057623,-7
2021-10-21 16:06:11.057642,-9
2021-10-21 16:06:11.057651,-19
2021-10-21 16:06:11.057660,-38
2021-10-21 16:06:11.057668,-38
2021-10-21 16:06:11.057677,-43
2021-10-21 16:06:11.057685,-60
2021-10-21 16:06:11.057694,-65
2021-10-21 16:06:11.057702,-70
2021-10-21 16:06:11.057711,-82
2021-10-21 16:06:11.057719,-77
2021-10-21 16:06:11.057728,-68
2021-10-21 16:06:11.057736,-94
2021-10-21 16:06:11.057744,-170
2021-10-21 16:06:11.057752,-216
2021-10-21 16:06:11.057761,-4
2021-10-21 16:06:11.057769,639
2021-10-21 16:06:11.057778,1421
2021-10-21 16:06:11.057786,1433
2021-10-21 16:06:11.057794,457
2021-10-21 16:06:11.057802,-248
2021-10-21 16:06:11.057811,-124
2021-10-21 16:06:11.057819,-53
2021-10-21 16:06:11.057827,-233
2021-10-21 16:06:11.057835,-231
2021-10-21 16:06:11.057843,-170
2021-10-21 16:06:11.057852,-209
2021-10-21 16:06:11.057860,-211
2021-10-21 16:06:11.057868,-163
2021-10-21 16:06:11.057876,-150
2021-10-21 16:06:11.282675,-148
2021-10-21 16:06:11.282695,-131
2021-10-21 16:06:11.282705,-124
2021-10-21 16:06:11.282714,-114
2021-10-21 16:06:11.282722,-94
2021-10-21 16:06:11.282731,-82
2021-10-21 16:06:11.282739,-70
2021-10-21 16:06:11.282747,-60
2021-10-21 16:06:11.282756,-58
2021-10-21 16:06:11.282764,-51
2021-10-21 16:06:11.282773,-31
2021-10-21 16:06:11.282781,-12
2021-10-21 16:06:11.282789,-4
2021-10-21 16:06:11.282798,-4
2021-10-21 16:06:11.282806,-9
2021-10-21 16:06:11.282814,-12
2021-10-21 16:06:11.282823,-7
2021-10-21 16:06:11.282831,-7
2021-10-21 16:06:11.282840,-12
2021-10-21 16:06:11.282848,-19
2021-10-21 16:06:11.282856,-38
2021-10-21 16:06:11.282865,-65
2021-10-21 16:06:11.282873,-82
2021-10-21 16:06:11.282881,-87
2021-10-21 16:06:11.282890,-92
2021-10-21 16:06:11.282898,-111
2021-10-21 16:06:11.282906,-121
2021-10-21 16:06:11.282915,-114
2021-10-21 16:06:11.282923,-109
2021-10-21 16:06:11.282931,-104
2021-10-21 16:06:11.463241,-99
2021-10-21 16:06:11.463260,-94
2021-10-21 16:06:11.463270,-80
2021-10-21 16:06:11.463279,-70
2021-10-21 16:06:11.463287,-68
2021-10-21 16:06:11.463296,-63
2021-10-21 16:06:11.463304,-60
2021-10-21 16:06:11.463312,-60
2021-10-21 16:06:11.463321,-63
2021-10-21 16:06:11.463329,-70
2021-10-21 16:06:11.463337,-70
2021-10-21 16:06:11.463346,-63
2021-10-21 16:06:11.463354,-70
2021-10-21 16:06:11.463362,-80
2021-10-21 16:06:11.463371,-77
2021-10-21 16:06:11.463379,-75
2021-10-21 16:06:11.463387,-72
2021-10-21 16:06:11.463395,-65
2021-10-21 16:06:11.463403,-65
2021-10-21 16:06:11.463412,-72
2021-10-21 16:06:11.463420,-63
2021-10-21 16:06:11.463428,-55
2021-10-21 16:06:11.463437,-70
2021-10-21 16:06:11.463445,-85
2021-10-21 16:06:11.463453,-87
2021-10-21 16:06:11.463461,-80
2021-10-21 16:06:11.463469,-75
2021-10-21 16:06:11.463478,-72
2021-10-21 16:06:11.463486,-63
2021-10-21 16:06:11.463494,-60
2021-10-21 16:06:11.643239,-63
2021-10-21 16:06:11.643258,-53
2021-10-21 16:06:11.643267,-31
2021-10-21 16:06:11.643276,-24
2021-10-21 16:06:11.643285,-31
2021-10-21 16:06:11.643293,-34
2021-10-21 16:06:11.643302,-43
2021-10-21 16:06:11.643310,-55
2021-10-21 16:06:11.643319,-58
2021-10-21 16:06:11.643327,-48
2021-10-21 16:06:11.643336,-43
2021-10-21 16:06:11.643344,-53
2021-10-21 16:06:11.643353,-68
2021-10-21 16:06:11.643361,-70
2021-10-21 16:06:11.643369,-63
2021-10-21 16:06:11.643378,-63
2021-10-21 16:06:11.643386,-82
2021-10-21 16:06:11.643394,-138
2021-10-21 16:06:11.643402,-218
2021-10-21 16:06:11.643411,-148
2021-10-21 16:06:11.643419,306
2021-10-21 16:06:11.643427,1085
2021-10-21 16:06:11.643436,1491
2021-10-21 16:06:11.643444,805
2021-10-21 16:06:11.643452,-158
2021-10-21 16:06:11.643461,-206
2021-10-21 16:06:11.643469,46
2021-10-21 16:06:11.643477,-114
2021-10-21 16:06:11.643486,-211
2021-10-21 16:06:11.643497,-116
2021-10-21 16:06:11.868225,-121
2021-10-21 16:06:11.868243,-141
2021-10-21 16:06:11.868252,-97
2021-10-21 16:06:11.868261,-82
2021-10-21 16:06:11.868270,-90
2021-10-21 16:06:11.868278,-80
2021-10-21 16:06:11.868287,-72
2021-10-21 16:06:11.868295,-58
2021-10-21 16:06:11.868304,-38
2021-10-21 16:06:11.868312,-26
2021-10-21 16:06:11.868321,-21
2021-10-21 16:06:11.868329,-19
2021-10-21 16:06:11.868338,-4
2021-10-21 16:06:11.868346,12
2021-10-21 16:06:11.868355,14
2021-10-21 16:06:11.868363,19
2021-10-21 16:06:11.868372,31
2021-10-21 16:06:11.868380,43
2021-10-21 16:06:11.868388,51
2021-10-21 16:06:11.868397,58
2021-10-21 16:06:11.868405,55
2021-10-21 16:06:11.868414,41
2021-10-21 16:06:11.868422,36
2021-10-21 16:06:11.868430,34
2021-10-21 16:06:11.868439,14
2021-10-21 16:06:11.868447,-14
2021-10-21 16:06:11.868456,-36
2021-10-21 16:06:11.868464,-63
2021-10-21 16:06:11.868472,-92
2021-10-21 16:06:11.868481,-111
2021-10-21 16:06:12.363353,-109
2021-10-21 16:06:12.363374,-102
2021-10-21 16:06:12.363384,-99
2021-10-21 16:06:12.363393,-97
2021-10-21 16:06:12.363401,-97
2021-10-21 16:06:12.363410,-99
2021-10-21 16:06:12.363418,-90
2021-10-21 16:06:12.363427,-77
2021-10-21 16:06:12.363435,-72
2021-10-21 16:06:12.363443,-65
2021-10-21 16:06:12.363451,-68
2021-10-21 16:06:12.363460,-72
2021-10-21 16:06:12.363468,-58
2021-10-21 16:06:12.363476,-43
2021-10-21 16:06:12.363485,-46
2021-10-21 16:06:12.363493,-60
2021-10-21 16:06:12.363501,-63
2021-10-21 16:06:12.363509,-58
2021-10-21 16:06:12.363517,-53
2021-10-21 16:06:12.363525,-46
2021-10-21 16:06:12.363534,-36
2021-10-21 16:06:12.363542,-41
2021-10-21 16:06:12.363550,-51
2021-10-21 16:06:12.363558,-46
2021-10-21 16:06:12.363566,-38
2021-10-21 16:06:12.363575,-34
2021-10-21 16:06:12.363583,-29
2021-10-21 16:06:12.363591,-19
2021-10-21 16:06:12.363599,-9
2021-10-21 16:06:12.363607,2
2021-10-21 16:06:12.497620,4
2021-10-21 16:06:12.497639,0
2021-10-21 16:06:12.497649,-4
2021-10-21 16:06:12.497658,-19
2021-10-21 16:06:12.497666,-29
2021-10-21 16:06:12.497675,-24
2021-10-21 16:06:12.497683,-14
2021-10-21 16:06:12.497691,-7
2021-10-21 16:06:12.497700,-12
2021-10-21 16:06:12.497708,-26
2021-10-21 16:06:12.497716,-31
2021-10-21 16:06:12.497725,-29
2021-10-21 16:06:12.497733,-46
2021-10-21 16:06:12.497741,-104
2021-10-21 16:06:12.497750,-182
2021-10-21 16:06:12.497758,-131
2021-10-21 16:06:12.497766,294
2021-10-21 16:06:12.497775,1107
2021-10-21 16:06:12.497783,1632
2021-10-21 16:06:12.497791,1034
2021-10-21 16:06:12.497799,-26
2021-10-21 16:06:12.497807,-223
2021-10-21 16:06:12.497816,29
2021-10-21 16:06:12.497824,-85
2021-10-21 16:06:12.497832,-201
2021-10-21 16:06:12.497840,-111
2021-10-21 16:06:12.497848,-102
2021-10-21 16:06:12.497857,-145
2021-10-21 16:06:12.497865,-114
2021-10-21 16:06:12.497873,-82
2021-10-21 16:06:12.632539,-85
2021-10-21 16:06:12.632557,-72
2021-10-21 16:06:12.632567,-53
2021-10-21 16:06:12.632575,-58
2021-10-21 16:06:12.632584,-60
2021-10-21 16:06:12.632592,-36
2021-10-21 16:06:12.632600,-17
2021-10-21 16:06:12.632609,-2
2021-10-21 16:06:12.632617,12
2021-10-21 16:06:12.632625,21
2021-10-21 16:06:12.632634,31
2021-10-21 16:06:12.632642,48
2021-10-21 16:06:12.632650,65
2021-10-21 16:06:12.632659,80
2021-10-21 16:06:12.632667,77
2021-10-21 16:06:12.632675,63
2021-10-21 16:06:12.632684,63
2021-10-21 16:06:12.632692,65
2021-10-21 16:06:12.632700,55
2021-10-21 16:06:12.632708,36
2021-10-21 16:06:12.632717,-7
2021-10-21 16:06:12.632725,-53
2021-10-21 16:06:12.632733,-70
2021-10-21 16:06:12.632742,-77
2021-10-21 16:06:12.632750,-92
2021-10-21 16:06:12.632758,-102
2021-10-21 16:06:12.632766,-109
2021-10-21 16:06:12.632775,-119
2021-10-21 16:06:12.632783,-111
2021-10-21 16:06:12.632791,-92
2021-10-21 16:06:13.038273,-85
2021-10-21 16:06:13.038292,-85
2021-10-21 16:06:13.038302,-85
2021-10-21 16:06:13.038311,-85
2021-10-21 16:06:13.038319,-70
2021-10-21 16:06:13.038328,-60
2021-10-21 16:06:13.038336,-53
2021-10-21 16:06:13.038345,-46
2021-10-21 16:06:13.038353,-51
2021-10-21 16:06:13.038362,-60
2021-10-21 16:06:13.038370,-46
2021-10-21 16:06:13.038378,-34
2021-10-21 16:06:13.038386,-36
2021-10-21 16:06:13.038395,-41
2021-10-21 16:06:13.038403,-48
2021-10-21 16:06:13.038411,-55
2021-10-21 16:06:13.038419,-46
2021-10-21 16:06:13.038428,-36
2021-10-21 16:06:13.038436,-38
2021-10-21 16:06:13.038444,-41
2021-10-21 16:06:13.038453,-48
2021-10-21 16:06:13.038461,-58
2021-10-21 16:06:13.038469,-63
2021-10-21 16:06:13.038478,-63
2021-10-21 16:06:13.038486,-58
2021-10-21 16:06:13.038495,-53
2021-10-21 16:06:13.038503,-58
2021-10-21 16:06:13.038511,-63
2021-10-21 16:06:13.038520,-58
2021-10-21 16:06:13.038528,-46
2021-10-21 16:06:13.172619,-19
2021-10-21 16:06:13.172637,0
2021-10-21 16:06:13.172647,-9
2021-10-21 16:06:13.172656,-21
2021-10-21 16:06:13.172664,-24
2021-10-21 16:06:13.172673,-31
2021-10-21 16:06:13.172681,-43
2021-10-21 16:06:13.172689,-55
2021-10-21 16:06:13.172697,-68
2021-10-21 16:06:13.172706,-75
2021-10-21 16:06:13.172714,-82
2021-10-21 16:06:13.172722,-85
2021-10-21 16:06:13.172731,-75
2021-10-21 16:06:13.172739,-70
2021-10-21 16:06:13.172747,-85
2021-10-21 16:06:13.172756,-133
2021-10-21 16:06:13.172764,-201
2021-10-21 16:06:13.172772,-133
2021-10-21 16:06:13.172781,335
2021-10-21 16:06:13.172789,1214
2021-10-21 16:06:13.172797,1786
2021-10-21 16:06:13.172805,1167
2021-10-21 16:06:13.172814,24
2021-10-21 16:06:13.172822,-231
2021-10-21 16:06:13.172830,14
2021-10-21 16:06:13.172838,-119
2021-10-21 16:06:13.172846,-255
2021-10-21 16:06:13.172855,-165
2021-10-21 16:06:13.172863,-145
2021-10-21 16:06:13.172871,-184
2021-10-21 16:06:13.532028,-155
2021-10-21 16:06:13.532046,-131
2021-10-21 16:06:13.532056,-136
2021-10-21 16:06:13.532065,-121
2021-10-21 16:06:13.532073,-99
2021-10-21 16:06:13.532082,-87
2021-10-21 16:06:13.532090,-77
2021-10-21 16:06:13.532098,-68
2021-10-21 16:06:13.532107,-58
2021-10-21 16:06:13.532115,-41
2021-10-21 16:06:13.532123,-21
2021-10-21 16:06:13.532132,-7
2021-10-21 16:06:13.532140,-2
2021-10-21 16:06:13.532148,2
2021-10-21 16:06:13.532157,14
2021-10-21 16:06:13.532165,29
2021-10-21 16:06:13.532173,46
2021-10-21 16:06:13.532181,55
2021-10-21 16:06:13.532190,46
2021-10-21 16:06:13.532198,34
2021-10-21 16:06:13.532206,38
2021-10-21 16:06:13.532214,34
2021-10-21 16:06:13.532222,14
2021-10-21 16:06:13.532231,-9
2021-10-21 16:06:13.532239,-38
2021-10-21 16:06:13.532247,-70
2021-10-21 16:06:13.532256,-94
2021-10-21 16:06:13.532264,-111
2021-10-21 16:06:13.532278,-114
2021-10-21 16:06:13.532287,-109
2021-10-21 16:06:13.622590,-107
2021-10-21 16:06:13.622607,-107
2021-10-21 16:06:13.622617,-94
2021-10-21 16:06:13.622625,-82
2021-10-21 16:06:13.622634,-77
2021-10-21 16:06:13.622642,-68
2021-10-21 16:06:13.622650,-60
2021-10-21 16:06:13.622659,-53
2021-10-21 16:06:13.622667,-43
2021-10-21 16:06:13.622675,-43
2021-10-21 16:06:13.622684,-36
2021-10-21 16:06:13.622692,-29
2021-10-21 16:06:13.622700,-34
2021-10-21 16:06:13.622709,-34
2021-10-21 16:06:13.622717,-24
2021-10-21 16:06:13.622725,-26
2021-10-21 16:06:13.622734,-43
2021-10-21 16:06:13.622742,-51
2021-10-21 16:06:13.622750,-51
2021-10-21 16:06:13.622758,-48
2021-10-21 16:06:13.622767,-46
2021-10-21 16:06:13.622775,-48
2021-10-21 16:06:13.622783,-58
2021-10-21 16:06:13.622791,-60
2021-10-21 16:06:13.622800,-60
2021-10-21 16:06:13.622808,-60
2021-10-21 16:06:13.622816,-60
2021-10-21 16:06:13.622825,-60
2021-10-21 16:06:13.622833,-60
2021-10-21 16:06:13.622841,-60
2021-10-21 16:06:13.713191,-58
2021-10-21 16:06:13.713208,-48
2021-10-21 16:06:13.713218,-53
2021-10-21 16:06:13.713226,-68
2021-10-21 16:06:13.713235,-68
2021-10-21 16:06:13.713244,-72
2021-10-21 16:06:13.713252,-65
2021-10-21 16:06:13.713260,-38
2021-10-21 16:06:13.713269,-29
2021-10-21 16:06:13.713277,-41
2021-10-21 16:06:13.713285,-41
2021-10-21 16:06:13.713294,-43
2021-10-21 16:06:13.713302,-58
2021-10-21 16:06:13.713310,-58
2021-10-21 16:06:13.713318,-51
2021-10-21 16:06:13.713327,-51
2021-10-21 16:06:13.713335,-43
2021-10-21 16:06:13.713343,-43
2021-10-21 16:06:13.713352,-58
2021-10-21 16:06:13.713360,-48
2021-10-21 16:06:13.713368,-34
2021-10-21 16:06:13.713376,-65
2021-10-21 16:06:13.713385,-150
2021-10-21 16:06:13.713393,-201
2021-10-21 16:06:13.713401,12
2021-10-21 16:06:13.713410,712
2021-10-21 16:06:13.713418,1618
2021-10-21 16:06:13.713426,1739
2021-10-21 16:06:13.713434,708
2021-10-21 16:06:13.713443,-175
2021-10-21 16:06:13.983277,-107
2021-10-21 16:06:13.983295,7
2021-10-21 16:06:13.983305,-187
2021-10-21 16:06:13.983314,-206
2021-10-21 16:06:13.983322,-133
2021-10-21 16:06:13.983330,-175
2021-10-21 16:06:13.983339,-180
2021-10-21 16:06:13.983347,-128
2021-10-21 16:06:13.983355,-124
2021-10-21 16:06:13.983364,-128
2021-10-21 16:06:13.983372,-111
2021-10-21 16:06:13.983380,-107
2021-10-21 16:06:13.983389,-97
2021-10-21 16:06:13.983397,-75
2021-10-21 16:06:13.983405,-63
2021-10-21 16:06:13.983413,-53
2021-10-21 16:06:13.983421,-38
2021-10-21 16:06:13.983430,-31
2021-10-21 16:06:13.983438,-12
2021-10-21 16:06:13.983446,9
2021-10-21 16:06:13.983455,14
2021-10-21 16:06:13.983463,17
2021-10-21 16:06:13.983471,17
2021-10-21 16:06:13.983479,17
2021-10-21 16:06:13.983487,29
2021-10-21 16:06:13.983496,38
2021-10-21 16:06:13.983504,34
2021-10-21 16:06:13.983512,26
2021-10-21 16:06:13.983520,21
2021-10-21 16:06:13.983529,9
2021-10-21 16:06:14.252666,-12
2021-10-21 16:06:14.252685,-31
2021-10-21 16:06:14.252694,-51
2021-10-21 16:06:14.252703,-70
2021-10-21 16:06:14.252712,-85
2021-10-21 16:06:14.252720,-87
2021-10-21 16:06:14.252728,-80
2021-10-21 16:06:14.252737,-77
2021-10-21 16:06:14.252745,-70
2021-10-21 16:06:14.252754,-68
2021-10-21 16:06:14.252762,-72
2021-10-21 16:06:14.252771,-65
2021-10-21 16:06:14.252779,-48
2021-10-21 16:06:14.252787,-43
2021-10-21 16:06:14.252796,-43
2021-10-21 16:06:14.252804,-41
2021-10-21 16:06:14.252812,-48
2021-10-21 16:06:14.252820,-43
2021-10-21 16:06:14.252828,-29
2021-10-21 16:06:14.252837,-24
2021-10-21 16:06:14.252845,-26
2021-10-21 16:06:14.252853,-29
2021-10-21 16:06:14.252861,-29
2021-10-21 16:06:14.252870,-26
2021-10-21 16:06:14.252878,-14
2021-10-21 16:06:14.252886,-4
2021-10-21 16:06:14.252894,-9
2021-10-21 16:06:14.252903,-24
2021-10-21 16:06:14.252911,-31
2021-10-21 16:06:14.252919,-26
2021-10-21 16:06:14.433348,-21
2021-10-21 16:06:14.433367,-19
2021-10-21 16:06:14.433377,-19
2021-10-21 16:06:14.433385,-21
2021-10-21 16:06:14.433394,-24
2021-10-21 16:06:14.433402,-24
2021-10-21 16:06:14.433411,-19
2021-10-21 16:06:14.433419,-17
2021-10-21 16:06:14.433427,-24
2021-10-21 16:06:14.433436,-29
2021-10-21 16:06:14.433444,-7
2021-10-21 16:06:14.433452,14
2021-10-21 16:06:14.433461,4
2021-10-21 16:06:14.433469,-7
2021-10-21 16:06:14.433478,-9
2021-10-21 16:06:14.433486,-26
2021-10-21 16:06:14.433494,-43
2021-10-21 16:06:14.433503,-36
2021-10-21 16:06:14.433511,-26
2021-10-21 16:06:14.433519,-29
2021-10-21 16:06:14.433527,-26
2021-10-21 16:06:14.433536,-31
2021-10-21 16:06:14.433544,-31
2021-10-21 16:06:14.433552,-21
2021-10-21 16:06:14.433561,-24
2021-10-21 16:06:14.433569,-65
2021-10-21 16:06:14.433577,-145
2021-10-21 16:06:14.433585,-148
2021-10-21 16:06:14.433594,197
2021-10-21 16:06:14.433602,1012
2021-10-21 16:06:14.791988,1734
2021-10-21 16:06:14.792008,1379
2021-10-21 16:06:14.792018,250
2021-10-21 16:06:14.792026,-204
2021-10-21 16:06:14.792035,19
2021-10-21 16:06:14.792044,-24
2021-10-21 16:06:14.792052,-192
2021-10-21 16:06:14.792061,-141
2021-10-21 16:06:14.792069,-116
2021-10-21 16:06:14.792077,-163
2021-10-21 16:06:14.792086,-128
2021-10-21 16:06:14.792094,-90
2021-10-21 16:06:14.792102,-99
2021-10-21 16:06:14.792111,-90
2021-10-21 16:06:14.792119,-68
2021-10-21 16:06:14.792127,-72
2021-10-21 16:06:14.792136,-65
2021-10-21 16:06:14.792144,-38
2021-10-21 16:06:14.792152,-24
2021-10-21 16:06:14.792161,-12
2021-10-21 16:06:14.792169,-4
2021-10-21 16:06:14.792177,2
2021-10-21 16:06:14.792185,19
2021-10-21 16:06:14.792193,34
2021-10-21 16:06:14.792202,43
2021-10-21 16:06:14.792210,51
2021-10-21 16:06:14.792218,55
2021-10-21 16:06:14.792227,58
2021-10-21 16:06:14.792235,65
2021-10-21 16:06:14.792243,70
2021-10-21 16:06:14.928476,63
2021-10-21 16:06:14.928499,51
2021-10-21 16:06:14.928509,31
2021-10-21 16:06:14.928517,9
2021-10-21 16:06:14.928526,-4
2021-10-21 16:06:14.928535,-19
2021-10-21 16:06:14.928543,-31
2021-10-21 16:06:14.928551,-38
2021-10-21 16:06:14.928560,-53
2021-10-21 16:06:14.928568,-70
2021-10-21 16:06:14.928576,-68
2021-10-21 16:06:14.928585,-55
2021-10-21 16:06:14.928593,-48
2021-10-21 16:06:14.928602,-46
2021-10-21 16:06:14.928610,-46
2021-10-21 16:06:14.928618,-41
2021-10-21 16:06:14.928627,-34
2021-10-21 16:06:14.928635,-31
2021-10-21 16:06:14.928643,-26
2021-10-21 16:06:14.928651,-29
2021-10-21 16:06:14.928660,-41
2021-10-21 16:06:14.928668,-38
2021-10-21 16:06:14.928676,-26
2021-10-21 16:06:14.928685,-26
2021-10-21 16:06:14.928693,-34
2021-10-21 16:06:14.928701,-41
2021-10-21 16:06:14.928709,-48
2021-10-21 16:06:14.928718,-46
2021-10-21 16:06:14.928726,-43
2021-10-21 16:06:14.928734,-41
2021-10-21 16:06:15.243389,-36
2021-10-21 16:06:15.243409,-38
2021-10-21 16:06:15.243419,-68
2021-10-21 16:06:15.243427,-85
2021-10-21 16:06:15.243436,-72
2021-10-21 16:06:15.243444,-60
2021-10-21 16:06:15.243453,-68
2021-10-21 16:06:15.243461,-80
2021-10-21 16:06:15.243469,-80
2021-10-21 16:06:15.243478,-75
2021-10-21 16:06:15.243486,-82
2021-10-21 16:06:15.243495,-82
2021-10-21 16:06:15.243503,-80
2021-10-21 16:06:15.243511,-85
2021-10-21 16:06:15.243520,-72
2021-10-21 16:06:15.243528,-53
2021-10-21 16:06:15.243536,-63
2021-10-21 16:06:15.243545,-75
2021-10-21 16:06:15.243553,-72
2021-10-21 16:06:15.243562,-92
2021-10-21 16:06:15.243570,-107
2021-10-21 16:06:15.243578,-99
2021-10-21 16:06:15.243587,-92
2021-10-21 16:06:15.243598,-94
2021-10-21 16:06:15.243606,-87
2021-10-21 16:06:15.243615,-85
2021-10-21 16:06:15.243623,-87
2021-10-21 16:06:15.243632,-85
2021-10-21 16:06:15.243640,-92
2021-10-21 16:06:15.243648,-141
2021-10-21 16:06:15.333279,-214
2021-10-21 16:06:15.333297,-141
2021-10-21 16:06:15.333307,306
2021-10-21 16:06:15.333316,1121
2021-10-21 16:06:15.333324,1640
2021-10-21 16:06:15.333332,1060
2021-10-21 16:06:15.333341,29
2021-10-21 16:06:15.333349,-194
2021-10-21 16:06:15.333358,12
2021-10-21 16:06:15.333366,-109
2021-10-21 16:06:15.333374,-223
2021-10-21 16:06:15.333383,-148
2021-10-21 16:06:15.333391,-143
2021-10-21 16:06:15.333400,-184
2021-10-21 16:06:15.333408,-153
2021-10-21 16:06:15.333416,-124
2021-10-21 16:06:15.333424,-121
2021-10-21 16:06:15.333433,-109
2021-10-21 16:06:15.333441,-94
2021-10-21 16:06:15.333449,-87
2021-10-21 16:06:15.333457,-75
2021-10-21 16:06:15.333466,-55
2021-10-21 16:06:15.333474,-38
2021-10-21 16:06:15.333482,-34
2021-10-21 16:06:15.333490,-34
2021-10-21 16:06:15.333499,-21
2021-10-21 16:06:15.333507,-4
2021-10-21 16:06:15.333515,-2
2021-10-21 16:06:15.333524,4
2021-10-21 16:06:15.333532,12
2021-10-21 16:06:15.737024,4
2021-10-21 16:06:15.737043,7
2021-10-21 16:06:15.737053,12
2021-10-21 16:06:15.737062,4
2021-10-21 16:06:15.737070,-2
2021-10-21 16:06:15.737078,-17
2021-10-21 16:06:15.737087,-43
2021-10-21 16:06:15.737095,-63
2021-10-21 16:06:15.737103,-80
2021-10-21 16:06:15.737111,-107
2021-10-21 16:06:15.737120,-126
2021-10-21 16:06:15.737128,-138
2021-10-21 16:06:15.737136,-148
2021-10-21 16:06:15.737145,-145
2021-10-21 16:06:15.737153,-143
2021-10-21 16:06:15.737161,-153
2021-10-21 16:06:15.737170,-143
2021-10-21 16:06:15.737178,-126
2021-10-21 16:06:15.737186,-121
2021-10-21 16:06:15.737195,-114
2021-10-21 16:06:15.737203,-102
2021-10-21 16:06:15.737211,-97
2021-10-21 16:06:15.737219,-92
2021-10-21 16:06:15.737228,-94
2021-10-21 16:06:15.737236,-90
2021-10-21 16:06:15.737244,-72
2021-10-21 16:06:15.737252,-63
2021-10-21 16:06:15.737261,-72
2021-10-21 16:06:15.737269,-80
2021-10-21 16:06:15.737278,-82
2021-10-21 16:06:15.872666,-80
2021-10-21 16:06:15.872684,-75
2021-10-21 16:06:15.872693,-77
2021-10-21 16:06:15.872702,-77
2021-10-21 16:06:15.872711,-77
2021-10-21 16:06:15.872719,-90
2021-10-21 16:06:15.872728,-92
2021-10-21 16:06:15.872736,-80
2021-10-21 16:06:15.872745,-77
2021-10-21 16:06:15.872753,-92
2021-10-21 16:06:15.872761,-102
2021-10-21 16:06:15.872770,-97
2021-10-21 16:06:15.872778,-97
2021-10-21 16:06:15.872786,-107
2021-10-21 16:06:15.872795,-104
2021-10-21 16:06:15.872803,-92
2021-10-21 16:06:15.872811,-85
2021-10-21 16:06:15.872819,-65
2021-10-21 16:06:15.872828,-46
2021-10-21 16:06:15.872836,-46
2021-10-21 16:06:15.872844,-53
2021-10-21 16:06:15.872852,-58
2021-10-21 16:06:15.872861,-70
2021-10-21 16:06:15.872869,-80
2021-10-21 16:06:15.872877,-75
2021-10-21 16:06:15.872885,-65
2021-10-21 16:06:15.872893,-65
2021-10-21 16:06:15.872902,-70
2021-10-21 16:06:15.872910,-77
2021-10-21 16:06:15.872918,-77
2021-10-21 16:06:16.008293,-68
2021-10-21 16:06:16.008312,-85
2021-10-21 16:06:16.008321,-153
2021-10-21 16:06:16.008330,-201
2021-10-21 16:06:16.008338,-38
2021-10-21 16:06:16.008346,532
2021-10-21 16:06:16.008355,1323
2021-10-21 16:06:16.008363,1491
2021-10-21 16:06:16.008372,630
2021-10-21 16:06:16.008380,-153
2021-10-21 16:06:16.008388,-99
2021-10-21 16:06:16.008397,9
2021-10-21 16:06:16.008405,-163
2021-10-21 16:06:16.008413,-192
2021-10-21 16:06:16.008421,-133
2021-10-21 16:06:16.008429,-177
2021-10-21 16:06:16.008438,-194
2021-10-21 16:06:16.008446,-150
2021-10-21 16:06:16.008454,-143
2021-10-21 16:06:16.008462,-153
2021-10-21 16:06:16.008470,-131
2021-10-21 16:06:16.008479,-116
2021-10-21 16:06:16.008487,-116
2021-10-21 16:06:16.008495,-97
2021-10-21 16:06:16.008504,-75
2021-10-21 16:06:16.008512,-65
2021-10-21 16:06:16.008520,-51
2021-10-21 16:06:16.008528,-38
2021-10-21 16:06:16.008537,-29
2021-10-21 16:06:16.008545,-14
2021-10-21 16:06:16.457108,-2
2021-10-21 16:06:16.457127,4
2021-10-21 16:06:16.457136,14
2021-10-21 16:06:16.457145,7
2021-10-21 16:06:16.457153,-4
2021-10-21 16:06:16.457161,-4
2021-10-21 16:06:16.457170,2
2021-10-21 16:06:16.457178,7
2021-10-21 16:06:16.457186,-7
2021-10-21 16:06:16.457195,-36
2021-10-21 16:06:16.457203,-55
2021-10-21 16:06:16.457211,-60
2021-10-21 16:06:16.457219,-68
2021-10-21 16:06:16.457227,-80
2021-10-21 16:06:16.457236,-90
2021-10-21 16:06:16.457244,-97
2021-10-21 16:06:16.457252,-97
2021-10-21 16:06:16.457260,-85
2021-10-21 16:06:16.457268,-72
2021-10-21 16:06:16.457276,-63
2021-10-21 16:06:16.457284,-63
2021-10-21 16:06:16.457292,-68
2021-10-21 16:06:16.457300,-58
2021-10-21 16:06:16.457308,-43
2021-10-21 16:06:16.457316,-36
2021-10-21 16:06:16.457324,-26
2021-10-21 16:06:16.457332,-29
2021-10-21 16:06:16.457340,-36
2021-10-21 16:06:16.457349,-29
2021-10-21 16:06:16.457357,-19
2021-10-21 16:06:16.547654,-21
2021-10-21 16:06:16.547672,-26
2021-10-21 16:06:16.547682,-29
2021-10-21 16:06:16.547691,-31
2021-10-21 16:06:16.547699,-29
2021-10-21 16:06:16.547708,-26
2021-10-21 16:06:16.547716,-21
2021-10-21 16:06:16.547725,-19
2021-10-21 16:06:16.547733,-21
2021-10-21 16:06:16.547742,-26
2021-10-21 16:06:16.547750,-29
2021-10-21 16:06:16.547758,-26
2021-10-21 16:06:16.547767,-29
2021-10-21 16:06:16.547775,-31
2021-10-21 16:06:16.547784,-43
2021-10-21 16:06:16.547792,-51
2021-10-21 16:06:16.547800,-31
2021-10-21 16:06:16.547808,-2
2021-10-21 16:06:16.547816,9
2021-10-21 16:06:16.547825,4
2021-10-21 16:06:16.547833,-12
2021-10-21 16:06:16.547841,-31
2021-10-21 16:06:16.547850,-38
2021-10-21 16:06:16.547858,-41
2021-10-21 16:06:16.547866,-43
2021-10-21 16:06:16.547875,-43
2021-10-21 16:06:16.547883,-53
2021-10-21 16:06:16.547891,-53
2021-10-21 16:06:16.547900,-41
2021-10-21 16:06:16.547908,-34
2021-10-21 16:06:17.131817,-31
2021-10-21 16:06:17.131836,-41
2021-10-21 16:06:17.131845,-107
2021-10-21 16:06:17.131854,-180
2021-10-21 16:06:17.131863,-72
2021-10-21 16:06:17.131871,382
2021-10-21 16:06:17.131880,1121
2021-10-21 16:06:17.131888,1484
2021-10-21 16:06:17.131896,817
2021-10-21 16:06:17.131905,-70
2021-10-21 16:06:17.131913,-119
2021-10-21 16:06:17.131921,65
2021-10-21 16:06:17.131930,-87
2021-10-21 16:06:17.131938,-163
2021-10-21 16:06:17.131946,-97
2021-10-21 16:06:17.131955,-111
2021-10-21 16:06:17.131963,-119
2021-10-21 16:06:17.131971,-75
2021-10-21 16:06:17.131979,-60
2021-10-21 16:06:17.131988,-65
2021-10-21 16:06:17.131996,-51
2021-10-21 16:06:17.132004,-36
2021-10-21 16:06:17.132012,-19
2021-10-21 16:06:17.132021,0
2021-10-21 16:06:17.132029,7
2021-10-21 16:06:17.132037,-2
2021-10-21 16:06:17.132046,2
2021-10-21 16:06:17.132054,26
2021-10-21 16:06:17.132062,43
2021-10-21 16:06:17.132071,51
2021-10-21 16:06:17.357077,63
2021-10-21 16:06:17.357096,72
2021-10-21 16:06:17.357106,75
2021-10-21 16:06:17.357114,77
2021-10-21 16:06:17.357123,82
2021-10-21 16:06:17.357131,82
2021-10-21 16:06:17.357139,80
2021-10-21 16:06:17.357148,75
2021-10-21 16:06:17.357156,65
2021-10-21 16:06:17.357165,41
2021-10-21 16:06:17.357173,24
2021-10-21 16:06:17.357181,17
2021-10-21 16:06:17.357190,0
2021-10-21 16:06:17.357198,-24
2021-10-21 16:06:17.357207,-38
2021-10-21 16:06:17.357215,-38
2021-10-21 16:06:17.357223,-31
2021-10-21 16:06:17.357232,-24
2021-10-21 16:06:17.357240,-17
2021-10-21 16:06:17.357248,-17
2021-10-21 16:06:17.357257,-17
2021-10-21 16:06:17.357265,-12
2021-10-21 16:06:17.357273,-2
2021-10-21 16:06:17.357281,12
2021-10-21 16:06:17.357290,12
2021-10-21 16:06:17.357298,4
2021-10-21 16:06:17.357306,-4
2021-10-21 16:06:17.357315,-9
2021-10-21 16:06:17.357323,-2
2021-10-21 16:06:17.357331,7
2021-10-21 16:06:17.448269,2
2021-10-21 16:06:17.448286,-7
2021-10-21 16:06:17.448295,0
2021-10-21 16:06:17.448304,9
2021-10-21 16:06:17.448312,12
2021-10-21 16:06:17.448321,9
2021-10-21 16:06:17.448329,-2
2021-10-21 16:06:17.448337,-17
2021-10-21 16:06:17.448345,-17
2021-10-21 16:06:17.448354,-9
2021-10-21 16:06:17.448362,0
2021-10-21 16:06:17.448370,4
2021-10-21 16:06:17.448378,-9
2021-10-21 16:06:17.448387,-21
2021-10-21 16:06:17.448395,-4
2021-10-21 16:06:17.448403,21
2021-10-21 16:06:17.448411,38
2021-10-21 16:06:17.448422,43
2021-10-21 16:06:17.448430,31
2021-10-21 16:06:17.448438,14
2021-10-21 16:06:17.448447,7
2021-10-21 16:06:17.448455,-4
2021-10-21 16:06:17.448463,-4
2021-10-21 16:06:17.448472,2
2021-10-21 16:06:17.448480,4
2021-10-21 16:06:17.448488,9
2021-10-21 16:06:17.448496,17
2021-10-21 16:06:17.448505,19
2021-10-21 16:06:17.448513,14
2021-10-21 16:06:17.448521,-17
2021-10-21 16:06:17.538355,-82
2021-10-21 16:06:17.538373,-126
2021-10-21 16:06:17.538383,34
2021-10-21 16:06:17.538392,579
2021-10-21 16:06:17.538400,1318
2021-10-21 16:06:17.538408,1433
2021-10-21 16:06:17.538417,545
2021-10-21 16:06:17.538425,-175
2021-10-21 16:06:17.538433,-17
2021-10-21 16:06:17.538442,104
2021-10-21 16:06:17.538450,-85
2021-10-21 16:06:17.538458,-92
2021-10-21 16:06:17.538466,-24
2021-10-21 16:06:17.538475,-48
2021-10-21 16:06:17.538483,-41
2021-10-21 16:06:17.538491,-4
2021-10-21 16:06:17.538499,-4
2021-10-21 16:06:17.538507,-9
2021-10-21 16:06:17.538515,2
2021-10-21 16:06:17.538523,17
2021-10-21 16:06:17.538532,34
2021-10-21 16:06:17.538540,46
2021-10-21 16:06:17.538548,60
2021-10-21 16:06:17.538556,70
2021-10-21 16:06:17.538564,80
2021-10-21 16:06:17.538572,97
2021-10-21 16:06:17.538580,116
2021-10-21 16:06:17.538589,119
2021-10-21 16:06:17.538597,128
2021-10-21 16:06:17.538605,148
2021-10-21 16:06:17.628250,148
2021-10-21 16:06:17.628267,138
2021-10-21 16:06:17.628276,128
2021-10-21 16:06:17.628285,107
2021-10-21 16:06:17.628293,87
2021-10-21 16:06:17.628301,85
2021-10-21 16:06:17.628310,82
2021-10-21 16:06:17.628318,58
2021-10-21 16:06:17.628326,26
2021-10-21 16:06:17.628334,7
2021-10-21 16:06:17.628343,-4
2021-10-21 16:06:17.628351,-19
2021-10-21 16:06:17.628359,-29
2021-10-21 16:06:17.628367,-31
2021-10-21 16:06:17.628376,-26
2021-10-21 16:06:17.628384,-21
2021-10-21 16:06:17.628392,-21
2021-10-21 16:06:17.628400,-29
2021-10-21 16:06:17.628408,-26
2021-10-21 16:06:17.628417,-14
2021-10-21 16:06:17.628425,-2
2021-10-21 16:06:17.628433,2
2021-10-21 16:06:17.628441,-2
2021-10-21 16:06:17.628450,-9
2021-10-21 16:06:17.628458,-2
2021-10-21 16:06:17.628466,7
2021-10-21 16:06:17.628475,9
2021-10-21 16:06:17.628483,7
2021-10-21 16:06:17.628491,2
2021-10-21 16:06:17.628499,-4
2021-10-21 16:06:17.988312,2
2021-10-21 16:06:17.988331,14
2021-10-21 16:06:17.988340,9
2021-10-21 16:06:17.988349,-9
2021-10-21 16:06:17.988357,-21
2021-10-21 16:06:17.988365,-19
2021-10-21 16:06:17.988374,-17
2021-10-21 16:06:17.988382,-14
2021-10-21 16:06:17.988391,-9
2021-10-21 16:06:17.988399,-9
2021-10-21 16:06:17.988407,-12
2021-10-21 16:06:17.988416,-2
2021-10-21 16:06:17.988424,14
2021-10-21 16:06:17.988432,19
2021-10-21 16:06:17.988441,9
2021-10-21 16:06:17.988449,-2
2021-10-21 16:06:17.988457,-14
2021-10-21 16:06:17.988466,-7
2021-10-21 16:06:17.988474,9
2021-10-21 16:06:17.988482,9
2021-10-21 16:06:17.988491,4
2021-10-21 16:06:17.988499,-2
2021-10-21 16:06:17.988507,-17
2021-10-21 16:06:17.988515,-14
2021-10-21 16:06:17.988524,-12
2021-10-21 16:06:17.988532,-48
2021-10-21 16:06:17.988540,-126
2021-10-21 16:06:17.988549,-143
2021-10-21 16:06:17.988557,126
2021-10-21 16:06:17.988566,832
2021-10-21 16:06:18.167732,1586
2021-10-21 16:06:18.167751,1442
2021-10-21 16:06:18.167761,384
2021-10-21 16:06:18.167770,-194
2021-10-21 16:06:18.167778,9
2021-10-21 16:06:18.167787,17
2021-10-21 16:06:18.167795,-170
2021-10-21 16:06:18.167804,-136
2021-10-21 16:06:18.167812,-92
2021-10-21 16:06:18.167820,-150
2021-10-21 16:06:18.167828,-145
2021-10-21 16:06:18.167837,-94
2021-10-21 16:06:18.167845,-90
2021-10-21 16:06:18.167853,-90
2021-10-21 16:06:18.167862,-70
2021-10-21 16:06:18.167870,-65
2021-10-21 16:06:18.167878,-60
2021-10-21 16:06:18.167887,-36
2021-10-21 16:06:18.167895,-21
2021-10-21 16:06:18.167903,-9
2021-10-21 16:06:18.167912,0
2021-10-21 16:06:18.167920,-7
2021-10-21 16:06:18.167928,-9
2021-10-21 16:06:18.167936,7
2021-10-21 16:06:18.167945,24
2021-10-21 16:06:18.167953,34
2021-10-21 16:06:18.167961,41
2021-10-21 16:06:18.167970,36
2021-10-21 16:06:18.167978,31
2021-10-21 16:06:18.167986,38
2021-10-21 16:06:18.527133,43
2021-10-21 16:06:18.527151,36
2021-10-21 16:06:18.527161,19
2021-10-21 16:06:18.527169,-9
2021-10-21 16:06:18.527178,-29
2021-10-21 16:06:18.527187,-29
2021-10-21 16:06:18.527195,-38
2021-10-21 16:06:18.527203,-58
2021-10-21 16:06:18.527212,-77
2021-10-21 16:06:18.527220,-87
2021-10-21 16:06:18.527228,-85
2021-10-21 16:06:18.527237,-75
2021-10-21 16:06:18.527245,-68
2021-10-21 16:06:18.527253,-58
2021-10-21 16:06:18.527262,-58
2021-10-21 16:06:18.527270,-65
2021-10-21 16:06:18.527279,-55
2021-10-21 16:06:18.527287,-41
2021-10-21 16:06:18.527296,-38
2021-10-21 16:06:18.527304,-41
2021-10-21 16:06:18.527312,-43
2021-10-21 16:06:18.527321,-41
2021-10-21 16:06:18.527329,-26
2021-10-21 16:06:18.527338,-17
2021-10-21 16:06:18.527346,-17
2021-10-21 16:06:18.527354,-17
2021-10-21 16:06:18.527363,-21
2021-10-21 16:06:18.527371,-29
2021-10-21 16:06:18.527380,-19
2021-10-21 16:06:18.527388,-7
2021-10-21 16:06:18.617671,-7
2021-10-21 16:06:18.617689,-7
2021-10-21 16:06:18.617699,-14
2021-10-21 16:06:18.617707,-21
2021-10-21 16:06:18.617716,-14
2021-10-21 16:06:18.617724,-7
2021-10-21 16:06:18.617732,-4
2021-10-21 16:06:18.617741,14
2021-10-21 16:06:18.617749,31
2021-10-21 16:06:18.617757,19
2021-10-21 16:06:18.617765,12
2021-10-21 16:06:18.617774,21
2021-10-21 16:06:18.617782,19
2021-10-21 16:06:18.617790,0
2021-10-21 16:06:18.617798,-21
2021-10-21 16:06:18.617807,-38
2021-10-21 16:06:18.617815,-29
2021-10-21 16:06:18.617823,-12
2021-10-21 16:06:18.617831,-17
2021-10-21 16:06:18.617839,-26
2021-10-21 16:06:18.617848,-36
2021-10-21 16:06:18.617856,-46
2021-10-21 16:06:18.617864,-90
2021-10-21 16:06:18.617872,-165
2021-10-21 16:06:18.617881,-119
2021-10-21 16:06:18.617889,301
2021-10-21 16:06:18.617897,1121
2021-10-21 16:06:18.617905,1715
2021-10-21 16:06:18.617913,1199
2021-10-21 16:06:18.617922,102
2021-10-21 16:06:18.976846,-204
2021-10-21 16:06:18.976865,9
2021-10-21 16:06:18.976874,-104
2021-10-21 16:06:18.976883,-245
2021-10-21 16:06:18.976892,-167
2021-10-21 16:06:18.976900,-150
2021-10-21 16:06:18.976909,-189
2021-10-21 16:06:18.976917,-170
2021-10-21 16:06:18.976925,-155
2021-10-21 16:06:18.976934,-158
2021-10-21 16:06:18.976942,-143
2021-10-21 16:06:18.976950,-136
2021-10-21 16:06:18.976959,-138
2021-10-21 16:06:18.976967,-128
2021-10-21 16:06:18.976975,-116
2021-10-21 16:06:18.976984,-99
2021-10-21 16:06:18.976992,-85
2021-10-21 16:06:18.977001,-75
2021-10-21 16:06:18.977009,-60
2021-10-21 16:06:18.977017,-51
2021-10-21 16:06:18.977025,-43
2021-10-21 16:06:18.977034,-31
2021-10-21 16:06:18.977042,-19
2021-10-21 16:06:18.977051,-9
2021-10-21 16:06:18.977059,-7
2021-10-21 16:06:18.977073,-12
2021-10-21 16:06:18.977082,-14
2021-10-21 16:06:18.977090,-14
2021-10-21 16:06:18.977099,-14
2021-10-21 16:06:18.977136,-29
2021-10-21 16:06:19.112710,-51
2021-10-21 16:06:19.112729,-68
2021-10-21 16:06:19.112739,-82
2021-10-21 16:06:19.112748,-94
2021-10-21 16:06:19.112756,-104
2021-10-21 16:06:19.112765,-109
2021-10-21 16:06:19.112773,-111
2021-10-21 16:06:19.112782,-111
2021-10-21 16:06:19.112790,-104
2021-10-21 16:06:19.112799,-97
2021-10-21 16:06:19.112807,-92
2021-10-21 16:06:19.112815,-80
2021-10-21 16:06:19.112824,-75
2021-10-21 16:06:19.112832,-75
2021-10-21 16:06:19.112840,-77
2021-10-21 16:06:19.112849,-72
2021-10-21 16:06:19.112857,-63
2021-10-21 16:06:19.112865,-60
2021-10-21 16:06:19.112874,-68
2021-10-21 16:06:19.112882,-75
2021-10-21 16:06:19.112890,-77
2021-10-21 16:06:19.112898,-80
2021-10-21 16:06:19.112907,-75
2021-10-21 16:06:19.112915,-72
2021-10-21 16:06:19.112923,-85
2021-10-21 16:06:19.112932,-87
2021-10-21 16:06:19.112940,-80
2021-10-21 16:06:19.112948,-80
2021-10-21 16:06:19.112956,-77
2021-10-21 16:06:19.112964,-75
2021-10-21 16:06:19.382733,-85
2021-10-21 16:06:19.382751,-90
2021-10-21 16:06:19.382760,-80
2021-10-21 16:06:19.382769,-80
2021-10-21 16:06:19.382777,-77
2021-10-21 16:06:19.382786,-68
2021-10-21 16:06:19.382794,-53
2021-10-21 16:06:19.382802,-34
2021-10-21 16:06:19.382810,-29
2021-10-21 16:06:19.382818,-36
2021-10-21 16:06:19.382827,-38
2021-10-21 16:06:19.382835,-46
2021-10-21 16:06:19.382843,-70
2021-10-21 16:06:19.382851,-70
2021-10-21 16:06:19.382859,-55
2021-10-21 16:06:19.382868,-63
2021-10-21 16:06:19.382876,-75
2021-10-21 16:06:19.382884,-75
2021-10-21 16:06:19.382893,-77
2021-10-21 16:06:19.382901,-75
2021-10-21 16:06:19.382909,-87
2021-10-21 16:06:19.382917,-145
2021-10-21 16:06:19.382926,-209
2021-10-21 16:06:19.382934,-99
2021-10-21 16:06:19.382942,403
2021-10-21 16:06:19.382950,1226
2021-10-21 16:06:19.382959,1605
2021-10-21 16:06:19.382967,868
2021-10-21 16:06:19.382975,-85
2021-10-21 16:06:19.382983,-165
2021-10-21 16:06:19.473316,0
2021-10-21 16:06:19.473334,-167
2021-10-21 16:06:19.473343,-245
2021-10-21 16:06:19.473352,-167
2021-10-21 16:06:19.473361,-182
2021-10-21 16:06:19.473369,-209
2021-10-21 16:06:19.473377,-167
2021-10-21 16:06:19.473385,-148
2021-10-21 16:06:19.473394,-155
2021-10-21 16:06:19.473402,-143
2021-10-21 16:06:19.473411,-128
2021-10-21 16:06:19.473419,-131
2021-10-21 16:06:19.473427,-124
2021-10-21 16:06:19.473436,-102
2021-10-21 16:06:19.473447,-87
2021-10-21 16:06:19.473455,-82
2021-10-21 16:06:19.473464,-70
2021-10-21 16:06:19.473472,-63
2021-10-21 16:06:19.473480,-55
2021-10-21 16:06:19.473489,-38
2021-10-21 16:06:19.473497,-31
2021-10-21 16:06:19.473505,-29
2021-10-21 16:06:19.473514,-26
2021-10-21 16:06:19.473522,-29
2021-10-21 16:06:19.473530,-34
2021-10-21 16:06:19.473539,-43
2021-10-21 16:06:19.473547,-58
2021-10-21 16:06:19.473555,-65
2021-10-21 16:06:19.473563,-75
2021-10-21 16:06:19.473572,-102
2021-10-21 16:06:19.698348,-119
2021-10-21 16:06:19.698366,-119
2021-10-21 16:06:19.698376,-126
2021-10-21 16:06:19.698385,-143
2021-10-21 16:06:19.698393,-158
2021-10-21 16:06:19.698402,-163
2021-10-21 16:06:19.698410,-153
2021-10-21 16:06:19.698419,-136
2021-10-21 16:06:19.698427,-124
2021-10-21 16:06:19.698436,-128
2021-10-21 16:06:19.698444,-133
2021-10-21 16:06:19.698453,-126
2021-10-21 16:06:19.698461,-109
2021-10-21 16:06:19.698469,-102
2021-10-21 16:06:19.698478,-102
2021-10-21 16:06:19.698486,-102
2021-10-21 16:06:19.698494,-97
2021-10-21 16:06:19.698502,-90
2021-10-21 16:06:19.698511,-85
2021-10-21 16:06:19.698519,-85
2021-10-21 16:06:19.698527,-85
2021-10-21 16:06:19.698536,-85
2021-10-21 16:06:19.698544,-85
2021-10-21 16:06:19.698552,-80
2021-10-21 16:06:19.698561,-75
2021-10-21 16:06:19.698569,-70
2021-10-21 16:06:19.698577,-70
2021-10-21 16:06:19.698586,-70
2021-10-21 16:06:19.698594,-68
2021-10-21 16:06:19.698602,-60
2021-10-21 16:06:19.923359,-53
2021-10-21 16:06:19.923377,-53
2021-10-21 16:06:19.923386,-53
2021-10-21 16:06:19.923395,-63
2021-10-21 16:06:19.923403,-75
2021-10-21 16:06:19.923412,-60
2021-10-21 16:06:19.923420,-24
2021-10-21 16:06:19.923428,-4
2021-10-21 16:06:19.923437,-14
2021-10-21 16:06:19.923445,-31
2021-10-21 16:06:19.923453,-38
2021-10-21 16:06:19.923462,-38
2021-10-21 16:06:19.923470,-36
2021-10-21 16:06:19.923478,-29
2021-10-21 16:06:19.923486,-31
2021-10-21 16:06:19.923495,-38
2021-10-21 16:06:19.923503,-38
2021-10-21 16:06:19.923511,-38
2021-10-21 16:06:19.923519,-36
2021-10-21 16:06:19.923528,-31
2021-10-21 16:06:19.923536,-51
2021-10-21 16:06:19.923544,-121
2021-10-21 16:06:19.923552,-182
2021-10-21 16:06:19.923560,-58
2021-10-21 16:06:19.923568,445
2021-10-21 16:06:19.923576,1221
2021-10-21 16:06:19.923584,1520
2021-10-21 16:06:19.923593,747
2021-10-21 16:06:19.923601,-141
2021-10-21 16:06:19.923609,-136
2021-10-21 16:06:20.193343,41
2021-10-21 16:06:20.193362,-148
2021-10-21 16:06:20.193371,-236
2021-10-21 16:06:20.193380,-165
2021-10-21 16:06:20.193388,-175
2021-10-21 16:06:20.193397,-184
2021-10-21 16:06:20.193405,-143
2021-10-21 16:06:20.193413,-128
2021-10-21 16:06:20.193422,-141
2021-10-21 16:06:20.193430,-136
2021-10-21 16:06:20.193438,-111
2021-10-21 16:06:20.193447,-92
2021-10-21 16:06:20.193455,-77
2021-10-21 16:06:20.193463,-65
2021-10-21 16:06:20.193471,-55
2021-10-21 16:06:20.193480,-48
2021-10-21 16:06:20.193488,-34
2021-10-21 16:06:20.193496,-17
2021-10-21 16:06:20.193504,-2
2021-10-21 16:06:20.193513,14
2021-10-21 16:06:20.193521,29
2021-10-21 16:06:20.193529,29
2021-10-21 16:06:20.193537,29
2021-10-21 16:06:20.193545,26
2021-10-21 16:06:20.193554,21
2021-10-21 16:06:20.193562,21
2021-10-21 16:06:20.193570,12
2021-10-21 16:06:20.193578,-9
2021-10-21 16:06:20.193587,-21
2021-10-21 16:06:20.193595,-38
2021-10-21 16:06:20.418345,-55
2021-10-21 16:06:20.418364,-65
2021-10-21 16:06:20.418374,-82
2021-10-21 16:06:20.418383,-99
2021-10-21 16:06:20.418391,-99
2021-10-21 16:06:20.418400,-92
2021-10-21 16:06:20.418408,-82
2021-10-21 16:06:20.418416,-82
2021-10-21 16:06:20.418425,-92
2021-10-21 16:06:20.418433,-87
2021-10-21 16:06:20.418442,-65
2021-10-21 16:06:20.418450,-60
2021-10-21 16:06:20.418458,-63
2021-10-21 16:06:20.418467,-58
2021-10-21 16:06:20.418475,-63
2021-10-21 16:06:20.418483,-70
2021-10-21 16:06:20.418491,-55
2021-10-21 16:06:20.418500,-38
2021-10-21 16:06:20.418508,-43
2021-10-21 16:06:20.418516,-48
2021-10-21 16:06:20.418525,-43
2021-10-21 16:06:20.418533,-38
2021-10-21 16:06:20.418542,-43
2021-10-21 16:06:20.418550,-48
2021-10-21 16:06:20.418558,-43
2021-10-21 16:06:20.418566,-38
2021-10-21 16:06:20.418575,-43
2021-10-21 16:06:20.418583,-43
2021-10-21 16:06:20.418592,-38
2021-10-21 16:06:20.418600,-41
2021-10-21 16:06:20.643347,-29
2021-10-21 16:06:20.643364,0
2021-10-21 16:06:20.643373,9
2021-10-21 16:06:20.643382,0
2021-10-21 16:06:20.643390,0
2021-10-21 16:06:20.643399,4
2021-10-21 16:06:20.643407,-9
2021-10-21 16:06:20.643416,-48
2021-10-21 16:06:20.643424,-63
2021-10-21 16:06:20.643433,-51
2021-10-21 16:06:20.643441,-41
2021-10-21 16:06:20.643449,-36
2021-10-21 16:06:20.643458,-34
2021-10-21 16:06:20.643466,-43
2021-10-21 16:06:20.643475,-58
2021-10-21 16:06:20.643483,-68
2021-10-21 16:06:20.643491,-111
2021-10-21 16:06:20.643500,-184
2021-10-21 16:06:20.643508,-109
2021-10-21 16:06:20.643517,350
2021-10-21 16:06:20.643525,1124
2021-10-21 16:06:20.643534,1506
2021-10-21 16:06:20.643542,793
2021-10-21 16:06:20.643551,-172
2021-10-21 16:06:20.643559,-194
2021-10-21 16:06:20.643568,55
2021-10-21 16:06:20.643576,-121
2021-10-21 16:06:20.643584,-209
2021-10-21 16:06:20.643593,-109
2021-10-21 16:06:20.643601,-128
2021-10-21 16:06:20.957030,-165
2021-10-21 16:06:20.957049,-128
2021-10-21 16:06:20.957059,-111
2021-10-21 16:06:20.957067,-109
2021-10-21 16:06:20.957076,-90
2021-10-21 16:06:20.957084,-70
2021-10-21 16:06:20.957093,-70
2021-10-21 16:06:20.957101,-72
2021-10-21 16:06:20.957109,-58
2021-10-21 16:06:20.957118,-34
2021-10-21 16:06:20.957126,-14
2021-10-21 16:06:20.957134,-4
2021-10-21 16:06:20.957143,0
2021-10-21 16:06:20.957151,4
2021-10-21 16:06:20.957160,21
2021-10-21 16:06:20.957168,31
2021-10-21 16:06:20.957176,38
2021-10-21 16:06:20.957185,48
2021-10-21 16:06:20.957193,53
2021-10-21 16:06:20.957201,48
2021-10-21 16:06:20.957209,41
2021-10-21 16:06:20.957218,31
2021-10-21 16:06:20.957226,17
2021-10-21 16:06:20.957234,-12
2021-10-21 16:06:20.957242,-43
2021-10-21 16:06:20.957251,-65
2021-10-21 16:06:20.957259,-77
2021-10-21 16:06:20.957267,-97
2021-10-21 16:06:20.957276,-111
2021-10-21 16:06:20.957284,-114
2021-10-21 16:06:21.137732,-119
2021-10-21 16:06:21.137751,-109
2021-10-21 16:06:21.137760,-94
2021-10-21 16:06:21.137769,-94
2021-10-21 16:06:21.137777,-87
2021-10-21 16:06:21.137785,-80
2021-10-21 16:06:21.137794,-87
2021-10-21 16:06:21.137802,-92
2021-10-21 16:06:21.137810,-80
2021-10-21 16:06:21.137818,-70
2021-10-21 16:06:21.137826,-63
2021-10-21 16:06:21.137835,-58
2021-10-21 16:06:21.137843,-70
2021-10-21 16:06:21.137851,-80
2021-10-21 16:06:21.137859,-63
2021-10-21 16:06:21.137867,-48
2021-10-21 16:06:21.137875,-53
2021-10-21 16:06:21.137883,-60
2021-10-21 16:06:21.137892,-65
2021-10-21 16:06:21.137900,-58
2021-10-21 16:06:21.137908,-55
2021-10-21 16:06:21.137916,-60
2021-10-21 16:06:21.137924,-60
2021-10-21 16:06:21.137932,-58
2021-10-21 16:06:21.137940,-53
2021-10-21 16:06:21.137949,-26
2021-10-21 16:06:21.137957,-9
2021-10-21 16:06:21.137965,-19
2021-10-21 16:06:21.137973,-24
2021-10-21 16:06:21.137982,-24
2021-10-21 16:06:21.318353,-36
2021-10-21 16:06:21.318372,-46
2021-10-21 16:06:21.318381,-48
2021-10-21 16:06:21.318390,-51
2021-10-21 16:06:21.318399,-48
2021-10-21 16:06:21.318407,-53
2021-10-21 16:06:21.318415,-55
2021-10-21 16:06:21.318424,-46
2021-10-21 16:06:21.318432,-46
2021-10-21 16:06:21.318440,-75
2021-10-21 16:06:21.318448,-155
2021-10-21 16:06:21.318457,-223
2021-10-21 16:06:21.318465,-46
2021-10-21 16:06:21.318473,601
2021-10-21 16:06:21.318482,1498
2021-10-21 16:06:21.318490,1715
2021-10-21 16:06:21.318498,732
2021-10-21 16:06:21.318506,-206
2021-10-21 16:06:21.318514,-138
2021-10-21 16:06:21.318522,29
2021-10-21 16:06:21.318531,-175
2021-10-21 16:06:21.318539,-223
2021-10-21 16:06:21.318547,-145
2021-10-21 16:06:21.318555,-177
2021-10-21 16:06:21.318564,-197
2021-10-21 16:06:21.318572,-158
2021-10-21 16:06:21.318580,-150
2021-10-21 16:06:21.318588,-158
2021-10-21 16:06:21.318597,-141
2021-10-21 16:06:21.318605,-121
2021-10-21 16:06:21.588375,-111
2021-10-21 16:06:21.588394,-92
2021-10-21 16:06:21.588403,-72
2021-10-21 16:06:21.588412,-75
2021-10-21 16:06:21.588420,-87
2021-10-21 16:06:21.588429,-80
2021-10-21 16:06:21.588437,-53
2021-10-21 16:06:21.588446,-34
2021-10-21 16:06:21.588454,-24
2021-10-21 16:06:21.588462,-14
2021-10-21 16:06:21.588471,-9
2021-10-21 16:06:21.588479,-9
2021-10-21 16:06:21.588487,-2
2021-10-21 16:06:21.588496,4
2021-10-21 16:06:21.588504,2
2021-10-21 16:06:21.588513,-7
2021-10-21 16:06:21.588521,-29
2021-10-21 16:06:21.588529,-63
2021-10-21 16:06:21.588538,-104
2021-10-21 16:06:21.588546,-136
2021-10-21 16:06:21.588554,-145
2021-10-21 16:06:21.588562,-155
2021-10-21 16:06:21.588571,-163
2021-10-21 16:06:21.588579,-160
2021-10-21 16:06:21.588587,-155
2021-10-21 16:06:21.588596,-148
2021-10-21 16:06:21.588604,-136
2021-10-21 16:06:21.588612,-126
2021-10-21 16:06:21.588620,-121
2021-10-21 16:06:21.588629,-107
2021-10-21 16:06:21.768314,-97
2021-10-21 16:06:21.768333,-94
2021-10-21 16:06:21.768342,-90
2021-10-21 16:06:21.768351,-90
2021-10-21 16:06:21.768360,-97
2021-10-21 16:06:21.768368,-97
2021-10-21 16:06:21.768377,-94
2021-10-21 16:06:21.768385,-90
2021-10-21 16:06:21.768393,-82
2021-10-21 16:06:21.768402,-85
2021-10-21 16:06:21.768410,-87
2021-10-21 16:06:21.768418,-77
2021-10-21 16:06:21.768427,-68
2021-10-21 16:06:21.768435,-65
2021-10-21 16:06:21.768443,-68
2021-10-21 16:06:21.768452,-77
2021-10-21 16:06:21.768460,-87
2021-10-21 16:06:21.768469,-85
2021-10-21 16:06:21.768477,-70
2021-10-21 16:06:21.768485,-51
2021-10-21 16:06:21.768493,-34
2021-10-21 16:06:21.768502,-31
2021-10-21 16:06:21.768510,-36
2021-10-21 16:06:21.768518,-31
2021-10-21 16:06:21.768527,-29
2021-10-21 16:06:21.768535,-36
2021-10-21 16:06:21.768543,-41
2021-10-21 16:06:21.768551,-43
2021-10-21 16:06:21.768560,-41
2021-10-21 16:06:21.768568,-31
2021-10-21 16:06:22.038378,-29
2021-10-21 16:06:22.038396,-29
2021-10-21 16:06:22.038405,-34
2021-10-21 16:06:22.038414,-53
2021-10-21 16:06:22.038423,-97
2021-10-21 16:06:22.038431,-167
2021-10-21 16:06:22.038439,-155
2021-10-21 16:06:22.038448,197
2021-10-21 16:06:22.038456,1007
2021-10-21 16:06:22.038465,1739
2021-10-21 16:06:22.038473,1406
2021-10-21 16:06:22.038482,255
2021-10-21 16:06:22.038490,-245
2021-10-21 16:06:22.038499,-24
2021-10-21 16:06:22.038507,-60
2021-10-21 16:06:22.038515,-245
2021-10-21 16:06:22.038524,-192
2021-10-21 16:06:22.038532,-143
2021-10-21 16:06:22.038540,-189
2021-10-21 16:06:22.038551,-180
2021-10-21 16:06:22.038559,-145
2021-10-21 16:06:22.038568,-158
2021-10-21 16:06:22.038576,-163
2021-10-21 16:06:22.038584,-153
2021-10-21 16:06:22.038593,-153
2021-10-21 16:06:22.038601,-138
2021-10-21 16:06:22.038609,-121
2021-10-21 16:06:22.038617,-114
2021-10-21 16:06:22.038625,-97
2021-10-21 16:06:22.038634,-75
2021-10-21 16:06:22.263492,-60
2021-10-21 16:06:22.263513,-48
2021-10-21 16:06:22.263523,-31
2021-10-21 16:06:22.263531,-19
2021-10-21 16:06:22.263540,-4
2021-10-21 16:06:22.263548,9
2021-10-21 16:06:22.263557,19
2021-10-21 16:06:22.263565,17
2021-10-21 16:06:22.263574,4
2021-10-21 16:06:22.263582,-12
2021-10-21 16:06:22.263591,-29
2021-10-21 16:06:22.263599,-48
2021-10-21 16:06:22.263607,-75
2021-10-21 16:06:22.263616,-104
2021-10-21 16:06:22.263624,-133
2021-10-21 16:06:22.263632,-153
2021-10-21 16:06:22.263641,-153
2021-10-21 16:06:22.263649,-148
2021-10-21 16:06:22.263657,-141
2021-10-21 16:06:22.263666,-138
2021-10-21 16:06:22.263674,-138
2021-10-21 16:06:22.263682,-133
2021-10-21 16:06:22.263691,-116
2021-10-21 16:06:22.263699,-102
2021-10-21 16:06:22.263707,-92
2021-10-21 16:06:22.263716,-85
2021-10-21 16:06:22.263724,-77
2021-10-21 16:06:22.263732,-72
2021-10-21 16:06:22.263740,-63
2021-10-21 16:06:22.263749,-55
2021-10-21 16:06:22.578398,-53
2021-10-21 16:06:22.578417,-48
2021-10-21 16:06:22.578426,-51
2021-10-21 16:06:22.578435,-51
2021-10-21 16:06:22.578443,-41
2021-10-21 16:06:22.578452,-34
2021-10-21 16:06:22.578460,-34
2021-10-21 16:06:22.578468,-41
2021-10-21 16:06:22.578477,-53
2021-10-21 16:06:22.578485,-53
2021-10-21 16:06:22.578493,-41
2021-10-21 16:06:22.578502,-21
2021-10-21 16:06:22.578510,-14
2021-10-21 16:06:22.578518,-26
2021-10-21 16:06:22.578526,-34
2021-10-21 16:06:22.578534,-36
2021-10-21 16:06:22.578542,-38
2021-10-21 16:06:22.578551,-38
2021-10-21 16:06:22.578559,-41
2021-10-21 16:06:22.578567,-43
2021-10-21 16:06:22.578575,-38
2021-10-21 16:06:22.578583,-29
2021-10-21 16:06:22.578592,-21
2021-10-21 16:06:22.578600,-17
2021-10-21 16:06:22.578608,-14
2021-10-21 16:06:22.578617,-29
2021-10-21 16:06:22.578625,-87
2021-10-21 16:06:22.578633,-160
2021-10-21 16:06:22.578641,-80
2021-10-21 16:06:22.578650,396
2021-10-21 16:06:22.758324,1231
2021-10-21 16:06:22.758343,1717
2021-10-21 16:06:22.758352,1063
2021-10-21 16:06:22.758361,12
2021-10-21 16:06:22.758370,-163
2021-10-21 16:06:22.758378,58
2021-10-21 16:06:22.758387,-92
2021-10-21 16:06:22.758395,-221
2021-10-21 16:06:22.758403,-136
2021-10-21 16:06:22.758412,-126
2021-10-21 16:06:22.758420,-160
2021-10-21 16:06:22.758428,-124
2021-10-21 16:06:22.758436,-104
2021-10-21 16:06:22.758445,-126
2021-10-21 16:06:22.758453,-121
2021-10-21 16:06:22.758461,-99
2021-10-21 16:06:22.758470,-90
2021-10-21 16:06:22.758478,-85
2021-10-21 16:06:22.758486,-77
2021-10-21 16:06:22.758494,-68
2021-10-21 16:06:22.758502,-58
2021-10-21 16:06:22.758511,-51
2021-10-21 16:06:22.758519,-34
2021-10-21 16:06:22.758527,-17
2021-10-21 16:06:22.758535,-9
2021-10-21 16:06:22.758543,-4
2021-10-21 16:06:22.758551,9
2021-10-21 16:06:22.758559,17
2021-10-21 16:06:22.758568,19
2021-10-21 16:06:22.758576,24
2021-10-21 16:06:23.072039,19
2021-10-21 16:06:23.072057,9
2021-10-21 16:06:23.072067,-7
2021-10-21 16:06:23.072076,-34
2021-10-21 16:06:23.072084,-58
2021-10-21 16:06:23.072093,-75
2021-10-21 16:06:23.072101,-92
2021-10-21 16:06:23.072110,-104
2021-10-21 16:06:23.072118,-107
2021-10-21 16:06:23.072126,-111
2021-10-21 16:06:23.072135,-109
2021-10-21 16:06:23.072143,-109
2021-10-21 16:06:23.072152,-111
2021-10-21 16:06:23.072160,-102
2021-10-21 16:06:23.072169,-90
2021-10-21 16:06:23.072177,-90
2021-10-21 16:06:23.072185,-92
2021-10-21 16:06:23.072194,-92
2021-10-21 16:06:23.072202,-92
2021-10-21 16:06:23.072211,-82
2021-10-21 16:06:23.072219,-75
2021-10-21 16:06:23.072227,-72
2021-10-21 16:06:23.072236,-68
2021-10-21 16:06:23.072244,-60
2021-10-21 16:06:23.072253,-58
2021-10-21 16:06:23.072261,-53
2021-10-21 16:06:23.072270,-51
2021-10-21 16:06:23.072278,-51
2021-10-21 16:06:23.072286,-46
2021-10-21 16:06:23.072295,-43
2021-10-21 16:06:23.207793,-48
2021-10-21 16:06:23.207812,-48
2021-10-21 16:06:23.207822,-41
2021-10-21 16:06:23.207830,-31
2021-10-21 16:06:23.207839,-12
2021-10-21 16:06:23.207847,-4
2021-10-21 16:06:23.207856,-19
2021-10-21 16:06:23.207864,-19
2021-10-21 16:06:23.207873,-17
2021-10-21 16:06:23.207881,-34
2021-10-21 16:06:23.207889,-46
2021-10-21 16:06:23.207897,-46
2021-10-21 16:06:23.207906,-41
2021-10-21 16:06:23.207914,-29
2021-10-21 16:06:23.207922,-29
2021-10-21 16:06:23.207930,-41
2021-10-21 16:06:23.207939,-38
2021-10-21 16:06:23.207947,-17
2021-10-21 16:06:23.207955,-34
2021-10-21 16:06:23.207963,-119
2021-10-21 16:06:23.207972,-175
2021-10-21 16:06:23.207980,17
2021-10-21 16:06:23.207988,639
2021-10-21 16:06:23.207996,1469
2021-10-21 16:06:23.208004,1593
2021-10-21 16:06:23.208012,635
2021-10-21 16:06:23.208020,-163
2021-10-21 16:06:23.208028,-58
2021-10-21 16:06:23.208037,48
2021-10-21 16:06:23.208045,-148
2021-10-21 16:06:23.388371,-165
2021-10-21 16:06:23.388390,-85
2021-10-21 16:06:23.388399,-114
2021-10-21 16:06:23.388408,-126
2021-10-21 16:06:23.388416,-94
2021-10-21 16:06:23.388425,-97
2021-10-21 16:06:23.388433,-99
2021-10-21 16:06:23.388441,-80
2021-10-21 16:06:23.388450,-70
2021-10-21 16:06:23.388458,-65
2021-10-21 16:06:23.388466,-60
2021-10-21 16:06:23.388475,-53
2021-10-21 16:06:23.388483,-34
2021-10-21 16:06:23.388492,-14
2021-10-21 16:06:23.388500,-4
2021-10-21 16:06:23.388508,2
2021-10-21 16:06:23.388517,12
2021-10-21 16:06:23.388525,17
2021-10-21 16:06:23.388533,19
2021-10-21 16:06:23.388542,24
2021-10-21 16:06:23.388550,9
2021-10-21 16:06:23.388558,-2
2021-10-21 16:06:23.388567,0
2021-10-21 16:06:23.388575,2
2021-10-21 16:06:23.388584,-7
2021-10-21 16:06:23.388592,-24
2021-10-21 16:06:23.388601,-48
2021-10-21 16:06:23.388609,-77
2021-10-21 16:06:23.388617,-102
2021-10-21 16:06:23.388626,-109
2021-10-21 16:06:23.613396,-116
2021-10-21 16:06:23.613415,-126
2021-10-21 16:06:23.613425,-128
2021-10-21 16:06:23.613433,-128
2021-10-21 16:06:23.613442,-131
2021-10-21 16:06:23.613451,-121
2021-10-21 16:06:23.613459,-107
2021-10-21 16:06:23.613467,-99
2021-10-21 16:06:23.613476,-94
2021-10-21 16:06:23.613484,-90
2021-10-21 16:06:23.613493,-104
2021-10-21 16:06:23.613501,-116
2021-10-21 16:06:23.613509,-109
2021-10-21 16:06:23.613518,-94
2021-10-21 16:06:23.613526,-87
2021-10-21 16:06:23.613535,-90
2021-10-21 16:06:23.613543,-97
2021-10-21 16:06:23.613551,-99
2021-10-21 16:06:23.613559,-90
2021-10-21 16:06:23.613568,-75
2021-10-21 16:06:23.613576,-72
2021-10-21 16:06:23.613584,-80
2021-10-21 16:06:23.613593,-77
2021-10-21 16:06:23.613601,-53
2021-10-21 16:06:23.613609,-34
2021-10-21 16:06:23.613617,-34
2021-10-21 16:06:23.613625,-38
2021-10-21 16:06:23.613634,-51
2021-10-21 16:06:23.613642,-65
2021-10-21 16:06:23.613650,-63
2021-10-21 16:06:23.883376,-46
2021-10-21 16:06:23.883395,-34
2021-10-21 16:06:23.883404,-43
2021-10-21 16:06:23.883413,-58
2021-10-21 16:06:23.883421,-55
2021-10-21 16:06:23.883430,-43
2021-10-21 16:06:23.883438,-41
2021-10-21 16:06:23.883446,-65
2021-10-21 16:06:23.883455,-136
2021-10-21 16:06:23.883463,-170
2021-10-21 16:06:23.883471,72
2021-10-21 16:06:23.883480,759
2021-10-21 16:06:23.883488,1532
2021-10-21 16:06:23.883496,1462
2021-10-21 16:06:23.883504,411
2021-10-21 16:06:23.883513,-243
2021-10-21 16:06:23.883521,-26
2021-10-21 16:06:23.883529,43
2021-10-21 16:06:23.883537,-145
2021-10-21 16:06:23.883546,-116
2021-10-21 16:06:23.883554,-51
2021-10-21 16:06:23.883562,-97
2021-10-21 16:06:23.883570,-94
2021-10-21 16:06:23.883578,-51
2021-10-21 16:06:23.883586,-60
2021-10-21 16:06:23.883595,-65
2021-10-21 16:06:23.883603,-36
2021-10-21 16:06:23.883611,-17
2021-10-21 16:06:23.883619,-12
2021-10-21 16:06:23.883628,4
2021-10-21 16:06:24.108402,19
2021-10-21 16:06:24.108421,24
2021-10-21 16:06:24.108430,26
2021-10-21 16:06:24.108439,38
2021-10-21 16:06:24.108448,63
2021-10-21 16:06:24.108456,82
2021-10-21 16:06:24.108465,92
2021-10-21 16:06:24.108473,99
2021-10-21 16:06:24.108482,94
2021-10-21 16:06:24.108490,87
2021-10-21 16:06:24.108499,92
2021-10-21 16:06:24.108507,85
2021-10-21 16:06:24.108516,63
2021-10-21 16:06:24.108524,38
2021-10-21 16:06:24.108532,0
2021-10-21 16:06:24.108541,-53
2021-10-21 16:06:24.108549,-97
2021-10-21 16:06:24.108558,-121
2021-10-21 16:06:24.108566,-128
2021-10-21 16:06:24.108574,-133
2021-10-21 16:06:24.108583,-150
2021-10-21 16:06:24.108591,-155
2021-10-21 16:06:24.108599,-138
2021-10-21 16:06:24.108608,-121
2021-10-21 16:06:24.108616,-119
2021-10-21 16:06:24.108625,-111
2021-10-21 16:06:24.108633,-104
2021-10-21 16:06:24.108641,-104
2021-10-21 16:06:24.108650,-92
2021-10-21 16:06:24.108658,-82
2021-10-21 16:06:24.333406,-80
2021-10-21 16:06:24.333425,-75
2021-10-21 16:06:24.333434,-72
2021-10-21 16:06:24.333443,-72
2021-10-21 16:06:24.333451,-65
2021-10-21 16:06:24.333459,-58
2021-10-21 16:06:24.333468,-55
2021-10-21 16:06:24.333476,-58
2021-10-21 16:06:24.333484,-53
2021-10-21 16:06:24.333493,-41
2021-10-21 16:06:24.333501,-34
2021-10-21 16:06:24.333509,-29
2021-10-21 16:06:24.333517,-29
2021-10-21 16:06:24.333525,-41
2021-10-21 16:06:24.333534,-63
2021-10-21 16:06:24.333542,-63
2021-10-21 16:06:24.333550,-51
2021-10-21 16:06:24.333558,-46
2021-10-21 16:06:24.333567,-43
2021-10-21 16:06:24.333575,-43
2021-10-21 16:06:24.333583,-41
2021-10-21 16:06:24.333591,-38
2021-10-21 16:06:24.333599,-43
2021-10-21 16:06:24.333608,-90
2021-10-21 16:06:24.333616,-170
2021-10-21 16:06:24.333624,-121
2021-10-21 16:06:24.333632,318
2021-10-21 16:06:24.333641,1150
2021-10-21 16:06:24.333649,1676
2021-10-21 16:06:24.333657,1043
2021-10-21 16:06:24.603403,-48
2021-10-21 16:06:24.603422,-214
2021-10-21 16:06:24.603431,70
2021-10-21 16:06:24.603440,-65
2021-10-21 16:06:24.603449,-187
2021-10-21 16:06:24.603457,-85
2021-10-21 16:06:24.603466,-87
2021-10-21 16:06:24.603474,-138
2021-10-21 16:06:24.603482,-102
2021-10-21 16:06:24.603491,-75
2021-10-21 16:06:24.603499,-80
2021-10-21 16:06:24.603508,-60
2021-10-21 16:06:24.603516,-46
2021-10-21 16:06:24.603524,-46
2021-10-21 16:06:24.603533,-34
2021-10-21 16:06:24.603541,-14
2021-10-21 16:06:24.603550,-2
2021-10-21 16:06:24.603558,14
2021-10-21 16:06:24.603566,29
2021-10-21 16:06:24.603575,36
2021-10-21 16:06:24.603583,48
2021-10-21 16:06:24.603592,63
2021-10-21 16:06:24.603600,60
2021-10-21 16:06:24.603608,48
2021-10-21 16:06:24.603616,43
2021-10-21 16:06:24.603625,43
2021-10-21 16:06:24.603633,36
2021-10-21 16:06:24.603641,26
2021-10-21 16:06:24.603649,17
2021-10-21 16:06:24.603658,-2
2021-10-21 16:06:24.783374,-38
2021-10-21 16:06:24.783392,-70
2021-10-21 16:06:24.783402,-82
2021-10-21 16:06:24.783411,-97
2021-10-21 16:06:24.783420,-111
2021-10-21 16:06:24.783428,-119
2021-10-21 16:06:24.783437,-133
2021-10-21 16:06:24.783445,-143
2021-10-21 16:06:24.783453,-136
2021-10-21 16:06:24.783461,-133
2021-10-21 16:06:24.783470,-131
2021-10-21 16:06:24.783478,-121
2021-10-21 16:06:24.783487,-116
2021-10-21 16:06:24.783495,-107
2021-10-21 16:06:24.783504,-97
2021-10-21 16:06:24.783512,-92
2021-10-21 16:06:24.783520,-87
2021-10-21 16:06:24.783529,-87
2021-10-21 16:06:24.783537,-94
2021-10-21 16:06:24.783545,-87
2021-10-21 16:06:24.783554,-77
2021-10-21 16:06:24.783562,-80
2021-10-21 16:06:24.783570,-85
2021-10-21 16:06:24.783578,-82
2021-10-21 16:06:24.783586,-80
2021-10-21 16:06:24.783594,-68
2021-10-21 16:06:24.783603,-53
2021-10-21 16:06:24.783611,-46
2021-10-21 16:06:24.783619,-36
2021-10-21 16:06:24.783627,-31
2021-10-21 16:06:25.187012,-38
2021-10-21 16:06:25.187033,-48
2021-10-21 16:06:25.187043,-58
2021-10-21 16:06:25.187051,-70
2021-10-21 16:06:25.187060,-70
2021-10-21 16:06:25.187078,-70
2021-10-21 16:06:25.187087,-75
2021-10-21 16:06:25.187095,-68
2021-10-21 16:06:25.187103,-60
2021-10-21 16:06:25.187112,-58
2021-10-21 16:06:25.187120,-65
2021-10-21 16:06:25.187128,-116
2021-10-21 16:06:25.187136,-214
2021-10-21 16:06:25.187145,-216
2021-10-21 16:06:25.187159,145
2021-10-21 16:06:25.187167,1000
2021-10-21 16:06:25.187176,1810
2021-10-21 16:06:25.187184,1508
2021-10-21 16:06:25.187219,282
2021-10-21 16:06:25.187229,-260
2021-10-21 16:06:25.187238,9
2021-10-21 16:06:25.187246,-17
2021-10-21 16:06:25.187254,-223
2021-10-21 16:06:25.187263,-165
2021-10-21 16:06:25.187271,-109
2021-10-21 16:06:25.187279,-155
2021-10-21 16:06:25.187288,-133
2021-10-21 16:06:25.187296,-94
2021-10-21 16:06:25.187304,-104
2021-10-21 16:06:25.187312,-111
2021-10-21 16:06:25.277790,-94
2021-10-21 16:06:25.277808,-77
2021-10-21 16:06:25.277817,-68
2021-10-21 16:06:25.277826,-58
2021-10-21 16:06:25.277834,-51
2021-10-21 16:06:25.277843,-41
2021-10-21 16:06:25.277851,-24
2021-10-21 16:06:25.277860,-4
2021-10-21 16:06:25.277868,7
2021-10-21 16:06:25.277877,17
2021-10-21 16:06:25.277885,26
2021-10-21 16:06:25.277893,38
2021-10-21 16:06:25.277902,51
2021-10-21 16:06:25.277910,58
2021-10-21 16:06:25.277918,58
2021-10-21 16:06:25.277926,53
2021-10-21 16:06:25.277935,41
2021-10-21 16:06:25.277943,24
2021-10-21 16:06:25.277951,4
2021-10-21 16:06:25.277959,-19
2021-10-21 16:06:25.277968,-51
2021-10-21 16:06:25.277976,-72
2021-10-21 16:06:25.277984,-87
2021-10-21 16:06:25.277993,-99
2021-10-21 16:06:25.278001,-94
2021-10-21 16:06:25.278009,-90
2021-10-21 16:06:25.278017,-90
2021-10-21 16:06:25.278026,-92
2021-10-21 16:06:25.278034,-92
2021-10-21 16:06:25.278042,-87
2021-10-21 16:06:25.503443,-77
2021-10-21 16:06:25.503462,-75
2021-10-21 16:06:25.503472,-75
2021-10-21 16:06:25.503480,-82
2021-10-21 16:06:25.503488,-94
2021-10-21 16:06:25.503496,-92
2021-10-21 16:06:25.503504,-87
2021-10-21 16:06:25.503512,-90
2021-10-21 16:06:25.503520,-85
2021-10-21 16:06:25.503529,-87
2021-10-21 16:06:25.503537,-102
2021-10-21 16:06:25.503545,-99
2021-10-21 16:06:25.503554,-85
2021-10-21 16:06:25.503562,-77
2021-10-21 16:06:25.503570,-80
2021-10-21 16:06:25.503578,-85
2021-10-21 16:06:25.503587,-92
2021-10-21 16:06:25.503595,-87
2021-10-21 16:06:25.503603,-70
2021-10-21 16:06:25.503611,-51
2021-10-21 16:06:25.503620,-34
2021-10-21 16:06:25.503628,-31
2021-10-21 16:06:25.503636,-36
2021-10-21 16:06:25.503644,-34
2021-10-21 16:06:25.503653,-34
2021-10-21 16:06:25.503661,-38
2021-10-21 16:06:25.503669,-38
2021-10-21 16:06:25.503678,-38
2021-10-21 16:06:25.503686,-36
2021-10-21 16:06:25.503694,-31
2021-10-21 16:06:25.728497,-24
2021-10-21 16:06:25.728518,-17
2021-10-21 16:06:25.728528,-19
2021-10-21 16:06:25.728537,-36
2021-10-21 16:06:25.728546,-87
2021-10-21 16:06:25.728554,-182
2021-10-21 16:06:25.728563,-175
2021-10-21 16:06:25.728571,214
2021-10-21 16:06:25.728580,1053
2021-10-21 16:06:25.728588,1744
2021-10-21 16:06:25.728596,1345
2021-10-21 16:06:25.728605,206
2021-10-21 16:06:25.728613,-231
2021-10-21 16:06:25.728622,2
2021-10-21 16:06:25.728630,-55
2021-10-21 16:06:25.728639,-243
2021-10-21 16:06:25.728647,-184
2021-10-21 16:06:25.728655,-128
2021-10-21 16:06:25.728664,-165
2021-10-21 16:06:25.728672,-145
2021-10-21 16:06:25.728680,-111
2021-10-21 16:06:25.728688,-119
2021-10-21 16:06:25.728697,-111
2021-10-21 16:06:25.728705,-82
2021-10-21 16:06:25.728713,-68
2021-10-21 16:06:25.728721,-60
2021-10-21 16:06:25.728730,-48
2021-10-21 16:06:25.728738,-38
2021-10-21 16:06:25.728746,-24
2021-10-21 16:06:25.728754,-4
2021-10-21 16:06:25.953459,9
2021-10-21 16:06:25.953478,19
2021-10-21 16:06:25.953487,29
2021-10-21 16:06:25.953496,31
2021-10-21 16:06:25.953504,43
2021-10-21 16:06:25.953513,53
2021-10-21 16:06:25.953521,58
2021-10-21 16:06:25.953529,58
2021-10-21 16:06:25.953537,43
2021-10-21 16:06:25.953546,24
2021-10-21 16:06:25.953554,12
2021-10-21 16:06:25.953562,-9
2021-10-21 16:06:25.953571,-41
2021-10-21 16:06:25.953579,-63
2021-10-21 16:06:25.953587,-90
2021-10-21 16:06:25.953595,-114
2021-10-21 16:06:25.953604,-116
2021-10-21 16:06:25.953612,-109
2021-10-21 16:06:25.953620,-107
2021-10-21 16:06:25.953629,-107
2021-10-21 16:06:25.953637,-99
2021-10-21 16:06:25.953645,-94
2021-10-21 16:06:25.953653,-92
2021-10-21 16:06:25.953661,-87
2021-10-21 16:06:25.953670,-82
2021-10-21 16:06:25.953678,-85
2021-10-21 16:06:25.953686,-92
2021-10-21 16:06:25.953695,-90
2021-10-21 16:06:25.953703,-82
2021-10-21 16:06:25.953711,-80
2021-10-21 16:06:26.178421,-75
2021-10-21 16:06:26.178441,-72
2021-10-21 16:06:26.178450,-75
2021-10-21 16:06:26.178459,-77
2021-10-21 16:06:26.178467,-70
2021-10-21 16:06:26.178476,-58
2021-10-21 16:06:26.178484,-55
2021-10-21 16:06:26.178493,-65
2021-10-21 16:06:26.178501,-75
2021-10-21 16:06:26.178509,-77
2021-10-21 16:06:26.178518,-85
2021-10-21 16:06:26.178526,-94
2021-10-21 16:06:26.178535,-97
2021-10-21 16:06:26.178543,-104
2021-10-21 16:06:26.178552,-114
2021-10-21 16:06:26.178560,-109
2021-10-21 16:06:26.178568,-97
2021-10-21 16:06:26.178577,-92
2021-10-21 16:06:26.178585,-85
2021-10-21 16:06:26.178593,-70
2021-10-21 16:06:26.178602,-43
2021-10-21 16:06:26.178610,-29
2021-10-21 16:06:26.178618,-31
2021-10-21 16:06:26.178626,-31
2021-10-21 16:06:26.178634,-29
2021-10-21 16:06:26.178643,-38
2021-10-21 16:06:26.178651,-46
2021-10-21 16:06:26.178659,-38
2021-10-21 16:06:26.178668,-34
2021-10-21 16:06:26.178676,-31
2021-10-21 16:06:26.403434,-26
2021-10-21 16:06:26.403453,-24
2021-10-21 16:06:26.403462,-24
2021-10-21 16:06:26.403471,-24
2021-10-21 16:06:26.403480,-41
2021-10-21 16:06:26.403488,-104
2021-10-21 16:06:26.403496,-170
2021-10-21 16:06:26.403505,-26
2021-10-21 16:06:26.403513,554
2021-10-21 16:06:26.403521,1413
2021-10-21 16:06:26.403529,1674
2021-10-21 16:06:26.403538,793
2021-10-21 16:06:26.403546,-109
2021-10-21 16:06:26.403554,-92
2021-10-21 16:06:26.403562,48
2021-10-21 16:06:26.403571,-145
2021-10-21 16:06:26.403579,-189
2021-10-21 16:06:26.403587,-104
2021-10-21 16:06:26.403595,-128
2021-10-21 16:06:26.403603,-148
2021-10-21 16:06:26.403611,-104
2021-10-21 16:06:26.403620,-92
2021-10-21 16:06:26.403628,-97
2021-10-21 16:06:26.403636,-72
2021-10-21 16:06:26.403644,-55
2021-10-21 16:06:26.403652,-51
2021-10-21 16:06:26.403660,-36
2021-10-21 16:06:26.403669,-19
2021-10-21 16:06:26.403677,-9
2021-10-21 16:06:26.403685,2
2021-10-21 16:06:26.673439,12
2021-10-21 16:06:26.673458,21
2021-10-21 16:06:26.673468,34
2021-10-21 16:06:26.673477,36
2021-10-21 16:06:26.673485,36
2021-10-21 16:06:26.673494,36
2021-10-21 16:06:26.673502,29
2021-10-21 16:06:26.673511,19
2021-10-21 16:06:26.673519,19
2021-10-21 16:06:26.673527,17
2021-10-21 16:06:26.673535,12
2021-10-21 16:06:26.673544,4
2021-10-21 16:06:26.673552,-19
2021-10-21 16:06:26.673560,-41
2021-10-21 16:06:26.673569,-55
2021-10-21 16:06:26.673576,-82
2021-10-21 16:06:26.673585,-124
2021-10-21 16:06:26.673593,-148
2021-10-21 16:06:26.673601,-155
2021-10-21 16:06:26.673609,-150
2021-10-21 16:06:26.673617,-143
2021-10-21 16:06:26.673625,-136
2021-10-21 16:06:26.673633,-126
2021-10-21 16:06:26.673642,-114
2021-10-21 16:06:26.673650,-114
2021-10-21 16:06:26.673658,-109
2021-10-21 16:06:26.673666,-99
2021-10-21 16:06:26.673674,-94
2021-10-21 16:06:26.673682,-92
2021-10-21 16:06:26.673690,-87
2021-10-21 16:06:26.898420,-85
2021-10-21 16:06:26.898439,-77
2021-10-21 16:06:26.898448,-72
2021-10-21 16:06:26.898457,-72
2021-10-21 16:06:26.898466,-70
2021-10-21 16:06:26.898474,-75
2021-10-21 16:06:26.898483,-85
2021-10-21 16:06:26.898491,-77
2021-10-21 16:06:26.898499,-68
2021-10-21 16:06:26.898508,-68
2021-10-21 16:06:26.898516,-65
2021-10-21 16:06:26.898525,-65
2021-10-21 16:06:26.898533,-68
2021-10-21 16:06:26.898542,-60
2021-10-21 16:06:26.898550,-53
2021-10-21 16:06:26.898559,-53
2021-10-21 16:06:26.898567,-53
2021-10-21 16:06:26.898575,-58
2021-10-21 16:06:26.898584,-63
2021-10-21 16:06:26.898592,-63
2021-10-21 16:06:26.898600,-60
2021-10-21 16:06:26.898609,-58
2021-10-21 16:06:26.898617,-55
2021-10-21 16:06:26.898625,-51
2021-10-21 16:06:26.898634,-34
2021-10-21 16:06:26.898642,-7
2021-10-21 16:06:26.898650,4
2021-10-21 16:06:26.898659,-2
2021-10-21 16:06:26.898667,-7
2021-10-21 16:06:26.898675,-9
2021-10-21 16:06:27.122085,-17
2021-10-21 16:06:27.122104,-17
2021-10-21 16:06:27.122114,-14
2021-10-21 16:06:27.122122,-17
2021-10-21 16:06:27.122131,-14
2021-10-21 16:06:27.122139,-9
2021-10-21 16:06:27.122148,-7
2021-10-21 16:06:27.122156,-2
2021-10-21 16:06:27.122164,-2
2021-10-21 16:06:27.122172,-34
2021-10-21 16:06:27.122180,-119
2021-10-21 16:06:27.122189,-163
2021-10-21 16:06:27.122197,65
2021-10-21 16:06:27.122205,732
2021-10-21 16:06:27.122214,1528
2021-10-21 16:06:27.122222,1532
2021-10-21 16:06:27.122230,523
2021-10-21 16:06:27.122239,-180
2021-10-21 16:06:27.122247,-24
2021-10-21 16:06:27.122255,46
2021-10-21 16:06:27.122264,-160
2021-10-21 16:06:27.122272,-184
2021-10-21 16:06:27.122280,-143
2021-10-21 16:06:27.122289,-177
2021-10-21 16:06:27.122297,-170
2021-10-21 16:06:27.122305,-128
2021-10-21 16:06:27.122313,-126
2021-10-21 16:06:27.122322,-124
2021-10-21 16:06:27.122330,-107
2021-10-21 16:06:27.122338,-92
2021-10-21 16:06:27.303463,-77
2021-10-21 16:06:27.303481,-58
2021-10-21 16:06:27.303491,-46
2021-10-21 16:06:27.303500,-43
2021-10-21 16:06:27.303508,-51
2021-10-21 16:06:27.303517,-43
2021-10-21 16:06:27.303525,-29
2021-10-21 16:06:27.303533,-26
2021-10-21 16:06:27.303542,-26
2021-10-21 16:06:27.303550,-26
2021-10-21 16:06:27.303558,-36
2021-10-21 16:06:27.303567,-38
2021-10-21 16:06:27.303575,-26
2021-10-21 16:06:27.303584,-26
2021-10-21 16:06:27.303592,-34
2021-10-21 16:06:27.303600,-38
2021-10-21 16:06:27.303608,-46
2021-10-21 16:06:27.303617,-48
2021-10-21 16:06:27.303625,-55
2021-10-21 16:06:27.303634,-68
2021-10-21 16:06:27.303642,-77
2021-10-21 16:06:27.303650,-92
2021-10-21 16:06:27.303659,-109
2021-10-21 16:06:27.303667,-116
2021-10-21 16:06:27.303675,-109
2021-10-21 16:06:27.303683,-99
2021-10-21 16:06:27.303692,-92
2021-10-21 16:06:27.303700,-90
2021-10-21 16:06:27.303708,-82
2021-10-21 16:06:27.303716,-68
2021-10-21 16:06:27.618446,-58
2021-10-21 16:06:27.618465,-53
2021-10-21 16:06:27.618475,-51
2021-10-21 16:06:27.618484,-58
2021-10-21 16:06:27.618492,-65
2021-10-21 16:06:27.618501,-51
2021-10-21 16:06:27.618509,-41
2021-10-21 16:06:27.618518,-41
2021-10-21 16:06:27.618526,-41
2021-10-21 16:06:27.618534,-48
2021-10-21 16:06:27.618543,-55
2021-10-21 16:06:27.618551,-46
2021-10-21 16:06:27.618560,-34
2021-10-21 16:06:27.618568,-36
2021-10-21 16:06:27.618576,-41
2021-10-21 16:06:27.618585,-41
2021-10-21 16:06:27.618593,-36
2021-10-21 16:06:27.618602,-29
2021-10-21 16:06:27.618610,-24
2021-10-21 16:06:27.618618,-19
2021-10-21 16:06:27.618627,-21
2021-10-21 16:06:27.618635,-29
2021-10-21 16:06:27.618643,-24
2021-10-21 16:06:27.618652,-12
2021-10-21 16:06:27.618660,-12
2021-10-21 16:06:27.618668,-21
2021-10-21 16:06:27.618677,-24
2021-10-21 16:06:27.618685,-34
2021-10-21 16:06:27.618693,-46
2021-10-21 16:06:27.618702,-31
2021-10-21 16:06:27.842834,0
2021-10-21 16:06:27.842853,17
2021-10-21 16:06:27.842863,9
2021-10-21 16:06:27.842872,-2
2021-10-21 16:06:27.842881,-2
2021-10-21 16:06:27.842889,-2
2021-10-21 16:06:27.842898,-7
2021-10-21 16:06:27.842906,-9
2021-10-21 16:06:27.842914,-19
2021-10-21 16:06:27.842923,-34
2021-10-21 16:06:27.842931,-26
2021-10-21 16:06:27.842940,-14
2021-10-21 16:06:27.842948,-19
2021-10-21 16:06:27.842956,-26
2021-10-21 16:06:27.842965,-46
2021-10-21 16:06:27.842973,-116
2021-10-21 16:06:27.842982,-170
2021-10-21 16:06:27.842990,-19
2021-10-21 16:06:27.842998,532
2021-10-21 16:06:27.843007,1345
2021-10-21 16:06:27.843015,1586
2021-10-21 16:06:27.843024,717
2021-10-21 16:06:27.843032,-160
2021-10-21 16:06:27.843041,-121
2021-10-21 16:06:27.843049,31
2021-10-21 16:06:27.843058,-148
2021-10-21 16:06:27.843066,-197
2021-10-21 16:06:27.843075,-126
2021-10-21 16:06:27.843083,-148
2021-10-21 16:06:27.843092,-155
2021-10-21 16:06:28.023458,-116
2021-10-21 16:06:28.023476,-109
2021-10-21 16:06:28.023486,-114
2021-10-21 16:06:28.023495,-97
2021-10-21 16:06:28.023503,-80
2021-10-21 16:06:28.023512,-70
2021-10-21 16:06:28.023520,-53
2021-10-21 16:06:28.023529,-41
2021-10-21 16:06:28.023537,-41
2021-10-21 16:06:28.023545,-34
2021-10-21 16:06:28.023554,-12
2021-10-21 16:06:28.023562,2
2021-10-21 16:06:28.023571,7
2021-10-21 16:06:28.023579,9
2021-10-21 16:06:28.023588,7
2021-10-21 16:06:28.023596,7
2021-10-21 16:06:28.023604,12
2021-10-21 16:06:28.023612,12
2021-10-21 16:06:28.023620,12
2021-10-21 16:06:28.023629,12
2021-10-21 16:06:28.023637,7
2021-10-21 16:06:28.023645,-2
2021-10-21 16:06:28.023653,-9
2021-10-21 16:06:28.023662,-21
2021-10-21 16:06:28.023670,-36
2021-10-21 16:06:28.023678,-48
2021-10-21 16:06:28.023686,-55
2021-10-21 16:06:28.023694,-65
2021-10-21 16:06:28.023703,-72
2021-10-21 16:06:28.023711,-77
2021-10-21 16:06:28.248446,-72
2021-10-21 16:06:28.248464,-68
2021-10-21 16:06:28.248473,-72
2021-10-21 16:06:28.248482,-82
2021-10-21 16:06:28.248491,-82
2021-10-21 16:06:28.248500,-68
2021-10-21 16:06:28.248508,-63
2021-10-21 16:06:28.248516,-72
2021-10-21 16:06:28.248569,-65
2021-10-21 16:06:28.248579,-53
2021-10-21 16:06:28.248587,-48
2021-10-21 16:06:28.248596,-43
2021-10-21 16:06:28.248604,-46
2021-10-21 16:06:28.248612,-55
2021-10-21 16:06:28.248621,-53
2021-10-21 16:06:28.248629,-43
2021-10-21 16:06:28.248637,-41
2021-10-21 16:06:28.248646,-38
2021-10-21 16:06:28.248654,-36
2021-10-21 16:06:28.248662,-38
2021-10-21 16:06:28.248671,-38
2021-10-21 16:06:28.248679,-31
2021-10-21 16:06:28.248687,-26
2021-10-21 16:06:28.248696,-26
2021-10-21 16:06:28.248704,-29
2021-10-21 16:06:28.248712,-31
2021-10-21 16:06:28.248720,-34
2021-10-21 16:06:28.248729,-31
2021-10-21 16:06:28.248737,-12
2021-10-21 16:06:28.248746,9
2021-10-21 16:06:28.518454,9
2021-10-21 16:06:28.518473,-2
2021-10-21 16:06:28.518483,-7
2021-10-21 16:06:28.518491,-17
2021-10-21 16:06:28.518500,-24
2021-10-21 16:06:28.518508,-21
2021-10-21 16:06:28.518517,-29
2021-10-21 16:06:28.518525,-38
2021-10-21 16:06:28.518534,-36
2021-10-21 16:06:28.518542,-36
2021-10-21 16:06:28.518550,-46
2021-10-21 16:06:28.518559,-55
2021-10-21 16:06:28.518567,-80
2021-10-21 16:06:28.518576,-143
2021-10-21 16:06:28.518584,-206
2021-10-21 16:06:28.518592,-80
2021-10-21 16:06:28.518601,457
2021-10-21 16:06:28.518609,1245
2021-10-21 16:06:28.518618,1452
2021-10-21 16:06:28.518626,571
2021-10-21 16:06:28.518635,-255
2021-10-21 16:06:28.518643,-126
2021-10-21 16:06:28.518651,55
2021-10-21 16:06:28.518659,-138
2021-10-21 16:06:28.518668,-163
2021-10-21 16:06:28.518676,-70
2021-10-21 16:06:28.518684,-99
2021-10-21 16:06:28.518693,-119
2021-10-21 16:06:28.518701,-75
2021-10-21 16:06:28.518709,-60
2021-10-21 16:06:28.743464,-65
2021-10-21 16:06:28.743482,-43
2021-10-21 16:06:28.743492,-26
2021-10-21 16:06:28.743500,-29
2021-10-21 16:06:28.743509,-21
2021-10-21 16:06:28.743517,-9
2021-10-21 16:06:28.743525,-7
2021-10-21 16:06:28.743534,2
2021-10-21 16:06:28.743542,17
2021-10-21 16:06:28.743551,12
2021-10-21 16:06:28.743559,4
2021-10-21 16:06:28.743567,21
2021-10-21 16:06:28.743576,36
2021-10-21 16:06:28.743584,38
2021-10-21 16:06:28.743592,41
2021-10-21 16:06:28.743601,38
2021-10-21 16:06:28.743609,31
2021-10-21 16:06:28.743617,21
2021-10-21 16:06:28.743625,7
2021-10-21 16:06:28.743634,-7
2021-10-21 16:06:28.743642,-24
2021-10-21 16:06:28.743650,-46
2021-10-21 16:06:28.743659,-60
2021-10-21 16:06:28.743667,-75
2021-10-21 16:06:28.743675,-90
2021-10-21 16:06:28.743683,-97
2021-10-21 16:06:28.743692,-97
2021-10-21 16:06:28.743700,-99
2021-10-21 16:06:28.743708,-94
2021-10-21 16:06:28.743717,-87
2021-10-21 16:06:28.967851,-82
2021-10-21 16:06:28.967870,-70
2021-10-21 16:06:28.967879,-63
2021-10-21 16:06:28.967888,-60
2021-10-21 16:06:28.967896,-55
2021-10-21 16:06:28.967905,-53
2021-10-21 16:06:28.967913,-51
2021-10-21 16:06:28.967922,-38
2021-10-21 16:06:28.967930,-31
2021-10-21 16:06:28.967938,-36
2021-10-21 16:06:28.967946,-41
2021-10-21 16:06:28.967955,-46
2021-10-21 16:06:28.967963,-48
2021-10-21 16:06:28.967971,-43
2021-10-21 16:06:28.967980,-41
2021-10-21 16:06:28.967988,-43
2021-10-21 16:06:28.967996,-48
2021-10-21 16:06:28.968004,-55
2021-10-21 16:06:28.968012,-53
2021-10-21 16:06:28.968021,-53
2021-10-21 16:06:28.968029,-60
2021-10-21 16:06:28.968037,-63
2021-10-21 16:06:28.968045,-58
2021-10-21 16:06:28.968053,-53
2021-10-21 16:06:28.968061,-31
2021-10-21 16:06:28.968069,-4
2021-10-21 16:06:28.968077,-2
2021-10-21 16:06:28.968086,-14
2021-10-21 16:06:28.968094,-24
2021-10-21 16:06:28.968102,-34
2021-10-21 16:06:29.282127,-41
2021-10-21 16:06:29.282146,-48
2021-10-21 16:06:29.282156,-51
