Time,ECG
2021-10-21 15:45:52.728107,-87
2021-10-21 15:45:52.728126,-163
2021-10-21 15:45:52.728136,-85
2021-10-21 15:45:52.728145,391
2021-10-21 15:45:52.728153,1204
2021-10-21 15:45:52.728162,1576
2021-10-21 15:45:52.728171,839
2021-10-21 15:45:52.728179,-99
2021-10-21 15:45:52.728187,-148
2021-10-21 15:45:52.728196,53
2021-10-21 15:45:52.728204,-102
2021-10-21 15:45:52.728213,-175
2021-10-21 15:45:52.728221,-90
2021-10-21 15:45:52.728230,-109
2021-10-21 15:45:52.728238,-143
2021-10-21 15:45:52.728247,-109
2021-10-21 15:45:52.728255,-87
2021-10-21 15:45:52.728264,-85
2021-10-21 15:45:52.728272,-77
2021-10-21 15:45:52.728281,-72
2021-10-21 15:45:52.728289,-68
2021-10-21 15:45:52.728297,-53
2021-10-21 15:45:52.728306,-38
2021-10-21 15:45:52.728314,-29
2021-10-21 15:45:52.728323,-21
2021-10-21 15:45:52.728331,-14
2021-10-21 15:45:52.728340,-12
2021-10-21 15:45:52.728348,-9
2021-10-21 15:45:52.728357,-7
2021-10-21 15:45:52.728365,-7
2021-10-21 15:45:52.802649,-21
2021-10-21 15:45:52.802669,-36
2021-10-21 15:45:52.802678,-46
2021-10-21 15:45:52.802687,-58
2021-10-21 15:45:52.802695,-63
2021-10-21 15:45:52.802704,-63
2021-10-21 15:45:52.802713,-80
2021-10-21 15:45:52.802722,-92
2021-10-21 15:45:52.802730,-92
2021-10-21 15:45:52.802738,-94
2021-10-21 15:45:52.802746,-99
2021-10-21 15:45:52.802755,-104
2021-10-21 15:45:52.802763,-114
2021-10-21 15:45:52.802771,-116
2021-10-21 15:45:52.802780,-104
2021-10-21 15:45:52.802788,-99
2021-10-21 15:45:52.802796,-102
2021-10-21 15:45:52.802805,-104
2021-10-21 15:45:52.802814,-99
2021-10-21 15:45:52.802822,-90
2021-10-21 15:45:52.802831,-80
2021-10-21 15:45:52.802839,-75
2021-10-21 15:45:52.802847,-68
2021-10-21 15:45:52.802856,-63
2021-10-21 15:45:52.802864,-63
2021-10-21 15:45:52.802872,-68
2021-10-21 15:45:52.802879,-77
2021-10-21 15:45:52.802887,-80
2021-10-21 15:45:52.802894,-68
2021-10-21 15:45:52.802902,-63
2021-10-21 15:45:53.072698,-63
2021-10-21 15:45:53.072719,-55
2021-10-21 15:45:53.072729,-51
2021-10-21 15:45:53.072738,-53
2021-10-21 15:45:53.072746,-53
2021-10-21 15:45:53.072755,-55
2021-10-21 15:45:53.072763,-65
2021-10-21 15:45:53.072771,-55
2021-10-21 15:45:53.072779,-46
2021-10-21 15:45:53.072788,-48
2021-10-21 15:45:53.072796,-46
2021-10-21 15:45:53.072804,-48
2021-10-21 15:45:53.072812,-53
2021-10-21 15:45:53.072824,-43
2021-10-21 15:45:53.072832,-31
2021-10-21 15:45:53.072840,-36
2021-10-21 15:45:53.072849,-34
2021-10-21 15:45:53.072857,-29
2021-10-21 15:45:53.072865,-34
2021-10-21 15:45:53.072873,-36
2021-10-21 15:45:53.072881,-34
2021-10-21 15:45:53.072890,-26
2021-10-21 15:45:53.072898,-24
2021-10-21 15:45:53.072915,-21
2021-10-21 15:45:53.072924,-19
2021-10-21 15:45:53.072932,-14
2021-10-21 15:45:53.072940,-12
2021-10-21 15:45:53.072948,-7
2021-10-21 15:45:53.072957,9
2021-10-21 15:45:53.072966,29
2021-10-21 15:45:53.297097,31
2021-10-21 15:45:53.297119,29
2021-10-21 15:45:53.297128,26
2021-10-21 15:45:53.297137,7
2021-10-21 15:45:53.297145,-19
2021-10-21 15:45:53.297154,-29
2021-10-21 15:45:53.297162,-21
2021-10-21 15:45:53.297170,-14
2021-10-21 15:45:53.297179,-14
2021-10-21 15:45:53.297187,-17
2021-10-21 15:45:53.297195,-12
2021-10-21 15:45:53.297203,-9
2021-10-21 15:45:53.297212,-9
2021-10-21 15:45:53.297220,-46
2021-10-21 15:45:53.297228,-131
2021-10-21 15:45:53.297236,-148
2021-10-21 15:45:53.297245,138
2021-10-21 15:45:53.297255,841
2021-10-21 15:45:53.297264,1476
2021-10-21 15:45:53.297272,1150
2021-10-21 15:45:53.297280,128
2021-10-21 15:45:53.297289,-253
2021-10-21 15:45:53.297297,-21
2021-10-21 15:45:53.297305,-63
2021-10-21 15:45:53.297314,-211
2021-10-21 15:45:53.297323,-148
2021-10-21 15:45:53.297331,-111
2021-10-21 15:45:53.297339,-150
2021-10-21 15:45:53.297348,-133
2021-10-21 15:45:53.297356,-97
2021-10-21 15:45:53.477707,-99
2021-10-21 15:45:53.477729,-107
2021-10-21 15:45:53.477739,-102
2021-10-21 15:45:53.477747,-92
2021-10-21 15:45:53.477756,-87
2021-10-21 15:45:53.477764,-75
2021-10-21 15:45:53.477772,-53
2021-10-21 15:45:53.477786,-38
2021-10-21 15:45:53.477795,-34
2021-10-21 15:45:53.477803,-36
2021-10-21 15:45:53.477811,-43
2021-10-21 15:45:53.477819,-38
2021-10-21 15:45:53.477828,-26
2021-10-21 15:45:53.477836,-26
2021-10-21 15:45:53.477844,-34
2021-10-21 15:45:53.477852,-43
2021-10-21 15:45:53.477860,-53
2021-10-21 15:45:53.477869,-51
2021-10-21 15:45:53.477877,-46
2021-10-21 15:45:53.477885,-46
2021-10-21 15:45:53.477893,-51
2021-10-21 15:45:53.477902,-55
2021-10-21 15:45:53.477910,-63
2021-10-21 15:45:53.477918,-75
2021-10-21 15:45:53.477926,-75
2021-10-21 15:45:53.477934,-70
2021-10-21 15:45:53.477942,-72
2021-10-21 15:45:53.477950,-80
2021-10-21 15:45:53.477959,-77
2021-10-21 15:45:53.477968,-60
2021-10-21 15:45:53.792656,-51
2021-10-21 15:45:53.792676,-46
2021-10-21 15:45:53.792685,-41
2021-10-21 15:45:53.792694,-51
2021-10-21 15:45:53.792702,-55
2021-10-21 15:45:53.792711,-41
2021-10-21 15:45:53.792719,-29
2021-10-21 15:45:53.792727,-26
2021-10-21 15:45:53.792736,-26
2021-10-21 15:45:53.792744,-36
2021-10-21 15:45:53.792752,-36
2021-10-21 15:45:53.792760,-24
2021-10-21 15:45:53.792769,-17
2021-10-21 15:45:53.792777,-19
2021-10-21 15:45:53.792785,-19
2021-10-21 15:45:53.792794,-21
2021-10-21 15:45:53.792802,-24
2021-10-21 15:45:53.792810,-19
2021-10-21 15:45:53.792818,-19
2021-10-21 15:45:53.792827,-24
2021-10-21 15:45:53.792835,-26
2021-10-21 15:45:53.792843,-31
2021-10-21 15:45:53.792851,-31
2021-10-21 15:45:53.792859,-19
2021-10-21 15:45:53.792872,-21
2021-10-21 15:45:53.792881,-31
2021-10-21 15:45:53.792889,-36
2021-10-21 15:45:53.792897,-36
2021-10-21 15:45:53.792905,-31
2021-10-21 15:45:53.792913,-31
2021-10-21 15:45:53.972756,-34
2021-10-21 15:45:53.972778,-34
2021-10-21 15:45:53.972788,-41
2021-10-21 15:45:53.972797,-53
2021-10-21 15:45:53.972805,-48
2021-10-21 15:45:53.972814,-38
2021-10-21 15:45:53.972822,-48
2021-10-21 15:45:53.972830,-68
2021-10-21 15:45:53.972839,-87
2021-10-21 15:45:53.972847,-82
2021-10-21 15:45:53.972855,-53
2021-10-21 15:45:53.972863,-29
2021-10-21 15:45:53.972900,-31
2021-10-21 15:45:53.972909,-38
2021-10-21 15:45:53.972917,-48
2021-10-21 15:45:53.972925,-65
2021-10-21 15:45:53.972933,-65
2021-10-21 15:45:53.972941,-51
2021-10-21 15:45:53.972950,-46
2021-10-21 15:45:53.972958,-51
2021-10-21 15:45:53.972966,-60
2021-10-21 15:45:53.972975,-63
2021-10-21 15:45:53.972985,-53
2021-10-21 15:45:53.972993,-46
2021-10-21 15:45:53.973002,-63
2021-10-21 15:45:53.973010,-119
2021-10-21 15:45:53.973018,-170
2021-10-21 15:45:53.973026,-26
2021-10-21 15:45:53.973035,520
2021-10-21 15:45:53.973043,1267
2021-10-21 15:45:54.242719,1365
2021-10-21 15:45:54.242742,496
2021-10-21 15:45:54.242751,-194
2021-10-21 15:45:54.242760,-77
2021-10-21 15:45:54.242769,26
2021-10-21 15:45:54.242778,-138
2021-10-21 15:45:54.242786,-145
2021-10-21 15:45:54.242794,-82
2021-10-21 15:45:54.242803,-124
2021-10-21 15:45:54.242811,-126
2021-10-21 15:45:54.242819,-77
2021-10-21 15:45:54.242827,-68
2021-10-21 15:45:54.242836,-68
2021-10-21 15:45:54.242844,-55
2021-10-21 15:45:54.242853,-55
2021-10-21 15:45:54.242861,-46
2021-10-21 15:45:54.242869,-24
2021-10-21 15:45:54.242877,-12
2021-10-21 15:45:54.242886,-4
2021-10-21 15:45:54.242894,2
2021-10-21 15:45:54.242903,9
2021-10-21 15:45:54.242911,14
2021-10-21 15:45:54.242919,21
2021-10-21 15:45:54.242927,26
2021-10-21 15:45:54.242941,24
2021-10-21 15:45:54.242950,21
2021-10-21 15:45:54.242958,14
2021-10-21 15:45:54.242966,7
2021-10-21 15:45:54.242975,-4
2021-10-21 15:45:54.242983,-19
2021-10-21 15:45:54.422721,-24
2021-10-21 15:45:54.422742,-29
2021-10-21 15:45:54.422751,-43
2021-10-21 15:45:54.422760,-51
2021-10-21 15:45:54.422768,-51
2021-10-21 15:45:54.422776,-55
2021-10-21 15:45:54.422785,-65
2021-10-21 15:45:54.422793,-85
2021-10-21 15:45:54.422801,-97
2021-10-21 15:45:54.422810,-92
2021-10-21 15:45:54.422818,-82
2021-10-21 15:45:54.422826,-72
2021-10-21 15:45:54.422835,-72
2021-10-21 15:45:54.422843,-82
2021-10-21 15:45:54.422851,-80
2021-10-21 15:45:54.422860,-68
2021-10-21 15:45:54.422868,-58
2021-10-21 15:45:54.422876,-48
2021-10-21 15:45:54.422885,-53
2021-10-21 15:45:54.422893,-70
2021-10-21 15:45:54.422901,-72
2021-10-21 15:45:54.422910,-68
2021-10-21 15:45:54.422918,-72
2021-10-21 15:45:54.422926,-68
2021-10-21 15:45:54.422935,-63
2021-10-21 15:45:54.422943,-70
2021-10-21 15:45:54.422951,-65
2021-10-21 15:45:54.422959,-60
2021-10-21 15:45:54.422968,-63
2021-10-21 15:45:54.422976,-55
2021-10-21 15:45:54.691315,-53
2021-10-21 15:45:54.691337,-63
2021-10-21 15:45:54.691347,-70
2021-10-21 15:45:54.691355,-63
2021-10-21 15:45:54.691364,-53
2021-10-21 15:45:54.691372,-55
2021-10-21 15:45:54.691381,-63
2021-10-21 15:45:54.691389,-60
2021-10-21 15:45:54.691397,-53
2021-10-21 15:45:54.691405,-53
2021-10-21 15:45:54.691414,-46
2021-10-21 15:45:54.691422,-41
2021-10-21 15:45:54.691430,-51
2021-10-21 15:45:54.691438,-53
2021-10-21 15:45:54.691446,-38
2021-10-21 15:45:54.691455,-41
2021-10-21 15:45:54.691463,-48
2021-10-21 15:45:54.691471,-31
2021-10-21 15:45:54.691480,-9
2021-10-21 15:45:54.691488,4
2021-10-21 15:45:54.691496,7
2021-10-21 15:45:54.691505,0
2021-10-21 15:45:54.691513,4
2021-10-21 15:45:54.691521,2
2021-10-21 15:45:54.691529,-14
2021-10-21 15:45:54.691538,-14
2021-10-21 15:45:54.691546,-4
2021-10-21 15:45:54.691554,-4
2021-10-21 15:45:54.691562,-4
2021-10-21 15:45:54.691571,0
2021-10-21 15:45:54.917715,4
2021-10-21 15:45:54.917737,7
2021-10-21 15:45:54.917746,-12
2021-10-21 15:45:54.917755,-77
2021-10-21 15:45:54.917764,-131
2021-10-21 15:45:54.917772,-9
2021-10-21 15:45:54.917781,464
2021-10-21 15:45:54.917789,1155
2021-10-21 15:45:54.917798,1296
2021-10-21 15:45:54.917806,474
2021-10-21 15:45:54.917819,-233
2021-10-21 15:45:54.917828,-97
2021-10-21 15:45:54.917836,43
2021-10-21 15:45:54.917844,-121
2021-10-21 15:45:54.917852,-128
2021-10-21 15:45:54.917861,-55
2021-10-21 15:45:54.917869,-85
2021-10-21 15:45:54.917877,-90
2021-10-21 15:45:54.917885,-55
2021-10-21 15:45:54.917894,-60
2021-10-21 15:45:54.917902,-70
2021-10-21 15:45:54.917910,-46
2021-10-21 15:45:54.917918,-31
2021-10-21 15:45:54.917927,-29
2021-10-21 15:45:54.917935,-17
2021-10-21 15:45:54.917943,2
2021-10-21 15:45:54.917952,14
2021-10-21 15:45:54.917960,17
2021-10-21 15:45:54.917968,26
2021-10-21 15:45:54.917976,31
2021-10-21 15:45:55.142712,36
2021-10-21 15:45:55.142734,41
2021-10-21 15:45:55.142744,41
2021-10-21 15:45:55.142752,34
2021-10-21 15:45:55.142761,24
2021-10-21 15:45:55.142769,12
2021-10-21 15:45:55.142778,2
2021-10-21 15:45:55.142787,0
2021-10-21 15:45:55.142795,-9
2021-10-21 15:45:55.142804,-31
2021-10-21 15:45:55.142812,-53
2021-10-21 15:45:55.142820,-70
2021-10-21 15:45:55.142829,-77
2021-10-21 15:45:55.142837,-80
2021-10-21 15:45:55.142845,-85
2021-10-21 15:45:55.142853,-94
2021-10-21 15:45:55.142862,-102
2021-10-21 15:45:55.142870,-102
2021-10-21 15:45:55.142878,-92
2021-10-21 15:45:55.142887,-85
2021-10-21 15:45:55.142895,-87
2021-10-21 15:45:55.142904,-90
2021-10-21 15:45:55.142912,-87
2021-10-21 15:45:55.142920,-87
2021-10-21 15:45:55.142928,-82
2021-10-21 15:45:55.142940,-70
2021-10-21 15:45:55.142949,-68
2021-10-21 15:45:55.142957,-68
2021-10-21 15:45:55.142965,-63
2021-10-21 15:45:55.142973,-58
2021-10-21 15:45:55.367749,-53
2021-10-21 15:45:55.367770,-51
2021-10-21 15:45:55.367779,-48
2021-10-21 15:45:55.367788,-53
2021-10-21 15:45:55.367797,-63
2021-10-21 15:45:55.367805,-63
2021-10-21 15:45:55.367814,-60
2021-10-21 15:45:55.367822,-68
2021-10-21 15:45:55.367830,-70
2021-10-21 15:45:55.367839,-72
2021-10-21 15:45:55.367847,-85
2021-10-21 15:45:55.367856,-82
2021-10-21 15:45:55.367864,-68
2021-10-21 15:45:55.367872,-58
2021-10-21 15:45:55.367880,-60
2021-10-21 15:45:55.367888,-65
2021-10-21 15:45:55.367896,-70
2021-10-21 15:45:55.367905,-65
2021-10-21 15:45:55.367913,-53
2021-10-21 15:45:55.367922,-51
2021-10-21 15:45:55.367930,-51
2021-10-21 15:45:55.367938,-46
2021-10-21 15:45:55.367946,-31
2021-10-21 15:45:55.367955,-12
2021-10-21 15:45:55.367963,-14
2021-10-21 15:45:55.367971,-34
2021-10-21 15:45:55.367979,-36
2021-10-21 15:45:55.367988,-38
2021-10-21 15:45:55.367996,-51
2021-10-21 15:45:55.368004,-48
2021-10-21 15:45:55.592750,-36
2021-10-21 15:45:55.592772,-31
2021-10-21 15:45:55.592781,-31
2021-10-21 15:45:55.592790,-41
2021-10-21 15:45:55.592798,-51
2021-10-21 15:45:55.592807,-46
2021-10-21 15:45:55.592815,-60
2021-10-21 15:45:55.592823,-131
2021-10-21 15:45:55.592831,-163
2021-10-21 15:45:55.592840,75
2021-10-21 15:45:55.592848,749
2021-10-21 15:45:55.592856,1508
2021-10-21 15:45:55.592864,1406
2021-10-21 15:45:55.592872,372
2021-10-21 15:45:55.592880,-231
2021-10-21 15:45:55.592889,-41
2021-10-21 15:45:55.592901,-12
2021-10-21 15:45:55.592939,-189
2021-10-21 15:45:55.592947,-153
2021-10-21 15:45:55.592955,-87
2021-10-21 15:45:55.592963,-128
2021-10-21 15:45:55.592972,-126
2021-10-21 15:45:55.592980,-82
2021-10-21 15:45:55.592988,-72
2021-10-21 15:45:55.592996,-65
2021-10-21 15:45:55.593004,-46
2021-10-21 15:45:55.593012,-38
2021-10-21 15:45:55.593020,-38
2021-10-21 15:45:55.593028,-21
2021-10-21 15:45:55.593037,-4
2021-10-21 15:45:55.907749,4
2021-10-21 15:45:55.907772,14
2021-10-21 15:45:55.907781,19
2021-10-21 15:45:55.907790,19
2021-10-21 15:45:55.907798,26
2021-10-21 15:45:55.907807,36
2021-10-21 15:45:55.907815,34
2021-10-21 15:45:55.907823,31
2021-10-21 15:45:55.907832,14
2021-10-21 15:45:55.907840,-9
2021-10-21 15:45:55.907849,-14
2021-10-21 15:45:55.907857,-19
2021-10-21 15:45:55.907865,-36
2021-10-21 15:45:55.907873,-46
2021-10-21 15:45:55.907882,-63
2021-10-21 15:45:55.907890,-85
2021-10-21 15:45:55.907898,-92
2021-10-21 15:45:55.907907,-94
2021-10-21 15:45:55.907915,-97
2021-10-21 15:45:55.907923,-94
2021-10-21 15:45:55.907932,-97
2021-10-21 15:45:55.907940,-99
2021-10-21 15:45:55.907948,-90
2021-10-21 15:45:55.907956,-77
2021-10-21 15:45:55.907965,-70
2021-10-21 15:45:55.907973,-65
2021-10-21 15:45:55.907982,-65
2021-10-21 15:45:55.907990,-72
2021-10-21 15:45:55.907998,-70
2021-10-21 15:45:55.908006,-70
2021-10-21 15:45:56.042727,-87
2021-10-21 15:45:56.042749,-99
2021-10-21 15:45:56.042758,-94
2021-10-21 15:45:56.042767,-92
2021-10-21 15:45:56.042775,-90
2021-10-21 15:45:56.042784,-80
2021-10-21 15:45:56.042792,-75
2021-10-21 15:45:56.042801,-77
2021-10-21 15:45:56.042809,-85
2021-10-21 15:45:56.042817,-82
2021-10-21 15:45:56.042825,-72
2021-10-21 15:45:56.042833,-68
2021-10-21 15:45:56.042842,-68
2021-10-21 15:45:56.042855,-72
2021-10-21 15:45:56.042863,-75
2021-10-21 15:45:56.042872,-70
2021-10-21 15:45:56.042880,-60
2021-10-21 15:45:56.042888,-55
2021-10-21 15:45:56.042896,-55
2021-10-21 15:45:56.042904,-63
2021-10-21 15:45:56.042913,-75
2021-10-21 15:45:56.042921,-70
2021-10-21 15:45:56.042929,-48
2021-10-21 15:45:56.042937,-26
2021-10-21 15:45:56.042946,-14
2021-10-21 15:45:56.042954,-21
2021-10-21 15:45:56.042962,-34
2021-10-21 15:45:56.042970,-34
2021-10-21 15:45:56.042978,-36
2021-10-21 15:45:56.042987,-41
2021-10-21 15:45:56.267727,-36
2021-10-21 15:45:56.267748,-34
2021-10-21 15:45:56.267757,-36
2021-10-21 15:45:56.267766,-31
2021-10-21 15:45:56.267774,-26
2021-10-21 15:45:56.267783,-19
2021-10-21 15:45:56.267791,-26
2021-10-21 15:45:56.267800,-77
2021-10-21 15:45:56.267808,-160
2021-10-21 15:45:56.267817,-138
2021-10-21 15:45:56.267825,214
2021-10-21 15:45:56.267833,966
2021-10-21 15:45:56.267842,1574
2021-10-21 15:45:56.267850,1146
2021-10-21 15:45:56.267858,90
2021-10-21 15:45:56.267867,-233
2021-10-21 15:45:56.267875,7
2021-10-21 15:45:56.267883,-63
2021-10-21 15:45:56.267891,-204
2021-10-21 15:45:56.267900,-136
2021-10-21 15:45:56.267908,-107
2021-10-21 15:45:56.267916,-138
2021-10-21 15:45:56.267924,-111
2021-10-21 15:45:56.267933,-77
2021-10-21 15:45:56.267941,-77
2021-10-21 15:45:56.267949,-72
2021-10-21 15:45:56.267957,-53
2021-10-21 15:45:56.267965,-43
2021-10-21 15:45:56.267974,-34
2021-10-21 15:45:56.267982,-17
2021-10-21 15:45:56.537770,-9
2021-10-21 15:45:56.537792,-2
2021-10-21 15:45:56.537801,12
2021-10-21 15:45:56.537810,19
2021-10-21 15:45:56.537818,24
2021-10-21 15:45:56.537827,19
2021-10-21 15:45:56.537835,-4
2021-10-21 15:45:56.537843,-19
2021-10-21 15:45:56.537852,-9
2021-10-21 15:45:56.537860,-9
2021-10-21 15:45:56.537868,-21
2021-10-21 15:45:56.537876,-21
2021-10-21 15:45:56.537885,-36
2021-10-21 15:45:56.537893,-58
2021-10-21 15:45:56.537902,-63
2021-10-21 15:45:56.537910,-70
2021-10-21 15:45:56.537918,-80
2021-10-21 15:45:56.537929,-94
2021-10-21 15:45:56.537938,-107
2021-10-21 15:45:56.537946,-102
2021-10-21 15:45:56.537954,-94
2021-10-21 15:45:56.537962,-94
2021-10-21 15:45:56.537970,-87
2021-10-21 15:45:56.537978,-75
2021-10-21 15:45:56.537987,-70
2021-10-21 15:45:56.537995,-63
2021-10-21 15:45:56.538003,-55
2021-10-21 15:45:56.538011,-48
2021-10-21 15:45:56.538020,-43
2021-10-21 15:45:56.538028,-41
2021-10-21 15:45:56.806334,-46
2021-10-21 15:45:56.806354,-43
2021-10-21 15:45:56.806363,-38
2021-10-21 15:45:56.806372,-38
2021-10-21 15:45:56.806380,-36
2021-10-21 15:45:56.806389,-36
2021-10-21 15:45:56.806397,-46
2021-10-21 15:45:56.806406,-43
2021-10-21 15:45:56.806414,-31
2021-10-21 15:45:56.806422,-36
2021-10-21 15:45:56.806431,-41
2021-10-21 15:45:56.806439,-51
2021-10-21 15:45:56.806447,-58
2021-10-21 15:45:56.806456,-60
2021-10-21 15:45:56.806464,-63
2021-10-21 15:45:56.806473,-65
2021-10-21 15:45:56.806481,-63
2021-10-21 15:45:56.806489,-70
2021-10-21 15:45:56.806498,-80
2021-10-21 15:45:56.806506,-80
2021-10-21 15:45:56.806514,-80
2021-10-21 15:45:56.806523,-82
2021-10-21 15:45:56.806531,-80
2021-10-21 15:45:56.806539,-80
2021-10-21 15:45:56.806547,-72
2021-10-21 15:45:56.806555,-46
2021-10-21 15:45:56.806563,-24
2021-10-21 15:45:56.806572,-24
2021-10-21 15:45:56.806580,-29
2021-10-21 15:45:56.806588,-26
2021-10-21 15:45:56.942738,-34
2021-10-21 15:45:56.942760,-41
2021-10-21 15:45:56.942770,-41
2021-10-21 15:45:56.942778,-38
2021-10-21 15:45:56.942787,-41
2021-10-21 15:45:56.942795,-48
2021-10-21 15:45:56.942804,-48
2021-10-21 15:45:56.942812,-36
2021-10-21 15:45:56.942820,-34
2021-10-21 15:45:56.942828,-58
2021-10-21 15:45:56.942837,-126
2021-10-21 15:45:56.942845,-182
2021-10-21 15:45:56.942853,-17
2021-10-21 15:45:56.942861,559
2021-10-21 15:45:56.942870,1301
2021-10-21 15:45:56.942878,1362
2021-10-21 15:45:56.942886,457
2021-10-21 15:45:56.942895,-228
2021-10-21 15:45:56.942903,-87
2021-10-21 15:45:56.942911,14
2021-10-21 15:45:56.942919,-167
2021-10-21 15:45:56.942927,-182
2021-10-21 15:45:56.942935,-119
2021-10-21 15:45:56.942943,-143
2021-10-21 15:45:56.942952,-136
2021-10-21 15:45:56.942960,-94
2021-10-21 15:45:56.942968,-87
2021-10-21 15:45:56.942976,-87
2021-10-21 15:45:56.942985,-70
2021-10-21 15:45:56.942996,-58
2021-10-21 15:45:57.167777,-43
2021-10-21 15:45:57.167798,-29
2021-10-21 15:45:57.167808,-19
2021-10-21 15:45:57.167817,-17
2021-10-21 15:45:57.167825,-19
2021-10-21 15:45:57.167834,-14
2021-10-21 15:45:57.167842,0
2021-10-21 15:45:57.167851,12
2021-10-21 15:45:57.167859,12
2021-10-21 15:45:57.167867,2
2021-10-21 15:45:57.167876,-9
2021-10-21 15:45:57.167884,-14
2021-10-21 15:45:57.167892,-9
2021-10-21 15:45:57.167901,-12
2021-10-21 15:45:57.167909,-17
2021-10-21 15:45:57.167918,-24
2021-10-21 15:45:57.167926,-38
2021-10-21 15:45:57.167934,-46
2021-10-21 15:45:57.167943,-48
2021-10-21 15:45:57.167951,-53
2021-10-21 15:45:57.167959,-60
2021-10-21 15:45:57.167968,-68
2021-10-21 15:45:57.167976,-72
2021-10-21 15:45:57.167984,-75
2021-10-21 15:45:57.167992,-77
2021-10-21 15:45:57.168000,-63
2021-10-21 15:45:57.168009,-53
2021-10-21 15:45:57.168017,-58
2021-10-21 15:45:57.168025,-53
2021-10-21 15:45:57.168034,-36
2021-10-21 15:45:57.437747,-31
2021-10-21 15:45:57.437769,-29
2021-10-21 15:45:57.437778,-24
2021-10-21 15:45:57.437787,-31
2021-10-21 15:45:57.437796,-41
2021-10-21 15:45:57.437804,-29
2021-10-21 15:45:57.437813,-17
2021-10-21 15:45:57.437821,-14
2021-10-21 15:45:57.437829,-14
2021-10-21 15:45:57.437837,-31
2021-10-21 15:45:57.437846,-43
2021-10-21 15:45:57.437854,-41
2021-10-21 15:45:57.437862,-41
2021-10-21 15:45:57.437870,-41
2021-10-21 15:45:57.437879,-38
2021-10-21 15:45:57.437887,-43
2021-10-21 15:45:57.437895,-51
2021-10-21 15:45:57.437904,-60
2021-10-21 15:45:57.437912,-65
2021-10-21 15:45:57.437920,-55
2021-10-21 15:45:57.437928,-51
2021-10-21 15:45:57.437937,-60
2021-10-21 15:45:57.437945,-63
2021-10-21 15:45:57.437953,-55
2021-10-21 15:45:57.437962,-58
2021-10-21 15:45:57.437970,-77
2021-10-21 15:45:57.437978,-94
2021-10-21 15:45:57.437986,-94
2021-10-21 15:45:57.437995,-87
2021-10-21 15:45:57.438003,-72
2021-10-21 15:45:57.663221,-51
2021-10-21 15:45:57.663244,-31
2021-10-21 15:45:57.663254,-36
2021-10-21 15:45:57.663262,-46
2021-10-21 15:45:57.663271,-43
2021-10-21 15:45:57.663280,-43
2021-10-21 15:45:57.663288,-51
2021-10-21 15:45:57.663297,-48
2021-10-21 15:45:57.663305,-53
2021-10-21 15:45:57.663313,-70
2021-10-21 15:45:57.663322,-68
2021-10-21 15:45:57.663330,-48
2021-10-21 15:45:57.663339,-43
2021-10-21 15:45:57.663347,-46
2021-10-21 15:45:57.663356,-68
2021-10-21 15:45:57.663364,-131
2021-10-21 15:45:57.663373,-165
2021-10-21 15:45:57.663381,0
2021-10-21 15:45:57.663390,508
2021-10-21 15:45:57.663398,1177
2021-10-21 15:45:57.663410,1245
2021-10-21 15:45:57.663419,399
2021-10-21 15:45:57.663427,-253
2021-10-21 15:45:57.663436,-87
2021-10-21 15:45:57.663444,34
2021-10-21 15:45:57.663452,-136
2021-10-21 15:45:57.663461,-138
2021-10-21 15:45:57.663469,-77
2021-10-21 15:45:57.663478,-116
2021-10-21 15:45:57.663486,-114
2021-10-21 15:45:57.932176,-63
2021-10-21 15:45:57.932198,-55
2021-10-21 15:45:57.932208,-60
2021-10-21 15:45:57.932217,-41
2021-10-21 15:45:57.932225,-21
2021-10-21 15:45:57.932233,-14
2021-10-21 15:45:57.932242,2
2021-10-21 15:45:57.932251,9
2021-10-21 15:45:57.932259,2
2021-10-21 15:45:57.932267,7
2021-10-21 15:45:57.932276,26
2021-10-21 15:45:57.932284,38
2021-10-21 15:45:57.932292,38
2021-10-21 15:45:57.932301,34
2021-10-21 15:45:57.932309,17
2021-10-21 15:45:57.932318,7
2021-10-21 15:45:57.932326,14
2021-10-21 15:45:57.932335,14
2021-10-21 15:45:57.932343,7
2021-10-21 15:45:57.932351,4
2021-10-21 15:45:57.932360,-2
2021-10-21 15:45:57.932368,-17
2021-10-21 15:45:57.932376,-41
2021-10-21 15:45:57.932385,-58
2021-10-21 15:45:57.932393,-58
2021-10-21 15:45:57.932402,-65
2021-10-21 15:45:57.932410,-77
2021-10-21 15:45:57.932418,-80
2021-10-21 15:45:57.932427,-75
2021-10-21 15:45:57.932435,-72
2021-10-21 15:45:58.112798,-77
2021-10-21 15:45:58.112819,-75
2021-10-21 15:45:58.112829,-68
2021-10-21 15:45:58.112841,-63
2021-10-21 15:45:58.112850,-51
2021-10-21 15:45:58.112859,-41
2021-10-21 15:45:58.112867,-41
2021-10-21 15:45:58.112876,-43
2021-10-21 15:45:58.112884,-43
2021-10-21 15:45:58.112892,-38
2021-10-21 15:45:58.112901,-31
2021-10-21 15:45:58.112909,-24
2021-10-21 15:45:58.112918,-21
2021-10-21 15:45:58.112926,-31
2021-10-21 15:45:58.112935,-41
2021-10-21 15:45:58.112943,-36
2021-10-21 15:45:58.112951,-31
2021-10-21 15:45:58.112960,-26
2021-10-21 15:45:58.112968,-29
2021-10-21 15:45:58.112977,-43
2021-10-21 15:45:58.112985,-53
2021-10-21 15:45:58.112994,-48
2021-10-21 15:45:58.113002,-41
2021-10-21 15:45:58.113010,-36
2021-10-21 15:45:58.113019,-36
2021-10-21 15:45:58.113027,-41
2021-10-21 15:45:58.113035,-41
2021-10-21 15:45:58.113044,-38
2021-10-21 15:45:58.113052,-38
2021-10-21 15:45:58.113061,-36
2021-10-21 15:45:58.337785,-29
2021-10-21 15:45:58.337807,-21
2021-10-21 15:45:58.337817,-21
2021-10-21 15:45:58.337826,-29
2021-10-21 15:45:58.337834,-36
2021-10-21 15:45:58.337842,-36
2021-10-21 15:45:58.337851,-55
2021-10-21 15:45:58.337859,-75
2021-10-21 15:45:58.337867,-70
2021-10-21 15:45:58.337875,-60
2021-10-21 15:45:58.337884,-63
2021-10-21 15:45:58.337892,-60
2021-10-21 15:45:58.337900,-63
2021-10-21 15:45:58.337908,-70
2021-10-21 15:45:58.337916,-70
2021-10-21 15:45:58.337925,-104
2021-10-21 15:45:58.337933,-170
2021-10-21 15:45:58.337941,-141
2021-10-21 15:45:58.337949,194
2021-10-21 15:45:58.337958,912
2021-10-21 15:45:58.337966,1496
2021-10-21 15:45:58.337974,1097
2021-10-21 15:45:58.337986,94
2021-10-21 15:45:58.337994,-211
2021-10-21 15:45:58.338003,14
2021-10-21 15:45:58.338011,-63
2021-10-21 15:45:58.338019,-201
2021-10-21 15:45:58.338027,-131
2021-10-21 15:45:58.338035,-116
2021-10-21 15:45:58.338043,-167
2021-10-21 15:45:58.652743,-143
2021-10-21 15:45:58.652764,-102
2021-10-21 15:45:58.652774,-104
2021-10-21 15:45:58.652783,-107
2021-10-21 15:45:58.652791,-94
2021-10-21 15:45:58.652799,-90
2021-10-21 15:45:58.652808,-90
2021-10-21 15:45:58.652816,-75
2021-10-21 15:45:58.652824,-55
2021-10-21 15:45:58.652833,-51
2021-10-21 15:45:58.652841,-43
2021-10-21 15:45:58.652849,-43
2021-10-21 15:45:58.652857,-43
2021-10-21 15:45:58.652866,-36
2021-10-21 15:45:58.652874,-31
2021-10-21 15:45:58.652882,-36
2021-10-21 15:45:58.652891,-36
2021-10-21 15:45:58.652899,-38
2021-10-21 15:45:58.652907,-46
2021-10-21 15:45:58.652915,-46
2021-10-21 15:45:58.652924,-41
2021-10-21 15:45:58.652932,-51
2021-10-21 15:45:58.652940,-60
2021-10-21 15:45:58.652948,-65
2021-10-21 15:45:58.652957,-68
2021-10-21 15:45:58.652965,-70
2021-10-21 15:45:58.652973,-72
2021-10-21 15:45:58.652981,-72
2021-10-21 15:45:58.652990,-72
2021-10-21 15:45:58.652998,-70
2021-10-21 15:45:58.921412,-65
2021-10-21 15:45:58.921434,-53
2021-10-21 15:45:58.921444,-48
2021-10-21 15:45:58.921452,-46
2021-10-21 15:45:58.921461,-41
2021-10-21 15:45:58.921469,-38
2021-10-21 15:45:58.921478,-41
2021-10-21 15:45:58.921486,-36
2021-10-21 15:45:58.921494,-26
2021-10-21 15:45:58.921503,-26
2021-10-21 15:45:58.921511,-29
2021-10-21 15:45:58.921519,-31
2021-10-21 15:45:58.921527,-26
2021-10-21 15:45:58.921536,-17
2021-10-21 15:45:58.921544,-17
2021-10-21 15:45:58.921552,-21
2021-10-21 15:45:58.921561,-29
2021-10-21 15:45:58.921569,-34
2021-10-21 15:45:58.921577,-34
2021-10-21 15:45:58.921586,-26
2021-10-21 15:45:58.921594,-24
2021-10-21 15:45:58.921602,-26
2021-10-21 15:45:58.921611,-41
2021-10-21 15:45:58.921619,-60
2021-10-21 15:45:58.921627,-60
2021-10-21 15:45:58.921636,-43
2021-10-21 15:45:58.921644,-26
2021-10-21 15:45:58.921652,-12
2021-10-21 15:45:58.921661,-7
2021-10-21 15:45:58.921669,-12
2021-10-21 15:45:59.057748,-14
2021-10-21 15:45:59.057770,-21
2021-10-21 15:45:59.057780,-31
2021-10-21 15:45:59.057788,-36
2021-10-21 15:45:59.057797,-51
2021-10-21 15:45:59.057805,-72
2021-10-21 15:45:59.057813,-77
2021-10-21 15:45:59.057822,-77
2021-10-21 15:45:59.057830,-92
2021-10-21 15:45:59.057838,-102
2021-10-21 15:45:59.057846,-126
2021-10-21 15:45:59.057855,-189
2021-10-21 15:45:59.057863,-206
2021-10-21 15:45:59.057871,0
2021-10-21 15:45:59.057879,569
2021-10-21 15:45:59.057888,1253
2021-10-21 15:45:59.057896,1245
2021-10-21 15:45:59.057904,357
2021-10-21 15:45:59.057913,-243
2021-10-21 15:45:59.057921,-92
2021-10-21 15:45:59.057929,-38
2021-10-21 15:45:59.057937,-218
2021-10-21 15:45:59.057946,-216
2021-10-21 15:45:59.057954,-148
2021-10-21 15:45:59.057962,-167
2021-10-21 15:45:59.057971,-160
2021-10-21 15:45:59.057979,-124
2021-10-21 15:45:59.057987,-124
2021-10-21 15:45:59.057995,-121
2021-10-21 15:45:59.058004,-94
2021-10-21 15:45:59.282792,-77
2021-10-21 15:45:59.282815,-70
2021-10-21 15:45:59.282824,-55
2021-10-21 15:45:59.282833,-58
2021-10-21 15:45:59.282841,-65
2021-10-21 15:45:59.282854,-48
2021-10-21 15:45:59.282862,-29
2021-10-21 15:45:59.282871,-24
2021-10-21 15:45:59.282879,-19
2021-10-21 15:45:59.282887,-24
2021-10-21 15:45:59.282895,-36
2021-10-21 15:45:59.282904,-36
2021-10-21 15:45:59.282912,-31
2021-10-21 15:45:59.282920,-34
2021-10-21 15:45:59.282929,-43
2021-10-21 15:45:59.282937,-60
2021-10-21 15:45:59.282945,-72
2021-10-21 15:45:59.282954,-75
2021-10-21 15:45:59.282962,-75
2021-10-21 15:45:59.282970,-80
2021-10-21 15:45:59.282979,-87
2021-10-21 15:45:59.282987,-99
2021-10-21 15:45:59.282995,-104
2021-10-21 15:45:59.283003,-94
2021-10-21 15:45:59.283012,-87
2021-10-21 15:45:59.283020,-80
2021-10-21 15:45:59.283028,-72
2021-10-21 15:45:59.283036,-70
2021-10-21 15:45:59.283045,-65
2021-10-21 15:45:59.283053,-53
2021-10-21 15:45:59.552794,-46
2021-10-21 15:45:59.552817,-41
2021-10-21 15:45:59.552827,-38
2021-10-21 15:45:59.552835,-41
2021-10-21 15:45:59.552844,-36
2021-10-21 15:45:59.552852,-26
2021-10-21 15:45:59.552861,-21
2021-10-21 15:45:59.552869,-19
2021-10-21 15:45:59.552877,-26
2021-10-21 15:45:59.552886,-41
2021-10-21 15:45:59.552894,-53
2021-10-21 15:45:59.552903,-68
2021-10-21 15:45:59.552911,-75
2021-10-21 15:45:59.552919,-68
2021-10-21 15:45:59.552927,-75
2021-10-21 15:45:59.552936,-90
2021-10-21 15:45:59.552944,-82
2021-10-21 15:45:59.552952,-65
2021-10-21 15:45:59.552961,-68
2021-10-21 15:45:59.552969,-68
2021-10-21 15:45:59.552977,-68
2021-10-21 15:45:59.552986,-63
2021-10-21 15:45:59.552994,-36
2021-10-21 15:45:59.553002,-17
2021-10-21 15:45:59.553011,-26
2021-10-21 15:45:59.553019,-36
2021-10-21 15:45:59.553027,-41
2021-10-21 15:45:59.553036,-58
2021-10-21 15:45:59.553044,-60
2021-10-21 15:45:59.553052,-46
2021-10-21 15:45:59.822744,-41
2021-10-21 15:45:59.822765,-43
2021-10-21 15:45:59.822774,-43
2021-10-21 15:45:59.822783,-46
2021-10-21 15:45:59.822791,-46
2021-10-21 15:45:59.822800,-53
2021-10-21 15:45:59.822808,-92
2021-10-21 15:45:59.822817,-163
2021-10-21 15:45:59.822825,-141
2021-10-21 15:45:59.822833,189
2021-10-21 15:45:59.822842,856
2021-10-21 15:45:59.822850,1318
2021-10-21 15:45:59.822858,866
2021-10-21 15:45:59.822866,-9
2021-10-21 15:45:59.822875,-211
2021-10-21 15:45:59.822883,-26
2021-10-21 15:45:59.822891,-114
2021-10-21 15:45:59.822899,-209
2021-10-21 15:45:59.822908,-145
2021-10-21 15:45:59.822916,-141
2021-10-21 15:45:59.822924,-180
2021-10-21 15:45:59.822932,-150
2021-10-21 15:45:59.822941,-121
2021-10-21 15:45:59.822949,-119
2021-10-21 15:45:59.822957,-107
2021-10-21 15:45:59.822966,-87
2021-10-21 15:45:59.822974,-80
2021-10-21 15:45:59.822982,-70
2021-10-21 15:45:59.822990,-51
2021-10-21 15:45:59.822999,-36
2021-10-21 15:45:59.957770,-29
2021-10-21 15:45:59.957792,-24
2021-10-21 15:45:59.957801,-21
2021-10-21 15:45:59.957810,-21
2021-10-21 15:45:59.957819,-17
2021-10-21 15:45:59.957827,-12
2021-10-21 15:45:59.957835,-14
2021-10-21 15:45:59.957844,-19
2021-10-21 15:45:59.957852,-24
2021-10-21 15:45:59.957860,-26
2021-10-21 15:45:59.957869,-29
2021-10-21 15:45:59.957877,-26
2021-10-21 15:45:59.957885,-36
2021-10-21 15:45:59.957893,-60
2021-10-21 15:45:59.957901,-72
2021-10-21 15:45:59.957910,-85
2021-10-21 15:45:59.957918,-109
2021-10-21 15:45:59.957926,-116
2021-10-21 15:45:59.957935,-109
2021-10-21 15:45:59.957943,-116
2021-10-21 15:45:59.957951,-119
2021-10-21 15:45:59.957960,-104
2021-10-21 15:45:59.957968,-90
2021-10-21 15:45:59.957976,-82
2021-10-21 15:45:59.957985,-82
2021-10-21 15:45:59.957993,-82
2021-10-21 15:45:59.958001,-77
2021-10-21 15:45:59.958009,-68
2021-10-21 15:45:59.958018,-65
2021-10-21 15:45:59.958026,-58
2021-10-21 15:46:00.182796,-51
2021-10-21 15:46:00.182823,-53
2021-10-21 15:46:00.182833,-51
2021-10-21 15:46:00.182842,-46
2021-10-21 15:46:00.182850,-38
2021-10-21 15:46:00.182859,-34
2021-10-21 15:46:00.182867,-43
2021-10-21 15:46:00.182875,-55
2021-10-21 15:46:00.182884,-51
2021-10-21 15:46:00.182892,-46
2021-10-21 15:46:00.182901,-43
2021-10-21 15:46:00.182909,-43
2021-10-21 15:46:00.182917,-53
2021-10-21 15:46:00.182926,-58
2021-10-21 15:46:00.182934,-48
2021-10-21 15:46:00.182942,-26
2021-10-21 15:46:00.182951,-7
2021-10-21 15:46:00.182959,-4
2021-10-21 15:46:00.182967,-17
2021-10-21 15:46:00.182976,-31
2021-10-21 15:46:00.182984,-36
2021-10-21 15:46:00.182993,-36
2021-10-21 15:46:00.183001,-34
2021-10-21 15:46:00.183009,-31
2021-10-21 15:46:00.183017,-29
2021-10-21 15:46:00.183025,-31
2021-10-21 15:46:00.183033,-34
2021-10-21 15:46:00.183041,-41
2021-10-21 15:46:00.183050,-38
2021-10-21 15:46:00.183058,-63
2021-10-21 15:46:00.407789,-131
2021-10-21 15:46:00.407810,-116
2021-10-21 15:46:00.407820,170
2021-10-21 15:46:00.407829,788
2021-10-21 15:46:00.407837,1326
2021-10-21 15:46:00.407846,1009
2021-10-21 15:46:00.407854,85
2021-10-21 15:46:00.407862,-243
2021-10-21 15:46:00.407871,-19
2021-10-21 15:46:00.407879,-58
2021-10-21 15:46:00.407887,-201
2021-10-21 15:46:00.407896,-160
2021-10-21 15:46:00.407904,-141
2021-10-21 15:46:00.407913,-167
2021-10-21 15:46:00.407921,-138
2021-10-21 15:46:00.407929,-114
2021-10-21 15:46:00.407937,-114
2021-10-21 15:46:00.407946,-107
2021-10-21 15:46:00.407954,-92
2021-10-21 15:46:00.407962,-80
2021-10-21 15:46:00.407970,-82
2021-10-21 15:46:00.407979,-99
2021-10-21 15:46:00.407987,-99
2021-10-21 15:46:00.407995,-77
2021-10-21 15:46:00.408003,-63
2021-10-21 15:46:00.408011,-60
2021-10-21 15:46:00.408020,-53
2021-10-21 15:46:00.408028,-43
2021-10-21 15:46:00.408036,-48
2021-10-21 15:46:00.408044,-58
2021-10-21 15:46:00.632787,-55
2021-10-21 15:46:00.632810,-51
2021-10-21 15:46:00.632820,-55
2021-10-21 15:46:00.632829,-63
2021-10-21 15:46:00.632837,-68
2021-10-21 15:46:00.632846,-77
2021-10-21 15:46:00.632854,-87
2021-10-21 15:46:00.632863,-85
2021-10-21 15:46:00.632871,-90
2021-10-21 15:46:00.632880,-104
2021-10-21 15:46:00.632888,-116
2021-10-21 15:46:00.632896,-124
2021-10-21 15:46:00.632905,-121
2021-10-21 15:46:00.632913,-107
2021-10-21 15:46:00.632922,-97
2021-10-21 15:46:00.632930,-90
2021-10-21 15:46:00.632938,-87
2021-10-21 15:46:00.632947,-82
2021-10-21 15:46:00.632955,-70
2021-10-21 15:46:00.632963,-60
2021-10-21 15:46:00.632972,-55
2021-10-21 15:46:00.632980,-53
2021-10-21 15:46:00.632988,-58
2021-10-21 15:46:00.632997,-60
2021-10-21 15:46:00.633005,-48
2021-10-21 15:46:00.633013,-41
2021-10-21 15:46:00.633021,-41
2021-10-21 15:46:00.633030,-41
2021-10-21 15:46:00.633038,-38
2021-10-21 15:46:00.633047,-41
2021-10-21 15:46:00.901504,-38
2021-10-21 15:46:00.901527,-26
2021-10-21 15:46:00.901536,-24
2021-10-21 15:46:00.901545,-31
2021-10-21 15:46:00.901554,-46
2021-10-21 15:46:00.901562,-53
2021-10-21 15:46:00.901571,-38
2021-10-21 15:46:00.901580,-21
2021-10-21 15:46:00.901588,-4
2021-10-21 15:46:00.901597,2
2021-10-21 15:46:00.901605,-14
2021-10-21 15:46:00.901613,-26
2021-10-21 15:46:00.901621,-21
2021-10-21 15:46:00.901630,-24
2021-10-21 15:46:00.901638,-29
2021-10-21 15:46:00.901647,-31
2021-10-21 15:46:00.901655,-31
2021-10-21 15:46:00.901663,-26
2021-10-21 15:46:00.901671,-19
2021-10-21 15:46:00.901680,-12
2021-10-21 15:46:00.901688,-12
2021-10-21 15:46:00.901696,-24
2021-10-21 15:46:00.901704,-70
2021-10-21 15:46:00.901713,-128
2021-10-21 15:46:00.901721,-53
2021-10-21 15:46:00.901729,352
2021-10-21 15:46:00.901738,1046
2021-10-21 15:46:00.901746,1360
2021-10-21 15:46:00.901754,671
2021-10-21 15:46:00.901762,-180
2021-10-21 15:46:01.082790,-175
2021-10-21 15:46:01.082811,36
2021-10-21 15:46:01.082820,-121
2021-10-21 15:46:01.082829,-194
2021-10-21 15:46:01.082837,-119
2021-10-21 15:46:01.082846,-124
2021-10-21 15:46:01.082854,-133
2021-10-21 15:46:01.082863,-94
2021-10-21 15:46:01.082871,-85
2021-10-21 15:46:01.082879,-97
2021-10-21 15:46:01.082888,-90
2021-10-21 15:46:01.082903,-70
2021-10-21 15:46:01.082911,-63
2021-10-21 15:46:01.082920,-58
2021-10-21 15:46:01.082928,-48
2021-10-21 15:46:01.082937,-51
2021-10-21 15:46:01.082945,-53
2021-10-21 15:46:01.082953,-36
2021-10-21 15:46:01.082962,-21
2021-10-21 15:46:01.082970,-17
2021-10-21 15:46:01.082978,-24
2021-10-21 15:46:01.082986,-36
2021-10-21 15:46:01.082995,-43
2021-10-21 15:46:01.083003,-38
2021-10-21 15:46:01.083011,-43
2021-10-21 15:46:01.083020,-51
2021-10-21 15:46:01.083028,-63
2021-10-21 15:46:01.083037,-77
2021-10-21 15:46:01.083045,-82
2021-10-21 15:46:01.083053,-82
2021-10-21 15:46:01.352818,-87
2021-10-21 15:46:01.352841,-90
2021-10-21 15:46:01.352850,-102
2021-10-21 15:46:01.352859,-124
2021-10-21 15:46:01.352867,-128
2021-10-21 15:46:01.352876,-114
2021-10-21 15:46:01.352884,-102
2021-10-21 15:46:01.352893,-94
2021-10-21 15:46:01.352901,-94
2021-10-21 15:46:01.352910,-102
2021-10-21 15:46:01.352918,-97
2021-10-21 15:46:01.352926,-77
2021-10-21 15:46:01.352935,-70
2021-10-21 15:46:01.352943,-63
2021-10-21 15:46:01.352952,-60
2021-10-21 15:46:01.352960,-63
2021-10-21 15:46:01.352969,-53
2021-10-21 15:46:01.352977,-38
2021-10-21 15:46:01.352985,-36
2021-10-21 15:46:01.352994,-34
2021-10-21 15:46:01.353002,-34
2021-10-21 15:46:01.353011,-38
2021-10-21 15:46:01.353019,-34
2021-10-21 15:46:01.353027,-26
2021-10-21 15:46:01.353036,-26
2021-10-21 15:46:01.353044,-24
2021-10-21 15:46:01.353052,-26
2021-10-21 15:46:01.353060,-38
2021-10-21 15:46:01.353069,-46
2021-10-21 15:46:01.353077,-41
2021-10-21 15:46:01.577724,-24
2021-10-21 15:46:01.577744,-4
2021-10-21 15:46:01.577754,-2
2021-10-21 15:46:01.577763,-24
2021-10-21 15:46:01.577771,-46
2021-10-21 15:46:01.577780,-43
2021-10-21 15:46:01.577788,-38
2021-10-21 15:46:01.577797,-48
2021-10-21 15:46:01.577805,-63
2021-10-21 15:46:01.577814,-60
2021-10-21 15:46:01.577822,-48
2021-10-21 15:46:01.577831,-41
2021-10-21 15:46:01.577839,-36
2021-10-21 15:46:01.577847,-38
2021-10-21 15:46:01.577855,-55
2021-10-21 15:46:01.577864,-104
2021-10-21 15:46:01.577872,-167
2021-10-21 15:46:01.577880,-116
2021-10-21 15:46:01.577889,282
2021-10-21 15:46:01.577897,1051
2021-10-21 15:46:01.577905,1559
2021-10-21 15:46:01.577914,1000
2021-10-21 15:46:01.577922,-9
2021-10-21 15:46:01.577930,-187
2021-10-21 15:46:01.577938,58
2021-10-21 15:46:01.577946,-65
2021-10-21 15:46:01.577955,-184
2021-10-21 15:46:01.577963,-97
2021-10-21 15:46:01.577971,-85
2021-10-21 15:46:01.577979,-119
2021-10-21 15:46:01.892304,-92
2021-10-21 15:46:01.892327,-85
2021-10-21 15:46:01.892336,-102
2021-10-21 15:46:01.892345,-90
2021-10-21 15:46:01.892354,-65
2021-10-21 15:46:01.892362,-58
2021-10-21 15:46:01.892371,-51
2021-10-21 15:46:01.892379,-46
2021-10-21 15:46:01.892388,-53
2021-10-21 15:46:01.892396,-46
2021-10-21 15:46:01.892404,-29
2021-10-21 15:46:01.892413,-17
2021-10-21 15:46:01.892421,-19
2021-10-21 15:46:01.892429,-36
2021-10-21 15:46:01.892438,-46
2021-10-21 15:46:01.892446,-51
2021-10-21 15:46:01.892455,-60
2021-10-21 15:46:01.892463,-65
2021-10-21 15:46:01.892471,-65
2021-10-21 15:46:01.892480,-70
2021-10-21 15:46:01.892500,-80
2021-10-21 15:46:01.892509,-85
2021-10-21 15:46:01.892517,-87
2021-10-21 15:46:01.892525,-90
2021-10-21 15:46:01.892534,-90
2021-10-21 15:46:01.892542,-97
2021-10-21 15:46:01.892550,-102
2021-10-21 15:46:01.892559,-102
2021-10-21 15:46:01.892567,-97
2021-10-21 15:46:01.892575,-90
2021-10-21 15:46:02.027769,-85
2021-10-21 15:46:02.027790,-82
2021-10-21 15:46:02.027800,-87
2021-10-21 15:46:02.027809,-92
2021-10-21 15:46:02.027817,-82
2021-10-21 15:46:02.027826,-70
2021-10-21 15:46:02.027834,-75
2021-10-21 15:46:02.027843,-80
2021-10-21 15:46:02.027851,-77
2021-10-21 15:46:02.027859,-87
2021-10-21 15:46:02.027868,-94
2021-10-21 15:46:02.027876,-82
2021-10-21 15:46:02.027884,-80
2021-10-21 15:46:02.027893,-85
2021-10-21 15:46:02.027901,-77
2021-10-21 15:46:02.027910,-70
2021-10-21 15:46:02.027918,-70
2021-10-21 15:46:02.027926,-65
2021-10-21 15:46:02.027935,-65
2021-10-21 15:46:02.027943,-70
2021-10-21 15:46:02.027951,-65
2021-10-21 15:46:02.027960,-65
2021-10-21 15:46:02.027969,-65
2021-10-21 15:46:02.027977,-58
2021-10-21 15:46:02.027985,-48
2021-10-21 15:46:02.027994,-31
2021-10-21 15:46:02.028002,-14
2021-10-21 15:46:02.028010,-14
2021-10-21 15:46:02.028019,-17
2021-10-21 15:46:02.028027,-19
2021-10-21 15:46:02.297206,-31
2021-10-21 15:46:02.297228,-38
2021-10-21 15:46:02.297238,-34
2021-10-21 15:46:02.297247,-31
2021-10-21 15:46:02.297256,-36
2021-10-21 15:46:02.297264,-46
2021-10-21 15:46:02.297273,-53
2021-10-21 15:46:02.297281,-51
2021-10-21 15:46:02.297298,-48
2021-10-21 15:46:02.297306,-90
2021-10-21 15:46:02.297315,-158
2021-10-21 15:46:02.297323,-114
2021-10-21 15:46:02.297331,260
2021-10-21 15:46:02.297340,1017
2021-10-21 15:46:02.297348,1559
2021-10-21 15:46:02.297356,1048
2021-10-21 15:46:02.297365,38
2021-10-21 15:46:02.297373,-187
2021-10-21 15:46:02.297381,31
2021-10-21 15:46:02.297390,-77
2021-10-21 15:46:02.297398,-194
2021-10-21 15:46:02.297406,-114
2021-10-21 15:46:02.297415,-99
2021-10-21 15:46:02.297423,-131
2021-10-21 15:46:02.297432,-97
2021-10-21 15:46:02.297440,-70
2021-10-21 15:46:02.297448,-75
2021-10-21 15:46:02.297457,-72
2021-10-21 15:46:02.297465,-60
2021-10-21 15:46:02.297473,-53
2021-10-21 15:46:02.477883,-46
2021-10-21 15:46:02.477905,-29
2021-10-21 15:46:02.477915,-19
2021-10-21 15:46:02.477924,-17
2021-10-21 15:46:02.477932,-12
2021-10-21 15:46:02.477941,-12
2021-10-21 15:46:02.477949,-21
2021-10-21 15:46:02.477958,-26
2021-10-21 15:46:02.477966,-29
2021-10-21 15:46:02.477974,-41
2021-10-21 15:46:02.477983,-51
2021-10-21 15:46:02.477991,-70
2021-10-21 15:46:02.477999,-80
2021-10-21 15:46:02.478008,-80
2021-10-21 15:46:02.478016,-94
2021-10-21 15:46:02.478024,-126
2021-10-21 15:46:02.478033,-138
2021-10-21 15:46:02.478041,-138
2021-10-21 15:46:02.478049,-143
2021-10-21 15:46:02.478058,-141
2021-10-21 15:46:02.478066,-138
2021-10-21 15:46:02.478074,-143
2021-10-21 15:46:02.478082,-143
2021-10-21 15:46:02.478090,-133
2021-10-21 15:46:02.478098,-124
2021-10-21 15:46:02.478107,-109
2021-10-21 15:46:02.478115,-102
2021-10-21 15:46:02.478123,-99
2021-10-21 15:46:02.478132,-92
2021-10-21 15:46:02.478140,-87
2021-10-21 15:46:02.747831,-80
2021-10-21 15:46:02.747853,-70
2021-10-21 15:46:02.747862,-65
2021-10-21 15:46:02.747871,-68
2021-10-21 15:46:02.747880,-75
2021-10-21 15:46:02.747888,-77
2021-10-21 15:46:02.747897,-70
2021-10-21 15:46:02.747905,-63
2021-10-21 15:46:02.747913,-70
2021-10-21 15:46:02.747922,-82
2021-10-21 15:46:02.747930,-87
2021-10-21 15:46:02.747938,-85
2021-10-21 15:46:02.747947,-77
2021-10-21 15:46:02.747955,-70
2021-10-21 15:46:02.747964,-70
2021-10-21 15:46:02.747972,-72
2021-10-21 15:46:02.747980,-70
2021-10-21 15:46:02.747989,-68
2021-10-21 15:46:02.747997,-63
2021-10-21 15:46:02.748006,-51
2021-10-21 15:46:02.748014,-31
2021-10-21 15:46:02.748022,-14
2021-10-21 15:46:02.748030,-14
2021-10-21 15:46:02.748038,-19
2021-10-21 15:46:02.748047,-14
2021-10-21 15:46:02.748055,-19
2021-10-21 15:46:02.748063,-31
2021-10-21 15:46:02.748072,-36
2021-10-21 15:46:02.748080,-34
2021-10-21 15:46:02.748088,-24
2021-10-21 15:46:02.972118,-19
2021-10-21 15:46:02.972141,-17
2021-10-21 15:46:02.972150,-17
2021-10-21 15:46:02.972159,-26
2021-10-21 15:46:02.972168,-53
2021-10-21 15:46:02.972176,-104
2021-10-21 15:46:02.972185,-145
2021-10-21 15:46:02.972193,-9
2021-10-21 15:46:02.972201,501
2021-10-21 15:46:02.972210,1238
2021-10-21 15:46:02.972218,1418
2021-10-21 15:46:02.972226,598
2021-10-21 15:46:02.972234,-160
2021-10-21 15:46:02.972243,-87
2021-10-21 15:46:02.972251,21
2021-10-21 15:46:02.972260,-177
2021-10-21 15:46:02.972268,-209
2021-10-21 15:46:02.972276,-119
2021-10-21 15:46:02.972285,-136
2021-10-21 15:46:02.972293,-145
2021-10-21 15:46:02.972302,-111
2021-10-21 15:46:02.972310,-119
2021-10-21 15:46:02.972318,-131
2021-10-21 15:46:02.972327,-109
2021-10-21 15:46:02.972335,-90
2021-10-21 15:46:02.972348,-82
2021-10-21 15:46:02.972356,-70
2021-10-21 15:46:02.972364,-70
2021-10-21 15:46:02.972373,-63
2021-10-21 15:46:02.972381,-43
2021-10-21 15:46:03.242956,-34
2021-10-21 15:46:03.242977,-29
2021-10-21 15:46:03.242986,-31
2021-10-21 15:46:03.242995,-43
2021-10-21 15:46:03.243003,-55
2021-10-21 15:46:03.243011,-53
2021-10-21 15:46:03.243020,-55
2021-10-21 15:46:03.243028,-70
2021-10-21 15:46:03.243036,-82
2021-10-21 15:46:03.243045,-99
2021-10-21 15:46:03.243053,-102
2021-10-21 15:46:03.243061,-99
2021-10-21 15:46:03.243069,-116
2021-10-21 15:46:03.243078,-131
2021-10-21 15:46:03.243086,-138
2021-10-21 15:46:03.243094,-153
2021-10-21 15:46:03.243103,-155
2021-10-21 15:46:03.243111,-141
2021-10-21 15:46:03.243119,-133
2021-10-21 15:46:03.243128,-124
2021-10-21 15:46:03.243136,-119
2021-10-21 15:46:03.243144,-116
2021-10-21 15:46:03.243152,-107
2021-10-21 15:46:03.243161,-94
2021-10-21 15:46:03.243169,-85
2021-10-21 15:46:03.243177,-77
2021-10-21 15:46:03.243185,-75
2021-10-21 15:46:03.243194,-80
2021-10-21 15:46:03.243202,-72
2021-10-21 15:46:03.243210,-60
2021-10-21 15:46:03.467835,-55
2021-10-21 15:46:03.467858,-53
2021-10-21 15:46:03.467868,-48
2021-10-21 15:46:03.467876,-51
2021-10-21 15:46:03.467885,-51
2021-10-21 15:46:03.467893,-41
2021-10-21 15:46:03.467901,-34
2021-10-21 15:46:03.467909,-36
2021-10-21 15:46:03.467918,-53
2021-10-21 15:46:03.467926,-58
2021-10-21 15:46:03.467934,-46
2021-10-21 15:46:03.467943,-38
2021-10-21 15:46:03.467951,-38
2021-10-21 15:46:03.467959,-36
2021-10-21 15:46:03.467967,-38
2021-10-21 15:46:03.467976,-46
2021-10-21 15:46:03.467984,-41
2021-10-21 15:46:03.467992,-29
2021-10-21 15:46:03.468000,-26
2021-10-21 15:46:03.468009,-29
2021-10-21 15:46:03.468017,-38
2021-10-21 15:46:03.468025,-41
2021-10-21 15:46:03.468033,-26
2021-10-21 15:46:03.468048,-4
2021-10-21 15:46:03.468056,17
2021-10-21 15:46:03.468065,17
2021-10-21 15:46:03.468073,-4
2021-10-21 15:46:03.468081,-24
2021-10-21 15:46:03.468090,-36
2021-10-21 15:46:03.468098,-38
2021-10-21 15:46:03.737270,-29
2021-10-21 15:46:03.737291,-29
2021-10-21 15:46:03.737301,-34
2021-10-21 15:46:03.737310,-31
2021-10-21 15:46:03.737318,-26
2021-10-21 15:46:03.737327,-17
2021-10-21 15:46:03.737335,-14
2021-10-21 15:46:03.737343,-36
2021-10-21 15:46:03.737351,-90
2021-10-21 15:46:03.737360,-143
2021-10-21 15:46:03.737368,-55
2021-10-21 15:46:03.737377,360
2021-10-21 15:46:03.737385,1058
2021-10-21 15:46:03.737394,1386
2021-10-21 15:46:03.737402,727
2021-10-21 15:46:03.737410,-119
2021-10-21 15:46:03.737419,-150
2021-10-21 15:46:03.737427,31
2021-10-21 15:46:03.737436,-111
2021-10-21 15:46:03.737444,-182
2021-10-21 15:46:03.737452,-111
2021-10-21 15:46:03.737461,-114
2021-10-21 15:46:03.737469,-131
2021-10-21 15:46:03.737477,-94
2021-10-21 15:46:03.737486,-75
2021-10-21 15:46:03.737494,-82
2021-10-21 15:46:03.737502,-72
2021-10-21 15:46:03.737511,-60
2021-10-21 15:46:03.737519,-53
2021-10-21 15:46:03.737527,-46
2021-10-21 15:46:03.872952,-43
2021-10-21 15:46:03.872973,-38
2021-10-21 15:46:03.872983,-29
2021-10-21 15:46:03.872992,-24
2021-10-21 15:46:03.873000,-17
2021-10-21 15:46:03.873009,-9
2021-10-21 15:46:03.873017,-17
2021-10-21 15:46:03.873025,-31
2021-10-21 15:46:03.873034,-34
2021-10-21 15:46:03.873042,-34
2021-10-21 15:46:03.873050,-38
2021-10-21 15:46:03.873059,-36
2021-10-21 15:46:03.873067,-36
2021-10-21 15:46:03.873075,-46
2021-10-21 15:46:03.873083,-46
2021-10-21 15:46:03.873092,-46
2021-10-21 15:46:03.873100,-51
2021-10-21 15:46:03.873108,-53
2021-10-21 15:46:03.873116,-60
2021-10-21 15:46:03.873125,-75
2021-10-21 15:46:03.873133,-82
2021-10-21 15:46:03.873141,-77
2021-10-21 15:46:03.873150,-72
2021-10-21 15:46:03.873158,-65
2021-10-21 15:46:03.873167,-60
2021-10-21 15:46:03.873175,-58
2021-10-21 15:46:03.873183,-51
2021-10-21 15:46:03.873192,-46
2021-10-21 15:46:03.873200,-41
2021-10-21 15:46:03.873208,-31
2021-10-21 15:46:04.097866,-31
2021-10-21 15:46:04.097888,-34
2021-10-21 15:46:04.097898,-41
2021-10-21 15:46:04.097906,-53
2021-10-21 15:46:04.097915,-48
2021-10-21 15:46:04.097923,-41
2021-10-21 15:46:04.097932,-51
2021-10-21 15:46:04.097940,-55
2021-10-21 15:46:04.097948,-46
2021-10-21 15:46:04.097957,-46
2021-10-21 15:46:04.097965,-46
2021-10-21 15:46:04.097973,-48
2021-10-21 15:46:04.097981,-55
2021-10-21 15:46:04.097990,-51
2021-10-21 15:46:04.097998,-43
2021-10-21 15:46:04.098006,-43
2021-10-21 15:46:04.098015,-38
2021-10-21 15:46:04.098023,-34
2021-10-21 15:46:04.098031,-36
2021-10-21 15:46:04.098039,-34
2021-10-21 15:46:04.098048,-34
2021-10-21 15:46:04.098056,-41
2021-10-21 15:46:04.098064,-41
2021-10-21 15:46:04.098072,-31
2021-10-21 15:46:04.098080,-34
2021-10-21 15:46:04.098089,-31
2021-10-21 15:46:04.098097,-19
2021-10-21 15:46:04.098105,-12
2021-10-21 15:46:04.098114,4
2021-10-21 15:46:04.098122,24
2021-10-21 15:46:04.322848,12
2021-10-21 15:46:04.322870,4
2021-10-21 15:46:04.322879,26
2021-10-21 15:46:04.322888,21
2021-10-21 15:46:04.322897,-14
2021-10-21 15:46:04.322906,-24
2021-10-21 15:46:04.322914,-9
2021-10-21 15:46:04.322923,-9
2021-10-21 15:46:04.322931,-26
2021-10-21 15:46:04.322939,-34
2021-10-21 15:46:04.322948,-29
2021-10-21 15:46:04.322956,-38
2021-10-21 15:46:04.322964,-60
2021-10-21 15:46:04.322971,-97
2021-10-21 15:46:04.322978,-128
2021-10-21 15:46:04.322985,14
2021-10-21 15:46:04.322992,547
2021-10-21 15:46:04.322999,1294
2021-10-21 15:46:04.323006,1435
2021-10-21 15:46:04.323013,591
2021-10-21 15:46:04.323020,-158
2021-10-21 15:46:04.323027,-97
2021-10-21 15:46:04.323034,4
2021-10-21 15:46:04.323041,-182
2021-10-21 15:46:04.323048,-206
2021-10-21 15:46:04.323056,-121
2021-10-21 15:46:04.323063,-143
2021-10-21 15:46:04.323071,-170
2021-10-21 15:46:04.323079,-136
2021-10-21 15:46:04.323087,-124
2021-10-21 15:46:04.592235,-124
2021-10-21 15:46:04.592258,-92
2021-10-21 15:46:04.592268,-75
2021-10-21 15:46:04.592276,-87
2021-10-21 15:46:04.592285,-77
2021-10-21 15:46:04.592293,-48
2021-10-21 15:46:04.592302,-41
2021-10-21 15:46:04.592310,-60
2021-10-21 15:46:04.592318,-82
2021-10-21 15:46:04.592326,-77
2021-10-21 15:46:04.592334,-58
2021-10-21 15:46:04.592343,-41
2021-10-21 15:46:04.592351,-43
2021-10-21 15:46:04.592359,-72
2021-10-21 15:46:04.592367,-94
2021-10-21 15:46:04.592375,-70
2021-10-21 15:46:04.592383,-34
2021-10-21 15:46:04.592392,-21
2021-10-21 15:46:04.592400,-38
2021-10-21 15:46:04.592408,-60
2021-10-21 15:46:04.592416,-68
2021-10-21 15:46:04.592425,-82
2021-10-21 15:46:04.592433,-87
2021-10-21 15:46:04.592441,-48
2021-10-21 15:46:04.592449,-34
2021-10-21 15:46:04.592457,-75
2021-10-21 15:46:04.592466,-87
2021-10-21 15:46:04.592474,-65
2021-10-21 15:46:04.592482,-70
2021-10-21 15:46:04.592491,-75
2021-10-21 15:46:04.772823,-51
2021-10-21 15:46:04.772845,-31
2021-10-21 15:46:04.772854,-29
2021-10-21 15:46:04.772863,-24
2021-10-21 15:46:04.772872,-17
2021-10-21 15:46:04.772880,-19
2021-10-21 15:46:04.772889,-17
2021-10-21 15:46:04.772897,-14
2021-10-21 15:46:04.772905,-17
2021-10-21 15:46:04.772913,-21
2021-10-21 15:46:04.772922,-12
2021-10-21 15:46:04.772930,4
2021-10-21 15:46:04.772938,-2
2021-10-21 15:46:04.772947,-12
2021-10-21 15:46:04.772955,9
2021-10-21 15:46:04.772963,14
2021-10-21 15:46:04.772972,-14
2021-10-21 15:46:04.772980,-9
2021-10-21 15:46:04.772988,24
2021-10-21 15:46:04.772996,26
2021-10-21 15:46:04.773005,0
2021-10-21 15:46:04.773013,-7
2021-10-21 15:46:04.773021,4
2021-10-21 15:46:04.773029,9
2021-10-21 15:46:04.773038,14
2021-10-21 15:46:04.773046,24
2021-10-21 15:46:04.773054,21
2021-10-21 15:46:04.773063,19
2021-10-21 15:46:04.773071,41
2021-10-21 15:46:04.773082,58
2021-10-21 15:46:05.131492,46
2021-10-21 15:46:05.131514,34
2021-10-21 15:46:05.131523,26
2021-10-21 15:46:05.131532,0
2021-10-21 15:46:05.131541,-14
2021-10-21 15:46:05.131549,0
2021-10-21 15:46:05.131558,14
2021-10-21 15:46:05.131566,12
2021-10-21 15:46:05.131575,2
2021-10-21 15:46:05.131583,-7
2021-10-21 15:46:05.131591,-9
2021-10-21 15:46:05.131599,-17
2021-10-21 15:46:05.131608,-55
2021-10-21 15:46:05.131616,-136
2021-10-21 15:46:05.131625,-102
2021-10-21 15:46:05.131633,245
2021-10-21 15:46:05.131641,917
2021-10-21 15:46:05.131650,1382
2021-10-21 15:46:05.131658,893
2021-10-21 15:46:05.131666,-19
2021-10-21 15:46:05.131675,-187
2021-10-21 15:46:05.131683,36
2021-10-21 15:46:05.131692,-65
2021-10-21 15:46:05.131700,-172
2021-10-21 15:46:05.131708,-102
2021-10-21 15:46:05.131716,-80
2021-10-21 15:46:05.131725,-99
2021-10-21 15:46:05.131733,-82
2021-10-21 15:46:05.131741,-70
2021-10-21 15:46:05.131750,-72
2021-10-21 15:46:05.267859,-55
2021-10-21 15:46:05.267881,-34
2021-10-21 15:46:05.267891,-29
2021-10-21 15:46:05.267900,-26
2021-10-21 15:46:05.267908,-12
2021-10-21 15:46:05.267916,7
2021-10-21 15:46:05.267925,24
2021-10-21 15:46:05.267933,29
2021-10-21 15:46:05.267941,19
2021-10-21 15:46:05.267950,14
2021-10-21 15:46:05.267958,21
2021-10-21 15:46:05.267967,19
2021-10-21 15:46:05.267975,19
2021-10-21 15:46:05.267983,29
2021-10-21 15:46:05.267992,19
2021-10-21 15:46:05.268000,4
2021-10-21 15:46:05.268008,2
2021-10-21 15:46:05.268017,0
2021-10-21 15:46:05.268025,-9
2021-10-21 15:46:05.268033,-21
2021-10-21 15:46:05.268042,-51
2021-10-21 15:46:05.268050,-65
2021-10-21 15:46:05.268058,-55
2021-10-21 15:46:05.268066,-55
2021-10-21 15:46:05.268074,-70
2021-10-21 15:46:05.268083,-75
2021-10-21 15:46:05.268091,-68
2021-10-21 15:46:05.268099,-63
2021-10-21 15:46:05.268107,-63
2021-10-21 15:46:05.268116,-48
2021-10-21 15:46:05.537252,-43
2021-10-21 15:46:05.537274,-63
2021-10-21 15:46:05.537284,-65
2021-10-21 15:46:05.537292,-51
2021-10-21 15:46:05.537301,-38
2021-10-21 15:46:05.537309,-29
2021-10-21 15:46:05.537317,-21
2021-10-21 15:46:05.537326,-34
2021-10-21 15:46:05.537334,-53
2021-10-21 15:46:05.537342,-53
2021-10-21 15:46:05.537350,-31
2021-10-21 15:46:05.537359,-21
2021-10-21 15:46:05.537367,-24
2021-10-21 15:46:05.537375,-38
2021-10-21 15:46:05.537384,-53
2021-10-21 15:46:05.537392,-48
2021-10-21 15:46:05.537400,-46
2021-10-21 15:46:05.537408,-51
2021-10-21 15:46:05.537417,-53
2021-10-21 15:46:05.537425,-60
2021-10-21 15:46:05.537433,-63
2021-10-21 15:46:05.537441,-65
2021-10-21 15:46:05.537450,-60
2021-10-21 15:46:05.537458,-36
2021-10-21 15:46:05.537466,-19
2021-10-21 15:46:05.537474,-38
2021-10-21 15:46:05.537483,-60
2021-10-21 15:46:05.537491,-58
2021-10-21 15:46:05.537499,-46
2021-10-21 15:46:05.537507,-38
2021-10-21 15:46:05.717861,-43
2021-10-21 15:46:05.717883,-46
2021-10-21 15:46:05.717893,-53
2021-10-21 15:46:05.717901,-65
2021-10-21 15:46:05.717910,-65
2021-10-21 15:46:05.717918,-60
2021-10-21 15:46:05.717926,-72
2021-10-21 15:46:05.717934,-87
2021-10-21 15:46:05.717942,-111
2021-10-21 15:46:05.717951,-182
2021-10-21 15:46:05.717959,-204
2021-10-21 15:46:05.717967,63
2021-10-21 15:46:05.717976,708
2021-10-21 15:46:05.717984,1311
2021-10-21 15:46:05.717992,1041
2021-10-21 15:46:05.718000,63
2021-10-21 15:46:05.718009,-313
2021-10-21 15:46:05.718017,-48
2021-10-21 15:46:05.718025,-70
2021-10-21 15:46:05.718033,-231
2021-10-21 15:46:05.718042,-167
2021-10-21 15:46:05.718050,-124
2021-10-21 15:46:05.718058,-158
2021-10-21 15:46:05.718066,-138
2021-10-21 15:46:05.718074,-109
2021-10-21 15:46:05.718082,-104
2021-10-21 15:46:05.718091,-97
2021-10-21 15:46:05.718099,-80
2021-10-21 15:46:05.718107,-65
2021-10-21 15:46:05.718115,-43
2021-10-21 15:46:05.942870,-36
2021-10-21 15:46:05.942892,-31
2021-10-21 15:46:05.942902,-12
2021-10-21 15:46:05.942911,0
2021-10-21 15:46:05.942919,4
2021-10-21 15:46:05.942928,0
2021-10-21 15:46:05.942936,-7
2021-10-21 15:46:05.942945,-12
2021-10-21 15:46:05.942953,-4
2021-10-21 15:46:05.942961,2
2021-10-21 15:46:05.942970,-2
2021-10-21 15:46:05.942978,-21
2021-10-21 15:46:05.942986,-36
2021-10-21 15:46:05.942995,-41
2021-10-21 15:46:05.943003,-51
2021-10-21 15:46:05.943011,-58
2021-10-21 15:46:05.943019,-60
2021-10-21 15:46:05.943028,-63
2021-10-21 15:46:05.943036,-65
2021-10-21 15:46:05.943045,-75
2021-10-21 15:46:05.943053,-80
2021-10-21 15:46:05.943061,-80
2021-10-21 15:46:05.943070,-75
2021-10-21 15:46:05.943078,-70
2021-10-21 15:46:05.943086,-75
2021-10-21 15:46:05.943095,-85
2021-10-21 15:46:05.943103,-77
2021-10-21 15:46:05.943111,-63
2021-10-21 15:46:05.943120,-55
2021-10-21 15:46:05.943128,-53
2021-10-21 15:46:06.167964,-55
2021-10-21 15:46:06.167986,-55
2021-10-21 15:46:06.167996,-43
2021-10-21 15:46:06.168004,-31
2021-10-21 15:46:06.168013,-34
2021-10-21 15:46:06.168021,-36
2021-10-21 15:46:06.168030,-38
2021-10-21 15:46:06.168038,-48
2021-10-21 15:46:06.168046,-58
2021-10-21 15:46:06.168055,-58
2021-10-21 15:46:06.168063,-55
2021-10-21 15:46:06.168072,-65
2021-10-21 15:46:06.168080,-72
2021-10-21 15:46:06.168088,-58
2021-10-21 15:46:06.168097,-48
2021-10-21 15:46:06.168105,-58
2021-10-21 15:46:06.168114,-63
2021-10-21 15:46:06.168122,-48
2021-10-21 15:46:06.168131,-46
2021-10-21 15:46:06.168140,-55
2021-10-21 15:46:06.168148,-58
2021-10-21 15:46:06.168157,-51
2021-10-21 15:46:06.168165,-38
2021-10-21 15:46:06.168173,-26
2021-10-21 15:46:06.168182,-19
2021-10-21 15:46:06.168190,-12
2021-10-21 15:46:06.168198,-14
2021-10-21 15:46:06.168206,-31
2021-10-21 15:46:06.168215,-41
2021-10-21 15:46:06.168223,-34
2021-10-21 15:46:06.437888,-34
2021-10-21 15:46:06.437911,-34
2021-10-21 15:46:06.437921,-36
2021-10-21 15:46:06.437930,-46
2021-10-21 15:46:06.437939,-63
2021-10-21 15:46:06.437947,-80
2021-10-21 15:46:06.437955,-92
2021-10-21 15:46:06.437963,-153
2021-10-21 15:46:06.437972,-214
2021-10-21 15:46:06.437980,-2
2021-10-21 15:46:06.437988,664
2021-10-21 15:46:06.437997,1433
2021-10-21 15:46:06.438005,1386
2021-10-21 15:46:06.438014,369
2021-10-21 15:46:06.438022,-294
2021-10-21 15:46:06.438030,-99
2021-10-21 15:46:06.438038,-29
2021-10-21 15:46:06.438047,-228
2021-10-21 15:46:06.438055,-194
2021-10-21 15:46:06.438063,-109
2021-10-21 15:46:06.438071,-153
2021-10-21 15:46:06.438080,-155
2021-10-21 15:46:06.438088,-107
2021-10-21 15:46:06.438096,-109
2021-10-21 15:46:06.438104,-111
2021-10-21 15:46:06.438113,-82
2021-10-21 15:46:06.438121,-65
2021-10-21 15:46:06.438129,-68
2021-10-21 15:46:06.438144,-60
2021-10-21 15:46:06.438153,-48
2021-10-21 15:46:06.617883,-51
2021-10-21 15:46:06.617905,-53
2021-10-21 15:46:06.617914,-41
2021-10-21 15:46:06.617923,-31
2021-10-21 15:46:06.617932,-34
2021-10-21 15:46:06.617940,-24
2021-10-21 15:46:06.617949,-12
2021-10-21 15:46:06.617957,-14
2021-10-21 15:46:06.617966,-21
2021-10-21 15:46:06.617974,-29
2021-10-21 15:46:06.617982,-46
2021-10-21 15:46:06.617991,-60
2021-10-21 15:46:06.617999,-65
2021-10-21 15:46:06.618008,-70
2021-10-21 15:46:06.618016,-75
2021-10-21 15:46:06.618024,-99
2021-10-21 15:46:06.618033,-116
2021-10-21 15:46:06.618041,-109
2021-10-21 15:46:06.618050,-97
2021-10-21 15:46:06.618058,-102
2021-10-21 15:46:06.618066,-104
2021-10-21 15:46:06.618075,-97
2021-10-21 15:46:06.618083,-87
2021-10-21 15:46:06.618091,-75
2021-10-21 15:46:06.618100,-60
2021-10-21 15:46:06.618108,-55
2021-10-21 15:46:06.618116,-48
2021-10-21 15:46:06.618125,-46
2021-10-21 15:46:06.618133,-51
2021-10-21 15:46:06.618142,-48
2021-10-21 15:46:06.932847,-41
2021-10-21 15:46:06.932868,-29
2021-10-21 15:46:06.932878,-21
2021-10-21 15:46:06.932887,-34
2021-10-21 15:46:06.932896,-41
2021-10-21 15:46:06.932905,-34
2021-10-21 15:46:06.932913,-29
2021-10-21 15:46:06.932921,-24
2021-10-21 15:46:06.932930,-26
2021-10-21 15:46:06.932938,-48
2021-10-21 15:46:06.932947,-53
2021-10-21 15:46:06.932955,-41
2021-10-21 15:46:06.932964,-34
2021-10-21 15:46:06.932973,-36
2021-10-21 15:46:06.932981,-48
2021-10-21 15:46:06.932990,-51
2021-10-21 15:46:06.932998,-38
2021-10-21 15:46:06.933007,-34
2021-10-21 15:46:06.933015,-34
2021-10-21 15:46:06.933024,-36
2021-10-21 15:46:06.933032,-38
2021-10-21 15:46:06.933040,-36
2021-10-21 15:46:06.933049,-19
2021-10-21 15:46:06.933057,14
2021-10-21 15:46:06.933066,19
2021-10-21 15:46:06.933074,-4
2021-10-21 15:46:06.933082,-26
2021-10-21 15:46:06.933091,-38
2021-10-21 15:46:06.933099,-31
2021-10-21 15:46:06.933108,-14
2021-10-21 15:46:07.156516,-12
2021-10-21 15:46:07.156540,-21
2021-10-21 15:46:07.156549,-29
2021-10-21 15:46:07.156558,-29
2021-10-21 15:46:07.156566,-24
2021-10-21 15:46:07.156575,-34
2021-10-21 15:46:07.156583,-77
2021-10-21 15:46:07.156591,-160
2021-10-21 15:46:07.156600,-243
2021-10-21 15:46:07.156608,-143
2021-10-21 15:46:07.156617,360
2021-10-21 15:46:07.156625,1167
2021-10-21 15:46:07.156633,1525
2021-10-21 15:46:07.156642,778
2021-10-21 15:46:07.156650,-165
2021-10-21 15:46:07.156658,-199
2021-10-21 15:46:07.156667,4
2021-10-21 15:46:07.156675,-160
2021-10-21 15:46:07.156683,-233
2021-10-21 15:46:07.156692,-150
2021-10-21 15:46:07.156700,-182
2021-10-21 15:46:07.156708,-206
2021-10-21 15:46:07.156717,-153
2021-10-21 15:46:07.156725,-126
2021-10-21 15:46:07.156733,-121
2021-10-21 15:46:07.156742,-109
2021-10-21 15:46:07.156750,-102
2021-10-21 15:46:07.156758,-92
2021-10-21 15:46:07.156767,-72
2021-10-21 15:46:07.156775,-60
2021-10-21 15:46:07.337877,-53
2021-10-21 15:46:07.337899,-41
2021-10-21 15:46:07.337909,-38
2021-10-21 15:46:07.337918,-46
2021-10-21 15:46:07.337926,-34
2021-10-21 15:46:07.337935,-9
2021-10-21 15:46:07.337943,2
2021-10-21 15:46:07.337951,-7
2021-10-21 15:46:07.337960,-26
2021-10-21 15:46:07.337968,-36
2021-10-21 15:46:07.337976,-31
2021-10-21 15:46:07.337985,-34
2021-10-21 15:46:07.337993,-46
2021-10-21 15:46:07.338002,-63
2021-10-21 15:46:07.338010,-70
2021-10-21 15:46:07.338018,-72
2021-10-21 15:46:07.338027,-75
2021-10-21 15:46:07.338035,-77
2021-10-21 15:46:07.338043,-87
2021-10-21 15:46:07.338052,-94
2021-10-21 15:46:07.338060,-87
2021-10-21 15:46:07.338068,-80
2021-10-21 15:46:07.338077,-72
2021-10-21 15:46:07.338085,-63
2021-10-21 15:46:07.338094,-53
2021-10-21 15:46:07.338102,-48
2021-10-21 15:46:07.338110,-43
2021-10-21 15:46:07.338119,-38
2021-10-21 15:46:07.338127,-29
2021-10-21 15:46:07.338135,-24
2021-10-21 15:46:07.562891,-19
2021-10-21 15:46:07.562912,-14
2021-10-21 15:46:07.562922,-19
2021-10-21 15:46:07.562931,-21
2021-10-21 15:46:07.562939,-12
2021-10-21 15:46:07.562948,-4
2021-10-21 15:46:07.562956,-12
2021-10-21 15:46:07.562964,-24
2021-10-21 15:46:07.562973,-24
2021-10-21 15:46:07.562981,-14
2021-10-21 15:46:07.562990,-14
2021-10-21 15:46:07.562998,-29
2021-10-21 15:46:07.563007,-55
2021-10-21 15:46:07.563015,-65
2021-10-21 15:46:07.563023,-46
2021-10-21 15:46:07.563032,-43
2021-10-21 15:46:07.563040,-53
2021-10-21 15:46:07.563049,-46
2021-10-21 15:46:07.563057,-31
2021-10-21 15:46:07.563065,-34
2021-10-21 15:46:07.563074,-48
2021-10-21 15:46:07.563082,-51
2021-10-21 15:46:07.563091,-46
2021-10-21 15:46:07.563099,-29
2021-10-21 15:46:07.563107,-4
2021-10-21 15:46:07.563116,2
2021-10-21 15:46:07.563124,-4
2021-10-21 15:46:07.563132,-2
2021-10-21 15:46:07.563141,-4
2021-10-21 15:46:07.563149,-24
2021-10-21 15:46:07.787878,-36
2021-10-21 15:46:07.787900,-31
2021-10-21 15:46:07.787910,-31
2021-10-21 15:46:07.787919,-38
2021-10-21 15:46:07.787927,-31
2021-10-21 15:46:07.787935,-31
2021-10-21 15:46:07.787944,-46
2021-10-21 15:46:07.787952,-51
2021-10-21 15:46:07.787961,-72
2021-10-21 15:46:07.787969,-153
2021-10-21 15:46:07.787977,-172
2021-10-21 15:46:07.787986,109
2021-10-21 15:46:07.787994,790
2021-10-21 15:46:07.788002,1430
2021-10-21 15:46:07.788010,1146
2021-10-21 15:46:07.788019,126
2021-10-21 15:46:07.788027,-277
2021-10-21 15:46:07.788035,-29
2021-10-21 15:46:07.788044,-72
2021-10-21 15:46:07.788052,-243
2021-10-21 15:46:07.788060,-172
2021-10-21 15:46:07.788069,-141
2021-10-21 15:46:07.788077,-187
2021-10-21 15:46:07.788085,-155
2021-10-21 15:46:07.788093,-119
2021-10-21 15:46:07.788102,-124
2021-10-21 15:46:07.788110,-111
2021-10-21 15:46:07.788118,-102
2021-10-21 15:46:07.788126,-90
2021-10-21 15:46:07.788135,-70
2021-10-21 15:46:08.012894,-65
2021-10-21 15:46:08.012915,-60
2021-10-21 15:46:08.012925,-43
2021-10-21 15:46:08.012934,-41
2021-10-21 15:46:08.012942,-48
2021-10-21 15:46:08.012951,-46
2021-10-21 15:46:08.012959,-48
2021-10-21 15:46:08.012968,-41
2021-10-21 15:46:08.012976,-26
2021-10-21 15:46:08.012985,-29
2021-10-21 15:46:08.012993,-41
2021-10-21 15:46:08.013001,-51
2021-10-21 15:46:08.013010,-58
2021-10-21 15:46:08.013018,-58
2021-10-21 15:46:08.013026,-60
2021-10-21 15:46:08.013035,-65
2021-10-21 15:46:08.013043,-72
2021-10-21 15:46:08.013052,-94
2021-10-21 15:46:08.013060,-111
2021-10-21 15:46:08.013069,-102
2021-10-21 15:46:08.013077,-94
2021-10-21 15:46:08.013085,-102
2021-10-21 15:46:08.013093,-97
2021-10-21 15:46:08.013102,-87
2021-10-21 15:46:08.013110,-90
2021-10-21 15:46:08.013118,-94
2021-10-21 15:46:08.013127,-90
2021-10-21 15:46:08.013135,-80
2021-10-21 15:46:08.013143,-77
2021-10-21 15:46:08.013152,-72
2021-10-21 15:46:08.237908,-55
2021-10-21 15:46:08.237931,-34
2021-10-21 15:46:08.237941,-41
2021-10-21 15:46:08.237949,-51
2021-10-21 15:46:08.237958,-38
2021-10-21 15:46:08.237966,-43
2021-10-21 15:46:08.237975,-43
2021-10-21 15:46:08.237983,-29
2021-10-21 15:46:08.237991,-29
2021-10-21 15:46:08.237999,-34
2021-10-21 15:46:08.238008,-31
2021-10-21 15:46:08.238016,-34
2021-10-21 15:46:08.238024,-38
2021-10-21 15:46:08.238032,-36
2021-10-21 15:46:08.238041,-21
2021-10-21 15:46:08.238049,-26
2021-10-21 15:46:08.238057,-41
2021-10-21 15:46:08.238065,-36
2021-10-21 15:46:08.238073,-29
2021-10-21 15:46:08.238082,-24
2021-10-21 15:46:08.238090,-14
2021-10-21 15:46:08.238098,-12
2021-10-21 15:46:08.238106,-17
2021-10-21 15:46:08.238118,-19
2021-10-21 15:46:08.238127,-12
2021-10-21 15:46:08.238135,4
2021-10-21 15:46:08.238143,4
2021-10-21 15:46:08.238151,-2
2021-10-21 15:46:08.238159,-9
2021-10-21 15:46:08.238168,-21
2021-10-21 15:46:08.462898,-34
2021-10-21 15:46:08.462920,-24
2021-10-21 15:46:08.462929,-9
2021-10-21 15:46:08.462938,-29
2021-10-21 15:46:08.462947,-55
2021-10-21 15:46:08.462955,-38
2021-10-21 15:46:08.462963,-26
2021-10-21 15:46:08.462972,-36
2021-10-21 15:46:08.462980,-41
2021-10-21 15:46:08.462988,-68
2021-10-21 15:46:08.462997,-141
2021-10-21 15:46:08.463005,-180
2021-10-21 15:46:08.463013,-7
2021-10-21 15:46:08.463022,528
2021-10-21 15:46:08.463030,1226
2021-10-21 15:46:08.463038,1282
2021-10-21 15:46:08.463047,384
2021-10-21 15:46:08.463055,-279
2021-10-21 15:46:08.463063,-87
2021-10-21 15:46:08.463071,26
2021-10-21 15:46:08.463079,-177
2021-10-21 15:46:08.463088,-184
2021-10-21 15:46:08.463096,-111
2021-10-21 15:46:08.463104,-163
2021-10-21 15:46:08.463112,-165
2021-10-21 15:46:08.463120,-111
2021-10-21 15:46:08.463128,-114
2021-10-21 15:46:08.463137,-128
2021-10-21 15:46:08.463145,-109
2021-10-21 15:46:08.463153,-94
2021-10-21 15:46:08.732910,-90
2021-10-21 15:46:08.732931,-70
2021-10-21 15:46:08.732941,-55
2021-10-21 15:46:08.732950,-68
2021-10-21 15:46:08.732958,-70
2021-10-21 15:46:08.732967,-53
2021-10-21 15:46:08.732975,-43
2021-10-21 15:46:08.732983,-46
2021-10-21 15:46:08.732992,-48
2021-10-21 15:46:08.733000,-48
2021-10-21 15:46:08.733008,-46
2021-10-21 15:46:08.733016,-58
2021-10-21 15:46:08.733025,-72
2021-10-21 15:46:08.733033,-65
2021-10-21 15:46:08.733041,-53
2021-10-21 15:46:08.733050,-63
2021-10-21 15:46:08.733058,-70
2021-10-21 15:46:08.733066,-63
2021-10-21 15:46:08.733075,-63
2021-10-21 15:46:08.733083,-65
2021-10-21 15:46:08.733091,-70
2021-10-21 15:46:08.733099,-85
2021-10-21 15:46:08.733107,-92
2021-10-21 15:46:08.733116,-72
2021-10-21 15:46:08.733124,-51
2021-10-21 15:46:08.733132,-51
2021-10-21 15:46:08.733141,-65
2021-10-21 15:46:08.733149,-65
2021-10-21 15:46:08.733157,-48
2021-10-21 15:46:08.733166,-41
2021-10-21 15:46:09.002285,-51
2021-10-21 15:46:09.002307,-41
2021-10-21 15:46:09.002317,-29
2021-10-21 15:46:09.002326,-48
2021-10-21 15:46:09.002334,-48
2021-10-21 15:46:09.002343,-21
2021-10-21 15:46:09.002352,-17
2021-10-21 15:46:09.002360,-26
2021-10-21 15:46:09.002369,-24
2021-10-21 15:46:09.002377,-29
2021-10-21 15:46:09.002386,-31
2021-10-21 15:46:09.002395,-24
2021-10-21 15:46:09.002403,-19
2021-10-21 15:46:09.002411,-24
2021-10-21 15:46:09.002420,-36
2021-10-21 15:46:09.002428,-34
2021-10-21 15:46:09.002437,-24
2021-10-21 15:46:09.002445,-31
2021-10-21 15:46:09.002453,-24
2021-10-21 15:46:09.002462,-9
2021-10-21 15:46:09.002470,-19
2021-10-21 15:46:09.002478,-29
2021-10-21 15:46:09.002487,-12
2021-10-21 15:46:09.002495,-7
2021-10-21 15:46:09.002503,-21
2021-10-21 15:46:09.002512,-21
2021-10-21 15:46:09.002520,-14
2021-10-21 15:46:09.002529,-9
2021-10-21 15:46:09.002537,-9
2021-10-21 15:46:09.002545,-14
2021-10-21 15:46:09.226537,-17
2021-10-21 15:46:09.226559,-19
2021-10-21 15:46:09.226569,-31
2021-10-21 15:46:09.226577,-43
2021-10-21 15:46:09.226586,-51
2021-10-21 15:46:09.226594,-48
2021-10-21 15:46:09.226602,-43
2021-10-21 15:46:09.226610,-48
2021-10-21 15:46:09.226618,-68
2021-10-21 15:46:09.226627,-77
2021-10-21 15:46:09.226635,-68
2021-10-21 15:46:09.226643,-80
2021-10-21 15:46:09.226651,-143
2021-10-21 15:46:09.226660,-163
2021-10-21 15:46:09.226668,90
2021-10-21 15:46:09.226676,710
2021-10-21 15:46:09.226685,1292
2021-10-21 15:46:09.226693,1021
2021-10-21 15:46:09.226701,75
2021-10-21 15:46:09.226709,-274
2021-10-21 15:46:09.226718,-9
2021-10-21 15:46:09.226726,-36
2021-10-21 15:46:09.226735,-201
2021-10-21 15:46:09.226743,-141
2021-10-21 15:46:09.226751,-90
2021-10-21 15:46:09.226759,-133
2021-10-21 15:46:09.226768,-126
2021-10-21 15:46:09.226776,-90
2021-10-21 15:46:09.226784,-85
2021-10-21 15:46:09.226792,-75
2021-10-21 15:46:09.407903,-53
2021-10-21 15:46:09.407926,-46
2021-10-21 15:46:09.407935,-41
2021-10-21 15:46:09.407944,-31
2021-10-21 15:46:09.407953,-36
2021-10-21 15:46:09.407961,-31
2021-10-21 15:46:09.407970,-26
2021-10-21 15:46:09.407978,-43
2021-10-21 15:46:09.407986,-46
2021-10-21 15:46:09.407995,-31
2021-10-21 15:46:09.408003,-34
2021-10-21 15:46:09.408011,-24
2021-10-21 15:46:09.408019,-14
2021-10-21 15:46:09.408028,-46
2021-10-21 15:46:09.408036,-75
2021-10-21 15:46:09.408044,-65
2021-10-21 15:46:09.408052,-38
2021-10-21 15:46:09.408061,-31
2021-10-21 15:46:09.408069,-41
2021-10-21 15:46:09.408078,-46
2021-10-21 15:46:09.408086,-51
2021-10-21 15:46:09.408094,-60
2021-10-21 15:46:09.408102,-58
2021-10-21 15:46:09.408111,-55
2021-10-21 15:46:09.408119,-75
2021-10-21 15:46:09.408127,-68
2021-10-21 15:46:09.408135,-43
2021-10-21 15:46:09.408143,-53
2021-10-21 15:46:09.408152,-51
2021-10-21 15:46:09.408160,-24
2021-10-21 15:46:09.632896,-24
2021-10-21 15:46:09.632919,-36
2021-10-21 15:46:09.632928,-21
2021-10-21 15:46:09.632937,-19
2021-10-21 15:46:09.632945,-41
2021-10-21 15:46:09.632954,-53
2021-10-21 15:46:09.632962,-55
2021-10-21 15:46:09.632970,-58
2021-10-21 15:46:09.632979,-51
2021-10-21 15:46:09.632987,-46
2021-10-21 15:46:09.632996,-46
2021-10-21 15:46:09.633004,-51
2021-10-21 15:46:09.633013,-60
2021-10-21 15:46:09.633021,-46
2021-10-21 15:46:09.633029,-24
2021-10-21 15:46:09.633037,-38
2021-10-21 15:46:09.633046,-48
2021-10-21 15:46:09.633054,-34
2021-10-21 15:46:09.633063,-41
2021-10-21 15:46:09.633071,-41
2021-10-21 15:46:09.633079,-24
2021-10-21 15:46:09.633087,-24
2021-10-21 15:46:09.633096,-24
2021-10-21 15:46:09.633104,-21
2021-10-21 15:46:09.633113,-34
2021-10-21 15:46:09.633121,-34
2021-10-21 15:46:09.633130,-12
2021-10-21 15:46:09.633138,2
2021-10-21 15:46:09.633147,9
2021-10-21 15:46:09.633155,14
2021-10-21 15:46:09.857884,12
2021-10-21 15:46:09.857908,0
2021-10-21 15:46:09.857918,-9
2021-10-21 15:46:09.857926,-14
2021-10-21 15:46:09.857935,-24
2021-10-21 15:46:09.857944,-43
2021-10-21 15:46:09.857952,-53
2021-10-21 15:46:09.857960,-58
2021-10-21 15:46:09.857969,-68
2021-10-21 15:46:09.857977,-65
2021-10-21 15:46:09.857985,-70
2021-10-21 15:46:09.857994,-133
2021-10-21 15:46:09.858002,-177
2021-10-21 15:46:09.858010,-17
2021-10-21 15:46:09.858019,457
2021-10-21 15:46:09.858027,1082
2021-10-21 15:46:09.858035,1206
2021-10-21 15:46:09.858044,452
2021-10-21 15:46:09.858052,-209
2021-10-21 15:46:09.858061,-97
2021-10-21 15:46:09.858069,24
2021-10-21 15:46:09.858077,-150
2021-10-21 15:46:09.858086,-175
2021-10-21 15:46:09.858094,-97
2021-10-21 15:46:09.858102,-111
2021-10-21 15:46:09.858111,-111
2021-10-21 15:46:09.858119,-80
2021-10-21 15:46:09.858127,-82
2021-10-21 15:46:09.858136,-75
2021-10-21 15:46:09.858144,-46
2021-10-21 15:46:10.082915,-34
2021-10-21 15:46:10.082938,-26
2021-10-21 15:46:10.082948,-19
2021-10-21 15:46:10.082957,-12
2021-10-21 15:46:10.082965,-7
2021-10-21 15:46:10.082974,-7
2021-10-21 15:46:10.082982,-7
2021-10-21 15:46:10.082991,-2
2021-10-21 15:46:10.083000,4
2021-10-21 15:46:10.083008,-4
2021-10-21 15:46:10.083016,-34
2021-10-21 15:46:10.083025,-51
2021-10-21 15:46:10.083033,-43
2021-10-21 15:46:10.083041,-38
2021-10-21 15:46:10.083050,-41
2021-10-21 15:46:10.083058,-38
2021-10-21 15:46:10.083066,-34
2021-10-21 15:46:10.083075,-36
2021-10-21 15:46:10.083083,-38
2021-10-21 15:46:10.083091,-36
2021-10-21 15:46:10.083100,-46
2021-10-21 15:46:10.083108,-53
2021-10-21 15:46:10.083117,-58
2021-10-21 15:46:10.083125,-70
2021-10-21 15:46:10.083134,-65
2021-10-21 15:46:10.083142,-41
2021-10-21 15:46:10.083150,-38
2021-10-21 15:46:10.083159,-48
2021-10-21 15:46:10.083167,-48
2021-10-21 15:46:10.083175,-41
2021-10-21 15:46:10.308412,-24
2021-10-21 15:46:10.308434,-12
2021-10-21 15:46:10.308443,-14
2021-10-21 15:46:10.308452,-31
2021-10-21 15:46:10.308460,-38
2021-10-21 15:46:10.308469,-36
2021-10-21 15:46:10.308477,-26
2021-10-21 15:46:10.308485,-14
2021-10-21 15:46:10.308494,-9
2021-10-21 15:46:10.308502,-17
2021-10-21 15:46:10.308510,-31
2021-10-21 15:46:10.308519,-43
2021-10-21 15:46:10.308527,-41
2021-10-21 15:46:10.308535,-29
2021-10-21 15:46:10.308543,-24
2021-10-21 15:46:10.308551,-41
2021-10-21 15:46:10.308560,-51
2021-10-21 15:46:10.308572,-36
2021-10-21 15:46:10.308580,-34
2021-10-21 15:46:10.308589,-38
2021-10-21 15:46:10.308597,-19
2021-10-21 15:46:10.308605,4
2021-10-21 15:46:10.308614,17
2021-10-21 15:46:10.308622,21
2021-10-21 15:46:10.308630,2
2021-10-21 15:46:10.308638,-19
2021-10-21 15:46:10.308647,-21
2021-10-21 15:46:10.308655,-14
2021-10-21 15:46:10.308663,-17
2021-10-21 15:46:10.308671,-19
2021-10-21 15:46:10.577931,-17
2021-10-21 15:46:10.577953,-14
2021-10-21 15:46:10.577962,-14
2021-10-21 15:46:10.577971,-19
2021-10-21 15:46:10.577980,-41
2021-10-21 15:46:10.577989,-72
2021-10-21 15:46:10.577997,-119
2021-10-21 15:46:10.578006,-102
2021-10-21 15:46:10.578014,160
2021-10-21 15:46:10.578022,729
2021-10-21 15:46:10.578031,1209
2021-10-21 15:46:10.578039,907
2021-10-21 15:46:10.578048,87
2021-10-21 15:46:10.578056,-187
2021-10-21 15:46:10.578065,-12
2021-10-21 15:46:10.578073,-80
2021-10-21 15:46:10.578081,-197
2021-10-21 15:46:10.578090,-138
2021-10-21 15:46:10.578098,-119
2021-10-21 15:46:10.578106,-150
2021-10-21 15:46:10.578115,-131
2021-10-21 15:46:10.578123,-104
2021-10-21 15:46:10.578131,-99
2021-10-21 15:46:10.578139,-87
2021-10-21 15:46:10.578148,-68
2021-10-21 15:46:10.578157,-46
2021-10-21 15:46:10.578165,-34
2021-10-21 15:46:10.578173,-36
2021-10-21 15:46:10.578182,-31
2021-10-21 15:46:10.578190,-12
2021-10-21 15:46:10.802905,0
2021-10-21 15:46:10.802927,0
2021-10-21 15:46:10.802936,0
2021-10-21 15:46:10.802945,-2
2021-10-21 15:46:10.802954,-2
2021-10-21 15:46:10.802962,0
2021-10-21 15:46:10.802970,0
2021-10-21 15:46:10.802978,0
2021-10-21 15:46:10.802987,-9
2021-10-21 15:46:10.802995,-24
2021-10-21 15:46:10.803003,-17
2021-10-21 15:46:10.803011,-9
2021-10-21 15:46:10.803019,-19
2021-10-21 15:46:10.803028,-29
2021-10-21 15:46:10.803036,-51
2021-10-21 15:46:10.803044,-80
2021-10-21 15:46:10.803052,-92
2021-10-21 15:46:10.803061,-92
2021-10-21 15:46:10.803069,-87
2021-10-21 15:46:10.803077,-82
2021-10-21 15:46:10.803085,-82
2021-10-21 15:46:10.803094,-82
2021-10-21 15:46:10.803102,-65
2021-10-21 15:46:10.803110,-58
2021-10-21 15:46:10.803118,-58
2021-10-21 15:46:10.803126,-43
2021-10-21 15:46:10.803134,-38
2021-10-21 15:46:10.803143,-46
2021-10-21 15:46:10.803151,-43
2021-10-21 15:46:10.803159,-31
2021-10-21 15:46:11.027945,-26
2021-10-21 15:46:11.027967,-21
2021-10-21 15:46:11.027977,-26
2021-10-21 15:46:11.027986,-34
2021-10-21 15:46:11.027994,-29
2021-10-21 15:46:11.028002,-19
2021-10-21 15:46:11.028011,-12
2021-10-21 15:46:11.028019,-14
2021-10-21 15:46:11.028027,-26
2021-10-21 15:46:11.028036,-36
2021-10-21 15:46:11.028044,-29
2021-10-21 15:46:11.028052,-17
2021-10-21 15:46:11.028061,-12
2021-10-21 15:46:11.028069,-2
2021-10-21 15:46:11.028078,0
2021-10-21 15:46:11.028086,-2
2021-10-21 15:46:11.028094,-4
2021-10-21 15:46:11.028102,-19
2021-10-21 15:46:11.028111,-38
2021-10-21 15:46:11.028119,-48
2021-10-21 15:46:11.028127,-53
2021-10-21 15:46:11.028136,-68
2021-10-21 15:46:11.028144,-75
2021-10-21 15:46:11.028152,-58
2021-10-21 15:46:11.028160,-58
2021-10-21 15:46:11.028169,-75
2021-10-21 15:46:11.028177,-82
2021-10-21 15:46:11.028185,-114
2021-10-21 15:46:11.028193,-165
2021-10-21 15:46:11.028202,-80
2021-10-21 15:46:11.296596,304
2021-10-21 15:46:11.296619,939
2021-10-21 15:46:11.296628,1275
2021-10-21 15:46:11.296637,732
2021-10-21 15:46:11.296646,-46
2021-10-21 15:46:11.296654,-136
2021-10-21 15:46:11.296662,7
2021-10-21 15:46:11.296671,-133
2021-10-21 15:46:11.296679,-216
2021-10-21 15:46:11.296687,-155
2021-10-21 15:46:11.296696,-153
2021-10-21 15:46:11.296704,-170
2021-10-21 15:46:11.296712,-148
2021-10-21 15:46:11.296721,-138
2021-10-21 15:46:11.296729,-138
2021-10-21 15:46:11.296737,-121
2021-10-21 15:46:11.296745,-104
2021-10-21 15:46:11.296754,-90
2021-10-21 15:46:11.296762,-82
2021-10-21 15:46:11.296770,-80
2021-10-21 15:46:11.296778,-80
2021-10-21 15:46:11.296787,-77
2021-10-21 15:46:11.296795,-68
2021-10-21 15:46:11.296803,-55
2021-10-21 15:46:11.296811,-55
2021-10-21 15:46:11.296819,-55
2021-10-21 15:46:11.296827,-53
2021-10-21 15:46:11.296836,-51
2021-10-21 15:46:11.296844,-51
2021-10-21 15:46:11.296852,-51
2021-10-21 15:46:11.477913,-51
2021-10-21 15:46:11.477934,-48
2021-10-21 15:46:11.477944,-46
2021-10-21 15:46:11.477953,-48
2021-10-21 15:46:11.477961,-60
2021-10-21 15:46:11.477970,-72
2021-10-21 15:46:11.477978,-92
2021-10-21 15:46:11.477986,-107
2021-10-21 15:46:11.477995,-104
2021-10-21 15:46:11.478003,-104
2021-10-21 15:46:11.478011,-102
2021-10-21 15:46:11.478020,-97
2021-10-21 15:46:11.478028,-107
2021-10-21 15:46:11.478036,-114
2021-10-21 15:46:11.478045,-87
2021-10-21 15:46:11.478053,-58
2021-10-21 15:46:11.478062,-63
2021-10-21 15:46:11.478070,-68
2021-10-21 15:46:11.478078,-58
2021-10-21 15:46:11.478086,-55
2021-10-21 15:46:11.478095,-53
2021-10-21 15:46:11.478103,-51
2021-10-21 15:46:11.478111,-58
2021-10-21 15:46:11.478120,-60
2021-10-21 15:46:11.478128,-55
2021-10-21 15:46:11.478136,-55
2021-10-21 15:46:11.478144,-65
2021-10-21 15:46:11.478153,-82
2021-10-21 15:46:11.478161,-92
2021-10-21 15:46:11.478169,-80
2021-10-21 15:46:11.747949,-68
2021-10-21 15:46:11.747970,-46
2021-10-21 15:46:11.747980,-21
2021-10-21 15:46:11.747989,-19
2021-10-21 15:46:11.747997,-26
2021-10-21 15:46:11.748006,-38
2021-10-21 15:46:11.748014,-60
2021-10-21 15:46:11.748023,-63
2021-10-21 15:46:11.748031,-58
2021-10-21 15:46:11.748039,-58
2021-10-21 15:46:11.748048,-55
2021-10-21 15:46:11.748056,-58
2021-10-21 15:46:11.748065,-68
2021-10-21 15:46:11.748073,-60
2021-10-21 15:46:11.748082,-48
2021-10-21 15:46:11.748090,-70
2021-10-21 15:46:11.748098,-131
2021-10-21 15:46:11.748106,-165
2021-10-21 15:46:11.748115,4
2021-10-21 15:46:11.748123,520
2021-10-21 15:46:11.748131,1153
2021-10-21 15:46:11.748139,1177
2021-10-21 15:46:11.748148,408
2021-10-21 15:46:11.748156,-141
2021-10-21 15:46:11.748164,-34
2021-10-21 15:46:11.748172,4
2021-10-21 15:46:11.748180,-153
2021-10-21 15:46:11.748189,-150
2021-10-21 15:46:11.748197,-97
2021-10-21 15:46:11.748205,-124
2021-10-21 15:46:11.927895,-116
2021-10-21 15:46:11.927915,-80
2021-10-21 15:46:11.927925,-75
2021-10-21 15:46:11.927934,-75
2021-10-21 15:46:11.927942,-65
2021-10-21 15:46:11.927951,-65
2021-10-21 15:46:11.927959,-63
2021-10-21 15:46:11.927967,-51
2021-10-21 15:46:11.927975,-41
2021-10-21 15:46:11.927983,-43
2021-10-21 15:46:11.927992,-48
2021-10-21 15:46:11.928000,-51
2021-10-21 15:46:11.928008,-48
2021-10-21 15:46:11.928017,-38
2021-10-21 15:46:11.928025,-36
2021-10-21 15:46:11.928033,-46
2021-10-21 15:46:11.928041,-60
2021-10-21 15:46:11.928050,-72
2021-10-21 15:46:11.928058,-68
2021-10-21 15:46:11.928066,-58
2021-10-21 15:46:11.928074,-60
2021-10-21 15:46:11.928083,-70
2021-10-21 15:46:11.928091,-77
2021-10-21 15:46:11.928099,-82
2021-10-21 15:46:11.928107,-85
2021-10-21 15:46:11.928116,-97
2021-10-21 15:46:11.928124,-116
2021-10-21 15:46:11.928132,-131
2021-10-21 15:46:11.928140,-126
2021-10-21 15:46:11.928149,-111
2021-10-21 15:46:12.197963,-107
2021-10-21 15:46:12.197985,-104
2021-10-21 15:46:12.197994,-111
2021-10-21 15:46:12.198003,-126
2021-10-21 15:46:12.198011,-128
2021-10-21 15:46:12.198020,-119
2021-10-21 15:46:12.198028,-104
2021-10-21 15:46:12.198036,-97
2021-10-21 15:46:12.198044,-94
2021-10-21 15:46:12.198053,-94
2021-10-21 15:46:12.198061,-99
2021-10-21 15:46:12.198069,-94
2021-10-21 15:46:12.198078,-77
2021-10-21 15:46:12.198086,-75
2021-10-21 15:46:12.198094,-80
2021-10-21 15:46:12.198102,-80
2021-10-21 15:46:12.198111,-77
2021-10-21 15:46:12.198119,-63
2021-10-21 15:46:12.198127,-34
2021-10-21 15:46:12.198135,-19
2021-10-21 15:46:12.198143,-26
2021-10-21 15:46:12.198152,-38
2021-10-21 15:46:12.198160,-48
2021-10-21 15:46:12.198168,-46
2021-10-21 15:46:12.198176,-38
2021-10-21 15:46:12.198184,-36
2021-10-21 15:46:12.198192,-36
2021-10-21 15:46:12.198201,-41
2021-10-21 15:46:12.198209,-46
2021-10-21 15:46:12.198217,-46
2021-10-21 15:46:12.422987,-34
2021-10-21 15:46:12.423006,-36
2021-10-21 15:46:12.423014,-87
2021-10-21 15:46:12.423020,-165
2021-10-21 15:46:12.423027,-126
2021-10-21 15:46:12.423035,233
2021-10-21 15:46:12.423042,895
2021-10-21 15:46:12.423051,1318
2021-10-21 15:46:12.423059,817
2021-10-21 15:46:12.423067,-55
2021-10-21 15:46:12.423075,-189
2021-10-21 15:46:12.423084,43
2021-10-21 15:46:12.423092,-58
2021-10-21 15:46:12.423100,-153
2021-10-21 15:46:12.423108,-80
2021-10-21 15:46:12.423116,-85
2021-10-21 15:46:12.423125,-119
2021-10-21 15:46:12.423133,-77
2021-10-21 15:46:12.423141,-51
2021-10-21 15:46:12.423149,-55
2021-10-21 15:46:12.423158,-46
2021-10-21 15:46:12.423166,-31
2021-10-21 15:46:12.423174,-21
2021-10-21 15:46:12.423183,-2
2021-10-21 15:46:12.423191,7
2021-10-21 15:46:12.423199,17
2021-10-21 15:46:12.423208,26
2021-10-21 15:46:12.423216,21
2021-10-21 15:46:12.423224,12
2021-10-21 15:46:12.423232,9
2021-10-21 15:46:12.647915,4
2021-10-21 15:46:12.647938,0
2021-10-21 15:46:12.647947,-4
2021-10-21 15:46:12.647956,-14
2021-10-21 15:46:12.647964,-17
2021-10-21 15:46:12.647972,-17
2021-10-21 15:46:12.647981,-17
2021-10-21 15:46:12.647989,-29
2021-10-21 15:46:12.647997,-70
2021-10-21 15:46:12.648006,-109
2021-10-21 15:46:12.648014,-107
2021-10-21 15:46:12.648022,-111
2021-10-21 15:46:12.648030,-136
2021-10-21 15:46:12.648038,-141
2021-10-21 15:46:12.648058,-145
2021-10-21 15:46:12.648067,-155
2021-10-21 15:46:12.648075,-145
2021-10-21 15:46:12.648083,-126
2021-10-21 15:46:12.648092,-121
2021-10-21 15:46:12.648100,-116
2021-10-21 15:46:12.648108,-114
2021-10-21 15:46:12.648116,-114
2021-10-21 15:46:12.648125,-99
2021-10-21 15:46:12.648133,-82
2021-10-21 15:46:12.648141,-77
2021-10-21 15:46:12.648150,-75
2021-10-21 15:46:12.648158,-72
2021-10-21 15:46:12.648166,-68
2021-10-21 15:46:12.648175,-60
2021-10-21 15:46:12.648183,-60
2021-10-21 15:46:12.918083,-58
2021-10-21 15:46:12.918103,-53
2021-10-21 15:46:12.918113,-53
2021-10-21 15:46:12.918121,-46
2021-10-21 15:46:12.918130,-29
2021-10-21 15:46:12.918138,-24
2021-10-21 15:46:12.918146,-31
2021-10-21 15:46:12.918154,-43
2021-10-21 15:46:12.918163,-58
2021-10-21 15:46:12.918171,-65
2021-10-21 15:46:12.918179,-58
2021-10-21 15:46:12.918187,-51
2021-10-21 15:46:12.918196,-46
2021-10-21 15:46:12.918204,-51
2021-10-21 15:46:12.918212,-60
2021-10-21 15:46:12.918221,-60
2021-10-21 15:46:12.918229,-53
2021-10-21 15:46:12.918237,-75
2021-10-21 15:46:12.918246,-141
2021-10-21 15:46:12.918254,-141
2021-10-21 15:46:12.918262,138
2021-10-21 15:46:12.918270,781
2021-10-21 15:46:12.918279,1360
2021-10-21 15:46:12.918287,1058
2021-10-21 15:46:12.918295,99
2021-10-21 15:46:12.918304,-243
2021-10-21 15:46:12.918312,14
2021-10-21 15:46:12.918320,-14
2021-10-21 15:46:12.918329,-155
2021-10-21 15:46:12.918337,-90
2021-10-21 15:46:13.142970,-58
2021-10-21 15:46:13.142992,-97
2021-10-21 15:46:13.143002,-82
2021-10-21 15:46:13.143011,-55
2021-10-21 15:46:13.143019,-63
2021-10-21 15:46:13.143028,-58
2021-10-21 15:46:13.143036,-36
2021-10-21 15:46:13.143044,-34
2021-10-21 15:46:13.143053,-41
2021-10-21 15:46:13.143061,-26
2021-10-21 15:46:13.143069,-7
2021-10-21 15:46:13.143078,2
2021-10-21 15:46:13.143086,12
2021-10-21 15:46:13.143094,9
2021-10-21 15:46:13.143103,-4
2021-10-21 15:46:13.143111,-4
2021-10-21 15:46:13.143119,4
2021-10-21 15:46:13.143127,2
2021-10-21 15:46:13.143136,-14
2021-10-21 15:46:13.143144,-24
2021-10-21 15:46:13.143152,-24
2021-10-21 15:46:13.143160,-29
2021-10-21 15:46:13.143169,-38
2021-10-21 15:46:13.143177,-43
2021-10-21 15:46:13.143185,-51
2021-10-21 15:46:13.143194,-58
2021-10-21 15:46:13.143202,-68
2021-10-21 15:46:13.143210,-85
2021-10-21 15:46:13.143218,-92
2021-10-21 15:46:13.143227,-90
2021-10-21 15:46:13.366630,-92
2021-10-21 15:46:13.366652,-87
2021-10-21 15:46:13.366661,-72
2021-10-21 15:46:13.366670,-70
2021-10-21 15:46:13.366679,-77
2021-10-21 15:46:13.366687,-65
2021-10-21 15:46:13.366695,-60
2021-10-21 15:46:13.366703,-70
2021-10-21 15:46:13.366711,-80
2021-10-21 15:46:13.366720,-72
2021-10-21 15:46:13.366728,-63
2021-10-21 15:46:13.366736,-72
2021-10-21 15:46:13.366744,-92
2021-10-21 15:46:13.366753,-92
2021-10-21 15:46:13.366761,-82
2021-10-21 15:46:13.366769,-87
2021-10-21 15:46:13.366778,-82
2021-10-21 15:46:13.366786,-68
2021-10-21 15:46:13.366794,-65
2021-10-21 15:46:13.366803,-65
2021-10-21 15:46:13.366811,-63
2021-10-21 15:46:13.366819,-68
2021-10-21 15:46:13.366827,-75
2021-10-21 15:46:13.366835,-77
2021-10-21 15:46:13.366844,-80
2021-10-21 15:46:13.366852,-77
2021-10-21 15:46:13.366860,-70
2021-10-21 15:46:13.366868,-70
2021-10-21 15:46:13.366877,-65
2021-10-21 15:46:13.366885,-65
2021-10-21 15:46:13.592959,-72
2021-10-21 15:46:13.592981,-70
2021-10-21 15:46:13.592990,-99
2021-10-21 15:46:13.592999,-165
2021-10-21 15:46:13.593007,-121
2021-10-21 15:46:13.593016,236
2021-10-21 15:46:13.593024,941
2021-10-21 15:46:13.593033,1486
2021-10-21 15:46:13.593041,1004
2021-10-21 15:46:13.593050,-70
2021-10-21 15:46:13.593058,-316
2021-10-21 15:46:13.593067,-4
2021-10-21 15:46:13.593075,-104
2021-10-21 15:46:13.593083,-255
2021-10-21 15:46:13.593092,-148
2021-10-21 15:46:13.593100,-116
2021-10-21 15:46:13.593108,-163
2021-10-21 15:46:13.593116,-128
2021-10-21 15:46:13.593125,-92
2021-10-21 15:46:13.593133,-109
2021-10-21 15:46:13.593141,-116
2021-10-21 15:46:13.593149,-92
2021-10-21 15:46:13.593158,-82
2021-10-21 15:46:13.593166,-82
2021-10-21 15:46:13.593174,-63
2021-10-21 15:46:13.593182,-38
2021-10-21 15:46:13.593190,-31
2021-10-21 15:46:13.593199,-24
2021-10-21 15:46:13.593207,-12
2021-10-21 15:46:13.593215,-9
2021-10-21 15:46:13.772967,-12
2021-10-21 15:46:13.772988,-7
2021-10-21 15:46:13.772998,-4
2021-10-21 15:46:13.773006,-12
2021-10-21 15:46:13.773015,-26
2021-10-21 15:46:13.773023,-41
2021-10-21 15:46:13.773032,-48
2021-10-21 15:46:13.773040,-46
2021-10-21 15:46:13.773048,-58
2021-10-21 15:46:13.773057,-72
2021-10-21 15:46:13.773065,-80
2021-10-21 15:46:13.773074,-87
2021-10-21 15:46:13.773082,-85
2021-10-21 15:46:13.773090,-77
2021-10-21 15:46:13.773098,-80
2021-10-21 15:46:13.773107,-87
2021-10-21 15:46:13.773115,-85
2021-10-21 15:46:13.773123,-82
2021-10-21 15:46:13.773132,-70
2021-10-21 15:46:13.773140,-63
2021-10-21 15:46:13.773148,-58
2021-10-21 15:46:13.773157,-58
2021-10-21 15:46:13.773165,-63
2021-10-21 15:46:13.773173,-63
2021-10-21 15:46:13.773181,-48
2021-10-21 15:46:13.773189,-41
2021-10-21 15:46:13.773198,-41
2021-10-21 15:46:13.773207,-41
2021-10-21 15:46:13.773215,-41
2021-10-21 15:46:13.773223,-41
2021-10-21 15:46:13.997997,-31
2021-10-21 15:46:13.998019,-19
2021-10-21 15:46:13.998028,-17
2021-10-21 15:46:13.998037,-19
2021-10-21 15:46:13.998046,-34
2021-10-21 15:46:13.998054,-53
2021-10-21 15:46:13.998062,-58
2021-10-21 15:46:13.998071,-60
2021-10-21 15:46:13.998079,-68
2021-10-21 15:46:13.998087,-75
2021-10-21 15:46:13.998096,-85
2021-10-21 15:46:13.998104,-85
2021-10-21 15:46:13.998112,-85
2021-10-21 15:46:13.998121,-90
2021-10-21 15:46:13.998129,-87
2021-10-21 15:46:13.998137,-85
2021-10-21 15:46:13.998145,-102
2021-10-21 15:46:13.998153,-153
2021-10-21 15:46:13.998162,-211
2021-10-21 15:46:13.998170,-90
2021-10-21 15:46:13.998178,435
2021-10-21 15:46:13.998186,1250
2021-10-21 15:46:13.998195,1545
2021-10-21 15:46:13.998203,698
2021-10-21 15:46:13.998211,-228
2021-10-21 15:46:13.998219,-182
2021-10-21 15:46:13.998228,7
2021-10-21 15:46:13.998236,-201
2021-10-21 15:46:13.998244,-250
2021-10-21 15:46:13.998253,-136
2021-10-21 15:46:14.267984,-150
2021-10-21 15:46:14.268005,-172
2021-10-21 15:46:14.268014,-128
2021-10-21 15:46:14.268023,-128
2021-10-21 15:46:14.268031,-141
2021-10-21 15:46:14.268040,-111
2021-10-21 15:46:14.268048,-90
2021-10-21 15:46:14.268056,-82
2021-10-21 15:46:14.268065,-70
2021-10-21 15:46:14.268073,-68
2021-10-21 15:46:14.268081,-65
2021-10-21 15:46:14.268089,-46
2021-10-21 15:46:14.268098,-26
2021-10-21 15:46:14.268106,-21
2021-10-21 15:46:14.268114,-24
2021-10-21 15:46:14.268122,-34
2021-10-21 15:46:14.268131,-34
2021-10-21 15:46:14.268139,-21
2021-10-21 15:46:14.268147,-19
2021-10-21 15:46:14.268155,-21
2021-10-21 15:46:14.268163,-29
2021-10-21 15:46:14.268172,-43
2021-10-21 15:46:14.268180,-55
2021-10-21 15:46:14.268188,-63
2021-10-21 15:46:14.268196,-68
2021-10-21 15:46:14.268205,-75
2021-10-21 15:46:14.268213,-82
2021-10-21 15:46:14.268221,-94
2021-10-21 15:46:14.268229,-92
2021-10-21 15:46:14.268237,-80
2021-10-21 15:46:14.492998,-70
2021-10-21 15:46:14.493020,-65
2021-10-21 15:46:14.493030,-63
2021-10-21 15:46:14.493038,-60
2021-10-21 15:46:14.493047,-51
2021-10-21 15:46:14.493055,-36
2021-10-21 15:46:14.493064,-29
2021-10-21 15:46:14.493072,-26
2021-10-21 15:46:14.493080,-29
2021-10-21 15:46:14.493089,-41
2021-10-21 15:46:14.493097,-36
2021-10-21 15:46:14.493105,-24
2021-10-21 15:46:14.493113,-24
2021-10-21 15:46:14.493122,-31
2021-10-21 15:46:14.493130,-46
2021-10-21 15:46:14.493138,-55
2021-10-21 15:46:14.493147,-58
2021-10-21 15:46:14.493155,-60
2021-10-21 15:46:14.493163,-63
2021-10-21 15:46:14.493171,-58
2021-10-21 15:46:14.493180,-55
2021-10-21 15:46:14.493188,-48
2021-10-21 15:46:14.493196,-29
2021-10-21 15:46:14.493204,-21
2021-10-21 15:46:14.493212,-34
2021-10-21 15:46:14.493221,-43
2021-10-21 15:46:14.493229,-55
2021-10-21 15:46:14.493237,-75
2021-10-21 15:46:14.493245,-77
2021-10-21 15:46:14.493254,-65
2021-10-21 15:46:14.718000,-63
2021-10-21 15:46:14.718022,-80
2021-10-21 15:46:14.718031,-97
2021-10-21 15:46:14.718040,-92
2021-10-21 15:46:14.718049,-80
2021-10-21 15:46:14.718057,-92
2021-10-21 15:46:14.718066,-155
2021-10-21 15:46:14.718074,-226
2021-10-21 15:46:14.718082,-107
2021-10-21 15:46:14.718091,459
2021-10-21 15:46:14.718099,1330
2021-10-21 15:46:14.718107,1615
2021-10-21 15:46:14.718116,737
2021-10-21 15:46:14.718124,-201
2021-10-21 15:46:14.718132,-184
2021-10-21 15:46:14.718140,-14
2021-10-21 15:46:14.718149,-197
2021-10-21 15:46:14.718157,-240
2021-10-21 15:46:14.718165,-150
2021-10-21 15:46:14.718174,-182
2021-10-21 15:46:14.718182,-204
2021-10-21 15:46:14.718190,-153
2021-10-21 15:46:14.718198,-136
2021-10-21 15:46:14.718207,-136
2021-10-21 15:46:14.718215,-111
2021-10-21 15:46:14.718223,-97
2021-10-21 15:46:14.718232,-94
2021-10-21 15:46:14.718240,-80
2021-10-21 15:46:14.718248,-63
2021-10-21 15:46:14.718256,-46
2021-10-21 15:46:14.988168,-34
2021-10-21 15:46:14.988189,-21
2021-10-21 15:46:14.988199,-14
2021-10-21 15:46:14.988208,-2
2021-10-21 15:46:14.988216,9
2021-10-21 15:46:14.988225,19
2021-10-21 15:46:14.988233,19
2021-10-21 15:46:14.988241,4
2021-10-21 15:46:14.988249,-7
2021-10-21 15:46:14.988258,-7
2021-10-21 15:46:14.988266,-17
2021-10-21 15:46:14.988274,-31
2021-10-21 15:46:14.988283,-53
2021-10-21 15:46:14.988291,-77
2021-10-21 15:46:14.988299,-97
2021-10-21 15:46:14.988307,-102
2021-10-21 15:46:14.988316,-102
2021-10-21 15:46:14.988324,-97
2021-10-21 15:46:14.988332,-92
2021-10-21 15:46:14.988340,-94
2021-10-21 15:46:14.988349,-97
2021-10-21 15:46:14.988357,-97
2021-10-21 15:46:14.988365,-87
2021-10-21 15:46:14.988373,-72
2021-10-21 15:46:14.988381,-68
2021-10-21 15:46:14.988390,-65
2021-10-21 15:46:14.988398,-58
2021-10-21 15:46:14.988406,-51
2021-10-21 15:46:14.988414,-46
2021-10-21 15:46:14.988422,-41
2021-10-21 15:46:15.168031,-41
2021-10-21 15:46:15.168053,-46
2021-10-21 15:46:15.168062,-48
2021-10-21 15:46:15.168071,-53
2021-10-21 15:46:15.168079,-46
2021-10-21 15:46:15.168088,-38
2021-10-21 15:46:15.168096,-43
2021-10-21 15:46:15.168104,-58
2021-10-21 15:46:15.168112,-63
2021-10-21 15:46:15.168121,-55
2021-10-21 15:46:15.168129,-51
2021-10-21 15:46:15.168137,-53
2021-10-21 15:46:15.168146,-65
2021-10-21 15:46:15.168154,-82
2021-10-21 15:46:15.168162,-80
2021-10-21 15:46:15.168170,-77
2021-10-21 15:46:15.168178,-87
2021-10-21 15:46:15.168187,-87
2021-10-21 15:46:15.168195,-90
2021-10-21 15:46:15.168218,-94
2021-10-21 15:46:15.168227,-85
2021-10-21 15:46:15.168235,-80
2021-10-21 15:46:15.168244,-85
2021-10-21 15:46:15.168252,-94
2021-10-21 15:46:15.168260,-97
2021-10-21 15:46:15.168268,-85
2021-10-21 15:46:15.168276,-68
2021-10-21 15:46:15.168285,-48
2021-10-21 15:46:15.168293,-34
2021-10-21 15:46:15.168301,-38
2021-10-21 15:46:15.436619,-43
2021-10-21 15:46:15.436641,-41
2021-10-21 15:46:15.436651,-46
2021-10-21 15:46:15.436659,-55
2021-10-21 15:46:15.436668,-51
2021-10-21 15:46:15.436676,-51
2021-10-21 15:46:15.436685,-63
2021-10-21 15:46:15.436693,-58
2021-10-21 15:46:15.436701,-46
2021-10-21 15:46:15.436710,-46
2021-10-21 15:46:15.436718,-46
2021-10-21 15:46:15.436727,-63
2021-10-21 15:46:15.436735,-131
2021-10-21 15:46:15.436743,-197
2021-10-21 15:46:15.436751,-97
2021-10-21 15:46:15.436760,399
2021-10-21 15:46:15.436768,1255
2021-10-21 15:46:15.436776,1669
2021-10-21 15:46:15.436784,914
2021-10-21 15:46:15.436793,-75
2021-10-21 15:46:15.436801,-160
2021-10-21 15:46:15.436809,34
2021-10-21 15:46:15.436817,-124
2021-10-21 15:46:15.436826,-204
2021-10-21 15:46:15.436834,-121
2021-10-21 15:46:15.436842,-133
2021-10-21 15:46:15.436850,-158
2021-10-21 15:46:15.436858,-119
2021-10-21 15:46:15.436867,-99
2021-10-21 15:46:15.436875,-104
2021-10-21 15:46:15.617971,-87
2021-10-21 15:46:15.617993,-68
2021-10-21 15:46:15.618002,-60
2021-10-21 15:46:15.618011,-53
2021-10-21 15:46:15.618019,-41
2021-10-21 15:46:15.618028,-41
2021-10-21 15:46:15.618036,-34
2021-10-21 15:46:15.618044,-14
2021-10-21 15:46:15.618052,-2
2021-10-21 15:46:15.618061,0
2021-10-21 15:46:15.618069,2
2021-10-21 15:46:15.618077,0
2021-10-21 15:46:15.618086,-7
2021-10-21 15:46:15.618094,-14
2021-10-21 15:46:15.618102,-24
2021-10-21 15:46:15.618110,-21
2021-10-21 15:46:15.618118,-24
2021-10-21 15:46:15.618127,-38
2021-10-21 15:46:15.618135,-53
2021-10-21 15:46:15.618143,-70
2021-10-21 15:46:15.618151,-85
2021-10-21 15:46:15.618159,-94
2021-10-21 15:46:15.618167,-104
2021-10-21 15:46:15.618176,-109
2021-10-21 15:46:15.618184,-104
2021-10-21 15:46:15.618192,-97
2021-10-21 15:46:15.618200,-99
2021-10-21 15:46:15.618208,-109
2021-10-21 15:46:15.618216,-109
2021-10-21 15:46:15.618224,-102
2021-10-21 15:46:15.842855,-99
2021-10-21 15:46:15.842875,-94
2021-10-21 15:46:15.842885,-94
2021-10-21 15:46:15.842894,-104
2021-10-21 15:46:15.842902,-114
2021-10-21 15:46:15.842911,-114
2021-10-21 15:46:15.842919,-104
2021-10-21 15:46:15.842927,-97
2021-10-21 15:46:15.842936,-97
2021-10-21 15:46:15.842944,-102
2021-10-21 15:46:15.842952,-107
2021-10-21 15:46:15.842961,-104
2021-10-21 15:46:15.842969,-94
2021-10-21 15:46:15.842977,-85
2021-10-21 15:46:15.842985,-85
2021-10-21 15:46:15.842994,-85
2021-10-21 15:46:15.843002,-85
2021-10-21 15:46:15.843010,-80
2021-10-21 15:46:15.843019,-72
2021-10-21 15:46:15.843027,-68
2021-10-21 15:46:15.843035,-65
2021-10-21 15:46:15.843043,-68
2021-10-21 15:46:15.843051,-68
2021-10-21 15:46:15.843059,-60
2021-10-21 15:46:15.843068,-53
2021-10-21 15:46:15.843076,-48
2021-10-21 15:46:15.843084,-46
2021-10-21 15:46:15.843093,-48
2021-10-21 15:46:15.843101,-53
2021-10-21 15:46:15.843109,-55
2021-10-21 15:46:16.113017,-51
2021-10-21 15:46:16.113041,-41
2021-10-21 15:46:16.113050,-36
2021-10-21 15:46:16.113059,-51
2021-10-21 15:46:16.113068,-58
2021-10-21 15:46:16.113076,-48
2021-10-21 15:46:16.113084,-41
2021-10-21 15:46:16.113092,-41
2021-10-21 15:46:16.113101,-36
2021-10-21 15:46:16.113109,-34
2021-10-21 15:46:16.113117,-24
2021-10-21 15:46:16.113125,-4
2021-10-21 15:46:16.113133,-2
2021-10-21 15:46:16.113142,-7
2021-10-21 15:46:16.113150,-9
2021-10-21 15:46:16.113158,-21
2021-10-21 15:46:16.113166,-34
2021-10-21 15:46:16.113174,-21
2021-10-21 15:46:16.113183,-19
2021-10-21 15:46:16.113191,-41
2021-10-21 15:46:16.113199,-53
2021-10-21 15:46:16.113207,-48
2021-10-21 15:46:16.113216,-41
2021-10-21 15:46:16.113224,-38
2021-10-21 15:46:16.113232,-38
2021-10-21 15:46:16.113240,-77
2021-10-21 15:46:16.113248,-158
2021-10-21 15:46:16.113257,-138
2021-10-21 15:46:16.113265,238
2021-10-21 15:46:16.113273,1029
2021-10-21 15:46:16.383434,1630
2021-10-21 15:46:16.383462,1155
2021-10-21 15:46:16.383471,94
2021-10-21 15:46:16.383478,-221
2021-10-21 15:46:16.383485,-2
2021-10-21 15:46:16.383492,-80
2021-10-21 15:46:16.383498,-209
2021-10-21 15:46:16.383505,-138
2021-10-21 15:46:16.383513,-124
2021-10-21 15:46:16.383521,-172
2021-10-21 15:46:16.383529,-141
2021-10-21 15:46:16.383537,-102
2021-10-21 15:46:16.383544,-102
2021-10-21 15:46:16.383552,-94
2021-10-21 15:46:16.383559,-85
2021-10-21 15:46:16.383567,-99
2021-10-21 15:46:16.383574,-90
2021-10-21 15:46:16.383583,-72
2021-10-21 15:46:16.383591,-68
2021-10-21 15:46:16.383598,-58
2021-10-21 15:46:16.383605,-51
2021-10-21 15:46:16.383611,-48
2021-10-21 15:46:16.383618,-36
2021-10-21 15:46:16.383625,-21
2021-10-21 15:46:16.383632,-17
2021-10-21 15:46:16.383639,-17
2021-10-21 15:46:16.383645,-17
2021-10-21 15:46:16.383651,-24
2021-10-21 15:46:16.383658,-24
2021-10-21 15:46:16.383664,-21
2021-10-21 15:46:16.563023,-26
2021-10-21 15:46:16.563043,-38
2021-10-21 15:46:16.563053,-58
2021-10-21 15:46:16.563061,-82
2021-10-21 15:46:16.563070,-90
2021-10-21 15:46:16.563078,-90
2021-10-21 15:46:16.563087,-92
2021-10-21 15:46:16.563095,-99
2021-10-21 15:46:16.563103,-114
2021-10-21 15:46:16.563112,-116
2021-10-21 15:46:16.563120,-99
2021-10-21 15:46:16.563129,-87
2021-10-21 15:46:16.563137,-80
2021-10-21 15:46:16.563145,-77
2021-10-21 15:46:16.563154,-80
2021-10-21 15:46:16.563162,-77
2021-10-21 15:46:16.563170,-65
2021-10-21 15:46:16.563179,-53
2021-10-21 15:46:16.563187,-48
2021-10-21 15:46:16.563195,-53
2021-10-21 15:46:16.563204,-63
2021-10-21 15:46:16.563212,-60
2021-10-21 15:46:16.563220,-48
2021-10-21 15:46:16.563228,-38
2021-10-21 15:46:16.563237,-41
2021-10-21 15:46:16.563245,-58
2021-10-21 15:46:16.563253,-72
2021-10-21 15:46:16.563261,-63
2021-10-21 15:46:16.563269,-53
2021-10-21 15:46:16.563278,-51
2021-10-21 15:46:16.833011,-43
2021-10-21 15:46:16.833034,-43
2021-10-21 15:46:16.833043,-46
2021-10-21 15:46:16.833052,-43
2021-10-21 15:46:16.833061,-41
2021-10-21 15:46:16.833069,-48
2021-10-21 15:46:16.833077,-53
2021-10-21 15:46:16.833086,-58
2021-10-21 15:46:16.833094,-63
2021-10-21 15:46:16.833102,-58
2021-10-21 15:46:16.833111,-46
2021-10-21 15:46:16.833119,-38
2021-10-21 15:46:16.833127,-38
2021-10-21 15:46:16.833136,-46
2021-10-21 15:46:16.833144,-48
2021-10-21 15:46:16.833152,-41
2021-10-21 15:46:16.833161,-31
2021-10-21 15:46:16.833169,-29
2021-10-21 15:46:16.833177,-34
2021-10-21 15:46:16.833186,-41
2021-10-21 15:46:16.833194,-41
2021-10-21 15:46:16.833202,-36
2021-10-21 15:46:16.833210,-36
2021-10-21 15:46:16.833219,-26
2021-10-21 15:46:16.833227,-9
2021-10-21 15:46:16.833235,7
2021-10-21 15:46:16.833244,14
2021-10-21 15:46:16.833252,4
2021-10-21 15:46:16.833260,4
2021-10-21 15:46:16.833268,0
2021-10-21 15:46:17.013038,-24
2021-10-21 15:46:17.013060,-36
2021-10-21 15:46:17.013070,-36
2021-10-21 15:46:17.013078,-43
2021-10-21 15:46:17.013087,-43
2021-10-21 15:46:17.013095,-36
2021-10-21 15:46:17.013104,-36
2021-10-21 15:46:17.013112,-46
2021-10-21 15:46:17.013121,-51
2021-10-21 15:46:17.013129,-58
2021-10-21 15:46:17.013137,-109
2021-10-21 15:46:17.013146,-182
2021-10-21 15:46:17.013154,-104
2021-10-21 15:46:17.013162,360
2021-10-21 15:46:17.013170,1167
2021-10-21 15:46:17.013179,1567
2021-10-21 15:46:17.013187,856
2021-10-21 15:46:17.013195,-94
2021-10-21 15:46:17.013204,-182
2021-10-21 15:46:17.013212,7
2021-10-21 15:46:17.013220,-133
2021-10-21 15:46:17.013228,-211
2021-10-21 15:46:17.013236,-124
2021-10-21 15:46:17.013244,-124
2021-10-21 15:46:17.013252,-150
2021-10-21 15:46:17.013261,-114
2021-10-21 15:46:17.013269,-90
2021-10-21 15:46:17.013277,-92
2021-10-21 15:46:17.013285,-75
2021-10-21 15:46:17.013294,-58
2021-10-21 15:46:17.283029,-65
2021-10-21 15:46:17.283051,-68
2021-10-21 15:46:17.283061,-46
2021-10-21 15:46:17.283069,-34
2021-10-21 15:46:17.283078,-24
2021-10-21 15:46:17.283086,-14
2021-10-21 15:46:17.283094,-17
2021-10-21 15:46:17.283102,-9
2021-10-21 15:46:17.283111,2
2021-10-21 15:46:17.283119,-4
2021-10-21 15:46:17.283128,-9
2021-10-21 15:46:17.283136,-7
2021-10-21 15:46:17.283144,-14
2021-10-21 15:46:17.283152,-19
2021-10-21 15:46:17.283160,-17
2021-10-21 15:46:17.283168,-26
2021-10-21 15:46:17.283177,-41
2021-10-21 15:46:17.283185,-53
2021-10-21 15:46:17.283193,-68
2021-10-21 15:46:17.283201,-75
2021-10-21 15:46:17.283210,-77
2021-10-21 15:46:17.283218,-85
2021-10-21 15:46:17.283226,-85
2021-10-21 15:46:17.283234,-80
2021-10-21 15:46:17.283243,-77
2021-10-21 15:46:17.283251,-70
2021-10-21 15:46:17.283259,-60
2021-10-21 15:46:17.283267,-58
2021-10-21 15:46:17.283276,-51
2021-10-21 15:46:17.283284,-46
2021-10-21 15:46:17.507279,-41
2021-10-21 15:46:17.507300,-31
2021-10-21 15:46:17.507310,-29
2021-10-21 15:46:17.507319,-38
2021-10-21 15:46:17.507327,-43
2021-10-21 15:46:17.507336,-46
2021-10-21 15:46:17.507344,-46
2021-10-21 15:46:17.507352,-38
2021-10-21 15:46:17.507360,-34
2021-10-21 15:46:17.507369,-34
2021-10-21 15:46:17.507377,-31
2021-10-21 15:46:17.507386,-34
2021-10-21 15:46:17.507394,-38
2021-10-21 15:46:17.507403,-36
2021-10-21 15:46:17.507411,-38
2021-10-21 15:46:17.507419,-51
2021-10-21 15:46:17.507427,-60
2021-10-21 15:46:17.507436,-72
2021-10-21 15:46:17.507444,-75
2021-10-21 15:46:17.507453,-63
2021-10-21 15:46:17.507461,-58
2021-10-21 15:46:17.507469,-63
2021-10-21 15:46:17.507477,-63
2021-10-21 15:46:17.507486,-60
2021-10-21 15:46:17.507494,-58
2021-10-21 15:46:17.507502,-48
2021-10-21 15:46:17.507511,-46
2021-10-21 15:46:17.507519,-46
2021-10-21 15:46:17.507527,-41
2021-10-21 15:46:17.507536,-38
2021-10-21 15:46:17.688026,-34
2021-10-21 15:46:17.688048,-26
2021-10-21 15:46:17.688058,-24
2021-10-21 15:46:17.688066,-29
2021-10-21 15:46:17.688075,-38
2021-10-21 15:46:17.688083,-43
2021-10-21 15:46:17.688091,-51
2021-10-21 15:46:17.688100,-60
2021-10-21 15:46:17.688108,-58
2021-10-21 15:46:17.688116,-48
2021-10-21 15:46:17.688125,-41
2021-10-21 15:46:17.688133,-29
2021-10-21 15:46:17.688141,-19
2021-10-21 15:46:17.688149,-31
2021-10-21 15:46:17.688158,-43
2021-10-21 15:46:17.688166,-46
2021-10-21 15:46:17.688174,-63
2021-10-21 15:46:17.688183,-68
2021-10-21 15:46:17.688191,-51
2021-10-21 15:46:17.688199,-46
2021-10-21 15:46:17.688208,-46
2021-10-21 15:46:17.688216,-43
2021-10-21 15:46:17.688224,-43
2021-10-21 15:46:17.688233,-38
2021-10-21 15:46:17.688241,-31
2021-10-21 15:46:17.688249,-53
2021-10-21 15:46:17.688257,-124
2021-10-21 15:46:17.688266,-167
2021-10-21 15:46:17.688274,36
2021-10-21 15:46:17.688282,669
2021-10-21 15:46:17.913037,1447
2021-10-21 15:46:17.913057,1459
2021-10-21 15:46:17.913067,486
2021-10-21 15:46:17.913075,-206
2021-10-21 15:46:17.913084,-65
2021-10-21 15:46:17.913092,12
2021-10-21 15:46:17.913101,-163
2021-10-21 15:46:17.913109,-153
2021-10-21 15:46:17.913118,-85
2021-10-21 15:46:17.913126,-128
2021-10-21 15:46:17.913134,-141
2021-10-21 15:46:17.913142,-92
2021-10-21 15:46:17.913151,-77
2021-10-21 15:46:17.913159,-75
2021-10-21 15:46:17.913167,-58
2021-10-21 15:46:17.913175,-55
2021-10-21 15:46:17.913184,-58
2021-10-21 15:46:17.913192,-36
2021-10-21 15:46:17.913201,-17
2021-10-21 15:46:17.913209,-7
2021-10-21 15:46:17.913217,0
2021-10-21 15:46:17.913225,0
2021-10-21 15:46:17.913234,2
2021-10-21 15:46:17.913242,12
2021-10-21 15:46:17.913250,24
2021-10-21 15:46:17.913259,31
2021-10-21 15:46:17.913267,26
2021-10-21 15:46:17.913275,19
2021-10-21 15:46:17.913284,17
2021-10-21 15:46:17.913292,17
2021-10-21 15:46:18.183040,12
2021-10-21 15:46:18.183060,0
2021-10-21 15:46:18.183070,-24
2021-10-21 15:46:18.183079,-68
2021-10-21 15:46:18.183087,-90
2021-10-21 15:46:18.183126,-87
2021-10-21 15:46:18.183134,-99
2021-10-21 15:46:18.183143,-111
2021-10-21 15:46:18.183151,-116
2021-10-21 15:46:18.183159,-128
2021-10-21 15:46:18.183167,-128
2021-10-21 15:46:18.183176,-126
2021-10-21 15:46:18.183184,-136
2021-10-21 15:46:18.183192,-131
2021-10-21 15:46:18.183201,-119
2021-10-21 15:46:18.183209,-119
2021-10-21 15:46:18.183217,-114
2021-10-21 15:46:18.183225,-109
2021-10-21 15:46:18.183234,-107
2021-10-21 15:46:18.183242,-99
2021-10-21 15:46:18.183250,-94
2021-10-21 15:46:18.183258,-97
2021-10-21 15:46:18.183266,-87
2021-10-21 15:46:18.183275,-72
2021-10-21 15:46:18.183283,-68
2021-10-21 15:46:18.183291,-63
2021-10-21 15:46:18.183299,-60
2021-10-21 15:46:18.183307,-65
2021-10-21 15:46:18.183316,-60
2021-10-21 15:46:18.183324,-51
2021-10-21 15:46:18.453069,-48
2021-10-21 15:46:18.453090,-46
2021-10-21 15:46:18.453100,-48
2021-10-21 15:46:18.453108,-53
2021-10-21 15:46:18.453117,-46
2021-10-21 15:46:18.453126,-36
2021-10-21 15:46:18.453134,-34
2021-10-21 15:46:18.453142,-36
2021-10-21 15:46:18.453150,-46
2021-10-21 15:46:18.453159,-48
2021-10-21 15:46:18.453167,-41
2021-10-21 15:46:18.453175,-31
2021-10-21 15:46:18.453184,-24
2021-10-21 15:46:18.453192,-26
2021-10-21 15:46:18.453200,-36
2021-10-21 15:46:18.453208,-41
2021-10-21 15:46:18.453216,-29
2021-10-21 15:46:18.453225,-19
2021-10-21 15:46:18.453233,-19
2021-10-21 15:46:18.453241,-24
2021-10-21 15:46:18.453250,-29
2021-10-21 15:46:18.453258,-26
2021-10-21 15:46:18.453266,-17
2021-10-21 15:46:18.453274,-9
2021-10-21 15:46:18.453282,-7
2021-10-21 15:46:18.453290,-7
2021-10-21 15:46:18.453299,-12
2021-10-21 15:46:18.453307,-14
2021-10-21 15:46:18.453315,-9
2021-10-21 15:46:18.453324,0
2021-10-21 15:46:18.633022,12
2021-10-21 15:46:18.633043,29
2021-10-21 15:46:18.633052,38
2021-10-21 15:46:18.633061,31
2021-10-21 15:46:18.633070,26
2021-10-21 15:46:18.633078,31
2021-10-21 15:46:18.633086,21
2021-10-21 15:46:18.633095,4
2021-10-21 15:46:18.633103,0
2021-10-21 15:46:18.633111,2
2021-10-21 15:46:18.633120,7
2021-10-21 15:46:18.633128,9
2021-10-21 15:46:18.633136,9
2021-10-21 15:46:18.633144,0
2021-10-21 15:46:18.633153,-7
2021-10-21 15:46:18.633161,-14
2021-10-21 15:46:18.633170,-58
2021-10-21 15:46:18.633178,-145
2021-10-21 15:46:18.633186,-109
2021-10-21 15:46:18.633195,294
2021-10-21 15:46:18.633203,1075
2021-10-21 15:46:18.633211,1567
2021-10-21 15:46:18.633219,983
2021-10-21 15:46:18.633228,-19
2021-10-21 15:46:18.633236,-206
2021-10-21 15:46:18.633244,12
2021-10-21 15:46:18.633252,-104
2021-10-21 15:46:18.633261,-216
2021-10-21 15:46:18.633269,-141
2021-10-21 15:46:18.633277,-131
2021-10-21 15:46:18.903794,-158
2021-10-21 15:46:18.903814,-126
2021-10-21 15:46:18.903823,-107
2021-10-21 15:46:18.903832,-111
2021-10-21 15:46:18.903841,-94
2021-10-21 15:46:18.903849,-75
2021-10-21 15:46:18.903857,-75
2021-10-21 15:46:18.903866,-75
2021-10-21 15:46:18.903874,-63
2021-10-21 15:46:18.903882,-58
2021-10-21 15:46:18.903890,-55
2021-10-21 15:46:18.903899,-48
2021-10-21 15:46:18.903907,-53
2021-10-21 15:46:18.903915,-60
2021-10-21 15:46:18.903923,-46
2021-10-21 15:46:18.903932,-34
2021-10-21 15:46:18.903940,-31
2021-10-21 15:46:18.903948,-31
2021-10-21 15:46:18.903957,-34
2021-10-21 15:46:18.903965,-36
2021-10-21 15:46:18.903973,-38
2021-10-21 15:46:18.903981,-48
2021-10-21 15:46:18.903989,-60
2021-10-21 15:46:18.903998,-75
2021-10-21 15:46:18.904006,-99
2021-10-21 15:46:18.904014,-114
2021-10-21 15:46:18.904022,-116
2021-10-21 15:46:18.904031,-121
2021-10-21 15:46:18.904039,-124
2021-10-21 15:46:18.904047,-121
2021-10-21 15:46:19.083037,-121
2021-10-21 15:46:19.083059,-111
2021-10-21 15:46:19.083068,-102
2021-10-21 15:46:19.083077,-97
2021-10-21 15:46:19.083085,-92
2021-10-21 15:46:19.083094,-82
2021-10-21 15:46:19.083102,-85
2021-10-21 15:46:19.083110,-77
2021-10-21 15:46:19.083118,-60
2021-10-21 15:46:19.083127,-58
2021-10-21 15:46:19.083135,-58
2021-10-21 15:46:19.083143,-55
2021-10-21 15:46:19.083152,-58
2021-10-21 15:46:19.083160,-58
2021-10-21 15:46:19.083168,-48
2021-10-21 15:46:19.083176,-43
2021-10-21 15:46:19.083184,-43
2021-10-21 15:46:19.083192,-43
2021-10-21 15:46:19.083201,-51
2021-10-21 15:46:19.083209,-51
2021-10-21 15:46:19.083217,-41
2021-10-21 15:46:19.083225,-43
2021-10-21 15:46:19.083234,-43
2021-10-21 15:46:19.083242,-43
2021-10-21 15:46:19.083250,-58
2021-10-21 15:46:19.083258,-70
2021-10-21 15:46:19.083267,-72
2021-10-21 15:46:19.083275,-65
2021-10-21 15:46:19.083283,-58
2021-10-21 15:46:19.083292,-55
2021-10-21 15:46:19.308043,-55
2021-10-21 15:46:19.308065,-48
2021-10-21 15:46:19.308075,-41
2021-10-21 15:46:19.308083,-41
2021-10-21 15:46:19.308092,-43
2021-10-21 15:46:19.308100,-46
2021-10-21 15:46:19.308109,-48
2021-10-21 15:46:19.308117,-41
2021-10-21 15:46:19.308126,-34
2021-10-21 15:46:19.308134,-31
2021-10-21 15:46:19.308143,-34
2021-10-21 15:46:19.308151,-36
2021-10-21 15:46:19.308159,-38
2021-10-21 15:46:19.308167,-29
2021-10-21 15:46:19.308175,-26
2021-10-21 15:46:19.308184,-26
2021-10-21 15:46:19.308192,-24
2021-10-21 15:46:19.308200,-21
2021-10-21 15:46:19.308209,-7
2021-10-21 15:46:19.308217,19
2021-10-21 15:46:19.308225,24
2021-10-21 15:46:19.308234,12
2021-10-21 15:46:19.308242,12
2021-10-21 15:46:19.308250,7
2021-10-21 15:46:19.308259,0
2021-10-21 15:46:19.308267,2
2021-10-21 15:46:19.308275,4
2021-10-21 15:46:19.308283,-12
2021-10-21 15:46:19.308292,-29
2021-10-21 15:46:19.308300,-24
2021-10-21 15:46:19.621680,-7
2021-10-21 15:46:19.621701,-4
2021-10-21 15:46:19.621710,-12
2021-10-21 15:46:19.621719,-51
2021-10-21 15:46:19.621728,-128
2021-10-21 15:46:19.621736,-121
2021-10-21 15:46:19.621744,192
2021-10-21 15:46:19.621752,875
2021-10-21 15:46:19.621760,1467
2021-10-21 15:46:19.621769,1119
2021-10-21 15:46:19.621777,90
2021-10-21 15:46:19.621793,-272
2021-10-21 15:46:19.621802,-2
2021-10-21 15:46:19.621810,-36
2021-10-21 15:46:19.621818,-192
2021-10-21 15:46:19.621826,-124
2021-10-21 15:46:19.621835,-90
2021-10-21 15:46:19.621843,-128
2021-10-21 15:46:19.621851,-97
2021-10-21 15:46:19.621859,-63
2021-10-21 15:46:19.621867,-70
2021-10-21 15:46:19.621875,-65
2021-10-21 15:46:19.621884,-53
2021-10-21 15:46:19.621892,-53
2021-10-21 15:46:19.621900,-43
2021-10-21 15:46:19.621908,-34
2021-10-21 15:46:19.621916,-34
2021-10-21 15:46:19.621925,-29
2021-10-21 15:46:19.621933,-19
2021-10-21 15:46:19.621941,-26
2021-10-21 15:46:19.758029,-31
2021-10-21 15:46:19.758050,-12
2021-10-21 15:46:19.758060,0
2021-10-21 15:46:19.758068,-9
2021-10-21 15:46:19.758077,-17
2021-10-21 15:46:19.758085,-9
2021-10-21 15:46:19.758093,-7
2021-10-21 15:46:19.758102,-14
2021-10-21 15:46:19.758110,-24
2021-10-21 15:46:19.758118,-46
2021-10-21 15:46:19.758126,-70
2021-10-21 15:46:19.758135,-80
2021-10-21 15:46:19.758143,-82
2021-10-21 15:46:19.758151,-90
2021-10-21 15:46:19.758159,-102
2021-10-21 15:46:19.758168,-119
2021-10-21 15:46:19.758176,-128
2021-10-21 15:46:19.758184,-119
2021-10-21 15:46:19.758193,-109
2021-10-21 15:46:19.758201,-102
2021-10-21 15:46:19.758209,-94
2021-10-21 15:46:19.758217,-92
2021-10-21 15:46:19.758225,-87
2021-10-21 15:46:19.758234,-75
2021-10-21 15:46:19.758242,-60
2021-10-21 15:46:19.758250,-53
2021-10-21 15:46:19.758258,-48
2021-10-21 15:46:19.758266,-48
2021-10-21 15:46:19.758274,-46
2021-10-21 15:46:19.758283,-34
2021-10-21 15:46:20.028063,-26
2021-10-21 15:46:20.028086,-26
2021-10-21 15:46:20.028096,-41
2021-10-21 15:46:20.028104,-58
2021-10-21 15:46:20.028113,-55
2021-10-21 15:46:20.028121,-46
2021-10-21 15:46:20.028129,-43
2021-10-21 15:46:20.028138,-43
2021-10-21 15:46:20.028146,-46
2021-10-21 15:46:20.028154,-60
2021-10-21 15:46:20.028162,-60
2021-10-21 15:46:20.028171,-43
2021-10-21 15:46:20.028179,-38
2021-10-21 15:46:20.028187,-43
2021-10-21 15:46:20.028196,-38
2021-10-21 15:46:20.028204,-38
2021-10-21 15:46:20.028213,-36
2021-10-21 15:46:20.028221,-29
2021-10-21 15:46:20.028229,-21
2021-10-21 15:46:20.028238,-19
2021-10-21 15:46:20.028246,-19
2021-10-21 15:46:20.028254,-24
2021-10-21 15:46:20.028263,-17
2021-10-21 15:46:20.028271,-9
2021-10-21 15:46:20.028280,-4
2021-10-21 15:46:20.028288,-2
2021-10-21 15:46:20.028297,-4
2021-10-21 15:46:20.028305,-7
2021-10-21 15:46:20.028313,-4
2021-10-21 15:46:20.028322,0
2021-10-21 15:46:20.253036,2
2021-10-21 15:46:20.253057,9
2021-10-21 15:46:20.253066,21
2021-10-21 15:46:20.253075,26
2021-10-21 15:46:20.253083,12
2021-10-21 15:46:20.253092,-7
2021-10-21 15:46:20.253100,-17
2021-10-21 15:46:20.253109,-26
2021-10-21 15:46:20.253117,-46
2021-10-21 15:46:20.253125,-55
2021-10-21 15:46:20.253133,-46
2021-10-21 15:46:20.253142,-34
2021-10-21 15:46:20.253150,-34
2021-10-21 15:46:20.253158,-34
2021-10-21 15:46:20.253166,-41
2021-10-21 15:46:20.253174,-46
2021-10-21 15:46:20.253182,-51
2021-10-21 15:46:20.253191,-102
2021-10-21 15:46:20.253199,-163
2021-10-21 15:46:20.253207,-53
2021-10-21 15:46:20.253215,440
2021-10-21 15:46:20.253224,1236
2021-10-21 15:46:20.253232,1581
2021-10-21 15:46:20.253240,820
2021-10-21 15:46:20.253249,-119
2021-10-21 15:46:20.253257,-153
2021-10-21 15:46:20.253265,34
2021-10-21 15:46:20.253273,-138
2021-10-21 15:46:20.253282,-204
2021-10-21 15:46:20.253290,-107
2021-10-21 15:46:20.523068,-116
2021-10-21 15:46:20.523090,-143
2021-10-21 15:46:20.523099,-109
2021-10-21 15:46:20.523107,-94
2021-10-21 15:46:20.523116,-94
2021-10-21 15:46:20.523124,-82
2021-10-21 15:46:20.523132,-82
2021-10-21 15:46:20.523141,-94
2021-10-21 15:46:20.523149,-94
2021-10-21 15:46:20.523157,-82
2021-10-21 15:46:20.523165,-75
2021-10-21 15:46:20.523174,-70
2021-10-21 15:46:20.523182,-55
2021-10-21 15:46:20.523190,-55
2021-10-21 15:46:20.523198,-60
2021-10-21 15:46:20.523206,-48
2021-10-21 15:46:20.523215,-36
2021-10-21 15:46:20.523223,-31
2021-10-21 15:46:20.523231,-31
2021-10-21 15:46:20.523239,-34
2021-10-21 15:46:20.523247,-38
2021-10-21 15:46:20.523255,-43
2021-10-21 15:46:20.523264,-46
2021-10-21 15:46:20.523272,-53
2021-10-21 15:46:20.523280,-70
2021-10-21 15:46:20.523288,-85
2021-10-21 15:46:20.523296,-94
2021-10-21 15:46:20.523304,-99
2021-10-21 15:46:20.523313,-104
2021-10-21 15:46:20.523321,-102
2021-10-21 15:46:20.703080,-99
2021-10-21 15:46:20.703102,-102
2021-10-21 15:46:20.703112,-97
2021-10-21 15:46:20.703121,-90
2021-10-21 15:46:20.703129,-82
2021-10-21 15:46:20.703138,-70
2021-10-21 15:46:20.703146,-63
2021-10-21 15:46:20.703154,-60
2021-10-21 15:46:20.703162,-63
2021-10-21 15:46:20.703171,-65
2021-10-21 15:46:20.703179,-65
2021-10-21 15:46:20.703187,-75
2021-10-21 15:46:20.703195,-85
2021-10-21 15:46:20.703204,-82
2021-10-21 15:46:20.703212,-77
2021-10-21 15:46:20.703220,-70
2021-10-21 15:46:20.703228,-63
2021-10-21 15:46:20.703237,-58
2021-10-21 15:46:20.703245,-63
2021-10-21 15:46:20.703253,-70
2021-10-21 15:46:20.703261,-65
2021-10-21 15:46:20.703270,-60
2021-10-21 15:46:20.703278,-58
2021-10-21 15:46:20.703286,-53
2021-10-21 15:46:20.703294,-53
2021-10-21 15:46:20.703302,-55
2021-10-21 15:46:20.703310,-53
2021-10-21 15:46:20.703319,-48
2021-10-21 15:46:20.703328,-41
2021-10-21 15:46:20.703336,-36
2021-10-21 15:46:21.018071,-31
2021-10-21 15:46:21.018094,-31
2021-10-21 15:46:21.018104,-36
2021-10-21 15:46:21.018112,-38
2021-10-21 15:46:21.018121,-19
2021-10-21 15:46:21.018130,-9
2021-10-21 15:46:21.018138,-29
2021-10-21 15:46:21.018146,-31
2021-10-21 15:46:21.018155,-17
2021-10-21 15:46:21.018163,-26
2021-10-21 15:46:21.018171,-48
2021-10-21 15:46:21.018180,-48
2021-10-21 15:46:21.018188,-43
2021-10-21 15:46:21.018196,-46
2021-10-21 15:46:21.018205,-43
2021-10-21 15:46:21.018213,-41
2021-10-21 15:46:21.018221,-43
2021-10-21 15:46:21.018230,-41
2021-10-21 15:46:21.018238,-31
2021-10-21 15:46:21.018246,-7
2021-10-21 15:46:21.018255,17
2021-10-21 15:46:21.018263,4
2021-10-21 15:46:21.018271,-9
2021-10-21 15:46:21.018279,-7
2021-10-21 15:46:21.018288,-7
2021-10-21 15:46:21.018296,-12
2021-10-21 15:46:21.018304,-9
2021-10-21 15:46:21.018312,-4
2021-10-21 15:46:21.018321,-7
2021-10-21 15:46:21.018329,-7
2021-10-21 15:46:21.153112,-4
2021-10-21 15:46:21.153133,0
2021-10-21 15:46:21.153142,-4
2021-10-21 15:46:21.153151,-36
2021-10-21 15:46:21.153159,-104
2021-10-21 15:46:21.153168,-138
2021-10-21 15:46:21.153176,75
2021-10-21 15:46:21.153185,727
2021-10-21 15:46:21.153193,1498
2021-10-21 15:46:21.153201,1469
2021-10-21 15:46:21.153210,474
2021-10-21 15:46:21.153218,-204
2021-10-21 15:46:21.153226,-58
2021-10-21 15:46:21.153235,14
2021-10-21 15:46:21.153243,-163
2021-10-21 15:46:21.153251,-160
2021-10-21 15:46:21.153260,-107
2021-10-21 15:46:21.153268,-153
2021-10-21 15:46:21.153276,-160
2021-10-21 15:46:21.153285,-116
2021-10-21 15:46:21.153293,-102
2021-10-21 15:46:21.153301,-99
2021-10-21 15:46:21.153309,-94
2021-10-21 15:46:21.153318,-104
2021-10-21 15:46:21.153326,-94
2021-10-21 15:46:21.153334,-72
2021-10-21 15:46:21.153342,-72
2021-10-21 15:46:21.153351,-72
2021-10-21 15:46:21.153359,-58
2021-10-21 15:46:21.153367,-48
2021-10-21 15:46:21.378061,-43
2021-10-21 15:46:21.378083,-29
2021-10-21 15:46:21.378092,-19
2021-10-21 15:46:21.378101,-17
2021-10-21 15:46:21.378109,-24
2021-10-21 15:46:21.378118,-36
2021-10-21 15:46:21.378126,-29
2021-10-21 15:46:21.378135,-17
2021-10-21 15:46:21.378191,-21
2021-10-21 15:46:21.378201,-38
2021-10-21 15:46:21.378209,-53
2021-10-21 15:46:21.378217,-72
2021-10-21 15:46:21.378225,-82
2021-10-21 15:46:21.378234,-85
2021-10-21 15:46:21.378242,-104
2021-10-21 15:46:21.378250,-121
2021-10-21 15:46:21.378259,-116
2021-10-21 15:46:21.378267,-104
2021-10-21 15:46:21.378275,-97
2021-10-21 15:46:21.378284,-90
2021-10-21 15:46:21.378292,-85
2021-10-21 15:46:21.378300,-85
2021-10-21 15:46:21.378308,-72
2021-10-21 15:46:21.378317,-58
2021-10-21 15:46:21.378325,-55
2021-10-21 15:46:21.378333,-51
2021-10-21 15:46:21.378341,-38
2021-10-21 15:46:21.378349,-36
2021-10-21 15:46:21.378357,-41
2021-10-21 15:46:21.378366,-36
2021-10-21 15:46:21.646678,-24
2021-10-21 15:46:21.646700,-24
2021-10-21 15:46:21.646710,-24
2021-10-21 15:46:21.646718,-21
2021-10-21 15:46:21.646727,-29
2021-10-21 15:46:21.646735,-26
2021-10-21 15:46:21.646743,-17
2021-10-21 15:46:21.646752,-14
2021-10-21 15:46:21.646760,-19
2021-10-21 15:46:21.646768,-26
2021-10-21 15:46:21.646776,-36
2021-10-21 15:46:21.646785,-34
2021-10-21 15:46:21.646793,-26
2021-10-21 15:46:21.646801,-19
2021-10-21 15:46:21.646809,-9
2021-10-21 15:46:21.646817,-14
2021-10-21 15:46:21.646826,-29
2021-10-21 15:46:21.646834,-29
2021-10-21 15:46:21.646842,-9
2021-10-21 15:46:21.646851,-2
2021-10-21 15:46:21.646859,-9
2021-10-21 15:46:21.646868,-14
2021-10-21 15:46:21.646876,-26
2021-10-21 15:46:21.646884,-34
2021-10-21 15:46:21.646892,-24
2021-10-21 15:46:21.646901,-14
2021-10-21 15:46:21.646909,-9
2021-10-21 15:46:21.646917,4
2021-10-21 15:46:21.646925,19
2021-10-21 15:46:21.646934,17
2021-10-21 15:46:21.872937,17
2021-10-21 15:46:21.872957,21
2021-10-21 15:46:21.872967,2
2021-10-21 15:46:21.872976,-24
2021-10-21 15:46:21.872984,-21
2021-10-21 15:46:21.872993,-12
2021-10-21 15:46:21.873001,-12
2021-10-21 15:46:21.873009,-12
2021-10-21 15:46:21.873018,-17
2021-10-21 15:46:21.873026,-34
2021-10-21 15:46:21.873035,-31
2021-10-21 15:46:21.873043,-38
2021-10-21 15:46:21.873051,-104
2021-10-21 15:46:21.873060,-145
2021-10-21 15:46:21.873068,53
2021-10-21 15:46:21.873076,656
2021-10-21 15:46:21.873085,1425
2021-10-21 15:46:21.873093,1476
2021-10-21 15:46:21.873101,532
2021-10-21 15:46:21.873110,-175
2021-10-21 15:46:21.873118,-55
2021-10-21 15:46:21.873126,9
2021-10-21 15:46:21.873134,-177
2021-10-21 15:46:21.873143,-170
2021-10-21 15:46:21.873151,-94
2021-10-21 15:46:21.873159,-126
2021-10-21 15:46:21.873168,-131
2021-10-21 15:46:21.873176,-92
2021-10-21 15:46:21.873184,-80
2021-10-21 15:46:21.873192,-75
2021-10-21 15:46:22.098077,-55
2021-10-21 15:46:22.098099,-43
2021-10-21 15:46:22.098108,-53
2021-10-21 15:46:22.098117,-58
2021-10-21 15:46:22.098125,-38
2021-10-21 15:46:22.098134,-19
2021-10-21 15:46:22.098142,-17
2021-10-21 15:46:22.098150,-12
2021-10-21 15:46:22.098159,-12
2021-10-21 15:46:22.098167,-19
2021-10-21 15:46:22.098175,-9
2021-10-21 15:46:22.098184,2
2021-10-21 15:46:22.098192,0
2021-10-21 15:46:22.098200,-7
2021-10-21 15:46:22.098209,-34
2021-10-21 15:46:22.098217,-53
2021-10-21 15:46:22.098226,-55
2021-10-21 15:46:22.098234,-65
2021-10-21 15:46:22.098242,-80
2021-10-21 15:46:22.098250,-94
2021-10-21 15:46:22.098259,-109
2021-10-21 15:46:22.098267,-124
2021-10-21 15:46:22.098275,-126
2021-10-21 15:46:22.098283,-121
2021-10-21 15:46:22.098291,-119
2021-10-21 15:46:22.098300,-124
2021-10-21 15:46:22.098308,-131
