Time,ECG
2021-10-21 15:40:50.718463,14
2021-10-21 15:40:50.718481,14
2021-10-21 15:40:50.718490,17
2021-10-21 15:40:50.718498,2
2021-10-21 15:40:50.718506,-26
2021-10-21 15:40:50.718515,-53
2021-10-21 15:40:50.718523,-55
2021-10-21 15:40:50.718531,-55
2021-10-21 15:40:50.718540,-70
2021-10-21 15:40:50.718549,-85
2021-10-21 15:40:50.718557,-92
2021-10-21 15:40:50.718565,-114
2021-10-21 15:40:50.718574,-133
2021-10-21 15:40:50.718582,-131
2021-10-21 15:40:50.718590,-128
2021-10-21 15:40:50.718599,-131
2021-10-21 15:40:50.718607,-126
2021-10-21 15:40:50.718615,-121
2021-10-21 15:40:50.718624,-116
2021-10-21 15:40:50.718632,-102
2021-10-21 15:40:50.718641,-90
2021-10-21 15:40:50.718649,-87
2021-10-21 15:40:50.718657,-87
2021-10-21 15:40:50.718665,-82
2021-10-21 15:40:50.718674,-72
2021-10-21 15:40:50.718682,-63
2021-10-21 15:40:50.718691,-58
2021-10-21 15:40:50.718699,-65
2021-10-21 15:40:50.718708,-75
2021-10-21 15:40:50.718715,-72
2021-10-21 15:40:50.803749,-60
2021-10-21 15:40:50.803770,-55
2021-10-21 15:40:50.803780,-53
2021-10-21 15:40:50.803789,-55
2021-10-21 15:40:50.803797,-70
2021-10-21 15:40:50.803805,-80
2021-10-21 15:40:50.803815,-68
2021-10-21 15:40:50.803823,-55
2021-10-21 15:40:50.803832,-55
2021-10-21 15:40:50.803840,-60
2021-10-21 15:40:50.803848,-65
2021-10-21 15:40:50.803856,-70
2021-10-21 15:40:50.803865,-60
2021-10-21 15:40:50.803873,-46
2021-10-21 15:40:50.803882,-46
2021-10-21 15:40:50.803890,-48
2021-10-21 15:40:50.803898,-46
2021-10-21 15:40:50.803907,-41
2021-10-21 15:40:50.803916,-34
2021-10-21 15:40:50.803924,-29
2021-10-21 15:40:50.803933,-21
2021-10-21 15:40:50.803941,-21
2021-10-21 15:40:50.803950,-26
2021-10-21 15:40:50.803959,-26
2021-10-21 15:40:50.803967,-17
2021-10-21 15:40:50.803975,-7
2021-10-21 15:40:50.803984,2
2021-10-21 15:40:50.803992,17
2021-10-21 15:40:50.804000,24
2021-10-21 15:40:50.804011,7
2021-10-21 15:40:50.983700,-7
2021-10-21 15:40:50.983722,-2
2021-10-21 15:40:50.983732,-7
2021-10-21 15:40:50.983740,-26
2021-10-21 15:40:50.983748,-38
2021-10-21 15:40:50.983757,-34
2021-10-21 15:40:50.983765,-24
2021-10-21 15:40:50.983773,-21
2021-10-21 15:40:50.983782,-26
2021-10-21 15:40:50.983790,-38
2021-10-21 15:40:50.983798,-51
2021-10-21 15:40:50.983807,-48
2021-10-21 15:40:50.983815,-80
2021-10-21 15:40:50.983827,-143
2021-10-21 15:40:50.983836,-65
2021-10-21 15:40:50.983844,355
2021-10-21 15:40:50.983853,1094
2021-10-21 15:40:50.983861,1525
2021-10-21 15:40:50.983870,902
2021-10-21 15:40:50.983878,-92
2021-10-21 15:40:50.983886,-223
2021-10-21 15:40:50.983895,29
2021-10-21 15:40:50.983903,-97
2021-10-21 15:40:50.983911,-197
2021-10-21 15:40:50.983919,-97
2021-10-21 15:40:50.983928,-87
2021-10-21 15:40:50.983936,-126
2021-10-21 15:40:50.983945,-99
2021-10-21 15:40:50.983953,-77
2021-10-21 15:40:50.983962,-70
2021-10-21 15:40:51.253758,-51
2021-10-21 15:40:51.253780,-41
2021-10-21 15:40:51.253790,-51
2021-10-21 15:40:51.253807,-63
2021-10-21 15:40:51.253816,-51
2021-10-21 15:40:51.253824,-24
2021-10-21 15:40:51.253833,-12
2021-10-21 15:40:51.253841,-12
2021-10-21 15:40:51.253849,-19
2021-10-21 15:40:51.253858,-26
2021-10-21 15:40:51.253866,-17
2021-10-21 15:40:51.253874,-2
2021-10-21 15:40:51.253883,2
2021-10-21 15:40:51.253891,4
2021-10-21 15:40:51.253899,2
2021-10-21 15:40:51.253907,-12
2021-10-21 15:40:51.253916,-14
2021-10-21 15:40:51.253928,-9
2021-10-21 15:40:51.253937,-14
2021-10-21 15:40:51.253945,-31
2021-10-21 15:40:51.253953,-53
2021-10-21 15:40:51.253961,-80
2021-10-21 15:40:51.253970,-92
2021-10-21 15:40:51.253982,-90
2021-10-21 15:40:51.253990,-94
2021-10-21 15:40:51.253998,-102
2021-10-21 15:40:51.254007,-107
2021-10-21 15:40:51.254015,-111
2021-10-21 15:40:51.254023,-107
2021-10-21 15:40:51.254057,-92
2021-10-21 15:40:51.478699,-85
2021-10-21 15:40:51.478721,-80
2021-10-21 15:40:51.478731,-82
2021-10-21 15:40:51.478740,-90
2021-10-21 15:40:51.478748,-87
2021-10-21 15:40:51.478757,-75
2021-10-21 15:40:51.478765,-68
2021-10-21 15:40:51.478778,-68
2021-10-21 15:40:51.478787,-80
2021-10-21 15:40:51.478795,-85
2021-10-21 15:40:51.478803,-72
2021-10-21 15:40:51.478812,-63
2021-10-21 15:40:51.478820,-60
2021-10-21 15:40:51.478828,-60
2021-10-21 15:40:51.478837,-77
2021-10-21 15:40:51.478845,-104
2021-10-21 15:40:51.478853,-107
2021-10-21 15:40:51.478862,-90
2021-10-21 15:40:51.478870,-87
2021-10-21 15:40:51.478878,-90
2021-10-21 15:40:51.478887,-90
2021-10-21 15:40:51.478895,-85
2021-10-21 15:40:51.478903,-77
2021-10-21 15:40:51.478911,-72
2021-10-21 15:40:51.478920,-68
2021-10-21 15:40:51.478928,-63
2021-10-21 15:40:51.478936,-65
2021-10-21 15:40:51.478944,-63
2021-10-21 15:40:51.478952,-53
2021-10-21 15:40:51.478961,-43
2021-10-21 15:40:51.792418,-38
2021-10-21 15:40:51.792440,-41
2021-10-21 15:40:51.792450,-46
2021-10-21 15:40:51.792458,-46
2021-10-21 15:40:51.792467,-38
2021-10-21 15:40:51.792475,-34
2021-10-21 15:40:51.792484,-43
2021-10-21 15:40:51.792492,-60
2021-10-21 15:40:51.792500,-68
2021-10-21 15:40:51.792509,-58
2021-10-21 15:40:51.792517,-41
2021-10-21 15:40:51.792525,-19
2021-10-21 15:40:51.792534,-9
2021-10-21 15:40:51.792542,-29
2021-10-21 15:40:51.792550,-41
2021-10-21 15:40:51.792559,-36
2021-10-21 15:40:51.792567,-38
2021-10-21 15:40:51.792576,-41
2021-10-21 15:40:51.792584,-34
2021-10-21 15:40:51.792592,-36
2021-10-21 15:40:51.792601,-41
2021-10-21 15:40:51.792609,-38
2021-10-21 15:40:51.792617,-34
2021-10-21 15:40:51.792626,-26
2021-10-21 15:40:51.792638,-24
2021-10-21 15:40:51.792646,-41
2021-10-21 15:40:51.792655,-97
2021-10-21 15:40:51.792663,-150
2021-10-21 15:40:51.792672,-34
2021-10-21 15:40:51.792680,469
2021-10-21 15:40:52.018665,1275
2021-10-21 15:40:52.018686,1635
2021-10-21 15:40:52.018696,880
2021-10-21 15:40:52.018705,-109
2021-10-21 15:40:52.018714,-182
2021-10-21 15:40:52.018722,38
2021-10-21 15:40:52.018730,-111
2021-10-21 15:40:52.018739,-201
2021-10-21 15:40:52.018747,-119
2021-10-21 15:40:52.018755,-126
2021-10-21 15:40:52.018764,-148
2021-10-21 15:40:52.018772,-104
2021-10-21 15:40:52.018780,-97
2021-10-21 15:40:52.018789,-114
2021-10-21 15:40:52.018797,-94
2021-10-21 15:40:52.018806,-77
2021-10-21 15:40:52.018814,-72
2021-10-21 15:40:52.018823,-60
2021-10-21 15:40:52.018831,-65
2021-10-21 15:40:52.018840,-72
2021-10-21 15:40:52.018848,-70
2021-10-21 15:40:52.018856,-72
2021-10-21 15:40:52.018866,-70
2021-10-21 15:40:52.018874,-53
2021-10-21 15:40:52.018883,-46
2021-10-21 15:40:52.018891,-46
2021-10-21 15:40:52.018900,-43
2021-10-21 15:40:52.018908,-36
2021-10-21 15:40:52.018916,-34
2021-10-21 15:40:52.018924,-41
2021-10-21 15:40:52.243055,-58
2021-10-21 15:40:52.243077,-65
2021-10-21 15:40:52.243088,-68
2021-10-21 15:40:52.243097,-82
2021-10-21 15:40:52.243106,-90
2021-10-21 15:40:52.243115,-97
2021-10-21 15:40:52.243123,-114
2021-10-21 15:40:52.243132,-119
2021-10-21 15:40:52.243141,-121
2021-10-21 15:40:52.243149,-133
2021-10-21 15:40:52.243157,-145
2021-10-21 15:40:52.243165,-150
2021-10-21 15:40:52.243173,-153
2021-10-21 15:40:52.243180,-148
2021-10-21 15:40:52.243187,-133
2021-10-21 15:40:52.243194,-126
2021-10-21 15:40:52.243202,-116
2021-10-21 15:40:52.243209,-107
2021-10-21 15:40:52.243216,-99
2021-10-21 15:40:52.243224,-92
2021-10-21 15:40:52.243231,-85
2021-10-21 15:40:52.243238,-82
2021-10-21 15:40:52.243245,-77
2021-10-21 15:40:52.243251,-77
2021-10-21 15:40:52.243262,-85
2021-10-21 15:40:52.243269,-80
2021-10-21 15:40:52.243276,-72
2021-10-21 15:40:52.243283,-72
2021-10-21 15:40:52.243291,-70
2021-10-21 15:40:52.243298,-68
2021-10-21 15:40:52.378750,-68
2021-10-21 15:40:52.378771,-63
2021-10-21 15:40:52.378781,-58
2021-10-21 15:40:52.378790,-60
2021-10-21 15:40:52.378799,-60
2021-10-21 15:40:52.378807,-70
2021-10-21 15:40:52.378816,-75
2021-10-21 15:40:52.378830,-68
2021-10-21 15:40:52.378839,-55
2021-10-21 15:40:52.378848,-55
2021-10-21 15:40:52.378856,-55
2021-10-21 15:40:52.378865,-51
2021-10-21 15:40:52.378873,-55
2021-10-21 15:40:52.378881,-58
2021-10-21 15:40:52.378890,-48
2021-10-21 15:40:52.378898,-46
2021-10-21 15:40:52.378906,-51
2021-10-21 15:40:52.378915,-58
2021-10-21 15:40:52.378922,-58
2021-10-21 15:40:52.378931,-48
2021-10-21 15:40:52.378939,-46
2021-10-21 15:40:52.378947,-48
2021-10-21 15:40:52.378955,-51
2021-10-21 15:40:52.378964,-51
2021-10-21 15:40:52.378972,-38
2021-10-21 15:40:52.378981,-17
2021-10-21 15:40:52.378989,-19
2021-10-21 15:40:52.378997,-46
2021-10-21 15:40:52.379006,-51
2021-10-21 15:40:52.379014,-43
2021-10-21 15:40:52.693145,-48
2021-10-21 15:40:52.693166,-53
2021-10-21 15:40:52.693176,-48
2021-10-21 15:40:52.693184,-51
2021-10-21 15:40:52.693193,-60
2021-10-21 15:40:52.693201,-63
2021-10-21 15:40:52.693209,-60
2021-10-21 15:40:52.693218,-51
2021-10-21 15:40:52.693226,-48
2021-10-21 15:40:52.693234,-55
2021-10-21 15:40:52.693243,-102
2021-10-21 15:40:52.693251,-180
2021-10-21 15:40:52.693259,-145
2021-10-21 15:40:52.693267,211
2021-10-21 15:40:52.693276,951
2021-10-21 15:40:52.693284,1569
2021-10-21 15:40:52.693292,1197
2021-10-21 15:40:52.693301,124
2021-10-21 15:40:52.693309,-284
2021-10-21 15:40:52.693318,-38
2021-10-21 15:40:52.693326,-75
2021-10-21 15:40:52.693334,-240
2021-10-21 15:40:52.693343,-180
2021-10-21 15:40:52.693351,-136
2021-10-21 15:40:52.693359,-167
2021-10-21 15:40:52.693367,-141
2021-10-21 15:40:52.693376,-107
2021-10-21 15:40:52.693384,-114
2021-10-21 15:40:52.693392,-109
2021-10-21 15:40:52.693401,-87
2021-10-21 15:40:52.828746,-77
2021-10-21 15:40:52.828769,-77
2021-10-21 15:40:52.828778,-70
2021-10-21 15:40:52.828787,-68
2021-10-21 15:40:52.828796,-72
2021-10-21 15:40:52.828805,-63
2021-10-21 15:40:52.828813,-41
2021-10-21 15:40:52.828822,-34
2021-10-21 15:40:52.828830,-34
2021-10-21 15:40:52.828838,-34
2021-10-21 15:40:52.828850,-34
2021-10-21 15:40:52.828858,-29
2021-10-21 15:40:52.828866,-31
2021-10-21 15:40:52.828877,-36
2021-10-21 15:40:52.828887,-41
2021-10-21 15:40:52.828895,-55
2021-10-21 15:40:52.828904,-75
2021-10-21 15:40:52.828912,-75
2021-10-21 15:40:52.828920,-75
2021-10-21 15:40:52.828929,-82
2021-10-21 15:40:52.828937,-97
2021-10-21 15:40:52.828945,-111
2021-10-21 15:40:52.828953,-119
2021-10-21 15:40:52.828962,-116
2021-10-21 15:40:52.828970,-114
2021-10-21 15:40:52.828978,-114
2021-10-21 15:40:52.828986,-114
2021-10-21 15:40:52.828995,-116
2021-10-21 15:40:52.829003,-114
2021-10-21 15:40:52.829011,-97
2021-10-21 15:40:53.098695,-87
2021-10-21 15:40:53.098718,-90
2021-10-21 15:40:53.098727,-107
2021-10-21 15:40:53.098736,-133
2021-10-21 15:40:53.098744,-128
2021-10-21 15:40:53.098753,-107
2021-10-21 15:40:53.098761,-102
2021-10-21 15:40:53.098770,-99
2021-10-21 15:40:53.098778,-99
2021-10-21 15:40:53.098786,-111
2021-10-21 15:40:53.098795,-111
2021-10-21 15:40:53.098803,-97
2021-10-21 15:40:53.098811,-87
2021-10-21 15:40:53.098819,-87
2021-10-21 15:40:53.098828,-87
2021-10-21 15:40:53.098836,-92
2021-10-21 15:40:53.098844,-87
2021-10-21 15:40:53.098852,-80
2021-10-21 15:40:53.098861,-87
2021-10-21 15:40:53.098869,-94
2021-10-21 15:40:53.098877,-90
2021-10-21 15:40:53.098885,-90
2021-10-21 15:40:53.098893,-87
2021-10-21 15:40:53.098902,-75
2021-10-21 15:40:53.098910,-68
2021-10-21 15:40:53.098920,-65
2021-10-21 15:40:53.098929,-65
2021-10-21 15:40:53.098937,-70
2021-10-21 15:40:53.098945,-63
2021-10-21 15:40:53.098953,-51
2021-10-21 15:40:53.413001,-46
2021-10-21 15:40:53.413021,-43
2021-10-21 15:40:53.413031,-43
2021-10-21 15:40:53.413039,-51
2021-10-21 15:40:53.413048,-46
2021-10-21 15:40:53.413056,-36
2021-10-21 15:40:53.413065,-34
2021-10-21 15:40:53.413073,-36
2021-10-21 15:40:53.413081,-43
2021-10-21 15:40:53.413088,-46
2021-10-21 15:40:53.413096,-19
2021-10-21 15:40:53.413103,2
2021-10-21 15:40:53.413112,-7
2021-10-21 15:40:53.413120,-17
2021-10-21 15:40:53.413128,-26
2021-10-21 15:40:53.413137,-43
2021-10-21 15:40:53.413145,-43
2021-10-21 15:40:53.413153,-31
2021-10-21 15:40:53.413162,-29
2021-10-21 15:40:53.413170,-34
2021-10-21 15:40:53.413178,-41
2021-10-21 15:40:53.413187,-46
2021-10-21 15:40:53.413195,-38
2021-10-21 15:40:53.413203,-29
2021-10-21 15:40:53.413212,-36
2021-10-21 15:40:53.413220,-82
2021-10-21 15:40:53.413228,-155
2021-10-21 15:40:53.413236,-102
2021-10-21 15:40:53.413245,313
2021-10-21 15:40:53.413282,1102
2021-10-21 15:40:53.593721,1640
2021-10-21 15:40:53.593743,1112
2021-10-21 15:40:53.593753,48
2021-10-21 15:40:53.593762,-233
2021-10-21 15:40:53.593770,9
2021-10-21 15:40:53.593779,-75
2021-10-21 15:40:53.593787,-211
2021-10-21 15:40:53.593796,-141
2021-10-21 15:40:53.593804,-136
2021-10-21 15:40:53.593812,-180
2021-10-21 15:40:53.593821,-141
2021-10-21 15:40:53.593829,-104
2021-10-21 15:40:53.593837,-111
2021-10-21 15:40:53.593846,-111
2021-10-21 15:40:53.593854,-107
2021-10-21 15:40:53.593862,-107
2021-10-21 15:40:53.593875,-99
2021-10-21 15:40:53.593883,-82
2021-10-21 15:40:53.593892,-72
2021-10-21 15:40:53.593900,-72
2021-10-21 15:40:53.593909,-65
2021-10-21 15:40:53.593917,-60
2021-10-21 15:40:53.593925,-60
2021-10-21 15:40:53.593934,-60
2021-10-21 15:40:53.593942,-51
2021-10-21 15:40:53.593950,-51
2021-10-21 15:40:53.593959,-63
2021-10-21 15:40:53.593967,-65
2021-10-21 15:40:53.593975,-63
2021-10-21 15:40:53.593984,-72
2021-10-21 15:40:53.862407,-82
2021-10-21 15:40:53.862429,-85
2021-10-21 15:40:53.862439,-87
2021-10-21 15:40:53.862448,-97
2021-10-21 15:40:53.862457,-107
2021-10-21 15:40:53.862465,-109
2021-10-21 15:40:53.862474,-121
2021-10-21 15:40:53.862482,-143
2021-10-21 15:40:53.862490,-148
2021-10-21 15:40:53.862499,-145
2021-10-21 15:40:53.862507,-141
2021-10-21 15:40:53.862515,-133
2021-10-21 15:40:53.862524,-131
2021-10-21 15:40:53.862532,-128
2021-10-21 15:40:53.862541,-121
2021-10-21 15:40:53.862549,-111
2021-10-21 15:40:53.862557,-104
2021-10-21 15:40:53.862566,-97
2021-10-21 15:40:53.862574,-99
2021-10-21 15:40:53.862582,-109
2021-10-21 15:40:53.862590,-102
2021-10-21 15:40:53.862599,-92
2021-10-21 15:40:53.862607,-92
2021-10-21 15:40:53.862616,-87
2021-10-21 15:40:53.862624,-87
2021-10-21 15:40:53.862632,-92
2021-10-21 15:40:53.862640,-90
2021-10-21 15:40:53.862649,-85
2021-10-21 15:40:53.862657,-82
2021-10-21 15:40:53.862666,-75
2021-10-21 15:40:53.998702,-77
2021-10-21 15:40:53.998724,-77
2021-10-21 15:40:53.998734,-72
2021-10-21 15:40:53.998743,-75
2021-10-21 15:40:53.998752,-70
2021-10-21 15:40:53.998760,-65
2021-10-21 15:40:53.998769,-70
2021-10-21 15:40:53.998777,-70
2021-10-21 15:40:53.998785,-63
2021-10-21 15:40:53.998793,-60
2021-10-21 15:40:53.998802,-58
2021-10-21 15:40:53.998810,-55
2021-10-21 15:40:53.998818,-68
2021-10-21 15:40:53.998830,-87
2021-10-21 15:40:53.998839,-92
2021-10-21 15:40:53.998847,-82
2021-10-21 15:40:53.998855,-75
2021-10-21 15:40:53.998863,-75
2021-10-21 15:40:53.998872,-85
2021-10-21 15:40:53.998880,-80
2021-10-21 15:40:53.998888,-68
2021-10-21 15:40:53.998896,-68
2021-10-21 15:40:53.998904,-65
2021-10-21 15:40:53.998913,-63
2021-10-21 15:40:53.998921,-65
2021-10-21 15:40:53.998929,-58
2021-10-21 15:40:53.998937,-51
2021-10-21 15:40:53.998945,-41
2021-10-21 15:40:53.998954,-26
2021-10-21 15:40:53.998962,-29
2021-10-21 15:40:54.223735,-38
2021-10-21 15:40:54.223756,-36
2021-10-21 15:40:54.223765,-38
2021-10-21 15:40:54.223774,-48
2021-10-21 15:40:54.223782,-46
2021-10-21 15:40:54.223791,-51
2021-10-21 15:40:54.223799,-58
2021-10-21 15:40:54.223807,-48
2021-10-21 15:40:54.223816,-41
2021-10-21 15:40:54.223824,-46
2021-10-21 15:40:54.223833,-46
2021-10-21 15:40:54.223841,-65
2021-10-21 15:40:54.223849,-121
2021-10-21 15:40:54.223857,-175
2021-10-21 15:40:54.223866,-75
2021-10-21 15:40:54.223874,386
2021-10-21 15:40:54.223882,1177
2021-10-21 15:40:54.223891,1603
2021-10-21 15:40:54.223899,939
2021-10-21 15:40:54.223907,-55
2021-10-21 15:40:54.223915,-201
2021-10-21 15:40:54.223924,17
2021-10-21 15:40:54.223932,-116
2021-10-21 15:40:54.223940,-218
2021-10-21 15:40:54.223948,-128
2021-10-21 15:40:54.223957,-119
2021-10-21 15:40:54.223965,-148
2021-10-21 15:40:54.223973,-119
2021-10-21 15:40:54.223981,-107
2021-10-21 15:40:54.223990,-119
2021-10-21 15:40:54.448742,-102
2021-10-21 15:40:54.448764,-77
2021-10-21 15:40:54.448774,-75
2021-10-21 15:40:54.448783,-70
2021-10-21 15:40:54.448791,-65
2021-10-21 15:40:54.448800,-65
2021-10-21 15:40:54.448808,-55
2021-10-21 15:40:54.448817,-41
2021-10-21 15:40:54.448825,-36
2021-10-21 15:40:54.448833,-36
2021-10-21 15:40:54.448841,-48
2021-10-21 15:40:54.448850,-58
2021-10-21 15:40:54.448858,-55
2021-10-21 15:40:54.448866,-53
2021-10-21 15:40:54.448875,-53
2021-10-21 15:40:54.448883,-53
2021-10-21 15:40:54.448891,-58
2021-10-21 15:40:54.448903,-65
2021-10-21 15:40:54.448911,-70
2021-10-21 15:40:54.448919,-90
2021-10-21 15:40:54.448927,-107
2021-10-21 15:40:54.448936,-111
2021-10-21 15:40:54.448944,-116
2021-10-21 15:40:54.448952,-121
2021-10-21 15:40:54.448960,-121
2021-10-21 15:40:54.448969,-119
2021-10-21 15:40:54.448977,-119
2021-10-21 15:40:54.448985,-119
2021-10-21 15:40:54.448993,-119
2021-10-21 15:40:54.449002,-111
2021-10-21 15:40:54.763644,-107
2021-10-21 15:40:54.763666,-107
2021-10-21 15:40:54.763676,-99
2021-10-21 15:40:54.763684,-97
2021-10-21 15:40:54.763693,-107
2021-10-21 15:40:54.763701,-99
2021-10-21 15:40:54.763710,-82
2021-10-21 15:40:54.763718,-72
2021-10-21 15:40:54.763726,-75
2021-10-21 15:40:54.763734,-82
2021-10-21 15:40:54.763742,-87
2021-10-21 15:40:54.763751,-75
2021-10-21 15:40:54.763759,-65
2021-10-21 15:40:54.763768,-60
2021-10-21 15:40:54.763776,-63
2021-10-21 15:40:54.763784,-68
2021-10-21 15:40:54.763792,-68
2021-10-21 15:40:54.763800,-60
2021-10-21 15:40:54.763809,-51
2021-10-21 15:40:54.763817,-46
2021-10-21 15:40:54.763825,-48
2021-10-21 15:40:54.763833,-55
2021-10-21 15:40:54.763841,-51
2021-10-21 15:40:54.763850,-41
2021-10-21 15:40:54.763858,-36
2021-10-21 15:40:54.763866,-29
2021-10-21 15:40:54.763874,-24
2021-10-21 15:40:54.763882,-34
2021-10-21 15:40:54.763891,-36
2021-10-21 15:40:54.763899,-19
2021-10-21 15:40:54.943709,-9
2021-10-21 15:40:54.943731,-14
2021-10-21 15:40:54.943741,-24
2021-10-21 15:40:54.943749,-38
2021-10-21 15:40:54.943758,-38
2021-10-21 15:40:54.943766,-26
2021-10-21 15:40:54.943774,-21
2021-10-21 15:40:54.943783,-7
2021-10-21 15:40:54.943791,14
2021-10-21 15:40:54.943799,9
2021-10-21 15:40:54.943808,-7
2021-10-21 15:40:54.943816,2
2021-10-21 15:40:54.943824,7
2021-10-21 15:40:54.943833,-7
2021-10-21 15:40:54.943841,-17
2021-10-21 15:40:54.943849,-26
2021-10-21 15:40:54.943857,-34
2021-10-21 15:40:54.943866,-26
2021-10-21 15:40:54.943874,-19
2021-10-21 15:40:54.943882,-14
2021-10-21 15:40:54.943891,-19
2021-10-21 15:40:54.943899,-36
2021-10-21 15:40:54.943907,-46
2021-10-21 15:40:54.943915,-80
2021-10-21 15:40:54.943924,-128
2021-10-21 15:40:54.943932,-34
2021-10-21 15:40:54.943940,406
2021-10-21 15:40:54.943949,1116
2021-10-21 15:40:54.943957,1411
2021-10-21 15:40:54.943968,683
2021-10-21 15:40:55.168733,-197
2021-10-21 15:40:55.168756,-187
2021-10-21 15:40:55.168766,34
2021-10-21 15:40:55.168775,-131
2021-10-21 15:40:55.168783,-201
2021-10-21 15:40:55.168792,-109
2021-10-21 15:40:55.168800,-116
2021-10-21 15:40:55.168809,-138
2021-10-21 15:40:55.168817,-114
2021-10-21 15:40:55.168825,-111
2021-10-21 15:40:55.168834,-99
2021-10-21 15:40:55.168842,-72
2021-10-21 15:40:55.168850,-65
2021-10-21 15:40:55.168858,-63
2021-10-21 15:40:55.168866,-68
2021-10-21 15:40:55.168875,-70
2021-10-21 15:40:55.168883,-51
2021-10-21 15:40:55.168891,-31
2021-10-21 15:40:55.168900,-17
2021-10-21 15:40:55.168908,-9
2021-10-21 15:40:55.168916,-12
2021-10-21 15:40:55.168925,-9
2021-10-21 15:40:55.168933,2
2021-10-21 15:40:55.168941,4
2021-10-21 15:40:55.168950,0
2021-10-21 15:40:55.168958,-2
2021-10-21 15:40:55.168966,-17
2021-10-21 15:40:55.168974,-34
2021-10-21 15:40:55.168983,-31
2021-10-21 15:40:55.168991,-34
2021-10-21 15:40:55.438116,-48
2021-10-21 15:40:55.438138,-60
2021-10-21 15:40:55.438148,-80
2021-10-21 15:40:55.438156,-94
2021-10-21 15:40:55.438165,-97
2021-10-21 15:40:55.438173,-99
2021-10-21 15:40:55.438182,-114
2021-10-21 15:40:55.438190,-138
2021-10-21 15:40:55.438198,-145
2021-10-21 15:40:55.438207,-136
2021-10-21 15:40:55.438215,-121
2021-10-21 15:40:55.438223,-111
2021-10-21 15:40:55.438231,-107
2021-10-21 15:40:55.438240,-109
2021-10-21 15:40:55.438248,-109
2021-10-21 15:40:55.438256,-102
2021-10-21 15:40:55.438264,-90
2021-10-21 15:40:55.438273,-85
2021-10-21 15:40:55.438281,-75
2021-10-21 15:40:55.438289,-68
2021-10-21 15:40:55.438297,-68
2021-10-21 15:40:55.438306,-65
2021-10-21 15:40:55.438314,-53
2021-10-21 15:40:55.438322,-48
2021-10-21 15:40:55.438330,-46
2021-10-21 15:40:55.438338,-48
2021-10-21 15:40:55.438346,-53
2021-10-21 15:40:55.438355,-48
2021-10-21 15:40:55.438363,-43
2021-10-21 15:40:55.438371,-43
2021-10-21 15:40:55.618724,-58
2021-10-21 15:40:55.618745,-80
2021-10-21 15:40:55.618755,-75
2021-10-21 15:40:55.618764,-63
2021-10-21 15:40:55.618772,-63
2021-10-21 15:40:55.618781,-58
2021-10-21 15:40:55.618789,-58
2021-10-21 15:40:55.618797,-72
2021-10-21 15:40:55.618806,-80
2021-10-21 15:40:55.618814,-80
2021-10-21 15:40:55.618823,-72
2021-10-21 15:40:55.618831,-68
2021-10-21 15:40:55.618840,-70
2021-10-21 15:40:55.618848,-65
2021-10-21 15:40:55.618856,-46
2021-10-21 15:40:55.618865,-36
2021-10-21 15:40:55.618873,-43
2021-10-21 15:40:55.618882,-41
2021-10-21 15:40:55.618890,-46
2021-10-21 15:40:55.618898,-58
2021-10-21 15:40:55.618910,-58
2021-10-21 15:40:55.618918,-48
2021-10-21 15:40:55.618926,-48
2021-10-21 15:40:55.618935,-46
2021-10-21 15:40:55.618943,-41
2021-10-21 15:40:55.618951,-41
2021-10-21 15:40:55.618960,-38
2021-10-21 15:40:55.618968,-38
2021-10-21 15:40:55.618976,-55
2021-10-21 15:40:55.618985,-116
2021-10-21 15:40:55.932398,-150
2021-10-21 15:40:55.932420,51
2021-10-21 15:40:55.932430,647
2021-10-21 15:40:55.932439,1360
2021-10-21 15:40:55.932448,1374
2021-10-21 15:40:55.932456,433
2021-10-21 15:40:55.932465,-277
2021-10-21 15:40:55.932473,-116
2021-10-21 15:40:55.932481,9
2021-10-21 15:40:55.932490,-177
2021-10-21 15:40:55.932498,-189
2021-10-21 15:40:55.932506,-119
2021-10-21 15:40:55.932515,-160
2021-10-21 15:40:55.932523,-160
2021-10-21 15:40:55.932531,-109
2021-10-21 15:40:55.932540,-102
2021-10-21 15:40:55.932548,-102
2021-10-21 15:40:55.932556,-80
2021-10-21 15:40:55.932565,-72
2021-10-21 15:40:55.932573,-65
2021-10-21 15:40:55.932581,-48
2021-10-21 15:40:55.932589,-36
2021-10-21 15:40:55.932598,-26
2021-10-21 15:40:55.932606,-14
2021-10-21 15:40:55.932614,-9
2021-10-21 15:40:55.932622,-2
2021-10-21 15:40:55.932630,2
2021-10-21 15:40:55.932639,-2
2021-10-21 15:40:55.932647,-2
2021-10-21 15:40:55.932655,0
2021-10-21 15:40:56.068734,0
2021-10-21 15:40:56.068757,4
2021-10-21 15:40:56.068766,2
2021-10-21 15:40:56.068775,-9
2021-10-21 15:40:56.068784,-12
2021-10-21 15:40:56.068792,-24
2021-10-21 15:40:56.068801,-58
2021-10-21 15:40:56.068809,-80
2021-10-21 15:40:56.068818,-90
2021-10-21 15:40:56.068826,-102
2021-10-21 15:40:56.068834,-124
2021-10-21 15:40:56.068843,-148
2021-10-21 15:40:56.068851,-165
2021-10-21 15:40:56.068860,-170
2021-10-21 15:40:56.068868,-167
2021-10-21 15:40:56.068876,-160
2021-10-21 15:40:56.068884,-150
2021-10-21 15:40:56.068893,-150
2021-10-21 15:40:56.068901,-150
2021-10-21 15:40:56.068910,-138
2021-10-21 15:40:56.068918,-124
2021-10-21 15:40:56.068927,-121
2021-10-21 15:40:56.068935,-116
2021-10-21 15:40:56.068943,-111
2021-10-21 15:40:56.068952,-104
2021-10-21 15:40:56.068960,-94
2021-10-21 15:40:56.068969,-92
2021-10-21 15:40:56.068977,-90
2021-10-21 15:40:56.068986,-85
2021-10-21 15:40:56.068994,-85
2021-10-21 15:40:56.293736,-85
2021-10-21 15:40:56.293758,-80
2021-10-21 15:40:56.293768,-77
2021-10-21 15:40:56.293777,-77
2021-10-21 15:40:56.293785,-82
2021-10-21 15:40:56.293794,-94
2021-10-21 15:40:56.293802,-90
2021-10-21 15:40:56.293810,-80
2021-10-21 15:40:56.293819,-77
2021-10-21 15:40:56.293827,-80
2021-10-21 15:40:56.293835,-87
2021-10-21 15:40:56.293844,-92
2021-10-21 15:40:56.293852,-82
2021-10-21 15:40:56.293860,-68
2021-10-21 15:40:56.293869,-77
2021-10-21 15:40:56.293877,-97
2021-10-21 15:40:56.293885,-97
2021-10-21 15:40:56.293894,-82
2021-10-21 15:40:56.293902,-68
2021-10-21 15:40:56.293910,-41
2021-10-21 15:40:56.293918,-26
2021-10-21 15:40:56.293927,-34
2021-10-21 15:40:56.293941,-41
2021-10-21 15:40:56.293949,-38
2021-10-21 15:40:56.293957,-43
2021-10-21 15:40:56.293966,-48
2021-10-21 15:40:56.293974,-46
2021-10-21 15:40:56.293982,-46
2021-10-21 15:40:56.293990,-48
2021-10-21 15:40:56.293999,-38
2021-10-21 15:40:56.518731,-31
2021-10-21 15:40:56.518753,-31
2021-10-21 15:40:56.518762,-31
2021-10-21 15:40:56.518771,-51
2021-10-21 15:40:56.518779,-104
2021-10-21 15:40:56.518788,-165
2021-10-21 15:40:56.518796,-99
2021-10-21 15:40:56.518805,294
2021-10-21 15:40:56.518813,1060
2021-10-21 15:40:56.518822,1637
2021-10-21 15:40:56.518830,1153
2021-10-21 15:40:56.518838,48
2021-10-21 15:40:56.518847,-287
2021-10-21 15:40:56.518855,-43
2021-10-21 15:40:56.518863,-119
2021-10-21 15:40:56.518872,-262
2021-10-21 15:40:56.518880,-197
2021-10-21 15:40:56.518888,-177
2021-10-21 15:40:56.518896,-214
2021-10-21 15:40:56.518905,-175
2021-10-21 15:40:56.518913,-143
2021-10-21 15:40:56.518921,-155
2021-10-21 15:40:56.518929,-143
2021-10-21 15:40:56.518938,-114
2021-10-21 15:40:56.518946,-102
2021-10-21 15:40:56.518954,-90
2021-10-21 15:40:56.518963,-70
2021-10-21 15:40:56.518971,-65
2021-10-21 15:40:56.518980,-63
2021-10-21 15:40:56.518988,-46
2021-10-21 15:40:56.788655,-29
2021-10-21 15:40:56.788675,-17
2021-10-21 15:40:56.788684,-19
2021-10-21 15:40:56.788693,-31
2021-10-21 15:40:56.788702,-31
2021-10-21 15:40:56.788710,-14
2021-10-21 15:40:56.788719,-7
2021-10-21 15:40:56.788727,-7
2021-10-21 15:40:56.788735,-19
2021-10-21 15:40:56.788743,-41
2021-10-21 15:40:56.788752,-48
2021-10-21 15:40:56.788760,-46
2021-10-21 15:40:56.788768,-60
2021-10-21 15:40:56.788777,-72
2021-10-21 15:40:56.788785,-77
2021-10-21 15:40:56.788793,-92
2021-10-21 15:40:56.788802,-104
2021-10-21 15:40:56.788810,-97
2021-10-21 15:40:56.788818,-97
2021-10-21 15:40:56.788826,-111
2021-10-21 15:40:56.788834,-111
2021-10-21 15:40:56.788843,-104
2021-10-21 15:40:56.788851,-107
2021-10-21 15:40:56.788859,-104
2021-10-21 15:40:56.788868,-94
2021-10-21 15:40:56.788876,-94
2021-10-21 15:40:56.788884,-102
2021-10-21 15:40:56.788892,-102
2021-10-21 15:40:56.788901,-97
2021-10-21 15:40:56.788909,-85
2021-10-21 15:40:57.058762,-80
2021-10-21 15:40:57.058785,-77
2021-10-21 15:40:57.058794,-77
2021-10-21 15:40:57.058803,-77
2021-10-21 15:40:57.058812,-72
2021-10-21 15:40:57.058820,-65
2021-10-21 15:40:57.058829,-60
2021-10-21 15:40:57.058837,-60
2021-10-21 15:40:57.058845,-75
2021-10-21 15:40:57.058853,-87
2021-10-21 15:40:57.058862,-77
2021-10-21 15:40:57.058870,-65
2021-10-21 15:40:57.058879,-65
2021-10-21 15:40:57.058887,-65
2021-10-21 15:40:57.058895,-72
2021-10-21 15:40:57.058904,-82
2021-10-21 15:40:57.058912,-75
2021-10-21 15:40:57.058920,-77
2021-10-21 15:40:57.058928,-92
2021-10-21 15:40:57.058937,-82
2021-10-21 15:40:57.058945,-80
2021-10-21 15:40:57.058953,-97
2021-10-21 15:40:57.058962,-85
2021-10-21 15:40:57.058970,-48
2021-10-21 15:40:57.058978,-26
2021-10-21 15:40:57.058987,-29
2021-10-21 15:40:57.058995,-43
2021-10-21 15:40:57.059003,-43
2021-10-21 15:40:57.059012,-38
2021-10-21 15:40:57.059020,-46
2021-10-21 15:40:57.238736,-41
2021-10-21 15:40:57.238758,-34
2021-10-21 15:40:57.238767,-41
2021-10-21 15:40:57.238776,-43
2021-10-21 15:40:57.238784,-34
2021-10-21 15:40:57.238796,-24
2021-10-21 15:40:57.238805,-26
2021-10-21 15:40:57.238813,-31
2021-10-21 15:40:57.238821,-51
2021-10-21 15:40:57.238829,-109
2021-10-21 15:40:57.238838,-133
2021-10-21 15:40:57.238846,65
2021-10-21 15:40:57.238855,635
2021-10-21 15:40:57.238863,1318
2021-10-21 15:40:57.238871,1328
2021-10-21 15:40:57.238880,420
2021-10-21 15:40:57.238888,-253
2021-10-21 15:40:57.238896,-90
2021-10-21 15:40:57.238905,12
2021-10-21 15:40:57.238913,-175
2021-10-21 15:40:57.238921,-153
2021-10-21 15:40:57.238930,-70
2021-10-21 15:40:57.238938,-114
2021-10-21 15:40:57.238946,-114
2021-10-21 15:40:57.238955,-60
2021-10-21 15:40:57.238963,-48
2021-10-21 15:40:57.238971,-63
2021-10-21 15:40:57.238980,-51
2021-10-21 15:40:57.238988,-24
2021-10-21 15:40:57.238996,0
2021-10-21 15:40:57.463773,24
2021-10-21 15:40:57.463794,29
2021-10-21 15:40:57.463804,29
2021-10-21 15:40:57.463812,51
2021-10-21 15:40:57.463821,63
2021-10-21 15:40:57.463829,68
2021-10-21 15:40:57.463838,72
2021-10-21 15:40:57.463847,68
2021-10-21 15:40:57.463855,63
2021-10-21 15:40:57.463863,72
2021-10-21 15:40:57.463872,80
2021-10-21 15:40:57.463880,80
2021-10-21 15:40:57.463889,60
2021-10-21 15:40:57.463897,34
2021-10-21 15:40:57.463906,26
2021-10-21 15:40:57.463914,26
2021-10-21 15:40:57.463923,9
2021-10-21 15:40:57.463931,-14
2021-10-21 15:40:57.463939,-26
2021-10-21 15:40:57.463948,-14
2021-10-21 15:40:57.463956,-34
2021-10-21 15:40:57.463964,-75
2021-10-21 15:40:57.463973,-63
2021-10-21 15:40:57.463981,-70
2021-10-21 15:40:57.463990,-116
2021-10-21 15:40:57.463998,-97
2021-10-21 15:40:57.464006,-60
2021-10-21 15:40:57.464015,-75
2021-10-21 15:40:57.464023,-80
2021-10-21 15:40:57.464031,-65
2021-10-21 15:40:57.688752,-63
2021-10-21 15:40:57.688774,-58
2021-10-21 15:40:57.688784,-48
2021-10-21 15:40:57.688792,-53
2021-10-21 15:40:57.688801,-53
2021-10-21 15:40:57.688809,-36
2021-10-21 15:40:57.688817,-46
2021-10-21 15:40:57.688826,-70
2021-10-21 15:40:57.688834,-77
2021-10-21 15:40:57.688842,-53
2021-10-21 15:40:57.688851,-51
2021-10-21 15:40:57.688859,-94
2021-10-21 15:40:57.688867,-109
2021-10-21 15:40:57.688876,-82
2021-10-21 15:40:57.688884,-82
2021-10-21 15:40:57.688892,-85
2021-10-21 15:40:57.688901,-72
2021-10-21 15:40:57.688909,-72
2021-10-21 15:40:57.688917,-80
2021-10-21 15:40:57.688925,-72
2021-10-21 15:40:57.688934,-65
2021-10-21 15:40:57.688942,-68
2021-10-21 15:40:57.688950,-65
2021-10-21 15:40:57.688959,-60
2021-10-21 15:40:57.688967,-60
2021-10-21 15:40:57.688975,-58
2021-10-21 15:40:57.688983,-60
2021-10-21 15:40:57.688991,-65
2021-10-21 15:40:57.689000,-43
2021-10-21 15:40:57.689008,-29
2021-10-21 15:40:58.002389,-46
2021-10-21 15:40:58.002411,-43
2021-10-21 15:40:58.002421,-43
2021-10-21 15:40:58.002430,-65
2021-10-21 15:40:58.002438,-55
2021-10-21 15:40:58.002446,-53
2021-10-21 15:40:58.002455,-92
2021-10-21 15:40:58.002463,-90
2021-10-21 15:40:58.002471,-46
2021-10-21 15:40:58.002480,-19
2021-10-21 15:40:58.002488,-12
2021-10-21 15:40:58.002496,-34
2021-10-21 15:40:58.002504,-85
2021-10-21 15:40:58.002513,-111
2021-10-21 15:40:58.002521,-60
2021-10-21 15:40:58.002529,199
2021-10-21 15:40:58.002538,771
2021-10-21 15:40:58.002546,1304
2021-10-21 15:40:58.002554,1051
2021-10-21 15:40:58.002563,197
2021-10-21 15:40:58.002571,-160
2021-10-21 15:40:58.002579,-12
2021-10-21 15:40:58.002588,-58
2021-10-21 15:40:58.002596,-182
2021-10-21 15:40:58.002604,-136
2021-10-21 15:40:58.002613,-104
2021-10-21 15:40:58.002621,-136
2021-10-21 15:40:58.002629,-124
2021-10-21 15:40:58.002638,-109
2021-10-21 15:40:58.002646,-133
2021-10-21 15:40:58.183756,-133
2021-10-21 15:40:58.183785,-111
2021-10-21 15:40:58.183795,-104
2021-10-21 15:40:58.183804,-102
2021-10-21 15:40:58.183812,-104
2021-10-21 15:40:58.183821,-109
2021-10-21 15:40:58.183829,-92
2021-10-21 15:40:58.183837,-65
2021-10-21 15:40:58.183846,-58
2021-10-21 15:40:58.183854,-60
2021-10-21 15:40:58.183863,-53
2021-10-21 15:40:58.183871,-36
2021-10-21 15:40:58.183879,-17
2021-10-21 15:40:58.183888,-7
2021-10-21 15:40:58.183896,-9
2021-10-21 15:40:58.183904,-12
2021-10-21 15:40:58.183913,-24
2021-10-21 15:40:58.183921,-41
2021-10-21 15:40:58.183929,-46
2021-10-21 15:40:58.183938,-51
2021-10-21 15:40:58.183946,-65
2021-10-21 15:40:58.183955,-82
2021-10-21 15:40:58.183963,-97
2021-10-21 15:40:58.183971,-99
2021-10-21 15:40:58.183980,-92
2021-10-21 15:40:58.183988,-94
2021-10-21 15:40:58.183996,-104
2021-10-21 15:40:58.184005,-107
2021-10-21 15:40:58.184013,-94
2021-10-21 15:40:58.184021,-82
2021-10-21 15:40:58.408771,-75
2021-10-21 15:40:58.408795,-77
2021-10-21 15:40:58.408804,-75
2021-10-21 15:40:58.408813,-68
2021-10-21 15:40:58.408822,-58
2021-10-21 15:40:58.408830,-48
2021-10-21 15:40:58.408838,-41
2021-10-21 15:40:58.408846,-41
2021-10-21 15:40:58.408855,-43
2021-10-21 15:40:58.408863,-58
2021-10-21 15:40:58.408872,-68
2021-10-21 15:40:58.408880,-58
2021-10-21 15:40:58.408888,-43
2021-10-21 15:40:58.408897,-41
2021-10-21 15:40:58.408905,-43
2021-10-21 15:40:58.408913,-51
2021-10-21 15:40:58.408921,-58
2021-10-21 15:40:58.408930,-51
2021-10-21 15:40:58.408938,-43
2021-10-21 15:40:58.408946,-43
2021-10-21 15:40:58.408954,-53
2021-10-21 15:40:58.408962,-65
2021-10-21 15:40:58.408970,-70
2021-10-21 15:40:58.408979,-68
2021-10-21 15:40:58.408987,-53
2021-10-21 15:40:58.408995,-38
2021-10-21 15:40:58.409003,-38
2021-10-21 15:40:58.409011,-51
2021-10-21 15:40:58.409019,-55
2021-10-21 15:40:58.409027,-60
2021-10-21 15:40:58.678771,-70
2021-10-21 15:40:58.678794,-68
2021-10-21 15:40:58.678804,-65
2021-10-21 15:40:58.678813,-97
2021-10-21 15:40:58.678821,-121
2021-10-21 15:40:58.678829,-104
2021-10-21 15:40:58.678838,-85
2021-10-21 15:40:58.678846,-87
2021-10-21 15:40:58.678854,-104
2021-10-21 15:40:58.678862,-145
2021-10-21 15:40:58.678871,-184
2021-10-21 15:40:58.678879,-85
2021-10-21 15:40:58.678887,321
2021-10-21 15:40:58.678895,956
2021-10-21 15:40:58.678904,1233
2021-10-21 15:40:58.678912,583
2021-10-21 15:40:58.678920,-255
2021-10-21 15:40:58.678928,-253
2021-10-21 15:40:58.678937,17
2021-10-21 15:40:58.678945,-104
2021-10-21 15:40:58.678953,-184
2021-10-21 15:40:58.678961,-99
2021-10-21 15:40:58.678970,-99
2021-10-21 15:40:58.678978,-119
2021-10-21 15:40:58.678986,-77
2021-10-21 15:40:58.678994,-51
2021-10-21 15:40:58.679003,-48
2021-10-21 15:40:58.679011,-43
2021-10-21 15:40:58.679019,-36
2021-10-21 15:40:58.679027,-24
2021-10-21 15:40:58.858819,-17
2021-10-21 15:40:58.858838,-7
2021-10-21 15:40:58.858848,-2
2021-10-21 15:40:58.858856,-2
2021-10-21 15:40:58.858865,4
2021-10-21 15:40:58.858873,7
2021-10-21 15:40:58.858882,4
2021-10-21 15:40:58.858890,9
2021-10-21 15:40:58.858899,4
2021-10-21 15:40:58.858907,-9
2021-10-21 15:40:58.858915,-4
2021-10-21 15:40:58.858924,2
2021-10-21 15:40:58.858932,-7
2021-10-21 15:40:58.858940,-14
2021-10-21 15:40:58.858949,-24
2021-10-21 15:40:58.858957,-38
2021-10-21 15:40:58.858965,-53
2021-10-21 15:40:58.858973,-63
2021-10-21 15:40:58.858982,-72
2021-10-21 15:40:58.858990,-82
2021-10-21 15:40:58.858998,-104
2021-10-21 15:40:58.859006,-126
2021-10-21 15:40:58.859014,-119
2021-10-21 15:40:58.859023,-109
2021-10-21 15:40:58.859031,-109
2021-10-21 15:40:58.859039,-109
2021-10-21 15:40:58.859047,-109
2021-10-21 15:40:58.859056,-104
2021-10-21 15:40:58.859064,-97
2021-10-21 15:40:58.859072,-87
2021-10-21 15:40:59.083745,-80
2021-10-21 15:40:59.083767,-82
2021-10-21 15:40:59.083777,-85
2021-10-21 15:40:59.083785,-80
2021-10-21 15:40:59.083794,-72
2021-10-21 15:40:59.083802,-63
2021-10-21 15:40:59.083810,-63
2021-10-21 15:40:59.083819,-80
2021-10-21 15:40:59.083827,-104
2021-10-21 15:40:59.083835,-119
2021-10-21 15:40:59.083844,-126
2021-10-21 15:40:59.083856,-133
2021-10-21 15:40:59.083864,-128
2021-10-21 15:40:59.083873,-136
2021-10-21 15:40:59.083881,-158
2021-10-21 15:40:59.083889,-158
2021-10-21 15:40:59.083898,-131
2021-10-21 15:40:59.083906,-111
2021-10-21 15:40:59.083914,-107
2021-10-21 15:40:59.083922,-114
2021-10-21 15:40:59.083931,-124
2021-10-21 15:40:59.083939,-131
2021-10-21 15:40:59.083947,-133
2021-10-21 15:40:59.083955,-131
2021-10-21 15:40:59.083964,-128
2021-10-21 15:40:59.083972,-136
2021-10-21 15:40:59.083980,-143
2021-10-21 15:40:59.083989,-143
2021-10-21 15:40:59.083997,-145
2021-10-21 15:40:59.084005,-150
2021-10-21 15:40:59.308701,-158
2021-10-21 15:40:59.308722,-197
2021-10-21 15:40:59.308731,-274
2021-10-21 15:40:59.308740,-262
2021-10-21 15:40:59.308748,102
2021-10-21 15:40:59.308757,905
2021-10-21 15:40:59.308765,1567
2021-10-21 15:40:59.308773,1153
2021-10-21 15:40:59.308781,24
2021-10-21 15:40:59.308789,-394
2021-10-21 15:40:59.308798,-155
2021-10-21 15:40:59.308806,-204
2021-10-21 15:40:59.308814,-369
2021-10-21 15:40:59.308823,-311
2021-10-21 15:40:59.308831,-270
2021-10-21 15:40:59.308839,-301
2021-10-21 15:40:59.308847,-274
2021-10-21 15:40:59.308855,-236
2021-10-21 15:40:59.308864,-240
2021-10-21 15:40:59.308872,-236
2021-10-21 15:40:59.308880,-216
2021-10-21 15:40:59.308888,-206
2021-10-21 15:40:59.308896,-197
2021-10-21 15:40:59.308905,-180
2021-10-21 15:40:59.308913,-170
2021-10-21 15:40:59.308921,-163
2021-10-21 15:40:59.308929,-150
2021-10-21 15:40:59.308938,-141
2021-10-21 15:40:59.308946,-131
2021-10-21 15:40:59.308954,-119
2021-10-21 15:40:59.533782,-111
2021-10-21 15:40:59.533804,-109
2021-10-21 15:40:59.533814,-102
2021-10-21 15:40:59.533822,-102
2021-10-21 15:40:59.533831,-104
2021-10-21 15:40:59.533839,-107
2021-10-21 15:40:59.533847,-126
2021-10-21 15:40:59.533856,-145
2021-10-21 15:40:59.533864,-145
2021-10-21 15:40:59.533873,-153
2021-10-21 15:40:59.533881,-167
2021-10-21 15:40:59.533890,-184
2021-10-21 15:40:59.533898,-209
2021-10-21 15:40:59.533906,-216
2021-10-21 15:40:59.533915,-209
2021-10-21 15:40:59.533923,-221
2021-10-21 15:40:59.533931,-238
2021-10-21 15:40:59.533940,-228
2021-10-21 15:40:59.533948,-218
2021-10-21 15:40:59.533957,-214
2021-10-21 15:40:59.533965,-204
2021-10-21 15:40:59.533973,-197
2021-10-21 15:40:59.533982,-194
2021-10-21 15:40:59.533990,-184
2021-10-21 15:40:59.533998,-182
2021-10-21 15:40:59.534007,-175
2021-10-21 15:40:59.534015,-165
2021-10-21 15:40:59.534023,-167
2021-10-21 15:40:59.534032,-170
2021-10-21 15:40:59.534040,-163
2021-10-21 15:40:59.758781,-160
2021-10-21 15:40:59.758803,-155
2021-10-21 15:40:59.758813,-150
2021-10-21 15:40:59.758821,-150
2021-10-21 15:40:59.758830,-145
2021-10-21 15:40:59.758838,-150
2021-10-21 15:40:59.758846,-163
2021-10-21 15:40:59.758855,-160
2021-10-21 15:40:59.758863,-158
2021-10-21 15:40:59.758871,-163
2021-10-21 15:40:59.758880,-165
2021-10-21 15:40:59.758888,-160
2021-10-21 15:40:59.758896,-155
2021-10-21 15:40:59.758905,-148
2021-10-21 15:40:59.758913,-153
2021-10-21 15:40:59.758921,-158
2021-10-21 15:40:59.758929,-160
2021-10-21 15:40:59.758938,-172
2021-10-21 15:40:59.758946,-180
2021-10-21 15:40:59.758954,-170
2021-10-21 15:40:59.758963,-170
2021-10-21 15:40:59.758971,-175
2021-10-21 15:40:59.758979,-170
2021-10-21 15:40:59.758987,-167
2021-10-21 15:40:59.758996,-167
2021-10-21 15:40:59.759004,-160
2021-10-21 15:40:59.759012,-170
2021-10-21 15:40:59.759021,-216
2021-10-21 15:40:59.759029,-265
2021-10-21 15:40:59.759037,-163
2021-10-21 15:41:00.027510,279
2021-10-21 15:41:00.027533,985
2021-10-21 15:41:00.027542,1318
2021-10-21 15:41:00.027551,644
2021-10-21 15:41:00.027560,-289
2021-10-21 15:41:00.027568,-369
2021-10-21 15:41:00.027577,-141
2021-10-21 15:41:00.027585,-277
2021-10-21 15:41:00.027594,-369
2021-10-21 15:41:00.027602,-287
2021-10-21 15:41:00.027610,-291
2021-10-21 15:41:00.027619,-330
2021-10-21 15:41:00.027627,-289
2021-10-21 15:41:00.027635,-257
2021-10-21 15:41:00.027644,-267
2021-10-21 15:41:00.027652,-265
2021-10-21 15:41:00.027660,-260
2021-10-21 15:41:00.027669,-250
2021-10-21 15:41:00.027677,-231
2021-10-21 15:41:00.027685,-214
2021-10-21 15:41:00.027694,-209
2021-10-21 15:41:00.027702,-221
2021-10-21 15:41:00.027710,-233
2021-10-21 15:41:00.027719,-218
2021-10-21 15:41:00.027727,-199
2021-10-21 15:41:00.027735,-194
2021-10-21 15:41:00.027743,-192
2021-10-21 15:41:00.027752,-189
2021-10-21 15:41:00.027760,-189
2021-10-21 15:41:00.027768,-189
2021-10-21 15:41:00.208790,-182
2021-10-21 15:41:00.208813,-180
2021-10-21 15:41:00.208823,-187
2021-10-21 15:41:00.208831,-199
2021-10-21 15:41:00.208840,-216
2021-10-21 15:41:00.208848,-226
2021-10-21 15:41:00.208857,-221
2021-10-21 15:41:00.208865,-221
2021-10-21 15:41:00.208895,-228
2021-10-21 15:41:00.208904,-243
2021-10-21 15:41:00.208913,-260
2021-10-21 15:41:00.208921,-255
2021-10-21 15:41:00.208929,-236
2021-10-21 15:41:00.208938,-223
2021-10-21 15:41:00.208946,-216
2021-10-21 15:41:00.208954,-214
2021-10-21 15:41:00.208962,-211
2021-10-21 15:41:00.208971,-211
2021-10-21 15:41:00.208979,-211
2021-10-21 15:41:00.208987,-201
2021-10-21 15:41:00.208995,-192
2021-10-21 15:41:00.209004,-192
2021-10-21 15:41:00.209012,-189
2021-10-21 15:41:00.209020,-180
2021-10-21 15:41:00.209028,-170
2021-10-21 15:41:00.209036,-165
2021-10-21 15:41:00.209045,-158
2021-10-21 15:41:00.209053,-163
2021-10-21 15:41:00.209061,-167
2021-10-21 15:41:00.209069,-158
2021-10-21 15:41:00.478818,-153
2021-10-21 15:41:00.478840,-153
2021-10-21 15:41:00.478850,-160
2021-10-21 15:41:00.478859,-177
2021-10-21 15:41:00.478867,-184
2021-10-21 15:41:00.478875,-172
2021-10-21 15:41:00.478884,-167
2021-10-21 15:41:00.478892,-167
2021-10-21 15:41:00.478900,-167
2021-10-21 15:41:00.478908,-170
2021-10-21 15:41:00.478917,-155
2021-10-21 15:41:00.478925,-128
2021-10-21 15:41:00.478933,-124
2021-10-21 15:41:00.478941,-131
2021-10-21 15:41:00.478950,-133
2021-10-21 15:41:00.478958,-148
2021-10-21 15:41:00.478966,-155
2021-10-21 15:41:00.478974,-145
2021-10-21 15:41:00.478983,-138
2021-10-21 15:41:00.478991,-148
2021-10-21 15:41:00.478999,-158
2021-10-21 15:41:00.479007,-160
2021-10-21 15:41:00.479016,-153
2021-10-21 15:41:00.479024,-145
2021-10-21 15:41:00.479032,-160
2021-10-21 15:41:00.479040,-211
2021-10-21 15:41:00.479049,-272
2021-10-21 15:41:00.479057,-189
2021-10-21 15:41:00.479065,255
2021-10-21 15:41:00.479074,1007
2021-10-21 15:41:00.703778,1369
2021-10-21 15:41:00.703800,686
2021-10-21 15:41:00.703810,-236
2021-10-21 15:41:00.703818,-299
2021-10-21 15:41:00.703827,-97
2021-10-21 15:41:00.703835,-253
2021-10-21 15:41:00.703843,-338
2021-10-21 15:41:00.703852,-253
2021-10-21 15:41:00.703860,-270
2021-10-21 15:41:00.703868,-316
2021-10-21 15:41:00.703876,-274
2021-10-21 15:41:00.703885,-238
2021-10-21 15:41:00.703893,-243
2021-10-21 15:41:00.703901,-233
2021-10-21 15:41:00.703910,-231
2021-10-21 15:41:00.703918,-238
2021-10-21 15:41:00.703926,-216
2021-10-21 15:41:00.703934,-192
2021-10-21 15:41:00.703943,-187
2021-10-21 15:41:00.703951,-180
2021-10-21 15:41:00.703959,-177
2021-10-21 15:41:00.703967,-184
2021-10-21 15:41:00.703976,-184
2021-10-21 15:41:00.703984,-170
2021-10-21 15:41:00.703992,-160
2021-10-21 15:41:00.704000,-163
2021-10-21 15:41:00.704009,-170
2021-10-21 15:41:00.704017,-170
2021-10-21 15:41:00.704025,-165
2021-10-21 15:41:00.704033,-163
2021-10-21 15:41:00.928818,-163
2021-10-21 15:41:00.928840,-160
2021-10-21 15:41:00.928850,-163
2021-10-21 15:41:00.928859,-167
2021-10-21 15:41:00.928868,-158
2021-10-21 15:41:00.928876,-148
2021-10-21 15:41:00.928885,-148
2021-10-21 15:41:00.928893,-158
2021-10-21 15:41:00.928902,-172
2021-10-21 15:41:00.928910,-172
2021-10-21 15:41:00.928918,-155
2021-10-21 15:41:00.928927,-141
2021-10-21 15:41:00.928935,-136
2021-10-21 15:41:00.928943,-136
2021-10-21 15:41:00.928952,-143
2021-10-21 15:41:00.928960,-141
2021-10-21 15:41:00.928968,-133
2021-10-21 15:41:00.928976,-128
2021-10-21 15:41:00.928985,-126
2021-10-21 15:41:00.928993,-124
2021-10-21 15:41:00.929001,-119
2021-10-21 15:41:00.929010,-119
2021-10-21 15:41:00.929018,-119
2021-10-21 15:41:00.929026,-126
2021-10-21 15:41:00.929035,-133
2021-10-21 15:41:00.929043,-131
2021-10-21 15:41:00.929051,-131
2021-10-21 15:41:00.929059,-138
2021-10-21 15:41:00.929068,-131
2021-10-21 15:41:00.929076,-121
2021-10-21 15:41:01.153792,-119
2021-10-21 15:41:01.153814,-121
2021-10-21 15:41:01.153823,-136
2021-10-21 15:41:01.153832,-148
2021-10-21 15:41:01.153841,-141
2021-10-21 15:41:01.153849,-138
2021-10-21 15:41:01.153858,-153
2021-10-21 15:41:01.153866,-160
2021-10-21 15:41:01.153875,-153
2021-10-21 15:41:01.153884,-148
2021-10-21 15:41:01.153892,-145
2021-10-21 15:41:01.153901,-136
2021-10-21 15:41:01.153909,-133
2021-10-21 15:41:01.153917,-138
2021-10-21 15:41:01.153926,-121
2021-10-21 15:41:01.153934,-94
2021-10-21 15:41:01.153943,-87
2021-10-21 15:41:01.153951,-90
2021-10-21 15:41:01.153959,-97
2021-10-21 15:41:01.153968,-109
2021-10-21 15:41:01.153976,-116
2021-10-21 15:41:01.153985,-116
2021-10-21 15:41:01.153993,-109
2021-10-21 15:41:01.154001,-97
2021-10-21 15:41:01.154010,-90
2021-10-21 15:41:01.154018,-97
2021-10-21 15:41:01.154026,-107
2021-10-21 15:41:01.154035,-99
2021-10-21 15:41:01.154043,-99
2021-10-21 15:41:01.154051,-138
2021-10-21 15:41:01.378842,-194
2021-10-21 15:41:01.378864,-165
2021-10-21 15:41:01.378874,119
2021-10-21 15:41:01.378882,720
2021-10-21 15:41:01.378891,1250
2021-10-21 15:41:01.378899,953
2021-10-21 15:41:01.378907,12
2021-10-21 15:41:01.378916,-338
2021-10-21 15:41:01.378924,-72
2021-10-21 15:41:01.378932,-94
2021-10-21 15:41:01.378941,-260
2021-10-21 15:41:01.378949,-204
2021-10-21 15:41:01.378958,-175
2021-10-21 15:41:01.378966,-228
2021-10-21 15:41:01.378974,-209
2021-10-21 15:41:01.378982,-167
2021-10-21 15:41:01.378990,-165
2021-10-21 15:41:01.378999,-155
2021-10-21 15:41:01.379007,-143
2021-10-21 15:41:01.379015,-138
2021-10-21 15:41:01.379024,-116
2021-10-21 15:41:01.379032,-97
2021-10-21 15:41:01.379040,-90
2021-10-21 15:41:01.379055,-87
2021-10-21 15:41:01.379063,-87
2021-10-21 15:41:01.379071,-77
2021-10-21 15:41:01.379080,-68
2021-10-21 15:41:01.379088,-80
2021-10-21 15:41:01.379096,-90
2021-10-21 15:41:01.379104,-77
2021-10-21 15:41:01.603802,-80
2021-10-21 15:41:01.603825,-90
2021-10-21 15:41:01.603834,-85
2021-10-21 15:41:01.603843,-85
2021-10-21 15:41:01.603852,-92
2021-10-21 15:41:01.603860,-97
2021-10-21 15:41:01.603869,-109
2021-10-21 15:41:01.603877,-114
2021-10-21 15:41:01.603886,-119
2021-10-21 15:41:01.603894,-126
2021-10-21 15:41:01.603903,-126
2021-10-21 15:41:01.603911,-133
2021-10-21 15:41:01.603919,-143
2021-10-21 15:41:01.603928,-136
2021-10-21 15:41:01.603936,-131
2021-10-21 15:41:01.603944,-128
2021-10-21 15:41:01.603953,-119
2021-10-21 15:41:01.603961,-109
2021-10-21 15:41:01.603969,-104
2021-10-21 15:41:01.603978,-94
2021-10-21 15:41:01.603986,-85
2021-10-21 15:41:01.603994,-82
2021-10-21 15:41:01.604003,-82
2021-10-21 15:41:01.604011,-77
2021-10-21 15:41:01.604019,-72
2021-10-21 15:41:01.604028,-68
2021-10-21 15:41:01.604036,-63
2021-10-21 15:41:01.604044,-65
2021-10-21 15:41:01.604053,-63
2021-10-21 15:41:01.604061,-65
2021-10-21 15:41:01.828794,-75
2021-10-21 15:41:01.828815,-70
2021-10-21 15:41:01.828825,-60
2021-10-21 15:41:01.828834,-65
2021-10-21 15:41:01.828842,-75
2021-10-21 15:41:01.828851,-85
2021-10-21 15:41:01.828859,-77
2021-10-21 15:41:01.828868,-68
2021-10-21 15:41:01.828876,-68
2021-10-21 15:41:01.828885,-68
2021-10-21 15:41:01.828893,-68
2021-10-21 15:41:01.828901,-72
2021-10-21 15:41:01.828910,-68
2021-10-21 15:41:01.828918,-58
2021-10-21 15:41:01.828927,-46
2021-10-21 15:41:01.828936,-26
2021-10-21 15:41:01.828944,-19
2021-10-21 15:41:01.828952,-26
2021-10-21 15:41:01.828961,-29
2021-10-21 15:41:01.828969,-26
2021-10-21 15:41:01.828977,-36
2021-10-21 15:41:01.828986,-43
2021-10-21 15:41:01.828994,-41
2021-10-21 15:41:01.829003,-41
2021-10-21 15:41:01.829011,-38
2021-10-21 15:41:01.829019,-38
2021-10-21 15:41:01.829027,-46
2021-10-21 15:41:01.829036,-43
2021-10-21 15:41:01.829044,-43
2021-10-21 15:41:01.829053,-58
2021-10-21 15:41:02.142448,-104
2021-10-21 15:41:02.142470,-143
2021-10-21 15:41:02.142480,-4
2021-10-21 15:41:02.142489,476
2021-10-21 15:41:02.142497,1104
2021-10-21 15:41:02.142506,1172
2021-10-21 15:41:02.142514,347
2021-10-21 15:41:02.142523,-335
2021-10-21 15:41:02.142531,-170
2021-10-21 15:41:02.142540,-17
2021-10-21 15:41:02.142548,-211
2021-10-21 15:41:02.142556,-226
2021-10-21 15:41:02.142565,-141
2021-10-21 15:41:02.142573,-189
2021-10-21 15:41:02.142582,-211
2021-10-21 15:41:02.142590,-163
2021-10-21 15:41:02.142598,-155
2021-10-21 15:41:02.142607,-158
2021-10-21 15:41:02.142615,-128
2021-10-21 15:41:02.142623,-109
2021-10-21 15:41:02.142632,-104
2021-10-21 15:41:02.142640,-97
2021-10-21 15:41:02.142649,-90
2021-10-21 15:41:02.142657,-77
2021-10-21 15:41:02.142665,-60
2021-10-21 15:41:02.142673,-51
2021-10-21 15:41:02.142682,-48
2021-10-21 15:41:02.142690,-48
2021-10-21 15:41:02.142698,-46
2021-10-21 15:41:02.142707,-38
2021-10-21 15:41:02.323818,-38
2021-10-21 15:41:02.323840,-38
2021-10-21 15:41:02.323850,-46
2021-10-21 15:41:02.323859,-60
2021-10-21 15:41:02.323867,-68
2021-10-21 15:41:02.323876,-63
2021-10-21 15:41:02.323884,-51
2021-10-21 15:41:02.323893,-46
2021-10-21 15:41:02.323901,-55
2021-10-21 15:41:02.323910,-80
2021-10-21 15:41:02.323918,-94
2021-10-21 15:41:02.323926,-90
2021-10-21 15:41:02.323934,-90
2021-10-21 15:41:02.323943,-94
2021-10-21 15:41:02.323951,-92
2021-10-21 15:41:02.323959,-99
2021-10-21 15:41:02.323967,-102
2021-10-21 15:41:02.323975,-85
2021-10-21 15:41:02.323984,-70
2021-10-21 15:41:02.323992,-65
2021-10-21 15:41:02.324000,-60
2021-10-21 15:41:02.324008,-63
2021-10-21 15:41:02.324017,-53
2021-10-21 15:41:02.324025,-36
2021-10-21 15:41:02.324033,-31
2021-10-21 15:41:02.324041,-31
2021-10-21 15:41:02.324049,-31
2021-10-21 15:41:02.324057,-36
2021-10-21 15:41:02.324066,-36
2021-10-21 15:41:02.324074,-26
2021-10-21 15:41:02.593812,-21
2021-10-21 15:41:02.593834,-21
2021-10-21 15:41:02.593844,-26
2021-10-21 15:41:02.593852,-34
2021-10-21 15:41:02.593861,-31
2021-10-21 15:41:02.593869,-29
2021-10-21 15:41:02.593878,-36
2021-10-21 15:41:02.593887,-38
2021-10-21 15:41:02.593895,-43
2021-10-21 15:41:02.593904,-60
2021-10-21 15:41:02.593912,-58
2021-10-21 15:41:02.593920,-46
2021-10-21 15:41:02.593929,-38
2021-10-21 15:41:02.593937,-24
2021-10-21 15:41:02.593945,-17
2021-10-21 15:41:02.593954,-29
2021-10-21 15:41:02.593962,-34
2021-10-21 15:41:02.593971,-31
2021-10-21 15:41:02.593979,-55
2021-10-21 15:41:02.593987,-82
2021-10-21 15:41:02.593996,-94
2021-10-21 15:41:02.594004,-97
2021-10-21 15:41:02.594012,-87
2021-10-21 15:41:02.594020,-77
2021-10-21 15:41:02.594029,-70
2021-10-21 15:41:02.594037,-65
2021-10-21 15:41:02.594045,-65
2021-10-21 15:41:02.594053,-80
2021-10-21 15:41:02.594062,-121
2021-10-21 15:41:02.594070,-189
2021-10-21 15:41:02.773823,-172
2021-10-21 15:41:02.773846,141
2021-10-21 15:41:02.773856,810
2021-10-21 15:41:02.773864,1374
2021-10-21 15:41:02.773873,1009
2021-10-21 15:41:02.773881,19
2021-10-21 15:41:02.773890,-270
2021-10-21 15:41:02.773898,14
2021-10-21 15:41:02.773907,-75
2021-10-21 15:41:02.773915,-274
2021-10-21 15:41:02.773924,-197
2021-10-21 15:41:02.773932,-150
2021-10-21 15:41:02.773941,-192
2021-10-21 15:41:02.773949,-167
2021-10-21 15:41:02.773958,-145
2021-10-21 15:41:02.773966,-155
2021-10-21 15:41:02.773974,-131
2021-10-21 15:41:02.773982,-107
2021-10-21 15:41:02.773991,-111
2021-10-21 15:41:02.773999,-111
2021-10-21 15:41:02.774007,-109
2021-10-21 15:41:02.774016,-104
2021-10-21 15:41:02.774024,-82
2021-10-21 15:41:02.774032,-68
2021-10-21 15:41:02.774041,-70
2021-10-21 15:41:02.774049,-63
2021-10-21 15:41:02.774057,-53
2021-10-21 15:41:02.774066,-63
2021-10-21 15:41:02.774074,-58
2021-10-21 15:41:02.774086,-43
2021-10-21 15:41:03.043819,-51
2021-10-21 15:41:03.043842,-70
2021-10-21 15:41:03.043852,-75
2021-10-21 15:41:03.043861,-77
2021-10-21 15:41:03.043870,-82
2021-10-21 15:41:03.043878,-82
2021-10-21 15:41:03.043886,-87
2021-10-21 15:41:03.043895,-109
2021-10-21 15:41:03.043903,-131
2021-10-21 15:41:03.043912,-150
2021-10-21 15:41:03.043920,-163
2021-10-21 15:41:03.043928,-165
2021-10-21 15:41:03.043936,-150
2021-10-21 15:41:03.043945,-148
2021-10-21 15:41:03.043953,-145
2021-10-21 15:41:03.043962,-138
2021-10-21 15:41:03.043970,-131
2021-10-21 15:41:03.043978,-128
2021-10-21 15:41:03.043987,-133
2021-10-21 15:41:03.043995,-136
2021-10-21 15:41:03.044003,-128
2021-10-21 15:41:03.044012,-121
2021-10-21 15:41:03.044020,-114
2021-10-21 15:41:03.044028,-116
2021-10-21 15:41:03.044037,-138
2021-10-21 15:41:03.044045,-155
2021-10-21 15:41:03.044054,-148
2021-10-21 15:41:03.044062,-143
2021-10-21 15:41:03.044070,-148
2021-10-21 15:41:03.044079,-145
2021-10-21 15:41:03.223824,-145
2021-10-21 15:41:03.223846,-150
2021-10-21 15:41:03.223856,-150
2021-10-21 15:41:03.223864,-150
2021-10-21 15:41:03.223873,-153
2021-10-21 15:41:03.223881,-155
2021-10-21 15:41:03.223890,-165
2021-10-21 15:41:03.223898,-170
2021-10-21 15:41:03.223907,-150
2021-10-21 15:41:03.223915,-126
2021-10-21 15:41:03.223924,-124
2021-10-21 15:41:03.223932,-133
2021-10-21 15:41:03.223941,-153
2021-10-21 15:41:03.223949,-172
2021-10-21 15:41:03.223957,-182
2021-10-21 15:41:03.223974,-180
2021-10-21 15:41:03.223983,-175
2021-10-21 15:41:03.223991,-175
2021-10-21 15:41:03.223999,-182
2021-10-21 15:41:03.224008,-177
2021-10-21 15:41:03.224016,-155
2021-10-21 15:41:03.224024,-136
2021-10-21 15:41:03.224033,-124
2021-10-21 15:41:03.224041,-163
2021-10-21 15:41:03.224050,-248
2021-10-21 15:41:03.224058,-236
2021-10-21 15:41:03.224066,75
2021-10-21 15:41:03.224075,729
2021-10-21 15:41:03.224083,1301
2021-10-21 15:41:03.224092,975
2021-10-21 15:41:03.448830,-12
2021-10-21 15:41:03.448853,-367
2021-10-21 15:41:03.448862,-119
2021-10-21 15:41:03.448871,-158
2021-10-21 15:41:03.448879,-301
2021-10-21 15:41:03.448888,-238
2021-10-21 15:41:03.448896,-214
2021-10-21 15:41:03.448904,-248
2021-10-21 15:41:03.448913,-216
2021-10-21 15:41:03.448921,-187
2021-10-21 15:41:03.448930,-192
2021-10-21 15:41:03.448938,-187
2021-10-21 15:41:03.448946,-180
2021-10-21 15:41:03.448955,-175
2021-10-21 15:41:03.448963,-167
2021-10-21 15:41:03.448971,-158
2021-10-21 15:41:03.448979,-143
2021-10-21 15:41:03.448988,-133
2021-10-21 15:41:03.448996,-126
2021-10-21 15:41:03.449004,-114
2021-10-21 15:41:03.449012,-104
2021-10-21 15:41:03.449021,-102
2021-10-21 15:41:03.449029,-99
2021-10-21 15:41:03.449037,-99
2021-10-21 15:41:03.449045,-99
2021-10-21 15:41:03.449053,-97
2021-10-21 15:41:03.449062,-99
2021-10-21 15:41:03.449070,-107
2021-10-21 15:41:03.449078,-111
2021-10-21 15:41:03.449086,-121
2021-10-21 15:41:03.673826,-141
2021-10-21 15:41:03.673847,-136
2021-10-21 15:41:03.673856,-128
2021-10-21 15:41:03.673865,-141
2021-10-21 15:41:03.673873,-153
2021-10-21 15:41:03.673881,-163
2021-10-21 15:41:03.673890,-165
2021-10-21 15:41:03.673898,-155
2021-10-21 15:41:03.673907,-148
2021-10-21 15:41:03.673915,-138
2021-10-21 15:41:03.673923,-131
2021-10-21 15:41:03.673932,-131
2021-10-21 15:41:03.673940,-126
2021-10-21 15:41:03.673948,-114
2021-10-21 15:41:03.673956,-109
2021-10-21 15:41:03.673965,-116
2021-10-21 15:41:03.673973,-124
2021-10-21 15:41:03.673981,-126
2021-10-21 15:41:03.673990,-119
2021-10-21 15:41:03.673998,-109
2021-10-21 15:41:03.674007,-109
2021-10-21 15:41:03.674015,-109
2021-10-21 15:41:03.674023,-109
2021-10-21 15:41:03.674031,-107
2021-10-21 15:41:03.674040,-102
2021-10-21 15:41:03.674048,-99
2021-10-21 15:41:03.674056,-99
2021-10-21 15:41:03.674065,-99
2021-10-21 15:41:03.674073,-99
2021-10-21 15:41:03.674081,-99
2021-10-21 15:41:03.899424,-92
2021-10-21 15:41:03.899447,-85
2021-10-21 15:41:03.899456,-70
2021-10-21 15:41:03.899465,-53
2021-10-21 15:41:03.899474,-55
2021-10-21 15:41:03.899482,-68
2021-10-21 15:41:03.899490,-68
2021-10-21 15:41:03.899499,-70
2021-10-21 15:41:03.899507,-82
2021-10-21 15:41:03.899514,-90
2021-10-21 15:41:03.899522,-94
2021-10-21 15:41:03.899529,-104
2021-10-21 15:41:03.899536,-97
2021-10-21 15:41:03.899543,-85
2021-10-21 15:41:03.899550,-85
2021-10-21 15:41:03.899557,-90
2021-10-21 15:41:03.899564,-90
2021-10-21 15:41:03.899571,-109
2021-10-21 15:41:03.899579,-172
2021-10-21 15:41:03.899587,-194
2021-10-21 15:41:03.899594,17
2021-10-21 15:41:03.899603,571
2021-10-21 15:41:03.899611,1209
2021-10-21 15:41:03.899619,1192
2021-10-21 15:41:03.899657,313
2021-10-21 15:41:03.899665,-299
2021-10-21 15:41:03.899674,-141
2021-10-21 15:41:03.899682,-65
2021-10-21 15:41:03.899690,-245
2021-10-21 15:41:03.899699,-236
2021-10-21 15:41:04.212458,-163
2021-10-21 15:41:04.212481,-192
2021-10-21 15:41:04.212491,-197
2021-10-21 15:41:04.212499,-170
2021-10-21 15:41:04.212507,-180
2021-10-21 15:41:04.212516,-184
2021-10-21 15:41:04.212524,-170
2021-10-21 15:41:04.212533,-153
2021-10-21 15:41:04.212541,-136
2021-10-21 15:41:04.212549,-133
2021-10-21 15:41:04.212558,-124
2021-10-21 15:41:04.212566,-94
2021-10-21 15:41:04.212574,-75
2021-10-21 15:41:04.212582,-68
2021-10-21 15:41:04.212591,-58
2021-10-21 15:41:04.212599,-58
2021-10-21 15:41:04.212607,-58
2021-10-21 15:41:04.212615,-48
2021-10-21 15:41:04.212624,-43
2021-10-21 15:41:04.212632,-48
2021-10-21 15:41:04.212640,-63
2021-10-21 15:41:04.212648,-72
2021-10-21 15:41:04.212657,-72
2021-10-21 15:41:04.212665,-68
2021-10-21 15:41:04.212673,-75
2021-10-21 15:41:04.212681,-80
2021-10-21 15:41:04.212689,-90
2021-10-21 15:41:04.212697,-109
2021-10-21 15:41:04.212706,-121
2021-10-21 15:41:04.212714,-124
2021-10-21 15:41:04.393837,-126
2021-10-21 15:41:04.393860,-128
2021-10-21 15:41:04.393870,-126
2021-10-21 15:41:04.393878,-126
2021-10-21 15:41:04.393887,-116
2021-10-21 15:41:04.393895,-104
2021-10-21 15:41:04.393904,-97
2021-10-21 15:41:04.393912,-87
2021-10-21 15:41:04.393920,-92
2021-10-21 15:41:04.393928,-104
2021-10-21 15:41:04.393937,-97
2021-10-21 15:41:04.393945,-80
2021-10-21 15:41:04.393953,-72
2021-10-21 15:41:04.393962,-72
2021-10-21 15:41:04.393970,-82
2021-10-21 15:41:04.393978,-94
2021-10-21 15:41:04.393987,-87
2021-10-21 15:41:04.393995,-72
2021-10-21 15:41:04.394003,-70
2021-10-21 15:41:04.394011,-68
2021-10-21 15:41:04.394020,-70
2021-10-21 15:41:04.394028,-72
2021-10-21 15:41:04.394036,-72
2021-10-21 15:41:04.394044,-58
2021-10-21 15:41:04.394052,-31
2021-10-21 15:41:04.394061,-19
2021-10-21 15:41:04.394069,-36
2021-10-21 15:41:04.394077,-51
2021-10-21 15:41:04.394089,-53
2021-10-21 15:41:04.394097,-55
2021-10-21 15:41:04.663855,-55
2021-10-21 15:41:04.663877,-53
2021-10-21 15:41:04.663887,-58
2021-10-21 15:41:04.663896,-60
2021-10-21 15:41:04.663904,-70
2021-10-21 15:41:04.663913,-82
2021-10-21 15:41:04.663921,-70
2021-10-21 15:41:04.663929,-46
2021-10-21 15:41:04.663938,-60
2021-10-21 15:41:04.663946,-126
2021-10-21 15:41:04.663954,-172
2021-10-21 15:41:04.663963,-31
2021-10-21 15:41:04.663971,459
2021-10-21 15:41:04.663979,1085
2021-10-21 15:41:04.663988,1112
2021-10-21 15:41:04.663996,279
2021-10-21 15:41:04.664004,-340
2021-10-21 15:41:04.664012,-158
2021-10-21 15:41:04.664021,-17
2021-10-21 15:41:04.664029,-184
2021-10-21 15:41:04.664037,-209
2021-10-21 15:41:04.664046,-158
2021-10-21 15:41:04.664054,-182
2021-10-21 15:41:04.664062,-180
2021-10-21 15:41:04.664071,-148
2021-10-21 15:41:04.664079,-150
2021-10-21 15:41:04.664087,-155
2021-10-21 15:41:04.664095,-141
2021-10-21 15:41:04.664104,-126
2021-10-21 15:41:04.664112,-121
2021-10-21 15:41:04.843807,-119
2021-10-21 15:41:04.843827,-107
2021-10-21 15:41:04.843837,-92
2021-10-21 15:41:04.843846,-85
2021-10-21 15:41:04.843855,-75
2021-10-21 15:41:04.843863,-55
2021-10-21 15:41:04.843871,-46
2021-10-21 15:41:04.843880,-43
2021-10-21 15:41:04.843888,-43
2021-10-21 15:41:04.843897,-43
2021-10-21 15:41:04.843905,-41
2021-10-21 15:41:04.843913,-36
2021-10-21 15:41:04.843921,-38
2021-10-21 15:41:04.843930,-55
2021-10-21 15:41:04.843938,-63
2021-10-21 15:41:04.843946,-60
2021-10-21 15:41:04.843955,-68
2021-10-21 15:41:04.843963,-77
2021-10-21 15:41:04.843971,-82
2021-10-21 15:41:04.843979,-102
2021-10-21 15:41:04.843988,-119
2021-10-21 15:41:04.843996,-121
2021-10-21 15:41:04.844004,-119
2021-10-21 15:41:04.844012,-109
2021-10-21 15:41:04.844021,-97
2021-10-21 15:41:04.844029,-97
2021-10-21 15:41:04.844037,-109
2021-10-21 15:41:04.844045,-111
2021-10-21 15:41:04.844054,-94
2021-10-21 15:41:04.844062,-82
2021-10-21 15:41:05.068854,-82
2021-10-21 15:41:05.068877,-75
2021-10-21 15:41:05.068888,-65
2021-10-21 15:41:05.068898,-58
2021-10-21 15:41:05.068907,-55
2021-10-21 15:41:05.068917,-53
2021-10-21 15:41:05.068926,-63
2021-10-21 15:41:05.068935,-70
2021-10-21 15:41:05.068945,-60
2021-10-21 15:41:05.068954,-55
2021-10-21 15:41:05.068963,-63
2021-10-21 15:41:05.068972,-65
2021-10-21 15:41:05.068982,-70
2021-10-21 15:41:05.068991,-65
2021-10-21 15:41:05.069000,-36
2021-10-21 15:41:05.069010,-31
2021-10-21 15:41:05.069019,-60
2021-10-21 15:41:05.069028,-72
2021-10-21 15:41:05.069037,-70
2021-10-21 15:41:05.069046,-77
2021-10-21 15:41:05.069055,-80
2021-10-21 15:41:05.069064,-75
2021-10-21 15:41:05.069073,-68
2021-10-21 15:41:05.069083,-58
2021-10-21 15:41:05.069092,-58
2021-10-21 15:41:05.069101,-58
2021-10-21 15:41:05.069110,-53
2021-10-21 15:41:05.069119,-53
2021-10-21 15:41:05.069128,-72
2021-10-21 15:41:05.069137,-116
2021-10-21 15:41:05.338861,-150
2021-10-21 15:41:05.338883,-24
2021-10-21 15:41:05.338893,418
2021-10-21 15:41:05.338901,1058
2021-10-21 15:41:05.338910,1250
2021-10-21 15:41:05.338918,510
2021-10-21 15:41:05.338927,-267
2021-10-21 15:41:05.338935,-180
2021-10-21 15:41:05.338943,31
2021-10-21 15:41:05.338952,-136
2021-10-21 15:41:05.338960,-175
2021-10-21 15:41:05.338969,-85
2021-10-21 15:41:05.338977,-119
2021-10-21 15:41:05.338985,-141
2021-10-21 15:41:05.338993,-87
2021-10-21 15:41:05.339002,-80
2021-10-21 15:41:05.339010,-97
2021-10-21 15:41:05.339018,-85
2021-10-21 15:41:05.339027,-72
2021-10-21 15:41:05.339035,-65
2021-10-21 15:41:05.339043,-48
2021-10-21 15:41:05.339051,-38
2021-10-21 15:41:05.339060,-34
2021-10-21 15:41:05.339068,-21
2021-10-21 15:41:05.339076,-12
2021-10-21 15:41:05.339084,0
2021-10-21 15:41:05.339092,7
2021-10-21 15:41:05.339101,-2
2021-10-21 15:41:05.339109,-2
2021-10-21 15:41:05.339117,-2
2021-10-21 15:41:05.518859,-17
2021-10-21 15:41:05.518882,-29
2021-10-21 15:41:05.518892,-24
2021-10-21 15:41:05.518900,-26
2021-10-21 15:41:05.518909,-41
2021-10-21 15:41:05.518918,-58
2021-10-21 15:41:05.518926,-68
2021-10-21 15:41:05.518934,-75
2021-10-21 15:41:05.518943,-90
2021-10-21 15:41:05.518951,-107
2021-10-21 15:41:05.518960,-111
2021-10-21 15:41:05.518968,-111
2021-10-21 15:41:05.518977,-111
2021-10-21 15:41:05.518985,-104
2021-10-21 15:41:05.518993,-99
2021-10-21 15:41:05.519002,-94
2021-10-21 15:41:05.519010,-94
2021-10-21 15:41:05.519018,-99
2021-10-21 15:41:05.519027,-90
2021-10-21 15:41:05.519035,-72
2021-10-21 15:41:05.519043,-70
2021-10-21 15:41:05.519051,-77
2021-10-21 15:41:05.519059,-94
2021-10-21 15:41:05.519067,-102
2021-10-21 15:41:05.519076,-87
2021-10-21 15:41:05.519084,-77
2021-10-21 15:41:05.519092,-77
2021-10-21 15:41:05.519101,-72
2021-10-21 15:41:05.519109,-75
2021-10-21 15:41:05.519117,-75
2021-10-21 15:41:05.788918,-68
2021-10-21 15:41:05.788940,-65
2021-10-21 15:41:05.788950,-72
2021-10-21 15:41:05.788959,-72
2021-10-21 15:41:05.788968,-65
2021-10-21 15:41:05.788976,-68
2021-10-21 15:41:05.788985,-72
2021-10-21 15:41:05.788994,-70
2021-10-21 15:41:05.789002,-75
2021-10-21 15:41:05.789010,-85
2021-10-21 15:41:05.789019,-97
2021-10-21 15:41:05.789027,-97
2021-10-21 15:41:05.789035,-85
2021-10-21 15:41:05.789044,-75
2021-10-21 15:41:05.789052,-75
2021-10-21 15:41:05.789060,-77
2021-10-21 15:41:05.789069,-77
2021-10-21 15:41:05.789077,-75
2021-10-21 15:41:05.789085,-97
2021-10-21 15:41:05.789093,-158
2021-10-21 15:41:05.789102,-138
2021-10-21 15:41:05.789110,177
2021-10-21 15:41:05.789118,844
2021-10-21 15:41:05.789127,1406
2021-10-21 15:41:05.789135,1051
2021-10-21 15:41:05.789143,46
2021-10-21 15:41:05.789151,-289
2021-10-21 15:41:05.789159,-12
2021-10-21 15:41:05.789168,-51
2021-10-21 15:41:05.789176,-199
2021-10-21 15:41:06.013897,-121
2021-10-21 15:41:06.013920,-85
2021-10-21 15:41:06.013930,-128
2021-10-21 15:41:06.013938,-109
2021-10-21 15:41:06.013946,-87
2021-10-21 15:41:06.013955,-97
2021-10-21 15:41:06.013964,-82
2021-10-21 15:41:06.013972,-55
2021-10-21 15:41:06.013980,-48
2021-10-21 15:41:06.013989,-60
2021-10-21 15:41:06.013997,-58
2021-10-21 15:41:06.014005,-41
2021-10-21 15:41:06.014014,-24
2021-10-21 15:41:06.014022,-17
2021-10-21 15:41:06.014031,-21
2021-10-21 15:41:06.014039,-36
2021-10-21 15:41:06.014048,-38
2021-10-21 15:41:06.014056,-26
2021-10-21 15:41:06.014064,-19
2021-10-21 15:41:06.014073,-19
2021-10-21 15:41:06.014081,-29
2021-10-21 15:41:06.014090,-41
2021-10-21 15:41:06.014098,-46
2021-10-21 15:41:06.014107,-43
2021-10-21 15:41:06.014115,-46
2021-10-21 15:41:06.014123,-60
2021-10-21 15:41:06.014132,-77
2021-10-21 15:41:06.014140,-102
2021-10-21 15:41:06.014148,-131
2021-10-21 15:41:06.014157,-143
2021-10-21 15:41:06.327553,-136
2021-10-21 15:41:06.327576,-133
2021-10-21 15:41:06.327585,-141
2021-10-21 15:41:06.327594,-141
2021-10-21 15:41:06.327603,-131
2021-10-21 15:41:06.327611,-119
2021-10-21 15:41:06.327619,-119
2021-10-21 15:41:06.327628,-124
2021-10-21 15:41:06.327636,-126
2021-10-21 15:41:06.327645,-131
2021-10-21 15:41:06.327653,-126
2021-10-21 15:41:06.327661,-111
2021-10-21 15:41:06.327670,-102
2021-10-21 15:41:06.327678,-102
2021-10-21 15:41:06.327686,-109
2021-10-21 15:41:06.327695,-119
2021-10-21 15:41:06.327703,-114
2021-10-21 15:41:06.327711,-99
2021-10-21 15:41:06.327720,-94
2021-10-21 15:41:06.327728,-94
2021-10-21 15:41:06.327736,-97
2021-10-21 15:41:06.327744,-102
2021-10-21 15:41:06.327753,-94
2021-10-21 15:41:06.327763,-85
2021-10-21 15:41:06.327772,-80
2021-10-21 15:41:06.327780,-75
2021-10-21 15:41:06.327788,-77
2021-10-21 15:41:06.327797,-85
2021-10-21 15:41:06.327805,-68
2021-10-21 15:41:06.327813,-36
2021-10-21 15:41:06.463859,-9
2021-10-21 15:41:06.463881,-4
2021-10-21 15:41:06.463891,-29
2021-10-21 15:41:06.463900,-36
2021-10-21 15:41:06.463908,-14
2021-10-21 15:41:06.463917,-12
2021-10-21 15:41:06.463925,-29
2021-10-21 15:41:06.463934,-26
2021-10-21 15:41:06.463942,-29
2021-10-21 15:41:06.463950,-48
2021-10-21 15:41:06.463959,-48
2021-10-21 15:41:06.463967,-36
2021-10-21 15:41:06.463976,-38
2021-10-21 15:41:06.463984,-51
2021-10-21 15:41:06.463992,-72
2021-10-21 15:41:06.464001,-111
2021-10-21 15:41:06.464009,-170
2021-10-21 15:41:06.464017,-158
2021-10-21 15:41:06.464026,153
2021-10-21 15:41:06.464034,868
2021-10-21 15:41:06.464042,1542
2021-10-21 15:41:06.464051,1289
2021-10-21 15:41:06.464059,231
2021-10-21 15:41:06.464067,-277
2021-10-21 15:41:06.464075,-53
2021-10-21 15:41:06.464084,-51
2021-10-21 15:41:06.464092,-231
2021-10-21 15:41:06.464100,-184
2021-10-21 15:41:06.464109,-124
2021-10-21 15:41:06.464117,-158
2021-10-21 15:41:06.733889,-145
2021-10-21 15:41:06.733913,-114
2021-10-21 15:41:06.733923,-124
2021-10-21 15:41:06.733932,-133
2021-10-21 15:41:06.733941,-126
2021-10-21 15:41:06.733949,-109
2021-10-21 15:41:06.733958,-97
2021-10-21 15:41:06.733966,-97
2021-10-21 15:41:06.733975,-102
2021-10-21 15:41:06.733983,-97
2021-10-21 15:41:06.733992,-97
2021-10-21 15:41:06.734000,-97
2021-10-21 15:41:06.734009,-87
2021-10-21 15:41:06.734017,-90
2021-10-21 15:41:06.734025,-92
2021-10-21 15:41:06.734034,-80
2021-10-21 15:41:06.734042,-70
2021-10-21 15:41:06.734051,-70
2021-10-21 15:41:06.734059,-72
2021-10-21 15:41:06.734068,-75
2021-10-21 15:41:06.734076,-85
2021-10-21 15:41:06.734085,-97
2021-10-21 15:41:06.734093,-99
2021-10-21 15:41:06.734101,-111
2021-10-21 15:41:06.734110,-126
2021-10-21 15:41:06.734118,-131
2021-10-21 15:41:06.734126,-133
2021-10-21 15:41:06.734135,-138
2021-10-21 15:41:06.734143,-141
2021-10-21 15:41:06.734152,-133
2021-10-21 15:41:06.958181,-128
2021-10-21 15:41:06.958202,-126
2021-10-21 15:41:06.958212,-116
2021-10-21 15:41:06.958220,-107
2021-10-21 15:41:06.958229,-97
2021-10-21 15:41:06.958238,-87
2021-10-21 15:41:06.958246,-94
2021-10-21 15:41:06.958255,-104
2021-10-21 15:41:06.958263,-97
2021-10-21 15:41:06.958272,-90
2021-10-21 15:41:06.958280,-85
2021-10-21 15:41:06.958288,-77
2021-10-21 15:41:06.958297,-80
2021-10-21 15:41:06.958305,-90
2021-10-21 15:41:06.958314,-90
2021-10-21 15:41:06.958322,-80
2021-10-21 15:41:06.958330,-75
2021-10-21 15:41:06.958339,-77
2021-10-21 15:41:06.958347,-87
2021-10-21 15:41:06.958355,-94
2021-10-21 15:41:06.958364,-87
2021-10-21 15:41:06.958372,-80
2021-10-21 15:41:06.958381,-80
2021-10-21 15:41:06.958389,-72
2021-10-21 15:41:06.958397,-68
2021-10-21 15:41:06.958406,-68
2021-10-21 15:41:06.958414,-65
2021-10-21 15:41:06.958422,-65
2021-10-21 15:41:06.958430,-60
2021-10-21 15:41:06.958439,-51
2021-10-21 15:41:07.138873,-51
2021-10-21 15:41:07.138895,-48
2021-10-21 15:41:07.138905,-48
2021-10-21 15:41:07.138913,-43
2021-10-21 15:41:07.138922,-31
2021-10-21 15:41:07.138930,-24
2021-10-21 15:41:07.138938,-24
2021-10-21 15:41:07.138946,-21
2021-10-21 15:41:07.138955,-21
2021-10-21 15:41:07.138963,-36
2021-10-21 15:41:07.138971,-65
2021-10-21 15:41:07.138980,-82
2021-10-21 15:41:07.138988,-80
2021-10-21 15:41:07.138996,-75
2021-10-21 15:41:07.139004,-77
2021-10-21 15:41:07.139013,-85
2021-10-21 15:41:07.139021,-82
2021-10-21 15:41:07.139039,-75
2021-10-21 15:41:07.139048,-72
2021-10-21 15:41:07.139056,-65
2021-10-21 15:41:07.139064,-85
2021-10-21 15:41:07.139072,-155
2021-10-21 15:41:07.139080,-172
2021-10-21 15:41:07.139088,48
2021-10-21 15:41:07.139097,652
2021-10-21 15:41:07.139105,1394
2021-10-21 15:41:07.139113,1418
2021-10-21 15:41:07.139122,442
2021-10-21 15:41:07.139130,-274
2021-10-21 15:41:07.139138,-97
2021-10-21 15:41:07.363874,17
2021-10-21 15:41:07.363896,-175
2021-10-21 15:41:07.363905,-172
2021-10-21 15:41:07.363914,-102
2021-10-21 15:41:07.363922,-148
2021-10-21 15:41:07.363931,-160
2021-10-21 15:41:07.363939,-119
2021-10-21 15:41:07.363948,-107
2021-10-21 15:41:07.363956,-104
2021-10-21 15:41:07.363964,-90
2021-10-21 15:41:07.363972,-85
2021-10-21 15:41:07.363981,-87
2021-10-21 15:41:07.363989,-72
2021-10-21 15:41:07.363997,-48
2021-10-21 15:41:07.364006,-46
2021-10-21 15:41:07.364014,-46
2021-10-21 15:41:07.364022,-43
2021-10-21 15:41:07.364031,-51
2021-10-21 15:41:07.364039,-51
2021-10-21 15:41:07.364047,-38
2021-10-21 15:41:07.364056,-41
2021-10-21 15:41:07.364064,-46
2021-10-21 15:41:07.364072,-43
2021-10-21 15:41:07.364080,-46
2021-10-21 15:41:07.364089,-55
2021-10-21 15:41:07.364097,-55
2021-10-21 15:41:07.364105,-55
2021-10-21 15:41:07.364113,-60
2021-10-21 15:41:07.364122,-65
2021-10-21 15:41:07.364130,-72
2021-10-21 15:41:07.588881,-80
2021-10-21 15:41:07.588904,-63
2021-10-21 15:41:07.588914,-55
2021-10-21 15:41:07.588922,-77
2021-10-21 15:41:07.588931,-97
2021-10-21 15:41:07.588940,-97
2021-10-21 15:41:07.588948,-80
2021-10-21 15:41:07.588956,-70
2021-10-21 15:41:07.588965,-70
2021-10-21 15:41:07.588973,-72
2021-10-21 15:41:07.588982,-75
2021-10-21 15:41:07.588990,-70
2021-10-21 15:41:07.588998,-53
2021-10-21 15:41:07.589007,-41
2021-10-21 15:41:07.589015,-41
2021-10-21 15:41:07.589023,-43
2021-10-21 15:41:07.589032,-58
2021-10-21 15:41:07.589040,-60
2021-10-21 15:41:07.589049,-53
2021-10-21 15:41:07.589057,-55
2021-10-21 15:41:07.589066,-58
2021-10-21 15:41:07.589074,-58
2021-10-21 15:41:07.589082,-63
2021-10-21 15:41:07.589090,-58
2021-10-21 15:41:07.589099,-43
2021-10-21 15:41:07.589107,-38
2021-10-21 15:41:07.589115,-38
2021-10-21 15:41:07.589124,-38
2021-10-21 15:41:07.589132,-46
2021-10-21 15:41:07.589140,-38
2021-10-21 15:41:07.813779,-21
2021-10-21 15:41:07.813802,-17
2021-10-21 15:41:07.813811,-24
2021-10-21 15:41:07.813820,-31
2021-10-21 15:41:07.813829,-38
2021-10-21 15:41:07.813837,-34
2021-10-21 15:41:07.813845,-24
2021-10-21 15:41:07.813854,-17
2021-10-21 15:41:07.813862,-4
2021-10-21 15:41:07.813871,0
2021-10-21 15:41:07.813879,-9
2021-10-21 15:41:07.813887,-7
2021-10-21 15:41:07.813896,4
2021-10-21 15:41:07.813904,0
2021-10-21 15:41:07.813912,-19
2021-10-21 15:41:07.813921,-38
2021-10-21 15:41:07.813929,-41
2021-10-21 15:41:07.813937,-12
2021-10-21 15:41:07.813946,29
2021-10-21 15:41:07.813954,29
2021-10-21 15:41:07.813962,-2
2021-10-21 15:41:07.813971,-21
2021-10-21 15:41:07.813979,-9
2021-10-21 15:41:07.813987,-9
2021-10-21 15:41:07.813995,-70
2021-10-21 15:41:07.814004,-121
2021-10-21 15:41:07.814012,46
2021-10-21 15:41:07.814020,586
2021-10-21 15:41:07.814029,1292
2021-10-21 15:41:07.814037,1369
2021-10-21 15:41:08.083893,467
2021-10-21 15:41:08.083915,-253
2021-10-21 15:41:08.083925,-72
2021-10-21 15:41:08.083934,60
2021-10-21 15:41:08.083943,-163
2021-10-21 15:41:08.083951,-189
2021-10-21 15:41:08.083960,-109
2021-10-21 15:41:08.083968,-148
2021-10-21 15:41:08.083977,-172
2021-10-21 15:41:08.083985,-145
2021-10-21 15:41:08.083994,-131
2021-10-21 15:41:08.084002,-126
2021-10-21 15:41:08.084010,-109
2021-10-21 15:41:08.084019,-90
2021-10-21 15:41:08.084027,-87
2021-10-21 15:41:08.084035,-99
2021-10-21 15:41:08.084044,-92
2021-10-21 15:41:08.084052,-68
2021-10-21 15:41:08.084060,-58
2021-10-21 15:41:08.084068,-53
2021-10-21 15:41:08.084077,-43
2021-10-21 15:41:08.084085,-53
2021-10-21 15:41:08.084093,-82
2021-10-21 15:41:08.084102,-94
2021-10-21 15:41:08.084110,-75
2021-10-21 15:41:08.084119,-70
2021-10-21 15:41:08.084127,-92
2021-10-21 15:41:08.084135,-99
2021-10-21 15:41:08.084144,-97
2021-10-21 15:41:08.084152,-97
2021-10-21 15:41:08.352626,-80
2021-10-21 15:41:08.352649,-77
2021-10-21 15:41:08.352658,-97
2021-10-21 15:41:08.352666,-109
2021-10-21 15:41:08.352674,-109
2021-10-21 15:41:08.352682,-114
2021-10-21 15:41:08.352689,-121
2021-10-21 15:41:08.352697,-119
2021-10-21 15:41:08.352706,-136
2021-10-21 15:41:08.352714,-141
2021-10-21 15:41:08.352723,-116
2021-10-21 15:41:08.352731,-85
2021-10-21 15:41:08.352739,-75
2021-10-21 15:41:08.352748,-94
2021-10-21 15:41:08.352756,-119
2021-10-21 15:41:08.352765,-109
2021-10-21 15:41:08.352773,-87
2021-10-21 15:41:08.352788,-72
2021-10-21 15:41:08.352797,-63
2021-10-21 15:41:08.352805,-58
2021-10-21 15:41:08.352813,-60
2021-10-21 15:41:08.352822,-70
2021-10-21 15:41:08.352830,-65
2021-10-21 15:41:08.352838,-53
2021-10-21 15:41:08.352846,-58
2021-10-21 15:41:08.352854,-82
2021-10-21 15:41:08.352863,-87
2021-10-21 15:41:08.352871,-70
2021-10-21 15:41:08.352879,-68
2021-10-21 15:41:08.352887,-75
2021-10-21 15:41:08.533903,-75
2021-10-21 15:41:08.533926,-75
2021-10-21 15:41:08.533936,-77
2021-10-21 15:41:08.533944,-65
2021-10-21 15:41:08.533953,-58
2021-10-21 15:41:08.533961,-58
2021-10-21 15:41:08.533970,-60
2021-10-21 15:41:08.533978,-68
2021-10-21 15:41:08.533986,-77
2021-10-21 15:41:08.533995,-72
2021-10-21 15:41:08.534003,-68
2021-10-21 15:41:08.534011,-60
2021-10-21 15:41:08.534020,-48
2021-10-21 15:41:08.534028,-55
2021-10-21 15:41:08.534037,-77
2021-10-21 15:41:08.534045,-90
2021-10-21 15:41:08.534053,-87
2021-10-21 15:41:08.534062,-99
2021-10-21 15:41:08.534070,-124
2021-10-21 15:41:08.534078,-128
2021-10-21 15:41:08.534087,-114
2021-10-21 15:41:08.534095,-102
2021-10-21 15:41:08.534103,-107
2021-10-21 15:41:08.534112,-111
2021-10-21 15:41:08.534120,-124
2021-10-21 15:41:08.534128,-158
2021-10-21 15:41:08.534136,-236
2021-10-21 15:41:08.534145,-296
2021-10-21 15:41:08.534153,-111
2021-10-21 15:41:08.534161,510
2021-10-21 15:41:08.758891,1277
2021-10-21 15:41:08.758913,1318
2021-10-21 15:41:08.758923,357
2021-10-21 15:41:08.758932,-394
2021-10-21 15:41:08.758940,-257
2021-10-21 15:41:08.758949,-145
2021-10-21 15:41:08.758957,-350
2021-10-21 15:41:08.758966,-369
2021-10-21 15:41:08.758974,-279
2021-10-21 15:41:08.758982,-287
2021-10-21 15:41:08.758991,-287
2021-10-21 15:41:08.758999,-262
2021-10-21 15:41:08.759008,-265
2021-10-21 15:41:08.759016,-257
2021-10-21 15:41:08.759024,-240
2021-10-21 15:41:08.759033,-240
2021-10-21 15:41:08.759041,-228
2021-10-21 15:41:08.759049,-201
2021-10-21 15:41:08.759058,-189
2021-10-21 15:41:08.759066,-194
2021-10-21 15:41:08.759074,-206
2021-10-21 15:41:08.759082,-199
2021-10-21 15:41:08.759091,-172
2021-10-21 15:41:08.759099,-163
2021-10-21 15:41:08.759107,-167
2021-10-21 15:41:08.759116,-160
2021-10-21 15:41:08.759124,-155
2021-10-21 15:41:08.759132,-165
2021-10-21 15:41:08.759140,-170
2021-10-21 15:41:08.759149,-172
2021-10-21 15:41:09.028301,-182
2021-10-21 15:41:09.028323,-199
2021-10-21 15:41:09.028333,-206
2021-10-21 15:41:09.028342,-209
2021-10-21 15:41:09.028350,-209
2021-10-21 15:41:09.028359,-221
2021-10-21 15:41:09.028367,-245
2021-10-21 15:41:09.028376,-257
2021-10-21 15:41:09.028384,-253
2021-10-21 15:41:09.028392,-231
2021-10-21 15:41:09.028401,-218
2021-10-21 15:41:09.028409,-238
2021-10-21 15:41:09.028417,-245
2021-10-21 15:41:09.028426,-216
2021-10-21 15:41:09.028434,-199
2021-10-21 15:41:09.028443,-211
2021-10-21 15:41:09.028451,-226
2021-10-21 15:41:09.028459,-204
2021-10-21 15:41:09.028468,-163
2021-10-21 15:41:09.028476,-160
2021-10-21 15:41:09.028484,-177
2021-10-21 15:41:09.028493,-158
2021-10-21 15:41:09.028501,-124
2021-10-21 15:41:09.028509,-119
2021-10-21 15:41:09.028518,-119
2021-10-21 15:41:09.028526,-104
2021-10-21 15:41:09.028534,-82
2021-10-21 15:41:09.028543,-80
2021-10-21 15:41:09.028551,-107
2021-10-21 15:41:09.028559,-116
2021-10-21 15:41:09.208907,-80
2021-10-21 15:41:09.208930,-55
2021-10-21 15:41:09.208939,-92
2021-10-21 15:41:09.208948,-131
2021-10-21 15:41:09.208957,-136
2021-10-21 15:41:09.208965,-138
2021-10-21 15:41:09.208974,-141
2021-10-21 15:41:09.208982,-136
2021-10-21 15:41:09.208990,-116
2021-10-21 15:41:09.208999,-104
2021-10-21 15:41:09.209007,-111
2021-10-21 15:41:09.209016,-119
2021-10-21 15:41:09.209024,-107
2021-10-21 15:41:09.209032,-77
2021-10-21 15:41:09.209041,-48
2021-10-21 15:41:09.209049,-38
2021-10-21 15:41:09.209057,-51
2021-10-21 15:41:09.209066,-55
2021-10-21 15:41:09.209074,-53
2021-10-21 15:41:09.209082,-65
2021-10-21 15:41:09.209091,-63
2021-10-21 15:41:09.209099,-48
2021-10-21 15:41:09.209107,-48
2021-10-21 15:41:09.209116,-46
2021-10-21 15:41:09.209124,-29
2021-10-21 15:41:09.209132,-29
2021-10-21 15:41:09.209140,-34
2021-10-21 15:41:09.209149,-17
2021-10-21 15:41:09.209157,-24
2021-10-21 15:41:09.209165,-90
2021-10-21 15:41:09.433916,-158
2021-10-21 15:41:09.433938,-77
2021-10-21 15:41:09.433948,357
2021-10-21 15:41:09.433957,1119
2021-10-21 15:41:09.433965,1545
2021-10-21 15:41:09.433973,905
2021-10-21 15:41:09.433982,-80
2021-10-21 15:41:09.433990,-216
2021-10-21 15:41:09.433998,14
2021-10-21 15:41:09.434006,-126
2021-10-21 15:41:09.434015,-238
2021-10-21 15:41:09.434023,-141
2021-10-21 15:41:09.434031,-121
2021-10-21 15:41:09.434039,-153
2021-10-21 15:41:09.434048,-128
2021-10-21 15:41:09.434056,-111
2021-10-21 15:41:09.434064,-107
2021-10-21 15:41:09.434072,-75
2021-10-21 15:41:09.434080,-51
2021-10-21 15:41:09.434089,-43
2021-10-21 15:41:09.434097,-31
2021-10-21 15:41:09.434105,-24
2021-10-21 15:41:09.434113,-24
2021-10-21 15:41:09.434121,-7
2021-10-21 15:41:09.434129,17
2021-10-21 15:41:09.434138,17
2021-10-21 15:41:09.434146,21
2021-10-21 15:41:09.434154,34
2021-10-21 15:41:09.434162,31
2021-10-21 15:41:09.434170,31
2021-10-21 15:41:09.658903,46
2021-10-21 15:41:09.658926,46
2021-10-21 15:41:09.658935,36
2021-10-21 15:41:09.658944,21
2021-10-21 15:41:09.658953,9
2021-10-21 15:41:09.658961,2
2021-10-21 15:41:09.658969,-7
2021-10-21 15:41:09.658978,-14
2021-10-21 15:41:09.658986,-31
2021-10-21 15:41:09.658995,-72
2021-10-21 15:41:09.659003,-85
2021-10-21 15:41:09.659011,-51
2021-10-21 15:41:09.659020,-36
2021-10-21 15:41:09.659028,-43
2021-10-21 15:41:09.659036,-38
2021-10-21 15:41:09.659045,-34
2021-10-21 15:41:09.659053,-31
2021-10-21 15:41:09.659061,-7
2021-10-21 15:41:09.659070,9
2021-10-21 15:41:09.659078,12
2021-10-21 15:41:09.659086,19
2021-10-21 15:41:09.659095,21
2021-10-21 15:41:09.659103,24
2021-10-21 15:41:09.659111,41
2021-10-21 15:41:09.659119,51
2021-10-21 15:41:09.659128,53
2021-10-21 15:41:09.659136,51
2021-10-21 15:41:09.659144,53
2021-10-21 15:41:09.659153,55
2021-10-21 15:41:09.659161,48
2021-10-21 15:41:10.018920,65
2021-10-21 15:41:10.018943,85
2021-10-21 15:41:10.018952,53
2021-10-21 15:41:10.018961,21
2021-10-21 15:41:10.018970,34
2021-10-21 15:41:10.018978,43
2021-10-21 15:41:10.018986,36
2021-10-21 15:41:10.018997,34
2021-10-21 15:41:10.019005,19
2021-10-21 15:41:10.019014,4
2021-10-21 15:41:10.019022,24
2021-10-21 15:41:10.019030,41
2021-10-21 15:41:10.019038,21
2021-10-21 15:41:10.019047,4
2021-10-21 15:41:10.019055,2
2021-10-21 15:41:10.019064,-2
2021-10-21 15:41:10.019072,2
2021-10-21 15:41:10.019080,24
2021-10-21 15:41:10.019089,41
2021-10-21 15:41:10.019097,48
2021-10-21 15:41:10.019105,38
2021-10-21 15:41:10.019114,19
2021-10-21 15:41:10.019122,26
2021-10-21 15:41:10.019130,34
2021-10-21 15:41:10.019139,24
2021-10-21 15:41:10.019147,19
2021-10-21 15:41:10.019155,29
2021-10-21 15:41:10.019164,21
2021-10-21 15:41:10.019172,17
2021-10-21 15:41:10.019180,29
2021-10-21 15:41:10.243294,36
2021-10-21 15:41:10.243317,31
2021-10-21 15:41:10.243327,2
2021-10-21 15:41:10.243335,-55
2021-10-21 15:41:10.243344,-72
2021-10-21 15:41:10.243352,145
2021-10-21 15:41:10.243360,734
2021-10-21 15:41:10.243369,1394
2021-10-21 15:41:10.243377,1316
2021-10-21 15:41:10.243385,399
2021-10-21 15:41:10.243394,-148
2021-10-21 15:41:10.243402,51
2021-10-21 15:41:10.243410,97
2021-10-21 15:41:10.243419,-90
2021-10-21 15:41:10.243427,-80
2021-10-21 15:41:10.243435,-31
2021-10-21 15:41:10.243443,-58
2021-10-21 15:41:10.243451,-38
2021-10-21 15:41:10.243459,-4
2021-10-21 15:41:10.243468,-4
2021-10-21 15:41:10.243476,-2
2021-10-21 15:41:10.243484,14
2021-10-21 15:41:10.243492,29
2021-10-21 15:41:10.243501,43
2021-10-21 15:41:10.243509,60
2021-10-21 15:41:10.243517,65
2021-10-21 15:41:10.243525,63
2021-10-21 15:41:10.243533,65
2021-10-21 15:41:10.243542,77
2021-10-21 15:41:10.243550,90
2021-10-21 15:41:10.467591,99
2021-10-21 15:41:10.467613,99
2021-10-21 15:41:10.467623,90
2021-10-21 15:41:10.467631,87
2021-10-21 15:41:10.467640,90
2021-10-21 15:41:10.467648,87
2021-10-21 15:41:10.467656,85
2021-10-21 15:41:10.467664,75
2021-10-21 15:41:10.467673,60
2021-10-21 15:41:10.467681,53
2021-10-21 15:41:10.467689,53
2021-10-21 15:41:10.467697,46
2021-10-21 15:41:10.467705,29
2021-10-21 15:41:10.467714,17
2021-10-21 15:41:10.467722,2
2021-10-21 15:41:10.467730,-9
2021-10-21 15:41:10.467738,-9
2021-10-21 15:41:10.467746,4
2021-10-21 15:41:10.467755,12
2021-10-21 15:41:10.467763,-2
2021-10-21 15:41:10.467771,-12
2021-10-21 15:41:10.467779,0
2021-10-21 15:41:10.467788,7
2021-10-21 15:41:10.467796,4
2021-10-21 15:41:10.467804,7
2021-10-21 15:41:10.467812,0
2021-10-21 15:41:10.467820,-2
2021-10-21 15:41:10.467829,0
2021-10-21 15:41:10.467837,4
2021-10-21 15:41:10.467845,4
2021-10-21 15:41:10.603915,0
2021-10-21 15:41:10.603938,-4
2021-10-21 15:41:10.603947,-7
2021-10-21 15:41:10.603956,-9
2021-10-21 15:41:10.603964,-9
2021-10-21 15:41:10.603972,-9
2021-10-21 15:41:10.603981,-26
2021-10-21 15:41:10.603989,-46
2021-10-21 15:41:10.603997,-48
2021-10-21 15:41:10.604006,-48
2021-10-21 15:41:10.604014,-55
2021-10-21 15:41:10.604022,-55
2021-10-21 15:41:10.604030,-58
2021-10-21 15:41:10.604039,-70
2021-10-21 15:41:10.604051,-80
2021-10-21 15:41:10.604059,-72
2021-10-21 15:41:10.604068,-72
2021-10-21 15:41:10.604076,-82
2021-10-21 15:41:10.604084,-104
2021-10-21 15:41:10.604092,-119
2021-10-21 15:41:10.604101,-133
2021-10-21 15:41:10.604109,-141
2021-10-21 15:41:10.604117,-114
2021-10-21 15:41:10.604125,-94
2021-10-21 15:41:10.604134,-109
2021-10-21 15:41:10.604142,-114
2021-10-21 15:41:10.604151,-111
2021-10-21 15:41:10.604159,-121
2021-10-21 15:41:10.604167,-124
2021-10-21 15:41:10.604175,-116
2021-10-21 15:41:10.828794,-116
2021-10-21 15:41:10.828815,-109
2021-10-21 15:41:10.828825,-102
2021-10-21 15:41:10.828833,-107
2021-10-21 15:41:10.828842,-107
2021-10-21 15:41:10.828850,-109
2021-10-21 15:41:10.828858,-145
2021-10-21 15:41:10.828866,-201
2021-10-21 15:41:10.828875,-187
2021-10-21 15:41:10.828883,41
2021-10-21 15:41:10.828892,579
2021-10-21 15:41:10.828900,1109
2021-10-21 15:41:10.828908,914
2021-10-21 15:41:10.828916,82
2021-10-21 15:41:10.828925,-301
2021-10-21 15:41:10.828933,-111
2021-10-21 15:41:10.828941,-109
2021-10-21 15:41:10.828950,-243
2021-10-21 15:41:10.828958,-197
2021-10-21 15:41:10.828966,-155
2021-10-21 15:41:10.828974,-184
2021-10-21 15:41:10.828983,-167
2021-10-21 15:41:10.828991,-133
2021-10-21 15:41:10.828999,-128
2021-10-21 15:41:10.829008,-121
2021-10-21 15:41:10.829016,-99
2021-10-21 15:41:10.829024,-85
2021-10-21 15:41:10.829033,-80
2021-10-21 15:41:10.829041,-70
2021-10-21 15:41:10.829050,-60
2021-10-21 15:41:11.053951,-51
2021-10-21 15:41:11.053974,-36
2021-10-21 15:41:11.053984,-26
2021-10-21 15:41:11.053992,-26
2021-10-21 15:41:11.054001,-26
2021-10-21 15:41:11.054009,-34
2021-10-21 15:41:11.054017,-43
2021-10-21 15:41:11.054026,-36
2021-10-21 15:41:11.054034,-31
2021-10-21 15:41:11.054043,-36
2021-10-21 15:41:11.054051,-41
2021-10-21 15:41:11.054059,-48
2021-10-21 15:41:11.054068,-53
2021-10-21 15:41:11.054076,-48
2021-10-21 15:41:11.054084,-48
2021-10-21 15:41:11.054092,-53
2021-10-21 15:41:11.054101,-60
2021-10-21 15:41:11.054109,-77
2021-10-21 15:41:11.054117,-90
2021-10-21 15:41:11.054138,-87
2021-10-21 15:41:11.054146,-85
2021-10-21 15:41:11.054155,-87
2021-10-21 15:41:11.054163,-85
2021-10-21 15:41:11.054171,-75
2021-10-21 15:41:11.054179,-60
2021-10-21 15:41:11.054187,-51
2021-10-21 15:41:11.054195,-58
2021-10-21 15:41:11.054203,-72
2021-10-21 15:41:11.054211,-77
2021-10-21 15:41:11.054220,-72
2021-10-21 15:41:11.413963,-53
2021-10-21 15:41:11.413985,-29
2021-10-21 15:41:11.413995,-36
2021-10-21 15:41:11.414003,-63
2021-10-21 15:41:11.414012,-72
2021-10-21 15:41:11.414020,-70
2021-10-21 15:41:11.414028,-63
2021-10-21 15:41:11.414037,-60
2021-10-21 15:41:11.414045,-63
2021-10-21 15:41:11.414053,-68
2021-10-21 15:41:11.414062,-80
2021-10-21 15:41:11.414070,-72
2021-10-21 15:41:11.414079,-41
2021-10-21 15:41:11.414087,-24
2021-10-21 15:41:11.414095,-17
2021-10-21 15:41:11.414103,-14
2021-10-21 15:41:11.414111,-41
2021-10-21 15:41:11.414120,-58
2021-10-21 15:41:11.414128,-26
2021-10-21 15:41:11.414136,2
2021-10-21 15:41:11.414145,-12
2021-10-21 15:41:11.414153,-31
2021-10-21 15:41:11.414161,-51
2021-10-21 15:41:11.414169,-75
2021-10-21 15:41:11.414177,-63
2021-10-21 15:41:11.414185,-53
2021-10-21 15:41:11.414193,-65
2021-10-21 15:41:11.414201,-63
2021-10-21 15:41:11.414209,-58
2021-10-21 15:41:11.414218,-63
2021-10-21 15:41:11.503917,-55
2021-10-21 15:41:11.503939,-36
2021-10-21 15:41:11.503948,-24
2021-10-21 15:41:11.503957,-63
2021-10-21 15:41:11.503965,-116
2021-10-21 15:41:11.503973,-65
2021-10-21 15:41:11.503982,226
2021-10-21 15:41:11.503991,783
2021-10-21 15:41:11.503999,1197
2021-10-21 15:41:11.504007,788
2021-10-21 15:41:11.504016,-70
2021-10-21 15:41:11.504024,-262
2021-10-21 15:41:11.504032,-12
2021-10-21 15:41:11.504040,-65
2021-10-21 15:41:11.504048,-163
2021-10-21 15:41:11.504056,-82
2021-10-21 15:41:11.504065,-68
2021-10-21 15:41:11.504073,-97
2021-10-21 15:41:11.504081,-46
2021-10-21 15:41:11.504089,24
2021-10-21 15:41:11.504098,29
2021-10-21 15:41:11.504106,-2
2021-10-21 15:41:11.504114,0
2021-10-21 15:41:11.504122,41
2021-10-21 15:41:11.504130,58
2021-10-21 15:41:11.504138,51
2021-10-21 15:41:11.504147,53
2021-10-21 15:41:11.504155,58
2021-10-21 15:41:11.504163,55
2021-10-21 15:41:11.504171,63
2021-10-21 15:41:11.818933,60
2021-10-21 15:41:11.818955,48
2021-10-21 15:41:11.818964,34
2021-10-21 15:41:11.818973,19
2021-10-21 15:41:11.818981,17
2021-10-21 15:41:11.818989,26
2021-10-21 15:41:11.818998,34
2021-10-21 15:41:11.819006,38
2021-10-21 15:41:11.819014,34
2021-10-21 15:41:11.819022,12
2021-10-21 15:41:11.819031,0
2021-10-21 15:41:11.819039,-4
2021-10-21 15:41:11.819048,-14
2021-10-21 15:41:11.819056,-26
2021-10-21 15:41:11.819064,-46
2021-10-21 15:41:11.819072,-65
2021-10-21 15:41:11.819080,-65
2021-10-21 15:41:11.819089,-53
2021-10-21 15:41:11.819097,-48
2021-10-21 15:41:11.819105,-43
2021-10-21 15:41:11.819113,-36
2021-10-21 15:41:11.819121,-38
2021-10-21 15:41:11.819130,-36
2021-10-21 15:41:11.819138,-34
2021-10-21 15:41:11.819146,-38
2021-10-21 15:41:11.819154,-38
2021-10-21 15:41:11.819162,-38
2021-10-21 15:41:11.819170,-41
2021-10-21 15:41:11.819179,-29
2021-10-21 15:41:11.819187,-17
2021-10-21 15:41:12.088344,-19
2021-10-21 15:41:12.088367,-21
2021-10-21 15:41:12.088376,-24
2021-10-21 15:41:12.088385,-29
2021-10-21 15:41:12.088393,-26
2021-10-21 15:41:12.088402,-24
2021-10-21 15:41:12.088410,-29
2021-10-21 15:41:12.088418,-34
2021-10-21 15:41:12.088427,-43
2021-10-21 15:41:12.088435,-51
2021-10-21 15:41:12.088443,-34
2021-10-21 15:41:12.088452,-4
2021-10-21 15:41:12.088460,4
2021-10-21 15:41:12.088468,0
2021-10-21 15:41:12.088477,-21
2021-10-21 15:41:12.088485,-41
2021-10-21 15:41:12.088493,-34
2021-10-21 15:41:12.088502,-24
2021-10-21 15:41:12.088510,-21
2021-10-21 15:41:12.088518,-24
2021-10-21 15:41:12.088526,-38
2021-10-21 15:41:12.088534,-43
2021-10-21 15:41:12.088542,-34
2021-10-21 15:41:12.088551,-36
2021-10-21 15:41:12.088559,-38
2021-10-21 15:41:12.088567,-53
2021-10-21 15:41:12.088575,-109
2021-10-21 15:41:12.088584,-148
2021-10-21 15:41:12.088592,-17
2021-10-21 15:41:12.088600,423
2021-10-21 15:41:12.223939,1063
2021-10-21 15:41:12.223962,1279
2021-10-21 15:41:12.223971,598
2021-10-21 15:41:12.223980,-145
2021-10-21 15:41:12.223989,-119
2021-10-21 15:41:12.223997,43
2021-10-21 15:41:12.224006,-102
2021-10-21 15:41:12.224014,-160
2021-10-21 15:41:12.224023,-97
2021-10-21 15:41:12.224031,-104
2021-10-21 15:41:12.224040,-111
2021-10-21 15:41:12.224048,-72
2021-10-21 15:41:12.224056,-58
2021-10-21 15:41:12.224065,-70
2021-10-21 15:41:12.224073,-68
2021-10-21 15:41:12.224081,-48
2021-10-21 15:41:12.224089,-34
2021-10-21 15:41:12.224098,-19
2021-10-21 15:41:12.224106,-7
2021-10-21 15:41:12.224114,-9
2021-10-21 15:41:12.224123,-19
2021-10-21 15:41:12.224131,-21
2021-10-21 15:41:12.224139,-9
2021-10-21 15:41:12.224147,2
2021-10-21 15:41:12.224155,7
2021-10-21 15:41:12.224164,2
2021-10-21 15:41:12.224172,-2
2021-10-21 15:41:12.224180,-4
2021-10-21 15:41:12.224188,-12
2021-10-21 15:41:12.224197,-9
2021-10-21 15:41:12.582602,-7
2021-10-21 15:41:12.582624,-17
2021-10-21 15:41:12.582634,-24
2021-10-21 15:41:12.582643,-34
2021-10-21 15:41:12.582651,-46
2021-10-21 15:41:12.582659,-48
2021-10-21 15:41:12.582668,-51
2021-10-21 15:41:12.582676,-65
2021-10-21 15:41:12.582685,-75
2021-10-21 15:41:12.582693,-80
2021-10-21 15:41:12.582701,-75
2021-10-21 15:41:12.582710,-68
2021-10-21 15:41:12.582718,-72
2021-10-21 15:41:12.582727,-72
2021-10-21 15:41:12.582735,-55
2021-10-21 15:41:12.582743,-41
2021-10-21 15:41:12.582752,-41
2021-10-21 15:41:12.582760,-38
2021-10-21 15:41:12.582768,-34
2021-10-21 15:41:12.582777,-31
2021-10-21 15:41:12.582785,-29
2021-10-21 15:41:12.582793,-31
2021-10-21 15:41:12.582801,-31
2021-10-21 15:41:12.582810,-34
2021-10-21 15:41:12.582818,-38
2021-10-21 15:41:12.582826,-41
2021-10-21 15:41:12.582835,-38
2021-10-21 15:41:12.582843,-41
2021-10-21 15:41:12.582852,-41
2021-10-21 15:41:12.582860,-41
2021-10-21 15:41:12.673991,-34
2021-10-21 15:41:12.674014,-12
2021-10-21 15:41:12.674023,-2
2021-10-21 15:41:12.674031,-21
2021-10-21 15:41:12.674040,-26
2021-10-21 15:41:12.674048,-19
2021-10-21 15:41:12.674056,-21
2021-10-21 15:41:12.674064,-24
2021-10-21 15:41:12.674072,-21
2021-10-21 15:41:12.674081,-21
2021-10-21 15:41:12.674089,-17
2021-10-21 15:41:12.674097,-12
2021-10-21 15:41:12.674105,-19
2021-10-21 15:41:12.674113,-29
2021-10-21 15:41:12.674122,-31
2021-10-21 15:41:12.674130,-60
2021-10-21 15:41:12.674138,-119
2021-10-21 15:41:12.674146,-85
2021-10-21 15:41:12.674155,221
2021-10-21 15:41:12.674163,839
2021-10-21 15:41:12.674171,1328
2021-10-21 15:41:12.674179,963
2021-10-21 15:41:12.674188,75
2021-10-21 15:41:12.674196,-206
2021-10-21 15:41:12.674204,-12
2021-10-21 15:41:12.674212,-75
2021-10-21 15:41:12.674220,-199
2021-10-21 15:41:12.674228,-148
2021-10-21 15:41:12.674237,-128
2021-10-21 15:41:12.674245,-170
2021-10-21 15:41:12.988364,-153
2021-10-21 15:41:12.988385,-126
2021-10-21 15:41:12.988394,-141
2021-10-21 15:41:12.988403,-138
2021-10-21 15:41:12.988412,-116
2021-10-21 15:41:12.988420,-116
2021-10-21 15:41:12.988428,-114
2021-10-21 15:41:12.988436,-87
2021-10-21 15:41:12.988445,-72
2021-10-21 15:41:12.988453,-72
2021-10-21 15:41:12.988461,-63
2021-10-21 15:41:12.988469,-63
2021-10-21 15:41:12.988478,-68
2021-10-21 15:41:12.988486,-53
2021-10-21 15:41:12.988494,-46
2021-10-21 15:41:12.988503,-48
2021-10-21 15:41:12.988511,-48
2021-10-21 15:41:12.988519,-48
2021-10-21 15:41:12.988528,-48
2021-10-21 15:41:12.988536,-46
2021-10-21 15:41:12.988544,-46
2021-10-21 15:41:12.988553,-53
2021-10-21 15:41:12.988561,-60
2021-10-21 15:41:12.988569,-68
2021-10-21 15:41:12.988577,-70
2021-10-21 15:41:12.988585,-70
2021-10-21 15:41:12.988594,-77
2021-10-21 15:41:12.988602,-90
2021-10-21 15:41:12.988610,-94
2021-10-21 15:41:12.988618,-90
2021-10-21 15:41:13.123961,-80
2021-10-21 15:41:13.123984,-72
2021-10-21 15:41:13.123993,-65
2021-10-21 15:41:13.124002,-72
2021-10-21 15:41:13.124011,-90
2021-10-21 15:41:13.124019,-94
2021-10-21 15:41:13.124027,-82
2021-10-21 15:41:13.124036,-75
2021-10-21 15:41:13.124044,-77
2021-10-21 15:41:13.124052,-80
2021-10-21 15:41:13.124060,-87
2021-10-21 15:41:13.124068,-90
2021-10-21 15:41:13.124077,-82
2021-10-21 15:41:13.124085,-75
2021-10-21 15:41:13.124093,-82
2021-10-21 15:41:13.124101,-85
2021-10-21 15:41:13.124110,-82
2021-10-21 15:41:13.124118,-72
2021-10-21 15:41:13.124126,-70
2021-10-21 15:41:13.124138,-77
2021-10-21 15:41:13.124147,-82
2021-10-21 15:41:13.124155,-99
2021-10-21 15:41:13.124163,-126
2021-10-21 15:41:13.124171,-116
2021-10-21 15:41:13.124179,-94
2021-10-21 15:41:13.124187,-99
2021-10-21 15:41:13.124195,-109
2021-10-21 15:41:13.124204,-109
2021-10-21 15:41:13.124212,-109
2021-10-21 15:41:13.124220,-102
2021-10-21 15:41:13.348892,-92
2021-10-21 15:41:13.348912,-97
2021-10-21 15:41:13.348922,-145
2021-10-21 15:41:13.348930,-199
2021-10-21 15:41:13.348939,-99
2021-10-21 15:41:13.348947,330
2021-10-21 15:41:13.348956,995
2021-10-21 15:41:13.348964,1270
2021-10-21 15:41:13.348972,627
2021-10-21 15:41:13.348980,-165
2021-10-21 15:41:13.348989,-197
2021-10-21 15:41:13.348997,-24
2021-10-21 15:41:13.349005,-153
2021-10-21 15:41:13.349014,-206
2021-10-21 15:41:13.349022,-133
2021-10-21 15:41:13.349031,-145
2021-10-21 15:41:13.349039,-165
2021-10-21 15:41:13.349047,-124
2021-10-21 15:41:13.349056,-111
2021-10-21 15:41:13.349064,-116
2021-10-21 15:41:13.349072,-99
2021-10-21 15:41:13.349081,-87
2021-10-21 15:41:13.349089,-85
2021-10-21 15:41:13.349097,-65
2021-10-21 15:41:13.349105,-48
2021-10-21 15:41:13.349113,-43
2021-10-21 15:41:13.349121,-36
2021-10-21 15:41:13.349130,-31
2021-10-21 15:41:13.349138,-26
2021-10-21 15:41:13.349146,-19
2021-10-21 15:41:13.663970,-24
2021-10-21 15:41:13.663990,-29
2021-10-21 15:41:13.663999,-38
2021-10-21 15:41:13.664008,-63
2021-10-21 15:41:13.664016,-68
2021-10-21 15:41:13.664025,-55
2021-10-21 15:41:13.664033,-58
2021-10-21 15:41:13.664041,-70
2021-10-21 15:41:13.664049,-87
2021-10-21 15:41:13.664058,-109
2021-10-21 15:41:13.664066,-116
2021-10-21 15:41:13.664074,-116
2021-10-21 15:41:13.664082,-119
2021-10-21 15:41:13.664090,-121
2021-10-21 15:41:13.664099,-126
2021-10-21 15:41:13.664107,-131
2021-10-21 15:41:13.664115,-124
2021-10-21 15:41:13.664123,-107
2021-10-21 15:41:13.664132,-94
2021-10-21 15:41:13.664140,-92
2021-10-21 15:41:13.664148,-90
2021-10-21 15:41:13.664156,-87
2021-10-21 15:41:13.664164,-77
2021-10-21 15:41:13.664172,-75
2021-10-21 15:41:13.664181,-90
2021-10-21 15:41:13.664189,-90
2021-10-21 15:41:13.664197,-75
2021-10-21 15:41:13.664205,-70
2021-10-21 15:41:13.664213,-72
2021-10-21 15:41:13.664222,-63
2021-10-21 15:41:13.843811,-51
2021-10-21 15:41:13.843831,-41
2021-10-21 15:41:13.843840,-36
2021-10-21 15:41:13.843849,-41
2021-10-21 15:41:13.843857,-43
2021-10-21 15:41:13.843866,-38
2021-10-21 15:41:13.843874,-31
2021-10-21 15:41:13.843883,-36
2021-10-21 15:41:13.843891,-53
2021-10-21 15:41:13.843900,-65
2021-10-21 15:41:13.843908,-68
2021-10-21 15:41:13.843916,-60
2021-10-21 15:41:13.843925,-53
2021-10-21 15:41:13.843933,-58
2021-10-21 15:41:13.843942,-70
2021-10-21 15:41:13.843950,-77
2021-10-21 15:41:13.843958,-82
2021-10-21 15:41:13.843967,-126
2021-10-21 15:41:13.843975,-163
2021-10-21 15:41:13.843983,-7
2021-10-21 15:41:13.843992,479
2021-10-21 15:41:13.844000,1107
2021-10-21 15:41:13.844008,1182
2021-10-21 15:41:13.844017,379
2021-10-21 15:41:13.844025,-272
2021-10-21 15:41:13.844033,-121
2021-10-21 15:41:13.844042,9
2021-10-21 15:41:13.844050,-160
2021-10-21 15:41:13.844058,-158
2021-10-21 15:41:13.844067,-77
2021-10-21 15:41:14.158372,-109
2021-10-21 15:41:14.158395,-111
2021-10-21 15:41:14.158405,-72
2021-10-21 15:41:14.158415,-70
2021-10-21 15:41:14.158425,-63
2021-10-21 15:41:14.158434,-38
2021-10-21 15:41:14.158443,-31
2021-10-21 15:41:14.158453,-34
2021-10-21 15:41:14.158462,-34
2021-10-21 15:41:14.158471,-19
2021-10-21 15:41:14.158480,-2
2021-10-21 15:41:14.158489,2
2021-10-21 15:41:14.158498,-4
2021-10-21 15:41:14.158508,-12
2021-10-21 15:41:14.158517,-14
2021-10-21 15:41:14.158526,-12
2021-10-21 15:41:14.158535,-7
2021-10-21 15:41:14.158543,-4
2021-10-21 15:41:14.158551,-7
2021-10-21 15:41:14.158560,-14
2021-10-21 15:41:14.158568,-19
2021-10-21 15:41:14.158576,-21
2021-10-21 15:41:14.158585,-34
2021-10-21 15:41:14.158593,-48
2021-10-21 15:41:14.158601,-55
2021-10-21 15:41:14.158609,-60
2021-10-21 15:41:14.158618,-75
2021-10-21 15:41:14.158626,-85
2021-10-21 15:41:14.158635,-90
2021-10-21 15:41:14.158644,-99
2021-10-21 15:41:14.293971,-119
2021-10-21 15:41:14.293994,-124
2021-10-21 15:41:14.294003,-111
2021-10-21 15:41:14.294012,-111
2021-10-21 15:41:14.294020,-116
2021-10-21 15:41:14.294029,-109
2021-10-21 15:41:14.294037,-109
2021-10-21 15:41:14.294046,-111
2021-10-21 15:41:14.294054,-107
2021-10-21 15:41:14.294062,-104
2021-10-21 15:41:14.294071,-102
2021-10-21 15:41:14.294079,-92
2021-10-21 15:41:14.294088,-99
2021-10-21 15:41:14.294096,-121
2021-10-21 15:41:14.294104,-131
2021-10-21 15:41:14.294113,-121
2021-10-21 15:41:14.294121,-102
2021-10-21 15:41:14.294130,-85
2021-10-21 15:41:14.294138,-90
2021-10-21 15:41:14.294146,-104
2021-10-21 15:41:14.294154,-107
2021-10-21 15:41:14.294163,-109
2021-10-21 15:41:14.294171,-111
2021-10-21 15:41:14.294179,-109
2021-10-21 15:41:14.294187,-109
2021-10-21 15:41:14.294196,-111
2021-10-21 15:41:14.294204,-104
2021-10-21 15:41:14.294212,-99
2021-10-21 15:41:14.294221,-94
2021-10-21 15:41:14.294229,-85
2021-10-21 15:41:14.698170,-92
2021-10-21 15:41:14.698191,-133
2021-10-21 15:41:14.698200,-187
2021-10-21 15:41:14.698209,-116
2021-10-21 15:41:14.698217,277
2021-10-21 15:41:14.698226,970
2021-10-21 15:41:14.698234,1403
2021-10-21 15:41:14.698243,873
2021-10-21 15:41:14.698252,-63
2021-10-21 15:41:14.698260,-238
2021-10-21 15:41:14.698268,-2
2021-10-21 15:41:14.698277,-102
2021-10-21 15:41:14.698285,-221
2021-10-21 15:41:14.698293,-143
2021-10-21 15:41:14.698301,-121
2021-10-21 15:41:14.698310,-158
2021-10-21 15:41:14.698318,-138
2021-10-21 15:41:14.698326,-114
2021-10-21 15:41:14.698335,-111
2021-10-21 15:41:14.698343,-97
2021-10-21 15:41:14.698351,-77
2021-10-21 15:41:14.698360,-68
2021-10-21 15:41:14.698368,-58
2021-10-21 15:41:14.698376,-43
2021-10-21 15:41:14.698385,-38
2021-10-21 15:41:14.698393,-26
2021-10-21 15:41:14.698402,-14
2021-10-21 15:41:14.698410,-9
2021-10-21 15:41:14.698418,-2
2021-10-21 15:41:14.698427,0
2021-10-21 15:41:14.878387,-4
2021-10-21 15:41:14.878409,0
2021-10-21 15:41:14.878419,2
2021-10-21 15:41:14.878428,-2
2021-10-21 15:41:14.878436,-4
2021-10-21 15:41:14.878445,-14
2021-10-21 15:41:14.878453,-34
2021-10-21 15:41:14.878461,-36
2021-10-21 15:41:14.878470,-31
2021-10-21 15:41:14.878478,-41
2021-10-21 15:41:14.878486,-53
2021-10-21 15:41:14.878494,-60
2021-10-21 15:41:14.878503,-65
2021-10-21 15:41:14.878511,-68
2021-10-21 15:41:14.878519,-65
2021-10-21 15:41:14.878527,-65
2021-10-21 15:41:14.878536,-53
2021-10-21 15:41:14.878544,-48
2021-10-21 15:41:14.878552,-55
2021-10-21 15:41:14.878561,-58
2021-10-21 15:41:14.878569,-53
2021-10-21 15:41:14.878577,-48
2021-10-21 15:41:14.878585,-53
2021-10-21 15:41:14.878593,-65
2021-10-21 15:41:14.878602,-63
2021-10-21 15:41:14.878610,-51
2021-10-21 15:41:14.878618,-46
2021-10-21 15:41:14.878627,-53
2021-10-21 15:41:14.878635,-58
2021-10-21 15:41:14.878643,-70
2021-10-21 15:41:14.969054,-77
2021-10-21 15:41:14.969076,-77
2021-10-21 15:41:14.969086,-80
2021-10-21 15:41:14.969094,-87
2021-10-21 15:41:14.969103,-87
2021-10-21 15:41:14.969111,-75
2021-10-21 15:41:14.969120,-60
2021-10-21 15:41:14.969128,-58
2021-10-21 15:41:14.969136,-70
2021-10-21 15:41:14.969144,-80
2021-10-21 15:41:14.969153,-92
2021-10-21 15:41:14.969161,-99
2021-10-21 15:41:14.969169,-90
2021-10-21 15:41:14.969178,-80
2021-10-21 15:41:14.969186,-77
2021-10-21 15:41:14.969194,-77
2021-10-21 15:41:14.969202,-87
2021-10-21 15:41:14.969210,-90
2021-10-21 15:41:14.969218,-77
2021-10-21 15:41:14.969227,-85
2021-10-21 15:41:14.969235,-143
2021-10-21 15:41:14.969254,-167
2021-10-21 15:41:14.969262,21
2021-10-21 15:41:14.969271,596
2021-10-21 15:41:14.969279,1313
2021-10-21 15:41:14.969287,1345
2021-10-21 15:41:14.969295,437
2021-10-21 15:41:14.969303,-233
2021-10-21 15:41:14.969312,-90
2021-10-21 15:41:14.969320,2
2021-10-21 15:41:15.193987,-172
2021-10-21 15:41:15.194009,-165
2021-10-21 15:41:15.194018,-94
2021-10-21 15:41:15.194027,-131
2021-10-21 15:41:15.194036,-148
2021-10-21 15:41:15.194044,-107
2021-10-21 15:41:15.194052,-90
2021-10-21 15:41:15.194060,-85
2021-10-21 15:41:15.194069,-68
2021-10-21 15:41:15.194077,-65
2021-10-21 15:41:15.194085,-72
2021-10-21 15:41:15.194093,-75
2021-10-21 15:41:15.194101,-68
2021-10-21 15:41:15.194110,-51
2021-10-21 15:41:15.194118,-36
2021-10-21 15:41:15.194126,-36
2021-10-21 15:41:15.194134,-31
2021-10-21 15:41:15.194142,-17
2021-10-21 15:41:15.194151,-4
2021-10-21 15:41:15.194159,-4
2021-10-21 15:41:15.194167,-2
2021-10-21 15:41:15.194175,-4
2021-10-21 15:41:15.194184,-17
2021-10-21 15:41:15.194192,-19
2021-10-21 15:41:15.194200,-9
2021-10-21 15:41:15.194208,-12
2021-10-21 15:41:15.194216,-21
2021-10-21 15:41:15.194224,-34
2021-10-21 15:41:15.194232,-41
2021-10-21 15:41:15.194241,-38
2021-10-21 15:41:15.463988,-41
2021-10-21 15:41:15.464011,-46
2021-10-21 15:41:15.464020,-55
2021-10-21 15:41:15.464029,-70
2021-10-21 15:41:15.464038,-70
2021-10-21 15:41:15.464046,-51
2021-10-21 15:41:15.464055,-36
2021-10-21 15:41:15.464063,-29
2021-10-21 15:41:15.464071,-29
2021-10-21 15:41:15.464080,-38
2021-10-21 15:41:15.464088,-38
2021-10-21 15:41:15.464097,-26
2021-10-21 15:41:15.464105,-29
2021-10-21 15:41:15.464113,-34
2021-10-21 15:41:15.464121,-29
2021-10-21 15:41:15.464130,-31
2021-10-21 15:41:15.464138,-29
2021-10-21 15:41:15.464146,-19
2021-10-21 15:41:15.464155,-17
2021-10-21 15:41:15.464163,-17
2021-10-21 15:41:15.464171,-17
2021-10-21 15:41:15.464180,-24
2021-10-21 15:41:15.464188,-26
2021-10-21 15:41:15.464196,-31
2021-10-21 15:41:15.464205,-46
2021-10-21 15:41:15.464213,-58
2021-10-21 15:41:15.464222,-65
2021-10-21 15:41:15.464230,-72
2021-10-21 15:41:15.464238,-70
2021-10-21 15:41:15.464247,-55
2021-10-21 15:41:15.688979,-41
2021-10-21 15:41:15.689001,-21
2021-10-21 15:41:15.689010,-14
2021-10-21 15:41:15.689019,-26
2021-10-21 15:41:15.689028,-29
2021-10-21 15:41:15.689036,-26
2021-10-21 15:41:15.689044,-34
2021-10-21 15:41:15.689053,-38
2021-10-21 15:41:15.689061,-46
2021-10-21 15:41:15.689070,-55
2021-10-21 15:41:15.689078,-48
2021-10-21 15:41:15.689087,-36
2021-10-21 15:41:15.689095,-36
2021-10-21 15:41:15.689103,-36
2021-10-21 15:41:15.689111,-46
2021-10-21 15:41:15.689120,-80
2021-10-21 15:41:15.689128,-145
2021-10-21 15:41:15.689136,-189
2021-10-21 15:41:15.689145,4
2021-10-21 15:41:15.689153,608
2021-10-21 15:41:15.689162,1330
2021-10-21 15:41:15.689170,1340
2021-10-21 15:41:15.689179,440
2021-10-21 15:41:15.689187,-209
2021-10-21 15:41:15.689195,-72
2021-10-21 15:41:15.689204,7
2021-10-21 15:41:15.689212,-177
2021-10-21 15:41:15.689220,-184
2021-10-21 15:41:15.689228,-102
2021-10-21 15:41:15.689237,-121
2021-10-21 15:41:15.958929,-124
2021-10-21 15:41:15.958950,-87
2021-10-21 15:41:15.958959,-82
2021-10-21 15:41:15.958968,-85
2021-10-21 15:41:15.958977,-63
2021-10-21 15:41:15.958985,-43
2021-10-21 15:41:15.958994,-38
2021-10-21 15:41:15.959002,-36
2021-10-21 15:41:15.959010,-41
2021-10-21 15:41:15.959019,-31
2021-10-21 15:41:15.959027,-9
2021-10-21 15:41:15.959035,0
2021-10-21 15:41:15.959044,4
2021-10-21 15:41:15.959052,2
2021-10-21 15:41:15.959060,-4
2021-10-21 15:41:15.959069,-2
2021-10-21 15:41:15.959077,7
2021-10-21 15:41:15.959085,9
2021-10-21 15:41:15.959093,7
2021-10-21 15:41:15.959102,2
2021-10-21 15:41:15.959110,-4
2021-10-21 15:41:15.959118,-7
2021-10-21 15:41:15.959126,-4
2021-10-21 15:41:15.959134,-9
2021-10-21 15:41:15.959143,-19
2021-10-21 15:41:15.959151,-26
2021-10-21 15:41:15.959159,-34
2021-10-21 15:41:15.959167,-46
2021-10-21 15:41:15.959175,-55
2021-10-21 15:41:15.959184,-55
2021-10-21 15:41:16.138986,-51
2021-10-21 15:41:16.139007,-55
2021-10-21 15:41:16.139017,-60
2021-10-21 15:41:16.139026,-53
2021-10-21 15:41:16.139034,-43
2021-10-21 15:41:16.139046,-36
2021-10-21 15:41:16.139055,-34
2021-10-21 15:41:16.139063,-31
2021-10-21 15:41:16.139071,-29
2021-10-21 15:41:16.139080,-24
2021-10-21 15:41:16.139088,-21
2021-10-21 15:41:16.139097,-21
2021-10-21 15:41:16.139105,-36
2021-10-21 15:41:16.139113,-55
2021-10-21 15:41:16.139121,-55
2021-10-21 15:41:16.139130,-58
2021-10-21 15:41:16.139138,-65
2021-10-21 15:41:16.139146,-63
2021-10-21 15:41:16.139155,-70
2021-10-21 15:41:16.139163,-82
2021-10-21 15:41:16.139171,-72
2021-10-21 15:41:16.139179,-70
2021-10-21 15:41:16.139187,-90
2021-10-21 15:41:16.139195,-104
2021-10-21 15:41:16.139204,-97
2021-10-21 15:41:16.139212,-92
2021-10-21 15:41:16.139220,-92
2021-10-21 15:41:16.139228,-87
2021-10-21 15:41:16.139236,-77
2021-10-21 15:41:16.139244,-77
2021-10-21 15:41:16.363995,-85
2021-10-21 15:41:16.364018,-85
2021-10-21 15:41:16.364028,-72
2021-10-21 15:41:16.364036,-55
2021-10-21 15:41:16.364045,-34
2021-10-21 15:41:16.364053,-29
2021-10-21 15:41:16.364061,-51
2021-10-21 15:41:16.364070,-60
2021-10-21 15:41:16.364078,-55
2021-10-21 15:41:16.364086,-60
2021-10-21 15:41:16.364094,-65
2021-10-21 15:41:16.364103,-63
2021-10-21 15:41:16.364111,-72
2021-10-21 15:41:16.364119,-72
2021-10-21 15:41:16.364127,-63
2021-10-21 15:41:16.364136,-58
2021-10-21 15:41:16.364144,-58
2021-10-21 15:41:16.364152,-53
2021-10-21 15:41:16.364160,-72
2021-10-21 15:41:16.364169,-133
2021-10-21 15:41:16.364177,-172
2021-10-21 15:41:16.364185,-4
2021-10-21 15:41:16.364194,554
2021-10-21 15:41:16.364202,1287
2021-10-21 15:41:16.364210,1382
2021-10-21 15:41:16.364219,525
2021-10-21 15:41:16.364227,-177
2021-10-21 15:41:16.364235,-77
2021-10-21 15:41:16.364243,31
2021-10-21 15:41:16.364252,-141
2021-10-21 15:41:16.677704,-155
2021-10-21 15:41:16.677725,-82
2021-10-21 15:41:16.677735,-114
2021-10-21 15:41:16.677744,-131
2021-10-21 15:41:16.677752,-92
2021-10-21 15:41:16.677760,-90
2021-10-21 15:41:16.677769,-102
2021-10-21 15:41:16.677777,-75
2021-10-21 15:41:16.677785,-55
2021-10-21 15:41:16.677794,-55
2021-10-21 15:41:16.677802,-46
2021-10-21 15:41:16.677810,-38
2021-10-21 15:41:16.677818,-38
2021-10-21 15:41:16.677827,-24
2021-10-21 15:41:16.677835,-12
2021-10-21 15:41:16.677843,-9
2021-10-21 15:41:16.677852,-4
2021-10-21 15:41:16.677860,-7
2021-10-21 15:41:16.677868,-14
2021-10-21 15:41:16.677877,-17
2021-10-21 15:41:16.677885,-14
2021-10-21 15:41:16.677893,-19
2021-10-21 15:41:16.677901,-21
2021-10-21 15:41:16.677909,-24
2021-10-21 15:41:16.677918,-24
2021-10-21 15:41:16.677926,-21
2021-10-21 15:41:16.677934,-26
2021-10-21 15:41:16.677943,-51
2021-10-21 15:41:16.677951,-80
2021-10-21 15:41:16.677959,-90
2021-10-21 15:41:16.814033,-90
2021-10-21 15:41:16.814057,-99
2021-10-21 15:41:16.814066,-109
2021-10-21 15:41:16.814075,-111
2021-10-21 15:41:16.814083,-109
2021-10-21 15:41:16.814092,-109
2021-10-21 15:41:16.814100,-99
2021-10-21 15:41:16.814109,-87
2021-10-21 15:41:16.814117,-82
2021-10-21 15:41:16.814125,-80
2021-10-21 15:41:16.814133,-85
2021-10-21 15:41:16.814142,-92
2021-10-21 15:41:16.814150,-82
2021-10-21 15:41:16.814158,-70
2021-10-21 15:41:16.814166,-70
2021-10-21 15:41:16.814174,-72
2021-10-21 15:41:16.814183,-80
2021-10-21 15:41:16.814191,-87
2021-10-21 15:41:16.814200,-77
2021-10-21 15:41:16.814208,-63
2021-10-21 15:41:16.814216,-65
2021-10-21 15:41:16.814224,-70
2021-10-21 15:41:16.814233,-70
2021-10-21 15:41:16.814241,-68
2021-10-21 15:41:16.814249,-60
2021-10-21 15:41:16.814257,-53
2021-10-21 15:41:16.814265,-51
2021-10-21 15:41:16.814273,-51
2021-10-21 15:41:16.814282,-51
2021-10-21 15:41:16.814290,-46
2021-10-21 15:41:17.128399,-36
2021-10-21 15:41:17.128421,-34
2021-10-21 15:41:17.128431,-31
2021-10-21 15:41:17.128440,-36
2021-10-21 15:41:17.128448,-48
2021-10-21 15:41:17.128456,-48
2021-10-21 15:41:17.128465,-46
2021-10-21 15:41:17.128473,-46
2021-10-21 15:41:17.128481,-43
2021-10-21 15:41:17.128490,-53
2021-10-21 15:41:17.128498,-63
2021-10-21 15:41:17.128506,-46
2021-10-21 15:41:17.128514,-17
2021-10-21 15:41:17.128523,2
2021-10-21 15:41:17.128531,-2
2021-10-21 15:41:17.128540,-14
2021-10-21 15:41:17.128548,-17
2021-10-21 15:41:17.128556,-17
2021-10-21 15:41:17.128565,-19
2021-10-21 15:41:17.128573,-17
2021-10-21 15:41:17.128581,-14
2021-10-21 15:41:17.128589,-19
2021-10-21 15:41:17.128598,-17
2021-10-21 15:41:17.128606,-7
2021-10-21 15:41:17.128614,-2
2021-10-21 15:41:17.128623,2
2021-10-21 15:41:17.128631,2
2021-10-21 15:41:17.128639,-36
2021-10-21 15:41:17.128648,-107
2021-10-21 15:41:17.128656,-111
2021-10-21 15:41:17.309011,141
2021-10-21 15:41:17.309033,773
2021-10-21 15:41:17.309043,1435
2021-10-21 15:41:17.309051,1255
2021-10-21 15:41:17.309059,282
2021-10-21 15:41:17.309068,-209
2021-10-21 15:41:17.309076,-2
2021-10-21 15:41:17.309085,2
2021-10-21 15:41:17.309093,-184
2021-10-21 15:41:17.309101,-172
2021-10-21 15:41:17.309110,-119
2021-10-21 15:41:17.309118,-136
2021-10-21 15:41:17.309126,-124
2021-10-21 15:41:17.309134,-99
2021-10-21 15:41:17.309143,-109
2021-10-21 15:41:17.309151,-116
2021-10-21 15:41:17.309159,-102
2021-10-21 15:41:17.309168,-92
2021-10-21 15:41:17.309176,-82
2021-10-21 15:41:17.309184,-68
2021-10-21 15:41:17.309192,-63
2021-10-21 15:41:17.309200,-65
2021-10-21 15:41:17.309208,-53
2021-10-21 15:41:17.309217,-38
2021-10-21 15:41:17.309225,-31
2021-10-21 15:41:17.309233,-26
2021-10-21 15:41:17.309241,-26
2021-10-21 15:41:17.309250,-36
2021-10-21 15:41:17.309258,-34
2021-10-21 15:41:17.309266,-26
2021-10-21 15:41:17.534045,-26
2021-10-21 15:41:17.534067,-31
2021-10-21 15:41:17.534077,-38
2021-10-21 15:41:17.534085,-46
2021-10-21 15:41:17.534094,-43
2021-10-21 15:41:17.534102,-41
2021-10-21 15:41:17.534110,-46
2021-10-21 15:41:17.534119,-53
2021-10-21 15:41:17.534127,-70
2021-10-21 15:41:17.534135,-92
2021-10-21 15:41:17.534144,-99
2021-10-21 15:41:17.534152,-97
2021-10-21 15:41:17.534160,-92
2021-10-21 15:41:17.534168,-85
2021-10-21 15:41:17.534176,-90
2021-10-21 15:41:17.534185,-94
2021-10-21 15:41:17.534193,-80
2021-10-21 15:41:17.534201,-63
2021-10-21 15:41:17.534209,-58
2021-10-21 15:41:17.534218,-55
2021-10-21 15:41:17.534226,-55
2021-10-21 15:41:17.534234,-53
2021-10-21 15:41:17.534242,-46
2021-10-21 15:41:17.534251,-34
2021-10-21 15:41:17.534259,-29
2021-10-21 15:41:17.534267,-31
2021-10-21 15:41:17.534275,-34
2021-10-21 15:41:17.534284,-34
2021-10-21 15:41:17.534292,-26
2021-10-21 15:41:17.534300,-21
2021-10-21 15:41:17.759023,-19
2021-10-21 15:41:17.759045,-17
2021-10-21 15:41:17.759054,-21
2021-10-21 15:41:17.759063,-26
2021-10-21 15:41:17.759071,-21
2021-10-21 15:41:17.759079,-14
2021-10-21 15:41:17.759088,-12
2021-10-21 15:41:17.759096,-21
2021-10-21 15:41:17.759104,-41
2021-10-21 15:41:17.759112,-60
2021-10-21 15:41:17.759121,-53
2021-10-21 15:41:17.759129,-41
2021-10-21 15:41:17.759137,-53
2021-10-21 15:41:17.759145,-72
2021-10-21 15:41:17.759154,-75
2021-10-21 15:41:17.759162,-65
2021-10-21 15:41:17.759170,-60
2021-10-21 15:41:17.759178,-65
2021-10-21 15:41:17.759187,-65
2021-10-21 15:41:17.759195,-60
2021-10-21 15:41:17.759204,-63
2021-10-21 15:41:17.759212,-63
2021-10-21 15:41:17.759220,-58
2021-10-21 15:41:17.759228,-53
2021-10-21 15:41:17.759236,-46
2021-10-21 15:41:17.759245,-38
2021-10-21 15:41:17.759253,-21
2021-10-21 15:41:17.759261,-9
2021-10-21 15:41:17.759270,-19
2021-10-21 15:41:17.759278,-31
2021-10-21 15:41:17.984068,-31
2021-10-21 15:41:17.984091,-51
2021-10-21 15:41:17.984100,-65
2021-10-21 15:41:17.984109,-60
2021-10-21 15:41:17.984118,-53
2021-10-21 15:41:17.984126,-53
2021-10-21 15:41:17.984135,-55
2021-10-21 15:41:17.984144,-68
2021-10-21 15:41:17.984152,-70
2021-10-21 15:41:17.984161,-63
2021-10-21 15:41:17.984169,-70
2021-10-21 15:41:17.984177,-111
2021-10-21 15:41:17.984186,-177
2021-10-21 15:41:17.984194,-126
2021-10-21 15:41:17.984203,265
2021-10-21 15:41:17.984211,978
2021-10-21 15:41:17.984220,1406
2021-10-21 15:41:17.984228,856
2021-10-21 15:41:17.984236,-55
2021-10-21 15:41:17.984245,-209
2021-10-21 15:41:17.984253,0
2021-10-21 15:41:17.984261,-109
2021-10-21 15:41:17.984270,-206
2021-10-21 15:41:17.984278,-126
2021-10-21 15:41:17.984286,-116
2021-10-21 15:41:17.984294,-148
2021-10-21 15:41:17.984303,-114
2021-10-21 15:41:17.984311,-92
2021-10-21 15:41:17.984320,-92
2021-10-21 15:41:17.984328,-72
2021-10-21 15:41:18.209065,-58
2021-10-21 15:41:18.209087,-53
2021-10-21 15:41:18.209096,-41
2021-10-21 15:41:18.209105,-29
2021-10-21 15:41:18.209113,-19
2021-10-21 15:41:18.209122,-12
2021-10-21 15:41:18.209130,-17
2021-10-21 15:41:18.209138,-19
2021-10-21 15:41:18.209146,-7
2021-10-21 15:41:18.209155,0
2021-10-21 15:41:18.209165,0
2021-10-21 15:41:18.209174,0
2021-10-21 15:41:18.209183,-12
2021-10-21 15:41:18.209191,-19
2021-10-21 15:41:18.209199,-21
2021-10-21 15:41:18.209208,-43
2021-10-21 15:41:18.209216,-63
2021-10-21 15:41:18.209224,-65
2021-10-21 15:41:18.209233,-68
2021-10-21 15:41:18.209241,-70
2021-10-21 15:41:18.209249,-75
2021-10-21 15:41:18.209257,-77
2021-10-21 15:41:18.209265,-80
2021-10-21 15:41:18.209274,-85
2021-10-21 15:41:18.209282,-90
2021-10-21 15:41:18.209290,-85
2021-10-21 15:41:18.209298,-75
2021-10-21 15:41:18.209306,-68
2021-10-21 15:41:18.209315,-60
2021-10-21 15:41:18.209323,-55
2021-10-21 15:41:18.434037,-53
2021-10-21 15:41:18.434059,-43
2021-10-21 15:41:18.434069,-34
2021-10-21 15:41:18.434078,-31
2021-10-21 15:41:18.434086,-31
2021-10-21 15:41:18.434094,-41
2021-10-21 15:41:18.434103,-53
2021-10-21 15:41:18.434111,-46
2021-10-21 15:41:18.434119,-34
2021-10-21 15:41:18.434128,-36
2021-10-21 15:41:18.434136,-38
2021-10-21 15:41:18.434144,-46
2021-10-21 15:41:18.434153,-53
2021-10-21 15:41:18.434161,-46
2021-10-21 15:41:18.434169,-41
2021-10-21 15:41:18.434177,-46
2021-10-21 15:41:18.434186,-51
2021-10-21 15:41:18.434194,-58
2021-10-21 15:41:18.434202,-72
2021-10-21 15:41:18.434211,-87
2021-10-21 15:41:18.434219,-90
2021-10-21 15:41:18.434227,-85
2021-10-21 15:41:18.434235,-80
2021-10-21 15:41:18.434243,-82
2021-10-21 15:41:18.434252,-80
2021-10-21 15:41:18.434260,-70
2021-10-21 15:41:18.434268,-68
2021-10-21 15:41:18.434277,-70
2021-10-21 15:41:18.434285,-68
2021-10-21 15:41:18.434293,-63
2021-10-21 15:41:18.703311,-60
2021-10-21 15:41:18.703333,-53
2021-10-21 15:41:18.703343,-48
2021-10-21 15:41:18.703351,-51
2021-10-21 15:41:18.703359,-58
2021-10-21 15:41:18.703368,-68
2021-10-21 15:41:18.703376,-63
2021-10-21 15:41:18.703384,-53
2021-10-21 15:41:18.703392,-51
2021-10-21 15:41:18.703401,-43
2021-10-21 15:41:18.703409,-29
2021-10-21 15:41:18.703417,-29
2021-10-21 15:41:18.703425,-31
2021-10-21 15:41:18.703434,-26
2021-10-21 15:41:18.703442,-31
2021-10-21 15:41:18.703450,-41
2021-10-21 15:41:18.703458,-43
2021-10-21 15:41:18.703466,-41
2021-10-21 15:41:18.703474,-36
2021-10-21 15:41:18.703483,-34
2021-10-21 15:41:18.703491,-41
2021-10-21 15:41:18.703499,-60
2021-10-21 15:41:18.703507,-65
2021-10-21 15:41:18.703516,-53
2021-10-21 15:41:18.703524,-63
2021-10-21 15:41:18.703532,-116
2021-10-21 15:41:18.703540,-160
2021-10-21 15:41:18.703549,-34
2021-10-21 15:41:18.703557,445
2021-10-21 15:41:18.703566,1167
2021-10-21 15:41:18.883885,1406
2021-10-21 15:41:18.883905,659
2021-10-21 15:41:18.883914,-138
2021-10-21 15:41:18.883923,-124
2021-10-21 15:41:18.883932,17
2021-10-21 15:41:18.883940,-145
2021-10-21 15:41:18.883949,-182
2021-10-21 15:41:18.883957,-99
2021-10-21 15:41:18.883965,-119
2021-10-21 15:41:18.883974,-145
2021-10-21 15:41:18.883982,-119
2021-10-21 15:41:18.883990,-99
2021-10-21 15:41:18.883998,-92
2021-10-21 15:41:18.884007,-77
2021-10-21 15:41:18.884015,-70
2021-10-21 15:41:18.884023,-70
2021-10-21 15:41:18.884032,-68
2021-10-21 15:41:18.884040,-53
2021-10-21 15:41:18.884048,-36
2021-10-21 15:41:18.884056,-29
2021-10-21 15:41:18.884065,-21
2021-10-21 15:41:18.884073,-17
2021-10-21 15:41:18.884081,-17
2021-10-21 15:41:18.884099,-21
2021-10-21 15:41:18.884108,-17
2021-10-21 15:41:18.884116,-9
2021-10-21 15:41:18.884125,-14
2021-10-21 15:41:18.884133,-24
2021-10-21 15:41:18.884141,-26
2021-10-21 15:41:18.884149,-26
2021-10-21 15:41:19.154038,-29
2021-10-21 15:41:19.154060,-38
2021-10-21 15:41:19.154070,-58
2021-10-21 15:41:19.154078,-82
2021-10-21 15:41:19.154087,-92
2021-10-21 15:41:19.154095,-87
2021-10-21 15:41:19.154103,-97
2021-10-21 15:41:19.154112,-104
2021-10-21 15:41:19.154120,-114
2021-10-21 15:41:19.154128,-131
2021-10-21 15:41:19.154137,-136
2021-10-21 15:41:19.154145,-114
2021-10-21 15:41:19.154153,-114
2021-10-21 15:41:19.154162,-128
2021-10-21 15:41:19.154170,-124
2021-10-21 15:41:19.154178,-119
2021-10-21 15:41:19.154187,-124
2021-10-21 15:41:19.154195,-119
2021-10-21 15:41:19.154203,-107
2021-10-21 15:41:19.154211,-102
2021-10-21 15:41:19.154220,-102
2021-10-21 15:41:19.154228,-107
2021-10-21 15:41:19.154236,-107
2021-10-21 15:41:19.154244,-102
2021-10-21 15:41:19.154252,-114
2021-10-21 15:41:19.154261,-133
2021-10-21 15:41:19.154269,-136
2021-10-21 15:41:19.154277,-133
2021-10-21 15:41:19.154285,-131
2021-10-21 15:41:19.154294,-119
2021-10-21 15:41:19.379052,-111
2021-10-21 15:41:19.379074,-111
2021-10-21 15:41:19.379083,-119
2021-10-21 15:41:19.379092,-126
2021-10-21 15:41:19.379100,-121
2021-10-21 15:41:19.379109,-116
2021-10-21 15:41:19.379117,-119
2021-10-21 15:41:19.379125,-109
2021-10-21 15:41:19.379189,-109
2021-10-21 15:41:19.379199,-116
2021-10-21 15:41:19.379208,-111
2021-10-21 15:41:19.379216,-99
2021-10-21 15:41:19.379224,-94
2021-10-21 15:41:19.379232,-94
2021-10-21 15:41:19.379241,-109
2021-10-21 15:41:19.379249,-124
2021-10-21 15:41:19.379257,-121
2021-10-21 15:41:19.379265,-111
2021-10-21 15:41:19.379273,-104
2021-10-21 15:41:19.379281,-97
2021-10-21 15:41:19.379290,-99
2021-10-21 15:41:19.379298,-104
2021-10-21 15:41:19.379306,-99
2021-10-21 15:41:19.379314,-87
2021-10-21 15:41:19.379322,-63
2021-10-21 15:41:19.379331,-36
2021-10-21 15:41:19.379339,-46
2021-10-21 15:41:19.379347,-72
2021-10-21 15:41:19.379355,-70
2021-10-21 15:41:19.379364,-58
2021-10-21 15:41:19.604044,-68
2021-10-21 15:41:19.604066,-70
2021-10-21 15:41:19.604076,-70
2021-10-21 15:41:19.604085,-72
2021-10-21 15:41:19.604093,-70
2021-10-21 15:41:19.604102,-58
2021-10-21 15:41:19.604110,-55
2021-10-21 15:41:19.604118,-65
2021-10-21 15:41:19.604127,-77
2021-10-21 15:41:19.604135,-104
2021-10-21 15:41:19.604144,-153
2021-10-21 15:41:19.604152,-143
2021-10-21 15:41:19.604160,114
2021-10-21 15:41:19.604169,703
2021-10-21 15:41:19.604177,1284
2021-10-21 15:41:19.604185,1092
2021-10-21 15:41:19.604194,167
2021-10-21 15:41:19.604202,-279
2021-10-21 15:41:19.604210,-38
2021-10-21 15:41:19.604218,-19
2021-10-21 15:41:19.604227,-192
2021-10-21 15:41:19.604235,-150
2021-10-21 15:41:19.604243,-94
2021-10-21 15:41:19.604251,-124
2021-10-21 15:41:19.604259,-111
2021-10-21 15:41:19.604267,-82
2021-10-21 15:41:19.604275,-85
2021-10-21 15:41:19.604284,-77
2021-10-21 15:41:19.604292,-60
2021-10-21 15:41:19.604300,-58
2021-10-21 15:41:19.829047,-53
2021-10-21 15:41:19.829070,-51
2021-10-21 15:41:19.829079,-63
2021-10-21 15:41:19.829088,-68
2021-10-21 15:41:19.829097,-51
2021-10-21 15:41:19.829105,-41
2021-10-21 15:41:19.829114,-48
2021-10-21 15:41:19.829122,-51
2021-10-21 15:41:19.829130,-46
2021-10-21 15:41:19.829139,-38
2021-10-21 15:41:19.829147,-34
2021-10-21 15:41:19.829155,-34
2021-10-21 15:41:19.829164,-41
2021-10-21 15:41:19.829172,-55
2021-10-21 15:41:19.829180,-65
2021-10-21 15:41:19.829189,-68
2021-10-21 15:41:19.829197,-80
2021-10-21 15:41:19.829206,-97
2021-10-21 15:41:19.829214,-109
2021-10-21 15:41:19.829222,-126
2021-10-21 15:41:19.829231,-136
2021-10-21 15:41:19.829239,-141
2021-10-21 15:41:19.829247,-145
2021-10-21 15:41:19.829255,-148
2021-10-21 15:41:19.829264,-150
2021-10-21 15:41:19.829272,-145
2021-10-21 15:41:19.829280,-138
2021-10-21 15:41:19.829289,-131
2021-10-21 15:41:19.829297,-124
2021-10-21 15:41:19.829305,-109
2021-10-21 15:41:20.054066,-107
2021-10-21 15:41:20.054088,-114
2021-10-21 15:41:20.054098,-111
2021-10-21 15:41:20.054107,-99
