Time,ECG
2021-10-21 16:21:04.900405,-41
2021-10-21 16:21:04.900424,-58
2021-10-21 16:21:04.900434,-55
2021-10-21 16:21:04.900443,-51
2021-10-21 16:21:04.900451,-55
2021-10-21 16:21:04.900460,-55
2021-10-21 16:21:04.900469,-55
2021-10-21 16:21:04.900477,-65
2021-10-21 16:21:04.900486,-70
2021-10-21 16:21:04.900494,-77
2021-10-21 16:21:04.900503,-121
2021-10-21 16:21:04.900511,-167
2021-10-21 16:21:04.900520,-46
2021-10-21 16:21:04.900528,425
2021-10-21 16:21:04.900537,1129
2021-10-21 16:21:04.900545,1374
2021-10-21 16:21:04.900553,652
2021-10-21 16:21:04.900562,-128
2021-10-21 16:21:04.900571,-94
2021-10-21 16:21:04.900579,60
2021-10-21 16:21:04.900588,-111
2021-10-21 16:21:04.900596,-165
2021-10-21 16:21:04.900604,-85
2021-10-21 16:21:04.900613,-90
2021-10-21 16:21:04.900621,-107
2021-10-21 16:21:04.900629,-77
2021-10-21 16:21:04.900638,-60
2021-10-21 16:21:04.900647,-48
2021-10-21 16:21:04.900655,-24
2021-10-21 16:21:04.900663,-9
2021-10-21 16:21:04.949986,-9
2021-10-21 16:21:04.950008,4
2021-10-21 16:21:04.950018,21
2021-10-21 16:21:04.950027,31
2021-10-21 16:21:04.950036,41
2021-10-21 16:21:04.950044,53
2021-10-21 16:21:04.950054,48
2021-10-21 16:21:04.950062,36
2021-10-21 16:21:04.950071,31
2021-10-21 16:21:04.950079,31
2021-10-21 16:21:04.950088,34
2021-10-21 16:21:04.950096,31
2021-10-21 16:21:04.950105,9
2021-10-21 16:21:04.950113,-14
2021-10-21 16:21:04.950121,-17
2021-10-21 16:21:04.950130,-24
2021-10-21 16:21:04.950138,-43
2021-10-21 16:21:04.950147,-58
2021-10-21 16:21:04.950156,-68
2021-10-21 16:21:04.950164,-75
2021-10-21 16:21:04.950172,-87
2021-10-21 16:21:04.950181,-97
2021-10-21 16:21:04.950189,-92
2021-10-21 16:21:04.950197,-82
2021-10-21 16:21:04.950206,-82
2021-10-21 16:21:04.950214,-75
2021-10-21 16:21:04.950222,-70
2021-10-21 16:21:04.950231,-72
2021-10-21 16:21:04.950239,-68
2021-10-21 16:21:04.950249,-70
2021-10-21 16:21:05.174252,-72
2021-10-21 16:21:05.174271,-65
2021-10-21 16:21:05.174280,-58
2021-10-21 16:21:05.174289,-58
2021-10-21 16:21:05.174297,-60
2021-10-21 16:21:05.174306,-70
2021-10-21 16:21:05.174314,-70
2021-10-21 16:21:05.174323,-58
2021-10-21 16:21:05.174331,-58
2021-10-21 16:21:05.174340,-70
2021-10-21 16:21:05.174348,-80
2021-10-21 16:21:05.174357,-85
2021-10-21 16:21:05.174365,-92
2021-10-21 16:21:05.174377,-87
2021-10-21 16:21:05.174386,-70
2021-10-21 16:21:05.174394,-51
2021-10-21 16:21:05.174403,-43
2021-10-21 16:21:05.174411,-55
2021-10-21 16:21:05.174419,-65
2021-10-21 16:21:05.174428,-58
2021-10-21 16:21:05.174436,-53
2021-10-21 16:21:05.174444,-55
2021-10-21 16:21:05.174453,-53
2021-10-21 16:21:05.174461,-53
2021-10-21 16:21:05.174469,-51
2021-10-21 16:21:05.174478,-41
2021-10-21 16:21:05.174486,-31
2021-10-21 16:21:05.174494,-31
2021-10-21 16:21:05.174502,-34
2021-10-21 16:21:05.174513,-65
2021-10-21 16:21:05.354952,-145
2021-10-21 16:21:05.354973,-148
2021-10-21 16:21:05.354983,150
2021-10-21 16:21:05.354991,827
2021-10-21 16:21:05.355000,1411
2021-10-21 16:21:05.355008,1031
2021-10-21 16:21:05.355017,9
2021-10-21 16:21:05.355025,-267
2021-10-21 16:21:05.355034,63
2021-10-21 16:21:05.355043,14
2021-10-21 16:21:05.355051,-153
2021-10-21 16:21:05.355059,-82
2021-10-21 16:21:05.355068,-63
2021-10-21 16:21:05.355077,-107
2021-10-21 16:21:05.355085,-75
2021-10-21 16:21:05.355093,-48
2021-10-21 16:21:05.355102,-55
2021-10-21 16:21:05.355114,-31
2021-10-21 16:21:05.355123,-2
2021-10-21 16:21:05.355131,7
2021-10-21 16:21:05.355139,17
2021-10-21 16:21:05.355148,31
2021-10-21 16:21:05.355156,41
2021-10-21 16:21:05.355165,48
2021-10-21 16:21:05.355173,63
2021-10-21 16:21:05.355181,80
2021-10-21 16:21:05.355189,85
2021-10-21 16:21:05.355197,80
2021-10-21 16:21:05.355206,75
2021-10-21 16:21:05.355214,72
2021-10-21 16:21:05.714257,68
2021-10-21 16:21:05.714276,58
2021-10-21 16:21:05.714285,48
2021-10-21 16:21:05.714302,38
2021-10-21 16:21:05.714311,14
2021-10-21 16:21:05.714320,-17
2021-10-21 16:21:05.714329,-31
2021-10-21 16:21:05.714341,-43
2021-10-21 16:21:05.714350,-60
2021-10-21 16:21:05.714358,-82
2021-10-21 16:21:05.714367,-104
2021-10-21 16:21:05.714376,-131
2021-10-21 16:21:05.714384,-143
2021-10-21 16:21:05.714393,-131
2021-10-21 16:21:05.714401,-126
2021-10-21 16:21:05.714409,-141
2021-10-21 16:21:05.714418,-138
2021-10-21 16:21:05.714426,-124
2021-10-21 16:21:05.714435,-119
2021-10-21 16:21:05.714443,-119
2021-10-21 16:21:05.714451,-107
2021-10-21 16:21:05.714460,-99
2021-10-21 16:21:05.714468,-94
2021-10-21 16:21:05.714477,-87
2021-10-21 16:21:05.714485,-80
2021-10-21 16:21:05.714493,-77
2021-10-21 16:21:05.714502,-77
2021-10-21 16:21:05.714510,-80
2021-10-21 16:21:05.714519,-75
2021-10-21 16:21:05.714528,-65
2021-10-21 16:21:05.849844,-65
2021-10-21 16:21:05.849862,-70
2021-10-21 16:21:05.849871,-68
2021-10-21 16:21:05.849880,-70
2021-10-21 16:21:05.849889,-65
2021-10-21 16:21:05.849897,-48
2021-10-21 16:21:05.849906,-38
2021-10-21 16:21:05.849914,-41
2021-10-21 16:21:05.849922,-51
2021-10-21 16:21:05.849931,-65
2021-10-21 16:21:05.849939,-75
2021-10-21 16:21:05.849947,-72
2021-10-21 16:21:05.849956,-65
2021-10-21 16:21:05.849964,-58
2021-10-21 16:21:05.849972,-51
2021-10-21 16:21:05.849981,-46
2021-10-21 16:21:05.849989,-53
2021-10-21 16:21:05.849997,-58
2021-10-21 16:21:05.850006,-63
2021-10-21 16:21:05.850014,-114
2021-10-21 16:21:05.850022,-180
2021-10-21 16:21:05.850031,-51
2021-10-21 16:21:05.850039,503
2021-10-21 16:21:05.850047,1343
2021-10-21 16:21:05.850060,1625
2021-10-21 16:21:05.850068,749
2021-10-21 16:21:05.850077,-180
2021-10-21 16:21:05.850085,-111
2021-10-21 16:21:05.850094,87
2021-10-21 16:21:05.850102,-119
2021-10-21 16:21:06.074891,-167
2021-10-21 16:21:06.074910,-60
2021-10-21 16:21:06.074919,-90
2021-10-21 16:21:06.074928,-121
2021-10-21 16:21:06.074936,-77
2021-10-21 16:21:06.074945,-58
2021-10-21 16:21:06.074953,-60
2021-10-21 16:21:06.074961,-38
2021-10-21 16:21:06.074970,-29
2021-10-21 16:21:06.074978,-38
2021-10-21 16:21:06.074986,-24
2021-10-21 16:21:06.074995,0
2021-10-21 16:21:06.075003,9
2021-10-21 16:21:06.075011,21
2021-10-21 16:21:06.075020,24
2021-10-21 16:21:06.075028,19
2021-10-21 16:21:06.075036,24
2021-10-21 16:21:06.075045,19
2021-10-21 16:21:06.075053,-2
2021-10-21 16:21:06.075061,-7
2021-10-21 16:21:06.075069,-7
2021-10-21 16:21:06.075078,-14
2021-10-21 16:21:06.075087,-21
2021-10-21 16:21:06.075096,-29
2021-10-21 16:21:06.075104,-48
2021-10-21 16:21:06.075136,-72
2021-10-21 16:21:06.075149,-92
2021-10-21 16:21:06.075158,-104
2021-10-21 16:21:06.075166,-109
2021-10-21 16:21:06.075175,-109
2021-10-21 16:21:06.299855,-111
2021-10-21 16:21:06.299874,-114
2021-10-21 16:21:06.299884,-119
2021-10-21 16:21:06.299892,-114
2021-10-21 16:21:06.299901,-97
2021-10-21 16:21:06.299909,-94
2021-10-21 16:21:06.299917,-97
2021-10-21 16:21:06.299925,-94
2021-10-21 16:21:06.299934,-104
2021-10-21 16:21:06.299942,-109
2021-10-21 16:21:06.299950,-97
2021-10-21 16:21:06.299959,-85
2021-10-21 16:21:06.299967,-82
2021-10-21 16:21:06.299975,-85
2021-10-21 16:21:06.299983,-92
2021-10-21 16:21:06.299992,-92
2021-10-21 16:21:06.300000,-82
2021-10-21 16:21:06.300008,-72
2021-10-21 16:21:06.300017,-70
2021-10-21 16:21:06.300025,-68
2021-10-21 16:21:06.300033,-72
2021-10-21 16:21:06.300041,-82
2021-10-21 16:21:06.300050,-72
2021-10-21 16:21:06.300058,-63
2021-10-21 16:21:06.300070,-68
2021-10-21 16:21:06.300079,-68
2021-10-21 16:21:06.300087,-68
2021-10-21 16:21:06.300095,-70
2021-10-21 16:21:06.300104,-58
2021-10-21 16:21:06.300112,-34
2021-10-21 16:21:06.524867,-19
2021-10-21 16:21:06.524885,-17
2021-10-21 16:21:06.524895,-21
2021-10-21 16:21:06.524904,-24
2021-10-21 16:21:06.524912,-29
2021-10-21 16:21:06.524921,-31
2021-10-21 16:21:06.524930,-31
2021-10-21 16:21:06.524938,-38
2021-10-21 16:21:06.524946,-43
2021-10-21 16:21:06.524955,-38
2021-10-21 16:21:06.524963,-31
2021-10-21 16:21:06.524972,-24
2021-10-21 16:21:06.524980,-24
2021-10-21 16:21:06.524988,-53
2021-10-21 16:21:06.524997,-121
2021-10-21 16:21:06.525005,-187
2021-10-21 16:21:06.525014,-48
2021-10-21 16:21:06.525022,525
2021-10-21 16:21:06.525030,1396
2021-10-21 16:21:06.525039,1698
2021-10-21 16:21:06.525047,810
2021-10-21 16:21:06.525055,-153
2021-10-21 16:21:06.525064,-119
2021-10-21 16:21:06.525072,72
2021-10-21 16:21:06.525081,-136
2021-10-21 16:21:06.525089,-197
2021-10-21 16:21:06.525097,-97
2021-10-21 16:21:06.525105,-116
2021-10-21 16:21:06.525114,-136
2021-10-21 16:21:06.525122,-90
2021-10-21 16:21:06.793683,-80
2021-10-21 16:21:06.793704,-82
2021-10-21 16:21:06.793713,-63
2021-10-21 16:21:06.793721,-51
2021-10-21 16:21:06.793729,-41
2021-10-21 16:21:06.793736,-21
2021-10-21 16:21:06.793744,-14
2021-10-21 16:21:06.793752,-19
2021-10-21 16:21:06.793760,-7
2021-10-21 16:21:06.793768,12
2021-10-21 16:21:06.793776,19
2021-10-21 16:21:06.793784,21
2021-10-21 16:21:06.793792,21
2021-10-21 16:21:06.793800,14
2021-10-21 16:21:06.793808,9
2021-10-21 16:21:06.793816,7
2021-10-21 16:21:06.793824,7
2021-10-21 16:21:06.793832,2
2021-10-21 16:21:06.793839,-9
2021-10-21 16:21:06.793847,-24
2021-10-21 16:21:06.793856,-41
2021-10-21 16:21:06.793864,-65
2021-10-21 16:21:06.793871,-80
2021-10-21 16:21:06.793879,-82
2021-10-21 16:21:06.793887,-99
2021-10-21 16:21:06.793895,-119
2021-10-21 16:21:06.793902,-119
2021-10-21 16:21:06.793910,-121
2021-10-21 16:21:06.793917,-126
2021-10-21 16:21:06.793924,-116
2021-10-21 16:21:07.019318,-109
2021-10-21 16:21:07.019339,-107
2021-10-21 16:21:07.019348,-94
2021-10-21 16:21:07.019357,-87
2021-10-21 16:21:07.019366,-85
2021-10-21 16:21:07.019374,-82
2021-10-21 16:21:07.019383,-90
2021-10-21 16:21:07.019391,-87
2021-10-21 16:21:07.019399,-75
2021-10-21 16:21:07.019408,-75
2021-10-21 16:21:07.019421,-70
2021-10-21 16:21:07.019430,-70
2021-10-21 16:21:07.019438,-80
2021-10-21 16:21:07.019446,-72
2021-10-21 16:21:07.019455,-60
2021-10-21 16:21:07.019463,-65
2021-10-21 16:21:07.019472,-63
2021-10-21 16:21:07.019480,-55
2021-10-21 16:21:07.019488,-55
2021-10-21 16:21:07.019497,-51
2021-10-21 16:21:07.019505,-48
2021-10-21 16:21:07.019513,-51
2021-10-21 16:21:07.019522,-48
2021-10-21 16:21:07.019530,-43
2021-10-21 16:21:07.019539,-41
2021-10-21 16:21:07.019547,-38
2021-10-21 16:21:07.019555,-43
2021-10-21 16:21:07.019564,-53
2021-10-21 16:21:07.019572,-58
2021-10-21 16:21:07.019581,-68
2021-10-21 16:21:07.200051,-70
2021-10-21 16:21:07.200073,-60
2021-10-21 16:21:07.200083,-53
2021-10-21 16:21:07.200092,-48
2021-10-21 16:21:07.200101,-31
2021-10-21 16:21:07.200110,-19
2021-10-21 16:21:07.200118,-21
2021-10-21 16:21:07.200126,-21
2021-10-21 16:21:07.200135,-17
2021-10-21 16:21:07.200143,-21
2021-10-21 16:21:07.200152,-36
2021-10-21 16:21:07.200162,-46
2021-10-21 16:21:07.200170,-41
2021-10-21 16:21:07.200179,-34
2021-10-21 16:21:07.200187,-31
2021-10-21 16:21:07.200195,-29
2021-10-21 16:21:07.200204,-29
2021-10-21 16:21:07.200212,-29
2021-10-21 16:21:07.200221,-36
2021-10-21 16:21:07.200230,-82
2021-10-21 16:21:07.200238,-160
2021-10-21 16:21:07.200246,-102
2021-10-21 16:21:07.200255,360
2021-10-21 16:21:07.200264,1214
2021-10-21 16:21:07.200273,1734
2021-10-21 16:21:07.200285,1082
2021-10-21 16:21:07.200294,2
2021-10-21 16:21:07.200302,-158
2021-10-21 16:21:07.200311,97
2021-10-21 16:21:07.200319,-60
2021-10-21 16:21:07.469950,-187
2021-10-21 16:21:07.469971,-85
2021-10-21 16:21:07.469981,-80
2021-10-21 16:21:07.469989,-124
2021-10-21 16:21:07.469998,-102
2021-10-21 16:21:07.470006,-94
2021-10-21 16:21:07.470015,-99
2021-10-21 16:21:07.470023,-77
2021-10-21 16:21:07.470031,-60
2021-10-21 16:21:07.470040,-58
2021-10-21 16:21:07.470048,-55
2021-10-21 16:21:07.470057,-48
2021-10-21 16:21:07.470065,-34
2021-10-21 16:21:07.470073,-17
2021-10-21 16:21:07.470082,-9
2021-10-21 16:21:07.470090,-7
2021-10-21 16:21:07.470098,-4
2021-10-21 16:21:07.470107,-4
2021-10-21 16:21:07.470115,-7
2021-10-21 16:21:07.470123,-14
2021-10-21 16:21:07.470132,-14
2021-10-21 16:21:07.470140,-21
2021-10-21 16:21:07.470148,-29
2021-10-21 16:21:07.470157,-34
2021-10-21 16:21:07.470165,-36
2021-10-21 16:21:07.470173,-48
2021-10-21 16:21:07.470182,-63
2021-10-21 16:21:07.470190,-75
2021-10-21 16:21:07.470198,-80
2021-10-21 16:21:07.470206,-90
2021-10-21 16:21:07.694915,-102
2021-10-21 16:21:07.694935,-107
2021-10-21 16:21:07.694945,-107
2021-10-21 16:21:07.694954,-104
2021-10-21 16:21:07.694962,-109
2021-10-21 16:21:07.694971,-116
2021-10-21 16:21:07.694980,-104
2021-10-21 16:21:07.694988,-90
2021-10-21 16:21:07.694997,-87
2021-10-21 16:21:07.695005,-92
2021-10-21 16:21:07.695014,-92
2021-10-21 16:21:07.695022,-77
2021-10-21 16:21:07.695030,-65
2021-10-21 16:21:07.695039,-68
2021-10-21 16:21:07.695047,-65
2021-10-21 16:21:07.695056,-68
2021-10-21 16:21:07.695069,-72
2021-10-21 16:21:07.695077,-63
2021-10-21 16:21:07.695086,-53
2021-10-21 16:21:07.695094,-48
2021-10-21 16:21:07.695103,-46
2021-10-21 16:21:07.695111,-53
2021-10-21 16:21:07.695120,-53
2021-10-21 16:21:07.695128,-41
2021-10-21 16:21:07.695136,-34
2021-10-21 16:21:07.695145,-34
2021-10-21 16:21:07.695153,-31
2021-10-21 16:21:07.695161,-31
2021-10-21 16:21:07.695170,-34
2021-10-21 16:21:07.695178,-26
2021-10-21 16:21:07.919910,-19
2021-10-21 16:21:07.919930,-17
2021-10-21 16:21:07.919940,-24
2021-10-21 16:21:07.919949,-34
2021-10-21 16:21:07.919957,-29
2021-10-21 16:21:07.919966,-17
2021-10-21 16:21:07.919974,-12
2021-10-21 16:21:07.919983,-7
2021-10-21 16:21:07.919991,-9
2021-10-21 16:21:07.919999,-21
2021-10-21 16:21:07.920008,-19
2021-10-21 16:21:07.920016,-9
2021-10-21 16:21:07.920024,-9
2021-10-21 16:21:07.920033,-12
2021-10-21 16:21:07.920041,-9
2021-10-21 16:21:07.920050,-4
2021-10-21 16:21:07.920058,14
2021-10-21 16:21:07.920066,24
2021-10-21 16:21:07.920075,17
2021-10-21 16:21:07.920083,12
2021-10-21 16:21:07.920091,9
2021-10-21 16:21:07.920099,-4
2021-10-21 16:21:07.920108,-4
2021-10-21 16:21:07.920116,7
2021-10-21 16:21:07.920124,4
2021-10-21 16:21:07.920133,-4
2021-10-21 16:21:07.920141,-9
2021-10-21 16:21:07.920149,-9
2021-10-21 16:21:07.920158,-4
2021-10-21 16:21:07.920166,-9
2021-10-21 16:21:08.144937,-46
2021-10-21 16:21:08.144958,-124
2021-10-21 16:21:08.144967,-116
2021-10-21 16:21:08.144976,228
2021-10-21 16:21:08.144985,1000
2021-10-21 16:21:08.144993,1635
2021-10-21 16:21:08.145001,1211
2021-10-21 16:21:08.145010,119
2021-10-21 16:21:08.145018,-233
2021-10-21 16:21:08.145027,17
2021-10-21 16:21:08.145035,-75
2021-10-21 16:21:08.145043,-248
2021-10-21 16:21:08.145052,-167
2021-10-21 16:21:08.145064,-141
2021-10-21 16:21:08.145072,-197
2021-10-21 16:21:08.145081,-175
2021-10-21 16:21:08.145089,-133
2021-10-21 16:21:08.145097,-136
2021-10-21 16:21:08.145106,-126
2021-10-21 16:21:08.145114,-104
2021-10-21 16:21:08.145122,-97
2021-10-21 16:21:08.145131,-87
2021-10-21 16:21:08.145139,-68
2021-10-21 16:21:08.145147,-53
2021-10-21 16:21:08.145155,-43
2021-10-21 16:21:08.145164,-31
2021-10-21 16:21:08.145172,-21
2021-10-21 16:21:08.145180,-19
2021-10-21 16:21:08.145188,-12
2021-10-21 16:21:08.145196,-2
2021-10-21 16:21:08.369894,-2
2021-10-21 16:21:08.369913,-9
2021-10-21 16:21:08.369922,-17
2021-10-21 16:21:08.369931,-21
2021-10-21 16:21:08.369939,-21
2021-10-21 16:21:08.369948,-19
2021-10-21 16:21:08.369956,-34
2021-10-21 16:21:08.369964,-60
2021-10-21 16:21:08.369972,-80
2021-10-21 16:21:08.369980,-80
2021-10-21 16:21:08.369988,-75
2021-10-21 16:21:08.369997,-82
2021-10-21 16:21:08.370005,-90
2021-10-21 16:21:08.370013,-99
2021-10-21 16:21:08.370021,-104
2021-10-21 16:21:08.370029,-97
2021-10-21 16:21:08.370038,-85
2021-10-21 16:21:08.370046,-72
2021-10-21 16:21:08.370054,-65
2021-10-21 16:21:08.370063,-65
2021-10-21 16:21:08.370071,-58
2021-10-21 16:21:08.370079,-48
2021-10-21 16:21:08.370088,-41
2021-10-21 16:21:08.370096,-36
2021-10-21 16:21:08.370104,-31
2021-10-21 16:21:08.370112,-31
2021-10-21 16:21:08.370120,-29
2021-10-21 16:21:08.370129,-21
2021-10-21 16:21:08.370137,-14
2021-10-21 16:21:08.370145,-14
2021-10-21 16:21:08.594895,-12
2021-10-21 16:21:08.594914,-12
2021-10-21 16:21:08.594924,-14
2021-10-21 16:21:08.594932,-12
2021-10-21 16:21:08.594941,-9
2021-10-21 16:21:08.594949,-9
2021-10-21 16:21:08.594957,-14
2021-10-21 16:21:08.594966,-24
2021-10-21 16:21:08.594974,-31
2021-10-21 16:21:08.594982,-34
2021-10-21 16:21:08.594991,-36
2021-10-21 16:21:08.594999,-31
2021-10-21 16:21:08.595007,-34
2021-10-21 16:21:08.595016,-41
2021-10-21 16:21:08.595024,-38
2021-10-21 16:21:08.595032,-51
2021-10-21 16:21:08.595041,-68
2021-10-21 16:21:08.595053,-63
2021-10-21 16:21:08.595062,-51
2021-10-21 16:21:08.595070,-55
2021-10-21 16:21:08.595078,-55
2021-10-21 16:21:08.595086,-48
2021-10-21 16:21:08.595095,-43
2021-10-21 16:21:08.595103,-36
2021-10-21 16:21:08.595111,-31
2021-10-21 16:21:08.595120,-36
2021-10-21 16:21:08.595128,-48
2021-10-21 16:21:08.595136,-51
2021-10-21 16:21:08.595145,-43
2021-10-21 16:21:08.595153,-38
2021-10-21 16:21:08.908587,-26
2021-10-21 16:21:08.908607,-14
2021-10-21 16:21:08.908616,-17
2021-10-21 16:21:08.908625,-26
2021-10-21 16:21:08.908633,-24
2021-10-21 16:21:08.908642,-34
2021-10-21 16:21:08.908650,-53
2021-10-21 16:21:08.908658,-48
2021-10-21 16:21:08.908667,-38
2021-10-21 16:21:08.908675,-43
2021-10-21 16:21:08.908683,-46
2021-10-21 16:21:08.908692,-55
2021-10-21 16:21:08.908700,-68
2021-10-21 16:21:08.908708,-58
2021-10-21 16:21:08.908716,-68
2021-10-21 16:21:08.908724,-133
2021-10-21 16:21:08.908733,-187
2021-10-21 16:21:08.908741,-24
2021-10-21 16:21:08.908749,547
2021-10-21 16:21:08.908757,1333
2021-10-21 16:21:08.908766,1486
2021-10-21 16:21:08.908774,576
2021-10-21 16:21:08.908782,-206
2021-10-21 16:21:08.908790,-65
2021-10-21 16:21:08.908798,77
2021-10-21 16:21:08.908807,-131
2021-10-21 16:21:08.908815,-158
2021-10-21 16:21:08.908823,-72
2021-10-21 16:21:08.908831,-102
2021-10-21 16:21:08.908839,-111
2021-10-21 16:21:09.089891,-70
2021-10-21 16:21:09.089910,-60
2021-10-21 16:21:09.089919,-63
2021-10-21 16:21:09.089928,-46
2021-10-21 16:21:09.089936,-34
2021-10-21 16:21:09.089944,-26
2021-10-21 16:21:09.089953,-9
2021-10-21 16:21:09.089961,9
2021-10-21 16:21:09.089970,17
2021-10-21 16:21:09.089978,24
2021-10-21 16:21:09.089986,26
2021-10-21 16:21:09.089995,26
2021-10-21 16:21:09.090003,21
2021-10-21 16:21:09.090012,19
2021-10-21 16:21:09.090020,21
2021-10-21 16:21:09.090028,19
2021-10-21 16:21:09.090037,7
2021-10-21 16:21:09.090045,-14
2021-10-21 16:21:09.090053,-19
2021-10-21 16:21:09.090062,-12
2021-10-21 16:21:09.090070,-19
2021-10-21 16:21:09.090078,-41
2021-10-21 16:21:09.090087,-63
2021-10-21 16:21:09.090095,-70
2021-10-21 16:21:09.090103,-68
2021-10-21 16:21:09.090112,-70
2021-10-21 16:21:09.090120,-75
2021-10-21 16:21:09.090128,-82
2021-10-21 16:21:09.090137,-90
2021-10-21 16:21:09.090148,-85
2021-10-21 16:21:09.269895,-72
2021-10-21 16:21:09.269914,-63
2021-10-21 16:21:09.269923,-58
2021-10-21 16:21:09.269932,-53
2021-10-21 16:21:09.269941,-55
2021-10-21 16:21:09.269949,-55
2021-10-21 16:21:09.269958,-48
2021-10-21 16:21:09.269966,-34
2021-10-21 16:21:09.269975,-34
2021-10-21 16:21:09.269983,-36
2021-10-21 16:21:09.269992,-38
2021-10-21 16:21:09.270000,-43
2021-10-21 16:21:09.270009,-36
2021-10-21 16:21:09.270017,-26
2021-10-21 16:21:09.270025,-31
2021-10-21 16:21:09.270034,-51
2021-10-21 16:21:09.270042,-70
2021-10-21 16:21:09.270050,-75
2021-10-21 16:21:09.270059,-75
2021-10-21 16:21:09.270067,-75
2021-10-21 16:21:09.270075,-70
2021-10-21 16:21:09.270084,-70
2021-10-21 16:21:09.270092,-77
2021-10-21 16:21:09.270100,-75
2021-10-21 16:21:09.270108,-68
2021-10-21 16:21:09.270117,-65
2021-10-21 16:21:09.270125,-63
2021-10-21 16:21:09.270133,-60
2021-10-21 16:21:09.270141,-58
2021-10-21 16:21:09.270150,-55
2021-10-21 16:21:09.494953,-46
2021-10-21 16:21:09.494972,-38
2021-10-21 16:21:09.494983,-36
2021-10-21 16:21:09.494992,-43
2021-10-21 16:21:09.495000,-48
2021-10-21 16:21:09.495009,-43
2021-10-21 16:21:09.495017,-34
2021-10-21 16:21:09.495026,-29
2021-10-21 16:21:09.495034,-26
2021-10-21 16:21:09.495043,-36
2021-10-21 16:21:09.495051,-51
2021-10-21 16:21:09.495059,-41
2021-10-21 16:21:09.495068,-21
2021-10-21 16:21:09.495076,0
2021-10-21 16:21:09.495085,14
2021-10-21 16:21:09.495094,7
2021-10-21 16:21:09.495102,-4
2021-10-21 16:21:09.495110,-9
2021-10-21 16:21:09.495119,-19
2021-10-21 16:21:09.495127,-24
2021-10-21 16:21:09.495136,-21
2021-10-21 16:21:09.495144,-26
2021-10-21 16:21:09.495152,-26
2021-10-21 16:21:09.495161,-17
2021-10-21 16:21:09.495169,-9
2021-10-21 16:21:09.495178,-7
2021-10-21 16:21:09.495186,-12
2021-10-21 16:21:09.495194,-55
2021-10-21 16:21:09.495203,-124
2021-10-21 16:21:09.495211,-143
2021-10-21 16:21:09.764912,63
2021-10-21 16:21:09.764930,664
2021-10-21 16:21:09.764940,1386
2021-10-21 16:21:09.764948,1348
2021-10-21 16:21:09.764957,374
2021-10-21 16:21:09.764966,-231
2021-10-21 16:21:09.764974,-4
2021-10-21 16:21:09.764983,68
2021-10-21 16:21:09.764991,-143
2021-10-21 16:21:09.765000,-141
2021-10-21 16:21:09.765008,-70
2021-10-21 16:21:09.765016,-104
2021-10-21 16:21:09.765025,-99
2021-10-21 16:21:09.765033,-58
2021-10-21 16:21:09.765041,-60
2021-10-21 16:21:09.765050,-63
2021-10-21 16:21:09.765058,-43
2021-10-21 16:21:09.765066,-26
2021-10-21 16:21:09.765075,-19
2021-10-21 16:21:09.765083,-9
2021-10-21 16:21:09.765096,-7
2021-10-21 16:21:09.765105,-2
2021-10-21 16:21:09.765113,12
2021-10-21 16:21:09.765122,24
2021-10-21 16:21:09.765130,31
2021-10-21 16:21:09.765138,41
2021-10-21 16:21:09.765147,41
2021-10-21 16:21:09.765155,36
2021-10-21 16:21:09.765164,31
2021-10-21 16:21:09.765172,19
2021-10-21 16:21:09.989879,7
2021-10-21 16:21:09.989899,7
2021-10-21 16:21:09.989908,0
2021-10-21 16:21:09.989917,-12
2021-10-21 16:21:09.989926,-14
2021-10-21 16:21:09.989934,-21
2021-10-21 16:21:09.989943,-36
2021-10-21 16:21:09.989951,-46
2021-10-21 16:21:09.989960,-63
2021-10-21 16:21:09.989968,-87
2021-10-21 16:21:09.989976,-97
2021-10-21 16:21:09.989985,-92
2021-10-21 16:21:09.989993,-90
2021-10-21 16:21:09.990001,-94
2021-10-21 16:21:09.990009,-109
2021-10-21 16:21:09.990018,-109
2021-10-21 16:21:09.990026,-92
2021-10-21 16:21:09.990034,-82
2021-10-21 16:21:09.990043,-82
2021-10-21 16:21:09.990051,-75
2021-10-21 16:21:09.990059,-75
2021-10-21 16:21:09.990068,-85
2021-10-21 16:21:09.990076,-80
2021-10-21 16:21:09.990084,-65
2021-10-21 16:21:09.990093,-60
2021-10-21 16:21:09.990101,-60
2021-10-21 16:21:09.990109,-60
2021-10-21 16:21:09.990117,-58
2021-10-21 16:21:09.990126,-53
2021-10-21 16:21:09.990134,-51
2021-10-21 16:21:10.259925,-48
2021-10-21 16:21:10.259944,-46
2021-10-21 16:21:10.259954,-55
2021-10-21 16:21:10.259962,-72
2021-10-21 16:21:10.259971,-75
2021-10-21 16:21:10.259979,-63
2021-10-21 16:21:10.259988,-60
2021-10-21 16:21:10.259996,-68
2021-10-21 16:21:10.260004,-72
2021-10-21 16:21:10.260013,-68
2021-10-21 16:21:10.260022,-60
2021-10-21 16:21:10.260030,-55
2021-10-21 16:21:10.260038,-51
2021-10-21 16:21:10.260046,-55
2021-10-21 16:21:10.260055,-58
2021-10-21 16:21:10.260063,-53
2021-10-21 16:21:10.260071,-46
2021-10-21 16:21:10.260079,-38
2021-10-21 16:21:10.260088,-34
2021-10-21 16:21:10.260096,-34
2021-10-21 16:21:10.260104,-34
2021-10-21 16:21:10.260112,-31
2021-10-21 16:21:10.260121,-26
2021-10-21 16:21:10.260129,-21
2021-10-21 16:21:10.260137,-4
2021-10-21 16:21:10.260146,9
2021-10-21 16:21:10.260154,4
2021-10-21 16:21:10.260162,-2
2021-10-21 16:21:10.260170,0
2021-10-21 16:21:10.260179,-2
2021-10-21 16:21:10.439925,-9
2021-10-21 16:21:10.439944,-9
2021-10-21 16:21:10.439953,-4
2021-10-21 16:21:10.439962,-2
2021-10-21 16:21:10.439970,0
2021-10-21 16:21:10.439979,4
2021-10-21 16:21:10.439987,0
2021-10-21 16:21:10.439996,-17
2021-10-21 16:21:10.440004,-48
2021-10-21 16:21:10.440012,-109
2021-10-21 16:21:10.440021,-77
2021-10-21 16:21:10.440029,262
2021-10-21 16:21:10.440038,944
2021-10-21 16:21:10.440046,1447
2021-10-21 16:21:10.440054,992
2021-10-21 16:21:10.440063,31
2021-10-21 16:21:10.440071,-170
2021-10-21 16:21:10.440079,97
2021-10-21 16:21:10.440088,-2
2021-10-21 16:21:10.440096,-148
2021-10-21 16:21:10.440104,-70
2021-10-21 16:21:10.440113,-53
2021-10-21 16:21:10.440124,-97
2021-10-21 16:21:10.440132,-63
2021-10-21 16:21:10.440140,-34
2021-10-21 16:21:10.440149,-48
2021-10-21 16:21:10.440157,-46
2021-10-21 16:21:10.440165,-21
2021-10-21 16:21:10.440174,-9
2021-10-21 16:21:10.440182,0
2021-10-21 16:21:10.665021,12
2021-10-21 16:21:10.665042,21
2021-10-21 16:21:10.665051,31
2021-10-21 16:21:10.665060,38
2021-10-21 16:21:10.665069,41
2021-10-21 16:21:10.665077,36
2021-10-21 16:21:10.665086,26
2021-10-21 16:21:10.665094,24
2021-10-21 16:21:10.665102,12
2021-10-21 16:21:10.665110,-4
2021-10-21 16:21:10.665119,-14
2021-10-21 16:21:10.665127,-19
2021-10-21 16:21:10.665136,-34
2021-10-21 16:21:10.665144,-36
2021-10-21 16:21:10.665152,-34
2021-10-21 16:21:10.665160,-53
2021-10-21 16:21:10.665169,-75
2021-10-21 16:21:10.665177,-87
2021-10-21 16:21:10.665185,-99
2021-10-21 16:21:10.665194,-114
2021-10-21 16:21:10.665202,-121
2021-10-21 16:21:10.665210,-128
2021-10-21 16:21:10.665218,-126
2021-10-21 16:21:10.665226,-119
2021-10-21 16:21:10.665235,-114
2021-10-21 16:21:10.665243,-107
2021-10-21 16:21:10.665251,-99
2021-10-21 16:21:10.665259,-102
2021-10-21 16:21:10.665268,-102
2021-10-21 16:21:10.665276,-97
2021-10-21 16:21:10.933490,-90
2021-10-21 16:21:10.933508,-77
2021-10-21 16:21:10.933517,-70
2021-10-21 16:21:10.933526,-70
2021-10-21 16:21:10.933534,-68
2021-10-21 16:21:10.933542,-70
2021-10-21 16:21:10.933551,-75
2021-10-21 16:21:10.933559,-68
2021-10-21 16:21:10.933567,-60
2021-10-21 16:21:10.933576,-63
2021-10-21 16:21:10.933584,-60
2021-10-21 16:21:10.933592,-63
2021-10-21 16:21:10.933600,-68
2021-10-21 16:21:10.933608,-63
2021-10-21 16:21:10.933617,-58
2021-10-21 16:21:10.933625,-60
2021-10-21 16:21:10.933633,-58
2021-10-21 16:21:10.933641,-55
2021-10-21 16:21:10.933650,-55
2021-10-21 16:21:10.933658,-48
2021-10-21 16:21:10.933666,-41
2021-10-21 16:21:10.933675,-41
2021-10-21 16:21:10.933683,-41
2021-10-21 16:21:10.933691,-34
2021-10-21 16:21:10.933699,-31
2021-10-21 16:21:10.933707,-21
2021-10-21 16:21:10.933716,-14
2021-10-21 16:21:10.933724,-17
2021-10-21 16:21:10.933732,-17
2021-10-21 16:21:10.933740,-21
2021-10-21 16:21:11.114920,-24
2021-10-21 16:21:11.114939,-9
2021-10-21 16:21:11.114948,14
2021-10-21 16:21:11.114957,24
2021-10-21 16:21:11.114965,9
2021-10-21 16:21:11.114974,-2
2021-10-21 16:21:11.114982,2
2021-10-21 16:21:11.114990,0
2021-10-21 16:21:11.114998,-14
2021-10-21 16:21:11.115007,-19
2021-10-21 16:21:11.115015,-19
2021-10-21 16:21:11.115023,-24
2021-10-21 16:21:11.115031,-21
2021-10-21 16:21:11.115040,-24
2021-10-21 16:21:11.115048,-38
2021-10-21 16:21:11.115056,-48
2021-10-21 16:21:11.115064,-75
2021-10-21 16:21:11.115073,-136
2021-10-21 16:21:11.115081,-114
2021-10-21 16:21:11.115089,194
2021-10-21 16:21:11.115097,839
2021-10-21 16:21:11.115106,1379
2021-10-21 16:21:11.115114,1029
2021-10-21 16:21:11.115122,80
2021-10-21 16:21:11.115130,-201
2021-10-21 16:21:11.115139,70
2021-10-21 16:21:11.115147,14
2021-10-21 16:21:11.115155,-143
2021-10-21 16:21:11.115163,-82
2021-10-21 16:21:11.115171,-48
2021-10-21 16:21:11.384924,-87
2021-10-21 16:21:11.384942,-72
2021-10-21 16:21:11.384952,-53
2021-10-21 16:21:11.384960,-65
2021-10-21 16:21:11.384969,-60
2021-10-21 16:21:11.384980,-38
2021-10-21 16:21:11.384989,-26
2021-10-21 16:21:11.384997,-19
2021-10-21 16:21:11.385005,-4
2021-10-21 16:21:11.385014,0
2021-10-21 16:21:11.385022,0
2021-10-21 16:21:11.385030,14
2021-10-21 16:21:11.385039,31
2021-10-21 16:21:11.385047,36
2021-10-21 16:21:11.385055,38
2021-10-21 16:21:11.385063,34
2021-10-21 16:21:11.385071,21
2021-10-21 16:21:11.385079,21
2021-10-21 16:21:11.385088,24
2021-10-21 16:21:11.385096,14
2021-10-21 16:21:11.385104,4
2021-10-21 16:21:11.385112,-2
2021-10-21 16:21:11.385121,-4
2021-10-21 16:21:11.385129,-12
2021-10-21 16:21:11.385137,-24
2021-10-21 16:21:11.385145,-36
2021-10-21 16:21:11.385153,-51
2021-10-21 16:21:11.385161,-77
2021-10-21 16:21:11.385170,-94
2021-10-21 16:21:11.385178,-99
2021-10-21 16:21:11.609932,-99
2021-10-21 16:21:11.609951,-94
2021-10-21 16:21:11.609960,-90
2021-10-21 16:21:11.609969,-97
2021-10-21 16:21:11.609977,-102
2021-10-21 16:21:11.609985,-90
2021-10-21 16:21:11.609994,-75
2021-10-21 16:21:11.610002,-70
2021-10-21 16:21:11.610011,-72
2021-10-21 16:21:11.610019,-82
2021-10-21 16:21:11.610027,-82
2021-10-21 16:21:11.610036,-70
2021-10-21 16:21:11.610044,-60
2021-10-21 16:21:11.610052,-55
2021-10-21 16:21:11.610060,-58
2021-10-21 16:21:11.610068,-70
2021-10-21 16:21:11.610077,-70
2021-10-21 16:21:11.610085,-58
2021-10-21 16:21:11.610093,-58
2021-10-21 16:21:11.610101,-70
2021-10-21 16:21:11.610110,-87
2021-10-21 16:21:11.610118,-90
2021-10-21 16:21:11.610126,-80
2021-10-21 16:21:11.610134,-72
2021-10-21 16:21:11.610142,-68
2021-10-21 16:21:11.610151,-60
2021-10-21 16:21:11.610159,-63
2021-10-21 16:21:11.610167,-68
2021-10-21 16:21:11.610175,-60
2021-10-21 16:21:11.610184,-51
2021-10-21 16:21:11.879942,-46
2021-10-21 16:21:11.879961,-43
2021-10-21 16:21:11.879970,-46
2021-10-21 16:21:11.879979,-55
2021-10-21 16:21:11.879987,-43
2021-10-21 16:21:11.879995,-19
2021-10-21 16:21:11.880004,-7
2021-10-21 16:21:11.880012,-9
2021-10-21 16:21:11.880020,-19
2021-10-21 16:21:11.880029,-31
2021-10-21 16:21:11.880037,-34
2021-10-21 16:21:11.880046,-36
2021-10-21 16:21:11.880054,-34
2021-10-21 16:21:11.880062,-34
2021-10-21 16:21:11.880071,-43
2021-10-21 16:21:11.880079,-48
2021-10-21 16:21:11.880087,-38
2021-10-21 16:21:11.880096,-29
2021-10-21 16:21:11.880104,-26
2021-10-21 16:21:11.880112,-48
2021-10-21 16:21:11.880120,-111
2021-10-21 16:21:11.880128,-133
2021-10-21 16:21:11.880137,82
2021-10-21 16:21:11.880145,659
2021-10-21 16:21:11.880153,1304
2021-10-21 16:21:11.880162,1228
2021-10-21 16:21:11.880170,316
2021-10-21 16:21:11.880178,-218
2021-10-21 16:21:11.880187,4
2021-10-21 16:21:11.880195,63
2021-10-21 16:21:12.059936,-119
2021-10-21 16:21:12.059955,-97
2021-10-21 16:21:12.059964,-41
2021-10-21 16:21:12.059973,-85
2021-10-21 16:21:12.059981,-77
2021-10-21 16:21:12.059990,-34
2021-10-21 16:21:12.059998,-31
2021-10-21 16:21:12.060006,-36
2021-10-21 16:21:12.060015,-26
2021-10-21 16:21:12.060023,-14
2021-10-21 16:21:12.060031,-2
2021-10-21 16:21:12.060039,14
2021-10-21 16:21:12.060048,24
2021-10-21 16:21:12.060056,24
2021-10-21 16:21:12.060064,26
2021-10-21 16:21:12.060073,34
2021-10-21 16:21:12.060081,48
2021-10-21 16:21:12.060090,53
2021-10-21 16:21:12.060098,53
2021-10-21 16:21:12.060106,43
2021-10-21 16:21:12.060115,34
2021-10-21 16:21:12.060123,31
2021-10-21 16:21:12.060131,29
2021-10-21 16:21:12.060140,21
2021-10-21 16:21:12.060148,17
2021-10-21 16:21:12.060156,7
2021-10-21 16:21:12.060165,-21
2021-10-21 16:21:12.060173,-43
2021-10-21 16:21:12.060181,-48
2021-10-21 16:21:12.060190,-58
2021-10-21 16:21:12.419363,-80
2021-10-21 16:21:12.419388,-99
2021-10-21 16:21:12.419397,-102
2021-10-21 16:21:12.419406,-102
2021-10-21 16:21:12.419415,-102
2021-10-21 16:21:12.419452,-92
2021-10-21 16:21:12.419466,-90
2021-10-21 16:21:12.419475,-97
2021-10-21 16:21:12.419484,-94
2021-10-21 16:21:12.419493,-92
2021-10-21 16:21:12.419501,-92
2021-10-21 16:21:12.419510,-92
2021-10-21 16:21:12.419518,-94
2021-10-21 16:21:12.419526,-104
2021-10-21 16:21:12.419535,-109
2021-10-21 16:21:12.419543,-104
2021-10-21 16:21:12.419551,-97
2021-10-21 16:21:12.419559,-92
2021-10-21 16:21:12.419568,-94
2021-10-21 16:21:12.419576,-97
2021-10-21 16:21:12.419584,-90
2021-10-21 16:21:12.419592,-85
2021-10-21 16:21:12.419601,-85
2021-10-21 16:21:12.419612,-80
2021-10-21 16:21:12.419621,-77
2021-10-21 16:21:12.419629,-77
2021-10-21 16:21:12.419637,-75
2021-10-21 16:21:12.419645,-72
2021-10-21 16:21:12.419668,-70
2021-10-21 16:21:12.419678,-63
2021-10-21 16:21:12.554938,-65
2021-10-21 16:21:12.554957,-65
2021-10-21 16:21:12.554966,-63
2021-10-21 16:21:12.554975,-51
2021-10-21 16:21:12.554983,-26
2021-10-21 16:21:12.554991,-12
2021-10-21 16:21:12.555000,-21
2021-10-21 16:21:12.555008,-31
2021-10-21 16:21:12.555016,-31
2021-10-21 16:21:12.555025,-41
2021-10-21 16:21:12.555033,-46
2021-10-21 16:21:12.555041,-41
2021-10-21 16:21:12.555049,-43
2021-10-21 16:21:12.555058,-46
2021-10-21 16:21:12.555066,-34
2021-10-21 16:21:12.555074,-29
2021-10-21 16:21:12.555082,-26
2021-10-21 16:21:12.555090,-31
2021-10-21 16:21:12.555099,-72
2021-10-21 16:21:12.555107,-131
2021-10-21 16:21:12.555115,-72
2021-10-21 16:21:12.555124,299
2021-10-21 16:21:12.555132,985
2021-10-21 16:21:12.555140,1421
2021-10-21 16:21:12.555148,883
2021-10-21 16:21:12.555156,-36
2021-10-21 16:21:12.555165,-165
2021-10-21 16:21:12.555173,75
2021-10-21 16:21:12.555181,-41
2021-10-21 16:21:12.555189,-150
2021-10-21 16:21:12.734949,-82
2021-10-21 16:21:12.734967,-87
2021-10-21 16:21:12.734976,-128
2021-10-21 16:21:12.734985,-97
2021-10-21 16:21:12.734993,-70
2021-10-21 16:21:12.735002,-82
2021-10-21 16:21:12.735010,-72
2021-10-21 16:21:12.735018,-43
2021-10-21 16:21:12.735026,-31
2021-10-21 16:21:12.735034,-26
2021-10-21 16:21:12.735043,-9
2021-10-21 16:21:12.735051,-2
2021-10-21 16:21:12.735059,0
2021-10-21 16:21:12.735068,9
2021-10-21 16:21:12.735076,12
2021-10-21 16:21:12.735084,12
2021-10-21 16:21:12.735092,19
2021-10-21 16:21:12.735101,14
2021-10-21 16:21:12.735109,7
2021-10-21 16:21:12.735117,12
2021-10-21 16:21:12.735125,12
2021-10-21 16:21:12.735133,0
2021-10-21 16:21:12.735141,-4
2021-10-21 16:21:12.735150,-9
2021-10-21 16:21:12.735158,-19
2021-10-21 16:21:12.735166,-31
2021-10-21 16:21:12.735175,-48
2021-10-21 16:21:12.735183,-63
2021-10-21 16:21:12.735191,-72
2021-10-21 16:21:12.735199,-87
2021-10-21 16:21:13.003591,-92
2021-10-21 16:21:13.003610,-87
2021-10-21 16:21:13.003620,-87
2021-10-21 16:21:13.003628,-85
2021-10-21 16:21:13.003637,-80
2021-10-21 16:21:13.003645,-80
2021-10-21 16:21:13.003654,-75
2021-10-21 16:21:13.003662,-60
2021-10-21 16:21:13.003671,-55
2021-10-21 16:21:13.003679,-55
2021-10-21 16:21:13.003687,-60
2021-10-21 16:21:13.003696,-63
2021-10-21 16:21:13.003704,-60
2021-10-21 16:21:13.003713,-58
2021-10-21 16:21:13.003721,-60
2021-10-21 16:21:13.003729,-63
2021-10-21 16:21:13.003738,-70
2021-10-21 16:21:13.003746,-70
2021-10-21 16:21:13.003754,-58
2021-10-21 16:21:13.003763,-58
2021-10-21 16:21:13.003771,-60
2021-10-21 16:21:13.003779,-58
2021-10-21 16:21:13.003788,-60
2021-10-21 16:21:13.003796,-63
2021-10-21 16:21:13.003804,-63
2021-10-21 16:21:13.003812,-63
2021-10-21 16:21:13.003821,-68
2021-10-21 16:21:13.003829,-80
2021-10-21 16:21:13.003837,-85
2021-10-21 16:21:13.003845,-80
2021-10-21 16:21:13.185076,-68
2021-10-21 16:21:13.185097,-51
2021-10-21 16:21:13.185106,-34
2021-10-21 16:21:13.185115,-36
2021-10-21 16:21:13.185123,-53
2021-10-21 16:21:13.185132,-58
2021-10-21 16:21:13.185140,-65
2021-10-21 16:21:13.185149,-87
2021-10-21 16:21:13.185157,-90
2021-10-21 16:21:13.185165,-85
2021-10-21 16:21:13.185174,-94
2021-10-21 16:21:13.185186,-92
2021-10-21 16:21:13.185195,-77
2021-10-21 16:21:13.185203,-72
2021-10-21 16:21:13.185212,-75
2021-10-21 16:21:13.185220,-97
2021-10-21 16:21:13.185228,-155
2021-10-21 16:21:13.185237,-175
2021-10-21 16:21:13.185245,38
2021-10-21 16:21:13.185253,620
2021-10-21 16:21:13.185262,1289
2021-10-21 16:21:13.185270,1223
2021-10-21 16:21:13.185278,299
2021-10-21 16:21:13.185286,-253
2021-10-21 16:21:13.185295,-41
2021-10-21 16:21:13.185303,21
2021-10-21 16:21:13.185311,-158
2021-10-21 16:21:13.185319,-145
2021-10-21 16:21:13.185327,-85
2021-10-21 16:21:13.185336,-114
2021-10-21 16:21:13.455006,-104
2021-10-21 16:21:13.455026,-65
2021-10-21 16:21:13.455036,-70
2021-10-21 16:21:13.455044,-80
2021-10-21 16:21:13.455053,-60
2021-10-21 16:21:13.455062,-41
2021-10-21 16:21:13.455070,-29
2021-10-21 16:21:13.455078,-12
2021-10-21 16:21:13.455087,-2
2021-10-21 16:21:13.455095,-4
2021-10-21 16:21:13.455103,0
2021-10-21 16:21:13.455112,19
2021-10-21 16:21:13.455120,34
2021-10-21 16:21:13.455128,36
2021-10-21 16:21:13.455137,38
2021-10-21 16:21:13.455145,36
2021-10-21 16:21:13.455153,36
2021-10-21 16:21:13.455161,38
2021-10-21 16:21:13.455170,34
2021-10-21 16:21:13.455178,29
2021-10-21 16:21:13.455186,9
2021-10-21 16:21:13.455194,-9
2021-10-21 16:21:13.455202,-21
2021-10-21 16:21:13.455211,-34
2021-10-21 16:21:13.455219,-43
2021-10-21 16:21:13.455227,-53
2021-10-21 16:21:13.455235,-68
2021-10-21 16:21:13.455243,-85
2021-10-21 16:21:13.455252,-90
2021-10-21 16:21:13.455260,-82
2021-10-21 16:21:13.680135,-75
2021-10-21 16:21:13.680158,-63
2021-10-21 16:21:13.680168,-55
2021-10-21 16:21:13.680176,-55
2021-10-21 16:21:13.680184,-46
2021-10-21 16:21:13.680191,-31
2021-10-21 16:21:13.680199,-31
2021-10-21 16:21:13.680207,-29
2021-10-21 16:21:13.680215,-29
2021-10-21 16:21:13.680223,-38
2021-10-21 16:21:13.680231,-31
2021-10-21 16:21:13.680238,-17
2021-10-21 16:21:13.680246,-19
2021-10-21 16:21:13.680254,-38
2021-10-21 16:21:13.680262,-53
2021-10-21 16:21:13.680270,-60
2021-10-21 16:21:13.680277,-58
2021-10-21 16:21:13.680285,-46
2021-10-21 16:21:13.680293,-41
2021-10-21 16:21:13.680300,-46
2021-10-21 16:21:13.680307,-48
2021-10-21 16:21:13.680315,-53
2021-10-21 16:21:13.680323,-60
2021-10-21 16:21:13.680331,-63
2021-10-21 16:21:13.680339,-53
2021-10-21 16:21:13.680347,-41
2021-10-21 16:21:13.680355,-29
2021-10-21 16:21:13.680363,-24
2021-10-21 16:21:13.680371,-21
2021-10-21 16:21:13.680379,-29
2021-10-21 16:21:13.994373,-41
2021-10-21 16:21:13.994393,-43
2021-10-21 16:21:13.994403,-41
2021-10-21 16:21:13.994412,-43
2021-10-21 16:21:13.994420,-36
2021-10-21 16:21:13.994428,-36
2021-10-21 16:21:13.994437,-41
2021-10-21 16:21:13.994445,-46
2021-10-21 16:21:13.994453,-60
2021-10-21 16:21:13.994462,-87
2021-10-21 16:21:13.994470,-133
2021-10-21 16:21:13.994478,-163
2021-10-21 16:21:13.994487,0
2021-10-21 16:21:13.994495,542
2021-10-21 16:21:13.994503,1240
2021-10-21 16:21:13.994512,1272
2021-10-21 16:21:13.994520,355
2021-10-21 16:21:13.994529,-304
2021-10-21 16:21:13.994537,-82
2021-10-21 16:21:13.994545,43
2021-10-21 16:21:13.994554,-163
2021-10-21 16:21:13.994562,-155
2021-10-21 16:21:13.994570,-68
2021-10-21 16:21:13.994578,-107
2021-10-21 16:21:13.994587,-119
2021-10-21 16:21:13.994595,-77
2021-10-21 16:21:13.994603,-70
2021-10-21 16:21:13.994612,-68
2021-10-21 16:21:13.994620,-46
2021-10-21 16:21:13.994628,-24
2021-10-21 16:21:14.129964,-9
2021-10-21 16:21:14.129982,2
2021-10-21 16:21:14.129992,14
2021-10-21 16:21:14.130000,31
2021-10-21 16:21:14.130009,48
2021-10-21 16:21:14.130017,53
2021-10-21 16:21:14.130025,63
2021-10-21 16:21:14.130033,77
2021-10-21 16:21:14.130042,75
2021-10-21 16:21:14.130050,70
2021-10-21 16:21:14.130058,80
2021-10-21 16:21:14.130067,80
2021-10-21 16:21:14.130075,63
2021-10-21 16:21:14.130083,41
2021-10-21 16:21:14.130092,26
2021-10-21 16:21:14.130100,7
2021-10-21 16:21:14.130108,-14
2021-10-21 16:21:14.130117,-29
2021-10-21 16:21:14.130125,-48
2021-10-21 16:21:14.130133,-87
2021-10-21 16:21:14.130141,-107
2021-10-21 16:21:14.130150,-107
2021-10-21 16:21:14.130158,-107
2021-10-21 16:21:14.130166,-104
2021-10-21 16:21:14.130175,-102
2021-10-21 16:21:14.130183,-104
2021-10-21 16:21:14.130191,-107
2021-10-21 16:21:14.130199,-99
2021-10-21 16:21:14.130208,-87
2021-10-21 16:21:14.130216,-77
2021-10-21 16:21:14.400086,-70
2021-10-21 16:21:14.400106,-65
2021-10-21 16:21:14.400116,-55
2021-10-21 16:21:14.400125,-43
2021-10-21 16:21:14.400133,-38
2021-10-21 16:21:14.400142,-38
2021-10-21 16:21:14.400150,-46
2021-10-21 16:21:14.400158,-48
2021-10-21 16:21:14.400172,-38
2021-10-21 16:21:14.400181,-36
2021-10-21 16:21:14.400189,-41
2021-10-21 16:21:14.400198,-41
2021-10-21 16:21:14.400206,-51
2021-10-21 16:21:14.400214,-51
2021-10-21 16:21:14.400223,-38
2021-10-21 16:21:14.400231,-29
2021-10-21 16:21:14.400239,-21
2021-10-21 16:21:14.400247,-9
2021-10-21 16:21:14.400256,-9
2021-10-21 16:21:14.400264,-19
2021-10-21 16:21:14.400272,-26
2021-10-21 16:21:14.400281,-29
2021-10-21 16:21:14.400289,-29
2021-10-21 16:21:14.400298,-29
2021-10-21 16:21:14.400306,-29
2021-10-21 16:21:14.400314,-19
2021-10-21 16:21:14.400322,-12
2021-10-21 16:21:14.400331,-17
2021-10-21 16:21:14.400339,-24
2021-10-21 16:21:14.400347,-34
2021-10-21 16:21:14.580130,-75
2021-10-21 16:21:14.580150,-150
2021-10-21 16:21:14.580160,-107
2021-10-21 16:21:14.580169,296
2021-10-21 16:21:14.580177,1051
2021-10-21 16:21:14.580186,1511
2021-10-21 16:21:14.580194,897
2021-10-21 16:21:14.580202,-102
2021-10-21 16:21:14.580210,-211
2021-10-21 16:21:14.580218,70
2021-10-21 16:21:14.580227,-58
2021-10-21 16:21:14.580235,-182
2021-10-21 16:21:14.580243,-107
2021-10-21 16:21:14.580252,-107
2021-10-21 16:21:14.580260,-143
2021-10-21 16:21:14.580268,-111
2021-10-21 16:21:14.580277,-102
2021-10-21 16:21:14.580285,-114
2021-10-21 16:21:14.580297,-94
2021-10-21 16:21:14.580305,-68
2021-10-21 16:21:14.580313,-58
2021-10-21 16:21:14.580322,-51
2021-10-21 16:21:14.580330,-36
2021-10-21 16:21:14.580338,-29
2021-10-21 16:21:14.580346,-26
2021-10-21 16:21:14.580354,-17
2021-10-21 16:21:14.580363,-4
2021-10-21 16:21:14.580371,7
2021-10-21 16:21:14.580379,17
2021-10-21 16:21:14.580387,17
2021-10-21 16:21:14.804995,12
2021-10-21 16:21:14.805014,9
2021-10-21 16:21:14.805023,12
2021-10-21 16:21:14.805031,2
2021-10-21 16:21:14.805040,-19
2021-10-21 16:21:14.805048,-48
2021-10-21 16:21:14.805056,-70
2021-10-21 16:21:14.805064,-87
2021-10-21 16:21:14.805073,-104
2021-10-21 16:21:14.805081,-121
2021-10-21 16:21:14.805089,-133
2021-10-21 16:21:14.805098,-145
2021-10-21 16:21:14.805106,-145
2021-10-21 16:21:14.805114,-136
2021-10-21 16:21:14.805122,-131
2021-10-21 16:21:14.805130,-126
2021-10-21 16:21:14.805139,-116
2021-10-21 16:21:14.805147,-107
2021-10-21 16:21:14.805155,-97
2021-10-21 16:21:14.805163,-87
2021-10-21 16:21:14.805171,-75
2021-10-21 16:21:14.805179,-68
2021-10-21 16:21:14.805187,-63
2021-10-21 16:21:14.805195,-60
2021-10-21 16:21:14.805203,-53
2021-10-21 16:21:14.805212,-43
2021-10-21 16:21:14.805220,-41
2021-10-21 16:21:14.805228,-38
2021-10-21 16:21:14.805236,-36
2021-10-21 16:21:14.805244,-34
2021-10-21 16:21:15.118675,-31
2021-10-21 16:21:15.118696,-29
2021-10-21 16:21:15.118705,-41
2021-10-21 16:21:15.118714,-58
2021-10-21 16:21:15.118722,-60
2021-10-21 16:21:15.118731,-63
2021-10-21 16:21:15.118739,-60
2021-10-21 16:21:15.118747,-46
2021-10-21 16:21:15.118755,-26
2021-10-21 16:21:15.118764,-21
2021-10-21 16:21:15.118772,-29
2021-10-21 16:21:15.118780,-34
2021-10-21 16:21:15.118788,-31
2021-10-21 16:21:15.118796,-36
2021-10-21 16:21:15.118805,-41
2021-10-21 16:21:15.118813,-41
2021-10-21 16:21:15.118821,-38
2021-10-21 16:21:15.118830,-31
2021-10-21 16:21:15.118838,-26
2021-10-21 16:21:15.118846,-21
2021-10-21 16:21:15.118854,-17
2021-10-21 16:21:15.118862,-26
2021-10-21 16:21:15.118871,-58
2021-10-21 16:21:15.118879,-128
2021-10-21 16:21:15.118887,-141
2021-10-21 16:21:15.118895,153
2021-10-21 16:21:15.118904,897
2021-10-21 16:21:15.118912,1664
2021-10-21 16:21:15.118920,1455
2021-10-21 16:21:15.118928,326
2021-10-21 16:21:15.345101,-236
2021-10-21 16:21:15.345121,9
2021-10-21 16:21:15.345131,17
2021-10-21 16:21:15.345140,-192
2021-10-21 16:21:15.345148,-160
2021-10-21 16:21:15.345156,-111
2021-10-21 16:21:15.345165,-155
2021-10-21 16:21:15.345173,-136
2021-10-21 16:21:15.345182,-99
2021-10-21 16:21:15.345190,-121
2021-10-21 16:21:15.345199,-119
2021-10-21 16:21:15.345207,-82
2021-10-21 16:21:15.345215,-70
2021-10-21 16:21:15.345224,-63
2021-10-21 16:21:15.345232,-48
2021-10-21 16:21:15.345240,-46
2021-10-21 16:21:15.345249,-48
2021-10-21 16:21:15.345257,-34
2021-10-21 16:21:15.345265,-19
2021-10-21 16:21:15.345273,-14
2021-10-21 16:21:15.345282,-7
2021-10-21 16:21:15.345290,2
2021-10-21 16:21:15.345298,4
2021-10-21 16:21:15.345306,9
2021-10-21 16:21:15.345315,12
2021-10-21 16:21:15.345323,7
2021-10-21 16:21:15.345331,0
2021-10-21 16:21:15.345340,-19
2021-10-21 16:21:15.345348,-41
2021-10-21 16:21:15.345356,-60
2021-10-21 16:21:15.570035,-82
2021-10-21 16:21:15.570055,-94
2021-10-21 16:21:15.570064,-111
2021-10-21 16:21:15.570073,-126
2021-10-21 16:21:15.570081,-124
2021-10-21 16:21:15.570090,-119
2021-10-21 16:21:15.570098,-124
2021-10-21 16:21:15.570106,-126
2021-10-21 16:21:15.570114,-121
2021-10-21 16:21:15.570122,-111
2021-10-21 16:21:15.570131,-102
2021-10-21 16:21:15.570139,-90
2021-10-21 16:21:15.570147,-77
2021-10-21 16:21:15.570156,-72
2021-10-21 16:21:15.570164,-80
2021-10-21 16:21:15.570172,-82
2021-10-21 16:21:15.570180,-75
2021-10-21 16:21:15.570188,-63
2021-10-21 16:21:15.570197,-58
2021-10-21 16:21:15.570205,-55
2021-10-21 16:21:15.570213,-60
2021-10-21 16:21:15.570221,-68
2021-10-21 16:21:15.570229,-60
2021-10-21 16:21:15.570240,-51
2021-10-21 16:21:15.570248,-48
2021-10-21 16:21:15.570257,-46
2021-10-21 16:21:15.570265,-48
2021-10-21 16:21:15.570273,-48
2021-10-21 16:21:15.570282,-38
2021-10-21 16:21:15.570290,-34
2021-10-21 16:21:15.749987,-34
2021-10-21 16:21:15.750006,-34
2021-10-21 16:21:15.750015,-38
2021-10-21 16:21:15.750024,-43
2021-10-21 16:21:15.750032,-29
2021-10-21 16:21:15.750041,-9
2021-10-21 16:21:15.750049,-14
2021-10-21 16:21:15.750057,-29
2021-10-21 16:21:15.750066,-29
2021-10-21 16:21:15.750074,-34
2021-10-21 16:21:15.750082,-41
2021-10-21 16:21:15.750091,-43
2021-10-21 16:21:15.750099,-38
2021-10-21 16:21:15.750107,-38
2021-10-21 16:21:15.750115,-51
2021-10-21 16:21:15.750123,-51
2021-10-21 16:21:15.750131,-38
2021-10-21 16:21:15.750140,-34
2021-10-21 16:21:15.750148,-34
2021-10-21 16:21:15.750156,-60
2021-10-21 16:21:15.750164,-141
2021-10-21 16:21:15.750172,-204
2021-10-21 16:21:15.750181,-26
2021-10-21 16:21:15.750189,615
2021-10-21 16:21:15.750197,1501
2021-10-21 16:21:15.750205,1686
2021-10-21 16:21:15.750214,705
2021-10-21 16:21:15.750222,-182
2021-10-21 16:21:15.750230,-80
2021-10-21 16:21:15.750238,72
2021-10-21 16:21:16.110035,-138
2021-10-21 16:21:16.110055,-177
2021-10-21 16:21:16.110065,-90
2021-10-21 16:21:16.110073,-124
2021-10-21 16:21:16.110082,-138
2021-10-21 16:21:16.110090,-97
2021-10-21 16:21:16.110099,-97
2021-10-21 16:21:16.110107,-114
2021-10-21 16:21:16.110116,-94
2021-10-21 16:21:16.110124,-75
2021-10-21 16:21:16.110132,-75
2021-10-21 16:21:16.110140,-70
2021-10-21 16:21:16.110149,-53
2021-10-21 16:21:16.110157,-48
2021-10-21 16:21:16.110165,-43
2021-10-21 16:21:16.110173,-34
2021-10-21 16:21:16.110182,-19
2021-10-21 16:21:16.110190,-9
2021-10-21 16:21:16.110198,-7
2021-10-21 16:21:16.110206,-2
2021-10-21 16:21:16.110215,4
2021-10-21 16:21:16.110223,7
2021-10-21 16:21:16.110231,7
2021-10-21 16:21:16.110239,4
2021-10-21 16:21:16.110247,-9
2021-10-21 16:21:16.110256,-31
2021-10-21 16:21:16.110264,-53
2021-10-21 16:21:16.110272,-77
2021-10-21 16:21:16.110280,-97
2021-10-21 16:21:16.110289,-107
2021-10-21 16:21:16.244984,-116
2021-10-21 16:21:16.245001,-121
2021-10-21 16:21:16.245011,-124
2021-10-21 16:21:16.245019,-124
2021-10-21 16:21:16.245027,-121
2021-10-21 16:21:16.245036,-111
2021-10-21 16:21:16.245044,-111
2021-10-21 16:21:16.245052,-114
2021-10-21 16:21:16.245060,-104
2021-10-21 16:21:16.245068,-94
2021-10-21 16:21:16.245076,-90
2021-10-21 16:21:16.245085,-90
2021-10-21 16:21:16.245093,-107
2021-10-21 16:21:16.245101,-107
2021-10-21 16:21:16.245110,-92
2021-10-21 16:21:16.245118,-85
2021-10-21 16:21:16.245126,-85
2021-10-21 16:21:16.245134,-77
2021-10-21 16:21:16.245142,-72
2021-10-21 16:21:16.245150,-68
2021-10-21 16:21:16.245159,-60
2021-10-21 16:21:16.245167,-60
2021-10-21 16:21:16.245175,-58
2021-10-21 16:21:16.245183,-48
2021-10-21 16:21:16.245191,-46
2021-10-21 16:21:16.245199,-43
2021-10-21 16:21:16.245207,-38
2021-10-21 16:21:16.245215,-41
2021-10-21 16:21:16.245223,-36
2021-10-21 16:21:16.245232,-36
2021-10-21 16:21:16.424998,-48
2021-10-21 16:21:16.425017,-46
2021-10-21 16:21:16.425026,-38
2021-10-21 16:21:16.425035,-41
2021-10-21 16:21:16.425043,-38
2021-10-21 16:21:16.425052,-34
2021-10-21 16:21:16.425060,-34
2021-10-21 16:21:16.425068,-31
2021-10-21 16:21:16.425077,-26
2021-10-21 16:21:16.425085,-29
2021-10-21 16:21:16.425093,-31
2021-10-21 16:21:16.425102,-31
2021-10-21 16:21:16.425110,-29
2021-10-21 16:21:16.425119,-7
2021-10-21 16:21:16.425127,4
2021-10-21 16:21:16.425135,-17
2021-10-21 16:21:16.425144,-21
2021-10-21 16:21:16.425152,-17
2021-10-21 16:21:16.425160,-34
2021-10-21 16:21:16.425168,-41
2021-10-21 16:21:16.425176,-29
2021-10-21 16:21:16.425184,-29
2021-10-21 16:21:16.425193,-34
2021-10-21 16:21:16.425201,-31
2021-10-21 16:21:16.425209,-26
2021-10-21 16:21:16.425217,-19
2021-10-21 16:21:16.425225,-14
2021-10-21 16:21:16.425233,-26
2021-10-21 16:21:16.425242,-82
2021-10-21 16:21:16.425250,-160
2021-10-21 16:21:16.650033,-85
2021-10-21 16:21:16.650052,391
2021-10-21 16:21:16.650061,1250
2021-10-21 16:21:16.650070,1727
2021-10-21 16:21:16.650078,1017
2021-10-21 16:21:16.650086,-46
2021-10-21 16:21:16.650095,-172
2021-10-21 16:21:16.650103,68
2021-10-21 16:21:16.650112,-87
2021-10-21 16:21:16.650120,-199
2021-10-21 16:21:16.650128,-116
2021-10-21 16:21:16.650136,-128
2021-10-21 16:21:16.650145,-172
2021-10-21 16:21:16.650153,-133
2021-10-21 16:21:16.650161,-116
2021-10-21 16:21:16.650170,-136
2021-10-21 16:21:16.650178,-126
2021-10-21 16:21:16.650186,-124
2021-10-21 16:21:16.650194,-128
2021-10-21 16:21:16.650203,-109
2021-10-21 16:21:16.650211,-85
2021-10-21 16:21:16.650219,-75
2021-10-21 16:21:16.650228,-65
2021-10-21 16:21:16.650236,-48
2021-10-21 16:21:16.650244,-34
2021-10-21 16:21:16.650252,-17
2021-10-21 16:21:16.650260,-2
2021-10-21 16:21:16.650269,7
2021-10-21 16:21:16.650277,14
2021-10-21 16:21:16.650285,17
2021-10-21 16:21:16.964986,19
2021-10-21 16:21:16.965005,21
2021-10-21 16:21:16.965014,14
2021-10-21 16:21:16.965023,-2
2021-10-21 16:21:16.965031,-31
2021-10-21 16:21:16.965040,-63
2021-10-21 16:21:16.965048,-77
2021-10-21 16:21:16.965056,-87
2021-10-21 16:21:16.965064,-102
2021-10-21 16:21:16.965072,-111
2021-10-21 16:21:16.965080,-124
2021-10-21 16:21:16.965089,-128
2021-10-21 16:21:16.965097,-119
2021-10-21 16:21:16.965105,-107
2021-10-21 16:21:16.965113,-99
2021-10-21 16:21:16.965121,-94
2021-10-21 16:21:16.965130,-92
2021-10-21 16:21:16.965138,-85
2021-10-21 16:21:16.965146,-80
2021-10-21 16:21:16.965154,-77
2021-10-21 16:21:16.965162,-75
2021-10-21 16:21:16.965170,-70
2021-10-21 16:21:16.965179,-63
2021-10-21 16:21:16.965187,-55
2021-10-21 16:21:16.965195,-48
2021-10-21 16:21:16.965203,-43
2021-10-21 16:21:16.965211,-41
2021-10-21 16:21:16.965220,-41
2021-10-21 16:21:16.965228,-36
2021-10-21 16:21:16.965239,-26
2021-10-21 16:21:17.188663,-19
2021-10-21 16:21:17.188682,-21
2021-10-21 16:21:17.188691,-24
2021-10-21 16:21:17.188700,-36
2021-10-21 16:21:17.188708,-46
2021-10-21 16:21:17.188717,-34
2021-10-21 16:21:17.188725,-24
2021-10-21 16:21:17.188733,-26
2021-10-21 16:21:17.188741,-29
2021-10-21 16:21:17.188749,-31
2021-10-21 16:21:17.188758,-31
2021-10-21 16:21:17.188766,-24
2021-10-21 16:21:17.188774,-17
2021-10-21 16:21:17.188783,-14
2021-10-21 16:21:17.188791,-14
2021-10-21 16:21:17.188799,-17
2021-10-21 16:21:17.188807,-19
2021-10-21 16:21:17.188815,-9
2021-10-21 16:21:17.188823,-2
2021-10-21 16:21:17.188832,-2
2021-10-21 16:21:17.188840,-4
2021-10-21 16:21:17.188848,-21
2021-10-21 16:21:17.188857,-34
2021-10-21 16:21:17.188865,-38
2021-10-21 16:21:17.188873,-36
2021-10-21 16:21:17.188881,-19
2021-10-21 16:21:17.188889,-9
2021-10-21 16:21:17.188897,-21
2021-10-21 16:21:17.188906,-24
2021-10-21 16:21:17.188914,-17
2021-10-21 16:21:17.370002,-21
2021-10-21 16:21:17.370020,-29
2021-10-21 16:21:17.370030,-29
2021-10-21 16:21:17.370038,-29
2021-10-21 16:21:17.370047,-29
2021-10-21 16:21:17.370055,-24
2021-10-21 16:21:17.370063,-24
2021-10-21 16:21:17.370072,-31
2021-10-21 16:21:17.370080,-41
2021-10-21 16:21:17.370088,-68
2021-10-21 16:21:17.370096,-116
2021-10-21 16:21:17.370105,-187
2021-10-21 16:21:17.370113,-158
2021-10-21 16:21:17.370121,231
2021-10-21 16:21:17.370130,1041
2021-10-21 16:21:17.370138,1652
2021-10-21 16:21:17.370146,1172
2021-10-21 16:21:17.370154,82
2021-10-21 16:21:17.370163,-226
2021-10-21 16:21:17.370171,24
2021-10-21 16:21:17.370179,-68
2021-10-21 16:21:17.370187,-228
2021-10-21 16:21:17.370195,-155
2021-10-21 16:21:17.370204,-131
2021-10-21 16:21:17.370212,-170
2021-10-21 16:21:17.370220,-141
2021-10-21 16:21:17.370228,-114
2021-10-21 16:21:17.370237,-126
2021-10-21 16:21:17.370245,-109
2021-10-21 16:21:17.370254,-77
2021-10-21 16:21:17.595021,-65
2021-10-21 16:21:17.595039,-55
2021-10-21 16:21:17.595049,-43
2021-10-21 16:21:17.595058,-36
2021-10-21 16:21:17.595066,-19
2021-10-21 16:21:17.595074,7
2021-10-21 16:21:17.595083,21
2021-10-21 16:21:17.595091,29
2021-10-21 16:21:17.595099,29
2021-10-21 16:21:17.595108,34
2021-10-21 16:21:17.595116,53
2021-10-21 16:21:17.595124,60
2021-10-21 16:21:17.595132,55
2021-10-21 16:21:17.595141,51
2021-10-21 16:21:17.595149,34
2021-10-21 16:21:17.595157,14
2021-10-21 16:21:17.595166,0
2021-10-21 16:21:17.595174,-19
2021-10-21 16:21:17.595182,-41
2021-10-21 16:21:17.595191,-58
2021-10-21 16:21:17.595199,-77
2021-10-21 16:21:17.595207,-90
2021-10-21 16:21:17.595216,-92
2021-10-21 16:21:17.595224,-90
2021-10-21 16:21:17.595232,-94
2021-10-21 16:21:17.595241,-102
2021-10-21 16:21:17.595249,-99
2021-10-21 16:21:17.595257,-94
2021-10-21 16:21:17.595266,-99
2021-10-21 16:21:17.595274,-104
2021-10-21 16:21:17.820003,-87
2021-10-21 16:21:17.820022,-77
2021-10-21 16:21:17.820031,-80
2021-10-21 16:21:17.820039,-70
2021-10-21 16:21:17.820048,-58
2021-10-21 16:21:17.820056,-53
2021-10-21 16:21:17.820064,-51
2021-10-21 16:21:17.820073,-55
2021-10-21 16:21:17.820081,-58
2021-10-21 16:21:17.820089,-46
2021-10-21 16:21:17.820097,-38
2021-10-21 16:21:17.820106,-38
2021-10-21 16:21:17.820114,-36
2021-10-21 16:21:17.820122,-41
2021-10-21 16:21:17.820130,-48
2021-10-21 16:21:17.820138,-48
2021-10-21 16:21:17.820147,-48
2021-10-21 16:21:17.820155,-51
2021-10-21 16:21:17.820163,-51
2021-10-21 16:21:17.820172,-48
2021-10-21 16:21:17.820180,-46
2021-10-21 16:21:17.820188,-46
2021-10-21 16:21:17.820196,-43
2021-10-21 16:21:17.820204,-36
2021-10-21 16:21:17.820213,-31
2021-10-21 16:21:17.820221,-36
2021-10-21 16:21:17.820229,-43
2021-10-21 16:21:17.820237,-51
2021-10-21 16:21:17.820246,-51
2021-10-21 16:21:17.820254,-46
2021-10-21 16:21:18.044991,-53
2021-10-21 16:21:18.045010,-55
2021-10-21 16:21:18.045019,-48
2021-10-21 16:21:18.045028,-48
2021-10-21 16:21:18.045037,-48
2021-10-21 16:21:18.045045,-48
2021-10-21 16:21:18.045053,-55
2021-10-21 16:21:18.045061,-53
2021-10-21 16:21:18.045070,-31
2021-10-21 16:21:18.045078,-9
2021-10-21 16:21:18.045086,-14
2021-10-21 16:21:18.045094,-21
2021-10-21 16:21:18.045102,-24
2021-10-21 16:21:18.045111,-34
2021-10-21 16:21:18.045119,-41
2021-10-21 16:21:18.045127,-41
2021-10-21 16:21:18.045136,-38
2021-10-21 16:21:18.045144,-34
2021-10-21 16:21:18.045152,-29
2021-10-21 16:21:18.045160,-31
2021-10-21 16:21:18.045168,-29
2021-10-21 16:21:18.045177,-24
2021-10-21 16:21:18.045185,-24
2021-10-21 16:21:18.045193,-55
2021-10-21 16:21:18.045201,-138
2021-10-21 16:21:18.045210,-148
2021-10-21 16:21:18.045218,158
2021-10-21 16:21:18.045226,900
2021-10-21 16:21:18.045235,1635
2021-10-21 16:21:18.045243,1389
2021-10-21 16:21:18.270048,289
2021-10-21 16:21:18.270067,-216
2021-10-21 16:21:18.270077,21
2021-10-21 16:21:18.270085,9
2021-10-21 16:21:18.270094,-187
2021-10-21 16:21:18.270102,-160
2021-10-21 16:21:18.270111,-124
2021-10-21 16:21:18.270119,-163
2021-10-21 16:21:18.270128,-143
2021-10-21 16:21:18.270136,-109
2021-10-21 16:21:18.270144,-109
2021-10-21 16:21:18.270153,-102
2021-10-21 16:21:18.270161,-90
2021-10-21 16:21:18.270170,-72
2021-10-21 16:21:18.270178,-58
2021-10-21 16:21:18.270186,-46
2021-10-21 16:21:18.270195,-31
2021-10-21 16:21:18.270203,-17
2021-10-21 16:21:18.270211,-4
2021-10-21 16:21:18.270220,17
2021-10-21 16:21:18.270228,34
2021-10-21 16:21:18.270236,43
2021-10-21 16:21:18.270245,55
2021-10-21 16:21:18.270253,63
2021-10-21 16:21:18.270261,70
2021-10-21 16:21:18.270269,75
2021-10-21 16:21:18.270278,75
2021-10-21 16:21:18.270286,65
2021-10-21 16:21:18.270294,51
2021-10-21 16:21:18.270303,34
2021-10-21 16:21:18.584403,2
2021-10-21 16:21:18.584421,-29
2021-10-21 16:21:18.584431,-53
2021-10-21 16:21:18.584439,-68
2021-10-21 16:21:18.584448,-82
2021-10-21 16:21:18.584456,-102
2021-10-21 16:21:18.584465,-109
2021-10-21 16:21:18.584473,-104
2021-10-21 16:21:18.584481,-109
2021-10-21 16:21:18.584489,-111
2021-10-21 16:21:18.584498,-104
2021-10-21 16:21:18.584506,-107
2021-10-21 16:21:18.584514,-102
2021-10-21 16:21:18.584523,-87
2021-10-21 16:21:18.584531,-82
2021-10-21 16:21:18.584539,-77
2021-10-21 16:21:18.584548,-72
2021-10-21 16:21:18.584556,-65
2021-10-21 16:21:18.584564,-60
2021-10-21 16:21:18.584573,-58
2021-10-21 16:21:18.584581,-58
2021-10-21 16:21:18.584589,-60
2021-10-21 16:21:18.584597,-65
2021-10-21 16:21:18.584606,-65
2021-10-21 16:21:18.584614,-58
2021-10-21 16:21:18.584622,-53
2021-10-21 16:21:18.584630,-53
2021-10-21 16:21:18.584639,-55
2021-10-21 16:21:18.584652,-58
2021-10-21 16:21:18.584661,-55
2021-10-21 16:21:18.721685,-51
2021-10-21 16:21:18.721703,-48
2021-10-21 16:21:18.721712,-51
2021-10-21 16:21:18.721721,-65
2021-10-21 16:21:18.721729,-80
2021-10-21 16:21:18.721738,-77
2021-10-21 16:21:18.721746,-65
2021-10-21 16:21:18.721754,-63
2021-10-21 16:21:18.721762,-63
2021-10-21 16:21:18.721771,-60
2021-10-21 16:21:18.721779,-60
2021-10-21 16:21:18.721787,-63
2021-10-21 16:21:18.721795,-65
2021-10-21 16:21:18.721804,-55
2021-10-21 16:21:18.721812,-51
2021-10-21 16:21:18.721820,-55
2021-10-21 16:21:18.721829,-63
2021-10-21 16:21:18.721837,-63
2021-10-21 16:21:18.721845,-51
2021-10-21 16:21:18.721854,-41
2021-10-21 16:21:18.721862,-38
2021-10-21 16:21:18.721870,-38
2021-10-21 16:21:18.721878,-43
2021-10-21 16:21:18.721887,-46
2021-10-21 16:21:18.721895,-34
2021-10-21 16:21:18.721903,-17
2021-10-21 16:21:18.721911,4
2021-10-21 16:21:18.721920,14
2021-10-21 16:21:18.721928,4
2021-10-21 16:21:18.721937,4
2021-10-21 16:21:18.945021,9
2021-10-21 16:21:18.945039,2
2021-10-21 16:21:18.945049,-9
2021-10-21 16:21:18.945057,-17
2021-10-21 16:21:18.945066,-24
2021-10-21 16:21:18.945074,-31
2021-10-21 16:21:18.945082,-29
2021-10-21 16:21:18.945091,-21
2021-10-21 16:21:18.945099,-21
2021-10-21 16:21:18.945107,-29
2021-10-21 16:21:18.945116,-41
2021-10-21 16:21:18.945124,-72
2021-10-21 16:21:18.945132,-138
2021-10-21 16:21:18.945140,-133
2021-10-21 16:21:18.945149,182
2021-10-21 16:21:18.945157,917
2021-10-21 16:21:18.945165,1610
2021-10-21 16:21:18.945173,1343
2021-10-21 16:21:18.945181,265
2021-10-21 16:21:18.945190,-211
2021-10-21 16:21:18.945198,31
2021-10-21 16:21:18.945206,9
2021-10-21 16:21:18.945215,-175
2021-10-21 16:21:18.945223,-119
2021-10-21 16:21:18.945231,-65
2021-10-21 16:21:18.945239,-104
2021-10-21 16:21:18.945247,-92
2021-10-21 16:21:18.945256,-65
2021-10-21 16:21:18.945264,-68
2021-10-21 16:21:18.945272,-53
2021-10-21 16:21:19.304376,-29
2021-10-21 16:21:19.304396,-19
2021-10-21 16:21:19.304405,-19
2021-10-21 16:21:19.304414,-9
2021-10-21 16:21:19.304422,2
2021-10-21 16:21:19.304431,12
2021-10-21 16:21:19.304439,19
2021-10-21 16:21:19.304448,19
2021-10-21 16:21:19.304456,17
2021-10-21 16:21:19.304465,21
2021-10-21 16:21:19.304473,38
2021-10-21 16:21:19.304481,55
2021-10-21 16:21:19.304489,55
2021-10-21 16:21:19.304498,60
2021-10-21 16:21:19.304506,55
2021-10-21 16:21:19.304514,43
2021-10-21 16:21:19.304523,29
2021-10-21 16:21:19.304531,-7
2021-10-21 16:21:19.304539,-46
2021-10-21 16:21:19.304548,-75
2021-10-21 16:21:19.304556,-104
2021-10-21 16:21:19.304564,-126
2021-10-21 16:21:19.304573,-136
2021-10-21 16:21:19.304581,-145
2021-10-21 16:21:19.304589,-145
2021-10-21 16:21:19.304598,-141
2021-10-21 16:21:19.304606,-141
2021-10-21 16:21:19.304615,-138
2021-10-21 16:21:19.304623,-128
2021-10-21 16:21:19.304631,-116
2021-10-21 16:21:19.530088,-104
2021-10-21 16:21:19.530108,-94
2021-10-21 16:21:19.530118,-90
2021-10-21 16:21:19.530126,-90
2021-10-21 16:21:19.530135,-80
2021-10-21 16:21:19.530143,-65
2021-10-21 16:21:19.530151,-55
2021-10-21 16:21:19.530160,-53
2021-10-21 16:21:19.530168,-53
2021-10-21 16:21:19.530176,-55
2021-10-21 16:21:19.530185,-51
2021-10-21 16:21:19.530193,-43
2021-10-21 16:21:19.530201,-36
2021-10-21 16:21:19.530210,-38
2021-10-21 16:21:19.530218,-53
2021-10-21 16:21:19.530227,-58
2021-10-21 16:21:19.530235,-43
2021-10-21 16:21:19.530243,-31
2021-10-21 16:21:19.530252,-38
2021-10-21 16:21:19.530260,-48
2021-10-21 16:21:19.530268,-51
2021-10-21 16:21:19.530276,-48
2021-10-21 16:21:19.530284,-41
2021-10-21 16:21:19.530293,-38
2021-10-21 16:21:19.530301,-36
2021-10-21 16:21:19.530309,-34
2021-10-21 16:21:19.530317,-38
2021-10-21 16:21:19.530325,-41
2021-10-21 16:21:19.530334,-34
2021-10-21 16:21:19.530342,-24
2021-10-21 16:21:19.710133,-17
2021-10-21 16:21:19.710152,-14
2021-10-21 16:21:19.710162,-14
2021-10-21 16:21:19.710171,-12
2021-10-21 16:21:19.710179,-7
2021-10-21 16:21:19.710188,-4
2021-10-21 16:21:19.710196,-4
2021-10-21 16:21:19.710205,0
2021-10-21 16:21:19.710213,2
2021-10-21 16:21:19.710221,7
2021-10-21 16:21:19.710230,24
2021-10-21 16:21:19.710238,34
2021-10-21 16:21:19.710247,19
2021-10-21 16:21:19.710255,2
2021-10-21 16:21:19.710263,-2
2021-10-21 16:21:19.710271,-4
2021-10-21 16:21:19.710280,-12
2021-10-21 16:21:19.710288,-9
2021-10-21 16:21:19.710296,-4
2021-10-21 16:21:19.710304,-4
2021-10-21 16:21:19.710313,-12
2021-10-21 16:21:19.710321,-9
2021-10-21 16:21:19.710329,-14
2021-10-21 16:21:19.710337,-26
2021-10-21 16:21:19.710346,-38
2021-10-21 16:21:19.710354,-80
2021-10-21 16:21:19.710362,-163
2021-10-21 16:21:19.710370,-133
2021-10-21 16:21:19.710379,240
2021-10-21 16:21:19.710387,985
2021-10-21 16:21:19.935053,1537
2021-10-21 16:21:19.935072,1053
2021-10-21 16:21:19.935081,7
2021-10-21 16:21:19.935090,-228
2021-10-21 16:21:19.935098,68
2021-10-21 16:21:19.935107,-21
2021-10-21 16:21:19.935115,-175
2021-10-21 16:21:19.935123,-94
2021-10-21 16:21:19.935131,-72
2021-10-21 16:21:19.935139,-109
2021-10-21 16:21:19.935148,-80
2021-10-21 16:21:19.935156,-48
2021-10-21 16:21:19.935164,-51
2021-10-21 16:21:19.935173,-51
2021-10-21 16:21:19.935181,-38
2021-10-21 16:21:19.935189,-26
2021-10-21 16:21:19.935197,-14
2021-10-21 16:21:19.935205,-4
2021-10-21 16:21:19.935213,-4
2021-10-21 16:21:19.935221,7
2021-10-21 16:21:19.935230,29
2021-10-21 16:21:19.935238,43
2021-10-21 16:21:19.935246,53
2021-10-21 16:21:19.935254,65
2021-10-21 16:21:19.935262,68
2021-10-21 16:21:19.935270,65
2021-10-21 16:21:19.935278,65
2021-10-21 16:21:19.935286,60
2021-10-21 16:21:19.935294,46
2021-10-21 16:21:19.935302,36
2021-10-21 16:21:20.115064,21
2021-10-21 16:21:20.115083,-4
2021-10-21 16:21:20.115093,-26
2021-10-21 16:21:20.115101,-53
2021-10-21 16:21:20.115110,-77
2021-10-21 16:21:20.115118,-90
2021-10-21 16:21:20.115127,-102
2021-10-21 16:21:20.115135,-111
2021-10-21 16:21:20.115143,-116
2021-10-21 16:21:20.115152,-116
2021-10-21 16:21:20.115160,-111
2021-10-21 16:21:20.115169,-111
2021-10-21 16:21:20.115177,-119
2021-10-21 16:21:20.115185,-109
2021-10-21 16:21:20.115194,-97
2021-10-21 16:21:20.115202,-102
2021-10-21 16:21:20.115210,-102
2021-10-21 16:21:20.115218,-90
2021-10-21 16:21:20.115226,-90
2021-10-21 16:21:20.115235,-85
2021-10-21 16:21:20.115243,-70
2021-10-21 16:21:20.115251,-68
2021-10-21 16:21:20.115260,-68
2021-10-21 16:21:20.115268,-55
2021-10-21 16:21:20.115276,-51
2021-10-21 16:21:20.115284,-53
2021-10-21 16:21:20.115293,-43
2021-10-21 16:21:20.115301,-48
2021-10-21 16:21:20.115309,-72
2021-10-21 16:21:20.115317,-82
2021-10-21 16:21:20.384447,-68
2021-10-21 16:21:20.384466,-60
2021-10-21 16:21:20.384476,-63
2021-10-21 16:21:20.384484,-58
2021-10-21 16:21:20.384493,-55
2021-10-21 16:21:20.384501,-65
2021-10-21 16:21:20.384509,-70
2021-10-21 16:21:20.384518,-55
2021-10-21 16:21:20.384526,-51
2021-10-21 16:21:20.384534,-51
2021-10-21 16:21:20.384543,-48
2021-10-21 16:21:20.384551,-53
2021-10-21 16:21:20.384559,-55
2021-10-21 16:21:20.384568,-41
2021-10-21 16:21:20.384576,-31
2021-10-21 16:21:20.384584,-36
2021-10-21 16:21:20.384593,-34
2021-10-21 16:21:20.384601,-29
2021-10-21 16:21:20.384609,-34
2021-10-21 16:21:20.384618,-31
2021-10-21 16:21:20.384626,-24
2021-10-21 16:21:20.384634,-24
2021-10-21 16:21:20.384642,-21
2021-10-21 16:21:20.384658,-14
2021-10-21 16:21:20.384667,9
2021-10-21 16:21:20.384676,31
2021-10-21 16:21:20.384684,24
2021-10-21 16:21:20.384692,9
2021-10-21 16:21:20.384701,12
2021-10-21 16:21:20.384709,12
2021-10-21 16:21:20.745134,4
2021-10-21 16:21:20.745154,9
2021-10-21 16:21:20.745164,12
2021-10-21 16:21:20.745172,4
2021-10-21 16:21:20.745181,0
2021-10-21 16:21:20.745190,-2
2021-10-21 16:21:20.745198,4
2021-10-21 16:21:20.745206,9
2021-10-21 16:21:20.745215,-4
2021-10-21 16:21:20.745223,-70
2021-10-21 16:21:20.745231,-141
2021-10-21 16:21:20.745240,-41
2021-10-21 16:21:20.745248,481
2021-10-21 16:21:20.745256,1360
2021-10-21 16:21:20.745265,1803
2021-10-21 16:21:20.745273,1036
2021-10-21 16:21:20.745281,-53
2021-10-21 16:21:20.745290,-165
2021-10-21 16:21:20.745298,82
2021-10-21 16:21:20.745306,-85
2021-10-21 16:21:20.745314,-199
2021-10-21 16:21:20.745323,-104
2021-10-21 16:21:20.745331,-109
2021-10-21 16:21:20.745339,-143
2021-10-21 16:21:20.745347,-99
2021-10-21 16:21:20.745355,-80
2021-10-21 16:21:20.745364,-94
2021-10-21 16:21:20.745372,-85
2021-10-21 16:21:20.745380,-68
2021-10-21 16:21:20.745388,-58
2021-10-21 16:21:20.835034,-41
2021-10-21 16:21:20.835052,-21
2021-10-21 16:21:20.835062,-17
2021-10-21 16:21:20.835071,-21
2021-10-21 16:21:20.835079,-19
2021-10-21 16:21:20.835088,-2
2021-10-21 16:21:20.835096,14
2021-10-21 16:21:20.835104,19
2021-10-21 16:21:20.835113,21
2021-10-21 16:21:20.835121,21
2021-10-21 16:21:20.835129,14
2021-10-21 16:21:20.835138,14
2021-10-21 16:21:20.835146,14
2021-10-21 16:21:20.835154,12
2021-10-21 16:21:20.835163,2
2021-10-21 16:21:20.835171,-29
2021-10-21 16:21:20.835179,-65
2021-10-21 16:21:20.835188,-80
2021-10-21 16:21:20.835196,-87
2021-10-21 16:21:20.835204,-104
2021-10-21 16:21:20.835212,-119
2021-10-21 16:21:20.835220,-131
2021-10-21 16:21:20.835228,-138
2021-10-21 16:21:20.835236,-131
2021-10-21 16:21:20.835245,-119
2021-10-21 16:21:20.835253,-116
2021-10-21 16:21:20.835261,-111
2021-10-21 16:21:20.835269,-104
2021-10-21 16:21:20.835277,-102
2021-10-21 16:21:20.835285,-90
2021-10-21 16:21:21.105039,-72
2021-10-21 16:21:21.105057,-65
2021-10-21 16:21:21.105067,-68
2021-10-21 16:21:21.105076,-75
2021-10-21 16:21:21.105084,-72
2021-10-21 16:21:21.105093,-55
2021-10-21 16:21:21.105101,-46
2021-10-21 16:21:21.105109,-43
2021-10-21 16:21:21.105118,-46
2021-10-21 16:21:21.105126,-55
2021-10-21 16:21:21.105134,-53
2021-10-21 16:21:21.105143,-41
2021-10-21 16:21:21.105151,-36
2021-10-21 16:21:21.105159,-36
2021-10-21 16:21:21.105168,-38
2021-10-21 16:21:21.105176,-51
2021-10-21 16:21:21.105184,-51
2021-10-21 16:21:21.105193,-38
2021-10-21 16:21:21.105201,-34
2021-10-21 16:21:21.105209,-34
2021-10-21 16:21:21.105218,-34
2021-10-21 16:21:21.105226,-38
2021-10-21 16:21:21.105234,-36
2021-10-21 16:21:21.105242,-34
2021-10-21 16:21:21.105250,-41
2021-10-21 16:21:21.105259,-36
2021-10-21 16:21:21.105267,-26
2021-10-21 16:21:21.105275,-29
2021-10-21 16:21:21.105283,-31
2021-10-21 16:21:21.105291,-17
2021-10-21 16:21:21.328677,-9
2021-10-21 16:21:21.328695,-9
2021-10-21 16:21:21.328704,-12
2021-10-21 16:21:21.328713,-9
2021-10-21 16:21:21.328722,-4
2021-10-21 16:21:21.328730,-2
2021-10-21 16:21:21.328739,2
2021-10-21 16:21:21.328747,2
2021-10-21 16:21:21.328756,0
2021-10-21 16:21:21.328765,-9
2021-10-21 16:21:21.328773,-17
2021-10-21 16:21:21.328781,4
2021-10-21 16:21:21.328789,31
2021-10-21 16:21:21.328798,19
2021-10-21 16:21:21.328806,-4
2021-10-21 16:21:21.328814,-7
2021-10-21 16:21:21.328823,0
2021-10-21 16:21:21.328831,-9
2021-10-21 16:21:21.328839,-12
2021-10-21 16:21:21.328847,-9
2021-10-21 16:21:21.328856,-19
2021-10-21 16:21:21.328864,-26
2021-10-21 16:21:21.328872,-12
2021-10-21 16:21:21.328880,-7
2021-10-21 16:21:21.328888,-9
2021-10-21 16:21:21.328897,-19
2021-10-21 16:21:21.328905,-68
2021-10-21 16:21:21.328913,-145
2021-10-21 16:21:21.328921,-116
2021-10-21 16:21:21.328929,279
2021-10-21 16:21:21.510053,1116
2021-10-21 16:21:21.510070,1817
2021-10-21 16:21:21.510080,1401
2021-10-21 16:21:21.510088,223
2021-10-21 16:21:21.510097,-211
2021-10-21 16:21:21.510105,53
2021-10-21 16:21:21.510113,-7
2021-10-21 16:21:21.510122,-199
2021-10-21 16:21:21.510130,-145
2021-10-21 16:21:21.510138,-109
2021-10-21 16:21:21.510147,-153
2021-10-21 16:21:21.510155,-128
2021-10-21 16:21:21.510163,-97
2021-10-21 16:21:21.510171,-111
2021-10-21 16:21:21.510180,-114
2021-10-21 16:21:21.510188,-92
2021-10-21 16:21:21.510196,-75
2021-10-21 16:21:21.510205,-60
2021-10-21 16:21:21.510213,-46
2021-10-21 16:21:21.510221,-43
2021-10-21 16:21:21.510229,-41
2021-10-21 16:21:21.510237,-31
2021-10-21 16:21:21.510246,-19
2021-10-21 16:21:21.510254,-14
2021-10-21 16:21:21.510262,-7
2021-10-21 16:21:21.510270,2
2021-10-21 16:21:21.510279,9
2021-10-21 16:21:21.510287,2
2021-10-21 16:21:21.510295,-2
2021-10-21 16:21:21.510303,2
2021-10-21 16:21:21.735055,4
2021-10-21 16:21:21.735072,-9
2021-10-21 16:21:21.735082,-26
2021-10-21 16:21:21.735090,-36
2021-10-21 16:21:21.735099,-48
2021-10-21 16:21:21.735107,-70
2021-10-21 16:21:21.735115,-92
2021-10-21 16:21:21.735124,-109
2021-10-21 16:21:21.735132,-114
2021-10-21 16:21:21.735141,-111
2021-10-21 16:21:21.735149,-111
2021-10-21 16:21:21.735157,-109
2021-10-21 16:21:21.735165,-111
2021-10-21 16:21:21.735174,-116
2021-10-21 16:21:21.735182,-114
2021-10-21 16:21:21.735190,-116
2021-10-21 16:21:21.735198,-114
2021-10-21 16:21:21.735207,-97
2021-10-21 16:21:21.735215,-90
2021-10-21 16:21:21.735223,-90
2021-10-21 16:21:21.735231,-77
2021-10-21 16:21:21.735240,-68
2021-10-21 16:21:21.735248,-65
2021-10-21 16:21:21.735256,-63
2021-10-21 16:21:21.735264,-53
2021-10-21 16:21:21.735272,-48
2021-10-21 16:21:21.735281,-41
2021-10-21 16:21:21.735289,-36
2021-10-21 16:21:21.735297,-36
2021-10-21 16:21:21.735305,-36
2021-10-21 16:21:21.960067,-41
2021-10-21 16:21:21.960086,-41
2021-10-21 16:21:21.960095,-34
2021-10-21 16:21:21.960104,-38
2021-10-21 16:21:21.960113,-36
2021-10-21 16:21:21.960121,-34
2021-10-21 16:21:21.960129,-46
2021-10-21 16:21:21.960137,-51
2021-10-21 16:21:21.960146,-43
2021-10-21 16:21:21.960154,-38
2021-10-21 16:21:21.960162,-36
2021-10-21 16:21:21.960171,-38
2021-10-21 16:21:21.960179,-43
2021-10-21 16:21:21.960187,-41
2021-10-21 16:21:21.960195,-34
2021-10-21 16:21:21.960203,-34
2021-10-21 16:21:21.960211,-29
2021-10-21 16:21:21.960220,-19
2021-10-21 16:21:21.960228,-19
2021-10-21 16:21:21.960236,-14
2021-10-21 16:21:21.960244,-7
2021-10-21 16:21:21.960252,-9
2021-10-21 16:21:21.960261,-4
2021-10-21 16:21:21.960269,-2
2021-10-21 16:21:21.960277,-2
2021-10-21 16:21:21.960285,12
2021-10-21 16:21:21.960293,36
2021-10-21 16:21:21.960301,46
2021-10-21 16:21:21.960310,36
2021-10-21 16:21:21.960318,29
2021-10-21 16:21:22.185064,29
2021-10-21 16:21:22.185082,21
2021-10-21 16:21:22.185092,2
2021-10-21 16:21:22.185100,0
2021-10-21 16:21:22.185109,4
2021-10-21 16:21:22.185117,-7
2021-10-21 16:21:22.185125,-14
2021-10-21 16:21:22.185134,-2
2021-10-21 16:21:22.185142,4
2021-10-21 16:21:22.185150,-2
2021-10-21 16:21:22.185158,-24
2021-10-21 16:21:22.185167,-90
2021-10-21 16:21:22.185175,-150
2021-10-21 16:21:22.185183,2
2021-10-21 16:21:22.185192,581
2021-10-21 16:21:22.185200,1423
2021-10-21 16:21:22.185208,1710
2021-10-21 16:21:22.185217,863
2021-10-21 16:21:22.185225,-85
2021-10-21 16:21:22.185233,-107
2021-10-21 16:21:22.185241,53
2021-10-21 16:21:22.185249,-136
2021-10-21 16:21:22.185258,-194
2021-10-21 16:21:22.185266,-107
2021-10-21 16:21:22.185274,-124
2021-10-21 16:21:22.185282,-141
2021-10-21 16:21:22.185290,-102
2021-10-21 16:21:22.185299,-97
2021-10-21 16:21:22.185307,-107
2021-10-21 16:21:22.185315,-85
2021-10-21 16:21:22.410142,-68
2021-10-21 16:21:22.410162,-63
2021-10-21 16:21:22.410172,-46
2021-10-21 16:21:22.410180,-38
2021-10-21 16:21:22.410189,-51
2021-10-21 16:21:22.410197,-53
2021-10-21 16:21:22.410205,-31
2021-10-21 16:21:22.410214,-17
2021-10-21 16:21:22.410222,-19
2021-10-21 16:21:22.410230,-19
2021-10-21 16:21:22.410238,-19
2021-10-21 16:21:22.410247,-26
2021-10-21 16:21:22.410255,-26
2021-10-21 16:21:22.410263,-19
2021-10-21 16:21:22.410271,-21
2021-10-21 16:21:22.410279,-29
2021-10-21 16:21:22.410287,-41
2021-10-21 16:21:22.410301,-53
2021-10-21 16:21:22.410310,-63
2021-10-21 16:21:22.410319,-77
2021-10-21 16:21:22.410327,-94
2021-10-21 16:21:22.410335,-109
2021-10-21 16:21:22.410344,-116
2021-10-21 16:21:22.410352,-119
2021-10-21 16:21:22.410360,-116
2021-10-21 16:21:22.410368,-114
2021-10-21 16:21:22.410377,-109
2021-10-21 16:21:22.410385,-107
2021-10-21 16:21:22.410393,-99
2021-10-21 16:21:22.410401,-90
2021-10-21 16:21:22.635088,-77
2021-10-21 16:21:22.635107,-68
2021-10-21 16:21:22.635116,-63
2021-10-21 16:21:22.635125,-65
2021-10-21 16:21:22.635133,-72
2021-10-21 16:21:22.635142,-75
2021-10-21 16:21:22.635150,-72
2021-10-21 16:21:22.635158,-70
2021-10-21 16:21:22.635167,-60
2021-10-21 16:21:22.635175,-65
2021-10-21 16:21:22.635183,-72
2021-10-21 16:21:22.635191,-65
2021-10-21 16:21:22.635200,-55
2021-10-21 16:21:22.635208,-53
2021-10-21 16:21:22.635216,-51
2021-10-21 16:21:22.635224,-51
2021-10-21 16:21:22.635233,-53
2021-10-21 16:21:22.635241,-46
2021-10-21 16:21:22.635249,-38
2021-10-21 16:21:22.635257,-36
2021-10-21 16:21:22.635266,-36
2021-10-21 16:21:22.635274,-38
2021-10-21 16:21:22.635282,-36
2021-10-21 16:21:22.635291,-31
2021-10-21 16:21:22.635299,-29
2021-10-21 16:21:22.635307,-34
2021-10-21 16:21:22.635315,-48
2021-10-21 16:21:22.635324,-60
2021-10-21 16:21:22.635332,-53
2021-10-21 16:21:22.635340,-31
2021-10-21 16:21:22.949460,-7
2021-10-21 16:21:22.949478,4
2021-10-21 16:21:22.949488,-4
2021-10-21 16:21:22.949496,-26
2021-10-21 16:21:22.949505,-29
2021-10-21 16:21:22.949513,-26
2021-10-21 16:21:22.949522,-34
2021-10-21 16:21:22.949530,-38
2021-10-21 16:21:22.949538,-46
2021-10-21 16:21:22.949547,-55
2021-10-21 16:21:22.949555,-53
2021-10-21 16:21:22.949564,-43
2021-10-21 16:21:22.949572,-38
2021-10-21 16:21:22.949580,-41
2021-10-21 16:21:22.949589,-68
2021-10-21 16:21:22.949597,-141
2021-10-21 16:21:22.949605,-165
2021-10-21 16:21:22.949613,92
2021-10-21 16:21:22.949622,781
2021-10-21 16:21:22.949630,1562
2021-10-21 16:21:22.949638,1496
2021-10-21 16:21:22.949646,416
2021-10-21 16:21:22.949655,-260
2021-10-21 16:21:22.949663,-29
2021-10-21 16:21:22.949671,48
2021-10-21 16:21:22.949680,-165
2021-10-21 16:21:22.949688,-141
2021-10-21 16:21:22.949696,-68
2021-10-21 16:21:22.949704,-107
2021-10-21 16:21:22.949713,-104
2021-10-21 16:21:23.130084,-60
2021-10-21 16:21:23.130103,-55
2021-10-21 16:21:23.130112,-58
2021-10-21 16:21:23.130121,-46
2021-10-21 16:21:23.130130,-31
2021-10-21 16:21:23.130138,-14
2021-10-21 16:21:23.130147,2
2021-10-21 16:21:23.130155,12
2021-10-21 16:21:23.130163,14
2021-10-21 16:21:23.130172,12
2021-10-21 16:21:23.130180,19
2021-10-21 16:21:23.130188,29
2021-10-21 16:21:23.130197,41
2021-10-21 16:21:23.130205,51
2021-10-21 16:21:23.130213,38
2021-10-21 16:21:23.130222,34
2021-10-21 16:21:23.130230,53
2021-10-21 16:21:23.130239,53
2021-10-21 16:21:23.130247,31
2021-10-21 16:21:23.130255,14
2021-10-21 16:21:23.130263,-2
2021-10-21 16:21:23.130271,-31
2021-10-21 16:21:23.130280,-53
2021-10-21 16:21:23.130288,-68
2021-10-21 16:21:23.130296,-90
2021-10-21 16:21:23.130304,-116
2021-10-21 16:21:23.130313,-128
2021-10-21 16:21:23.130321,-131
2021-10-21 16:21:23.130329,-126
2021-10-21 16:21:23.130338,-119
2021-10-21 16:21:23.398716,-114
2021-10-21 16:21:23.398734,-107
2021-10-21 16:21:23.398743,-111
2021-10-21 16:21:23.398752,-121
2021-10-21 16:21:23.398761,-111
2021-10-21 16:21:23.398769,-94
2021-10-21 16:21:23.398777,-85
2021-10-21 16:21:23.398785,-77
2021-10-21 16:21:23.398794,-82
2021-10-21 16:21:23.398802,-82
2021-10-21 16:21:23.398810,-65
2021-10-21 16:21:23.398819,-60
2021-10-21 16:21:23.398827,-70
2021-10-21 16:21:23.398835,-80
2021-10-21 16:21:23.398843,-80
2021-10-21 16:21:23.398851,-75
2021-10-21 16:21:23.398860,-72
2021-10-21 16:21:23.398868,-55
2021-10-21 16:21:23.398876,-41
2021-10-21 16:21:23.398885,-53
2021-10-21 16:21:23.398893,-63
2021-10-21 16:21:23.398901,-55
2021-10-21 16:21:23.398909,-36
2021-10-21 16:21:23.398917,-38
2021-10-21 16:21:23.398926,-48
2021-10-21 16:21:23.398934,-26
2021-10-21 16:21:23.398942,4
2021-10-21 16:21:23.398950,0
2021-10-21 16:21:23.398958,-14
2021-10-21 16:21:23.398967,-2
2021-10-21 16:21:23.625084,7
2021-10-21 16:21:23.625102,-14
2021-10-21 16:21:23.625112,-24
2021-10-21 16:21:23.625121,-9
2021-10-21 16:21:23.625129,-2
2021-10-21 16:21:23.625137,7
2021-10-21 16:21:23.625146,7
2021-10-21 16:21:23.625154,-7
2021-10-21 16:21:23.625162,-7
2021-10-21 16:21:23.625171,-12
2021-10-21 16:21:23.625179,-63
2021-10-21 16:21:23.625187,-126
2021-10-21 16:21:23.625196,-17
2021-10-21 16:21:23.625204,476
2021-10-21 16:21:23.625212,1233
2021-10-21 16:21:23.625221,1479
2021-10-21 16:21:23.625229,605
2021-10-21 16:21:23.625237,-306
2021-10-21 16:21:23.625245,-155
2021-10-21 16:21:23.625254,124
2021-10-21 16:21:23.625262,-72
2021-10-21 16:21:23.625270,-121
2021-10-21 16:21:23.625278,-12
2021-10-21 16:21:23.625287,-38
2021-10-21 16:21:23.625295,-53
2021-10-21 16:21:23.625303,-4
2021-10-21 16:21:23.625311,2
2021-10-21 16:21:23.625319,4
2021-10-21 16:21:23.625328,34
2021-10-21 16:21:23.625336,48
2021-10-21 16:21:23.805077,48
2021-10-21 16:21:23.805095,63
2021-10-21 16:21:23.805104,90
2021-10-21 16:21:23.805113,104
2021-10-21 16:21:23.805122,111
2021-10-21 16:21:23.805130,124
2021-10-21 16:21:23.805139,141
2021-10-21 16:21:23.805147,150
2021-10-21 16:21:23.805155,148
2021-10-21 16:21:23.805163,148
2021-10-21 16:21:23.805172,160
2021-10-21 16:21:23.805180,163
2021-10-21 16:21:23.805188,138
2021-10-21 16:21:23.805196,119
2021-10-21 16:21:23.805204,114
2021-10-21 16:21:23.805213,80
2021-10-21 16:21:23.805221,14
2021-10-21 16:21:23.805229,-24
2021-10-21 16:21:23.805237,-43
2021-10-21 16:21:23.805245,-75
2021-10-21 16:21:23.805254,-92
2021-10-21 16:21:23.805262,-92
2021-10-21 16:21:23.805270,-104
2021-10-21 16:21:23.805278,-111
2021-10-21 16:21:23.805286,-107
2021-10-21 16:21:23.805294,-109
2021-10-21 16:21:23.805303,-107
2021-10-21 16:21:23.805311,-94
2021-10-21 16:21:23.805319,-90
2021-10-21 16:21:23.805327,-82
2021-10-21 16:21:24.030032,-65
2021-10-21 16:21:24.030051,-51
2021-10-21 16:21:24.030060,-46
2021-10-21 16:21:24.030069,-38
2021-10-21 16:21:24.030077,-21
2021-10-21 16:21:24.030085,-21
2021-10-21 16:21:24.030094,-48
2021-10-21 16:21:24.030102,-53
2021-10-21 16:21:24.030111,-36
2021-10-21 16:21:24.030119,-46
2021-10-21 16:21:24.030128,-55
2021-10-21 16:21:24.030136,-51
2021-10-21 16:21:24.030144,-60
2021-10-21 16:21:24.030153,-65
2021-10-21 16:21:24.030161,-58
2021-10-21 16:21:24.030169,-55
2021-10-21 16:21:24.030178,-43
2021-10-21 16:21:24.030186,-31
2021-10-21 16:21:24.030194,-46
2021-10-21 16:21:24.030203,-65
2021-10-21 16:21:24.030211,-63
2021-10-21 16:21:24.030219,-65
2021-10-21 16:21:24.030228,-72
2021-10-21 16:21:24.030236,-75
2021-10-21 16:21:24.030244,-72
2021-10-21 16:21:24.030253,-60
2021-10-21 16:21:24.030261,-48
2021-10-21 16:21:24.030269,-53
2021-10-21 16:21:24.030278,-53
2021-10-21 16:21:24.030286,-55
2021-10-21 16:21:24.255079,-104
2021-10-21 16:21:24.255097,-180
2021-10-21 16:21:24.255107,-87
2021-10-21 16:21:24.255115,374
2021-10-21 16:21:24.255124,1094
2021-10-21 16:21:24.255132,1413
2021-10-21 16:21:24.255141,698
2021-10-21 16:21:24.255149,-216
2021-10-21 16:21:24.255157,-192
2021-10-21 16:21:24.255166,77
2021-10-21 16:21:24.255174,-92
2021-10-21 16:21:24.255182,-184
2021-10-21 16:21:24.255191,-77
2021-10-21 16:21:24.255199,-80
2021-10-21 16:21:24.255207,-126
2021-10-21 16:21:24.255216,-104
2021-10-21 16:21:24.255224,-87
2021-10-21 16:21:24.255232,-82
2021-10-21 16:21:24.255241,-60
2021-10-21 16:21:24.255249,-41
2021-10-21 16:21:24.255257,-48
2021-10-21 16:21:24.255266,-51
2021-10-21 16:21:24.255274,-29
2021-10-21 16:21:24.255282,-9
2021-10-21 16:21:24.255290,-4
2021-10-21 16:21:24.255299,7
2021-10-21 16:21:24.255307,29
2021-10-21 16:21:24.255315,31
2021-10-21 16:21:24.255323,29
2021-10-21 16:21:24.255332,38
2021-10-21 16:21:24.480106,38
2021-10-21 16:21:24.480125,34
2021-10-21 16:21:24.480134,41
2021-10-21 16:21:24.480143,31
2021-10-21 16:21:24.480152,12
2021-10-21 16:21:24.480160,2
2021-10-21 16:21:24.480168,-7
2021-10-21 16:21:24.480177,-26
2021-10-21 16:21:24.480185,-41
2021-10-21 16:21:24.480193,-58
2021-10-21 16:21:24.480202,-72
2021-10-21 16:21:24.480210,-75
2021-10-21 16:21:24.480218,-70
2021-10-21 16:21:24.480227,-72
2021-10-21 16:21:24.480235,-80
2021-10-21 16:21:24.480243,-75
2021-10-21 16:21:24.480252,-68
2021-10-21 16:21:24.480260,-63
2021-10-21 16:21:24.480268,-48
2021-10-21 16:21:24.480276,-38
2021-10-21 16:21:24.480285,-41
2021-10-21 16:21:24.480293,-36
2021-10-21 16:21:24.480301,-26
2021-10-21 16:21:24.480309,-29
2021-10-21 16:21:24.480318,-21
2021-10-21 16:21:24.480326,-7
2021-10-21 16:21:24.480334,-7
2021-10-21 16:21:24.480342,-9
2021-10-21 16:21:24.480351,-4
2021-10-21 16:21:24.480359,0
2021-10-21 16:21:24.750097,-2
2021-10-21 16:21:24.750115,-9
2021-10-21 16:21:24.750125,-12
2021-10-21 16:21:24.750133,-17
2021-10-21 16:21:24.750142,-12
2021-10-21 16:21:24.750150,2
2021-10-21 16:21:24.750159,9
2021-10-21 16:21:24.750167,4
2021-10-21 16:21:24.750176,-9
2021-10-21 16:21:24.750184,-17
2021-10-21 16:21:24.750192,-24
2021-10-21 16:21:24.750201,-38
2021-10-21 16:21:24.750209,-43
2021-10-21 16:21:24.750217,-34
2021-10-21 16:21:24.750231,-38
2021-10-21 16:21:24.750240,-55
2021-10-21 16:21:24.750248,-43
2021-10-21 16:21:24.750257,-21
2021-10-21 16:21:24.750265,-26
2021-10-21 16:21:24.750273,-63
2021-10-21 16:21:24.750282,-126
2021-10-21 16:21:24.750290,-148
2021-10-21 16:21:24.750298,97
2021-10-21 16:21:24.750306,727
2021-10-21 16:21:24.750314,1323
2021-10-21 16:21:24.750323,1070
2021-10-21 16:21:24.750331,104
2021-10-21 16:21:24.750339,-311
2021-10-21 16:21:24.750347,-53
2021-10-21 16:21:24.750355,-55
2021-10-21 16:21:24.975090,-221
2021-10-21 16:21:24.975111,-160
2021-10-21 16:21:24.975121,-124
2021-10-21 16:21:24.975130,-182
2021-10-21 16:21:24.975138,-158
2021-10-21 16:21:24.975147,-114
2021-10-21 16:21:24.975155,-121
2021-10-21 16:21:24.975164,-119
2021-10-21 16:21:24.975172,-116
2021-10-21 16:21:24.975180,-126
2021-10-21 16:21:24.975188,-109
2021-10-21 16:21:24.975196,-87
2021-10-21 16:21:24.975205,-82
2021-10-21 16:21:24.975213,-77
2021-10-21 16:21:24.975221,-87
2021-10-21 16:21:24.975229,-97
2021-10-21 16:21:24.975238,-90
2021-10-21 16:21:24.975246,-80
2021-10-21 16:21:24.975254,-77
2021-10-21 16:21:24.975262,-77
2021-10-21 16:21:24.975270,-82
2021-10-21 16:21:24.975278,-87
2021-10-21 16:21:24.975286,-77
2021-10-21 16:21:24.975294,-65
2021-10-21 16:21:24.975303,-55
2021-10-21 16:21:24.975311,-48
2021-10-21 16:21:24.975319,-51
2021-10-21 16:21:24.975327,-60
2021-10-21 16:21:24.975336,-53
2021-10-21 16:21:24.975344,-43
2021-10-21 16:21:25.202181,-48
2021-10-21 16:21:25.202200,-53
2021-10-21 16:21:25.202209,-51
2021-10-21 16:21:25.202218,-46
2021-10-21 16:21:25.202227,-43
2021-10-21 16:21:25.202235,-34
2021-10-21 16:21:25.202243,-26
2021-10-21 16:21:25.202252,-31
2021-10-21 16:21:25.202260,-38
2021-10-21 16:21:25.202268,-36
2021-10-21 16:21:25.202277,-24
2021-10-21 16:21:25.202285,-19
2021-10-21 16:21:25.202293,-17
2021-10-21 16:21:25.202302,-21
2021-10-21 16:21:25.202310,-31
2021-10-21 16:21:25.202318,-31
2021-10-21 16:21:25.202327,-24
2021-10-21 16:21:25.202335,-17
2021-10-21 16:21:25.202343,-14
2021-10-21 16:21:25.202352,-14
2021-10-21 16:21:25.202360,-12
2021-10-21 16:21:25.202368,-14
2021-10-21 16:21:25.202376,-17
2021-10-21 16:21:25.202385,-7
2021-10-21 16:21:25.202393,0
2021-10-21 16:21:25.202401,-9
2021-10-21 16:21:25.202409,-36
2021-10-21 16:21:25.202417,-43
2021-10-21 16:21:25.202426,-36
2021-10-21 16:21:25.202434,-31
2021-10-21 16:21:25.468781,-14
2021-10-21 16:21:25.468800,-7
2021-10-21 16:21:25.468809,-19
2021-10-21 16:21:25.468818,-29
2021-10-21 16:21:25.468826,-19
2021-10-21 16:21:25.468835,-7
2021-10-21 16:21:25.468843,-24
2021-10-21 16:21:25.468851,-46
2021-10-21 16:21:25.468860,-38
2021-10-21 16:21:25.468868,-19
2021-10-21 16:21:25.468876,-21
2021-10-21 16:21:25.468884,-31
2021-10-21 16:21:25.468893,-36
2021-10-21 16:21:25.468901,-36
2021-10-21 16:21:25.468909,-58
2021-10-21 16:21:25.468918,-99
2021-10-21 16:21:25.468926,-124
2021-10-21 16:21:25.468934,19
2021-10-21 16:21:25.468943,479
2021-10-21 16:21:25.468951,1060
2021-10-21 16:21:25.468959,1082
2021-10-21 16:21:25.468968,323
2021-10-21 16:21:25.468976,-214
2021-10-21 16:21:25.468984,-41
2021-10-21 16:21:25.468993,46
2021-10-21 16:21:25.469001,-119
2021-10-21 16:21:25.469009,-111
2021-10-21 16:21:25.469017,-51
2021-10-21 16:21:25.469026,-87
2021-10-21 16:21:25.469034,-90
2021-10-21 16:21:25.695099,-58
2021-10-21 16:21:25.695118,-63
2021-10-21 16:21:25.695128,-72
2021-10-21 16:21:25.695136,-60
2021-10-21 16:21:25.695145,-48
2021-10-21 16:21:25.695153,-43
2021-10-21 16:21:25.695162,-46
2021-10-21 16:21:25.695170,-55
2021-10-21 16:21:25.695178,-60
2021-10-21 16:21:25.695187,-58
2021-10-21 16:21:25.695195,-58
2021-10-21 16:21:25.695204,-72
2021-10-21 16:21:25.695212,-90
2021-10-21 16:21:25.695220,-87
2021-10-21 16:21:25.695229,-92
2021-10-21 16:21:25.695237,-102
2021-10-21 16:21:25.695245,-102
2021-10-21 16:21:25.695254,-109
2021-10-21 16:21:25.695262,-111
2021-10-21 16:21:25.695271,-92
2021-10-21 16:21:25.695279,-65
2021-10-21 16:21:25.695287,-41
2021-10-21 16:21:25.695295,-34
2021-10-21 16:21:25.695304,-43
2021-10-21 16:21:25.695312,-41
2021-10-21 16:21:25.695320,-29
2021-10-21 16:21:25.695328,-31
2021-10-21 16:21:25.695337,-31
2021-10-21 16:21:25.695345,-14
2021-10-21 16:21:25.695353,-9
2021-10-21 16:21:25.920117,-21
2021-10-21 16:21:25.920135,-31
2021-10-21 16:21:25.920144,-48
2021-10-21 16:21:25.920153,-60
2021-10-21 16:21:25.920161,-41
2021-10-21 16:21:25.920170,-29
2021-10-21 16:21:25.920178,-51
2021-10-21 16:21:25.920186,-51
2021-10-21 16:21:25.920194,-24
2021-10-21 16:21:25.920203,-24
2021-10-21 16:21:25.920211,-38
2021-10-21 16:21:25.920219,-29
2021-10-21 16:21:25.920227,-14
2021-10-21 16:21:25.920235,-12
2021-10-21 16:21:25.920244,-9
2021-10-21 16:21:25.920252,-2
2021-10-21 16:21:25.920260,2
2021-10-21 16:21:25.920269,-9
2021-10-21 16:21:25.920277,-26
2021-10-21 16:21:25.920285,-19
2021-10-21 16:21:25.920294,2
2021-10-21 16:21:25.920302,-2
2021-10-21 16:21:25.920310,-21
2021-10-21 16:21:25.920318,-24
2021-10-21 16:21:25.920326,-12
2021-10-21 16:21:25.920335,-4
2021-10-21 16:21:25.920343,-7
2021-10-21 16:21:25.920351,-12
2021-10-21 16:21:25.920359,-7
2021-10-21 16:21:25.920367,9
2021-10-21 16:21:26.100112,21
2021-10-21 16:21:26.100131,24
2021-10-21 16:21:26.100140,12
2021-10-21 16:21:26.100149,2
2021-10-21 16:21:26.100158,0
2021-10-21 16:21:26.100166,7
2021-10-21 16:21:26.100174,17
2021-10-21 16:21:26.100183,7
2021-10-21 16:21:26.100191,-2
2021-10-21 16:21:26.100199,-2
2021-10-21 16:21:26.100208,-7
2021-10-21 16:21:26.100216,2
2021-10-21 16:21:26.100224,0
2021-10-21 16:21:26.100233,-21
2021-10-21 16:21:26.100241,-38
2021-10-21 16:21:26.100249,-53
2021-10-21 16:21:26.100258,34
2021-10-21 16:21:26.100266,401
2021-10-21 16:21:26.100274,900
2021-10-21 16:21:26.100283,946
2021-10-21 16:21:26.100291,311
2021-10-21 16:21:26.100299,-187
2021-10-21 16:21:26.100307,-38
2021-10-21 16:21:26.100316,90
2021-10-21 16:21:26.100324,-43
2021-10-21 16:21:26.100332,-65
2021-10-21 16:21:26.100341,-19
2021-10-21 16:21:26.100349,-26
2021-10-21 16:21:26.100358,-21
2021-10-21 16:21:26.100366,-2
2021-10-21 16:21:26.325134,-17
2021-10-21 16:21:26.325153,-26
2021-10-21 16:21:26.325162,-17
2021-10-21 16:21:26.325171,-24
2021-10-21 16:21:26.325179,-26
2021-10-21 16:21:26.325188,-2
2021-10-21 16:21:26.325196,-14
2021-10-21 16:21:26.325204,-55
2021-10-21 16:21:26.325212,-48
2021-10-21 16:21:26.325221,-26
2021-10-21 16:21:26.325229,-48
2021-10-21 16:21:26.325237,-75
2021-10-21 16:21:26.325246,-82
2021-10-21 16:21:26.325254,-82
2021-10-21 16:21:26.325262,-82
2021-10-21 16:21:26.325270,-85
2021-10-21 16:21:26.325279,-92
2021-10-21 16:21:26.325287,-94
2021-10-21 16:21:26.325296,-85
2021-10-21 16:21:26.325304,-53
2021-10-21 16:21:26.325312,-38
2021-10-21 16:21:26.325320,-58
2021-10-21 16:21:26.325329,-63
2021-10-21 16:21:26.325337,-46
2021-10-21 16:21:26.325345,-55
2021-10-21 16:21:26.325353,-75
2021-10-21 16:21:26.325362,-72
2021-10-21 16:21:26.325370,-72
2021-10-21 16:21:26.325378,-70
2021-10-21 16:21:26.325386,-68
2021-10-21 16:21:26.595159,-63
2021-10-21 16:21:26.595177,-51
2021-10-21 16:21:26.595187,-48
2021-10-21 16:21:26.595195,-63
2021-10-21 16:21:26.595204,-65
2021-10-21 16:21:26.595212,-41
2021-10-21 16:21:26.595220,-36
2021-10-21 16:21:26.595229,-53
2021-10-21 16:21:26.595237,-63
2021-10-21 16:21:26.595245,-53
2021-10-21 16:21:26.595253,-48
2021-10-21 16:21:26.595262,-63
2021-10-21 16:21:26.595270,-58
2021-10-21 16:21:26.595278,-31
2021-10-21 16:21:26.595286,-36
2021-10-21 16:21:26.595295,-63
2021-10-21 16:21:26.595303,-55
2021-10-21 16:21:26.595311,-31
2021-10-21 16:21:26.595320,-36
2021-10-21 16:21:26.595328,-38
2021-10-21 16:21:26.595336,-24
2021-10-21 16:21:26.595344,-24
2021-10-21 16:21:26.595353,-34
2021-10-21 16:21:26.595361,-38
2021-10-21 16:21:26.595369,-26
2021-10-21 16:21:26.595377,2
2021-10-21 16:21:26.595385,12
2021-10-21 16:21:26.595393,4
2021-10-21 16:21:26.595402,0
2021-10-21 16:21:26.595410,-14
2021-10-21 16:21:26.820121,-14
2021-10-21 16:21:26.820139,14
2021-10-21 16:21:26.820148,24
2021-10-21 16:21:26.820157,19
2021-10-21 16:21:26.820165,29
2021-10-21 16:21:26.820173,12
2021-10-21 16:21:26.820182,-21
2021-10-21 16:21:26.820190,-19
2021-10-21 16:21:26.820198,-7
2021-10-21 16:21:26.820206,-19
2021-10-21 16:21:26.820214,-17
2021-10-21 16:21:26.820222,-31
2021-10-21 16:21:26.820230,-94
2021-10-21 16:21:26.820238,-2
2021-10-21 16:21:26.820246,413
2021-10-21 16:21:26.820255,936
2021-10-21 16:21:26.820263,978
2021-10-21 16:21:26.820271,284
2021-10-21 16:21:26.820279,-245
2021-10-21 16:21:26.820287,-51
2021-10-21 16:21:26.820295,68
2021-10-21 16:21:26.820303,-87
2021-10-21 16:21:26.820311,-55
2021-10-21 16:21:26.820319,-2
2021-10-21 16:21:26.820327,-63
2021-10-21 16:21:26.820335,-53
2021-10-21 16:21:26.820344,-38
2021-10-21 16:21:26.820352,-75
2021-10-21 16:21:26.820360,-29
2021-10-21 16:21:26.820368,26
2021-10-21 16:21:27.045099,-21
2021-10-21 16:21:27.045118,-38
2021-10-21 16:21:27.045127,17
2021-10-21 16:21:27.045136,31
2021-10-21 16:21:27.045145,19
2021-10-21 16:21:27.045153,17
2021-10-21 16:21:27.045161,26
2021-10-21 16:21:27.045170,29
2021-10-21 16:21:27.045178,-12
2021-10-21 16:21:27.045186,-41
2021-10-21 16:21:27.045194,-17
2021-10-21 16:21:27.045203,-29
2021-10-21 16:21:27.045211,-31
2021-10-21 16:21:27.045219,-9
2021-10-21 16:21:27.045228,-31
2021-10-21 16:21:27.045236,-29
2021-10-21 16:21:27.045244,14
2021-10-21 16:21:27.045253,26
2021-10-21 16:21:27.045261,-4
2021-10-21 16:21:27.045269,-24
2021-10-21 16:21:27.045278,-17
2021-10-21 16:21:27.045286,-34
2021-10-21 16:21:27.045294,-70
2021-10-21 16:21:27.045302,-65
2021-10-21 16:21:27.045311,-26
2021-10-21 16:21:27.045319,-12
2021-10-21 16:21:27.045327,0
2021-10-21 16:21:27.045336,21
2021-10-21 16:21:27.045344,2
2021-10-21 16:21:27.045352,-21
2021-10-21 16:21:27.315127,-9
2021-10-21 16:21:27.315145,-9
2021-10-21 16:21:27.315154,-26
2021-10-21 16:21:27.315163,-4
2021-10-21 16:21:27.315171,24
2021-10-21 16:21:27.315180,7
2021-10-21 16:21:27.315188,-2
2021-10-21 16:21:27.315197,0
2021-10-21 16:21:27.315205,-29
2021-10-21 16:21:27.315213,-43
2021-10-21 16:21:27.315221,-12
2021-10-21 16:21:27.315230,-14
2021-10-21 16:21:27.315238,-34
2021-10-21 16:21:27.315246,-29
2021-10-21 16:21:27.315255,-36
2021-10-21 16:21:27.315263,-48
2021-10-21 16:21:27.315271,-17
2021-10-21 16:21:27.315279,7
2021-10-21 16:21:27.315287,-9
2021-10-21 16:21:27.315305,-29
2021-10-21 16:21:27.315314,-41
2021-10-21 16:21:27.315322,-43
2021-10-21 16:21:27.315330,4
2021-10-21 16:21:27.315338,51
2021-10-21 16:21:27.315346,12
2021-10-21 16:21:27.315355,-29
2021-10-21 16:21:27.315363,-19
2021-10-21 16:21:27.315371,-34
2021-10-21 16:21:27.315379,-48
2021-10-21 16:21:27.315387,-7
2021-10-21 16:21:27.538769,-12
2021-10-21 16:21:27.538787,-41
2021-10-21 16:21:27.538797,-4
2021-10-21 16:21:27.538805,21
2021-10-21 16:21:27.538814,-4
2021-10-21 16:21:27.538822,-36
2021-10-21 16:21:27.538830,-75
2021-10-21 16:21:27.538839,58
2021-10-21 16:21:27.538847,571
2021-10-21 16:21:27.538855,1141
2021-10-21 16:21:27.538863,1043
2021-10-21 16:21:27.538872,206
2021-10-21 16:21:27.538880,-238
2021-10-21 16:21:27.538888,51
2021-10-21 16:21:27.538896,92
2021-10-21 16:21:27.538904,-102
2021-10-21 16:21:27.538913,-34
2021-10-21 16:21:27.538921,2
2021-10-21 16:21:27.538929,-92
2021-10-21 16:21:27.538937,-77
2021-10-21 16:21:27.538945,-7
2021-10-21 16:21:27.538954,-36
2021-10-21 16:21:27.538962,-53
2021-10-21 16:21:27.538970,24
2021-10-21 16:21:27.538978,46
2021-10-21 16:21:27.538987,14
2021-10-21 16:21:27.538995,29
2021-10-21 16:21:27.539003,36
2021-10-21 16:21:27.539012,29
2021-10-21 16:21:27.539020,19
2021-10-21 16:21:27.765306,7
2021-10-21 16:21:27.765327,17
2021-10-21 16:21:27.765337,21
2021-10-21 16:21:27.765345,4
2021-10-21 16:21:27.765354,-12
2021-10-21 16:21:27.765362,-19
2021-10-21 16:21:27.765371,-9
2021-10-21 16:21:27.765379,9
2021-10-21 16:21:27.765387,31
2021-10-21 16:21:27.765395,60
2021-10-21 16:21:27.765404,63
2021-10-21 16:21:27.765412,38
2021-10-21 16:21:27.765420,38
2021-10-21 16:21:27.765428,48
2021-10-21 16:21:27.765436,21
2021-10-21 16:21:27.765445,9
2021-10-21 16:21:27.765453,21
2021-10-21 16:21:27.765461,0
2021-10-21 16:21:27.765469,-24
2021-10-21 16:21:27.765478,-21
2021-10-21 16:21:27.765486,-19
2021-10-21 16:21:27.765494,-4
2021-10-21 16:21:27.765502,0
2021-10-21 16:21:27.765511,0
2021-10-21 16:21:27.765519,12
2021-10-21 16:21:27.765527,4
2021-10-21 16:21:27.765535,-9
2021-10-21 16:21:27.765543,14
2021-10-21 16:21:27.765551,26
2021-10-21 16:21:27.765560,2
2021-10-21 16:21:27.945158,9
2021-10-21 16:21:27.945177,46
2021-10-21 16:21:27.945186,29
2021-10-21 16:21:27.945195,-17
2021-10-21 16:21:27.945203,0
2021-10-21 16:21:27.945212,26
2021-10-21 16:21:27.945220,-9
2021-10-21 16:21:27.945228,-19
2021-10-21 16:21:27.945236,12
2021-10-21 16:21:27.945245,7
2021-10-21 16:21:27.945253,-2
2021-10-21 16:21:27.945261,12
2021-10-21 16:21:27.945270,21
2021-10-21 16:21:27.945278,36
2021-10-21 16:21:27.945286,31
2021-10-21 16:21:27.945295,-4
2021-10-21 16:21:27.945303,-21
2021-10-21 16:21:27.945311,-14
2021-10-21 16:21:27.945319,-17
2021-10-21 16:21:27.945327,-14
2021-10-21 16:21:27.945336,-4
2021-10-21 16:21:27.945344,-7
2021-10-21 16:21:27.945352,-19
2021-10-21 16:21:27.945360,-34
2021-10-21 16:21:27.945369,-46
2021-10-21 16:21:27.945377,-80
2021-10-21 16:21:27.945385,-133
2021-10-21 16:21:27.945393,-19
2021-10-21 16:21:27.945402,491
2021-10-21 16:21:27.945410,1163
2021-10-21 16:21:28.170131,1214
2021-10-21 16:21:28.170149,357
2021-10-21 16:21:28.170159,-284
2021-10-21 16:21:28.170167,-82
2021-10-21 16:21:28.170176,60
2021-10-21 16:21:28.170185,-128
2021-10-21 16:21:28.170193,-138
2021-10-21 16:21:28.170201,-65
2021-10-21 16:21:28.170210,-111
2021-10-21 16:21:28.170218,-131
2021-10-21 16:21:28.170226,-99
2021-10-21 16:21:28.170235,-85
2021-10-21 16:21:28.170243,-60
2021-10-21 16:21:28.170251,-46
2021-10-21 16:21:28.170260,-60
2021-10-21 16:21:28.170268,-58
2021-10-21 16:21:28.170276,-48
2021-10-21 16:21:28.170284,-43
2021-10-21 16:21:28.170293,-31
2021-10-21 16:21:28.170301,-31
2021-10-21 16:21:28.170309,-26
2021-10-21 16:21:28.170317,-26
2021-10-21 16:21:28.170325,-43
2021-10-21 16:21:28.170334,-55
2021-10-21 16:21:28.170342,-48
2021-10-21 16:21:28.170350,-43
2021-10-21 16:21:28.170358,-65
2021-10-21 16:21:28.170367,-75
2021-10-21 16:21:28.170375,-63
2021-10-21 16:21:28.170383,-63
2021-10-21 16:21:28.484592,-70
2021-10-21 16:21:28.484611,-70
2021-10-21 16:21:28.484621,-75
2021-10-21 16:21:28.484629,-109
2021-10-21 16:21:28.484638,-141
2021-10-21 16:21:28.484646,-143
2021-10-21 16:21:28.484655,-150
2021-10-21 16:21:28.484663,-148
2021-10-21 16:21:28.484671,-145
2021-10-21 16:21:28.484680,-167
2021-10-21 16:21:28.484688,-172
2021-10-21 16:21:28.484696,-145
2021-10-21 16:21:28.484704,-143
2021-10-21 16:21:28.484719,-150
2021-10-21 16:21:28.484727,-136
2021-10-21 16:21:28.484735,-116
2021-10-21 16:21:28.484744,-111
2021-10-21 16:21:28.484752,-107
2021-10-21 16:21:28.484760,-104
2021-10-21 16:21:28.484768,-104
2021-10-21 16:21:28.484776,-102
2021-10-21 16:21:28.484784,-102
2021-10-21 16:21:28.484792,-99
2021-10-21 16:21:28.484800,-85
2021-10-21 16:21:28.484808,-80
2021-10-21 16:21:28.484816,-97
2021-10-21 16:21:28.484824,-104
2021-10-21 16:21:28.484833,-97
2021-10-21 16:21:28.484841,-77
2021-10-21 16:21:28.484849,-63
2021-10-21 16:21:28.709535,-58
2021-10-21 16:21:28.709553,-48
2021-10-21 16:21:28.709563,-58
2021-10-21 16:21:28.709571,-72
2021-10-21 16:21:28.709580,-75
2021-10-21 16:21:28.709588,-90
2021-10-21 16:21:28.709596,-82
2021-10-21 16:21:28.709605,-51
2021-10-21 16:21:28.709613,-58
2021-10-21 16:21:28.709621,-87
2021-10-21 16:21:28.709629,-85
2021-10-21 16:21:28.709638,-80
2021-10-21 16:21:28.709646,-82
2021-10-21 16:21:28.709654,-119
2021-10-21 16:21:28.709662,-189
2021-10-21 16:21:28.709670,-41
2021-10-21 16:21:28.709678,506
2021-10-21 16:21:28.709687,1133
2021-10-21 16:21:28.709695,1114
2021-10-21 16:21:28.709703,233
2021-10-21 16:21:28.709711,-372
2021-10-21 16:21:28.709719,-116
2021-10-21 16:21:28.709728,31
2021-10-21 16:21:28.709736,-155
2021-10-21 16:21:28.709744,-131
2021-10-21 16:21:28.709752,-34
2021-10-21 16:21:28.709761,-80
2021-10-21 16:21:28.709769,-99
2021-10-21 16:21:28.709777,-38
2021-10-21 16:21:28.709785,-19
2021-10-21 16:21:28.934535,-46
2021-10-21 16:21:28.934553,-36
2021-10-21 16:21:28.934562,-14
2021-10-21 16:21:28.934571,-17
2021-10-21 16:21:28.934579,-4
2021-10-21 16:21:28.934587,19
2021-10-21 16:21:28.934596,19
2021-10-21 16:21:28.934604,14
2021-10-21 16:21:28.934612,19
2021-10-21 16:21:28.934620,26
2021-10-21 16:21:28.934629,26
2021-10-21 16:21:28.934637,21
2021-10-21 16:21:28.934645,26
2021-10-21 16:21:28.934653,24
2021-10-21 16:21:28.934661,-4
2021-10-21 16:21:28.934670,-17
2021-10-21 16:21:28.934678,-12
2021-10-21 16:21:28.934686,-17
2021-10-21 16:21:28.934694,-34
2021-10-21 16:21:28.934703,-36
2021-10-21 16:21:28.934711,-51
2021-10-21 16:21:28.934719,-102
2021-10-21 16:21:28.934727,-126
2021-10-21 16:21:28.934735,-119
2021-10-21 16:21:28.934743,-145
2021-10-21 16:21:28.934752,-177
2021-10-21 16:21:28.934760,-172
2021-10-21 16:21:28.934768,-170
2021-10-21 16:21:28.934776,-182
2021-10-21 16:21:28.934785,-187
2021-10-21 16:21:29.115154,-180
2021-10-21 16:21:29.115172,-167
2021-10-21 16:21:29.115182,-167
2021-10-21 16:21:29.115190,-182
2021-10-21 16:21:29.115199,-182
2021-10-21 16:21:29.115207,-160
2021-10-21 16:21:29.115215,-170
2021-10-21 16:21:29.115224,-201
2021-10-21 16:21:29.115232,-172
2021-10-21 16:21:29.115240,-148
2021-10-21 16:21:29.115249,-167
2021-10-21 16:21:29.115257,-155
2021-10-21 16:21:29.115265,-124
2021-10-21 16:21:29.115273,-99
2021-10-21 16:21:29.115282,-85
2021-10-21 16:21:29.115290,-85
2021-10-21 16:21:29.115298,-75
2021-10-21 16:21:29.115306,-87
2021-10-21 16:21:29.115314,-114
2021-10-21 16:21:29.115322,-68
2021-10-21 16:21:29.115331,-34
2021-10-21 16:21:29.115339,-90
2021-10-21 16:21:29.115347,-109
2021-10-21 16:21:29.115355,-68
2021-10-21 16:21:29.115363,-55
2021-10-21 16:21:29.115372,-60
2021-10-21 16:21:29.115380,-77
2021-10-21 16:21:29.115388,-131
2021-10-21 16:21:29.115396,-192
2021-10-21 16:21:29.115404,-119
2021-10-21 16:21:29.385166,296
2021-10-21 16:21:29.385185,968
2021-10-21 16:21:29.385195,1236
2021-10-21 16:21:29.385203,549
2021-10-21 16:21:29.385212,-296
2021-10-21 16:21:29.385220,-277
2021-10-21 16:21:29.385229,-17
2021-10-21 16:21:29.385237,-131
2021-10-21 16:21:29.385246,-172
2021-10-21 16:21:29.385254,-80
2021-10-21 16:21:29.385262,-75
2021-10-21 16:21:29.385271,-85
2021-10-21 16:21:29.385279,-82
2021-10-21 16:21:29.385287,-90
2021-10-21 16:21:29.385295,-68
2021-10-21 16:21:29.385304,-24
2021-10-21 16:21:29.385312,-21
2021-10-21 16:21:29.385320,-43
2021-10-21 16:21:29.385329,-12
2021-10-21 16:21:29.385337,48
2021-10-21 16:21:29.385345,58
2021-10-21 16:21:29.385354,51
2021-10-21 16:21:29.385362,65
2021-10-21 16:21:29.385370,77
2021-10-21 16:21:29.385378,68
2021-10-21 16:21:29.385387,80
2021-10-21 16:21:29.385395,109
2021-10-21 16:21:29.385403,107
2021-10-21 16:21:29.385411,109
2021-10-21 16:21:29.385420,119
2021-10-21 16:21:29.698825,99
2021-10-21 16:21:29.698843,82
2021-10-21 16:21:29.698853,60
2021-10-21 16:21:29.698862,12
2021-10-21 16:21:29.698870,-14
2021-10-21 16:21:29.698879,-31
2021-10-21 16:21:29.698887,-63
2021-10-21 16:21:29.698895,-48
2021-10-21 16:21:29.698904,-68
2021-10-21 16:21:29.698912,-141
2021-10-21 16:21:29.698920,-124
2021-10-21 16:21:29.698929,-107
2021-10-21 16:21:29.698937,-163
2021-10-21 16:21:29.698945,-150
2021-10-21 16:21:29.698954,-119
2021-10-21 16:21:29.698962,-148
2021-10-21 16:21:29.698970,-153
2021-10-21 16:21:29.698979,-143
2021-10-21 16:21:29.698987,-145
2021-10-21 16:21:29.698995,-119
2021-10-21 16:21:29.699004,-109
2021-10-21 16:21:29.699012,-121
2021-10-21 16:21:29.699020,-107
2021-10-21 16:21:29.699028,-107
2021-10-21 16:21:29.699036,-114
2021-10-21 16:21:29.699045,-90
2021-10-21 16:21:29.699053,-72
2021-10-21 16:21:29.699061,-94
2021-10-21 16:21:29.699069,-111
2021-10-21 16:21:29.699077,-99
2021-10-21 16:21:29.790148,-107
2021-10-21 16:21:29.790165,-141
2021-10-21 16:21:29.790175,-148
2021-10-21 16:21:29.790183,-136
2021-10-21 16:21:29.790192,-155
2021-10-21 16:21:29.790200,-187
2021-10-21 16:21:29.790209,-172
2021-10-21 16:21:29.790217,-148
2021-10-21 16:21:29.790225,-170
2021-10-21 16:21:29.790233,-194
2021-10-21 16:21:29.790242,-218
2021-10-21 16:21:29.790250,-282
2021-10-21 16:21:29.790259,-291
2021-10-21 16:21:29.790267,-19
2021-10-21 16:21:29.790275,579
2021-10-21 16:21:29.790283,1034
2021-10-21 16:21:29.790292,669
2021-10-21 16:21:29.790300,-182
2021-10-21 16:21:29.790308,-437
2021-10-21 16:21:29.790316,-201
2021-10-21 16:21:29.790325,-216
2021-10-21 16:21:29.790333,-296
2021-10-21 16:21:29.790341,-243
2021-10-21 16:21:29.790349,-265
2021-10-21 16:21:29.790357,-299
2021-10-21 16:21:29.790366,-260
2021-10-21 16:21:29.790374,-231
2021-10-21 16:21:29.790382,-233
2021-10-21 16:21:29.790390,-243
2021-10-21 16:21:29.790398,-233
2021-10-21 16:21:30.060164,-209
2021-10-21 16:21:30.060183,-221
2021-10-21 16:21:30.060193,-216
2021-10-21 16:21:30.060202,-167
2021-10-21 16:21:30.060211,-170
2021-10-21 16:21:30.060219,-177
2021-10-21 16:21:30.060227,-160
2021-10-21 16:21:30.060236,-165
2021-10-21 16:21:30.060244,-155
2021-10-21 16:21:30.060252,-155
2021-10-21 16:21:30.060260,-177
2021-10-21 16:21:30.060269,-182
2021-10-21 16:21:30.060277,-180
2021-10-21 16:21:30.060285,-182
2021-10-21 16:21:30.060293,-189
2021-10-21 16:21:30.060301,-201
2021-10-21 16:21:30.060309,-221
2021-10-21 16:21:30.060318,-231
2021-10-21 16:21:30.060326,-223
2021-10-21 16:21:30.060334,-226
2021-10-21 16:21:30.060342,-245
2021-10-21 16:21:30.060350,-257
2021-10-21 16:21:30.060359,-260
2021-10-21 16:21:30.060367,-265
2021-10-21 16:21:30.060375,-255
2021-10-21 16:21:30.060383,-243
2021-10-21 16:21:30.060392,-265
2021-10-21 16:21:30.060400,-270
2021-10-21 16:21:30.060408,-238
2021-10-21 16:21:30.060416,-221
2021-10-21 16:21:30.240251,-231
2021-10-21 16:21:30.240270,-211
2021-10-21 16:21:30.240279,-170
2021-10-21 16:21:30.240288,-194
2021-10-21 16:21:30.240296,-216
2021-10-21 16:21:30.240315,-163
2021-10-21 16:21:30.240324,-145
2021-10-21 16:21:30.240332,-180
2021-10-21 16:21:30.240341,-201
2021-10-21 16:21:30.240349,-214
2021-10-21 16:21:30.240357,-238
2021-10-21 16:21:30.240365,-245
2021-10-21 16:21:30.240374,-250
2021-10-21 16:21:30.240382,-262
2021-10-21 16:21:30.240391,-248
2021-10-21 16:21:30.240399,-262
2021-10-21 16:21:30.240407,-301
2021-10-21 16:21:30.240415,-306
2021-10-21 16:21:30.240423,-277
2021-10-21 16:21:30.240431,-277
2021-10-21 16:21:30.240440,-304
2021-10-21 16:21:30.240448,-299
2021-10-21 16:21:30.240456,-291
2021-10-21 16:21:30.240464,-343
2021-10-21 16:21:30.240472,-428
2021-10-21 16:21:30.240480,-401
2021-10-21 16:21:30.240489,-80
2021-10-21 16:21:30.240497,515
2021-10-21 16:21:30.240505,970
2021-10-21 16:21:30.240513,647
2021-10-21 16:21:30.555174,-211
2021-10-21 16:21:30.555192,-503
2021-10-21 16:21:30.555201,-267
2021-10-21 16:21:30.555210,-284
2021-10-21 16:21:30.555218,-411
2021-10-21 16:21:30.555227,-347
2021-10-21 16:21:30.555235,-304
2021-10-21 16:21:30.555243,-343
2021-10-21 16:21:30.555251,-335
2021-10-21 16:21:30.555260,-313
2021-10-21 16:21:30.555268,-335
2021-10-21 16:21:30.555276,-333
2021-10-21 16:21:30.555284,-301
2021-10-21 16:21:30.555293,-291
2021-10-21 16:21:30.555301,-291
2021-10-21 16:21:30.555309,-291
2021-10-21 16:21:30.555318,-282
2021-10-21 16:21:30.555326,-274
2021-10-21 16:21:30.555334,-287
2021-10-21 16:21:30.555342,-279
2021-10-21 16:21:30.555351,-245
2021-10-21 16:21:30.555359,-245
2021-10-21 16:21:30.555367,-257
2021-10-21 16:21:30.555375,-228
2021-10-21 16:21:30.555383,-194
2021-10-21 16:21:30.555392,-199
2021-10-21 16:21:30.555400,-218
2021-10-21 16:21:30.555408,-223
2021-10-21 16:21:30.555416,-223
2021-10-21 16:21:30.555424,-226
2021-10-21 16:21:30.735188,-236
2021-10-21 16:21:30.735207,-238
2021-10-21 16:21:30.735216,-236
2021-10-21 16:21:30.735225,-255
2021-10-21 16:21:30.735234,-255
2021-10-21 16:21:30.735242,-243
2021-10-21 16:21:30.735251,-253
2021-10-21 16:21:30.735259,-248
2021-10-21 16:21:30.735267,-236
2021-10-21 16:21:30.735275,-245
2021-10-21 16:21:30.735284,-216
2021-10-21 16:21:30.735292,-180
2021-10-21 16:21:30.735300,-201
2021-10-21 16:21:30.735309,-238
2021-10-21 16:21:30.735317,-248
2021-10-21 16:21:30.735325,-223
2021-10-21 16:21:30.735333,-211
2021-10-21 16:21:30.735342,-231
2021-10-21 16:21:30.735350,-226
2021-10-21 16:21:30.735358,-218
2021-10-21 16:21:30.735366,-231
2021-10-21 16:21:30.735375,-201
2021-10-21 16:21:30.735383,-165
2021-10-21 16:21:30.735391,-172
2021-10-21 16:21:30.735399,-204
2021-10-21 16:21:30.735407,-218
2021-10-21 16:21:30.735415,-218
2021-10-21 16:21:30.735424,-250
2021-10-21 16:21:30.735432,-284
2021-10-21 16:21:30.735440,-277
2021-10-21 16:21:30.960189,-265
2021-10-21 16:21:30.960207,-274
2021-10-21 16:21:30.960216,-267
2021-10-21 16:21:30.960225,-255
2021-10-21 16:21:30.960234,-284
2021-10-21 16:21:30.960243,-316
2021-10-21 16:21:30.960251,-350
2021-10-21 16:21:30.960259,-406
2021-10-21 16:21:30.960268,-282
2021-10-21 16:21:30.960277,231
2021-10-21 16:21:30.960285,883
2021-10-21 16:21:30.960294,987
2021-10-21 16:21:30.960302,218
2021-10-21 16:21:30.960311,-493
2021-10-21 16:21:30.960319,-369
2021-10-21 16:21:30.960328,-189
2021-10-21 16:21:30.960336,-386
2021-10-21 16:21:30.960344,-425
2021-10-21 16:21:30.960353,-313
2021-10-21 16:21:30.960361,-328
2021-10-21 16:21:30.960369,-321
2021-10-21 16:21:30.960378,-243
2021-10-21 16:21:30.960386,-231
2021-10-21 16:21:30.960395,-253
2021-10-21 16:21:30.960403,-253
2021-10-21 16:21:30.960411,-253
2021-10-21 16:21:30.960420,-262
2021-10-21 16:21:30.960428,-265
2021-10-21 16:21:30.960437,-245
2021-10-21 16:21:30.960445,-228
2021-10-21 16:21:31.185282,-226
2021-10-21 16:21:31.185302,-221
2021-10-21 16:21:31.185311,-214
2021-10-21 16:21:31.185320,-204
2021-10-21 16:21:31.185328,-194
2021-10-21 16:21:31.185337,-192
2021-10-21 16:21:31.185345,-192
2021-10-21 16:21:31.185354,-209
2021-10-21 16:21:31.185362,-228
2021-10-21 16:21:31.185370,-221
2021-10-21 16:21:31.185378,-201
2021-10-21 16:21:31.185387,-194
2021-10-21 16:21:31.185395,-199
2021-10-21 16:21:31.185403,-211
2021-10-21 16:21:31.185411,-218
2021-10-21 16:21:31.185419,-206
2021-10-21 16:21:31.185428,-199
2021-10-21 16:21:31.185436,-218
2021-10-21 16:21:31.185444,-236
2021-10-21 16:21:31.185452,-226
2021-10-21 16:21:31.185460,-182
2021-10-21 16:21:31.185468,-167
2021-10-21 16:21:31.185476,-189
2021-10-21 16:21:31.185485,-177
2021-10-21 16:21:31.185493,-150
2021-10-21 16:21:31.185501,-158
2021-10-21 16:21:31.185509,-155
2021-10-21 16:21:31.185517,-131
2021-10-21 16:21:31.185525,-136
2021-10-21 16:21:31.185534,-138
2021-10-21 16:21:31.454631,-119
2021-10-21 16:21:31.454651,-107
2021-10-21 16:21:31.454660,-104
2021-10-21 16:21:31.454669,-111
2021-10-21 16:21:31.454677,-121
2021-10-21 16:21:31.454686,-148
2021-10-21 16:21:31.454694,-172
2021-10-21 16:21:31.454702,-170
2021-10-21 16:21:31.454711,-177
2021-10-21 16:21:31.454719,-189
2021-10-21 16:21:31.454727,-180
2021-10-21 16:21:31.454736,-194
2021-10-21 16:21:31.454744,-214
2021-10-21 16:21:31.454753,-187
2021-10-21 16:21:31.454761,-170
2021-10-21 16:21:31.454769,-194
2021-10-21 16:21:31.454778,-209
2021-10-21 16:21:31.454786,-240
2021-10-21 16:21:31.454794,-277
2021-10-21 16:21:31.454803,-97
2021-10-21 16:21:31.454811,457
2021-10-21 16:21:31.454819,1085
2021-10-21 16:21:31.454828,1034
2021-10-21 16:21:31.454836,172
2021-10-21 16:21:31.454844,-384
2021-10-21 16:21:31.454853,-182
2021-10-21 16:21:31.454861,-104
2021-10-21 16:21:31.454869,-291
2021-10-21 16:21:31.454877,-270
2021-10-21 16:21:31.454886,-194
2021-10-21 16:21:31.723886,-231
2021-10-21 16:21:31.723906,-228
2021-10-21 16:21:31.723915,-182
2021-10-21 16:21:31.723924,-177
2021-10-21 16:21:31.723932,-175
2021-10-21 16:21:31.723940,-167
2021-10-21 16:21:31.723949,-175
2021-10-21 16:21:31.723957,-172
2021-10-21 16:21:31.723965,-160
2021-10-21 16:21:31.723973,-153
2021-10-21 16:21:31.723982,-153
2021-10-21 16:21:31.723990,-160
2021-10-21 16:21:31.723998,-163
2021-10-21 16:21:31.724006,-153
2021-10-21 16:21:31.724014,-145
2021-10-21 16:21:31.724023,-138
2021-10-21 16:21:31.724031,-148
2021-10-21 16:21:31.724039,-160
2021-10-21 16:21:31.724047,-150
2021-10-21 16:21:31.724055,-138
2021-10-21 16:21:31.724063,-141
2021-10-21 16:21:31.724071,-138
2021-10-21 16:21:31.724080,-131
2021-10-21 16:21:31.724088,-131
2021-10-21 16:21:31.724096,-111
2021-10-21 16:21:31.724104,-87
2021-10-21 16:21:31.724112,-92
2021-10-21 16:21:31.724120,-97
2021-10-21 16:21:31.724128,-102
2021-10-21 16:21:31.724136,-109
2021-10-21 16:21:31.860211,-111
2021-10-21 16:21:31.860230,-104
2021-10-21 16:21:31.860239,-87
2021-10-21 16:21:31.860248,-72
2021-10-21 16:21:31.860256,-70
2021-10-21 16:21:31.860265,-72
2021-10-21 16:21:31.860273,-65
2021-10-21 16:21:31.860282,-60
2021-10-21 16:21:31.860290,-77
2021-10-21 16:21:31.860299,-80
2021-10-21 16:21:31.860307,-51
2021-10-21 16:21:31.860315,-34
2021-10-21 16:21:31.860324,-34
2021-10-21 16:21:31.860332,-24
2021-10-21 16:21:31.860340,-21
2021-10-21 16:21:31.860348,-34
2021-10-21 16:21:31.860356,-55
2021-10-21 16:21:31.860365,-60
2021-10-21 16:21:31.860373,-58
2021-10-21 16:21:31.860381,-80
2021-10-21 16:21:31.860389,-114
2021-10-21 16:21:31.860397,-136
2021-10-21 16:21:31.860406,-131
2021-10-21 16:21:31.860414,-131
2021-10-21 16:21:31.860422,-124
2021-10-21 16:21:31.860430,-116
2021-10-21 16:21:31.860438,-155
2021-10-21 16:21:31.860447,-250
2021-10-21 16:21:31.860455,-253
2021-10-21 16:21:31.860463,107
2021-10-21 16:21:32.130197,766
2021-10-21 16:21:32.130216,1138
2021-10-21 16:21:32.130225,659
2021-10-21 16:21:32.130234,-150
2021-10-21 16:21:32.130242,-267
2021-10-21 16:21:32.130251,-31
2021-10-21 16:21:32.130259,-126
2021-10-21 16:21:32.130268,-218
2021-10-21 16:21:32.130276,-128
2021-10-21 16:21:32.130285,-141
2021-10-21 16:21:32.130293,-201
2021-10-21 16:21:32.130301,-167
2021-10-21 16:21:32.130309,-138
2021-10-21 16:21:32.130317,-148
2021-10-21 16:21:32.130325,-109
2021-10-21 16:21:32.130333,-70
2021-10-21 16:21:32.130342,-94
2021-10-21 16:21:32.130350,-107
2021-10-21 16:21:32.130358,-68
2021-10-21 16:21:32.130366,-58
2021-10-21 16:21:32.130375,-80
2021-10-21 16:21:32.130383,-72
2021-10-21 16:21:32.130391,-58
2021-10-21 16:21:32.130399,-58
2021-10-21 16:21:32.130407,-58
2021-10-21 16:21:32.130416,-65
2021-10-21 16:21:32.130424,-97
2021-10-21 16:21:32.130432,-109
2021-10-21 16:21:32.130440,-94
2021-10-21 16:21:32.130449,-82
2021-10-21 16:21:32.355281,-68
2021-10-21 16:21:32.355301,-51
2021-10-21 16:21:32.355311,-51
2021-10-21 16:21:32.355320,-75
2021-10-21 16:21:32.355328,-72
2021-10-21 16:21:32.355336,-46
2021-10-21 16:21:32.355344,-41
2021-10-21 16:21:32.355353,-41
2021-10-21 16:21:32.355361,-34
2021-10-21 16:21:32.355369,-36
2021-10-21 16:21:32.355377,-48
2021-10-21 16:21:32.355385,-48
2021-10-21 16:21:32.355394,-26
2021-10-21 16:21:32.355402,-7
2021-10-21 16:21:32.355410,-24
2021-10-21 16:21:32.355418,-43
2021-10-21 16:21:32.355426,-36
2021-10-21 16:21:32.355435,-48
2021-10-21 16:21:32.355443,-70
2021-10-21 16:21:32.355451,-58
2021-10-21 16:21:32.355459,-53
2021-10-21 16:21:32.355467,-51
2021-10-21 16:21:32.355476,-26
2021-10-21 16:21:32.355484,-19
2021-10-21 16:21:32.355492,-9
2021-10-21 16:21:32.355500,9
2021-10-21 16:21:32.355508,-17
2021-10-21 16:21:32.355516,-58
2021-10-21 16:21:32.355525,-60
2021-10-21 16:21:32.355533,-51
2021-10-21 16:21:32.580224,-58
2021-10-21 16:21:32.580242,-68
2021-10-21 16:21:32.580252,-65
2021-10-21 16:21:32.580261,-60
2021-10-21 16:21:32.580269,-70
2021-10-21 16:21:32.580277,-63
2021-10-21 16:21:32.580286,-53
2021-10-21 16:21:32.580294,-126
2021-10-21 16:21:32.580302,-226
2021-10-21 16:21:32.580310,-72
2021-10-21 16:21:32.580319,474
2021-10-21 16:21:32.580327,1056
2021-10-21 16:21:32.580335,970
2021-10-21 16:21:32.580344,177
2021-10-21 16:21:32.580352,-257
2021-10-21 16:21:32.580360,-38
2021-10-21 16:21:32.580369,9
2021-10-21 16:21:32.580377,-143
2021-10-21 16:21:32.580385,-99
2021-10-21 16:21:32.580393,-53
2021-10-21 16:21:32.580402,-94
2021-10-21 16:21:32.580410,-82
2021-10-21 16:21:32.580418,-53
2021-10-21 16:21:32.580427,-63
2021-10-21 16:21:32.580435,-68
2021-10-21 16:21:32.580443,-53
2021-10-21 16:21:32.580451,-53
2021-10-21 16:21:32.580459,-51
2021-10-21 16:21:32.580468,-36
2021-10-21 16:21:32.580476,-48
2021-10-21 16:21:32.850227,-63
2021-10-21 16:21:32.850245,-41
2021-10-21 16:21:32.850255,-46
2021-10-21 16:21:32.850264,-65
2021-10-21 16:21:32.850272,-60
2021-10-21 16:21:32.850281,-55
2021-10-21 16:21:32.850289,-68
2021-10-21 16:21:32.850297,-75
2021-10-21 16:21:32.850305,-82
2021-10-21 16:21:32.850313,-75
2021-10-21 16:21:32.850321,-46
2021-10-21 16:21:32.850330,-31
2021-10-21 16:21:32.850338,-36
2021-10-21 16:21:32.850346,-41
2021-10-21 16:21:32.850354,-34
2021-10-21 16:21:32.850362,-26
2021-10-21 16:21:32.850370,-29
2021-10-21 16:21:32.850379,-34
2021-10-21 16:21:32.850387,-31
2021-10-21 16:21:32.850395,-24
2021-10-21 16:21:32.850404,-21
2021-10-21 16:21:32.850412,-38
2021-10-21 16:21:32.850420,-51
2021-10-21 16:21:32.850428,-36
2021-10-21 16:21:32.850436,-24
2021-10-21 16:21:32.850444,-34
2021-10-21 16:21:32.850453,-38
2021-10-21 16:21:32.850461,-29
2021-10-21 16:21:32.850469,-21
2021-10-21 16:21:32.850477,-17
2021-10-21 16:21:33.030148,-2
2021-10-21 16:21:33.030167,2
2021-10-21 16:21:33.030177,-17
2021-10-21 16:21:33.030185,-34
2021-10-21 16:21:33.030194,-14
2021-10-21 16:21:33.030202,17
2021-10-21 16:21:33.030210,17
2021-10-21 16:21:33.030218,2
2021-10-21 16:21:33.030227,-9
2021-10-21 16:21:33.030235,-14
2021-10-21 16:21:33.030243,-7
2021-10-21 16:21:33.030251,-17
2021-10-21 16:21:33.030259,-31
2021-10-21 16:21:33.030268,-17
2021-10-21 16:21:33.030276,-14
2021-10-21 16:21:33.030284,-34
2021-10-21 16:21:33.030292,-26
2021-10-21 16:21:33.030300,-9
2021-10-21 16:21:33.030309,-29
2021-10-21 16:21:33.030317,-80
2021-10-21 16:21:33.030325,-153
2021-10-21 16:21:33.030333,-119
2021-10-21 16:21:33.030341,260
2021-10-21 16:21:33.030350,946
2021-10-21 16:21:33.030358,1306
2021-10-21 16:21:33.030366,725
2021-10-21 16:21:33.030374,-99
2021-10-21 16:21:33.030383,-141
2021-10-21 16:21:33.030391,85
2021-10-21 16:21:33.030399,-51
2021-10-21 16:21:33.300204,-153
2021-10-21 16:21:33.300223,-72
2021-10-21 16:21:33.300232,-63
2021-10-21 16:21:33.300241,-94
2021-10-21 16:21:33.300249,-70
2021-10-21 16:21:33.300258,-68
2021-10-21 16:21:33.300266,-90
2021-10-21 16:21:33.300274,-90
2021-10-21 16:21:33.300283,-85
2021-10-21 16:21:33.300291,-87
2021-10-21 16:21:33.300299,-77
2021-10-21 16:21:33.300308,-80
2021-10-21 16:21:33.300316,-102
2021-10-21 16:21:33.300324,-102
2021-10-21 16:21:33.300332,-92
2021-10-21 16:21:33.300340,-102
2021-10-21 16:21:33.300349,-102
2021-10-21 16:21:33.300357,-92
2021-10-21 16:21:33.300366,-87
2021-10-21 16:21:33.300374,-85
2021-10-21 16:21:33.300382,-80
2021-10-21 16:21:33.300390,-65
2021-10-21 16:21:33.300399,-46
2021-10-21 16:21:33.300407,-26
2021-10-21 16:21:33.300415,2
2021-10-21 16:21:33.300424,24
2021-10-21 16:21:33.300432,17
2021-10-21 16:21:33.300440,0
2021-10-21 16:21:33.300448,14
2021-10-21 16:21:33.300456,31
2021-10-21 16:21:33.480232,12
2021-10-21 16:21:33.480250,4
2021-10-21 16:21:33.480259,29
2021-10-21 16:21:33.480268,21
2021-10-21 16:21:33.480276,9
2021-10-21 16:21:33.480284,29
2021-10-21 16:21:33.480293,36
2021-10-21 16:21:33.480301,12
2021-10-21 16:21:33.480353,9
2021-10-21 16:21:33.480362,31
2021-10-21 16:21:33.480371,34
2021-10-21 16:21:33.480379,17
2021-10-21 16:21:33.480387,26
2021-10-21 16:21:33.480396,51
2021-10-21 16:21:33.480404,51
2021-10-21 16:21:33.480412,48
2021-10-21 16:21:33.480420,53
2021-10-21 16:21:33.480428,38
2021-10-21 16:21:33.480437,31
2021-10-21 16:21:33.480445,60
2021-10-21 16:21:33.480453,87
2021-10-21 16:21:33.480461,94
2021-10-21 16:21:33.480470,87
2021-10-21 16:21:33.480478,70
2021-10-21 16:21:33.480486,63
2021-10-21 16:21:33.480494,70
2021-10-21 16:21:33.480503,53
2021-10-21 16:21:33.480511,46
2021-10-21 16:21:33.480519,72
2021-10-21 16:21:33.480527,85
2021-10-21 16:21:33.794036,72
2021-10-21 16:21:33.794058,82
2021-10-21 16:21:33.794068,87
2021-10-21 16:21:33.794076,14
2021-10-21 16:21:33.794084,-85
2021-10-21 16:21:33.794093,7
2021-10-21 16:21:33.794101,501
2021-10-21 16:21:33.794110,1250
2021-10-21 16:21:33.794118,1491
2021-10-21 16:21:33.794126,715
2021-10-21 16:21:33.794135,-72
2021-10-21 16:21:33.794143,2
2021-10-21 16:21:33.794151,165
2021-10-21 16:21:33.794160,-14
2021-10-21 16:21:33.794168,-55
2021-10-21 16:21:33.794176,17
2021-10-21 16:21:33.794185,-14
2021-10-21 16:21:33.794193,-31
2021-10-21 16:21:33.794201,17
2021-10-21 16:21:33.794210,29
2021-10-21 16:21:33.794218,4
2021-10-21 16:21:33.794226,2
2021-10-21 16:21:33.794235,17
2021-10-21 16:21:33.794243,29
2021-10-21 16:21:33.794251,34
2021-10-21 16:21:33.794259,36
2021-10-21 16:21:33.794268,41
2021-10-21 16:21:33.794276,41
2021-10-21 16:21:33.794284,41
2021-10-21 16:21:33.794293,41
2021-10-21 16:21:33.930435,43
2021-10-21 16:21:33.930457,41
2021-10-21 16:21:33.930466,31
2021-10-21 16:21:33.930475,12
2021-10-21 16:21:33.930484,4
2021-10-21 16:21:33.930492,26
2021-10-21 16:21:33.930501,51
2021-10-21 16:21:33.930509,58
2021-10-21 16:21:33.930517,51
2021-10-21 16:21:33.930526,34
2021-10-21 16:21:33.930534,7
2021-10-21 16:21:33.930543,-2
2021-10-21 16:21:33.930551,2
2021-10-21 16:21:33.930559,-9
2021-10-21 16:21:33.930568,-38
2021-10-21 16:21:33.930576,-51
2021-10-21 16:21:33.930584,-48
2021-10-21 16:21:33.930592,-46
2021-10-21 16:21:33.930600,-53
2021-10-21 16:21:33.930609,-58
2021-10-21 16:21:33.930617,-58
2021-10-21 16:21:33.930625,-70
2021-10-21 16:21:33.930633,-75
2021-10-21 16:21:33.930642,-70
2021-10-21 16:21:33.930650,-82
2021-10-21 16:21:33.930688,-85
2021-10-21 16:21:33.930696,-75
2021-10-21 16:21:33.930704,-92
2021-10-21 16:21:33.930712,-111
2021-10-21 16:21:33.930720,-109
2021-10-21 16:21:34.290349,-111
2021-10-21 16:21:34.290370,-111
2021-10-21 16:21:34.290380,-92
2021-10-21 16:21:34.290389,-92
2021-10-21 16:21:34.290397,-109
2021-10-21 16:21:34.290405,-111
2021-10-21 16:21:34.290414,-124
2021-10-21 16:21:34.290422,-155
2021-10-21 16:21:34.290430,-189
2021-10-21 16:21:34.290439,-221
2021-10-21 16:21:34.290447,-221
2021-10-21 16:21:34.290455,-189
2021-10-21 16:21:34.290463,-165
2021-10-21 16:21:34.290471,-155
2021-10-21 16:21:34.290480,-158
2021-10-21 16:21:34.290488,-201
2021-10-21 16:21:34.290496,-309
2021-10-21 16:21:34.290505,-326
2021-10-21 16:21:34.290513,-19
2021-10-21 16:21:34.290521,610
2021-10-21 16:21:34.290529,1073
2021-10-21 16:21:34.290538,674
2021-10-21 16:21:34.290546,-180
2021-10-21 16:21:34.290554,-352
2021-10-21 16:21:34.290562,-92
2021-10-21 16:21:34.290571,-163
2021-10-21 16:21:34.290579,-279
2021-10-21 16:21:34.290587,-223
2021-10-21 16:21:34.290595,-216
2021-10-21 16:21:34.290604,-236
2021-10-21 16:21:34.425380,-214
2021-10-21 16:21:34.425402,-211
