Time,ECG
2021-10-21 15:35:51.054691,4983
2021-10-21 15:35:51.054710,4905
2021-10-21 15:35:51.054719,4822
2021-10-21 15:35:51.054728,4771
2021-10-21 15:35:51.054736,4742
2021-10-21 15:35:51.054745,4710
2021-10-21 15:35:51.054754,4671
2021-10-21 15:35:51.054762,4608
2021-10-21 15:35:51.054771,4535
2021-10-21 15:35:51.054780,4489
2021-10-21 15:35:51.054788,4450
2021-10-21 15:35:51.054797,4394
2021-10-21 15:35:51.054805,4338
2021-10-21 15:35:51.054813,4277
2021-10-21 15:35:51.054822,4221
2021-10-21 15:35:51.054830,4185
2021-10-21 15:35:51.054838,4148
2021-10-21 15:35:51.054847,4104
2021-10-21 15:35:51.054855,4053
2021-10-21 15:35:51.054863,3992
2021-10-21 15:35:51.054876,3932
2021-10-21 15:35:51.279566,3832
2021-10-21 15:35:51.279586,3708
2021-10-21 15:35:51.279595,3786
2021-10-21 15:35:51.279604,4311
2021-10-21 15:35:51.279622,4783
2021-10-21 15:35:51.279631,3552
2021-10-21 15:35:51.279640,3336
2021-10-21 15:35:51.279648,3555
2021-10-21 15:35:51.279656,3340
2021-10-21 15:35:51.279665,3182
2021-10-21 15:35:51.279673,3267
2021-10-21 15:35:51.279681,3241
2021-10-21 15:35:51.279690,3163
2021-10-21 15:35:51.279698,3155
2021-10-21 15:35:51.279706,3119
2021-10-21 15:35:51.279715,3082
2021-10-21 15:35:51.279724,3063
2021-10-21 15:35:51.279732,3014
2021-10-21 15:35:51.279741,2988
2021-10-21 15:35:51.279749,2973
2021-10-21 15:35:51.279757,2941
2021-10-21 15:35:51.279766,2922
2021-10-21 15:35:51.279779,2912
2021-10-21 15:35:51.279788,2895
2021-10-21 15:35:51.279797,2876
2021-10-21 15:35:51.279805,2849
2021-10-21 15:35:51.279817,2827
2021-10-21 15:35:51.279826,2812
2021-10-21 15:35:51.549623,2788
2021-10-21 15:35:51.549643,2756
2021-10-21 15:35:51.549653,2720
2021-10-21 15:35:51.549661,2674
2021-10-21 15:35:51.549670,2627
2021-10-21 15:35:51.549678,2591
2021-10-21 15:35:51.549686,2537
2021-10-21 15:35:51.549694,2479
2021-10-21 15:35:51.549703,2435
2021-10-21 15:35:51.549711,2377
2021-10-21 15:35:51.549721,2326
2021-10-21 15:35:51.549730,2314
2021-10-21 15:35:51.549738,2292
2021-10-21 15:35:51.549746,2260
2021-10-21 15:35:51.549754,2226
2021-10-21 15:35:51.549763,2172
2021-10-21 15:35:51.549771,2151
2021-10-21 15:35:51.549779,2151
2021-10-21 15:35:51.549787,2129
2021-10-21 15:35:51.549796,2104
2021-10-21 15:35:51.549804,2080
2021-10-21 15:35:51.549812,2051
2021-10-21 15:35:51.549820,2034
2021-10-21 15:35:51.549828,2022
2021-10-21 15:35:51.549840,2007
2021-10-21 15:35:51.549848,1978
2021-10-21 15:35:51.549857,1944
2021-10-21 15:35:51.549865,1912
2021-10-21 15:35:51.549873,1883
2021-10-21 15:35:51.549882,1861
2021-10-21 15:35:51.773330,1844
2021-10-21 15:35:51.773351,1824
2021-10-21 15:35:51.773360,1793
2021-10-21 15:35:51.773369,1759
2021-10-21 15:35:51.773378,1742
2021-10-21 15:35:51.773386,1730
2021-10-21 15:35:51.773394,1710
2021-10-21 15:35:51.773403,1693
2021-10-21 15:35:51.773411,1659
2021-10-21 15:35:51.773419,1622
2021-10-21 15:35:51.773432,1613
2021-10-21 15:35:51.773440,1601
2021-10-21 15:35:51.773448,1584
2021-10-21 15:35:51.773457,1557
2021-10-21 15:35:51.773465,1525
2021-10-21 15:35:51.773473,1506
2021-10-21 15:35:51.773482,1496
2021-10-21 15:35:51.773490,1489
2021-10-21 15:35:51.773498,1476
2021-10-21 15:35:51.773507,1450
2021-10-21 15:35:51.773515,1418
2021-10-21 15:35:51.773523,1396
2021-10-21 15:35:51.773532,1394
2021-10-21 15:35:51.773540,1384
2021-10-21 15:35:51.773548,1352
2021-10-21 15:35:51.773556,1321
2021-10-21 15:35:51.773564,1306
2021-10-21 15:35:51.773573,1296
2021-10-21 15:35:51.773583,1289
2021-10-21 15:35:51.773591,1282
2021-10-21 15:35:51.999587,1267
2021-10-21 15:35:51.999605,1248
2021-10-21 15:35:51.999615,1238
2021-10-21 15:35:51.999624,1253
2021-10-21 15:35:51.999632,1260
2021-10-21 15:35:51.999640,1236
2021-10-21 15:35:51.999649,1206
2021-10-21 15:35:51.999657,1182
2021-10-21 15:35:51.999666,1165
2021-10-21 15:35:51.999674,1143
2021-10-21 15:35:51.999682,1114
2021-10-21 15:35:51.999691,1104
2021-10-21 15:35:51.999699,1094
2021-10-21 15:35:51.999707,1070
2021-10-21 15:35:51.999716,1053
2021-10-21 15:35:51.999724,1048
2021-10-21 15:35:51.999732,1041
2021-10-21 15:35:51.999741,1026
2021-10-21 15:35:51.999753,985
2021-10-21 15:35:51.999761,890
2021-10-21 15:35:51.999770,849
2021-10-21 15:35:51.999778,1146
2021-10-21 15:35:51.999786,1941
2021-10-21 15:35:51.999794,2807
2021-10-21 15:35:51.999803,2703
2021-10-21 15:35:51.999811,1486
2021-10-21 15:35:51.999819,676
2021-10-21 15:35:51.999827,856
2021-10-21 15:35:51.999835,931
2021-10-21 15:35:51.999844,710
2021-10-21 15:35:52.180236,720
2021-10-21 15:35:52.180269,793
2021-10-21 15:35:52.180277,747
2021-10-21 15:35:52.180285,737
2021-10-21 15:35:52.180340,773
2021-10-21 15:35:52.180357,768
2021-10-21 15:35:52.180367,747
2021-10-21 15:35:52.180376,749
2021-10-21 15:35:52.180385,756
2021-10-21 15:35:52.180394,759
2021-10-21 15:35:52.180404,764
2021-10-21 15:35:52.180413,771
2021-10-21 15:35:52.180421,768
2021-10-21 15:35:52.180430,761
2021-10-21 15:35:52.180443,773
2021-10-21 15:35:52.180472,783
2021-10-21 15:35:52.180489,785
2021-10-21 15:35:52.180498,790
2021-10-21 15:35:52.180506,778
2021-10-21 15:35:52.180514,756
2021-10-21 15:35:52.180522,747
2021-10-21 15:35:52.180529,732
2021-10-21 15:35:52.180537,720
2021-10-21 15:35:52.180544,703
2021-10-21 15:35:52.180551,671
2021-10-21 15:35:52.180558,652
2021-10-21 15:35:52.180566,635
2021-10-21 15:35:52.180573,613
2021-10-21 15:35:52.180580,601
2021-10-21 15:35:52.180588,579
2021-10-21 15:35:52.404666,542
2021-10-21 15:35:52.404688,523
2021-10-21 15:35:52.404697,525
2021-10-21 15:35:52.404706,510
2021-10-21 15:35:52.404715,486
2021-10-21 15:35:52.404727,489
2021-10-21 15:35:52.404736,489
2021-10-21 15:35:52.404744,484
2021-10-21 15:35:52.404753,489
2021-10-21 15:35:52.404761,491
2021-10-21 15:35:52.404769,489
2021-10-21 15:35:52.404777,479
2021-10-21 15:35:52.404786,462
2021-10-21 15:35:52.404794,472
2021-10-21 15:35:52.404802,467
2021-10-21 15:35:52.404810,450
2021-10-21 15:35:52.404819,455
2021-10-21 15:35:52.404827,457
2021-10-21 15:35:52.404835,447
2021-10-21 15:35:52.404843,452
2021-10-21 15:35:52.404851,455
2021-10-21 15:35:52.404860,450
2021-10-21 15:35:52.404873,445
2021-10-21 15:35:52.404882,445
2021-10-21 15:35:52.404899,445
2021-10-21 15:35:52.404907,442
2021-10-21 15:35:52.404915,440
2021-10-21 15:35:52.404923,435
2021-10-21 15:35:52.404932,433
2021-10-21 15:35:52.404940,433
2021-10-21 15:35:52.674677,433
2021-10-21 15:35:52.674698,440
2021-10-21 15:35:52.674708,440
2021-10-21 15:35:52.674719,425
2021-10-21 15:35:52.674727,418
2021-10-21 15:35:52.674736,406
2021-10-21 15:35:52.674744,403
2021-10-21 15:35:52.674753,416
2021-10-21 15:35:52.674761,408
2021-10-21 15:35:52.674769,396
2021-10-21 15:35:52.674778,391
2021-10-21 15:35:52.674786,384
2021-10-21 15:35:52.674794,382
2021-10-21 15:35:52.674802,386
2021-10-21 15:35:52.674811,391
2021-10-21 15:35:52.674819,384
2021-10-21 15:35:52.674828,367
2021-10-21 15:35:52.674836,362
2021-10-21 15:35:52.674844,364
2021-10-21 15:35:52.674853,377
2021-10-21 15:35:52.674861,401
2021-10-21 15:35:52.674869,406
2021-10-21 15:35:52.674878,394
2021-10-21 15:35:52.674886,386
2021-10-21 15:35:52.674894,389
2021-10-21 15:35:52.674903,382
2021-10-21 15:35:52.674911,367
2021-10-21 15:35:52.674919,362
2021-10-21 15:35:52.674928,360
2021-10-21 15:35:52.674936,355
2021-10-21 15:35:52.898310,362
2021-10-21 15:35:52.898330,369
2021-10-21 15:35:52.898340,367
2021-10-21 15:35:52.898349,360
2021-10-21 15:35:52.898357,340
2021-10-21 15:35:52.898369,279
2021-10-21 15:35:52.898378,192
2021-10-21 15:35:52.898386,226
2021-10-21 15:35:52.898395,630
2021-10-21 15:35:52.898403,1467
2021-10-21 15:35:52.898411,2172
2021-10-21 15:35:52.898420,1773
2021-10-21 15:35:52.898433,549
2021-10-21 15:35:52.898443,31
2021-10-21 15:35:52.898454,296
2021-10-21 15:35:52.898462,265
2021-10-21 15:35:52.898471,65
2021-10-21 15:35:52.898479,138
2021-10-21 15:35:52.898487,192
2021-10-21 15:35:52.898496,133
2021-10-21 15:35:52.898504,153
2021-10-21 15:35:52.898512,192
2021-10-21 15:35:52.898520,177
2021-10-21 15:35:52.898529,194
2021-10-21 15:35:52.898537,231
2021-10-21 15:35:52.898545,231
2021-10-21 15:35:52.898553,236
2021-10-21 15:35:52.898561,260
2021-10-21 15:35:52.898569,272
2021-10-21 15:35:52.898578,289
2021-10-21 15:35:53.125286,318
2021-10-21 15:35:53.125306,343
2021-10-21 15:35:53.125314,352
2021-10-21 15:35:53.125321,345
2021-10-21 15:35:53.125328,335
2021-10-21 15:35:53.125334,333
2021-10-21 15:35:53.125341,333
2021-10-21 15:35:53.125347,330
2021-10-21 15:35:53.125354,311
2021-10-21 15:35:53.125361,287
2021-10-21 15:35:53.125367,267
2021-10-21 15:35:53.125376,265
2021-10-21 15:35:53.125382,274
2021-10-21 15:35:53.125389,274
2021-10-21 15:35:53.125396,223
2021-10-21 15:35:53.125403,163
2021-10-21 15:35:53.125410,165
2021-10-21 15:35:53.125417,180
2021-10-21 15:35:53.125423,167
2021-10-21 15:35:53.125430,167
2021-10-21 15:35:53.125437,177
2021-10-21 15:35:53.125443,206
2021-10-21 15:35:53.125450,260
2021-10-21 15:35:53.125456,272
2021-10-21 15:35:53.125463,257
2021-10-21 15:35:53.125470,272
2021-10-21 15:35:53.125476,270
2021-10-21 15:35:53.125483,250
2021-10-21 15:35:53.125489,267
2021-10-21 15:35:53.125496,284
2021-10-21 15:35:53.349622,265
2021-10-21 15:35:53.349642,240
2021-10-21 15:35:53.349651,245
2021-10-21 15:35:53.349660,262
2021-10-21 15:35:53.349675,265
2021-10-21 15:35:53.349683,262
2021-10-21 15:35:53.349692,265
2021-10-21 15:35:53.349700,262
2021-10-21 15:35:53.349708,250
2021-10-21 15:35:53.349717,218
2021-10-21 15:35:53.349725,209
2021-10-21 15:35:53.349733,226
2021-10-21 15:35:53.349742,209
2021-10-21 15:35:53.349750,158
2021-10-21 15:35:53.349758,148
2021-10-21 15:35:53.349766,201
2021-10-21 15:35:53.349774,223
2021-10-21 15:35:53.349783,206
2021-10-21 15:35:53.349791,211
2021-10-21 15:35:53.349799,211
2021-10-21 15:35:53.349807,189
2021-10-21 15:35:53.349820,150
2021-10-21 15:35:53.349828,126
2021-10-21 15:35:53.349837,155
2021-10-21 15:35:53.349845,194
2021-10-21 15:35:53.349853,206
2021-10-21 15:35:53.349861,201
2021-10-21 15:35:53.349869,189
2021-10-21 15:35:53.349878,192
2021-10-21 15:35:53.349886,192
2021-10-21 15:35:53.574677,184
2021-10-21 15:35:53.574698,189
2021-10-21 15:35:53.574708,197
2021-10-21 15:35:53.574716,214
2021-10-21 15:35:53.574725,223
2021-10-21 15:35:53.574733,194
2021-10-21 15:35:53.574741,180
2021-10-21 15:35:53.574750,201
2021-10-21 15:35:53.574758,184
2021-10-21 15:35:53.574766,133
2021-10-21 15:35:53.574775,104
2021-10-21 15:35:53.574783,102
2021-10-21 15:35:53.574791,111
2021-10-21 15:35:53.574799,111
2021-10-21 15:35:53.574808,114
2021-10-21 15:35:53.574816,133
2021-10-21 15:35:53.574824,133
2021-10-21 15:35:53.574832,107
2021-10-21 15:35:53.574841,99
2021-10-21 15:35:53.574849,68
2021-10-21 15:35:53.574857,38
2021-10-21 15:35:53.574866,340
2021-10-21 15:35:53.574874,1133
2021-10-21 15:35:53.574882,1829
2021-10-21 15:35:53.574890,1442
2021-10-21 15:35:53.574899,236
2021-10-21 15:35:53.574907,-231
2021-10-21 15:35:53.574915,102
2021-10-21 15:35:53.574923,87
2021-10-21 15:35:53.574931,-107
2021-10-21 15:35:53.843318,-12
2021-10-21 15:35:53.843338,43
2021-10-21 15:35:53.843348,-21
2021-10-21 15:35:53.843357,-7
2021-10-21 15:35:53.843365,34
2021-10-21 15:35:53.843373,38
2021-10-21 15:35:53.843385,41
2021-10-21 15:35:53.843394,51
2021-10-21 15:35:53.843402,68
2021-10-21 15:35:53.843410,92
2021-10-21 15:35:53.843418,119
2021-10-21 15:35:53.843426,141
2021-10-21 15:35:53.843435,150
2021-10-21 15:35:53.843443,150
2021-10-21 15:35:53.843451,158
2021-10-21 15:35:53.843460,158
2021-10-21 15:35:53.843468,138
2021-10-21 15:35:53.843476,131
2021-10-21 15:35:53.843490,145
2021-10-21 15:35:53.843499,145
2021-10-21 15:35:53.843507,131
2021-10-21 15:35:53.843515,116
2021-10-21 15:35:53.843523,97
2021-10-21 15:35:53.843532,85
2021-10-21 15:35:53.843540,70
2021-10-21 15:35:53.843548,41
2021-10-21 15:35:53.843556,2
2021-10-21 15:35:53.843565,-29
2021-10-21 15:35:53.843573,-31
2021-10-21 15:35:53.843581,-29
2021-10-21 15:35:54.024630,-41
2021-10-21 15:35:54.024650,-41
2021-10-21 15:35:54.024659,-34
2021-10-21 15:35:54.024668,-38
2021-10-21 15:35:54.024677,-34
2021-10-21 15:35:54.024685,-26
2021-10-21 15:35:54.024693,-31
2021-10-21 15:35:54.024702,-31
2021-10-21 15:35:54.024710,-14
2021-10-21 15:35:54.024718,0
2021-10-21 15:35:54.024726,7
2021-10-21 15:35:54.024735,14
2021-10-21 15:35:54.024743,4
2021-10-21 15:35:54.024751,-4
2021-10-21 15:35:54.024767,12
2021-10-21 15:35:54.024776,24
2021-10-21 15:35:54.024784,34
2021-10-21 15:35:54.024792,41
2021-10-21 15:35:54.024801,31
2021-10-21 15:35:54.024809,34
2021-10-21 15:35:54.024817,43
2021-10-21 15:35:54.024825,36
2021-10-21 15:35:54.024833,36
2021-10-21 15:35:54.024842,46
2021-10-21 15:35:54.024850,41
2021-10-21 15:35:54.024858,41
2021-10-21 15:35:54.024866,46
2021-10-21 15:35:54.024878,53
2021-10-21 15:35:54.024886,46
2021-10-21 15:35:54.024895,34
2021-10-21 15:35:54.249629,38
2021-10-21 15:35:54.249648,48
2021-10-21 15:35:54.249657,51
2021-10-21 15:35:54.249666,51
2021-10-21 15:35:54.249674,55
2021-10-21 15:35:54.249683,51
2021-10-21 15:35:54.249691,36
2021-10-21 15:35:54.249699,48
2021-10-21 15:35:54.249707,63
2021-10-21 15:35:54.249716,46
2021-10-21 15:35:54.249724,46
2021-10-21 15:35:54.249732,55
2021-10-21 15:35:54.249740,65
2021-10-21 15:35:54.249748,90
2021-10-21 15:35:54.249757,90
2021-10-21 15:35:54.249765,72
2021-10-21 15:35:54.249773,77
2021-10-21 15:35:54.249782,80
2021-10-21 15:35:54.249790,68
2021-10-21 15:35:54.249798,68
2021-10-21 15:35:54.249807,75
2021-10-21 15:35:54.249815,55
2021-10-21 15:35:54.249823,29
2021-10-21 15:35:54.249831,29
2021-10-21 15:35:54.249840,41
2021-10-21 15:35:54.249848,51
2021-10-21 15:35:54.249856,53
2021-10-21 15:35:54.249864,19
2021-10-21 15:35:54.249873,-65
2021-10-21 15:35:54.249881,-104
2021-10-21 15:35:54.474616,145
2021-10-21 15:35:54.474635,883
2021-10-21 15:35:54.474645,1764
2021-10-21 15:35:54.474653,1749
2021-10-21 15:35:54.474667,574
2021-10-21 15:35:54.474676,-265
2021-10-21 15:35:54.474685,-58
2021-10-21 15:35:54.474693,72
2021-10-21 15:35:54.474701,-148
2021-10-21 15:35:54.474710,-136
2021-10-21 15:35:54.474718,-51
2021-10-21 15:35:54.474727,-99
2021-10-21 15:35:54.474735,-97
2021-10-21 15:35:54.474743,-38
2021-10-21 15:35:54.474751,-36
2021-10-21 15:35:54.474759,-43
2021-10-21 15:35:54.474768,-26
2021-10-21 15:35:54.474776,-21
2021-10-21 15:35:54.474784,-9
2021-10-21 15:35:54.474793,19
2021-10-21 15:35:54.474801,34
2021-10-21 15:35:54.474809,38
2021-10-21 15:35:54.474817,53
2021-10-21 15:35:54.474826,70
2021-10-21 15:35:54.474838,90
2021-10-21 15:35:54.474846,107
2021-10-21 15:35:54.474854,114
2021-10-21 15:35:54.474863,111
2021-10-21 15:35:54.474871,97
2021-10-21 15:35:54.474879,90
2021-10-21 15:35:54.789685,80
2021-10-21 15:35:54.789706,63
2021-10-21 15:35:54.789715,41
2021-10-21 15:35:54.789724,2
2021-10-21 15:35:54.789733,-34
2021-10-21 15:35:54.789741,-43
2021-10-21 15:35:54.789750,-46
2021-10-21 15:35:54.789758,-51
2021-10-21 15:35:54.789766,-53
2021-10-21 15:35:54.789775,-65
2021-10-21 15:35:54.789783,-77
2021-10-21 15:35:54.789792,-77
2021-10-21 15:35:54.789800,-55
2021-10-21 15:35:54.789808,-41
2021-10-21 15:35:54.789817,-38
2021-10-21 15:35:54.789825,-38
2021-10-21 15:35:54.789833,-34
2021-10-21 15:35:54.789846,-19
2021-10-21 15:35:54.789855,2
2021-10-21 15:35:54.789863,12
2021-10-21 15:35:54.789871,17
2021-10-21 15:35:54.789879,19
2021-10-21 15:35:54.789888,21
2021-10-21 15:35:54.789896,31
2021-10-21 15:35:54.789904,41
2021-10-21 15:35:54.789918,46
2021-10-21 15:35:54.789927,38
2021-10-21 15:35:54.789935,4
2021-10-21 15:35:54.789943,-4
2021-10-21 15:35:54.789952,14
2021-10-21 15:35:55.013352,21
2021-10-21 15:35:55.013371,21
2021-10-21 15:35:55.013381,24
2021-10-21 15:35:55.013390,19
2021-10-21 15:35:55.013399,7
2021-10-21 15:35:55.013407,2
2021-10-21 15:35:55.013415,14
2021-10-21 15:35:55.013424,17
2021-10-21 15:35:55.013432,14
2021-10-21 15:35:55.013440,17
2021-10-21 15:35:55.013449,21
2021-10-21 15:35:55.013457,26
2021-10-21 15:35:55.013465,34
2021-10-21 15:35:55.013474,41
2021-10-21 15:35:55.013482,34
2021-10-21 15:35:55.013490,14
2021-10-21 15:35:55.013498,14
2021-10-21 15:35:55.013507,31
2021-10-21 15:35:55.013515,36
2021-10-21 15:35:55.013523,41
2021-10-21 15:35:55.013531,46
2021-10-21 15:35:55.013540,29
2021-10-21 15:35:55.013548,19
2021-10-21 15:35:55.013556,34
2021-10-21 15:35:55.013564,46
2021-10-21 15:35:55.013572,43
2021-10-21 15:35:55.013581,46
2021-10-21 15:35:55.013589,65
2021-10-21 15:35:55.013601,82
2021-10-21 15:35:55.013610,80
2021-10-21 15:35:55.239622,65
2021-10-21 15:35:55.239641,46
2021-10-21 15:35:55.239650,46
2021-10-21 15:35:55.239659,60
2021-10-21 15:35:55.239668,65
2021-10-21 15:35:55.239676,41
2021-10-21 15:35:55.239684,-7
2021-10-21 15:35:55.239692,7
2021-10-21 15:35:55.239701,55
2021-10-21 15:35:55.239709,31
2021-10-21 15:35:55.239717,14
2021-10-21 15:35:55.239725,7
2021-10-21 15:35:55.239733,-55
2021-10-21 15:35:55.239742,-116
2021-10-21 15:35:55.239757,-51
2021-10-21 15:35:55.239765,389
2021-10-21 15:35:55.239774,1309
2021-10-21 15:35:55.239782,1990
2021-10-21 15:35:55.239790,1416
2021-10-21 15:35:55.239799,163
2021-10-21 15:35:55.239807,-214
2021-10-21 15:35:55.239815,58
2021-10-21 15:35:55.239823,-24
2021-10-21 15:35:55.239832,-172
2021-10-21 15:35:55.239840,-72
2021-10-21 15:35:55.239848,-41
2021-10-21 15:35:55.239856,-99
2021-10-21 15:35:55.239865,-75
2021-10-21 15:35:55.239873,-31
2021-10-21 15:35:55.239881,-36
2021-10-21 15:35:55.463991,-26
2021-10-21 15:35:55.464009,-4
2021-10-21 15:35:55.464019,-19
2021-10-21 15:35:55.464027,-26
2021-10-21 15:35:55.464036,2
2021-10-21 15:35:55.464044,17
2021-10-21 15:35:55.464053,17
2021-10-21 15:35:55.464061,31
2021-10-21 15:35:55.464069,34
2021-10-21 15:35:55.464078,31
2021-10-21 15:35:55.464086,65
2021-10-21 15:35:55.464094,94
2021-10-21 15:35:55.464102,92
2021-10-21 15:35:55.464111,87
2021-10-21 15:35:55.464119,72
2021-10-21 15:35:55.464127,55
2021-10-21 15:35:55.464136,51
2021-10-21 15:35:55.464144,38
2021-10-21 15:35:55.464152,17
2021-10-21 15:35:55.464161,-19
2021-10-21 15:35:55.464169,-53
2021-10-21 15:35:55.464177,-55
2021-10-21 15:35:55.464185,-48
2021-10-21 15:35:55.464194,-51
2021-10-21 15:35:55.464202,-51
2021-10-21 15:35:55.464210,-53
2021-10-21 15:35:55.464218,-55
2021-10-21 15:35:55.464227,-51
2021-10-21 15:35:55.464235,-41
2021-10-21 15:35:55.464243,-29
2021-10-21 15:35:55.689654,-24
2021-10-21 15:35:55.689674,-19
2021-10-21 15:35:55.689684,-4
2021-10-21 15:35:55.689693,-4
2021-10-21 15:35:55.689702,2
2021-10-21 15:35:55.689710,21
2021-10-21 15:35:55.689719,19
2021-10-21 15:35:55.689727,4
2021-10-21 15:35:55.689736,2
2021-10-21 15:35:55.689744,12
2021-10-21 15:35:55.689755,12
2021-10-21 15:35:55.689764,0
2021-10-21 15:35:55.689772,-4
2021-10-21 15:35:55.689780,-17
2021-10-21 15:35:55.689789,-21
2021-10-21 15:35:55.689797,-9
2021-10-21 15:35:55.689805,-2
2021-10-21 15:35:55.689814,2
2021-10-21 15:35:55.689822,2
2021-10-21 15:35:55.689830,0
2021-10-21 15:35:55.689838,7
2021-10-21 15:35:55.689853,9
2021-10-21 15:35:55.689865,4
2021-10-21 15:35:55.689873,9
2021-10-21 15:35:55.689882,17
2021-10-21 15:35:55.689890,14
2021-10-21 15:35:55.689898,12
2021-10-21 15:35:55.689907,14
2021-10-21 15:35:55.689915,26
2021-10-21 15:35:55.689933,34
2021-10-21 15:35:55.869610,36
2021-10-21 15:35:55.869628,34
2021-10-21 15:35:55.869638,34
2021-10-21 15:35:55.869647,36
2021-10-21 15:35:55.869656,36
2021-10-21 15:35:55.869664,41
2021-10-21 15:35:55.869672,38
2021-10-21 15:35:55.869681,31
2021-10-21 15:35:55.869689,36
2021-10-21 15:35:55.869697,36
2021-10-21 15:35:55.869706,34
2021-10-21 15:35:55.869714,41
2021-10-21 15:35:55.869723,38
2021-10-21 15:35:55.869731,21
2021-10-21 15:35:55.869739,19
2021-10-21 15:35:55.869748,26
2021-10-21 15:35:55.869756,34
2021-10-21 15:35:55.869764,36
2021-10-21 15:35:55.869772,26
2021-10-21 15:35:55.869781,17
2021-10-21 15:35:55.869789,29
2021-10-21 15:35:55.869797,43
2021-10-21 15:35:55.869805,21
2021-10-21 15:35:55.869813,-51
2021-10-21 15:35:55.869827,-94
2021-10-21 15:35:55.869835,116
2021-10-21 15:35:55.869844,793
2021-10-21 15:35:55.869852,1652
2021-10-21 15:35:55.869860,1725
2021-10-21 15:35:55.869868,632
2021-10-21 15:35:56.184001,-262
2021-10-21 15:35:56.184020,-94
2021-10-21 15:35:56.184030,80
2021-10-21 15:35:56.184039,-136
2021-10-21 15:35:56.184048,-138
2021-10-21 15:35:56.184056,-29
2021-10-21 15:35:56.184064,-68
2021-10-21 15:35:56.184073,-72
2021-10-21 15:35:56.184081,-14
2021-10-21 15:35:56.184089,-14
2021-10-21 15:35:56.184098,-29
2021-10-21 15:35:56.184106,2
2021-10-21 15:35:56.184115,41
2021-10-21 15:35:56.184123,48
2021-10-21 15:35:56.184131,51
2021-10-21 15:35:56.184140,51
2021-10-21 15:35:56.184148,60
2021-10-21 15:35:56.184156,85
2021-10-21 15:35:56.184164,109
2021-10-21 15:35:56.184173,128
2021-10-21 15:35:56.184181,148
2021-10-21 15:35:56.184189,150
2021-10-21 15:35:56.184198,136
2021-10-21 15:35:56.184206,114
2021-10-21 15:35:56.184214,111
2021-10-21 15:35:56.184223,126
2021-10-21 15:35:56.184231,116
2021-10-21 15:35:56.184239,92
2021-10-21 15:35:56.184247,82
2021-10-21 15:35:56.184256,65
2021-10-21 15:35:56.364610,38
2021-10-21 15:35:56.364633,21
2021-10-21 15:35:56.364642,2
2021-10-21 15:35:56.364651,-19
2021-10-21 15:35:56.364660,-38
2021-10-21 15:35:56.364668,-63
2021-10-21 15:35:56.364676,-77
2021-10-21 15:35:56.364685,-60
2021-10-21 15:35:56.364693,-46
2021-10-21 15:35:56.364701,-51
2021-10-21 15:35:56.364710,-51
2021-10-21 15:35:56.364718,-46
2021-10-21 15:35:56.364726,-38
2021-10-21 15:35:56.364735,-38
2021-10-21 15:35:56.364748,-77
2021-10-21 15:35:56.364757,-138
2021-10-21 15:35:56.364765,-170
2021-10-21 15:35:56.364773,-160
2021-10-21 15:35:56.364782,-121
2021-10-21 15:35:56.364790,-68
2021-10-21 15:35:56.364798,-24
2021-10-21 15:35:56.364806,-14
2021-10-21 15:35:56.364814,-34
2021-10-21 15:35:56.364823,-31
2021-10-21 15:35:56.364831,-19
2021-10-21 15:35:56.364839,-21
2021-10-21 15:35:56.364847,-17
2021-10-21 15:35:56.364855,-14
2021-10-21 15:35:56.364863,-26
2021-10-21 15:35:56.364872,-19
2021-10-21 15:35:56.589057,-9
2021-10-21 15:35:56.589076,-12
2021-10-21 15:35:56.589086,-14
2021-10-21 15:35:56.589094,-19
2021-10-21 15:35:56.589103,-26
2021-10-21 15:35:56.589111,-29
2021-10-21 15:35:56.589120,-17
2021-10-21 15:35:56.589128,-7
2021-10-21 15:35:56.589136,-14
2021-10-21 15:35:56.589145,-4
2021-10-21 15:35:56.589153,19
2021-10-21 15:35:56.589161,31
2021-10-21 15:35:56.589169,31
2021-10-21 15:35:56.589178,34
2021-10-21 15:35:56.589186,38
2021-10-21 15:35:56.589194,14
2021-10-21 15:35:56.589202,-19
2021-10-21 15:35:56.589211,-4
2021-10-21 15:35:56.589219,4
2021-10-21 15:35:56.589227,-12
2021-10-21 15:35:56.589236,-4
2021-10-21 15:35:56.589244,4
2021-10-21 15:35:56.589252,0
2021-10-21 15:35:56.589261,2
2021-10-21 15:35:56.589269,-7
2021-10-21 15:35:56.589278,-75
2021-10-21 15:35:56.589286,-172
2021-10-21 15:35:56.589294,-82
2021-10-21 15:35:56.589302,428
2021-10-21 15:35:56.589311,1301
2021-10-21 15:35:56.814623,1790
2021-10-21 15:35:56.814641,1048
2021-10-21 15:35:56.814651,-111
2021-10-21 15:35:56.814660,-253
2021-10-21 15:35:56.814674,43
2021-10-21 15:35:56.814683,-102
2021-10-21 15:35:56.814692,-209
2021-10-21 15:35:56.814700,-80
2021-10-21 15:35:56.814708,-72
2021-10-21 15:35:56.814717,-145
2021-10-21 15:35:56.814728,-124
2021-10-21 15:35:56.814737,-85
2021-10-21 15:35:56.814745,-90
2021-10-21 15:35:56.814753,-80
2021-10-21 15:35:56.814762,-53
2021-10-21 15:35:56.814770,-43
2021-10-21 15:35:56.814778,-29
2021-10-21 15:35:56.814786,-7
2021-10-21 15:35:56.814795,-4
2021-10-21 15:35:56.814803,-17
2021-10-21 15:35:56.814811,-12
2021-10-21 15:35:56.814820,0
2021-10-21 15:35:56.814828,9
2021-10-21 15:35:56.814836,31
2021-10-21 15:35:56.814844,26
2021-10-21 15:35:56.814853,19
2021-10-21 15:35:56.814861,19
2021-10-21 15:35:56.814869,-14
2021-10-21 15:35:56.814877,-34
2021-10-21 15:35:56.814885,-48
2021-10-21 15:35:57.128364,-80
2021-10-21 15:35:57.128383,-72
2021-10-21 15:35:57.128393,-77
2021-10-21 15:35:57.128404,-111
2021-10-21 15:35:57.128413,-124
2021-10-21 15:35:57.128422,-128
2021-10-21 15:35:57.128430,-131
2021-10-21 15:35:57.128438,-121
2021-10-21 15:35:57.128447,-131
2021-10-21 15:35:57.128455,-153
2021-10-21 15:35:57.128464,-145
2021-10-21 15:35:57.128472,-121
2021-10-21 15:35:57.128480,-97
2021-10-21 15:35:57.128488,-87
2021-10-21 15:35:57.128497,-85
2021-10-21 15:35:57.128505,-72
2021-10-21 15:35:57.128513,-29
2021-10-21 15:35:57.128522,12
2021-10-21 15:35:57.128530,-7
2021-10-21 15:35:57.128538,-31
2021-10-21 15:35:57.128547,-19
2021-10-21 15:35:57.128555,-24
2021-10-21 15:35:57.128563,-41
2021-10-21 15:35:57.128572,-34
2021-10-21 15:35:57.128585,-24
2021-10-21 15:35:57.128594,-36
2021-10-21 15:35:57.128602,-58
2021-10-21 15:35:57.128610,-53
2021-10-21 15:35:57.128619,-41
2021-10-21 15:35:57.128627,-51
2021-10-21 15:35:57.264626,-63
2021-10-21 15:35:57.264645,-75
2021-10-21 15:35:57.264654,-102
2021-10-21 15:35:57.264663,-111
2021-10-21 15:35:57.264672,-94
2021-10-21 15:35:57.264680,-94
2021-10-21 15:35:57.264688,-102
2021-10-21 15:35:57.264697,-121
2021-10-21 15:35:57.264705,-175
2021-10-21 15:35:57.264713,-206
2021-10-21 15:35:57.264722,-180
2021-10-21 15:35:57.264730,-163
2021-10-21 15:35:57.264738,-148
2021-10-21 15:35:57.264746,-124
2021-10-21 15:35:57.264754,-126
2021-10-21 15:35:57.264762,-119
2021-10-21 15:35:57.264771,-102
2021-10-21 15:35:57.264779,-107
2021-10-21 15:35:57.264787,-111
2021-10-21 15:35:57.264795,-102
2021-10-21 15:35:57.264803,-90
2021-10-21 15:35:57.264811,-41
2021-10-21 15:35:57.264820,38
2021-10-21 15:35:57.264828,63
2021-10-21 15:35:57.264836,34
2021-10-21 15:35:57.264844,29
2021-10-21 15:35:57.264852,58
2021-10-21 15:35:57.264860,31
2021-10-21 15:35:57.264869,-2
2021-10-21 15:35:57.264877,294
2021-10-21 15:35:57.534578,1097
2021-10-21 15:35:57.534596,2041
2021-10-21 15:35:57.534605,2333
2021-10-21 15:35:57.534614,1484
2021-10-21 15:35:57.534623,530
2021-10-21 15:35:57.534631,535
2021-10-21 15:35:57.534639,664
2021-10-21 15:35:57.534648,377
2021-10-21 15:35:57.534656,338
2021-10-21 15:35:57.534664,491
2021-10-21 15:35:57.534673,464
2021-10-21 15:35:57.534681,549
2021-10-21 15:35:57.534689,747
2021-10-21 15:35:57.534698,795
2021-10-21 15:35:57.534706,841
2021-10-21 15:35:57.534715,958
2021-10-21 15:35:57.534723,1041
2021-10-21 15:35:57.534732,1085
2021-10-21 15:35:57.534740,1070
2021-10-21 15:35:57.534748,1041
2021-10-21 15:35:57.534757,1077
2021-10-21 15:35:57.534765,1070
2021-10-21 15:35:57.534773,985
2021-10-21 15:35:57.534782,961
2021-10-21 15:35:57.534790,985
2021-10-21 15:35:57.534799,941
2021-10-21 15:35:57.534807,854
2021-10-21 15:35:57.534815,771
2021-10-21 15:35:57.534824,669
2021-10-21 15:35:57.534832,566
2021-10-21 15:35:57.714679,479
2021-10-21 15:35:57.714698,384
2021-10-21 15:35:57.714707,289
2021-10-21 15:35:57.714716,194
2021-10-21 15:35:57.714724,111
2021-10-21 15:35:57.714733,51
2021-10-21 15:35:57.714741,4
2021-10-21 15:35:57.714749,-24
2021-10-21 15:35:57.714758,-36
2021-10-21 15:35:57.714766,-51
2021-10-21 15:35:57.714774,-51
2021-10-21 15:35:57.714782,-36
2021-10-21 15:35:57.714791,-63
2021-10-21 15:35:57.714799,-92
2021-10-21 15:35:57.714807,-60
2021-10-21 15:35:57.714815,-4
2021-10-21 15:35:57.714826,24
2021-10-21 15:35:57.714840,53
2021-10-21 15:35:57.714849,72
2021-10-21 15:35:57.714857,70
2021-10-21 15:35:57.714865,77
2021-10-21 15:35:57.714874,46
2021-10-21 15:35:57.714882,21
2021-10-21 15:35:57.714891,70
2021-10-21 15:35:57.714899,85
2021-10-21 15:35:57.714907,68
2021-10-21 15:35:57.714915,104
2021-10-21 15:35:57.714923,114
2021-10-21 15:35:57.714931,77
2021-10-21 15:35:57.714940,58
2021-10-21 15:35:57.939626,48
2021-10-21 15:35:57.939644,48
2021-10-21 15:35:57.939654,53
2021-10-21 15:35:57.939663,24
2021-10-21 15:35:57.939677,-4
2021-10-21 15:35:57.939686,0
2021-10-21 15:35:57.939699,0
2021-10-21 15:35:57.939708,-7
2021-10-21 15:35:57.939716,-2
2021-10-21 15:35:57.939724,2
2021-10-21 15:35:57.939732,24
2021-10-21 15:35:57.939741,48
2021-10-21 15:35:57.939749,48
2021-10-21 15:35:57.939757,48
2021-10-21 15:35:57.939766,60
2021-10-21 15:35:57.939774,53
2021-10-21 15:35:57.939782,43
2021-10-21 15:35:57.939790,46
2021-10-21 15:35:57.939799,51
2021-10-21 15:35:57.939807,63
2021-10-21 15:35:57.939815,72
2021-10-21 15:35:57.939823,70
2021-10-21 15:35:57.939832,72
2021-10-21 15:35:57.939840,77
2021-10-21 15:35:57.939848,80
2021-10-21 15:35:57.939860,63
2021-10-21 15:35:57.939868,2
2021-10-21 15:35:57.939877,-36
2021-10-21 15:35:57.939885,148
2021-10-21 15:35:57.939893,756
2021-10-21 15:35:58.164653,1574
2021-10-21 15:35:58.164672,1713
2021-10-21 15:35:58.164681,722
2021-10-21 15:35:58.164690,-165
2021-10-21 15:35:58.164699,-48
2021-10-21 15:35:58.164708,124
2021-10-21 15:35:58.164716,-68
2021-10-21 15:35:58.164725,-70
2021-10-21 15:35:58.164733,29
2021-10-21 15:35:58.164742,-4
2021-10-21 15:35:58.164750,-9
2021-10-21 15:35:58.164759,36
2021-10-21 15:35:58.164767,46
2021-10-21 15:35:58.164775,68
2021-10-21 15:35:58.164784,109
2021-10-21 15:35:58.164792,116
2021-10-21 15:35:58.164800,107
2021-10-21 15:35:58.164808,119
2021-10-21 15:35:58.164817,143
2021-10-21 15:35:58.164825,160
2021-10-21 15:35:58.164833,172
2021-10-21 15:35:58.164842,194
2021-10-21 15:35:58.164850,211
2021-10-21 15:35:58.164858,218
2021-10-21 15:35:58.164872,228
2021-10-21 15:35:58.164880,231
2021-10-21 15:35:58.164889,238
2021-10-21 15:35:58.164897,253
2021-10-21 15:35:58.164905,240
2021-10-21 15:35:58.164914,216
2021-10-21 15:35:58.479100,209
2021-10-21 15:35:58.479118,192
2021-10-21 15:35:58.479127,158
2021-10-21 15:35:58.479136,116
2021-10-21 15:35:58.479144,72
2021-10-21 15:35:58.479153,7
2021-10-21 15:35:58.479161,-80
2021-10-21 15:35:58.479169,-109
2021-10-21 15:35:58.479177,-75
2021-10-21 15:35:58.479186,-77
2021-10-21 15:35:58.479194,-99
2021-10-21 15:35:58.479202,-87
2021-10-21 15:35:58.479210,-46
2021-10-21 15:35:58.479218,19
2021-10-21 15:35:58.479227,85
2021-10-21 15:35:58.479235,72
2021-10-21 15:35:58.479243,0
2021-10-21 15:35:58.479252,-17
2021-10-21 15:35:58.479260,12
2021-10-21 15:35:58.479268,17
2021-10-21 15:35:58.479276,21
2021-10-21 15:35:58.479285,68
2021-10-21 15:35:58.479293,116
2021-10-21 15:35:58.479301,99
2021-10-21 15:35:58.479309,72
2021-10-21 15:35:58.479318,102
2021-10-21 15:35:58.479326,119
2021-10-21 15:35:58.479335,107
2021-10-21 15:35:58.479343,107
2021-10-21 15:35:58.479351,107
2021-10-21 15:35:58.659718,104
2021-10-21 15:35:58.659738,97
2021-10-21 15:35:58.659747,85
2021-10-21 15:35:58.659756,72
2021-10-21 15:35:58.659765,82
2021-10-21 15:35:58.659773,90
2021-10-21 15:35:58.659781,77
2021-10-21 15:35:58.659790,77
2021-10-21 15:35:58.659798,72
2021-10-21 15:35:58.659806,36
2021-10-21 15:35:58.659814,9
2021-10-21 15:35:58.659822,21
2021-10-21 15:35:58.659835,24
2021-10-21 15:35:58.659844,17
2021-10-21 15:35:58.659852,17
2021-10-21 15:35:58.659861,12
2021-10-21 15:35:58.659869,4
2021-10-21 15:35:58.659878,14
2021-10-21 15:35:58.659886,12
2021-10-21 15:35:58.659894,-53
2021-10-21 15:35:58.659902,-136
2021-10-21 15:35:58.659911,-53
2021-10-21 15:35:58.659919,435
2021-10-21 15:35:58.659927,1262
2021-10-21 15:35:58.659936,1683
2021-10-21 15:35:58.659944,934
2021-10-21 15:35:58.659958,-138
2021-10-21 15:35:58.659967,-209
2021-10-21 15:35:58.659975,90
2021-10-21 15:35:58.659984,-55
2021-10-21 15:35:58.884657,-148
2021-10-21 15:35:58.884676,-34
2021-10-21 15:35:58.884686,-41
2021-10-21 15:35:58.884694,-82
2021-10-21 15:35:58.884702,-38
2021-10-21 15:35:58.884711,-9
2021-10-21 15:35:58.884719,-19
2021-10-21 15:35:58.884727,-14
2021-10-21 15:35:58.884736,-4
2021-10-21 15:35:58.884744,-12
2021-10-21 15:35:58.884752,-7
2021-10-21 15:35:58.884761,4
2021-10-21 15:35:58.884769,9
2021-10-21 15:35:58.884777,31
2021-10-21 15:35:58.884785,41
2021-10-21 15:35:58.884794,41
2021-10-21 15:35:58.884802,68
2021-10-21 15:35:58.884810,97
2021-10-21 15:35:58.884818,99
2021-10-21 15:35:58.884826,99
2021-10-21 15:35:58.884835,99
2021-10-21 15:35:58.884843,82
2021-10-21 15:35:58.884851,72
2021-10-21 15:35:58.884859,68
2021-10-21 15:35:58.884868,51
2021-10-21 15:35:58.884876,17
2021-10-21 15:35:58.884884,-14
2021-10-21 15:35:58.884893,-26
2021-10-21 15:35:58.884901,-36
2021-10-21 15:35:58.884909,-46
2021-10-21 15:35:59.153273,-43
2021-10-21 15:35:59.153291,-41
2021-10-21 15:35:59.153301,-48
2021-10-21 15:35:59.153310,-43
2021-10-21 15:35:59.153324,-34
2021-10-21 15:35:59.153333,-24
2021-10-21 15:35:59.153341,-12
2021-10-21 15:35:59.153349,-9
2021-10-21 15:35:59.153358,-21
2021-10-21 15:35:59.153366,-31
2021-10-21 15:35:59.153375,-29
2021-10-21 15:35:59.153383,-19
2021-10-21 15:35:59.153391,-12
2021-10-21 15:35:59.153400,-7
2021-10-21 15:35:59.153408,-17
2021-10-21 15:35:59.153416,-26
2021-10-21 15:35:59.153425,-17
2021-10-21 15:35:59.153433,-9
2021-10-21 15:35:59.153441,0
2021-10-21 15:35:59.153450,4
2021-10-21 15:35:59.153458,-4
2021-10-21 15:35:59.153466,-12
2021-10-21 15:35:59.153475,-4
2021-10-21 15:35:59.153483,7
2021-10-21 15:35:59.153491,4
2021-10-21 15:35:59.153500,-4
2021-10-21 15:35:59.153508,-7
2021-10-21 15:35:59.153516,-4
2021-10-21 15:35:59.153524,-7
2021-10-21 15:35:59.153533,0
2021-10-21 15:35:59.379652,17
2021-10-21 15:35:59.379671,29
2021-10-21 15:35:59.379680,29
2021-10-21 15:35:59.379689,29
2021-10-21 15:35:59.379697,29
2021-10-21 15:35:59.379706,26
2021-10-21 15:35:59.379714,24
2021-10-21 15:35:59.379722,7
2021-10-21 15:35:59.379730,-12
2021-10-21 15:35:59.379739,-21
2021-10-21 15:35:59.379747,-19
2021-10-21 15:35:59.379755,-24
2021-10-21 15:35:59.379764,-38
2021-10-21 15:35:59.379772,-46
2021-10-21 15:35:59.379780,-46
2021-10-21 15:35:59.379788,-46
2021-10-21 15:35:59.379796,-94
2021-10-21 15:35:59.379805,-197
2021-10-21 15:35:59.379813,-167
2021-10-21 15:35:59.379821,236
2021-10-21 15:35:59.379830,1039
2021-10-21 15:35:59.379838,1700
2021-10-21 15:35:59.379846,1289
2021-10-21 15:35:59.379855,92
2021-10-21 15:35:59.379869,-364
2021-10-21 15:35:59.379877,-75
2021-10-21 15:35:59.379885,-107
2021-10-21 15:35:59.379894,-284
2021-10-21 15:35:59.379902,-201
2021-10-21 15:35:59.379910,-141
2021-10-21 15:35:59.559691,-187
2021-10-21 15:35:59.559710,-170
2021-10-21 15:35:59.559720,-126
2021-10-21 15:35:59.559728,-131
2021-10-21 15:35:59.559737,-126
2021-10-21 15:35:59.559745,-99
2021-10-21 15:35:59.559754,-97
2021-10-21 15:35:59.559762,-99
2021-10-21 15:35:59.559770,-77
2021-10-21 15:35:59.559778,-55
2021-10-21 15:35:59.559787,-43
2021-10-21 15:35:59.559795,-19
2021-10-21 15:35:59.559803,2
2021-10-21 15:35:59.559811,9
2021-10-21 15:35:59.559820,12
2021-10-21 15:35:59.559828,21
2021-10-21 15:35:59.559836,41
2021-10-21 15:35:59.559844,46
2021-10-21 15:35:59.559853,26
2021-10-21 15:35:59.559861,12
2021-10-21 15:35:59.559869,12
2021-10-21 15:35:59.559877,2
2021-10-21 15:35:59.559888,-12
2021-10-21 15:35:59.559896,-29
2021-10-21 15:35:59.559905,-46
2021-10-21 15:35:59.559913,-58
2021-10-21 15:35:59.559921,-80
2021-10-21 15:35:59.559929,-82
2021-10-21 15:35:59.559938,-48
2021-10-21 15:35:59.559946,-48
2021-10-21 15:35:59.784687,-70
2021-10-21 15:35:59.784705,-48
2021-10-21 15:35:59.784715,-38
2021-10-21 15:35:59.784724,-53
2021-10-21 15:35:59.784732,-43
2021-10-21 15:35:59.784741,-34
2021-10-21 15:35:59.784749,-34
2021-10-21 15:35:59.784758,-24
2021-10-21 15:35:59.784766,-19
2021-10-21 15:35:59.784774,-17
2021-10-21 15:35:59.784783,-9
2021-10-21 15:35:59.784791,-17
2021-10-21 15:35:59.784799,-34
2021-10-21 15:35:59.784808,-21
2021-10-21 15:35:59.784821,-9
2021-10-21 15:35:59.784830,-31
2021-10-21 15:35:59.784838,-41
2021-10-21 15:35:59.784847,-21
2021-10-21 15:35:59.784855,-19
2021-10-21 15:35:59.784863,-24
2021-10-21 15:35:59.784871,-17
2021-10-21 15:35:59.784880,-24
2021-10-21 15:35:59.784888,-53
2021-10-21 15:35:59.784896,-60
2021-10-21 15:35:59.784905,-48
2021-10-21 15:35:59.784913,-38
2021-10-21 15:35:59.784921,-19
2021-10-21 15:35:59.784930,-12
2021-10-21 15:35:59.784938,-26
2021-10-21 15:35:59.784946,-21
2021-10-21 15:36:00.009669,-2
2021-10-21 15:36:00.009687,-9
2021-10-21 15:36:00.009695,-26
2021-10-21 15:36:00.009702,-17
2021-10-21 15:36:00.009709,-2
2021-10-21 15:36:00.009716,0
2021-10-21 15:36:00.009723,14
2021-10-21 15:36:00.009730,21
2021-10-21 15:36:00.009737,9
2021-10-21 15:36:00.009744,12
2021-10-21 15:36:00.009751,7
2021-10-21 15:36:00.009758,-24
2021-10-21 15:36:00.009765,-38
2021-10-21 15:36:00.009772,-19
2021-10-21 15:36:00.009779,-9
2021-10-21 15:36:00.009786,-12
2021-10-21 15:36:00.009793,-7
2021-10-21 15:36:00.009800,-7
2021-10-21 15:36:00.009807,-14
2021-10-21 15:36:00.009814,-12
2021-10-21 15:36:00.009821,-38
2021-10-21 15:36:00.009828,-121
2021-10-21 15:36:00.009835,-138
2021-10-21 15:36:00.009842,155
2021-10-21 15:36:00.009848,895
2021-10-21 15:36:00.009855,1671
2021-10-21 15:36:00.009863,1523
2021-10-21 15:36:00.009869,377
2021-10-21 15:36:00.009876,-316
2021-10-21 15:36:00.009883,-85
2021-10-21 15:36:00.234666,4
2021-10-21 15:36:00.234685,-189
2021-10-21 15:36:00.234695,-160
2021-10-21 15:36:00.234704,-92
2021-10-21 15:36:00.234718,-143
2021-10-21 15:36:00.234727,-136
2021-10-21 15:36:00.234735,-80
2021-10-21 15:36:00.234744,-72
2021-10-21 15:36:00.234752,-72
2021-10-21 15:36:00.234760,-55
2021-10-21 15:36:00.234769,-58
2021-10-21 15:36:00.234777,-48
2021-10-21 15:36:00.234785,-7
2021-10-21 15:36:00.234794,17
2021-10-21 15:36:00.234802,24
2021-10-21 15:36:00.234810,41
2021-10-21 15:36:00.234819,55
2021-10-21 15:36:00.234827,72
2021-10-21 15:36:00.234836,92
2021-10-21 15:36:00.234844,92
2021-10-21 15:36:00.234852,87
2021-10-21 15:36:00.234860,102
2021-10-21 15:36:00.234869,104
2021-10-21 15:36:00.234877,94
2021-10-21 15:36:00.234885,85
2021-10-21 15:36:00.234894,70
2021-10-21 15:36:00.234902,55
2021-10-21 15:36:00.234910,29
2021-10-21 15:36:00.234919,-17
2021-10-21 15:36:00.234927,-38
2021-10-21 15:36:00.504662,-29
2021-10-21 15:36:00.504680,-21
2021-10-21 15:36:00.504690,-36
2021-10-21 15:36:00.504699,-55
2021-10-21 15:36:00.504707,-58
2021-10-21 15:36:00.504716,-43
2021-10-21 15:36:00.504724,-31
2021-10-21 15:36:00.504732,-21
2021-10-21 15:36:00.504741,-14
2021-10-21 15:36:00.504749,-21
2021-10-21 15:36:00.504757,-29
2021-10-21 15:36:00.504766,-12
2021-10-21 15:36:00.504774,7
2021-10-21 15:36:00.504783,17
2021-10-21 15:36:00.504791,21
2021-10-21 15:36:00.504799,14
2021-10-21 15:36:00.504807,7
2021-10-21 15:36:00.504816,14
2021-10-21 15:36:00.504824,24
2021-10-21 15:36:00.504832,26
2021-10-21 15:36:00.504840,26
2021-10-21 15:36:00.504849,14
2021-10-21 15:36:00.504857,4
2021-10-21 15:36:00.504865,14
2021-10-21 15:36:00.504879,24
2021-10-21 15:36:00.504887,29
2021-10-21 15:36:00.504896,19
2021-10-21 15:36:00.504904,7
2021-10-21 15:36:00.504912,9
2021-10-21 15:36:00.504920,19
2021-10-21 15:36:00.729723,24
2021-10-21 15:36:00.729743,26
2021-10-21 15:36:00.729753,24
2021-10-21 15:36:00.729762,14
2021-10-21 15:36:00.729771,14
2021-10-21 15:36:00.729779,29
2021-10-21 15:36:00.729788,48
2021-10-21 15:36:00.729796,63
2021-10-21 15:36:00.729805,51
2021-10-21 15:36:00.729813,21
2021-10-21 15:36:00.729821,26
2021-10-21 15:36:00.729830,36
2021-10-21 15:36:00.729838,19
2021-10-21 15:36:00.729847,2
2021-10-21 15:36:00.729855,-9
2021-10-21 15:36:00.729864,-19
2021-10-21 15:36:00.729872,-9
2021-10-21 15:36:00.729881,4
2021-10-21 15:36:00.729889,4
2021-10-21 15:36:00.729917,4
2021-10-21 15:36:00.729926,4
2021-10-21 15:36:00.729935,-19
2021-10-21 15:36:00.729943,-90
2021-10-21 15:36:00.729952,-158
2021-10-21 15:36:00.729960,-2
2021-10-21 15:36:00.729969,618
2021-10-21 15:36:00.729977,1479
2021-10-21 15:36:00.729986,1664
2021-10-21 15:36:00.729994,683
2021-10-21 15:36:00.730003,-262
2021-10-21 15:36:00.999139,-189
2021-10-21 15:36:00.999158,-12
2021-10-21 15:36:00.999168,-233
2021-10-21 15:36:00.999177,-253
2021-10-21 15:36:00.999186,-143
2021-10-21 15:36:00.999194,-201
2021-10-21 15:36:00.999202,-206
2021-10-21 15:36:00.999211,-119
2021-10-21 15:36:00.999219,-119
2021-10-21 15:36:00.999227,-136
2021-10-21 15:36:00.999235,-99
2021-10-21 15:36:00.999244,-82
2021-10-21 15:36:00.999252,-87
2021-10-21 15:36:00.999261,-77
2021-10-21 15:36:00.999276,-114
2021-10-21 15:36:00.999285,-141
2021-10-21 15:36:00.999293,-55
2021-10-21 15:36:00.999301,19
2021-10-21 15:36:00.999310,0
2021-10-21 15:36:00.999318,-7
2021-10-21 15:36:00.999326,14
2021-10-21 15:36:00.999334,2
2021-10-21 15:36:00.999343,-2
2021-10-21 15:36:00.999351,14
2021-10-21 15:36:00.999359,-9
2021-10-21 15:36:00.999367,-9
2021-10-21 15:36:00.999376,46
2021-10-21 15:36:00.999384,43
2021-10-21 15:36:00.999392,0
2021-10-21 15:36:00.999401,-2
2021-10-21 15:36:01.223322,-9
2021-10-21 15:36:01.223341,-38
2021-10-21 15:36:01.223351,-48
2021-10-21 15:36:01.223359,-46
2021-10-21 15:36:01.223368,-43
2021-10-21 15:36:01.223376,-31
2021-10-21 15:36:01.223383,-34
2021-10-21 15:36:01.223390,-46
2021-10-21 15:36:01.223398,-46
2021-10-21 15:36:01.223404,-36
2021-10-21 15:36:01.223411,-19
2021-10-21 15:36:01.223419,-12
2021-10-21 15:36:01.223427,-17
2021-10-21 15:36:01.223434,-19
2021-10-21 15:36:01.223443,-21
2021-10-21 15:36:01.223451,-17
2021-10-21 15:36:01.223460,-2
2021-10-21 15:36:01.223468,9
2021-10-21 15:36:01.223476,2
2021-10-21 15:36:01.223485,-7
2021-10-21 15:36:01.223493,0
2021-10-21 15:36:01.223501,12
2021-10-21 15:36:01.223510,12
2021-10-21 15:36:01.223518,12
2021-10-21 15:36:01.223526,17
2021-10-21 15:36:01.223535,14
2021-10-21 15:36:01.223543,14
2021-10-21 15:36:01.223551,7
2021-10-21 15:36:01.223559,0
2021-10-21 15:36:01.223568,4
2021-10-21 15:36:01.404677,4
2021-10-21 15:36:01.404695,4
2021-10-21 15:36:01.404704,12
2021-10-21 15:36:01.404713,9
2021-10-21 15:36:01.404727,9
2021-10-21 15:36:01.404736,21
2021-10-21 15:36:01.404744,17
2021-10-21 15:36:01.404753,0
2021-10-21 15:36:01.404761,-2
2021-10-21 15:36:01.404770,-24
2021-10-21 15:36:01.404778,-55
2021-10-21 15:36:01.404787,-58
2021-10-21 15:36:01.404795,-63
2021-10-21 15:36:01.404803,-85
2021-10-21 15:36:01.404811,-70
2021-10-21 15:36:01.404820,-51
2021-10-21 15:36:01.404828,-55
2021-10-21 15:36:01.404836,-60
2021-10-21 15:36:01.404845,-55
2021-10-21 15:36:01.404853,-46
2021-10-21 15:36:01.404861,-46
2021-10-21 15:36:01.404869,-48
2021-10-21 15:36:01.404877,-51
2021-10-21 15:36:01.404885,-53
2021-10-21 15:36:01.404894,-43
2021-10-21 15:36:01.404902,-46
2021-10-21 15:36:01.404910,-82
2021-10-21 15:36:01.404918,-141
2021-10-21 15:36:01.404927,-145
2021-10-21 15:36:01.404935,63
2021-10-21 15:36:01.629746,683
2021-10-21 15:36:01.629766,1528
2021-10-21 15:36:01.629775,1683
2021-10-21 15:36:01.629784,649
2021-10-21 15:36:01.629793,-270
2021-10-21 15:36:01.629801,-167
2021-10-21 15:36:01.629810,0
2021-10-21 15:36:01.629819,-153
2021-10-21 15:36:01.629827,-145
2021-10-21 15:36:01.629836,-82
2021-10-21 15:36:01.629844,-121
2021-10-21 15:36:01.629852,-116
2021-10-21 15:36:01.629861,-60
2021-10-21 15:36:01.629869,-31
2021-10-21 15:36:01.629878,-38
2021-10-21 15:36:01.629886,-34
2021-10-21 15:36:01.629895,-4
2021-10-21 15:36:01.629903,9
2021-10-21 15:36:01.629912,17
2021-10-21 15:36:01.629920,24
2021-10-21 15:36:01.629928,36
2021-10-21 15:36:01.629937,58
2021-10-21 15:36:01.629945,85
2021-10-21 15:36:01.629959,102
2021-10-21 15:36:01.629968,102
2021-10-21 15:36:01.629976,102
2021-10-21 15:36:01.629985,124
2021-10-21 15:36:01.629993,150
2021-10-21 15:36:01.630001,136
2021-10-21 15:36:01.630010,92
2021-10-21 15:36:01.854723,82
2021-10-21 15:36:01.854742,85
2021-10-21 15:36:01.854752,48
2021-10-21 15:36:01.854761,14
2021-10-21 15:36:01.854769,2
2021-10-21 15:36:01.854778,-24
2021-10-21 15:36:01.854786,-43
2021-10-21 15:36:01.854794,-31
2021-10-21 15:36:01.854803,-29
2021-10-21 15:36:01.854811,-60
2021-10-21 15:36:01.854820,-92
2021-10-21 15:36:01.854828,-99
2021-10-21 15:36:01.854836,-121
2021-10-21 15:36:01.854844,-211
2021-10-21 15:36:01.854853,-347
2021-10-21 15:36:01.854861,-457
2021-10-21 15:36:01.854869,-503
2021-10-21 15:36:01.854877,-532
2021-10-21 15:36:01.854885,-559
2021-10-21 15:36:01.854893,-547
2021-10-21 15:36:01.854902,-520
2021-10-21 15:36:01.854910,-510
2021-10-21 15:36:01.854918,-496
2021-10-21 15:36:01.854926,-450
2021-10-21 15:36:01.854934,-357
2021-10-21 15:36:01.854942,-262
2021-10-21 15:36:01.854950,-182
2021-10-21 15:36:01.854959,-97
2021-10-21 15:36:01.854967,-24
2021-10-21 15:36:01.854975,29
2021-10-21 15:36:02.079700,85
2021-10-21 15:36:02.079719,136
2021-10-21 15:36:02.079729,165
2021-10-21 15:36:02.079738,175
2021-10-21 15:36:02.079772,172
2021-10-21 15:36:02.079781,175
2021-10-21 15:36:02.079789,194
2021-10-21 15:36:02.079798,214
2021-10-21 15:36:02.079806,204
2021-10-21 15:36:02.079815,194
2021-10-21 15:36:02.079823,199
2021-10-21 15:36:02.079832,184
2021-10-21 15:36:02.079840,170
2021-10-21 15:36:02.079848,177
2021-10-21 15:36:02.079860,187
2021-10-21 15:36:02.079869,177
2021-10-21 15:36:02.079877,150
2021-10-21 15:36:02.079885,148
2021-10-21 15:36:02.079894,172
2021-10-21 15:36:02.079902,165
2021-10-21 15:36:02.079910,128
2021-10-21 15:36:02.079919,114
2021-10-21 15:36:02.079927,87
2021-10-21 15:36:02.079935,38
2021-10-21 15:36:02.079944,70
2021-10-21 15:36:02.079952,136
2021-10-21 15:36:02.079960,116
2021-10-21 15:36:02.079968,77
2021-10-21 15:36:02.079976,85
2021-10-21 15:36:02.079985,77
2021-10-21 15:36:02.394691,34
2021-10-21 15:36:02.394709,19
2021-10-21 15:36:02.394719,46
2021-10-21 15:36:02.394728,4
2021-10-21 15:36:02.394736,-119
2021-10-21 15:36:02.394745,-97
2021-10-21 15:36:02.394753,296
2021-10-21 15:36:02.394761,1063
2021-10-21 15:36:02.394770,1654
2021-10-21 15:36:02.394778,1180
2021-10-21 15:36:02.394786,12
2021-10-21 15:36:02.394795,-382
2021-10-21 15:36:02.394803,-97
2021-10-21 15:36:02.394812,-158
2021-10-21 15:36:02.394820,-338
2021-10-21 15:36:02.394828,-257
2021-10-21 15:36:02.394836,-192
2021-10-21 15:36:02.394845,-223
2021-10-21 15:36:02.394853,-211
2021-10-21 15:36:02.394862,-189
2021-10-21 15:36:02.394870,-216
2021-10-21 15:36:02.394878,-228
2021-10-21 15:36:02.394886,-184
2021-10-21 15:36:02.394895,-158
2021-10-21 15:36:02.394903,-160
2021-10-21 15:36:02.394911,-145
2021-10-21 15:36:02.394919,-121
2021-10-21 15:36:02.394927,-109
2021-10-21 15:36:02.394935,-99
2021-10-21 15:36:02.394944,-77
2021-10-21 15:36:02.574750,-48
2021-10-21 15:36:02.574769,-12
2021-10-21 15:36:02.574778,-4
2021-10-21 15:36:02.574787,-36
2021-10-21 15:36:02.574795,-36
2021-10-21 15:36:02.574804,-7
2021-10-21 15:36:02.574812,0
2021-10-21 15:36:02.574821,-17
2021-10-21 15:36:02.574829,-58
2021-10-21 15:36:02.574837,-99
2021-10-21 15:36:02.574846,-107
2021-10-21 15:36:02.574854,-109
2021-10-21 15:36:02.574862,-104
2021-10-21 15:36:02.574871,-107
2021-10-21 15:36:02.574879,-145
2021-10-21 15:36:02.574887,-172
2021-10-21 15:36:02.574896,-150
2021-10-21 15:36:02.574904,-119
2021-10-21 15:36:02.574913,-119
2021-10-21 15:36:02.574921,-116
2021-10-21 15:36:02.574929,-116
2021-10-21 15:36:02.574937,-124
2021-10-21 15:36:02.574945,-99
2021-10-21 15:36:02.574954,-75
2021-10-21 15:36:02.574962,-85
2021-10-21 15:36:02.574970,-87
2021-10-21 15:36:02.574979,-82
2021-10-21 15:36:02.574987,-90
2021-10-21 15:36:02.574995,-75
2021-10-21 15:36:02.575004,-48
2021-10-21 15:36:02.799713,-53
2021-10-21 15:36:02.799732,-63
2021-10-21 15:36:02.799742,-65
2021-10-21 15:36:02.799751,-72
2021-10-21 15:36:02.799759,-70
2021-10-21 15:36:02.799768,-72
2021-10-21 15:36:02.799776,-75
2021-10-21 15:36:02.799784,-97
2021-10-21 15:36:02.799793,-153
2021-10-21 15:36:02.799801,-170
2021-10-21 15:36:02.799809,-116
2021-10-21 15:36:02.799818,-60
2021-10-21 15:36:02.799826,-31
2021-10-21 15:36:02.799835,-41
2021-10-21 15:36:02.799843,-75
2021-10-21 15:36:02.799851,-85
2021-10-21 15:36:02.799860,-85
2021-10-21 15:36:02.799868,-77
2021-10-21 15:36:02.799883,-41
2021-10-21 15:36:02.799891,-34
2021-10-21 15:36:02.799900,-80
2021-10-21 15:36:02.799908,-70
2021-10-21 15:36:02.799916,-17
2021-10-21 15:36:02.799924,-9
2021-10-21 15:36:02.799937,-12
2021-10-21 15:36:02.799945,-14
2021-10-21 15:36:02.799954,-60
2021-10-21 15:36:02.799962,-63
2021-10-21 15:36:02.799971,2
2021-10-21 15:36:02.799979,-2
2021-10-21 15:36:03.024699,-111
2021-10-21 15:36:03.024718,-119
2021-10-21 15:36:03.024727,0
2021-10-21 15:36:03.024736,-12
2021-10-21 15:36:03.024744,-119
2021-10-21 15:36:03.024753,-85
2021-10-21 15:36:03.024761,-4
2021-10-21 15:36:03.024770,-43
2021-10-21 15:36:03.024778,-121
2021-10-21 15:36:03.024787,-138
2021-10-21 15:36:03.024795,-153
2021-10-21 15:36:03.024803,-160
2021-10-21 15:36:03.024812,204
2021-10-21 15:36:03.024820,1068
2021-10-21 15:36:03.024829,1596
2021-10-21 15:36:03.024837,978
2021-10-21 15:36:03.024846,-36
2021-10-21 15:36:03.024854,-233
2021-10-21 15:36:03.024863,-21
2021-10-21 15:36:03.024871,-148
2021-10-21 15:36:03.024879,-284
2021-10-21 15:36:03.024888,-223
2021-10-21 15:36:03.024896,-206
2021-10-21 15:36:03.024905,-226
2021-10-21 15:36:03.024913,-194
2021-10-21 15:36:03.024921,-172
2021-10-21 15:36:03.024930,-155
2021-10-21 15:36:03.024938,-99
2021-10-21 15:36:03.024946,-48
2021-10-21 15:36:03.024955,-24
2021-10-21 15:36:03.338333,4
2021-10-21 15:36:03.338351,26
2021-10-21 15:36:03.338361,31
2021-10-21 15:36:03.338369,55
2021-10-21 15:36:03.338378,92
2021-10-21 15:36:03.338386,121
2021-10-21 15:36:03.338395,163
2021-10-21 15:36:03.338403,199
2021-10-21 15:36:03.338411,177
2021-10-21 15:36:03.338420,160
2021-10-21 15:36:03.338428,240
2021-10-21 15:36:03.338436,347
2021-10-21 15:36:03.338445,374
2021-10-21 15:36:03.338453,330
2021-10-21 15:36:03.338468,291
2021-10-21 15:36:03.338476,318
2021-10-21 15:36:03.338485,382
2021-10-21 15:36:03.338493,413
2021-10-21 15:36:03.338501,472
2021-10-21 15:36:03.338509,588
2021-10-21 15:36:03.338518,659
2021-10-21 15:36:03.338526,708
2021-10-21 15:36:03.338535,834
2021-10-21 15:36:03.338543,917
2021-10-21 15:36:03.338551,966
2021-10-21 15:36:03.338559,1116
2021-10-21 15:36:03.338568,1296
2021-10-21 15:36:03.338576,1384
2021-10-21 15:36:03.338584,1421
2021-10-21 15:36:03.338593,1523
2021-10-21 15:36:03.474674,1657
2021-10-21 15:36:03.474692,1739
2021-10-21 15:36:03.474702,1790
2021-10-21 15:36:03.474711,1812
2021-10-21 15:36:03.474719,1839
2021-10-21 15:36:03.474728,1871
2021-10-21 15:36:03.474736,1849
2021-10-21 15:36:03.474744,1832
2021-10-21 15:36:03.474753,1871
2021-10-21 15:36:03.474761,1922
2021-10-21 15:36:03.474772,1953
2021-10-21 15:36:03.474781,1929
2021-10-21 15:36:03.474789,1851
2021-10-21 15:36:03.474797,1805
2021-10-21 15:36:03.474806,1778
2021-10-21 15:36:03.474814,1734
2021-10-21 15:36:03.474822,1683
2021-10-21 15:36:03.474831,1596
2021-10-21 15:36:03.474839,1479
2021-10-21 15:36:03.474848,1457
2021-10-21 15:36:03.474856,1484
2021-10-21 15:36:03.474864,1396
2021-10-21 15:36:03.474873,1238
2021-10-21 15:36:03.474881,1141
2021-10-21 15:36:03.474889,1199
2021-10-21 15:36:03.474898,1379
2021-10-21 15:36:03.474906,1574
2021-10-21 15:36:03.474914,1776
2021-10-21 15:36:03.474923,1983
2021-10-21 15:36:03.474931,2204
2021-10-21 15:36:03.744222,2469
2021-10-21 15:36:03.744241,2676
2021-10-21 15:36:03.744251,2749
2021-10-21 15:36:03.744260,2776
2021-10-21 15:36:03.744269,2805
2021-10-21 15:36:03.744277,2803
2021-10-21 15:36:03.744286,2773
2021-10-21 15:36:03.744295,2747
2021-10-21 15:36:03.744303,2727
2021-10-21 15:36:03.744312,2693
2021-10-21 15:36:03.744320,2681
2021-10-21 15:36:03.744328,2659
2021-10-21 15:36:03.744337,2562
2021-10-21 15:36:03.744345,2659
2021-10-21 15:36:03.744354,3267
2021-10-21 15:36:03.744362,4078
2021-10-21 15:36:03.744370,4197
2021-10-21 15:36:03.744379,3326
2021-10-21 15:36:03.744387,2574
2021-10-21 15:36:03.744396,2661
2021-10-21 15:36:03.744404,2805
2021-10-21 15:36:03.744412,2661
2021-10-21 15:36:03.744421,2649
2021-10-21 15:36:03.744429,2739
2021-10-21 15:36:03.744437,2730
2021-10-21 15:36:03.744446,2722
2021-10-21 15:36:03.744454,2795
2021-10-21 15:36:03.744463,2820
2021-10-21 15:36:03.744471,2790
2021-10-21 15:36:03.744480,2807
2021-10-21 15:36:03.924715,2827
2021-10-21 15:36:03.924734,2820
2021-10-21 15:36:03.924744,2822
2021-10-21 15:36:03.924753,2837
2021-10-21 15:36:03.924762,2851
2021-10-21 15:36:03.924770,2820
2021-10-21 15:36:03.924779,2773
2021-10-21 15:36:03.924787,2771
2021-10-21 15:36:03.924795,2783
2021-10-21 15:36:03.924804,2817
2021-10-21 15:36:03.924812,2873
2021-10-21 15:36:03.924821,2907
2021-10-21 15:36:03.924829,2880
2021-10-21 15:36:03.924838,2837
2021-10-21 15:36:03.924846,2893
2021-10-21 15:36:03.924855,2915
2021-10-21 15:36:03.924863,2844
2021-10-21 15:36:03.924872,2898
2021-10-21 15:36:03.924880,2941
2021-10-21 15:36:03.924888,2900
2021-10-21 15:36:03.924897,2932
2021-10-21 15:36:03.924905,2975
2021-10-21 15:36:03.924913,2992
2021-10-21 15:36:03.924922,2988
2021-10-21 15:36:03.924936,2966
2021-10-21 15:36:03.924945,2975
2021-10-21 15:36:03.924953,2978
2021-10-21 15:36:03.924962,2985
2021-10-21 15:36:03.924970,2988
2021-10-21 15:36:03.924978,2949
2021-10-21 15:36:04.149703,2953
2021-10-21 15:36:04.149722,2983
2021-10-21 15:36:04.149731,2978
2021-10-21 15:36:04.149740,2953
2021-10-21 15:36:04.149749,2917
2021-10-21 15:36:04.149757,2919
2021-10-21 15:36:04.149765,2941
2021-10-21 15:36:04.149774,2941
2021-10-21 15:36:04.149782,2941
2021-10-21 15:36:04.149790,2922
2021-10-21 15:36:04.149799,2919
2021-10-21 15:36:04.149807,2941
2021-10-21 15:36:04.149816,2927
2021-10-21 15:36:04.149824,2924
2021-10-21 15:36:04.149833,2917
2021-10-21 15:36:04.149841,2888
2021-10-21 15:36:04.149849,2885
2021-10-21 15:36:04.149857,2898
2021-10-21 15:36:04.149866,2936
2021-10-21 15:36:04.149874,2971
2021-10-21 15:36:04.149882,2971
2021-10-21 15:36:04.149891,2980
2021-10-21 15:36:04.149899,2968
2021-10-21 15:36:04.149907,2961
2021-10-21 15:36:04.149915,2985
2021-10-21 15:36:04.149924,3005
2021-10-21 15:36:04.149932,3051
2021-10-21 15:36:04.149940,3080
2021-10-21 15:36:04.149949,3073
2021-10-21 15:36:04.149957,3080
2021-10-21 15:36:04.419711,3075
2021-10-21 15:36:04.419730,3082
2021-10-21 15:36:04.419740,3099
2021-10-21 15:36:04.419748,3097
2021-10-21 15:36:04.419757,3114
2021-10-21 15:36:04.419765,3148
2021-10-21 15:36:04.419774,3199
2021-10-21 15:36:04.419782,3250
2021-10-21 15:36:04.419791,3258
2021-10-21 15:36:04.419799,3260
2021-10-21 15:36:04.419807,3265
2021-10-21 15:36:04.419816,3258
2021-10-21 15:36:04.419824,3190
2021-10-21 15:36:04.419833,3187
2021-10-21 15:36:04.419846,3545
2021-10-21 15:36:04.419855,4182
2021-10-21 15:36:04.419864,4620
2021-10-21 15:36:04.419872,4267
2021-10-21 15:36:04.419880,3387
2021-10-21 15:36:04.419888,3097
2021-10-21 15:36:04.419897,3353
2021-10-21 15:36:04.419905,3367
2021-10-21 15:36:04.419913,3309
2021-10-21 15:36:04.419921,3399
2021-10-21 15:36:04.419929,3452
2021-10-21 15:36:04.419938,3477
2021-10-21 15:36:04.419946,3537
2021-10-21 15:36:04.419954,3628
2021-10-21 15:36:04.419962,3703
2021-10-21 15:36:04.419970,3773
2021-10-21 15:36:04.644773,3895
2021-10-21 15:36:04.644792,4039
2021-10-21 15:36:04.644802,4148
2021-10-21 15:36:04.644810,4214
2021-10-21 15:36:04.644819,4314
2021-10-21 15:36:04.644827,4482
2021-10-21 15:36:04.644836,4623
2021-10-21 15:36:04.644844,4764
2021-10-21 15:36:04.644853,4949
2021-10-21 15:36:05.769853,4603
2021-10-21 15:36:05.769868,3771
2021-10-21 15:36:05.769877,2781
2021-10-21 15:36:05.769886,1834
2021-10-21 15:36:05.769894,929
2021-10-21 15:36:05.769903,-82
2021-10-21 15:36:05.769911,-1107
2021-10-21 15:36:05.769920,-2377
2021-10-21 15:36:05.769928,-3598
2021-10-21 15:36:06.039841,-4647
2021-10-21 15:36:06.039880,-5832
2021-10-21 15:36:06.039891,-6990
2021-10-21 15:36:06.039900,-8200
2021-10-21 15:36:06.039907,-9365
2021-10-21 15:36:06.039916,-10370
2021-10-21 15:36:06.039924,-11533
2021-10-21 15:36:06.039933,-12611
2021-10-21 15:36:06.039941,-13689
2021-10-21 15:36:06.039949,-14959
2021-10-21 15:36:06.039958,-15996
2021-10-21 15:36:06.039966,-16916
2021-10-21 15:36:06.039975,-17855
2021-10-21 15:36:06.039983,-18651
2021-10-21 15:36:06.039992,-19376
2021-10-21 15:36:06.040000,-19933
2021-10-21 15:36:06.040015,-19933
2021-10-21 15:36:06.040023,-19933
2021-10-21 15:36:06.040032,-19933
2021-10-21 15:36:06.040040,-19933
2021-10-21 15:36:06.040049,-19933
2021-10-21 15:36:06.040057,-19933
2021-10-21 15:36:06.040065,-19933
2021-10-21 15:36:06.040074,-19933
2021-10-21 15:36:06.040082,-19933
2021-10-21 15:36:06.040091,-19933
2021-10-21 15:36:06.040099,-19933
2021-10-21 15:36:06.040107,-19933
2021-10-21 15:36:06.040115,-19933
2021-10-21 15:36:06.040124,-19933
2021-10-21 15:36:06.264807,-19933
2021-10-21 15:36:06.264827,-19933
2021-10-21 15:36:06.264836,-19933
2021-10-21 15:36:06.264845,-19933
2021-10-21 15:36:06.264854,-19933
2021-10-21 15:36:06.264862,-19933
2021-10-21 15:36:06.264870,-19933
2021-10-21 15:36:06.264879,-19933
2021-10-21 15:36:06.264887,-19933
2021-10-21 15:36:06.264896,-19933
2021-10-21 15:36:06.264904,-19933
2021-10-21 15:36:06.264913,-19933
2021-10-21 15:36:06.264921,-19933
2021-10-21 15:36:06.264930,-19933
2021-10-21 15:36:06.264938,-19933
2021-10-21 15:36:06.264946,-19933
2021-10-21 15:36:06.264955,-19933
2021-10-21 15:36:06.264963,-19933
2021-10-21 15:36:06.264972,-19933
2021-10-21 15:36:06.264980,-19933
2021-10-21 15:36:06.264988,-19933
2021-10-21 15:36:06.264999,-19933
2021-10-21 15:36:06.265008,-19933
2021-10-21 15:36:06.265016,-19933
2021-10-21 15:36:06.265024,-19933
2021-10-21 15:36:06.265033,-19933
2021-10-21 15:36:06.265041,-19933
2021-10-21 15:36:06.265049,-19933
2021-10-21 15:36:06.265058,-19933
2021-10-21 15:36:06.265066,-19933
2021-10-21 15:36:06.489770,-19933
2021-10-21 15:36:06.489789,-19933
2021-10-21 15:36:06.489799,-19933
2021-10-21 15:36:06.489808,-19933
2021-10-21 15:36:06.489817,-19933
2021-10-21 15:36:06.489825,-19933
2021-10-21 15:36:06.489840,-19933
2021-10-21 15:36:06.489848,-19933
2021-10-21 15:36:06.489857,-19933
2021-10-21 15:36:06.489865,-19933
2021-10-21 15:36:06.489874,-19933
2021-10-21 15:36:06.489882,-19578
2021-10-21 15:36:06.489890,-19149
2021-10-21 15:36:06.489899,-18767
2021-10-21 15:36:06.489907,-18412
2021-10-21 15:36:06.489915,-17884
2021-10-21 15:36:06.489924,-17410
2021-10-21 15:36:06.489932,-17030
2021-10-21 15:36:06.489940,-16585
2021-10-21 15:36:06.489948,-16176
2021-10-21 15:36:06.489957,-15770
2021-10-21 15:36:06.489965,-15327
2021-10-21 15:36:06.489973,-14915
2021-10-21 15:36:06.489982,-14538
2021-10-21 15:36:06.489990,-14212
2021-10-21 15:36:06.489998,-13879
2021-10-21 15:36:06.490006,-13553
2021-10-21 15:36:06.490014,-13263
2021-10-21 15:36:06.490022,-12959
2021-10-21 15:36:06.490031,-12691
2021-10-21 15:36:06.714800,-12438
2021-10-21 15:36:06.714819,-12195
2021-10-21 15:36:06.714829,-12000
2021-10-21 15:36:06.714838,-11752
2021-10-21 15:36:06.714846,-11509
2021-10-21 15:36:06.714855,-11334
2021-10-21 15:36:06.714864,-11163
2021-10-21 15:36:06.714872,-11037
2021-10-21 15:36:06.714880,-10871
2021-10-21 15:36:06.714889,-10667
2021-10-21 15:36:06.714897,-10511
2021-10-21 15:36:06.714905,-10358
2021-10-21 15:36:06.714914,-10265
2021-10-21 15:36:06.714922,-10151
2021-10-21 15:36:06.714931,-9927
2021-10-21 15:36:06.714939,-9742
2021-10-21 15:36:06.714947,-9570
2021-10-21 15:36:06.714956,-9368
2021-10-21 15:36:06.714964,-9202
2021-10-21 15:36:06.714972,-9017
2021-10-21 15:36:06.714981,-8813
2021-10-21 15:36:06.714989,-8618
2021-10-21 15:36:06.714997,-8443
2021-10-21 15:36:06.715005,-8268
2021-10-21 15:36:06.715013,-8051
2021-10-21 15:36:06.715022,-7854
2021-10-21 15:36:06.715036,-7669
2021-10-21 15:36:06.715045,-7453
2021-10-21 15:36:06.715053,-7268
2021-10-21 15:36:06.715061,-7075
2021-10-21 15:36:06.939843,-6854
2021-10-21 15:36:06.939871,-6628
2021-10-21 15:36:06.939882,-6406
2021-10-21 15:36:06.939891,-6238
2021-10-21 15:36:06.939899,-6075
2021-10-21 15:36:06.939907,-5881
2021-10-21 15:36:06.939915,-5508
2021-10-21 15:36:06.939924,-4720
2021-10-21 15:36:06.939932,-3752
2021-10-21 15:36:06.939940,-3318
2021-10-21 15:36:06.939949,-3798
2021-10-21 15:36:06.939957,-4287
2021-10-21 15:36:06.939965,-3956
2021-10-21 15:36:06.939974,-3523
2021-10-21 15:36:06.939982,-3404
2021-10-21 15:36:06.939990,-3170
2021-10-21 15:36:06.939999,-2871
2021-10-21 15:36:06.940007,-2679
2021-10-21 15:36:06.940015,-2533
2021-10-21 15:36:06.940023,-2365
2021-10-21 15:36:06.940031,-2175
2021-10-21 15:36:06.940040,-2060
2021-10-21 15:36:06.940048,-1953
2021-10-21 15:36:06.940056,-1827
2021-10-21 15:36:06.940064,-1761
2021-10-21 15:36:06.940073,-1635
2021-10-21 15:36:06.940081,-1489
2021-10-21 15:36:06.940089,-1389
2021-10-21 15:36:06.940097,-1216
2021-10-21 15:36:06.940106,-1048
2021-10-21 15:36:07.164798,-907
2021-10-21 15:36:07.164817,-759
2021-10-21 15:36:07.164827,-639
2021-10-21 15:36:07.164836,-493
2021-10-21 15:36:07.164845,-382
2021-10-21 15:36:07.164853,-291
2021-10-21 15:36:07.164862,-177
2021-10-21 15:36:07.164871,-70
2021-10-21 15:36:07.164879,70
2021-10-21 15:36:07.164888,209
2021-10-21 15:36:07.164896,374
2021-10-21 15:36:07.164905,598
2021-10-21 15:36:07.164913,768
2021-10-21 15:36:07.164921,1031
2021-10-21 15:36:07.164930,1418
2021-10-21 15:36:07.164938,1783
2021-10-21 15:36:07.164952,2250
2021-10-21 15:36:07.164961,2795
2021-10-21 15:36:07.164970,3316
2021-10-21 15:36:07.164978,3851
2021-10-21 15:36:07.164986,4392
2021-10-21 15:36:08.109798,4997
2021-10-21 15:36:08.109813,4932
2021-10-21 15:36:08.109822,4868
2021-10-21 15:36:08.109831,4978
2021-10-21 15:36:08.109849,4963
2021-10-21 15:36:08.109857,4365
2021-10-21 15:36:08.109865,4199
2021-10-21 15:36:08.109874,4297
2021-10-21 15:36:08.109882,4041
2021-10-21 15:36:08.109890,3820
2021-10-21 15:36:08.109899,3710
2021-10-21 15:36:08.109907,3440
2021-10-21 15:36:08.109915,3209
2021-10-21 15:36:08.109923,2905
2021-10-21 15:36:08.109932,2591
2021-10-21 15:36:08.109941,2355
2021-10-21 15:36:08.109949,2034
2021-10-21 15:36:08.109957,1863
2021-10-21 15:36:08.109966,1720
2021-10-21 15:36:08.109974,1535
2021-10-21 15:36:08.109982,1464
2021-10-21 15:36:08.379809,1272
2021-10-21 15:36:08.379829,1041
2021-10-21 15:36:08.379839,771
2021-10-21 15:36:08.379847,357
2021-10-21 15:36:08.379856,-2
2021-10-21 15:36:08.379865,-481
2021-10-21 15:36:08.379873,-1029
2021-10-21 15:36:08.379882,-1530
2021-10-21 15:36:08.379890,-2126
2021-10-21 15:36:08.379899,-2584
2021-10-21 15:36:08.379907,-2988
2021-10-21 15:36:08.379916,-3445
2021-10-21 15:36:08.379924,-3771
2021-10-21 15:36:08.379933,-4129
2021-10-21 15:36:08.379941,-4421
2021-10-21 15:36:08.379949,-4574
2021-10-21 15:36:08.379958,-4735
2021-10-21 15:36:08.379966,-4830
2021-10-21 15:36:08.379974,-4959
2021-10-21 15:36:08.379983,-5092
2021-10-21 15:36:08.379991,-5190
2021-10-21 15:36:08.379999,-5362
2021-10-21 15:36:08.380008,-5479
2021-10-21 15:36:08.380016,-5645
2021-10-21 15:36:08.380031,-5881
2021-10-21 15:36:08.380039,-6039
2021-10-21 15:36:08.380048,-6268
2021-10-21 15:36:08.380056,-6455
2021-10-21 15:36:08.380064,-6543
2021-10-21 15:36:08.380072,-6669
2021-10-21 15:36:08.559740,-6771
2021-10-21 15:36:08.559759,-6917
2021-10-21 15:36:08.559769,-7037
2021-10-21 15:36:08.559777,-7071
2021-10-21 15:36:08.559786,-7158
2021-10-21 15:36:08.559795,-7183
2021-10-21 15:36:08.559803,-7229
2021-10-21 15:36:08.559811,-7333
2021-10-21 15:36:08.559820,-7324
2021-10-21 15:36:08.559828,-7367
2021-10-21 15:36:08.559837,-7438
2021-10-21 15:36:08.559845,-7506
2021-10-21 15:36:08.559854,-7669
2021-10-21 15:36:08.559862,-7793
2021-10-21 15:36:08.559870,-7934
2021-10-21 15:36:08.559879,-8056
2021-10-21 15:36:08.559887,-8093
2021-10-21 15:36:08.559895,-8183
2021-10-21 15:36:08.559904,-8251
2021-10-21 15:36:08.559912,-8312
2021-10-21 15:36:08.559920,-8358
2021-10-21 15:36:08.559929,-8331
2021-10-21 15:36:08.559937,-8394
2021-10-21 15:36:08.559946,-8436
2021-10-21 15:36:08.559954,-8431
2021-10-21 15:36:08.559968,-8482
2021-10-21 15:36:08.559978,-8467
2021-10-21 15:36:08.559986,-8504
2021-10-21 15:36:08.559994,-8538
2021-10-21 15:36:08.560003,-8282
2021-10-21 15:36:08.784876,-7737
2021-10-21 15:36:08.784895,-7229
2021-10-21 15:36:08.784904,-7518
2021-10-21 15:36:08.784913,-8421
2021-10-21 15:36:08.784921,-8711
2021-10-21 15:36:08.784930,-8501
2021-10-21 15:36:08.784938,-8557
2021-10-21 15:36:08.784947,-8669
2021-10-21 15:36:08.784955,-8601
2021-10-21 15:36:08.784963,-8550
2021-10-21 15:36:08.784972,-8635
2021-10-21 15:36:08.784980,-8694
2021-10-21 15:36:08.784988,-8718
2021-10-21 15:36:08.784997,-8784
2021-10-21 15:36:08.785011,-8752
2021-10-21 15:36:08.785020,-8723
2021-10-21 15:36:08.785028,-8715
2021-10-21 15:36:08.785036,-8606
2021-10-21 15:36:08.785045,-8572
2021-10-21 15:36:08.785053,-8545
2021-10-21 15:36:08.785066,-8462
2021-10-21 15:36:08.785075,-8423
2021-10-21 15:36:08.785083,-8336
2021-10-21 15:36:08.785091,-8270
2021-10-21 15:36:08.785100,-8229
2021-10-21 15:36:08.785108,-8095
2021-10-21 15:36:08.785116,-7993
2021-10-21 15:36:08.785125,-7895
2021-10-21 15:36:08.785133,-7769
2021-10-21 15:36:08.785141,-7672
2021-10-21 15:36:09.009767,-7577
2021-10-21 15:36:09.009785,-7506
2021-10-21 15:36:09.009794,-7411
2021-10-21 15:36:09.009803,-7321
2021-10-21 15:36:09.009814,-7231
2021-10-21 15:36:09.009822,-7095
2021-10-21 15:36:09.009831,-7029
2021-10-21 15:36:09.009840,-6929
2021-10-21 15:36:09.009848,-6791
2021-10-21 15:36:09.009856,-6757
2021-10-21 15:36:09.009865,-6676
2021-10-21 15:36:09.009873,-6603
2021-10-21 15:36:09.009881,-6608
2021-10-21 15:36:09.009890,-6533
2021-10-21 15:36:09.009898,-6496
2021-10-21 15:36:09.009906,-6484
2021-10-21 15:36:09.009915,-6426
2021-10-21 15:36:09.009923,-6433
2021-10-21 15:36:09.009931,-6404
2021-10-21 15:36:09.009939,-6345
2021-10-21 15:36:09.009948,-6311
2021-10-21 15:36:09.009956,-6253
2021-10-21 15:36:09.009964,-6217
2021-10-21 15:36:09.009973,-6158
2021-10-21 15:36:09.009981,-6095
2021-10-21 15:36:09.009989,-6061
2021-10-21 15:36:09.009998,-5995
2021-10-21 15:36:09.010006,-5946
2021-10-21 15:36:09.010014,-5873
2021-10-21 15:36:09.010023,-5798
2021-10-21 15:36:09.279782,-5774
2021-10-21 15:36:09.279800,-5691
2021-10-21 15:36:09.279809,-5659
2021-10-21 15:36:09.279818,-5662
2021-10-21 15:36:09.279833,-5577
2021-10-21 15:36:09.279842,-5504
2021-10-21 15:36:09.279850,-5396
2021-10-21 15:36:09.279859,-5292
2021-10-21 15:36:09.279867,-5255
2021-10-21 15:36:09.279875,-5158
2021-10-21 15:36:09.279884,-5061
2021-10-21 15:36:09.279892,-4983
2021-10-21 15:36:09.279900,-4871
2021-10-21 15:36:09.279908,-4815
2021-10-21 15:36:09.279917,-4778
2021-10-21 15:36:09.279925,-4691
2021-10-21 15:36:09.279933,-4362
2021-10-21 15:36:09.279941,-3649
2021-10-21 15:36:09.279949,-3044
2021-10-21 15:36:09.279958,-3321
2021-10-21 15:36:09.279966,-4219
2021-10-21 15:36:09.279974,-4465
2021-10-21 15:36:09.279982,-4053
2021-10-21 15:36:09.279991,-3978
2021-10-21 15:36:09.279999,-4007
2021-10-21 15:36:09.280007,-3778
2021-10-21 15:36:09.280015,-3649
2021-10-21 15:36:09.280023,-3589
2021-10-21 15:36:09.280032,-3474
2021-10-21 15:36:09.280040,-3377
2021-10-21 15:36:09.503415,-3275
2021-10-21 15:36:09.503434,-3197
2021-10-21 15:36:09.503443,-3112
2021-10-21 15:36:09.503452,-3041
2021-10-21 15:36:09.503461,-3000
2021-10-21 15:36:09.503469,-2907
2021-10-21 15:36:09.503478,-2805
2021-10-21 15:36:09.503486,-2717
2021-10-21 15:36:09.503495,-2664
2021-10-21 15:36:09.503503,-2623
2021-10-21 15:36:09.503511,-2491
2021-10-21 15:36:09.503520,-2396
2021-10-21 15:36:09.503528,-2328
2021-10-21 15:36:09.503537,-2202
2021-10-21 15:36:09.503545,-2136
2021-10-21 15:36:09.503553,-2082
2021-10-21 15:36:09.503562,-2009
2021-10-21 15:36:09.503570,-1941
2021-10-21 15:36:09.503579,-1807
2021-10-21 15:36:09.503587,-1717
2021-10-21 15:36:09.503595,-1661
2021-10-21 15:36:09.503604,-1571
2021-10-21 15:36:09.503612,-1494
2021-10-21 15:36:09.503620,-1379
2021-10-21 15:36:09.503634,-1279
2021-10-21 15:36:09.503643,-1216
2021-10-21 15:36:09.503652,-1163
2021-10-21 15:36:09.503660,-1160
2021-10-21 15:36:09.503669,-1099
2021-10-21 15:36:09.503677,-1060
2021-10-21 15:36:09.729835,-1107
2021-10-21 15:36:09.729854,-1034
2021-10-21 15:36:09.729864,-927
2021-10-21 15:36:09.729873,-875
2021-10-21 15:36:09.729881,-815
2021-10-21 15:36:09.729890,-790
2021-10-21 15:36:09.729898,-739
2021-10-21 15:36:09.729907,-683
2021-10-21 15:36:09.729915,-659
2021-10-21 15:36:09.729924,-661
2021-10-21 15:36:09.729932,-747
2021-10-21 15:36:09.729940,-832
2021-10-21 15:36:09.729949,-927
2021-10-21 15:36:09.729957,-1014
2021-10-21 15:36:09.729966,-966
2021-10-21 15:36:09.729974,-990
2021-10-21 15:36:09.729982,-1041
2021-10-21 15:36:09.729991,-863
2021-10-21 15:36:09.729999,-637
2021-10-21 15:36:09.730007,-498
2021-10-21 15:36:09.730016,-408
2021-10-21 15:36:09.730024,-284
2021-10-21 15:36:09.730032,-131
2021-10-21 15:36:09.730041,-63
2021-10-21 15:36:09.730049,60
2021-10-21 15:36:09.730058,221
2021-10-21 15:36:09.730066,262
2021-10-21 15:36:09.730074,311
2021-10-21 15:36:09.730083,372
2021-10-21 15:36:09.730091,416
2021-10-21 15:36:09.954791,442
2021-10-21 15:36:09.954811,411
2021-10-21 15:36:09.954820,372
2021-10-21 15:36:09.954829,352
2021-10-21 15:36:09.954837,571
2021-10-21 15:36:09.954846,1206
2021-10-21 15:36:09.954854,1803
2021-10-21 15:36:09.954862,1635
2021-10-21 15:36:09.954871,722
2021-10-21 15:36:09.954879,218
2021-10-21 15:36:09.954887,489
2021-10-21 15:36:09.954895,545
2021-10-21 15:36:09.954904,379
2021-10-21 15:36:09.954912,459
2021-10-21 15:36:09.954929,464
2021-10-21 15:36:09.954937,386
2021-10-21 15:36:09.954945,425
2021-10-21 15:36:09.954954,489
2021-10-21 15:36:09.954962,513
2021-10-21 15:36:09.954970,501
2021-10-21 15:36:09.954979,520
2021-10-21 15:36:09.954987,542
2021-10-21 15:36:09.954995,552
2021-10-21 15:36:09.955003,622
2021-10-21 15:36:09.955011,627
2021-10-21 15:36:09.955020,637
2021-10-21 15:36:09.955028,720
2021-10-21 15:36:09.955036,729
2021-10-21 15:36:09.955044,759
2021-10-21 15:36:09.955053,802
2021-10-21 15:36:10.314206,798
2021-10-21 15:36:10.314225,829
2021-10-21 15:36:10.314234,839
2021-10-21 15:36:10.314243,861
2021-10-21 15:36:10.314251,900
2021-10-21 15:36:10.314260,900
2021-10-21 15:36:10.314268,946
2021-10-21 15:36:10.314276,985
2021-10-21 15:36:10.314284,1026
2021-10-21 15:36:10.314293,1112
2021-10-21 15:36:10.314301,1143
2021-10-21 15:36:10.314309,1180
2021-10-21 15:36:10.314317,1204
2021-10-21 15:36:10.314326,1204
2021-10-21 15:36:10.314334,1214
2021-10-21 15:36:10.314342,1160
2021-10-21 15:36:10.314350,1146
2021-10-21 15:36:10.314359,1160
2021-10-21 15:36:10.314367,1099
2021-10-21 15:36:10.314375,1085
2021-10-21 15:36:10.314383,1043
2021-10-21 15:36:10.314391,1002
2021-10-21 15:36:10.314399,1039
2021-10-21 15:36:10.314407,1007
2021-10-21 15:36:10.314416,970
2021-10-21 15:36:10.314424,944
2021-10-21 15:36:10.314432,900
2021-10-21 15:36:10.314440,900
2021-10-21 15:36:10.314448,854
2021-10-21 15:36:10.314456,837
2021-10-21 15:36:10.404776,861
2021-10-21 15:36:10.404795,812
2021-10-21 15:36:10.404804,795
2021-10-21 15:36:10.404813,771
2021-10-21 15:36:10.404828,749
2021-10-21 15:36:10.404837,785
2021-10-21 15:36:10.404845,768
2021-10-21 15:36:10.404854,768
2021-10-21 15:36:10.404862,766
2021-10-21 15:36:10.404871,725
2021-10-21 15:36:10.404879,744
2021-10-21 15:36:10.404887,727
2021-10-21 15:36:10.404896,705
2021-10-21 15:36:10.404904,705
2021-10-21 15:36:10.404912,676
2021-10-21 15:36:10.404921,715
2021-10-21 15:36:10.404929,722
2021-10-21 15:36:10.404938,688
2021-10-21 15:36:10.404946,698
2021-10-21 15:36:10.404954,659
2021-10-21 15:36:10.404963,649
2021-10-21 15:36:10.404971,647
2021-10-21 15:36:10.404979,566
2021-10-21 15:36:10.404987,547
2021-10-21 15:36:10.404996,686
2021-10-21 15:36:10.405004,1136
2021-10-21 15:36:10.405012,1773
2021-10-21 15:36:10.405020,1878
2021-10-21 15:36:10.405029,1155
2021-10-21 15:36:10.405037,489
2021-10-21 15:36:10.674819,574
2021-10-21 15:36:10.674840,737
2021-10-21 15:36:10.674850,571
2021-10-21 15:36:10.674859,576
2021-10-21 15:36:10.674867,678
2021-10-21 15:36:10.674876,632
2021-10-21 15:36:10.674884,642
2021-10-21 15:36:10.674893,683
2021-10-21 15:36:10.674901,715
2021-10-21 15:36:10.674910,766
2021-10-21 15:36:10.674918,793
2021-10-21 15:36:10.674927,875
2021-10-21 15:36:10.674935,924
2021-10-21 15:36:10.674944,970
2021-10-21 15:36:10.674952,1099
2021-10-21 15:36:10.674960,1153
2021-10-21 15:36:10.674969,1216
2021-10-21 15:36:10.674977,1304
2021-10-21 15:36:10.674985,1321
2021-10-21 15:36:10.674994,1372
2021-10-21 15:36:10.675002,1394
2021-10-21 15:36:10.675010,1389
2021-10-21 15:36:10.675019,1382
2021-10-21 15:36:10.675027,1335
2021-10-21 15:36:10.675035,1348
2021-10-21 15:36:10.675044,1326
2021-10-21 15:36:10.675052,1277
2021-10-21 15:36:10.675060,1289
2021-10-21 15:36:10.675069,1233
2021-10-21 15:36:10.675077,1189
2021-10-21 15:36:10.854802,1165
2021-10-21 15:36:10.854820,1116
2021-10-21 15:36:10.854830,1121
2021-10-21 15:36:10.854838,1065
2021-10-21 15:36:10.854847,1024
2021-10-21 15:36:10.854856,1034
2021-10-21 15:36:10.854864,990
2021-10-21 15:36:10.854872,987
2021-10-21 15:36:10.854881,966
2021-10-21 15:36:10.854889,914
2021-10-21 15:36:10.854898,934
2021-10-21 15:36:10.854906,907
2021-10-21 15:36:10.854914,890
2021-10-21 15:36:10.854923,907
2021-10-21 15:36:10.854931,890
2021-10-21 15:36:10.854939,900
2021-10-21 15:36:10.854948,883
2021-10-21 15:36:10.854956,871
2021-10-21 15:36:10.854964,841
2021-10-21 15:36:10.854973,783
2021-10-21 15:36:10.854981,817
2021-10-21 15:36:10.854989,802
2021-10-21 15:36:10.854998,754
2021-10-21 15:36:10.855006,785
2021-10-21 15:36:10.855014,742
2021-10-21 15:36:10.855023,710
2021-10-21 15:36:10.855031,729
2021-10-21 15:36:10.855039,722
2021-10-21 15:36:10.855084,761
2021-10-21 15:36:10.855093,747
2021-10-21 15:36:11.124808,725
2021-10-21 15:36:11.124826,756
2021-10-21 15:36:11.124835,742
2021-10-21 15:36:11.124844,766
2021-10-21 15:36:11.124852,773
2021-10-21 15:36:11.124861,727
2021-10-21 15:36:11.124869,729
2021-10-21 15:36:11.124877,703
2021-10-21 15:36:11.124886,688
2021-10-21 15:36:11.124894,669
2021-10-21 15:36:11.124902,593
2021-10-21 15:36:11.124910,552
2021-10-21 15:36:11.124919,467
2021-10-21 15:36:11.124927,401
2021-10-21 15:36:11.124941,382
2021-10-21 15:36:11.124949,306
2021-10-21 15:36:11.124958,284
2021-10-21 15:36:11.124966,216
2021-10-21 15:36:11.124974,58
2021-10-21 15:36:11.124983,51
2021-10-21 15:36:11.124991,296
2021-10-21 15:36:11.124999,880
2021-10-21 15:36:11.125007,1279
2021-10-21 15:36:11.125016,710
2021-10-21 15:36:11.125024,-192
2021-10-21 15:36:11.125032,-362
2021-10-21 15:36:11.125040,-145
2021-10-21 15:36:11.125048,-255
2021-10-21 15:36:11.125057,-459
2021-10-21 15:36:11.125065,-450
2021-10-21 15:36:11.304786,-518
2021-10-21 15:36:11.304804,-683
2021-10-21 15:36:11.304814,-729
2021-10-21 15:36:11.304823,-798
2021-10-21 15:36:11.304831,-858
2021-10-21 15:36:11.304839,-895
2021-10-21 15:36:11.304848,-1014
2021-10-21 15:36:11.304856,-1133
2021-10-21 15:36:11.304864,-1323
2021-10-21 15:36:11.304873,-1559
2021-10-21 15:36:11.304881,-1764
2021-10-21 15:36:11.304889,-2019
2021-10-21 15:36:11.304897,-2243
2021-10-21 15:36:11.304906,-2513
2021-10-21 15:36:11.304914,-2873
2021-10-21 15:36:11.304922,-3158
2021-10-21 15:36:11.304931,-3445
2021-10-21 15:36:11.304939,-3681
2021-10-21 15:36:11.304947,-3851
2021-10-21 15:36:11.304955,-4058
2021-10-21 15:36:11.304964,-4241
2021-10-21 15:36:11.304972,-4457
2021-10-21 15:36:11.304980,-4686
2021-10-21 15:36:11.304988,-4886
2021-10-21 15:36:11.304996,-5146
2021-10-21 15:36:11.305005,-5370
2021-10-21 15:36:11.305013,-5581
2021-10-21 15:36:11.305021,-5817
2021-10-21 15:36:11.305029,-5922
2021-10-21 15:36:11.305037,-5934
2021-10-21 15:36:11.573463,-5876
2021-10-21 15:36:11.573477,-5737
2021-10-21 15:36:11.573482,-5564
2021-10-21 15:36:11.573487,-5353
2021-10-21 15:36:11.573491,-5165
2021-10-21 15:36:11.573496,-4883
2021-10-21 15:36:11.573500,-4523
2021-10-21 15:36:11.573504,-4282
2021-10-21 15:36:11.573508,-4046
2021-10-21 15:36:11.573513,-3822
2021-10-21 15:36:11.573517,-3657
2021-10-21 15:36:11.573521,-3421
2021-10-21 15:36:11.573525,-3248
2021-10-21 15:36:11.573530,-3138
2021-10-21 15:36:11.573534,-3012
2021-10-21 15:36:11.573538,-2922
2021-10-21 15:36:11.573543,-2803
2021-10-21 15:36:11.573547,-2710
2021-10-21 15:36:11.573551,-2671
2021-10-21 15:36:11.573555,-2613
2021-10-21 15:36:11.573559,-2586
2021-10-21 15:36:11.573564,-2557
2021-10-21 15:36:11.573568,-2591
2021-10-21 15:36:11.573572,-2688
2021-10-21 15:36:11.573576,-2732
2021-10-21 15:36:11.573580,-2837
2021-10-21 15:36:11.573585,-3019
2021-10-21 15:36:11.573589,-3207
2021-10-21 15:36:11.573593,-3416
2021-10-21 15:36:11.573597,-3620
2021-10-21 15:36:11.799856,-3905
2021-10-21 15:36:11.799875,-4255
2021-10-21 15:36:11.799884,-4615
2021-10-21 15:36:11.799893,-5044
2021-10-21 15:36:11.799902,-5406
2021-10-21 15:36:11.799910,-5723
2021-10-21 15:36:11.799919,-6102
2021-10-21 15:36:11.799927,-6428
2021-10-21 15:36:11.799936,-6633
2021-10-21 15:36:11.799944,-6474
2021-10-21 15:36:11.799953,-5847
2021-10-21 15:36:11.799961,-5450
2021-10-21 15:36:11.799970,-6126
2021-10-21 15:36:11.799978,-7299
2021-10-21 15:36:11.799987,-7647
2021-10-21 15:36:11.799995,-7477
2021-10-21 15:36:11.800004,-7657
2021-10-21 15:36:11.800012,-7815
2021-10-21 15:36:11.800021,-7745
2021-10-21 15:36:11.800029,-7776
2021-10-21 15:36:11.800037,-7854
2021-10-21 15:36:11.800046,-7871
2021-10-21 15:36:11.800054,-7915
2021-10-21 15:36:11.800063,-8027
2021-10-21 15:36:11.800076,-8119
2021-10-21 15:36:11.800085,-8088
2021-10-21 15:36:11.800094,-7959
2021-10-21 15:36:11.800102,-7747
2021-10-21 15:36:11.800111,-7540
2021-10-21 15:36:11.800119,-7411
2021-10-21 15:36:12.069812,-7231
2021-10-21 15:36:12.069831,-7037
2021-10-21 15:36:12.069841,-6922
2021-10-21 15:36:12.069849,-6762
2021-10-21 15:36:12.069858,-6533
2021-10-21 15:36:12.069866,-6328
2021-10-21 15:36:12.069874,-6182
2021-10-21 15:36:12.069883,-6056
2021-10-21 15:36:12.069891,-5856
2021-10-21 15:36:12.069899,-5628
2021-10-21 15:36:12.069908,-5401
2021-10-21 15:36:12.069916,-5170
2021-10-21 15:36:12.069924,-5017
2021-10-21 15:36:12.069932,-4886
2021-10-21 15:36:12.069941,-4725
2021-10-21 15:36:12.069949,-4552
2021-10-21 15:36:12.069957,-4396
2021-10-21 15:36:12.069966,-4309
2021-10-21 15:36:12.069974,-4241
2021-10-21 15:36:12.069982,-4323
2021-10-21 15:36:12.069991,-4815
2021-10-21 15:36:12.069999,-5525
2021-10-21 15:36:12.070007,-6044
2021-10-21 15:36:12.070016,-6311
2021-10-21 15:36:12.070024,-6487
2021-10-21 15:36:12.070032,-6560
2021-10-21 15:36:12.070040,-6307
2021-10-21 15:36:12.070048,-5445
2021-10-21 15:36:12.070057,-4090
2021-10-21 15:36:12.070065,-2890
2021-10-21 15:36:12.294830,-2245
2021-10-21 15:36:12.294848,-1905
2021-10-21 15:36:12.294858,-1676
2021-10-21 15:36:12.294867,-1564
2021-10-21 15:36:12.294875,-1462
2021-10-21 15:36:12.294884,-1428
2021-10-21 15:36:12.294892,-1503
2021-10-21 15:36:12.294900,-1603
2021-10-21 15:36:12.294908,-1691
2021-10-21 15:36:12.294917,-1613
2021-10-21 15:36:12.294925,-1413
2021-10-21 15:36:12.294933,-1245
2021-10-21 15:36:12.294941,-1126
2021-10-21 15:36:12.294950,-1107
2021-10-21 15:36:12.294964,-1104
2021-10-21 15:36:12.294972,-1082
2021-10-21 15:36:12.294981,-1150
2021-10-21 15:36:12.294989,-1233
2021-10-21 15:36:12.294997,-1316
2021-10-21 15:36:12.295005,-1421
2021-10-21 15:36:12.295014,-1455
2021-10-21 15:36:12.295022,-1479
2021-10-21 15:36:12.295030,-1520
2021-10-21 15:36:12.295039,-1552
2021-10-21 15:36:12.295047,-1603
2021-10-21 15:36:12.295055,-1654
2021-10-21 15:36:12.295063,-1717
2021-10-21 15:36:12.295071,-1761
2021-10-21 15:36:12.295080,-1798
2021-10-21 15:36:12.295088,-1907
2021-10-21 15:36:12.519204,-1980
2021-10-21 15:36:12.519223,-1832
2021-10-21 15:36:12.519232,-1299
2021-10-21 15:36:12.519241,-559
2021-10-21 15:36:12.519250,-452
2021-10-21 15:36:12.519258,-1309
2021-10-21 15:36:12.519266,-2053
2021-10-21 15:36:12.519275,-2019
2021-10-21 15:36:12.519283,-1905
2021-10-21 15:36:12.519291,-2048
2021-10-21 15:36:12.519300,-2068
2021-10-21 15:36:12.519308,-2000
2021-10-21 15:36:12.519316,-2041
2021-10-21 15:36:12.519324,-2043
2021-10-21 15:36:12.519333,-1995
2021-10-21 15:36:12.519341,-1983
2021-10-21 15:36:12.519349,-1949
2021-10-21 15:36:12.519357,-1914
2021-10-21 15:36:12.519365,-1897
2021-10-21 15:36:12.519379,-1871
2021-10-21 15:36:12.519388,-1817
2021-10-21 15:36:12.519396,-1739
2021-10-21 15:36:12.519404,-1710
2021-10-21 15:36:12.519413,-1661
2021-10-21 15:36:12.519421,-1569
2021-10-21 15:36:12.519429,-1528
2021-10-21 15:36:12.519437,-1408
2021-10-21 15:36:12.519445,-1214
2021-10-21 15:36:12.519453,-1082
2021-10-21 15:36:12.519461,-963
2021-10-21 15:36:12.744319,-824
2021-10-21 15:36:12.744339,-691
2021-10-21 15:36:12.744349,-591
2021-10-21 15:36:12.744357,-476
2021-10-21 15:36:12.744366,-272
2021-10-21 15:36:12.744374,-97
2021-10-21 15:36:12.744383,75
2021-10-21 15:36:12.744391,304
2021-10-21 15:36:12.744399,472
2021-10-21 15:36:12.744408,652
2021-10-21 15:36:12.744416,885
2021-10-21 15:36:12.744424,1075
2021-10-21 15:36:12.744433,1279
2021-10-21 15:36:12.744441,1567
2021-10-21 15:36:12.744449,1902
2021-10-21 15:36:12.744457,2189
2021-10-21 15:36:12.744466,2501
2021-10-21 15:36:12.744474,2912
2021-10-21 15:36:12.744482,3241
2021-10-21 15:36:12.744490,3559
2021-10-21 15:36:12.744499,3910
2021-10-21 15:36:12.744507,4085
2021-10-21 15:36:12.744515,4238
2021-10-21 15:36:12.744523,4389
2021-10-21 15:36:12.744531,4428
2021-10-21 15:36:12.744539,4474
2021-10-21 15:36:12.744548,4494
2021-10-21 15:36:12.744556,4462
2021-10-21 15:36:12.744564,4430
2021-10-21 15:36:12.744573,4379
2021-10-21 15:36:12.969868,4326
2021-10-21 15:36:12.969888,4238
2021-10-21 15:36:12.969897,4163
2021-10-21 15:36:12.969906,4100
2021-10-21 15:36:12.969914,3980
2021-10-21 15:36:12.969923,3910
2021-10-21 15:36:12.969931,3829
2021-10-21 15:36:12.969940,3737
2021-10-21 15:36:12.969948,3747
2021-10-21 15:36:12.969956,3703
2021-10-21 15:36:12.969965,3632
2021-10-21 15:36:12.969973,3581
2021-10-21 15:36:12.969981,3474
2021-10-21 15:36:12.969989,3430
2021-10-21 15:36:12.969998,3399
2021-10-21 15:36:12.970006,3323
2021-10-21 15:36:12.970014,3284
2021-10-21 15:36:12.970023,3236
2021-10-21 15:36:12.970031,3199
2021-10-21 15:36:12.970039,3170
2021-10-21 15:36:12.970048,3170
2021-10-21 15:36:12.970056,3207
2021-10-21 15:36:12.970064,3141
2021-10-21 15:36:12.970072,3053
2021-10-21 15:36:12.970087,2988
2021-10-21 15:36:12.970096,2988
2021-10-21 15:36:12.970104,3331
2021-10-21 15:36:12.970112,3963
2021-10-21 15:36:12.970120,4292
2021-10-21 15:36:12.970128,3654
2021-10-21 15:36:13.149887,2674
2021-10-21 15:36:13.149907,2640
2021-10-21 15:36:13.149916,2968
2021-10-21 15:36:13.149925,2817
2021-10-21 15:36:13.149933,2732
2021-10-21 15:36:13.149942,2829
2021-10-21 15:36:13.149950,2837
2021-10-21 15:36:13.149958,2812
2021-10-21 15:36:13.149966,2812
2021-10-21 15:36:13.149975,2871
2021-10-21 15:36:13.149983,2880
2021-10-21 15:36:13.149991,2832
2021-10-21 15:36:13.150000,2846
2021-10-21 15:36:13.150008,2880
2021-10-21 15:36:13.150016,2929
2021-10-21 15:36:13.150024,2958
2021-10-21 15:36:13.150032,2956
2021-10-21 15:36:13.150041,2958
2021-10-21 15:36:13.150049,2912
2021-10-21 15:36:13.150057,2936
2021-10-21 15:36:13.150065,2953
2021-10-21 15:36:13.150074,2844
2021-10-21 15:36:13.150082,2820
2021-10-21 15:36:13.150090,2817
2021-10-21 15:36:13.150098,2717
2021-10-21 15:36:13.150114,2620
2021-10-21 15:36:13.150123,2537
2021-10-21 15:36:13.150131,2533
2021-10-21 15:36:13.150140,2518
2021-10-21 15:36:13.150148,2404
2021-10-21 15:36:13.419888,2365
2021-10-21 15:36:13.419907,2338
2021-10-21 15:36:13.419917,2258
2021-10-21 15:36:13.419925,2197
2021-10-21 15:36:13.419934,2138
2021-10-21 15:36:13.419942,2104
2021-10-21 15:36:13.419951,2043
2021-10-21 15:36:13.419959,2000
2021-10-21 15:36:13.419967,2014
2021-10-21 15:36:13.419976,1980
2021-10-21 15:36:13.419984,1978
2021-10-21 15:36:13.419993,2002
2021-10-21 15:36:13.420001,1970
2021-10-21 15:36:13.420009,1961
2021-10-21 15:36:13.420024,1922
2021-10-21 15:36:13.420033,1876
2021-10-21 15:36:13.420041,1829
2021-10-21 15:36:13.420050,1749
2021-10-21 15:36:13.420058,1732
2021-10-21 15:36:13.420066,1686
2021-10-21 15:36:13.420075,1596
2021-10-21 15:36:13.420083,1562
2021-10-21 15:36:13.420091,1501
2021-10-21 15:36:13.420099,1459
2021-10-21 15:36:13.420108,1411
2021-10-21 15:36:13.420119,1328
2021-10-21 15:36:13.420128,1313
2021-10-21 15:36:13.420136,1267
2021-10-21 15:36:13.420144,1214
2021-10-21 15:36:13.420153,1206
2021-10-21 15:36:13.689253,1172
2021-10-21 15:36:13.689272,1172
2021-10-21 15:36:13.689281,1131
2021-10-21 15:36:13.689290,1053
2021-10-21 15:36:13.689299,1063
2021-10-21 15:36:13.689307,1053
2021-10-21 15:36:13.689316,1046
2021-10-21 15:36:13.689324,1043
2021-10-21 15:36:13.689333,1007
2021-10-21 15:36:13.689341,1009
2021-10-21 15:36:13.689349,968
2021-10-21 15:36:13.689358,944
2021-10-21 15:36:13.689366,961
2021-10-21 15:36:13.689374,924
2021-10-21 15:36:13.689383,888
2021-10-21 15:36:13.689391,793
2021-10-21 15:36:13.689400,839
2021-10-21 15:36:13.689408,1360
2021-10-21 15:36:13.689416,2073
2021-10-21 15:36:13.689425,2255
2021-10-21 15:36:13.689433,1413
2021-10-21 15:36:13.689441,535
2021-10-21 15:36:13.689450,676
2021-10-21 15:36:13.689458,890
2021-10-21 15:36:13.689466,686
2021-10-21 15:36:13.689475,678
2021-10-21 15:36:13.689483,742
2021-10-21 15:36:13.689492,703
2021-10-21 15:36:13.689500,712
2021-10-21 15:36:13.689508,756
2021-10-21 15:36:13.914922,756
2021-10-21 15:36:13.914942,708
2021-10-21 15:36:13.914952,722
2021-10-21 15:36:13.914960,739
2021-10-21 15:36:13.914975,710
2021-10-21 15:36:13.914984,756
2021-10-21 15:36:13.914992,764
2021-10-21 15:36:13.915000,737
2021-10-21 15:36:13.915008,751
2021-10-21 15:36:13.915017,725
2021-10-21 15:36:13.915025,742
2021-10-21 15:36:13.915033,739
2021-10-21 15:36:13.915041,693
2021-10-21 15:36:13.915049,717
2021-10-21 15:36:13.915057,698
2021-10-21 15:36:13.915066,656
2021-10-21 15:36:13.915074,659
2021-10-21 15:36:13.915082,649
2021-10-21 15:36:13.915090,669
2021-10-21 15:36:13.915098,625
2021-10-21 15:36:13.915106,562
2021-10-21 15:36:13.915115,576
2021-10-21 15:36:13.915123,547
2021-10-21 15:36:13.915131,547
2021-10-21 15:36:13.915140,554
2021-10-21 15:36:13.915148,510
2021-10-21 15:36:13.915156,508
2021-10-21 15:36:13.915164,489
2021-10-21 15:36:13.915172,486
2021-10-21 15:36:13.915181,491
2021-10-21 15:36:14.094841,445
2021-10-21 15:36:14.094860,447
2021-10-21 15:36:14.094869,435
2021-10-21 15:36:14.094877,425
2021-10-21 15:36:14.094886,450
2021-10-21 15:36:14.094894,416
2021-10-21 15:36:14.094902,420
2021-10-21 15:36:14.094911,416
2021-10-21 15:36:14.094919,364
2021-10-21 15:36:14.094927,389
2021-10-21 15:36:14.094936,382
2021-10-21 15:36:14.094944,360
2021-10-21 15:36:14.094952,360
2021-10-21 15:36:14.094961,313
2021-10-21 15:36:14.094969,313
2021-10-21 15:36:14.094977,313
2021-10-21 15:36:14.094986,291
2021-10-21 15:36:14.094994,282
2021-10-21 15:36:14.095002,231
2021-10-21 15:36:14.095011,211
2021-10-21 15:36:14.095019,197
2021-10-21 15:36:14.095027,165
2021-10-21 15:36:14.095036,194
2021-10-21 15:36:14.095044,197
2021-10-21 15:36:14.095059,197
2021-10-21 15:36:14.095068,199
2021-10-21 15:36:14.095077,163
2021-10-21 15:36:14.095085,163
2021-10-21 15:36:14.095093,136
2021-10-21 15:36:14.095102,136
2021-10-21 15:36:14.543651,189
2021-10-21 15:36:14.543670,155
2021-10-21 15:36:14.543680,143
2021-10-21 15:36:14.543688,170
2021-10-21 15:36:14.543697,155
2021-10-21 15:36:14.543705,175
2021-10-21 15:36:14.543714,158
2021-10-21 15:36:14.543722,111
2021-10-21 15:36:14.543730,58
2021-10-21 15:36:14.543738,12
2021-10-21 15:36:14.543747,243
2021-10-21 15:36:14.543755,871
2021-10-21 15:36:14.543763,1571
2021-10-21 15:36:14.543771,1518
2021-10-21 15:36:14.543780,489
2021-10-21 15:36:14.543788,-150
2021-10-21 15:36:14.543796,68
2021-10-21 15:36:14.543805,145
2021-10-21 15:36:14.543813,12
2021-10-21 15:36:14.543821,43
2021-10-21 15:36:14.543829,116
2021-10-21 15:36:14.543838,94
2021-10-21 15:36:14.543846,72
2021-10-21 15:36:14.543854,136
2021-10-21 15:36:14.543862,133
2021-10-21 15:36:14.543870,104
2021-10-21 15:36:14.543878,153
2021-10-21 15:36:14.543887,158
2021-10-21 15:36:14.543895,177
2021-10-21 15:36:14.543903,201
2021-10-21 15:36:14.679338,184
2021-10-21 15:36:14.679358,233
2021-10-21 15:36:14.679368,250
2021-10-21 15:36:14.679377,240
2021-10-21 15:36:14.679385,250
2021-10-21 15:36:14.679394,240
2021-10-21 15:36:14.679402,260
2021-10-21 15:36:14.679410,240
2021-10-21 15:36:14.679419,233
2021-10-21 15:36:14.679427,277
2021-10-21 15:36:14.679436,260
2021-10-21 15:36:14.679444,270
2021-10-21 15:36:14.679452,282
2021-10-21 15:36:14.679461,257
2021-10-21 15:36:14.679469,279
2021-10-21 15:36:14.679478,250
2021-10-21 15:36:14.679486,236
2021-10-21 15:36:14.679494,250
2021-10-21 15:36:14.679502,204
2021-10-21 15:36:14.679511,226
2021-10-21 15:36:14.679519,248
2021-10-21 15:36:14.679527,231
2021-10-21 15:36:14.679536,265
2021-10-21 15:36:14.679544,253
2021-10-21 15:36:14.679552,233
2021-10-21 15:36:14.679561,238
2021-10-21 15:36:14.679569,243
2021-10-21 15:36:14.679577,282
2021-10-21 15:36:14.679585,265
2021-10-21 15:36:14.679594,250
2021-10-21 15:36:14.904981,272
2021-10-21 15:36:14.905000,236
2021-10-21 15:36:14.905009,255
2021-10-21 15:36:14.905018,291
2021-10-21 15:36:14.905026,289
2021-10-21 15:36:14.905035,301
2021-10-21 15:36:14.905043,277
2021-10-21 15:36:14.905052,294
2021-10-21 15:36:14.905060,323
2021-10-21 15:36:14.905068,306
2021-10-21 15:36:14.905077,343
2021-10-21 15:36:14.905085,350
2021-10-21 15:36:14.905093,377
2021-10-21 15:36:14.905102,489
2021-10-21 15:36:14.905110,545
2021-10-21 15:36:14.905118,598
2021-10-21 15:36:14.905126,637
2021-10-21 15:36:14.905135,635
2021-10-21 15:36:14.905143,659
2021-10-21 15:36:14.905152,686
2021-10-21 15:36:14.905160,846
2021-10-21 15:36:14.905168,1129
2021-10-21 15:36:14.905176,1367
2021-10-21 15:36:14.905184,1627
2021-10-21 15:36:14.905192,1927
2021-10-21 15:36:14.905201,2279
2021-10-21 15:36:14.905209,2613
2021-10-21 15:36:14.905217,2793
2021-10-21 15:36:14.905225,2956
2021-10-21 15:36:14.905233,3068
2021-10-21 15:36:14.994804,3129
2021-10-21 15:36:14.994821,3248
2021-10-21 15:36:14.994830,3282
2021-10-21 15:36:14.994839,3263
2021-10-21 15:36:14.994853,3263
2021-10-21 15:36:14.994862,3409
2021-10-21 15:36:14.994870,3951
2021-10-21 15:36:14.994879,4640
2021-10-21 15:36:14.994887,4861
2021-10-21 15:36:14.994895,4197
2021-10-21 15:36:14.994904,3443
2021-10-21 15:36:14.994912,3657
2021-10-21 15:36:14.994920,4087
2021-10-21 15:36:14.994928,4117
2021-10-21 15:36:14.994936,4277
2021-10-21 15:36:14.994945,4542
2021-10-21 15:36:14.994953,4778
2021-10-21 15:36:14.994961,4980
2021-10-21 15:36:16.839929,2975
2021-10-21 15:36:16.839948,1742
2021-10-21 15:36:16.839957,1613
2021-10-21 15:36:16.839966,2292
2021-10-21 15:36:16.839974,2136
2021-10-21 15:36:16.839982,1099
2021-10-21 15:36:16.839990,-136
2021-10-21 15:36:16.839999,-1479
2021-10-21 15:36:16.840007,-2649
2021-10-21 15:36:16.840015,-4192
2021-10-21 15:36:16.840024,-5973
2021-10-21 15:36:16.840032,-7440
2021-10-21 15:36:16.840040,-8961
2021-10-21 15:36:16.840048,-10436
2021-10-21 15:36:16.840057,-11896
2021-10-21 15:36:16.840065,-13317
2021-10-21 15:36:16.840073,-14487
2021-10-21 15:36:17.109983,-15791
2021-10-21 15:36:17.110004,-16923
2021-10-21 15:36:17.110014,-17728
2021-10-21 15:36:17.110022,-18626
2021-10-21 15:36:17.110031,-19286
2021-10-21 15:36:17.110040,-19777
2021-10-21 15:36:17.110048,-19933
2021-10-21 15:36:17.110057,-19933
2021-10-21 15:36:17.110065,-19933
2021-10-21 15:36:17.110074,-19933
2021-10-21 15:36:17.110082,-19933
2021-10-21 15:36:17.110091,-19933
2021-10-21 15:36:17.110099,-19933
2021-10-21 15:36:17.110108,-19933
2021-10-21 15:36:17.110116,-19933
2021-10-21 15:36:17.110125,-19933
2021-10-21 15:36:17.110133,-19933
2021-10-21 15:36:17.110141,-19933
2021-10-21 15:36:17.110150,-19933
2021-10-21 15:36:17.110164,-19933
2021-10-21 15:36:17.110173,-19933
2021-10-21 15:36:17.110181,-19933
2021-10-21 15:36:17.110190,-19933
2021-10-21 15:36:17.110198,-19933
2021-10-21 15:36:17.110207,-19933
2021-10-21 15:36:17.110215,-19933
2021-10-21 15:36:17.110223,-19933
2021-10-21 15:36:17.110231,-19933
2021-10-21 15:36:17.110240,-19933
2021-10-21 15:36:17.110248,-19933
2021-10-21 15:36:17.334912,-19933
2021-10-21 15:36:17.334931,-19933
2021-10-21 15:36:17.334941,-19933
2021-10-21 15:36:17.334950,-19933
2021-10-21 15:36:17.334958,-19933
2021-10-21 15:36:17.334966,-19933
2021-10-21 15:36:17.334975,-19933
2021-10-21 15:36:17.334983,-19933
2021-10-21 15:36:17.334992,-19933
2021-10-21 15:36:17.335000,-19933
2021-10-21 15:36:17.335008,-19933
2021-10-21 15:36:17.335017,-19933
2021-10-21 15:36:17.335025,-19933
2021-10-21 15:36:17.335034,-19933
2021-10-21 15:36:17.335042,-19933
2021-10-21 15:36:17.335050,-19933
2021-10-21 15:36:17.335058,-19933
2021-10-21 15:36:17.335067,-19933
2021-10-21 15:36:17.335075,-19933
2021-10-21 15:36:17.335083,-19933
2021-10-21 15:36:17.335092,-19933
2021-10-21 15:36:17.335100,-19933
2021-10-21 15:36:17.335108,-19933
2021-10-21 15:36:17.335116,-19933
2021-10-21 15:36:17.335125,-19933
2021-10-21 15:36:17.335133,-19933
2021-10-21 15:36:17.335141,-19933
2021-10-21 15:36:17.335149,-19933
2021-10-21 15:36:17.335157,-19933
2021-10-21 15:36:17.335166,-19933
2021-10-21 15:36:17.649933,-19933
2021-10-21 15:36:17.649953,-19933
2021-10-21 15:36:17.649963,-19933
2021-10-21 15:36:17.649971,-19933
2021-10-21 15:36:17.649980,-19933
2021-10-21 15:36:17.649988,-19933
2021-10-21 15:36:17.649996,-19933
2021-10-21 15:36:17.650005,-19933
2021-10-21 15:36:17.650014,-19933
2021-10-21 15:36:17.650022,-19933
2021-10-21 15:36:17.650030,-19933
2021-10-21 15:36:17.650039,-19933
2021-10-21 15:36:17.650047,-19933
2021-10-21 15:36:17.650056,-19638
2021-10-21 15:36:17.650064,-19395
2021-10-21 15:36:17.650072,-19142
2021-10-21 15:36:17.650081,-18731
2021-10-21 15:36:17.650089,-18397
2021-10-21 15:36:17.650097,-18166
2021-10-21 15:36:17.650106,-17869
2021-10-21 15:36:17.650114,-17563
2021-10-21 15:36:17.650122,-17285
2021-10-21 15:36:17.650130,-16918
2021-10-21 15:36:17.650139,-16621
2021-10-21 15:36:17.650147,-16383
2021-10-21 15:36:17.650199,-16044
2021-10-21 15:36:17.650208,-15755
2021-10-21 15:36:17.650216,-15456
2021-10-21 15:36:17.650224,-15127
2021-10-21 15:36:17.650232,-14884
2021-10-21 15:36:17.828576,-14614
2021-10-21 15:36:17.828594,-14358
2021-10-21 15:36:17.828603,-14115
2021-10-21 15:36:17.828612,-13816
2021-10-21 15:36:17.828620,-13580
2021-10-21 15:36:17.828629,-13312
2021-10-21 15:36:17.828637,-13013
2021-10-21 15:36:17.828645,-12825
2021-10-21 15:36:17.828653,-12594
2021-10-21 15:36:17.828661,-12288
2021-10-21 15:36:17.828670,-12032
2021-10-21 15:36:17.828678,-11818
2021-10-21 15:36:17.828686,-11592
2021-10-21 15:36:17.828695,-11356
2021-10-21 15:36:17.828703,-11190
2021-10-21 15:36:17.828711,-10949
2021-10-21 15:36:17.828719,-10618
2021-10-21 15:36:17.828728,-10394
2021-10-21 15:36:17.828736,-10146
2021-10-21 15:36:17.828744,-9825
2021-10-21 15:36:17.828752,-9521
2021-10-21 15:36:17.828761,-9209
2021-10-21 15:36:17.828769,-8908
2021-10-21 15:36:17.828777,-8567
2021-10-21 15:36:17.828785,-8307
2021-10-21 15:36:17.828793,-8166
2021-10-21 15:36:17.828802,-7927
2021-10-21 15:36:17.828810,-7698
2021-10-21 15:36:17.828818,-7560
2021-10-21 15:36:17.828832,-7399
2021-10-21 15:36:18.009877,-7282
2021-10-21 15:36:18.009896,-7185
2021-10-21 15:36:18.009905,-7102
2021-10-21 15:36:18.009914,-7051
2021-10-21 15:36:18.009922,-6971
2021-10-21 15:36:18.009931,-6920
2021-10-21 15:36:18.009939,-6912
2021-10-21 15:36:18.009947,-6903
2021-10-21 15:36:18.009956,-6844
2021-10-21 15:36:18.009964,-6696
2021-10-21 15:36:18.009972,-6599
2021-10-21 15:36:18.009981,-6533
2021-10-21 15:36:18.009989,-6416
2021-10-21 15:36:18.009997,-6324
2021-10-21 15:36:18.010005,-6190
2021-10-21 15:36:18.010014,-6085
2021-10-21 15:36:18.010022,-6061
2021-10-21 15:36:18.010031,-5985
2021-10-21 15:36:18.010039,-5939
2021-10-21 15:36:18.010047,-5929
2021-10-21 15:36:18.010056,-5781
2021-10-21 15:36:18.010064,-5316
2021-10-21 15:36:18.010072,-4523
2021-10-21 15:36:18.010080,-4124
2021-10-21 15:36:18.010089,-4800
2021-10-21 15:36:18.010097,-5676
2021-10-21 15:36:18.010105,-5684
2021-10-21 15:36:18.010114,-5392
2021-10-21 15:36:18.010122,-5472
2021-10-21 15:36:18.010130,-5530
2021-10-21 15:36:18.234929,-5399
2021-10-21 15:36:18.234948,-5367
2021-10-21 15:36:18.234957,-5345
2021-10-21 15:36:18.234966,-5233
2021-10-21 15:36:18.234974,-5173
2021-10-21 15:36:18.234983,-5139
2021-10-21 15:36:18.234991,-5087
2021-10-21 15:36:18.234999,-4985
2021-10-21 15:36:18.235007,-4886
2021-10-21 15:36:18.235016,-4861
2021-10-21 15:36:18.235024,-4769
2021-10-21 15:36:18.235032,-4674
2021-10-21 15:36:18.235040,-4654
2021-10-21 15:36:18.235048,-4569
2021-10-21 15:36:18.235056,-4494
2021-10-21 15:36:18.235065,-4467
2021-10-21 15:36:18.235073,-4426
2021-10-21 15:36:18.235081,-4428
2021-10-21 15:36:18.235089,-4418
2021-10-21 15:36:18.235102,-4401
2021-10-21 15:36:18.235111,-4367
2021-10-21 15:36:18.235119,-4319
2021-10-21 15:36:18.235127,-4323
2021-10-21 15:36:18.235135,-4319
2021-10-21 15:36:18.235143,-4338
2021-10-21 15:36:18.235151,-4404
2021-10-21 15:36:18.235160,-4445
2021-10-21 15:36:18.235168,-4513
2021-10-21 15:36:18.235176,-4562
2021-10-21 15:36:18.235184,-4606
2021-10-21 15:36:18.459972,-4684
2021-10-21 15:36:18.459991,-4679
2021-10-21 15:36:18.460000,-4686
2021-10-21 15:36:18.460009,-4725
2021-10-21 15:36:18.460017,-4691
2021-10-21 15:36:18.460026,-4727
2021-10-21 15:36:18.460034,-4774
2021-10-21 15:36:18.460042,-4774
2021-10-21 15:36:18.460051,-4847
2021-10-21 15:36:18.460059,-4946
2021-10-21 15:36:18.460067,-5061
2021-10-21 15:36:18.460076,-5180
2021-10-21 15:36:18.460084,-5294
2021-10-21 15:36:18.460092,-5528
2021-10-21 15:36:18.460101,-5817
2021-10-21 15:36:18.460109,-6126
2021-10-21 15:36:18.460117,-6562
2021-10-21 15:36:18.460125,-7063
2021-10-21 15:36:18.460133,-7460
2021-10-21 15:36:18.460142,-7774
2021-10-21 15:36:18.460150,-8129
2021-10-21 15:36:18.460158,-8431
2021-10-21 15:36:18.460166,-8689
2021-10-21 15:36:18.460174,-9039
2021-10-21 15:36:18.460182,-9275
2021-10-21 15:36:18.460190,-9411
2021-10-21 15:36:18.460199,-9677
2021-10-21 15:36:18.460207,-9871
2021-10-21 15:36:18.460215,-9862
2021-10-21 15:36:18.460223,-9791
2021-10-21 15:36:18.684949,-9750
2021-10-21 15:36:18.684968,-9745
2021-10-21 15:36:18.684978,-9647
2021-10-21 15:36:18.684987,-9584
2021-10-21 15:36:18.684995,-9720
2021-10-21 15:36:18.685004,-9730
2021-10-21 15:36:18.685012,-9477
2021-10-21 15:36:18.685021,-9282
2021-10-21 15:36:18.685029,-9051
2021-10-21 15:36:18.685037,-8377
2021-10-21 15:36:18.685046,-7618
2021-10-21 15:36:18.685054,-7674
2021-10-21 15:36:18.685062,-8475
2021-10-21 15:36:18.685070,-8874
2021-10-21 15:36:18.685079,-8689
2021-10-21 15:36:18.685087,-8635
2021-10-21 15:36:18.685095,-8669
2021-10-21 15:36:18.685103,-8545
2021-10-21 15:36:18.685112,-8441
2021-10-21 15:36:18.685120,-8321
2021-10-21 15:36:18.685128,-8068
2021-10-21 15:36:18.685137,-7869
2021-10-21 15:36:18.685145,-7754
2021-10-21 15:36:18.685153,-7555
2021-10-21 15:36:18.685161,-7343
2021-10-21 15:36:18.685170,-7212
2021-10-21 15:36:18.685178,-7073
2021-10-21 15:36:18.685186,-6946
2021-10-21 15:36:18.685195,-6844
2021-10-21 15:36:18.685203,-6718
2021-10-21 15:36:18.909965,-6586
2021-10-21 15:36:18.909983,-6453
2021-10-21 15:36:18.909992,-6304
2021-10-21 15:36:18.910001,-6158
2021-10-21 15:36:18.910010,-6024
2021-10-21 15:36:18.910018,-5942
2021-10-21 15:36:18.910026,-5871
2021-10-21 15:36:18.910035,-5776
2021-10-21 15:36:18.910043,-5691
2021-10-21 15:36:18.910052,-5608
2021-10-21 15:36:18.910060,-5489
2021-10-21 15:36:18.910068,-5328
2021-10-21 15:36:18.910077,-5187
2021-10-21 15:36:18.910085,-5073
2021-10-21 15:36:18.910094,-4932
2021-10-21 15:36:18.910102,-4820
2021-10-21 15:36:18.910110,-4720
2021-10-21 15:36:18.910118,-4589
2021-10-21 15:36:18.910127,-4474
2021-10-21 15:36:18.910135,-4365
2021-10-21 15:36:18.910143,-4270
2021-10-21 15:36:18.910152,-4192
2021-10-21 15:36:18.910160,-4085
2021-10-21 15:36:18.910168,-4002
2021-10-21 15:36:18.910177,-3941
2021-10-21 15:36:18.910185,-3851
2021-10-21 15:36:18.910193,-3776
2021-10-21 15:36:18.910201,-3727
2021-10-21 15:36:18.910209,-3681
2021-10-21 15:36:18.910224,-3598
2021-10-21 15:36:19.180378,-3484
2021-10-21 15:36:19.180396,-3411
2021-10-21 15:36:19.180406,-3382
2021-10-21 15:36:19.180415,-3340
2021-10-21 15:36:19.180423,-3253
2021-10-21 15:36:19.180431,-3158
2021-10-21 15:36:19.180440,-3109
2021-10-21 15:36:19.180448,-3048
2021-10-21 15:36:19.180456,-2990
2021-10-21 15:36:19.180465,-2961
2021-10-21 15:36:19.180473,-2873
2021-10-21 15:36:19.180481,-2781
2021-10-21 15:36:19.180489,-2747
2021-10-21 15:36:19.180498,-2700
2021-10-21 15:36:19.180510,-2649
2021-10-21 15:36:19.180520,-2618
2021-10-21 15:36:19.180528,-2567
2021-10-21 15:36:19.180536,-2498
2021-10-21 15:36:19.180545,-2438
2021-10-21 15:36:19.180553,-2399
2021-10-21 15:36:19.180561,-2357
2021-10-21 15:36:19.180573,-2314
2021-10-21 15:36:19.180582,-2284
2021-10-21 15:36:19.180590,-2260
2021-10-21 15:36:19.180661,-2284
2021-10-21 15:36:19.180670,-2260
2021-10-21 15:36:19.180678,-1973
2021-10-21 15:36:19.180686,-1318
2021-10-21 15:36:19.180694,-618
2021-10-21 15:36:19.180702,-742
2021-10-21 15:36:19.405467,-1686
2021-10-21 15:36:19.405486,-2138
2021-10-21 15:36:19.405495,-1893
2021-10-21 15:36:19.405504,-1856
2021-10-21 15:36:19.405513,-1985
2021-10-21 15:36:19.405521,-1910
2021-10-21 15:36:19.405529,-1817
2021-10-21 15:36:19.405538,-1832
2021-10-21 15:36:19.405546,-1815
2021-10-21 15:36:19.405555,-1759
2021-10-21 15:36:19.405563,-1727
2021-10-21 15:36:19.405571,-1683
2021-10-21 15:36:19.405580,-1625
2021-10-21 15:36:19.405588,-1596
2021-10-21 15:36:19.405596,-1579
2021-10-21 15:36:19.405605,-1552
2021-10-21 15:36:19.405613,-1496
2021-10-21 15:36:19.405621,-1455
2021-10-21 15:36:19.405630,-1440
2021-10-21 15:36:19.405645,-1411
2021-10-21 15:36:19.405653,-1382
2021-10-21 15:36:19.405662,-1369
2021-10-21 15:36:19.405670,-1350
2021-10-21 15:36:19.405678,-1330
2021-10-21 15:36:19.405686,-1299
2021-10-21 15:36:19.405694,-1279
2021-10-21 15:36:19.405703,-1279
2021-10-21 15:36:19.405711,-1265
2021-10-21 15:36:19.405719,-1253
2021-10-21 15:36:19.405727,-1240
2021-10-21 15:36:19.630099,-1202
2021-10-21 15:36:19.630119,-1177
2021-10-21 15:36:19.630128,-1177
2021-10-21 15:36:19.630137,-1187
2021-10-21 15:36:19.630146,-1192
2021-10-21 15:36:19.630154,-1155
2021-10-21 15:36:19.630163,-1126
2021-10-21 15:36:19.630171,-1131
2021-10-21 15:36:19.630179,-1131
2021-10-21 15:36:19.630188,-1092
2021-10-21 15:36:19.630196,-1046
2021-10-21 15:36:19.630204,-1043
2021-10-21 15:36:19.630213,-1039
2021-10-21 15:36:19.630221,-1014
2021-10-21 15:36:19.630229,-1017
2021-10-21 15:36:19.630238,-1004
2021-10-21 15:36:19.630246,-973
2021-10-21 15:36:19.630255,-958
2021-10-21 15:36:19.630263,-944
2021-10-21 15:36:19.630271,-927
2021-10-21 15:36:19.630280,-919
2021-10-21 15:36:19.630288,-917
2021-10-21 15:36:19.630296,-895
2021-10-21 15:36:19.630305,-866
2021-10-21 15:36:19.630313,-861
2021-10-21 15:36:19.630321,-858
2021-10-21 15:36:19.630330,-841
2021-10-21 15:36:19.630338,-829
2021-10-21 15:36:19.630346,-795
2021-10-21 15:36:19.630354,-764
2021-10-21 15:36:19.898685,-766
2021-10-21 15:36:19.898706,-768
2021-10-21 15:36:19.898715,-773
2021-10-21 15:36:19.898724,-766
2021-10-21 15:36:19.898732,-737
2021-10-21 15:36:19.898741,-717
2021-10-21 15:36:19.898749,-725
2021-10-21 15:36:19.898758,-734
2021-10-21 15:36:19.898766,-717
2021-10-21 15:36:19.898781,-688
2021-10-21 15:36:19.898789,-681
2021-10-21 15:36:19.898798,-691
2021-10-21 15:36:19.898806,-734
2021-10-21 15:36:19.898815,-795
2021-10-21 15:36:19.898823,-681
2021-10-21 15:36:19.898831,-221
2021-10-21 15:36:19.898840,474
2021-10-21 15:36:19.898848,764
2021-10-21 15:36:19.898856,102
2021-10-21 15:36:19.898865,-700
2021-10-21 15:36:19.898873,-727
2021-10-21 15:36:19.898881,-542
2021-10-21 15:36:19.898890,-649
2021-10-21 15:36:19.898898,-700
2021-10-21 15:36:19.898906,-610
2021-10-21 15:36:19.898914,-603
2021-10-21 15:36:19.898923,-620
2021-10-21 15:36:19.898931,-571
2021-10-21 15:36:19.898939,-557
2021-10-21 15:36:19.898948,-562
2021-10-21 15:36:20.079920,-532
2021-10-21 15:36:20.079939,-510
2021-10-21 15:36:20.079948,-515
2021-10-21 15:36:20.079957,-525
2021-10-21 15:36:20.079965,-506
2021-10-21 15:36:20.079974,-481
2021-10-21 15:36:20.079982,-496
2021-10-21 15:36:20.079990,-486
2021-10-21 15:36:20.079999,-442
2021-10-21 15:36:20.080007,-411
2021-10-21 15:36:20.080015,-362
2021-10-21 15:36:20.080024,-267
2021-10-21 15:36:20.080032,-155
2021-10-21 15:36:20.080040,-82
2021-10-21 15:36:20.080049,-19
2021-10-21 15:36:20.080057,70
2021-10-21 15:36:20.080065,116
2021-10-21 15:36:20.080073,133
2021-10-21 15:36:20.080082,182
2021-10-21 15:36:20.080090,194
2021-10-21 15:36:20.080104,128
2021-10-21 15:36:20.080113,-4
2021-10-21 15:36:20.080121,-150
2021-10-21 15:36:20.080129,-255
2021-10-21 15:36:20.080137,-335
2021-10-21 15:36:20.080146,-377
2021-10-21 15:36:20.080154,-374
2021-10-21 15:36:20.080162,-379
2021-10-21 15:36:20.080171,-386
2021-10-21 15:36:20.080182,-391
2021-10-21 15:36:20.349324,-403
2021-10-21 15:36:20.349343,-408
2021-10-21 15:36:20.349353,-418
2021-10-21 15:36:20.349361,-435
2021-10-21 15:36:20.349370,-452
2021-10-21 15:36:20.349378,-474
2021-10-21 15:36:20.349387,-474
2021-10-21 15:36:20.349395,-462
2021-10-21 15:36:20.349403,-459
2021-10-21 15:36:20.349412,-455
2021-10-21 15:36:20.349420,-459
2021-10-21 15:36:20.349428,-479
2021-10-21 15:36:20.349437,-498
2021-10-21 15:36:20.349445,-501
2021-10-21 15:36:20.349454,-498
2021-10-21 15:36:20.349462,-498
2021-10-21 15:36:20.349470,-481
2021-10-21 15:36:20.349479,-459
2021-10-21 15:36:20.349487,-437
2021-10-21 15:36:20.349495,-408
2021-10-21 15:36:20.349503,-413
2021-10-21 15:36:20.349512,-428
2021-10-21 15:36:20.349520,-423
2021-10-21 15:36:20.349528,-425
2021-10-21 15:36:20.349536,-418
2021-10-21 15:36:20.349545,-401
2021-10-21 15:36:20.349553,-408
2021-10-21 15:36:20.349561,-416
2021-10-21 15:36:20.349570,-411
2021-10-21 15:36:20.349578,-408
2021-10-21 15:36:20.529999,-416
2021-10-21 15:36:20.530019,-455
2021-10-21 15:36:20.530029,-525
2021-10-21 15:36:20.530037,-457
2021-10-21 15:36:20.530045,-55
2021-10-21 15:36:20.530054,601
2021-10-21 15:36:20.530062,939
2021-10-21 15:36:20.530070,372
2021-10-21 15:36:20.530078,-486
2021-10-21 15:36:20.530086,-598
2021-10-21 15:36:20.530095,-406
2021-10-21 15:36:20.530131,-532
2021-10-21 15:36:20.530139,-601
2021-10-21 15:36:20.530148,-513
2021-10-21 15:36:20.530156,-530
2021-10-21 15:36:20.530164,-576
2021-10-21 15:36:20.530173,-554
2021-10-21 15:36:20.530181,-528
2021-10-21 15:36:20.530189,-515
2021-10-21 15:36:20.530201,-498
2021-10-21 15:36:20.530210,-484
2021-10-21 15:36:20.530218,-476
2021-10-21 15:36:20.530226,-457
2021-10-21 15:36:20.530234,-440
2021-10-21 15:36:20.530242,-433
2021-10-21 15:36:20.530251,-423
2021-10-21 15:36:20.530259,-406
2021-10-21 15:36:20.530267,-401
2021-10-21 15:36:20.530275,-411
2021-10-21 15:36:20.530283,-418
2021-10-21 15:36:20.754997,-406
2021-10-21 15:36:20.755017,-396
2021-10-21 15:36:20.755026,-403
2021-10-21 15:36:20.755035,-413
2021-10-21 15:36:20.755044,-442
2021-10-21 15:36:20.755052,-452
2021-10-21 15:36:20.755061,-391
2021-10-21 15:36:20.755069,-309
2021-10-21 15:36:20.755078,-277
2021-10-21 15:36:20.755087,-338
2021-10-21 15:36:20.755095,-379
2021-10-21 15:36:20.755103,-340
2021-10-21 15:36:20.755112,-333
2021-10-21 15:36:20.755120,-391
2021-10-21 15:36:20.755129,-391
2021-10-21 15:36:20.755137,-326
2021-10-21 15:36:20.755146,-309
2021-10-21 15:36:20.755154,-335
2021-10-21 15:36:20.755162,-318
2021-10-21 15:36:20.755171,-304
2021-10-21 15:36:20.755179,-384
2021-10-21 15:36:20.755187,-493
2021-10-21 15:36:20.755196,-520
2021-10-21 15:36:20.755204,-462
2021-10-21 15:36:20.755212,-391
2021-10-21 15:36:20.755221,-396
2021-10-21 15:36:20.755229,-430
2021-10-21 15:36:20.755237,-379
2021-10-21 15:36:20.755246,-333
2021-10-21 15:36:20.755254,-377
2021-10-21 15:36:21.069344,-377
2021-10-21 15:36:21.069363,-340
2021-10-21 15:36:21.069373,-411
2021-10-21 15:36:21.069382,-479
2021-10-21 15:36:21.069390,-408
2021-10-21 15:36:21.069399,-323
2021-10-21 15:36:21.069407,-313
2021-10-21 15:36:21.069415,-309
2021-10-21 15:36:21.069424,-330
2021-10-21 15:36:21.069443,-384
2021-10-21 15:36:21.069452,-411
2021-10-21 15:36:21.069460,-386
2021-10-21 15:36:21.069469,-340
2021-10-21 15:36:21.069477,-326
2021-10-21 15:36:21.069485,-345
2021-10-21 15:36:21.069493,-350
2021-10-21 15:36:21.069502,-340
2021-10-21 15:36:21.069510,-360
2021-10-21 15:36:21.069518,-430
2021-10-21 15:36:21.069527,-452
2021-10-21 15:36:21.069535,-245
2021-10-21 15:36:21.069543,304
2021-10-21 15:36:21.069552,878
2021-10-21 15:36:21.069560,659
2021-10-21 15:36:21.069568,-277
2021-10-21 15:36:21.069576,-610
2021-10-21 15:36:21.069588,-279
2021-10-21 15:36:21.069596,-301
2021-10-21 15:36:21.069605,-472
2021-10-21 15:36:21.069613,-369
2021-10-21 15:36:21.249933,-313
2021-10-21 15:36:21.249952,-369
2021-10-21 15:36:21.249961,-352
2021-10-21 15:36:21.249970,-309
2021-10-21 15:36:21.249978,-306
2021-10-21 15:36:21.249987,-294
2021-10-21 15:36:21.249995,-267
2021-10-21 15:36:21.250003,-257
2021-10-21 15:36:21.250012,-260
2021-10-21 15:36:21.250020,-265
2021-10-21 15:36:21.250029,-233
2021-10-21 15:36:21.250037,-189
2021-10-21 15:36:21.250045,-194
2021-10-21 15:36:21.250053,-218
2021-10-21 15:36:21.250061,-231
2021-10-21 15:36:21.250070,-240
2021-10-21 15:36:21.250078,-253
2021-10-21 15:36:21.250086,-260
2021-10-21 15:36:21.250095,-250
2021-10-21 15:36:21.250103,-245
2021-10-21 15:36:21.250111,-250
2021-10-21 15:36:21.250119,-233
2021-10-21 15:36:21.250127,-211
2021-10-21 15:36:21.250135,-216
2021-10-21 15:36:21.250143,-236
2021-10-21 15:36:21.250152,-248
2021-10-21 15:36:21.250160,-253
2021-10-21 15:36:21.250168,-257
2021-10-21 15:36:21.250177,-262
2021-10-21 15:36:21.250199,-248
2021-10-21 15:36:21.519314,-248
2021-10-21 15:36:21.519332,-260
2021-10-21 15:36:21.519342,-257
2021-10-21 15:36:21.519350,-257
2021-10-21 15:36:21.519359,-265
2021-10-21 15:36:21.519367,-260
2021-10-21 15:36:21.519375,-226
2021-10-21 15:36:21.519384,-211
2021-10-21 15:36:21.519392,-253
2021-10-21 15:36:21.519400,-255
2021-10-21 15:36:21.519408,-214
2021-10-21 15:36:21.519417,-243
2021-10-21 15:36:21.519425,-274
2021-10-21 15:36:21.519439,-265
2021-10-21 15:36:21.519447,-284
2021-10-21 15:36:21.519456,-306
2021-10-21 15:36:21.519464,-289
2021-10-21 15:36:21.519472,-291
2021-10-21 15:36:21.519480,-311
2021-10-21 15:36:21.519489,-306
2021-10-21 15:36:21.519497,-321
2021-10-21 15:36:21.519505,-335
2021-10-21 15:36:21.519513,-277
2021-10-21 15:36:21.519521,-228
2021-10-21 15:36:21.519529,-262
2021-10-21 15:36:21.519537,-304
2021-10-21 15:36:21.519545,-313
2021-10-21 15:36:21.519554,-316
2021-10-21 15:36:21.519562,-326
2021-10-21 15:36:21.519570,-367
2021-10-21 15:36:21.700009,-408
2021-10-21 15:36:21.700029,-411
2021-10-21 15:36:21.700038,-367
2021-10-21 15:36:21.700047,-311
2021-10-21 15:36:21.700056,-328
2021-10-21 15:36:21.700065,-379
2021-10-21 15:36:21.700073,-255
2021-10-21 15:36:21.700082,240
2021-10-21 15:36:21.700090,990
2021-10-21 15:36:21.700098,1211
2021-10-21 15:36:21.700107,367
2021-10-21 15:36:21.700115,-462
2021-10-21 15:36:21.700124,-362
2021-10-21 15:36:21.700132,-177
2021-10-21 15:36:21.700140,-352
2021-10-21 15:36:21.700149,-396
2021-10-21 15:36:21.700157,-323
2021-10-21 15:36:21.700166,-345
2021-10-21 15:36:21.700174,-362
2021-10-21 15:36:21.700182,-309
2021-10-21 15:36:21.700190,-291
2021-10-21 15:36:21.700199,-330
2021-10-21 15:36:21.700207,-321
2021-10-21 15:36:21.700215,-260
2021-10-21 15:36:21.700224,-253
2021-10-21 15:36:21.700232,-265
2021-10-21 15:36:21.700240,-231
2021-10-21 15:36:21.700249,-218
2021-10-21 15:36:21.700257,-221
2021-10-21 15:36:21.700265,-194
2021-10-21 15:36:21.968605,-182
2021-10-21 15:36:21.968624,-199
2021-10-21 15:36:21.968633,-201
2021-10-21 15:36:21.968642,-189
2021-10-21 15:36:21.968651,-192
2021-10-21 15:36:21.968659,-211
2021-10-21 15:36:21.968667,-238
2021-10-21 15:36:21.968676,-248
2021-10-21 15:36:21.968684,-228
2021-10-21 15:36:21.968692,-218
2021-10-21 15:36:21.968701,-223
2021-10-21 15:36:21.968709,-221
2021-10-21 15:36:21.968717,-214
2021-10-21 15:36:21.968726,-221
2021-10-21 15:36:21.968734,-214
2021-10-21 15:36:21.968742,-206
2021-10-21 15:36:21.968750,-221
2021-10-21 15:36:21.968759,-221
2021-10-21 15:36:21.968767,-204
2021-10-21 15:36:21.968775,-199
2021-10-21 15:36:21.968783,-199
2021-10-21 15:36:21.968791,-199
2021-10-21 15:36:21.968800,-201
2021-10-21 15:36:21.968808,-199
2021-10-21 15:36:21.968816,-199
2021-10-21 15:36:21.968824,-192
2021-10-21 15:36:21.968832,-182
2021-10-21 15:36:21.968841,-184
2021-10-21 15:36:21.968849,-189
2021-10-21 15:36:21.968857,-184
2021-10-21 15:36:22.149960,-180
2021-10-21 15:36:22.149979,-184
2021-10-21 15:36:22.149989,-223
2021-10-21 15:36:22.149997,-257
2021-10-21 15:36:22.150006,-243
2021-10-21 15:36:22.150014,-233
2021-10-21 15:36:22.150023,-255
2021-10-21 15:36:22.150031,-250
2021-10-21 15:36:22.150039,-228
2021-10-21 15:36:22.150053,-233
2021-10-21 15:36:22.150062,-243
2021-10-21 15:36:22.150070,-240
2021-10-21 15:36:22.150078,-248
2021-10-21 15:36:22.150086,-253
2021-10-21 15:36:22.150094,-253
2021-10-21 15:36:22.150103,-248
2021-10-21 15:36:22.150111,-238
2021-10-21 15:36:22.150119,-240
2021-10-21 15:36:22.150127,-243
2021-10-21 15:36:22.150135,-226
2021-10-21 15:36:22.150144,-243
2021-10-21 15:36:22.150152,-340
2021-10-21 15:36:22.150160,-389
2021-10-21 15:36:22.150168,-153
2021-10-21 15:36:22.150177,486
2021-10-21 15:36:22.150185,1221
2021-10-21 15:36:22.150193,1209
2021-10-21 15:36:22.150201,211
2021-10-21 15:36:22.150209,-467
2021-10-21 15:36:22.150218,-255
2021-10-21 15:36:22.374997,-158
2021-10-21 15:36:22.375016,-343
2021-10-21 15:36:22.375026,-326
2021-10-21 15:36:22.375035,-262
2021-10-21 15:36:22.375044,-296
2021-10-21 15:36:22.375052,-296
2021-10-21 15:36:22.375061,-265
2021-10-21 15:36:22.375069,-250
2021-10-21 15:36:22.375078,-243
2021-10-21 15:36:22.375086,-228
2021-10-21 15:36:22.375094,-223
2021-10-21 15:36:22.375102,-231
2021-10-21 15:36:22.375111,-214
2021-10-21 15:36:22.375119,-187
2021-10-21 15:36:22.375127,-182
2021-10-21 15:36:22.375136,-182
2021-10-21 15:36:22.375144,-172
2021-10-21 15:36:22.375153,-165
2021-10-21 15:36:22.375161,-165
2021-10-21 15:36:22.375169,-165
2021-10-21 15:36:22.375178,-170
2021-10-21 15:36:22.375186,-182
2021-10-21 15:36:22.375194,-189
2021-10-21 15:36:22.375203,-201
2021-10-21 15:36:22.375211,-211
2021-10-21 15:36:22.375220,-194
2021-10-21 15:36:22.375228,-189
2021-10-21 15:36:22.375236,-204
2021-10-21 15:36:22.375244,-216
2021-10-21 15:36:22.375259,-226
2021-10-21 15:36:22.600019,-221
2021-10-21 15:36:22.600046,-221
2021-10-21 15:36:22.600056,-233
2021-10-21 15:36:22.600065,-245
2021-10-21 15:36:22.600073,-250
2021-10-21 15:36:22.600082,-245
2021-10-21 15:36:22.600090,-231
2021-10-21 15:36:22.600099,-236
2021-10-21 15:36:22.600107,-250
2021-10-21 15:36:22.600115,-257
2021-10-21 15:36:22.600124,-274
2021-10-21 15:36:22.600132,-284
2021-10-21 15:36:22.600140,-260
2021-10-21 15:36:22.600149,-226
2021-10-21 15:36:22.600157,-221
2021-10-21 15:36:22.600165,-221
2021-10-21 15:36:22.600174,-209
2021-10-21 15:36:22.600182,-206
2021-10-21 15:36:22.600191,-233
2021-10-21 15:36:22.600199,-277
2021-10-21 15:36:22.600208,-321
2021-10-21 15:36:22.600216,-357
2021-10-21 15:36:22.600224,-364
2021-10-21 15:36:22.600233,-350
2021-10-21 15:36:22.600241,-352
2021-10-21 15:36:22.600249,-335
2021-10-21 15:36:22.600258,-277
2021-10-21 15:36:22.600266,-255
2021-10-21 15:36:22.600274,-274
2021-10-21 15:36:22.600282,-270
2021-10-21 15:36:22.915082,-257
2021-10-21 15:36:22.915103,-265
2021-10-21 15:36:22.915112,-272
2021-10-21 15:36:22.915121,-279
2021-10-21 15:36:22.915129,-289
2021-10-21 15:36:22.915138,-287
2021-10-21 15:36:22.915146,-270
2021-10-21 15:36:22.915154,-257
2021-10-21 15:36:22.915163,-262
2021-10-21 15:36:22.915171,-284
2021-10-21 15:36:22.915180,-321
2021-10-21 15:36:22.915188,-382
2021-10-21 15:36:22.915196,-374
2021-10-21 15:36:22.915204,-58
2021-10-21 15:36:22.915212,644
2021-10-21 15:36:22.915221,1228
2021-10-21 15:36:22.915229,875
2021-10-21 15:36:22.915237,-124
2021-10-21 15:36:22.915245,-476
2021-10-21 15:36:22.915260,-221
2021-10-21 15:36:22.915269,-262
2021-10-21 15:36:22.915277,-411
2021-10-21 15:36:22.915285,-343
2021-10-21 15:36:22.915293,-316
2021-10-21 15:36:22.915301,-347
2021-10-21 15:36:22.915309,-301
2021-10-21 15:36:22.915317,-277
2021-10-21 15:36:22.915325,-296
2021-10-21 15:36:22.915334,-284
2021-10-21 15:36:22.915342,-250
2021-10-21 15:36:23.094983,-233
2021-10-21 15:36:23.095002,-223
2021-10-21 15:36:23.095011,-209
2021-10-21 15:36:23.095020,-197
2021-10-21 15:36:23.095028,-194
2021-10-21 15:36:23.095037,-187
2021-10-21 15:36:23.095045,-170
2021-10-21 15:36:23.095054,-148
2021-10-21 15:36:23.095062,-148
2021-10-21 15:36:23.095071,-172
2021-10-21 15:36:23.095079,-170
2021-10-21 15:36:23.095087,-163
2021-10-21 15:36:23.095096,-175
2021-10-21 15:36:23.095104,-197
2021-10-21 15:36:23.095112,-231
2021-10-21 15:36:23.095121,-240
2021-10-21 15:36:23.095129,-214
2021-10-21 15:36:23.095137,-201
2021-10-21 15:36:23.095146,-214
2021-10-21 15:36:23.095154,-218
2021-10-21 15:36:23.095163,-226
2021-10-21 15:36:23.095171,-233
2021-10-21 15:36:23.095179,-221
2021-10-21 15:36:23.095188,-204
2021-10-21 15:36:23.095196,-201
2021-10-21 15:36:23.095204,-194
2021-10-21 15:36:23.095212,-189
2021-10-21 15:36:23.095221,-194
2021-10-21 15:36:23.095229,-189
2021-10-21 15:36:23.095237,-189
2021-10-21 15:36:23.319963,-192
2021-10-21 15:36:23.319982,-163
2021-10-21 15:36:23.319991,-136
2021-10-21 15:36:23.320000,-138
2021-10-21 15:36:23.320008,-136
2021-10-21 15:36:23.320017,-121
2021-10-21 15:36:23.320025,-111
2021-10-21 15:36:23.320033,-126
2021-10-21 15:36:23.320042,-163
2021-10-21 15:36:23.320055,-180
2021-10-21 15:36:23.320064,-172
2021-10-21 15:36:23.320072,-170
2021-10-21 15:36:23.320080,-182
2021-10-21 15:36:23.320089,-204
2021-10-21 15:36:23.320097,-218
2021-10-21 15:36:23.320105,-209
2021-10-21 15:36:23.320113,-189
2021-10-21 15:36:23.320121,-182
2021-10-21 15:36:23.320129,-172
2021-10-21 15:36:23.320138,-160
2021-10-21 15:36:23.320146,-165
2021-10-21 15:36:23.320154,-163
2021-10-21 15:36:23.320162,-148
2021-10-21 15:36:23.320170,-148
2021-10-21 15:36:23.320178,-155
2021-10-21 15:36:23.320186,-165
2021-10-21 15:36:23.320194,-167
2021-10-21 15:36:23.320203,-155
2021-10-21 15:36:23.320211,-145
2021-10-21 15:36:23.320219,-145
2021-10-21 15:36:23.589896,-143
2021-10-21 15:36:23.589916,-141
2021-10-21 15:36:23.589925,-141
2021-10-21 15:36:23.589933,-160
2021-10-21 15:36:23.589942,-223
2021-10-21 15:36:23.589950,-248
2021-10-21 15:36:23.589958,-48
2021-10-21 15:36:23.589966,503
2021-10-21 15:36:23.589974,1150
2021-10-21 15:36:23.589981,1119
2021-10-21 15:36:23.589989,248
2021-10-21 15:36:23.589997,-323
2021-10-21 15:36:23.590005,-160
2021-10-21 15:36:23.590013,-97
2021-10-21 15:36:23.590020,-270
2021-10-21 15:36:23.590029,-253
2021-10-21 15:36:23.590037,-177
2021-10-21 15:36:23.590045,-194
2021-10-21 15:36:23.590054,-201
2021-10-21 15:36:23.590062,-187
2021-10-21 15:36:23.590070,-177
2021-10-21 15:36:23.590078,-158
2021-10-21 15:36:23.590087,-153
2021-10-21 15:36:23.590095,-141
2021-10-21 15:36:23.590103,-121
2021-10-21 15:36:23.590111,-119
2021-10-21 15:36:23.590120,-114
2021-10-21 15:36:23.590128,-99
2021-10-21 15:36:23.590142,-80
2021-10-21 15:36:23.590150,-60
2021-10-21 15:36:23.815030,-53
2021-10-21 15:36:23.815049,-58
2021-10-21 15:36:23.815059,-75
2021-10-21 15:36:23.815068,-94
2021-10-21 15:36:23.815076,-102
2021-10-21 15:36:23.815084,-97
2021-10-21 15:36:23.815093,-104
2021-10-21 15:36:23.815101,-124
2021-10-21 15:36:23.815109,-109
2021-10-21 15:36:23.815118,-92
2021-10-21 15:36:23.815126,-94
2021-10-21 15:36:23.815134,-82
2021-10-21 15:36:23.815142,-80
2021-10-21 15:36:23.815151,-102
2021-10-21 15:36:23.815176,-97
2021-10-21 15:36:23.815185,-99
2021-10-21 15:36:23.815194,-109
2021-10-21 15:36:23.815202,-107
2021-10-21 15:36:23.815210,-114
2021-10-21 15:36:23.815218,-121
2021-10-21 15:36:23.815227,-114
2021-10-21 15:36:23.815235,-111
2021-10-21 15:36:23.815243,-104
2021-10-21 15:36:23.815252,-94
2021-10-21 15:36:23.815260,-92
2021-10-21 15:36:23.815268,-92
2021-10-21 15:36:23.815276,-90
2021-10-21 15:36:23.815284,-82
2021-10-21 15:36:23.815293,-90
2021-10-21 15:36:23.815301,-104
2021-10-21 15:36:24.083622,-107
2021-10-21 15:36:24.083641,-104
2021-10-21 15:36:24.083650,-97
2021-10-21 15:36:24.083659,-90
2021-10-21 15:36:24.083667,-92
2021-10-21 15:36:24.083676,-104
2021-10-21 15:36:24.083684,-114
2021-10-21 15:36:24.083692,-92
2021-10-21 15:36:24.083701,-70
2021-10-21 15:36:24.083709,-85
2021-10-21 15:36:24.083718,-107
2021-10-21 15:36:24.083726,-119
2021-10-21 15:36:24.083734,-158
