Time,ECG
2021-09-22 20:21:54.422656,-180
2021-09-22 20:21:54.422673,-160
2021-09-22 20:21:54.422680,-145
2021-09-22 20:21:54.422686,-145
2021-09-22 20:21:54.422692,-145
2021-09-22 20:21:54.422699,-138
2021-09-22 20:21:54.422705,-126
2021-09-22 20:21:54.422711,-121
2021-09-22 20:21:54.422716,-136
2021-09-22 20:21:54.422723,-150
2021-09-22 20:21:54.422729,-141
2021-09-22 20:21:54.422734,-128
2021-09-22 20:21:54.422740,-131
2021-09-22 20:21:54.422746,-131
2021-09-22 20:21:54.422752,-128
2021-09-22 20:21:54.422758,-121
2021-09-22 20:21:54.422764,-116
2021-09-22 20:21:54.422770,-119
2021-09-22 20:21:54.422776,-107
2021-09-22 20:21:54.422782,-92
2021-09-22 20:21:54.422787,-104
2021-09-22 20:21:54.422793,-107
2021-09-22 20:21:54.422799,-85
2021-09-22 20:21:54.422805,-82
2021-09-22 20:21:54.422810,-92
2021-09-22 20:21:54.422816,-80
2021-09-22 20:21:54.422822,-70
2021-09-22 20:21:54.422828,-82
2021-09-22 20:21:54.422834,-80
2021-09-22 20:21:54.422840,-63
2021-09-22 20:21:54.602716,-58
2021-09-22 20:21:54.602735,-48
2021-09-22 20:21:54.602742,-43
2021-09-22 20:21:54.602748,-60
2021-09-22 20:21:54.602754,-51
2021-09-22 20:21:54.602760,-34
2021-09-22 20:21:54.602767,-38
2021-09-22 20:21:54.602773,-46
2021-09-22 20:21:54.602779,-43
2021-09-22 20:21:54.602785,-48
2021-09-22 20:21:54.602791,-51
2021-09-22 20:21:54.602797,-38
2021-09-22 20:21:54.602803,-31
2021-09-22 20:21:54.602808,-26
2021-09-22 20:21:54.602814,-34
2021-09-22 20:21:54.602820,-38
2021-09-22 20:21:54.602826,-17
2021-09-22 20:21:54.602834,9
2021-09-22 20:21:54.602840,21
2021-09-22 20:21:54.602846,9
2021-09-22 20:21:54.602852,-9
2021-09-22 20:21:54.602858,-17
2021-09-22 20:21:54.602864,2
2021-09-22 20:21:54.602870,12
2021-09-22 20:21:54.602875,-14
2021-09-22 20:21:54.602881,-34
2021-09-22 20:21:54.602887,-34
2021-09-22 20:21:54.602892,-36
2021-09-22 20:21:54.602898,-26
2021-09-22 20:21:54.602905,-4
2021-09-22 20:21:54.782669,-9
2021-09-22 20:21:54.782686,-26
2021-09-22 20:21:54.782693,-9
2021-09-22 20:21:54.782698,43
2021-09-22 20:21:54.782704,136
2021-09-22 20:21:54.782710,309
2021-09-22 20:21:54.782716,528
2021-09-22 20:21:54.782722,493
2021-09-22 20:21:54.782727,99
2021-09-22 20:21:54.782733,-406
2021-09-22 20:21:54.782739,-708
2021-09-22 20:21:54.782744,-513
2021-09-22 20:21:54.782750,-124
2021-09-22 20:21:54.782759,-48
2021-09-22 20:21:54.782765,-60
2021-09-22 20:21:54.782771,65
2021-09-22 20:21:54.782776,119
2021-09-22 20:21:54.782782,87
2021-09-22 20:21:54.782788,104
2021-09-22 20:21:54.782794,128
2021-09-22 20:21:54.782799,128
2021-09-22 20:21:54.782805,141
2021-09-22 20:21:54.782811,153
2021-09-22 20:21:54.782816,155
2021-09-22 20:21:54.782822,167
2021-09-22 20:21:54.782828,177
2021-09-22 20:21:54.782833,180
2021-09-22 20:21:54.782839,189
2021-09-22 20:21:54.782845,216
2021-09-22 20:21:54.782852,243
2021-09-22 20:21:55.007668,270
2021-09-22 20:21:55.007684,299
2021-09-22 20:21:55.007691,321
2021-09-22 20:21:55.007697,347
2021-09-22 20:21:55.007703,377
2021-09-22 20:21:55.007708,411
2021-09-22 20:21:55.007714,433
2021-09-22 20:21:55.007720,440
2021-09-22 20:21:55.007726,442
2021-09-22 20:21:55.007732,437
2021-09-22 20:21:55.007737,408
2021-09-22 20:21:55.007743,357
2021-09-22 20:21:55.007749,274
2021-09-22 20:21:55.007755,160
2021-09-22 20:21:55.007760,41
2021-09-22 20:21:55.007766,-48
2021-09-22 20:21:55.007772,-114
2021-09-22 20:21:55.007781,-197
2021-09-22 20:21:55.007787,-267
2021-09-22 20:21:55.007793,-282
2021-09-22 20:21:55.007798,-274
2021-09-22 20:21:55.007804,-284
2021-09-22 20:21:55.007810,-289
2021-09-22 20:21:55.007816,-277
2021-09-22 20:21:55.007821,-267
2021-09-22 20:21:55.007827,-257
2021-09-22 20:21:55.007832,-233
2021-09-22 20:21:55.007838,-218
2021-09-22 20:21:55.007844,-209
2021-09-22 20:21:55.007850,-192
2021-09-22 20:21:55.277692,-177
2021-09-22 20:21:55.277710,-167
2021-09-22 20:21:55.277717,-155
2021-09-22 20:21:55.277723,-150
2021-09-22 20:21:55.277729,-138
2021-09-22 20:21:55.277735,-111
2021-09-22 20:21:55.277741,-116
2021-09-22 20:21:55.277751,-133
2021-09-22 20:21:55.277757,-119
2021-09-22 20:21:55.277763,-111
2021-09-22 20:21:55.277769,-119
2021-09-22 20:21:55.277775,-116
2021-09-22 20:21:55.277780,-116
2021-09-22 20:21:55.277786,-131
2021-09-22 20:21:55.277792,-136
2021-09-22 20:21:55.277798,-126
2021-09-22 20:21:55.277803,-124
2021-09-22 20:21:55.277809,-119
2021-09-22 20:21:55.277815,-104
2021-09-22 20:21:55.277821,-104
2021-09-22 20:21:55.277826,-121
2021-09-22 20:21:55.277832,-116
2021-09-22 20:21:55.277837,-92
2021-09-22 20:21:55.277843,-92
2021-09-22 20:21:55.277849,-104
2021-09-22 20:21:55.277855,-94
2021-09-22 20:21:55.277860,-75
2021-09-22 20:21:55.277866,-85
2021-09-22 20:21:55.277872,-94
2021-09-22 20:21:55.277878,-68
2021-09-22 20:21:55.457584,-53
2021-09-22 20:21:55.457600,-72
2021-09-22 20:21:55.457607,-75
2021-09-22 20:21:55.457613,-53
2021-09-22 20:21:55.457619,-43
2021-09-22 20:21:55.457625,-48
2021-09-22 20:21:55.457631,-46
2021-09-22 20:21:55.457636,-46
2021-09-22 20:21:55.457642,-51
2021-09-22 20:21:55.457647,-43
2021-09-22 20:21:55.457653,-31
2021-09-22 20:21:55.457659,-36
2021-09-22 20:21:55.457665,-46
2021-09-22 20:21:55.457670,-36
2021-09-22 20:21:55.457676,-34
2021-09-22 20:21:55.457682,-43
2021-09-22 20:21:55.457688,-48
2021-09-22 20:21:55.457693,-36
2021-09-22 20:21:55.457699,-17
2021-09-22 20:21:55.457705,-4
2021-09-22 20:21:55.457711,-2
2021-09-22 20:21:55.457716,-12
2021-09-22 20:21:55.457722,-9
2021-09-22 20:21:55.457728,4
2021-09-22 20:21:55.457738,0
2021-09-22 20:21:55.457744,-26
2021-09-22 20:21:55.457750,-46
2021-09-22 20:21:55.457756,-26
2021-09-22 20:21:55.457762,-7
2021-09-22 20:21:55.457767,-26
2021-09-22 20:21:55.682770,-31
2021-09-22 20:21:55.682787,-9
2021-09-22 20:21:55.682794,-14
2021-09-22 20:21:55.682800,-29
2021-09-22 20:21:55.682806,0
2021-09-22 20:21:55.682812,68
2021-09-22 20:21:55.682818,184
2021-09-22 20:21:55.682824,416
2021-09-22 20:21:55.682830,586
2021-09-22 20:21:55.682836,391
2021-09-22 20:21:55.682842,-55
2021-09-22 20:21:55.682848,-491
2021-09-22 20:21:55.682854,-656
2021-09-22 20:21:55.682859,-357
2021-09-22 20:21:55.682865,-53
2021-09-22 20:21:55.682871,-51
2021-09-22 20:21:55.682877,0
2021-09-22 20:21:55.682883,126
2021-09-22 20:21:55.682888,119
2021-09-22 20:21:55.682894,97
2021-09-22 20:21:55.682900,143
2021-09-22 20:21:55.682906,153
2021-09-22 20:21:55.682913,138
2021-09-22 20:21:55.682919,150
2021-09-22 20:21:55.682925,155
2021-09-22 20:21:55.682931,148
2021-09-22 20:21:55.682936,170
2021-09-22 20:21:55.682942,189
2021-09-22 20:21:55.682948,192
2021-09-22 20:21:55.682953,206
2021-09-22 20:21:55.952078,226
2021-09-22 20:21:55.952097,255
2021-09-22 20:21:55.952105,279
2021-09-22 20:21:55.952111,291
2021-09-22 20:21:55.952116,318
2021-09-22 20:21:55.952122,360
2021-09-22 20:21:55.952128,396
2021-09-22 20:21:55.952134,420
2021-09-22 20:21:55.952140,437
2021-09-22 20:21:55.952146,459
2021-09-22 20:21:55.952151,469
2021-09-22 20:21:55.952157,447
2021-09-22 20:21:55.952163,403
2021-09-22 20:21:55.952169,350
2021-09-22 20:21:55.952175,265
2021-09-22 20:21:55.952181,150
2021-09-22 20:21:55.952187,38
2021-09-22 20:21:55.952193,-60
2021-09-22 20:21:55.952199,-143
2021-09-22 20:21:55.952205,-209
2021-09-22 20:21:55.952211,-257
2021-09-22 20:21:55.952216,-282
2021-09-22 20:21:55.952222,-287
2021-09-22 20:21:55.952228,-284
2021-09-22 20:21:55.952239,-284
2021-09-22 20:21:55.952245,-279
2021-09-22 20:21:55.952251,-270
2021-09-22 20:21:55.952256,-262
2021-09-22 20:21:55.952262,-245
2021-09-22 20:21:55.952268,-221
2021-09-22 20:21:56.266411,-204
2021-09-22 20:21:56.266429,-194
2021-09-22 20:21:56.266436,-182
2021-09-22 20:21:56.266443,-172
2021-09-22 20:21:56.266449,-158
2021-09-22 20:21:56.266454,-145
2021-09-22 20:21:56.266460,-145
2021-09-22 20:21:56.266466,-143
2021-09-22 20:21:56.266472,-124
2021-09-22 20:21:56.266478,-116
2021-09-22 20:21:56.266484,-131
2021-09-22 20:21:56.266489,-128
2021-09-22 20:21:56.266495,-114
2021-09-22 20:21:56.266501,-111
2021-09-22 20:21:56.266507,-116
2021-09-22 20:21:56.266513,-121
2021-09-22 20:21:56.266518,-111
2021-09-22 20:21:56.266524,-107
2021-09-22 20:21:56.266530,-114
2021-09-22 20:21:56.266536,-111
2021-09-22 20:21:56.266541,-99
2021-09-22 20:21:56.266547,-99
2021-09-22 20:21:56.266553,-104
2021-09-22 20:21:56.266559,-97
2021-09-22 20:21:56.266564,-87
2021-09-22 20:21:56.266570,-80
2021-09-22 20:21:56.266576,-75
2021-09-22 20:21:56.266582,-77
2021-09-22 20:21:56.266587,-82
2021-09-22 20:21:56.266593,-80
2021-09-22 20:21:56.402640,-68
2021-09-22 20:21:56.402659,-72
2021-09-22 20:21:56.402666,-77
2021-09-22 20:21:56.402672,-70
2021-09-22 20:21:56.402677,-68
2021-09-22 20:21:56.402683,-70
2021-09-22 20:21:56.402689,-65
2021-09-22 20:21:56.402694,-51
2021-09-22 20:21:56.402700,-53
2021-09-22 20:21:56.402706,-60
2021-09-22 20:21:56.402712,-48
2021-09-22 20:21:56.402717,-41
2021-09-22 20:21:56.402723,-46
2021-09-22 20:21:56.402729,-46
2021-09-22 20:21:56.402735,-46
2021-09-22 20:21:56.402741,-38
2021-09-22 20:21:56.402746,-26
2021-09-22 20:21:56.402752,-29
2021-09-22 20:21:56.402758,-26
2021-09-22 20:21:56.402764,-19
2021-09-22 20:21:56.402770,-24
2021-09-22 20:21:56.402775,-36
2021-09-22 20:21:56.402781,-31
2021-09-22 20:21:56.402787,-2
2021-09-22 20:21:56.402793,17
2021-09-22 20:21:56.402798,0
2021-09-22 20:21:56.402804,-2
2021-09-22 20:21:56.402810,7
2021-09-22 20:21:56.402815,-2
2021-09-22 20:21:56.402821,-19
2021-09-22 20:21:56.672838,-24
2021-09-22 20:21:56.672857,-26
2021-09-22 20:21:56.672864,-26
2021-09-22 20:21:56.672870,-26
2021-09-22 20:21:56.672876,-29
2021-09-22 20:21:56.672882,-21
2021-09-22 20:21:56.672888,-7
2021-09-22 20:21:56.672894,-7
2021-09-22 20:21:56.672900,-4
2021-09-22 20:21:56.672906,51
2021-09-22 20:21:56.672916,182
2021-09-22 20:21:56.672922,416
2021-09-22 20:21:56.672928,605
2021-09-22 20:21:56.672934,437
2021-09-22 20:21:56.672940,-12
2021-09-22 20:21:56.672946,-459
2021-09-22 20:21:56.672952,-659
2021-09-22 20:21:56.672957,-386
2021-09-22 20:21:56.672963,-60
2021-09-22 20:21:56.672969,-31
2021-09-22 20:21:56.672975,4
2021-09-22 20:21:56.672981,107
2021-09-22 20:21:56.672987,116
2021-09-22 20:21:56.672993,116
2021-09-22 20:21:56.672999,145
2021-09-22 20:21:56.673004,148
2021-09-22 20:21:56.673010,148
2021-09-22 20:21:56.673016,160
2021-09-22 20:21:56.673022,165
2021-09-22 20:21:56.673027,170
2021-09-22 20:21:56.852698,182
2021-09-22 20:21:56.852715,189
2021-09-22 20:21:56.852722,194
2021-09-22 20:21:56.852728,226
2021-09-22 20:21:56.852734,265
2021-09-22 20:21:56.852740,272
2021-09-22 20:21:56.852746,277
2021-09-22 20:21:56.852751,301
2021-09-22 20:21:56.852757,333
2021-09-22 20:21:56.852763,372
2021-09-22 20:21:56.852769,411
2021-09-22 20:21:56.852775,433
2021-09-22 20:21:56.852780,450
2021-09-22 20:21:56.852786,462
2021-09-22 20:21:56.852792,459
2021-09-22 20:21:56.852797,447
2021-09-22 20:21:56.852803,416
2021-09-22 20:21:56.852809,364
2021-09-22 20:21:56.852815,287
2021-09-22 20:21:56.852820,172
2021-09-22 20:21:56.852826,41
2021-09-22 20:21:56.852832,-65
2021-09-22 20:21:56.852838,-141
2021-09-22 20:21:56.852844,-206
2021-09-22 20:21:56.852849,-260
2021-09-22 20:21:56.852858,-289
2021-09-22 20:21:56.852864,-294
2021-09-22 20:21:56.852870,-294
2021-09-22 20:21:56.852875,-291
2021-09-22 20:21:56.852881,-279
2021-09-22 20:21:57.122903,-272
2021-09-22 20:21:57.122921,-274
2021-09-22 20:21:57.122929,-260
2021-09-22 20:21:57.122935,-233
2021-09-22 20:21:57.122941,-218
2021-09-22 20:21:57.122947,-218
2021-09-22 20:21:57.122953,-209
2021-09-22 20:21:57.122959,-182
2021-09-22 20:21:57.122965,-170
2021-09-22 20:21:57.122971,-165
2021-09-22 20:21:57.122977,-155
2021-09-22 20:21:57.122982,-148
2021-09-22 20:21:57.122988,-138
2021-09-22 20:21:57.122994,-124
2021-09-22 20:21:57.123000,-124
2021-09-22 20:21:57.123006,-133
2021-09-22 20:21:57.123012,-133
2021-09-22 20:21:57.123017,-126
2021-09-22 20:21:57.123023,-119
2021-09-22 20:21:57.123029,-121
2021-09-22 20:21:57.123035,-126
2021-09-22 20:21:57.123040,-124
2021-09-22 20:21:57.123046,-121
2021-09-22 20:21:57.123052,-111
2021-09-22 20:21:57.123058,-102
2021-09-22 20:21:57.123063,-102
2021-09-22 20:21:57.123069,-107
2021-09-22 20:21:57.123075,-94
2021-09-22 20:21:57.123080,-72
2021-09-22 20:21:57.123086,-70
2021-09-22 20:21:57.347088,-82
2021-09-22 20:21:57.347105,-87
2021-09-22 20:21:57.347112,-82
2021-09-22 20:21:57.347118,-80
2021-09-22 20:21:57.347124,-77
2021-09-22 20:21:57.347130,-72
2021-09-22 20:21:57.347136,-75
2021-09-22 20:21:57.347142,-68
2021-09-22 20:21:57.347148,-48
2021-09-22 20:21:57.347153,-46
2021-09-22 20:21:57.347159,-63
2021-09-22 20:21:57.347165,-65
2021-09-22 20:21:57.347171,-58
2021-09-22 20:21:57.347176,-60
2021-09-22 20:21:57.347182,-68
2021-09-22 20:21:57.347188,-55
2021-09-22 20:21:57.347198,-41
2021-09-22 20:21:57.347204,-51
2021-09-22 20:21:57.347210,-58
2021-09-22 20:21:57.347215,-53
2021-09-22 20:21:57.347221,-55
2021-09-22 20:21:57.347227,-51
2021-09-22 20:21:57.347232,-36
2021-09-22 20:21:57.347238,-34
2021-09-22 20:21:57.347244,-43
2021-09-22 20:21:57.347250,-38
2021-09-22 20:21:57.347255,-29
2021-09-22 20:21:57.347261,-24
2021-09-22 20:21:57.347267,-26
2021-09-22 20:21:57.347273,-26
2021-09-22 20:21:57.572587,-19
2021-09-22 20:21:57.572606,-9
2021-09-22 20:21:57.572669,0
2021-09-22 20:21:57.572685,0
2021-09-22 20:21:57.572692,-14
2021-09-22 20:21:57.572698,-14
2021-09-22 20:21:57.572704,9
2021-09-22 20:21:57.572710,4
2021-09-22 20:21:57.572716,-29
2021-09-22 20:21:57.572721,-38
2021-09-22 20:21:57.572726,-29
2021-09-22 20:21:57.572731,-38
2021-09-22 20:21:57.572736,-46
2021-09-22 20:21:57.572741,-36
2021-09-22 20:21:57.572746,-29
2021-09-22 20:21:57.572751,-31
2021-09-22 20:21:57.572756,-38
2021-09-22 20:21:57.572761,-17
2021-09-22 20:21:57.572765,68
2021-09-22 20:21:57.572770,201
2021-09-22 20:21:57.572775,418
2021-09-22 20:21:57.572781,601
2021-09-22 20:21:57.572786,435
2021-09-22 20:21:57.572792,-17
2021-09-22 20:21:57.572797,-474
2021-09-22 20:21:57.572803,-659
2021-09-22 20:21:57.572809,-355
2021-09-22 20:21:57.572816,-41
2021-09-22 20:21:57.572822,-38
2021-09-22 20:21:57.572827,7
2021-09-22 20:21:57.752766,116
2021-09-22 20:21:57.752785,102
2021-09-22 20:21:57.752792,90
2021-09-22 20:21:57.752798,131
2021-09-22 20:21:57.752803,138
2021-09-22 20:21:57.752809,133
2021-09-22 20:21:57.752815,155
2021-09-22 20:21:57.752821,165
2021-09-22 20:21:57.752827,163
2021-09-22 20:21:57.752833,172
2021-09-22 20:21:57.752839,182
2021-09-22 20:21:57.752844,189
2021-09-22 20:21:57.752850,211
2021-09-22 20:21:57.752860,233
2021-09-22 20:21:57.752866,245
2021-09-22 20:21:57.752872,265
2021-09-22 20:21:57.752877,296
2021-09-22 20:21:57.752883,326
2021-09-22 20:21:57.752889,347
2021-09-22 20:21:57.752895,372
2021-09-22 20:21:57.752901,411
2021-09-22 20:21:57.752906,435
2021-09-22 20:21:57.752912,435
2021-09-22 20:21:57.752918,437
2021-09-22 20:21:57.752924,435
2021-09-22 20:21:57.752930,399
2021-09-22 20:21:57.752935,340
2021-09-22 20:21:57.752941,250
2021-09-22 20:21:57.752947,138
2021-09-22 20:21:57.752952,29
2021-09-22 20:21:58.022791,-77
2021-09-22 20:21:58.022810,-170
2021-09-22 20:21:58.022817,-231
2021-09-22 20:21:58.022823,-267
2021-09-22 20:21:58.022829,-299
2021-09-22 20:21:58.022835,-311
2021-09-22 20:21:58.022841,-309
2021-09-22 20:21:58.022847,-313
2021-09-22 20:21:58.022853,-311
2021-09-22 20:21:58.022858,-304
2021-09-22 20:21:58.022864,-291
2021-09-22 20:21:58.022870,-272
2021-09-22 20:21:58.022876,-257
2021-09-22 20:21:58.022882,-245
2021-09-22 20:21:58.022888,-223
2021-09-22 20:21:58.022894,-197
2021-09-22 20:21:58.022899,-184
2021-09-22 20:21:58.022905,-177
2021-09-22 20:21:58.022911,-175
2021-09-22 20:21:58.022917,-165
2021-09-22 20:21:58.022923,-148
2021-09-22 20:21:58.022929,-138
2021-09-22 20:21:58.022935,-145
2021-09-22 20:21:58.022940,-143
2021-09-22 20:21:58.022946,-126
2021-09-22 20:21:58.022952,-119
2021-09-22 20:21:58.022958,-136
2021-09-22 20:21:58.022964,-145
2021-09-22 20:21:58.022969,-126
2021-09-22 20:21:58.022975,-107
2021-09-22 20:21:58.336455,-119
2021-09-22 20:21:58.336473,-126
2021-09-22 20:21:58.336480,-119
2021-09-22 20:21:58.336487,-126
2021-09-22 20:21:58.336493,-126
2021-09-22 20:21:58.336499,-104
2021-09-22 20:21:58.336504,-99
2021-09-22 20:21:58.336510,-111
2021-09-22 20:21:58.336516,-107
2021-09-22 20:21:58.336522,-94
2021-09-22 20:21:58.336528,-92
2021-09-22 20:21:58.336534,-87
2021-09-22 20:21:58.336539,-82
2021-09-22 20:21:58.336545,-75
2021-09-22 20:21:58.336551,-70
2021-09-22 20:21:58.336557,-75
2021-09-22 20:21:58.336562,-80
2021-09-22 20:21:58.336573,-70
2021-09-22 20:21:58.336579,-58
2021-09-22 20:21:58.336585,-48
2021-09-22 20:21:58.336591,-55
2021-09-22 20:21:58.336597,-68
2021-09-22 20:21:58.336602,-58
2021-09-22 20:21:58.336608,-46
2021-09-22 20:21:58.336614,-53
2021-09-22 20:21:58.336619,-63
2021-09-22 20:21:58.336625,-68
2021-09-22 20:21:58.336631,-60
2021-09-22 20:21:58.336637,-41
2021-09-22 20:21:58.336643,-38
2021-09-22 20:21:58.517055,-43
2021-09-22 20:21:58.517072,-38
2021-09-22 20:21:58.517079,-38
2021-09-22 20:21:58.517085,-34
2021-09-22 20:21:58.517091,-29
2021-09-22 20:21:58.517097,-31
2021-09-22 20:21:58.517103,-26
2021-09-22 20:21:58.517108,-21
2021-09-22 20:21:58.517114,-21
2021-09-22 20:21:58.517120,-26
2021-09-22 20:21:58.517126,-34
2021-09-22 20:21:58.517132,-29
2021-09-22 20:21:58.517137,-7
2021-09-22 20:21:58.517143,9
2021-09-22 20:21:58.517149,-2
2021-09-22 20:21:58.517155,-17
2021-09-22 20:21:58.517161,4
2021-09-22 20:21:58.517167,24
2021-09-22 20:21:58.517172,-2
2021-09-22 20:21:58.517178,-29
2021-09-22 20:21:58.517184,-36
2021-09-22 20:21:58.517190,-34
2021-09-22 20:21:58.517195,-31
2021-09-22 20:21:58.517201,-31
2021-09-22 20:21:58.517207,-29
2021-09-22 20:21:58.517212,-29
2021-09-22 20:21:58.517218,-31
2021-09-22 20:21:58.517224,-31
2021-09-22 20:21:58.517230,-12
2021-09-22 20:21:58.517236,43
2021-09-22 20:21:58.742115,155
2021-09-22 20:21:58.742135,379
2021-09-22 20:21:58.742142,613
2021-09-22 20:21:58.742148,518
2021-09-22 20:21:58.742154,104
2021-09-22 20:21:58.742160,-364
2021-09-22 20:21:58.742165,-656
2021-09-22 20:21:58.742171,-445
2021-09-22 20:21:58.742177,-68
2021-09-22 20:21:58.742183,-21
2021-09-22 20:21:58.742189,-17
2021-09-22 20:21:58.742195,97
2021-09-22 20:21:58.742201,104
2021-09-22 20:21:58.742207,70
2021-09-22 20:21:58.742213,99
2021-09-22 20:21:58.742219,119
2021-09-22 20:21:58.742225,111
2021-09-22 20:21:58.742231,138
2021-09-22 20:21:58.742237,165
2021-09-22 20:21:58.742242,150
2021-09-22 20:21:58.742248,145
2021-09-22 20:21:58.742254,167
2021-09-22 20:21:58.742260,187
2021-09-22 20:21:58.742265,197
2021-09-22 20:21:58.742271,209
2021-09-22 20:21:58.742277,226
2021-09-22 20:21:58.742282,248
2021-09-22 20:21:58.742288,272
2021-09-22 20:21:58.742294,304
2021-09-22 20:21:58.742306,345
2021-09-22 20:21:58.922692,379
2021-09-22 20:21:58.922708,399
2021-09-22 20:21:58.922715,416
2021-09-22 20:21:58.922721,435
2021-09-22 20:21:58.922727,437
2021-09-22 20:21:58.922733,428
2021-09-22 20:21:58.922739,396
2021-09-22 20:21:58.922745,340
2021-09-22 20:21:58.922751,262
2021-09-22 20:21:58.922756,165
2021-09-22 20:21:58.922762,60
2021-09-22 20:21:58.922768,-43
2021-09-22 20:21:58.922774,-138
2021-09-22 20:21:58.922780,-204
2021-09-22 20:21:58.922786,-245
2021-09-22 20:21:58.922792,-272
2021-09-22 20:21:58.922797,-291
2021-09-22 20:21:58.922803,-294
2021-09-22 20:21:58.922809,-291
2021-09-22 20:21:58.922814,-284
2021-09-22 20:21:58.922820,-270
2021-09-22 20:21:58.922826,-257
2021-09-22 20:21:58.922832,-250
2021-09-22 20:21:58.922838,-231
2021-09-22 20:21:58.922843,-204
2021-09-22 20:21:58.922849,-180
2021-09-22 20:21:58.922855,-167
2021-09-22 20:21:58.922861,-163
2021-09-22 20:21:58.922866,-153
2021-09-22 20:21:58.922872,-145
2021-09-22 20:21:59.237821,-138
2021-09-22 20:21:59.237839,-119
2021-09-22 20:21:59.237846,-109
2021-09-22 20:21:59.237852,-107
2021-09-22 20:21:59.237858,-104
2021-09-22 20:21:59.237864,-107
2021-09-22 20:21:59.237870,-111
2021-09-22 20:21:59.237876,-107
2021-09-22 20:21:59.237882,-102
2021-09-22 20:21:59.237887,-107
2021-09-22 20:21:59.237893,-107
2021-09-22 20:21:59.237899,-109
2021-09-22 20:21:59.237905,-116
2021-09-22 20:21:59.237910,-109
2021-09-22 20:21:59.237916,-94
2021-09-22 20:21:59.237922,-87
2021-09-22 20:21:59.237928,-97
2021-09-22 20:21:59.237933,-99
2021-09-22 20:21:59.237939,-92
2021-09-22 20:21:59.237945,-87
2021-09-22 20:21:59.237951,-82
2021-09-22 20:21:59.237956,-75
2021-09-22 20:21:59.237962,-75
2021-09-22 20:21:59.237968,-68
2021-09-22 20:21:59.237974,-60
2021-09-22 20:21:59.237979,-68
2021-09-22 20:21:59.237985,-65
2021-09-22 20:21:59.237991,-48
2021-09-22 20:21:59.237996,-46
2021-09-22 20:21:59.238002,-55
2021-09-22 20:21:59.418069,-51
2021-09-22 20:21:59.418085,-41
2021-09-22 20:21:59.418092,-43
2021-09-22 20:21:59.418098,-46
2021-09-22 20:21:59.418104,-34
2021-09-22 20:21:59.418110,-34
2021-09-22 20:21:59.418116,-51
2021-09-22 20:21:59.418122,-58
2021-09-22 20:21:59.418128,-55
2021-09-22 20:21:59.418134,-41
2021-09-22 20:21:59.418140,-21
2021-09-22 20:21:59.418146,-29
2021-09-22 20:21:59.418151,-34
2021-09-22 20:21:59.418157,-19
2021-09-22 20:21:59.418163,-24
2021-09-22 20:21:59.418169,-29
2021-09-22 20:21:59.418175,-17
2021-09-22 20:21:59.418180,-21
2021-09-22 20:21:59.418186,-31
2021-09-22 20:21:59.418192,-26
2021-09-22 20:21:59.418201,-19
2021-09-22 20:21:59.418207,-19
2021-09-22 20:21:59.418213,-17
2021-09-22 20:21:59.418218,-2
2021-09-22 20:21:59.418224,7
2021-09-22 20:21:59.418230,14
2021-09-22 20:21:59.418236,19
2021-09-22 20:21:59.418241,17
2021-09-22 20:21:59.418247,7
2021-09-22 20:21:59.418253,-7
2021-09-22 20:21:59.598707,-26
2021-09-22 20:21:59.598743,-26
2021-09-22 20:21:59.598756,0
2021-09-22 20:21:59.598769,-2
2021-09-22 20:21:59.598780,-24
2021-09-22 20:21:59.598789,-12
2021-09-22 20:21:59.598799,4
2021-09-22 20:21:59.598809,-2
2021-09-22 20:21:59.598818,9
2021-09-22 20:21:59.598826,63
2021-09-22 20:21:59.598836,167
2021-09-22 20:21:59.598845,372
2021-09-22 20:21:59.598861,598
2021-09-22 20:21:59.598875,528
2021-09-22 20:21:59.598884,124
2021-09-22 20:21:59.598892,-382
2021-09-22 20:21:59.598903,-664
2021-09-22 20:21:59.598914,-418
2021-09-22 20:21:59.598924,-63
2021-09-22 20:21:59.598934,-46
2021-09-22 20:21:59.598944,-29
2021-09-22 20:21:59.598955,104
2021-09-22 20:21:59.598964,114
2021-09-22 20:21:59.598974,80
2021-09-22 20:21:59.598983,111
2021-09-22 20:21:59.598991,136
2021-09-22 20:21:59.599000,131
2021-09-22 20:21:59.599010,136
2021-09-22 20:21:59.599018,145
2021-09-22 20:21:59.599028,155
2021-09-22 20:21:59.822703,165
2021-09-22 20:21:59.822720,167
2021-09-22 20:21:59.822727,180
2021-09-22 20:21:59.822733,192
2021-09-22 20:21:59.822739,204
2021-09-22 20:21:59.822745,233
2021-09-22 20:21:59.822751,267
2021-09-22 20:21:59.822757,289
2021-09-22 20:21:59.822763,318
2021-09-22 20:21:59.822769,350
2021-09-22 20:21:59.822775,367
2021-09-22 20:21:59.822780,394
2021-09-22 20:21:59.822786,430
2021-09-22 20:21:59.822792,445
2021-09-22 20:21:59.822798,440
2021-09-22 20:21:59.822804,433
2021-09-22 20:21:59.822810,408
2021-09-22 20:21:59.822815,357
2021-09-22 20:21:59.822821,282
2021-09-22 20:21:59.822827,184
2021-09-22 20:21:59.822832,72
2021-09-22 20:21:59.822838,-34
2021-09-22 20:21:59.822844,-111
2021-09-22 20:21:59.822850,-175
2021-09-22 20:21:59.822855,-231
2021-09-22 20:21:59.822861,-257
2021-09-22 20:21:59.822867,-265
2021-09-22 20:21:59.822873,-279
2021-09-22 20:21:59.822878,-277
2021-09-22 20:21:59.822884,-250
2021-09-22 20:22:00.092831,-233
2021-09-22 20:22:00.092849,-231
2021-09-22 20:22:00.092856,-221
2021-09-22 20:22:00.092863,-211
2021-09-22 20:22:00.092869,-204
2021-09-22 20:22:00.092875,-180
2021-09-22 20:22:00.092881,-150
2021-09-22 20:22:00.092887,-128
2021-09-22 20:22:00.092893,-126
2021-09-22 20:22:00.092899,-131
2021-09-22 20:22:00.092905,-131
2021-09-22 20:22:00.092911,-121
2021-09-22 20:22:00.092916,-109
2021-09-22 20:22:00.092922,-104
2021-09-22 20:22:00.092928,-107
2021-09-22 20:22:00.092934,-111
2021-09-22 20:22:00.092939,-104
2021-09-22 20:22:00.092945,-94
2021-09-22 20:22:00.092951,-94
2021-09-22 20:22:00.092957,-97
2021-09-22 20:22:00.092963,-97
2021-09-22 20:22:00.092968,-97
2021-09-22 20:22:00.092978,-94
2021-09-22 20:22:00.092984,-80
2021-09-22 20:22:00.092989,-72
2021-09-22 20:22:00.092995,-82
2021-09-22 20:22:00.093001,-82
2021-09-22 20:22:00.093007,-70
2021-09-22 20:22:00.093013,-68
2021-09-22 20:22:00.093019,-65
2021-09-22 20:22:00.362049,-58
2021-09-22 20:22:00.362067,-58
2021-09-22 20:22:00.362074,-60
2021-09-22 20:22:00.362081,-55
2021-09-22 20:22:00.362087,-53
2021-09-22 20:22:00.362092,-55
2021-09-22 20:22:00.362099,-41
2021-09-22 20:22:00.362105,-24
2021-09-22 20:22:00.362111,-34
2021-09-22 20:22:00.362116,-46
2021-09-22 20:22:00.362122,-41
2021-09-22 20:22:00.362128,-38
2021-09-22 20:22:00.362134,-36
2021-09-22 20:22:00.362140,-29
2021-09-22 20:22:00.362145,-34
2021-09-22 20:22:00.362151,-36
2021-09-22 20:22:00.362157,-31
2021-09-22 20:22:00.362163,-38
2021-09-22 20:22:00.362169,-36
2021-09-22 20:22:00.362175,-19
2021-09-22 20:22:00.362181,-26
2021-09-22 20:22:00.362187,-34
2021-09-22 20:22:00.362193,-29
2021-09-22 20:22:00.362198,-24
2021-09-22 20:22:00.362204,-7
2021-09-22 20:22:00.362210,21
2021-09-22 20:22:00.362216,19
2021-09-22 20:22:00.362222,-4
2021-09-22 20:22:00.362228,-2
2021-09-22 20:22:00.362234,21
2021-09-22 20:22:00.542659,14
2021-09-22 20:22:00.542675,-9
2021-09-22 20:22:00.542682,-19
2021-09-22 20:22:00.542688,-24
2021-09-22 20:22:00.542694,-19
2021-09-22 20:22:00.542700,-17
2021-09-22 20:22:00.542706,-24
2021-09-22 20:22:00.542712,-24
2021-09-22 20:22:00.542717,-12
2021-09-22 20:22:00.542723,-12
2021-09-22 20:22:00.542729,19
2021-09-22 20:22:00.542734,111
2021-09-22 20:22:00.542740,243
2021-09-22 20:22:00.542746,437
2021-09-22 20:22:00.542752,535
2021-09-22 20:22:00.542758,301
2021-09-22 20:22:00.542763,-158
2021-09-22 20:22:00.542769,-588
2021-09-22 20:22:00.542775,-637
2021-09-22 20:22:00.542780,-250
2021-09-22 20:22:00.542786,-24
2021-09-22 20:22:00.542792,-58
2021-09-22 20:22:00.542798,24
2021-09-22 20:22:00.542803,126
2021-09-22 20:22:00.542809,116
2021-09-22 20:22:00.542815,121
2021-09-22 20:22:00.542821,150
2021-09-22 20:22:00.542826,143
2021-09-22 20:22:00.542832,133
2021-09-22 20:22:00.542838,143
2021-09-22 20:22:00.767817,163
2021-09-22 20:22:00.767836,170
2021-09-22 20:22:00.767843,167
2021-09-22 20:22:00.767849,175
2021-09-22 20:22:00.767855,189
2021-09-22 20:22:00.767861,209
2021-09-22 20:22:00.767867,233
2021-09-22 20:22:00.767873,250
2021-09-22 20:22:00.767879,262
2021-09-22 20:22:00.767885,291
2021-09-22 20:22:00.767891,335
2021-09-22 20:22:00.767897,372
2021-09-22 20:22:00.767903,399
2021-09-22 20:22:00.767909,425
2021-09-22 20:22:00.767915,445
2021-09-22 20:22:00.767921,455
2021-09-22 20:22:00.767927,459
2021-09-22 20:22:00.767933,450
2021-09-22 20:22:00.767939,413
2021-09-22 20:22:00.767945,343
2021-09-22 20:22:00.767951,248
2021-09-22 20:22:00.767956,150
2021-09-22 20:22:00.767962,55
2021-09-22 20:22:00.767968,-58
2021-09-22 20:22:00.767974,-160
2021-09-22 20:22:00.767979,-211
2021-09-22 20:22:00.767985,-240
2021-09-22 20:22:00.767991,-257
2021-09-22 20:22:00.767996,-253
2021-09-22 20:22:00.768002,-255
2021-09-22 20:22:00.992732,-270
2021-09-22 20:22:00.992748,-262
2021-09-22 20:22:00.992755,-238
2021-09-22 20:22:00.992761,-223
2021-09-22 20:22:00.992767,-206
2021-09-22 20:22:00.992776,-192
2021-09-22 20:22:00.992782,-194
2021-09-22 20:22:00.992788,-177
2021-09-22 20:22:00.992794,-148
2021-09-22 20:22:00.992800,-150
2021-09-22 20:22:00.992806,-150
2021-09-22 20:22:00.992812,-126
2021-09-22 20:22:00.992817,-124
2021-09-22 20:22:00.992823,-138
2021-09-22 20:22:00.992829,-124
2021-09-22 20:22:00.992835,-102
2021-09-22 20:22:00.992840,-111
2021-09-22 20:22:00.992846,-116
2021-09-22 20:22:00.992852,-111
2021-09-22 20:22:00.992858,-114
2021-09-22 20:22:00.992863,-119
2021-09-22 20:22:00.992869,-109
2021-09-22 20:22:00.992875,-102
2021-09-22 20:22:00.992880,-99
2021-09-22 20:22:00.992886,-99
2021-09-22 20:22:00.992892,-94
2021-09-22 20:22:00.992897,-87
2021-09-22 20:22:00.992903,-77
2021-09-22 20:22:00.992909,-77
2021-09-22 20:22:00.992914,-85
2021-09-22 20:22:01.262847,-77
2021-09-22 20:22:01.262866,-68
2021-09-22 20:22:01.262873,-68
2021-09-22 20:22:01.262879,-65
2021-09-22 20:22:01.262885,-65
2021-09-22 20:22:01.262891,-72
2021-09-22 20:22:01.262897,-75
2021-09-22 20:22:01.262903,-72
2021-09-22 20:22:01.262909,-68
2021-09-22 20:22:01.262914,-58
2021-09-22 20:22:01.262920,-58
2021-09-22 20:22:01.262926,-58
2021-09-22 20:22:01.262932,-51
2021-09-22 20:22:01.262938,-53
2021-09-22 20:22:01.262944,-58
2021-09-22 20:22:01.262949,-46
2021-09-22 20:22:01.262955,-34
2021-09-22 20:22:01.262961,-41
2021-09-22 20:22:01.262967,-51
2021-09-22 20:22:01.262972,-36
2021-09-22 20:22:01.262978,-19
2021-09-22 20:22:01.262984,-31
2021-09-22 20:22:01.262990,-41
2021-09-22 20:22:01.262995,-26
2021-09-22 20:22:01.263001,-17
2021-09-22 20:22:01.263007,-7
2021-09-22 20:22:01.263013,17
2021-09-22 20:22:01.263018,17
2021-09-22 20:22:01.263024,9
2021-09-22 20:22:01.263030,7
2021-09-22 20:22:01.442731,-7
2021-09-22 20:22:01.442748,-24
2021-09-22 20:22:01.442755,-34
2021-09-22 20:22:01.442762,-38
2021-09-22 20:22:01.442767,-36
2021-09-22 20:22:01.442773,-38
2021-09-22 20:22:01.442779,-46
2021-09-22 20:22:01.442785,-43
2021-09-22 20:22:01.442790,-34
2021-09-22 20:22:01.442796,-26
2021-09-22 20:22:01.442802,-9
2021-09-22 20:22:01.442808,48
2021-09-22 20:22:01.442813,182
2021-09-22 20:22:01.442819,408
2021-09-22 20:22:01.442825,571
2021-09-22 20:22:01.442830,374
2021-09-22 20:22:01.442836,-90
2021-09-22 20:22:01.442842,-540
2021-09-22 20:22:01.442848,-678
2021-09-22 20:22:01.442853,-347
2021-09-22 20:22:01.442859,-51
2021-09-22 20:22:01.442865,-60
2021-09-22 20:22:01.442871,-9
2021-09-22 20:22:01.442876,114
2021-09-22 20:22:01.442882,116
2021-09-22 20:22:01.442888,92
2021-09-22 20:22:01.442893,119
2021-09-22 20:22:01.442899,145
2021-09-22 20:22:01.442905,148
2021-09-22 20:22:01.442911,141
2021-09-22 20:22:01.757796,148
2021-09-22 20:22:01.757814,167
2021-09-22 20:22:01.757821,180
2021-09-22 20:22:01.757828,184
2021-09-22 20:22:01.757834,192
2021-09-22 20:22:01.757840,201
2021-09-22 20:22:01.757846,221
2021-09-22 20:22:01.757852,240
2021-09-22 20:22:01.757858,260
2021-09-22 20:22:01.757864,277
2021-09-22 20:22:01.757869,306
2021-09-22 20:22:01.757875,345
2021-09-22 20:22:01.757881,379
2021-09-22 20:22:01.757887,411
2021-09-22 20:22:01.757893,435
2021-09-22 20:22:01.757899,437
2021-09-22 20:22:01.757905,440
2021-09-22 20:22:01.757911,437
2021-09-22 20:22:01.757917,406
2021-09-22 20:22:01.757922,347
2021-09-22 20:22:01.757928,265
2021-09-22 20:22:01.757934,150
2021-09-22 20:22:01.757940,24
2021-09-22 20:22:01.757946,-82
2021-09-22 20:22:01.757951,-160
2021-09-22 20:22:01.757957,-218
2021-09-22 20:22:01.757963,-250
2021-09-22 20:22:01.757969,-267
2021-09-22 20:22:01.757975,-287
2021-09-22 20:22:01.757980,-294
2021-09-22 20:22:01.937745,-279
2021-09-22 20:22:01.937763,-272
2021-09-22 20:22:01.937770,-267
2021-09-22 20:22:01.937776,-262
2021-09-22 20:22:01.937782,-243
2021-09-22 20:22:01.937788,-223
2021-09-22 20:22:01.937794,-218
2021-09-22 20:22:01.937800,-211
2021-09-22 20:22:01.937806,-197
2021-09-22 20:22:01.937811,-187
2021-09-22 20:22:01.937817,-170
2021-09-22 20:22:01.937823,-153
2021-09-22 20:22:01.937829,-148
2021-09-22 20:22:01.937834,-138
2021-09-22 20:22:01.937840,-131
2021-09-22 20:22:01.937846,-138
2021-09-22 20:22:01.937852,-133
2021-09-22 20:22:01.937858,-124
2021-09-22 20:22:01.937863,-131
2021-09-22 20:22:01.937869,-128
2021-09-22 20:22:01.937875,-119
2021-09-22 20:22:01.937881,-133
2021-09-22 20:22:01.937887,-136
2021-09-22 20:22:01.937892,-121
2021-09-22 20:22:01.937898,-116
2021-09-22 20:22:01.937904,-114
2021-09-22 20:22:01.937910,-104
2021-09-22 20:22:01.937916,-107
2021-09-22 20:22:01.937922,-104
2021-09-22 20:22:01.937927,-97
2021-09-22 20:22:02.207865,-97
2021-09-22 20:22:02.207883,-94
2021-09-22 20:22:02.207890,-85
2021-09-22 20:22:02.207897,-82
2021-09-22 20:22:02.207903,-82
2021-09-22 20:22:02.207909,-72
2021-09-22 20:22:02.207915,-70
2021-09-22 20:22:02.207921,-75
2021-09-22 20:22:02.207926,-80
2021-09-22 20:22:02.207932,-80
2021-09-22 20:22:02.207938,-65
2021-09-22 20:22:02.207944,-63
2021-09-22 20:22:02.207950,-77
2021-09-22 20:22:02.207956,-77
2021-09-22 20:22:02.207962,-68
2021-09-22 20:22:02.207968,-63
2021-09-22 20:22:02.207973,-60
2021-09-22 20:22:02.207979,-58
2021-09-22 20:22:02.207985,-55
2021-09-22 20:22:02.207991,-48
2021-09-22 20:22:02.207996,-51
2021-09-22 20:22:02.208002,-51
2021-09-22 20:22:02.208008,-41
2021-09-22 20:22:02.208013,-43
2021-09-22 20:22:02.208019,-38
2021-09-22 20:22:02.208025,-24
2021-09-22 20:22:02.208031,-26
2021-09-22 20:22:02.208036,-31
2021-09-22 20:22:02.208042,-9
2021-09-22 20:22:02.208048,9
2021-09-22 20:22:02.431348,0
2021-09-22 20:22:02.431364,-2
2021-09-22 20:22:02.431371,14
2021-09-22 20:22:02.431377,14
2021-09-22 20:22:02.431383,0
2021-09-22 20:22:02.431389,-12
2021-09-22 20:22:02.431395,-21
2021-09-22 20:22:02.431401,-29
2021-09-22 20:22:02.431407,-31
2021-09-22 20:22:02.431413,-34
2021-09-22 20:22:02.431419,-43
2021-09-22 20:22:02.431425,-46
2021-09-22 20:22:02.431430,-38
2021-09-22 20:22:02.431436,-31
2021-09-22 20:22:02.431442,-2
2021-09-22 20:22:02.431448,82
2021-09-22 20:22:02.431454,240
2021-09-22 20:22:02.431459,484
2021-09-22 20:22:02.431465,571
2021-09-22 20:22:02.431471,265
2021-09-22 20:22:02.431477,-223
2021-09-22 20:22:02.431483,-618
2021-09-22 20:22:02.431489,-620
2021-09-22 20:22:02.431495,-228
2021-09-22 20:22:02.431501,-26
2021-09-22 20:22:02.431506,-58
2021-09-22 20:22:02.431512,46
2021-09-22 20:22:02.431518,133
2021-09-22 20:22:02.431524,94
2021-09-22 20:22:02.431530,102
2021-09-22 20:22:02.612879,143
2021-09-22 20:22:02.612897,138
2021-09-22 20:22:02.612904,133
2021-09-22 20:22:02.612910,153
2021-09-22 20:22:02.612916,165
2021-09-22 20:22:02.612922,170
2021-09-22 20:22:02.612928,175
2021-09-22 20:22:02.612934,184
2021-09-22 20:22:02.612939,211
2021-09-22 20:22:02.612945,226
2021-09-22 20:22:02.612951,231
2021-09-22 20:22:02.612957,260
2021-09-22 20:22:02.612963,291
2021-09-22 20:22:02.612969,311
2021-09-22 20:22:02.612975,343
2021-09-22 20:22:02.612981,369
2021-09-22 20:22:02.612987,396
2021-09-22 20:22:02.612993,440
2021-09-22 20:22:02.612999,469
2021-09-22 20:22:02.613005,469
2021-09-22 20:22:02.613010,459
2021-09-22 20:22:02.613016,437
2021-09-22 20:22:02.613022,396
2021-09-22 20:22:02.613028,330
2021-09-22 20:22:02.613034,240
2021-09-22 20:22:02.613040,131
2021-09-22 20:22:02.613045,9
2021-09-22 20:22:02.613051,-102
2021-09-22 20:22:02.613057,-175
2021-09-22 20:22:02.613063,-221
2021-09-22 20:22:02.837752,-265
2021-09-22 20:22:02.837769,-291
2021-09-22 20:22:02.837776,-291
2021-09-22 20:22:02.837782,-287
2021-09-22 20:22:02.837788,-287
2021-09-22 20:22:02.837793,-282
2021-09-22 20:22:02.837799,-274
2021-09-22 20:22:02.837805,-257
2021-09-22 20:22:02.837811,-231
2021-09-22 20:22:02.837817,-218
2021-09-22 20:22:02.837823,-211
2021-09-22 20:22:02.837835,-197
2021-09-22 20:22:02.837841,-194
2021-09-22 20:22:02.837847,-189
2021-09-22 20:22:02.837853,-167
2021-09-22 20:22:02.837859,-155
2021-09-22 20:22:02.837865,-158
2021-09-22 20:22:02.837871,-163
2021-09-22 20:22:02.837877,-160
2021-09-22 20:22:02.837882,-145
2021-09-22 20:22:02.837888,-136
2021-09-22 20:22:02.837894,-131
2021-09-22 20:22:02.837899,-119
2021-09-22 20:22:02.837905,-116
2021-09-22 20:22:02.837911,-128
2021-09-22 20:22:02.837917,-133
2021-09-22 20:22:02.837922,-131
2021-09-22 20:22:02.837928,-126
2021-09-22 20:22:02.837934,-111
2021-09-22 20:22:02.837940,-107
2021-09-22 20:22:03.062702,-114
2021-09-22 20:22:03.062718,-114
2021-09-22 20:22:03.062725,-104
2021-09-22 20:22:03.062731,-97
2021-09-22 20:22:03.062737,-92
2021-09-22 20:22:03.062742,-94
2021-09-22 20:22:03.062748,-102
2021-09-22 20:22:03.062754,-94
2021-09-22 20:22:03.062760,-77
2021-09-22 20:22:03.062766,-77
2021-09-22 20:22:03.062771,-80
2021-09-22 20:22:03.062777,-80
2021-09-22 20:22:03.062783,-82
2021-09-22 20:22:03.062789,-75
2021-09-22 20:22:03.062795,-68
2021-09-22 20:22:03.062800,-68
2021-09-22 20:22:03.062806,-65
2021-09-22 20:22:03.062812,-63
2021-09-22 20:22:03.062817,-58
2021-09-22 20:22:03.062823,-53
2021-09-22 20:22:03.062829,-63
2021-09-22 20:22:03.062834,-68
2021-09-22 20:22:03.062840,-63
2021-09-22 20:22:03.062846,-46
2021-09-22 20:22:03.062852,-34
2021-09-22 20:22:03.062858,-38
2021-09-22 20:22:03.062863,-38
2021-09-22 20:22:03.062869,-34
2021-09-22 20:22:03.062875,-34
2021-09-22 20:22:03.062881,-29
2021-09-22 20:22:03.287867,-21
2021-09-22 20:22:03.287886,-21
2021-09-22 20:22:03.287893,-24
2021-09-22 20:22:03.287899,-21
2021-09-22 20:22:03.287905,-21
2021-09-22 20:22:03.287911,-29
2021-09-22 20:22:03.287916,-17
2021-09-22 20:22:03.287923,17
2021-09-22 20:22:03.287928,31
2021-09-22 20:22:03.287934,12
2021-09-22 20:22:03.287940,-2
2021-09-22 20:22:03.287946,0
2021-09-22 20:22:03.287951,2
2021-09-22 20:22:03.287957,-9
2021-09-22 20:22:03.287963,-26
2021-09-22 20:22:03.287969,-34
2021-09-22 20:22:03.287975,-36
2021-09-22 20:22:03.287980,-24
2021-09-22 20:22:03.287986,-7
2021-09-22 20:22:03.287992,-14
2021-09-22 20:22:03.287998,-26
2021-09-22 20:22:03.288004,-29
2021-09-22 20:22:03.288009,-14
2021-09-22 20:22:03.288015,55
2021-09-22 20:22:03.288021,209
2021-09-22 20:22:03.288027,455
2021-09-22 20:22:03.288032,598
2021-09-22 20:22:03.288038,379
2021-09-22 20:22:03.288044,-77
2021-09-22 20:22:03.288050,-523
2021-09-22 20:22:03.512747,-652
2021-09-22 20:22:03.512764,-301
2021-09-22 20:22:03.512771,-21
2021-09-22 20:22:03.512777,-41
2021-09-22 20:22:03.512783,14
2021-09-22 20:22:03.512789,107
2021-09-22 20:22:03.512795,82
2021-09-22 20:22:03.512801,82
2021-09-22 20:22:03.512807,133
2021-09-22 20:22:03.512813,141
2021-09-22 20:22:03.512819,126
2021-09-22 20:22:03.512825,138
2021-09-22 20:22:03.512831,153
2021-09-22 20:22:03.512836,158
2021-09-22 20:22:03.512842,170
2021-09-22 20:22:03.512848,189
2021-09-22 20:22:03.512854,201
2021-09-22 20:22:03.512860,214
2021-09-22 20:22:03.512866,240
2021-09-22 20:22:03.512872,267
2021-09-22 20:22:03.512878,287
2021-09-22 20:22:03.512883,309
2021-09-22 20:22:03.512889,340
2021-09-22 20:22:03.512895,372
2021-09-22 20:22:03.512901,401
2021-09-22 20:22:03.512907,430
2021-09-22 20:22:03.512912,459
2021-09-22 20:22:03.512918,474
2021-09-22 20:22:03.512924,467
2021-09-22 20:22:03.512930,452
2021-09-22 20:22:03.827179,423
2021-09-22 20:22:03.827198,360
2021-09-22 20:22:03.827205,255
2021-09-22 20:22:03.827211,133
2021-09-22 20:22:03.827217,34
2021-09-22 20:22:03.827223,-58
2021-09-22 20:22:03.827228,-153
2021-09-22 20:22:03.827234,-216
2021-09-22 20:22:03.827240,-250
2021-09-22 20:22:03.827246,-287
2021-09-22 20:22:03.827252,-299
2021-09-22 20:22:03.827257,-294
2021-09-22 20:22:03.827263,-289
2021-09-22 20:22:03.827269,-277
2021-09-22 20:22:03.827275,-262
2021-09-22 20:22:03.827281,-257
2021-09-22 20:22:03.827286,-245
2021-09-22 20:22:03.827292,-226
2021-09-22 20:22:03.827298,-206
2021-09-22 20:22:03.827304,-182
2021-09-22 20:22:03.827309,-165
2021-09-22 20:22:03.827315,-165
2021-09-22 20:22:03.827321,-155
2021-09-22 20:22:03.827327,-141
2021-09-22 20:22:03.827332,-131
2021-09-22 20:22:03.827338,-124
2021-09-22 20:22:03.827344,-121
2021-09-22 20:22:03.827349,-126
2021-09-22 20:22:03.827355,-131
2021-09-22 20:22:03.827361,-128
2021-09-22 20:22:04.007759,-121
2021-09-22 20:22:04.007775,-116
2021-09-22 20:22:04.007782,-121
2021-09-22 20:22:04.007788,-124
2021-09-22 20:22:04.007794,-128
2021-09-22 20:22:04.007800,-128
2021-09-22 20:22:04.007806,-114
2021-09-22 20:22:04.007811,-94
2021-09-22 20:22:04.007823,-102
2021-09-22 20:22:04.007830,-111
2021-09-22 20:22:04.007835,-102
2021-09-22 20:22:04.007841,-87
2021-09-22 20:22:04.007847,-92
2021-09-22 20:22:04.007853,-92
2021-09-22 20:22:04.007859,-85
2021-09-22 20:22:04.007864,-85
2021-09-22 20:22:04.007870,-92
2021-09-22 20:22:04.007876,-80
2021-09-22 20:22:04.007882,-60
2021-09-22 20:22:04.007888,-63
2021-09-22 20:22:04.007893,-75
2021-09-22 20:22:04.007899,-68
2021-09-22 20:22:04.007905,-58
2021-09-22 20:22:04.007910,-60
2021-09-22 20:22:04.007916,-55
2021-09-22 20:22:04.007922,-43
2021-09-22 20:22:04.007928,-43
2021-09-22 20:22:04.007933,-48
2021-09-22 20:22:04.007939,-53
2021-09-22 20:22:04.007945,-53
2021-09-22 20:22:04.232812,-51
2021-09-22 20:22:04.232830,-46
2021-09-22 20:22:04.232837,-29
2021-09-22 20:22:04.232844,-29
2021-09-22 20:22:04.232850,-38
2021-09-22 20:22:04.232855,-31
2021-09-22 20:22:04.232861,-24
2021-09-22 20:22:04.232867,-31
2021-09-22 20:22:04.232873,-36
2021-09-22 20:22:04.232879,-31
2021-09-22 20:22:04.232885,-21
2021-09-22 20:22:04.232891,-19
2021-09-22 20:22:04.232897,-17
2021-09-22 20:22:04.232903,-12
2021-09-22 20:22:04.232909,-14
2021-09-22 20:22:04.232915,-7
2021-09-22 20:22:04.232920,17
2021-09-22 20:22:04.232926,26
2021-09-22 20:22:04.232932,17
2021-09-22 20:22:04.232938,14
2021-09-22 20:22:04.232944,14
2021-09-22 20:22:04.232950,9
2021-09-22 20:22:04.232955,-4
2021-09-22 20:22:04.232961,-19
2021-09-22 20:22:04.232967,-21
2021-09-22 20:22:04.232973,-14
2021-09-22 20:22:04.232979,-7
2021-09-22 20:22:04.232984,-14
2021-09-22 20:22:04.232990,-14
2021-09-22 20:22:04.232996,-4
2021-09-22 20:22:04.501437,-12
2021-09-22 20:22:04.501454,7
2021-09-22 20:22:04.501461,75
2021-09-22 20:22:04.501467,201
2021-09-22 20:22:04.501473,450
2021-09-22 20:22:04.501479,627
2021-09-22 20:22:04.501484,418
2021-09-22 20:22:04.501490,-43
2021-09-22 20:22:04.501496,-513
2021-09-22 20:22:04.501502,-686
2021-09-22 20:22:04.501508,-335
2021-09-22 20:22:04.501514,-21
2021-09-22 20:22:04.501520,-46
2021-09-22 20:22:04.501525,4
2021-09-22 20:22:04.501531,111
2021-09-22 20:22:04.501537,87
2021-09-22 20:22:04.501543,90
2021-09-22 20:22:04.501549,141
2021-09-22 20:22:04.501555,143
2021-09-22 20:22:04.501560,133
2021-09-22 20:22:04.501566,150
2021-09-22 20:22:04.501572,158
2021-09-22 20:22:04.501578,160
2021-09-22 20:22:04.501584,172
2021-09-22 20:22:04.501590,184
2021-09-22 20:22:04.501595,194
2021-09-22 20:22:04.501601,211
2021-09-22 20:22:04.501607,236
2021-09-22 20:22:04.501613,255
2021-09-22 20:22:04.501619,284
2021-09-22 20:22:04.682879,328
2021-09-22 20:22:04.682897,350
2021-09-22 20:22:04.682904,362
2021-09-22 20:22:04.682910,401
2021-09-22 20:22:04.682916,433
2021-09-22 20:22:04.682922,447
2021-09-22 20:22:04.682928,455
2021-09-22 20:22:04.682933,452
2021-09-22 20:22:04.682939,437
2021-09-22 20:22:04.682945,406
2021-09-22 20:22:04.682951,347
2021-09-22 20:22:04.682956,262
2021-09-22 20:22:04.682962,153
2021-09-22 20:22:04.682968,31
2021-09-22 20:22:04.682974,-72
2021-09-22 20:22:04.682979,-155
2021-09-22 20:22:04.682985,-211
2021-09-22 20:22:04.682991,-240
2021-09-22 20:22:04.682997,-267
2021-09-22 20:22:04.683003,-291
2021-09-22 20:22:04.683008,-282
2021-09-22 20:22:04.683014,-265
2021-09-22 20:22:04.683020,-262
2021-09-22 20:22:04.683025,-257
2021-09-22 20:22:04.683031,-245
2021-09-22 20:22:04.683037,-223
2021-09-22 20:22:04.683043,-206
2021-09-22 20:22:04.683048,-197
2021-09-22 20:22:04.683054,-184
2021-09-22 20:22:04.683060,-167
2021-09-22 20:22:04.952698,-158
2021-09-22 20:22:04.952714,-138
2021-09-22 20:22:04.952721,-116
2021-09-22 20:22:04.952727,-119
2021-09-22 20:22:04.952733,-126
2021-09-22 20:22:04.952739,-126
2021-09-22 20:22:04.952745,-126
2021-09-22 20:22:04.952751,-114
2021-09-22 20:22:04.952757,-109
2021-09-22 20:22:04.952762,-128
2021-09-22 20:22:04.952768,-131
2021-09-22 20:22:04.952774,-119
2021-09-22 20:22:04.952779,-126
2021-09-22 20:22:04.952785,-128
2021-09-22 20:22:04.952791,-119
2021-09-22 20:22:04.952797,-121
2021-09-22 20:22:04.952802,-121
2021-09-22 20:22:04.952808,-102
2021-09-22 20:22:04.952814,-92
2021-09-22 20:22:04.952820,-97
2021-09-22 20:22:04.952825,-94
2021-09-22 20:22:04.952831,-87
2021-09-22 20:22:04.952837,-85
2021-09-22 20:22:04.952843,-87
2021-09-22 20:22:04.952848,-77
2021-09-22 20:22:04.952854,-68
2021-09-22 20:22:04.952860,-68
2021-09-22 20:22:04.952866,-70
2021-09-22 20:22:04.952871,-60
2021-09-22 20:22:04.952877,-55
2021-09-22 20:22:05.132904,-55
2021-09-22 20:22:05.132923,-53
2021-09-22 20:22:05.132930,-55
2021-09-22 20:22:05.132936,-53
2021-09-22 20:22:05.132942,-38
2021-09-22 20:22:05.132948,-36
2021-09-22 20:22:05.132954,-48
2021-09-22 20:22:05.132959,-51
2021-09-22 20:22:05.132965,-43
2021-09-22 20:22:05.132971,-46
2021-09-22 20:22:05.132977,-43
2021-09-22 20:22:05.132983,-29
2021-09-22 20:22:05.132988,-29
2021-09-22 20:22:05.132994,-36
2021-09-22 20:22:05.133000,-38
2021-09-22 20:22:05.133006,-26
2021-09-22 20:22:05.133011,-19
2021-09-22 20:22:05.133017,-29
2021-09-22 20:22:05.133023,-38
2021-09-22 20:22:05.133029,-31
2021-09-22 20:22:05.133034,-19
2021-09-22 20:22:05.133040,-17
2021-09-22 20:22:05.133046,-21
2021-09-22 20:22:05.133057,-17
2021-09-22 20:22:05.133063,-4
2021-09-22 20:22:05.133068,2
2021-09-22 20:22:05.133074,19
2021-09-22 20:22:05.133080,34
2021-09-22 20:22:05.133086,29
2021-09-22 20:22:05.133091,21
2021-09-22 20:22:05.402815,29
2021-09-22 20:22:05.402832,26
2021-09-22 20:22:05.402839,7
2021-09-22 20:22:05.402846,-14
2021-09-22 20:22:05.402851,-26
2021-09-22 20:22:05.402861,-21
2021-09-22 20:22:05.402867,-12
2021-09-22 20:22:05.402873,-12
2021-09-22 20:22:05.402879,-14
2021-09-22 20:22:05.402885,-19
2021-09-22 20:22:05.402891,-21
2021-09-22 20:22:05.402897,-12
2021-09-22 20:22:05.402903,34
2021-09-22 20:22:05.402909,133
2021-09-22 20:22:05.402917,326
2021-09-22 20:22:05.402923,576
2021-09-22 20:22:05.402929,593
2021-09-22 20:22:05.402935,250
2021-09-22 20:22:05.402941,-250
2021-09-22 20:22:05.402947,-644
2021-09-22 20:22:05.402953,-530
2021-09-22 20:22:05.402959,-124
2021-09-22 20:22:05.402964,-21
2021-09-22 20:22:05.402970,-38
2021-09-22 20:22:05.402976,77
2021-09-22 20:22:05.402981,124
2021-09-22 20:22:05.402987,90
2021-09-22 20:22:05.402993,114
2021-09-22 20:22:05.402999,145
2021-09-22 20:22:05.403005,145
2021-09-22 20:22:05.582863,150
2021-09-22 20:22:05.582883,163
2021-09-22 20:22:05.582889,160
2021-09-22 20:22:05.582894,158
2021-09-22 20:22:05.582900,170
2021-09-22 20:22:05.582905,184
2021-09-22 20:22:05.582910,194
2021-09-22 20:22:05.582915,216
2021-09-22 20:22:05.582920,240
2021-09-22 20:22:05.582925,257
2021-09-22 20:22:05.582929,277
2021-09-22 20:22:05.582934,313
2021-09-22 20:22:05.582939,347
2021-09-22 20:22:05.582944,384
2021-09-22 20:22:05.582949,420
2021-09-22 20:22:05.582954,433
2021-09-22 20:22:05.582959,440
2021-09-22 20:22:05.582964,464
2021-09-22 20:22:05.582969,472
2021-09-22 20:22:05.582974,445
2021-09-22 20:22:05.582979,396
2021-09-22 20:22:05.582984,328
2021-09-22 20:22:05.582989,238
2021-09-22 20:22:05.582994,131
2021-09-22 20:22:05.582999,21
2021-09-22 20:22:05.583004,-80
2021-09-22 20:22:05.583009,-163
2021-09-22 20:22:05.583014,-216
2021-09-22 20:22:05.583019,-248
2021-09-22 20:22:05.583025,-262
2021-09-22 20:22:05.897877,-260
2021-09-22 20:22:05.897896,-253
2021-09-22 20:22:05.897903,-253
2021-09-22 20:22:05.897909,-260
2021-09-22 20:22:05.897914,-250
2021-09-22 20:22:05.897920,-221
2021-09-22 20:22:05.897926,-201
2021-09-22 20:22:05.897932,-189
2021-09-22 20:22:05.897937,-175
2021-09-22 20:22:05.897943,-170
2021-09-22 20:22:05.897949,-163
2021-09-22 20:22:05.897955,-145
2021-09-22 20:22:05.897961,-136
2021-09-22 20:22:05.897966,-136
2021-09-22 20:22:05.897972,-131
2021-09-22 20:22:05.897978,-121
2021-09-22 20:22:05.897983,-116
2021-09-22 20:22:05.897989,-109
2021-09-22 20:22:05.897995,-109
2021-09-22 20:22:05.898000,-107
2021-09-22 20:22:05.898006,-109
2021-09-22 20:22:05.898012,-116
2021-09-22 20:22:05.898018,-121
2021-09-22 20:22:05.898023,-111
2021-09-22 20:22:05.898029,-102
2021-09-22 20:22:05.898035,-94
2021-09-22 20:22:05.898040,-94
2021-09-22 20:22:05.898046,-99
2021-09-22 20:22:05.898052,-94
2021-09-22 20:22:05.898057,-85
2021-09-22 20:22:06.122332,-72
2021-09-22 20:22:06.122355,-68
2021-09-22 20:22:06.122362,-72
2021-09-22 20:22:06.122368,-77
2021-09-22 20:22:06.122373,-72
2021-09-22 20:22:06.122378,-63
2021-09-22 20:22:06.122384,-58
2021-09-22 20:22:06.122390,-60
2021-09-22 20:22:06.122395,-60
2021-09-22 20:22:06.122401,-60
2021-09-22 20:22:06.122406,-51
2021-09-22 20:22:06.122412,-43
2021-09-22 20:22:06.122417,-41
2021-09-22 20:22:06.122422,-46
2021-09-22 20:22:06.122430,-53
2021-09-22 20:22:06.122435,-46
2021-09-22 20:22:06.122442,-31
2021-09-22 20:22:06.122447,-31
2021-09-22 20:22:06.122452,-31
2021-09-22 20:22:06.122457,-34
2021-09-22 20:22:06.122463,-38
2021-09-22 20:22:06.122469,-34
2021-09-22 20:22:06.122474,-26
2021-09-22 20:22:06.122480,-24
2021-09-22 20:22:06.122486,-24
2021-09-22 20:22:06.122491,-17
2021-09-22 20:22:06.122497,-9
2021-09-22 20:22:06.122524,-21
2021-09-22 20:22:06.122531,-21
2021-09-22 20:22:06.122537,2
2021-09-22 20:22:06.391526,17
2021-09-22 20:22:06.391542,19
2021-09-22 20:22:06.391549,24
2021-09-22 20:22:06.391555,31
2021-09-22 20:22:06.391561,31
2021-09-22 20:22:06.391567,19
2021-09-22 20:22:06.391573,4
2021-09-22 20:22:06.391579,-14
2021-09-22 20:22:06.391585,-29
2021-09-22 20:22:06.391590,-21
2021-09-22 20:22:06.391596,-14
2021-09-22 20:22:06.391602,-14
2021-09-22 20:22:06.391608,-4
2021-09-22 20:22:06.391614,-4
2021-09-22 20:22:06.391620,-19
2021-09-22 20:22:06.391626,-4
2021-09-22 20:22:06.391631,58
2021-09-22 20:22:06.391637,170
2021-09-22 20:22:06.391643,362
2021-09-22 20:22:06.391649,542
2021-09-22 20:22:06.391655,437
2021-09-22 20:22:06.391660,36
2021-09-22 20:22:06.391666,-457
2021-09-22 20:22:06.391672,-691
2021-09-22 20:22:06.391678,-394
2021-09-22 20:22:06.391683,-63
2021-09-22 20:22:06.391689,-68
2021-09-22 20:22:06.391695,-29
2021-09-22 20:22:06.391701,111
2021-09-22 20:22:06.391706,119
2021-09-22 20:22:06.571575,85
2021-09-22 20:22:06.571593,121
2021-09-22 20:22:06.571600,145
2021-09-22 20:22:06.571606,136
2021-09-22 20:22:06.571612,153
2021-09-22 20:22:06.571618,165
2021-09-22 20:22:06.571624,150
2021-09-22 20:22:06.571629,158
2021-09-22 20:22:06.571635,180
2021-09-22 20:22:06.571641,184
2021-09-22 20:22:06.571647,192
2021-09-22 20:22:06.571653,221
2021-09-22 20:22:06.571659,243
2021-09-22 20:22:06.571665,248
2021-09-22 20:22:06.571671,274
2021-09-22 20:22:06.571676,321
2021-09-22 20:22:06.571682,357
2021-09-22 20:22:06.571688,384
2021-09-22 20:22:06.571694,408
2021-09-22 20:22:06.571700,430
2021-09-22 20:22:06.571706,452
2021-09-22 20:22:06.571712,457
2021-09-22 20:22:06.571717,440
2021-09-22 20:22:06.571723,418
2021-09-22 20:22:06.571729,362
2021-09-22 20:22:06.571735,279
2021-09-22 20:22:06.571741,184
2021-09-22 20:22:06.571747,65
2021-09-22 20:22:06.571752,-48
2021-09-22 20:22:06.571761,-116
2021-09-22 20:22:06.797233,-172
2021-09-22 20:22:06.797251,-236
2021-09-22 20:22:06.797259,-260
2021-09-22 20:22:06.797265,-262
2021-09-22 20:22:06.797271,-267
2021-09-22 20:22:06.797277,-270
2021-09-22 20:22:06.797283,-270
2021-09-22 20:22:06.797289,-257
2021-09-22 20:22:06.797295,-238
2021-09-22 20:22:06.797301,-223
2021-09-22 20:22:06.797307,-204
2021-09-22 20:22:06.797313,-184
2021-09-22 20:22:06.797318,-180
2021-09-22 20:22:06.797324,-170
2021-09-22 20:22:06.797330,-158
2021-09-22 20:22:06.797336,-160
2021-09-22 20:22:06.797342,-145
2021-09-22 20:22:06.797348,-114
2021-09-22 20:22:06.797353,-114
2021-09-22 20:22:06.797359,-126
2021-09-22 20:22:06.797365,-124
2021-09-22 20:22:06.797371,-124
2021-09-22 20:22:06.797377,-131
2021-09-22 20:22:06.797382,-128
2021-09-22 20:22:06.797388,-124
2021-09-22 20:22:06.797394,-126
2021-09-22 20:22:06.797400,-124
2021-09-22 20:22:06.797406,-107
2021-09-22 20:22:06.797411,-104
2021-09-22 20:22:06.797417,-116
2021-09-22 20:22:06.977814,-116
2021-09-22 20:22:06.977830,-109
2021-09-22 20:22:06.977837,-114
2021-09-22 20:22:06.977843,-114
2021-09-22 20:22:06.977849,-99
2021-09-22 20:22:06.977855,-92
2021-09-22 20:22:06.977861,-102
2021-09-22 20:22:06.977866,-99
2021-09-22 20:22:06.977872,-90
2021-09-22 20:22:06.977878,-90
2021-09-22 20:22:06.977884,-87
2021-09-22 20:22:06.977890,-85
2021-09-22 20:22:06.977896,-87
2021-09-22 20:22:06.977902,-75
2021-09-22 20:22:06.977908,-70
2021-09-22 20:22:06.977914,-80
2021-09-22 20:22:06.977920,-82
2021-09-22 20:22:06.977926,-70
2021-09-22 20:22:06.977931,-51
2021-09-22 20:22:06.977937,-48
2021-09-22 20:22:06.977943,-58
2021-09-22 20:22:06.977949,-60
2021-09-22 20:22:06.977954,-60
2021-09-22 20:22:06.977960,-58
2021-09-22 20:22:06.977966,-53
2021-09-22 20:22:06.977972,-48
2021-09-22 20:22:06.977977,-41
2021-09-22 20:22:06.977983,-36
2021-09-22 20:22:06.977989,-38
2021-09-22 20:22:06.977995,-38
2021-09-22 20:22:07.202941,-29
2021-09-22 20:22:07.202960,-14
2021-09-22 20:22:07.202967,0
2021-09-22 20:22:07.202973,9
2021-09-22 20:22:07.202979,0
2021-09-22 20:22:07.202985,-12
2021-09-22 20:22:07.202991,-7
2021-09-22 20:22:07.202997,2
2021-09-22 20:22:07.203003,-7
2021-09-22 20:22:07.203009,-31
2021-09-22 20:22:07.203015,-46
2021-09-22 20:22:07.203021,-43
2021-09-22 20:22:07.203027,-31
2021-09-22 20:22:07.203032,-21
2021-09-22 20:22:07.203038,-24
2021-09-22 20:22:07.203044,-29
2021-09-22 20:22:07.203050,-26
2021-09-22 20:22:07.203056,7
2021-09-22 20:22:07.203062,92
2021-09-22 20:22:07.203068,240
2021-09-22 20:22:07.203074,467
2021-09-22 20:22:07.203080,574
2021-09-22 20:22:07.203086,313
2021-09-22 20:22:07.203092,-165
2021-09-22 20:22:07.203097,-596
2021-09-22 20:22:07.203103,-656
2021-09-22 20:22:07.203109,-282
2021-09-22 20:22:07.203115,-34
2021-09-22 20:22:07.203121,-48
2021-09-22 20:22:07.203127,29
2021-09-22 20:22:07.427750,126
2021-09-22 20:22:07.427766,107
2021-09-22 20:22:07.427773,99
2021-09-22 20:22:07.427780,128
2021-09-22 20:22:07.427786,126
2021-09-22 20:22:07.427791,126
2021-09-22 20:22:07.427797,145
2021-09-22 20:22:07.427803,153
2021-09-22 20:22:07.427809,150
2021-09-22 20:22:07.427815,150
2021-09-22 20:22:07.427821,150
2021-09-22 20:22:07.427827,172
2021-09-22 20:22:07.427833,206
2021-09-22 20:22:07.427839,226
2021-09-22 20:22:07.427845,238
2021-09-22 20:22:07.427850,250
2021-09-22 20:22:07.427856,282
2021-09-22 20:22:07.427862,328
2021-09-22 20:22:07.427868,360
2021-09-22 20:22:07.427873,389
2021-09-22 20:22:07.427879,430
2021-09-22 20:22:07.427885,455
2021-09-22 20:22:07.427891,455
2021-09-22 20:22:07.427897,450
2021-09-22 20:22:07.427902,445
2021-09-22 20:22:07.427908,416
2021-09-22 20:22:07.427914,340
2021-09-22 20:22:07.427919,236
2021-09-22 20:22:07.427925,133
2021-09-22 20:22:07.427931,31
2021-09-22 20:22:07.742868,-77
2021-09-22 20:22:07.742886,-160
2021-09-22 20:22:07.742893,-223
2021-09-22 20:22:07.742899,-274
2021-09-22 20:22:07.742905,-294
2021-09-22 20:22:07.742911,-284
2021-09-22 20:22:07.742916,-287
2021-09-22 20:22:07.742922,-294
2021-09-22 20:22:07.742928,-277
2021-09-22 20:22:07.742934,-260
2021-09-22 20:22:07.742940,-255
2021-09-22 20:22:07.742946,-240
2021-09-22 20:22:07.742952,-218
2021-09-22 20:22:07.742957,-206
2021-09-22 20:22:07.742963,-192
2021-09-22 20:22:07.742969,-177
2021-09-22 20:22:07.742975,-170
2021-09-22 20:22:07.742981,-160
2021-09-22 20:22:07.742987,-138
2021-09-22 20:22:07.742992,-128
2021-09-22 20:22:07.742998,-133
2021-09-22 20:22:07.743004,-131
2021-09-22 20:22:07.743010,-116
2021-09-22 20:22:07.743016,-104
2021-09-22 20:22:07.743021,-109
2021-09-22 20:22:07.743027,-111
2021-09-22 20:22:07.743033,-111
2021-09-22 20:22:07.743039,-114
2021-09-22 20:22:07.743045,-121
2021-09-22 20:22:07.743050,-126
2021-09-22 20:22:07.922819,-124
2021-09-22 20:22:07.922836,-107
2021-09-22 20:22:07.922843,-97
2021-09-22 20:22:07.922849,-104
2021-09-22 20:22:07.922855,-109
2021-09-22 20:22:07.922861,-97
2021-09-22 20:22:07.922866,-82
2021-09-22 20:22:07.922872,-72
2021-09-22 20:22:07.922878,-80
2021-09-22 20:22:07.922884,-94
2021-09-22 20:22:07.922890,-90
2021-09-22 20:22:07.922895,-77
2021-09-22 20:22:07.922901,-72
2021-09-22 20:22:07.922907,-77
2021-09-22 20:22:07.922913,-85
2021-09-22 20:22:07.922918,-75
2021-09-22 20:22:07.922924,-60
2021-09-22 20:22:07.922930,-63
2021-09-22 20:22:07.922935,-70
2021-09-22 20:22:07.922941,-68
2021-09-22 20:22:07.922947,-63
2021-09-22 20:22:07.922952,-55
2021-09-22 20:22:07.922958,-55
2021-09-22 20:22:07.922964,-55
2021-09-22 20:22:07.922970,-48
2021-09-22 20:22:07.922975,-38
2021-09-22 20:22:07.922981,-43
2021-09-22 20:22:07.922987,-48
2021-09-22 20:22:07.922992,-46
2021-09-22 20:22:07.922998,-46
2021-09-22 20:22:08.147883,-48
2021-09-22 20:22:08.147901,-41
2021-09-22 20:22:08.147909,-38
2021-09-22 20:22:08.147915,-38
2021-09-22 20:22:08.147921,-26
2021-09-22 20:22:08.147927,-19
2021-09-22 20:22:08.147933,-12
2021-09-22 20:22:08.147939,2
2021-09-22 20:22:08.147945,0
2021-09-22 20:22:08.147950,-14
2021-09-22 20:22:08.147956,-9
2021-09-22 20:22:08.147962,-2
2021-09-22 20:22:08.147968,-14
2021-09-22 20:22:08.147973,-38
2021-09-22 20:22:08.147979,-58
2021-09-22 20:22:08.147985,-48
2021-09-22 20:22:08.147991,-34
2021-09-22 20:22:08.147997,-38
2021-09-22 20:22:08.148002,-31
2021-09-22 20:22:08.148008,-29
2021-09-22 20:22:08.148014,-41
2021-09-22 20:22:08.148020,-24
2021-09-22 20:22:08.148025,41
2021-09-22 20:22:08.148031,153
2021-09-22 20:22:08.148037,367
2021-09-22 20:22:08.148043,596
2021-09-22 20:22:08.148048,523
2021-09-22 20:22:08.148054,126
2021-09-22 20:22:08.148063,-355
2021-09-22 20:22:08.148069,-669
2021-09-22 20:22:08.372826,-474
2021-09-22 20:22:08.372843,-87
2021-09-22 20:22:08.372850,-34
2021-09-22 20:22:08.372856,-41
2021-09-22 20:22:08.372862,85
2021-09-22 20:22:08.372868,107
2021-09-22 20:22:08.372874,58
2021-09-22 20:22:08.372879,92
2021-09-22 20:22:08.372885,138
2021-09-22 20:22:08.372891,128
2021-09-22 20:22:08.372897,124
2021-09-22 20:22:08.372902,153
2021-09-22 20:22:08.372908,163
2021-09-22 20:22:08.372914,143
2021-09-22 20:22:08.372920,153
2021-09-22 20:22:08.372926,189
2021-09-22 20:22:08.372932,204
2021-09-22 20:22:08.372938,211
2021-09-22 20:22:08.372943,236
2021-09-22 20:22:08.372949,255
2021-09-22 20:22:08.372955,267
2021-09-22 20:22:08.372961,304
2021-09-22 20:22:08.372967,345
2021-09-22 20:22:08.372972,374
2021-09-22 20:22:08.372978,406
2021-09-22 20:22:08.372984,435
2021-09-22 20:22:08.372990,447
2021-09-22 20:22:08.372995,445
2021-09-22 20:22:08.373001,442
2021-09-22 20:22:08.373007,423
2021-09-22 20:22:08.641590,369
2021-09-22 20:22:08.641609,287
2021-09-22 20:22:08.641617,187
2021-09-22 20:22:08.641623,70
2021-09-22 20:22:08.641629,-38
2021-09-22 20:22:08.641635,-133
2021-09-22 20:22:08.641641,-223
2021-09-22 20:22:08.641647,-272
2021-09-22 20:22:08.641653,-279
2021-09-22 20:22:08.641659,-301
2021-09-22 20:22:08.641664,-318
2021-09-22 20:22:08.641670,-296
2021-09-22 20:22:08.641676,-287
2021-09-22 20:22:08.641682,-294
2021-09-22 20:22:08.641688,-279
2021-09-22 20:22:08.641694,-262
2021-09-22 20:22:08.641700,-245
2021-09-22 20:22:08.641705,-221
2021-09-22 20:22:08.641711,-201
2021-09-22 20:22:08.641717,-197
2021-09-22 20:22:08.641723,-187
2021-09-22 20:22:08.641729,-167
2021-09-22 20:22:08.641735,-153
2021-09-22 20:22:08.641740,-143
2021-09-22 20:22:08.641746,-136
2021-09-22 20:22:08.641752,-133
2021-09-22 20:22:08.641758,-124
2021-09-22 20:22:08.641763,-119
2021-09-22 20:22:08.641769,-116
2021-09-22 20:22:08.641775,-111
2021-09-22 20:22:08.822839,-107
2021-09-22 20:22:08.822858,-104
2021-09-22 20:22:08.822865,-109
2021-09-22 20:22:08.822871,-116
2021-09-22 20:22:08.822877,-109
2021-09-22 20:22:08.822883,-107
2021-09-22 20:22:08.822889,-116
2021-09-22 20:22:08.822895,-124
2021-09-22 20:22:08.822901,-121
2021-09-22 20:22:08.822907,-116
2021-09-22 20:22:08.822913,-104
2021-09-22 20:22:08.822919,-102
2021-09-22 20:22:08.822925,-104
2021-09-22 20:22:08.822931,-90
2021-09-22 20:22:08.822937,-80
2021-09-22 20:22:08.822943,-94
2021-09-22 20:22:08.822949,-92
2021-09-22 20:22:08.822954,-80
2021-09-22 20:22:08.822960,-75
2021-09-22 20:22:08.822966,-68
2021-09-22 20:22:08.822972,-68
2021-09-22 20:22:08.822977,-80
2021-09-22 20:22:08.822983,-72
2021-09-22 20:22:08.822989,-46
2021-09-22 20:22:08.822994,-46
2021-09-22 20:22:08.823000,-72
2021-09-22 20:22:08.823006,-70
2021-09-22 20:22:08.823012,-51
2021-09-22 20:22:08.823017,-55
2021-09-22 20:22:08.823023,-65
2021-09-22 20:22:09.093577,-51
2021-09-22 20:22:09.093623,-43
2021-09-22 20:22:09.093637,-43
2021-09-22 20:22:09.093648,-46
2021-09-22 20:22:09.093659,-53
2021-09-22 20:22:09.093670,-58
2021-09-22 20:22:09.093680,-51
2021-09-22 20:22:09.093690,-43
2021-09-22 20:22:09.093698,-34
2021-09-22 20:22:09.093717,-38
2021-09-22 20:22:09.093725,-55
2021-09-22 20:22:09.093737,-58
2021-09-22 20:22:09.093747,-43
2021-09-22 20:22:09.093757,-31
2021-09-22 20:22:09.093767,-14
2021-09-22 20:22:09.093776,0
2021-09-22 20:22:09.093786,0
2021-09-22 20:22:09.093795,0
2021-09-22 20:22:09.093803,12
2021-09-22 20:22:09.093813,12
2021-09-22 20:22:09.093822,-2
2021-09-22 20:22:09.093833,-21
2021-09-22 20:22:09.093842,-34
2021-09-22 20:22:09.093850,-36
2021-09-22 20:22:09.093859,-31
2021-09-22 20:22:09.093869,-21
2021-09-22 20:22:09.093879,-24
2021-09-22 20:22:09.093888,-38
2021-09-22 20:22:09.093898,-24
2021-09-22 20:22:09.093909,12
2021-09-22 20:22:09.273372,34
2021-09-22 20:22:09.273391,97
2021-09-22 20:22:09.273398,279
2021-09-22 20:22:09.273404,545
2021-09-22 20:22:09.273410,625
2021-09-22 20:22:09.273416,333
2021-09-22 20:22:09.273422,-143
2021-09-22 20:22:09.273428,-579
2021-09-22 20:22:09.273433,-622
2021-09-22 20:22:09.273439,-226
2021-09-22 20:22:09.273445,-7
2021-09-22 20:22:09.273451,-43
2021-09-22 20:22:09.273456,48
2021-09-22 20:22:09.273462,136
2021-09-22 20:22:09.273468,92
2021-09-22 20:22:09.273474,90
2021-09-22 20:22:09.273480,131
2021-09-22 20:22:09.273486,133
2021-09-22 20:22:09.273491,133
2021-09-22 20:22:09.273497,148
2021-09-22 20:22:09.273503,158
2021-09-22 20:22:09.273509,170
2021-09-22 20:22:09.273515,177
2021-09-22 20:22:09.273520,184
2021-09-22 20:22:09.273526,204
2021-09-22 20:22:09.273532,216
2021-09-22 20:22:09.273537,223
2021-09-22 20:22:09.273543,257
2021-09-22 20:22:09.273549,299
2021-09-22 20:22:09.273555,321
2021-09-22 20:22:09.588007,338
2021-09-22 20:22:09.588026,367
2021-09-22 20:22:09.588033,399
2021-09-22 20:22:09.588039,411
2021-09-22 20:22:09.588045,425
2021-09-22 20:22:09.588051,447
2021-09-22 20:22:09.588057,437
2021-09-22 20:22:09.588063,411
2021-09-22 20:22:09.588069,386
2021-09-22 20:22:09.588075,323
2021-09-22 20:22:09.588080,221
2021-09-22 20:22:09.588086,121
2021-09-22 20:22:09.588092,19
2021-09-22 20:22:09.588098,-97
2021-09-22 20:22:09.588104,-192
2021-09-22 20:22:09.588110,-245
2021-09-22 20:22:09.588116,-282
2021-09-22 20:22:09.588122,-296
2021-09-22 20:22:09.588128,-291
2021-09-22 20:22:09.588133,-289
2021-09-22 20:22:09.588139,-294
2021-09-22 20:22:09.588145,-287
2021-09-22 20:22:09.588151,-272
2021-09-22 20:22:09.588157,-253
2021-09-22 20:22:09.588162,-233
2021-09-22 20:22:09.588168,-216
2021-09-22 20:22:09.588174,-204
2021-09-22 20:22:09.588180,-187
2021-09-22 20:22:09.588186,-177
2021-09-22 20:22:09.588192,-167
2021-09-22 20:22:09.767930,-145
2021-09-22 20:22:09.767949,-133
2021-09-22 20:22:09.767956,-143
2021-09-22 20:22:09.767961,-143
2021-09-22 20:22:09.767967,-119
2021-09-22 20:22:09.767973,-107
2021-09-22 20:22:09.767979,-111
2021-09-22 20:22:09.767985,-107
2021-09-22 20:22:09.767990,-104
2021-09-22 20:22:09.767996,-116
2021-09-22 20:22:09.768002,-114
2021-09-22 20:22:09.768008,-109
2021-09-22 20:22:09.768014,-109
2021-09-22 20:22:09.768019,-104
2021-09-22 20:22:09.768025,-107
2021-09-22 20:22:09.768031,-116
2021-09-22 20:22:09.768037,-114
2021-09-22 20:22:09.768043,-94
2021-09-22 20:22:09.768048,-90
2021-09-22 20:22:09.768054,-94
2021-09-22 20:22:09.768060,-82
2021-09-22 20:22:09.768065,-75
2021-09-22 20:22:09.768071,-85
2021-09-22 20:22:09.768077,-82
2021-09-22 20:22:09.768083,-65
2021-09-22 20:22:09.768088,-65
2021-09-22 20:22:09.768094,-75
2021-09-22 20:22:09.768100,-72
2021-09-22 20:22:09.768106,-58
2021-09-22 20:22:09.768111,-58
2021-09-22 20:22:09.992815,-65
2021-09-22 20:22:09.992832,-58
2021-09-22 20:22:09.992839,-51
2021-09-22 20:22:09.992845,-51
2021-09-22 20:22:09.992851,-34
2021-09-22 20:22:09.992857,-21
2021-09-22 20:22:09.992863,-38
2021-09-22 20:22:09.992869,-63
2021-09-22 20:22:09.992875,-68
2021-09-22 20:22:09.992881,-60
2021-09-22 20:22:09.992887,-55
2021-09-22 20:22:09.992893,-53
2021-09-22 20:22:09.992898,-46
2021-09-22 20:22:09.992904,-46
2021-09-22 20:22:09.992910,-53
2021-09-22 20:22:09.992916,-51
2021-09-22 20:22:09.992921,-34
2021-09-22 20:22:09.992927,-31
2021-09-22 20:22:09.992933,-48
2021-09-22 20:22:09.992939,-46
2021-09-22 20:22:09.992945,-41
2021-09-22 20:22:09.992950,-46
2021-09-22 20:22:09.992956,-41
2021-09-22 20:22:09.992965,-24
2021-09-22 20:22:09.992971,-4
2021-09-22 20:22:09.992977,9
2021-09-22 20:22:09.992982,4
2021-09-22 20:22:09.992988,7
2021-09-22 20:22:09.992994,17
2021-09-22 20:22:09.993000,7
2021-09-22 20:22:10.262955,-14
2021-09-22 20:22:10.262973,-17
2021-09-22 20:22:10.262980,-17
2021-09-22 20:22:10.262986,-21
2021-09-22 20:22:10.262991,-21
2021-09-22 20:22:10.262997,-19
2021-09-22 20:22:10.263003,-29
2021-09-22 20:22:10.263009,-29
2021-09-22 20:22:10.263015,-19
2021-09-22 20:22:10.263020,-4
2021-09-22 20:22:10.263026,43
2021-09-22 20:22:10.263032,165
2021-09-22 20:22:10.263038,403
2021-09-22 20:22:10.263043,632
2021-09-22 20:22:10.263049,510
2021-09-22 20:22:10.263055,65
2021-09-22 20:22:10.263061,-408
2021-09-22 20:22:10.263067,-659
2021-09-22 20:22:10.263072,-423
2021-09-22 20:22:10.263078,-65
2021-09-22 20:22:10.263084,-24
2021-09-22 20:22:10.263090,-12
2021-09-22 20:22:10.263095,102
2021-09-22 20:22:10.263101,119
2021-09-22 20:22:10.263107,94
2021-09-22 20:22:10.263112,121
2021-09-22 20:22:10.263118,138
2021-09-22 20:22:10.263124,138
2021-09-22 20:22:10.263129,150
2021-09-22 20:22:10.263135,153
2021-09-22 20:22:10.442847,150
2021-09-22 20:22:10.442864,175
2021-09-22 20:22:10.442871,201
2021-09-22 20:22:10.442877,209
2021-09-22 20:22:10.442883,211
2021-09-22 20:22:10.442889,233
2021-09-22 20:22:10.442895,248
2021-09-22 20:22:10.442901,255
2021-09-22 20:22:10.442906,277
2021-09-22 20:22:10.442912,311
2021-09-22 20:22:10.442918,340
2021-09-22 20:22:10.442924,374
2021-09-22 20:22:10.442930,401
2021-09-22 20:22:10.442935,418
2021-09-22 20:22:10.442941,430
2021-09-22 20:22:10.442947,425
2021-09-22 20:22:10.442953,418
2021-09-22 20:22:10.442958,406
2021-09-22 20:22:10.442964,352
2021-09-22 20:22:10.442970,270
2021-09-22 20:22:10.442975,172
2021-09-22 20:22:10.442981,48
2021-09-22 20:22:10.442987,-72
2021-09-22 20:22:10.442993,-155
2021-09-22 20:22:10.442998,-216
2021-09-22 20:22:10.443004,-260
2021-09-22 20:22:10.443010,-279
2021-09-22 20:22:10.443016,-289
2021-09-22 20:22:10.443021,-291
2021-09-22 20:22:10.443027,-291
2021-09-22 20:22:10.756565,-291
2021-09-22 20:22:10.756583,-282
2021-09-22 20:22:10.756590,-255
2021-09-22 20:22:10.756596,-238
2021-09-22 20:22:10.756602,-231
2021-09-22 20:22:10.756608,-223
2021-09-22 20:22:10.756614,-204
2021-09-22 20:22:10.756620,-182
2021-09-22 20:22:10.756626,-165
2021-09-22 20:22:10.756632,-158
2021-09-22 20:22:10.756638,-153
2021-09-22 20:22:10.756644,-153
2021-09-22 20:22:10.756650,-145
2021-09-22 20:22:10.756657,-131
2021-09-22 20:22:10.756663,-131
2021-09-22 20:22:10.756668,-131
2021-09-22 20:22:10.756674,-121
2021-09-22 20:22:10.756680,-124
2021-09-22 20:22:10.756686,-119
2021-09-22 20:22:10.756692,-104
2021-09-22 20:22:10.756698,-111
2021-09-22 20:22:10.756704,-119
2021-09-22 20:22:10.756710,-109
2021-09-22 20:22:10.756716,-111
2021-09-22 20:22:10.756722,-124
2021-09-22 20:22:10.756727,-114
2021-09-22 20:22:10.756733,-92
2021-09-22 20:22:10.756739,-87
2021-09-22 20:22:10.756745,-90
2021-09-22 20:22:10.756751,-87
2021-09-22 20:22:10.892875,-87
2021-09-22 20:22:10.892891,-77
2021-09-22 20:22:10.892898,-72
2021-09-22 20:22:10.892904,-82
2021-09-22 20:22:10.892910,-77
2021-09-22 20:22:10.892916,-60
2021-09-22 20:22:10.892922,-63
2021-09-22 20:22:10.892928,-68
2021-09-22 20:22:10.892934,-60
2021-09-22 20:22:10.892940,-58
2021-09-22 20:22:10.892945,-63
2021-09-22 20:22:10.892951,-58
2021-09-22 20:22:10.892957,-48
2021-09-22 20:22:10.892963,-46
2021-09-22 20:22:10.892968,-46
2021-09-22 20:22:10.892974,-43
2021-09-22 20:22:10.892980,-46
2021-09-22 20:22:10.892986,-55
2021-09-22 20:22:10.892991,-63
2021-09-22 20:22:10.892997,-55
2021-09-22 20:22:10.893003,-43
2021-09-22 20:22:10.893008,-48
2021-09-22 20:22:10.893014,-53
2021-09-22 20:22:10.893020,-48
2021-09-22 20:22:10.893025,-38
2021-09-22 20:22:10.893031,-34
2021-09-22 20:22:10.893037,-38
2021-09-22 20:22:10.893042,-43
2021-09-22 20:22:10.893048,-29
2021-09-22 20:22:10.893054,-19
2021-09-22 20:22:11.117991,-29
2021-09-22 20:22:11.118010,-26
2021-09-22 20:22:11.118017,-14
2021-09-22 20:22:11.118023,-4
2021-09-22 20:22:11.118029,4
2021-09-22 20:22:11.118035,9
2021-09-22 20:22:11.118041,12
2021-09-22 20:22:11.118046,21
2021-09-22 20:22:11.118052,9
2021-09-22 20:22:11.118059,-12
2021-09-22 20:22:11.118065,-12
2021-09-22 20:22:11.118070,-7
2021-09-22 20:22:11.118076,-17
2021-09-22 20:22:11.118082,-21
2021-09-22 20:22:11.118088,-14
2021-09-22 20:22:11.118094,-21
2021-09-22 20:22:11.118099,-26
2021-09-22 20:22:11.118105,-14
2021-09-22 20:22:11.118111,0
2021-09-22 20:22:11.118116,26
2021-09-22 20:22:11.118122,102
2021-09-22 20:22:11.118128,267
2021-09-22 20:22:11.118134,542
2021-09-22 20:22:11.118139,674
2021-09-22 20:22:11.118145,408
2021-09-22 20:22:11.118151,-87
2021-09-22 20:22:11.118156,-547
2021-09-22 20:22:11.118162,-613
2021-09-22 20:22:11.118168,-240
2021-09-22 20:22:11.118173,-9
2021-09-22 20:22:11.387838,-26
2021-09-22 20:22:11.387855,41
2021-09-22 20:22:11.387862,128
2021-09-22 20:22:11.387868,116
2021-09-22 20:22:11.387873,104
2021-09-22 20:22:11.387879,133
2021-09-22 20:22:11.387885,153
2021-09-22 20:22:11.387891,150
2021-09-22 20:22:11.387897,150
2021-09-22 20:22:11.387902,160
2021-09-22 20:22:11.387908,172
2021-09-22 20:22:11.387914,177
2021-09-22 20:22:11.387920,177
2021-09-22 20:22:11.387925,192
2021-09-22 20:22:11.387931,214
2021-09-22 20:22:11.387937,243
2021-09-22 20:22:11.387943,272
2021-09-22 20:22:11.387948,289
2021-09-22 20:22:11.387954,311
2021-09-22 20:22:11.387960,347
2021-09-22 20:22:11.387965,377
2021-09-22 20:22:11.387971,408
2021-09-22 20:22:11.387977,447
2021-09-22 20:22:11.387983,472
2021-09-22 20:22:11.387988,467
2021-09-22 20:22:11.387994,455
2021-09-22 20:22:11.388000,450
2021-09-22 20:22:11.388005,411
2021-09-22 20:22:11.388011,343
2021-09-22 20:22:11.388018,274
2021-09-22 20:22:11.613018,170
2021-09-22 20:22:11.613035,41
2021-09-22 20:22:11.613042,-58
2021-09-22 20:22:11.613048,-131
2021-09-22 20:22:11.613054,-201
2021-09-22 20:22:11.613060,-243
2021-09-22 20:22:11.613066,-245
2021-09-22 20:22:11.613072,-240
2021-09-22 20:22:11.613078,-253
2021-09-22 20:22:11.613083,-262
2021-09-22 20:22:11.613089,-248
2021-09-22 20:22:11.613095,-231
2021-09-22 20:22:11.613101,-223
2021-09-22 20:22:11.613107,-206
2021-09-22 20:22:11.613113,-192
2021-09-22 20:22:11.613119,-182
2021-09-22 20:22:11.613124,-163
2021-09-22 20:22:11.613130,-143
2021-09-22 20:22:11.613136,-128
2021-09-22 20:22:11.613141,-116
2021-09-22 20:22:11.613147,-111
2021-09-22 20:22:11.613153,-111
2021-09-22 20:22:11.613159,-104
2021-09-22 20:22:11.613165,-97
2021-09-22 20:22:11.613170,-94
2021-09-22 20:22:11.613176,-87
2021-09-22 20:22:11.613182,-80
2021-09-22 20:22:11.613188,-80
2021-09-22 20:22:11.613193,-77
2021-09-22 20:22:11.613199,-70
2021-09-22 20:22:11.837968,-75
2021-09-22 20:22:11.837986,-85
2021-09-22 20:22:11.837994,-87
2021-09-22 20:22:11.838000,-85
2021-09-22 20:22:11.838006,-75
2021-09-22 20:22:11.838011,-68
2021-09-22 20:22:11.838017,-60
2021-09-22 20:22:11.838023,-55
2021-09-22 20:22:11.838029,-60
2021-09-22 20:22:11.838035,-63
2021-09-22 20:22:11.838040,-55
2021-09-22 20:22:11.838046,-53
2021-09-22 20:22:11.838052,-51
2021-09-22 20:22:11.838058,-46
2021-09-22 20:22:11.838064,-53
2021-09-22 20:22:11.838070,-55
2021-09-22 20:22:11.838075,-46
2021-09-22 20:22:11.838081,-31
2021-09-22 20:22:11.838087,-24
2021-09-22 20:22:11.838093,-29
2021-09-22 20:22:11.838099,-31
2021-09-22 20:22:11.838105,-29
2021-09-22 20:22:11.838110,-26
2021-09-22 20:22:11.838116,-14
2021-09-22 20:22:11.838122,-4
2021-09-22 20:22:11.838128,-14
2021-09-22 20:22:11.838133,-19
2021-09-22 20:22:11.838139,-2
2021-09-22 20:22:11.838145,7
2021-09-22 20:22:11.838150,-7
2021-09-22 20:22:12.062935,-17
2021-09-22 20:22:12.062953,-9
2021-09-22 20:22:12.062960,-12
2021-09-22 20:22:12.062967,-24
2021-09-22 20:22:12.062973,-19
2021-09-22 20:22:12.062979,-2
2021-09-22 20:22:12.062985,2
2021-09-22 20:22:12.062991,7
2021-09-22 20:22:12.062997,19
2021-09-22 20:22:12.063003,24
2021-09-22 20:22:12.063008,17
2021-09-22 20:22:12.063014,9
2021-09-22 20:22:12.063020,19
2021-09-22 20:22:12.063026,9
2021-09-22 20:22:12.063032,-29
2021-09-22 20:22:12.063038,-31
2021-09-22 20:22:12.063043,-17
2021-09-22 20:22:12.063052,-21
2021-09-22 20:22:12.063058,-24
2021-09-22 20:22:12.063064,-9
2021-09-22 20:22:12.063070,-2
2021-09-22 20:22:12.063075,7
2021-09-22 20:22:12.063081,48
2021-09-22 20:22:12.063087,133
2021-09-22 20:22:12.063093,260
2021-09-22 20:22:12.063098,459
2021-09-22 20:22:12.063104,552
2021-09-22 20:22:12.063110,296
2021-09-22 20:22:12.063116,-167
2021-09-22 20:22:12.063121,-576
2021-09-22 20:22:12.378016,-630
2021-09-22 20:22:12.378035,-253
2021-09-22 20:22:12.378042,2
2021-09-22 20:22:12.378048,-14
2021-09-22 20:22:12.378053,60
2021-09-22 20:22:12.378059,163
2021-09-22 20:22:12.378065,136
2021-09-22 20:22:12.378071,121
2021-09-22 20:22:12.378077,163
2021-09-22 20:22:12.378083,167
2021-09-22 20:22:12.378089,165
2021-09-22 20:22:12.378094,187
2021-09-22 20:22:12.378100,192
2021-09-22 20:22:12.378106,180
2021-09-22 20:22:12.378112,184
2021-09-22 20:22:12.378118,199
2021-09-22 20:22:12.378123,209
2021-09-22 20:22:12.378129,218
2021-09-22 20:22:12.378135,240
2021-09-22 20:22:12.378141,265
2021-09-22 20:22:12.378147,284
2021-09-22 20:22:12.378153,311
2021-09-22 20:22:12.378158,345
2021-09-22 20:22:12.378164,374
2021-09-22 20:22:12.378170,399
2021-09-22 20:22:12.378176,435
2021-09-22 20:22:12.378181,467
2021-09-22 20:22:12.378187,474
2021-09-22 20:22:12.378193,464
2021-09-22 20:22:12.378198,452
2021-09-22 20:22:12.512894,423
2021-09-22 20:22:12.512914,364
2021-09-22 20:22:12.512921,274
2021-09-22 20:22:12.512927,167
2021-09-22 20:22:12.512933,58
2021-09-22 20:22:12.512939,-38
2021-09-22 20:22:12.512945,-119
2021-09-22 20:22:12.512951,-184
2021-09-22 20:22:12.512957,-228
2021-09-22 20:22:12.512963,-250
2021-09-22 20:22:12.512969,-257
2021-09-22 20:22:12.512975,-260
2021-09-22 20:22:12.512981,-260
2021-09-22 20:22:12.512987,-250
2021-09-22 20:22:12.512993,-236
2021-09-22 20:22:12.512999,-223
2021-09-22 20:22:12.513004,-204
2021-09-22 20:22:12.513010,-194
2021-09-22 20:22:12.513016,-182
2021-09-22 20:22:12.513022,-160
2021-09-22 20:22:12.513028,-145
2021-09-22 20:22:12.513033,-143
2021-09-22 20:22:12.513039,-138
2021-09-22 20:22:12.513045,-131
2021-09-22 20:22:12.513051,-126
2021-09-22 20:22:12.513056,-116
2021-09-22 20:22:12.513062,-107
2021-09-22 20:22:12.513068,-107
2021-09-22 20:22:12.513074,-109
2021-09-22 20:22:12.513080,-109
2021-09-22 20:22:12.826595,-107
2021-09-22 20:22:12.826613,-109
2021-09-22 20:22:12.826620,-109
2021-09-22 20:22:12.826627,-107
2021-09-22 20:22:12.826633,-109
2021-09-22 20:22:12.826638,-111
2021-09-22 20:22:12.826644,-104
2021-09-22 20:22:12.826650,-99
2021-09-22 20:22:12.826657,-94
2021-09-22 20:22:12.826663,-97
2021-09-22 20:22:12.826669,-109
2021-09-22 20:22:12.826674,-114
2021-09-22 20:22:12.826680,-107
2021-09-22 20:22:12.826686,-97
2021-09-22 20:22:12.826692,-90
2021-09-22 20:22:12.826698,-87
2021-09-22 20:22:12.826703,-87
2021-09-22 20:22:12.826709,-82
2021-09-22 20:22:12.826715,-77
2021-09-22 20:22:12.826721,-75
2021-09-22 20:22:12.826726,-68
2021-09-22 20:22:12.826732,-65
2021-09-22 20:22:12.826738,-63
2021-09-22 20:22:12.826744,-60
2021-09-22 20:22:12.826750,-58
2021-09-22 20:22:12.826755,-53
2021-09-22 20:22:12.826761,-48
2021-09-22 20:22:12.826767,-48
2021-09-22 20:22:12.826772,-48
2021-09-22 20:22:12.826778,-43
2021-09-22 20:22:12.962896,-38
2021-09-22 20:22:12.962916,-36
2021-09-22 20:22:12.962924,-34
2021-09-22 20:22:12.962930,-34
2021-09-22 20:22:12.962936,-41
2021-09-22 20:22:12.962942,-38
2021-09-22 20:22:12.962948,-21
2021-09-22 20:22:12.962954,0
2021-09-22 20:22:12.962960,2
2021-09-22 20:22:12.962966,-4
2021-09-22 20:22:12.962972,-4
2021-09-22 20:22:12.962977,-7
2021-09-22 20:22:12.962983,-24
2021-09-22 20:22:12.962989,-41
2021-09-22 20:22:12.962995,-48
2021-09-22 20:22:12.963000,-53
2021-09-22 20:22:12.963006,-55
2021-09-22 20:22:12.963012,-53
2021-09-22 20:22:12.963018,-51
2021-09-22 20:22:12.963024,-46
2021-09-22 20:22:12.963030,-43
2021-09-22 20:22:12.963035,-38
2021-09-22 20:22:12.963041,4
2021-09-22 20:22:12.963047,107
2021-09-22 20:22:12.963053,279
2021-09-22 20:22:12.963059,493
2021-09-22 20:22:12.963064,476
2021-09-22 20:22:12.963070,90
2021-09-22 20:22:12.963076,-382
2021-09-22 20:22:12.963082,-676
2021-09-22 20:22:13.232954,-576
2021-09-22 20:22:13.232972,-197
2021-09-22 20:22:13.232979,-36
2021-09-22 20:22:13.232985,-46
2021-09-22 20:22:13.232991,58
2021-09-22 20:22:13.232997,128
2021-09-22 20:22:13.233003,99
2021-09-22 20:22:13.233009,111
2021-09-22 20:22:13.233015,145
2021-09-22 20:22:13.233021,136
2021-09-22 20:22:13.233027,131
2021-09-22 20:22:13.233032,150
2021-09-22 20:22:13.233038,158
2021-09-22 20:22:13.233045,160
2021-09-22 20:22:13.233051,165
2021-09-22 20:22:13.233057,170
2021-09-22 20:22:13.233062,187
2021-09-22 20:22:13.233068,211
2021-09-22 20:22:13.233074,236
2021-09-22 20:22:13.233079,255
2021-09-22 20:22:13.233085,282
2021-09-22 20:22:13.233091,304
2021-09-22 20:22:13.233097,328
2021-09-22 20:22:13.233102,364
2021-09-22 20:22:13.233108,401
2021-09-22 20:22:13.233114,425
2021-09-22 20:22:13.233120,445
2021-09-22 20:22:13.233125,452
2021-09-22 20:22:13.233131,445
2021-09-22 20:22:13.233137,428
2021-09-22 20:22:13.457908,391
2021-09-22 20:22:13.457926,323
2021-09-22 20:22:13.457933,223
2021-09-22 20:22:13.457939,107
2021-09-22 20:22:13.457945,-7
2021-09-22 20:22:13.457951,-97
2021-09-22 20:22:13.457957,-170
2021-09-22 20:22:13.457963,-223
2021-09-22 20:22:13.457969,-257
2021-09-22 20:22:13.457975,-284
2021-09-22 20:22:13.457981,-287
2021-09-22 20:22:13.457987,-279
2021-09-22 20:22:13.457993,-277
2021-09-22 20:22:13.457999,-274
2021-09-22 20:22:13.458005,-270
2021-09-22 20:22:13.458011,-267
2021-09-22 20:22:13.458017,-260
2021-09-22 20:22:13.458022,-245
2021-09-22 20:22:13.458028,-236
2021-09-22 20:22:13.458034,-226
2021-09-22 20:22:13.458040,-211
2021-09-22 20:22:13.458046,-197
2021-09-22 20:22:13.458052,-182
2021-09-22 20:22:13.458057,-165
2021-09-22 20:22:13.458063,-153
2021-09-22 20:22:13.458069,-145
2021-09-22 20:22:13.458074,-141
2021-09-22 20:22:13.458080,-138
2021-09-22 20:22:13.458086,-133
2021-09-22 20:22:13.458092,-126
2021-09-22 20:22:13.772360,-121
2021-09-22 20:22:13.772380,-121
2021-09-22 20:22:13.772387,-124
2021-09-22 20:22:13.772393,-124
2021-09-22 20:22:13.772399,-121
2021-09-22 20:22:13.772405,-116
2021-09-22 20:22:13.772411,-116
2021-09-22 20:22:13.772417,-114
2021-09-22 20:22:13.772423,-116
2021-09-22 20:22:13.772429,-116
2021-09-22 20:22:13.772435,-107
2021-09-22 20:22:13.772440,-99
2021-09-22 20:22:13.772446,-97
2021-09-22 20:22:13.772452,-94
2021-09-22 20:22:13.772458,-99
2021-09-22 20:22:13.772464,-99
2021-09-22 20:22:13.772470,-92
2021-09-22 20:22:13.772476,-87
2021-09-22 20:22:13.772482,-90
2021-09-22 20:22:13.772488,-90
2021-09-22 20:22:13.772493,-90
2021-09-22 20:22:13.772499,-87
2021-09-22 20:22:13.772506,-82
2021-09-22 20:22:13.772511,-77
2021-09-22 20:22:13.772517,-70
2021-09-22 20:22:13.772523,-68
2021-09-22 20:22:13.772529,-68
2021-09-22 20:22:13.772534,-65
2021-09-22 20:22:13.772540,-55
2021-09-22 20:22:13.772546,-51
2021-09-22 20:22:13.907859,-48
2021-09-22 20:22:13.907878,-51
2021-09-22 20:22:13.907886,-51
2021-09-22 20:22:13.907892,-43
2021-09-22 20:22:13.907898,-38
2021-09-22 20:22:13.907904,-34
2021-09-22 20:22:13.907910,-31
2021-09-22 20:22:13.907915,-38
2021-09-22 20:22:13.907921,-43
2021-09-22 20:22:13.907927,-34
2021-09-22 20:22:13.907933,-12
2021-09-22 20:22:13.907939,4
2021-09-22 20:22:13.907945,4
2021-09-22 20:22:13.907951,-2
2021-09-22 20:22:13.907957,-2
2021-09-22 20:22:13.907963,-2
2021-09-22 20:22:13.907969,-12
2021-09-22 20:22:13.907974,-24
2021-09-22 20:22:13.907980,-31
2021-09-22 20:22:13.907986,-34
2021-09-22 20:22:13.907992,-36
2021-09-22 20:22:13.907997,-38
2021-09-22 20:22:13.908003,-36
2021-09-22 20:22:13.908009,-38
2021-09-22 20:22:13.908015,-48
2021-09-22 20:22:13.908021,-34
2021-09-22 20:22:13.908026,26
2021-09-22 20:22:13.908031,143
2021-09-22 20:22:13.908037,355
2021-09-22 20:22:13.908042,554
2021-09-22 20:22:14.133054,418
2021-09-22 20:22:14.133072,-14
2021-09-22 20:22:14.133080,-447
2021-09-22 20:22:14.133086,-693
2021-09-22 20:22:14.133092,-486
2021-09-22 20:22:14.133098,-99
2021-09-22 20:22:14.133105,-31
2021-09-22 20:22:14.133110,-29
2021-09-22 20:22:14.133116,90
2021-09-22 20:22:14.133122,119
2021-09-22 20:22:14.133128,90
2021-09-22 20:22:14.133134,121
2021-09-22 20:22:14.133140,141
2021-09-22 20:22:14.133146,131
2021-09-22 20:22:14.133152,143
2021-09-22 20:22:14.133158,160
2021-09-22 20:22:14.133164,165
2021-09-22 20:22:14.133169,177
2021-09-22 20:22:14.133175,189
2021-09-22 20:22:14.133181,197
2021-09-22 20:22:14.133187,209
2021-09-22 20:22:14.133193,223
2021-09-22 20:22:14.133199,236
2021-09-22 20:22:14.133205,257
2021-09-22 20:22:14.133211,289
2021-09-22 20:22:14.133217,323
2021-09-22 20:22:14.133223,355
2021-09-22 20:22:14.133229,389
2021-09-22 20:22:14.133235,428
2021-09-22 20:22:14.133240,459
2021-09-22 20:22:14.357901,476
2021-09-22 20:22:14.357919,479
2021-09-22 20:22:14.357925,467
2021-09-22 20:22:14.357932,437
2021-09-22 20:22:14.357938,384
2021-09-22 20:22:14.357944,304
2021-09-22 20:22:14.357950,192
2021-09-22 20:22:14.357956,70
2021-09-22 20:22:14.357962,-38
2021-09-22 20:22:14.357968,-126
2021-09-22 20:22:14.357973,-197
2021-09-22 20:22:14.357979,-250
2021-09-22 20:22:14.357985,-284
2021-09-22 20:22:14.357991,-296
2021-09-22 20:22:14.358000,-296
2021-09-22 20:22:14.358006,-294
2021-09-22 20:22:14.358012,-289
2021-09-22 20:22:14.358018,-279
2021-09-22 20:22:14.358024,-270
2021-09-22 20:22:14.358029,-255
2021-09-22 20:22:14.358035,-238
2021-09-22 20:22:14.358041,-223
2021-09-22 20:22:14.358047,-206
2021-09-22 20:22:14.358052,-189
2021-09-22 20:22:14.358058,-180
2021-09-22 20:22:14.358064,-167
2021-09-22 20:22:14.358070,-153
2021-09-22 20:22:14.358076,-143
2021-09-22 20:22:14.358081,-133
2021-09-22 20:22:14.358087,-133
2021-09-22 20:22:14.582938,-131
2021-09-22 20:22:14.582955,-124
2021-09-22 20:22:14.582962,-116
2021-09-22 20:22:14.582968,-119
2021-09-22 20:22:14.582974,-119
2021-09-22 20:22:14.582980,-121
2021-09-22 20:22:14.582986,-124
2021-09-22 20:22:14.582992,-119
2021-09-22 20:22:14.582998,-116
2021-09-22 20:22:14.583004,-114
2021-09-22 20:22:14.583010,-109
2021-09-22 20:22:14.583016,-114
2021-09-22 20:22:14.583022,-116
2021-09-22 20:22:14.583028,-107
2021-09-22 20:22:14.583034,-99
2021-09-22 20:22:14.583040,-97
2021-09-22 20:22:14.583046,-92
2021-09-22 20:22:14.583051,-90
2021-09-22 20:22:14.583057,-87
2021-09-22 20:22:14.583063,-77
2021-09-22 20:22:14.583069,-75
2021-09-22 20:22:14.583075,-70
2021-09-22 20:22:14.583080,-65
2021-09-22 20:22:14.583086,-65
2021-09-22 20:22:14.583092,-63
2021-09-22 20:22:14.583098,-53
2021-09-22 20:22:14.583104,-55
2021-09-22 20:22:14.583109,-65
2021-09-22 20:22:14.583115,-60
2021-09-22 20:22:14.583121,-53
2021-09-22 20:22:14.851671,-51
2021-09-22 20:22:14.851689,-46
2021-09-22 20:22:14.851696,-41
2021-09-22 20:22:14.851702,-43
2021-09-22 20:22:14.851708,-46
2021-09-22 20:22:14.851714,-46
2021-09-22 20:22:14.851720,-46
2021-09-22 20:22:14.851726,-41
2021-09-22 20:22:14.851732,-34
2021-09-22 20:22:14.851738,-36
2021-09-22 20:22:14.851744,-43
2021-09-22 20:22:14.851750,-41
2021-09-22 20:22:14.851756,-36
2021-09-22 20:22:14.851761,-31
2021-09-22 20:22:14.851767,-29
2021-09-22 20:22:14.851773,-29
2021-09-22 20:22:14.851779,-24
2021-09-22 20:22:14.851785,-12
2021-09-22 20:22:14.851790,9
2021-09-22 20:22:14.851796,21
2021-09-22 20:22:14.851802,17
2021-09-22 20:22:14.851808,9
2021-09-22 20:22:14.851814,9
2021-09-22 20:22:14.851820,4
2021-09-22 20:22:14.851825,-9
2021-09-22 20:22:14.851831,-21
2021-09-22 20:22:14.851837,-21
2021-09-22 20:22:14.851842,-19
2021-09-22 20:22:14.851848,-21
2021-09-22 20:22:14.851854,-24
2021-09-22 20:22:15.077997,-19
2021-09-22 20:22:15.078016,-17
2021-09-22 20:22:15.078022,-14
2021-09-22 20:22:15.078029,12
2021-09-22 20:22:15.078035,85
2021-09-22 20:22:15.078041,238
2021-09-22 20:22:15.078047,476
2021-09-22 20:22:15.078053,566
2021-09-22 20:22:15.078058,270
2021-09-22 20:22:15.078064,-206
2021-09-22 20:22:15.078070,-613
2021-09-22 20:22:15.078075,-686
2021-09-22 20:22:15.078081,-313
2021-09-22 20:22:15.078087,-34
2021-09-22 20:22:15.078093,-43
2021-09-22 20:22:15.078099,26
2021-09-22 20:22:15.078105,124
2021-09-22 20:22:15.078111,102
2021-09-22 20:22:15.078117,99
2021-09-22 20:22:15.078123,141
2021-09-22 20:22:15.078129,145
2021-09-22 20:22:15.078135,138
2021-09-22 20:22:15.078140,155
2021-09-22 20:22:15.078146,170
2021-09-22 20:22:15.078152,180
2021-09-22 20:22:15.078158,192
2021-09-22 20:22:15.078163,201
2021-09-22 20:22:15.078169,211
2021-09-22 20:22:15.078175,226
2021-09-22 20:22:15.078181,250
2021-09-22 20:22:15.303005,265
2021-09-22 20:22:15.303024,277
2021-09-22 20:22:15.303031,306
2021-09-22 20:22:15.303038,340
2021-09-22 20:22:15.303044,372
2021-09-22 20:22:15.303050,411
2021-09-22 20:22:15.303056,447
2021-09-22 20:22:15.303062,472
2021-09-22 20:22:15.303068,479
2021-09-22 20:22:15.303074,467
2021-09-22 20:22:15.303080,447
2021-09-22 20:22:15.303086,418
2021-09-22 20:22:15.303091,360
2021-09-22 20:22:15.303097,267
2021-09-22 20:22:15.303103,148
2021-09-22 20:22:15.303109,26
2021-09-22 20:22:15.303115,-75
2021-09-22 20:22:15.303121,-153
2021-09-22 20:22:15.303127,-211
2021-09-22 20:22:15.303133,-253
2021-09-22 20:22:15.303139,-279
2021-09-22 20:22:15.303144,-291
2021-09-22 20:22:15.303150,-289
2021-09-22 20:22:15.303156,-279
2021-09-22 20:22:15.303161,-272
2021-09-22 20:22:15.303167,-262
2021-09-22 20:22:15.303173,-250
2021-09-22 20:22:15.303179,-238
2021-09-22 20:22:15.303185,-223
2021-09-22 20:22:15.303191,-201
2021-09-22 20:22:15.528014,-184
2021-09-22 20:22:15.528034,-175
2021-09-22 20:22:15.528041,-165
2021-09-22 20:22:15.528046,-158
2021-09-22 20:22:15.528052,-145
2021-09-22 20:22:15.528057,-131
2021-09-22 20:22:15.528063,-124
2021-09-22 20:22:15.528068,-121
2021-09-22 20:22:15.528073,-126
2021-09-22 20:22:15.528078,-128
2021-09-22 20:22:15.528083,-126
2021-09-22 20:22:15.528088,-131
2021-09-22 20:22:15.528093,-136
2021-09-22 20:22:15.528098,-133
2021-09-22 20:22:15.528103,-133
2021-09-22 20:22:15.528107,-141
2021-09-22 20:22:15.528112,-136
2021-09-22 20:22:15.528117,-128
2021-09-22 20:22:15.528122,-124
2021-09-22 20:22:15.528127,-119
2021-09-22 20:22:15.528132,-119
2021-09-22 20:22:15.528137,-116
2021-09-22 20:22:15.528142,-107
2021-09-22 20:22:15.528147,-99
2021-09-22 20:22:15.528152,-94
2021-09-22 20:22:15.528156,-90
2021-09-22 20:22:15.528161,-90
2021-09-22 20:22:15.528166,-87
2021-09-22 20:22:15.528171,-77
2021-09-22 20:22:15.528176,-72
2021-09-22 20:22:15.843016,-70
2021-09-22 20:22:15.843034,-68
2021-09-22 20:22:15.843041,-65
2021-09-22 20:22:15.843048,-63
2021-09-22 20:22:15.843054,-65
2021-09-22 20:22:15.843060,-65
2021-09-22 20:22:15.843066,-63
2021-09-22 20:22:15.843072,-63
2021-09-22 20:22:15.843077,-70
2021-09-22 20:22:15.843083,-65
2021-09-22 20:22:15.843089,-53
2021-09-22 20:22:15.843095,-51
2021-09-22 20:22:15.843101,-53
2021-09-22 20:22:15.843107,-53
2021-09-22 20:22:15.843113,-53
2021-09-22 20:22:15.843118,-51
2021-09-22 20:22:15.843124,-43
2021-09-22 20:22:15.843130,-38
2021-09-22 20:22:15.843136,-36
2021-09-22 20:22:15.843142,-36
2021-09-22 20:22:15.843148,-36
2021-09-22 20:22:15.843153,-31
2021-09-22 20:22:15.843159,-26
2021-09-22 20:22:15.843165,-21
2021-09-22 20:22:15.843171,-17
2021-09-22 20:22:15.843177,-7
2021-09-22 20:22:15.843182,9
2021-09-22 20:22:15.843188,19
2021-09-22 20:22:15.843194,14
2021-09-22 20:22:15.843200,17
2021-09-22 20:22:15.977960,19
2021-09-22 20:22:15.977977,7
2021-09-22 20:22:15.977984,-12
2021-09-22 20:22:15.977990,-24
2021-09-22 20:22:15.977996,-24
2021-09-22 20:22:15.978002,-17
2021-09-22 20:22:15.978008,-19
2021-09-22 20:22:15.978013,-26
2021-09-22 20:22:15.978019,-24
2021-09-22 20:22:15.978025,-21
2021-09-22 20:22:15.978031,-14
2021-09-22 20:22:15.978036,17
2021-09-22 20:22:15.978042,97
2021-09-22 20:22:15.978048,255
2021-09-22 20:22:15.978054,503
2021-09-22 20:22:15.978059,596
2021-09-22 20:22:15.978065,291
2021-09-22 20:22:15.978071,-206
2021-09-22 20:22:15.978077,-630
2021-09-22 20:22:15.978083,-683
2021-09-22 20:22:15.978089,-291
2021-09-22 20:22:15.978094,-34
2021-09-22 20:22:15.978100,-46
2021-09-22 20:22:15.978106,34
2021-09-22 20:22:15.978112,119
2021-09-22 20:22:15.978118,87
2021-09-22 20:22:15.978123,92
2021-09-22 20:22:15.978129,133
2021-09-22 20:22:15.978135,138
2021-09-22 20:22:15.978141,138
2021-09-22 20:22:16.203036,155
2021-09-22 20:22:16.203055,165
2021-09-22 20:22:16.203062,170
2021-09-22 20:22:16.203068,177
2021-09-22 20:22:16.203075,187
2021-09-22 20:22:16.203080,199
2021-09-22 20:22:16.203086,209
2021-09-22 20:22:16.203092,223
2021-09-22 20:22:16.203098,245
2021-09-22 20:22:16.203104,267
2021-09-22 20:22:16.203110,294
2021-09-22 20:22:16.203116,328
2021-09-22 20:22:16.203122,355
2021-09-22 20:22:16.203128,384
2021-09-22 20:22:16.203134,416
2021-09-22 20:22:16.203139,437
2021-09-22 20:22:16.203145,447
2021-09-22 20:22:16.203151,442
2021-09-22 20:22:16.203157,425
2021-09-22 20:22:16.203163,394
2021-09-22 20:22:16.203169,338
2021-09-22 20:22:16.203174,248
2021-09-22 20:22:16.203180,141
2021-09-22 20:22:16.203186,29
2021-09-22 20:22:16.203192,-75
2021-09-22 20:22:16.203198,-153
2021-09-22 20:22:16.203203,-211
2021-09-22 20:22:16.203209,-253
2021-09-22 20:22:16.203215,-272
2021-09-22 20:22:16.203221,-279
2021-09-22 20:22:16.427904,-282
2021-09-22 20:22:16.427921,-277
2021-09-22 20:22:16.427929,-270
2021-09-22 20:22:16.427935,-257
2021-09-22 20:22:16.427941,-243
2021-09-22 20:22:16.427947,-233
2021-09-22 20:22:16.427953,-223
2021-09-22 20:22:16.427959,-204
2021-09-22 20:22:16.427965,-187
2021-09-22 20:22:16.427971,-175
2021-09-22 20:22:16.427977,-167
2021-09-22 20:22:16.427982,-167
2021-09-22 20:22:16.427988,-163
2021-09-22 20:22:16.427994,-143
2021-09-22 20:22:16.428000,-131
2021-09-22 20:22:16.428006,-133
2021-09-22 20:22:16.428012,-131
2021-09-22 20:22:16.428018,-126
2021-09-22 20:22:16.428023,-124
2021-09-22 20:22:16.428030,-119
2021-09-22 20:22:16.428036,-116
2021-09-22 20:22:16.428042,-116
2021-09-22 20:22:16.428048,-119
2021-09-22 20:22:16.428053,-126
2021-09-22 20:22:16.428059,-126
2021-09-22 20:22:16.428065,-116
2021-09-22 20:22:16.428071,-111
2021-09-22 20:22:16.428077,-111
2021-09-22 20:22:16.428083,-109
2021-09-22 20:22:16.428089,-104
2021-09-22 20:22:16.698041,-97
2021-09-22 20:22:16.698060,-90
2021-09-22 20:22:16.698067,-87
2021-09-22 20:22:16.698073,-85
2021-09-22 20:22:16.698079,-85
2021-09-22 20:22:16.698085,-85
2021-09-22 20:22:16.698092,-80
2021-09-22 20:22:16.698098,-72
2021-09-22 20:22:16.698104,-70
2021-09-22 20:22:16.698110,-70
2021-09-22 20:22:16.698116,-70
2021-09-22 20:22:16.698122,-72
2021-09-22 20:22:16.698128,-70
2021-09-22 20:22:16.698133,-68
2021-09-22 20:22:16.698139,-65
2021-09-22 20:22:16.698145,-63
2021-09-22 20:22:16.698151,-63
2021-09-22 20:22:16.698157,-58
2021-09-22 20:22:16.698163,-51
2021-09-22 20:22:16.698168,-51
2021-09-22 20:22:16.698174,-46
2021-09-22 20:22:16.698180,-38
2021-09-22 20:22:16.698185,-38
2021-09-22 20:22:16.698191,-41
2021-09-22 20:22:16.698197,-36
2021-09-22 20:22:16.698203,-26
2021-09-22 20:22:16.698208,-24
2021-09-22 20:22:16.698214,-26
2021-09-22 20:22:16.698220,-24
2021-09-22 20:22:16.698226,-17
2021-09-22 20:22:16.921681,-9
2021-09-22 20:22:16.921699,-9
2021-09-22 20:22:16.921706,-7
2021-09-22 20:22:16.921712,4
2021-09-22 20:22:16.921719,19
2021-09-22 20:22:16.921725,29
2021-09-22 20:22:16.921730,31
2021-09-22 20:22:16.921736,36
2021-09-22 20:22:16.921742,34
2021-09-22 20:22:16.921748,17
2021-09-22 20:22:16.921754,-4
2021-09-22 20:22:16.921760,-17
2021-09-22 20:22:16.921766,-17
2021-09-22 20:22:16.921772,-12
2021-09-22 20:22:16.921778,-14
2021-09-22 20:22:16.921783,-26
2021-09-22 20:22:16.921789,-31
2021-09-22 20:22:16.921795,-24
2021-09-22 20:22:16.921800,-12
2021-09-22 20:22:16.921809,19
2021-09-22 20:22:16.921815,94
2021-09-22 20:22:16.921821,238
2021-09-22 20:22:16.921827,484
2021-09-22 20:22:16.921832,622
2021-09-22 20:22:16.921838,367
2021-09-22 20:22:16.921844,-128
2021-09-22 20:22:16.921850,-566
2021-09-22 20:22:16.921855,-664
2021-09-22 20:22:16.921861,-309
2021-09-22 20:22:16.921867,-31
2021-09-22 20:22:17.148035,-31
2021-09-22 20:22:17.148054,41
2021-09-22 20:22:17.148062,133
2021-09-22 20:22:17.148068,102
2021-09-22 20:22:17.148074,92
2021-09-22 20:22:17.148080,138
2021-09-22 20:22:17.148086,150
2021-09-22 20:22:17.148092,148
2021-09-22 20:22:17.148098,163
2021-09-22 20:22:17.148104,160
2021-09-22 20:22:17.148110,160
2021-09-22 20:22:17.148116,184
2021-09-22 20:22:17.148122,206
2021-09-22 20:22:17.148127,209
2021-09-22 20:22:17.148133,221
2021-09-22 20:22:17.148139,245
2021-09-22 20:22:17.148145,253
2021-09-22 20:22:17.148151,262
2021-09-22 20:22:17.148156,296
2021-09-22 20:22:17.148162,333
2021-09-22 20:22:17.148168,360
2021-09-22 20:22:17.148174,389
2021-09-22 20:22:17.148179,423
2021-09-22 20:22:17.148185,447
2021-09-22 20:22:17.148191,462
2021-09-22 20:22:17.148197,462
2021-09-22 20:22:17.148202,442
2021-09-22 20:22:17.148208,406
2021-09-22 20:22:17.148214,362
2021-09-22 20:22:17.148220,287
2021-09-22 20:22:17.372947,180
2021-09-22 20:22:17.372964,70
2021-09-22 20:22:17.372971,-29
2021-09-22 20:22:17.372977,-116
2021-09-22 20:22:17.372983,-182
2021-09-22 20:22:17.372989,-221
2021-09-22 20:22:17.372995,-243
2021-09-22 20:22:17.373000,-255
2021-09-22 20:22:17.373006,-262
2021-09-22 20:22:17.373012,-262
2021-09-22 20:22:17.373018,-250
2021-09-22 20:22:17.373023,-231
2021-09-22 20:22:17.373029,-216
2021-09-22 20:22:17.373035,-206
2021-09-22 20:22:17.373041,-199
2021-09-22 20:22:17.373047,-189
2021-09-22 20:22:17.373052,-170
2021-09-22 20:22:17.373058,-153
2021-09-22 20:22:17.373064,-138
2021-09-22 20:22:17.373070,-131
2021-09-22 20:22:17.373075,-124
2021-09-22 20:22:17.373081,-116
2021-09-22 20:22:17.373087,-114
2021-09-22 20:22:17.373093,-109
2021-09-22 20:22:17.373098,-102
2021-09-22 20:22:17.373104,-97
2021-09-22 20:22:17.373110,-94
2021-09-22 20:22:17.373115,-97
2021-09-22 20:22:17.373121,-107
2021-09-22 20:22:17.373127,-104
2021-09-22 20:22:17.598082,-92
2021-09-22 20:22:17.598102,-92
2021-09-22 20:22:17.598109,-99
2021-09-22 20:22:17.598115,-92
2021-09-22 20:22:17.598121,-94
2021-09-22 20:22:17.598127,-102
2021-09-22 20:22:17.598134,-94
2021-09-22 20:22:17.598140,-92
2021-09-22 20:22:17.598146,-107
2021-09-22 20:22:17.598152,-119
2021-09-22 20:22:17.598158,-107
2021-09-22 20:22:17.598164,-70
2021-09-22 20:22:17.598169,-51
2021-09-22 20:22:17.598175,-68
2021-09-22 20:22:17.598181,-72
2021-09-22 20:22:17.598187,-51
2021-09-22 20:22:17.598193,-46
2021-09-22 20:22:17.598199,-58
2021-09-22 20:22:17.598204,-46
2021-09-22 20:22:17.598210,-46
2021-09-22 20:22:17.598216,-65
2021-09-22 20:22:17.598222,-68
2021-09-22 20:22:17.598228,-58
2021-09-22 20:22:17.598234,-53
2021-09-22 20:22:17.598239,-41
2021-09-22 20:22:17.598246,-34
2021-09-22 20:22:17.598252,-46
2021-09-22 20:22:17.598258,-48
2021-09-22 20:22:17.598264,-29
2021-09-22 20:22:17.598269,-17
2021-09-22 20:22:17.822984,-24
2021-09-22 20:22:17.823001,-31
2021-09-22 20:22:17.823008,-29
2021-09-22 20:22:17.823014,-21
2021-09-22 20:22:17.823020,-17
2021-09-22 20:22:17.823026,2
2021-09-22 20:22:17.823033,21
2021-09-22 20:22:17.823039,19
2021-09-22 20:22:17.823045,4
2021-09-22 20:22:17.823051,9
2021-09-22 20:22:17.823057,17
2021-09-22 20:22:17.823063,7
2021-09-22 20:22:17.823068,-9
2021-09-22 20:22:17.823074,-24
2021-09-22 20:22:17.823080,-26
2021-09-22 20:22:17.823086,-19
2021-09-22 20:22:17.823092,-19
2021-09-22 20:22:17.823098,-19
2021-09-22 20:22:17.823104,-17
2021-09-22 20:22:17.823109,-14
2021-09-22 20:22:17.823115,-4
2021-09-22 20:22:17.823121,29
2021-09-22 20:22:17.823127,109
2021-09-22 20:22:17.823133,240
2021-09-22 20:22:17.823138,435
2021-09-22 20:22:17.823144,523
2021-09-22 20:22:17.823150,260
2021-09-22 20:22:17.823156,-223
2021-09-22 20:22:17.823162,-618
2021-09-22 20:22:17.823168,-632
2021-09-22 20:22:18.093088,-270
2021-09-22 20:22:18.093108,-31
2021-09-22 20:22:18.093115,-29
2021-09-22 20:22:18.093121,53
2021-09-22 20:22:18.093127,158
2021-09-22 20:22:18.093132,143
2021-09-22 20:22:18.093138,124
2021-09-22 20:22:18.093144,143
2021-09-22 20:22:18.093150,148
2021-09-22 20:22:18.093156,145
2021-09-22 20:22:18.093162,150
2021-09-22 20:22:18.093167,158
2021-09-22 20:22:18.093173,160
2021-09-22 20:22:18.093179,170
2021-09-22 20:22:18.093185,182
2021-09-22 20:22:18.093190,194
2021-09-22 20:22:18.093196,211
2021-09-22 20:22:18.093202,228
2021-09-22 20:22:18.093208,243
2021-09-22 20:22:18.093213,260
2021-09-22 20:22:18.093219,289
2021-09-22 20:22:18.093225,316
2021-09-22 20:22:18.093231,347
2021-09-22 20:22:18.093236,384
2021-09-22 20:22:18.093242,408
2021-09-22 20:22:18.093248,420
2021-09-22 20:22:18.093254,428
2021-09-22 20:22:18.093260,428
2021-09-22 20:22:18.093265,413
2021-09-22 20:22:18.093271,382
2021-09-22 20:22:18.317382,326
2021-09-22 20:22:18.317401,243
2021-09-22 20:22:18.317409,143
2021-09-22 20:22:18.317415,38
2021-09-22 20:22:18.317421,-53
2021-09-22 20:22:18.317427,-131
2021-09-22 20:22:18.317433,-194
2021-09-22 20:22:18.317439,-233
2021-09-22 20:22:18.317445,-248
2021-09-22 20:22:18.317451,-257
2021-09-22 20:22:18.317457,-257
2021-09-22 20:22:18.317463,-250
2021-09-22 20:22:18.317469,-240
2021-09-22 20:22:18.317474,-226
2021-09-22 20:22:18.317480,-211
2021-09-22 20:22:18.317486,-197
2021-09-22 20:22:18.317492,-182
2021-09-22 20:22:18.317498,-175
2021-09-22 20:22:18.317504,-165
2021-09-22 20:22:18.317510,-150
2021-09-22 20:22:18.317515,-141
2021-09-22 20:22:18.317521,-131
2021-09-22 20:22:18.317527,-119
2021-09-22 20:22:18.317533,-116
2021-09-22 20:22:18.317539,-114
2021-09-22 20:22:18.317545,-102
2021-09-22 20:22:18.317551,-104
2021-09-22 20:22:18.317556,-111
2021-09-22 20:22:18.317562,-111
2021-09-22 20:22:18.317568,-109
2021-09-22 20:22:18.497959,-109
2021-09-22 20:22:18.497977,-109
2021-09-22 20:22:18.497984,-107
2021-09-22 20:22:18.497990,-102
2021-09-22 20:22:18.497996,-104
2021-09-22 20:22:18.498002,-107
2021-09-22 20:22:18.498008,-99
2021-09-22 20:22:18.498014,-92
2021-09-22 20:22:18.498019,-92
2021-09-22 20:22:18.498025,-92
2021-09-22 20:22:18.498031,-90
2021-09-22 20:22:18.498037,-90
2021-09-22 20:22:18.498043,-85
2021-09-22 20:22:18.498048,-77
2021-09-22 20:22:18.498054,-77
2021-09-22 20:22:18.498060,-90
2021-09-22 20:22:18.498066,-94
2021-09-22 20:22:18.498072,-85
2021-09-22 20:22:18.498077,-77
2021-09-22 20:22:18.498083,-75
2021-09-22 20:22:18.498089,-72
2021-09-22 20:22:18.498095,-70
2021-09-22 20:22:18.498101,-65
2021-09-22 20:22:18.498106,-60
2021-09-22 20:22:18.498112,-58
2021-09-22 20:22:18.498118,-51
2021-09-22 20:22:18.498124,-48
2021-09-22 20:22:18.498129,-51
2021-09-22 20:22:18.498135,-48
2021-09-22 20:22:18.498141,-43
2021-09-22 20:22:18.723073,-31
2021-09-22 20:22:18.723092,-9
2021-09-22 20:22:18.723099,-4
2021-09-22 20:22:18.723105,-14
2021-09-22 20:22:18.723111,-14
2021-09-22 20:22:18.723117,-12
2021-09-22 20:22:18.723123,-24
2021-09-22 20:22:18.723129,-36
2021-09-22 20:22:18.723135,-43
2021-09-22 20:22:18.723140,-46
2021-09-22 20:22:18.723146,-51
2021-09-22 20:22:18.723152,-48
2021-09-22 20:22:18.723158,-41
2021-09-22 20:22:18.723164,-38
2021-09-22 20:22:18.723170,-41
2021-09-22 20:22:18.723175,-34
2021-09-22 20:22:18.723181,4
2021-09-22 20:22:18.723187,92
2021-09-22 20:22:18.723193,248
2021-09-22 20:22:18.723199,464
2021-09-22 20:22:18.723205,513
2021-09-22 20:22:18.723210,172
2021-09-22 20:22:18.723216,-326
2021-09-22 20:22:18.723222,-664
2021-09-22 20:22:18.723228,-637
2021-09-22 20:22:18.723234,-272
2021-09-22 20:22:18.723240,-43
2021-09-22 20:22:18.723246,-38
2021-09-22 20:22:18.723251,48
2021-09-22 20:22:18.723257,138
2021-09-22 20:22:19.036619,119
2021-09-22 20:22:19.036636,114
2021-09-22 20:22:19.036643,143
2021-09-22 20:22:19.036649,141
2021-09-22 20:22:19.036655,138
2021-09-22 20:22:19.036661,155
2021-09-22 20:22:19.036667,167
2021-09-22 20:22:19.036673,170
2021-09-22 20:22:19.036679,175
2021-09-22 20:22:19.036685,180
2021-09-22 20:22:19.036691,189
2021-09-22 20:22:19.036697,211
2021-09-22 20:22:19.036702,233
2021-09-22 20:22:19.036708,255
2021-09-22 20:22:19.036714,277
2021-09-22 20:22:19.036720,299
2021-09-22 20:22:19.036726,330
2021-09-22 20:22:19.036732,369
2021-09-22 20:22:19.036738,403
2021-09-22 20:22:19.036744,433
2021-09-22 20:22:19.036749,450
2021-09-22 20:22:19.036755,452
2021-09-22 20:22:19.036761,450
2021-09-22 20:22:19.036767,435
2021-09-22 20:22:19.036773,396
2021-09-22 20:22:19.036779,328
2021-09-22 20:22:19.036784,231
2021-09-22 20:22:19.036790,109
2021-09-22 20:22:19.036796,-4
2021-09-22 20:22:19.036802,-92
2021-09-22 20:22:19.218088,-167
2021-09-22 20:22:19.218106,-223
2021-09-22 20:22:19.218113,-257
2021-09-22 20:22:19.218119,-284
2021-09-22 20:22:19.218125,-296
2021-09-22 20:22:19.218131,-291
2021-09-22 20:22:19.218137,-284
2021-09-22 20:22:19.218143,-279
2021-09-22 20:22:19.218149,-274
2021-09-22 20:22:19.218155,-270
2021-09-22 20:22:19.218161,-253
2021-09-22 20:22:19.218167,-231
2021-09-22 20:22:19.218173,-214
2021-09-22 20:22:19.218179,-201
2021-09-22 20:22:19.218185,-194
2021-09-22 20:22:19.218191,-192
2021-09-22 20:22:19.218197,-177
2021-09-22 20:22:19.218203,-163
2021-09-22 20:22:19.218208,-150
2021-09-22 20:22:19.218214,-141
2021-09-22 20:22:19.218220,-138
2021-09-22 20:22:19.218226,-136
2021-09-22 20:22:19.218231,-128
2021-09-22 20:22:19.218237,-124
2021-09-22 20:22:19.218243,-124
2021-09-22 20:22:19.218249,-124
2021-09-22 20:22:19.218254,-124
2021-09-22 20:22:19.218260,-124
2021-09-22 20:22:19.218266,-119
2021-09-22 20:22:19.218272,-114
2021-09-22 20:22:19.488027,-111
2021-09-22 20:22:19.488044,-107
2021-09-22 20:22:19.488051,-107
2021-09-22 20:22:19.488057,-104
2021-09-22 20:22:19.488064,-99
2021-09-22 20:22:19.488069,-97
2021-09-22 20:22:19.488075,-102
2021-09-22 20:22:19.488081,-99
2021-09-22 20:22:19.488087,-102
2021-09-22 20:22:19.488093,-102
2021-09-22 20:22:19.488099,-92
2021-09-22 20:22:19.488105,-85
2021-09-22 20:22:19.488111,-82
2021-09-22 20:22:19.488116,-82
2021-09-22 20:22:19.488122,-87
2021-09-22 20:22:19.488128,-85
2021-09-22 20:22:19.488134,-75
2021-09-22 20:22:19.488140,-68
2021-09-22 20:22:19.488145,-68
2021-09-22 20:22:19.488151,-65
2021-09-22 20:22:19.488157,-63
2021-09-22 20:22:19.488163,-60
2021-09-22 20:22:19.488169,-53
2021-09-22 20:22:19.488175,-51
2021-09-22 20:22:19.488180,-46
2021-09-22 20:22:19.488186,-41
2021-09-22 20:22:19.488192,-48
2021-09-22 20:22:19.488198,-58
2021-09-22 20:22:19.488203,-51
2021-09-22 20:22:19.488210,-29
2021-09-22 20:22:19.668039,-9
2021-09-22 20:22:19.668057,-7
2021-09-22 20:22:19.668064,-9
2021-09-22 20:22:19.668070,-4
2021-09-22 20:22:19.668077,-4
2021-09-22 20:22:19.668083,-17
2021-09-22 20:22:19.668089,-31
2021-09-22 20:22:19.668095,-43
2021-09-22 20:22:19.668101,-51
2021-09-22 20:22:19.668106,-46
2021-09-22 20:22:19.668112,-41
2021-09-22 20:22:19.668118,-38
2021-09-22 20:22:19.668124,-38
2021-09-22 20:22:19.668130,-43
2021-09-22 20:22:19.668136,-31
2021-09-22 20:22:19.668142,21
2021-09-22 20:22:19.668148,131
2021-09-22 20:22:19.668154,330
2021-09-22 20:22:19.668160,552
2021-09-22 20:22:19.668166,472
2021-09-22 20:22:19.668172,34
2021-09-22 20:22:19.668178,-440
2021-09-22 20:22:19.668183,-715
2021-09-22 20:22:19.668189,-557
2021-09-22 20:22:19.668195,-163
2021-09-22 20:22:19.668201,-31
2021-09-22 20:22:19.668206,-24
2021-09-22 20:22:19.668212,92
2021-09-22 20:22:19.668218,136
2021-09-22 20:22:19.668224,102
2021-09-22 20:22:19.938022,126
2021-09-22 20:22:19.938039,155
2021-09-22 20:22:19.938046,148
2021-09-22 20:22:19.938053,153
2021-09-22 20:22:19.938059,170
2021-09-22 20:22:19.938068,177
2021-09-22 20:22:19.938074,180
2021-09-22 20:22:19.938080,187
2021-09-22 20:22:19.938086,199
2021-09-22 20:22:19.938092,209
2021-09-22 20:22:19.938098,221
2021-09-22 20:22:19.938104,243
2021-09-22 20:22:19.938110,262
2021-09-22 20:22:19.938116,284
2021-09-22 20:22:19.938122,318
2021-09-22 20:22:19.938128,350
2021-09-22 20:22:19.938133,389
2021-09-22 20:22:19.938139,428
2021-09-22 20:22:19.938145,455
2021-09-22 20:22:19.938151,472
2021-09-22 20:22:19.938157,484
2021-09-22 20:22:19.938163,476
2021-09-22 20:22:19.938169,445
2021-09-22 20:22:19.938175,394
2021-09-22 20:22:19.938181,318
2021-09-22 20:22:19.938187,216
2021-09-22 20:22:19.938193,102
2021-09-22 20:22:19.938199,-9
2021-09-22 20:22:19.938205,-102
2021-09-22 20:22:19.938211,-172
2021-09-22 20:22:20.118305,-223
2021-09-22 20:22:20.118325,-257
2021-09-22 20:22:20.118332,-284
2021-09-22 20:22:20.118338,-301
2021-09-22 20:22:20.118344,-299
2021-09-22 20:22:20.118350,-296
2021-09-22 20:22:20.118356,-299
2021-09-22 20:22:20.118363,-284
2021-09-22 20:22:20.118369,-265
2021-09-22 20:22:20.118375,-253
2021-09-22 20:22:20.118381,-236
2021-09-22 20:22:20.118387,-218
2021-09-22 20:22:20.118393,-211
2021-09-22 20:22:20.118399,-197
2021-09-22 20:22:20.118405,-180
2021-09-22 20:22:20.118411,-170
2021-09-22 20:22:20.118417,-160
2021-09-22 20:22:20.118423,-155
2021-09-22 20:22:20.118429,-153
2021-09-22 20:22:20.118435,-141
2021-09-22 20:22:20.118441,-136
2021-09-22 20:22:20.118447,-136
2021-09-22 20:22:20.118453,-133
2021-09-22 20:22:20.118458,-131
2021-09-22 20:22:20.118464,-131
2021-09-22 20:22:20.118470,-128
2021-09-22 20:22:20.118476,-128
2021-09-22 20:22:20.118482,-126
2021-09-22 20:22:20.118488,-124
2021-09-22 20:22:20.118494,-121
2021-09-22 20:22:20.342961,-116
2021-09-22 20:22:20.342978,-111
2021-09-22 20:22:20.342985,-107
2021-09-22 20:22:20.342991,-104
2021-09-22 20:22:20.342997,-102
2021-09-22 20:22:20.343003,-102
2021-09-22 20:22:20.343009,-97
2021-09-22 20:22:20.343015,-90
2021-09-22 20:22:20.343021,-85
2021-09-22 20:22:20.343027,-85
2021-09-22 20:22:20.343033,-85
2021-09-22 20:22:20.343038,-87
2021-09-22 20:22:20.343044,-82
2021-09-22 20:22:20.343050,-80
2021-09-22 20:22:20.343056,-82
2021-09-22 20:22:20.343062,-80
2021-09-22 20:22:20.343067,-75
2021-09-22 20:22:20.343073,-72
2021-09-22 20:22:20.343079,-70
2021-09-22 20:22:20.343085,-63
2021-09-22 20:22:20.343091,-58
2021-09-22 20:22:20.343096,-58
2021-09-22 20:22:20.343102,-55
2021-09-22 20:22:20.343108,-51
2021-09-22 20:22:20.343113,-46
2021-09-22 20:22:20.343119,-41
2021-09-22 20:22:20.343125,-41
2021-09-22 20:22:20.343130,-41
2021-09-22 20:22:20.343136,-41
2021-09-22 20:22:20.343142,-36
2021-09-22 20:22:20.568040,-29
2021-09-22 20:22:20.568058,-26
2021-09-22 20:22:20.568065,-24
2021-09-22 20:22:20.568072,-21
2021-09-22 20:22:20.568077,-19
2021-09-22 20:22:20.568083,-7
2021-09-22 20:22:20.568089,7
2021-09-22 20:22:20.568095,4
2021-09-22 20:22:20.568101,-12
2021-09-22 20:22:20.568107,-14
2021-09-22 20:22:20.568113,-19
2021-09-22 20:22:20.568118,-36
2021-09-22 20:22:20.568124,-48
2021-09-22 20:22:20.568130,-51
2021-09-22 20:22:20.568136,-46
2021-09-22 20:22:20.568142,-48
2021-09-22 20:22:20.568148,-53
2021-09-22 20:22:20.568153,-48
2021-09-22 20:22:20.568159,-41
2021-09-22 20:22:20.568165,-34
2021-09-22 20:22:20.568170,-14
2021-09-22 20:22:20.568176,46
2021-09-22 20:22:20.568182,172
2021-09-22 20:22:20.568188,401
2021-09-22 20:22:20.568194,593
2021-09-22 20:22:20.568199,418
2021-09-22 20:22:20.568205,-58
2021-09-22 20:22:20.568211,-515
2021-09-22 20:22:20.568217,-712
2021-09-22 20:22:20.568223,-437
2021-09-22 20:22:20.838098,-70
2021-09-22 20:22:20.838115,-14
2021-09-22 20:22:20.838122,12
2021-09-22 20:22:20.838128,116
2021-09-22 20:22:20.838134,121
2021-09-22 20:22:20.838140,104
2021-09-22 20:22:20.838146,141
2021-09-22 20:22:20.838152,158
2021-09-22 20:22:20.838158,150
2021-09-22 20:22:20.838164,158
2021-09-22 20:22:20.838170,165
2021-09-22 20:22:20.838176,172
2021-09-22 20:22:20.838182,189
2021-09-22 20:22:20.838188,199
2021-09-22 20:22:20.838194,209
2021-09-22 20:22:20.838200,223
2021-09-22 20:22:20.838205,240
2021-09-22 20:22:20.838211,260
2021-09-22 20:22:20.838217,279
2021-09-22 20:22:20.838223,306
2021-09-22 20:22:20.838229,338
2021-09-22 20:22:20.838234,369
2021-09-22 20:22:20.838240,401
2021-09-22 20:22:20.838246,437
2021-09-22 20:22:20.838251,464
2021-09-22 20:22:20.838257,479
2021-09-22 20:22:20.838263,484
2021-09-22 20:22:20.838269,467
2021-09-22 20:22:20.838274,437
2021-09-22 20:22:20.838280,394
2021-09-22 20:22:21.106810,313
2021-09-22 20:22:21.106830,206
2021-09-22 20:22:21.106837,90
2021-09-22 20:22:21.106843,-19
2021-09-22 20:22:21.106849,-107
2021-09-22 20:22:21.106855,-167
2021-09-22 20:22:21.106861,-214
2021-09-22 20:22:21.106867,-240
2021-09-22 20:22:21.106872,-257
2021-09-22 20:22:21.106878,-270
2021-09-22 20:22:21.106884,-270
2021-09-22 20:22:21.106890,-265
2021-09-22 20:22:21.106896,-255
2021-09-22 20:22:21.106901,-250
2021-09-22 20:22:21.106907,-255
2021-09-22 20:22:21.106913,-253
2021-09-22 20:22:21.106919,-228
2021-09-22 20:22:21.106924,-209
2021-09-22 20:22:21.106929,-199
2021-09-22 20:22:21.106935,-187
2021-09-22 20:22:21.106940,-184
2021-09-22 20:22:21.106945,-180
2021-09-22 20:22:21.106951,-163
2021-09-22 20:22:21.106957,-150
2021-09-22 20:22:21.106962,-145
2021-09-22 20:22:21.106968,-141
2021-09-22 20:22:21.106973,-138
2021-09-22 20:22:21.106979,-141
2021-09-22 20:22:21.106985,-133
2021-09-22 20:22:21.106990,-126
2021-09-22 20:22:21.288022,-126
2021-09-22 20:22:21.288040,-124
2021-09-22 20:22:21.288047,-124
2021-09-22 20:22:21.288053,-124
2021-09-22 20:22:21.288059,-119
2021-09-22 20:22:21.288065,-114
2021-09-22 20:22:21.288071,-107
2021-09-22 20:22:21.288077,-104
2021-09-22 20:22:21.288083,-109
2021-09-22 20:22:21.288089,-109
2021-09-22 20:22:21.288095,-99
2021-09-22 20:22:21.288100,-90
2021-09-22 20:22:21.288106,-87
2021-09-22 20:22:21.288112,-87
2021-09-22 20:22:21.288118,-90
2021-09-22 20:22:21.288123,-90
2021-09-22 20:22:21.288129,-77
2021-09-22 20:22:21.288135,-70
2021-09-22 20:22:21.288140,-68
2021-09-22 20:22:21.288146,-63
2021-09-22 20:22:21.288152,-63
2021-09-22 20:22:21.288158,-65
2021-09-22 20:22:21.288163,-65
2021-09-22 20:22:21.288169,-60
2021-09-22 20:22:21.288175,-51
2021-09-22 20:22:21.288180,-48
2021-09-22 20:22:21.288186,-48
2021-09-22 20:22:21.288192,-46
2021-09-22 20:22:21.288198,-38
2021-09-22 20:22:21.288203,-34
2021-09-22 20:22:21.603071,-31
2021-09-22 20:22:21.603090,-26
2021-09-22 20:22:21.603097,-24
2021-09-22 20:22:21.603103,-26
2021-09-22 20:22:21.603109,-21
2021-09-22 20:22:21.603115,-14
2021-09-22 20:22:21.603121,-14
2021-09-22 20:22:21.603127,-17
2021-09-22 20:22:21.603133,-19
2021-09-22 20:22:21.603138,-14
2021-09-22 20:22:21.603144,-9
2021-09-22 20:22:21.603150,-2
2021-09-22 20:22:21.603156,7
2021-09-22 20:22:21.603162,17
2021-09-22 20:22:21.603168,19
2021-09-22 20:22:21.603173,19
2021-09-22 20:22:21.603179,24
2021-09-22 20:22:21.603185,26
2021-09-22 20:22:21.603191,14
2021-09-22 20:22:21.603197,-12
2021-09-22 20:22:21.603203,-29
2021-09-22 20:22:21.603209,-29
2021-09-22 20:22:21.603215,-21
2021-09-22 20:22:21.603220,-21
2021-09-22 20:22:21.603226,-29
2021-09-22 20:22:21.603232,-31
2021-09-22 20:22:21.603237,-29
2021-09-22 20:22:21.603243,-24
2021-09-22 20:22:21.603249,-4
2021-09-22 20:22:21.603254,60
2021-09-22 20:22:21.738001,194
2021-09-22 20:22:21.738017,423
2021-09-22 20:22:21.738024,601
2021-09-22 20:22:21.738030,411
2021-09-22 20:22:21.738036,-72
2021-09-22 20:22:21.738042,-528
2021-09-22 20:22:21.738048,-693
2021-09-22 20:22:21.738053,-391
2021-09-22 20:22:21.738059,-51
2021-09-22 20:22:21.738065,-12
2021-09-22 20:22:21.738071,29
2021-09-22 20:22:21.738077,136
2021-09-22 20:22:21.738082,136
2021-09-22 20:22:21.738088,114
2021-09-22 20:22:21.738094,150
2021-09-22 20:22:21.738100,167
2021-09-22 20:22:21.738106,165
2021-09-22 20:22:21.738112,175
2021-09-22 20:22:21.738117,182
2021-09-22 20:22:21.738123,182
2021-09-22 20:22:21.738129,194
2021-09-22 20:22:21.738135,206
2021-09-22 20:22:21.738141,218
2021-09-22 20:22:21.738146,236
2021-09-22 20:22:21.738152,248
2021-09-22 20:22:21.738158,260
2021-09-22 20:22:21.738164,279
2021-09-22 20:22:21.738170,306
2021-09-22 20:22:21.738175,338
2021-09-22 20:22:21.738181,372
2021-09-22 20:22:22.007440,403
2021-09-22 20:22:22.007458,435
2021-09-22 20:22:22.007465,457
2021-09-22 20:22:22.007471,464
2021-09-22 20:22:22.007477,464
2021-09-22 20:22:22.007483,452
2021-09-22 20:22:22.007489,416
2021-09-22 20:22:22.007495,362
2021-09-22 20:22:22.007501,291
2021-09-22 20:22:22.007506,189
2021-09-22 20:22:22.007512,75
2021-09-22 20:22:22.007518,-29
2021-09-22 20:22:22.007524,-121
2021-09-22 20:22:22.007529,-192
2021-09-22 20:22:22.007535,-233
2021-09-22 20:22:22.007541,-265
2021-09-22 20:22:22.007547,-284
2021-09-22 20:22:22.007552,-287
2021-09-22 20:22:22.007558,-284
2021-09-22 20:22:22.007564,-277
2021-09-22 20:22:22.007570,-262
2021-09-22 20:22:22.007575,-248
2021-09-22 20:22:22.007581,-231
2021-09-22 20:22:22.007587,-214
2021-09-22 20:22:22.007593,-204
2021-09-22 20:22:22.007599,-199
2021-09-22 20:22:22.007605,-182
2021-09-22 20:22:22.007611,-170
2021-09-22 20:22:22.007616,-167
2021-09-22 20:22:22.007622,-160
2021-09-22 20:22:22.233073,-145
2021-09-22 20:22:22.233091,-138
2021-09-22 20:22:22.233099,-133
2021-09-22 20:22:22.233105,-128
2021-09-22 20:22:22.233111,-126
2021-09-22 20:22:22.233117,-128
2021-09-22 20:22:22.233123,-128
2021-09-22 20:22:22.233129,-124
2021-09-22 20:22:22.233135,-121
2021-09-22 20:22:22.233141,-121
2021-09-22 20:22:22.233146,-121
2021-09-22 20:22:22.233152,-126
2021-09-22 20:22:22.233158,-124
2021-09-22 20:22:22.233164,-114
2021-09-22 20:22:22.233170,-107
2021-09-22 20:22:22.233176,-107
2021-09-22 20:22:22.233182,-102
2021-09-22 20:22:22.233188,-99
2021-09-22 20:22:22.233193,-97
2021-09-22 20:22:22.233199,-87
2021-09-22 20:22:22.233205,-80
2021-09-22 20:22:22.233211,-80
2021-09-22 20:22:22.233217,-75
2021-09-22 20:22:22.233223,-70
2021-09-22 20:22:22.233228,-63
2021-09-22 20:22:22.233234,-60
2021-09-22 20:22:22.233240,-55
2021-09-22 20:22:22.233246,-53
2021-09-22 20:22:22.233251,-53
2021-09-22 20:22:22.233257,-55
2021-09-22 20:22:22.413066,-55
2021-09-22 20:22:22.413082,-55
2021-09-22 20:22:22.413090,-48
2021-09-22 20:22:22.413096,-46
2021-09-22 20:22:22.413102,-51
2021-09-22 20:22:22.413108,-48
2021-09-22 20:22:22.413114,-41
2021-09-22 20:22:22.413120,-38
2021-09-22 20:22:22.413125,-38
2021-09-22 20:22:22.413131,-36
2021-09-22 20:22:22.413137,-36
2021-09-22 20:22:22.413143,-38
2021-09-22 20:22:22.413149,-34
2021-09-22 20:22:22.413155,-26
2021-09-22 20:22:22.413160,-26
2021-09-22 20:22:22.413166,-29
2021-09-22 20:22:22.413172,-31
2021-09-22 20:22:22.413177,-31
2021-09-22 20:22:22.413183,-21
2021-09-22 20:22:22.413189,-17
2021-09-22 20:22:22.413194,-12
2021-09-22 20:22:22.413200,-4
2021-09-22 20:22:22.413206,12
2021-09-22 20:22:22.413212,24
2021-09-22 20:22:22.413217,21
2021-09-22 20:22:22.413223,21
2021-09-22 20:22:22.413229,24
2021-09-22 20:22:22.413234,12
2021-09-22 20:22:22.413240,-2
2021-09-22 20:22:22.413246,-17
2021-09-22 20:22:22.683128,-29
2021-09-22 20:22:22.683147,-31
2021-09-22 20:22:22.683154,-31
2021-09-22 20:22:22.683160,-41
2021-09-22 20:22:22.683166,-46
2021-09-22 20:22:22.683172,-41
2021-09-22 20:22:22.683178,-34
2021-09-22 20:22:22.683184,-14
2021-09-22 20:22:22.683190,43
2021-09-22 20:22:22.683196,163
2021-09-22 20:22:22.683202,384
2021-09-22 20:22:22.683207,588
2021-09-22 20:22:22.683213,442
2021-09-22 20:22:22.683219,-34
2021-09-22 20:22:22.683224,-513
2021-09-22 20:22:22.683230,-708
2021-09-22 20:22:22.683236,-430
2021-09-22 20:22:22.683242,-80
2021-09-22 20:22:22.683248,-24
2021-09-22 20:22:22.683254,14
2021-09-22 20:22:22.683259,121
2021-09-22 20:22:22.683265,124
2021-09-22 20:22:22.683271,104
2021-09-22 20:22:22.683277,145
2021-09-22 20:22:22.683283,163
2021-09-22 20:22:22.683288,158
2021-09-22 20:22:22.683294,170
2021-09-22 20:22:22.683299,177
2021-09-22 20:22:22.683305,175
2021-09-22 20:22:22.683311,189
2021-09-22 20:22:22.908022,204
2021-09-22 20:22:22.908039,216
2021-09-22 20:22:22.908046,228
2021-09-22 20:22:22.908052,243
2021-09-22 20:22:22.908059,255
2021-09-22 20:22:22.908065,277
2021-09-22 20:22:22.908071,306
2021-09-22 20:22:22.908077,335
2021-09-22 20:22:22.908083,357
2021-09-22 20:22:22.908088,377
2021-09-22 20:22:22.908094,401
2021-09-22 20:22:22.908100,425
2021-09-22 20:22:22.908106,445
2021-09-22 20:22:22.908112,450
2021-09-22 20:22:22.908118,435
2021-09-22 20:22:22.908124,399
2021-09-22 20:22:22.908129,352
2021-09-22 20:22:22.908135,284
2021-09-22 20:22:22.908141,187
2021-09-22 20:22:22.908147,75
2021-09-22 20:22:22.908153,-29
2021-09-22 20:22:22.908159,-116
2021-09-22 20:22:22.908164,-180
2021-09-22 20:22:22.908170,-223
2021-09-22 20:22:22.908176,-250
2021-09-22 20:22:22.908182,-265
2021-09-22 20:22:22.908188,-270
2021-09-22 20:22:22.908193,-267
2021-09-22 20:22:22.908199,-260
2021-09-22 20:22:22.908205,-245
2021-09-22 20:22:23.222006,-228
2021-09-22 20:22:23.222024,-214
2021-09-22 20:22:23.222032,-199
2021-09-22 20:22:23.222038,-187
2021-09-22 20:22:23.222044,-170
2021-09-22 20:22:23.222050,-160
2021-09-22 20:22:23.222056,-160
2021-09-22 20:22:23.222062,-155
2021-09-22 20:22:23.222132,-145
2021-09-22 20:22:23.222139,-141
2021-09-22 20:22:23.222145,-133
2021-09-22 20:22:23.222151,-121
2021-09-22 20:22:23.222157,-116
2021-09-22 20:22:23.222163,-119
2021-09-22 20:22:23.222169,-124
2021-09-22 20:22:23.222175,-126
2021-09-22 20:22:23.222181,-119
2021-09-22 20:22:23.222187,-114
2021-09-22 20:22:23.222192,-111
2021-09-22 20:22:23.222198,-109
2021-09-22 20:22:23.222204,-109
2021-09-22 20:22:23.222210,-109
2021-09-22 20:22:23.222215,-102
2021-09-22 20:22:23.222221,-94
2021-09-22 20:22:23.222227,-90
2021-09-22 20:22:23.222233,-85
2021-09-22 20:22:23.222239,-85
2021-09-22 20:22:23.222245,-82
2021-09-22 20:22:23.222250,-75
2021-09-22 20:22:23.222256,-70
2021-09-22 20:22:23.402962,-65
2021-09-22 20:22:23.402978,-63
2021-09-22 20:22:23.402985,-63
2021-09-22 20:22:23.402991,-60
2021-09-22 20:22:23.402997,-55
2021-09-22 20:22:23.403003,-51
2021-09-22 20:22:23.403009,-46
2021-09-22 20:22:23.403015,-43
2021-09-22 20:22:23.403021,-46
2021-09-22 20:22:23.403027,-46
2021-09-22 20:22:23.403032,-38
2021-09-22 20:22:23.403038,-34
2021-09-22 20:22:23.403044,-36
2021-09-22 20:22:23.403050,-41
2021-09-22 20:22:23.403056,-41
2021-09-22 20:22:23.403061,-38
2021-09-22 20:22:23.403067,-34
2021-09-22 20:22:23.403073,-29
2021-09-22 20:22:23.403078,-26
2021-09-22 20:22:23.403084,-31
2021-09-22 20:22:23.403090,-34
2021-09-22 20:22:23.403096,-31
2021-09-22 20:22:23.403102,-29
2021-09-22 20:22:23.403107,-26
2021-09-22 20:22:23.403113,-21
2021-09-22 20:22:23.403119,-17
2021-09-22 20:22:23.403124,-17
2021-09-22 20:22:23.403130,-14
2021-09-22 20:22:23.403136,-4
2021-09-22 20:22:23.403142,7
2021-09-22 20:22:23.628114,19
2021-09-22 20:22:23.628134,26
2021-09-22 20:22:23.628141,24
2021-09-22 20:22:23.628147,26
2021-09-22 20:22:23.628153,29
2021-09-22 20:22:23.628159,21
2021-09-22 20:22:23.628166,4
2021-09-22 20:22:23.628172,-9
2021-09-22 20:22:23.628178,-12
2021-09-22 20:22:23.628183,-7
2021-09-22 20:22:23.628189,-14
2021-09-22 20:22:23.628195,-26
2021-09-22 20:22:23.628201,-36
2021-09-22 20:22:23.628207,-41
2021-09-22 20:22:23.628213,-34
2021-09-22 20:22:23.628219,-9
2021-09-22 20:22:23.628224,60
2021-09-22 20:22:23.628230,204
2021-09-22 20:22:23.628241,437
2021-09-22 20:22:23.628249,601
2021-09-22 20:22:23.628255,399
2021-09-22 20:22:23.628261,-94
2021-09-22 20:22:23.628267,-562
2021-09-22 20:22:23.628273,-688
2021-09-22 20:22:23.628279,-355
2021-09-22 20:22:23.628285,-48
2021-09-22 20:22:23.628291,-31
2021-09-22 20:22:23.628297,19
2021-09-22 20:22:23.628303,121
2021-09-22 20:22:23.628309,111
2021-09-22 20:22:23.808092,102
2021-09-22 20:22:23.808109,141
2021-09-22 20:22:23.808116,155
2021-09-22 20:22:23.808123,148
2021-09-22 20:22:23.808129,163
2021-09-22 20:22:23.808135,175
2021-09-22 20:22:23.808141,170
2021-09-22 20:22:23.808147,170
2021-09-22 20:22:23.808153,187
