Time,ECG
2021-09-22 20:01:48.585564,-119
2021-09-22 20:01:48.585580,-114
2021-09-22 20:01:48.585587,-114
2021-09-22 20:01:48.585593,-119
2021-09-22 20:01:48.585599,-126
2021-09-22 20:01:48.585606,-131
2021-09-22 20:01:48.585612,-126
2021-09-22 20:01:48.585618,-121
2021-09-22 20:01:48.585624,-119
2021-09-22 20:01:48.585630,-124
2021-09-22 20:01:48.585636,-126
2021-09-22 20:01:48.585642,-119
2021-09-22 20:01:48.585648,-111
2021-09-22 20:01:48.585653,-104
2021-09-22 20:01:48.585659,-102
2021-09-22 20:01:48.585665,-102
2021-09-22 20:01:48.585671,-99
2021-09-22 20:01:48.585677,-92
2021-09-22 20:01:48.585683,-85
2021-09-22 20:01:48.585689,-77
2021-09-22 20:01:48.585694,-80
2021-09-22 20:01:48.585700,-87
2021-09-22 20:01:48.585706,-85
2021-09-22 20:01:48.585712,-75
2021-09-22 20:01:48.585717,-65
2021-09-22 20:01:48.585723,-63
2021-09-22 20:01:48.585729,-65
2021-09-22 20:01:48.585735,-68
2021-09-22 20:01:48.585740,-65
2021-09-22 20:01:48.585746,-68
2021-09-22 20:01:48.902105,-65
2021-09-22 20:01:48.902124,-55
2021-09-22 20:01:48.902131,-46
2021-09-22 20:01:48.902137,-51
2021-09-22 20:01:48.902143,-58
2021-09-22 20:01:48.902149,-41
2021-09-22 20:01:48.902156,-34
2021-09-22 20:01:48.902161,-60
2021-09-22 20:01:48.902167,-82
2021-09-22 20:01:48.902173,-90
2021-09-22 20:01:48.902179,-85
2021-09-22 20:01:48.902185,-75
2021-09-22 20:01:48.902191,-70
2021-09-22 20:01:48.902197,-68
2021-09-22 20:01:48.902202,-65
2021-09-22 20:01:48.902208,-63
2021-09-22 20:01:48.902214,-55
2021-09-22 20:01:48.902221,-24
2021-09-22 20:01:48.902227,48
2021-09-22 20:01:48.902233,189
2021-09-22 20:01:48.902239,420
2021-09-22 20:01:48.902244,598
2021-09-22 20:01:48.902250,374
2021-09-22 20:01:48.902256,-184
2021-09-22 20:01:48.902262,-642
2021-09-22 20:01:48.902268,-710
2021-09-22 20:01:48.902273,-391
2021-09-22 20:01:48.902279,-99
2021-09-22 20:01:48.902285,-41
2021-09-22 20:01:48.902292,26
2021-09-22 20:01:49.080723,119
2021-09-22 20:01:49.080739,119
2021-09-22 20:01:49.080747,111
2021-09-22 20:01:49.080753,143
2021-09-22 20:01:49.080759,155
2021-09-22 20:01:49.080765,158
2021-09-22 20:01:49.080771,175
2021-09-22 20:01:49.080777,187
2021-09-22 20:01:49.080783,194
2021-09-22 20:01:49.080789,201
2021-09-22 20:01:49.080795,209
2021-09-22 20:01:49.080800,228
2021-09-22 20:01:49.080806,255
2021-09-22 20:01:49.080816,272
2021-09-22 20:01:49.080822,282
2021-09-22 20:01:49.080828,304
2021-09-22 20:01:49.080834,338
2021-09-22 20:01:49.080840,374
2021-09-22 20:01:49.080846,406
2021-09-22 20:01:49.080852,433
2021-09-22 20:01:49.080858,447
2021-09-22 20:01:49.080864,452
2021-09-22 20:01:49.080870,459
2021-09-22 20:01:49.080875,450
2021-09-22 20:01:49.080881,413
2021-09-22 20:01:49.080887,357
2021-09-22 20:01:49.080893,272
2021-09-22 20:01:49.080899,163
2021-09-22 20:01:49.080904,60
2021-09-22 20:01:49.080912,-31
2021-09-22 20:01:49.307056,-116
2021-09-22 20:01:49.307074,-182
2021-09-22 20:01:49.307081,-223
2021-09-22 20:01:49.307087,-248
2021-09-22 20:01:49.307093,-257
2021-09-22 20:01:49.307099,-253
2021-09-22 20:01:49.307105,-248
2021-09-22 20:01:49.307111,-243
2021-09-22 20:01:49.307117,-233
2021-09-22 20:01:49.307122,-218
2021-09-22 20:01:49.307128,-201
2021-09-22 20:01:49.307134,-189
2021-09-22 20:01:49.307140,-177
2021-09-22 20:01:49.307146,-170
2021-09-22 20:01:49.307152,-163
2021-09-22 20:01:49.307158,-153
2021-09-22 20:01:49.307164,-138
2021-09-22 20:01:49.307173,-131
2021-09-22 20:01:49.307179,-126
2021-09-22 20:01:49.307185,-124
2021-09-22 20:01:49.307191,-121
2021-09-22 20:01:49.307197,-124
2021-09-22 20:01:49.307202,-121
2021-09-22 20:01:49.307208,-116
2021-09-22 20:01:49.307214,-114
2021-09-22 20:01:49.307220,-116
2021-09-22 20:01:49.307225,-114
2021-09-22 20:01:49.307231,-109
2021-09-22 20:01:49.307237,-107
2021-09-22 20:01:49.307243,-104
2021-09-22 20:01:49.486993,-99
2021-09-22 20:01:49.487010,-99
2021-09-22 20:01:49.487017,-114
2021-09-22 20:01:49.487023,-119
2021-09-22 20:01:49.487030,-107
2021-09-22 20:01:49.487036,-102
2021-09-22 20:01:49.487042,-107
2021-09-22 20:01:49.487053,-97
2021-09-22 20:01:49.487059,-87
2021-09-22 20:01:49.487065,-87
2021-09-22 20:01:49.487070,-87
2021-09-22 20:01:49.487076,-85
2021-09-22 20:01:49.487082,-87
2021-09-22 20:01:49.487088,-82
2021-09-22 20:01:49.487093,-80
2021-09-22 20:01:49.487099,-80
2021-09-22 20:01:49.487105,-75
2021-09-22 20:01:49.487111,-70
2021-09-22 20:01:49.487116,-72
2021-09-22 20:01:49.487122,-77
2021-09-22 20:01:49.487128,-77
2021-09-22 20:01:49.487134,-82
2021-09-22 20:01:49.487139,-85
2021-09-22 20:01:49.487145,-65
2021-09-22 20:01:49.487151,-48
2021-09-22 20:01:49.487156,-48
2021-09-22 20:01:49.487162,-46
2021-09-22 20:01:49.487168,-34
2021-09-22 20:01:49.487174,-34
2021-09-22 20:01:49.487180,-53
2021-09-22 20:01:49.802094,-65
2021-09-22 20:01:49.802112,-68
2021-09-22 20:01:49.802119,-65
2021-09-22 20:01:49.802125,-65
2021-09-22 20:01:49.802131,-60
2021-09-22 20:01:49.802137,-60
2021-09-22 20:01:49.802143,-68
2021-09-22 20:01:49.802149,-70
2021-09-22 20:01:49.802155,-53
2021-09-22 20:01:49.802161,-31
2021-09-22 20:01:49.802166,24
2021-09-22 20:01:49.802172,150
2021-09-22 20:01:49.802178,377
2021-09-22 20:01:49.802184,596
2021-09-22 20:01:49.802190,452
2021-09-22 20:01:49.802195,-87
2021-09-22 20:01:49.802201,-598
2021-09-22 20:01:49.802207,-729
2021-09-22 20:01:49.802213,-430
2021-09-22 20:01:49.802219,-107
2021-09-22 20:01:49.802224,-36
2021-09-22 20:01:49.802230,17
2021-09-22 20:01:49.802236,111
2021-09-22 20:01:49.802242,116
2021-09-22 20:01:49.802253,107
2021-09-22 20:01:49.802259,141
2021-09-22 20:01:49.802264,153
2021-09-22 20:01:49.802270,150
2021-09-22 20:01:49.802276,167
2021-09-22 20:01:49.802282,180
2021-09-22 20:01:49.937090,184
2021-09-22 20:01:49.937108,199
2021-09-22 20:01:49.937115,216
2021-09-22 20:01:49.937121,228
2021-09-22 20:01:49.937127,248
2021-09-22 20:01:49.937133,262
2021-09-22 20:01:49.937138,274
2021-09-22 20:01:49.937144,296
2021-09-22 20:01:49.937150,316
2021-09-22 20:01:49.937156,343
2021-09-22 20:01:49.937162,374
2021-09-22 20:01:49.937168,399
2021-09-22 20:01:49.937173,420
2021-09-22 20:01:49.937179,440
2021-09-22 20:01:49.937185,440
2021-09-22 20:01:49.937191,420
2021-09-22 20:01:49.937197,399
2021-09-22 20:01:49.937203,355
2021-09-22 20:01:49.937209,272
2021-09-22 20:01:49.937215,175
2021-09-22 20:01:49.937221,70
2021-09-22 20:01:49.937227,-36
2021-09-22 20:01:49.937234,-121
2021-09-22 20:01:49.937240,-192
2021-09-22 20:01:49.937246,-243
2021-09-22 20:01:49.937252,-265
2021-09-22 20:01:49.937258,-272
2021-09-22 20:01:49.937264,-279
2021-09-22 20:01:49.937269,-270
2021-09-22 20:01:49.937275,-253
2021-09-22 20:01:50.162129,-243
2021-09-22 20:01:50.162149,-223
2021-09-22 20:01:50.162156,-197
2021-09-22 20:01:50.162162,-189
2021-09-22 20:01:50.162168,-182
2021-09-22 20:01:50.162174,-165
2021-09-22 20:01:50.162180,-153
2021-09-22 20:01:50.162186,-145
2021-09-22 20:01:50.162192,-133
2021-09-22 20:01:50.162198,-124
2021-09-22 20:01:50.162204,-128
2021-09-22 20:01:50.162210,-131
2021-09-22 20:01:50.162216,-121
2021-09-22 20:01:50.162221,-116
2021-09-22 20:01:50.162227,-121
2021-09-22 20:01:50.162233,-119
2021-09-22 20:01:50.162239,-114
2021-09-22 20:01:50.162245,-114
2021-09-22 20:01:50.162250,-114
2021-09-22 20:01:50.162256,-116
2021-09-22 20:01:50.162262,-116
2021-09-22 20:01:50.162268,-111
2021-09-22 20:01:50.162273,-111
2021-09-22 20:01:50.162279,-109
2021-09-22 20:01:50.162288,-99
2021-09-22 20:01:50.162294,-92
2021-09-22 20:01:50.162300,-92
2021-09-22 20:01:50.162306,-94
2021-09-22 20:01:50.162311,-94
2021-09-22 20:01:50.162317,-82
2021-09-22 20:01:50.387076,-72
2021-09-22 20:01:50.387093,-75
2021-09-22 20:01:50.387100,-75
2021-09-22 20:01:50.387106,-80
2021-09-22 20:01:50.387112,-90
2021-09-22 20:01:50.387117,-87
2021-09-22 20:01:50.387123,-77
2021-09-22 20:01:50.387129,-68
2021-09-22 20:01:50.387135,-68
2021-09-22 20:01:50.387140,-75
2021-09-22 20:01:50.387146,-75
2021-09-22 20:01:50.387152,-65
2021-09-22 20:01:50.387158,-63
2021-09-22 20:01:50.387164,-82
2021-09-22 20:01:50.387169,-97
2021-09-22 20:01:50.387175,-94
2021-09-22 20:01:50.387181,-82
2021-09-22 20:01:50.387187,-63
2021-09-22 20:01:50.387193,-43
2021-09-22 20:01:50.387198,-43
2021-09-22 20:01:50.387204,-46
2021-09-22 20:01:50.387209,-43
2021-09-22 20:01:50.387215,-60
2021-09-22 20:01:50.387221,-75
2021-09-22 20:01:50.387227,-72
2021-09-22 20:01:50.387232,-75
2021-09-22 20:01:50.387238,-72
2021-09-22 20:01:50.387244,-70
2021-09-22 20:01:50.387250,-72
2021-09-22 20:01:50.387255,-65
2021-09-22 20:01:50.657163,-55
2021-09-22 20:01:50.657183,-51
2021-09-22 20:01:50.657190,-43
2021-09-22 20:01:50.657196,-2
2021-09-22 20:01:50.657202,111
2021-09-22 20:01:50.657208,333
2021-09-22 20:01:50.657215,588
2021-09-22 20:01:50.657221,564
2021-09-22 20:01:50.657227,92
2021-09-22 20:01:50.657233,-506
2021-09-22 20:01:50.657239,-759
2021-09-22 20:01:50.657245,-489
2021-09-22 20:01:50.657251,-131
2021-09-22 20:01:50.657257,-46
2021-09-22 20:01:50.657263,-4
2021-09-22 20:01:50.657269,104
2021-09-22 20:01:50.657275,128
2021-09-22 20:01:50.657281,111
2021-09-22 20:01:50.657287,138
2021-09-22 20:01:50.657293,160
2021-09-22 20:01:50.657299,155
2021-09-22 20:01:50.657305,165
2021-09-22 20:01:50.657311,184
2021-09-22 20:01:50.657317,189
2021-09-22 20:01:50.657323,197
2021-09-22 20:01:50.657328,214
2021-09-22 20:01:50.657334,228
2021-09-22 20:01:50.657340,238
2021-09-22 20:01:50.657346,257
2021-09-22 20:01:50.657352,284
2021-09-22 20:01:50.926490,306
2021-09-22 20:01:50.926511,330
2021-09-22 20:01:50.926518,355
2021-09-22 20:01:50.926523,379
2021-09-22 20:01:50.926529,406
2021-09-22 20:01:50.926535,428
2021-09-22 20:01:50.926541,440
2021-09-22 20:01:50.926547,442
2021-09-22 20:01:50.926553,425
2021-09-22 20:01:50.926559,391
2021-09-22 20:01:50.926568,350
2021-09-22 20:01:50.926574,291
2021-09-22 20:01:50.926580,201
2021-09-22 20:01:50.926586,92
2021-09-22 20:01:50.926592,-17
2021-09-22 20:01:50.926598,-107
2021-09-22 20:01:50.926603,-172
2021-09-22 20:01:50.926609,-218
2021-09-22 20:01:50.926615,-250
2021-09-22 20:01:50.926620,-274
2021-09-22 20:01:50.926626,-284
2021-09-22 20:01:50.926632,-274
2021-09-22 20:01:50.926638,-255
2021-09-22 20:01:50.926644,-236
2021-09-22 20:01:50.926649,-218
2021-09-22 20:01:50.926655,-206
2021-09-22 20:01:50.926661,-194
2021-09-22 20:01:50.926666,-180
2021-09-22 20:01:50.926672,-163
2021-09-22 20:01:50.926678,-150
2021-09-22 20:01:51.150791,-141
2021-09-22 20:01:51.150808,-136
2021-09-22 20:01:51.150816,-131
2021-09-22 20:01:51.150822,-128
2021-09-22 20:01:51.150828,-121
2021-09-22 20:01:51.150834,-119
2021-09-22 20:01:51.150840,-116
2021-09-22 20:01:51.150846,-119
2021-09-22 20:01:51.150852,-124
2021-09-22 20:01:51.150857,-121
2021-09-22 20:01:51.150864,-116
2021-09-22 20:01:51.150869,-111
2021-09-22 20:01:51.150875,-109
2021-09-22 20:01:51.150881,-111
2021-09-22 20:01:51.150887,-114
2021-09-22 20:01:51.150893,-111
2021-09-22 20:01:51.150899,-109
2021-09-22 20:01:51.150905,-104
2021-09-22 20:01:51.150911,-97
2021-09-22 20:01:51.150916,-99
2021-09-22 20:01:51.150922,-97
2021-09-22 20:01:51.150928,-92
2021-09-22 20:01:51.150934,-87
2021-09-22 20:01:51.150940,-82
2021-09-22 20:01:51.150946,-77
2021-09-22 20:01:51.150956,-77
2021-09-22 20:01:51.150962,-82
2021-09-22 20:01:51.150968,-90
2021-09-22 20:01:51.150974,-92
2021-09-22 20:01:51.150980,-92
2021-09-22 20:01:51.332088,-87
2021-09-22 20:01:51.332105,-87
2021-09-22 20:01:51.332112,-85
2021-09-22 20:01:51.332118,-82
2021-09-22 20:01:51.332124,-80
2021-09-22 20:01:51.332129,-72
2021-09-22 20:01:51.332135,-80
2021-09-22 20:01:51.332141,-90
2021-09-22 20:01:51.332147,-80
2021-09-22 20:01:51.332153,-55
2021-09-22 20:01:51.332159,-36
2021-09-22 20:01:51.332165,-31
2021-09-22 20:01:51.332171,-36
2021-09-22 20:01:51.332176,-31
2021-09-22 20:01:51.332182,-36
2021-09-22 20:01:51.332188,-55
2021-09-22 20:01:51.332193,-63
2021-09-22 20:01:51.332199,-60
2021-09-22 20:01:51.332205,-60
2021-09-22 20:01:51.332210,-58
2021-09-22 20:01:51.332216,-53
2021-09-22 20:01:51.332222,-53
2021-09-22 20:01:51.332228,-48
2021-09-22 20:01:51.332233,-41
2021-09-22 20:01:51.332239,-38
2021-09-22 20:01:51.332244,-21
2021-09-22 20:01:51.332250,55
2021-09-22 20:01:51.332256,211
2021-09-22 20:01:51.332262,459
2021-09-22 20:01:51.332268,610
2021-09-22 20:01:51.557082,328
2021-09-22 20:01:51.557101,-255
2021-09-22 20:01:51.557108,-686
2021-09-22 20:01:51.557114,-678
2021-09-22 20:01:51.557120,-318
2021-09-22 20:01:51.557127,-68
2021-09-22 20:01:51.557133,-36
2021-09-22 20:01:51.557139,41
2021-09-22 20:01:51.557145,126
2021-09-22 20:01:51.557151,116
2021-09-22 20:01:51.557157,119
2021-09-22 20:01:51.557163,150
2021-09-22 20:01:51.557169,150
2021-09-22 20:01:51.557174,150
2021-09-22 20:01:51.557180,172
2021-09-22 20:01:51.557186,184
2021-09-22 20:01:51.557195,194
2021-09-22 20:01:51.557201,209
2021-09-22 20:01:51.557207,223
2021-09-22 20:01:51.557213,238
2021-09-22 20:01:51.557219,257
2021-09-22 20:01:51.557225,279
2021-09-22 20:01:51.557230,304
2021-09-22 20:01:51.557236,330
2021-09-22 20:01:51.557242,357
2021-09-22 20:01:51.557248,386
2021-09-22 20:01:51.557253,416
2021-09-22 20:01:51.557259,440
2021-09-22 20:01:51.557265,459
2021-09-22 20:01:51.557271,467
2021-09-22 20:01:51.782083,459
2021-09-22 20:01:51.782100,437
2021-09-22 20:01:51.782107,396
2021-09-22 20:01:51.782113,335
2021-09-22 20:01:51.782119,255
2021-09-22 20:01:51.782125,150
2021-09-22 20:01:51.782131,38
2021-09-22 20:01:51.782137,-55
2021-09-22 20:01:51.782143,-128
2021-09-22 20:01:51.782149,-187
2021-09-22 20:01:51.782155,-226
2021-09-22 20:01:51.782161,-250
2021-09-22 20:01:51.782167,-265
2021-09-22 20:01:51.782172,-262
2021-09-22 20:01:51.782178,-248
2021-09-22 20:01:51.782184,-236
2021-09-22 20:01:51.782190,-221
2021-09-22 20:01:51.782196,-204
2021-09-22 20:01:51.782201,-184
2021-09-22 20:01:51.782207,-165
2021-09-22 20:01:51.782213,-153
2021-09-22 20:01:51.782219,-143
2021-09-22 20:01:51.782225,-133
2021-09-22 20:01:51.782230,-124
2021-09-22 20:01:51.782236,-114
2021-09-22 20:01:51.782242,-104
2021-09-22 20:01:51.782248,-102
2021-09-22 20:01:51.782253,-102
2021-09-22 20:01:51.782259,-97
2021-09-22 20:01:51.782265,-94
2021-09-22 20:01:52.007054,-102
2021-09-22 20:01:52.007071,-114
2021-09-22 20:01:52.007078,-109
2021-09-22 20:01:52.007084,-107
2021-09-22 20:01:52.007090,-121
2021-09-22 20:01:52.007096,-131
2021-09-22 20:01:52.007102,-121
2021-09-22 20:01:52.007107,-114
2021-09-22 20:01:52.007113,-109
2021-09-22 20:01:52.007119,-104
2021-09-22 20:01:52.007125,-109
2021-09-22 20:01:52.007131,-111
2021-09-22 20:01:52.007137,-102
2021-09-22 20:01:52.007146,-92
2021-09-22 20:01:52.007152,-90
2021-09-22 20:01:52.007157,-90
2021-09-22 20:01:52.007163,-92
2021-09-22 20:01:52.007169,-94
2021-09-22 20:01:52.007175,-92
2021-09-22 20:01:52.007181,-87
2021-09-22 20:01:52.007187,-87
2021-09-22 20:01:52.007192,-85
2021-09-22 20:01:52.007198,-80
2021-09-22 20:01:52.007204,-72
2021-09-22 20:01:52.007210,-65
2021-09-22 20:01:52.007216,-58
2021-09-22 20:01:52.007221,-58
2021-09-22 20:01:52.007227,-60
2021-09-22 20:01:52.007233,-55
2021-09-22 20:01:52.007239,-36
2021-09-22 20:01:52.232108,-17
2021-09-22 20:01:52.232126,-9
2021-09-22 20:01:52.232133,-12
2021-09-22 20:01:52.232139,-7
2021-09-22 20:01:52.232145,-12
2021-09-22 20:01:52.232151,-36
2021-09-22 20:01:52.232157,-48
2021-09-22 20:01:52.232163,-43
2021-09-22 20:01:52.232168,-38
2021-09-22 20:01:52.232174,-46
2021-09-22 20:01:52.232180,-51
2021-09-22 20:01:52.232186,-43
2021-09-22 20:01:52.232192,-34
2021-09-22 20:01:52.232198,-29
2021-09-22 20:01:52.232204,-19
2021-09-22 20:01:52.232209,17
2021-09-22 20:01:52.232215,104
2021-09-22 20:01:52.232221,262
2021-09-22 20:01:52.232227,491
2021-09-22 20:01:52.232232,576
2021-09-22 20:01:52.232238,248
2021-09-22 20:01:52.232244,-311
2021-09-22 20:01:52.232249,-693
2021-09-22 20:01:52.232255,-639
2021-09-22 20:01:52.232261,-253
2021-09-22 20:01:52.232266,-17
2021-09-22 20:01:52.232272,2
2021-09-22 20:01:52.232278,85
2021-09-22 20:01:52.232283,172
2021-09-22 20:01:52.232289,160
2021-09-22 20:01:52.502096,165
2021-09-22 20:01:52.502113,201
2021-09-22 20:01:52.502120,204
2021-09-22 20:01:52.502126,192
2021-09-22 20:01:52.502133,201
2021-09-22 20:01:52.502139,211
2021-09-22 20:01:52.502145,214
2021-09-22 20:01:52.502151,221
2021-09-22 20:01:52.502157,233
2021-09-22 20:01:52.502163,238
2021-09-22 20:01:52.502168,257
2021-09-22 20:01:52.502174,289
2021-09-22 20:01:52.502180,313
2021-09-22 20:01:52.502186,340
2021-09-22 20:01:52.502192,372
2021-09-22 20:01:52.502197,396
2021-09-22 20:01:52.502203,425
2021-09-22 20:01:52.502213,452
2021-09-22 20:01:52.502219,469
2021-09-22 20:01:52.502225,472
2021-09-22 20:01:52.502231,467
2021-09-22 20:01:52.502236,445
2021-09-22 20:01:52.502242,401
2021-09-22 20:01:52.502248,343
2021-09-22 20:01:52.502254,262
2021-09-22 20:01:52.502260,155
2021-09-22 20:01:52.502266,48
2021-09-22 20:01:52.502271,-41
2021-09-22 20:01:52.502277,-109
2021-09-22 20:01:52.502283,-163
2021-09-22 20:01:52.727032,-199
2021-09-22 20:01:52.727050,-221
2021-09-22 20:01:52.727057,-231
2021-09-22 20:01:52.727063,-228
2021-09-22 20:01:52.727069,-218
2021-09-22 20:01:52.727075,-199
2021-09-22 20:01:52.727081,-182
2021-09-22 20:01:52.727087,-167
2021-09-22 20:01:52.727093,-160
2021-09-22 20:01:52.727099,-160
2021-09-22 20:01:52.727105,-153
2021-09-22 20:01:52.727110,-136
2021-09-22 20:01:52.727116,-126
2021-09-22 20:01:52.727122,-121
2021-09-22 20:01:52.727128,-119
2021-09-22 20:01:52.727134,-116
2021-09-22 20:01:52.727140,-109
2021-09-22 20:01:52.727145,-104
2021-09-22 20:01:52.727151,-99
2021-09-22 20:01:52.727157,-94
2021-09-22 20:01:52.727163,-94
2021-09-22 20:01:52.727168,-97
2021-09-22 20:01:52.727174,-94
2021-09-22 20:01:52.727180,-92
2021-09-22 20:01:52.727185,-94
2021-09-22 20:01:52.727191,-97
2021-09-22 20:01:52.727197,-97
2021-09-22 20:01:52.727203,-94
2021-09-22 20:01:52.727209,-92
2021-09-22 20:01:52.727214,-90
2021-09-22 20:01:52.997079,-82
2021-09-22 20:01:52.997097,-80
2021-09-22 20:01:52.997103,-80
2021-09-22 20:01:52.997110,-80
2021-09-22 20:01:52.997115,-80
2021-09-22 20:01:52.997121,-80
2021-09-22 20:01:52.997127,-80
2021-09-22 20:01:52.997133,-85
2021-09-22 20:01:52.997139,-92
2021-09-22 20:01:52.997145,-90
2021-09-22 20:01:52.997151,-87
2021-09-22 20:01:52.997157,-92
2021-09-22 20:01:52.997163,-92
2021-09-22 20:01:52.997168,-77
2021-09-22 20:01:52.997174,-70
2021-09-22 20:01:52.997180,-75
2021-09-22 20:01:52.997186,-68
2021-09-22 20:01:52.997192,-51
2021-09-22 20:01:52.997197,-58
2021-09-22 20:01:52.997203,-77
2021-09-22 20:01:52.997209,-87
2021-09-22 20:01:52.997215,-92
2021-09-22 20:01:52.997220,-90
2021-09-22 20:01:52.997226,-82
2021-09-22 20:01:52.997232,-80
2021-09-22 20:01:52.997238,-77
2021-09-22 20:01:52.997244,-72
2021-09-22 20:01:52.997250,-68
2021-09-22 20:01:52.997255,-53
2021-09-22 20:01:52.997264,4
2021-09-22 20:01:53.220757,116
2021-09-22 20:01:53.220774,289
2021-09-22 20:01:53.220781,489
2021-09-22 20:01:53.220787,430
2021-09-22 20:01:53.220793,-17
2021-09-22 20:01:53.220799,-525
2021-09-22 20:01:53.220805,-761
2021-09-22 20:01:53.220811,-566
2021-09-22 20:01:53.220817,-194
2021-09-22 20:01:53.220823,-53
2021-09-22 20:01:53.220829,-26
2021-09-22 20:01:53.220835,85
2021-09-22 20:01:53.220841,138
2021-09-22 20:01:53.220847,114
2021-09-22 20:01:53.220852,124
2021-09-22 20:01:53.220858,148
2021-09-22 20:01:53.220864,148
2021-09-22 20:01:53.220870,158
2021-09-22 20:01:53.220875,172
2021-09-22 20:01:53.220881,175
2021-09-22 20:01:53.220887,184
2021-09-22 20:01:53.220893,204
2021-09-22 20:01:53.220899,218
2021-09-22 20:01:53.220904,238
2021-09-22 20:01:53.220910,257
2021-09-22 20:01:53.220916,279
2021-09-22 20:01:53.220922,306
2021-09-22 20:01:53.220928,338
2021-09-22 20:01:53.220933,369
2021-09-22 20:01:53.220939,403
2021-09-22 20:01:53.401925,433
2021-09-22 20:01:53.401938,452
2021-09-22 20:01:53.401945,464
2021-09-22 20:01:53.401951,464
2021-09-22 20:01:53.401957,455
2021-09-22 20:01:53.401963,425
2021-09-22 20:01:53.401969,367
2021-09-22 20:01:53.401975,279
2021-09-22 20:01:53.401981,177
2021-09-22 20:01:53.401987,70
2021-09-22 20:01:53.401993,-34
2021-09-22 20:01:53.401998,-116
2021-09-22 20:01:53.402004,-184
2021-09-22 20:01:53.402010,-236
2021-09-22 20:01:53.402016,-260
2021-09-22 20:01:53.402022,-267
2021-09-22 20:01:53.402028,-277
2021-09-22 20:01:53.402033,-282
2021-09-22 20:01:53.402039,-274
2021-09-22 20:01:53.402045,-257
2021-09-22 20:01:53.402050,-243
2021-09-22 20:01:53.402056,-228
2021-09-22 20:01:53.402062,-211
2021-09-22 20:01:53.402068,-192
2021-09-22 20:01:53.402073,-180
2021-09-22 20:01:53.402079,-165
2021-09-22 20:01:53.402085,-153
2021-09-22 20:01:53.402090,-143
2021-09-22 20:01:53.402096,-133
2021-09-22 20:01:53.402102,-126
2021-09-22 20:01:53.671493,-121
2021-09-22 20:01:53.671511,-116
2021-09-22 20:01:53.671517,-111
2021-09-22 20:01:53.671524,-111
2021-09-22 20:01:53.671530,-111
2021-09-22 20:01:53.671536,-114
2021-09-22 20:01:53.671542,-121
2021-09-22 20:01:53.671547,-119
2021-09-22 20:01:53.671553,-111
2021-09-22 20:01:53.671559,-111
2021-09-22 20:01:53.671565,-111
2021-09-22 20:01:53.671571,-111
2021-09-22 20:01:53.671577,-116
2021-09-22 20:01:53.671583,-109
2021-09-22 20:01:53.671589,-99
2021-09-22 20:01:53.671595,-99
2021-09-22 20:01:53.671601,-99
2021-09-22 20:01:53.671607,-99
2021-09-22 20:01:53.671613,-102
2021-09-22 20:01:53.671619,-102
2021-09-22 20:01:53.671627,-97
2021-09-22 20:01:53.671633,-92
2021-09-22 20:01:53.671639,-92
2021-09-22 20:01:53.671645,-87
2021-09-22 20:01:53.671651,-82
2021-09-22 20:01:53.671657,-77
2021-09-22 20:01:53.671662,-75
2021-09-22 20:01:53.671668,-80
2021-09-22 20:01:53.671674,-82
2021-09-22 20:01:53.671680,-85
2021-09-22 20:01:53.852092,-90
2021-09-22 20:01:53.852109,-90
2021-09-22 20:01:53.852116,-82
2021-09-22 20:01:53.852122,-72
2021-09-22 20:01:53.852128,-58
2021-09-22 20:01:53.852134,-51
2021-09-22 20:01:53.852140,-53
2021-09-22 20:01:53.852146,-41
2021-09-22 20:01:53.852152,-34
2021-09-22 20:01:53.852158,-53
2021-09-22 20:01:53.852164,-75
2021-09-22 20:01:53.852169,-85
2021-09-22 20:01:53.852175,-82
2021-09-22 20:01:53.852181,-77
2021-09-22 20:01:53.852187,-72
2021-09-22 20:01:53.852192,-70
2021-09-22 20:01:53.852198,-72
2021-09-22 20:01:53.852204,-72
2021-09-22 20:01:53.852209,-60
2021-09-22 20:01:53.852215,-31
2021-09-22 20:01:53.852221,38
2021-09-22 20:01:53.852227,172
2021-09-22 20:01:53.852233,396
2021-09-22 20:01:53.852239,530
2021-09-22 20:01:53.852244,255
2021-09-22 20:01:53.852250,-272
2021-09-22 20:01:53.852256,-666
2021-09-22 20:01:53.852261,-722
2021-09-22 20:01:53.852267,-396
2021-09-22 20:01:53.852273,-90
2021-09-22 20:01:54.077125,-46
2021-09-22 20:01:54.077142,9
2021-09-22 20:01:54.077149,111
2021-09-22 20:01:54.077155,109
2021-09-22 20:01:54.077161,90
2021-09-22 20:01:54.077167,119
2021-09-22 20:01:54.077173,138
2021-09-22 20:01:54.077179,141
2021-09-22 20:01:54.077185,153
2021-09-22 20:01:54.077191,163
2021-09-22 20:01:54.077197,163
2021-09-22 20:01:54.077203,175
2021-09-22 20:01:54.077209,194
2021-09-22 20:01:54.077214,211
2021-09-22 20:01:54.077220,228
2021-09-22 20:01:54.077226,248
2021-09-22 20:01:54.077232,270
2021-09-22 20:01:54.077238,296
2021-09-22 20:01:54.077244,330
2021-09-22 20:01:54.077250,364
2021-09-22 20:01:54.077255,399
2021-09-22 20:01:54.077261,423
2021-09-22 20:01:54.077267,440
2021-09-22 20:01:54.077273,450
2021-09-22 20:01:54.077278,452
2021-09-22 20:01:54.077284,440
2021-09-22 20:01:54.077290,401
2021-09-22 20:01:54.077295,338
2021-09-22 20:01:54.077301,250
2021-09-22 20:01:54.077307,148
2021-09-22 20:01:54.347124,38
2021-09-22 20:01:54.347140,-58
2021-09-22 20:01:54.347148,-138
2021-09-22 20:01:54.347154,-206
2021-09-22 20:01:54.347160,-250
2021-09-22 20:01:54.347166,-267
2021-09-22 20:01:54.347172,-272
2021-09-22 20:01:54.347178,-274
2021-09-22 20:01:54.347184,-272
2021-09-22 20:01:54.347190,-267
2021-09-22 20:01:54.347196,-260
2021-09-22 20:01:54.347202,-238
2021-09-22 20:01:54.347208,-218
2021-09-22 20:01:54.347214,-201
2021-09-22 20:01:54.347219,-189
2021-09-22 20:01:54.347225,-180
2021-09-22 20:01:54.347231,-167
2021-09-22 20:01:54.347237,-150
2021-09-22 20:01:54.347243,-136
2021-09-22 20:01:54.347249,-126
2021-09-22 20:01:54.347254,-121
2021-09-22 20:01:54.347260,-124
2021-09-22 20:01:54.347271,-119
2021-09-22 20:01:54.347277,-111
2021-09-22 20:01:54.347283,-116
2021-09-22 20:01:54.347288,-119
2021-09-22 20:01:54.347294,-116
2021-09-22 20:01:54.347300,-119
2021-09-22 20:01:54.347306,-131
2021-09-22 20:01:54.347312,-131
2021-09-22 20:01:54.616524,-121
2021-09-22 20:01:54.616541,-116
2021-09-22 20:01:54.616548,-119
2021-09-22 20:01:54.616554,-116
2021-09-22 20:01:54.616561,-111
2021-09-22 20:01:54.616566,-104
2021-09-22 20:01:54.616572,-99
2021-09-22 20:01:54.616578,-97
2021-09-22 20:01:54.616584,-97
2021-09-22 20:01:54.616590,-107
2021-09-22 20:01:54.616596,-107
2021-09-22 20:01:54.616602,-97
2021-09-22 20:01:54.616607,-92
2021-09-22 20:01:54.616613,-90
2021-09-22 20:01:54.616619,-92
2021-09-22 20:01:54.616625,-97
2021-09-22 20:01:54.616631,-92
2021-09-22 20:01:54.616637,-82
2021-09-22 20:01:54.616643,-80
2021-09-22 20:01:54.616648,-77
2021-09-22 20:01:54.616654,-82
2021-09-22 20:01:54.616660,-92
2021-09-22 20:01:54.616666,-94
2021-09-22 20:01:54.616672,-90
2021-09-22 20:01:54.616677,-72
2021-09-22 20:01:54.616683,-51
2021-09-22 20:01:54.616689,-48
2021-09-22 20:01:54.616695,-58
2021-09-22 20:01:54.616700,-46
2021-09-22 20:01:54.616706,-38
2021-09-22 20:01:54.841414,-58
2021-09-22 20:01:54.841430,-72
2021-09-22 20:01:54.841437,-75
2021-09-22 20:01:54.841444,-75
2021-09-22 20:01:54.841450,-70
2021-09-22 20:01:54.841456,-65
2021-09-22 20:01:54.841462,-60
2021-09-22 20:01:54.841467,-60
2021-09-22 20:01:54.841473,-63
2021-09-22 20:01:54.841479,-60
2021-09-22 20:01:54.841485,-29
2021-09-22 20:01:54.841491,51
2021-09-22 20:01:54.841497,194
2021-09-22 20:01:54.841503,430
2021-09-22 20:01:54.841509,571
2021-09-22 20:01:54.841515,291
2021-09-22 20:01:54.841521,-250
2021-09-22 20:01:54.841527,-654
2021-09-22 20:01:54.841533,-703
2021-09-22 20:01:54.841538,-369
2021-09-22 20:01:54.841544,-72
2021-09-22 20:01:54.841550,-31
2021-09-22 20:01:54.841556,31
2021-09-22 20:01:54.841562,128
2021-09-22 20:01:54.841567,126
2021-09-22 20:01:54.841573,116
2021-09-22 20:01:54.841579,148
2021-09-22 20:01:54.841585,158
2021-09-22 20:01:54.841591,153
2021-09-22 20:01:54.841596,163
2021-09-22 20:01:55.022115,177
2021-09-22 20:01:55.022131,187
2021-09-22 20:01:55.022139,194
2021-09-22 20:01:55.022145,201
2021-09-22 20:01:55.022151,211
2021-09-22 20:01:55.022157,233
2021-09-22 20:01:55.022163,257
2021-09-22 20:01:55.022169,274
2021-09-22 20:01:55.022175,296
2021-09-22 20:01:55.022181,333
2021-09-22 20:01:55.022187,369
2021-09-22 20:01:55.022193,403
2021-09-22 20:01:55.022199,435
2021-09-22 20:01:55.022205,452
2021-09-22 20:01:55.022211,462
2021-09-22 20:01:55.022217,459
2021-09-22 20:01:55.022223,442
2021-09-22 20:01:55.022229,408
2021-09-22 20:01:55.022235,347
2021-09-22 20:01:55.022241,255
2021-09-22 20:01:55.022247,143
2021-09-22 20:01:55.022253,31
2021-09-22 20:01:55.022259,-63
2021-09-22 20:01:55.022265,-141
2021-09-22 20:01:55.022270,-199
2021-09-22 20:01:55.022276,-240
2021-09-22 20:01:55.022282,-260
2021-09-22 20:01:55.022288,-267
2021-09-22 20:01:55.022294,-265
2021-09-22 20:01:55.022300,-257
2021-09-22 20:01:55.290746,-250
2021-09-22 20:01:55.290764,-240
2021-09-22 20:01:55.290771,-226
2021-09-22 20:01:55.290778,-209
2021-09-22 20:01:55.290784,-194
2021-09-22 20:01:55.290793,-177
2021-09-22 20:01:55.290799,-167
2021-09-22 20:01:55.290805,-160
2021-09-22 20:01:55.290810,-145
2021-09-22 20:01:55.290816,-133
2021-09-22 20:01:55.290822,-126
2021-09-22 20:01:55.290828,-119
2021-09-22 20:01:55.290834,-116
2021-09-22 20:01:55.290839,-119
2021-09-22 20:01:55.290845,-114
2021-09-22 20:01:55.290851,-111
2021-09-22 20:01:55.290857,-111
2021-09-22 20:01:55.290863,-109
2021-09-22 20:01:55.290868,-109
2021-09-22 20:01:55.290874,-109
2021-09-22 20:01:55.290880,-107
2021-09-22 20:01:55.290886,-104
2021-09-22 20:01:55.290891,-102
2021-09-22 20:01:55.290897,-99
2021-09-22 20:01:55.290903,-97
2021-09-22 20:01:55.290908,-92
2021-09-22 20:01:55.290914,-85
2021-09-22 20:01:55.290920,-82
2021-09-22 20:01:55.290925,-80
2021-09-22 20:01:55.290931,-75
2021-09-22 20:01:55.517145,-72
2021-09-22 20:01:55.517163,-70
2021-09-22 20:01:55.517170,-77
2021-09-22 20:01:55.517176,-85
2021-09-22 20:01:55.517182,-80
2021-09-22 20:01:55.517188,-75
2021-09-22 20:01:55.517194,-82
2021-09-22 20:01:55.517200,-82
2021-09-22 20:01:55.517206,-80
2021-09-22 20:01:55.517212,-87
2021-09-22 20:01:55.517217,-85
2021-09-22 20:01:55.517223,-80
2021-09-22 20:01:55.517229,-92
2021-09-22 20:01:55.517235,-99
2021-09-22 20:01:55.517241,-94
2021-09-22 20:01:55.517246,-90
2021-09-22 20:01:55.517252,-75
2021-09-22 20:01:55.517258,-58
2021-09-22 20:01:55.517264,-53
2021-09-22 20:01:55.517269,-53
2021-09-22 20:01:55.517275,-43
2021-09-22 20:01:55.517281,-48
2021-09-22 20:01:55.517287,-70
2021-09-22 20:01:55.517293,-80
2021-09-22 20:01:55.517298,-77
2021-09-22 20:01:55.517304,-70
2021-09-22 20:01:55.517310,-68
2021-09-22 20:01:55.517316,-65
2021-09-22 20:01:55.517322,-63
2021-09-22 20:01:55.517327,-58
2021-09-22 20:01:55.697070,-55
2021-09-22 20:01:55.697086,-46
2021-09-22 20:01:55.697093,-9
2021-09-22 20:01:55.697100,75
2021-09-22 20:01:55.697106,243
2021-09-22 20:01:55.697112,486
2021-09-22 20:01:55.697118,569
2021-09-22 20:01:55.697124,214
2021-09-22 20:01:55.697130,-338
2021-09-22 20:01:55.697136,-695
2021-09-22 20:01:55.697141,-649
2021-09-22 20:01:55.697147,-284
2021-09-22 20:01:55.697153,-48
2021-09-22 20:01:55.697159,-19
2021-09-22 20:01:55.697165,58
2021-09-22 20:01:55.697171,133
2021-09-22 20:01:55.697177,116
2021-09-22 20:01:55.697183,114
2021-09-22 20:01:55.697189,148
2021-09-22 20:01:55.697195,158
2021-09-22 20:01:55.697200,160
2021-09-22 20:01:55.697206,175
2021-09-22 20:01:55.697212,184
2021-09-22 20:01:55.697218,194
2021-09-22 20:01:55.697224,209
2021-09-22 20:01:55.697229,228
2021-09-22 20:01:55.697235,243
2021-09-22 20:01:55.697241,260
2021-09-22 20:01:55.697247,282
2021-09-22 20:01:55.697253,306
2021-09-22 20:01:55.922046,338
2021-09-22 20:01:55.922063,374
2021-09-22 20:01:55.922070,408
2021-09-22 20:01:55.922076,435
2021-09-22 20:01:55.922082,457
2021-09-22 20:01:55.922088,469
2021-09-22 20:01:55.922094,476
2021-09-22 20:01:55.922100,472
2021-09-22 20:01:55.922106,450
2021-09-22 20:01:55.922111,406
2021-09-22 20:01:55.922117,335
2021-09-22 20:01:55.922123,236
2021-09-22 20:01:55.922129,126
2021-09-22 20:01:55.922135,19
2021-09-22 20:01:55.922141,-85
2021-09-22 20:01:55.922147,-170
2021-09-22 20:01:55.922153,-223
2021-09-22 20:01:55.922158,-253
2021-09-22 20:01:55.922164,-270
2021-09-22 20:01:55.922170,-274
2021-09-22 20:01:55.922176,-272
2021-09-22 20:01:55.922182,-267
2021-09-22 20:01:55.922187,-255
2021-09-22 20:01:55.922193,-238
2021-09-22 20:01:55.922199,-218
2021-09-22 20:01:55.922204,-201
2021-09-22 20:01:55.922210,-187
2021-09-22 20:01:55.922216,-175
2021-09-22 20:01:55.922221,-160
2021-09-22 20:01:55.922227,-145
2021-09-22 20:01:56.147148,-128
2021-09-22 20:01:56.147168,-121
2021-09-22 20:01:56.147176,-116
2021-09-22 20:01:56.147182,-116
2021-09-22 20:01:56.147188,-116
2021-09-22 20:01:56.147194,-111
2021-09-22 20:01:56.147200,-104
2021-09-22 20:01:56.147206,-102
2021-09-22 20:01:56.147212,-107
2021-09-22 20:01:56.147217,-121
2021-09-22 20:01:56.147223,-128
2021-09-22 20:01:56.147229,-119
2021-09-22 20:01:56.147235,-114
2021-09-22 20:01:56.147241,-114
2021-09-22 20:01:56.147246,-109
2021-09-22 20:01:56.147252,-109
2021-09-22 20:01:56.147258,-107
2021-09-22 20:01:56.147264,-99
2021-09-22 20:01:56.147270,-92
2021-09-22 20:01:56.147275,-87
2021-09-22 20:01:56.147281,-85
2021-09-22 20:01:56.147287,-87
2021-09-22 20:01:56.147293,-90
2021-09-22 20:01:56.147298,-87
2021-09-22 20:01:56.147304,-80
2021-09-22 20:01:56.147310,-75
2021-09-22 20:01:56.147316,-75
2021-09-22 20:01:56.147322,-77
2021-09-22 20:01:56.147327,-72
2021-09-22 20:01:56.147333,-65
2021-09-22 20:01:56.461530,-63
2021-09-22 20:01:56.461547,-60
2021-09-22 20:01:56.461554,-65
2021-09-22 20:01:56.461560,-75
2021-09-22 20:01:56.461566,-77
2021-09-22 20:01:56.461572,-70
2021-09-22 20:01:56.461578,-70
2021-09-22 20:01:56.461584,-68
2021-09-22 20:01:56.461590,-75
2021-09-22 20:01:56.461596,-85
2021-09-22 20:01:56.461602,-77
2021-09-22 20:01:56.461608,-58
2021-09-22 20:01:56.461613,-43
2021-09-22 20:01:56.461619,-38
2021-09-22 20:01:56.461625,-38
2021-09-22 20:01:56.461631,-34
2021-09-22 20:01:56.461637,-38
2021-09-22 20:01:56.461643,-53
2021-09-22 20:01:56.461649,-60
2021-09-22 20:01:56.461654,-58
2021-09-22 20:01:56.461660,-63
2021-09-22 20:01:56.461666,-70
2021-09-22 20:01:56.461672,-65
2021-09-22 20:01:56.461678,-58
2021-09-22 20:01:56.461683,-53
2021-09-22 20:01:56.461689,-48
2021-09-22 20:01:56.461695,-41
2021-09-22 20:01:56.461701,-12
2021-09-22 20:01:56.461707,80
2021-09-22 20:01:56.461713,253
2021-09-22 20:01:56.732134,503
2021-09-22 20:01:56.732152,581
2021-09-22 20:01:56.732159,223
2021-09-22 20:01:56.732165,-328
2021-09-22 20:01:56.732172,-686
2021-09-22 20:01:56.732177,-627
2021-09-22 20:01:56.732183,-250
2021-09-22 20:01:56.732189,-24
2021-09-22 20:01:56.732195,-14
2021-09-22 20:01:56.732201,63
2021-09-22 20:01:56.732207,143
2021-09-22 20:01:56.732213,126
2021-09-22 20:01:56.732222,128
2021-09-22 20:01:56.732228,153
2021-09-22 20:01:56.732234,148
2021-09-22 20:01:56.732240,148
2021-09-22 20:01:56.732246,170
2021-09-22 20:01:56.732252,182
2021-09-22 20:01:56.732258,192
2021-09-22 20:01:56.732264,206
2021-09-22 20:01:56.732269,218
2021-09-22 20:01:56.732275,231
2021-09-22 20:01:56.732281,255
2021-09-22 20:01:56.732287,279
2021-09-22 20:01:56.732293,306
2021-09-22 20:01:56.732298,333
2021-09-22 20:01:56.732304,362
2021-09-22 20:01:56.732310,394
2021-09-22 20:01:56.732316,428
2021-09-22 20:01:56.732322,455
2021-09-22 20:01:56.867121,476
2021-09-22 20:01:56.867137,481
2021-09-22 20:01:56.867144,474
2021-09-22 20:01:56.867150,452
2021-09-22 20:01:56.867156,416
2021-09-22 20:01:56.867162,352
2021-09-22 20:01:56.867168,260
2021-09-22 20:01:56.867174,145
2021-09-22 20:01:56.867180,26
2021-09-22 20:01:56.867186,-65
2021-09-22 20:01:56.867192,-138
2021-09-22 20:01:56.867198,-189
2021-09-22 20:01:56.867204,-226
2021-09-22 20:01:56.867209,-248
2021-09-22 20:01:56.867215,-262
2021-09-22 20:01:56.867221,-267
2021-09-22 20:01:56.867227,-260
2021-09-22 20:01:56.867233,-243
2021-09-22 20:01:56.867238,-228
2021-09-22 20:01:56.867244,-216
2021-09-22 20:01:56.867250,-201
2021-09-22 20:01:56.867256,-184
2021-09-22 20:01:56.867262,-167
2021-09-22 20:01:56.867267,-150
2021-09-22 20:01:56.867273,-141
2021-09-22 20:01:56.867279,-138
2021-09-22 20:01:56.867285,-143
2021-09-22 20:01:56.867291,-138
2021-09-22 20:01:56.867297,-126
2021-09-22 20:01:56.867303,-119
2021-09-22 20:01:57.092109,-119
2021-09-22 20:01:57.092125,-119
2021-09-22 20:01:57.092132,-116
2021-09-22 20:01:57.092138,-116
2021-09-22 20:01:57.092144,-111
2021-09-22 20:01:57.092149,-111
2021-09-22 20:01:57.092155,-121
2021-09-22 20:01:57.092161,-128
2021-09-22 20:01:57.092167,-121
2021-09-22 20:01:57.092173,-116
2021-09-22 20:01:57.092179,-114
2021-09-22 20:01:57.092189,-109
2021-09-22 20:01:57.092195,-109
2021-09-22 20:01:57.092201,-111
2021-09-22 20:01:57.092207,-104
2021-09-22 20:01:57.092213,-102
2021-09-22 20:01:57.092219,-104
2021-09-22 20:01:57.092224,-109
2021-09-22 20:01:57.092230,-109
2021-09-22 20:01:57.092236,-109
2021-09-22 20:01:57.092242,-107
2021-09-22 20:01:57.092248,-102
2021-09-22 20:01:57.092254,-97
2021-09-22 20:01:57.092260,-92
2021-09-22 20:01:57.092265,-90
2021-09-22 20:01:57.092271,-87
2021-09-22 20:01:57.092277,-82
2021-09-22 20:01:57.092283,-80
2021-09-22 20:01:57.092288,-75
2021-09-22 20:01:57.092294,-70
2021-09-22 20:01:57.361031,-68
2021-09-22 20:01:57.361048,-65
2021-09-22 20:01:57.361056,-63
2021-09-22 20:01:57.361062,-60
2021-09-22 20:01:57.361068,-55
2021-09-22 20:01:57.361074,-53
2021-09-22 20:01:57.361080,-63
2021-09-22 20:01:57.361085,-68
2021-09-22 20:01:57.361091,-55
2021-09-22 20:01:57.361097,-38
2021-09-22 20:01:57.361103,-19
2021-09-22 20:01:57.361109,-14
2021-09-22 20:01:57.361115,-21
2021-09-22 20:01:57.361121,-14
2021-09-22 20:01:57.361126,-9
2021-09-22 20:01:57.361132,-26
2021-09-22 20:01:57.361138,-41
2021-09-22 20:01:57.361144,-43
2021-09-22 20:01:57.361150,-46
2021-09-22 20:01:57.361156,-48
2021-09-22 20:01:57.361162,-48
2021-09-22 20:01:57.361167,-43
2021-09-22 20:01:57.361173,-41
2021-09-22 20:01:57.361179,-38
2021-09-22 20:01:57.361185,-36
2021-09-22 20:01:57.361191,-17
2021-09-22 20:01:57.361197,36
2021-09-22 20:01:57.361203,153
2021-09-22 20:01:57.361209,367
2021-09-22 20:01:57.361214,596
2021-09-22 20:01:57.542108,493
2021-09-22 20:01:57.542126,0
2021-09-22 20:01:57.542133,-523
2021-09-22 20:01:57.542139,-734
2021-09-22 20:01:57.542145,-481
2021-09-22 20:01:57.542151,-124
2021-09-22 20:01:57.542157,-38
2021-09-22 20:01:57.542164,-2
2021-09-22 20:01:57.542170,107
2021-09-22 20:01:57.542181,128
2021-09-22 20:01:57.542187,109
2021-09-22 20:01:57.542193,131
2021-09-22 20:01:57.542199,150
2021-09-22 20:01:57.542205,150
2021-09-22 20:01:57.542211,165
2021-09-22 20:01:57.542217,180
2021-09-22 20:01:57.542223,187
2021-09-22 20:01:57.542229,197
2021-09-22 20:01:57.542235,214
2021-09-22 20:01:57.542241,231
2021-09-22 20:01:57.542247,248
2021-09-22 20:01:57.542253,262
2021-09-22 20:01:57.542258,279
2021-09-22 20:01:57.542264,306
2021-09-22 20:01:57.542270,338
2021-09-22 20:01:57.542275,372
2021-09-22 20:01:57.542281,403
2021-09-22 20:01:57.542287,433
2021-09-22 20:01:57.542293,457
2021-09-22 20:01:57.542298,472
2021-09-22 20:01:57.767167,474
2021-09-22 20:01:57.767184,467
2021-09-22 20:01:57.767191,440
2021-09-22 20:01:57.767197,389
2021-09-22 20:01:57.767203,309
2021-09-22 20:01:57.767209,206
2021-09-22 20:01:57.767215,99
2021-09-22 20:01:57.767221,2
2021-09-22 20:01:57.767227,-87
2021-09-22 20:01:57.767233,-163
2021-09-22 20:01:57.767239,-211
2021-09-22 20:01:57.767245,-243
2021-09-22 20:01:57.767250,-257
2021-09-22 20:01:57.767256,-255
2021-09-22 20:01:57.767262,-250
2021-09-22 20:01:57.767268,-243
2021-09-22 20:01:57.767274,-233
2021-09-22 20:01:57.767280,-218
2021-09-22 20:01:57.767286,-199
2021-09-22 20:01:57.767292,-180
2021-09-22 20:01:57.767298,-165
2021-09-22 20:01:57.767303,-150
2021-09-22 20:01:57.767309,-136
2021-09-22 20:01:57.767315,-126
2021-09-22 20:01:57.767321,-116
2021-09-22 20:01:57.767326,-107
2021-09-22 20:01:57.767332,-102
2021-09-22 20:01:57.767338,-109
2021-09-22 20:01:57.767344,-109
2021-09-22 20:01:57.767350,-104
2021-09-22 20:01:57.992095,-102
2021-09-22 20:01:57.992112,-102
2021-09-22 20:01:57.992119,-99
2021-09-22 20:01:57.992125,-104
2021-09-22 20:01:57.992131,-111
2021-09-22 20:01:57.992136,-109
2021-09-22 20:01:57.992142,-104
2021-09-22 20:01:57.992148,-107
2021-09-22 20:01:57.992154,-119
2021-09-22 20:01:57.992159,-133
2021-09-22 20:01:57.992165,-136
2021-09-22 20:01:57.992171,-126
2021-09-22 20:01:57.992177,-124
2021-09-22 20:01:57.992182,-116
2021-09-22 20:01:57.992188,-111
2021-09-22 20:01:57.992194,-111
2021-09-22 20:01:57.992200,-109
2021-09-22 20:01:57.992205,-102
2021-09-22 20:01:57.992211,-92
2021-09-22 20:01:57.992217,-87
2021-09-22 20:01:57.992223,-85
2021-09-22 20:01:57.992228,-82
2021-09-22 20:01:57.992234,-80
2021-09-22 20:01:57.992240,-75
2021-09-22 20:01:57.992246,-70
2021-09-22 20:01:57.992251,-68
2021-09-22 20:01:57.992257,-70
2021-09-22 20:01:57.992263,-70
2021-09-22 20:01:57.992269,-68
2021-09-22 20:01:57.992275,-60
2021-09-22 20:01:58.307203,-53
2021-09-22 20:01:58.307221,-46
2021-09-22 20:01:58.307228,-46
2021-09-22 20:01:58.307234,-55
2021-09-22 20:01:58.307240,-53
2021-09-22 20:01:58.307247,-38
2021-09-22 20:01:58.307253,-26
2021-09-22 20:01:58.307259,-12
2021-09-22 20:01:58.307271,-2
2021-09-22 20:01:58.307278,-9
2021-09-22 20:01:58.307283,-9
2021-09-22 20:01:58.307289,7
2021-09-22 20:01:58.307295,4
2021-09-22 20:01:58.307301,-12
2021-09-22 20:01:58.307307,-26
2021-09-22 20:01:58.307312,-34
2021-09-22 20:01:58.307318,-29
2021-09-22 20:01:58.307324,-19
2021-09-22 20:01:58.307330,-17
2021-09-22 20:01:58.307335,-14
2021-09-22 20:01:58.307341,-14
2021-09-22 20:01:58.307347,-14
2021-09-22 20:01:58.307353,-4
2021-09-22 20:01:58.307359,41
2021-09-22 20:01:58.307364,138
2021-09-22 20:01:58.307370,306
2021-09-22 20:01:58.307376,535
2021-09-22 20:01:58.307381,579
2021-09-22 20:01:58.307387,216
2021-09-22 20:01:58.307393,-316
2021-09-22 20:01:58.487056,-666
2021-09-22 20:01:58.487072,-583
2021-09-22 20:01:58.487079,-197
2021-09-22 20:01:58.487085,-7
2021-09-22 20:01:58.487091,-4
2021-09-22 20:01:58.487096,99
2021-09-22 20:01:58.487102,180
2021-09-22 20:01:58.487108,155
2021-09-22 20:01:58.487114,153
2021-09-22 20:01:58.487120,182
2021-09-22 20:01:58.487126,189
2021-09-22 20:01:58.487132,197
2021-09-22 20:01:58.487137,211
2021-09-22 20:01:58.487143,218
2021-09-22 20:01:58.487149,214
2021-09-22 20:01:58.487154,223
2021-09-22 20:01:58.487160,245
2021-09-22 20:01:58.487166,262
2021-09-22 20:01:58.487172,279
2021-09-22 20:01:58.487178,301
2021-09-22 20:01:58.487184,321
2021-09-22 20:01:58.487189,338
2021-09-22 20:01:58.487195,372
2021-09-22 20:01:58.487201,411
2021-09-22 20:01:58.487207,442
2021-09-22 20:01:58.487212,464
2021-09-22 20:01:58.487218,476
2021-09-22 20:01:58.487224,479
2021-09-22 20:01:58.487230,476
2021-09-22 20:01:58.487236,455
2021-09-22 20:01:58.712114,403
2021-09-22 20:01:58.712132,338
2021-09-22 20:01:58.712139,253
2021-09-22 20:01:58.712145,145
2021-09-22 20:01:58.712151,38
2021-09-22 20:01:58.712157,-48
2021-09-22 20:01:58.712163,-121
2021-09-22 20:01:58.712169,-180
2021-09-22 20:01:58.712175,-221
2021-09-22 20:01:58.712180,-238
2021-09-22 20:01:58.712186,-240
2021-09-22 20:01:58.712192,-233
2021-09-22 20:01:58.712198,-228
2021-09-22 20:01:58.712204,-221
2021-09-22 20:01:58.712209,-211
2021-09-22 20:01:58.712215,-199
2021-09-22 20:01:58.712221,-180
2021-09-22 20:01:58.712226,-165
2021-09-22 20:01:58.712232,-158
2021-09-22 20:01:58.712238,-150
2021-09-22 20:01:58.712244,-141
2021-09-22 20:01:58.712249,-131
2021-09-22 20:01:58.712255,-121
2021-09-22 20:01:58.712261,-114
2021-09-22 20:01:58.712267,-107
2021-09-22 20:01:58.712273,-107
2021-09-22 20:01:58.712279,-109
2021-09-22 20:01:58.712284,-109
2021-09-22 20:01:58.712290,-109
2021-09-22 20:01:58.712296,-109
2021-09-22 20:01:58.937325,-111
2021-09-22 20:01:58.937345,-119
2021-09-22 20:01:58.937352,-124
2021-09-22 20:01:58.937358,-121
2021-09-22 20:01:58.937364,-114
2021-09-22 20:01:58.937370,-109
2021-09-22 20:01:58.937376,-111
2021-09-22 20:01:58.937382,-116
2021-09-22 20:01:58.937388,-119
2021-09-22 20:01:58.937394,-109
2021-09-22 20:01:58.937400,-104
2021-09-22 20:01:58.937406,-99
2021-09-22 20:01:58.937412,-99
2021-09-22 20:01:58.937417,-104
2021-09-22 20:01:58.937423,-104
2021-09-22 20:01:58.937429,-94
2021-09-22 20:01:58.937435,-90
2021-09-22 20:01:58.937440,-85
2021-09-22 20:01:58.937446,-82
2021-09-22 20:01:58.937452,-82
2021-09-22 20:01:58.937458,-87
2021-09-22 20:01:58.937463,-90
2021-09-22 20:01:58.937469,-80
2021-09-22 20:01:58.937475,-72
2021-09-22 20:01:58.937480,-75
2021-09-22 20:01:58.937486,-75
2021-09-22 20:01:58.937492,-68
2021-09-22 20:01:58.937498,-65
2021-09-22 20:01:58.937503,-63
2021-09-22 20:01:58.937509,-58
2021-09-22 20:01:59.207209,-53
2021-09-22 20:01:59.207226,-38
2021-09-22 20:01:59.207233,-19
2021-09-22 20:01:59.207240,-19
2021-09-22 20:01:59.207246,-29
2021-09-22 20:01:59.207252,-21
2021-09-22 20:01:59.207258,-19
2021-09-22 20:01:59.207263,-41
2021-09-22 20:01:59.207269,-53
2021-09-22 20:01:59.207275,-58
2021-09-22 20:01:59.207281,-58
2021-09-22 20:01:59.207287,-58
2021-09-22 20:01:59.207293,-60
2021-09-22 20:01:59.207299,-60
2021-09-22 20:01:59.207304,-55
2021-09-22 20:01:59.207310,-53
2021-09-22 20:01:59.207316,-46
2021-09-22 20:01:59.207322,-12
2021-09-22 20:01:59.207328,65
2021-09-22 20:01:59.207334,206
2021-09-22 20:01:59.207340,420
2021-09-22 20:01:59.207345,537
2021-09-22 20:01:59.207351,260
2021-09-22 20:01:59.207357,-255
2021-09-22 20:01:59.207363,-639
2021-09-22 20:01:59.207369,-678
2021-09-22 20:01:59.207374,-347
2021-09-22 20:01:59.207381,-60
2021-09-22 20:01:59.207387,-34
2021-09-22 20:01:59.207392,26
2021-09-22 20:01:59.430873,133
2021-09-22 20:01:59.430891,138
2021-09-22 20:01:59.430898,124
2021-09-22 20:01:59.430904,153
2021-09-22 20:01:59.430910,167
2021-09-22 20:01:59.430916,165
2021-09-22 20:01:59.430922,175
2021-09-22 20:01:59.430928,187
2021-09-22 20:01:59.430934,194
2021-09-22 20:01:59.430939,204
2021-09-22 20:01:59.430945,218
2021-09-22 20:01:59.430951,231
2021-09-22 20:01:59.430957,243
2021-09-22 20:01:59.430963,267
2021-09-22 20:01:59.430969,294
2021-09-22 20:01:59.430975,321
2021-09-22 20:01:59.430980,350
2021-09-22 20:01:59.430986,377
2021-09-22 20:01:59.430992,403
2021-09-22 20:01:59.430997,435
2021-09-22 20:01:59.431003,457
2021-09-22 20:01:59.431009,464
2021-09-22 20:01:59.431015,459
2021-09-22 20:01:59.431026,440
2021-09-22 20:01:59.431032,403
2021-09-22 20:01:59.431038,340
2021-09-22 20:01:59.431044,245
2021-09-22 20:01:59.431050,136
2021-09-22 20:01:59.431056,31
2021-09-22 20:01:59.431062,-63
2021-09-22 20:01:59.702175,-141
2021-09-22 20:01:59.702194,-197
2021-09-22 20:01:59.702201,-236
2021-09-22 20:01:59.702207,-260
2021-09-22 20:01:59.702213,-270
2021-09-22 20:01:59.702219,-277
2021-09-22 20:01:59.702225,-272
2021-09-22 20:01:59.702231,-265
2021-09-22 20:01:59.702236,-260
2021-09-22 20:01:59.702242,-253
2021-09-22 20:01:59.702248,-240
2021-09-22 20:01:59.702254,-228
2021-09-22 20:01:59.702260,-211
2021-09-22 20:01:59.702266,-194
2021-09-22 20:01:59.702271,-180
2021-09-22 20:01:59.702277,-170
2021-09-22 20:01:59.702283,-163
2021-09-22 20:01:59.702289,-155
2021-09-22 20:01:59.702294,-145
2021-09-22 20:01:59.702300,-141
2021-09-22 20:01:59.702306,-143
2021-09-22 20:01:59.702311,-148
2021-09-22 20:01:59.702317,-148
2021-09-22 20:01:59.702323,-150
2021-09-22 20:01:59.702328,-145
2021-09-22 20:01:59.702334,-141
2021-09-22 20:01:59.702340,-143
2021-09-22 20:01:59.702345,-145
2021-09-22 20:01:59.702351,-141
2021-09-22 20:01:59.702357,-136
2021-09-22 20:01:59.837181,-131
2021-09-22 20:01:59.837198,-128
2021-09-22 20:01:59.837205,-126
2021-09-22 20:01:59.837211,-126
2021-09-22 20:01:59.837217,-128
2021-09-22 20:01:59.837223,-124
2021-09-22 20:01:59.837228,-114
2021-09-22 20:01:59.837234,-109
2021-09-22 20:01:59.837240,-107
2021-09-22 20:01:59.837246,-107
2021-09-22 20:01:59.837252,-109
2021-09-22 20:01:59.837258,-102
2021-09-22 20:01:59.837264,-94
2021-09-22 20:01:59.837269,-90
2021-09-22 20:01:59.837275,-87
2021-09-22 20:01:59.837281,-90
2021-09-22 20:01:59.837287,-87
2021-09-22 20:01:59.837292,-82
2021-09-22 20:01:59.837298,-75
2021-09-22 20:01:59.837304,-75
2021-09-22 20:01:59.837309,-72
2021-09-22 20:01:59.837315,-75
2021-09-22 20:01:59.837321,-75
2021-09-22 20:01:59.837326,-70
2021-09-22 20:01:59.837332,-68
2021-09-22 20:01:59.837338,-65
2021-09-22 20:01:59.837344,-55
2021-09-22 20:01:59.837350,-38
2021-09-22 20:01:59.837355,-24
2021-09-22 20:01:59.837361,-21
2021-09-22 20:02:00.107315,-26
2021-09-22 20:02:00.107335,-24
2021-09-22 20:02:00.107342,-31
2021-09-22 20:02:00.107348,-55
2021-09-22 20:02:00.107354,-72
2021-09-22 20:02:00.107360,-77
2021-09-22 20:02:00.107365,-72
2021-09-22 20:02:00.107372,-65
2021-09-22 20:02:00.107377,-65
2021-09-22 20:02:00.107383,-72
2021-09-22 20:02:00.107389,-75
2021-09-22 20:02:00.107395,-70
2021-09-22 20:02:00.107401,-63
2021-09-22 20:02:00.107407,-26
2021-09-22 20:02:00.107412,70
2021-09-22 20:02:00.107418,236
2021-09-22 20:02:00.107424,472
2021-09-22 20:02:00.107430,525
2021-09-22 20:02:00.107436,148
2021-09-22 20:02:00.107441,-377
2021-09-22 20:02:00.107447,-698
2021-09-22 20:02:00.107453,-644
2021-09-22 20:02:00.107459,-277
2021-09-22 20:02:00.107465,-43
2021-09-22 20:02:00.107471,-26
2021-09-22 20:02:00.107476,53
2021-09-22 20:02:00.107482,131
2021-09-22 20:02:00.107488,111
2021-09-22 20:02:00.107493,116
2021-09-22 20:02:00.107499,153
2021-09-22 20:02:00.332195,158
2021-09-22 20:02:00.332211,160
2021-09-22 20:02:00.332218,175
2021-09-22 20:02:00.332224,182
2021-09-22 20:02:00.332230,189
2021-09-22 20:02:00.332237,206
2021-09-22 20:02:00.332243,221
2021-09-22 20:02:00.332248,236
2021-09-22 20:02:00.332254,248
2021-09-22 20:02:00.332260,262
2021-09-22 20:02:00.332266,291
2021-09-22 20:02:00.332272,326
2021-09-22 20:02:00.332278,355
2021-09-22 20:02:00.332283,386
2021-09-22 20:02:00.332289,408
2021-09-22 20:02:00.332295,428
2021-09-22 20:02:00.332301,455
2021-09-22 20:02:00.332307,469
2021-09-22 20:02:00.332312,464
2021-09-22 20:02:00.332318,442
2021-09-22 20:02:00.332324,401
2021-09-22 20:02:00.332330,333
2021-09-22 20:02:00.332336,240
2021-09-22 20:02:00.332342,133
2021-09-22 20:02:00.332348,21
2021-09-22 20:02:00.332354,-70
2021-09-22 20:02:00.332359,-148
2021-09-22 20:02:00.332366,-209
2021-09-22 20:02:00.332371,-243
2021-09-22 20:02:00.332377,-257
2021-09-22 20:02:00.557091,-262
2021-09-22 20:02:00.557106,-262
2021-09-22 20:02:00.557113,-262
2021-09-22 20:02:00.557119,-260
2021-09-22 20:02:00.557125,-250
2021-09-22 20:02:00.557131,-238
2021-09-22 20:02:00.557137,-228
2021-09-22 20:02:00.557143,-223
2021-09-22 20:02:00.557149,-216
2021-09-22 20:02:00.557155,-199
2021-09-22 20:02:00.557160,-182
2021-09-22 20:02:00.557166,-167
2021-09-22 20:02:00.557172,-158
2021-09-22 20:02:00.557178,-155
2021-09-22 20:02:00.557184,-158
2021-09-22 20:02:00.557189,-158
2021-09-22 20:02:00.557195,-158
2021-09-22 20:02:00.557201,-160
2021-09-22 20:02:00.557207,-163
2021-09-22 20:02:00.557213,-158
2021-09-22 20:02:00.557218,-155
2021-09-22 20:02:00.557224,-153
2021-09-22 20:02:00.557230,-153
2021-09-22 20:02:00.557236,-148
2021-09-22 20:02:00.557241,-143
2021-09-22 20:02:00.557247,-141
2021-09-22 20:02:00.557253,-136
2021-09-22 20:02:00.557259,-131
2021-09-22 20:02:00.557265,-126
2021-09-22 20:02:00.557270,-121
2021-09-22 20:02:00.827133,-114
2021-09-22 20:02:00.827150,-109
2021-09-22 20:02:00.827157,-107
2021-09-22 20:02:00.827163,-102
2021-09-22 20:02:00.827169,-97
2021-09-22 20:02:00.827175,-92
2021-09-22 20:02:00.827181,-90
2021-09-22 20:02:00.827187,-90
2021-09-22 20:02:00.827193,-87
2021-09-22 20:02:00.827198,-85
2021-09-22 20:02:00.827204,-77
2021-09-22 20:02:00.827210,-72
2021-09-22 20:02:00.827216,-75
2021-09-22 20:02:00.827222,-80
2021-09-22 20:02:00.827228,-75
2021-09-22 20:02:00.827233,-65
2021-09-22 20:02:00.827239,-58
2021-09-22 20:02:00.827245,-58
2021-09-22 20:02:00.827251,-65
2021-09-22 20:02:00.827257,-60
2021-09-22 20:02:00.827263,-51
2021-09-22 20:02:00.827269,-55
2021-09-22 20:02:00.827274,-55
2021-09-22 20:02:00.827280,-36
2021-09-22 20:02:00.827286,-17
2021-09-22 20:02:00.827292,-4
2021-09-22 20:02:00.827298,-4
2021-09-22 20:02:00.827304,-7
2021-09-22 20:02:00.827310,7
2021-09-22 20:02:00.827318,9
2021-09-22 20:02:01.007065,-12
2021-09-22 20:02:01.007081,-26
2021-09-22 20:02:01.007087,-26
2021-09-22 20:02:01.007094,-29
2021-09-22 20:02:01.007099,-24
2021-09-22 20:02:01.007105,-21
2021-09-22 20:02:01.007111,-29
2021-09-22 20:02:01.007117,-31
2021-09-22 20:02:01.007123,-24
2021-09-22 20:02:01.007129,-14
2021-09-22 20:02:01.007135,26
2021-09-22 20:02:01.007141,124
2021-09-22 20:02:01.007147,291
2021-09-22 20:02:01.007153,518
2021-09-22 20:02:01.007159,549
2021-09-22 20:02:01.007164,165
2021-09-22 20:02:01.007170,-352
2021-09-22 20:02:01.007176,-676
2021-09-22 20:02:01.007182,-605
2021-09-22 20:02:01.007187,-228
2021-09-22 20:02:01.007193,-26
2021-09-22 20:02:01.007199,-26
2021-09-22 20:02:01.007205,63
2021-09-22 20:02:01.007210,145
2021-09-22 20:02:01.007216,126
2021-09-22 20:02:01.007222,131
2021-09-22 20:02:01.007228,170
2021-09-22 20:02:01.007234,172
2021-09-22 20:02:01.007239,175
2021-09-22 20:02:01.007245,189
2021-09-22 20:02:01.322224,194
2021-09-22 20:02:01.322242,206
2021-09-22 20:02:01.322249,231
2021-09-22 20:02:01.322255,243
2021-09-22 20:02:01.322261,255
2021-09-22 20:02:01.322267,270
2021-09-22 20:02:01.322273,284
2021-09-22 20:02:01.322279,311
2021-09-22 20:02:01.322285,347
2021-09-22 20:02:01.322290,374
2021-09-22 20:02:01.322296,403
2021-09-22 20:02:01.322302,437
2021-09-22 20:02:01.322308,462
2021-09-22 20:02:01.322314,484
2021-09-22 20:02:01.322319,493
2021-09-22 20:02:01.322325,481
2021-09-22 20:02:01.322331,455
2021-09-22 20:02:01.322337,418
2021-09-22 20:02:01.322343,357
2021-09-22 20:02:01.322348,262
2021-09-22 20:02:01.322354,153
2021-09-22 20:02:01.322360,43
2021-09-22 20:02:01.322366,-53
2021-09-22 20:02:01.322372,-131
2021-09-22 20:02:01.322377,-182
2021-09-22 20:02:01.322383,-216
2021-09-22 20:02:01.322389,-233
2021-09-22 20:02:01.322394,-238
2021-09-22 20:02:01.322400,-238
2021-09-22 20:02:01.322406,-233
2021-09-22 20:02:01.500841,-221
2021-09-22 20:02:01.500857,-206
2021-09-22 20:02:01.500864,-197
2021-09-22 20:02:01.500870,-187
2021-09-22 20:02:01.500877,-170
2021-09-22 20:02:01.500882,-158
2021-09-22 20:02:01.500888,-143
2021-09-22 20:02:01.500894,-131
2021-09-22 20:02:01.500900,-121
2021-09-22 20:02:01.500906,-114
2021-09-22 20:02:01.500912,-111
2021-09-22 20:02:01.500918,-111
2021-09-22 20:02:01.500924,-109
2021-09-22 20:02:01.500930,-104
2021-09-22 20:02:01.500936,-109
2021-09-22 20:02:01.500941,-111
2021-09-22 20:02:01.500947,-119
2021-09-22 20:02:01.500953,-128
2021-09-22 20:02:01.500959,-131
2021-09-22 20:02:01.500965,-121
2021-09-22 20:02:01.500971,-116
2021-09-22 20:02:01.500976,-121
2021-09-22 20:02:01.500982,-121
2021-09-22 20:02:01.500988,-121
2021-09-22 20:02:01.500994,-124
2021-09-22 20:02:01.500999,-121
2021-09-22 20:02:01.501005,-111
2021-09-22 20:02:01.501011,-111
2021-09-22 20:02:01.501017,-114
2021-09-22 20:02:01.501023,-111
2021-09-22 20:02:01.682074,-97
2021-09-22 20:02:01.682091,-87
2021-09-22 20:02:01.682098,-87
2021-09-22 20:02:01.682104,-90
2021-09-22 20:02:01.682110,-92
2021-09-22 20:02:01.682116,-90
2021-09-22 20:02:01.682122,-80
2021-09-22 20:02:01.682128,-72
2021-09-22 20:02:01.682133,-68
2021-09-22 20:02:01.682139,-72
2021-09-22 20:02:01.682145,-80
2021-09-22 20:02:01.682151,-75
2021-09-22 20:02:01.682157,-65
2021-09-22 20:02:01.682163,-60
2021-09-22 20:02:01.682168,-58
2021-09-22 20:02:01.682174,-51
2021-09-22 20:02:01.682180,-34
2021-09-22 20:02:01.682185,-17
2021-09-22 20:02:01.682191,-14
2021-09-22 20:02:01.682197,-12
2021-09-22 20:02:01.682202,-2
2021-09-22 20:02:01.682208,-9
2021-09-22 20:02:01.682214,-26
2021-09-22 20:02:01.682220,-36
2021-09-22 20:02:01.682225,-38
2021-09-22 20:02:01.682231,-41
2021-09-22 20:02:01.682237,-43
2021-09-22 20:02:01.682243,-48
2021-09-22 20:02:01.682249,-48
2021-09-22 20:02:01.682254,-38
2021-09-22 20:02:01.952219,-34
2021-09-22 20:02:01.952237,-26
2021-09-22 20:02:01.952244,12
2021-09-22 20:02:01.952250,97
2021-09-22 20:02:01.952256,245
2021-09-22 20:02:01.952262,457
2021-09-22 20:02:01.952268,484
2021-09-22 20:02:01.952274,109
2021-09-22 20:02:01.952280,-377
2021-09-22 20:02:01.952285,-676
2021-09-22 20:02:01.952291,-625
2021-09-22 20:02:01.952297,-257
2021-09-22 20:02:01.952303,-34
2021-09-22 20:02:01.952309,-26
2021-09-22 20:02:01.952315,55
2021-09-22 20:02:01.952320,141
2021-09-22 20:02:01.952326,124
2021-09-22 20:02:01.952332,131
2021-09-22 20:02:01.952338,165
2021-09-22 20:02:01.952344,167
2021-09-22 20:02:01.952349,165
2021-09-22 20:02:01.952355,182
2021-09-22 20:02:01.952361,187
2021-09-22 20:02:01.952366,182
2021-09-22 20:02:01.952372,194
2021-09-22 20:02:01.952378,216
2021-09-22 20:02:01.952384,231
2021-09-22 20:02:01.952390,240
2021-09-22 20:02:01.952395,257
2021-09-22 20:02:01.952401,284
2021-09-22 20:02:02.177222,318
2021-09-22 20:02:02.177239,352
2021-09-22 20:02:02.177246,384
2021-09-22 20:02:02.177252,413
2021-09-22 20:02:02.177258,442
2021-09-22 20:02:02.177264,467
2021-09-22 20:02:02.177269,474
2021-09-22 20:02:02.177275,467
2021-09-22 20:02:02.177281,440
2021-09-22 20:02:02.177287,389
2021-09-22 20:02:02.177293,321
2021-09-22 20:02:02.177299,233
2021-09-22 20:02:02.177305,126
2021-09-22 20:02:02.177311,17
2021-09-22 20:02:02.177317,-82
2021-09-22 20:02:02.177322,-163
2021-09-22 20:02:02.177328,-209
2021-09-22 20:02:02.177334,-233
2021-09-22 20:02:02.177340,-253
2021-09-22 20:02:02.177346,-260
2021-09-22 20:02:02.177351,-257
2021-09-22 20:02:02.177357,-255
2021-09-22 20:02:02.177363,-245
2021-09-22 20:02:02.177369,-226
2021-09-22 20:02:02.177375,-211
2021-09-22 20:02:02.177380,-199
2021-09-22 20:02:02.177386,-187
2021-09-22 20:02:02.177392,-172
2021-09-22 20:02:02.177398,-158
2021-09-22 20:02:02.177403,-148
2021-09-22 20:02:02.402154,-143
2021-09-22 20:02:02.402170,-143
2021-09-22 20:02:02.402177,-133
2021-09-22 20:02:02.402184,-126
2021-09-22 20:02:02.402189,-119
2021-09-22 20:02:02.402195,-111
2021-09-22 20:02:02.402201,-109
2021-09-22 20:02:02.402208,-111
2021-09-22 20:02:02.402214,-121
2021-09-22 20:02:02.402219,-126
2021-09-22 20:02:02.402225,-124
2021-09-22 20:02:02.402231,-121
2021-09-22 20:02:02.402237,-126
2021-09-22 20:02:02.402243,-133
2021-09-22 20:02:02.402249,-141
2021-09-22 20:02:02.402255,-138
2021-09-22 20:02:02.402260,-126
2021-09-22 20:02:02.402266,-124
2021-09-22 20:02:02.402272,-121
2021-09-22 20:02:02.402278,-119
2021-09-22 20:02:02.402284,-114
2021-09-22 20:02:02.402290,-109
2021-09-22 20:02:02.402296,-104
2021-09-22 20:02:02.402301,-97
2021-09-22 20:02:02.402307,-94
2021-09-22 20:02:02.402313,-94
2021-09-22 20:02:02.402318,-94
2021-09-22 20:02:02.402324,-92
2021-09-22 20:02:02.402333,-99
2021-09-22 20:02:02.402339,-97
2021-09-22 20:02:02.627205,-87
2021-09-22 20:02:02.627223,-87
2021-09-22 20:02:02.627230,-92
2021-09-22 20:02:02.627236,-92
2021-09-22 20:02:02.627242,-82
2021-09-22 20:02:02.627248,-75
2021-09-22 20:02:02.627254,-75
2021-09-22 20:02:02.627260,-77
2021-09-22 20:02:02.627266,-77
2021-09-22 20:02:02.627272,-75
2021-09-22 20:02:02.627278,-68
2021-09-22 20:02:02.627284,-51
2021-09-22 20:02:02.627290,-31
2021-09-22 20:02:02.627296,-31
2021-09-22 20:02:02.627301,-41
2021-09-22 20:02:02.627307,-31
2021-09-22 20:02:02.627313,-19
2021-09-22 20:02:02.627319,-29
2021-09-22 20:02:02.627325,-46
2021-09-22 20:02:02.627330,-58
2021-09-22 20:02:02.627336,-63
2021-09-22 20:02:02.627342,-60
2021-09-22 20:02:02.627348,-51
2021-09-22 20:02:02.627354,-46
2021-09-22 20:02:02.627359,-46
2021-09-22 20:02:02.627365,-46
2021-09-22 20:02:02.627371,-38
2021-09-22 20:02:02.627377,-17
2021-09-22 20:02:02.627383,46
2021-09-22 20:02:02.627388,177
2021-09-22 20:02:02.897219,391
2021-09-22 20:02:02.897236,557
2021-09-22 20:02:02.897243,357
2021-09-22 20:02:02.897250,-136
2021-09-22 20:02:02.897256,-549
2021-09-22 20:02:02.897262,-695
2021-09-22 20:02:02.897267,-442
2021-09-22 20:02:02.897273,-97
2021-09-22 20:02:02.897279,-26
2021-09-22 20:02:02.897285,-2
2021-09-22 20:02:02.897291,107
2021-09-22 20:02:02.897297,131
2021-09-22 20:02:02.897302,107
2021-09-22 20:02:02.897308,131
2021-09-22 20:02:02.897314,155
2021-09-22 20:02:02.897320,155
2021-09-22 20:02:02.897325,163
2021-09-22 20:02:02.897331,177
2021-09-22 20:02:02.897337,187
2021-09-22 20:02:02.897343,197
2021-09-22 20:02:02.897348,211
2021-09-22 20:02:02.897354,223
2021-09-22 20:02:02.897360,245
2021-09-22 20:02:02.897366,274
2021-09-22 20:02:02.897371,296
2021-09-22 20:02:02.897377,321
2021-09-22 20:02:02.897383,352
2021-09-22 20:02:02.897388,384
2021-09-22 20:02:02.897394,418
2021-09-22 20:02:02.897400,452
2021-09-22 20:02:03.077193,476
2021-09-22 20:02:03.077210,489
2021-09-22 20:02:03.077217,491
2021-09-22 20:02:03.077223,479
2021-09-22 20:02:03.077229,442
2021-09-22 20:02:03.077235,379
2021-09-22 20:02:03.077241,294
2021-09-22 20:02:03.077247,189
2021-09-22 20:02:03.077253,70
2021-09-22 20:02:03.077259,-36
2021-09-22 20:02:03.077265,-116
2021-09-22 20:02:03.077271,-177
2021-09-22 20:02:03.077277,-223
2021-09-22 20:02:03.077283,-243
2021-09-22 20:02:03.077289,-250
2021-09-22 20:02:03.077295,-257
2021-09-22 20:02:03.077301,-253
2021-09-22 20:02:03.077307,-243
2021-09-22 20:02:03.077313,-240
2021-09-22 20:02:03.077319,-228
2021-09-22 20:02:03.077324,-201
2021-09-22 20:02:03.077330,-182
2021-09-22 20:02:03.077336,-172
2021-09-22 20:02:03.077342,-163
2021-09-22 20:02:03.077348,-143
2021-09-22 20:02:03.077354,-136
2021-09-22 20:02:03.077360,-128
2021-09-22 20:02:03.077365,-114
2021-09-22 20:02:03.077371,-109
2021-09-22 20:02:03.077377,-104
2021-09-22 20:02:03.347248,-94
2021-09-22 20:02:03.347265,-85
2021-09-22 20:02:03.347272,-80
2021-09-22 20:02:03.347278,-75
2021-09-22 20:02:03.347284,-85
2021-09-22 20:02:03.347290,-102
2021-09-22 20:02:03.347296,-102
2021-09-22 20:02:03.347302,-97
2021-09-22 20:02:03.347308,-107
2021-09-22 20:02:03.347314,-111
2021-09-22 20:02:03.347319,-102
2021-09-22 20:02:03.347325,-99
2021-09-22 20:02:03.347331,-109
2021-09-22 20:02:03.347337,-104
2021-09-22 20:02:03.347343,-92
2021-09-22 20:02:03.347349,-87
2021-09-22 20:02:03.347355,-77
2021-09-22 20:02:03.347360,-72
2021-09-22 20:02:03.347366,-68
2021-09-22 20:02:03.347372,-60
2021-09-22 20:02:03.347378,-58
2021-09-22 20:02:03.347384,-58
2021-09-22 20:02:03.347389,-53
2021-09-22 20:02:03.347395,-43
2021-09-22 20:02:03.347401,-41
2021-09-22 20:02:03.347407,-43
2021-09-22 20:02:03.347413,-41
2021-09-22 20:02:03.347418,-36
2021-09-22 20:02:03.347424,-31
2021-09-22 20:02:03.347430,-24
2021-09-22 20:02:03.570829,-19
2021-09-22 20:02:03.570847,-19
2021-09-22 20:02:03.570854,-19
2021-09-22 20:02:03.570860,-12
2021-09-22 20:02:03.570866,-12
2021-09-22 20:02:03.570872,-4
2021-09-22 20:02:03.570878,12
2021-09-22 20:02:03.570884,17
2021-09-22 20:02:03.570890,12
2021-09-22 20:02:03.570896,14
2021-09-22 20:02:03.570902,4
2021-09-22 20:02:03.570907,-14
2021-09-22 20:02:03.570913,-21
2021-09-22 20:02:03.570919,-26
2021-09-22 20:02:03.570924,-26
2021-09-22 20:02:03.570930,-24
2021-09-22 20:02:03.570936,-29
2021-09-22 20:02:03.570942,-29
2021-09-22 20:02:03.570948,-21
2021-09-22 20:02:03.570953,-14
2021-09-22 20:02:03.570959,-4
2021-09-22 20:02:03.570965,48
2021-09-22 20:02:03.570971,155
2021-09-22 20:02:03.570977,291
2021-09-22 20:02:03.570982,420
2021-09-22 20:02:03.570988,309
2021-09-22 20:02:03.570994,-111
2021-09-22 20:02:03.570999,-506
2021-09-22 20:02:03.571005,-656
2021-09-22 20:02:03.571011,-489
2021-09-22 20:02:03.752228,-141
2021-09-22 20:02:03.752244,2
2021-09-22 20:02:03.752251,14
2021-09-22 20:02:03.752258,104
2021-09-22 20:02:03.752263,158
2021-09-22 20:02:03.752269,138
2021-09-22 20:02:03.752275,150
2021-09-22 20:02:03.752281,180
2021-09-22 20:02:03.752287,180
2021-09-22 20:02:03.752293,175
2021-09-22 20:02:03.752299,175
2021-09-22 20:02:03.752304,192
2021-09-22 20:02:03.752310,204
2021-09-22 20:02:03.752316,201
2021-09-22 20:02:03.752322,209
2021-09-22 20:02:03.752327,226
2021-09-22 20:02:03.752333,243
2021-09-22 20:02:03.752339,262
2021-09-22 20:02:03.752344,287
2021-09-22 20:02:03.752350,316
2021-09-22 20:02:03.752356,347
2021-09-22 20:02:03.752361,372
2021-09-22 20:02:03.752367,399
2021-09-22 20:02:03.752373,428
2021-09-22 20:02:03.752379,440
2021-09-22 20:02:03.752384,442
2021-09-22 20:02:03.752390,440
2021-09-22 20:02:03.752396,413
2021-09-22 20:02:03.752401,362
2021-09-22 20:02:03.752407,296
2021-09-22 20:02:04.022219,218
2021-09-22 20:02:04.022236,124
2021-09-22 20:02:04.022243,24
2021-09-22 20:02:04.022249,-60
2021-09-22 20:02:04.022255,-121
2021-09-22 20:02:04.022261,-158
2021-09-22 20:02:04.022267,-182
2021-09-22 20:02:04.022273,-194
2021-09-22 20:02:04.022279,-204
2021-09-22 20:02:04.022285,-209
2021-09-22 20:02:04.022291,-201
2021-09-22 20:02:04.022297,-187
2021-09-22 20:02:04.022303,-170
2021-09-22 20:02:04.022308,-155
2021-09-22 20:02:04.022314,-148
2021-09-22 20:02:04.022320,-150
2021-09-22 20:02:04.022326,-143
2021-09-22 20:02:04.022332,-126
2021-09-22 20:02:04.022338,-109
2021-09-22 20:02:04.022343,-102
2021-09-22 20:02:04.022349,-107
2021-09-22 20:02:04.022355,-109
2021-09-22 20:02:04.022360,-99
2021-09-22 20:02:04.022366,-92
2021-09-22 20:02:04.022372,-90
2021-09-22 20:02:04.022378,-87
2021-09-22 20:02:04.022383,-87
2021-09-22 20:02:04.022389,-87
2021-09-22 20:02:04.022395,-85
2021-09-22 20:02:04.022401,-82
2021-09-22 20:02:04.247201,-85
2021-09-22 20:02:04.247219,-90
2021-09-22 20:02:04.247226,-94
2021-09-22 20:02:04.247232,-97
2021-09-22 20:02:04.247238,-94
2021-09-22 20:02:04.247244,-90
2021-09-22 20:02:04.247250,-85
2021-09-22 20:02:04.247256,-85
2021-09-22 20:02:04.247262,-92
2021-09-22 20:02:04.247268,-99
2021-09-22 20:02:04.247274,-92
2021-09-22 20:02:04.247279,-82
2021-09-22 20:02:04.247285,-82
2021-09-22 20:02:04.247291,-85
2021-09-22 20:02:04.247296,-85
2021-09-22 20:02:04.247302,-85
2021-09-22 20:02:04.247308,-85
2021-09-22 20:02:04.247314,-87
2021-09-22 20:02:04.247320,-80
2021-09-22 20:02:04.247325,-75
2021-09-22 20:02:04.247331,-80
2021-09-22 20:02:04.247337,-75
2021-09-22 20:02:04.247343,-53
2021-09-22 20:02:04.247351,-38
2021-09-22 20:02:04.247357,-43
2021-09-22 20:02:04.247363,-38
2021-09-22 20:02:04.247369,-29
2021-09-22 20:02:04.247375,-36
2021-09-22 20:02:04.247380,-51
2021-09-22 20:02:04.247386,-58
2021-09-22 20:02:04.472257,-63
2021-09-22 20:02:04.472275,-60
2021-09-22 20:02:04.472282,-58
2021-09-22 20:02:04.472288,-58
2021-09-22 20:02:04.472294,-55
2021-09-22 20:02:04.472300,-48
2021-09-22 20:02:04.472305,-41
2021-09-22 20:02:04.472311,-12
2021-09-22 20:02:04.472317,63
2021-09-22 20:02:04.472323,189
2021-09-22 20:02:04.472329,355
2021-09-22 20:02:04.472335,384
2021-09-22 20:02:04.472341,46
2021-09-22 20:02:04.472347,-408
2021-09-22 20:02:04.472352,-642
2021-09-22 20:02:04.472358,-625
2021-09-22 20:02:04.472364,-343
2021-09-22 20:02:04.472370,-77
2021-09-22 20:02:04.472376,-34
2021-09-22 20:02:04.472381,17
2021-09-22 20:02:04.472387,104
2021-09-22 20:02:04.472393,99
2021-09-22 20:02:04.472399,90
2021-09-22 20:02:04.472405,126
2021-09-22 20:02:04.472410,136
2021-09-22 20:02:04.472416,131
2021-09-22 20:02:04.472422,141
2021-09-22 20:02:04.472428,153
2021-09-22 20:02:04.472434,160
2021-09-22 20:02:04.472439,172
2021-09-22 20:02:04.697220,184
2021-09-22 20:02:04.697237,197
2021-09-22 20:02:04.697244,214
2021-09-22 20:02:04.697250,231
2021-09-22 20:02:04.697256,248
2021-09-22 20:02:04.697262,279
2021-09-22 20:02:04.697268,306
2021-09-22 20:02:04.697274,328
2021-09-22 20:02:04.697280,362
2021-09-22 20:02:04.697286,394
2021-09-22 20:02:04.697291,413
2021-09-22 20:02:04.697297,423
2021-09-22 20:02:04.697303,420
2021-09-22 20:02:04.697309,396
2021-09-22 20:02:04.697315,360
2021-09-22 20:02:04.697320,304
2021-09-22 20:02:04.697326,221
2021-09-22 20:02:04.697332,116
2021-09-22 20:02:04.697338,12
2021-09-22 20:02:04.697343,-75
2021-09-22 20:02:04.697349,-141
2021-09-22 20:02:04.697355,-197
2021-09-22 20:02:04.697360,-226
2021-09-22 20:02:04.697366,-236
2021-09-22 20:02:04.697372,-245
2021-09-22 20:02:04.697377,-248
2021-09-22 20:02:04.697383,-240
2021-09-22 20:02:04.697389,-233
2021-09-22 20:02:04.697395,-223
2021-09-22 20:02:04.697401,-214
2021-09-22 20:02:04.922178,-206
2021-09-22 20:02:04.922196,-194
2021-09-22 20:02:04.922203,-180
2021-09-22 20:02:04.922209,-170
2021-09-22 20:02:04.922215,-155
2021-09-22 20:02:04.922221,-141
2021-09-22 20:02:04.922227,-138
2021-09-22 20:02:04.922233,-133
2021-09-22 20:02:04.922239,-119
2021-09-22 20:02:04.922244,-114
2021-09-22 20:02:04.922250,-109
2021-09-22 20:02:04.922256,-104
2021-09-22 20:02:04.922262,-109
2021-09-22 20:02:04.922268,-107
2021-09-22 20:02:04.922274,-102
2021-09-22 20:02:04.922279,-102
2021-09-22 20:02:04.922285,-102
2021-09-22 20:02:04.922291,-107
2021-09-22 20:02:04.922297,-109
2021-09-22 20:02:04.922303,-102
2021-09-22 20:02:04.922309,-99
2021-09-22 20:02:04.922314,-99
2021-09-22 20:02:04.922320,-99
2021-09-22 20:02:04.922326,-107
2021-09-22 20:02:04.922332,-109
2021-09-22 20:02:04.922338,-104
2021-09-22 20:02:04.922343,-111
2021-09-22 20:02:04.922349,-114
2021-09-22 20:02:04.922355,-109
2021-09-22 20:02:04.922361,-109
2021-09-22 20:02:05.192288,-114
2021-09-22 20:02:05.192306,-111
2021-09-22 20:02:05.192313,-102
2021-09-22 20:02:05.192319,-99
2021-09-22 20:02:05.192325,-99
2021-09-22 20:02:05.192331,-102
2021-09-22 20:02:05.192337,-107
2021-09-22 20:02:05.192343,-102
2021-09-22 20:02:05.192348,-92
2021-09-22 20:02:05.192354,-80
2021-09-22 20:02:05.192360,-63
2021-09-22 20:02:05.192366,-60
2021-09-22 20:02:05.192372,-70
2021-09-22 20:02:05.192377,-55
2021-09-22 20:02:05.192383,-46
2021-09-22 20:02:05.192389,-60
2021-09-22 20:02:05.192395,-77
2021-09-22 20:02:05.192401,-87
2021-09-22 20:02:05.192407,-87
2021-09-22 20:02:05.192413,-77
2021-09-22 20:02:05.192418,-75
2021-09-22 20:02:05.192424,-75
2021-09-22 20:02:05.192430,-75
2021-09-22 20:02:05.192436,-72
2021-09-22 20:02:05.192441,-65
2021-09-22 20:02:05.192447,-31
2021-09-22 20:02:05.192453,48
2021-09-22 20:02:05.192459,194
2021-09-22 20:02:05.192465,386
2021-09-22 20:02:05.192470,403
2021-09-22 20:02:05.372377,51
2021-09-22 20:02:05.372392,-369
2021-09-22 20:02:05.372396,-615
2021-09-22 20:02:05.372400,-637
2021-09-22 20:02:05.372403,-333
2021-09-22 20:02:05.372406,-60
2021-09-22 20:02:05.372409,-34
2021-09-22 20:02:05.372412,31
2021-09-22 20:02:05.372416,124
2021-09-22 20:02:05.372419,111
2021-09-22 20:02:05.372422,99
2021-09-22 20:02:05.372425,128
2021-09-22 20:02:05.372428,138
2021-09-22 20:02:05.372431,143
2021-09-22 20:02:05.372434,155
2021-09-22 20:02:05.372437,160
2021-09-22 20:02:05.372440,163
2021-09-22 20:02:05.372444,172
2021-09-22 20:02:05.372447,189
2021-09-22 20:02:05.372450,204
2021-09-22 20:02:05.372453,221
2021-09-22 20:02:05.372456,240
2021-09-22 20:02:05.372460,262
2021-09-22 20:02:05.372463,291
2021-09-22 20:02:05.372466,328
2021-09-22 20:02:05.372469,364
2021-09-22 20:02:05.372472,391
2021-09-22 20:02:05.372475,416
2021-09-22 20:02:05.372478,435
2021-09-22 20:02:05.372481,450
2021-09-22 20:02:05.640923,450
2021-09-22 20:02:05.640941,420
2021-09-22 20:02:05.640949,374
2021-09-22 20:02:05.640955,309
2021-09-22 20:02:05.640961,209
2021-09-22 20:02:05.640967,92
2021-09-22 20:02:05.640973,-12
2021-09-22 20:02:05.640979,-99
2021-09-22 20:02:05.640985,-172
2021-09-22 20:02:05.640991,-228
2021-09-22 20:02:05.640997,-265
2021-09-22 20:02:05.641003,-277
2021-09-22 20:02:05.641009,-277
2021-09-22 20:02:05.641015,-277
2021-09-22 20:02:05.641021,-272
2021-09-22 20:02:05.641027,-267
2021-09-22 20:02:05.641033,-257
2021-09-22 20:02:05.641039,-240
2021-09-22 20:02:05.641045,-223
2021-09-22 20:02:05.641051,-211
2021-09-22 20:02:05.641057,-199
2021-09-22 20:02:05.641063,-189
2021-09-22 20:02:05.641068,-175
2021-09-22 20:02:05.641074,-160
2021-09-22 20:02:05.641080,-148
2021-09-22 20:02:05.641086,-138
2021-09-22 20:02:05.641092,-128
2021-09-22 20:02:05.641097,-126
2021-09-22 20:02:05.641103,-124
2021-09-22 20:02:05.641109,-121
2021-09-22 20:02:05.867267,-121
2021-09-22 20:02:05.867284,-119
2021-09-22 20:02:05.867292,-119
2021-09-22 20:02:05.867298,-131
2021-09-22 20:02:05.867305,-131
2021-09-22 20:02:05.867311,-121
2021-09-22 20:02:05.867317,-114
2021-09-22 20:02:05.867323,-114
2021-09-22 20:02:05.867329,-116
2021-09-22 20:02:05.867335,-126
2021-09-22 20:02:05.867341,-128
2021-09-22 20:02:05.867347,-119
2021-09-22 20:02:05.867353,-114
2021-09-22 20:02:05.867359,-109
2021-09-22 20:02:05.867365,-107
2021-09-22 20:02:05.867371,-107
2021-09-22 20:02:05.867377,-104
2021-09-22 20:02:05.867382,-97
2021-09-22 20:02:05.867388,-92
2021-09-22 20:02:05.867394,-92
2021-09-22 20:02:05.867400,-94
2021-09-22 20:02:05.867406,-97
2021-09-22 20:02:05.867411,-99
2021-09-22 20:02:05.867417,-94
2021-09-22 20:02:05.867423,-87
2021-09-22 20:02:05.867429,-85
2021-09-22 20:02:05.867434,-87
2021-09-22 20:02:05.867440,-87
2021-09-22 20:02:05.867446,-82
2021-09-22 20:02:05.867452,-77
2021-09-22 20:02:06.092391,-77
2021-09-22 20:02:06.092410,-77
2021-09-22 20:02:06.092417,-80
2021-09-22 20:02:06.092423,-77
2021-09-22 20:02:06.092430,-72
2021-09-22 20:02:06.092436,-68
2021-09-22 20:02:06.092442,-63
2021-09-22 20:02:06.092448,-55
2021-09-22 20:02:06.092454,-58
2021-09-22 20:02:06.092460,-65
2021-09-22 20:02:06.092466,-58
2021-09-22 20:02:06.092472,-41
2021-09-22 20:02:06.092478,-41
2021-09-22 20:02:06.092484,-58
2021-09-22 20:02:06.092490,-77
2021-09-22 20:02:06.092496,-90
2021-09-22 20:02:06.092502,-82
2021-09-22 20:02:06.092508,-70
2021-09-22 20:02:06.092514,-68
2021-09-22 20:02:06.092520,-68
2021-09-22 20:02:06.092526,-68
2021-09-22 20:02:06.092532,-65
2021-09-22 20:02:06.092537,-55
2021-09-22 20:02:06.092543,-19
2021-09-22 20:02:06.092549,63
2021-09-22 20:02:06.092555,218
2021-09-22 20:02:06.092561,440
2021-09-22 20:02:06.092567,484
2021-09-22 20:02:06.092573,136
2021-09-22 20:02:06.092579,-323
2021-09-22 20:02:06.362362,-622
2021-09-22 20:02:06.362382,-630
2021-09-22 20:02:06.362389,-294
2021-09-22 20:02:06.362395,-38
2021-09-22 20:02:06.362401,-26
2021-09-22 20:02:06.362407,41
2021-09-22 20:02:06.362413,126
2021-09-22 20:02:06.362419,107
2021-09-22 20:02:06.362425,102
2021-09-22 20:02:06.362431,136
2021-09-22 20:02:06.362437,148
2021-09-22 20:02:06.362443,148
2021-09-22 20:02:06.362449,163
2021-09-22 20:02:06.362455,170
2021-09-22 20:02:06.362461,170
2021-09-22 20:02:06.362467,184
2021-09-22 20:02:06.362473,201
2021-09-22 20:02:06.362482,218
2021-09-22 20:02:06.362488,236
2021-09-22 20:02:06.362494,255
2021-09-22 20:02:06.362500,277
2021-09-22 20:02:06.362506,306
2021-09-22 20:02:06.362512,340
2021-09-22 20:02:06.362518,374
2021-09-22 20:02:06.362524,411
2021-09-22 20:02:06.362530,440
2021-09-22 20:02:06.362536,462
2021-09-22 20:02:06.362542,472
2021-09-22 20:02:06.362548,469
2021-09-22 20:02:06.362554,455
2021-09-22 20:02:06.587369,418
2021-09-22 20:02:06.587388,355
2021-09-22 20:02:06.587395,265
2021-09-22 20:02:06.587401,158
2021-09-22 20:02:06.587407,46
2021-09-22 20:02:06.587413,-53
2021-09-22 20:02:06.587419,-141
2021-09-22 20:02:06.587425,-204
2021-09-22 20:02:06.587431,-238
2021-09-22 20:02:06.587437,-250
2021-09-22 20:02:06.587443,-257
2021-09-22 20:02:06.587449,-255
2021-09-22 20:02:06.587455,-253
2021-09-22 20:02:06.587461,-253
2021-09-22 20:02:06.587466,-240
2021-09-22 20:02:06.587472,-221
2021-09-22 20:02:06.587478,-204
2021-09-22 20:02:06.587484,-189
2021-09-22 20:02:06.587490,-177
2021-09-22 20:02:06.587496,-170
2021-09-22 20:02:06.587502,-155
2021-09-22 20:02:06.587508,-141
2021-09-22 20:02:06.587514,-128
2021-09-22 20:02:06.587519,-121
2021-09-22 20:02:06.587525,-114
2021-09-22 20:02:06.587531,-107
2021-09-22 20:02:06.587537,-104
2021-09-22 20:02:06.587542,-99
2021-09-22 20:02:06.587548,-97
2021-09-22 20:02:06.587554,-94
2021-09-22 20:02:06.767199,-97
2021-09-22 20:02:06.767217,-94
2021-09-22 20:02:06.767224,-92
2021-09-22 20:02:06.767230,-92
2021-09-22 20:02:06.767236,-94
2021-09-22 20:02:06.767242,-94
2021-09-22 20:02:06.767248,-92
2021-09-22 20:02:06.767254,-94
2021-09-22 20:02:06.767260,-94
2021-09-22 20:02:06.767266,-90
2021-09-22 20:02:06.767271,-82
2021-09-22 20:02:06.767277,-80
2021-09-22 20:02:06.767283,-85
2021-09-22 20:02:06.767289,-85
2021-09-22 20:02:06.767295,-77
2021-09-22 20:02:06.767301,-80
2021-09-22 20:02:06.767307,-80
2021-09-22 20:02:06.767313,-80
2021-09-22 20:02:06.767319,-87
2021-09-22 20:02:06.767325,-87
2021-09-22 20:02:06.767330,-82
2021-09-22 20:02:06.767336,-82
2021-09-22 20:02:06.767342,-80
2021-09-22 20:02:06.767348,-72
2021-09-22 20:02:06.767353,-72
2021-09-22 20:02:06.767359,-72
2021-09-22 20:02:06.767365,-68
2021-09-22 20:02:06.767371,-65
2021-09-22 20:02:06.767376,-63
2021-09-22 20:02:06.767382,-60
2021-09-22 20:02:07.081734,-60
2021-09-22 20:02:07.081752,-58
2021-09-22 20:02:07.081759,-53
2021-09-22 20:02:07.081766,-53
2021-09-22 20:02:07.081772,-53
2021-09-22 20:02:07.081778,-53
2021-09-22 20:02:07.081784,-55
2021-09-22 20:02:07.081790,-53
2021-09-22 20:02:07.081796,-48
2021-09-22 20:02:07.081801,-53
2021-09-22 20:02:07.081807,-48
2021-09-22 20:02:07.081813,-34
2021-09-22 20:02:07.081819,-21
2021-09-22 20:02:07.081825,-26
2021-09-22 20:02:07.081831,-24
2021-09-22 20:02:07.081837,-12
2021-09-22 20:02:07.081843,-17
2021-09-22 20:02:07.081849,-38
2021-09-22 20:02:07.081855,-55
2021-09-22 20:02:07.081861,-70
2021-09-22 20:02:07.081867,-68
2021-09-22 20:02:07.081873,-58
2021-09-22 20:02:07.081879,-58
2021-09-22 20:02:07.081885,-55
2021-09-22 20:02:07.081891,-51
2021-09-22 20:02:07.081897,-46
2021-09-22 20:02:07.081902,-34
2021-09-22 20:02:07.081908,0
2021-09-22 20:02:07.081914,85
2021-09-22 20:02:07.081920,248
2021-09-22 20:02:07.217292,489
2021-09-22 20:02:07.217309,542
2021-09-22 20:02:07.217317,182
2021-09-22 20:02:07.217323,-311
2021-09-22 20:02:07.217329,-637
2021-09-22 20:02:07.217335,-608
2021-09-22 20:02:07.217341,-250
2021-09-22 20:02:07.217347,-21
2021-09-22 20:02:07.217353,-14
2021-09-22 20:02:07.217359,60
2021-09-22 20:02:07.217365,138
2021-09-22 20:02:07.217370,119
2021-09-22 20:02:07.217376,119
2021-09-22 20:02:07.217382,155
2021-09-22 20:02:07.217388,163
2021-09-22 20:02:07.217394,160
2021-09-22 20:02:07.217400,170
2021-09-22 20:02:07.217406,175
2021-09-22 20:02:07.217411,184
2021-09-22 20:02:07.217417,201
2021-09-22 20:02:07.217423,216
2021-09-22 20:02:07.217429,228
2021-09-22 20:02:07.217435,245
2021-09-22 20:02:07.217441,265
2021-09-22 20:02:07.217447,291
2021-09-22 20:02:07.217453,321
2021-09-22 20:02:07.217458,352
2021-09-22 20:02:07.217464,382
2021-09-22 20:02:07.217470,411
2021-09-22 20:02:07.217476,437
2021-09-22 20:02:07.442236,459
2021-09-22 20:02:07.442253,469
2021-09-22 20:02:07.442260,467
2021-09-22 20:02:07.442266,445
2021-09-22 20:02:07.442272,403
2021-09-22 20:02:07.442278,343
2021-09-22 20:02:07.442284,262
2021-09-22 20:02:07.442290,160
2021-09-22 20:02:07.442296,51
2021-09-22 20:02:07.442302,-48
2021-09-22 20:02:07.442308,-131
2021-09-22 20:02:07.442314,-189
2021-09-22 20:02:07.442320,-223
2021-09-22 20:02:07.442326,-248
2021-09-22 20:02:07.442332,-262
2021-09-22 20:02:07.442338,-265
2021-09-22 20:02:07.442344,-257
2021-09-22 20:02:07.442350,-245
2021-09-22 20:02:07.442355,-226
2021-09-22 20:02:07.442361,-209
2021-09-22 20:02:07.442367,-194
2021-09-22 20:02:07.442373,-182
2021-09-22 20:02:07.442379,-167
2021-09-22 20:02:07.442385,-150
2021-09-22 20:02:07.442391,-145
2021-09-22 20:02:07.442396,-145
2021-09-22 20:02:07.442402,-133
2021-09-22 20:02:07.442408,-131
2021-09-22 20:02:07.442414,-133
2021-09-22 20:02:07.442420,-126
2021-09-22 20:02:07.755954,-116
2021-09-22 20:02:07.755973,-116
2021-09-22 20:02:07.755980,-119
2021-09-22 20:02:07.755986,-128
2021-09-22 20:02:07.755992,-131
2021-09-22 20:02:07.755998,-124
2021-09-22 20:02:07.756004,-119
2021-09-22 20:02:07.756010,-121
2021-09-22 20:02:07.756016,-126
2021-09-22 20:02:07.756022,-136
2021-09-22 20:02:07.756028,-138
2021-09-22 20:02:07.756034,-133
2021-09-22 20:02:07.756040,-128
2021-09-22 20:02:07.756045,-124
2021-09-22 20:02:07.756051,-121
2021-09-22 20:02:07.756057,-121
2021-09-22 20:02:07.756063,-121
2021-09-22 20:02:07.756068,-116
2021-09-22 20:02:07.756074,-107
2021-09-22 20:02:07.756080,-102
2021-09-22 20:02:07.756086,-102
2021-09-22 20:02:07.756092,-102
2021-09-22 20:02:07.756098,-94
2021-09-22 20:02:07.756104,-85
2021-09-22 20:02:07.756109,-80
2021-09-22 20:02:07.756115,-75
2021-09-22 20:02:07.756121,-72
2021-09-22 20:02:07.756127,-72
2021-09-22 20:02:07.756133,-70
2021-09-22 20:02:07.756138,-60
2021-09-22 20:02:08.027246,-55
2021-09-22 20:02:08.027264,-55
2021-09-22 20:02:08.027271,-53
2021-09-22 20:02:08.027277,-53
2021-09-22 20:02:08.027283,-51
2021-09-22 20:02:08.027289,-43
2021-09-22 20:02:08.027295,-38
2021-09-22 20:02:08.027301,-38
2021-09-22 20:02:08.027307,-41
2021-09-22 20:02:08.027313,-46
2021-09-22 20:02:08.027319,-38
2021-09-22 20:02:08.027324,-31
2021-09-22 20:02:08.027330,-29
2021-09-22 20:02:08.027336,-29
2021-09-22 20:02:08.027342,-26
2021-09-22 20:02:08.027348,-17
2021-09-22 20:02:08.027354,2
2021-09-22 20:02:08.027360,2
2021-09-22 20:02:08.027366,-9
2021-09-22 20:02:08.027372,2
2021-09-22 20:02:08.027378,4
2021-09-22 20:02:08.027384,-17
2021-09-22 20:02:08.027389,-29
2021-09-22 20:02:08.027395,-29
2021-09-22 20:02:08.027401,-31
2021-09-22 20:02:08.027407,-26
2021-09-22 20:02:08.027413,-26
2021-09-22 20:02:08.027418,-29
2021-09-22 20:02:08.027424,-29
2021-09-22 20:02:08.027430,-26
2021-09-22 20:02:08.162251,-31
2021-09-22 20:02:08.162268,-12
2021-09-22 20:02:08.162276,58
2021-09-22 20:02:08.162282,194
2021-09-22 20:02:08.162288,433
2021-09-22 20:02:08.162294,596
2021-09-22 20:02:08.162300,357
2021-09-22 20:02:08.162306,-153
2021-09-22 20:02:08.162312,-579
2021-09-22 20:02:08.162318,-666
2021-09-22 20:02:08.162324,-347
2021-09-22 20:02:08.162330,-51
2021-09-22 20:02:08.162336,-17
2021-09-22 20:02:08.162341,34
2021-09-22 20:02:08.162347,126
2021-09-22 20:02:08.162353,121
2021-09-22 20:02:08.162359,116
2021-09-22 20:02:08.162364,155
2021-09-22 20:02:08.162370,167
2021-09-22 20:02:08.162376,163
2021-09-22 20:02:08.162382,172
2021-09-22 20:02:08.162387,184
2021-09-22 20:02:08.162393,194
2021-09-22 20:02:08.162399,211
2021-09-22 20:02:08.162405,226
2021-09-22 20:02:08.162411,233
2021-09-22 20:02:08.162417,243
2021-09-22 20:02:08.162422,265
2021-09-22 20:02:08.162428,294
2021-09-22 20:02:08.162434,321
2021-09-22 20:02:08.387274,352
2021-09-22 20:02:08.387291,382
2021-09-22 20:02:08.387298,411
2021-09-22 20:02:08.387304,440
2021-09-22 20:02:08.387310,464
2021-09-22 20:02:08.387316,479
2021-09-22 20:02:08.387322,476
2021-09-22 20:02:08.387328,459
2021-09-22 20:02:08.387334,423
2021-09-22 20:02:08.387339,374
2021-09-22 20:02:08.387345,306
2021-09-22 20:02:08.387351,209
2021-09-22 20:02:08.387357,94
2021-09-22 20:02:08.387363,-14
2021-09-22 20:02:08.387369,-107
2021-09-22 20:02:08.387374,-172
2021-09-22 20:02:08.387380,-211
2021-09-22 20:02:08.387386,-233
2021-09-22 20:02:08.387392,-250
2021-09-22 20:02:08.387397,-255
2021-09-22 20:02:08.387403,-248
2021-09-22 20:02:08.387409,-240
2021-09-22 20:02:08.387415,-233
2021-09-22 20:02:08.387420,-218
2021-09-22 20:02:08.387426,-204
2021-09-22 20:02:08.387432,-194
2021-09-22 20:02:08.387438,-180
2021-09-22 20:02:08.387444,-167
2021-09-22 20:02:08.387449,-163
2021-09-22 20:02:08.387455,-145
2021-09-22 20:02:08.612266,-133
2021-09-22 20:02:08.612283,-131
2021-09-22 20:02:08.612290,-124
2021-09-22 20:02:08.612296,-121
2021-09-22 20:02:08.612302,-124
2021-09-22 20:02:08.612308,-131
2021-09-22 20:02:08.612314,-138
2021-09-22 20:02:08.612320,-141
2021-09-22 20:02:08.612326,-136
2021-09-22 20:02:08.612332,-133
2021-09-22 20:02:08.612337,-131
2021-09-22 20:02:08.612343,-124
2021-09-22 20:02:08.612349,-128
2021-09-22 20:02:08.612355,-133
2021-09-22 20:02:08.612364,-124
2021-09-22 20:02:08.612370,-114
2021-09-22 20:02:08.612376,-109
2021-09-22 20:02:08.612382,-104
2021-09-22 20:02:08.612388,-102
2021-09-22 20:02:08.612393,-97
2021-09-22 20:02:08.612399,-90
2021-09-22 20:02:08.612405,-85
2021-09-22 20:02:08.612411,-80
2021-09-22 20:02:08.612417,-77
2021-09-22 20:02:08.612422,-77
2021-09-22 20:02:08.612428,-75
2021-09-22 20:02:08.612434,-68
2021-09-22 20:02:08.612440,-65
2021-09-22 20:02:08.612445,-60
2021-09-22 20:02:08.612451,-55
2021-09-22 20:02:08.837479,-53
2021-09-22 20:02:08.837499,-48
2021-09-22 20:02:08.837506,-46
2021-09-22 20:02:08.837512,-46
2021-09-22 20:02:08.837518,-43
2021-09-22 20:02:08.837524,-43
2021-09-22 20:02:08.837530,-48
2021-09-22 20:02:08.837536,-41
2021-09-22 20:02:08.837542,-36
2021-09-22 20:02:08.837548,-34
2021-09-22 20:02:08.837553,-29
2021-09-22 20:02:08.837559,-31
2021-09-22 20:02:08.837565,-36
2021-09-22 20:02:08.837571,-29
2021-09-22 20:02:08.837577,-9
2021-09-22 20:02:08.837583,7
2021-09-22 20:02:08.837589,9
2021-09-22 20:02:08.837594,2
2021-09-22 20:02:08.837600,7
2021-09-22 20:02:08.837606,17
2021-09-22 20:02:08.837612,4
2021-09-22 20:02:08.837618,-14
2021-09-22 20:02:08.837624,-21
2021-09-22 20:02:08.837630,-24
2021-09-22 20:02:08.837636,-24
2021-09-22 20:02:08.837641,-21
2021-09-22 20:02:08.837647,-26
2021-09-22 20:02:08.837653,-31
2021-09-22 20:02:08.837659,-29
2021-09-22 20:02:08.837665,-24
2021-09-22 20:02:09.062439,0
2021-09-22 20:02:09.062458,72
2021-09-22 20:02:09.062465,204
2021-09-22 20:02:09.062471,411
2021-09-22 20:02:09.062478,557
2021-09-22 20:02:09.062483,333
2021-09-22 20:02:09.062489,-170
2021-09-22 20:02:09.062495,-586
2021-09-22 20:02:09.062502,-678
2021-09-22 20:02:09.062508,-386
2021-09-22 20:02:09.062514,-92
2021-09-22 20:02:09.062520,-43
2021-09-22 20:02:09.062526,14
2021-09-22 20:02:09.062532,119
2021-09-22 20:02:09.062537,126
2021-09-22 20:02:09.062543,114
2021-09-22 20:02:09.062549,143
2021-09-22 20:02:09.062555,158
2021-09-22 20:02:09.062561,158
2021-09-22 20:02:09.062567,177
2021-09-22 20:02:09.062573,189
2021-09-22 20:02:09.062579,194
2021-09-22 20:02:09.062585,206
2021-09-22 20:02:09.062591,223
2021-09-22 20:02:09.062597,240
2021-09-22 20:02:09.062603,260
2021-09-22 20:02:09.062609,279
2021-09-22 20:02:09.062615,296
2021-09-22 20:02:09.062621,318
2021-09-22 20:02:09.062627,347
2021-09-22 20:02:09.287366,382
2021-09-22 20:02:09.287384,408
2021-09-22 20:02:09.287392,430
2021-09-22 20:02:09.287398,442
2021-09-22 20:02:09.287404,447
2021-09-22 20:02:09.287410,442
2021-09-22 20:02:09.287416,430
2021-09-22 20:02:09.287422,401
2021-09-22 20:02:09.287428,347
2021-09-22 20:02:09.287434,265
2021-09-22 20:02:09.287441,160
2021-09-22 20:02:09.287446,53
2021-09-22 20:02:09.287452,-38
2021-09-22 20:02:09.287458,-119
2021-09-22 20:02:09.287464,-187
2021-09-22 20:02:09.287470,-233
2021-09-22 20:02:09.287476,-262
2021-09-22 20:02:09.287482,-270
2021-09-22 20:02:09.287488,-270
2021-09-22 20:02:09.287494,-265
2021-09-22 20:02:09.287499,-253
2021-09-22 20:02:09.287505,-240
2021-09-22 20:02:09.287511,-228
2021-09-22 20:02:09.287517,-211
2021-09-22 20:02:09.287523,-192
2021-09-22 20:02:09.287528,-177
2021-09-22 20:02:09.287534,-165
2021-09-22 20:02:09.287540,-158
2021-09-22 20:02:09.287546,-148
2021-09-22 20:02:09.287552,-138
2021-09-22 20:02:09.557269,-133
2021-09-22 20:02:09.557286,-131
2021-09-22 20:02:09.557293,-126
2021-09-22 20:02:09.557300,-128
2021-09-22 20:02:09.557306,-133
2021-09-22 20:02:09.557312,-126
2021-09-22 20:02:09.557318,-119
2021-09-22 20:02:09.557324,-119
2021-09-22 20:02:09.557330,-124
2021-09-22 20:02:09.557335,-128
2021-09-22 20:02:09.557341,-128
2021-09-22 20:02:09.557347,-121
2021-09-22 20:02:09.557353,-114
2021-09-22 20:02:09.557358,-109
2021-09-22 20:02:09.557364,-104
2021-09-22 20:02:09.557370,-109
2021-09-22 20:02:09.557376,-116
2021-09-22 20:02:09.557382,-119
2021-09-22 20:02:09.557388,-109
2021-09-22 20:02:09.557394,-99
2021-09-22 20:02:09.557400,-99
2021-09-22 20:02:09.557405,-99
2021-09-22 20:02:09.557411,-94
2021-09-22 20:02:09.557417,-85
2021-09-22 20:02:09.557423,-77
2021-09-22 20:02:09.557429,-72
2021-09-22 20:02:09.557435,-72
2021-09-22 20:02:09.557441,-72
2021-09-22 20:02:09.557447,-68
2021-09-22 20:02:09.557452,-58
2021-09-22 20:02:09.825970,-55
2021-09-22 20:02:09.825988,-55
2021-09-22 20:02:09.825995,-60
2021-09-22 20:02:09.826002,-65
2021-09-22 20:02:09.826008,-60
2021-09-22 20:02:09.826014,-53
2021-09-22 20:02:09.826020,-51
2021-09-22 20:02:09.826026,-46
2021-09-22 20:02:09.826032,-48
2021-09-22 20:02:09.826038,-58
2021-09-22 20:02:09.826044,-60
2021-09-22 20:02:09.826050,-53
2021-09-22 20:02:09.826056,-41
2021-09-22 20:02:09.826061,-24
2021-09-22 20:02:09.826067,-14
2021-09-22 20:02:09.826073,-19
2021-09-22 20:02:09.826079,-17
2021-09-22 20:02:09.826085,-4
2021-09-22 20:02:09.826091,-14
2021-09-22 20:02:09.826097,-31
2021-09-22 20:02:09.826103,-41
2021-09-22 20:02:09.826108,-46
2021-09-22 20:02:09.826114,-41
2021-09-22 20:02:09.826120,-36
2021-09-22 20:02:09.826126,-34
2021-09-22 20:02:09.826131,-31
2021-09-22 20:02:09.826137,-31
2021-09-22 20:02:09.826143,-31
2021-09-22 20:02:09.826149,-14
2021-09-22 20:02:09.826155,36
2021-09-22 20:02:10.007276,143
2021-09-22 20:02:10.007293,335
2021-09-22 20:02:10.007300,554
2021-09-22 20:02:10.007307,474
2021-09-22 20:02:10.007313,7
2021-09-22 20:02:10.007319,-464
2021-09-22 20:02:10.007325,-686
2021-09-22 20:02:10.007331,-535
2021-09-22 20:02:10.007338,-175
2021-09-22 20:02:10.007343,-21
2021-09-22 20:02:10.007349,0
2021-09-22 20:02:10.007356,94
2021-09-22 20:02:10.007362,138
2021-09-22 20:02:10.007367,116
2021-09-22 20:02:10.007373,126
2021-09-22 20:02:10.007379,150
2021-09-22 20:02:10.007385,155
2021-09-22 20:02:10.007391,163
2021-09-22 20:02:10.007397,177
2021-09-22 20:02:10.007403,184
2021-09-22 20:02:10.007409,192
2021-09-22 20:02:10.007415,204
2021-09-22 20:02:10.007421,214
2021-09-22 20:02:10.007427,218
2021-09-22 20:02:10.007433,236
2021-09-22 20:02:10.007438,262
2021-09-22 20:02:10.007444,287
2021-09-22 20:02:10.007450,311
2021-09-22 20:02:10.007456,345
2021-09-22 20:02:10.007462,379
2021-09-22 20:02:10.232453,406
2021-09-22 20:02:10.232473,425
2021-09-22 20:02:10.232480,440
2021-09-22 20:02:10.232487,445
2021-09-22 20:02:10.232493,440
2021-09-22 20:02:10.232499,418
2021-09-22 20:02:10.232505,372
2021-09-22 20:02:10.232511,294
2021-09-22 20:02:10.232516,197
2021-09-22 20:02:10.232522,92
2021-09-22 20:02:10.232528,-17
2021-09-22 20:02:10.232534,-111
2021-09-22 20:02:10.232540,-187
2021-09-22 20:02:10.232546,-248
2021-09-22 20:02:10.232552,-289
2021-09-22 20:02:10.232558,-306
2021-09-22 20:02:10.232563,-309
2021-09-22 20:02:10.232569,-306
2021-09-22 20:02:10.232575,-299
2021-09-22 20:02:10.232581,-289
2021-09-22 20:02:10.232587,-277
2021-09-22 20:02:10.232593,-260
2021-09-22 20:02:10.232599,-240
2021-09-22 20:02:10.232605,-221
2021-09-22 20:02:10.232610,-206
2021-09-22 20:02:10.232616,-192
2021-09-22 20:02:10.232622,-180
2021-09-22 20:02:10.232628,-167
2021-09-22 20:02:10.232634,-158
2021-09-22 20:02:10.232640,-148
2021-09-22 20:02:10.457291,-143
2021-09-22 20:02:10.457308,-141
2021-09-22 20:02:10.457315,-136
2021-09-22 20:02:10.457321,-131
2021-09-22 20:02:10.457327,-128
2021-09-22 20:02:10.457333,-126
2021-09-22 20:02:10.457339,-131
2021-09-22 20:02:10.457345,-138
2021-09-22 20:02:10.457351,-145
2021-09-22 20:02:10.457357,-143
2021-09-22 20:02:10.457363,-138
2021-09-22 20:02:10.457368,-133
2021-09-22 20:02:10.457374,-133
2021-09-22 20:02:10.457380,-133
2021-09-22 20:02:10.457386,-126
2021-09-22 20:02:10.457392,-119
2021-09-22 20:02:10.457398,-114
2021-09-22 20:02:10.457404,-109
2021-09-22 20:02:10.457410,-107
2021-09-22 20:02:10.457415,-102
2021-09-22 20:02:10.457421,-94
2021-09-22 20:02:10.457427,-92
2021-09-22 20:02:10.457433,-90
2021-09-22 20:02:10.457439,-85
2021-09-22 20:02:10.457444,-82
2021-09-22 20:02:10.457450,-77
2021-09-22 20:02:10.457456,-72
2021-09-22 20:02:10.457462,-72
2021-09-22 20:02:10.457467,-77
2021-09-22 20:02:10.457473,-82
2021-09-22 20:02:10.682356,-77
2021-09-22 20:02:10.682375,-70
2021-09-22 20:02:10.682382,-68
2021-09-22 20:02:10.682388,-65
2021-09-22 20:02:10.682394,-60
2021-09-22 20:02:10.682400,-60
2021-09-22 20:02:10.682406,-65
2021-09-22 20:02:10.682412,-65
2021-09-22 20:02:10.682418,-63
2021-09-22 20:02:10.682424,-63
2021-09-22 20:02:10.682430,-58
2021-09-22 20:02:10.682436,-43
2021-09-22 20:02:10.682441,-34
2021-09-22 20:02:10.682447,-31
2021-09-22 20:02:10.682453,-26
2021-09-22 20:02:10.682459,-19
2021-09-22 20:02:10.682465,-29
2021-09-22 20:02:10.682471,-46
2021-09-22 20:02:10.682477,-51
2021-09-22 20:02:10.682483,-46
2021-09-22 20:02:10.682489,-43
2021-09-22 20:02:10.682495,-46
2021-09-22 20:02:10.682500,-43
2021-09-22 20:02:10.682506,-38
2021-09-22 20:02:10.682512,-36
2021-09-22 20:02:10.682518,-29
2021-09-22 20:02:10.682523,-14
2021-09-22 20:02:10.682530,34
2021-09-22 20:02:10.682536,141
2021-09-22 20:02:10.682541,335
2021-09-22 20:02:10.907368,566
2021-09-22 20:02:10.907385,523
2021-09-22 20:02:10.907392,70
2021-09-22 20:02:10.907399,-455
2021-09-22 20:02:10.907405,-705
2021-09-22 20:02:10.907411,-520
2021-09-22 20:02:10.907417,-155
2021-09-22 20:02:10.907423,-17
2021-09-22 20:02:10.907429,9
2021-09-22 20:02:10.907435,104
2021-09-22 20:02:10.907441,145
2021-09-22 20:02:10.907447,119
2021-09-22 20:02:10.907453,133
2021-09-22 20:02:10.907459,158
2021-09-22 20:02:10.907465,160
2021-09-22 20:02:10.907471,167
2021-09-22 20:02:10.907477,182
2021-09-22 20:02:10.907482,187
2021-09-22 20:02:10.907488,197
2021-09-22 20:02:10.907494,216
2021-09-22 20:02:10.907500,233
2021-09-22 20:02:10.907506,248
2021-09-22 20:02:10.907512,267
2021-09-22 20:02:10.907518,287
2021-09-22 20:02:10.907524,311
2021-09-22 20:02:10.907529,345
2021-09-22 20:02:10.907535,379
2021-09-22 20:02:10.907541,406
2021-09-22 20:02:10.907547,430
2021-09-22 20:02:10.907553,455
2021-09-22 20:02:11.132373,474
2021-09-22 20:02:11.132391,484
2021-09-22 20:02:11.132398,474
2021-09-22 20:02:11.132404,442
2021-09-22 20:02:11.132410,382
2021-09-22 20:02:11.132416,306
2021-09-22 20:02:11.132422,223
2021-09-22 20:02:11.132429,116
2021-09-22 20:02:11.132435,4
2021-09-22 20:02:11.132441,-87
2021-09-22 20:02:11.132447,-165
2021-09-22 20:02:11.132453,-223
2021-09-22 20:02:11.132459,-250
2021-09-22 20:02:11.132465,-265
2021-09-22 20:02:11.132471,-282
2021-09-22 20:02:11.132477,-289
2021-09-22 20:02:11.132483,-279
2021-09-22 20:02:11.132489,-267
2021-09-22 20:02:11.132495,-257
2021-09-22 20:02:11.132504,-240
2021-09-22 20:02:11.132510,-221
2021-09-22 20:02:11.132516,-206
2021-09-22 20:02:11.132521,-194
2021-09-22 20:02:11.132527,-182
2021-09-22 20:02:11.132533,-167
2021-09-22 20:02:11.132539,-153
2021-09-22 20:02:11.132545,-145
2021-09-22 20:02:11.132551,-143
2021-09-22 20:02:11.132556,-136
2021-09-22 20:02:11.132562,-128
2021-09-22 20:02:11.402363,-124
2021-09-22 20:02:11.402381,-121
2021-09-22 20:02:11.402388,-121
2021-09-22 20:02:11.402394,-131
2021-09-22 20:02:11.402400,-138
2021-09-22 20:02:11.402406,-128
2021-09-22 20:02:11.402412,-119
2021-09-22 20:02:11.402418,-116
2021-09-22 20:02:11.402424,-116
2021-09-22 20:02:11.402430,-116
2021-09-22 20:02:11.402436,-119
2021-09-22 20:02:11.402441,-109
2021-09-22 20:02:11.402447,-97
2021-09-22 20:02:11.402453,-92
2021-09-22 20:02:11.402459,-90
2021-09-22 20:02:11.402465,-87
2021-09-22 20:02:11.402470,-87
2021-09-22 20:02:11.402476,-90
2021-09-22 20:02:11.402482,-82
2021-09-22 20:02:11.402488,-72
2021-09-22 20:02:11.402494,-70
2021-09-22 20:02:11.402502,-75
2021-09-22 20:02:11.402509,-68
2021-09-22 20:02:11.402514,-53
2021-09-22 20:02:11.402520,-51
2021-09-22 20:02:11.402526,-51
2021-09-22 20:02:11.402532,-48
2021-09-22 20:02:11.402537,-46
2021-09-22 20:02:11.402543,-41
2021-09-22 20:02:11.402549,-38
2021-09-22 20:02:11.627461,-38
2021-09-22 20:02:11.627481,-34
2021-09-22 20:02:11.627488,-24
2021-09-22 20:02:11.627495,-17
2021-09-22 20:02:11.627501,-2
2021-09-22 20:02:11.627507,4
2021-09-22 20:02:11.627513,0
2021-09-22 20:02:11.627520,9
2021-09-22 20:02:11.627526,12
2021-09-22 20:02:11.627532,-17
2021-09-22 20:02:11.627538,-38
2021-09-22 20:02:11.627544,-34
2021-09-22 20:02:11.627550,-31
2021-09-22 20:02:11.627556,-31
2021-09-22 20:02:11.627562,-34
2021-09-22 20:02:11.627568,-36
2021-09-22 20:02:11.627574,-31
2021-09-22 20:02:11.627580,-26
2021-09-22 20:02:11.627586,-24
2021-09-22 20:02:11.627591,9
2021-09-22 20:02:11.627597,102
2021-09-22 20:02:11.627603,255
2021-09-22 20:02:11.627609,476
2021-09-22 20:02:11.627615,557
2021-09-22 20:02:11.627621,240
2021-09-22 20:02:11.627626,-289
2021-09-22 20:02:11.627632,-669
2021-09-22 20:02:11.627638,-627
2021-09-22 20:02:11.627644,-243
2021-09-22 20:02:11.627650,-19
2021-09-22 20:02:11.940997,-12
2021-09-22 20:02:11.941016,72
2021-09-22 20:02:11.941023,160
2021-09-22 20:02:11.941029,141
2021-09-22 20:02:11.941035,143
2021-09-22 20:02:11.941041,184
2021-09-22 20:02:11.941047,189
2021-09-22 20:02:11.941053,187
2021-09-22 20:02:11.941059,194
2021-09-22 20:02:11.941065,199
2021-09-22 20:02:11.941070,209
2021-09-22 20:02:11.941076,226
2021-09-22 20:02:11.941082,245
2021-09-22 20:02:11.941088,260
2021-09-22 20:02:11.941094,270
2021-09-22 20:02:11.941099,282
2021-09-22 20:02:11.941105,311
2021-09-22 20:02:11.941111,347
2021-09-22 20:02:11.941117,377
2021-09-22 20:02:11.941123,408
2021-09-22 20:02:11.941129,435
2021-09-22 20:02:11.941134,455
2021-09-22 20:02:11.941140,474
2021-09-22 20:02:11.941146,486
2021-09-22 20:02:11.941152,484
2021-09-22 20:02:11.941157,462
2021-09-22 20:02:11.941163,423
2021-09-22 20:02:11.941169,360
2021-09-22 20:02:11.941175,274
2021-09-22 20:02:11.941181,170
2021-09-22 20:02:12.077388,60
2021-09-22 20:02:12.077406,-34
2021-09-22 20:02:12.077413,-111
2021-09-22 20:02:12.077420,-167
2021-09-22 20:02:12.077426,-201
2021-09-22 20:02:12.077432,-216
2021-09-22 20:02:12.077438,-226
2021-09-22 20:02:12.077444,-236
2021-09-22 20:02:12.077450,-238
2021-09-22 20:02:12.077456,-226
2021-09-22 20:02:12.077461,-206
2021-09-22 20:02:12.077467,-192
2021-09-22 20:02:12.077473,-177
2021-09-22 20:02:12.077479,-160
2021-09-22 20:02:12.077485,-158
2021-09-22 20:02:12.077490,-158
2021-09-22 20:02:12.077496,-141
2021-09-22 20:02:12.077502,-124
2021-09-22 20:02:12.077508,-128
2021-09-22 20:02:12.077513,-138
2021-09-22 20:02:12.077519,-138
2021-09-22 20:02:12.077525,-133
2021-09-22 20:02:12.077531,-136
2021-09-22 20:02:12.077536,-138
2021-09-22 20:02:12.077542,-136
2021-09-22 20:02:12.077548,-136
2021-09-22 20:02:12.077554,-136
2021-09-22 20:02:12.077559,-128
2021-09-22 20:02:12.077565,-124
2021-09-22 20:02:12.077571,-124
2021-09-22 20:02:12.302354,-121
2021-09-22 20:02:12.302371,-121
2021-09-22 20:02:12.302379,-116
2021-09-22 20:02:12.302385,-109
2021-09-22 20:02:12.302391,-102
2021-09-22 20:02:12.302397,-99
2021-09-22 20:02:12.302403,-99
2021-09-22 20:02:12.302409,-102
2021-09-22 20:02:12.302415,-99
2021-09-22 20:02:12.302420,-94
2021-09-22 20:02:12.302426,-90
2021-09-22 20:02:12.302432,-82
2021-09-22 20:02:12.302438,-80
2021-09-22 20:02:12.302443,-85
2021-09-22 20:02:12.302449,-77
2021-09-22 20:02:12.302455,-70
2021-09-22 20:02:12.302461,-68
2021-09-22 20:02:12.302467,-63
2021-09-22 20:02:12.302473,-58
2021-09-22 20:02:12.302478,-58
2021-09-22 20:02:12.302484,-60
2021-09-22 20:02:12.302490,-48
2021-09-22 20:02:12.302496,-26
2021-09-22 20:02:12.302502,-9
2021-09-22 20:02:12.302508,-17
2021-09-22 20:02:12.302513,-19
2021-09-22 20:02:12.302519,-7
2021-09-22 20:02:12.302525,-12
2021-09-22 20:02:12.302530,-29
2021-09-22 20:02:12.302536,-41
2021-09-22 20:02:12.527300,-46
2021-09-22 20:02:12.527317,-46
2021-09-22 20:02:12.527324,-41
2021-09-22 20:02:12.527330,-36
2021-09-22 20:02:12.527337,-34
2021-09-22 20:02:12.527343,-34
2021-09-22 20:02:12.527349,-36
2021-09-22 20:02:12.527355,-19
2021-09-22 20:02:12.527361,46
2021-09-22 20:02:12.527367,158
2021-09-22 20:02:12.527373,343
2021-09-22 20:02:12.527379,523
2021-09-22 20:02:12.527384,389
2021-09-22 20:02:12.527390,-75
2021-09-22 20:02:12.527396,-523
2021-09-22 20:02:12.527402,-703
2021-09-22 20:02:12.527408,-469
2021-09-22 20:02:12.527414,-119
2021-09-22 20:02:12.527420,-29
2021-09-22 20:02:12.527426,-12
2021-09-22 20:02:12.527432,92
2021-09-22 20:02:12.527438,131
2021-09-22 20:02:12.527444,116
2021-09-22 20:02:12.527449,138
2021-09-22 20:02:12.527455,155
2021-09-22 20:02:12.527461,158
2021-09-22 20:02:12.527467,167
2021-09-22 20:02:12.527473,172
2021-09-22 20:02:12.527478,177
2021-09-22 20:02:12.527484,197
2021-09-22 20:02:12.752347,211
2021-09-22 20:02:12.752365,226
2021-09-22 20:02:12.752372,245
2021-09-22 20:02:12.752378,265
2021-09-22 20:02:12.752385,284
2021-09-22 20:02:12.752391,304
2021-09-22 20:02:12.752397,333
2021-09-22 20:02:12.752403,369
2021-09-22 20:02:12.752409,406
2021-09-22 20:02:12.752415,433
2021-09-22 20:02:12.752420,455
2021-09-22 20:02:12.752426,467
2021-09-22 20:02:12.752432,462
2021-09-22 20:02:12.752438,452
2021-09-22 20:02:12.752444,425
2021-09-22 20:02:12.752450,377
2021-09-22 20:02:12.752456,301
2021-09-22 20:02:12.752462,201
2021-09-22 20:02:12.752468,92
2021-09-22 20:02:12.752474,-4
2021-09-22 20:02:12.752480,-90
2021-09-22 20:02:12.752485,-158
2021-09-22 20:02:12.752491,-201
2021-09-22 20:02:12.752497,-226
2021-09-22 20:02:12.752503,-238
2021-09-22 20:02:12.752509,-238
2021-09-22 20:02:12.752514,-231
2021-09-22 20:02:12.752520,-223
2021-09-22 20:02:12.752526,-216
2021-09-22 20:02:12.752532,-209
2021-09-22 20:02:13.022364,-192
2021-09-22 20:02:13.022381,-172
2021-09-22 20:02:13.022388,-160
2021-09-22 20:02:13.022394,-150
2021-09-22 20:02:13.022400,-143
2021-09-22 20:02:13.022406,-136
2021-09-22 20:02:13.022413,-124
2021-09-22 20:02:13.022419,-116
2021-09-22 20:02:13.022425,-116
2021-09-22 20:02:13.022431,-116
2021-09-22 20:02:13.022437,-116
2021-09-22 20:02:13.022443,-121
2021-09-22 20:02:13.022449,-119
2021-09-22 20:02:13.022454,-111
2021-09-22 20:02:13.022460,-111
2021-09-22 20:02:13.022466,-114
2021-09-22 20:02:13.022472,-114
2021-09-22 20:02:13.022478,-116
2021-09-22 20:02:13.022484,-119
2021-09-22 20:02:13.022490,-119
2021-09-22 20:02:13.022496,-119
2021-09-22 20:02:13.022502,-121
2021-09-22 20:02:13.022508,-119
2021-09-22 20:02:13.022514,-116
2021-09-22 20:02:13.022519,-114
2021-09-22 20:02:13.022525,-119
2021-09-22 20:02:13.022531,-121
2021-09-22 20:02:13.022537,-116
2021-09-22 20:02:13.022543,-111
2021-09-22 20:02:13.022549,-107
2021-09-22 20:02:13.247321,-102
2021-09-22 20:02:13.247339,-102
2021-09-22 20:02:13.247346,-99
2021-09-22 20:02:13.247352,-99
2021-09-22 20:02:13.247358,-99
2021-09-22 20:02:13.247364,-94
2021-09-22 20:02:13.247370,-82
2021-09-22 20:02:13.247376,-75
2021-09-22 20:02:13.247382,-75
2021-09-22 20:02:13.247387,-77
2021-09-22 20:02:13.247393,-68
2021-09-22 20:02:13.247399,-46
2021-09-22 20:02:13.247405,-29
2021-09-22 20:02:13.247411,-26
2021-09-22 20:02:13.247416,-29
2021-09-22 20:02:13.247422,-24
2021-09-22 20:02:13.247428,-29
2021-09-22 20:02:13.247434,-43
2021-09-22 20:02:13.247440,-51
2021-09-22 20:02:13.247445,-58
2021-09-22 20:02:13.247451,-63
2021-09-22 20:02:13.247457,-60
2021-09-22 20:02:13.247463,-55
2021-09-22 20:02:13.247469,-51
2021-09-22 20:02:13.247474,-48
2021-09-22 20:02:13.247480,-43
2021-09-22 20:02:13.247486,-31
2021-09-22 20:02:13.247492,7
2021-09-22 20:02:13.247498,104
2021-09-22 20:02:13.247503,279
2021-09-22 20:02:13.472360,501
2021-09-22 20:02:13.472377,489
2021-09-22 20:02:13.472384,58
2021-09-22 20:02:13.472390,-445
2021-09-22 20:02:13.472396,-710
2021-09-22 20:02:13.472402,-613
2021-09-22 20:02:13.472408,-243
2021-09-22 20:02:13.472414,-34
2021-09-22 20:02:13.472420,-17
2021-09-22 20:02:13.472426,63
2021-09-22 20:02:13.472432,128
2021-09-22 20:02:13.472438,114
2021-09-22 20:02:13.472444,124
2021-09-22 20:02:13.472450,155
2021-09-22 20:02:13.472456,155
2021-09-22 20:02:13.472462,145
2021-09-22 20:02:13.472468,160
2021-09-22 20:02:13.472474,177
2021-09-22 20:02:13.472480,184
2021-09-22 20:02:13.472485,197
2021-09-22 20:02:13.472491,211
2021-09-22 20:02:13.472497,221
2021-09-22 20:02:13.472503,238
2021-09-22 20:02:13.472509,265
2021-09-22 20:02:13.472515,291
2021-09-22 20:02:13.472521,318
2021-09-22 20:02:13.472526,350
2021-09-22 20:02:13.472532,382
2021-09-22 20:02:13.472538,416
2021-09-22 20:02:13.472544,445
2021-09-22 20:02:13.697376,459
2021-09-22 20:02:13.697393,459
2021-09-22 20:02:13.697400,452
2021-09-22 20:02:13.697406,425
2021-09-22 20:02:13.697412,379
2021-09-22 20:02:13.697419,306
2021-09-22 20:02:13.697425,211
2021-09-22 20:02:13.697431,99
2021-09-22 20:02:13.697437,-17
2021-09-22 20:02:13.697443,-116
2021-09-22 20:02:13.697448,-180
2021-09-22 20:02:13.697454,-223
2021-09-22 20:02:13.697460,-255
2021-09-22 20:02:13.697466,-272
2021-09-22 20:02:13.697472,-284
2021-09-22 20:02:13.697477,-287
2021-09-22 20:02:13.697483,-274
2021-09-22 20:02:13.697489,-260
2021-09-22 20:02:13.697495,-250
2021-09-22 20:02:13.697500,-236
2021-09-22 20:02:13.697506,-223
2021-09-22 20:02:13.697512,-209
2021-09-22 20:02:13.697518,-192
2021-09-22 20:02:13.697524,-172
2021-09-22 20:02:13.697529,-160
2021-09-22 20:02:13.697535,-148
2021-09-22 20:02:13.697541,-141
2021-09-22 20:02:13.697547,-136
2021-09-22 20:02:13.697553,-124
2021-09-22 20:02:13.697558,-116
2021-09-22 20:02:14.010961,-109
2021-09-22 20:02:14.010979,-107
2021-09-22 20:02:14.010986,-109
2021-09-22 20:02:14.010992,-111
2021-09-22 20:02:14.010998,-109
2021-09-22 20:02:14.011005,-107
2021-09-22 20:02:14.011011,-114
2021-09-22 20:02:14.011017,-126
2021-09-22 20:02:14.011023,-136
2021-09-22 20:02:14.011029,-131
2021-09-22 20:02:14.011035,-124
2021-09-22 20:02:14.011041,-121
2021-09-22 20:02:14.011046,-116
2021-09-22 20:02:14.011052,-119
2021-09-22 20:02:14.011058,-121
2021-09-22 20:02:14.011064,-119
2021-09-22 20:02:14.011070,-114
2021-09-22 20:02:14.011076,-111
2021-09-22 20:02:14.011082,-109
2021-09-22 20:02:14.011088,-111
2021-09-22 20:02:14.011094,-111
2021-09-22 20:02:14.011100,-107
2021-09-22 20:02:14.011106,-102
2021-09-22 20:02:14.011111,-94
2021-09-22 20:02:14.011117,-90
2021-09-22 20:02:14.011123,-90
2021-09-22 20:02:14.011129,-87
2021-09-22 20:02:14.011134,-82
2021-09-22 20:02:14.011140,-80
2021-09-22 20:02:14.011146,-75
2021-09-22 20:02:14.147423,-72
2021-09-22 20:02:14.147441,-68
2021-09-22 20:02:14.147448,-63
2021-09-22 20:02:14.147454,-63
2021-09-22 20:02:14.147460,-60
2021-09-22 20:02:14.147469,-51
2021-09-22 20:02:14.147475,-38
2021-09-22 20:02:14.147481,-29
2021-09-22 20:02:14.147487,-34
2021-09-22 20:02:14.147493,-38
2021-09-22 20:02:14.147499,-31
2021-09-22 20:02:14.147505,-26
2021-09-22 20:02:14.147511,-46
2021-09-22 20:02:14.147517,-72
2021-09-22 20:02:14.147522,-80
2021-09-22 20:02:14.147528,-80
2021-09-22 20:02:14.147534,-70
2021-09-22 20:02:14.147540,-58
2021-09-22 20:02:14.147546,-58
2021-09-22 20:02:14.147552,-65
2021-09-22 20:02:14.147558,-58
2021-09-22 20:02:14.147563,-46
2021-09-22 20:02:14.147569,-9
2021-09-22 20:02:14.147575,80
2021-09-22 20:02:14.147581,243
2021-09-22 20:02:14.147587,484
2021-09-22 20:02:14.147593,562
2021-09-22 20:02:14.147599,216
2021-09-22 20:02:14.147605,-294
2021-09-22 20:02:14.147611,-635
2021-09-22 20:02:14.417748,-618
2021-09-22 20:02:14.417764,-257
2021-09-22 20:02:14.417771,-14
2021-09-22 20:02:14.417777,-9
2021-09-22 20:02:14.417783,65
2021-09-22 20:02:14.417789,158
2021-09-22 20:02:14.417795,138
2021-09-22 20:02:14.417801,128
2021-09-22 20:02:14.417807,165
2021-09-22 20:02:14.417813,175
2021-09-22 20:02:14.417819,170
2021-09-22 20:02:14.417825,182
2021-09-22 20:02:14.417831,187
2021-09-22 20:02:14.417836,192
2021-09-22 20:02:14.417842,209
2021-09-22 20:02:14.417848,226
2021-09-22 20:02:14.417854,245
2021-09-22 20:02:14.417860,265
2021-09-22 20:02:14.417865,287
2021-09-22 20:02:14.417871,311
2021-09-22 20:02:14.417877,343
2021-09-22 20:02:14.417883,374
2021-09-22 20:02:14.417889,408
2021-09-22 20:02:14.417894,445
2021-09-22 20:02:14.417900,469
2021-09-22 20:02:14.417906,489
2021-09-22 20:02:14.417912,501
2021-09-22 20:02:14.417917,501
2021-09-22 20:02:14.417923,481
2021-09-22 20:02:14.417929,440
2021-09-22 20:02:14.597409,374
2021-09-22 20:02:14.597427,289
2021-09-22 20:02:14.597434,182
2021-09-22 20:02:14.597440,68
2021-09-22 20:02:14.597447,-29
2021-09-22 20:02:14.597453,-111
2021-09-22 20:02:14.597459,-182
2021-09-22 20:02:14.597465,-231
2021-09-22 20:02:14.597470,-250
2021-09-22 20:02:14.597476,-253
2021-09-22 20:02:14.597482,-248
2021-09-22 20:02:14.597488,-248
2021-09-22 20:02:14.597494,-248
2021-09-22 20:02:14.597500,-248
2021-09-22 20:02:14.597506,-238
2021-09-22 20:02:14.597512,-221
2021-09-22 20:02:14.597518,-206
2021-09-22 20:02:14.597524,-199
2021-09-22 20:02:14.597530,-187
2021-09-22 20:02:14.597535,-167
2021-09-22 20:02:14.597541,-155
2021-09-22 20:02:14.597547,-148
2021-09-22 20:02:14.597553,-141
2021-09-22 20:02:14.597559,-131
2021-09-22 20:02:14.597564,-124
2021-09-22 20:02:14.597570,-119
2021-09-22 20:02:14.597576,-116
2021-09-22 20:02:14.597581,-114
2021-09-22 20:02:14.597587,-111
2021-09-22 20:02:14.597593,-109
2021-09-22 20:02:14.822354,-107
2021-09-22 20:02:14.822371,-102
2021-09-22 20:02:14.822378,-99
2021-09-22 20:02:14.822384,-107
2021-09-22 20:02:14.822390,-111
2021-09-22 20:02:14.822396,-114
2021-09-22 20:02:14.822402,-111
2021-09-22 20:02:14.822409,-104
2021-09-22 20:02:14.822415,-102
2021-09-22 20:02:14.822421,-99
2021-09-22 20:02:14.822426,-99
2021-09-22 20:02:14.822432,-102
2021-09-22 20:02:14.822438,-97
2021-09-22 20:02:14.822444,-90
2021-09-22 20:02:14.822450,-94
2021-09-22 20:02:14.822456,-107
2021-09-22 20:02:14.822461,-109
2021-09-22 20:02:14.822467,-104
2021-09-22 20:02:14.822473,-104
2021-09-22 20:02:14.822479,-99
2021-09-22 20:02:14.822484,-94
2021-09-22 20:02:14.822490,-92
2021-09-22 20:02:14.822496,-92
2021-09-22 20:02:14.822502,-87
2021-09-22 20:02:14.822507,-77
2021-09-22 20:02:14.822513,-70
2021-09-22 20:02:14.822519,-70
2021-09-22 20:02:14.822524,-70
2021-09-22 20:02:14.822530,-58
2021-09-22 20:02:14.822536,-38
2021-09-22 20:02:15.047385,-26
2021-09-22 20:02:15.047403,-26
2021-09-22 20:02:15.047409,-26
2021-09-22 20:02:15.047416,-19
2021-09-22 20:02:15.047422,-34
2021-09-22 20:02:15.047427,-55
2021-09-22 20:02:15.047433,-60
2021-09-22 20:02:15.047440,-63
2021-09-22 20:02:15.047446,-63
2021-09-22 20:02:15.047452,-63
2021-09-22 20:02:15.047458,-68
2021-09-22 20:02:15.047464,-68
2021-09-22 20:02:15.047469,-60
2021-09-22 20:02:15.047475,-55
2021-09-22 20:02:15.047481,-43
2021-09-22 20:02:15.047487,-7
2021-09-22 20:02:15.047493,87
2021-09-22 20:02:15.047499,257
2021-09-22 20:02:15.047505,474
2021-09-22 20:02:15.047511,472
2021-09-22 20:02:15.047517,55
2021-09-22 20:02:15.047522,-457
2021-09-22 20:02:15.047528,-737
2021-09-22 20:02:15.047534,-644
2021-09-22 20:02:15.047539,-272
2021-09-22 20:02:15.047545,-48
2021-09-22 20:02:15.047551,-26
2021-09-22 20:02:15.047557,55
2021-09-22 20:02:15.047563,124
2021-09-22 20:02:15.047568,109
2021-09-22 20:02:15.317437,119
2021-09-22 20:02:15.317455,150
2021-09-22 20:02:15.317462,153
2021-09-22 20:02:15.317468,148
2021-09-22 20:02:15.317474,158
2021-09-22 20:02:15.317480,172
2021-09-22 20:02:15.317486,182
2021-09-22 20:02:15.317492,197
2021-09-22 20:02:15.317498,209
2021-09-22 20:02:15.317504,218
2021-09-22 20:02:15.317509,231
2021-09-22 20:02:15.317515,260
2021-09-22 20:02:15.317521,289
2021-09-22 20:02:15.317527,316
2021-09-22 20:02:15.317533,345
2021-09-22 20:02:15.317538,374
2021-09-22 20:02:15.317544,408
2021-09-22 20:02:15.317551,440
2021-09-22 20:02:15.317556,459
2021-09-22 20:02:15.317562,462
2021-09-22 20:02:15.317568,450
2021-09-22 20:02:15.317574,425
2021-09-22 20:02:15.317580,386
2021-09-22 20:02:15.317585,323
2021-09-22 20:02:15.317591,231
2021-09-22 20:02:15.317597,119
2021-09-22 20:02:15.317603,12
2021-09-22 20:02:15.317609,-82
2021-09-22 20:02:15.317615,-155
2021-09-22 20:02:15.317621,-201
2021-09-22 20:02:15.542420,-233
2021-09-22 20:02:15.542439,-253
2021-09-22 20:02:15.542446,-262
2021-09-22 20:02:15.542453,-267
2021-09-22 20:02:15.542459,-260
2021-09-22 20:02:15.542465,-245
2021-09-22 20:02:15.542471,-231
2021-09-22 20:02:15.542477,-214
2021-09-22 20:02:15.542483,-206
2021-09-22 20:02:15.542488,-199
2021-09-22 20:02:15.542494,-180
2021-09-22 20:02:15.542500,-158
2021-09-22 20:02:15.542505,-145
2021-09-22 20:02:15.542511,-136
2021-09-22 20:02:15.542516,-133
2021-09-22 20:02:15.542522,-133
2021-09-22 20:02:15.542527,-124
2021-09-22 20:02:15.542533,-114
2021-09-22 20:02:15.542539,-111
2021-09-22 20:02:15.542544,-111
2021-09-22 20:02:15.542550,-114
2021-09-22 20:02:15.542556,-119
2021-09-22 20:02:15.542561,-124
2021-09-22 20:02:15.542567,-126
2021-09-22 20:02:15.542573,-131
2021-09-22 20:02:15.542579,-131
2021-09-22 20:02:15.542584,-133
2021-09-22 20:02:15.542590,-136
2021-09-22 20:02:15.542596,-131
2021-09-22 20:02:15.542602,-121
2021-09-22 20:02:15.812348,-119
2021-09-22 20:02:15.812366,-114
2021-09-22 20:02:15.812373,-111
2021-09-22 20:02:15.812380,-109
2021-09-22 20:02:15.812387,-104
2021-09-22 20:02:15.812393,-97
2021-09-22 20:02:15.812400,-97
2021-09-22 20:02:15.812406,-102
2021-09-22 20:02:15.812412,-107
2021-09-22 20:02:15.812418,-109
2021-09-22 20:02:15.812425,-107
2021-09-22 20:02:15.812431,-99
2021-09-22 20:02:15.812437,-97
2021-09-22 20:02:15.812443,-97
2021-09-22 20:02:15.812450,-102
2021-09-22 20:02:15.812456,-99
2021-09-22 20:02:15.812462,-92
2021-09-22 20:02:15.812469,-87
2021-09-22 20:02:15.812475,-82
2021-09-22 20:02:15.812481,-82
2021-09-22 20:02:15.812488,-80
2021-09-22 20:02:15.812494,-77
2021-09-22 20:02:15.812500,-75
2021-09-22 20:02:15.812507,-75
2021-09-22 20:02:15.812513,-77
2021-09-22 20:02:15.812519,-75
2021-09-22 20:02:15.812525,-70
2021-09-22 20:02:15.812532,-55
2021-09-22 20:02:15.812538,-34
2021-09-22 20:02:15.812544,-21
2021-09-22 20:02:16.036046,-26
2021-09-22 20:02:16.036063,-21
2021-09-22 20:02:16.036070,-14
2021-09-22 20:02:16.036076,-26
2021-09-22 20:02:16.036082,-43
2021-09-22 20:02:16.036088,-48
2021-09-22 20:02:16.036094,-55
2021-09-22 20:02:16.036100,-60
2021-09-22 20:02:16.036106,-58
2021-09-22 20:02:16.036112,-53
2021-09-22 20:02:16.036118,-51
2021-09-22 20:02:16.036124,-48
2021-09-22 20:02:16.036130,-41
2021-09-22 20:02:16.036136,-29
2021-09-22 20:02:16.036142,14
2021-09-22 20:02:16.036148,116
2021-09-22 20:02:16.036154,311
2021-09-22 20:02:16.036160,547
2021-09-22 20:02:16.036166,518
2021-09-22 20:02:16.036172,75
2021-09-22 20:02:16.036178,-445
2021-09-22 20:02:16.036184,-708
2021-09-22 20:02:16.036190,-542
2021-09-22 20:02:16.036195,-175
2021-09-22 20:02:16.036201,-24
2021-09-22 20:02:16.036207,-4
2021-09-22 20:02:16.036213,85
2021-09-22 20:02:16.036219,131
2021-09-22 20:02:16.036225,114
2021-09-22 20:02:16.036231,128
2021-09-22 20:02:16.217415,143
2021-09-22 20:02:16.217432,138
2021-09-22 20:02:16.217439,150
2021-09-22 20:02:16.217445,167
2021-09-22 20:02:16.217451,175
2021-09-22 20:02:16.217457,189
2021-09-22 20:02:16.217463,199
2021-09-22 20:02:16.217469,209
2021-09-22 20:02:16.217475,228
2021-09-22 20:02:16.217481,250
2021-09-22 20:02:16.217487,272
2021-09-22 20:02:16.217493,296
2021-09-22 20:02:16.217499,321
2021-09-22 20:02:16.217504,345
2021-09-22 20:02:16.217510,379
2021-09-22 20:02:16.217516,411
2021-09-22 20:02:16.217522,437
2021-09-22 20:02:16.217528,455
2021-09-22 20:02:16.217534,462
2021-09-22 20:02:16.217539,455
2021-09-22 20:02:16.217545,435
2021-09-22 20:02:16.217551,394
2021-09-22 20:02:16.217557,328
2021-09-22 20:02:16.217563,240
2021-09-22 20:02:16.217568,128
2021-09-22 20:02:16.217574,21
2021-09-22 20:02:16.217580,-68
2021-09-22 20:02:16.217586,-145
2021-09-22 20:02:16.217592,-201
2021-09-22 20:02:16.217598,-236
2021-09-22 20:02:16.487381,-253
2021-09-22 20:02:16.487399,-257
2021-09-22 20:02:16.487406,-253
2021-09-22 20:02:16.487412,-245
2021-09-22 20:02:16.487418,-236
2021-09-22 20:02:16.487424,-223
2021-09-22 20:02:16.487430,-214
2021-09-22 20:02:16.487436,-197
2021-09-22 20:02:16.487442,-177
2021-09-22 20:02:16.487448,-165
2021-09-22 20:02:16.487454,-153
2021-09-22 20:02:16.487460,-143
2021-09-22 20:02:16.487466,-141
2021-09-22 20:02:16.487472,-131
2021-09-22 20:02:16.487478,-124
2021-09-22 20:02:16.487484,-126
2021-09-22 20:02:16.487490,-124
2021-09-22 20:02:16.487495,-121
2021-09-22 20:02:16.487501,-121
2021-09-22 20:02:16.487507,-121
2021-09-22 20:02:16.487513,-116
2021-09-22 20:02:16.487519,-119
2021-09-22 20:02:16.487524,-119
2021-09-22 20:02:16.487530,-116
2021-09-22 20:02:16.487536,-116
2021-09-22 20:02:16.487542,-116
2021-09-22 20:02:16.487547,-119
2021-09-22 20:02:16.487553,-119
2021-09-22 20:02:16.487559,-119
2021-09-22 20:02:16.487565,-119
2021-09-22 20:02:16.667424,-116
2021-09-22 20:02:16.667441,-114
2021-09-22 20:02:16.667448,-109
2021-09-22 20:02:16.667454,-107
2021-09-22 20:02:16.667460,-104
2021-09-22 20:02:16.667466,-109
2021-09-22 20:02:16.667472,-111
2021-09-22 20:02:16.667478,-104
2021-09-22 20:02:16.667484,-97
2021-09-22 20:02:16.667490,-94
2021-09-22 20:02:16.667496,-94
2021-09-22 20:02:16.667502,-97
2021-09-22 20:02:16.667508,-94
2021-09-22 20:02:16.667514,-87
2021-09-22 20:02:16.667520,-82
2021-09-22 20:02:16.667526,-82
2021-09-22 20:02:16.667532,-82
2021-09-22 20:02:16.667537,-85
2021-09-22 20:02:16.667543,-80
2021-09-22 20:02:16.667549,-72
2021-09-22 20:02:16.667555,-70
2021-09-22 20:02:16.667561,-68
2021-09-22 20:02:16.667567,-63
2021-09-22 20:02:16.667572,-60
2021-09-22 20:02:16.667578,-58
2021-09-22 20:02:16.667584,-48
2021-09-22 20:02:16.667590,-31
2021-09-22 20:02:16.667596,-17
2021-09-22 20:02:16.667601,-12
2021-09-22 20:02:16.667607,-17
2021-09-22 20:02:17.026725,-7
2021-09-22 20:02:17.026743,-2
2021-09-22 20:02:17.026750,-24
2021-09-22 20:02:17.026756,-46
2021-09-22 20:02:17.026762,-58
2021-09-22 20:02:17.026768,-63
2021-09-22 20:02:17.026774,-55
2021-09-22 20:02:17.026781,-46
2021-09-22 20:02:17.026787,-48
2021-09-22 20:02:17.026793,-51
2021-09-22 20:02:17.026798,-53
2021-09-22 20:02:17.026804,-51
2021-09-22 20:02:17.026810,-34
2021-09-22 20:02:17.026816,21
2021-09-22 20:02:17.026822,131
2021-09-22 20:02:17.026828,328
2021-09-22 20:02:17.026834,562
2021-09-22 20:02:17.026840,503
2021-09-22 20:02:17.026846,41
2021-09-22 20:02:17.026852,-476
2021-09-22 20:02:17.026858,-710
2021-09-22 20:02:17.026863,-506
2021-09-22 20:02:17.026869,-145
2021-09-22 20:02:17.026875,-21
2021-09-22 20:02:17.026881,9
2021-09-22 20:02:17.026887,109
2021-09-22 20:02:17.026893,143
2021-09-22 20:02:17.026899,121
2021-09-22 20:02:17.026905,143
2021-09-22 20:02:17.026910,167
2021-09-22 20:02:17.162430,167
2021-09-22 20:02:17.162448,177
2021-09-22 20:02:17.162455,194
2021-09-22 20:02:17.162461,197
2021-09-22 20:02:17.162467,201
2021-09-22 20:02:17.162473,216
2021-09-22 20:02:17.162479,236
2021-09-22 20:02:17.162485,253
2021-09-22 20:02:17.162491,270
2021-09-22 20:02:17.162497,284
2021-09-22 20:02:17.162503,294
2021-09-22 20:02:17.162509,316
2021-09-22 20:02:17.162515,352
2021-09-22 20:02:17.162521,386
2021-09-22 20:02:17.162527,413
2021-09-22 20:02:17.162533,428
2021-09-22 20:02:17.162539,440
2021-09-22 20:02:17.162545,450
2021-09-22 20:02:17.162551,445
2021-09-22 20:02:17.162557,420
2021-09-22 20:02:17.162563,379
2021-09-22 20:02:17.162569,309
2021-09-22 20:02:17.162575,216
2021-09-22 20:02:17.162581,111
2021-09-22 20:02:17.162587,9
2021-09-22 20:02:17.162593,-77
2021-09-22 20:02:17.162599,-150
2021-09-22 20:02:17.162605,-206
2021-09-22 20:02:17.162611,-238
2021-09-22 20:02:17.162617,-250
2021-09-22 20:02:17.432478,-257
2021-09-22 20:02:17.432496,-255
2021-09-22 20:02:17.432503,-248
2021-09-22 20:02:17.432510,-240
2021-09-22 20:02:17.432516,-231
2021-09-22 20:02:17.432521,-216
2021-09-22 20:02:17.432527,-206
2021-09-22 20:02:17.432533,-192
2021-09-22 20:02:17.432603,-180
2021-09-22 20:02:17.432610,-177
2021-09-22 20:02:17.432616,-165
2021-09-22 20:02:17.432622,-148
2021-09-22 20:02:17.432629,-141
2021-09-22 20:02:17.432634,-136
2021-09-22 20:02:17.432641,-141
2021-09-22 20:02:17.432646,-145
2021-09-22 20:02:17.432652,-145
2021-09-22 20:02:17.432658,-143
2021-09-22 20:02:17.432664,-143
2021-09-22 20:02:17.432669,-143
2021-09-22 20:02:17.432675,-143
2021-09-22 20:02:17.432681,-145
2021-09-22 20:02:17.432687,-143
2021-09-22 20:02:17.432693,-136
2021-09-22 20:02:17.432698,-133
2021-09-22 20:02:17.432704,-131
2021-09-22 20:02:17.432710,-128
2021-09-22 20:02:17.432716,-126
2021-09-22 20:02:17.432721,-121
2021-09-22 20:02:17.432727,-111
2021-09-22 20:02:17.657391,-107
2021-09-22 20:02:17.657408,-104
2021-09-22 20:02:17.657416,-102
2021-09-22 20:02:17.657422,-99
2021-09-22 20:02:17.657428,-94
2021-09-22 20:02:17.657434,-87
2021-09-22 20:02:17.657440,-82
2021-09-22 20:02:17.657446,-80
2021-09-22 20:02:17.657452,-85
2021-09-22 20:02:17.657457,-85
2021-09-22 20:02:17.657463,-75
2021-09-22 20:02:17.657469,-70
2021-09-22 20:02:17.657475,-68
2021-09-22 20:02:17.657481,-68
2021-09-22 20:02:17.657487,-75
2021-09-22 20:02:17.657492,-82
2021-09-22 20:02:17.657498,-85
2021-09-22 20:02:17.657504,-80
2021-09-22 20:02:17.657510,-72
2021-09-22 20:02:17.657516,-72
2021-09-22 20:02:17.657522,-77
2021-09-22 20:02:17.657528,-72
2021-09-22 20:02:17.657534,-63
2021-09-22 20:02:17.657540,-58
2021-09-22 20:02:17.657545,-55
2021-09-22 20:02:17.657551,-51
2021-09-22 20:02:17.657557,-36
2021-09-22 20:02:17.657563,-17
2021-09-22 20:02:17.657569,-9
2021-09-22 20:02:17.657575,-12
2021-09-22 20:02:17.882430,-4
2021-09-22 20:02:17.882447,0
2021-09-22 20:02:17.882454,-17
2021-09-22 20:02:17.882461,-34
2021-09-22 20:02:17.882467,-38
2021-09-22 20:02:17.882473,-38
2021-09-22 20:02:17.882479,-36
2021-09-22 20:02:17.882485,-36
2021-09-22 20:02:17.882491,-38
2021-09-22 20:02:17.882497,-41
2021-09-22 20:02:17.882503,-41
2021-09-22 20:02:17.882509,-38
2021-09-22 20:02:17.882515,-21
2021-09-22 20:02:17.882521,31
2021-09-22 20:02:17.882527,150
2021-09-22 20:02:17.882533,367
2021-09-22 20:02:17.882539,588
2021-09-22 20:02:17.882545,469
2021-09-22 20:02:17.882551,-34
2021-09-22 20:02:17.882557,-542
2021-09-22 20:02:17.882563,-722
2021-09-22 20:02:17.882569,-455
2021-09-22 20:02:17.882575,-111
2021-09-22 20:02:17.882580,-29
