Time,ECG
2021-09-22 19:31:40.644122,4968
2021-09-22 19:31:40.644146,4837
2021-09-22 19:31:40.644154,4684
2021-09-22 19:31:40.644160,4540
2021-09-22 19:31:40.644166,4396
2021-09-22 19:31:40.644173,4258
2021-09-22 19:31:40.644179,4160
2021-09-22 19:31:40.644185,4080
2021-09-22 19:31:40.644191,4000
2021-09-22 19:31:40.644198,3958
2021-09-22 19:31:40.644204,3912
2021-09-22 19:31:40.644210,3844
2021-09-22 19:31:40.644216,3795
2021-09-22 19:31:40.644222,3759
2021-09-22 19:31:40.644229,3718
2021-09-22 19:31:40.644235,3681
2021-09-22 19:31:40.644241,3642
2021-09-22 19:31:40.644248,3606
2021-09-22 19:31:40.644254,3579
2021-09-22 19:31:40.644260,3550
2021-09-22 19:31:40.644266,3518
2021-09-22 19:31:40.644272,3486
2021-09-22 19:31:40.644278,3440
2021-09-22 19:31:40.644285,3394
2021-09-22 19:31:40.644291,3365
2021-09-22 19:31:40.868961,3333
2021-09-22 19:31:40.868979,3294
2021-09-22 19:31:40.868986,3258
2021-09-22 19:31:40.868992,3211
2021-09-22 19:31:40.869009,3168
2021-09-22 19:31:40.869016,3134
2021-09-22 19:31:40.869022,3097
2021-09-22 19:31:40.869028,3061
2021-09-22 19:31:40.869034,3019
2021-09-22 19:31:40.869040,2961
2021-09-22 19:31:40.869046,2917
2021-09-22 19:31:40.869052,2895
2021-09-22 19:31:40.869058,2868
2021-09-22 19:31:40.869064,2832
2021-09-22 19:31:40.869070,2790
2021-09-22 19:31:40.869076,2742
2021-09-22 19:31:40.869082,2713
2021-09-22 19:31:40.869088,2688
2021-09-22 19:31:40.869094,2654
2021-09-22 19:31:40.869100,2620
2021-09-22 19:31:40.869106,2591
2021-09-22 19:31:40.869112,2559
2021-09-22 19:31:40.869118,2533
2021-09-22 19:31:40.869124,2506
2021-09-22 19:31:40.869130,2477
2021-09-22 19:31:40.869136,2452
2021-09-22 19:31:40.869142,2435
2021-09-22 19:31:40.869148,2411
2021-09-22 19:31:40.869154,2384
2021-09-22 19:31:40.869160,2362
2021-09-22 19:31:41.139064,2340
2021-09-22 19:31:41.139083,2304
2021-09-22 19:31:41.139090,2255
2021-09-22 19:31:41.139096,2211
2021-09-22 19:31:41.139105,2180
2021-09-22 19:31:41.139111,2160
2021-09-22 19:31:41.139117,2141
2021-09-22 19:31:41.139123,2114
2021-09-22 19:31:41.139129,2078
2021-09-22 19:31:41.139135,2048
2021-09-22 19:31:41.139141,2031
2021-09-22 19:31:41.139147,2034
2021-09-22 19:31:41.139153,2073
2021-09-22 19:31:41.139159,2168
2021-09-22 19:31:41.139165,2370
2021-09-22 19:31:41.139171,2501
2021-09-22 19:31:41.139177,2277
2021-09-22 19:31:41.139183,1803
2021-09-22 19:31:41.139193,1318
2021-09-22 19:31:41.139199,1141
2021-09-22 19:31:41.139205,1484
2021-09-22 19:31:41.139211,1778
2021-09-22 19:31:41.139217,1744
2021-09-22 19:31:41.139223,1788
2021-09-22 19:31:41.139238,1873
2021-09-22 19:31:41.139245,1827
2021-09-22 19:31:41.139251,1798
2021-09-22 19:31:41.139257,1820
2021-09-22 19:31:41.139262,1805
2021-09-22 19:31:41.139268,1783
2021-09-22 19:31:41.452735,1783
2021-09-22 19:31:41.452754,1776
2021-09-22 19:31:41.452761,1764
2021-09-22 19:31:41.452767,1764
2021-09-22 19:31:41.452778,1761
2021-09-22 19:31:41.452784,1756
2021-09-22 19:31:41.452790,1754
2021-09-22 19:31:41.452796,1759
2021-09-22 19:31:41.452802,1773
2021-09-22 19:31:41.452807,1793
2021-09-22 19:31:41.452813,1810
2021-09-22 19:31:41.452819,1822
2021-09-22 19:31:41.452825,1820
2021-09-22 19:31:41.452831,1798
2021-09-22 19:31:41.452837,1771
2021-09-22 19:31:41.452843,1737
2021-09-22 19:31:41.452849,1683
2021-09-22 19:31:41.452855,1601
2021-09-22 19:31:41.452861,1481
2021-09-22 19:31:41.452867,1350
2021-09-22 19:31:41.452873,1243
2021-09-22 19:31:41.452878,1150
2021-09-22 19:31:41.452886,1070
2021-09-22 19:31:41.452891,1019
2021-09-22 19:31:41.452897,985
2021-09-22 19:31:41.452903,956
2021-09-22 19:31:41.452909,939
2021-09-22 19:31:41.452915,936
2021-09-22 19:31:41.452921,929
2021-09-22 19:31:41.452927,924
2021-09-22 19:31:41.543964,927
2021-09-22 19:31:41.543982,922
2021-09-22 19:31:41.543989,900
2021-09-22 19:31:41.543995,885
2021-09-22 19:31:41.544002,897
2021-09-22 19:31:41.544011,907
2021-09-22 19:31:41.544017,900
2021-09-22 19:31:41.544023,897
2021-09-22 19:31:41.544029,905
2021-09-22 19:31:41.544035,902
2021-09-22 19:31:41.544041,897
2021-09-22 19:31:41.544047,897
2021-09-22 19:31:41.544058,885
2021-09-22 19:31:41.544065,871
2021-09-22 19:31:41.544079,863
2021-09-22 19:31:41.544086,858
2021-09-22 19:31:41.544095,849
2021-09-22 19:31:41.544102,841
2021-09-22 19:31:41.544108,827
2021-09-22 19:31:41.544114,815
2021-09-22 19:31:41.544120,805
2021-09-22 19:31:41.544126,790
2021-09-22 19:31:41.544132,776
2021-09-22 19:31:41.544137,766
2021-09-22 19:31:41.544144,756
2021-09-22 19:31:41.544149,751
2021-09-22 19:31:41.544155,749
2021-09-22 19:31:41.544161,739
2021-09-22 19:31:41.544167,734
2021-09-22 19:31:41.544173,732
2021-09-22 19:31:41.769136,722
2021-09-22 19:31:41.769157,717
2021-09-22 19:31:41.769164,715
2021-09-22 19:31:41.769170,708
2021-09-22 19:31:41.769178,700
2021-09-22 19:31:41.769184,691
2021-09-22 19:31:41.769190,681
2021-09-22 19:31:41.769196,666
2021-09-22 19:31:41.769202,649
2021-09-22 19:31:41.769208,642
2021-09-22 19:31:41.769214,649
2021-09-22 19:31:41.769220,652
2021-09-22 19:31:41.769226,656
2021-09-22 19:31:41.769232,664
2021-09-22 19:31:41.769238,666
2021-09-22 19:31:41.769244,656
2021-09-22 19:31:41.769250,635
2021-09-22 19:31:41.769256,610
2021-09-22 19:31:41.769262,598
2021-09-22 19:31:41.769268,598
2021-09-22 19:31:41.769275,593
2021-09-22 19:31:41.769280,583
2021-09-22 19:31:41.769287,569
2021-09-22 19:31:41.769293,562
2021-09-22 19:31:41.769298,564
2021-09-22 19:31:41.769304,566
2021-09-22 19:31:41.769310,579
2021-09-22 19:31:41.769316,632
2021-09-22 19:31:41.769322,766
2021-09-22 19:31:41.769332,1004
2021-09-22 19:31:41.994029,1136
2021-09-22 19:31:41.994046,897
2021-09-22 19:31:41.994054,423
2021-09-22 19:31:41.994060,-41
2021-09-22 19:31:41.994075,-145
2021-09-22 19:31:41.994082,236
2021-09-22 19:31:41.994088,506
2021-09-22 19:31:41.994094,479
2021-09-22 19:31:41.994100,530
2021-09-22 19:31:41.994106,610
2021-09-22 19:31:41.994112,581
2021-09-22 19:31:41.994118,571
2021-09-22 19:31:41.994124,605
2021-09-22 19:31:41.994131,608
2021-09-22 19:31:41.994137,605
2021-09-22 19:31:41.994143,618
2021-09-22 19:31:41.994149,625
2021-09-22 19:31:41.994155,630
2021-09-22 19:31:41.994161,632
2021-09-22 19:31:41.994167,632
2021-09-22 19:31:41.994173,642
2021-09-22 19:31:41.994179,661
2021-09-22 19:31:41.994185,681
2021-09-22 19:31:41.994191,703
2021-09-22 19:31:41.994197,727
2021-09-22 19:31:41.994203,756
2021-09-22 19:31:41.994209,783
2021-09-22 19:31:41.994217,793
2021-09-22 19:31:41.994223,785
2021-09-22 19:31:41.994229,771
2021-09-22 19:31:42.219104,749
2021-09-22 19:31:42.219122,705
2021-09-22 19:31:42.219130,630
2021-09-22 19:31:42.219136,535
2021-09-22 19:31:42.219142,430
2021-09-22 19:31:42.219148,333
2021-09-22 19:31:42.219155,253
2021-09-22 19:31:42.219161,189
2021-09-22 19:31:42.219167,148
2021-09-22 19:31:42.219173,124
2021-09-22 19:31:42.219179,104
2021-09-22 19:31:42.219185,102
2021-09-22 19:31:42.219191,111
2021-09-22 19:31:42.219197,121
2021-09-22 19:31:42.219203,126
2021-09-22 19:31:42.219209,131
2021-09-22 19:31:42.219215,138
2021-09-22 19:31:42.219222,153
2021-09-22 19:31:42.219227,167
2021-09-22 19:31:42.219234,180
2021-09-22 19:31:42.219239,189
2021-09-22 19:31:42.219245,194
2021-09-22 19:31:42.219251,204
2021-09-22 19:31:42.219257,216
2021-09-22 19:31:42.219273,221
2021-09-22 19:31:42.219279,218
2021-09-22 19:31:42.219285,211
2021-09-22 19:31:42.219291,201
2021-09-22 19:31:42.219297,197
2021-09-22 19:31:42.219307,206
2021-09-22 19:31:42.532720,211
2021-09-22 19:31:42.532739,211
2021-09-22 19:31:42.532746,206
2021-09-22 19:31:42.532753,197
2021-09-22 19:31:42.532759,187
2021-09-22 19:31:42.532765,192
2021-09-22 19:31:42.532771,199
2021-09-22 19:31:42.532777,197
2021-09-22 19:31:42.532783,187
2021-09-22 19:31:42.532789,180
2021-09-22 19:31:42.532795,177
2021-09-22 19:31:42.532801,184
2021-09-22 19:31:42.532807,182
2021-09-22 19:31:42.532813,172
2021-09-22 19:31:42.532819,167
2021-09-22 19:31:42.532825,165
2021-09-22 19:31:42.532831,170
2021-09-22 19:31:42.532837,172
2021-09-22 19:31:42.532843,175
2021-09-22 19:31:42.532849,180
2021-09-22 19:31:42.532855,180
2021-09-22 19:31:42.532861,177
2021-09-22 19:31:42.532877,180
2021-09-22 19:31:42.532884,182
2021-09-22 19:31:42.532890,177
2021-09-22 19:31:42.532896,175
2021-09-22 19:31:42.532902,180
2021-09-22 19:31:42.532908,182
2021-09-22 19:31:42.532913,189
2021-09-22 19:31:42.532919,201
2021-09-22 19:31:42.714079,209
2021-09-22 19:31:42.714099,214
2021-09-22 19:31:42.714106,194
2021-09-22 19:31:42.714112,167
2021-09-22 19:31:42.714118,167
2021-09-22 19:31:42.714126,180
2021-09-22 19:31:42.714132,180
2021-09-22 19:31:42.714138,175
2021-09-22 19:31:42.714144,163
2021-09-22 19:31:42.714150,150
2021-09-22 19:31:42.714157,160
2021-09-22 19:31:42.714162,175
2021-09-22 19:31:42.714169,194
2021-09-22 19:31:42.714175,250
2021-09-22 19:31:42.714190,384
2021-09-22 19:31:42.714196,622
2021-09-22 19:31:42.714202,751
2021-09-22 19:31:42.714208,498
2021-09-22 19:31:42.714214,-2
2021-09-22 19:31:42.714221,-450
2021-09-22 19:31:42.714227,-479
2021-09-22 19:31:42.714233,-70
2021-09-22 19:31:42.714239,172
2021-09-22 19:31:42.714245,150
2021-09-22 19:31:42.714251,223
2021-09-22 19:31:42.714257,296
2021-09-22 19:31:42.714263,260
2021-09-22 19:31:42.714269,262
2021-09-22 19:31:42.714275,301
2021-09-22 19:31:42.714281,301
2021-09-22 19:31:42.983478,294
2021-09-22 19:31:42.983495,309
2021-09-22 19:31:42.983502,321
2021-09-22 19:31:42.983509,323
2021-09-22 19:31:42.983515,326
2021-09-22 19:31:42.983521,335
2021-09-22 19:31:42.983527,357
2021-09-22 19:31:42.983533,369
2021-09-22 19:31:42.983539,377
2021-09-22 19:31:42.983545,401
2021-09-22 19:31:42.983552,437
2021-09-22 19:31:42.983558,467
2021-09-22 19:31:42.983564,489
2021-09-22 19:31:42.983570,498
2021-09-22 19:31:42.983576,493
2021-09-22 19:31:42.983586,486
2021-09-22 19:31:42.983592,474
2021-09-22 19:31:42.983598,435
2021-09-22 19:31:42.983604,357
2021-09-22 19:31:42.983610,257
2021-09-22 19:31:42.983616,163
2021-09-22 19:31:42.983622,80
2021-09-22 19:31:42.983628,4
2021-09-22 19:31:42.983634,-46
2021-09-22 19:31:42.983640,-75
2021-09-22 19:31:42.983646,-99
2021-09-22 19:31:42.983652,-114
2021-09-22 19:31:42.983658,-111
2021-09-22 19:31:42.983665,-97
2021-09-22 19:31:42.983671,-90
2021-09-22 19:31:43.164168,-82
2021-09-22 19:31:43.164187,-70
2021-09-22 19:31:43.164194,-65
2021-09-22 19:31:43.164200,-58
2021-09-22 19:31:43.164207,-34
2021-09-22 19:31:43.164213,-17
2021-09-22 19:31:43.164219,-9
2021-09-22 19:31:43.164225,-2
2021-09-22 19:31:43.164231,9
2021-09-22 19:31:43.164237,12
2021-09-22 19:31:43.164243,12
2021-09-22 19:31:43.164249,24
2021-09-22 19:31:43.164255,26
2021-09-22 19:31:43.164261,12
2021-09-22 19:31:43.164267,12
2021-09-22 19:31:43.164273,24
2021-09-22 19:31:43.164279,26
2021-09-22 19:31:43.164285,21
2021-09-22 19:31:43.164291,24
2021-09-22 19:31:43.164297,21
2021-09-22 19:31:43.164303,19
2021-09-22 19:31:43.164309,24
2021-09-22 19:31:43.164315,34
2021-09-22 19:31:43.164321,36
2021-09-22 19:31:43.164327,34
2021-09-22 19:31:43.164333,36
2021-09-22 19:31:43.164339,38
2021-09-22 19:31:43.164345,31
2021-09-22 19:31:43.164351,34
2021-09-22 19:31:43.164357,46
2021-09-22 19:31:43.477734,46
2021-09-22 19:31:43.477753,46
2021-09-22 19:31:43.477761,51
2021-09-22 19:31:43.477767,51
2021-09-22 19:31:43.477773,48
2021-09-22 19:31:43.477779,46
2021-09-22 19:31:43.477785,38
2021-09-22 19:31:43.477791,36
2021-09-22 19:31:43.477797,43
2021-09-22 19:31:43.477803,46
2021-09-22 19:31:43.477810,41
2021-09-22 19:31:43.477816,34
2021-09-22 19:31:43.477822,26
2021-09-22 19:31:43.477828,34
2021-09-22 19:31:43.477834,53
2021-09-22 19:31:43.477840,75
2021-09-22 19:31:43.477846,87
2021-09-22 19:31:43.477852,92
2021-09-22 19:31:43.477857,92
2021-09-22 19:31:43.477863,80
2021-09-22 19:31:43.477869,58
2021-09-22 19:31:43.477875,53
2021-09-22 19:31:43.477881,58
2021-09-22 19:31:43.477887,51
2021-09-22 19:31:43.477902,38
2021-09-22 19:31:43.477909,41
2021-09-22 19:31:43.477915,48
2021-09-22 19:31:43.477921,51
2021-09-22 19:31:43.477930,55
2021-09-22 19:31:43.477936,75
2021-09-22 19:31:43.658423,121
2021-09-22 19:31:43.658441,245
2021-09-22 19:31:43.658449,491
2021-09-22 19:31:43.658455,654
2021-09-22 19:31:43.658461,435
2021-09-22 19:31:43.658467,-70
2021-09-22 19:31:43.658473,-542
2021-09-22 19:31:43.658479,-608
2021-09-22 19:31:43.658485,-216
2021-09-22 19:31:43.658491,48
2021-09-22 19:31:43.658498,34
2021-09-22 19:31:43.658504,97
2021-09-22 19:31:43.658510,175
2021-09-22 19:31:43.658516,148
2021-09-22 19:31:43.658521,150
2021-09-22 19:31:43.658527,182
2021-09-22 19:31:43.658534,180
2021-09-22 19:31:43.658540,175
2021-09-22 19:31:43.658546,189
2021-09-22 19:31:43.658552,199
2021-09-22 19:31:43.658558,206
2021-09-22 19:31:43.658570,226
2021-09-22 19:31:43.658576,243
2021-09-22 19:31:43.658582,257
2021-09-22 19:31:43.658588,279
2021-09-22 19:31:43.658594,309
2021-09-22 19:31:43.658600,333
2021-09-22 19:31:43.658606,357
2021-09-22 19:31:43.658612,389
2021-09-22 19:31:43.658618,413
2021-09-22 19:31:43.929049,428
2021-09-22 19:31:43.929067,437
2021-09-22 19:31:43.929074,433
2021-09-22 19:31:43.929080,406
2021-09-22 19:31:43.929087,364
2021-09-22 19:31:43.929093,306
2021-09-22 19:31:43.929099,228
2021-09-22 19:31:43.929105,136
2021-09-22 19:31:43.929111,38
2021-09-22 19:31:43.929118,-38
2021-09-22 19:31:43.929124,-97
2021-09-22 19:31:43.929130,-143
2021-09-22 19:31:43.929136,-158
2021-09-22 19:31:43.929142,-155
2021-09-22 19:31:43.929157,-165
2021-09-22 19:31:43.929163,-175
2021-09-22 19:31:43.929169,-163
2021-09-22 19:31:43.929175,-145
2021-09-22 19:31:43.929181,-126
2021-09-22 19:31:43.929187,-104
2021-09-22 19:31:43.929193,-90
2021-09-22 19:31:43.929199,-80
2021-09-22 19:31:43.929204,-68
2021-09-22 19:31:43.929210,-53
2021-09-22 19:31:43.929216,-43
2021-09-22 19:31:43.929222,-34
2021-09-22 19:31:43.929228,-24
2021-09-22 19:31:43.929234,-14
2021-09-22 19:31:43.929240,-12
2021-09-22 19:31:43.929246,-19
2021-09-22 19:31:44.064003,-36
2021-09-22 19:31:44.064020,-36
2021-09-22 19:31:44.064027,-21
2021-09-22 19:31:44.064034,-21
2021-09-22 19:31:44.064040,-29
2021-09-22 19:31:44.064046,-26
2021-09-22 19:31:44.064052,-19
2021-09-22 19:31:44.064058,-14
2021-09-22 19:31:44.064064,-9
2021-09-22 19:31:44.064070,-7
2021-09-22 19:31:44.064076,-14
2021-09-22 19:31:44.064082,-17
2021-09-22 19:31:44.064088,-12
2021-09-22 19:31:44.064094,-14
2021-09-22 19:31:44.064100,-9
2021-09-22 19:31:44.064106,-2
2021-09-22 19:31:44.064112,-2
2021-09-22 19:31:44.064118,0
2021-09-22 19:31:44.064127,4
2021-09-22 19:31:44.064133,12
2021-09-22 19:31:44.064139,19
2021-09-22 19:31:44.064145,12
2021-09-22 19:31:44.064151,-2
2021-09-22 19:31:44.064157,4
2021-09-22 19:31:44.064163,19
2021-09-22 19:31:44.064169,26
2021-09-22 19:31:44.064175,26
2021-09-22 19:31:44.064180,24
2021-09-22 19:31:44.064186,24
2021-09-22 19:31:44.064193,24
2021-09-22 19:31:44.379170,21
2021-09-22 19:31:44.379189,31
2021-09-22 19:31:44.379196,51
2021-09-22 19:31:44.379203,55
2021-09-22 19:31:44.379209,46
2021-09-22 19:31:44.379215,63
2021-09-22 19:31:44.379221,82
2021-09-22 19:31:44.379228,55
2021-09-22 19:31:44.379234,21
2021-09-22 19:31:44.379240,9
2021-09-22 19:31:44.379246,14
2021-09-22 19:31:44.379252,17
2021-09-22 19:31:44.379259,14
2021-09-22 19:31:44.379265,12
2021-09-22 19:31:44.379271,14
2021-09-22 19:31:44.379277,19
2021-09-22 19:31:44.379283,26
2021-09-22 19:31:44.379289,51
2021-09-22 19:31:44.379295,102
2021-09-22 19:31:44.379301,233
2021-09-22 19:31:44.379307,476
2021-09-22 19:31:44.379313,605
2021-09-22 19:31:44.379319,352
2021-09-22 19:31:44.379326,-165
2021-09-22 19:31:44.379332,-598
2021-09-22 19:31:44.379338,-566
2021-09-22 19:31:44.379343,-170
2021-09-22 19:31:44.379350,17
2021-09-22 19:31:44.379355,4
2021-09-22 19:31:44.379363,104
2021-09-22 19:31:44.647727,184
2021-09-22 19:31:44.647745,153
2021-09-22 19:31:44.647752,145
2021-09-22 19:31:44.647759,172
2021-09-22 19:31:44.647765,184
2021-09-22 19:31:44.647771,184
2021-09-22 19:31:44.647777,184
2021-09-22 19:31:44.647783,197
2021-09-22 19:31:44.647789,209
2021-09-22 19:31:44.647796,211
2021-09-22 19:31:44.647802,226
2021-09-22 19:31:44.647808,255
2021-09-22 19:31:44.647814,277
2021-09-22 19:31:44.647820,301
2021-09-22 19:31:44.647826,328
2021-09-22 19:31:44.647832,350
2021-09-22 19:31:44.647838,377
2021-09-22 19:31:44.647843,406
2021-09-22 19:31:44.647849,423
2021-09-22 19:31:44.647855,425
2021-09-22 19:31:44.647861,401
2021-09-22 19:31:44.647867,369
2021-09-22 19:31:44.647878,338
2021-09-22 19:31:44.647885,287
2021-09-22 19:31:44.647897,206
2021-09-22 19:31:44.647904,121
2021-09-22 19:31:44.647910,38
2021-09-22 19:31:44.647916,-34
2021-09-22 19:31:44.647922,-82
2021-09-22 19:31:44.647929,-111
2021-09-22 19:31:44.784074,-133
2021-09-22 19:31:44.784091,-145
2021-09-22 19:31:44.784099,-158
2021-09-22 19:31:44.784105,-153
2021-09-22 19:31:44.784111,-136
2021-09-22 19:31:44.784117,-121
2021-09-22 19:31:44.784123,-107
2021-09-22 19:31:44.784130,-94
2021-09-22 19:31:44.784136,-90
2021-09-22 19:31:44.784142,-80
2021-09-22 19:31:44.784148,-63
2021-09-22 19:31:44.784154,-51
2021-09-22 19:31:44.784160,-43
2021-09-22 19:31:44.784166,-38
2021-09-22 19:31:44.784172,-38
2021-09-22 19:31:44.784178,-38
2021-09-22 19:31:44.784184,-34
2021-09-22 19:31:44.784190,-29
2021-09-22 19:31:44.784196,-31
2021-09-22 19:31:44.784202,-38
2021-09-22 19:31:44.784208,-46
2021-09-22 19:31:44.784214,-43
2021-09-22 19:31:44.784220,-36
2021-09-22 19:31:44.784226,-31
2021-09-22 19:31:44.784232,-31
2021-09-22 19:31:44.784238,-31
2021-09-22 19:31:44.784244,-31
2021-09-22 19:31:44.784250,-31
2021-09-22 19:31:44.784256,-24
2021-09-22 19:31:44.784262,-14
2021-09-22 19:31:45.009099,-17
2021-09-22 19:31:45.009116,-24
2021-09-22 19:31:45.009123,-21
2021-09-22 19:31:45.009129,-12
2021-09-22 19:31:45.009136,-7
2021-09-22 19:31:45.009142,-9
2021-09-22 19:31:45.009148,-12
2021-09-22 19:31:45.009154,-14
2021-09-22 19:31:45.009160,-14
2021-09-22 19:31:45.009166,-14
2021-09-22 19:31:45.009172,-19
2021-09-22 19:31:45.009178,-26
2021-09-22 19:31:45.009193,-26
2021-09-22 19:31:45.009200,-31
2021-09-22 19:31:45.009211,-36
2021-09-22 19:31:45.009217,-24
2021-09-22 19:31:45.009224,-2
2021-09-22 19:31:45.009230,14
2021-09-22 19:31:45.009236,12
2021-09-22 19:31:45.009242,0
2021-09-22 19:31:45.009248,0
2021-09-22 19:31:45.009254,-4
2021-09-22 19:31:45.009259,-17
2021-09-22 19:31:45.009266,-26
2021-09-22 19:31:45.009271,-24
2021-09-22 19:31:45.009277,-24
2021-09-22 19:31:45.009283,-19
2021-09-22 19:31:45.009289,-14
2021-09-22 19:31:45.009295,-14
2021-09-22 19:31:45.009301,-17
2021-09-22 19:31:45.234141,-17
2021-09-22 19:31:45.234159,4
2021-09-22 19:31:45.234166,53
2021-09-22 19:31:45.234172,155
2021-09-22 19:31:45.234182,364
2021-09-22 19:31:45.234188,528
2021-09-22 19:31:45.234195,347
2021-09-22 19:31:45.234201,-138
2021-09-22 19:31:45.234207,-615
2021-09-22 19:31:45.234213,-681
2021-09-22 19:31:45.234219,-299
2021-09-22 19:31:45.234225,-38
2021-09-22 19:31:45.234231,-51
2021-09-22 19:31:45.234237,24
2021-09-22 19:31:45.234243,126
2021-09-22 19:31:45.234249,107
2021-09-22 19:31:45.234255,102
2021-09-22 19:31:45.234261,143
2021-09-22 19:31:45.234267,145
2021-09-22 19:31:45.234273,138
2021-09-22 19:31:45.234279,158
2021-09-22 19:31:45.234285,165
2021-09-22 19:31:45.234291,167
2021-09-22 19:31:45.234297,184
2021-09-22 19:31:45.234303,201
2021-09-22 19:31:45.234309,221
2021-09-22 19:31:45.234315,245
2021-09-22 19:31:45.234321,270
2021-09-22 19:31:45.234327,296
2021-09-22 19:31:45.234333,328
2021-09-22 19:31:45.459153,357
2021-09-22 19:31:45.459170,382
2021-09-22 19:31:45.459177,399
2021-09-22 19:31:45.459182,396
2021-09-22 19:31:45.459195,386
2021-09-22 19:31:45.459200,360
2021-09-22 19:31:45.459205,311
2021-09-22 19:31:45.459210,250
2021-09-22 19:31:45.459214,182
2021-09-22 19:31:45.459219,92
2021-09-22 19:31:45.459227,2
2021-09-22 19:31:45.459233,-65
2021-09-22 19:31:45.459238,-121
2021-09-22 19:31:45.459243,-160
2021-09-22 19:31:45.459248,-184
2021-09-22 19:31:45.459253,-197
2021-09-22 19:31:45.459258,-204
2021-09-22 19:31:45.459263,-211
2021-09-22 19:31:45.459268,-206
2021-09-22 19:31:45.459273,-182
2021-09-22 19:31:45.459278,-165
2021-09-22 19:31:45.459283,-155
2021-09-22 19:31:45.459288,-143
2021-09-22 19:31:45.459293,-138
2021-09-22 19:31:45.459298,-128
2021-09-22 19:31:45.459303,-111
2021-09-22 19:31:45.459308,-104
2021-09-22 19:31:45.459313,-97
2021-09-22 19:31:45.459318,-87
2021-09-22 19:31:45.459324,-82
2021-09-22 19:31:45.684162,-75
2021-09-22 19:31:45.684182,-65
2021-09-22 19:31:45.684189,-63
2021-09-22 19:31:45.684195,-63
2021-09-22 19:31:45.684201,-65
2021-09-22 19:31:45.684207,-70
2021-09-22 19:31:45.684213,-72
2021-09-22 19:31:45.684219,-65
2021-09-22 19:31:45.684225,-68
2021-09-22 19:31:45.684231,-72
2021-09-22 19:31:45.684237,-72
2021-09-22 19:31:45.684243,-75
2021-09-22 19:31:45.684249,-72
2021-09-22 19:31:45.684255,-65
2021-09-22 19:31:45.684261,-60
2021-09-22 19:31:45.684267,-58
2021-09-22 19:31:45.684273,-55
2021-09-22 19:31:45.684279,-51
2021-09-22 19:31:45.684285,-48
2021-09-22 19:31:45.684291,-46
2021-09-22 19:31:45.684297,-41
2021-09-22 19:31:45.684303,-43
2021-09-22 19:31:45.684309,-48
2021-09-22 19:31:45.684315,-43
2021-09-22 19:31:45.684329,-41
2021-09-22 19:31:45.684338,-46
2021-09-22 19:31:45.684344,-41
2021-09-22 19:31:45.684350,-31
2021-09-22 19:31:45.684356,-34
2021-09-22 19:31:45.684362,-43
2021-09-22 19:31:45.909192,-48
2021-09-22 19:31:45.909211,-34
2021-09-22 19:31:45.909219,-19
2021-09-22 19:31:45.909225,-9
2021-09-22 19:31:45.909231,-7
2021-09-22 19:31:45.909237,-7
2021-09-22 19:31:45.909243,-2
2021-09-22 19:31:45.909249,-2
2021-09-22 19:31:45.909255,-19
2021-09-22 19:31:45.909261,-41
2021-09-22 19:31:45.909267,-53
2021-09-22 19:31:45.909273,-51
2021-09-22 19:31:45.909279,-41
2021-09-22 19:31:45.909285,-38
2021-09-22 19:31:45.909291,-46
2021-09-22 19:31:45.909297,-51
2021-09-22 19:31:45.909302,-48
2021-09-22 19:31:45.909308,-41
2021-09-22 19:31:45.909314,0
2021-09-22 19:31:45.909320,94
2021-09-22 19:31:45.909326,279
2021-09-22 19:31:45.909332,498
2021-09-22 19:31:45.909338,455
2021-09-22 19:31:45.909344,48
2021-09-22 19:31:45.909350,-450
2021-09-22 19:31:45.909356,-744
2021-09-22 19:31:45.909362,-545
2021-09-22 19:31:45.909368,-153
2021-09-22 19:31:45.909374,-55
2021-09-22 19:31:45.909379,-38
2021-09-22 19:31:46.224595,77
2021-09-22 19:31:46.224615,102
2021-09-22 19:31:46.224622,70
2021-09-22 19:31:46.224628,90
2021-09-22 19:31:46.224635,107
2021-09-22 19:31:46.224641,109
2021-09-22 19:31:46.224647,124
2021-09-22 19:31:46.224653,136
2021-09-22 19:31:46.224659,145
2021-09-22 19:31:46.224665,150
2021-09-22 19:31:46.224670,160
2021-09-22 19:31:46.224676,184
2021-09-22 19:31:46.224682,209
2021-09-22 19:31:46.224688,228
2021-09-22 19:31:46.224694,255
2021-09-22 19:31:46.224700,282
2021-09-22 19:31:46.224706,311
2021-09-22 19:31:46.224712,347
2021-09-22 19:31:46.224718,372
2021-09-22 19:31:46.224724,379
2021-09-22 19:31:46.224730,374
2021-09-22 19:31:46.224736,357
2021-09-22 19:31:46.224742,330
2021-09-22 19:31:46.224749,294
2021-09-22 19:31:46.224754,231
2021-09-22 19:31:46.224760,143
2021-09-22 19:31:46.224766,48
2021-09-22 19:31:46.224772,-36
2021-09-22 19:31:46.224778,-102
2021-09-22 19:31:46.224784,-153
2021-09-22 19:31:46.404078,-184
2021-09-22 19:31:46.404097,-199
2021-09-22 19:31:46.404104,-204
2021-09-22 19:31:46.404110,-206
2021-09-22 19:31:46.404116,-201
2021-09-22 19:31:46.404123,-189
2021-09-22 19:31:46.404129,-175
2021-09-22 19:31:46.404135,-158
2021-09-22 19:31:46.404141,-148
2021-09-22 19:31:46.404147,-141
2021-09-22 19:31:46.404153,-126
2021-09-22 19:31:46.404159,-107
2021-09-22 19:31:46.404165,-94
2021-09-22 19:31:46.404171,-85
2021-09-22 19:31:46.404177,-85
2021-09-22 19:31:46.404183,-87
2021-09-22 19:31:46.404197,-75
2021-09-22 19:31:46.404204,-63
2021-09-22 19:31:46.404210,-63
2021-09-22 19:31:46.404216,-65
2021-09-22 19:31:46.404222,-70
2021-09-22 19:31:46.404228,-77
2021-09-22 19:31:46.404234,-68
2021-09-22 19:31:46.404240,-60
2021-09-22 19:31:46.404246,-60
2021-09-22 19:31:46.404252,-60
2021-09-22 19:31:46.404258,-60
2021-09-22 19:31:46.404267,-75
2021-09-22 19:31:46.404273,-82
2021-09-22 19:31:46.404279,-72
2021-09-22 19:31:46.672748,-68
2021-09-22 19:31:46.672768,-75
2021-09-22 19:31:46.672775,-85
2021-09-22 19:31:46.672781,-82
2021-09-22 19:31:46.672796,-70
2021-09-22 19:31:46.672802,-60
2021-09-22 19:31:46.672809,-55
2021-09-22 19:31:46.672815,-55
2021-09-22 19:31:46.672821,-63
2021-09-22 19:31:46.672827,-65
2021-09-22 19:31:46.672833,-53
2021-09-22 19:31:46.672839,-46
2021-09-22 19:31:46.672845,-46
2021-09-22 19:31:46.672851,-46
2021-09-22 19:31:46.672857,-48
2021-09-22 19:31:46.672863,-51
2021-09-22 19:31:46.672869,-48
2021-09-22 19:31:46.672875,-46
2021-09-22 19:31:46.672881,-38
2021-09-22 19:31:46.672887,-26
2021-09-22 19:31:46.672893,-12
2021-09-22 19:31:46.672899,-4
2021-09-22 19:31:46.672904,-2
2021-09-22 19:31:46.672911,0
2021-09-22 19:31:46.672916,0
2021-09-22 19:31:46.672922,-17
2021-09-22 19:31:46.672928,-36
2021-09-22 19:31:46.672934,-36
2021-09-22 19:31:46.672940,-26
2021-09-22 19:31:46.672946,-24
2021-09-22 19:31:46.854092,-31
2021-09-22 19:31:46.854109,-38
2021-09-22 19:31:46.854116,-43
2021-09-22 19:31:46.854123,-48
2021-09-22 19:31:46.854129,-36
2021-09-22 19:31:46.854135,17
2021-09-22 19:31:46.854141,121
2021-09-22 19:31:46.854147,333
2021-09-22 19:31:46.854153,542
2021-09-22 19:31:46.854159,411
2021-09-22 19:31:46.854165,-55
2021-09-22 19:31:46.854171,-554
2021-09-22 19:31:46.854177,-739
2021-09-22 19:31:46.854183,-418
2021-09-22 19:31:46.854189,-72
2021-09-22 19:31:46.854195,-43
2021-09-22 19:31:46.854201,2
2021-09-22 19:31:46.854207,107
2021-09-22 19:31:46.854213,99
2021-09-22 19:31:46.854219,82
2021-09-22 19:31:46.854225,119
2021-09-22 19:31:46.854231,131
2021-09-22 19:31:46.854237,128
2021-09-22 19:31:46.854243,148
2021-09-22 19:31:46.854257,165
2021-09-22 19:31:46.854264,172
2021-09-22 19:31:46.854270,189
2021-09-22 19:31:46.854276,204
2021-09-22 19:31:46.854282,216
2021-09-22 19:31:46.854288,233
2021-09-22 19:31:47.124126,255
2021-09-22 19:31:47.124145,282
2021-09-22 19:31:47.124152,309
2021-09-22 19:31:47.124158,333
2021-09-22 19:31:47.124165,345
2021-09-22 19:31:47.124171,357
2021-09-22 19:31:47.124177,364
2021-09-22 19:31:47.124183,355
2021-09-22 19:31:47.124189,340
2021-09-22 19:31:47.124195,318
2021-09-22 19:31:47.124201,267
2021-09-22 19:31:47.124207,189
2021-09-22 19:31:47.124213,92
2021-09-22 19:31:47.124219,-4
2021-09-22 19:31:47.124225,-77
2021-09-22 19:31:47.124231,-136
2021-09-22 19:31:47.124236,-177
2021-09-22 19:31:47.124243,-199
2021-09-22 19:31:47.124248,-214
2021-09-22 19:31:47.124254,-216
2021-09-22 19:31:47.124260,-209
2021-09-22 19:31:47.124266,-197
2021-09-22 19:31:47.124272,-187
2021-09-22 19:31:47.124278,-180
2021-09-22 19:31:47.124284,-167
2021-09-22 19:31:47.124290,-148
2021-09-22 19:31:47.124296,-133
2021-09-22 19:31:47.124302,-124
2021-09-22 19:31:47.124308,-109
2021-09-22 19:31:47.124314,-94
2021-09-22 19:31:47.348511,-85
2021-09-22 19:31:47.348531,-72
2021-09-22 19:31:47.348539,-68
2021-09-22 19:31:47.348546,-63
2021-09-22 19:31:47.348552,-55
2021-09-22 19:31:47.348559,-48
2021-09-22 19:31:47.348565,-53
2021-09-22 19:31:47.348571,-63
2021-09-22 19:31:47.348577,-63
2021-09-22 19:31:47.348583,-60
2021-09-22 19:31:47.348592,-58
2021-09-22 19:31:47.348598,-60
2021-09-22 19:31:47.348604,-68
2021-09-22 19:31:47.348610,-65
2021-09-22 19:31:47.348616,-58
2021-09-22 19:31:47.348623,-55
2021-09-22 19:31:47.348629,-55
2021-09-22 19:31:47.348635,-60
2021-09-22 19:31:47.348641,-65
2021-09-22 19:31:47.348647,-55
2021-09-22 19:31:47.348653,-51
2021-09-22 19:31:47.348659,-51
2021-09-22 19:31:47.348673,-46
2021-09-22 19:31:47.348680,-43
2021-09-22 19:31:47.348686,-43
2021-09-22 19:31:47.348692,-36
2021-09-22 19:31:47.348698,-31
2021-09-22 19:31:47.348704,-31
2021-09-22 19:31:47.348710,-29
2021-09-22 19:31:47.348716,-21
2021-09-22 19:31:47.619060,-21
2021-09-22 19:31:47.619078,-24
2021-09-22 19:31:47.619086,-26
2021-09-22 19:31:47.619092,-31
2021-09-22 19:31:47.619098,-26
2021-09-22 19:31:47.619104,-14
2021-09-22 19:31:47.619110,2
2021-09-22 19:31:47.619116,7
2021-09-22 19:31:47.619122,2
2021-09-22 19:31:47.619128,-2
2021-09-22 19:31:47.619134,-17
2021-09-22 19:31:47.619140,-41
2021-09-22 19:31:47.619146,-53
2021-09-22 19:31:47.619152,-55
2021-09-22 19:31:47.619158,-53
2021-09-22 19:31:47.619164,-46
2021-09-22 19:31:47.619170,-48
2021-09-22 19:31:47.619176,-58
2021-09-22 19:31:47.619182,-58
2021-09-22 19:31:47.619188,-53
2021-09-22 19:31:47.619194,-38
2021-09-22 19:31:47.619200,9
2021-09-22 19:31:47.619206,128
2021-09-22 19:31:47.619212,364
2021-09-22 19:31:47.619218,559
2021-09-22 19:31:47.619224,382
2021-09-22 19:31:47.619230,-126
2021-09-22 19:31:47.619236,-622
2021-09-22 19:31:47.619242,-725
2021-09-22 19:31:47.619248,-350
2021-09-22 19:31:47.754094,-51
2021-09-22 19:31:47.754111,-41
2021-09-22 19:31:47.754118,24
2021-09-22 19:31:47.754124,116
2021-09-22 19:31:47.754138,90
2021-09-22 19:31:47.754145,75
2021-09-22 19:31:47.754151,114
2021-09-22 19:31:47.754157,128
2021-09-22 19:31:47.754163,128
2021-09-22 19:31:47.754169,145
2021-09-22 19:31:47.754175,158
2021-09-22 19:31:47.754181,160
2021-09-22 19:31:47.754187,175
2021-09-22 19:31:47.754193,197
2021-09-22 19:31:47.754198,211
2021-09-22 19:31:47.754204,226
2021-09-22 19:31:47.754210,248
2021-09-22 19:31:47.754216,274
2021-09-22 19:31:47.754222,309
2021-09-22 19:31:47.754228,345
2021-09-22 19:31:47.754234,367
2021-09-22 19:31:47.754240,374
2021-09-22 19:31:47.754246,377
2021-09-22 19:31:47.754252,377
2021-09-22 19:31:47.754257,364
2021-09-22 19:31:47.754263,330
2021-09-22 19:31:47.754269,274
2021-09-22 19:31:47.754275,197
2021-09-22 19:31:47.754281,104
2021-09-22 19:31:47.754287,19
2021-09-22 19:31:47.979032,-53
2021-09-22 19:31:47.979050,-111
2021-09-22 19:31:47.979057,-158
2021-09-22 19:31:47.979063,-194
2021-09-22 19:31:47.979069,-211
2021-09-22 19:31:47.979075,-206
2021-09-22 19:31:47.979081,-194
2021-09-22 19:31:47.979088,-187
2021-09-22 19:31:47.979093,-180
2021-09-22 19:31:47.979099,-172
2021-09-22 19:31:47.979105,-167
2021-09-22 19:31:47.979111,-148
2021-09-22 19:31:47.979117,-128
2021-09-22 19:31:47.979123,-121
2021-09-22 19:31:47.979129,-119
2021-09-22 19:31:47.979135,-109
2021-09-22 19:31:47.979141,-107
2021-09-22 19:31:47.979147,-99
2021-09-22 19:31:47.979153,-85
2021-09-22 19:31:47.979159,-77
2021-09-22 19:31:47.979165,-82
2021-09-22 19:31:47.979171,-85
2021-09-22 19:31:47.979177,-77
2021-09-22 19:31:47.979183,-70
2021-09-22 19:31:47.979196,-70
2021-09-22 19:31:47.979202,-65
2021-09-22 19:31:47.979208,-58
2021-09-22 19:31:47.979214,-65
2021-09-22 19:31:47.979220,-63
2021-09-22 19:31:47.979226,-53
2021-09-22 19:31:48.249180,-48
2021-09-22 19:31:48.249198,-51
2021-09-22 19:31:48.249205,-51
2021-09-22 19:31:48.249212,-60
2021-09-22 19:31:48.249218,-60
2021-09-22 19:31:48.249224,-48
2021-09-22 19:31:48.249233,-43
2021-09-22 19:31:48.249240,-41
2021-09-22 19:31:48.249246,-38
2021-09-22 19:31:48.249252,-43
2021-09-22 19:31:48.249258,-41
2021-09-22 19:31:48.249264,-34
2021-09-22 19:31:48.249270,-29
2021-09-22 19:31:48.249276,-21
2021-09-22 19:31:48.249281,-14
2021-09-22 19:31:48.249287,-26
2021-09-22 19:31:48.249294,-41
2021-09-22 19:31:48.249299,-34
2021-09-22 19:31:48.249305,-9
2021-09-22 19:31:48.249311,14
2021-09-22 19:31:48.249317,24
2021-09-22 19:31:48.249323,17
2021-09-22 19:31:48.249329,19
2021-09-22 19:31:48.249336,31
2021-09-22 19:31:48.249342,19
2021-09-22 19:31:48.249347,-12
2021-09-22 19:31:48.249353,-26
2021-09-22 19:31:48.249359,-24
2021-09-22 19:31:48.249380,-19
2021-09-22 19:31:48.249386,-17
2021-09-22 19:31:48.474113,-14
2021-09-22 19:31:48.474130,-9
2021-09-22 19:31:48.474137,-9
2021-09-22 19:31:48.474143,-7
2021-09-22 19:31:48.474149,21
2021-09-22 19:31:48.474155,92
2021-09-22 19:31:48.474161,240
2021-09-22 19:31:48.474167,484
2021-09-22 19:31:48.474173,569
2021-09-22 19:31:48.474179,255
2021-09-22 19:31:48.474185,-299
2021-09-22 19:31:48.474191,-691
2021-09-22 19:31:48.474197,-564
2021-09-22 19:31:48.474203,-167
2021-09-22 19:31:48.474215,-41
2021-09-22 19:31:48.474221,-46
2021-09-22 19:31:48.474227,70
2021-09-22 19:31:48.474233,119
2021-09-22 19:31:48.474239,85
2021-09-22 19:31:48.474245,107
2021-09-22 19:31:48.474251,133
2021-09-22 19:31:48.474257,116
2021-09-22 19:31:48.474263,114
2021-09-22 19:31:48.474269,141
2021-09-22 19:31:48.474275,163
2021-09-22 19:31:48.474280,167
2021-09-22 19:31:48.474286,175
2021-09-22 19:31:48.474293,204
2021-09-22 19:31:48.474299,228
2021-09-22 19:31:48.474304,245
2021-09-22 19:31:48.742773,272
2021-09-22 19:31:48.742791,306
2021-09-22 19:31:48.742798,335
2021-09-22 19:31:48.742804,364
2021-09-22 19:31:48.742810,389
2021-09-22 19:31:48.742816,408
2021-09-22 19:31:48.742823,413
2021-09-22 19:31:48.742829,386
2021-09-22 19:31:48.742835,350
2021-09-22 19:31:48.742841,309
2021-09-22 19:31:48.742847,243
2021-09-22 19:31:48.742853,155
2021-09-22 19:31:48.742859,70
2021-09-22 19:31:48.742865,-7
2021-09-22 19:31:48.742871,-77
2021-09-22 19:31:48.742877,-128
2021-09-22 19:31:48.742882,-160
2021-09-22 19:31:48.742888,-177
2021-09-22 19:31:48.742894,-180
2021-09-22 19:31:48.742900,-182
2021-09-22 19:31:48.742906,-187
2021-09-22 19:31:48.742912,-175
2021-09-22 19:31:48.742918,-158
2021-09-22 19:31:48.742924,-148
2021-09-22 19:31:48.742929,-136
2021-09-22 19:31:48.742935,-119
2021-09-22 19:31:48.742941,-102
2021-09-22 19:31:48.742947,-90
2021-09-22 19:31:48.742953,-80
2021-09-22 19:31:48.742959,-70
2021-09-22 19:31:48.924111,-63
2021-09-22 19:31:48.924129,-60
2021-09-22 19:31:48.924136,-53
2021-09-22 19:31:48.924143,-46
2021-09-22 19:31:48.924155,-46
2021-09-22 19:31:48.924162,-41
2021-09-22 19:31:48.924167,-36
2021-09-22 19:31:48.924173,-43
2021-09-22 19:31:48.924179,-55
2021-09-22 19:31:48.924185,-63
2021-09-22 19:31:48.924191,-58
2021-09-22 19:31:48.924197,-46
2021-09-22 19:31:48.924203,-48
2021-09-22 19:31:48.924209,-58
2021-09-22 19:31:48.924219,-55
2021-09-22 19:31:48.924225,-46
2021-09-22 19:31:48.924231,-41
2021-09-22 19:31:48.924237,-38
2021-09-22 19:31:48.924243,-34
2021-09-22 19:31:48.924249,-29
2021-09-22 19:31:48.924255,-34
2021-09-22 19:31:48.924261,-51
2021-09-22 19:31:48.924267,-58
2021-09-22 19:31:48.924272,-41
2021-09-22 19:31:48.924278,-31
2021-09-22 19:31:48.924284,-38
2021-09-22 19:31:48.924290,-43
2021-09-22 19:31:48.924296,-43
2021-09-22 19:31:48.924302,-24
2021-09-22 19:31:48.924308,0
2021-09-22 19:31:49.193471,-2
2021-09-22 19:31:49.193490,-4
2021-09-22 19:31:49.193497,4
2021-09-22 19:31:49.193503,0
2021-09-22 19:31:49.193510,-21
2021-09-22 19:31:49.193516,-41
2021-09-22 19:31:49.193522,-51
2021-09-22 19:31:49.193528,-46
2021-09-22 19:31:49.193534,-38
2021-09-22 19:31:49.193540,-46
2021-09-22 19:31:49.193547,-48
2021-09-22 19:31:49.193553,-43
2021-09-22 19:31:49.193559,-41
2021-09-22 19:31:49.193565,-12
2021-09-22 19:31:49.193571,55
2021-09-22 19:31:49.193577,182
2021-09-22 19:31:49.193600,401
2021-09-22 19:31:49.193606,513
2021-09-22 19:31:49.193612,243
2021-09-22 19:31:49.193618,-299
2021-09-22 19:31:49.193625,-715
2021-09-22 19:31:49.193631,-630
2021-09-22 19:31:49.193637,-228
2021-09-22 19:31:49.193643,-70
2021-09-22 19:31:49.193652,-75
2021-09-22 19:31:49.193658,38
2021-09-22 19:31:49.193664,109
2021-09-22 19:31:49.193670,77
2021-09-22 19:31:49.193676,90
2021-09-22 19:31:49.193682,119
2021-09-22 19:31:49.374173,114
2021-09-22 19:31:49.374192,124
2021-09-22 19:31:49.374199,145
2021-09-22 19:31:49.374206,153
2021-09-22 19:31:49.374212,160
2021-09-22 19:31:49.374218,175
2021-09-22 19:31:49.374224,189
2021-09-22 19:31:49.374230,206
2021-09-22 19:31:49.374236,233
2021-09-22 19:31:49.374242,262
2021-09-22 19:31:49.374249,284
2021-09-22 19:31:49.374255,306
2021-09-22 19:31:49.374261,335
2021-09-22 19:31:49.374266,369
2021-09-22 19:31:49.374272,384
2021-09-22 19:31:49.374278,379
2021-09-22 19:31:49.374284,360
2021-09-22 19:31:49.374290,328
2021-09-22 19:31:49.374296,282
2021-09-22 19:31:49.374302,216
2021-09-22 19:31:49.374308,131
2021-09-22 19:31:49.374314,46
2021-09-22 19:31:49.374320,-41
2021-09-22 19:31:49.374326,-116
2021-09-22 19:31:49.374331,-160
2021-09-22 19:31:49.374337,-194
2021-09-22 19:31:49.374343,-218
2021-09-22 19:31:49.374349,-221
2021-09-22 19:31:49.374355,-216
2021-09-22 19:31:49.374361,-211
2021-09-22 19:31:49.689183,-199
2021-09-22 19:31:49.689203,-187
2021-09-22 19:31:49.689210,-187
2021-09-22 19:31:49.689216,-184
2021-09-22 19:31:49.689222,-175
2021-09-22 19:31:49.689228,-167
2021-09-22 19:31:49.689234,-155
2021-09-22 19:31:49.689240,-133
2021-09-22 19:31:49.689246,-124
2021-09-22 19:31:49.689252,-124
2021-09-22 19:31:49.689258,-116
2021-09-22 19:31:49.689264,-114
2021-09-22 19:31:49.689270,-107
2021-09-22 19:31:49.689275,-99
2021-09-22 19:31:49.689289,-97
2021-09-22 19:31:49.689295,-92
2021-09-22 19:31:49.689301,-85
2021-09-22 19:31:49.689307,-90
2021-09-22 19:31:49.689313,-99
2021-09-22 19:31:49.689319,-92
2021-09-22 19:31:49.689325,-87
2021-09-22 19:31:49.689331,-94
2021-09-22 19:31:49.689337,-94
2021-09-22 19:31:49.689343,-85
2021-09-22 19:31:49.689349,-77
2021-09-22 19:31:49.689354,-75
2021-09-22 19:31:49.689360,-72
2021-09-22 19:31:49.689366,-77
2021-09-22 19:31:49.689372,-85
2021-09-22 19:31:49.689378,-77
2021-09-22 19:31:49.824049,-68
2021-09-22 19:31:49.824066,-65
2021-09-22 19:31:49.824074,-58
2021-09-22 19:31:49.824080,-63
2021-09-22 19:31:49.824086,-72
2021-09-22 19:31:49.824092,-72
2021-09-22 19:31:49.824097,-72
2021-09-22 19:31:49.824103,-68
2021-09-22 19:31:49.824109,-41
2021-09-22 19:31:49.824115,-21
2021-09-22 19:31:49.824121,-24
2021-09-22 19:31:49.824127,-24
2021-09-22 19:31:49.824133,-12
2021-09-22 19:31:49.824139,-14
2021-09-22 19:31:49.824144,-36
2021-09-22 19:31:49.824150,-58
2021-09-22 19:31:49.824156,-70
2021-09-22 19:31:49.824162,-63
2021-09-22 19:31:49.824168,-48
2021-09-22 19:31:49.824174,-48
2021-09-22 19:31:49.824180,-55
2021-09-22 19:31:49.824186,-58
2021-09-22 19:31:49.824192,-55
2021-09-22 19:31:49.824197,-36
2021-09-22 19:31:49.824203,19
2021-09-22 19:31:49.824209,141
2021-09-22 19:31:49.824215,372
2021-09-22 19:31:49.824221,530
2021-09-22 19:31:49.824227,326
2021-09-22 19:31:49.824233,-153
2021-09-22 19:31:50.094201,-630
2021-09-22 19:31:50.094223,-737
2021-09-22 19:31:50.094231,-364
2021-09-22 19:31:50.094237,-90
2021-09-22 19:31:50.094249,-94
2021-09-22 19:31:50.094255,-12
2021-09-22 19:31:50.094261,85
2021-09-22 19:31:50.094267,53
2021-09-22 19:31:50.094273,24
2021-09-22 19:31:50.094279,38
2021-09-22 19:31:50.094285,48
2021-09-22 19:31:50.094291,60
2021-09-22 19:31:50.094297,77
2021-09-22 19:31:50.094303,97
2021-09-22 19:31:50.094309,107
2021-09-22 19:31:50.094315,111
2021-09-22 19:31:50.094321,131
2021-09-22 19:31:50.094327,158
2021-09-22 19:31:50.094332,177
2021-09-22 19:31:50.094338,201
2021-09-22 19:31:50.094344,233
2021-09-22 19:31:50.094350,257
2021-09-22 19:31:50.094356,291
2021-09-22 19:31:50.094362,330
2021-09-22 19:31:50.094368,352
2021-09-22 19:31:50.094374,360
2021-09-22 19:31:50.094380,350
2021-09-22 19:31:50.094386,316
2021-09-22 19:31:50.094391,277
2021-09-22 19:31:50.094397,226
2021-09-22 19:31:50.319131,148
2021-09-22 19:31:50.319150,48
2021-09-22 19:31:50.319157,-48
2021-09-22 19:31:50.319163,-124
2021-09-22 19:31:50.319169,-175
2021-09-22 19:31:50.319176,-214
2021-09-22 19:31:50.319182,-231
2021-09-22 19:31:50.319188,-233
2021-09-22 19:31:50.319194,-248
2021-09-22 19:31:50.319200,-255
2021-09-22 19:31:50.319206,-236
2021-09-22 19:31:50.319212,-218
2021-09-22 19:31:50.319218,-206
2021-09-22 19:31:50.319246,-194
2021-09-22 19:31:50.319253,-194
2021-09-22 19:31:50.319259,-187
2021-09-22 19:31:50.319265,-160
2021-09-22 19:31:50.319271,-143
2021-09-22 19:31:50.319277,-133
2021-09-22 19:31:50.319283,-114
2021-09-22 19:31:50.319289,-104
2021-09-22 19:31:50.319295,-107
2021-09-22 19:31:50.319301,-102
2021-09-22 19:31:50.319307,-92
2021-09-22 19:31:50.319317,-85
2021-09-22 19:31:50.319323,-82
2021-09-22 19:31:50.319329,-85
2021-09-22 19:31:50.319335,-82
2021-09-22 19:31:50.319341,-77
2021-09-22 19:31:50.319347,-72
2021-09-22 19:31:50.544121,-70
2021-09-22 19:31:50.544140,-68
2021-09-22 19:31:50.544147,-68
2021-09-22 19:31:50.544153,-75
2021-09-22 19:31:50.544160,-85
2021-09-22 19:31:50.544166,-82
2021-09-22 19:31:50.544172,-72
2021-09-22 19:31:50.544178,-80
2021-09-22 19:31:50.544184,-90
2021-09-22 19:31:50.544190,-77
2021-09-22 19:31:50.544195,-68
2021-09-22 19:31:50.544201,-65
2021-09-22 19:31:50.544207,-63
2021-09-22 19:31:50.544213,-60
2021-09-22 19:31:50.544219,-75
2021-09-22 19:31:50.544225,-99
2021-09-22 19:31:50.544231,-102
2021-09-22 19:31:50.544237,-82
2021-09-22 19:31:50.544243,-60
2021-09-22 19:31:50.544249,-38
2021-09-22 19:31:50.544255,-26
2021-09-22 19:31:50.544261,-31
2021-09-22 19:31:50.544266,-29
2021-09-22 19:31:50.544272,-21
2021-09-22 19:31:50.544278,-36
2021-09-22 19:31:50.544284,-53
2021-09-22 19:31:50.544290,-53
2021-09-22 19:31:50.544296,-46
2021-09-22 19:31:50.544302,-43
2021-09-22 19:31:50.544308,-41
2021-09-22 19:31:50.812820,-38
2021-09-22 19:31:50.812837,-38
2021-09-22 19:31:50.812844,-36
2021-09-22 19:31:50.812850,-26
2021-09-22 19:31:50.812857,7
2021-09-22 19:31:50.812863,82
2021-09-22 19:31:50.812869,245
2021-09-22 19:31:50.812875,493
2021-09-22 19:31:50.812881,532
2021-09-22 19:31:50.812887,189
2021-09-22 19:31:50.812893,-333
2021-09-22 19:31:50.812899,-725
2021-09-22 19:31:50.812905,-603
2021-09-22 19:31:50.812910,-172
2021-09-22 19:31:50.812924,-34
2021-09-22 19:31:50.812930,-43
2021-09-22 19:31:50.812937,65
2021-09-22 19:31:50.812943,109
2021-09-22 19:31:50.812949,68
2021-09-22 19:31:50.812955,87
2021-09-22 19:31:50.812960,121
2021-09-22 19:31:50.812966,116
2021-09-22 19:31:50.812972,121
2021-09-22 19:31:50.812978,136
2021-09-22 19:31:50.812984,141
2021-09-22 19:31:50.812990,145
2021-09-22 19:31:50.812995,163
2021-09-22 19:31:50.813001,182
2021-09-22 19:31:50.813007,199
2021-09-22 19:31:50.813013,218
2021-09-22 19:31:50.994533,240
2021-09-22 19:31:50.994550,270
2021-09-22 19:31:50.994557,304
2021-09-22 19:31:50.994564,335
2021-09-22 19:31:50.994570,357
2021-09-22 19:31:50.994576,374
2021-09-22 19:31:50.994582,372
2021-09-22 19:31:50.994588,350
2021-09-22 19:31:50.994593,313
2021-09-22 19:31:50.994599,270
2021-09-22 19:31:50.994605,209
2021-09-22 19:31:50.994611,107
2021-09-22 19:31:50.994617,-2
2021-09-22 19:31:50.994623,-77
2021-09-22 19:31:50.994629,-141
2021-09-22 19:31:50.994635,-194
2021-09-22 19:31:50.994641,-218
2021-09-22 19:31:50.994647,-231
2021-09-22 19:31:50.994653,-243
2021-09-22 19:31:50.994659,-248
2021-09-22 19:31:50.994664,-250
2021-09-22 19:31:50.994670,-248
2021-09-22 19:31:50.994676,-228
2021-09-22 19:31:50.994682,-211
2021-09-22 19:31:50.994688,-199
2021-09-22 19:31:50.994694,-182
2021-09-22 19:31:50.994699,-165
2021-09-22 19:31:50.994705,-148
2021-09-22 19:31:50.994711,-131
2021-09-22 19:31:50.994717,-121
2021-09-22 19:31:51.219178,-116
2021-09-22 19:31:51.219196,-107
2021-09-22 19:31:51.219204,-99
2021-09-22 19:31:51.219210,-90
2021-09-22 19:31:51.219216,-82
2021-09-22 19:31:51.219222,-87
2021-09-22 19:31:51.219228,-94
2021-09-22 19:31:51.219234,-82
2021-09-22 19:31:51.219240,-75
2021-09-22 19:31:51.219246,-85
2021-09-22 19:31:51.219252,-94
2021-09-22 19:31:51.219258,-104
2021-09-22 19:31:51.219264,-104
2021-09-22 19:31:51.219270,-99
2021-09-22 19:31:51.219276,-94
2021-09-22 19:31:51.219282,-87
2021-09-22 19:31:51.219288,-82
2021-09-22 19:31:51.219294,-80
2021-09-22 19:31:51.219300,-75
2021-09-22 19:31:51.219306,-68
2021-09-22 19:31:51.219312,-63
2021-09-22 19:31:51.219318,-60
2021-09-22 19:31:51.219324,-60
2021-09-22 19:31:51.219330,-63
2021-09-22 19:31:51.219336,-58
2021-09-22 19:31:51.219342,-48
2021-09-22 19:31:51.219348,-48
2021-09-22 19:31:51.219354,-58
2021-09-22 19:31:51.219360,-55
2021-09-22 19:31:51.219366,-34
2021-09-22 19:31:51.444170,-9
2021-09-22 19:31:51.444187,9
2021-09-22 19:31:51.444195,12
2021-09-22 19:31:51.444201,7
2021-09-22 19:31:51.444215,0
2021-09-22 19:31:51.444222,-17
2021-09-22 19:31:51.444228,-29
2021-09-22 19:31:51.444234,-31
2021-09-22 19:31:51.444241,-31
2021-09-22 19:31:51.444246,-34
2021-09-22 19:31:51.444253,-38
2021-09-22 19:31:51.444259,-46
2021-09-22 19:31:51.444265,-51
2021-09-22 19:31:51.444271,-46
2021-09-22 19:31:51.444276,-29
2021-09-22 19:31:51.444282,-7
2021-09-22 19:31:51.444288,48
2021-09-22 19:31:51.444294,199
2021-09-22 19:31:51.444300,464
2021-09-22 19:31:51.444306,598
2021-09-22 19:31:51.444312,323
2021-09-22 19:31:51.444318,-211
2021-09-22 19:31:51.444323,-666
2021-09-22 19:31:51.444329,-639
2021-09-22 19:31:51.444341,-214
2021-09-22 19:31:51.444347,-12
2021-09-22 19:31:51.444353,-34
2021-09-22 19:31:51.444359,55
2021-09-22 19:31:51.444381,114
2021-09-22 19:31:51.444387,80
2021-09-22 19:31:51.669181,97
2021-09-22 19:31:51.669199,133
2021-09-22 19:31:51.669207,128
2021-09-22 19:31:51.669213,131
2021-09-22 19:31:51.669219,141
2021-09-22 19:31:51.669225,150
2021-09-22 19:31:51.669231,170
2021-09-22 19:31:51.669237,184
2021-09-22 19:31:51.669243,189
2021-09-22 19:31:51.669249,197
2021-09-22 19:31:51.669255,206
2021-09-22 19:31:51.669261,228
2021-09-22 19:31:51.669267,260
2021-09-22 19:31:51.669273,291
2021-09-22 19:31:51.669279,313
2021-09-22 19:31:51.669285,330
2021-09-22 19:31:51.669291,350
2021-09-22 19:31:51.669297,362
2021-09-22 19:31:51.669303,357
2021-09-22 19:31:51.669308,333
2021-09-22 19:31:51.669314,287
2021-09-22 19:31:51.669320,221
2021-09-22 19:31:51.669326,133
2021-09-22 19:31:51.669332,41
2021-09-22 19:31:51.669338,-38
2021-09-22 19:31:51.669344,-104
2021-09-22 19:31:51.669349,-163
2021-09-22 19:31:51.669355,-199
2021-09-22 19:31:51.669361,-216
2021-09-22 19:31:51.669367,-218
2021-09-22 19:31:51.984246,-214
2021-09-22 19:31:51.984265,-211
2021-09-22 19:31:51.984272,-211
2021-09-22 19:31:51.984279,-206
2021-09-22 19:31:51.984284,-194
2021-09-22 19:31:51.984290,-172
2021-09-22 19:31:51.984296,-153
2021-09-22 19:31:51.984302,-138
2021-09-22 19:31:51.984317,-131
2021-09-22 19:31:51.984323,-128
2021-09-22 19:31:51.984329,-119
2021-09-22 19:31:51.984335,-102
2021-09-22 19:31:51.984341,-94
2021-09-22 19:31:51.984347,-85
2021-09-22 19:31:51.984356,-72
2021-09-22 19:31:51.984362,-75
2021-09-22 19:31:51.984368,-85
2021-09-22 19:31:51.984374,-75
2021-09-22 19:31:51.984380,-65
2021-09-22 19:31:51.984386,-70
2021-09-22 19:31:51.984392,-72
2021-09-22 19:31:51.984398,-72
2021-09-22 19:31:51.984404,-72
2021-09-22 19:31:51.984409,-72
2021-09-22 19:31:51.984415,-65
2021-09-22 19:31:51.984421,-60
2021-09-22 19:31:51.984427,-58
2021-09-22 19:31:51.984433,-63
2021-09-22 19:31:51.984438,-60
2021-09-22 19:31:51.984444,-51
2021-09-22 19:31:52.164130,-53
2021-09-22 19:31:52.164147,-63
2021-09-22 19:31:52.164154,-70
2021-09-22 19:31:52.164161,-70
2021-09-22 19:31:52.164167,-63
2021-09-22 19:31:52.164172,-55
2021-09-22 19:31:52.164178,-48
2021-09-22 19:31:52.164184,-46
2021-09-22 19:31:52.164190,-55
2021-09-22 19:31:52.164196,-60
2021-09-22 19:31:52.164202,-48
2021-09-22 19:31:52.164207,-29
2021-09-22 19:31:52.164213,-4
2021-09-22 19:31:52.164219,9
2021-09-22 19:31:52.164225,-2
2021-09-22 19:31:52.164231,-9
2021-09-22 19:31:52.164237,-4
2021-09-22 19:31:52.164243,-14
2021-09-22 19:31:52.164249,-38
2021-09-22 19:31:52.164254,-46
2021-09-22 19:31:52.164260,-41
2021-09-22 19:31:52.164272,-43
2021-09-22 19:31:52.164278,-38
2021-09-22 19:31:52.164284,-24
2021-09-22 19:31:52.164290,-19
2021-09-22 19:31:52.164296,-26
2021-09-22 19:31:52.164302,-24
2021-09-22 19:31:52.164308,12
2021-09-22 19:31:52.164314,102
2021-09-22 19:31:52.164320,306
2021-09-22 19:31:52.389199,571
2021-09-22 19:31:52.389217,571
2021-09-22 19:31:52.389225,163
2021-09-22 19:31:52.389231,-399
2021-09-22 19:31:52.389243,-698
2021-09-22 19:31:52.389250,-440
2021-09-22 19:31:52.389256,-55
2021-09-22 19:31:52.389262,0
2021-09-22 19:31:52.389268,12
2021-09-22 19:31:52.389274,124
2021-09-22 19:31:52.389280,136
2021-09-22 19:31:52.389286,104
2021-09-22 19:31:52.389292,131
2021-09-22 19:31:52.389298,148
2021-09-22 19:31:52.389304,136
2021-09-22 19:31:52.389310,148
2021-09-22 19:31:52.389315,177
2021-09-22 19:31:52.389321,192
2021-09-22 19:31:52.389327,204
2021-09-22 19:31:52.389333,221
2021-09-22 19:31:52.389339,233
2021-09-22 19:31:52.389345,240
2021-09-22 19:31:52.389351,257
2021-09-22 19:31:52.389357,287
2021-09-22 19:31:52.389363,311
2021-09-22 19:31:52.389369,330
2021-09-22 19:31:52.389375,355
2021-09-22 19:31:52.389381,384
2021-09-22 19:31:52.389387,396
2021-09-22 19:31:52.389392,391
2021-09-22 19:31:52.614200,377
2021-09-22 19:31:52.614218,350
2021-09-22 19:31:52.614225,306
2021-09-22 19:31:52.614231,231
2021-09-22 19:31:52.614237,131
2021-09-22 19:31:52.614243,36
2021-09-22 19:31:52.614249,-46
2021-09-22 19:31:52.614255,-131
2021-09-22 19:31:52.614261,-184
2021-09-22 19:31:52.614267,-204
2021-09-22 19:31:52.614273,-211
2021-09-22 19:31:52.614279,-216
2021-09-22 19:31:52.614285,-211
2021-09-22 19:31:52.614291,-211
2021-09-22 19:31:52.614296,-204
2021-09-22 19:31:52.614302,-184
2021-09-22 19:31:52.614308,-163
2021-09-22 19:31:52.614314,-155
2021-09-22 19:31:52.614320,-145
2021-09-22 19:31:52.614326,-124
2021-09-22 19:31:52.614332,-104
2021-09-22 19:31:52.614337,-99
2021-09-22 19:31:52.614343,-102
2021-09-22 19:31:52.614349,-97
2021-09-22 19:31:52.614362,-82
2021-09-22 19:31:52.614368,-77
2021-09-22 19:31:52.614374,-75
2021-09-22 19:31:52.614380,-70
2021-09-22 19:31:52.614386,-65
2021-09-22 19:31:52.614392,-60
2021-09-22 19:31:52.927822,-60
2021-09-22 19:31:52.927840,-53
2021-09-22 19:31:52.927847,-53
2021-09-22 19:31:52.927853,-63
2021-09-22 19:31:52.927859,-60
2021-09-22 19:31:52.927865,-53
2021-09-22 19:31:52.927871,-58
2021-09-22 19:31:52.927877,-65
2021-09-22 19:31:52.927883,-58
2021-09-22 19:31:52.927889,-48
2021-09-22 19:31:52.927895,-41
2021-09-22 19:31:52.927901,-38
2021-09-22 19:31:52.927907,-46
2021-09-22 19:31:52.927913,-43
2021-09-22 19:31:52.927919,-36
2021-09-22 19:31:52.927925,-38
2021-09-22 19:31:52.927931,-36
2021-09-22 19:31:52.927937,-26
2021-09-22 19:31:52.927943,-17
2021-09-22 19:31:52.927949,4
2021-09-22 19:31:52.927955,21
2021-09-22 19:31:52.927961,7
2021-09-22 19:31:52.927967,7
2021-09-22 19:31:52.927973,24
2021-09-22 19:31:52.927979,9
2021-09-22 19:31:52.927985,-19
2021-09-22 19:31:52.927990,-19
2021-09-22 19:31:52.927996,-14
2021-09-22 19:31:52.928002,-19
2021-09-22 19:31:52.928008,-21
2021-09-22 19:31:53.109120,-17
2021-09-22 19:31:53.109138,-9
2021-09-22 19:31:53.109146,-4
2021-09-22 19:31:53.109153,0
2021-09-22 19:31:53.109162,31
2021-09-22 19:31:53.109169,90
2021-09-22 19:31:53.109176,197
2021-09-22 19:31:53.109182,420
2021-09-22 19:31:53.109189,566
2021-09-22 19:31:53.109195,330
2021-09-22 19:31:53.109202,-184
2021-09-22 19:31:53.109208,-644
2021-09-22 19:31:53.109215,-635
2021-09-22 19:31:53.109221,-221
2021-09-22 19:31:53.109234,-14
2021-09-22 19:31:53.109240,-29
2021-09-22 19:31:53.109247,70
2021-09-22 19:31:53.109253,148
2021-09-22 19:31:53.109259,116
2021-09-22 19:31:53.109265,128
2021-09-22 19:31:53.109271,160
2021-09-22 19:31:53.109277,150
2021-09-22 19:31:53.109283,155
2021-09-22 19:31:53.109288,177
2021-09-22 19:31:53.109294,182
2021-09-22 19:31:53.109300,189
2021-09-22 19:31:53.109306,206
2021-09-22 19:31:53.109315,221
2021-09-22 19:31:53.109322,238
2021-09-22 19:31:53.109328,262
2021-09-22 19:31:53.289195,282
2021-09-22 19:31:53.289213,299
2021-09-22 19:31:53.289221,333
2021-09-22 19:31:53.289227,357
2021-09-22 19:31:53.289233,369
2021-09-22 19:31:53.289239,389
2021-09-22 19:31:53.289245,394
2021-09-22 19:31:53.289251,384
2021-09-22 19:31:53.289257,357
2021-09-22 19:31:53.289263,306
2021-09-22 19:31:53.289269,228
2021-09-22 19:31:53.289275,136
2021-09-22 19:31:53.289281,48
2021-09-22 19:31:53.289287,-19
2021-09-22 19:31:53.289293,-90
2021-09-22 19:31:53.289299,-153
2021-09-22 19:31:53.289305,-189
2021-09-22 19:31:53.289311,-218
2021-09-22 19:31:53.289317,-231
2021-09-22 19:31:53.289323,-216
2021-09-22 19:31:53.289329,-209
2021-09-22 19:31:53.289335,-204
2021-09-22 19:31:53.289341,-184
2021-09-22 19:31:53.289347,-167
2021-09-22 19:31:53.289353,-155
2021-09-22 19:31:53.289359,-138
2021-09-22 19:31:53.289365,-128
2021-09-22 19:31:53.289371,-119
2021-09-22 19:31:53.289377,-109
2021-09-22 19:31:53.289383,-94
2021-09-22 19:31:53.514189,-82
2021-09-22 19:31:53.514207,-77
2021-09-22 19:31:53.514214,-68
2021-09-22 19:31:53.514220,-63
2021-09-22 19:31:53.514227,-75
2021-09-22 19:31:53.514233,-82
2021-09-22 19:31:53.514239,-75
2021-09-22 19:31:53.514245,-72
2021-09-22 19:31:53.514251,-68
2021-09-22 19:31:53.514257,-70
2021-09-22 19:31:53.514263,-72
2021-09-22 19:31:53.514269,-68
2021-09-22 19:31:53.514275,-60
2021-09-22 19:31:53.514281,-63
2021-09-22 19:31:53.514287,-60
2021-09-22 19:31:53.514293,-51
2021-09-22 19:31:53.514299,-60
2021-09-22 19:31:53.514305,-82
2021-09-22 19:31:53.514311,-75
2021-09-22 19:31:53.514317,-55
2021-09-22 19:31:53.514323,-53
2021-09-22 19:31:53.514329,-53
2021-09-22 19:31:53.514335,-48
2021-09-22 19:31:53.514340,-51
2021-09-22 19:31:53.514346,-43
2021-09-22 19:31:53.514352,-19
2021-09-22 19:31:53.514358,2
2021-09-22 19:31:53.514364,-4
2021-09-22 19:31:53.514370,-9
2021-09-22 19:31:53.514375,7
2021-09-22 19:31:53.784208,-4
2021-09-22 19:31:53.784226,-36
2021-09-22 19:31:53.784234,-48
2021-09-22 19:31:53.784240,-58
2021-09-22 19:31:53.784246,-65
2021-09-22 19:31:53.784252,-51
2021-09-22 19:31:53.784258,-36
2021-09-22 19:31:53.784264,-36
2021-09-22 19:31:53.784270,-43
2021-09-22 19:31:53.784276,-48
2021-09-22 19:31:53.784282,-29
2021-09-22 19:31:53.784288,34
2021-09-22 19:31:53.784294,153
2021-09-22 19:31:53.784300,367
2021-09-22 19:31:53.784306,501
2021-09-22 19:31:53.784312,279
2021-09-22 19:31:53.784318,-201
2021-09-22 19:31:53.784324,-625
2021-09-22 19:31:53.784330,-632
2021-09-22 19:31:53.784336,-255
2021-09-22 19:31:53.784342,-48
2021-09-22 19:31:53.784348,-55
2021-09-22 19:31:53.784354,43
2021-09-22 19:31:53.784360,136
2021-09-22 19:31:53.784372,111
2021-09-22 19:31:53.784378,111
2021-09-22 19:31:53.784384,145
2021-09-22 19:31:53.784390,148
2021-09-22 19:31:53.784396,150
2021-09-22 19:31:53.784402,172
2021-09-22 19:31:54.009180,177
2021-09-22 19:31:54.009197,172
2021-09-22 19:31:54.009205,177
2021-09-22 19:31:54.009211,189
2021-09-22 19:31:54.009217,206
2021-09-22 19:31:54.009223,228
2021-09-22 19:31:54.009229,257
2021-09-22 19:31:54.009235,291
2021-09-22 19:31:54.009241,313
2021-09-22 19:31:54.009247,330
2021-09-22 19:31:54.009253,355
2021-09-22 19:31:54.009259,369
2021-09-22 19:31:54.009265,372
2021-09-22 19:31:54.009271,355
2021-09-22 19:31:54.009277,311
2021-09-22 19:31:54.009283,253
2021-09-22 19:31:54.009289,194
2021-09-22 19:31:54.009295,111
2021-09-22 19:31:54.009301,14
2021-09-22 19:31:54.009307,-65
2021-09-22 19:31:54.009313,-133
2021-09-22 19:31:54.009319,-194
2021-09-22 19:31:54.009325,-236
2021-09-22 19:31:54.009331,-257
2021-09-22 19:31:54.009337,-260
2021-09-22 19:31:54.009343,-257
2021-09-22 19:31:54.009348,-257
2021-09-22 19:31:54.009354,-248
2021-09-22 19:31:54.009360,-231
2021-09-22 19:31:54.009366,-216
2021-09-22 19:31:54.234262,-199
2021-09-22 19:31:54.234281,-184
2021-09-22 19:31:54.234289,-172
2021-09-22 19:31:54.234295,-167
2021-09-22 19:31:54.234302,-160
2021-09-22 19:31:54.234308,-148
2021-09-22 19:31:54.234314,-136
2021-09-22 19:31:54.234320,-133
2021-09-22 19:31:54.234327,-138
2021-09-22 19:31:54.234333,-131
2021-09-22 19:31:54.234339,-116
2021-09-22 19:31:54.234345,-114
2021-09-22 19:31:54.234351,-114
2021-09-22 19:31:54.234357,-111
2021-09-22 19:31:54.234363,-116
2021-09-22 19:31:54.234369,-121
2021-09-22 19:31:54.234375,-111
2021-09-22 19:31:54.234382,-109
2021-09-22 19:31:54.234388,-109
2021-09-22 19:31:54.234394,-111
2021-09-22 19:31:54.234400,-111
2021-09-22 19:31:54.234406,-107
2021-09-22 19:31:54.234412,-97
2021-09-22 19:31:54.234418,-90
2021-09-22 19:31:54.234424,-90
2021-09-22 19:31:54.234429,-94
2021-09-22 19:31:54.234435,-92
2021-09-22 19:31:54.234441,-87
2021-09-22 19:31:54.234447,-85
2021-09-22 19:31:54.234453,-77
2021-09-22 19:31:54.459197,-63
2021-09-22 19:31:54.459214,-41
2021-09-22 19:31:54.459222,-34
2021-09-22 19:31:54.459228,-43
2021-09-22 19:31:54.459234,-38
2021-09-22 19:31:54.459240,-26
2021-09-22 19:31:54.459246,-48
2021-09-22 19:31:54.459252,-87
2021-09-22 19:31:54.459258,-97
2021-09-22 19:31:54.459264,-90
2021-09-22 19:31:54.459270,-85
2021-09-22 19:31:54.459276,-80
2021-09-22 19:31:54.459282,-77
2021-09-22 19:31:54.459288,-85
2021-09-22 19:31:54.459294,-82
2021-09-22 19:31:54.459300,-68
2021-09-22 19:31:54.459306,-21
2021-09-22 19:31:54.459312,82
2021-09-22 19:31:54.459318,284
2021-09-22 19:31:54.459324,508
2021-09-22 19:31:54.459330,440
2021-09-22 19:31:54.459335,24
2021-09-22 19:31:54.459341,-479
2021-09-22 19:31:54.459347,-747
2021-09-22 19:31:54.459353,-503
2021-09-22 19:31:54.459359,-126
2021-09-22 19:31:54.459365,-65
2021-09-22 19:31:54.459371,-48
2021-09-22 19:31:54.459377,58
2021-09-22 19:31:54.459383,75
2021-09-22 19:31:54.684295,53
2021-09-22 19:31:54.684315,85
2021-09-22 19:31:54.684322,104
2021-09-22 19:31:54.684331,102
2021-09-22 19:31:54.684343,116
2021-09-22 19:31:54.684350,133
2021-09-22 19:31:54.684356,133
2021-09-22 19:31:54.684362,141
2021-09-22 19:31:54.684368,155
2021-09-22 19:31:54.684374,165
2021-09-22 19:31:54.684381,184
2021-09-22 19:31:54.684387,206
2021-09-22 19:31:54.684393,223
2021-09-22 19:31:54.684399,248
2021-09-22 19:31:54.684405,291
2021-09-22 19:31:54.684411,323
2021-09-22 19:31:54.684417,338
2021-09-22 19:31:54.684423,343
2021-09-22 19:31:54.684429,343
2021-09-22 19:31:54.684435,330
2021-09-22 19:31:54.684441,294
2021-09-22 19:31:54.684447,236
2021-09-22 19:31:54.684453,153
2021-09-22 19:31:54.684459,53
2021-09-22 19:31:54.684466,-46
2021-09-22 19:31:54.684472,-128
2021-09-22 19:31:54.684478,-184
2021-09-22 19:31:54.684484,-226
2021-09-22 19:31:54.684490,-248
2021-09-22 19:31:54.684496,-260
2021-09-22 19:31:54.952827,-272
2021-09-22 19:31:54.952845,-270
2021-09-22 19:31:54.952852,-257
2021-09-22 19:31:54.952859,-248
2021-09-22 19:31:54.952865,-233
2021-09-22 19:31:54.952871,-226
2021-09-22 19:31:54.952877,-218
2021-09-22 19:31:54.952883,-201
2021-09-22 19:31:54.952890,-182
2021-09-22 19:31:54.952896,-175
2021-09-22 19:31:54.952902,-170
2021-09-22 19:31:54.952908,-165
2021-09-22 19:31:54.952914,-163
2021-09-22 19:31:54.952920,-145
2021-09-22 19:31:54.952926,-133
2021-09-22 19:31:54.952932,-133
2021-09-22 19:31:54.952938,-126
2021-09-22 19:31:54.952944,-121
2021-09-22 19:31:54.952949,-121
2021-09-22 19:31:54.952955,-114
2021-09-22 19:31:54.952961,-109
2021-09-22 19:31:54.952967,-111
2021-09-22 19:31:54.952973,-109
2021-09-22 19:31:54.952979,-107
2021-09-22 19:31:54.952991,-104
2021-09-22 19:31:54.952998,-102
2021-09-22 19:31:54.953004,-97
2021-09-22 19:31:54.953010,-94
2021-09-22 19:31:54.953016,-94
2021-09-22 19:31:54.953022,-90
2021-09-22 19:31:55.134193,-82
2021-09-22 19:31:55.134211,-80
2021-09-22 19:31:55.134219,-90
2021-09-22 19:31:55.134225,-107
2021-09-22 19:31:55.134231,-116
2021-09-22 19:31:55.134237,-107
2021-09-22 19:31:55.134244,-90
2021-09-22 19:31:55.134249,-65
2021-09-22 19:31:55.134255,-48
2021-09-22 19:31:55.134262,-51
2021-09-22 19:31:55.134267,-51
2021-09-22 19:31:55.134273,-63
2021-09-22 19:31:55.134279,-87
2021-09-22 19:31:55.134285,-99
2021-09-22 19:31:55.134291,-99
2021-09-22 19:31:55.134297,-94
2021-09-22 19:31:55.134303,-92
2021-09-22 19:31:55.134309,-87
2021-09-22 19:31:55.134315,-80
2021-09-22 19:31:55.134321,-72
2021-09-22 19:31:55.134327,-68
2021-09-22 19:31:55.134333,-55
2021-09-22 19:31:55.134339,-12
2021-09-22 19:31:55.134345,94
2021-09-22 19:31:55.134351,321
2021-09-22 19:31:55.134357,549
2021-09-22 19:31:55.134362,452
2021-09-22 19:31:55.134368,12
2021-09-22 19:31:55.134374,-498
2021-09-22 19:31:55.134380,-754
2021-09-22 19:31:55.448661,-467
2021-09-22 19:31:55.448679,-80
2021-09-22 19:31:55.448686,-38
2021-09-22 19:31:55.448692,-14
2021-09-22 19:31:55.448699,90
2021-09-22 19:31:55.448705,87
2021-09-22 19:31:55.448711,72
2021-09-22 19:31:55.448717,114
2021-09-22 19:31:55.448723,126
2021-09-22 19:31:55.448729,114
2021-09-22 19:31:55.448735,121
2021-09-22 19:31:55.448741,138
2021-09-22 19:31:55.448748,150
2021-09-22 19:31:55.448753,165
2021-09-22 19:31:55.448759,177
2021-09-22 19:31:55.448765,184
2021-09-22 19:31:55.448770,204
2021-09-22 19:31:55.448778,233
2021-09-22 19:31:55.448783,265
2021-09-22 19:31:55.448790,296
2021-09-22 19:31:55.448795,321
2021-09-22 19:31:55.448801,343
2021-09-22 19:31:55.448806,362
2021-09-22 19:31:55.448812,372
2021-09-22 19:31:55.448817,369
2021-09-22 19:31:55.448822,355
2021-09-22 19:31:55.448828,321
2021-09-22 19:31:55.448833,260
2021-09-22 19:31:55.448839,177
2021-09-22 19:31:55.448844,82
2021-09-22 19:31:55.629168,-9
2021-09-22 19:31:55.629186,-85
2021-09-22 19:31:55.629193,-150
2021-09-22 19:31:55.629199,-211
2021-09-22 19:31:55.629205,-245
2021-09-22 19:31:55.629211,-253
2021-09-22 19:31:55.629217,-255
2021-09-22 19:31:55.629223,-245
2021-09-22 19:31:55.629229,-243
2021-09-22 19:31:55.629235,-260
2021-09-22 19:31:55.629241,-262
2021-09-22 19:31:55.629247,-233
2021-09-22 19:31:55.629253,-214
2021-09-22 19:31:55.629259,-199
2021-09-22 19:31:55.629265,-184
2021-09-22 19:31:55.629271,-180
2021-09-22 19:31:55.629277,-180
2021-09-22 19:31:55.629283,-167
2021-09-22 19:31:55.629289,-153
2021-09-22 19:31:55.629295,-141
2021-09-22 19:31:55.629301,-138
2021-09-22 19:31:55.629306,-136
2021-09-22 19:31:55.629312,-128
2021-09-22 19:31:55.629318,-121
2021-09-22 19:31:55.629324,-116
2021-09-22 19:31:55.629330,-111
2021-09-22 19:31:55.629336,-109
2021-09-22 19:31:55.629342,-119
2021-09-22 19:31:55.629347,-121
2021-09-22 19:31:55.629353,-114
2021-09-22 19:31:55.854274,-107
2021-09-22 19:31:55.854293,-104
2021-09-22 19:31:55.854301,-102
2021-09-22 19:31:55.854307,-102
2021-09-22 19:31:55.854319,-99
2021-09-22 19:31:55.854326,-87
2021-09-22 19:31:55.854332,-80
2021-09-22 19:31:55.854338,-82
2021-09-22 19:31:55.854344,-94
2021-09-22 19:31:55.854350,-104
2021-09-22 19:31:55.854361,-90
2021-09-22 19:31:55.854368,-60
2021-09-22 19:31:55.854374,-36
2021-09-22 19:31:55.854380,-29
2021-09-22 19:31:55.854386,-38
2021-09-22 19:31:55.854392,-51
2021-09-22 19:31:55.854398,-58
2021-09-22 19:31:55.854404,-68
2021-09-22 19:31:55.854410,-82
2021-09-22 19:31:55.854416,-85
2021-09-22 19:31:55.854422,-80
2021-09-22 19:31:55.854428,-80
2021-09-22 19:31:55.854434,-75
2021-09-22 19:31:55.854440,-68
2021-09-22 19:31:55.854446,-60
2021-09-22 19:31:55.854452,-51
2021-09-22 19:31:55.854458,-34
2021-09-22 19:31:55.854464,14
2021-09-22 19:31:55.854470,141
2021-09-22 19:31:55.854476,384
2021-09-22 19:31:56.079249,564
2021-09-22 19:31:56.079268,377
2021-09-22 19:31:56.079275,-102
2021-09-22 19:31:56.079281,-591
2021-09-22 19:31:56.079288,-712
2021-09-22 19:31:56.079294,-330
2021-09-22 19:31:56.079300,-24
2021-09-22 19:31:56.079306,-29
2021-09-22 19:31:56.079312,26
2021-09-22 19:31:56.079318,114
2021-09-22 19:31:56.079324,92
2021-09-22 19:31:56.079331,94
2021-09-22 19:31:56.079337,133
2021-09-22 19:31:56.079343,136
2021-09-22 19:31:56.079349,126
2021-09-22 19:31:56.079361,131
2021-09-22 19:31:56.079368,141
2021-09-22 19:31:56.079374,163
2021-09-22 19:31:56.079380,182
2021-09-22 19:31:56.079386,189
2021-09-22 19:31:56.079392,201
2021-09-22 19:31:56.079398,216
2021-09-22 19:31:56.079405,243
2021-09-22 19:31:56.079411,282
2021-09-22 19:31:56.079420,316
2021-09-22 19:31:56.079426,347
2021-09-22 19:31:56.079432,377
2021-09-22 19:31:56.079438,394
2021-09-22 19:31:56.079444,399
2021-09-22 19:31:56.079450,391
2021-09-22 19:31:56.304233,374
2021-09-22 19:31:56.304252,335
2021-09-22 19:31:56.304259,270
2021-09-22 19:31:56.304266,177
2021-09-22 19:31:56.304272,75
2021-09-22 19:31:56.304278,-12
2021-09-22 19:31:56.304284,-85
2021-09-22 19:31:56.304290,-150
2021-09-22 19:31:56.304296,-199
2021-09-22 19:31:56.304302,-221
2021-09-22 19:31:56.304309,-221
2021-09-22 19:31:56.304315,-216
2021-09-22 19:31:56.304321,-214
2021-09-22 19:31:56.304327,-211
2021-09-22 19:31:56.304332,-209
2021-09-22 19:31:56.304338,-199
2021-09-22 19:31:56.304344,-184
2021-09-22 19:31:56.304351,-170
2021-09-22 19:31:56.304357,-158
2021-09-22 19:31:56.304363,-150
2021-09-22 19:31:56.304369,-138
2021-09-22 19:31:56.304375,-121
2021-09-22 19:31:56.304381,-111
2021-09-22 19:31:56.304387,-114
2021-09-22 19:31:56.304393,-116
2021-09-22 19:31:56.304399,-111
2021-09-22 19:31:56.304404,-104
2021-09-22 19:31:56.304410,-97
2021-09-22 19:31:56.304426,-97
2021-09-22 19:31:56.304432,-97
2021-09-22 19:31:56.529214,-92
2021-09-22 19:31:56.529231,-87
2021-09-22 19:31:56.529238,-85
2021-09-22 19:31:56.529244,-85
2021-09-22 19:31:56.529250,-82
2021-09-22 19:31:56.529256,-75
2021-09-22 19:31:56.529262,-77
2021-09-22 19:31:56.529268,-85
2021-09-22 19:31:56.529274,-80
2021-09-22 19:31:56.529280,-75
2021-09-22 19:31:56.529286,-75
2021-09-22 19:31:56.529292,-60
2021-09-22 19:31:56.529298,-43
2021-09-22 19:31:56.529304,-36
2021-09-22 19:31:56.529316,-31
2021-09-22 19:31:56.529323,-21
2021-09-22 19:31:56.529329,-9
2021-09-22 19:31:56.529335,-17
2021-09-22 19:31:56.529341,-46
2021-09-22 19:31:56.529347,-68
2021-09-22 19:31:56.529353,-70
2021-09-22 19:31:56.529359,-72
2021-09-22 19:31:56.529365,-68
2021-09-22 19:31:56.529371,-60
2021-09-22 19:31:56.529377,-58
2021-09-22 19:31:56.529383,-55
2021-09-22 19:31:56.529389,-51
2021-09-22 19:31:56.529394,-31
2021-09-22 19:31:56.529400,19
2021-09-22 19:31:56.529406,119
2021-09-22 19:31:56.754239,311
2021-09-22 19:31:56.754256,506
2021-09-22 19:31:56.754263,401
2021-09-22 19:31:56.754270,-36
2021-09-22 19:31:56.754276,-537
2021-09-22 19:31:56.754282,-710
2021-09-22 19:31:56.754288,-377
2021-09-22 19:31:56.754294,-63
2021-09-22 19:31:56.754300,-46
2021-09-22 19:31:56.754306,14
2021-09-22 19:31:56.754312,124
2021-09-22 19:31:56.754318,111
2021-09-22 19:31:56.754324,92
2021-09-22 19:31:56.754330,133
2021-09-22 19:31:56.754336,150
2021-09-22 19:31:56.754342,150
2021-09-22 19:31:56.754348,170
2021-09-22 19:31:56.754354,177
2021-09-22 19:31:56.754360,182
2021-09-22 19:31:56.754366,204
2021-09-22 19:31:56.754372,218
2021-09-22 19:31:56.754378,228
2021-09-22 19:31:56.754384,260
2021-09-22 19:31:56.754390,294
2021-09-22 19:31:56.754396,318
2021-09-22 19:31:56.754402,345
2021-09-22 19:31:56.754408,374
2021-09-22 19:31:56.754414,391
2021-09-22 19:31:56.754420,399
2021-09-22 19:31:56.754426,401
2021-09-22 19:31:57.022879,391
2021-09-22 19:31:57.022897,374
2021-09-22 19:31:57.022904,343
2021-09-22 19:31:57.022910,282
2021-09-22 19:31:57.022922,187
2021-09-22 19:31:57.022929,80
2021-09-22 19:31:57.022935,-4
2021-09-22 19:31:57.022941,-63
2021-09-22 19:31:57.022947,-114
2021-09-22 19:31:57.022953,-160
2021-09-22 19:31:57.022959,-194
2021-09-22 19:31:57.022965,-221
2021-09-22 19:31:57.022971,-226
2021-09-22 19:31:57.022977,-206
2021-09-22 19:31:57.022983,-194
2021-09-22 19:31:57.022989,-189
2021-09-22 19:31:57.022995,-175
2021-09-22 19:31:57.023001,-158
2021-09-22 19:31:57.023007,-143
2021-09-22 19:31:57.023013,-126
2021-09-22 19:31:57.023019,-116
2021-09-22 19:31:57.023028,-119
2021-09-22 19:31:57.023035,-116
2021-09-22 19:31:57.023041,-107
2021-09-22 19:31:57.023047,-102
2021-09-22 19:31:57.023053,-102
2021-09-22 19:31:57.023059,-111
2021-09-22 19:31:57.023065,-124
2021-09-22 19:31:57.023071,-131
2021-09-22 19:31:57.023077,-128
2021-09-22 19:31:57.248733,-124
2021-09-22 19:31:57.248752,-121
2021-09-22 19:31:57.248759,-116
2021-09-22 19:31:57.248766,-114
2021-09-22 19:31:57.248772,-119
2021-09-22 19:31:57.248778,-128
2021-09-22 19:31:57.248784,-121
2021-09-22 19:31:57.248790,-111
2021-09-22 19:31:57.248796,-111
2021-09-22 19:31:57.248802,-119
2021-09-22 19:31:57.248809,-124
2021-09-22 19:31:57.248815,-119
2021-09-22 19:31:57.248821,-97
2021-09-22 19:31:57.248827,-70
2021-09-22 19:31:57.248833,-60
2021-09-22 19:31:57.248838,-63
2021-09-22 19:31:57.248844,-60
2021-09-22 19:31:57.248851,-53
2021-09-22 19:31:57.248856,-63
2021-09-22 19:31:57.248862,-80
2021-09-22 19:31:57.248868,-87
2021-09-22 19:31:57.248874,-82
2021-09-22 19:31:57.248880,-80
2021-09-22 19:31:57.248886,-75
2021-09-22 19:31:57.248899,-72
2021-09-22 19:31:57.248905,-68
2021-09-22 19:31:57.248911,-63
2021-09-22 19:31:57.248917,-55
2021-09-22 19:31:57.248923,-19
2021-09-22 19:31:57.248929,60
2021-09-22 19:31:57.474161,197
2021-09-22 19:31:57.474178,396
2021-09-22 19:31:57.474185,452
2021-09-22 19:31:57.474192,150
2021-09-22 19:31:57.474198,-364
2021-09-22 19:31:57.474204,-722
2021-09-22 19:31:57.474210,-576
2021-09-22 19:31:57.474216,-194
2021-09-22 19:31:57.474222,-85
2021-09-22 19:31:57.474228,-87
2021-09-22 19:31:57.474237,29
2021-09-22 19:31:57.474243,94
2021-09-22 19:31:57.474249,72
2021-09-22 19:31:57.474255,90
2021-09-22 19:31:57.474261,114
2021-09-22 19:31:57.474267,104
2021-09-22 19:31:57.474274,111
2021-09-22 19:31:57.474280,136
2021-09-22 19:31:57.474286,150
2021-09-22 19:31:57.474291,158
2021-09-22 19:31:57.474297,170
2021-09-22 19:31:57.474303,184
2021-09-22 19:31:57.474309,209
2021-09-22 19:31:57.474315,236
2021-09-22 19:31:57.474321,257
2021-09-22 19:31:57.474327,287
2021-09-22 19:31:57.474333,318
2021-09-22 19:31:57.474339,340
2021-09-22 19:31:57.474345,355
2021-09-22 19:31:57.474351,367
2021-09-22 19:31:57.699252,372
2021-09-22 19:31:57.699270,357
2021-09-22 19:31:57.699278,311
2021-09-22 19:31:57.699284,238
2021-09-22 19:31:57.699290,163
2021-09-22 19:31:57.699296,80
2021-09-22 19:31:57.699302,-12
2021-09-22 19:31:57.699308,-85
2021-09-22 19:31:57.699314,-143
2021-09-22 19:31:57.699321,-199
2021-09-22 19:31:57.699327,-223
2021-09-22 19:31:57.699333,-221
2021-09-22 19:31:57.699339,-221
2021-09-22 19:31:57.699345,-223
2021-09-22 19:31:57.699357,-223
2021-09-22 19:31:57.699363,-223
2021-09-22 19:31:57.699369,-214
2021-09-22 19:31:57.699376,-201
2021-09-22 19:31:57.699382,-189
2021-09-22 19:31:57.699387,-175
2021-09-22 19:31:57.699393,-160
2021-09-22 19:31:57.699399,-150
2021-09-22 19:31:57.699405,-136
2021-09-22 19:31:57.699411,-124
2021-09-22 19:31:57.699417,-119
2021-09-22 19:31:57.699423,-114
2021-09-22 19:31:57.699429,-107
2021-09-22 19:31:57.699435,-109
2021-09-22 19:31:57.699441,-111
2021-09-22 19:31:57.699447,-109
2021-09-22 19:31:58.013621,-111
2021-09-22 19:31:58.013640,-119
2021-09-22 19:31:58.013647,-119
2021-09-22 19:31:58.013653,-119
2021-09-22 19:31:58.013660,-119
2021-09-22 19:31:58.013666,-121
2021-09-22 19:31:58.013673,-124
2021-09-22 19:31:58.013679,-121
2021-09-22 19:31:58.013685,-133
2021-09-22 19:31:58.013691,-141
2021-09-22 19:31:58.013697,-136
2021-09-22 19:31:58.013703,-131
2021-09-22 19:31:58.013709,-126
2021-09-22 19:31:58.013715,-109
2021-09-22 19:31:58.013721,-94
2021-09-22 19:31:58.013727,-80
2021-09-22 19:31:58.013733,-75
2021-09-22 19:31:58.013740,-70
2021-09-22 19:31:58.013745,-72
2021-09-22 19:31:58.013751,-92
2021-09-22 19:31:58.013757,-111
2021-09-22 19:31:58.013764,-111
2021-09-22 19:31:58.013770,-104
2021-09-22 19:31:58.013776,-97
2021-09-22 19:31:58.013781,-90
2021-09-22 19:31:58.013787,-85
2021-09-22 19:31:58.013793,-85
2021-09-22 19:31:58.013805,-82
2021-09-22 19:31:58.013812,-68
2021-09-22 19:31:58.013818,-26
2021-09-22 19:31:58.193519,63
2021-09-22 19:31:58.193536,233
2021-09-22 19:31:58.193543,455
2021-09-22 19:31:58.193550,459
2021-09-22 19:31:58.193556,104
2021-09-22 19:31:58.193562,-377
2021-09-22 19:31:58.193569,-722
2021-09-22 19:31:58.193574,-618
2021-09-22 19:31:58.193581,-223
2021-09-22 19:31:58.193587,-80
2021-09-22 19:31:58.193592,-75
2021-09-22 19:31:58.193598,43
2021-09-22 19:31:58.193604,82
2021-09-22 19:31:58.193610,34
2021-09-22 19:31:58.193616,53
2021-09-22 19:31:58.193623,90
2021-09-22 19:31:58.193629,87
2021-09-22 19:31:58.193635,102
2021-09-22 19:31:58.193640,121
2021-09-22 19:31:58.193646,124
2021-09-22 19:31:58.193652,131
2021-09-22 19:31:58.193658,150
2021-09-22 19:31:58.193664,170
2021-09-22 19:31:58.193670,192
2021-09-22 19:31:58.193676,211
2021-09-22 19:31:58.193682,231
2021-09-22 19:31:58.193688,260
2021-09-22 19:31:58.193694,296
2021-09-22 19:31:58.193700,328
2021-09-22 19:31:58.193706,347
2021-09-22 19:31:58.419250,360
2021-09-22 19:31:58.419269,360
2021-09-22 19:31:58.419276,343
2021-09-22 19:31:58.419282,313
2021-09-22 19:31:58.419289,265
2021-09-22 19:31:58.419295,194
2021-09-22 19:31:58.419301,94
2021-09-22 19:31:58.419307,-9
2021-09-22 19:31:58.419313,-90
2021-09-22 19:31:58.419319,-155
2021-09-22 19:31:58.419325,-211
2021-09-22 19:31:58.419331,-236
2021-09-22 19:31:58.419337,-248
2021-09-22 19:31:58.419343,-257
2021-09-22 19:31:58.419349,-250
2021-09-22 19:31:58.419355,-238
2021-09-22 19:31:58.419361,-228
2021-09-22 19:31:58.419367,-214
2021-09-22 19:31:58.419373,-204
2021-09-22 19:31:58.419379,-194
2021-09-22 19:31:58.419385,-177
2021-09-22 19:31:58.419391,-160
2021-09-22 19:31:58.419400,-150
2021-09-22 19:31:58.419406,-148
2021-09-22 19:31:58.419419,-136
2021-09-22 19:31:58.419426,-121
2021-09-22 19:31:58.419432,-119
2021-09-22 19:31:58.419439,-121
2021-09-22 19:31:58.419445,-111
2021-09-22 19:31:58.419451,-99
2021-09-22 19:31:58.643727,-99
2021-09-22 19:31:58.643747,-99
2021-09-22 19:31:58.643754,-97
2021-09-22 19:31:58.643760,-104
2021-09-22 19:31:58.643766,-114
2021-09-22 19:31:58.643773,-116
2021-09-22 19:31:58.643779,-126
2021-09-22 19:31:58.643785,-128
2021-09-22 19:31:58.643791,-121
2021-09-22 19:31:58.643797,-119
2021-09-22 19:31:58.643803,-116
2021-09-22 19:31:58.643809,-114
2021-09-22 19:31:58.643815,-121
2021-09-22 19:31:58.643821,-121
2021-09-22 19:31:58.643827,-121
2021-09-22 19:31:58.643833,-131
2021-09-22 19:31:58.643839,-128
2021-09-22 19:31:58.643845,-109
2021-09-22 19:31:58.643851,-102
2021-09-22 19:31:58.643857,-92
2021-09-22 19:31:58.643863,-75
2021-09-22 19:31:58.643869,-82
2021-09-22 19:31:58.643875,-104
2021-09-22 19:31:58.643881,-109
2021-09-22 19:31:58.643887,-102
2021-09-22 19:31:58.643893,-99
2021-09-22 19:31:58.643899,-99
2021-09-22 19:31:58.643905,-94
2021-09-22 19:31:58.643911,-85
2021-09-22 19:31:58.643917,-80
2021-09-22 19:31:58.824219,-72
2021-09-22 19:31:58.824237,-41
2021-09-22 19:31:58.824244,34
2021-09-22 19:31:58.824250,189
2021-09-22 19:31:58.824256,442
2021-09-22 19:31:58.824263,523
2021-09-22 19:31:58.824268,194
2021-09-22 19:31:58.824274,-311
2021-09-22 19:31:58.824281,-712
2021-09-22 19:31:58.824286,-695
2021-09-22 19:31:58.824293,-265
2021-09-22 19:31:58.824299,-36
2021-09-22 19:31:58.824305,-55
2021-09-22 19:31:58.824311,29
2021-09-22 19:31:58.824322,90
2021-09-22 19:31:58.824329,58
2021-09-22 19:31:58.824335,72
2021-09-22 19:31:58.824341,102
2021-09-22 19:31:58.824347,97
2021-09-22 19:31:58.824353,109
2021-09-22 19:31:58.824359,133
2021-09-22 19:31:58.824365,143
2021-09-22 19:31:58.824371,153
2021-09-22 19:31:58.824377,170
2021-09-22 19:31:58.824383,187
2021-09-22 19:31:58.824389,206
2021-09-22 19:31:58.824395,228
2021-09-22 19:31:58.824401,248
2021-09-22 19:31:58.824407,274
2021-09-22 19:31:58.824412,306
2021-09-22 19:31:59.092957,338
2021-09-22 19:31:59.092975,364
2021-09-22 19:31:59.092983,379
2021-09-22 19:31:59.092989,382
2021-09-22 19:31:59.092996,362
2021-09-22 19:31:59.093002,328
2021-09-22 19:31:59.093008,289
2021-09-22 19:31:59.093014,228
2021-09-22 19:31:59.093020,133
2021-09-22 19:31:59.093026,29
2021-09-22 19:31:59.093032,-60
2021-09-22 19:31:59.093038,-136
2021-09-22 19:31:59.093044,-182
2021-09-22 19:31:59.093050,-206
2021-09-22 19:31:59.093056,-221
2021-09-22 19:31:59.093061,-236
2021-09-22 19:31:59.093067,-243
2021-09-22 19:31:59.093073,-231
2021-09-22 19:31:59.093079,-214
2021-09-22 19:31:59.093085,-204
2021-09-22 19:31:59.093091,-204
2021-09-22 19:31:59.093097,-206
2021-09-22 19:31:59.093103,-192
2021-09-22 19:31:59.093109,-172
2021-09-22 19:31:59.093115,-160
2021-09-22 19:31:59.093121,-145
2021-09-22 19:31:59.093127,-126
2021-09-22 19:31:59.093132,-119
2021-09-22 19:31:59.093138,-116
2021-09-22 19:31:59.093144,-116
2021-09-22 19:31:59.274329,-107
2021-09-22 19:31:59.274348,-99
2021-09-22 19:31:59.274355,-99
2021-09-22 19:31:59.274361,-107
2021-09-22 19:31:59.274368,-114
2021-09-22 19:31:59.274374,-107
2021-09-22 19:31:59.274380,-102
2021-09-22 19:31:59.274386,-102
2021-09-22 19:31:59.274392,-102
2021-09-22 19:31:59.274398,-114
2021-09-22 19:31:59.274404,-124
2021-09-22 19:31:59.274410,-116
2021-09-22 19:31:59.274416,-114
2021-09-22 19:31:59.274422,-116
2021-09-22 19:31:59.274428,-114
2021-09-22 19:31:59.274434,-111
2021-09-22 19:31:59.274440,-107
2021-09-22 19:31:59.274446,-109
2021-09-22 19:31:59.274452,-124
2021-09-22 19:31:59.274458,-121
2021-09-22 19:31:59.274464,-102
2021-09-22 19:31:59.274471,-85
2021-09-22 19:31:59.274477,-70
2021-09-22 19:31:59.274483,-65
2021-09-22 19:31:59.274489,-60
2021-09-22 19:31:59.274495,-48
2021-09-22 19:31:59.274501,-60
2021-09-22 19:31:59.274507,-87
2021-09-22 19:31:59.274513,-90
2021-09-22 19:31:59.274519,-75
2021-09-22 19:31:59.588657,-70
2021-09-22 19:31:59.588676,-68
2021-09-22 19:31:59.588684,-70
2021-09-22 19:31:59.588690,-75
2021-09-22 19:31:59.588696,-72
2021-09-22 19:31:59.588702,-65
2021-09-22 19:31:59.588708,-41
2021-09-22 19:31:59.588714,19
2021-09-22 19:31:59.588720,148
2021-09-22 19:31:59.588726,377
2021-09-22 19:31:59.588732,523
2021-09-22 19:31:59.588744,291
2021-09-22 19:31:59.588750,-206
2021-09-22 19:31:59.588756,-664
2021-09-22 19:31:59.588762,-729
2021-09-22 19:31:59.588768,-321
2021-09-22 19:31:59.588775,-29
2021-09-22 19:31:59.588781,-31
2021-09-22 19:31:59.588787,38
2021-09-22 19:31:59.588793,119
2021-09-22 19:31:59.588799,82
2021-09-22 19:31:59.588805,80
2021-09-22 19:31:59.588811,119
2021-09-22 19:31:59.588817,119
2021-09-22 19:31:59.588828,121
2021-09-22 19:31:59.588835,143
2021-09-22 19:31:59.588841,143
2021-09-22 19:31:59.588847,141
2021-09-22 19:31:59.588853,165
2021-09-22 19:31:59.588858,189
2021-09-22 19:31:59.769267,201
2021-09-22 19:31:59.769284,226
2021-09-22 19:31:59.769292,253
2021-09-22 19:31:59.769298,272
2021-09-22 19:31:59.769304,299
2021-09-22 19:31:59.769310,328
2021-09-22 19:31:59.769316,355
2021-09-22 19:31:59.769322,374
2021-09-22 19:31:59.769328,367
2021-09-22 19:31:59.769334,340
2021-09-22 19:31:59.769340,321
2021-09-22 19:31:59.769346,299
2021-09-22 19:31:59.769359,243
2021-09-22 19:31:59.769365,150
2021-09-22 19:31:59.769371,48
2021-09-22 19:31:59.769377,-38
2021-09-22 19:31:59.769383,-102
2021-09-22 19:31:59.769389,-150
2021-09-22 19:31:59.769395,-184
2021-09-22 19:31:59.769401,-204
2021-09-22 19:31:59.769407,-223
2021-09-22 19:31:59.769413,-233
2021-09-22 19:31:59.769419,-223
2021-09-22 19:31:59.769425,-209
2021-09-22 19:31:59.769431,-194
2021-09-22 19:31:59.769437,-180
2021-09-22 19:31:59.769443,-170
2021-09-22 19:31:59.769449,-155
2021-09-22 19:31:59.769455,-136
2021-09-22 19:31:59.769461,-124
2021-09-22 19:31:59.994279,-114
2021-09-22 19:31:59.994297,-102
2021-09-22 19:31:59.994304,-99
2021-09-22 19:31:59.994310,-99
2021-09-22 19:31:59.994316,-97
2021-09-22 19:31:59.994322,-87
2021-09-22 19:31:59.994329,-85
2021-09-22 19:31:59.994335,-94
2021-09-22 19:31:59.994341,-104
2021-09-22 19:31:59.994347,-97
2021-09-22 19:31:59.994353,-87
2021-09-22 19:31:59.994359,-94
2021-09-22 19:31:59.994365,-99
2021-09-22 19:31:59.994371,-102
2021-09-22 19:31:59.994382,-107
2021-09-22 19:31:59.994388,-109
2021-09-22 19:31:59.994394,-107
2021-09-22 19:31:59.994400,-107
2021-09-22 19:31:59.994406,-107
2021-09-22 19:31:59.994412,-104
2021-09-22 19:31:59.994418,-102
2021-09-22 19:31:59.994424,-99
2021-09-22 19:31:59.994430,-94
2021-09-22 19:31:59.994436,-92
2021-09-22 19:31:59.994442,-97
2021-09-22 19:31:59.994448,-102
2021-09-22 19:31:59.994453,-107
2021-09-22 19:31:59.994459,-104
2021-09-22 19:31:59.994465,-85
2021-09-22 19:31:59.994471,-60
2021-09-22 19:32:00.264363,-41
2021-09-22 19:32:00.264383,-43
2021-09-22 19:32:00.264390,-48
2021-09-22 19:32:00.264397,-53
2021-09-22 19:32:00.264403,-77
2021-09-22 19:32:00.264409,-92
2021-09-22 19:32:00.264415,-92
2021-09-22 19:32:00.264421,-94
2021-09-22 19:32:00.264427,-94
2021-09-22 19:32:00.264433,-82
2021-09-22 19:32:00.264439,-75
2021-09-22 19:32:00.264445,-72
2021-09-22 19:32:00.264451,-70
2021-09-22 19:32:00.264457,-65
2021-09-22 19:32:00.264463,-46
2021-09-22 19:32:00.264469,7
2021-09-22 19:32:00.264476,150
2021-09-22 19:32:00.264482,413
2021-09-22 19:32:00.264488,542
2021-09-22 19:32:00.264494,250
2021-09-22 19:32:00.264500,-284
2021-09-22 19:32:00.264506,-705
2021-09-22 19:32:00.264512,-674
2021-09-22 19:32:00.264518,-255
2021-09-22 19:32:00.264524,-29
2021-09-22 19:32:00.264530,-34
2021-09-22 19:32:00.264536,51
2021-09-22 19:32:00.264542,114
2021-09-22 19:32:00.264548,85
2021-09-22 19:32:00.264554,94
2021-09-22 19:32:00.444301,124
2021-09-22 19:32:00.444318,121
2021-09-22 19:32:00.444326,126
2021-09-22 19:32:00.444332,148
2021-09-22 19:32:00.444345,163
2021-09-22 19:32:00.444351,175
2021-09-22 19:32:00.444357,187
2021-09-22 19:32:00.444364,201
2021-09-22 19:32:00.444370,223
2021-09-22 19:32:00.444376,243
2021-09-22 19:32:00.444382,257
2021-09-22 19:32:00.444388,277
2021-09-22 19:32:00.444394,299
2021-09-22 19:32:00.444400,323
2021-09-22 19:32:00.444406,345
2021-09-22 19:32:00.444412,355
2021-09-22 19:32:00.444418,357
2021-09-22 19:32:00.444424,345
2021-09-22 19:32:00.444430,313
2021-09-22 19:32:00.444436,274
2021-09-22 19:32:00.444442,226
2021-09-22 19:32:00.444448,148
2021-09-22 19:32:00.444454,58
2021-09-22 19:32:00.444460,-26
2021-09-22 19:32:00.444466,-99
2021-09-22 19:32:00.444472,-148
2021-09-22 19:32:00.444478,-180
2021-09-22 19:32:00.444484,-201
2021-09-22 19:32:00.444490,-214
2021-09-22 19:32:00.444496,-218
2021-09-22 19:32:00.714233,-211
2021-09-22 19:32:00.714251,-192
2021-09-22 19:32:00.714259,-175
2021-09-22 19:32:00.714265,-167
2021-09-22 19:32:00.714271,-160
2021-09-22 19:32:00.714277,-155
2021-09-22 19:32:00.714283,-148
2021-09-22 19:32:00.714289,-141
2021-09-22 19:32:00.714295,-141
2021-09-22 19:32:00.714301,-138
2021-09-22 19:32:00.714307,-126
2021-09-22 19:32:00.714313,-126
2021-09-22 19:32:00.714319,-128
2021-09-22 19:32:00.714325,-114
2021-09-22 19:32:00.714331,-107
2021-09-22 19:32:00.714337,-119
2021-09-22 19:32:00.714342,-128
2021-09-22 19:32:00.714348,-128
2021-09-22 19:32:00.714354,-133
2021-09-22 19:32:00.714371,-131
2021-09-22 19:32:00.714377,-124
2021-09-22 19:32:00.714383,-124
2021-09-22 19:32:00.714389,-121
2021-09-22 19:32:00.714395,-116
2021-09-22 19:32:00.714404,-109
2021-09-22 19:32:00.714411,-104
2021-09-22 19:32:00.714417,-107
2021-09-22 19:32:00.714423,-107
2021-09-22 19:32:00.714429,-99
2021-09-22 19:32:00.714435,-97
2021-09-22 19:32:00.894311,-99
2021-09-22 19:32:00.894329,-92
2021-09-22 19:32:00.894336,-82
2021-09-22 19:32:00.894342,-82
2021-09-22 19:32:00.894349,-94
2021-09-22 19:32:00.894355,-99
2021-09-22 19:32:00.894361,-87
2021-09-22 19:32:00.894367,-63
2021-09-22 19:32:00.894373,-41
2021-09-22 19:32:00.894379,-34
2021-09-22 19:32:00.894386,-38
2021-09-22 19:32:00.894392,-38
2021-09-22 19:32:00.894398,-41
2021-09-22 19:32:00.894409,-55
2021-09-22 19:32:00.894416,-65
2021-09-22 19:32:00.894422,-63
2021-09-22 19:32:00.894428,-65
2021-09-22 19:32:00.894434,-65
2021-09-22 19:32:00.894440,-53
2021-09-22 19:32:00.894446,-46
2021-09-22 19:32:00.894452,-51
2021-09-22 19:32:00.894458,-51
2021-09-22 19:32:00.894464,-38
2021-09-22 19:32:00.894471,4
2021-09-22 19:32:00.894477,119
2021-09-22 19:32:00.894483,347
2021-09-22 19:32:00.894489,571
2021-09-22 19:32:00.894495,440
2021-09-22 19:32:00.894501,-53
2021-09-22 19:32:00.894507,-557
2021-09-22 19:32:01.207892,-700
2021-09-22 19:32:01.207909,-362
2021-09-22 19:32:01.207917,-53
2021-09-22 19:32:01.207923,-38
2021-09-22 19:32:01.207929,9
2021-09-22 19:32:01.207936,107
2021-09-22 19:32:01.207942,99
2021-09-22 19:32:01.207948,94
2021-09-22 19:32:01.207954,138
2021-09-22 19:32:01.207960,145
2021-09-22 19:32:01.207965,131
2021-09-22 19:32:01.207971,148
2021-09-22 19:32:01.207977,172
2021-09-22 19:32:01.207983,175
2021-09-22 19:32:01.207989,175
2021-09-22 19:32:01.207995,184
2021-09-22 19:32:01.208001,204
2021-09-22 19:32:01.208007,228
2021-09-22 19:32:01.208013,253
2021-09-22 19:32:01.208019,279
2021-09-22 19:32:01.208025,309
2021-09-22 19:32:01.208031,330
2021-09-22 19:32:01.208037,355
2021-09-22 19:32:01.208043,374
2021-09-22 19:32:01.208049,374
2021-09-22 19:32:01.208055,360
2021-09-22 19:32:01.208061,345
2021-09-22 19:32:01.208067,311
2021-09-22 19:32:01.208073,257
2021-09-22 19:32:01.208079,197
2021-09-22 19:32:01.433659,124
2021-09-22 19:32:01.433678,31
2021-09-22 19:32:01.433685,-58
2021-09-22 19:32:01.433691,-119
2021-09-22 19:32:01.433701,-158
2021-09-22 19:32:01.433707,-182
2021-09-22 19:32:01.433713,-189
2021-09-22 19:32:01.433719,-182
2021-09-22 19:32:01.433725,-177
2021-09-22 19:32:01.433731,-187
2021-09-22 19:32:01.433737,-189
2021-09-22 19:32:01.433743,-165
2021-09-22 19:32:01.433749,-136
2021-09-22 19:32:01.433755,-121
2021-09-22 19:32:01.433761,-116
2021-09-22 19:32:01.433767,-121
2021-09-22 19:32:01.433773,-116
2021-09-22 19:32:01.433779,-102
2021-09-22 19:32:01.433785,-99
2021-09-22 19:32:01.433791,-102
2021-09-22 19:32:01.433797,-99
2021-09-22 19:32:01.433803,-99
2021-09-22 19:32:01.433809,-102
2021-09-22 19:32:01.433815,-92
2021-09-22 19:32:01.433821,-82
2021-09-22 19:32:01.433826,-82
2021-09-22 19:32:01.433832,-85
2021-09-22 19:32:01.433838,-90
2021-09-22 19:32:01.433844,-80
2021-09-22 19:32:01.433850,-68
2021-09-22 19:32:01.704245,-68
2021-09-22 19:32:01.704263,-68
2021-09-22 19:32:01.704270,-70
2021-09-22 19:32:01.704277,-82
2021-09-22 19:32:01.704289,-80
2021-09-22 19:32:01.704295,-60
2021-09-22 19:32:01.704301,-53
2021-09-22 19:32:01.704307,-55
2021-09-22 19:32:01.704313,-68
2021-09-22 19:32:01.704320,-82
2021-09-22 19:32:01.704326,-70
2021-09-22 19:32:01.704332,-43
2021-09-22 19:32:01.704338,-21
2021-09-22 19:32:01.704344,-14
2021-09-22 19:32:01.704350,-24
2021-09-22 19:32:01.704356,-24
2021-09-22 19:32:01.704362,-14
2021-09-22 19:32:01.704368,-24
2021-09-22 19:32:01.704373,-55
2021-09-22 19:32:01.704379,-87
2021-09-22 19:32:01.704385,-82
2021-09-22 19:32:01.704391,-68
2021-09-22 19:32:01.704397,-63
2021-09-22 19:32:01.704403,-53
2021-09-22 19:32:01.704409,-43
2021-09-22 19:32:01.704415,-41
2021-09-22 19:32:01.704421,-31
2021-09-22 19:32:01.704427,4
2021-09-22 19:32:01.704433,82
2021-09-22 19:32:01.704439,248
2021-09-22 19:32:01.839274,464
2021-09-22 19:32:01.839291,445
2021-09-22 19:32:01.839298,48
2021-09-22 19:32:01.839304,-489
2021-09-22 19:32:01.839310,-732
2021-09-22 19:32:01.839317,-445
2021-09-22 19:32:01.839323,-87
2021-09-22 19:32:01.839329,-36
2021-09-22 19:32:01.839335,-4
2021-09-22 19:32:01.839341,116
2021-09-22 19:32:01.839347,143
2021-09-22 19:32:01.839353,121
2021-09-22 19:32:01.839359,148
2021-09-22 19:32:01.839365,163
2021-09-22 19:32:01.839371,158
2021-09-22 19:32:01.839377,167
2021-09-22 19:32:01.839383,187
2021-09-22 19:32:01.839389,199
2021-09-22 19:32:01.839395,209
2021-09-22 19:32:01.839406,218
2021-09-22 19:32:01.839413,228
2021-09-22 19:32:01.839419,245
2021-09-22 19:32:01.839425,272
2021-09-22 19:32:01.839431,304
2021-09-22 19:32:01.839440,328
2021-09-22 19:32:01.839446,343
2021-09-22 19:32:01.839451,360
2021-09-22 19:32:01.839457,379
2021-09-22 19:32:01.839463,386
2021-09-22 19:32:01.839469,377
2021-09-22 19:32:02.198634,352
2021-09-22 19:32:02.198651,313
2021-09-22 19:32:02.198658,255
2021-09-22 19:32:02.198665,182
2021-09-22 19:32:02.198671,104
2021-09-22 19:32:02.198677,26
2021-09-22 19:32:02.198683,-53
2021-09-22 19:32:02.198689,-126
2021-09-22 19:32:02.198695,-167
2021-09-22 19:32:02.198702,-189
2021-09-22 19:32:02.198707,-209
2021-09-22 19:32:02.198714,-211
2021-09-22 19:32:02.198720,-209
2021-09-22 19:32:02.198726,-211
2021-09-22 19:32:02.198732,-197
2021-09-22 19:32:02.198738,-180
2021-09-22 19:32:02.198744,-172
2021-09-22 19:32:02.198750,-160
2021-09-22 19:32:02.198756,-145
2021-09-22 19:32:02.198762,-145
2021-09-22 19:32:02.198768,-143
2021-09-22 19:32:02.198774,-131
2021-09-22 19:32:02.198780,-124
2021-09-22 19:32:02.198786,-124
2021-09-22 19:32:02.198792,-124
2021-09-22 19:32:02.198799,-128
2021-09-22 19:32:02.198804,-128
2021-09-22 19:32:02.198810,-124
2021-09-22 19:32:02.198816,-121
2021-09-22 19:32:02.198822,-114
2021-09-22 19:32:02.289289,-111
2021-09-22 19:32:02.289307,-121
2021-09-22 19:32:02.289314,-124
2021-09-22 19:32:02.289321,-116
2021-09-22 19:32:02.289327,-109
2021-09-22 19:32:02.289333,-102
2021-09-22 19:32:02.289339,-102
2021-09-22 19:32:02.289345,-111
2021-09-22 19:32:02.289351,-102
2021-09-22 19:32:02.289357,-87
2021-09-22 19:32:02.289363,-92
2021-09-22 19:32:02.289369,-94
2021-09-22 19:32:02.289375,-85
2021-09-22 19:32:02.289381,-92
2021-09-22 19:32:02.289392,-97
2021-09-22 19:32:02.289399,-82
2021-09-22 19:32:02.289405,-63
2021-09-22 19:32:02.289410,-48
2021-09-22 19:32:02.289416,-46
2021-09-22 19:32:02.289422,-43
2021-09-22 19:32:02.289428,-31
2021-09-22 19:32:02.289434,-31
2021-09-22 19:32:02.289440,-55
2021-09-22 19:32:02.289446,-77
2021-09-22 19:32:02.289452,-92
2021-09-22 19:32:02.289458,-87
2021-09-22 19:32:02.289464,-75
2021-09-22 19:32:02.289469,-70
2021-09-22 19:32:02.289475,-65
2021-09-22 19:32:02.289481,-65
2021-09-22 19:32:02.514292,-60
2021-09-22 19:32:02.514309,-38
2021-09-22 19:32:02.514316,9
2021-09-22 19:32:02.514323,99
2021-09-22 19:32:02.514329,282
2021-09-22 19:32:02.514335,469
2021-09-22 19:32:02.514341,357
2021-09-22 19:32:02.514348,-85
2021-09-22 19:32:02.514354,-579
2021-09-22 19:32:02.514360,-727
2021-09-22 19:32:02.514366,-396
2021-09-22 19:32:02.514372,-99
2021-09-22 19:32:02.514378,-90
2021-09-22 19:32:02.514384,-17
2021-09-22 19:32:02.514390,94
2021-09-22 19:32:02.514396,77
2021-09-22 19:32:02.514402,68
2021-09-22 19:32:02.514408,109
2021-09-22 19:32:02.514414,114
2021-09-22 19:32:02.514420,114
2021-09-22 19:32:02.514426,138
2021-09-22 19:32:02.514432,148
2021-09-22 19:32:02.514438,148
2021-09-22 19:32:02.514444,163
2021-09-22 19:32:02.514450,182
2021-09-22 19:32:02.514456,201
2021-09-22 19:32:02.514462,223
2021-09-22 19:32:02.514468,248
2021-09-22 19:32:02.514474,270
2021-09-22 19:32:02.514480,291
2021-09-22 19:32:02.739328,313
2021-09-22 19:32:02.739346,326
2021-09-22 19:32:02.739353,330
2021-09-22 19:32:02.739360,330
2021-09-22 19:32:02.739372,318
2021-09-22 19:32:02.739378,287
2021-09-22 19:32:02.739384,250
2021-09-22 19:32:02.739390,206
2021-09-22 19:32:02.739396,131
2021-09-22 19:32:02.739402,36
2021-09-22 19:32:02.739408,-51
2021-09-22 19:32:02.739414,-119
2021-09-22 19:32:02.739420,-172
2021-09-22 19:32:02.739426,-206
2021-09-22 19:32:02.739433,-226
2021-09-22 19:32:02.739439,-238
2021-09-22 19:32:02.739445,-245
2021-09-22 19:32:02.739451,-240
2021-09-22 19:32:02.739457,-226
2021-09-22 19:32:02.739463,-214
2021-09-22 19:32:02.739469,-206
2021-09-22 19:32:02.739475,-199
2021-09-22 19:32:02.739481,-192
2021-09-22 19:32:02.739487,-180
2021-09-22 19:32:02.739493,-160
2021-09-22 19:32:02.739502,-155
2021-09-22 19:32:02.739508,-153
2021-09-22 19:32:02.739514,-141
2021-09-22 19:32:02.739520,-133
2021-09-22 19:32:02.739526,-133
2021-09-22 19:32:03.009317,-124
2021-09-22 19:32:03.009334,-114
2021-09-22 19:32:03.009341,-114
2021-09-22 19:32:03.009348,-124
2021-09-22 19:32:03.009354,-126
2021-09-22 19:32:03.009360,-121
2021-09-22 19:32:03.009366,-116
2021-09-22 19:32:03.009372,-116
2021-09-22 19:32:03.009379,-119
2021-09-22 19:32:03.009385,-121
2021-09-22 19:32:03.009391,-131
2021-09-22 19:32:03.009397,-126
2021-09-22 19:32:03.009403,-109
2021-09-22 19:32:03.009409,-102
2021-09-22 19:32:03.009415,-102
2021-09-22 19:32:03.009421,-102
2021-09-22 19:32:03.009427,-97
2021-09-22 19:32:03.009433,-92
2021-09-22 19:32:03.009439,-92
2021-09-22 19:32:03.009445,-94
2021-09-22 19:32:03.009451,-99
2021-09-22 19:32:03.009458,-99
2021-09-22 19:32:03.009464,-102
2021-09-22 19:32:03.009470,-104
2021-09-22 19:32:03.009481,-97
2021-09-22 19:32:03.009487,-77
2021-09-22 19:32:03.009493,-58
2021-09-22 19:32:03.009499,-46
2021-09-22 19:32:03.009505,-43
2021-09-22 19:32:03.009511,-34
2021-09-22 19:32:03.277991,-21
2021-09-22 19:32:03.278010,-34
2021-09-22 19:32:03.278017,-60
2021-09-22 19:32:03.278024,-70
2021-09-22 19:32:03.278030,-65
2021-09-22 19:32:03.278036,-68
2021-09-22 19:32:03.278042,-85
2021-09-22 19:32:03.278048,-90
2021-09-22 19:32:03.278054,-82
2021-09-22 19:32:03.278060,-85
2021-09-22 19:32:03.278066,-80
2021-09-22 19:32:03.278072,-29
2021-09-22 19:32:03.278078,65
2021-09-22 19:32:03.278084,243
2021-09-22 19:32:03.278090,476
2021-09-22 19:32:03.278096,455
2021-09-22 19:32:03.278102,51
2021-09-22 19:32:03.278108,-457
2021-09-22 19:32:03.278114,-751
2021-09-22 19:32:03.278120,-564
2021-09-22 19:32:03.278126,-167
2021-09-22 19:32:03.278132,-63
2021-09-22 19:32:03.278138,-53
2021-09-22 19:32:03.278144,60
2021-09-22 19:32:03.278160,97
2021-09-22 19:32:03.278166,72
2021-09-22 19:32:03.278172,99
2021-09-22 19:32:03.278178,116
2021-09-22 19:32:03.278184,116
2021-09-22 19:32:03.278190,133
2021-09-22 19:32:03.459337,150
2021-09-22 19:32:03.459356,160
2021-09-22 19:32:03.459363,167
2021-09-22 19:32:03.459369,172
2021-09-22 19:32:03.459375,184
2021-09-22 19:32:03.459382,209
2021-09-22 19:32:03.459388,231
2021-09-22 19:32:03.459394,253
2021-09-22 19:32:03.459400,274
2021-09-22 19:32:03.459406,294
2021-09-22 19:32:03.459412,318
2021-09-22 19:32:03.459418,345
2021-09-22 19:32:03.459425,357
2021-09-22 19:32:03.459431,340
2021-09-22 19:32:03.459442,304
2021-09-22 19:32:03.459449,270
2021-09-22 19:32:03.459455,236
2021-09-22 19:32:03.459461,172
2021-09-22 19:32:03.459467,87
2021-09-22 19:32:03.459474,0
2021-09-22 19:32:03.459480,-80
2021-09-22 19:32:03.459486,-145
2021-09-22 19:32:03.459492,-194
2021-09-22 19:32:03.459498,-231
2021-09-22 19:32:03.459504,-250
2021-09-22 19:32:03.459511,-257
2021-09-22 19:32:03.459517,-262
2021-09-22 19:32:03.459523,-260
2021-09-22 19:32:03.459529,-245
2021-09-22 19:32:03.459535,-228
2021-09-22 19:32:03.684343,-211
2021-09-22 19:32:03.684361,-197
2021-09-22 19:32:03.684368,-187
2021-09-22 19:32:03.684374,-180
2021-09-22 19:32:03.684380,-170
2021-09-22 19:32:03.684386,-155
2021-09-22 19:32:03.684392,-138
2021-09-22 19:32:03.684398,-136
2021-09-22 19:32:03.684404,-141
2021-09-22 19:32:03.684410,-136
2021-09-22 19:32:03.684416,-124
2021-09-22 19:32:03.684422,-126
2021-09-22 19:32:03.684428,-136
2021-09-22 19:32:03.684434,-138
2021-09-22 19:32:03.684448,-148
2021-09-22 19:32:03.684455,-153
2021-09-22 19:32:03.684461,-136
2021-09-22 19:32:03.684467,-128
2021-09-22 19:32:03.684473,-128
2021-09-22 19:32:03.684479,-124
2021-09-22 19:32:03.684485,-121
2021-09-22 19:32:03.684490,-121
2021-09-22 19:32:03.684496,-109
2021-09-22 19:32:03.684502,-102
2021-09-22 19:32:03.684508,-109
2021-09-22 19:32:03.684514,-116
2021-09-22 19:32:03.684520,-114
2021-09-22 19:32:03.684526,-104
2021-09-22 19:32:03.684532,-97
2021-09-22 19:32:03.684538,-90
2021-09-22 19:32:03.909245,-85
2021-09-22 19:32:03.909263,-87
2021-09-22 19:32:03.909270,-102
2021-09-22 19:32:03.909277,-97
2021-09-22 19:32:03.909288,-75
2021-09-22 19:32:03.909295,-55
2021-09-22 19:32:03.909301,-41
2021-09-22 19:32:03.909307,-41
2021-09-22 19:32:03.909313,-41
2021-09-22 19:32:03.909319,-38
2021-09-22 19:32:03.909325,-48
2021-09-22 19:32:03.909331,-65
2021-09-22 19:32:03.909337,-72
2021-09-22 19:32:03.909343,-77
2021-09-22 19:32:03.909349,-77
2021-09-22 19:32:03.909355,-70
2021-09-22 19:32:03.909361,-63
2021-09-22 19:32:03.909366,-60
2021-09-22 19:32:03.909372,-58
2021-09-22 19:32:03.909378,-51
2021-09-22 19:32:03.909384,-21
2021-09-22 19:32:03.909390,58
2021-09-22 19:32:03.909396,233
2021-09-22 19:32:03.909402,489
2021-09-22 19:32:03.909408,528
2021-09-22 19:32:03.909414,163
2021-09-22 19:32:03.909420,-372
2021-09-22 19:32:03.909426,-739
2021-09-22 19:32:03.909432,-601
2021-09-22 19:32:03.909438,-175
2021-09-22 19:32:04.134273,-24
2021-09-22 19:32:04.134291,-24
2021-09-22 19:32:04.134298,75
2021-09-22 19:32:04.134304,111
2021-09-22 19:32:04.134310,85
2021-09-22 19:32:04.134317,107
2021-09-22 19:32:04.134322,126
2021-09-22 19:32:04.134328,119
2021-09-22 19:32:04.134335,128
2021-09-22 19:32:04.134341,138
2021-09-22 19:32:04.134347,145
2021-09-22 19:32:04.134353,163
2021-09-22 19:32:04.134359,177
2021-09-22 19:32:04.134365,187
2021-09-22 19:32:04.134371,209
2021-09-22 19:32:04.134377,228
2021-09-22 19:32:04.134383,245
2021-09-22 19:32:04.134389,265
2021-09-22 19:32:04.134395,279
2021-09-22 19:32:04.134401,304
2021-09-22 19:32:04.134406,328
2021-09-22 19:32:04.134412,335
2021-09-22 19:32:04.134418,330
2021-09-22 19:32:04.134424,321
2021-09-22 19:32:04.134436,296
2021-09-22 19:32:04.134442,253
2021-09-22 19:32:04.134448,187
2021-09-22 19:32:04.134454,99
2021-09-22 19:32:04.134460,2
2021-09-22 19:32:04.134466,-82
2021-09-22 19:32:04.359380,-150
2021-09-22 19:32:04.359399,-197
2021-09-22 19:32:04.359406,-231
2021-09-22 19:32:04.359413,-250
2021-09-22 19:32:04.359419,-260
2021-09-22 19:32:04.359425,-265
2021-09-22 19:32:04.359432,-267
2021-09-22 19:32:04.359438,-253
2021-09-22 19:32:04.359444,-233
2021-09-22 19:32:04.359450,-221
2021-09-22 19:32:04.359456,-206
2021-09-22 19:32:04.359462,-197
2021-09-22 19:32:04.359468,-194
2021-09-22 19:32:04.359475,-175
2021-09-22 19:32:04.359481,-155
2021-09-22 19:32:04.359487,-150
2021-09-22 19:32:04.359493,-143
2021-09-22 19:32:04.359499,-133
2021-09-22 19:32:04.359506,-128
2021-09-22 19:32:04.359512,-124
2021-09-22 19:32:04.359518,-116
2021-09-22 19:32:04.359524,-111
2021-09-22 19:32:04.359530,-111
2021-09-22 19:32:04.359536,-111
2021-09-22 19:32:04.359542,-107
2021-09-22 19:32:04.359548,-102
2021-09-22 19:32:04.359554,-104
2021-09-22 19:32:04.359561,-104
2021-09-22 19:32:04.359567,-99
2021-09-22 19:32:04.359573,-97
2021-09-22 19:32:04.628753,-99
2021-09-22 19:32:04.628771,-102
2021-09-22 19:32:04.628778,-99
2021-09-22 19:32:04.628785,-97
2021-09-22 19:32:04.628791,-94
2021-09-22 19:32:04.628797,-102
2021-09-22 19:32:04.628803,-99
2021-09-22 19:32:04.628809,-90
2021-09-22 19:32:04.628815,-80
2021-09-22 19:32:04.628821,-77
2021-09-22 19:32:04.628827,-80
2021-09-22 19:32:04.628833,-94
2021-09-22 19:32:04.628839,-97
2021-09-22 19:32:04.628845,-90
2021-09-22 19:32:04.628858,-87
2021-09-22 19:32:04.628864,-80
2021-09-22 19:32:04.628870,-55
2021-09-22 19:32:04.628876,-31
2021-09-22 19:32:04.628882,-24
2021-09-22 19:32:04.628888,-21
2021-09-22 19:32:04.628894,-19
2021-09-22 19:32:04.628900,-29
2021-09-22 19:32:04.628906,-46
2021-09-22 19:32:04.628911,-63
2021-09-22 19:32:04.628917,-77
2021-09-22 19:32:04.628923,-70
2021-09-22 19:32:04.628929,-60
2021-09-22 19:32:04.628935,-63
2021-09-22 19:32:04.628941,-63
2021-09-22 19:32:04.628947,-53
2021-09-22 19:32:04.809341,-43
2021-09-22 19:32:04.809358,-31
2021-09-22 19:32:04.809365,14
2021-09-22 19:32:04.809372,124
2021-09-22 19:32:04.809378,347
2021-09-22 19:32:04.809384,542
2021-09-22 19:32:04.809390,367
2021-09-22 19:32:04.809397,-143
2021-09-22 19:32:04.809403,-630
2021-09-22 19:32:04.809409,-729
2021-09-22 19:32:04.809415,-372
2021-09-22 19:32:04.809421,-75
2021-09-22 19:32:04.809427,-51
2021-09-22 19:32:04.809433,19
2021-09-22 19:32:04.809439,107
2021-09-22 19:32:04.809445,85
2021-09-22 19:32:04.809451,80
2021-09-22 19:32:04.809457,119
2021-09-22 19:32:04.809463,128
2021-09-22 19:32:04.809469,126
2021-09-22 19:32:04.809475,138
2021-09-22 19:32:04.809481,148
2021-09-22 19:32:04.809487,155
2021-09-22 19:32:04.809493,172
2021-09-22 19:32:04.809499,192
2021-09-22 19:32:04.809505,209
2021-09-22 19:32:04.809511,231
2021-09-22 19:32:04.809517,250
2021-09-22 19:32:04.809523,267
2021-09-22 19:32:04.809529,294
2021-09-22 19:32:05.079358,318
2021-09-22 19:32:05.079375,335
2021-09-22 19:32:05.079382,345
2021-09-22 19:32:05.079389,340
2021-09-22 19:32:05.079402,321
2021-09-22 19:32:05.079408,299
2021-09-22 19:32:05.079415,270
2021-09-22 19:32:05.079421,218
2021-09-22 19:32:05.079427,141
2021-09-22 19:32:05.079433,43
2021-09-22 19:32:05.079439,-53
2021-09-22 19:32:05.079445,-124
2021-09-22 19:32:05.079451,-172
2021-09-22 19:32:05.079457,-221
2021-09-22 19:32:05.079463,-253
2021-09-22 19:32:05.079469,-262
2021-09-22 19:32:05.079475,-260
2021-09-22 19:32:05.079481,-253
2021-09-22 19:32:05.079487,-238
2021-09-22 19:32:05.079492,-223
2021-09-22 19:32:05.079498,-211
2021-09-22 19:32:05.079504,-204
2021-09-22 19:32:05.079510,-184
2021-09-22 19:32:05.079516,-160
2021-09-22 19:32:05.079522,-153
2021-09-22 19:32:05.079528,-150
2021-09-22 19:32:05.079534,-136
2021-09-22 19:32:05.079539,-124
2021-09-22 19:32:05.079545,-124
2021-09-22 19:32:05.079551,-126
2021-09-22 19:32:05.393062,-126
2021-09-22 19:32:05.393080,-119
2021-09-22 19:32:05.393088,-114
2021-09-22 19:32:05.393094,-121
2021-09-22 19:32:05.393101,-121
2021-09-22 19:32:05.393107,-111
2021-09-22 19:32:05.393113,-114
2021-09-22 19:32:05.393119,-124
2021-09-22 19:32:05.393125,-128
2021-09-22 19:32:05.393131,-128
2021-09-22 19:32:05.393137,-121
2021-09-22 19:32:05.393143,-114
2021-09-22 19:32:05.393149,-107
2021-09-22 19:32:05.393155,-104
2021-09-22 19:32:05.393162,-107
2021-09-22 19:32:05.393168,-119
2021-09-22 19:32:05.393174,-114
2021-09-22 19:32:05.393180,-97
2021-09-22 19:32:05.393186,-82
2021-09-22 19:32:05.393192,-82
2021-09-22 19:32:05.393198,-87
2021-09-22 19:32:05.393204,-90
2021-09-22 19:32:05.393210,-82
2021-09-22 19:32:05.393216,-72
2021-09-22 19:32:05.393228,-75
2021-09-22 19:32:05.393234,-80
2021-09-22 19:32:05.393240,-80
2021-09-22 19:32:05.393246,-65
2021-09-22 19:32:05.393253,-36
2021-09-22 19:32:05.393259,-12
2021-09-22 19:32:05.573751,-12
2021-09-22 19:32:05.573769,-14
2021-09-22 19:32:05.573776,-12
2021-09-22 19:32:05.573782,-34
2021-09-22 19:32:05.573788,-55
2021-09-22 19:32:05.573795,-55
2021-09-22 19:32:05.573801,-43
2021-09-22 19:32:05.573807,-36
2021-09-22 19:32:05.573813,-41
2021-09-22 19:32:05.573819,-51
2021-09-22 19:32:05.573825,-48
2021-09-22 19:32:05.573831,-36
2021-09-22 19:32:05.573837,-26
2021-09-22 19:32:05.573843,-7
2021-09-22 19:32:05.573849,48
2021-09-22 19:32:05.573855,201
2021-09-22 19:32:05.573861,459
2021-09-22 19:32:05.573867,549
2021-09-22 19:32:05.573873,204
2021-09-22 19:32:05.573879,-372
2021-09-22 19:32:05.573885,-749
2021-09-22 19:32:05.573891,-605
2021-09-22 19:32:05.573897,-192
2021-09-22 19:32:05.573903,-31
2021-09-22 19:32:05.573908,-19
2021-09-22 19:32:05.573914,82
2021-09-22 19:32:05.573920,119
2021-09-22 19:32:05.573926,85
2021-09-22 19:32:05.573932,107
2021-09-22 19:32:05.573938,133
2021-09-22 19:32:05.844284,131
2021-09-22 19:32:05.844301,138
2021-09-22 19:32:05.844308,153
2021-09-22 19:32:05.844315,160
2021-09-22 19:32:05.844321,167
2021-09-22 19:32:05.844327,180
2021-09-22 19:32:05.844333,180
2021-09-22 19:32:05.844339,180
2021-09-22 19:32:05.844345,197
2021-09-22 19:32:05.844351,221
2021-09-22 19:32:05.844357,243
2021-09-22 19:32:05.844364,267
2021-09-22 19:32:05.844370,289
2021-09-22 19:32:05.844389,304
2021-09-22 19:32:05.844399,309
2021-09-22 19:32:05.844406,304
2021-09-22 19:32:05.844412,291
2021-09-22 19:32:05.844418,265
2021-09-22 19:32:05.844424,216
2021-09-22 19:32:05.844430,150
2021-09-22 19:32:05.844436,72
2021-09-22 19:32:05.844442,-12
2021-09-22 19:32:05.844448,-92
2021-09-22 19:32:05.844454,-155
2021-09-22 19:32:05.844460,-199
2021-09-22 19:32:05.844466,-233
2021-09-22 19:32:05.844472,-248
2021-09-22 19:32:05.844478,-250
2021-09-22 19:32:05.844484,-248
2021-09-22 19:32:05.844490,-238
2021-09-22 19:32:06.024354,-228
2021-09-22 19:32:06.024371,-216
2021-09-22 19:32:06.024378,-199
2021-09-22 19:32:06.024385,-180
2021-09-22 19:32:06.024391,-165
2021-09-22 19:32:06.024397,-153
2021-09-22 19:32:06.024404,-148
2021-09-22 19:32:06.024410,-143
2021-09-22 19:32:06.024416,-131
2021-09-22 19:32:06.024422,-126
2021-09-22 19:32:06.024428,-116
2021-09-22 19:32:06.024434,-107
2021-09-22 19:32:06.024441,-102
2021-09-22 19:32:06.024447,-107
2021-09-22 19:32:06.024453,-109
2021-09-22 19:32:06.024459,-104
2021-09-22 19:32:06.024465,-99
2021-09-22 19:32:06.024471,-102
2021-09-22 19:32:06.024477,-107
2021-09-22 19:32:06.024483,-109
2021-09-22 19:32:06.024489,-109
2021-09-22 19:32:06.024495,-109
2021-09-22 19:32:06.024501,-104
2021-09-22 19:32:06.024506,-99
2021-09-22 19:32:06.024512,-107
2021-09-22 19:32:06.024518,-109
2021-09-22 19:32:06.024524,-97
2021-09-22 19:32:06.024530,-92
2021-09-22 19:32:06.024536,-90
2021-09-22 19:32:06.024542,-82
2021-09-22 19:32:06.204246,-77
2021-09-22 19:32:06.204263,-72
2021-09-22 19:32:06.204271,-75
2021-09-22 19:32:06.204277,-82
2021-09-22 19:32:06.204283,-77
2021-09-22 19:32:06.204289,-70
2021-09-22 19:32:06.204295,-77
2021-09-22 19:32:06.204302,-85
2021-09-22 19:32:06.204308,-80
2021-09-22 19:32:06.204314,-68
2021-09-22 19:32:06.204330,-46
2021-09-22 19:32:06.204336,-31
2021-09-22 19:32:06.204342,-34
2021-09-22 19:32:06.204348,-36
2021-09-22 19:32:06.204354,-26
2021-09-22 19:32:06.204360,-43
2021-09-22 19:32:06.204366,-72
2021-09-22 19:32:06.204372,-82
2021-09-22 19:32:06.204378,-82
2021-09-22 19:32:06.204384,-77
2021-09-22 19:32:06.204390,-70
2021-09-22 19:32:06.204396,-68
2021-09-22 19:32:06.204402,-63
2021-09-22 19:32:06.204408,-63
2021-09-22 19:32:06.204414,-60
2021-09-22 19:32:06.204420,-38
2021-09-22 19:32:06.204426,17
2021-09-22 19:32:06.204432,121
2021-09-22 19:32:06.204438,345
2021-09-22 19:32:06.204444,557
2021-09-22 19:32:06.429341,394
2021-09-22 19:32:06.429359,-136
2021-09-22 19:32:06.429366,-642
2021-09-22 19:32:06.429373,-720
2021-09-22 19:32:06.429379,-350
2021-09-22 19:32:06.429385,-70
2021-09-22 19:32:06.429391,-48
2021-09-22 19:32:06.429397,36
2021-09-22 19:32:06.429403,121
2021-09-22 19:32:06.429409,82
2021-09-22 19:32:06.429416,68
2021-09-22 19:32:06.429422,102
2021-09-22 19:32:06.429428,107
2021-09-22 19:32:06.429434,107
2021-09-22 19:32:06.429440,131
2021-09-22 19:32:06.429445,143
2021-09-22 19:32:06.429451,153
2021-09-22 19:32:06.429457,165
2021-09-22 19:32:06.429463,175
2021-09-22 19:32:06.429469,187
2021-09-22 19:32:06.429475,204
2021-09-22 19:32:06.429481,218
2021-09-22 19:32:06.429487,228
2021-09-22 19:32:06.429493,245
2021-09-22 19:32:06.429505,277
2021-09-22 19:32:06.429511,309
2021-09-22 19:32:06.429517,321
2021-09-22 19:32:06.429523,318
2021-09-22 19:32:06.429529,311
2021-09-22 19:32:06.429534,291
2021-09-22 19:32:06.654432,257
2021-09-22 19:32:06.654451,209
2021-09-22 19:32:06.654458,138
2021-09-22 19:32:06.654464,51
2021-09-22 19:32:06.654470,-36
2021-09-22 19:32:06.654476,-109
2021-09-22 19:32:06.654482,-160
2021-09-22 19:32:06.654488,-206
2021-09-22 19:32:06.654494,-233
2021-09-22 19:32:06.654500,-240
2021-09-22 19:32:06.654506,-248
2021-09-22 19:32:06.654512,-243
2021-09-22 19:32:06.654518,-223
2021-09-22 19:32:06.654524,-206
2021-09-22 19:32:06.654530,-192
2021-09-22 19:32:06.654536,-180
2021-09-22 19:32:06.654542,-167
2021-09-22 19:32:06.654548,-163
2021-09-22 19:32:06.654554,-158
2021-09-22 19:32:06.654566,-143
2021-09-22 19:32:06.654572,-133
2021-09-22 19:32:06.654579,-133
2021-09-22 19:32:06.654585,-133
2021-09-22 19:32:06.654591,-126
2021-09-22 19:32:06.654597,-116
2021-09-22 19:32:06.654603,-109
2021-09-22 19:32:06.654609,-104
2021-09-22 19:32:06.654615,-102
2021-09-22 19:32:06.654621,-104
2021-09-22 19:32:06.654627,-102
2021-09-22 19:32:06.924365,-97
2021-09-22 19:32:06.924383,-90
2021-09-22 19:32:06.924390,-87
2021-09-22 19:32:06.924396,-94
2021-09-22 19:32:06.924402,-104
2021-09-22 19:32:06.924408,-102
2021-09-22 19:32:06.924415,-97
2021-09-22 19:32:06.924421,-92
2021-09-22 19:32:06.924427,-87
2021-09-22 19:32:06.924433,-90
2021-09-22 19:32:06.924439,-94
2021-09-22 19:32:06.924445,-82
2021-09-22 19:32:06.924451,-70
2021-09-22 19:32:06.924457,-70
2021-09-22 19:32:06.924469,-70
2021-09-22 19:32:06.924475,-70
2021-09-22 19:32:06.924481,-68
2021-09-22 19:32:06.924487,-58
2021-09-22 19:32:06.924494,-53
2021-09-22 19:32:06.924500,-58
2021-09-22 19:32:06.924506,-68
2021-09-22 19:32:06.924512,-75
2021-09-22 19:32:06.924518,-63
2021-09-22 19:32:06.924524,-34
2021-09-22 19:32:06.924530,-9
2021-09-22 19:32:06.924536,-7
2021-09-22 19:32:06.924542,-7
2021-09-22 19:32:06.924548,-7
2021-09-22 19:32:06.924554,-19
2021-09-22 19:32:06.924560,-36
2021-09-22 19:32:07.328221,-38
2021-09-22 19:32:07.328240,-34
2021-09-22 19:32:07.328248,-41
2021-09-22 19:32:07.328254,-46
2021-09-22 19:32:07.328261,-41
2021-09-22 19:32:07.328267,-34
2021-09-22 19:32:07.328273,-31
2021-09-22 19:32:07.328280,-24
2021-09-22 19:32:07.328286,-4
2021-09-22 19:32:07.328292,46
2021-09-22 19:32:07.328298,197
2021-09-22 19:32:07.328304,464
2021-09-22 19:32:07.328311,581
2021-09-22 19:32:07.328317,257
2021-09-22 19:32:07.328323,-333
2021-09-22 19:32:07.328329,-737
2021-09-22 19:32:07.328336,-618
2021-09-22 19:32:07.328342,-206
2021-09-22 19:32:07.328348,-36
2021-09-22 19:32:07.328354,-26
2021-09-22 19:32:07.328360,72
2021-09-22 19:32:07.328366,109
2021-09-22 19:32:07.328373,65
2021-09-22 19:32:07.328379,72
2021-09-22 19:32:07.328385,94
2021-09-22 19:32:07.328391,102
2021-09-22 19:32:07.328397,109
2021-09-22 19:32:07.328404,119
2021-09-22 19:32:07.328410,128
2021-09-22 19:32:07.328416,141
2021-09-22 19:32:07.463025,153
2021-09-22 19:32:07.463042,163
2021-09-22 19:32:07.463049,170
2021-09-22 19:32:07.463056,184
2021-09-22 19:32:07.463068,209
2021-09-22 19:32:07.463075,236
2021-09-22 19:32:07.463081,267
2021-09-22 19:32:07.463087,291
2021-09-22 19:32:07.463093,301
2021-09-22 19:32:07.463099,301
2021-09-22 19:32:07.463105,309
2021-09-22 19:32:07.463111,301
2021-09-22 19:32:07.463117,272
2021-09-22 19:32:07.463123,236
2021-09-22 19:32:07.463130,180
2021-09-22 19:32:07.463136,99
2021-09-22 19:32:07.463142,19
2021-09-22 19:32:07.463148,-53
2021-09-22 19:32:07.463154,-124
2021-09-22 19:32:07.463160,-177
2021-09-22 19:32:07.463166,-216
2021-09-22 19:32:07.463172,-238
2021-09-22 19:32:07.463178,-243
2021-09-22 19:32:07.463184,-236
2021-09-22 19:32:07.463190,-226
2021-09-22 19:32:07.463196,-218
2021-09-22 19:32:07.463202,-209
2021-09-22 19:32:07.463208,-194
2021-09-22 19:32:07.463214,-177
2021-09-22 19:32:07.463220,-163
2021-09-22 19:32:07.599382,-148
2021-09-22 19:32:07.599399,-136
2021-09-22 19:32:07.599407,-126
2021-09-22 19:32:07.599413,-116
2021-09-22 19:32:07.599419,-107
2021-09-22 19:32:07.599426,-99
2021-09-22 19:32:07.599432,-94
2021-09-22 19:32:07.599438,-97
2021-09-22 19:32:07.599444,-102
2021-09-22 19:32:07.599450,-99
2021-09-22 19:32:07.599456,-94
2021-09-22 19:32:07.599462,-97
2021-09-22 19:32:07.599468,-99
2021-09-22 19:32:07.599474,-107
2021-09-22 19:32:07.599480,-109
2021-09-22 19:32:07.599486,-99
2021-09-22 19:32:07.599500,-94
2021-09-22 19:32:07.599506,-92
2021-09-22 19:32:07.599512,-90
2021-09-22 19:32:07.599518,-92
2021-09-22 19:32:07.599523,-99
2021-09-22 19:32:07.599529,-94
2021-09-22 19:32:07.599535,-85
2021-09-22 19:32:07.599541,-80
2021-09-22 19:32:07.599550,-80
2021-09-22 19:32:07.599559,-77
2021-09-22 19:32:07.599565,-77
2021-09-22 19:32:07.599571,-80
2021-09-22 19:32:07.599577,-85
2021-09-22 19:32:07.599583,-90
2021-09-22 19:32:07.824318,-87
2021-09-22 19:32:07.824335,-82
2021-09-22 19:32:07.824342,-77
2021-09-22 19:32:07.824348,-75
2021-09-22 19:32:07.824355,-80
2021-09-22 19:32:07.824360,-82
2021-09-22 19:32:07.824366,-80
2021-09-22 19:32:07.824373,-68
2021-09-22 19:32:07.824379,-38
2021-09-22 19:32:07.824385,-24
2021-09-22 19:32:07.824391,-24
2021-09-22 19:32:07.824397,-19
2021-09-22 19:32:07.824403,-29
2021-09-22 19:32:07.824408,-53
2021-09-22 19:32:07.824414,-65
2021-09-22 19:32:07.824421,-60
2021-09-22 19:32:07.824426,-55
2021-09-22 19:32:07.824432,-53
2021-09-22 19:32:07.824438,-55
2021-09-22 19:32:07.824444,-53
2021-09-22 19:32:07.824450,-43
2021-09-22 19:32:07.824456,-38
2021-09-22 19:32:07.824462,-24
2021-09-22 19:32:07.824468,31
2021-09-22 19:32:07.824474,150
2021-09-22 19:32:07.824480,382
2021-09-22 19:32:07.824486,574
2021-09-22 19:32:07.824492,372
2021-09-22 19:32:07.824498,-180
2021-09-22 19:32:07.824504,-671
2021-09-22 19:32:08.138783,-717
2021-09-22 19:32:08.138801,-330
2021-09-22 19:32:08.138808,-58
2021-09-22 19:32:08.138814,-41
2021-09-22 19:32:08.138821,36
2021-09-22 19:32:08.138827,111
2021-09-22 19:32:08.138833,75
2021-09-22 19:32:08.138839,68
2021-09-22 19:32:08.138845,102
2021-09-22 19:32:08.138851,102
2021-09-22 19:32:08.138857,102
2021-09-22 19:32:08.138863,114
2021-09-22 19:32:08.138869,114
2021-09-22 19:32:08.138875,121
2021-09-22 19:32:08.138888,141
2021-09-22 19:32:08.138894,158
2021-09-22 19:32:08.138900,175
2021-09-22 19:32:08.138906,192
2021-09-22 19:32:08.138912,211
2021-09-22 19:32:08.138918,236
2021-09-22 19:32:08.138925,260
2021-09-22 19:32:08.138931,277
2021-09-22 19:32:08.138937,301
2021-09-22 19:32:08.138943,321
2021-09-22 19:32:08.138949,321
2021-09-22 19:32:08.138955,311
2021-09-22 19:32:08.138961,291
2021-09-22 19:32:08.138967,255
2021-09-22 19:32:08.138973,206
2021-09-22 19:32:08.138979,141
2021-09-22 19:32:08.319392,55
2021-09-22 19:32:08.319411,-31
2021-09-22 19:32:08.319419,-107
2021-09-22 19:32:08.319425,-158
2021-09-22 19:32:08.319431,-192
2021-09-22 19:32:08.319438,-228
2021-09-22 19:32:08.319444,-250
2021-09-22 19:32:08.319450,-240
2021-09-22 19:32:08.319456,-231
2021-09-22 19:32:08.319462,-226
2021-09-22 19:32:08.319468,-209
2021-09-22 19:32:08.319474,-197
2021-09-22 19:32:08.319480,-189
2021-09-22 19:32:08.319486,-167
2021-09-22 19:32:08.319492,-148
2021-09-22 19:32:08.319498,-141
2021-09-22 19:32:08.319504,-133
2021-09-22 19:32:08.319510,-131
2021-09-22 19:32:08.319516,-124
2021-09-22 19:32:08.319523,-114
2021-09-22 19:32:08.319529,-109
2021-09-22 19:32:08.319535,-102
2021-09-22 19:32:08.319541,-92
2021-09-22 19:32:08.319547,-97
2021-09-22 19:32:08.319553,-97
2021-09-22 19:32:08.319559,-90
2021-09-22 19:32:08.319565,-90
2021-09-22 19:32:08.319571,-92
2021-09-22 19:32:08.319577,-87
2021-09-22 19:32:08.319583,-85
2021-09-22 19:32:08.544440,-85
2021-09-22 19:32:08.544458,-80
2021-09-22 19:32:08.544465,-77
2021-09-22 19:32:08.544471,-85
2021-09-22 19:32:08.544484,-97
2021-09-22 19:32:08.544491,-94
2021-09-22 19:32:08.544497,-82
2021-09-22 19:32:08.544503,-75
2021-09-22 19:32:08.544508,-75
2021-09-22 19:32:08.544514,-72
2021-09-22 19:32:08.544520,-65
2021-09-22 19:32:08.544526,-60
2021-09-22 19:32:08.544532,-58
2021-09-22 19:32:08.544538,-53
2021-09-22 19:32:08.544544,-48
2021-09-22 19:32:08.544550,-51
2021-09-22 19:32:08.544556,-55
2021-09-22 19:32:08.544563,-58
2021-09-22 19:32:08.544569,-51
2021-09-22 19:32:08.544574,-34
2021-09-22 19:32:08.544580,-12
2021-09-22 19:32:08.544586,-7
2021-09-22 19:32:08.544592,-7
2021-09-22 19:32:08.544598,4
2021-09-22 19:32:08.544604,9
2021-09-22 19:32:08.544610,-9
2021-09-22 19:32:08.544616,-24
2021-09-22 19:32:08.544622,-34
2021-09-22 19:32:08.544628,-36
2021-09-22 19:32:08.544634,-26
2021-09-22 19:32:08.724450,-24
2021-09-22 19:32:08.724469,-26
2021-09-22 19:32:08.724477,-24
2021-09-22 19:32:08.724483,-24
2021-09-22 19:32:08.724489,-17
2021-09-22 19:32:08.724496,26
2021-09-22 19:32:08.724502,126
2021-09-22 19:32:08.724508,343
2021-09-22 19:32:08.724514,566
2021-09-22 19:32:08.724521,455
2021-09-22 19:32:08.724527,-48
2021-09-22 19:32:08.724533,-593
2021-09-22 19:32:08.724539,-732
2021-09-22 19:32:08.724545,-377
2021-09-22 19:32:08.724551,-77
2021-09-22 19:32:08.724557,-63
2021-09-22 19:32:08.724563,-2
2021-09-22 19:32:08.724569,104
2021-09-22 19:32:08.724575,102
2021-09-22 19:32:08.724581,87
2021-09-22 19:32:08.724587,119
2021-09-22 19:32:08.724593,121
2021-09-22 19:32:08.724599,109
2021-09-22 19:32:08.724605,126
2021-09-22 19:32:08.724616,143
2021-09-22 19:32:08.724622,148
2021-09-22 19:32:08.724629,165
2021-09-22 19:32:08.724634,184
2021-09-22 19:32:08.724640,201
2021-09-22 19:32:08.724647,228
2021-09-22 19:32:08.994310,253
2021-09-22 19:32:08.994327,274
2021-09-22 19:32:08.994335,299
2021-09-22 19:32:08.994341,318
2021-09-22 19:32:08.994347,333
2021-09-22 19:32:08.994353,352
2021-09-22 19:32:08.994360,360
2021-09-22 19:32:08.994366,345
2021-09-22 19:32:08.994372,318
2021-09-22 19:32:08.994378,272
2021-09-22 19:32:08.994384,216
2021-09-22 19:32:08.994390,160
2021-09-22 19:32:08.994397,87
2021-09-22 19:32:08.994403,2
2021-09-22 19:32:08.994409,-75
2021-09-22 19:32:08.994415,-133
2021-09-22 19:32:08.994421,-170
2021-09-22 19:32:08.994427,-187
2021-09-22 19:32:08.994433,-197
2021-09-22 19:32:08.994439,-204
2021-09-22 19:32:08.994445,-199
2021-09-22 19:32:08.994451,-187
2021-09-22 19:32:08.994458,-170
2021-09-22 19:32:08.994464,-158
2021-09-22 19:32:08.994470,-143
2021-09-22 19:32:08.994476,-131
2021-09-22 19:32:08.994482,-124
2021-09-22 19:32:08.994488,-114
2021-09-22 19:32:08.994494,-99
2021-09-22 19:32:08.994500,-87
2021-09-22 19:32:09.219274,-82
2021-09-22 19:32:09.219290,-77
2021-09-22 19:32:09.219297,-68
2021-09-22 19:32:09.219304,-70
2021-09-22 19:32:09.219310,-72
2021-09-22 19:32:09.219317,-60
2021-09-22 19:32:09.219323,-55
2021-09-22 19:32:09.219329,-60
2021-09-22 19:32:09.219335,-70
2021-09-22 19:32:09.219341,-80
2021-09-22 19:32:09.219347,-77
2021-09-22 19:32:09.219353,-70
2021-09-22 19:32:09.219359,-70
2021-09-22 19:32:09.219365,-72
2021-09-22 19:32:09.219371,-80
2021-09-22 19:32:09.219377,-87
2021-09-22 19:32:09.219383,-97
2021-09-22 19:32:09.219389,-92
2021-09-22 19:32:09.219395,-77
2021-09-22 19:32:09.219401,-72
2021-09-22 19:32:09.219407,-75
2021-09-22 19:32:09.219413,-75
2021-09-22 19:32:09.219419,-70
2021-09-22 19:32:09.219425,-58
2021-09-22 19:32:09.219431,-51
2021-09-22 19:32:09.219437,-55
2021-09-22 19:32:09.219443,-58
2021-09-22 19:32:09.219449,-43
2021-09-22 19:32:09.219455,-21
2021-09-22 19:32:09.219461,-7
2021-09-22 19:32:09.488194,-4
2021-09-22 19:32:09.488215,0
2021-09-22 19:32:09.488222,-2
2021-09-22 19:32:09.488227,-19
2021-09-22 19:32:09.488232,-31
2021-09-22 19:32:09.488237,-38
2021-09-22 19:32:09.488242,-38
2021-09-22 19:32:09.488248,-38
2021-09-22 19:32:09.488253,-48
2021-09-22 19:32:09.488258,-51
2021-09-22 19:32:09.488264,-41
2021-09-22 19:32:09.488269,-38
2021-09-22 19:32:09.488274,-38
2021-09-22 19:32:09.488354,0
2021-09-22 19:32:09.488361,85
2021-09-22 19:32:09.488366,255
2021-09-22 19:32:09.488371,472
2021-09-22 19:32:09.488377,440
2021-09-22 19:32:09.488382,26
2021-09-22 19:32:09.488387,-520
2021-09-22 19:32:09.488392,-747
2021-09-22 19:32:09.488397,-452
2021-09-22 19:32:09.488402,-111
2021-09-22 19:32:09.488408,-65
2021-09-22 19:32:09.488413,-14
2021-09-22 19:32:09.488418,104
2021-09-22 19:32:09.488423,109
2021-09-22 19:32:09.488429,82
2021-09-22 19:32:09.488434,119
2021-09-22 19:32:09.488439,141
2021-09-22 19:32:09.669403,128
2021-09-22 19:32:09.669422,136
2021-09-22 19:32:09.669430,153
2021-09-22 19:32:09.669436,158
2021-09-22 19:32:09.669443,165
2021-09-22 19:32:09.669449,180
2021-09-22 19:32:09.669455,189
2021-09-22 19:32:09.669467,197
2021-09-22 19:32:09.669474,223
2021-09-22 19:32:09.669480,257
2021-09-22 19:32:09.669486,284
2021-09-22 19:32:09.669493,309
2021-09-22 19:32:09.669499,328
2021-09-22 19:32:09.669505,333
2021-09-22 19:32:09.669511,328
2021-09-22 19:32:09.669517,318
2021-09-22 19:32:09.669523,301
2021-09-22 19:32:09.669528,270
2021-09-22 19:32:09.669535,216
2021-09-22 19:32:09.669541,143
2021-09-22 19:32:09.669547,60
2021-09-22 19:32:09.669553,-26
2021-09-22 19:32:09.669559,-107
2021-09-22 19:32:09.669565,-167
2021-09-22 19:32:09.669571,-206
2021-09-22 19:32:09.669577,-236
2021-09-22 19:32:09.669583,-248
2021-09-22 19:32:09.669589,-248
2021-09-22 19:32:09.669595,-240
2021-09-22 19:32:09.669601,-223
2021-09-22 19:32:09.894404,-214
2021-09-22 19:32:09.894422,-204
2021-09-22 19:32:09.894429,-192
2021-09-22 19:32:09.894436,-177
2021-09-22 19:32:09.894442,-158
2021-09-22 19:32:09.894448,-145
2021-09-22 19:32:09.894454,-145
2021-09-22 19:32:09.894460,-141
2021-09-22 19:32:09.894466,-128
2021-09-22 19:32:09.894472,-119
2021-09-22 19:32:09.894478,-111
2021-09-22 19:32:09.894484,-111
2021-09-22 19:32:09.894490,-109
2021-09-22 19:32:09.894495,-102
2021-09-22 19:32:09.894501,-102
2021-09-22 19:32:09.894507,-111
2021-09-22 19:32:09.894513,-116
2021-09-22 19:32:09.894519,-119
2021-09-22 19:32:09.894525,-114
2021-09-22 19:32:09.894531,-104
2021-09-22 19:32:09.894537,-99
2021-09-22 19:32:09.894543,-97
2021-09-22 19:32:09.894549,-92
2021-09-22 19:32:09.894555,-94
2021-09-22 19:32:09.894569,-97
2021-09-22 19:32:09.894575,-87
2021-09-22 19:32:09.894581,-82
2021-09-22 19:32:09.894587,-82
2021-09-22 19:32:09.894593,-75
2021-09-22 19:32:09.894599,-68
2021-09-22 19:32:10.119374,-68
2021-09-22 19:32:10.119393,-65
2021-09-22 19:32:10.119400,-60
2021-09-22 19:32:10.119406,-63
2021-09-22 19:32:10.119413,-68
2021-09-22 19:32:10.119419,-75
2021-09-22 19:32:10.119425,-65
2021-09-22 19:32:10.119431,-36
2021-09-22 19:32:10.119437,-24
2021-09-22 19:32:10.119443,-29
2021-09-22 19:32:10.119449,-19
2021-09-22 19:32:10.119455,-26
2021-09-22 19:32:10.119461,-53
