Time,ECG
2021-09-22 19:51:45.141654,-345
2021-09-22 19:51:45.141676,-666
2021-09-22 19:51:45.141683,-486
2021-09-22 19:51:45.141689,-97
2021-09-22 19:51:45.141695,-9
2021-09-22 19:51:45.141701,-26
2021-09-22 19:51:45.141707,99
2021-09-22 19:51:45.141713,160
2021-09-22 19:51:45.141719,124
2021-09-22 19:51:45.141725,136
2021-09-22 19:51:45.141731,158
2021-09-22 19:51:45.141737,145
2021-09-22 19:51:45.141743,150
2021-09-22 19:51:45.141748,170
2021-09-22 19:51:45.141754,177
2021-09-22 19:51:45.141760,184
2021-09-22 19:51:45.141765,199
2021-09-22 19:51:45.141772,218
2021-09-22 19:51:45.141777,238
2021-09-22 19:51:45.141783,255
2021-09-22 19:51:45.141789,267
2021-09-22 19:51:45.141795,289
2021-09-22 19:51:45.141800,326
2021-09-22 19:51:45.141806,362
2021-09-22 19:51:45.141812,394
2021-09-22 19:51:45.141818,430
2021-09-22 19:51:45.141824,455
2021-09-22 19:51:45.141830,459
2021-09-22 19:51:45.141835,445
2021-09-22 19:51:45.141841,423
2021-09-22 19:51:45.218952,389
2021-09-22 19:51:45.218973,326
2021-09-22 19:51:45.218980,223
2021-09-22 19:51:45.218986,104
2021-09-22 19:51:45.218992,2
2021-09-22 19:51:45.218998,-72
2021-09-22 19:51:45.219004,-136
2021-09-22 19:51:45.219010,-182
2021-09-22 19:51:45.219016,-211
2021-09-22 19:51:45.219022,-231
2021-09-22 19:51:45.219027,-240
2021-09-22 19:51:45.219033,-231
2021-09-22 19:51:45.219039,-218
2021-09-22 19:51:45.219045,-206
2021-09-22 19:51:45.219050,-187
2021-09-22 19:51:45.219056,-180
2021-09-22 19:51:45.219062,-170
2021-09-22 19:51:45.219068,-150
2021-09-22 19:51:45.219074,-131
2021-09-22 19:51:45.219080,-119
2021-09-22 19:51:45.219086,-109
2021-09-22 19:51:45.219091,-104
2021-09-22 19:51:45.219097,-97
2021-09-22 19:51:45.219103,-80
2021-09-22 19:51:45.219109,-72
2021-09-22 19:51:45.219114,-70
2021-09-22 19:51:45.219120,-68
2021-09-22 19:51:45.219126,-65
2021-09-22 19:51:45.219132,-60
2021-09-22 19:51:45.219139,-58
2021-09-22 19:51:45.533204,-60
2021-09-22 19:51:45.533226,-60
2021-09-22 19:51:45.533233,-65
2021-09-22 19:51:45.533239,-75
2021-09-22 19:51:45.533245,-77
2021-09-22 19:51:45.533251,-65
2021-09-22 19:51:45.533256,-55
2021-09-22 19:51:45.533262,-51
2021-09-22 19:51:45.533268,-51
2021-09-22 19:51:45.533274,-55
2021-09-22 19:51:45.533279,-53
2021-09-22 19:51:45.533285,-48
2021-09-22 19:51:45.533291,-48
2021-09-22 19:51:45.533299,-43
2021-09-22 19:51:45.533305,-36
2021-09-22 19:51:45.533311,-36
2021-09-22 19:51:45.533317,-36
2021-09-22 19:51:45.533323,-36
2021-09-22 19:51:45.533329,-34
2021-09-22 19:51:45.533335,-24
2021-09-22 19:51:45.533340,-7
2021-09-22 19:51:45.533346,7
2021-09-22 19:51:45.533352,9
2021-09-22 19:51:45.533358,7
2021-09-22 19:51:45.533364,14
2021-09-22 19:51:45.533370,7
2021-09-22 19:51:45.533376,-17
2021-09-22 19:51:45.533392,-31
2021-09-22 19:51:45.533399,-29
2021-09-22 19:51:45.533406,-26
2021-09-22 19:51:45.713970,-24
2021-09-22 19:51:45.713991,-17
2021-09-22 19:51:45.713998,-12
2021-09-22 19:51:45.714004,-17
2021-09-22 19:51:45.714010,-21
2021-09-22 19:51:45.714016,-9
2021-09-22 19:51:45.714022,31
2021-09-22 19:51:45.714027,107
2021-09-22 19:51:45.714033,236
2021-09-22 19:51:45.714039,416
2021-09-22 19:51:45.714045,450
2021-09-22 19:51:45.714050,148
2021-09-22 19:51:45.714056,-291
2021-09-22 19:51:45.714062,-627
2021-09-22 19:51:45.714068,-596
2021-09-22 19:51:45.714074,-209
2021-09-22 19:51:45.714079,-12
2021-09-22 19:51:45.714089,-41
2021-09-22 19:51:45.714095,51
2021-09-22 19:51:45.714101,143
2021-09-22 19:51:45.714107,109
2021-09-22 19:51:45.714113,102
2021-09-22 19:51:45.714118,138
2021-09-22 19:51:45.714124,138
2021-09-22 19:51:45.714130,136
2021-09-22 19:51:45.714136,153
2021-09-22 19:51:45.714142,158
2021-09-22 19:51:45.714147,160
2021-09-22 19:51:45.714153,177
2021-09-22 19:51:45.714159,194
2021-09-22 19:51:45.983971,206
2021-09-22 19:51:45.983990,223
2021-09-22 19:51:45.983997,243
2021-09-22 19:51:45.984003,267
2021-09-22 19:51:45.984008,299
2021-09-22 19:51:45.984014,328
2021-09-22 19:51:45.984020,352
2021-09-22 19:51:45.984031,377
2021-09-22 19:51:45.984037,396
2021-09-22 19:51:45.984043,411
2021-09-22 19:51:45.984049,411
2021-09-22 19:51:45.984056,391
2021-09-22 19:51:45.984062,355
2021-09-22 19:51:45.984067,289
2021-09-22 19:51:45.984073,187
2021-09-22 19:51:45.984079,82
2021-09-22 19:51:45.984085,-19
2021-09-22 19:51:45.984090,-107
2021-09-22 19:51:45.984096,-170
2021-09-22 19:51:45.984102,-211
2021-09-22 19:51:45.984107,-240
2021-09-22 19:51:45.984113,-253
2021-09-22 19:51:45.984119,-253
2021-09-22 19:51:45.984124,-248
2021-09-22 19:51:45.984130,-240
2021-09-22 19:51:45.984135,-233
2021-09-22 19:51:45.984141,-221
2021-09-22 19:51:45.984147,-209
2021-09-22 19:51:45.984152,-197
2021-09-22 19:51:45.984159,-180
2021-09-22 19:51:46.163820,-170
2021-09-22 19:51:46.163839,-165
2021-09-22 19:51:46.163846,-155
2021-09-22 19:51:46.163852,-141
2021-09-22 19:51:46.163858,-128
2021-09-22 19:51:46.163864,-119
2021-09-22 19:51:46.163870,-111
2021-09-22 19:51:46.163876,-109
2021-09-22 19:51:46.163881,-109
2021-09-22 19:51:46.163887,-107
2021-09-22 19:51:46.163893,-99
2021-09-22 19:51:46.163898,-97
2021-09-22 19:51:46.163904,-102
2021-09-22 19:51:46.163910,-109
2021-09-22 19:51:46.163916,-109
2021-09-22 19:51:46.163921,-102
2021-09-22 19:51:46.163927,-99
2021-09-22 19:51:46.163933,-94
2021-09-22 19:51:46.163939,-92
2021-09-22 19:51:46.163945,-94
2021-09-22 19:51:46.163950,-90
2021-09-22 19:51:46.163956,-82
2021-09-22 19:51:46.163962,-85
2021-09-22 19:51:46.163968,-82
2021-09-22 19:51:46.163978,-77
2021-09-22 19:51:46.163985,-77
2021-09-22 19:51:46.163990,-70
2021-09-22 19:51:46.163996,-60
2021-09-22 19:51:46.164002,-58
2021-09-22 19:51:46.164008,-65
2021-09-22 19:51:46.479069,-70
2021-09-22 19:51:46.479089,-72
2021-09-22 19:51:46.479096,-63
2021-09-22 19:51:46.479102,-43
2021-09-22 19:51:46.479108,-24
2021-09-22 19:51:46.479114,-19
2021-09-22 19:51:46.479120,-31
2021-09-22 19:51:46.479126,-24
2021-09-22 19:51:46.479132,-14
2021-09-22 19:51:46.479138,-31
2021-09-22 19:51:46.479143,-53
2021-09-22 19:51:46.479149,-63
2021-09-22 19:51:46.479155,-70
2021-09-22 19:51:46.479161,-65
2021-09-22 19:51:46.479167,-60
2021-09-22 19:51:46.479173,-58
2021-09-22 19:51:46.479178,-58
2021-09-22 19:51:46.479184,-58
2021-09-22 19:51:46.479190,-58
2021-09-22 19:51:46.479196,-29
2021-09-22 19:51:46.479202,38
2021-09-22 19:51:46.479208,158
2021-09-22 19:51:46.479223,357
2021-09-22 19:51:46.479229,474
2021-09-22 19:51:46.479235,223
2021-09-22 19:51:46.479241,-199
2021-09-22 19:51:46.479247,-530
2021-09-22 19:51:46.479252,-674
2021-09-22 19:51:46.479258,-391
2021-09-22 19:51:46.479264,-53
2021-09-22 19:51:46.658904,-38
2021-09-22 19:51:46.658924,-9
2021-09-22 19:51:46.658931,102
2021-09-22 19:51:46.658937,99
2021-09-22 19:51:46.658943,82
2021-09-22 19:51:46.658949,119
2021-09-22 19:51:46.658955,121
2021-09-22 19:51:46.658961,111
2021-09-22 19:51:46.658967,131
2021-09-22 19:51:46.658973,148
2021-09-22 19:51:46.658978,153
2021-09-22 19:51:46.658984,163
2021-09-22 19:51:46.658990,172
2021-09-22 19:51:46.658996,189
2021-09-22 19:51:46.659002,214
2021-09-22 19:51:46.659008,238
2021-09-22 19:51:46.659014,260
2021-09-22 19:51:46.659020,282
2021-09-22 19:51:46.659026,313
2021-09-22 19:51:46.659032,352
2021-09-22 19:51:46.659038,389
2021-09-22 19:51:46.659043,420
2021-09-22 19:51:46.659049,437
2021-09-22 19:51:46.659055,437
2021-09-22 19:51:46.659065,433
2021-09-22 19:51:46.659071,413
2021-09-22 19:51:46.659077,357
2021-09-22 19:51:46.659082,265
2021-09-22 19:51:46.659088,153
2021-09-22 19:51:46.659094,36
2021-09-22 19:51:46.838884,-60
2021-09-22 19:51:46.838904,-138
2021-09-22 19:51:46.838912,-194
2021-09-22 19:51:46.838918,-231
2021-09-22 19:51:46.838923,-253
2021-09-22 19:51:46.838929,-267
2021-09-22 19:51:46.838935,-265
2021-09-22 19:51:46.838941,-255
2021-09-22 19:51:46.838947,-250
2021-09-22 19:51:46.838953,-243
2021-09-22 19:51:46.838958,-236
2021-09-22 19:51:46.838964,-228
2021-09-22 19:51:46.838970,-214
2021-09-22 19:51:46.838976,-201
2021-09-22 19:51:46.838981,-197
2021-09-22 19:51:46.838987,-187
2021-09-22 19:51:46.838993,-180
2021-09-22 19:51:46.838999,-170
2021-09-22 19:51:46.839004,-150
2021-09-22 19:51:46.839010,-133
2021-09-22 19:51:46.839016,-126
2021-09-22 19:51:46.839021,-121
2021-09-22 19:51:46.839027,-116
2021-09-22 19:51:46.839033,-104
2021-09-22 19:51:46.839039,-97
2021-09-22 19:51:46.839044,-94
2021-09-22 19:51:46.839050,-97
2021-09-22 19:51:46.839056,-97
2021-09-22 19:51:46.839062,-97
2021-09-22 19:51:46.839067,-94
2021-09-22 19:51:47.064016,-87
2021-09-22 19:51:47.064036,-85
2021-09-22 19:51:47.064043,-85
2021-09-22 19:51:47.064049,-85
2021-09-22 19:51:47.064055,-90
2021-09-22 19:51:47.064061,-85
2021-09-22 19:51:47.064067,-77
2021-09-22 19:51:47.064073,-75
2021-09-22 19:51:47.064079,-75
2021-09-22 19:51:47.064085,-80
2021-09-22 19:51:47.064090,-82
2021-09-22 19:51:47.064096,-82
2021-09-22 19:51:47.064102,-87
2021-09-22 19:51:47.064108,-85
2021-09-22 19:51:47.064114,-77
2021-09-22 19:51:47.064120,-80
2021-09-22 19:51:47.064125,-85
2021-09-22 19:51:47.064131,-77
2021-09-22 19:51:47.064137,-70
2021-09-22 19:51:47.064143,-70
2021-09-22 19:51:47.064148,-60
2021-09-22 19:51:47.064154,-41
2021-09-22 19:51:47.064160,-31
2021-09-22 19:51:47.064166,-34
2021-09-22 19:51:47.064171,-24
2021-09-22 19:51:47.064177,-9
2021-09-22 19:51:47.064183,-21
2021-09-22 19:51:47.064189,-46
2021-09-22 19:51:47.064195,-63
2021-09-22 19:51:47.064201,-65
2021-09-22 19:51:47.333938,-58
2021-09-22 19:51:47.333960,-53
2021-09-22 19:51:47.333967,-58
2021-09-22 19:51:47.333973,-65
2021-09-22 19:51:47.333979,-70
2021-09-22 19:51:47.333985,-60
2021-09-22 19:51:47.333991,-41
2021-09-22 19:51:47.333997,2
2021-09-22 19:51:47.334003,92
2021-09-22 19:51:47.334009,262
2021-09-22 19:51:47.334021,455
2021-09-22 19:51:47.334027,364
2021-09-22 19:51:47.334032,-38
2021-09-22 19:51:47.334038,-469
2021-09-22 19:51:47.334044,-705
2021-09-22 19:51:47.334050,-510
2021-09-22 19:51:47.334056,-143
2021-09-22 19:51:47.334062,-63
2021-09-22 19:51:47.334068,-63
2021-09-22 19:51:47.334073,48
2021-09-22 19:51:47.334079,77
2021-09-22 19:51:47.334085,48
2021-09-22 19:51:47.334091,77
2021-09-22 19:51:47.334097,107
2021-09-22 19:51:47.334102,104
2021-09-22 19:51:47.334108,114
2021-09-22 19:51:47.334114,128
2021-09-22 19:51:47.334120,131
2021-09-22 19:51:47.334126,143
2021-09-22 19:51:47.334131,163
2021-09-22 19:51:47.602591,177
2021-09-22 19:51:47.602612,197
2021-09-22 19:51:47.602619,218
2021-09-22 19:51:47.602625,240
2021-09-22 19:51:47.602631,270
2021-09-22 19:51:47.602637,306
2021-09-22 19:51:47.602643,343
2021-09-22 19:51:47.602649,377
2021-09-22 19:51:47.602654,399
2021-09-22 19:51:47.602660,411
2021-09-22 19:51:47.602666,420
2021-09-22 19:51:47.602672,423
2021-09-22 19:51:47.602678,401
2021-09-22 19:51:47.602684,355
2021-09-22 19:51:47.602690,274
2021-09-22 19:51:47.602696,165
2021-09-22 19:51:47.602702,51
2021-09-22 19:51:47.602708,-58
2021-09-22 19:51:47.602713,-148
2021-09-22 19:51:47.602719,-209
2021-09-22 19:51:47.602725,-253
2021-09-22 19:51:47.602731,-282
2021-09-22 19:51:47.602737,-287
2021-09-22 19:51:47.602743,-284
2021-09-22 19:51:47.602748,-279
2021-09-22 19:51:47.602758,-272
2021-09-22 19:51:47.602764,-262
2021-09-22 19:51:47.602770,-253
2021-09-22 19:51:47.602776,-238
2021-09-22 19:51:47.602781,-221
2021-09-22 19:51:47.873280,-206
2021-09-22 19:51:47.873300,-192
2021-09-22 19:51:47.873307,-180
2021-09-22 19:51:47.873313,-167
2021-09-22 19:51:47.873319,-153
2021-09-22 19:51:47.873325,-141
2021-09-22 19:51:47.873331,-133
2021-09-22 19:51:47.873337,-131
2021-09-22 19:51:47.873342,-131
2021-09-22 19:51:47.873348,-126
2021-09-22 19:51:47.873354,-116
2021-09-22 19:51:47.873360,-114
2021-09-22 19:51:47.873365,-114
2021-09-22 19:51:47.873371,-119
2021-09-22 19:51:47.873377,-124
2021-09-22 19:51:47.873383,-121
2021-09-22 19:51:47.873389,-116
2021-09-22 19:51:47.873394,-114
2021-09-22 19:51:47.873400,-111
2021-09-22 19:51:47.873406,-109
2021-09-22 19:51:47.873411,-109
2021-09-22 19:51:47.873417,-109
2021-09-22 19:51:47.873422,-109
2021-09-22 19:51:47.873428,-104
2021-09-22 19:51:47.873434,-97
2021-09-22 19:51:47.873440,-94
2021-09-22 19:51:47.873445,-94
2021-09-22 19:51:47.873451,-90
2021-09-22 19:51:47.873457,-85
2021-09-22 19:51:47.873463,-80
2021-09-22 19:51:48.054317,-77
2021-09-22 19:51:48.054336,-75
2021-09-22 19:51:48.054343,-70
2021-09-22 19:51:48.054349,-68
2021-09-22 19:51:48.054355,-63
2021-09-22 19:51:48.054361,-58
2021-09-22 19:51:48.054367,-58
2021-09-22 19:51:48.054373,-60
2021-09-22 19:51:48.054379,-58
2021-09-22 19:51:48.054385,-58
2021-09-22 19:51:48.054391,-60
2021-09-22 19:51:48.054396,-58
2021-09-22 19:51:48.054402,-51
2021-09-22 19:51:48.054408,-43
2021-09-22 19:51:48.054413,-34
2021-09-22 19:51:48.054419,-29
2021-09-22 19:51:48.054428,-26
2021-09-22 19:51:48.054435,-19
2021-09-22 19:51:48.054441,-34
2021-09-22 19:51:48.054447,-58
2021-09-22 19:51:48.054452,-60
2021-09-22 19:51:48.054458,-58
2021-09-22 19:51:48.054464,-65
2021-09-22 19:51:48.054469,-82
2021-09-22 19:51:48.054475,-94
2021-09-22 19:51:48.054481,-94
2021-09-22 19:51:48.054486,-92
2021-09-22 19:51:48.054492,-92
2021-09-22 19:51:48.054498,-77
2021-09-22 19:51:48.054504,-36
2021-09-22 19:51:48.233908,48
2021-09-22 19:51:48.233927,233
2021-09-22 19:51:48.233934,481
2021-09-22 19:51:48.233940,479
2021-09-22 19:51:48.233946,94
2021-09-22 19:51:48.233952,-396
2021-09-22 19:51:48.233958,-698
2021-09-22 19:51:48.233963,-549
2021-09-22 19:51:48.233969,-167
2021-09-22 19:51:48.233975,-46
2021-09-22 19:51:48.233981,-46
2021-09-22 19:51:48.233987,51
2021-09-22 19:51:48.233992,85
2021-09-22 19:51:48.233998,58
2021-09-22 19:51:48.234004,87
2021-09-22 19:51:48.234010,114
2021-09-22 19:51:48.234016,109
2021-09-22 19:51:48.234022,119
2021-09-22 19:51:48.234028,131
2021-09-22 19:51:48.234034,136
2021-09-22 19:51:48.234039,150
2021-09-22 19:51:48.234045,167
2021-09-22 19:51:48.234051,184
2021-09-22 19:51:48.234057,204
2021-09-22 19:51:48.234063,226
2021-09-22 19:51:48.234068,245
2021-09-22 19:51:48.234074,265
2021-09-22 19:51:48.234080,294
2021-09-22 19:51:48.234085,335
2021-09-22 19:51:48.234091,369
2021-09-22 19:51:48.503915,396
2021-09-22 19:51:48.503935,423
2021-09-22 19:51:48.503942,437
2021-09-22 19:51:48.503948,433
2021-09-22 19:51:48.503954,416
2021-09-22 19:51:48.503960,379
2021-09-22 19:51:48.503965,309
2021-09-22 19:51:48.503971,214
2021-09-22 19:51:48.503977,109
2021-09-22 19:51:48.503983,2
2021-09-22 19:51:48.503989,-90
2021-09-22 19:51:48.503994,-163
2021-09-22 19:51:48.504000,-214
2021-09-22 19:51:48.504009,-240
2021-09-22 19:51:48.504015,-253
2021-09-22 19:51:48.504021,-260
2021-09-22 19:51:48.504027,-257
2021-09-22 19:51:48.504033,-250
2021-09-22 19:51:48.504039,-240
2021-09-22 19:51:48.504045,-223
2021-09-22 19:51:48.504050,-209
2021-09-22 19:51:48.504056,-194
2021-09-22 19:51:48.504062,-177
2021-09-22 19:51:48.504068,-165
2021-09-22 19:51:48.504073,-153
2021-09-22 19:51:48.504079,-133
2021-09-22 19:51:48.504085,-121
2021-09-22 19:51:48.504091,-124
2021-09-22 19:51:48.504096,-126
2021-09-22 19:51:48.504102,-124
2021-09-22 19:51:48.683918,-119
2021-09-22 19:51:48.683938,-111
2021-09-22 19:51:48.683946,-107
2021-09-22 19:51:48.683952,-107
2021-09-22 19:51:48.683958,-116
2021-09-22 19:51:48.683964,-119
2021-09-22 19:51:48.683969,-114
2021-09-22 19:51:48.683976,-109
2021-09-22 19:51:48.683981,-107
2021-09-22 19:51:48.683987,-104
2021-09-22 19:51:48.683993,-107
2021-09-22 19:51:48.683999,-111
2021-09-22 19:51:48.684005,-102
2021-09-22 19:51:48.684011,-94
2021-09-22 19:51:48.684016,-94
2021-09-22 19:51:48.684022,-92
2021-09-22 19:51:48.684028,-92
2021-09-22 19:51:48.684034,-97
2021-09-22 19:51:48.684040,-87
2021-09-22 19:51:48.684045,-70
2021-09-22 19:51:48.684051,-70
2021-09-22 19:51:48.684057,-72
2021-09-22 19:51:48.684063,-68
2021-09-22 19:51:48.684068,-58
2021-09-22 19:51:48.684074,-55
2021-09-22 19:51:48.684080,-58
2021-09-22 19:51:48.684085,-65
2021-09-22 19:51:48.684091,-60
2021-09-22 19:51:48.684097,-53
2021-09-22 19:51:48.684103,-58
2021-09-22 19:51:48.953970,-65
2021-09-22 19:51:48.953990,-65
2021-09-22 19:51:48.953997,-55
2021-09-22 19:51:48.954003,-43
2021-09-22 19:51:48.954009,-38
2021-09-22 19:51:48.954015,-38
2021-09-22 19:51:48.954021,-29
2021-09-22 19:51:48.954027,-17
2021-09-22 19:51:48.954033,-31
2021-09-22 19:51:48.954039,-63
2021-09-22 19:51:48.954044,-87
2021-09-22 19:51:48.954050,-87
2021-09-22 19:51:48.954056,-77
2021-09-22 19:51:48.954062,-77
2021-09-22 19:51:48.954068,-80
2021-09-22 19:51:48.954074,-77
2021-09-22 19:51:48.954080,-75
2021-09-22 19:51:48.954090,-75
2021-09-22 19:51:48.954097,-60
2021-09-22 19:51:48.954102,-19
2021-09-22 19:51:48.954108,70
2021-09-22 19:51:48.954114,255
2021-09-22 19:51:48.954120,506
2021-09-22 19:51:48.954126,525
2021-09-22 19:51:48.954132,141
2021-09-22 19:51:48.954138,-399
2021-09-22 19:51:48.954144,-710
2021-09-22 19:51:48.954150,-537
2021-09-22 19:51:48.954155,-170
2021-09-22 19:51:48.954161,-53
2021-09-22 19:51:49.224002,-36
2021-09-22 19:51:49.224024,60
2021-09-22 19:51:49.224032,92
2021-09-22 19:51:49.224038,63
2021-09-22 19:51:49.224044,77
2021-09-22 19:51:49.224049,94
2021-09-22 19:51:49.224056,99
2021-09-22 19:51:49.224063,111
2021-09-22 19:51:49.224069,126
2021-09-22 19:51:49.224075,131
2021-09-22 19:51:49.224081,141
2021-09-22 19:51:49.224087,160
2021-09-22 19:51:49.224093,177
2021-09-22 19:51:49.224099,201
2021-09-22 19:51:49.224105,221
2021-09-22 19:51:49.224111,231
2021-09-22 19:51:49.224116,257
2021-09-22 19:51:49.224122,296
2021-09-22 19:51:49.224128,328
2021-09-22 19:51:49.224134,360
2021-09-22 19:51:49.224140,391
2021-09-22 19:51:49.224146,403
2021-09-22 19:51:49.224151,411
2021-09-22 19:51:49.224157,418
2021-09-22 19:51:49.224163,403
2021-09-22 19:51:49.224169,364
2021-09-22 19:51:49.224174,304
2021-09-22 19:51:49.224180,209
2021-09-22 19:51:49.224186,97
2021-09-22 19:51:49.224192,-4
2021-09-22 19:51:49.448331,-90
2021-09-22 19:51:49.448352,-160
2021-09-22 19:51:49.448359,-209
2021-09-22 19:51:49.448366,-240
2021-09-22 19:51:49.448372,-257
2021-09-22 19:51:49.448378,-260
2021-09-22 19:51:49.448384,-253
2021-09-22 19:51:49.448390,-248
2021-09-22 19:51:49.448396,-243
2021-09-22 19:51:49.448402,-238
2021-09-22 19:51:49.448407,-218
2021-09-22 19:51:49.448413,-194
2021-09-22 19:51:49.448419,-182
2021-09-22 19:51:49.448425,-163
2021-09-22 19:51:49.448431,-150
2021-09-22 19:51:49.448437,-143
2021-09-22 19:51:49.448443,-128
2021-09-22 19:51:49.448449,-116
2021-09-22 19:51:49.448455,-111
2021-09-22 19:51:49.448460,-107
2021-09-22 19:51:49.448466,-109
2021-09-22 19:51:49.448472,-114
2021-09-22 19:51:49.448477,-104
2021-09-22 19:51:49.448483,-97
2021-09-22 19:51:49.448489,-99
2021-09-22 19:51:49.448495,-99
2021-09-22 19:51:49.448500,-102
2021-09-22 19:51:49.448506,-99
2021-09-22 19:51:49.448512,-97
2021-09-22 19:51:49.448523,-94
2021-09-22 19:51:49.762653,-90
2021-09-22 19:51:49.762674,-87
2021-09-22 19:51:49.762681,-90
2021-09-22 19:51:49.762687,-87
2021-09-22 19:51:49.762693,-80
2021-09-22 19:51:49.762699,-77
2021-09-22 19:51:49.762705,-80
2021-09-22 19:51:49.762711,-85
2021-09-22 19:51:49.762717,-87
2021-09-22 19:51:49.762723,-94
2021-09-22 19:51:49.762729,-97
2021-09-22 19:51:49.762735,-92
2021-09-22 19:51:49.762741,-90
2021-09-22 19:51:49.762747,-90
2021-09-22 19:51:49.762752,-94
2021-09-22 19:51:49.762758,-92
2021-09-22 19:51:49.762764,-85
2021-09-22 19:51:49.762770,-80
2021-09-22 19:51:49.762776,-80
2021-09-22 19:51:49.762782,-85
2021-09-22 19:51:49.762788,-87
2021-09-22 19:51:49.762793,-75
2021-09-22 19:51:49.762799,-53
2021-09-22 19:51:49.762805,-41
2021-09-22 19:51:49.762811,-46
2021-09-22 19:51:49.762817,-43
2021-09-22 19:51:49.762823,-38
2021-09-22 19:51:49.762828,-55
2021-09-22 19:51:49.762834,-72
2021-09-22 19:51:49.762840,-75
2021-09-22 19:51:49.853853,-72
2021-09-22 19:51:49.853872,-75
2021-09-22 19:51:49.853879,-75
2021-09-22 19:51:49.853885,-70
2021-09-22 19:51:49.853890,-68
2021-09-22 19:51:49.853896,-63
2021-09-22 19:51:49.853902,-58
2021-09-22 19:51:49.853908,-48
2021-09-22 19:51:49.853913,-19
2021-09-22 19:51:49.853919,63
2021-09-22 19:51:49.853925,260
2021-09-22 19:51:49.853931,530
2021-09-22 19:51:49.853937,562
2021-09-22 19:51:49.853942,172
2021-09-22 19:51:49.853948,-394
2021-09-22 19:51:49.853953,-700
2021-09-22 19:51:49.853959,-493
2021-09-22 19:51:49.853965,-136
2021-09-22 19:51:49.853971,-51
2021-09-22 19:51:49.853976,-31
2021-09-22 19:51:49.853982,72
2021-09-22 19:51:49.853988,99
2021-09-22 19:51:49.853993,82
2021-09-22 19:51:49.853999,116
2021-09-22 19:51:49.854005,136
2021-09-22 19:51:49.854010,126
2021-09-22 19:51:49.854016,138
2021-09-22 19:51:49.854022,158
2021-09-22 19:51:49.854027,167
2021-09-22 19:51:49.854033,182
2021-09-22 19:51:50.123924,197
2021-09-22 19:51:50.123943,211
2021-09-22 19:51:50.123950,233
2021-09-22 19:51:50.123956,255
2021-09-22 19:51:50.123962,279
2021-09-22 19:51:50.123968,309
2021-09-22 19:51:50.123974,333
2021-09-22 19:51:50.123979,357
2021-09-22 19:51:50.123985,391
2021-09-22 19:51:50.123991,418
2021-09-22 19:51:50.123997,433
2021-09-22 19:51:50.124002,440
2021-09-22 19:51:50.124008,435
2021-09-22 19:51:50.124014,411
2021-09-22 19:51:50.124020,372
2021-09-22 19:51:50.124026,299
2021-09-22 19:51:50.124032,197
2021-09-22 19:51:50.124037,90
2021-09-22 19:51:50.124043,-12
2021-09-22 19:51:50.124049,-102
2021-09-22 19:51:50.124058,-170
2021-09-22 19:51:50.124064,-216
2021-09-22 19:51:50.124070,-243
2021-09-22 19:51:50.124075,-257
2021-09-22 19:51:50.124081,-265
2021-09-22 19:51:50.124087,-260
2021-09-22 19:51:50.124093,-250
2021-09-22 19:51:50.124098,-240
2021-09-22 19:51:50.124104,-226
2021-09-22 19:51:50.124110,-211
2021-09-22 19:51:50.348983,-197
2021-09-22 19:51:50.349004,-177
2021-09-22 19:51:50.349011,-160
2021-09-22 19:51:50.349017,-150
2021-09-22 19:51:50.349023,-138
2021-09-22 19:51:50.349029,-131
2021-09-22 19:51:50.349035,-131
2021-09-22 19:51:50.349041,-126
2021-09-22 19:51:50.349047,-116
2021-09-22 19:51:50.349053,-114
2021-09-22 19:51:50.349059,-109
2021-09-22 19:51:50.349065,-107
2021-09-22 19:51:50.349070,-114
2021-09-22 19:51:50.349076,-116
2021-09-22 19:51:50.349082,-114
2021-09-22 19:51:50.349088,-109
2021-09-22 19:51:50.349093,-107
2021-09-22 19:51:50.349099,-109
2021-09-22 19:51:50.349105,-109
2021-09-22 19:51:50.349111,-99
2021-09-22 19:51:50.349117,-90
2021-09-22 19:51:50.349123,-90
2021-09-22 19:51:50.349129,-90
2021-09-22 19:51:50.349135,-90
2021-09-22 19:51:50.349141,-90
2021-09-22 19:51:50.349147,-85
2021-09-22 19:51:50.349152,-82
2021-09-22 19:51:50.349158,-80
2021-09-22 19:51:50.349164,-77
2021-09-22 19:51:50.349170,-75
2021-09-22 19:51:50.528935,-68
2021-09-22 19:51:50.528957,-60
2021-09-22 19:51:50.528964,-55
2021-09-22 19:51:50.528970,-55
2021-09-22 19:51:50.528975,-55
2021-09-22 19:51:50.528981,-48
2021-09-22 19:51:50.528987,-48
2021-09-22 19:51:50.528993,-55
2021-09-22 19:51:50.528999,-63
2021-09-22 19:51:50.529005,-70
2021-09-22 19:51:50.529011,-68
2021-09-22 19:51:50.529017,-53
2021-09-22 19:51:50.529023,-31
2021-09-22 19:51:50.529028,-26
2021-09-22 19:51:50.529034,-34
2021-09-22 19:51:50.529040,-26
2021-09-22 19:51:50.529046,-29
2021-09-22 19:51:50.529052,-58
2021-09-22 19:51:50.529057,-70
2021-09-22 19:51:50.529063,-60
2021-09-22 19:51:50.529069,-58
2021-09-22 19:51:50.529075,-68
2021-09-22 19:51:50.529081,-70
2021-09-22 19:51:50.529086,-65
2021-09-22 19:51:50.529092,-55
2021-09-22 19:51:50.529098,-48
2021-09-22 19:51:50.529104,-38
2021-09-22 19:51:50.529110,-14
2021-09-22 19:51:50.529115,51
2021-09-22 19:51:50.529121,201
2021-09-22 19:51:50.754038,452
2021-09-22 19:51:50.754059,598
2021-09-22 19:51:50.754066,360
2021-09-22 19:51:50.754072,-180
2021-09-22 19:51:50.754078,-642
2021-09-22 19:51:50.754083,-615
2021-09-22 19:51:50.754089,-221
2021-09-22 19:51:50.754095,-31
2021-09-22 19:51:50.754101,-41
2021-09-22 19:51:50.754106,51
2021-09-22 19:51:50.754112,124
2021-09-22 19:51:50.754118,94
2021-09-22 19:51:50.754124,109
2021-09-22 19:51:50.754130,148
2021-09-22 19:51:50.754136,143
2021-09-22 19:51:50.754141,148
2021-09-22 19:51:50.754147,172
2021-09-22 19:51:50.754153,177
2021-09-22 19:51:50.754159,182
2021-09-22 19:51:50.754164,206
2021-09-22 19:51:50.754170,223
2021-09-22 19:51:50.754176,231
2021-09-22 19:51:50.754185,250
2021-09-22 19:51:50.754191,279
2021-09-22 19:51:50.754197,313
2021-09-22 19:51:50.754203,343
2021-09-22 19:51:50.754208,372
2021-09-22 19:51:50.754214,401
2021-09-22 19:51:50.754220,428
2021-09-22 19:51:50.754226,450
2021-09-22 19:51:51.113953,462
2021-09-22 19:51:51.113974,464
2021-09-22 19:51:51.113981,452
2021-09-22 19:51:51.113987,408
2021-09-22 19:51:51.113993,345
2021-09-22 19:51:51.113999,270
2021-09-22 19:51:51.114005,170
2021-09-22 19:51:51.114011,65
2021-09-22 19:51:51.114017,-31
2021-09-22 19:51:51.114023,-114
2021-09-22 19:51:51.114028,-170
2021-09-22 19:51:51.114034,-197
2021-09-22 19:51:51.114040,-214
2021-09-22 19:51:51.114046,-226
2021-09-22 19:51:51.114052,-226
2021-09-22 19:51:51.114058,-216
2021-09-22 19:51:51.114063,-206
2021-09-22 19:51:51.114069,-194
2021-09-22 19:51:51.114075,-182
2021-09-22 19:51:51.114080,-175
2021-09-22 19:51:51.114086,-160
2021-09-22 19:51:51.114092,-145
2021-09-22 19:51:51.114098,-138
2021-09-22 19:51:51.114104,-126
2021-09-22 19:51:51.114109,-116
2021-09-22 19:51:51.114115,-107
2021-09-22 19:51:51.114121,-99
2021-09-22 19:51:51.114127,-104
2021-09-22 19:51:51.114132,-111
2021-09-22 19:51:51.114138,-99
2021-09-22 19:51:51.249003,-90
2021-09-22 19:51:51.249024,-94
2021-09-22 19:51:51.249031,-94
2021-09-22 19:51:51.249037,-92
2021-09-22 19:51:51.249043,-92
2021-09-22 19:51:51.249050,-87
2021-09-22 19:51:51.249057,-82
2021-09-22 19:51:51.249063,-77
2021-09-22 19:51:51.249069,-82
2021-09-22 19:51:51.249075,-87
2021-09-22 19:51:51.249081,-82
2021-09-22 19:51:51.249086,-72
2021-09-22 19:51:51.249092,-68
2021-09-22 19:51:51.249098,-70
2021-09-22 19:51:51.249104,-77
2021-09-22 19:51:51.249110,-80
2021-09-22 19:51:51.249115,-75
2021-09-22 19:51:51.249121,-68
2021-09-22 19:51:51.249127,-65
2021-09-22 19:51:51.249133,-65
2021-09-22 19:51:51.249139,-65
2021-09-22 19:51:51.249144,-72
2021-09-22 19:51:51.249150,-68
2021-09-22 19:51:51.249156,-68
2021-09-22 19:51:51.249162,-80
2021-09-22 19:51:51.249168,-82
2021-09-22 19:51:51.249174,-80
2021-09-22 19:51:51.249179,-70
2021-09-22 19:51:51.249185,-55
2021-09-22 19:51:51.249191,-53
2021-09-22 19:51:51.473997,-48
2021-09-22 19:51:51.474017,-36
2021-09-22 19:51:51.474025,-53
2021-09-22 19:51:51.474031,-80
2021-09-22 19:51:51.474037,-82
2021-09-22 19:51:51.474042,-75
2021-09-22 19:51:51.474048,-72
2021-09-22 19:51:51.474054,-72
2021-09-22 19:51:51.474060,-75
2021-09-22 19:51:51.474065,-77
2021-09-22 19:51:51.474071,-72
2021-09-22 19:51:51.474077,-65
2021-09-22 19:51:51.474083,-48
2021-09-22 19:51:51.474088,-9
2021-09-22 19:51:51.474094,80
2021-09-22 19:51:51.474100,272
2021-09-22 19:51:51.474106,501
2021-09-22 19:51:51.474111,435
2021-09-22 19:51:51.474117,-17
2021-09-22 19:51:51.474123,-518
2021-09-22 19:51:51.474129,-705
2021-09-22 19:51:51.474135,-433
2021-09-22 19:51:51.474141,-109
2021-09-22 19:51:51.474147,-68
2021-09-22 19:51:51.474152,-31
2021-09-22 19:51:51.474158,85
2021-09-22 19:51:51.474164,99
2021-09-22 19:51:51.474170,75
2021-09-22 19:51:51.474175,109
2021-09-22 19:51:51.474181,133
2021-09-22 19:51:51.787600,128
2021-09-22 19:51:51.787621,136
2021-09-22 19:51:51.787628,145
2021-09-22 19:51:51.787634,143
2021-09-22 19:51:51.787640,145
2021-09-22 19:51:51.787649,163
2021-09-22 19:51:51.787656,182
2021-09-22 19:51:51.787661,199
2021-09-22 19:51:51.787667,218
2021-09-22 19:51:51.787673,250
2021-09-22 19:51:51.787679,294
2021-09-22 19:51:51.787685,326
2021-09-22 19:51:51.787691,345
2021-09-22 19:51:51.787696,367
2021-09-22 19:51:51.787702,394
2021-09-22 19:51:51.787708,413
2021-09-22 19:51:51.787714,420
2021-09-22 19:51:51.787720,408
2021-09-22 19:51:51.787725,382
2021-09-22 19:51:51.787731,333
2021-09-22 19:51:51.787736,257
2021-09-22 19:51:51.787742,160
2021-09-22 19:51:51.787748,63
2021-09-22 19:51:51.787753,-21
2021-09-22 19:51:51.787759,-107
2021-09-22 19:51:51.787765,-175
2021-09-22 19:51:51.787771,-216
2021-09-22 19:51:51.787777,-238
2021-09-22 19:51:51.787782,-250
2021-09-22 19:51:51.787788,-250
2021-09-22 19:51:51.924008,-245
2021-09-22 19:51:51.924029,-238
2021-09-22 19:51:51.924036,-226
2021-09-22 19:51:51.924042,-211
2021-09-22 19:51:51.924048,-199
2021-09-22 19:51:51.924054,-184
2021-09-22 19:51:51.924060,-170
2021-09-22 19:51:51.924066,-158
2021-09-22 19:51:51.924072,-148
2021-09-22 19:51:51.924078,-136
2021-09-22 19:51:51.924084,-124
2021-09-22 19:51:51.924090,-114
2021-09-22 19:51:51.924096,-116
2021-09-22 19:51:51.924102,-119
2021-09-22 19:51:51.924108,-107
2021-09-22 19:51:51.924114,-99
2021-09-22 19:51:51.924120,-109
2021-09-22 19:51:51.924126,-119
2021-09-22 19:51:51.924131,-111
2021-09-22 19:51:51.924137,-94
2021-09-22 19:51:51.924143,-82
2021-09-22 19:51:51.924149,-85
2021-09-22 19:51:51.924154,-94
2021-09-22 19:51:51.924160,-94
2021-09-22 19:51:51.924166,-92
2021-09-22 19:51:51.924172,-92
2021-09-22 19:51:51.924177,-97
2021-09-22 19:51:51.924183,-104
2021-09-22 19:51:51.924189,-94
2021-09-22 19:51:51.924195,-75
2021-09-22 19:51:52.193303,-68
2021-09-22 19:51:52.193322,-70
2021-09-22 19:51:52.193329,-70
2021-09-22 19:51:52.193335,-72
2021-09-22 19:51:52.193341,-80
2021-09-22 19:51:52.193347,-77
2021-09-22 19:51:52.193353,-68
2021-09-22 19:51:52.193359,-65
2021-09-22 19:51:52.193365,-72
2021-09-22 19:51:52.193371,-82
2021-09-22 19:51:52.193376,-92
2021-09-22 19:51:52.193382,-92
2021-09-22 19:51:52.193388,-82
2021-09-22 19:51:52.193394,-82
2021-09-22 19:51:52.193400,-97
2021-09-22 19:51:52.193406,-90
2021-09-22 19:51:52.193411,-68
2021-09-22 19:51:52.193417,-58
2021-09-22 19:51:52.193423,-55
2021-09-22 19:51:52.193428,-53
2021-09-22 19:51:52.193434,-43
2021-09-22 19:51:52.193440,-41
2021-09-22 19:51:52.193446,-55
2021-09-22 19:51:52.193452,-70
2021-09-22 19:51:52.193458,-72
2021-09-22 19:51:52.193464,-70
2021-09-22 19:51:52.193469,-70
2021-09-22 19:51:52.193475,-70
2021-09-22 19:51:52.193481,-75
2021-09-22 19:51:52.193487,-70
2021-09-22 19:51:52.373948,-51
2021-09-22 19:51:52.373969,-46
2021-09-22 19:51:52.373977,-43
2021-09-22 19:51:52.373983,14
2021-09-22 19:51:52.373989,141
2021-09-22 19:51:52.373995,360
2021-09-22 19:51:52.374000,537
2021-09-22 19:51:52.374006,347
2021-09-22 19:51:52.374012,-148
2021-09-22 19:51:52.374018,-593
2021-09-22 19:51:52.374024,-693
2021-09-22 19:51:52.374029,-377
2021-09-22 19:51:52.374035,-85
2021-09-22 19:51:52.374041,-34
2021-09-22 19:51:52.374046,43
2021-09-22 19:51:52.374052,119
2021-09-22 19:51:52.374058,99
2021-09-22 19:51:52.374064,104
2021-09-22 19:51:52.374070,141
2021-09-22 19:51:52.374075,141
2021-09-22 19:51:52.374081,136
2021-09-22 19:51:52.374087,150
2021-09-22 19:51:52.374093,160
2021-09-22 19:51:52.374098,167
2021-09-22 19:51:52.374104,187
2021-09-22 19:51:52.374110,204
2021-09-22 19:51:52.374116,218
2021-09-22 19:51:52.374121,243
2021-09-22 19:51:52.374127,265
2021-09-22 19:51:52.374133,277
2021-09-22 19:51:52.599022,299
2021-09-22 19:51:52.599046,330
2021-09-22 19:51:52.599053,352
2021-09-22 19:51:52.599060,374
2021-09-22 19:51:52.599066,401
2021-09-22 19:51:52.599071,416
2021-09-22 19:51:52.599077,413
2021-09-22 19:51:52.599083,401
2021-09-22 19:51:52.599089,382
2021-09-22 19:51:52.599095,338
2021-09-22 19:51:52.599101,262
2021-09-22 19:51:52.599107,163
2021-09-22 19:51:52.599112,51
2021-09-22 19:51:52.599118,-43
2021-09-22 19:51:52.599124,-124
2021-09-22 19:51:52.599130,-197
2021-09-22 19:51:52.599136,-243
2021-09-22 19:51:52.599141,-260
2021-09-22 19:51:52.599147,-262
2021-09-22 19:51:52.599153,-255
2021-09-22 19:51:52.599159,-257
2021-09-22 19:51:52.599165,-257
2021-09-22 19:51:52.599171,-226
2021-09-22 19:51:52.599177,-206
2021-09-22 19:51:52.599182,-204
2021-09-22 19:51:52.599188,-187
2021-09-22 19:51:52.599194,-167
2021-09-22 19:51:52.599200,-163
2021-09-22 19:51:52.599205,-155
2021-09-22 19:51:52.599211,-141
2021-09-22 19:51:52.824037,-131
2021-09-22 19:51:52.824057,-124
2021-09-22 19:51:52.824064,-116
2021-09-22 19:51:52.824070,-107
2021-09-22 19:51:52.824076,-109
2021-09-22 19:51:52.824082,-119
2021-09-22 19:51:52.824088,-116
2021-09-22 19:51:52.824094,-104
2021-09-22 19:51:52.824100,-102
2021-09-22 19:51:52.824106,-111
2021-09-22 19:51:52.824112,-119
2021-09-22 19:51:52.824118,-111
2021-09-22 19:51:52.824124,-104
2021-09-22 19:51:52.824130,-102
2021-09-22 19:51:52.824135,-99
2021-09-22 19:51:52.824142,-102
2021-09-22 19:51:52.824148,-102
2021-09-22 19:51:52.824154,-82
2021-09-22 19:51:52.824159,-75
2021-09-22 19:51:52.824165,-82
2021-09-22 19:51:52.824171,-77
2021-09-22 19:51:52.824177,-72
2021-09-22 19:51:52.824183,-68
2021-09-22 19:51:52.824189,-65
2021-09-22 19:51:52.824194,-65
2021-09-22 19:51:52.824200,-63
2021-09-22 19:51:52.824206,-65
2021-09-22 19:51:52.824212,-75
2021-09-22 19:51:52.824218,-65
2021-09-22 19:51:52.824224,-51
2021-09-22 19:51:53.094003,-58
2021-09-22 19:51:53.094023,-58
2021-09-22 19:51:53.094030,-46
2021-09-22 19:51:53.094036,-55
2021-09-22 19:51:53.094042,-72
2021-09-22 19:51:53.094048,-77
2021-09-22 19:51:53.094054,-72
2021-09-22 19:51:53.094060,-63
2021-09-22 19:51:53.094066,-55
2021-09-22 19:51:53.094072,-58
2021-09-22 19:51:53.094078,-53
2021-09-22 19:51:53.094084,-38
2021-09-22 19:51:53.094090,-36
2021-09-22 19:51:53.094096,-51
2021-09-22 19:51:53.094102,-68
2021-09-22 19:51:53.094108,-75
2021-09-22 19:51:53.094114,-70
2021-09-22 19:51:53.094120,-70
2021-09-22 19:51:53.094126,-72
2021-09-22 19:51:53.094132,-60
2021-09-22 19:51:53.094138,-70
2021-09-22 19:51:53.094144,-90
2021-09-22 19:51:53.094149,-77
2021-09-22 19:51:53.094155,-43
2021-09-22 19:51:53.094161,7
2021-09-22 19:51:53.094167,136
2021-09-22 19:51:53.094173,389
2021-09-22 19:51:53.094178,562
2021-09-22 19:51:53.094184,333
2021-09-22 19:51:53.094190,-175
2021-09-22 19:51:53.364042,-610
2021-09-22 19:51:53.364064,-683
2021-09-22 19:51:53.364071,-338
2021-09-22 19:51:53.364077,-53
2021-09-22 19:51:53.364083,-34
2021-09-22 19:51:53.364089,26
2021-09-22 19:51:53.364095,116
2021-09-22 19:51:53.364101,90
2021-09-22 19:51:53.364107,72
2021-09-22 19:51:53.364113,111
2021-09-22 19:51:53.364118,126
2021-09-22 19:51:53.364124,124
2021-09-22 19:51:53.364130,143
2021-09-22 19:51:53.364136,160
2021-09-22 19:51:53.364142,160
2021-09-22 19:51:53.364148,170
2021-09-22 19:51:53.364154,189
2021-09-22 19:51:53.364159,204
2021-09-22 19:51:53.364165,228
2021-09-22 19:51:53.364171,255
2021-09-22 19:51:53.364177,270
2021-09-22 19:51:53.364183,289
2021-09-22 19:51:53.364189,323
2021-09-22 19:51:53.364194,357
2021-09-22 19:51:53.364200,384
2021-09-22 19:51:53.364206,406
2021-09-22 19:51:53.364211,423
2021-09-22 19:51:53.364217,425
2021-09-22 19:51:53.364223,413
2021-09-22 19:51:53.364229,386
2021-09-22 19:51:53.544010,340
2021-09-22 19:51:53.544030,272
2021-09-22 19:51:53.544037,172
2021-09-22 19:51:53.544043,60
2021-09-22 19:51:53.544049,-38
2021-09-22 19:51:53.544055,-119
2021-09-22 19:51:53.544061,-177
2021-09-22 19:51:53.544067,-221
2021-09-22 19:51:53.544073,-250
2021-09-22 19:51:53.544079,-265
2021-09-22 19:51:53.544084,-265
2021-09-22 19:51:53.544096,-257
2021-09-22 19:51:53.544102,-248
2021-09-22 19:51:53.544108,-236
2021-09-22 19:51:53.544113,-226
2021-09-22 19:51:53.544119,-209
2021-09-22 19:51:53.544125,-189
2021-09-22 19:51:53.544131,-180
2021-09-22 19:51:53.544137,-170
2021-09-22 19:51:53.544142,-158
2021-09-22 19:51:53.544148,-150
2021-09-22 19:51:53.544154,-138
2021-09-22 19:51:53.544160,-128
2021-09-22 19:51:53.544165,-124
2021-09-22 19:51:53.544171,-114
2021-09-22 19:51:53.544177,-116
2021-09-22 19:51:53.544182,-126
2021-09-22 19:51:53.544188,-124
2021-09-22 19:51:53.544194,-109
2021-09-22 19:51:53.544199,-107
2021-09-22 19:51:53.812641,-111
2021-09-22 19:51:53.812661,-109
2021-09-22 19:51:53.812668,-114
2021-09-22 19:51:53.812674,-119
2021-09-22 19:51:53.812680,-111
2021-09-22 19:51:53.812686,-97
2021-09-22 19:51:53.812692,-90
2021-09-22 19:51:53.812698,-85
2021-09-22 19:51:53.812703,-87
2021-09-22 19:51:53.812709,-94
2021-09-22 19:51:53.812715,-94
2021-09-22 19:51:53.812721,-94
2021-09-22 19:51:53.812727,-99
2021-09-22 19:51:53.812733,-104
2021-09-22 19:51:53.812738,-102
2021-09-22 19:51:53.812744,-97
2021-09-22 19:51:53.812750,-92
2021-09-22 19:51:53.812756,-87
2021-09-22 19:51:53.812761,-72
2021-09-22 19:51:53.812767,-68
2021-09-22 19:51:53.812773,-77
2021-09-22 19:51:53.812779,-80
2021-09-22 19:51:53.812784,-68
2021-09-22 19:51:53.812790,-65
2021-09-22 19:51:53.812796,-72
2021-09-22 19:51:53.812801,-75
2021-09-22 19:51:53.812807,-72
2021-09-22 19:51:53.812813,-75
2021-09-22 19:51:53.812819,-82
2021-09-22 19:51:53.812824,-80
2021-09-22 19:51:53.994036,-68
2021-09-22 19:51:53.994056,-46
2021-09-22 19:51:53.994063,-24
2021-09-22 19:51:53.994070,-36
2021-09-22 19:51:53.994076,-41
2021-09-22 19:51:53.994081,-19
2021-09-22 19:51:53.994087,-38
2021-09-22 19:51:53.994093,-70
2021-09-22 19:51:53.994099,-68
2021-09-22 19:51:53.994105,-60
2021-09-22 19:51:53.994111,-63
2021-09-22 19:51:53.994117,-65
2021-09-22 19:51:53.994123,-70
2021-09-22 19:51:53.994128,-72
2021-09-22 19:51:53.994134,-65
2021-09-22 19:51:53.994140,-60
2021-09-22 19:51:53.994146,-58
2021-09-22 19:51:53.994152,-21
2021-09-22 19:51:53.994157,80
2021-09-22 19:51:53.994163,299
2021-09-22 19:51:53.994169,554
2021-09-22 19:51:53.994175,515
2021-09-22 19:51:53.994181,55
2021-09-22 19:51:53.994186,-496
2021-09-22 19:51:53.994192,-691
2021-09-22 19:51:53.994198,-399
2021-09-22 19:51:53.994204,-90
2021-09-22 19:51:53.994209,-36
2021-09-22 19:51:53.994215,14
2021-09-22 19:51:53.994221,97
2021-09-22 19:51:54.219011,92
2021-09-22 19:51:54.219030,82
2021-09-22 19:51:54.219037,104
2021-09-22 19:51:54.219043,111
2021-09-22 19:51:54.219049,119
2021-09-22 19:51:54.219055,131
2021-09-22 19:51:54.219061,133
2021-09-22 19:51:54.219067,145
2021-09-22 19:51:54.219073,172
2021-09-22 19:51:54.219078,187
2021-09-22 19:51:54.219084,197
2021-09-22 19:51:54.219090,211
2021-09-22 19:51:54.219096,233
2021-09-22 19:51:54.219102,265
2021-09-22 19:51:54.219107,284
2021-09-22 19:51:54.219113,296
2021-09-22 19:51:54.219119,326
2021-09-22 19:51:54.219125,357
2021-09-22 19:51:54.219130,379
2021-09-22 19:51:54.219136,391
2021-09-22 19:51:54.219142,399
2021-09-22 19:51:54.219147,396
2021-09-22 19:51:54.219153,374
2021-09-22 19:51:54.219159,338
2021-09-22 19:51:54.219165,284
2021-09-22 19:51:54.219170,199
2021-09-22 19:51:54.219176,94
2021-09-22 19:51:54.219182,4
2021-09-22 19:51:54.219188,-77
2021-09-22 19:51:54.219194,-153
2021-09-22 19:51:54.444063,-194
2021-09-22 19:51:54.444083,-214
2021-09-22 19:51:54.444090,-238
2021-09-22 19:51:54.444096,-243
2021-09-22 19:51:54.444102,-236
2021-09-22 19:51:54.444108,-240
2021-09-22 19:51:54.444114,-226
2021-09-22 19:51:54.444120,-192
2021-09-22 19:51:54.444126,-172
2021-09-22 19:51:54.444132,-175
2021-09-22 19:51:54.444137,-170
2021-09-22 19:51:54.444143,-155
2021-09-22 19:51:54.444149,-143
2021-09-22 19:51:54.444155,-133
2021-09-22 19:51:54.444161,-124
2021-09-22 19:51:54.444167,-116
2021-09-22 19:51:54.444173,-114
2021-09-22 19:51:54.444178,-111
2021-09-22 19:51:54.444184,-111
2021-09-22 19:51:54.444190,-102
2021-09-22 19:51:54.444196,-94
2021-09-22 19:51:54.444202,-90
2021-09-22 19:51:54.444208,-97
2021-09-22 19:51:54.444213,-107
2021-09-22 19:51:54.444219,-104
2021-09-22 19:51:54.444225,-92
2021-09-22 19:51:54.444231,-90
2021-09-22 19:51:54.444237,-94
2021-09-22 19:51:54.444243,-92
2021-09-22 19:51:54.444249,-85
2021-09-22 19:51:54.714050,-80
2021-09-22 19:51:54.714071,-75
2021-09-22 19:51:54.714078,-75
2021-09-22 19:51:54.714084,-85
2021-09-22 19:51:54.714090,-82
2021-09-22 19:51:54.714096,-70
2021-09-22 19:51:54.714102,-77
2021-09-22 19:51:54.714108,-92
2021-09-22 19:51:54.714117,-92
2021-09-22 19:51:54.714123,-92
2021-09-22 19:51:54.714129,-92
2021-09-22 19:51:54.714135,-87
2021-09-22 19:51:54.714140,-82
2021-09-22 19:51:54.714146,-82
2021-09-22 19:51:54.714152,-72
2021-09-22 19:51:54.714158,-70
2021-09-22 19:51:54.714164,-94
2021-09-22 19:51:54.714170,-102
2021-09-22 19:51:54.714175,-80
2021-09-22 19:51:54.714181,-75
2021-09-22 19:51:54.714187,-87
2021-09-22 19:51:54.714193,-85
2021-09-22 19:51:54.714198,-77
2021-09-22 19:51:54.714204,-80
2021-09-22 19:51:54.714210,-82
2021-09-22 19:51:54.714215,-70
2021-09-22 19:51:54.714221,-46
2021-09-22 19:51:54.714227,-31
2021-09-22 19:51:54.714233,-36
2021-09-22 19:51:54.714239,-26
2021-09-22 19:51:54.938973,-9
2021-09-22 19:51:54.938994,-26
2021-09-22 19:51:54.939001,-60
2021-09-22 19:51:54.939006,-65
2021-09-22 19:51:54.939013,-55
2021-09-22 19:51:54.939018,-55
2021-09-22 19:51:54.939024,-58
2021-09-22 19:51:54.939030,-48
2021-09-22 19:51:54.939036,-48
2021-09-22 19:51:54.939041,-58
2021-09-22 19:51:54.939047,-51
2021-09-22 19:51:54.939053,-29
2021-09-22 19:51:54.939059,7
2021-09-22 19:51:54.939065,94
2021-09-22 19:51:54.939071,277
2021-09-22 19:51:54.939077,525
2021-09-22 19:51:54.939082,557
2021-09-22 19:51:54.939088,153
2021-09-22 19:51:54.939094,-435
2021-09-22 19:51:54.939099,-705
2021-09-22 19:51:54.939105,-455
2021-09-22 19:51:54.939112,-121
2021-09-22 19:51:54.939118,-51
2021-09-22 19:51:54.939124,-9
2021-09-22 19:51:54.939129,97
2021-09-22 19:51:54.939135,116
2021-09-22 19:51:54.939141,94
2021-09-22 19:51:54.939147,124
2021-09-22 19:51:54.939153,138
2021-09-22 19:51:54.939159,128
2021-09-22 19:51:55.164064,143
2021-09-22 19:51:55.164085,175
2021-09-22 19:51:55.164092,187
2021-09-22 19:51:55.164098,197
2021-09-22 19:51:55.164104,218
2021-09-22 19:51:55.164110,228
2021-09-22 19:51:55.164116,233
2021-09-22 19:51:55.164122,248
2021-09-22 19:51:55.164128,265
2021-09-22 19:51:55.164134,284
2021-09-22 19:51:55.164139,313
2021-09-22 19:51:55.164145,345
2021-09-22 19:51:55.164151,369
2021-09-22 19:51:55.164157,382
2021-09-22 19:51:55.164163,379
2021-09-22 19:51:55.164169,379
2021-09-22 19:51:55.164174,389
2021-09-22 19:51:55.164180,374
2021-09-22 19:51:55.164186,335
2021-09-22 19:51:55.164192,277
2021-09-22 19:51:55.164198,197
2021-09-22 19:51:55.164204,94
2021-09-22 19:51:55.164210,-7
2021-09-22 19:51:55.164216,-87
2021-09-22 19:51:55.164221,-150
2021-09-22 19:51:55.164227,-194
2021-09-22 19:51:55.164233,-231
2021-09-22 19:51:55.164239,-257
2021-09-22 19:51:55.164245,-255
2021-09-22 19:51:55.164251,-236
2021-09-22 19:51:55.389071,-228
2021-09-22 19:51:55.389092,-221
2021-09-22 19:51:55.389099,-209
2021-09-22 19:51:55.389106,-199
2021-09-22 19:51:55.389111,-180
2021-09-22 19:51:55.389117,-153
2021-09-22 19:51:55.389123,-138
2021-09-22 19:51:55.389129,-143
2021-09-22 19:51:55.389135,-141
2021-09-22 19:51:55.389141,-128
2021-09-22 19:51:55.389147,-114
2021-09-22 19:51:55.389153,-104
2021-09-22 19:51:55.389159,-104
2021-09-22 19:51:55.389164,-109
2021-09-22 19:51:55.389170,-109
2021-09-22 19:51:55.389176,-107
2021-09-22 19:51:55.389182,-102
2021-09-22 19:51:55.389187,-102
2021-09-22 19:51:55.389193,-111
2021-09-22 19:51:55.389199,-111
2021-09-22 19:51:55.389205,-104
2021-09-22 19:51:55.389211,-104
2021-09-22 19:51:55.389217,-102
2021-09-22 19:51:55.389222,-97
2021-09-22 19:51:55.389228,-97
2021-09-22 19:51:55.389234,-99
2021-09-22 19:51:55.389240,-97
2021-09-22 19:51:55.389245,-90
2021-09-22 19:51:55.389251,-80
2021-09-22 19:51:55.389257,-82
2021-09-22 19:51:55.614062,-90
2021-09-22 19:51:55.614084,-80
2021-09-22 19:51:55.614091,-70
2021-09-22 19:51:55.614097,-80
2021-09-22 19:51:55.614103,-80
2021-09-22 19:51:55.614108,-68
2021-09-22 19:51:55.614114,-72
2021-09-22 19:51:55.614120,-90
2021-09-22 19:51:55.614126,-82
2021-09-22 19:51:55.614132,-70
2021-09-22 19:51:55.614137,-72
2021-09-22 19:51:55.614143,-68
2021-09-22 19:51:55.614148,-58
2021-09-22 19:51:55.614154,-65
2021-09-22 19:51:55.614160,-68
2021-09-22 19:51:55.614166,-55
2021-09-22 19:51:55.614172,-58
2021-09-22 19:51:55.614178,-63
2021-09-22 19:51:55.614184,-53
2021-09-22 19:51:55.614189,-36
2021-09-22 19:51:55.614195,-24
2021-09-22 19:51:55.614201,-21
2021-09-22 19:51:55.614206,-14
2021-09-22 19:51:55.614212,7
2021-09-22 19:51:55.614218,-7
2021-09-22 19:51:55.614223,-38
2021-09-22 19:51:55.614229,-38
2021-09-22 19:51:55.614235,-29
2021-09-22 19:51:55.614241,-36
2021-09-22 19:51:55.614246,-36
2021-09-22 19:51:55.882723,-34
2021-09-22 19:51:55.882743,-31
2021-09-22 19:51:55.882750,-19
2021-09-22 19:51:55.882756,-14
2021-09-22 19:51:55.882762,-9
2021-09-22 19:51:55.882768,34
2021-09-22 19:51:55.882774,133
2021-09-22 19:51:55.882780,318
2021-09-22 19:51:55.882785,559
2021-09-22 19:51:55.882791,545
2021-09-22 19:51:55.882797,114
2021-09-22 19:51:55.882803,-450
2021-09-22 19:51:55.882809,-712
2021-09-22 19:51:55.882814,-452
2021-09-22 19:51:55.882820,-87
2021-09-22 19:51:55.882826,-14
2021-09-22 19:51:55.882832,7
2021-09-22 19:51:55.882838,111
2021-09-22 19:51:55.882843,138
2021-09-22 19:51:55.882849,119
2021-09-22 19:51:55.882855,148
2021-09-22 19:51:55.882861,167
2021-09-22 19:51:55.882866,163
2021-09-22 19:51:55.882875,175
2021-09-22 19:51:55.882881,197
2021-09-22 19:51:55.882887,206
2021-09-22 19:51:55.882893,216
2021-09-22 19:51:55.882899,233
2021-09-22 19:51:55.882904,245
2021-09-22 19:51:55.882910,265
2021-09-22 19:51:56.108536,284
2021-09-22 19:51:56.108556,299
2021-09-22 19:51:56.108563,321
2021-09-22 19:51:56.108570,355
2021-09-22 19:51:56.108575,394
2021-09-22 19:51:56.108581,418
2021-09-22 19:51:56.108587,428
2021-09-22 19:51:56.108593,445
2021-09-22 19:51:56.108599,459
2021-09-22 19:51:56.108605,445
2021-09-22 19:51:56.108611,420
2021-09-22 19:51:56.108617,382
2021-09-22 19:51:56.108623,311
2021-09-22 19:51:56.108629,226
2021-09-22 19:51:56.108635,131
2021-09-22 19:51:56.108641,21
2021-09-22 19:51:56.108647,-68
2021-09-22 19:51:56.108653,-126
2021-09-22 19:51:56.108659,-170
2021-09-22 19:51:56.108665,-201
2021-09-22 19:51:56.108670,-216
2021-09-22 19:51:56.108676,-216
2021-09-22 19:51:56.108682,-211
2021-09-22 19:51:56.108688,-214
2021-09-22 19:51:56.108694,-221
2021-09-22 19:51:56.108700,-199
2021-09-22 19:51:56.108706,-167
2021-09-22 19:51:56.108712,-165
2021-09-22 19:51:56.108718,-158
2021-09-22 19:51:56.108723,-131
2021-09-22 19:51:56.334091,-114
2021-09-22 19:51:56.334113,-119
2021-09-22 19:51:56.334120,-119
2021-09-22 19:51:56.334126,-119
2021-09-22 19:51:56.334132,-114
2021-09-22 19:51:56.334138,-99
2021-09-22 19:51:56.334144,-92
2021-09-22 19:51:56.334150,-99
2021-09-22 19:51:56.334156,-109
2021-09-22 19:51:56.334162,-109
2021-09-22 19:51:56.334168,-109
2021-09-22 19:51:56.334174,-107
2021-09-22 19:51:56.334179,-99
2021-09-22 19:51:56.334185,-102
2021-09-22 19:51:56.334191,-109
2021-09-22 19:51:56.334197,-111
2021-09-22 19:51:56.334203,-104
2021-09-22 19:51:56.334208,-94
2021-09-22 19:51:56.334214,-85
2021-09-22 19:51:56.334220,-87
2021-09-22 19:51:56.334226,-97
2021-09-22 19:51:56.334232,-97
2021-09-22 19:51:56.334237,-94
2021-09-22 19:51:56.334243,-99
2021-09-22 19:51:56.334249,-94
2021-09-22 19:51:56.334255,-90
2021-09-22 19:51:56.334261,-90
2021-09-22 19:51:56.334266,-85
2021-09-22 19:51:56.334272,-75
2021-09-22 19:51:56.334278,-72
2021-09-22 19:51:56.514076,-72
2021-09-22 19:51:56.514097,-65
2021-09-22 19:51:56.514104,-58
2021-09-22 19:51:56.514110,-60
2021-09-22 19:51:56.514116,-70
2021-09-22 19:51:56.514122,-70
2021-09-22 19:51:56.514127,-55
2021-09-22 19:51:56.514133,-46
2021-09-22 19:51:56.514139,-31
2021-09-22 19:51:56.514144,-21
2021-09-22 19:51:56.514150,-36
2021-09-22 19:51:56.514156,-26
2021-09-22 19:51:56.514162,-7
2021-09-22 19:51:56.514168,-24
2021-09-22 19:51:56.514174,-51
2021-09-22 19:51:56.514179,-60
2021-09-22 19:51:56.514185,-68
2021-09-22 19:51:56.514191,-60
2021-09-22 19:51:56.514197,-51
2021-09-22 19:51:56.514202,-51
2021-09-22 19:51:56.514208,-46
2021-09-22 19:51:56.514214,-43
2021-09-22 19:51:56.514220,-46
2021-09-22 19:51:56.514226,-19
2021-09-22 19:51:56.514232,51
2021-09-22 19:51:56.514237,180
2021-09-22 19:51:56.514243,396
2021-09-22 19:51:56.514249,552
2021-09-22 19:51:56.514255,335
2021-09-22 19:51:56.514261,-199
2021-09-22 19:51:56.784089,-659
2021-09-22 19:51:56.784110,-688
2021-09-22 19:51:56.784117,-316
2021-09-22 19:51:56.784123,-60
2021-09-22 19:51:56.784129,-58
2021-09-22 19:51:56.784135,4
2021-09-22 19:51:56.784141,92
2021-09-22 19:51:56.784146,87
2021-09-22 19:51:56.784152,90
2021-09-22 19:51:56.784158,107
2021-09-22 19:51:56.784164,109
2021-09-22 19:51:56.784170,119
2021-09-22 19:51:56.784176,141
2021-09-22 19:51:56.784182,158
2021-09-22 19:51:56.784187,165
2021-09-22 19:51:56.784193,172
2021-09-22 19:51:56.784199,187
2021-09-22 19:51:56.784205,211
2021-09-22 19:51:56.784210,231
2021-09-22 19:51:56.784216,255
2021-09-22 19:51:56.784222,282
2021-09-22 19:51:56.784228,301
2021-09-22 19:51:56.784233,330
2021-09-22 19:51:56.784239,377
2021-09-22 19:51:56.784245,411
2021-09-22 19:51:56.784251,428
2021-09-22 19:51:56.784257,437
2021-09-22 19:51:56.784262,435
2021-09-22 19:51:56.784268,416
2021-09-22 19:51:56.784274,389
2021-09-22 19:51:57.009459,343
2021-09-22 19:51:57.009480,255
2021-09-22 19:51:57.009487,145
2021-09-22 19:51:57.009493,46
2021-09-22 19:51:57.009499,-38
2021-09-22 19:51:57.009505,-119
2021-09-22 19:51:57.009511,-177
2021-09-22 19:51:57.009517,-214
2021-09-22 19:51:57.009523,-248
2021-09-22 19:51:57.009529,-270
2021-09-22 19:51:57.009534,-265
2021-09-22 19:51:57.009540,-250
2021-09-22 19:51:57.009546,-243
2021-09-22 19:51:57.009552,-236
2021-09-22 19:51:57.009558,-223
2021-09-22 19:51:57.009564,-209
2021-09-22 19:51:57.009569,-194
2021-09-22 19:51:57.009575,-177
2021-09-22 19:51:57.009581,-163
2021-09-22 19:51:57.009587,-155
2021-09-22 19:51:57.009592,-150
2021-09-22 19:51:57.009598,-143
2021-09-22 19:51:57.009604,-131
2021-09-22 19:51:57.009610,-116
2021-09-22 19:51:57.009616,-111
2021-09-22 19:51:57.009621,-111
2021-09-22 19:51:57.009627,-109
2021-09-22 19:51:57.009633,-104
2021-09-22 19:51:57.009638,-109
2021-09-22 19:51:57.009644,-116
2021-09-22 19:51:57.234066,-111
2021-09-22 19:51:57.234086,-111
2021-09-22 19:51:57.234093,-119
2021-09-22 19:51:57.234099,-111
2021-09-22 19:51:57.234105,-107
2021-09-22 19:51:57.234111,-121
2021-09-22 19:51:57.234116,-124
2021-09-22 19:51:57.234122,-109
2021-09-22 19:51:57.234128,-114
2021-09-22 19:51:57.234134,-128
2021-09-22 19:51:57.234140,-128
2021-09-22 19:51:57.234145,-131
2021-09-22 19:51:57.234151,-131
2021-09-22 19:51:57.234157,-128
2021-09-22 19:51:57.234163,-124
2021-09-22 19:51:57.234169,-121
2021-09-22 19:51:57.234174,-116
2021-09-22 19:51:57.234180,-104
2021-09-22 19:51:57.234186,-104
2021-09-22 19:51:57.234192,-111
2021-09-22 19:51:57.234197,-104
2021-09-22 19:51:57.234203,-97
2021-09-22 19:51:57.234209,-94
2021-09-22 19:51:57.234215,-87
2021-09-22 19:51:57.234220,-80
2021-09-22 19:51:57.234226,-82
2021-09-22 19:51:57.234232,-82
2021-09-22 19:51:57.234238,-75
2021-09-22 19:51:57.234243,-70
2021-09-22 19:51:57.234257,-72
2021-09-22 19:51:57.503420,-70
2021-09-22 19:51:57.503441,-65
2021-09-22 19:51:57.503448,-55
2021-09-22 19:51:57.503454,-36
2021-09-22 19:51:57.503460,-19
2021-09-22 19:51:57.503466,-17
2021-09-22 19:51:57.503472,-19
2021-09-22 19:51:57.503478,-17
2021-09-22 19:51:57.503484,-26
2021-09-22 19:51:57.503489,-41
2021-09-22 19:51:57.503495,-53
2021-09-22 19:51:57.503501,-63
2021-09-22 19:51:57.503506,-70
2021-09-22 19:51:57.503512,-70
2021-09-22 19:51:57.503518,-68
2021-09-22 19:51:57.503524,-68
2021-09-22 19:51:57.503530,-60
2021-09-22 19:51:57.503536,-51
2021-09-22 19:51:57.503542,-36
2021-09-22 19:51:57.503548,4
2021-09-22 19:51:57.503553,107
2021-09-22 19:51:57.503559,306
2021-09-22 19:51:57.503565,540
2021-09-22 19:51:57.503571,481
2021-09-22 19:51:57.503576,31
2021-09-22 19:51:57.503582,-481
2021-09-22 19:51:57.503588,-693
2021-09-22 19:51:57.503594,-435
2021-09-22 19:51:57.503600,-92
2021-09-22 19:51:57.503605,-29
2021-09-22 19:51:57.684014,-2
2021-09-22 19:51:57.684033,109
2021-09-22 19:51:57.684040,119
2021-09-22 19:51:57.684046,97
2021-09-22 19:51:57.684052,136
2021-09-22 19:51:57.684058,155
2021-09-22 19:51:57.684064,143
2021-09-22 19:51:57.684069,158
2021-09-22 19:51:57.684075,172
2021-09-22 19:51:57.684081,172
2021-09-22 19:51:57.684087,184
2021-09-22 19:51:57.684093,201
2021-09-22 19:51:57.684098,204
2021-09-22 19:51:57.684104,209
2021-09-22 19:51:57.684110,228
2021-09-22 19:51:57.684116,250
2021-09-22 19:51:57.684121,282
2021-09-22 19:51:57.684127,323
2021-09-22 19:51:57.684132,352
2021-09-22 19:51:57.684138,379
2021-09-22 19:51:57.684144,403
2021-09-22 19:51:57.684150,420
2021-09-22 19:51:57.684156,433
2021-09-22 19:51:57.684161,428
2021-09-22 19:51:57.684167,399
2021-09-22 19:51:57.684172,364
2021-09-22 19:51:57.684178,301
2021-09-22 19:51:57.684184,206
2021-09-22 19:51:57.684189,107
2021-09-22 19:51:57.684195,4
2021-09-22 19:51:57.998371,-87
2021-09-22 19:51:57.998392,-150
2021-09-22 19:51:57.998399,-197
2021-09-22 19:51:57.998405,-231
2021-09-22 19:51:57.998411,-245
2021-09-22 19:51:57.998417,-257
2021-09-22 19:51:57.998424,-262
2021-09-22 19:51:57.998430,-248
2021-09-22 19:51:57.998435,-233
2021-09-22 19:51:57.998441,-223
2021-09-22 19:51:57.998447,-211
2021-09-22 19:51:57.998453,-206
2021-09-22 19:51:57.998459,-192
2021-09-22 19:51:57.998465,-167
2021-09-22 19:51:57.998471,-158
2021-09-22 19:51:57.998477,-158
2021-09-22 19:51:57.998483,-145
2021-09-22 19:51:57.998489,-133
2021-09-22 19:51:57.998494,-131
2021-09-22 19:51:57.998500,-126
2021-09-22 19:51:57.998506,-111
2021-09-22 19:51:57.998512,-99
2021-09-22 19:51:57.998518,-102
2021-09-22 19:51:57.998524,-111
2021-09-22 19:51:57.998530,-114
2021-09-22 19:51:57.998536,-109
2021-09-22 19:51:57.998542,-104
2021-09-22 19:51:57.998547,-104
2021-09-22 19:51:57.998553,-104
2021-09-22 19:51:57.998559,-102
2021-09-22 19:51:58.134045,-107
2021-09-22 19:51:58.134065,-104
2021-09-22 19:51:58.134072,-97
2021-09-22 19:51:58.134078,-104
2021-09-22 19:51:58.134084,-111
2021-09-22 19:51:58.134090,-107
2021-09-22 19:51:58.134096,-104
2021-09-22 19:51:58.134102,-97
2021-09-22 19:51:58.134107,-90
2021-09-22 19:51:58.134113,-94
2021-09-22 19:51:58.134119,-97
2021-09-22 19:51:58.134125,-97
2021-09-22 19:51:58.134130,-97
2021-09-22 19:51:58.134136,-87
2021-09-22 19:51:58.134142,-82
2021-09-22 19:51:58.134148,-85
2021-09-22 19:51:58.134154,-87
2021-09-22 19:51:58.134160,-94
2021-09-22 19:51:58.134166,-94
2021-09-22 19:51:58.134172,-82
2021-09-22 19:51:58.134177,-82
2021-09-22 19:51:58.134183,-90
2021-09-22 19:51:58.134189,-87
2021-09-22 19:51:58.134195,-77
2021-09-22 19:51:58.134201,-80
2021-09-22 19:51:58.134206,-82
2021-09-22 19:51:58.134212,-77
2021-09-22 19:51:58.134218,-70
2021-09-22 19:51:58.134224,-60
2021-09-22 19:51:58.134229,-41
2021-09-22 19:51:58.359133,-21
2021-09-22 19:51:58.359154,-19
2021-09-22 19:51:58.359161,-24
2021-09-22 19:51:58.359167,-14
2021-09-22 19:51:58.359173,-21
2021-09-22 19:51:58.359179,-43
2021-09-22 19:51:58.359185,-51
2021-09-22 19:51:58.359191,-58
2021-09-22 19:51:58.359197,-68
2021-09-22 19:51:58.359203,-60
2021-09-22 19:51:58.359209,-55
2021-09-22 19:51:58.359215,-53
2021-09-22 19:51:58.359220,-43
2021-09-22 19:51:58.359226,-41
2021-09-22 19:51:58.359232,-43
2021-09-22 19:51:58.359238,-31
2021-09-22 19:51:58.359243,17
2021-09-22 19:51:58.359249,148
2021-09-22 19:51:58.359255,386
2021-09-22 19:51:58.359261,581
2021-09-22 19:51:58.359267,411
2021-09-22 19:51:58.359272,-109
2021-09-22 19:51:58.359278,-588
2021-09-22 19:51:58.359284,-678
2021-09-22 19:51:58.359290,-338
2021-09-22 19:51:58.359295,-51
2021-09-22 19:51:58.359301,-34
2021-09-22 19:51:58.359307,12
2021-09-22 19:51:58.359312,102
2021-09-22 19:51:58.359318,99
2021-09-22 19:51:58.674125,97
2021-09-22 19:51:58.674146,138
2021-09-22 19:51:58.674153,150
2021-09-22 19:51:58.674159,138
2021-09-22 19:51:58.674165,143
2021-09-22 19:51:58.674171,158
2021-09-22 19:51:58.674177,177
2021-09-22 19:51:58.674183,194
2021-09-22 19:51:58.674188,204
2021-09-22 19:51:58.674194,206
2021-09-22 19:51:58.674200,218
2021-09-22 19:51:58.674206,253
2021-09-22 19:51:58.674211,289
2021-09-22 19:51:58.674217,311
2021-09-22 19:51:58.674223,333
2021-09-22 19:51:58.674229,369
2021-09-22 19:51:58.674235,408
2021-09-22 19:51:58.674240,433
2021-09-22 19:51:58.674246,442
2021-09-22 19:51:58.674252,445
2021-09-22 19:51:58.674258,437
2021-09-22 19:51:58.674263,413
2021-09-22 19:51:58.674269,362
2021-09-22 19:51:58.674275,284
2021-09-22 19:51:58.674280,182
2021-09-22 19:51:58.674286,75
2021-09-22 19:51:58.674292,-21
2021-09-22 19:51:58.674297,-107
2021-09-22 19:51:58.674303,-172
2021-09-22 19:51:58.674309,-211
2021-09-22 19:51:58.854049,-233
2021-09-22 19:51:58.854069,-250
2021-09-22 19:51:58.854077,-253
2021-09-22 19:51:58.854083,-248
2021-09-22 19:51:58.854089,-240
2021-09-22 19:51:58.854094,-226
2021-09-22 19:51:58.854100,-214
2021-09-22 19:51:58.854106,-201
2021-09-22 19:51:58.854112,-182
2021-09-22 19:51:58.854118,-167
2021-09-22 19:51:58.854123,-155
2021-09-22 19:51:58.854130,-141
2021-09-22 19:51:58.854136,-126
2021-09-22 19:51:58.854141,-111
2021-09-22 19:51:58.854147,-111
2021-09-22 19:51:58.854153,-119
2021-09-22 19:51:58.854159,-111
2021-09-22 19:51:58.854165,-102
2021-09-22 19:51:58.854171,-99
2021-09-22 19:51:58.854176,-99
2021-09-22 19:51:58.854182,-109
2021-09-22 19:51:58.854188,-119
2021-09-22 19:51:58.854193,-109
2021-09-22 19:51:58.854199,-97
2021-09-22 19:51:58.854205,-107
2021-09-22 19:51:58.854211,-119
2021-09-22 19:51:58.854216,-116
2021-09-22 19:51:58.854222,-114
2021-09-22 19:51:58.854238,-111
2021-09-22 19:51:58.854244,-107
2021-09-22 19:51:59.123517,-116
2021-09-22 19:51:59.123539,-121
2021-09-22 19:51:59.123546,-109
2021-09-22 19:51:59.123552,-102
2021-09-22 19:51:59.123558,-109
2021-09-22 19:51:59.123564,-104
2021-09-22 19:51:59.123570,-92
2021-09-22 19:51:59.123576,-94
2021-09-22 19:51:59.123582,-99
2021-09-22 19:51:59.123588,-99
2021-09-22 19:51:59.123594,-97
2021-09-22 19:51:59.123600,-92
2021-09-22 19:51:59.123606,-87
2021-09-22 19:51:59.123612,-87
2021-09-22 19:51:59.123618,-87
2021-09-22 19:51:59.123624,-87
2021-09-22 19:51:59.123629,-85
2021-09-22 19:51:59.123635,-77
2021-09-22 19:51:59.123641,-72
2021-09-22 19:51:59.123647,-70
2021-09-22 19:51:59.123653,-68
2021-09-22 19:51:59.123659,-68
2021-09-22 19:51:59.123664,-65
2021-09-22 19:51:59.123670,-55
2021-09-22 19:51:59.123676,-46
2021-09-22 19:51:59.123682,-48
2021-09-22 19:51:59.123688,-60
2021-09-22 19:51:59.123693,-53
2021-09-22 19:51:59.123699,-34
2021-09-22 19:51:59.123705,-29
2021-09-22 19:51:59.304161,-36
2021-09-22 19:51:59.304182,-31
2021-09-22 19:51:59.304189,-19
2021-09-22 19:51:59.304195,-19
2021-09-22 19:51:59.304201,-29
2021-09-22 19:51:59.304207,-43
2021-09-22 19:51:59.304213,-55
2021-09-22 19:51:59.304219,-58
2021-09-22 19:51:59.304225,-53
2021-09-22 19:51:59.304231,-48
2021-09-22 19:51:59.304237,-43
2021-09-22 19:51:59.304244,-41
2021-09-22 19:51:59.304251,-43
2021-09-22 19:51:59.304257,-38
2021-09-22 19:51:59.304263,-4
2021-09-22 19:51:59.304269,85
2021-09-22 19:51:59.304275,282
2021-09-22 19:51:59.304281,542
2021-09-22 19:51:59.304287,554
2021-09-22 19:51:59.304293,143
2021-09-22 19:51:59.304299,-408
2021-09-22 19:51:59.304305,-700
2021-09-22 19:51:59.304311,-496
2021-09-22 19:51:59.304317,-128
2021-09-22 19:51:59.304322,-29
2021-09-22 19:51:59.304328,-9
2021-09-22 19:51:59.304334,90
2021-09-22 19:51:59.304340,116
2021-09-22 19:51:59.304346,97
2021-09-22 19:51:59.304352,119
2021-09-22 19:51:59.529122,128
2021-09-22 19:51:59.529143,126
2021-09-22 19:51:59.529150,145
2021-09-22 19:51:59.529156,160
2021-09-22 19:51:59.529162,170
2021-09-22 19:51:59.529167,182
2021-09-22 19:51:59.529173,194
2021-09-22 19:51:59.529179,204
2021-09-22 19:51:59.529185,223
2021-09-22 19:51:59.529190,243
2021-09-22 19:51:59.529196,253
2021-09-22 19:51:59.529202,279
2021-09-22 19:51:59.529208,321
2021-09-22 19:51:59.529214,350
2021-09-22 19:51:59.529219,377
2021-09-22 19:51:59.529225,406
2021-09-22 19:51:59.529231,433
2021-09-22 19:51:59.529237,452
2021-09-22 19:51:59.529242,445
2021-09-22 19:51:59.529248,423
2021-09-22 19:51:59.529254,386
2021-09-22 19:51:59.529260,318
2021-09-22 19:51:59.529266,226
2021-09-22 19:51:59.529271,128
2021-09-22 19:51:59.529277,21
2021-09-22 19:51:59.529283,-75
2021-09-22 19:51:59.529289,-136
2021-09-22 19:51:59.529295,-180
2021-09-22 19:51:59.529300,-216
2021-09-22 19:51:59.529306,-236
2021-09-22 19:51:59.754138,-245
2021-09-22 19:51:59.754160,-257
2021-09-22 19:51:59.754167,-250
2021-09-22 19:51:59.754173,-236
2021-09-22 19:51:59.754179,-236
2021-09-22 19:51:59.754185,-238
2021-09-22 19:51:59.754191,-231
2021-09-22 19:51:59.754197,-206
2021-09-22 19:51:59.754203,-180
2021-09-22 19:51:59.754209,-167
2021-09-22 19:51:59.754215,-160
2021-09-22 19:51:59.754221,-163
2021-09-22 19:51:59.754226,-163
2021-09-22 19:51:59.754232,-143
2021-09-22 19:51:59.754238,-126
2021-09-22 19:51:59.754244,-136
2021-09-22 19:51:59.754250,-138
2021-09-22 19:51:59.754256,-126
2021-09-22 19:51:59.754261,-121
2021-09-22 19:51:59.754267,-121
2021-09-22 19:51:59.754273,-126
2021-09-22 19:51:59.754279,-126
2021-09-22 19:51:59.754285,-114
2021-09-22 19:51:59.754291,-114
2021-09-22 19:51:59.754297,-126
2021-09-22 19:51:59.754303,-121
2021-09-22 19:51:59.754308,-109
2021-09-22 19:51:59.754314,-111
2021-09-22 19:51:59.754320,-126
2021-09-22 19:51:59.754326,-116
2021-09-22 19:52:00.157590,-99
2021-09-22 19:52:00.157612,-97
2021-09-22 19:52:00.157619,-102
2021-09-22 19:52:00.157625,-107
2021-09-22 19:52:00.157631,-102
2021-09-22 19:52:00.157637,-99
2021-09-22 19:52:00.157643,-102
2021-09-22 19:52:00.157649,-90
2021-09-22 19:52:00.157654,-80
2021-09-22 19:52:00.157660,-85
2021-09-22 19:52:00.157666,-90
2021-09-22 19:52:00.157672,-90
2021-09-22 19:52:00.157678,-80
2021-09-22 19:52:00.157684,-70
2021-09-22 19:52:00.157690,-68
2021-09-22 19:52:00.157696,-65
2021-09-22 19:52:00.157702,-65
2021-09-22 19:52:00.157708,-60
2021-09-22 19:52:00.157714,-51
2021-09-22 19:52:00.157719,-48
2021-09-22 19:52:00.157725,-48
2021-09-22 19:52:00.157731,-41
2021-09-22 19:52:00.157737,-41
2021-09-22 19:52:00.157743,-46
2021-09-22 19:52:00.157748,-29
2021-09-22 19:52:00.157754,0
2021-09-22 19:52:00.157760,7
2021-09-22 19:52:00.157766,0
2021-09-22 19:52:00.157772,7
2021-09-22 19:52:00.157778,12
2021-09-22 19:52:00.248377,0
2021-09-22 19:52:00.248396,-12
2021-09-22 19:52:00.248403,-21
2021-09-22 19:52:00.248409,-26
2021-09-22 19:52:00.248415,-26
2021-09-22 19:52:00.248421,-29
2021-09-22 19:52:00.248427,-29
2021-09-22 19:52:00.248433,-21
2021-09-22 19:52:00.248439,-19
2021-09-22 19:52:00.248445,-17
2021-09-22 19:52:00.248451,-7
2021-09-22 19:52:00.248457,53
2021-09-22 19:52:00.248463,177
2021-09-22 19:52:00.248469,394
2021-09-22 19:52:00.248474,610
2021-09-22 19:52:00.248480,484
2021-09-22 19:52:00.248486,-19
2021-09-22 19:52:00.248492,-535
2021-09-22 19:52:00.248497,-676
2021-09-22 19:52:00.248503,-347
2021-09-22 19:52:00.248509,-43
2021-09-22 19:52:00.248514,-17
2021-09-22 19:52:00.248520,36
2021-09-22 19:52:00.248526,138
2021-09-22 19:52:00.248532,138
2021-09-22 19:52:00.248537,128
2021-09-22 19:52:00.248543,153
2021-09-22 19:52:00.248549,160
2021-09-22 19:52:00.248555,163
2021-09-22 19:52:00.248561,184
2021-09-22 19:52:00.474233,197
2021-09-22 19:52:00.474254,199
2021-09-22 19:52:00.474261,214
2021-09-22 19:52:00.474268,231
2021-09-22 19:52:00.474274,238
2021-09-22 19:52:00.474281,248
2021-09-22 19:52:00.474287,274
2021-09-22 19:52:00.474293,301
2021-09-22 19:52:00.474300,321
2021-09-22 19:52:00.474306,345
2021-09-22 19:52:00.474312,382
2021-09-22 19:52:00.474318,418
2021-09-22 19:52:00.474325,447
2021-09-22 19:52:00.474331,467
2021-09-22 19:52:00.474338,464
2021-09-22 19:52:00.474345,447
2021-09-22 19:52:00.474352,425
2021-09-22 19:52:00.474360,389
2021-09-22 19:52:00.474366,326
2021-09-22 19:52:00.474373,226
2021-09-22 19:52:00.474379,111
2021-09-22 19:52:00.474385,7
2021-09-22 19:52:00.474391,-80
2021-09-22 19:52:00.474398,-143
2021-09-22 19:52:00.474404,-184
2021-09-22 19:52:00.474410,-209
2021-09-22 19:52:00.474416,-228
2021-09-22 19:52:00.474422,-238
2021-09-22 19:52:00.474428,-233
2021-09-22 19:52:00.474434,-231
2021-09-22 19:52:00.699076,-221
2021-09-22 19:52:00.699096,-197
2021-09-22 19:52:00.699103,-187
2021-09-22 19:52:00.699109,-189
2021-09-22 19:52:00.699115,-170
2021-09-22 19:52:00.699121,-145
2021-09-22 19:52:00.699127,-143
2021-09-22 19:52:00.699133,-138
2021-09-22 19:52:00.699139,-133
2021-09-22 19:52:00.699145,-136
2021-09-22 19:52:00.699151,-128
2021-09-22 19:52:00.699157,-116
2021-09-22 19:52:00.699163,-119
2021-09-22 19:52:00.699168,-124
2021-09-22 19:52:00.699174,-124
2021-09-22 19:52:00.699180,-133
2021-09-22 19:52:00.699186,-143
2021-09-22 19:52:00.699192,-136
2021-09-22 19:52:00.699198,-131
2021-09-22 19:52:00.699204,-136
2021-09-22 19:52:00.699209,-138
2021-09-22 19:52:00.699216,-133
2021-09-22 19:52:00.699222,-131
2021-09-22 19:52:00.699234,-128
2021-09-22 19:52:00.699240,-116
2021-09-22 19:52:00.699246,-109
2021-09-22 19:52:00.699251,-114
2021-09-22 19:52:00.699257,-111
2021-09-22 19:52:00.699263,-99
2021-09-22 19:52:00.699269,-90
2021-09-22 19:52:00.969148,-90
2021-09-22 19:52:00.969169,-90
2021-09-22 19:52:00.969176,-85
2021-09-22 19:52:00.969182,-77
2021-09-22 19:52:00.969188,-70
2021-09-22 19:52:00.969194,-72
2021-09-22 19:52:00.969200,-70
2021-09-22 19:52:00.969206,-58
2021-09-22 19:52:00.969211,-63
2021-09-22 19:52:00.969217,-77
2021-09-22 19:52:00.969223,-75
2021-09-22 19:52:00.969229,-65
2021-09-22 19:52:00.969235,-60
2021-09-22 19:52:00.969241,-65
2021-09-22 19:52:00.969246,-68
2021-09-22 19:52:00.969252,-48
2021-09-22 19:52:00.969258,-24
2021-09-22 19:52:00.969264,-21
2021-09-22 19:52:00.969269,-31
2021-09-22 19:52:00.969275,-19
2021-09-22 19:52:00.969281,-9
2021-09-22 19:52:00.969287,-31
2021-09-22 19:52:00.969293,-53
2021-09-22 19:52:00.969298,-51
2021-09-22 19:52:00.969304,-46
2021-09-22 19:52:00.969310,-51
2021-09-22 19:52:00.969316,-48
2021-09-22 19:52:00.969322,-43
2021-09-22 19:52:00.969327,-51
2021-09-22 19:52:00.969333,-51
2021-09-22 19:52:01.149110,-29
2021-09-22 19:52:01.149132,-7
2021-09-22 19:52:01.149139,41
2021-09-22 19:52:01.149145,175
2021-09-22 19:52:01.149151,413
2021-09-22 19:52:01.149157,566
2021-09-22 19:52:01.149163,326
2021-09-22 19:52:01.149168,-216
2021-09-22 19:52:01.149174,-659
2021-09-22 19:52:01.149180,-695
2021-09-22 19:52:01.149186,-333
2021-09-22 19:52:01.149192,-55
2021-09-22 19:52:01.149198,-31
2021-09-22 19:52:01.149204,34
2021-09-22 19:52:01.149209,121
2021-09-22 19:52:01.149215,104
2021-09-22 19:52:01.149221,97
2021-09-22 19:52:01.149227,133
2021-09-22 19:52:01.149232,145
2021-09-22 19:52:01.149238,143
2021-09-22 19:52:01.149244,150
2021-09-22 19:52:01.149250,153
2021-09-22 19:52:01.149256,155
2021-09-22 19:52:01.149261,177
2021-09-22 19:52:01.149267,201
2021-09-22 19:52:01.149273,206
2021-09-22 19:52:01.149279,221
2021-09-22 19:52:01.149285,250
2021-09-22 19:52:01.149290,277
2021-09-22 19:52:01.149296,304
2021-09-22 19:52:01.418474,340
2021-09-22 19:52:01.418495,374
2021-09-22 19:52:01.418502,396
2021-09-22 19:52:01.418509,423
2021-09-22 19:52:01.418515,447
2021-09-22 19:52:01.418521,455
2021-09-22 19:52:01.418527,442
2021-09-22 19:52:01.418533,413
2021-09-22 19:52:01.418539,355
2021-09-22 19:52:01.418545,265
2021-09-22 19:52:01.418551,165
2021-09-22 19:52:01.418557,58
2021-09-22 19:52:01.418563,-53
2021-09-22 19:52:01.418569,-145
2021-09-22 19:52:01.418575,-206
2021-09-22 19:52:01.418581,-245
2021-09-22 19:52:01.418587,-265
2021-09-22 19:52:01.418593,-267
2021-09-22 19:52:01.418599,-270
2021-09-22 19:52:01.418604,-274
2021-09-22 19:52:01.418610,-260
2021-09-22 19:52:01.418616,-240
2021-09-22 19:52:01.418622,-238
2021-09-22 19:52:01.418628,-238
2021-09-22 19:52:01.418633,-223
2021-09-22 19:52:01.418639,-204
2021-09-22 19:52:01.418645,-187
2021-09-22 19:52:01.418651,-175
2021-09-22 19:52:01.418656,-160
2021-09-22 19:52:01.418662,-145
2021-09-22 19:52:01.599061,-141
2021-09-22 19:52:01.599080,-133
2021-09-22 19:52:01.599087,-124
2021-09-22 19:52:01.599093,-121
2021-09-22 19:52:01.599099,-126
2021-09-22 19:52:01.599105,-126
2021-09-22 19:52:01.599111,-126
2021-09-22 19:52:01.599116,-128
2021-09-22 19:52:01.599122,-128
2021-09-22 19:52:01.599128,-128
2021-09-22 19:52:01.599134,-124
2021-09-22 19:52:01.599140,-121
2021-09-22 19:52:01.599146,-136
2021-09-22 19:52:01.599152,-133
2021-09-22 19:52:01.599157,-116
2021-09-22 19:52:01.599163,-119
2021-09-22 19:52:01.599169,-131
2021-09-22 19:52:01.599175,-131
2021-09-22 19:52:01.599180,-128
2021-09-22 19:52:01.599186,-119
2021-09-22 19:52:01.599192,-104
2021-09-22 19:52:01.599197,-99
2021-09-22 19:52:01.599203,-104
2021-09-22 19:52:01.599209,-102
2021-09-22 19:52:01.599215,-99
2021-09-22 19:52:01.599221,-94
2021-09-22 19:52:01.599227,-92
2021-09-22 19:52:01.599232,-102
2021-09-22 19:52:01.599238,-104
2021-09-22 19:52:01.599244,-92
2021-09-22 19:52:01.824157,-87
2021-09-22 19:52:01.824178,-87
2021-09-22 19:52:01.824185,-80
2021-09-22 19:52:01.824191,-77
2021-09-22 19:52:01.824197,-77
2021-09-22 19:52:01.824203,-82
2021-09-22 19:52:01.824209,-85
2021-09-22 19:52:01.824214,-77
2021-09-22 19:52:01.824220,-65
2021-09-22 19:52:01.824226,-41
2021-09-22 19:52:01.824232,-21
2021-09-22 19:52:01.824238,-29
2021-09-22 19:52:01.824244,-38
2021-09-22 19:52:01.824250,-24
2021-09-22 19:52:01.824256,-21
2021-09-22 19:52:01.824262,-43
2021-09-22 19:52:01.824268,-63
2021-09-22 19:52:01.824273,-68
2021-09-22 19:52:01.824279,-58
2021-09-22 19:52:01.824285,-53
2021-09-22 19:52:01.824291,-60
2021-09-22 19:52:01.824297,-58
2021-09-22 19:52:01.824303,-48
2021-09-22 19:52:01.824309,-43
2021-09-22 19:52:01.824315,-36
2021-09-22 19:52:01.824321,-2
2021-09-22 19:52:01.824327,85
2021-09-22 19:52:01.824333,267
2021-09-22 19:52:01.824338,523
2021-09-22 19:52:01.824344,564
2021-09-22 19:52:02.092789,175
2021-09-22 19:52:02.092810,-391
2021-09-22 19:52:02.092817,-708
2021-09-22 19:52:02.092823,-525
2021-09-22 19:52:02.092829,-148
2021-09-22 19:52:02.092836,-34
2021-09-22 19:52:02.092842,-26
2021-09-22 19:52:02.092848,82
2021-09-22 19:52:02.092854,126
2021-09-22 19:52:02.092860,97
2021-09-22 19:52:02.092866,114
2021-09-22 19:52:02.092872,133
2021-09-22 19:52:02.092878,128
2021-09-22 19:52:02.092884,143
2021-09-22 19:52:02.092889,165
2021-09-22 19:52:02.092895,175
2021-09-22 19:52:02.092901,184
2021-09-22 19:52:02.092907,199
2021-09-22 19:52:02.092913,209
2021-09-22 19:52:02.092919,228
2021-09-22 19:52:02.092925,257
2021-09-22 19:52:02.092931,274
2021-09-22 19:52:02.092936,287
2021-09-22 19:52:02.092942,321
2021-09-22 19:52:02.092948,367
2021-09-22 19:52:02.092954,401
2021-09-22 19:52:02.092960,425
2021-09-22 19:52:02.092966,445
2021-09-22 19:52:02.092972,457
2021-09-22 19:52:02.092978,462
2021-09-22 19:52:02.318555,442
2021-09-22 19:52:02.318577,403
2021-09-22 19:52:02.318584,345
2021-09-22 19:52:02.318590,243
2021-09-22 19:52:02.318596,114
2021-09-22 19:52:02.318602,7
2021-09-22 19:52:02.318610,-77
2021-09-22 19:52:02.318616,-150
2021-09-22 19:52:02.318622,-201
2021-09-22 19:52:02.318628,-236
2021-09-22 19:52:02.318634,-262
2021-09-22 19:52:02.318640,-270
2021-09-22 19:52:02.318646,-265
2021-09-22 19:52:02.318652,-255
2021-09-22 19:52:02.318658,-248
2021-09-22 19:52:02.318664,-240
2021-09-22 19:52:02.318670,-226
2021-09-22 19:52:02.318676,-204
2021-09-22 19:52:02.318682,-180
2021-09-22 19:52:02.318688,-165
2021-09-22 19:52:02.318693,-165
2021-09-22 19:52:02.318699,-160
2021-09-22 19:52:02.318705,-148
2021-09-22 19:52:02.318711,-141
2021-09-22 19:52:02.318716,-133
2021-09-22 19:52:02.318722,-124
2021-09-22 19:52:02.318758,-124
2021-09-22 19:52:02.318763,-121
2021-09-22 19:52:02.318769,-111
2021-09-22 19:52:02.318775,-109
2021-09-22 19:52:02.633489,-107
2021-09-22 19:52:02.633511,-111
2021-09-22 19:52:02.633518,-121
2021-09-22 19:52:02.633524,-128
2021-09-22 19:52:02.633531,-136
2021-09-22 19:52:02.633537,-133
2021-09-22 19:52:02.633543,-121
2021-09-22 19:52:02.633549,-116
2021-09-22 19:52:02.633555,-121
2021-09-22 19:52:02.633561,-128
2021-09-22 19:52:02.633567,-128
2021-09-22 19:52:02.633573,-114
2021-09-22 19:52:02.633579,-104
2021-09-22 19:52:02.633585,-104
2021-09-22 19:52:02.633591,-102
2021-09-22 19:52:02.633597,-104
2021-09-22 19:52:02.633603,-99
2021-09-22 19:52:02.633609,-82
2021-09-22 19:52:02.633614,-72
2021-09-22 19:52:02.633620,-75
2021-09-22 19:52:02.633626,-85
2021-09-22 19:52:02.633632,-90
2021-09-22 19:52:02.633638,-75
2021-09-22 19:52:02.633644,-60
2021-09-22 19:52:02.633649,-65
2021-09-22 19:52:02.633655,-68
2021-09-22 19:52:02.633661,-68
2021-09-22 19:52:02.633667,-68
2021-09-22 19:52:02.633673,-60
2021-09-22 19:52:02.633679,-53
2021-09-22 19:52:02.769175,-48
2021-09-22 19:52:02.769196,-51
2021-09-22 19:52:02.769203,-48
2021-09-22 19:52:02.769209,-41
2021-09-22 19:52:02.769215,-41
2021-09-22 19:52:02.769221,-43
2021-09-22 19:52:02.769227,-24
2021-09-22 19:52:02.769234,2
2021-09-22 19:52:02.769240,4
2021-09-22 19:52:02.769245,-14
2021-09-22 19:52:02.769251,-12
2021-09-22 19:52:02.769257,9
2021-09-22 19:52:02.769263,2
2021-09-22 19:52:02.769269,-21
2021-09-22 19:52:02.769275,-29
2021-09-22 19:52:02.769281,-34
2021-09-22 19:52:02.769287,-34
2021-09-22 19:52:02.769304,-31
2021-09-22 19:52:02.769310,-31
2021-09-22 19:52:02.769316,-31
2021-09-22 19:52:02.769322,-34
2021-09-22 19:52:02.769328,-34
2021-09-22 19:52:02.769334,-29
2021-09-22 19:52:02.769340,9
2021-09-22 19:52:02.769346,102
2021-09-22 19:52:02.769351,270
2021-09-22 19:52:02.769357,513
2021-09-22 19:52:02.769363,566
2021-09-22 19:52:02.769370,201
2021-09-22 19:52:02.769375,-345
2021-09-22 19:52:03.038521,-674
2021-09-22 19:52:03.038541,-537
2021-09-22 19:52:03.038549,-170
2021-09-22 19:52:03.038555,-21
2021-09-22 19:52:03.038561,-4
2021-09-22 19:52:03.038567,92
2021-09-22 19:52:03.038573,138
2021-09-22 19:52:03.038579,107
2021-09-22 19:52:03.038585,116
2021-09-22 19:52:03.038591,141
2021-09-22 19:52:03.038597,143
2021-09-22 19:52:03.038603,150
2021-09-22 19:52:03.038609,170
2021-09-22 19:52:03.038615,182
2021-09-22 19:52:03.038621,189
2021-09-22 19:52:03.038627,204
2021-09-22 19:52:03.038633,216
2021-09-22 19:52:03.038639,233
2021-09-22 19:52:03.038645,257
2021-09-22 19:52:03.038651,282
2021-09-22 19:52:03.038657,299
2021-09-22 19:52:03.038663,326
2021-09-22 19:52:03.038669,364
2021-09-22 19:52:03.038675,408
2021-09-22 19:52:03.038681,437
2021-09-22 19:52:03.038687,450
2021-09-22 19:52:03.038693,459
2021-09-22 19:52:03.038699,457
2021-09-22 19:52:03.038705,437
2021-09-22 19:52:03.038711,401
2021-09-22 19:52:03.219033,350
2021-09-22 19:52:03.219053,265
2021-09-22 19:52:03.219060,150
2021-09-22 19:52:03.219067,53
2021-09-22 19:52:03.219073,-24
2021-09-22 19:52:03.219079,-111
2021-09-22 19:52:03.219085,-182
2021-09-22 19:52:03.219091,-214
2021-09-22 19:52:03.219097,-228
2021-09-22 19:52:03.219103,-236
2021-09-22 19:52:03.219108,-240
2021-09-22 19:52:03.219114,-238
2021-09-22 19:52:03.219120,-228
2021-09-22 19:52:03.219126,-226
2021-09-22 19:52:03.219132,-223
2021-09-22 19:52:03.219137,-211
2021-09-22 19:52:03.219143,-192
2021-09-22 19:52:03.219149,-175
2021-09-22 19:52:03.219154,-165
2021-09-22 19:52:03.219160,-160
2021-09-22 19:52:03.219166,-153
2021-09-22 19:52:03.219172,-145
2021-09-22 19:52:03.219177,-136
2021-09-22 19:52:03.219183,-126
2021-09-22 19:52:03.219189,-126
2021-09-22 19:52:03.219195,-119
2021-09-22 19:52:03.219201,-111
2021-09-22 19:52:03.219206,-124
2021-09-22 19:52:03.219212,-128
2021-09-22 19:52:03.219218,-109
2021-09-22 19:52:03.444170,-104
2021-09-22 19:52:03.444190,-121
2021-09-22 19:52:03.444198,-131
2021-09-22 19:52:03.444204,-133
2021-09-22 19:52:03.444210,-126
2021-09-22 19:52:03.444216,-116
2021-09-22 19:52:03.444222,-121
2021-09-22 19:52:03.444228,-131
2021-09-22 19:52:03.444234,-124
2021-09-22 19:52:03.444240,-114
2021-09-22 19:52:03.444246,-119
2021-09-22 19:52:03.444252,-119
2021-09-22 19:52:03.444258,-111
2021-09-22 19:52:03.444264,-107
2021-09-22 19:52:03.444270,-99
2021-09-22 19:52:03.444276,-92
2021-09-22 19:52:03.444282,-90
2021-09-22 19:52:03.444288,-87
2021-09-22 19:52:03.444294,-80
2021-09-22 19:52:03.444300,-80
2021-09-22 19:52:03.444306,-77
2021-09-22 19:52:03.444311,-75
2021-09-22 19:52:03.444317,-77
2021-09-22 19:52:03.444323,-72
2021-09-22 19:52:03.444329,-65
2021-09-22 19:52:03.444335,-63
2021-09-22 19:52:03.444341,-63
2021-09-22 19:52:03.444347,-65
2021-09-22 19:52:03.444353,-63
2021-09-22 19:52:03.444358,-58
2021-09-22 19:52:03.714191,-51
2021-09-22 19:52:03.714213,-46
2021-09-22 19:52:03.714220,-51
2021-09-22 19:52:03.714226,-55
2021-09-22 19:52:03.714232,-51
2021-09-22 19:52:03.714238,-34
2021-09-22 19:52:03.714245,-21
2021-09-22 19:52:03.714250,-21
2021-09-22 19:52:03.714256,-17
2021-09-22 19:52:03.714262,-4
2021-09-22 19:52:03.714268,-7
2021-09-22 19:52:03.714274,-38
2021-09-22 19:52:03.714280,-68
2021-09-22 19:52:03.714286,-55
2021-09-22 19:52:03.714291,-36
2021-09-22 19:52:03.714297,-46
2021-09-22 19:52:03.714303,-51
2021-09-22 19:52:03.714309,-41
2021-09-22 19:52:03.714315,-36
2021-09-22 19:52:03.714321,-38
2021-09-22 19:52:03.714326,-36
2021-09-22 19:52:03.714332,-9
2021-09-22 19:52:03.714338,85
2021-09-22 19:52:03.714344,291
2021-09-22 19:52:03.714350,554
2021-09-22 19:52:03.714356,564
2021-09-22 19:52:03.714361,138
2021-09-22 19:52:03.714367,-433
2021-09-22 19:52:03.714373,-693
2021-09-22 19:52:03.714379,-457
2021-09-22 19:52:03.894119,-124
2021-09-22 19:52:03.894141,-41
2021-09-22 19:52:03.894148,-7
2021-09-22 19:52:03.894154,82
2021-09-22 19:52:03.894161,107
2021-09-22 19:52:03.894167,99
2021-09-22 19:52:03.894173,116
2021-09-22 19:52:03.894179,131
2021-09-22 19:52:03.894185,145
2021-09-22 19:52:03.894190,158
2021-09-22 19:52:03.894196,165
2021-09-22 19:52:03.894202,172
2021-09-22 19:52:03.894208,184
2021-09-22 19:52:03.894214,194
2021-09-22 19:52:03.894219,216
2021-09-22 19:52:03.894225,231
2021-09-22 19:52:03.894231,240
2021-09-22 19:52:03.894237,267
2021-09-22 19:52:03.894243,299
2021-09-22 19:52:03.894248,321
2021-09-22 19:52:03.894254,352
2021-09-22 19:52:03.894260,382
2021-09-22 19:52:03.894266,408
2021-09-22 19:52:03.894272,430
2021-09-22 19:52:03.894277,437
2021-09-22 19:52:03.894283,437
2021-09-22 19:52:03.894289,423
2021-09-22 19:52:03.894295,386
2021-09-22 19:52:03.894301,333
2021-09-22 19:52:03.894307,257
2021-09-22 19:52:04.207848,160
2021-09-22 19:52:04.207868,48
2021-09-22 19:52:04.207876,-51
2021-09-22 19:52:04.207882,-128
2021-09-22 19:52:04.207888,-187
2021-09-22 19:52:04.207894,-218
2021-09-22 19:52:04.207900,-233
2021-09-22 19:52:04.207906,-250
2021-09-22 19:52:04.207912,-257
2021-09-22 19:52:04.207917,-248
2021-09-22 19:52:04.207923,-248
2021-09-22 19:52:04.207929,-238
2021-09-22 19:52:04.207935,-211
2021-09-22 19:52:04.207941,-197
2021-09-22 19:52:04.207947,-187
2021-09-22 19:52:04.207953,-167
2021-09-22 19:52:04.207959,-155
2021-09-22 19:52:04.207964,-153
2021-09-22 19:52:04.207970,-145
2021-09-22 19:52:04.207976,-131
2021-09-22 19:52:04.207981,-121
2021-09-22 19:52:04.207988,-124
2021-09-22 19:52:04.207993,-124
2021-09-22 19:52:04.208000,-109
2021-09-22 19:52:04.208005,-102
2021-09-22 19:52:04.208011,-111
2021-09-22 19:52:04.208017,-124
2021-09-22 19:52:04.208023,-133
2021-09-22 19:52:04.208028,-133
2021-09-22 19:52:04.208034,-126
2021-09-22 19:52:04.389199,-128
2021-09-22 19:52:04.389221,-131
2021-09-22 19:52:04.389228,-126
2021-09-22 19:52:04.389234,-131
2021-09-22 19:52:04.389240,-138
2021-09-22 19:52:04.389246,-128
2021-09-22 19:52:04.389252,-124
2021-09-22 19:52:04.389259,-119
2021-09-22 19:52:04.389265,-104
2021-09-22 19:52:04.389271,-107
2021-09-22 19:52:04.389276,-111
2021-09-22 19:52:04.389282,-99
2021-09-22 19:52:04.389288,-92
2021-09-22 19:52:04.389295,-94
2021-09-22 19:52:04.389301,-94
2021-09-22 19:52:04.389307,-99
2021-09-22 19:52:04.389313,-97
2021-09-22 19:52:04.389319,-90
2021-09-22 19:52:04.389325,-85
2021-09-22 19:52:04.389331,-77
2021-09-22 19:52:04.389337,-72
2021-09-22 19:52:04.389343,-77
2021-09-22 19:52:04.389348,-77
2021-09-22 19:52:04.389354,-70
2021-09-22 19:52:04.389360,-63
2021-09-22 19:52:04.389366,-55
2021-09-22 19:52:04.389372,-51
2021-09-22 19:52:04.389378,-55
2021-09-22 19:52:04.389384,-58
2021-09-22 19:52:04.389390,-55
2021-09-22 19:52:04.659204,-48
2021-09-22 19:52:04.659225,-29
2021-09-22 19:52:04.659232,-2
2021-09-22 19:52:04.659238,2
2021-09-22 19:52:04.659244,-9
2021-09-22 19:52:04.659250,-2
2021-09-22 19:52:04.659256,9
2021-09-22 19:52:04.659262,-2
2021-09-22 19:52:04.659268,-29
2021-09-22 19:52:04.659274,-48
2021-09-22 19:52:04.659280,-46
2021-09-22 19:52:04.659286,-38
2021-09-22 19:52:04.659292,-48
2021-09-22 19:52:04.659298,-55
2021-09-22 19:52:04.659304,-46
2021-09-22 19:52:04.659310,-46
2021-09-22 19:52:04.659316,-46
2021-09-22 19:52:04.659322,-26
2021-09-22 19:52:04.659327,21
2021-09-22 19:52:04.659333,121
2021-09-22 19:52:04.659339,340
2021-09-22 19:52:04.659345,598
2021-09-22 19:52:04.659351,569
2021-09-22 19:52:04.659357,111
2021-09-22 19:52:04.659363,-481
2021-09-22 19:52:04.659369,-700
2021-09-22 19:52:04.659375,-379
2021-09-22 19:52:04.659381,-68
2021-09-22 19:52:04.659386,-46
2021-09-22 19:52:04.659392,12
2021-09-22 19:52:04.839186,124
2021-09-22 19:52:04.839206,119
2021-09-22 19:52:04.839213,90
2021-09-22 19:52:04.839220,119
2021-09-22 19:52:04.839226,133
2021-09-22 19:52:04.839232,133
2021-09-22 19:52:04.839238,150
2021-09-22 19:52:04.839244,165
2021-09-22 19:52:04.839249,172
2021-09-22 19:52:04.839255,187
2021-09-22 19:52:04.839261,201
2021-09-22 19:52:04.839267,218
2021-09-22 19:52:04.839273,240
2021-09-22 19:52:04.839278,260
2021-09-22 19:52:04.839284,270
2021-09-22 19:52:04.839290,294
2021-09-22 19:52:04.839296,335
2021-09-22 19:52:04.839301,369
2021-09-22 19:52:04.839307,386
2021-09-22 19:52:04.839313,416
2021-09-22 19:52:04.839319,440
2021-09-22 19:52:04.839325,435
2021-09-22 19:52:04.839331,428
2021-09-22 19:52:04.839336,416
2021-09-22 19:52:04.839342,382
2021-09-22 19:52:04.839348,318
2021-09-22 19:52:04.839354,236
2021-09-22 19:52:04.839360,128
2021-09-22 19:52:04.839365,21
2021-09-22 19:52:04.839371,-60
2021-09-22 19:52:05.064255,-128
2021-09-22 19:52:05.064278,-187
2021-09-22 19:52:05.064285,-223
2021-09-22 19:52:05.064290,-236
2021-09-22 19:52:05.064295,-233
2021-09-22 19:52:05.064300,-228
2021-09-22 19:52:05.064305,-231
2021-09-22 19:52:05.064310,-231
2021-09-22 19:52:05.064315,-218
2021-09-22 19:52:05.064320,-204
2021-09-22 19:52:05.064325,-182
2021-09-22 19:52:05.064330,-165
2021-09-22 19:52:05.064336,-165
2021-09-22 19:52:05.064341,-163
2021-09-22 19:52:05.064356,-150
2021-09-22 19:52:05.064361,-145
2021-09-22 19:52:05.064367,-141
2021-09-22 19:52:05.064372,-133
2021-09-22 19:52:05.064378,-136
2021-09-22 19:52:05.064383,-141
2021-09-22 19:52:05.064389,-141
2021-09-22 19:52:05.064394,-136
2021-09-22 19:52:05.064400,-136
2021-09-22 19:52:05.064405,-131
2021-09-22 19:52:05.064410,-124
2021-09-22 19:52:05.064416,-126
2021-09-22 19:52:05.064421,-128
2021-09-22 19:52:05.064426,-126
2021-09-22 19:52:05.064431,-124
2021-09-22 19:52:05.064436,-116
2021-09-22 19:52:05.289287,-111
2021-09-22 19:52:05.289309,-111
2021-09-22 19:52:05.289316,-111
2021-09-22 19:52:05.289324,-104
2021-09-22 19:52:05.289331,-94
2021-09-22 19:52:05.289338,-94
2021-09-22 19:52:05.289344,-102
2021-09-22 19:52:05.289350,-109
2021-09-22 19:52:05.289356,-114
2021-09-22 19:52:05.289361,-109
2021-09-22 19:52:05.289367,-97
2021-09-22 19:52:05.289373,-92
2021-09-22 19:52:05.289379,-99
2021-09-22 19:52:05.289385,-99
2021-09-22 19:52:05.289391,-85
2021-09-22 19:52:05.289397,-80
2021-09-22 19:52:05.289402,-82
2021-09-22 19:52:05.289408,-85
2021-09-22 19:52:05.289414,-82
2021-09-22 19:52:05.289420,-75
2021-09-22 19:52:05.289426,-65
2021-09-22 19:52:05.289432,-63
2021-09-22 19:52:05.289438,-58
2021-09-22 19:52:05.289444,-55
2021-09-22 19:52:05.289450,-51
2021-09-22 19:52:05.289455,-51
2021-09-22 19:52:05.289461,-51
2021-09-22 19:52:05.289467,-48
2021-09-22 19:52:05.289473,-34
2021-09-22 19:52:05.289479,-19
2021-09-22 19:52:05.514293,-9
2021-09-22 19:52:05.514313,4
2021-09-22 19:52:05.514320,9
2021-09-22 19:52:05.514327,7
2021-09-22 19:52:05.514333,7
2021-09-22 19:52:05.514339,-4
2021-09-22 19:52:05.514345,-34
2021-09-22 19:52:05.514351,-41
2021-09-22 19:52:05.514357,-29
2021-09-22 19:52:05.514363,-34
2021-09-22 19:52:05.514369,-41
2021-09-22 19:52:05.514374,-34
2021-09-22 19:52:05.514380,-34
2021-09-22 19:52:05.514386,-36
2021-09-22 19:52:05.514392,-26
2021-09-22 19:52:05.514397,-12
2021-09-22 19:52:05.514403,34
2021-09-22 19:52:05.514409,155
2021-09-22 19:52:05.514415,396
2021-09-22 19:52:05.514421,622
2021-09-22 19:52:05.514426,484
2021-09-22 19:52:05.514432,-36
2021-09-22 19:52:05.514438,-552
2021-09-22 19:52:05.514444,-654
2021-09-22 19:52:05.514450,-318
2021-09-22 19:52:05.514456,-51
2021-09-22 19:52:05.514461,-29
2021-09-22 19:52:05.514467,34
2021-09-22 19:52:05.514473,119
2021-09-22 19:52:05.514479,104
2021-09-22 19:52:05.739251,99
2021-09-22 19:52:05.739271,136
2021-09-22 19:52:05.739278,148
2021-09-22 19:52:05.739284,155
2021-09-22 19:52:05.739290,170
2021-09-22 19:52:05.739296,172
2021-09-22 19:52:05.739302,177
2021-09-22 19:52:05.739308,192
2021-09-22 19:52:05.739314,201
2021-09-22 19:52:05.739320,216
2021-09-22 19:52:05.739326,240
2021-09-22 19:52:05.739332,253
2021-09-22 19:52:05.739338,270
2021-09-22 19:52:05.739344,304
2021-09-22 19:52:05.739350,328
2021-09-22 19:52:05.739355,350
2021-09-22 19:52:05.739361,379
2021-09-22 19:52:05.739367,408
2021-09-22 19:52:05.739373,425
2021-09-22 19:52:05.739379,430
2021-09-22 19:52:05.739385,420
2021-09-22 19:52:05.739390,401
2021-09-22 19:52:05.739396,362
2021-09-22 19:52:05.739402,294
2021-09-22 19:52:05.739408,206
2021-09-22 19:52:05.739413,107
2021-09-22 19:52:05.739419,-7
2021-09-22 19:52:05.739425,-99
2021-09-22 19:52:05.739431,-155
2021-09-22 19:52:05.739437,-201
2021-09-22 19:52:05.964237,-236
2021-09-22 19:52:05.964258,-253
2021-09-22 19:52:05.964265,-257
2021-09-22 19:52:05.964271,-253
2021-09-22 19:52:05.964277,-245
2021-09-22 19:52:05.964287,-240
2021-09-22 19:52:05.964293,-228
2021-09-22 19:52:05.964299,-214
2021-09-22 19:52:05.964305,-199
2021-09-22 19:52:05.964311,-187
2021-09-22 19:52:05.964317,-177
2021-09-22 19:52:05.964322,-165
2021-09-22 19:52:05.964328,-158
2021-09-22 19:52:05.964334,-155
2021-09-22 19:52:05.964340,-153
2021-09-22 19:52:05.964346,-145
2021-09-22 19:52:05.964352,-141
2021-09-22 19:52:05.964357,-131
2021-09-22 19:52:05.964363,-121
2021-09-22 19:52:05.964369,-121
2021-09-22 19:52:05.964375,-126
2021-09-22 19:52:05.964381,-124
2021-09-22 19:52:05.964386,-126
2021-09-22 19:52:05.964392,-128
2021-09-22 19:52:05.964398,-116
2021-09-22 19:52:05.964404,-102
2021-09-22 19:52:05.964410,-99
2021-09-22 19:52:05.964416,-109
2021-09-22 19:52:05.964422,-116
2021-09-22 19:52:05.964428,-107
2021-09-22 19:52:06.277805,-87
2021-09-22 19:52:06.277824,-77
2021-09-22 19:52:06.277832,-85
2021-09-22 19:52:06.277838,-99
2021-09-22 19:52:06.277844,-94
2021-09-22 19:52:06.277850,-80
2021-09-22 19:52:06.277856,-82
2021-09-22 19:52:06.277862,-80
2021-09-22 19:52:06.277868,-63
2021-09-22 19:52:06.277874,-70
2021-09-22 19:52:06.277880,-90
2021-09-22 19:52:06.277886,-85
2021-09-22 19:52:06.277892,-70
2021-09-22 19:52:06.277898,-60
2021-09-22 19:52:06.277904,-53
2021-09-22 19:52:06.277909,-46
2021-09-22 19:52:06.277915,-48
2021-09-22 19:52:06.277921,-46
2021-09-22 19:52:06.277927,-38
2021-09-22 19:52:06.277933,-46
2021-09-22 19:52:06.277938,-48
2021-09-22 19:52:06.277944,-43
2021-09-22 19:52:06.277950,-48
2021-09-22 19:52:06.277956,-46
2021-09-22 19:52:06.277962,-31
2021-09-22 19:52:06.277968,-31
2021-09-22 19:52:06.277974,-38
2021-09-22 19:52:06.277979,-19
2021-09-22 19:52:06.277985,2
2021-09-22 19:52:06.277991,2
2021-09-22 19:52:06.504144,4
2021-09-22 19:52:06.504164,19
2021-09-22 19:52:06.504172,4
2021-09-22 19:52:06.504178,-26
2021-09-22 19:52:06.504184,-29
2021-09-22 19:52:06.504190,-17
2021-09-22 19:52:06.504196,-19
2021-09-22 19:52:06.504202,-29
2021-09-22 19:52:06.504208,-29
2021-09-22 19:52:06.504214,-24
2021-09-22 19:52:06.504219,-24
2021-09-22 19:52:06.504225,-21
2021-09-22 19:52:06.504231,0
2021-09-22 19:52:06.504237,43
2021-09-22 19:52:06.504243,126
2021-09-22 19:52:06.504249,338
2021-09-22 19:52:06.504254,603
2021-09-22 19:52:06.504260,549
2021-09-22 19:52:06.504266,82
2021-09-22 19:52:06.504272,-459
2021-09-22 19:52:06.504278,-681
2021-09-22 19:52:06.504284,-411
2021-09-22 19:52:06.504290,-75
2021-09-22 19:52:06.504296,-17
2021-09-22 19:52:06.504301,31
2021-09-22 19:52:06.504307,136
2021-09-22 19:52:06.504313,138
2021-09-22 19:52:06.504319,119
2021-09-22 19:52:06.504324,150
2021-09-22 19:52:06.504330,167
2021-09-22 19:52:06.728618,167
2021-09-22 19:52:06.728639,177
2021-09-22 19:52:06.728646,177
2021-09-22 19:52:06.728653,184
2021-09-22 19:52:06.728659,209
2021-09-22 19:52:06.728665,226
2021-09-22 19:52:06.728671,243
2021-09-22 19:52:06.728677,272
2021-09-22 19:52:06.728683,299
2021-09-22 19:52:06.728689,309
2021-09-22 19:52:06.728695,333
2021-09-22 19:52:06.728701,372
2021-09-22 19:52:06.728707,401
2021-09-22 19:52:06.728713,423
2021-09-22 19:52:06.728719,445
2021-09-22 19:52:06.728725,469
2021-09-22 19:52:06.728731,481
2021-09-22 19:52:06.728737,474
2021-09-22 19:52:06.728743,455
2021-09-22 19:52:06.728749,418
2021-09-22 19:52:06.728754,347
2021-09-22 19:52:06.728760,250
2021-09-22 19:52:06.728766,141
2021-09-22 19:52:06.728772,31
2021-09-22 19:52:06.728778,-60
2021-09-22 19:52:06.728784,-133
2021-09-22 19:52:06.728790,-189
2021-09-22 19:52:06.728796,-221
2021-09-22 19:52:06.728802,-238
2021-09-22 19:52:06.728808,-255
2021-09-22 19:52:06.909242,-253
2021-09-22 19:52:06.909264,-238
2021-09-22 19:52:06.909271,-236
2021-09-22 19:52:06.909277,-228
2021-09-22 19:52:06.909284,-211
2021-09-22 19:52:06.909290,-199
2021-09-22 19:52:06.909296,-182
2021-09-22 19:52:06.909302,-165
2021-09-22 19:52:06.909308,-165
2021-09-22 19:52:06.909314,-160
2021-09-22 19:52:06.909320,-138
2021-09-22 19:52:06.909327,-131
2021-09-22 19:52:06.909333,-150
2021-09-22 19:52:06.909339,-141
2021-09-22 19:52:06.909345,-114
2021-09-22 19:52:06.909351,-114
2021-09-22 19:52:06.909357,-121
2021-09-22 19:52:06.909363,-111
2021-09-22 19:52:06.909369,-109
2021-09-22 19:52:06.909375,-116
2021-09-22 19:52:06.909381,-116
2021-09-22 19:52:06.909386,-111
2021-09-22 19:52:06.909393,-107
2021-09-22 19:52:06.909399,-97
2021-09-22 19:52:06.909405,-90
2021-09-22 19:52:06.909410,-92
2021-09-22 19:52:06.909416,-97
2021-09-22 19:52:06.909422,-92
2021-09-22 19:52:06.909428,-80
2021-09-22 19:52:06.909434,-77
2021-09-22 19:52:07.134170,-90
2021-09-22 19:52:07.134193,-90
2021-09-22 19:52:07.134200,-77
2021-09-22 19:52:07.134206,-72
2021-09-22 19:52:07.134213,-70
2021-09-22 19:52:07.134219,-72
2021-09-22 19:52:07.134225,-80
2021-09-22 19:52:07.134230,-77
2021-09-22 19:52:07.134236,-60
2021-09-22 19:52:07.134242,-48
2021-09-22 19:52:07.134248,-51
2021-09-22 19:52:07.134254,-48
2021-09-22 19:52:07.134260,-43
2021-09-22 19:52:07.134266,-48
2021-09-22 19:52:07.134272,-51
2021-09-22 19:52:07.134277,-46
2021-09-22 19:52:07.134283,-43
2021-09-22 19:52:07.134289,-38
2021-09-22 19:52:07.134295,-21
2021-09-22 19:52:07.134301,-2
2021-09-22 19:52:07.134307,4
2021-09-22 19:52:07.134313,2
2021-09-22 19:52:07.134318,12
2021-09-22 19:52:07.134324,21
2021-09-22 19:52:07.134330,7
2021-09-22 19:52:07.134336,-12
2021-09-22 19:52:07.134342,-17
2021-09-22 19:52:07.134348,-17
2021-09-22 19:52:07.134354,-17
2021-09-22 19:52:07.134360,-19
2021-09-22 19:52:07.359290,-17
2021-09-22 19:52:07.359311,-14
2021-09-22 19:52:07.359319,-21
2021-09-22 19:52:07.359325,-29
2021-09-22 19:52:07.359331,-2
2021-09-22 19:52:07.359338,63
2021-09-22 19:52:07.359344,165
2021-09-22 19:52:07.359350,355
2021-09-22 19:52:07.359357,540
2021-09-22 19:52:07.359363,399
2021-09-22 19:52:07.359369,-82
2021-09-22 19:52:07.359375,-583
2021-09-22 19:52:07.359381,-722
2021-09-22 19:52:07.359387,-369
2021-09-22 19:52:07.359393,-53
2021-09-22 19:52:07.359399,-51
2021-09-22 19:52:07.359405,0
2021-09-22 19:52:07.359410,126
2021-09-22 19:52:07.359416,133
2021-09-22 19:52:07.359422,116
2021-09-22 19:52:07.359428,150
2021-09-22 19:52:07.359434,163
2021-09-22 19:52:07.359439,165
2021-09-22 19:52:07.359445,177
2021-09-22 19:52:07.359451,182
2021-09-22 19:52:07.359457,192
2021-09-22 19:52:07.359463,211
2021-09-22 19:52:07.359469,226
2021-09-22 19:52:07.359474,245
2021-09-22 19:52:07.359480,253
2021-09-22 19:52:07.629245,265
2021-09-22 19:52:07.629266,301
2021-09-22 19:52:07.629273,333
2021-09-22 19:52:07.629279,352
2021-09-22 19:52:07.629285,386
2021-09-22 19:52:07.629291,428
2021-09-22 19:52:07.629297,440
2021-09-22 19:52:07.629303,440
2021-09-22 19:52:07.629309,459
2021-09-22 19:52:07.629315,459
2021-09-22 19:52:07.629321,416
2021-09-22 19:52:07.629327,357
2021-09-22 19:52:07.629332,291
2021-09-22 19:52:07.629338,204
2021-09-22 19:52:07.629344,97
2021-09-22 19:52:07.629350,-2
2021-09-22 19:52:07.629356,-90
2021-09-22 19:52:07.629362,-165
2021-09-22 19:52:07.629368,-201
2021-09-22 19:52:07.629377,-209
2021-09-22 19:52:07.629383,-228
2021-09-22 19:52:07.629389,-253
2021-09-22 19:52:07.629395,-253
2021-09-22 19:52:07.629401,-233
2021-09-22 19:52:07.629407,-214
2021-09-22 19:52:07.629412,-206
2021-09-22 19:52:07.629418,-197
2021-09-22 19:52:07.629424,-184
2021-09-22 19:52:07.629430,-170
2021-09-22 19:52:07.629435,-153
2021-09-22 19:52:07.944242,-143
2021-09-22 19:52:07.944262,-143
2021-09-22 19:52:07.944270,-133
2021-09-22 19:52:07.944276,-121
2021-09-22 19:52:07.944282,-114
2021-09-22 19:52:07.944288,-114
2021-09-22 19:52:07.944294,-126
2021-09-22 19:52:07.944300,-128
2021-09-22 19:52:07.944306,-131
2021-09-22 19:52:07.944312,-145
2021-09-22 19:52:07.944318,-150
2021-09-22 19:52:07.944324,-136
2021-09-22 19:52:07.944329,-131
2021-09-22 19:52:07.944335,-141
2021-09-22 19:52:07.944341,-143
2021-09-22 19:52:07.944347,-138
2021-09-22 19:52:07.944353,-136
2021-09-22 19:52:07.944359,-136
2021-09-22 19:52:07.944365,-131
2021-09-22 19:52:07.944371,-124
2021-09-22 19:52:07.944377,-116
2021-09-22 19:52:07.944383,-114
2021-09-22 19:52:07.944389,-111
2021-09-22 19:52:07.944394,-104
2021-09-22 19:52:07.944400,-99
2021-09-22 19:52:07.944406,-99
2021-09-22 19:52:07.944412,-97
2021-09-22 19:52:07.944418,-90
2021-09-22 19:52:07.944424,-87
2021-09-22 19:52:07.944430,-85
2021-09-22 19:52:08.034112,-82
2021-09-22 19:52:08.034131,-80
2021-09-22 19:52:08.034138,-75
2021-09-22 19:52:08.034144,-77
2021-09-22 19:52:08.034150,-85
2021-09-22 19:52:08.034156,-80
2021-09-22 19:52:08.034162,-72
2021-09-22 19:52:08.034168,-63
2021-09-22 19:52:08.034174,-51
2021-09-22 19:52:08.034180,-43
2021-09-22 19:52:08.034186,-36
2021-09-22 19:52:08.034192,-29
2021-09-22 19:52:08.034198,-31
2021-09-22 19:52:08.034204,-21
2021-09-22 19:52:08.034210,-7
2021-09-22 19:52:08.034216,-29
2021-09-22 19:52:08.034222,-51
2021-09-22 19:52:08.034228,-48
2021-09-22 19:52:08.034233,-46
2021-09-22 19:52:08.034239,-46
2021-09-22 19:52:08.034245,-41
2021-09-22 19:52:08.034251,-48
2021-09-22 19:52:08.034257,-55
2021-09-22 19:52:08.034262,-43
2021-09-22 19:52:08.034268,-31
2021-09-22 19:52:08.034274,-14
2021-09-22 19:52:08.034280,36
2021-09-22 19:52:08.034286,150
2021-09-22 19:52:08.034292,374
2021-09-22 19:52:08.034298,562
2021-09-22 19:52:08.392871,360
2021-09-22 19:52:08.392892,-153
2021-09-22 19:52:08.392899,-605
2021-09-22 19:52:08.392905,-705
2021-09-22 19:52:08.392911,-369
2021-09-22 19:52:08.392917,-68
2021-09-22 19:52:08.392923,-53
2021-09-22 19:52:08.392929,-2
2021-09-22 19:52:08.392935,104
2021-09-22 19:52:08.392941,99
2021-09-22 19:52:08.392947,87
2021-09-22 19:52:08.392953,114
2021-09-22 19:52:08.392958,107
2021-09-22 19:52:08.392964,99
2021-09-22 19:52:08.392970,119
2021-09-22 19:52:08.392976,136
2021-09-22 19:52:08.392982,150
2021-09-22 19:52:08.392988,165
2021-09-22 19:52:08.392994,177
2021-09-22 19:52:08.393000,197
2021-09-22 19:52:08.393006,216
2021-09-22 19:52:08.393012,233
2021-09-22 19:52:08.393018,267
2021-09-22 19:52:08.393024,306
2021-09-22 19:52:08.393029,335
2021-09-22 19:52:08.393035,364
2021-09-22 19:52:08.393041,399
2021-09-22 19:52:08.393047,428
2021-09-22 19:52:08.393052,452
2021-09-22 19:52:08.393058,462
2021-09-22 19:52:08.529164,447
2021-09-22 19:52:08.529183,420
2021-09-22 19:52:08.529190,367
2021-09-22 19:52:08.529197,289
2021-09-22 19:52:08.529203,197
2021-09-22 19:52:08.529209,94
2021-09-22 19:52:08.529215,-12
2021-09-22 19:52:08.529221,-104
2021-09-22 19:52:08.529227,-180
2021-09-22 19:52:08.529233,-226
2021-09-22 19:52:08.529239,-243
2021-09-22 19:52:08.529245,-250
2021-09-22 19:52:08.529250,-257
2021-09-22 19:52:08.529256,-257
2021-09-22 19:52:08.529262,-248
2021-09-22 19:52:08.529268,-243
2021-09-22 19:52:08.529274,-236
2021-09-22 19:52:08.529280,-211
2021-09-22 19:52:08.529286,-189
2021-09-22 19:52:08.529291,-189
2021-09-22 19:52:08.529297,-192
2021-09-22 19:52:08.529303,-172
2021-09-22 19:52:08.529309,-158
2021-09-22 19:52:08.529315,-150
2021-09-22 19:52:08.529321,-138
2021-09-22 19:52:08.529327,-131
2021-09-22 19:52:08.529333,-126
2021-09-22 19:52:08.529338,-114
2021-09-22 19:52:08.529344,-107
2021-09-22 19:52:08.529350,-107
2021-09-22 19:52:08.844272,-104
2021-09-22 19:52:08.844293,-104
2021-09-22 19:52:08.844301,-111
2021-09-22 19:52:08.844307,-111
2021-09-22 19:52:08.844313,-111
2021-09-22 19:52:08.844319,-114
2021-09-22 19:52:08.844325,-116
2021-09-22 19:52:08.844331,-119
2021-09-22 19:52:08.844337,-121
2021-09-22 19:52:08.844343,-126
2021-09-22 19:52:08.844348,-121
2021-09-22 19:52:08.844354,-107
2021-09-22 19:52:08.844360,-102
2021-09-22 19:52:08.844366,-119
2021-09-22 19:52:08.844372,-126
2021-09-22 19:52:08.844378,-114
2021-09-22 19:52:08.844384,-107
2021-09-22 19:52:08.844390,-111
2021-09-22 19:52:08.844395,-102
2021-09-22 19:52:08.844401,-94
2021-09-22 19:52:08.844407,-104
2021-09-22 19:52:08.844413,-107
2021-09-22 19:52:08.844419,-94
2021-09-22 19:52:08.844425,-90
2021-09-22 19:52:08.844430,-87
2021-09-22 19:52:08.844436,-82
2021-09-22 19:52:08.844442,-80
2021-09-22 19:52:08.844448,-80
2021-09-22 19:52:08.844454,-75
2021-09-22 19:52:08.844459,-70
2021-09-22 19:52:08.979070,-75
2021-09-22 19:52:08.979088,-80
2021-09-22 19:52:08.979095,-70
2021-09-22 19:52:08.979101,-53
2021-09-22 19:52:08.979107,-36
2021-09-22 19:52:08.979113,-21
2021-09-22 19:52:08.979120,-21
2021-09-22 19:52:08.979125,-26
2021-09-22 19:52:08.979131,-19
2021-09-22 19:52:08.979137,-14
2021-09-22 19:52:08.979143,-19
2021-09-22 19:52:08.979149,-29
2021-09-22 19:52:08.979155,-51
2021-09-22 19:52:08.979161,-65
2021-09-22 19:52:08.979166,-51
2021-09-22 19:52:08.979172,-41
2021-09-22 19:52:08.979178,-48
2021-09-22 19:52:08.979184,-46
2021-09-22 19:52:08.979190,-38
2021-09-22 19:52:08.979195,-48
2021-09-22 19:52:08.979201,-26
2021-09-22 19:52:08.979207,60
2021-09-22 19:52:08.979213,214
2021-09-22 19:52:08.979219,452
2021-09-22 19:52:08.979224,574
2021-09-22 19:52:08.979230,282
2021-09-22 19:52:08.979236,-253
2021-09-22 19:52:08.979242,-656
2021-09-22 19:52:08.979247,-630
2021-09-22 19:52:08.979253,-253
2021-09-22 19:52:09.249247,-41
2021-09-22 19:52:09.249269,-46
2021-09-22 19:52:09.249276,43
2021-09-22 19:52:09.249282,126
2021-09-22 19:52:09.249288,97
2021-09-22 19:52:09.249294,92
2021-09-22 19:52:09.249300,121
2021-09-22 19:52:09.249306,131
2021-09-22 19:52:09.249312,138
2021-09-22 19:52:09.249318,155
2021-09-22 19:52:09.249324,172
2021-09-22 19:52:09.249330,180
2021-09-22 19:52:09.249336,180
2021-09-22 19:52:09.249342,194
2021-09-22 19:52:09.249348,214
2021-09-22 19:52:09.249354,226
2021-09-22 19:52:09.249360,243
2021-09-22 19:52:09.249366,279
2021-09-22 19:52:09.249371,311
2021-09-22 19:52:09.249377,338
2021-09-22 19:52:09.249383,374
2021-09-22 19:52:09.249389,399
2021-09-22 19:52:09.249395,413
2021-09-22 19:52:09.249401,423
2021-09-22 19:52:09.249406,420
2021-09-22 19:52:09.249412,413
2021-09-22 19:52:09.249418,394
2021-09-22 19:52:09.249424,343
2021-09-22 19:52:09.249430,262
2021-09-22 19:52:09.249436,163
2021-09-22 19:52:09.429260,53
2021-09-22 19:52:09.429282,-48
2021-09-22 19:52:09.429289,-133
2021-09-22 19:52:09.429295,-194
2021-09-22 19:52:09.429301,-233
2021-09-22 19:52:09.429307,-253
2021-09-22 19:52:09.429314,-262
2021-09-22 19:52:09.429320,-265
2021-09-22 19:52:09.429325,-255
2021-09-22 19:52:09.429331,-248
2021-09-22 19:52:09.429337,-248
2021-09-22 19:52:09.429343,-243
2021-09-22 19:52:09.429349,-231
2021-09-22 19:52:09.429355,-214
2021-09-22 19:52:09.429361,-197
2021-09-22 19:52:09.429367,-175
2021-09-22 19:52:09.429372,-163
2021-09-22 19:52:09.429378,-160
2021-09-22 19:52:09.429384,-153
2021-09-22 19:52:09.429390,-138
2021-09-22 19:52:09.429396,-128
2021-09-22 19:52:09.429402,-126
2021-09-22 19:52:09.429408,-126
2021-09-22 19:52:09.429414,-128
2021-09-22 19:52:09.429420,-128
2021-09-22 19:52:09.429425,-119
2021-09-22 19:52:09.429431,-111
2021-09-22 19:52:09.429437,-116
2021-09-22 19:52:09.429443,-121
2021-09-22 19:52:09.429448,-116
2021-09-22 19:52:09.654201,-107
2021-09-22 19:52:09.654222,-109
2021-09-22 19:52:09.654229,-116
2021-09-22 19:52:09.654236,-116
2021-09-22 19:52:09.654242,-121
2021-09-22 19:52:09.654248,-124
2021-09-22 19:52:09.654254,-116
2021-09-22 19:52:09.654260,-109
2021-09-22 19:52:09.654266,-109
2021-09-22 19:52:09.654272,-107
2021-09-22 19:52:09.654278,-107
2021-09-22 19:52:09.654283,-109
2021-09-22 19:52:09.654289,-104
2021-09-22 19:52:09.654295,-97
2021-09-22 19:52:09.654301,-97
2021-09-22 19:52:09.654307,-94
2021-09-22 19:52:09.654312,-90
2021-09-22 19:52:09.654318,-90
2021-09-22 19:52:09.654324,-82
2021-09-22 19:52:09.654330,-68
2021-09-22 19:52:09.654335,-65
2021-09-22 19:52:09.654341,-72
2021-09-22 19:52:09.654347,-72
2021-09-22 19:52:09.654353,-68
2021-09-22 19:52:09.654358,-65
2021-09-22 19:52:09.654364,-63
2021-09-22 19:52:09.654370,-60
2021-09-22 19:52:09.654376,-60
2021-09-22 19:52:09.654382,-60
2021-09-22 19:52:09.654387,-51
2021-09-22 19:52:09.879214,-26
2021-09-22 19:52:09.879235,-21
2021-09-22 19:52:09.879242,-31
2021-09-22 19:52:09.879248,-31
2021-09-22 19:52:09.879254,-31
2021-09-22 19:52:09.879260,-43
2021-09-22 19:52:09.879266,-53
2021-09-22 19:52:09.879272,-55
2021-09-22 19:52:09.879278,-58
2021-09-22 19:52:09.879283,-65
2021-09-22 19:52:09.879289,-72
2021-09-22 19:52:09.879295,-70
2021-09-22 19:52:09.879301,-55
2021-09-22 19:52:09.879307,-51
2021-09-22 19:52:09.879313,-53
2021-09-22 19:52:09.879319,-34
2021-09-22 19:52:09.879325,34
2021-09-22 19:52:09.879331,175
2021-09-22 19:52:09.879337,433
2021-09-22 19:52:09.879343,620
2021-09-22 19:52:09.879348,394
2021-09-22 19:52:09.879355,-148
2021-09-22 19:52:09.879361,-603
2021-09-22 19:52:09.879367,-654
2021-09-22 19:52:09.879372,-296
2021-09-22 19:52:09.879378,-34
2021-09-22 19:52:09.879384,-31
2021-09-22 19:52:09.879390,29
2021-09-22 19:52:09.879395,114
2021-09-22 19:52:09.879401,104
2021-09-22 19:52:10.149237,107
2021-09-22 19:52:10.149258,143
2021-09-22 19:52:10.149265,148
2021-09-22 19:52:10.149271,138
2021-09-22 19:52:10.149277,145
2021-09-22 19:52:10.149283,165
2021-09-22 19:52:10.149289,177
2021-09-22 19:52:10.149296,189
2021-09-22 19:52:10.149301,201
2021-09-22 19:52:10.149307,214
2021-09-22 19:52:10.149313,231
2021-09-22 19:52:10.149319,262
2021-09-22 19:52:10.149325,289
2021-09-22 19:52:10.149331,311
2021-09-22 19:52:10.149337,343
2021-09-22 19:52:10.149343,377
2021-09-22 19:52:10.149349,406
2021-09-22 19:52:10.149355,435
2021-09-22 19:52:10.149360,455
2021-09-22 19:52:10.149366,462
2021-09-22 19:52:10.149372,457
2021-09-22 19:52:10.149378,433
2021-09-22 19:52:10.149383,386
2021-09-22 19:52:10.149389,321
2021-09-22 19:52:10.149395,221
2021-09-22 19:52:10.149401,99
2021-09-22 19:52:10.149407,-9
2021-09-22 19:52:10.149413,-99
2021-09-22 19:52:10.149419,-165
2021-09-22 19:52:10.149425,-214
2021-09-22 19:52:10.417871,-240
2021-09-22 19:52:10.417892,-250
2021-09-22 19:52:10.417899,-260
2021-09-22 19:52:10.417906,-270
2021-09-22 19:52:10.417912,-265
2021-09-22 19:52:10.417918,-250
2021-09-22 19:52:10.417924,-233
2021-09-22 19:52:10.417930,-218
2021-09-22 19:52:10.417936,-214
2021-09-22 19:52:10.417942,-206
2021-09-22 19:52:10.417948,-184
2021-09-22 19:52:10.417954,-167
2021-09-22 19:52:10.417960,-158
2021-09-22 19:52:10.417966,-145
2021-09-22 19:52:10.417971,-150
2021-09-22 19:52:10.417978,-153
2021-09-22 19:52:10.417983,-131
2021-09-22 19:52:10.417989,-116
2021-09-22 19:52:10.417995,-119
2021-09-22 19:52:10.418001,-121
2021-09-22 19:52:10.418007,-119
2021-09-22 19:52:10.418013,-121
2021-09-22 19:52:10.418019,-126
2021-09-22 19:52:10.418025,-121
2021-09-22 19:52:10.418030,-109
2021-09-22 19:52:10.418036,-111
2021-09-22 19:52:10.418042,-119
2021-09-22 19:52:10.418048,-119
2021-09-22 19:52:10.418054,-116
2021-09-22 19:52:10.418059,-107
2021-09-22 19:52:10.599286,-99
2021-09-22 19:52:10.599307,-114
2021-09-22 19:52:10.599314,-131
2021-09-22 19:52:10.599320,-121
2021-09-22 19:52:10.599326,-114
2021-09-22 19:52:10.599335,-114
2021-09-22 19:52:10.599342,-107
2021-09-22 19:52:10.599348,-102
2021-09-22 19:52:10.599353,-111
2021-09-22 19:52:10.599359,-111
2021-09-22 19:52:10.599365,-97
2021-09-22 19:52:10.599371,-94
2021-09-22 19:52:10.599377,-94
2021-09-22 19:52:10.599383,-90
2021-09-22 19:52:10.599388,-94
2021-09-22 19:52:10.599394,-94
2021-09-22 19:52:10.599400,-87
2021-09-22 19:52:10.599406,-82
2021-09-22 19:52:10.599412,-77
2021-09-22 19:52:10.599417,-75
2021-09-22 19:52:10.599423,-82
2021-09-22 19:52:10.599429,-80
2021-09-22 19:52:10.599435,-65
2021-09-22 19:52:10.599441,-55
2021-09-22 19:52:10.599447,-63
2021-09-22 19:52:10.599452,-68
2021-09-22 19:52:10.599458,-46
2021-09-22 19:52:10.599464,-17
2021-09-22 19:52:10.599470,-9
2021-09-22 19:52:10.599476,-24
2021-09-22 19:52:10.824294,-17
2021-09-22 19:52:10.824315,-2
2021-09-22 19:52:10.824322,-21
2021-09-22 19:52:10.824328,-51
2021-09-22 19:52:10.824334,-58
2021-09-22 19:52:10.824340,-55
2021-09-22 19:52:10.824346,-51
2021-09-22 19:52:10.824352,-48
2021-09-22 19:52:10.824358,-60
2021-09-22 19:52:10.824364,-72
2021-09-22 19:52:10.824370,-65
2021-09-22 19:52:10.824376,-63
2021-09-22 19:52:10.824382,-60
2021-09-22 19:52:10.824388,-24
2021-09-22 19:52:10.824394,70
2021-09-22 19:52:10.824400,262
2021-09-22 19:52:10.824406,535
2021-09-22 19:52:10.824412,588
2021-09-22 19:52:10.824418,194
2021-09-22 19:52:10.824424,-399
2021-09-22 19:52:10.824430,-717
2021-09-22 19:52:10.824435,-510
2021-09-22 19:52:10.824441,-143
2021-09-22 19:52:10.824447,-36
2021-09-22 19:52:10.824453,-21
2021-09-22 19:52:10.824458,75
2021-09-22 19:52:10.824464,114
2021-09-22 19:52:10.824470,90
2021-09-22 19:52:10.824476,107
2021-09-22 19:52:10.824482,138
2021-09-22 19:52:11.049304,141
2021-09-22 19:52:11.049326,148
2021-09-22 19:52:11.049332,167
2021-09-22 19:52:11.049337,177
2021-09-22 19:52:11.049342,184
2021-09-22 19:52:11.049347,189
2021-09-22 19:52:11.049351,194
2021-09-22 19:52:11.049356,214
2021-09-22 19:52:11.049361,245
2021-09-22 19:52:11.049366,267
2021-09-22 19:52:11.049371,289
2021-09-22 19:52:11.049376,323
2021-09-22 19:52:11.049380,352
2021-09-22 19:52:11.049385,377
2021-09-22 19:52:11.049390,403
2021-09-22 19:52:11.049394,430
2021-09-22 19:52:11.049399,445
2021-09-22 19:52:11.049404,445
2021-09-22 19:52:11.049408,433
2021-09-22 19:52:11.049413,403
2021-09-22 19:52:11.049418,350
2021-09-22 19:52:11.049423,265
2021-09-22 19:52:11.049427,160
2021-09-22 19:52:11.049433,48
2021-09-22 19:52:11.049438,-46
2021-09-22 19:52:11.049443,-114
2021-09-22 19:52:11.049449,-175
2021-09-22 19:52:11.049454,-221
2021-09-22 19:52:11.049460,-231
2021-09-22 19:52:11.049466,-228
2021-09-22 19:52:11.274168,-240
2021-09-22 19:52:11.274187,-240
2021-09-22 19:52:11.274194,-223
2021-09-22 19:52:11.274201,-214
2021-09-22 19:52:11.274207,-206
2021-09-22 19:52:11.274213,-194
2021-09-22 19:52:11.274219,-177
2021-09-22 19:52:11.274225,-165
2021-09-22 19:52:11.274231,-163
2021-09-22 19:52:11.274236,-155
2021-09-22 19:52:11.274242,-136
2021-09-22 19:52:11.274248,-133
2021-09-22 19:52:11.274254,-143
2021-09-22 19:52:11.274259,-133
2021-09-22 19:52:11.274265,-124
2021-09-22 19:52:11.274271,-136
2021-09-22 19:52:11.274277,-143
2021-09-22 19:52:11.274283,-133
2021-09-22 19:52:11.274288,-128
2021-09-22 19:52:11.274294,-128
2021-09-22 19:52:11.274300,-131
2021-09-22 19:52:11.274305,-133
2021-09-22 19:52:11.274311,-131
2021-09-22 19:52:11.274317,-133
2021-09-22 19:52:11.274323,-133
2021-09-22 19:52:11.274329,-126
2021-09-22 19:52:11.274334,-126
2021-09-22 19:52:11.274340,-124
2021-09-22 19:52:11.274346,-116
2021-09-22 19:52:11.274352,-114
2021-09-22 19:52:11.544244,-114
2021-09-22 19:52:11.544265,-102
2021-09-22 19:52:11.544273,-97
2021-09-22 19:52:11.544279,-104
2021-09-22 19:52:11.544285,-102
2021-09-22 19:52:11.544291,-97
2021-09-22 19:52:11.544297,-90
2021-09-22 19:52:11.544312,-80
2021-09-22 19:52:11.544318,-80
2021-09-22 19:52:11.544323,-90
2021-09-22 19:52:11.544329,-104
2021-09-22 19:52:11.544335,-104
2021-09-22 19:52:11.544341,-90
2021-09-22 19:52:11.544347,-77
2021-09-22 19:52:11.544353,-77
2021-09-22 19:52:11.544359,-80
2021-09-22 19:52:11.544365,-80
2021-09-22 19:52:11.544371,-72
2021-09-22 19:52:11.544376,-58
2021-09-22 19:52:11.544382,-48
2021-09-22 19:52:11.544388,-53
2021-09-22 19:52:11.544394,-55
2021-09-22 19:52:11.544400,-51
2021-09-22 19:52:11.544405,-48
2021-09-22 19:52:11.544411,-48
2021-09-22 19:52:11.544417,-38
2021-09-22 19:52:11.544423,-17
2021-09-22 19:52:11.544429,0
2021-09-22 19:52:11.544434,-9
2021-09-22 19:52:11.544440,-9
2021-09-22 19:52:11.724184,17
2021-09-22 19:52:11.724204,19
2021-09-22 19:52:11.724211,-12
2021-09-22 19:52:11.724217,-29
2021-09-22 19:52:11.724223,-36
2021-09-22 19:52:11.724229,-43
2021-09-22 19:52:11.724235,-34
2021-09-22 19:52:11.724241,-26
2021-09-22 19:52:11.724247,-26
2021-09-22 19:52:11.724253,-29
2021-09-22 19:52:11.724259,-31
2021-09-22 19:52:11.724265,-34
2021-09-22 19:52:11.724271,-12
2021-09-22 19:52:11.724277,53
2021-09-22 19:52:11.724282,184
2021-09-22 19:52:11.724289,425
2021-09-22 19:52:11.724295,622
2021-09-22 19:52:11.724301,437
2021-09-22 19:52:11.724307,-99
2021-09-22 19:52:11.724313,-591
2021-09-22 19:52:11.724319,-656
2021-09-22 19:52:11.724324,-313
2021-09-22 19:52:11.724331,-63
2021-09-22 19:52:11.724336,-43
2021-09-22 19:52:11.724342,26
2021-09-22 19:52:11.724348,111
2021-09-22 19:52:11.724354,107
2021-09-22 19:52:11.724360,109
2021-09-22 19:52:11.724366,141
2021-09-22 19:52:11.724371,148
2021-09-22 19:52:12.039306,153
2021-09-22 19:52:12.039328,170
2021-09-22 19:52:12.039335,177
2021-09-22 19:52:12.039341,175
2021-09-22 19:52:12.039347,187
2021-09-22 19:52:12.039353,206
2021-09-22 19:52:12.039359,231
2021-09-22 19:52:12.039365,257
2021-09-22 19:52:12.039371,277
2021-09-22 19:52:12.039377,289
2021-09-22 19:52:12.039383,313
2021-09-22 19:52:12.039389,352
2021-09-22 19:52:12.039394,384
2021-09-22 19:52:12.039400,411
2021-09-22 19:52:12.039406,433
2021-09-22 19:52:12.039412,442
2021-09-22 19:52:12.039418,450
2021-09-22 19:52:12.039424,452
2021-09-22 19:52:12.039430,430
2021-09-22 19:52:12.039436,384
2021-09-22 19:52:12.039442,316
2021-09-22 19:52:12.039448,223
2021-09-22 19:52:12.039454,119
2021-09-22 19:52:12.039459,17
2021-09-22 19:52:12.039465,-68
2021-09-22 19:52:12.039471,-131
2021-09-22 19:52:12.039477,-180
2021-09-22 19:52:12.039483,-214
2021-09-22 19:52:12.039489,-226
2021-09-22 19:52:12.039495,-226
2021-09-22 19:52:12.219232,-223
2021-09-22 19:52:12.219252,-228
2021-09-22 19:52:12.219259,-223
2021-09-22 19:52:12.219265,-206
2021-09-22 19:52:12.219271,-189
2021-09-22 19:52:12.219277,-170
2021-09-22 19:52:12.219283,-155
2021-09-22 19:52:12.219289,-145
2021-09-22 19:52:12.219295,-131
2021-09-22 19:52:12.219301,-124
2021-09-22 19:52:12.219307,-126
2021-09-22 19:52:12.219313,-119
2021-09-22 19:52:12.219319,-111
2021-09-22 19:52:12.219326,-111
2021-09-22 19:52:12.219332,-114
2021-09-22 19:52:12.219338,-121
2021-09-22 19:52:12.219344,-124
2021-09-22 19:52:12.219349,-104
2021-09-22 19:52:12.219355,-94
2021-09-22 19:52:12.219361,-111
2021-09-22 19:52:12.219367,-119
2021-09-22 19:52:12.219373,-114
2021-09-22 19:52:12.219379,-111
2021-09-22 19:52:12.219385,-111
2021-09-22 19:52:12.219390,-99
2021-09-22 19:52:12.219396,-94
2021-09-22 19:52:12.219402,-104
2021-09-22 19:52:12.219408,-111
2021-09-22 19:52:12.219414,-97
2021-09-22 19:52:12.219419,-85
2021-09-22 19:52:12.533550,-87
2021-09-22 19:52:12.533571,-87
2021-09-22 19:52:12.533578,-85
2021-09-22 19:52:12.533585,-75
2021-09-22 19:52:12.533591,-70
2021-09-22 19:52:12.533597,-70
2021-09-22 19:52:12.533603,-68
2021-09-22 19:52:12.533609,-68
2021-09-22 19:52:12.533615,-68
2021-09-22 19:52:12.533620,-63
2021-09-22 19:52:12.533626,-53
2021-09-22 19:52:12.533632,-48
2021-09-22 19:52:12.533638,-48
2021-09-22 19:52:12.533644,-48
2021-09-22 19:52:12.533649,-51
2021-09-22 19:52:12.533655,-55
2021-09-22 19:52:12.533661,-51
2021-09-22 19:52:12.533667,-41
2021-09-22 19:52:12.533673,-34
2021-09-22 19:52:12.533679,-34
2021-09-22 19:52:12.533684,-41
2021-09-22 19:52:12.533690,-41
2021-09-22 19:52:12.533696,-17
2021-09-22 19:52:12.533702,7
2021-09-22 19:52:12.533708,12
2021-09-22 19:52:12.533714,4
2021-09-22 19:52:12.533720,9
2021-09-22 19:52:12.533726,17
2021-09-22 19:52:12.533732,17
2021-09-22 19:52:12.533738,7
2021-09-22 19:52:12.669310,-17
2021-09-22 19:52:12.669330,-21
2021-09-22 19:52:12.669337,-9
2021-09-22 19:52:12.669344,-9
2021-09-22 19:52:12.669350,-17
2021-09-22 19:52:12.669356,-7
2021-09-22 19:52:12.669362,-4
2021-09-22 19:52:12.669368,-14
2021-09-22 19:52:12.669374,7
2021-09-22 19:52:12.669380,72
2021-09-22 19:52:12.669386,182
2021-09-22 19:52:12.669392,379
2021-09-22 19:52:12.669398,598
2021-09-22 19:52:12.669404,515
2021-09-22 19:52:12.669410,48
2021-09-22 19:52:12.669416,-489
2021-09-22 19:52:12.669422,-703
2021-09-22 19:52:12.669428,-420
2021-09-22 19:52:12.669433,-70
2021-09-22 19:52:12.669439,-12
2021-09-22 19:52:12.669445,26
2021-09-22 19:52:12.669451,136
2021-09-22 19:52:12.669457,148
2021-09-22 19:52:12.669463,128
2021-09-22 19:52:12.669469,163
2021-09-22 19:52:12.669475,172
2021-09-22 19:52:12.669480,163
2021-09-22 19:52:12.669486,182
2021-09-22 19:52:12.669492,206
2021-09-22 19:52:12.669498,211
2021-09-22 19:52:12.894229,214
2021-09-22 19:52:12.894250,231
2021-09-22 19:52:12.894257,255
2021-09-22 19:52:12.894263,265
2021-09-22 19:52:12.894269,272
2021-09-22 19:52:12.894275,299
2021-09-22 19:52:12.894281,326
2021-09-22 19:52:12.894287,345
2021-09-22 19:52:12.894293,372
2021-09-22 19:52:12.894299,413
2021-09-22 19:52:12.894305,450
2021-09-22 19:52:12.894311,467
2021-09-22 19:52:12.894316,469
2021-09-22 19:52:12.894322,452
2021-09-22 19:52:12.894328,435
2021-09-22 19:52:12.894334,408
2021-09-22 19:52:12.894340,350
2021-09-22 19:52:12.894346,255
2021-09-22 19:52:12.894352,143
2021-09-22 19:52:12.894358,36
2021-09-22 19:52:12.894364,-55
2021-09-22 19:52:12.894369,-133
2021-09-22 19:52:12.894375,-184
2021-09-22 19:52:12.894381,-209
2021-09-22 19:52:12.894387,-226
2021-09-22 19:52:12.894393,-240
2021-09-22 19:52:12.894399,-245
2021-09-22 19:52:12.894404,-238
2021-09-22 19:52:12.894410,-221
2021-09-22 19:52:12.894416,-206
2021-09-22 19:52:13.119248,-204
2021-09-22 19:52:13.119269,-192
2021-09-22 19:52:13.119276,-170
2021-09-22 19:52:13.119282,-155
2021-09-22 19:52:13.119288,-141
2021-09-22 19:52:13.119294,-133
2021-09-22 19:52:13.119300,-143
2021-09-22 19:52:13.119306,-141
2021-09-22 19:52:13.119312,-128
2021-09-22 19:52:13.119318,-128
2021-09-22 19:52:13.119324,-131
2021-09-22 19:52:13.119330,-121
2021-09-22 19:52:13.119336,-121
2021-09-22 19:52:13.119342,-121
2021-09-22 19:52:13.119348,-114
2021-09-22 19:52:13.119354,-116
2021-09-22 19:52:13.119360,-119
2021-09-22 19:52:13.119366,-107
2021-09-22 19:52:13.119372,-104
2021-09-22 19:52:13.119377,-107
2021-09-22 19:52:13.119383,-107
2021-09-22 19:52:13.119389,-99
2021-09-22 19:52:13.119395,-92
2021-09-22 19:52:13.119401,-87
2021-09-22 19:52:13.119407,-92
2021-09-22 19:52:13.119413,-94
2021-09-22 19:52:13.119419,-85
2021-09-22 19:52:13.119425,-72
2021-09-22 19:52:13.119430,-70
2021-09-22 19:52:13.119436,-75
2021-09-22 19:52:13.344406,-72
2021-09-22 19:52:13.344428,-55
2021-09-22 19:52:13.344435,-48
2021-09-22 19:52:13.344441,-53
2021-09-22 19:52:13.344447,-60
2021-09-22 19:52:13.344453,-63
2021-09-22 19:52:13.344459,-53
2021-09-22 19:52:13.344465,-51
2021-09-22 19:52:13.344470,-60
2021-09-22 19:52:13.344476,-65
2021-09-22 19:52:13.344482,-65
2021-09-22 19:52:13.344488,-63
2021-09-22 19:52:13.344494,-65
2021-09-22 19:52:13.344500,-60
2021-09-22 19:52:13.344506,-48
2021-09-22 19:52:13.344512,-34
2021-09-22 19:52:13.344518,-21
2021-09-22 19:52:13.344524,-14
2021-09-22 19:52:13.344530,-14
2021-09-22 19:52:13.344535,-2
2021-09-22 19:52:13.344541,4
2021-09-22 19:52:13.344547,-12
2021-09-22 19:52:13.344553,-36
2021-09-22 19:52:13.344559,-46
2021-09-22 19:52:13.344565,-46
2021-09-22 19:52:13.344571,-36
2021-09-22 19:52:13.344577,-36
2021-09-22 19:52:13.344583,-46
2021-09-22 19:52:13.344588,-41
2021-09-22 19:52:13.344594,-31
2021-09-22 19:52:13.569182,-21
2021-09-22 19:52:13.569201,12
2021-09-22 19:52:13.569209,85
2021-09-22 19:52:13.569215,218
2021-09-22 19:52:13.569221,445
2021-09-22 19:52:13.569227,554
2021-09-22 19:52:13.569233,260
2021-09-22 19:52:13.569239,-274
2021-09-22 19:52:13.569245,-678
2021-09-22 19:52:13.569251,-664
2021-09-22 19:52:13.569257,-277
2021-09-22 19:52:13.569262,-38
2021-09-22 19:52:13.569268,-36
2021-09-22 19:52:13.569274,46
2021-09-22 19:52:13.569280,136
2021-09-22 19:52:13.569286,109
2021-09-22 19:52:13.569292,107
2021-09-22 19:52:13.569298,143
2021-09-22 19:52:13.569304,150
2021-09-22 19:52:13.569310,153
2021-09-22 19:52:13.569315,170
2021-09-22 19:52:13.569321,180
2021-09-22 19:52:13.569327,192
2021-09-22 19:52:13.569333,211
2021-09-22 19:52:13.569338,226
2021-09-22 19:52:13.569344,240
2021-09-22 19:52:13.569350,267
2021-09-22 19:52:13.569356,279
2021-09-22 19:52:13.569362,291
2021-09-22 19:52:13.569368,323
2021-09-22 19:52:13.839323,360
2021-09-22 19:52:13.839343,389
2021-09-22 19:52:13.839351,418
2021-09-22 19:52:13.839357,445
2021-09-22 19:52:13.839363,455
2021-09-22 19:52:13.839369,452
2021-09-22 19:52:13.839374,445
2021-09-22 19:52:13.839380,423
2021-09-22 19:52:13.839458,364
2021-09-22 19:52:13.839465,274
2021-09-22 19:52:13.839471,167
2021-09-22 19:52:13.839477,60
2021-09-22 19:52:13.839483,-36
2021-09-22 19:52:13.839489,-121
2021-09-22 19:52:13.839495,-189
2021-09-22 19:52:13.839501,-233
2021-09-22 19:52:13.839507,-260
2021-09-22 19:52:13.839513,-272
2021-09-22 19:52:13.839519,-265
2021-09-22 19:52:13.839525,-253
2021-09-22 19:52:13.839531,-250
2021-09-22 19:52:13.839536,-248
2021-09-22 19:52:13.839542,-236
2021-09-22 19:52:13.839548,-218
2021-09-22 19:52:13.839554,-204
2021-09-22 19:52:13.839560,-192
2021-09-22 19:52:13.839566,-184
2021-09-22 19:52:13.839571,-170
2021-09-22 19:52:13.839577,-155
2021-09-22 19:52:13.839583,-145
2021-09-22 19:52:14.154268,-138
2021-09-22 19:52:14.154289,-133
2021-09-22 19:52:14.154296,-133
2021-09-22 19:52:14.154303,-136
2021-09-22 19:52:14.154309,-138
2021-09-22 19:52:14.154315,-138
2021-09-22 19:52:14.154320,-136
2021-09-22 19:52:14.154326,-138
2021-09-22 19:52:14.154332,-148
2021-09-22 19:52:14.154338,-141
2021-09-22 19:52:14.154344,-119
2021-09-22 19:52:14.154350,-131
2021-09-22 19:52:14.154356,-150
2021-09-22 19:52:14.154361,-126
2021-09-22 19:52:14.154367,-116
2021-09-22 19:52:14.154373,-136
2021-09-22 19:52:14.154379,-126
2021-09-22 19:52:14.154385,-111
2021-09-22 19:52:14.154390,-116
2021-09-22 19:52:14.154396,-116
2021-09-22 19:52:14.154402,-109
2021-09-22 19:52:14.154408,-111
2021-09-22 19:52:14.154413,-107
2021-09-22 19:52:14.154419,-90
2021-09-22 19:52:14.154425,-87
2021-09-22 19:52:14.154431,-92
2021-09-22 19:52:14.154436,-90
2021-09-22 19:52:14.154442,-85
2021-09-22 19:52:14.154448,-77
2021-09-22 19:52:14.154454,-70
2021-09-22 19:52:14.333604,-68
2021-09-22 19:52:14.333623,-70
2021-09-22 19:52:14.333630,-75
2021-09-22 19:52:14.333636,-77
2021-09-22 19:52:14.333642,-68
2021-09-22 19:52:14.333648,-60
2021-09-22 19:52:14.333654,-60
2021-09-22 19:52:14.333660,-58
2021-09-22 19:52:14.333666,-58
2021-09-22 19:52:14.333672,-48
2021-09-22 19:52:14.333678,-26
2021-09-22 19:52:14.333684,-7
2021-09-22 19:52:14.333690,-9
2021-09-22 19:52:14.333696,-24
2021-09-22 19:52:14.333702,-24
2021-09-22 19:52:14.333708,-14
2021-09-22 19:52:14.333713,-14
2021-09-22 19:52:14.333719,-29
2021-09-22 19:52:14.333725,-46
2021-09-22 19:52:14.333731,-51
2021-09-22 19:52:14.333737,-58
2021-09-22 19:52:14.333742,-68
2021-09-22 19:52:14.333748,-65
2021-09-22 19:52:14.333754,-58
2021-09-22 19:52:14.333760,-53
2021-09-22 19:52:14.333765,-51
2021-09-22 19:52:14.333771,-26
2021-09-22 19:52:14.333777,46
2021-09-22 19:52:14.333783,211
