Time,ECG
2021-09-22 20:26:56.025794,-21
2021-09-22 20:26:56.025811,-17
2021-09-22 20:26:56.025818,-14
2021-09-22 20:26:56.025824,-9
2021-09-22 20:26:56.025830,-7
2021-09-22 20:26:56.025836,-14
2021-09-22 20:26:56.025842,-19
2021-09-22 20:26:56.025848,-9
2021-09-22 20:26:56.025853,4
2021-09-22 20:26:56.025860,14
2021-09-22 20:26:56.025865,4
2021-09-22 20:26:56.025871,-2
2021-09-22 20:26:56.025877,7
2021-09-22 20:26:56.025883,4
2021-09-22 20:26:56.025888,-9
2021-09-22 20:26:56.025894,-19
2021-09-22 20:26:56.025900,-24
2021-09-22 20:26:56.025906,-26
2021-09-22 20:26:56.025911,-21
2021-09-22 20:26:56.025917,-17
2021-09-22 20:26:56.025923,-14
2021-09-22 20:26:56.025929,-17
2021-09-22 20:26:56.025934,-19
2021-09-22 20:26:56.025940,-7
2021-09-22 20:26:56.025946,43
2021-09-22 20:26:56.025952,145
2021-09-22 20:26:56.025958,330
2021-09-22 20:26:56.025964,559
2021-09-22 20:26:56.025969,528
2021-09-22 20:26:56.025975,119
2021-09-22 20:26:56.196485,-362
2021-09-22 20:26:56.196503,-649
2021-09-22 20:26:56.196510,-503
2021-09-22 20:26:56.196516,-116
2021-09-22 20:26:56.196522,4
2021-09-22 20:26:56.196528,-7
2021-09-22 20:26:56.196534,99
2021-09-22 20:26:56.196540,150
2021-09-22 20:26:56.196546,119
2021-09-22 20:26:56.196552,131
2021-09-22 20:26:56.196557,145
2021-09-22 20:26:56.196563,136
2021-09-22 20:26:56.196569,145
2021-09-22 20:26:56.196575,158
2021-09-22 20:26:56.196581,165
2021-09-22 20:26:56.196586,177
2021-09-22 20:26:56.196592,182
2021-09-22 20:26:56.196599,192
2021-09-22 20:26:56.196605,214
2021-09-22 20:26:56.196611,233
2021-09-22 20:26:56.196616,250
2021-09-22 20:26:56.196622,272
2021-09-22 20:26:56.196628,296
2021-09-22 20:26:56.196634,321
2021-09-22 20:26:56.196640,355
2021-09-22 20:26:56.196645,391
2021-09-22 20:26:56.196651,420
2021-09-22 20:26:56.196657,447
2021-09-22 20:26:56.196663,474
2021-09-22 20:26:56.196670,486
2021-09-22 20:26:56.421850,479
2021-09-22 20:26:56.421866,457
2021-09-22 20:26:56.421873,408
2021-09-22 20:26:56.421879,326
2021-09-22 20:26:56.421885,218
2021-09-22 20:26:56.421891,102
2021-09-22 20:26:56.421897,-7
2021-09-22 20:26:56.421903,-99
2021-09-22 20:26:56.421909,-175
2021-09-22 20:26:56.421914,-238
2021-09-22 20:26:56.421920,-279
2021-09-22 20:26:56.421926,-294
2021-09-22 20:26:56.421932,-299
2021-09-22 20:26:56.421941,-296
2021-09-22 20:26:56.421947,-291
2021-09-22 20:26:56.421953,-282
2021-09-22 20:26:56.421959,-270
2021-09-22 20:26:56.421965,-255
2021-09-22 20:26:56.421971,-238
2021-09-22 20:26:56.421977,-221
2021-09-22 20:26:56.421982,-206
2021-09-22 20:26:56.421988,-197
2021-09-22 20:26:56.421994,-184
2021-09-22 20:26:56.422000,-165
2021-09-22 20:26:56.422006,-150
2021-09-22 20:26:56.422011,-138
2021-09-22 20:26:56.422017,-133
2021-09-22 20:26:56.422023,-131
2021-09-22 20:26:56.422029,-124
2021-09-22 20:26:56.422036,-116
2021-09-22 20:26:56.691449,-111
2021-09-22 20:26:56.691466,-107
2021-09-22 20:26:56.691473,-114
2021-09-22 20:26:56.691479,-126
2021-09-22 20:26:56.691485,-124
2021-09-22 20:26:56.691491,-114
2021-09-22 20:26:56.691497,-114
2021-09-22 20:26:56.691503,-116
2021-09-22 20:26:56.691509,-114
2021-09-22 20:26:56.691515,-116
2021-09-22 20:26:56.691520,-114
2021-09-22 20:26:56.691526,-104
2021-09-22 20:26:56.691532,-102
2021-09-22 20:26:56.691538,-102
2021-09-22 20:26:56.691544,-102
2021-09-22 20:26:56.691550,-114
2021-09-22 20:26:56.691556,-131
2021-09-22 20:26:56.691566,-133
2021-09-22 20:26:56.691572,-124
2021-09-22 20:26:56.691577,-119
2021-09-22 20:26:56.691583,-119
2021-09-22 20:26:56.691589,-116
2021-09-22 20:26:56.691595,-107
2021-09-22 20:26:56.691600,-102
2021-09-22 20:26:56.691606,-94
2021-09-22 20:26:56.691630,-90
2021-09-22 20:26:56.691636,-90
2021-09-22 20:26:56.691642,-90
2021-09-22 20:26:56.691647,-80
2021-09-22 20:26:56.691653,-63
2021-09-22 20:26:56.960063,-41
2021-09-22 20:26:56.960080,-31
2021-09-22 20:26:56.960087,-31
2021-09-22 20:26:56.960093,-31
2021-09-22 20:26:56.960099,-24
2021-09-22 20:26:56.960105,-17
2021-09-22 20:26:56.960111,-17
2021-09-22 20:26:56.960121,-19
2021-09-22 20:26:56.960127,-21
2021-09-22 20:26:56.960133,-24
2021-09-22 20:26:56.960139,-17
2021-09-22 20:26:56.960145,-9
2021-09-22 20:26:56.960151,-7
2021-09-22 20:26:56.960156,-9
2021-09-22 20:26:56.960162,-17
2021-09-22 20:26:56.960168,-24
2021-09-22 20:26:56.960174,-24
2021-09-22 20:26:56.960179,-17
2021-09-22 20:26:56.960185,-4
2021-09-22 20:26:56.960191,9
2021-09-22 20:26:56.960197,14
2021-09-22 20:26:56.960202,14
2021-09-22 20:26:56.960208,21
2021-09-22 20:26:56.960214,26
2021-09-22 20:26:56.960220,17
2021-09-22 20:26:56.960226,2
2021-09-22 20:26:56.960231,-14
2021-09-22 20:26:56.960237,-26
2021-09-22 20:26:56.960243,-21
2021-09-22 20:26:56.960249,-14
2021-09-22 20:26:57.141557,-14
2021-09-22 20:26:57.141575,-17
2021-09-22 20:26:57.141582,-17
2021-09-22 20:26:57.141588,-14
2021-09-22 20:26:57.141594,-2
2021-09-22 20:26:57.141600,43
2021-09-22 20:26:57.141606,145
2021-09-22 20:26:57.141612,338
2021-09-22 20:26:57.141618,569
2021-09-22 20:26:57.141623,535
2021-09-22 20:26:57.141629,128
2021-09-22 20:26:57.141635,-360
2021-09-22 20:26:57.141641,-654
2021-09-22 20:26:57.141647,-506
2021-09-22 20:26:57.141653,-128
2021-09-22 20:26:57.141659,-12
2021-09-22 20:26:57.141665,-9
2021-09-22 20:26:57.141670,90
2021-09-22 20:26:57.141676,124
2021-09-22 20:26:57.141682,92
2021-09-22 20:26:57.141688,114
2021-09-22 20:26:57.141693,131
2021-09-22 20:26:57.141699,121
2021-09-22 20:26:57.141705,131
2021-09-22 20:26:57.141714,145
2021-09-22 20:26:57.141720,145
2021-09-22 20:26:57.141726,153
2021-09-22 20:26:57.141732,177
2021-09-22 20:26:57.141737,192
2021-09-22 20:26:57.141743,201
2021-09-22 20:26:57.366390,221
2021-09-22 20:26:57.366407,243
2021-09-22 20:26:57.366414,262
2021-09-22 20:26:57.366420,287
2021-09-22 20:26:57.366426,316
2021-09-22 20:26:57.366432,347
2021-09-22 20:26:57.366438,374
2021-09-22 20:26:57.366444,401
2021-09-22 20:26:57.366450,430
2021-09-22 20:26:57.366456,452
2021-09-22 20:26:57.366461,462
2021-09-22 20:26:57.366467,459
2021-09-22 20:26:57.366473,435
2021-09-22 20:26:57.366479,382
2021-09-22 20:26:57.366485,309
2021-09-22 20:26:57.366490,211
2021-09-22 20:26:57.366496,94
2021-09-22 20:26:57.366502,-17
2021-09-22 20:26:57.366508,-114
2021-09-22 20:26:57.366513,-192
2021-09-22 20:26:57.366519,-248
2021-09-22 20:26:57.366525,-274
2021-09-22 20:26:57.366532,-284
2021-09-22 20:26:57.366538,-289
2021-09-22 20:26:57.366543,-287
2021-09-22 20:26:57.366549,-279
2021-09-22 20:26:57.366555,-270
2021-09-22 20:26:57.366561,-257
2021-09-22 20:26:57.366566,-240
2021-09-22 20:26:57.366572,-221
2021-09-22 20:26:57.591611,-209
2021-09-22 20:26:57.591630,-194
2021-09-22 20:26:57.591637,-177
2021-09-22 20:26:57.591643,-163
2021-09-22 20:26:57.591649,-150
2021-09-22 20:26:57.591654,-141
2021-09-22 20:26:57.591660,-141
2021-09-22 20:26:57.591666,-131
2021-09-22 20:26:57.591672,-116
2021-09-22 20:26:57.591678,-114
2021-09-22 20:26:57.591684,-111
2021-09-22 20:26:57.591690,-109
2021-09-22 20:26:57.591696,-111
2021-09-22 20:26:57.591701,-114
2021-09-22 20:26:57.591707,-109
2021-09-22 20:26:57.591713,-107
2021-09-22 20:26:57.591719,-104
2021-09-22 20:26:57.591725,-104
2021-09-22 20:26:57.591730,-99
2021-09-22 20:26:57.591736,-92
2021-09-22 20:26:57.591742,-92
2021-09-22 20:26:57.591748,-94
2021-09-22 20:26:57.591754,-94
2021-09-22 20:26:57.591760,-92
2021-09-22 20:26:57.591768,-87
2021-09-22 20:26:57.591774,-80
2021-09-22 20:26:57.591780,-80
2021-09-22 20:26:57.591786,-87
2021-09-22 20:26:57.591792,-82
2021-09-22 20:26:57.591797,-72
2021-09-22 20:26:57.816499,-72
2021-09-22 20:26:57.816515,-72
2021-09-22 20:26:57.816522,-65
2021-09-22 20:26:57.816529,-55
2021-09-22 20:26:57.816534,-55
2021-09-22 20:26:57.816540,-58
2021-09-22 20:26:57.816546,-60
2021-09-22 20:26:57.816552,-48
2021-09-22 20:26:57.816558,-43
2021-09-22 20:26:57.816563,-46
2021-09-22 20:26:57.816569,-48
2021-09-22 20:26:57.816575,-46
2021-09-22 20:26:57.816581,-43
2021-09-22 20:26:57.816587,-38
2021-09-22 20:26:57.816593,-34
2021-09-22 20:26:57.816599,-34
2021-09-22 20:26:57.816605,-36
2021-09-22 20:26:57.816610,-31
2021-09-22 20:26:57.816616,-21
2021-09-22 20:26:57.816622,-17
2021-09-22 20:26:57.816628,-17
2021-09-22 20:26:57.816633,-14
2021-09-22 20:26:57.816639,-9
2021-09-22 20:26:57.816645,-9
2021-09-22 20:26:57.816651,-12
2021-09-22 20:26:57.816656,-7
2021-09-22 20:26:57.816662,0
2021-09-22 20:26:57.816668,-2
2021-09-22 20:26:57.816674,12
2021-09-22 20:26:57.816680,34
2021-09-22 20:26:58.041402,38
2021-09-22 20:26:58.041419,34
2021-09-22 20:26:58.041426,46
2021-09-22 20:26:58.041432,48
2021-09-22 20:26:58.041438,19
2021-09-22 20:26:58.041444,-7
2021-09-22 20:26:58.041450,-9
2021-09-22 20:26:58.041455,-4
2021-09-22 20:26:58.041461,-4
2021-09-22 20:26:58.041467,-2
2021-09-22 20:26:58.041473,-4
2021-09-22 20:26:58.041478,-12
2021-09-22 20:26:58.041484,-12
2021-09-22 20:26:58.041490,4
2021-09-22 20:26:58.041496,48
2021-09-22 20:26:58.041502,128
2021-09-22 20:26:58.041507,274
2021-09-22 20:26:58.041513,508
2021-09-22 20:26:58.041519,605
2021-09-22 20:26:58.041524,323
2021-09-22 20:26:58.041530,-163
2021-09-22 20:26:58.041536,-566
2021-09-22 20:26:58.041542,-591
2021-09-22 20:26:58.041547,-218
2021-09-22 20:26:58.041553,0
2021-09-22 20:26:58.041559,-24
2021-09-22 20:26:58.041565,53
2021-09-22 20:26:58.041570,143
2021-09-22 20:26:58.041576,119
2021-09-22 20:26:58.041582,119
2021-09-22 20:26:58.310944,160
2021-09-22 20:26:58.310961,165
2021-09-22 20:26:58.310969,153
2021-09-22 20:26:58.310975,148
2021-09-22 20:26:58.310981,145
2021-09-22 20:26:58.310986,160
2021-09-22 20:26:58.310992,180
2021-09-22 20:26:58.310998,184
2021-09-22 20:26:58.311004,189
2021-09-22 20:26:58.311009,206
2021-09-22 20:26:58.311020,226
2021-09-22 20:26:58.311026,248
2021-09-22 20:26:58.311032,274
2021-09-22 20:26:58.311038,306
2021-09-22 20:26:58.311043,345
2021-09-22 20:26:58.311049,374
2021-09-22 20:26:58.311055,406
2021-09-22 20:26:58.311061,445
2021-09-22 20:26:58.311066,472
2021-09-22 20:26:58.311072,479
2021-09-22 20:26:58.311078,479
2021-09-22 20:26:58.311084,464
2021-09-22 20:26:58.311090,428
2021-09-22 20:26:58.311095,367
2021-09-22 20:26:58.311101,277
2021-09-22 20:26:58.311107,165
2021-09-22 20:26:58.311113,53
2021-09-22 20:26:58.311119,-51
2021-09-22 20:26:58.311124,-136
2021-09-22 20:26:58.311130,-192
2021-09-22 20:26:58.581507,-223
2021-09-22 20:26:58.581525,-243
2021-09-22 20:26:58.581532,-253
2021-09-22 20:26:58.581538,-262
2021-09-22 20:26:58.581544,-262
2021-09-22 20:26:58.581549,-243
2021-09-22 20:26:58.581555,-226
2021-09-22 20:26:58.581561,-214
2021-09-22 20:26:58.581567,-209
2021-09-22 20:26:58.581572,-204
2021-09-22 20:26:58.581578,-184
2021-09-22 20:26:58.581584,-165
2021-09-22 20:26:58.581590,-148
2021-09-22 20:26:58.581595,-133
2021-09-22 20:26:58.581601,-126
2021-09-22 20:26:58.581607,-121
2021-09-22 20:26:58.581613,-111
2021-09-22 20:26:58.581618,-107
2021-09-22 20:26:58.581624,-102
2021-09-22 20:26:58.581630,-92
2021-09-22 20:26:58.581635,-92
2021-09-22 20:26:58.581641,-99
2021-09-22 20:26:58.581647,-94
2021-09-22 20:26:58.581653,-87
2021-09-22 20:26:58.581658,-92
2021-09-22 20:26:58.581667,-90
2021-09-22 20:26:58.581673,-87
2021-09-22 20:26:58.581679,-92
2021-09-22 20:26:58.581684,-85
2021-09-22 20:26:58.581690,-75
2021-09-22 20:26:58.761452,-77
2021-09-22 20:26:58.761470,-80
2021-09-22 20:26:58.761476,-75
2021-09-22 20:26:58.761483,-72
2021-09-22 20:26:58.761489,-72
2021-09-22 20:26:58.761495,-65
2021-09-22 20:26:58.761501,-60
2021-09-22 20:26:58.761507,-63
2021-09-22 20:26:58.761512,-68
2021-09-22 20:26:58.761518,-70
2021-09-22 20:26:58.761524,-63
2021-09-22 20:26:58.761530,-55
2021-09-22 20:26:58.761536,-53
2021-09-22 20:26:58.761542,-53
2021-09-22 20:26:58.761547,-58
2021-09-22 20:26:58.761553,-60
2021-09-22 20:26:58.761559,-53
2021-09-22 20:26:58.761565,-43
2021-09-22 20:26:58.761571,-38
2021-09-22 20:26:58.761576,-41
2021-09-22 20:26:58.761582,-43
2021-09-22 20:26:58.761588,-43
2021-09-22 20:26:58.761593,-38
2021-09-22 20:26:58.761599,-31
2021-09-22 20:26:58.761605,-29
2021-09-22 20:26:58.761610,-29
2021-09-22 20:26:58.761616,-24
2021-09-22 20:26:58.761622,-19
2021-09-22 20:26:58.761627,-21
2021-09-22 20:26:58.761633,-19
2021-09-22 20:26:59.075202,-7
2021-09-22 20:26:59.075221,4
2021-09-22 20:26:59.075228,7
2021-09-22 20:26:59.075233,4
2021-09-22 20:26:59.075239,14
2021-09-22 20:26:59.075244,24
2021-09-22 20:26:59.075249,14
2021-09-22 20:26:59.075255,-9
2021-09-22 20:26:59.075260,-26
2021-09-22 20:26:59.075265,-31
2021-09-22 20:26:59.075270,-26
2021-09-22 20:26:59.075275,-14
2021-09-22 20:26:59.075281,-12
2021-09-22 20:26:59.075287,-26
2021-09-22 20:26:59.075292,-34
2021-09-22 20:26:59.075297,-26
2021-09-22 20:26:59.075305,-9
2021-09-22 20:26:59.075310,34
2021-09-22 20:26:59.075316,131
2021-09-22 20:26:59.075321,287
2021-09-22 20:26:59.075326,486
2021-09-22 20:26:59.075331,476
2021-09-22 20:26:59.075336,111
2021-09-22 20:26:59.075341,-367
2021-09-22 20:26:59.075346,-671
2021-09-22 20:26:59.075351,-542
2021-09-22 20:26:59.075357,-150
2021-09-22 20:26:59.075362,-9
2021-09-22 20:26:59.075367,-26
2021-09-22 20:26:59.075373,80
2021-09-22 20:26:59.301472,145
2021-09-22 20:26:59.301490,116
2021-09-22 20:26:59.301497,126
2021-09-22 20:26:59.301503,148
2021-09-22 20:26:59.301509,143
2021-09-22 20:26:59.301515,150
2021-09-22 20:26:59.301521,165
2021-09-22 20:26:59.301526,160
2021-09-22 20:26:59.301532,158
2021-09-22 20:26:59.301538,172
2021-09-22 20:26:59.301544,184
2021-09-22 20:26:59.301549,194
2021-09-22 20:26:59.301555,209
2021-09-22 20:26:59.301561,226
2021-09-22 20:26:59.301567,245
2021-09-22 20:26:59.301573,272
2021-09-22 20:26:59.301579,306
2021-09-22 20:26:59.301584,345
2021-09-22 20:26:59.301590,377
2021-09-22 20:26:59.301596,406
2021-09-22 20:26:59.301601,437
2021-09-22 20:26:59.301607,462
2021-09-22 20:26:59.301613,472
2021-09-22 20:26:59.301619,469
2021-09-22 20:26:59.301624,447
2021-09-22 20:26:59.301630,403
2021-09-22 20:26:59.301636,330
2021-09-22 20:26:59.301641,231
2021-09-22 20:26:59.301647,109
2021-09-22 20:26:59.301653,-4
2021-09-22 20:26:59.525988,-97
2021-09-22 20:26:59.526006,-165
2021-09-22 20:26:59.526013,-218
2021-09-22 20:26:59.526019,-255
2021-09-22 20:26:59.526025,-272
2021-09-22 20:26:59.526031,-279
2021-09-22 20:26:59.526037,-284
2021-09-22 20:26:59.526043,-274
2021-09-22 20:26:59.526049,-260
2021-09-22 20:26:59.526054,-250
2021-09-22 20:26:59.526060,-233
2021-09-22 20:26:59.526066,-218
2021-09-22 20:26:59.526072,-214
2021-09-22 20:26:59.526081,-199
2021-09-22 20:26:59.526086,-180
2021-09-22 20:26:59.526092,-165
2021-09-22 20:26:59.526098,-155
2021-09-22 20:26:59.526104,-145
2021-09-22 20:26:59.526109,-138
2021-09-22 20:26:59.526115,-131
2021-09-22 20:26:59.526121,-121
2021-09-22 20:26:59.526126,-116
2021-09-22 20:26:59.526132,-116
2021-09-22 20:26:59.526138,-119
2021-09-22 20:26:59.526144,-121
2021-09-22 20:26:59.526149,-116
2021-09-22 20:26:59.526155,-111
2021-09-22 20:26:59.526161,-114
2021-09-22 20:26:59.526166,-114
2021-09-22 20:26:59.526172,-107
2021-09-22 20:26:59.796783,-99
2021-09-22 20:26:59.796802,-102
2021-09-22 20:26:59.796809,-102
2021-09-22 20:26:59.796815,-102
2021-09-22 20:26:59.796820,-94
2021-09-22 20:26:59.796826,-94
2021-09-22 20:26:59.796832,-99
2021-09-22 20:26:59.796838,-92
2021-09-22 20:26:59.796843,-90
2021-09-22 20:26:59.796849,-94
2021-09-22 20:26:59.796855,-90
2021-09-22 20:26:59.796860,-77
2021-09-22 20:26:59.796866,-72
2021-09-22 20:26:59.796872,-68
2021-09-22 20:26:59.796878,-65
2021-09-22 20:26:59.796883,-68
2021-09-22 20:26:59.796889,-68
2021-09-22 20:26:59.796895,-68
2021-09-22 20:26:59.796901,-70
2021-09-22 20:26:59.796907,-72
2021-09-22 20:26:59.796913,-77
2021-09-22 20:26:59.796918,-75
2021-09-22 20:26:59.796924,-68
2021-09-22 20:26:59.796930,-68
2021-09-22 20:26:59.796935,-63
2021-09-22 20:26:59.796941,-53
2021-09-22 20:26:59.796947,-46
2021-09-22 20:26:59.796952,-48
2021-09-22 20:26:59.796958,-46
2021-09-22 20:26:59.796964,-41
2021-09-22 20:26:59.930801,-38
2021-09-22 20:26:59.930817,-36
2021-09-22 20:26:59.930824,-31
2021-09-22 20:26:59.930830,-31
2021-09-22 20:26:59.930836,-31
2021-09-22 20:26:59.930842,-34
2021-09-22 20:26:59.930847,-21
2021-09-22 20:26:59.930853,0
2021-09-22 20:26:59.930859,7
2021-09-22 20:26:59.930865,-2
2021-09-22 20:26:59.930871,0
2021-09-22 20:26:59.930876,14
2021-09-22 20:26:59.930882,4
2021-09-22 20:26:59.930888,-12
2021-09-22 20:26:59.930894,-21
2021-09-22 20:26:59.930899,-29
2021-09-22 20:26:59.930905,-31
2021-09-22 20:26:59.930915,-26
2021-09-22 20:26:59.930921,-24
2021-09-22 20:26:59.930927,-21
2021-09-22 20:26:59.930933,-19
2021-09-22 20:26:59.930938,-19
2021-09-22 20:26:59.930944,-7
2021-09-22 20:26:59.930950,48
2021-09-22 20:26:59.930956,163
2021-09-22 20:26:59.930961,357
2021-09-22 20:26:59.930967,566
2021-09-22 20:26:59.930973,489
2021-09-22 20:26:59.930979,55
2021-09-22 20:26:59.930984,-416
2021-09-22 20:27:00.111633,-661
2021-09-22 20:27:00.111653,-479
2021-09-22 20:27:00.111660,-104
2021-09-22 20:27:00.111666,-4
2021-09-22 20:27:00.111672,-7
2021-09-22 20:27:00.111678,97
2021-09-22 20:27:00.111684,136
2021-09-22 20:27:00.111690,109
2021-09-22 20:27:00.111696,133
2021-09-22 20:27:00.111702,150
2021-09-22 20:27:00.111710,136
2021-09-22 20:27:00.111716,145
2021-09-22 20:27:00.111722,160
2021-09-22 20:27:00.111728,158
2021-09-22 20:27:00.111733,167
2021-09-22 20:27:00.111739,184
2021-09-22 20:27:00.111745,187
2021-09-22 20:27:00.111751,197
2021-09-22 20:27:00.111758,214
2021-09-22 20:27:00.111764,228
2021-09-22 20:27:00.111770,248
2021-09-22 20:27:00.111776,274
2021-09-22 20:27:00.111782,304
2021-09-22 20:27:00.111788,338
2021-09-22 20:27:00.111794,372
2021-09-22 20:27:00.111799,399
2021-09-22 20:27:00.111805,428
2021-09-22 20:27:00.111811,455
2021-09-22 20:27:00.111817,462
2021-09-22 20:27:00.111822,457
2021-09-22 20:27:00.381493,437
2021-09-22 20:27:00.381509,391
2021-09-22 20:27:00.381516,309
2021-09-22 20:27:00.381522,194
2021-09-22 20:27:00.381528,72
2021-09-22 20:27:00.381534,-36
2021-09-22 20:27:00.381540,-124
2021-09-22 20:27:00.381546,-192
2021-09-22 20:27:00.381552,-245
2021-09-22 20:27:00.381558,-284
2021-09-22 20:27:00.381564,-301
2021-09-22 20:27:00.381569,-296
2021-09-22 20:27:00.381575,-289
2021-09-22 20:27:00.381581,-287
2021-09-22 20:27:00.381587,-289
2021-09-22 20:27:00.381593,-282
2021-09-22 20:27:00.381599,-265
2021-09-22 20:27:00.381604,-245
2021-09-22 20:27:00.381610,-231
2021-09-22 20:27:00.381616,-216
2021-09-22 20:27:00.381622,-199
2021-09-22 20:27:00.381627,-187
2021-09-22 20:27:00.381633,-172
2021-09-22 20:27:00.381639,-158
2021-09-22 20:27:00.381644,-145
2021-09-22 20:27:00.381650,-138
2021-09-22 20:27:00.381656,-131
2021-09-22 20:27:00.381662,-124
2021-09-22 20:27:00.381668,-119
2021-09-22 20:27:00.381677,-116
2021-09-22 20:27:00.606502,-111
2021-09-22 20:27:00.606521,-109
2021-09-22 20:27:00.606528,-111
2021-09-22 20:27:00.606534,-114
2021-09-22 20:27:00.606540,-109
2021-09-22 20:27:00.606546,-104
2021-09-22 20:27:00.606551,-102
2021-09-22 20:27:00.606557,-99
2021-09-22 20:27:00.606563,-104
2021-09-22 20:27:00.606569,-107
2021-09-22 20:27:00.606575,-94
2021-09-22 20:27:00.606581,-87
2021-09-22 20:27:00.606586,-87
2021-09-22 20:27:00.606592,-85
2021-09-22 20:27:00.606598,-87
2021-09-22 20:27:00.606604,-92
2021-09-22 20:27:00.606610,-92
2021-09-22 20:27:00.606615,-87
2021-09-22 20:27:00.606621,-82
2021-09-22 20:27:00.606627,-77
2021-09-22 20:27:00.606632,-77
2021-09-22 20:27:00.606638,-75
2021-09-22 20:27:00.606644,-68
2021-09-22 20:27:00.606650,-65
2021-09-22 20:27:00.606655,-55
2021-09-22 20:27:00.606661,-46
2021-09-22 20:27:00.606667,-48
2021-09-22 20:27:00.606673,-48
2021-09-22 20:27:00.606678,-41
2021-09-22 20:27:00.606684,-41
2021-09-22 20:27:00.831445,-51
2021-09-22 20:27:00.831461,-51
2021-09-22 20:27:00.831468,-46
2021-09-22 20:27:00.831474,-46
2021-09-22 20:27:00.831480,-43
2021-09-22 20:27:00.831485,-36
2021-09-22 20:27:00.831491,-34
2021-09-22 20:27:00.831497,-38
2021-09-22 20:27:00.831503,-38
2021-09-22 20:27:00.831509,-31
2021-09-22 20:27:00.831515,-26
2021-09-22 20:27:00.831520,-26
2021-09-22 20:27:00.831526,-26
2021-09-22 20:27:00.831532,-26
2021-09-22 20:27:00.831538,-19
2021-09-22 20:27:00.831543,-2
2021-09-22 20:27:00.831549,9
2021-09-22 20:27:00.831555,7
2021-09-22 20:27:00.831561,4
2021-09-22 20:27:00.831567,7
2021-09-22 20:27:00.831573,-2
2021-09-22 20:27:00.831579,-19
2021-09-22 20:27:00.831585,-29
2021-09-22 20:27:00.831591,-34
2021-09-22 20:27:00.831596,-29
2021-09-22 20:27:00.831602,-21
2021-09-22 20:27:00.831608,-26
2021-09-22 20:27:00.831614,-29
2021-09-22 20:27:00.831620,-26
2021-09-22 20:27:00.831625,-19
2021-09-22 20:27:01.100282,-7
2021-09-22 20:27:01.100301,31
2021-09-22 20:27:01.100308,124
2021-09-22 20:27:01.100314,309
2021-09-22 20:27:01.100320,554
2021-09-22 20:27:01.100326,566
2021-09-22 20:27:01.100332,187
2021-09-22 20:27:01.100338,-301
2021-09-22 20:27:01.100344,-637
2021-09-22 20:27:01.100350,-559
2021-09-22 20:27:01.100356,-167
2021-09-22 20:27:01.100362,4
2021-09-22 20:27:01.100368,-12
2021-09-22 20:27:01.100374,72
2021-09-22 20:27:01.100380,131
2021-09-22 20:27:01.100386,107
2021-09-22 20:27:01.100391,119
2021-09-22 20:27:01.100397,145
2021-09-22 20:27:01.100403,138
2021-09-22 20:27:01.100409,141
2021-09-22 20:27:01.100418,155
2021-09-22 20:27:01.100424,158
2021-09-22 20:27:01.100430,165
2021-09-22 20:27:01.100435,182
2021-09-22 20:27:01.100441,194
2021-09-22 20:27:01.100447,204
2021-09-22 20:27:01.100453,221
2021-09-22 20:27:01.100458,238
2021-09-22 20:27:01.100464,257
2021-09-22 20:27:01.100470,284
2021-09-22 20:27:01.281442,313
2021-09-22 20:27:01.281458,343
2021-09-22 20:27:01.281465,379
2021-09-22 20:27:01.281471,413
2021-09-22 20:27:01.281477,437
2021-09-22 20:27:01.281483,452
2021-09-22 20:27:01.281488,457
2021-09-22 20:27:01.281494,450
2021-09-22 20:27:01.281500,428
2021-09-22 20:27:01.281506,386
2021-09-22 20:27:01.281512,318
2021-09-22 20:27:01.281517,218
2021-09-22 20:27:01.281523,97
2021-09-22 20:27:01.281529,-21
2021-09-22 20:27:01.281535,-116
2021-09-22 20:27:01.281540,-189
2021-09-22 20:27:01.281546,-240
2021-09-22 20:27:01.281552,-270
2021-09-22 20:27:01.281558,-289
2021-09-22 20:27:01.281563,-294
2021-09-22 20:27:01.281569,-291
2021-09-22 20:27:01.281575,-287
2021-09-22 20:27:01.281581,-282
2021-09-22 20:27:01.281586,-274
2021-09-22 20:27:01.281592,-260
2021-09-22 20:27:01.281598,-243
2021-09-22 20:27:01.281604,-228
2021-09-22 20:27:01.281609,-214
2021-09-22 20:27:01.281615,-197
2021-09-22 20:27:01.281621,-182
2021-09-22 20:27:01.551005,-170
2021-09-22 20:27:01.551024,-155
2021-09-22 20:27:01.551031,-145
2021-09-22 20:27:01.551037,-136
2021-09-22 20:27:01.551043,-126
2021-09-22 20:27:01.551048,-126
2021-09-22 20:27:01.551054,-126
2021-09-22 20:27:01.551060,-116
2021-09-22 20:27:01.551066,-114
2021-09-22 20:27:01.551071,-116
2021-09-22 20:27:01.551077,-114
2021-09-22 20:27:01.551083,-119
2021-09-22 20:27:01.551089,-121
2021-09-22 20:27:01.551094,-114
2021-09-22 20:27:01.551100,-109
2021-09-22 20:27:01.551106,-111
2021-09-22 20:27:01.551111,-107
2021-09-22 20:27:01.551117,-99
2021-09-22 20:27:01.551123,-99
2021-09-22 20:27:01.551129,-94
2021-09-22 20:27:01.551134,-82
2021-09-22 20:27:01.551140,-75
2021-09-22 20:27:01.551146,-75
2021-09-22 20:27:01.551152,-72
2021-09-22 20:27:01.551157,-70
2021-09-22 20:27:01.551163,-70
2021-09-22 20:27:01.551168,-70
2021-09-22 20:27:01.551174,-68
2021-09-22 20:27:01.551180,-65
2021-09-22 20:27:01.551186,-63
2021-09-22 20:27:01.731638,-58
2021-09-22 20:27:01.731656,-53
2021-09-22 20:27:01.731663,-46
2021-09-22 20:27:01.731669,-41
2021-09-22 20:27:01.731675,-41
2021-09-22 20:27:01.731681,-46
2021-09-22 20:27:01.731687,-46
2021-09-22 20:27:01.731693,-38
2021-09-22 20:27:01.731699,-31
2021-09-22 20:27:01.731705,-36
2021-09-22 20:27:01.731711,-48
2021-09-22 20:27:01.731717,-55
2021-09-22 20:27:01.731723,-48
2021-09-22 20:27:01.731728,-41
2021-09-22 20:27:01.731734,-38
2021-09-22 20:27:01.731740,-36
2021-09-22 20:27:01.731746,-31
2021-09-22 20:27:01.731751,-29
2021-09-22 20:27:01.731757,-26
2021-09-22 20:27:01.731763,-21
2021-09-22 20:27:01.731769,-21
2021-09-22 20:27:01.731775,-19
2021-09-22 20:27:01.731784,-17
2021-09-22 20:27:01.731790,-12
2021-09-22 20:27:01.731795,-2
2021-09-22 20:27:01.731801,17
2021-09-22 20:27:01.731807,24
2021-09-22 20:27:01.731813,9
2021-09-22 20:27:01.731823,9
2021-09-22 20:27:01.731832,26
2021-09-22 20:27:02.001498,21
2021-09-22 20:27:02.001514,4
2021-09-22 20:27:02.001521,-4
2021-09-22 20:27:02.001527,-17
2021-09-22 20:27:02.001533,-26
2021-09-22 20:27:02.001539,-21
2021-09-22 20:27:02.001545,-14
2021-09-22 20:27:02.001551,-14
2021-09-22 20:27:02.001557,-12
2021-09-22 20:27:02.001563,-14
2021-09-22 20:27:02.001569,-9
2021-09-22 20:27:02.001575,43
2021-09-22 20:27:02.001581,172
2021-09-22 20:27:02.001586,379
2021-09-22 20:27:02.001592,588
2021-09-22 20:27:02.001598,510
2021-09-22 20:27:02.001604,94
2021-09-22 20:27:02.001610,-379
2021-09-22 20:27:02.001616,-642
2021-09-22 20:27:02.001621,-437
2021-09-22 20:27:02.001627,-68
2021-09-22 20:27:02.001633,-2
2021-09-22 20:27:02.001639,-2
2021-09-22 20:27:02.001645,119
2021-09-22 20:27:02.001651,158
2021-09-22 20:27:02.001657,124
2021-09-22 20:27:02.001662,143
2021-09-22 20:27:02.001668,163
2021-09-22 20:27:02.001674,155
2021-09-22 20:27:02.001680,160
2021-09-22 20:27:02.226583,177
2021-09-22 20:27:02.226601,187
2021-09-22 20:27:02.226608,192
2021-09-22 20:27:02.226614,197
2021-09-22 20:27:02.226620,204
2021-09-22 20:27:02.226626,223
2021-09-22 20:27:02.226632,248
2021-09-22 20:27:02.226638,265
2021-09-22 20:27:02.226643,282
2021-09-22 20:27:02.226649,301
2021-09-22 20:27:02.226655,328
2021-09-22 20:27:02.226661,367
2021-09-22 20:27:02.226667,403
2021-09-22 20:27:02.226673,437
2021-09-22 20:27:02.226679,469
2021-09-22 20:27:02.226685,479
2021-09-22 20:27:02.226690,467
2021-09-22 20:27:02.226696,455
2021-09-22 20:27:02.226702,435
2021-09-22 20:27:02.226708,394
2021-09-22 20:27:02.226714,316
2021-09-22 20:27:02.226720,211
2021-09-22 20:27:02.226726,94
2021-09-22 20:27:02.226731,-12
2021-09-22 20:27:02.226737,-99
2021-09-22 20:27:02.226743,-170
2021-09-22 20:27:02.226749,-221
2021-09-22 20:27:02.226754,-253
2021-09-22 20:27:02.226760,-267
2021-09-22 20:27:02.226766,-270
2021-09-22 20:27:02.541473,-270
2021-09-22 20:27:02.541489,-267
2021-09-22 20:27:02.541496,-255
2021-09-22 20:27:02.541503,-240
2021-09-22 20:27:02.541509,-231
2021-09-22 20:27:02.541514,-214
2021-09-22 20:27:02.541520,-189
2021-09-22 20:27:02.541526,-165
2021-09-22 20:27:02.541532,-165
2021-09-22 20:27:02.541538,-163
2021-09-22 20:27:02.541544,-145
2021-09-22 20:27:02.541550,-128
2021-09-22 20:27:02.541555,-121
2021-09-22 20:27:02.541561,-114
2021-09-22 20:27:02.541567,-116
2021-09-22 20:27:02.541573,-124
2021-09-22 20:27:02.541578,-114
2021-09-22 20:27:02.541584,-102
2021-09-22 20:27:02.541590,-102
2021-09-22 20:27:02.541596,-104
2021-09-22 20:27:02.541601,-102
2021-09-22 20:27:02.541607,-99
2021-09-22 20:27:02.541613,-99
2021-09-22 20:27:02.541619,-92
2021-09-22 20:27:02.541625,-85
2021-09-22 20:27:02.541630,-85
2021-09-22 20:27:02.541636,-87
2021-09-22 20:27:02.541642,-80
2021-09-22 20:27:02.541648,-70
2021-09-22 20:27:02.541653,-68
2021-09-22 20:27:02.676496,-65
2021-09-22 20:27:02.676514,-60
2021-09-22 20:27:02.676521,-58
2021-09-22 20:27:02.676527,-60
2021-09-22 20:27:02.676533,-58
2021-09-22 20:27:02.676542,-51
2021-09-22 20:27:02.676547,-53
2021-09-22 20:27:02.676553,-53
2021-09-22 20:27:02.676559,-43
2021-09-22 20:27:02.676565,-36
2021-09-22 20:27:02.676571,-36
2021-09-22 20:27:02.676576,-29
2021-09-22 20:27:02.676582,-24
2021-09-22 20:27:02.676588,-24
2021-09-22 20:27:02.676594,-26
2021-09-22 20:27:02.676600,-24
2021-09-22 20:27:02.676606,-21
2021-09-22 20:27:02.676611,-14
2021-09-22 20:27:02.676617,-9
2021-09-22 20:27:02.676623,-17
2021-09-22 20:27:02.676629,-24
2021-09-22 20:27:02.676635,-26
2021-09-22 20:27:02.676641,-31
2021-09-22 20:27:02.676647,-31
2021-09-22 20:27:02.676652,-14
2021-09-22 20:27:02.676658,2
2021-09-22 20:27:02.676664,4
2021-09-22 20:27:02.676669,0
2021-09-22 20:27:02.676675,9
2021-09-22 20:27:02.676681,19
2021-09-22 20:27:02.991528,7
2021-09-22 20:27:02.991545,-12
2021-09-22 20:27:02.991552,-24
2021-09-22 20:27:02.991558,-24
2021-09-22 20:27:02.991564,-19
2021-09-22 20:27:02.991570,-21
2021-09-22 20:27:02.991576,-26
2021-09-22 20:27:02.991582,-29
2021-09-22 20:27:02.991588,-34
2021-09-22 20:27:02.991593,-29
2021-09-22 20:27:02.991599,-2
2021-09-22 20:27:02.991605,63
2021-09-22 20:27:02.991611,172
2021-09-22 20:27:02.991617,345
2021-09-22 20:27:02.991623,493
2021-09-22 20:27:02.991629,357
2021-09-22 20:27:02.991635,-60
2021-09-22 20:27:02.991641,-501
2021-09-22 20:27:02.991646,-693
2021-09-22 20:27:02.991652,-418
2021-09-22 20:27:02.991658,-60
2021-09-22 20:27:02.991663,-14
2021-09-22 20:27:02.991669,7
2021-09-22 20:27:02.991675,128
2021-09-22 20:27:02.991680,153
2021-09-22 20:27:02.991686,124
2021-09-22 20:27:02.991692,150
2021-09-22 20:27:02.991698,172
2021-09-22 20:27:02.991704,165
2021-09-22 20:27:02.991710,170
2021-09-22 20:27:03.170228,182
2021-09-22 20:27:03.170246,189
2021-09-22 20:27:03.170253,199
2021-09-22 20:27:03.170259,211
2021-09-22 20:27:03.170265,223
2021-09-22 20:27:03.170271,238
2021-09-22 20:27:03.170277,255
2021-09-22 20:27:03.170283,272
2021-09-22 20:27:03.170289,291
2021-09-22 20:27:03.170295,316
2021-09-22 20:27:03.170301,347
2021-09-22 20:27:03.170307,382
2021-09-22 20:27:03.170312,411
2021-09-22 20:27:03.170318,433
2021-09-22 20:27:03.170324,459
2021-09-22 20:27:03.170330,481
2021-09-22 20:27:03.170335,489
2021-09-22 20:27:03.170341,476
2021-09-22 20:27:03.170347,437
2021-09-22 20:27:03.170353,377
2021-09-22 20:27:03.170358,291
2021-09-22 20:27:03.170364,182
2021-09-22 20:27:03.170370,63
2021-09-22 20:27:03.170376,-46
2021-09-22 20:27:03.170382,-141
2021-09-22 20:27:03.170388,-211
2021-09-22 20:27:03.170393,-253
2021-09-22 20:27:03.170399,-282
2021-09-22 20:27:03.170405,-304
2021-09-22 20:27:03.170411,-311
2021-09-22 20:27:03.396524,-301
2021-09-22 20:27:03.396541,-289
2021-09-22 20:27:03.396548,-279
2021-09-22 20:27:03.396554,-267
2021-09-22 20:27:03.396560,-250
2021-09-22 20:27:03.396566,-236
2021-09-22 20:27:03.396571,-223
2021-09-22 20:27:03.396577,-206
2021-09-22 20:27:03.396583,-192
2021-09-22 20:27:03.396589,-187
2021-09-22 20:27:03.396595,-177
2021-09-22 20:27:03.396601,-167
2021-09-22 20:27:03.396606,-167
2021-09-22 20:27:03.396612,-160
2021-09-22 20:27:03.396618,-145
2021-09-22 20:27:03.396624,-138
2021-09-22 20:27:03.396629,-138
2021-09-22 20:27:03.396635,-138
2021-09-22 20:27:03.396641,-136
2021-09-22 20:27:03.396646,-133
2021-09-22 20:27:03.396652,-131
2021-09-22 20:27:03.396658,-131
2021-09-22 20:27:03.396664,-128
2021-09-22 20:27:03.396669,-128
2021-09-22 20:27:03.396675,-126
2021-09-22 20:27:03.396681,-121
2021-09-22 20:27:03.396686,-116
2021-09-22 20:27:03.396692,-107
2021-09-22 20:27:03.396698,-102
2021-09-22 20:27:03.396703,-104
2021-09-22 20:27:03.621544,-97
2021-09-22 20:27:03.621566,-85
2021-09-22 20:27:03.621573,-80
2021-09-22 20:27:03.621579,-80
2021-09-22 20:27:03.621585,-82
2021-09-22 20:27:03.621591,-82
2021-09-22 20:27:03.621597,-80
2021-09-22 20:27:03.621602,-70
2021-09-22 20:27:03.621608,-65
2021-09-22 20:27:03.621614,-70
2021-09-22 20:27:03.621620,-72
2021-09-22 20:27:03.621626,-68
2021-09-22 20:27:03.621632,-63
2021-09-22 20:27:03.621637,-60
2021-09-22 20:27:03.621643,-58
2021-09-22 20:27:03.621649,-55
2021-09-22 20:27:03.621655,-58
2021-09-22 20:27:03.621661,-65
2021-09-22 20:27:03.621666,-63
2021-09-22 20:27:03.621672,-48
2021-09-22 20:27:03.621678,-48
2021-09-22 20:27:03.621684,-51
2021-09-22 20:27:03.621689,-46
2021-09-22 20:27:03.621695,-38
2021-09-22 20:27:03.621701,-24
2021-09-22 20:27:03.621707,-7
2021-09-22 20:27:03.621712,-7
2021-09-22 20:27:03.621718,-7
2021-09-22 20:27:03.621724,2
2021-09-22 20:27:03.621730,-4
2021-09-22 20:27:03.801473,-21
2021-09-22 20:27:03.801489,-24
2021-09-22 20:27:03.801496,-34
2021-09-22 20:27:03.801502,-41
2021-09-22 20:27:03.801508,-41
2021-09-22 20:27:03.801514,-46
2021-09-22 20:27:03.801520,-48
2021-09-22 20:27:03.801526,-43
2021-09-22 20:27:03.801531,-38
2021-09-22 20:27:03.801537,-34
2021-09-22 20:27:03.801543,-7
2021-09-22 20:27:03.801549,82
2021-09-22 20:27:03.801554,255
2021-09-22 20:27:03.801560,479
2021-09-22 20:27:03.801566,508
2021-09-22 20:27:03.801572,153
2021-09-22 20:27:03.801578,-340
2021-09-22 20:27:03.801584,-671
2021-09-22 20:27:03.801590,-618
2021-09-22 20:27:03.801595,-236
2021-09-22 20:27:03.801601,-31
2021-09-22 20:27:03.801607,-43
2021-09-22 20:27:03.801613,38
2021-09-22 20:27:03.801618,121
2021-09-22 20:27:03.801624,107
2021-09-22 20:27:03.801630,114
2021-09-22 20:27:03.801635,141
2021-09-22 20:27:03.801641,138
2021-09-22 20:27:03.801647,143
2021-09-22 20:27:03.801653,158
2021-09-22 20:27:04.026530,167
2021-09-22 20:27:04.026546,175
2021-09-22 20:27:04.026553,189
2021-09-22 20:27:04.026559,197
2021-09-22 20:27:04.026565,204
2021-09-22 20:27:04.026571,221
2021-09-22 20:27:04.026577,240
2021-09-22 20:27:04.026583,265
2021-09-22 20:27:04.026589,294
2021-09-22 20:27:04.026595,318
2021-09-22 20:27:04.026601,343
2021-09-22 20:27:04.026606,382
2021-09-22 20:27:04.026612,423
2021-09-22 20:27:04.026618,457
2021-09-22 20:27:04.026624,481
2021-09-22 20:27:04.026629,484
2021-09-22 20:27:04.026635,472
2021-09-22 20:27:04.026641,455
2021-09-22 20:27:04.026646,411
2021-09-22 20:27:04.026652,333
2021-09-22 20:27:04.026658,231
2021-09-22 20:27:04.026664,109
2021-09-22 20:27:04.026670,-14
2021-09-22 20:27:04.026675,-116
2021-09-22 20:27:04.026681,-187
2021-09-22 20:27:04.026687,-238
2021-09-22 20:27:04.026692,-274
2021-09-22 20:27:04.026698,-296
2021-09-22 20:27:04.026704,-301
2021-09-22 20:27:04.026709,-296
2021-09-22 20:27:04.296612,-291
2021-09-22 20:27:04.296629,-284
2021-09-22 20:27:04.296636,-279
2021-09-22 20:27:04.296643,-274
2021-09-22 20:27:04.296649,-260
2021-09-22 20:27:04.296655,-238
2021-09-22 20:27:04.296661,-226
2021-09-22 20:27:04.296667,-209
2021-09-22 20:27:04.296672,-194
2021-09-22 20:27:04.296678,-189
2021-09-22 20:27:04.296684,-187
2021-09-22 20:27:04.296690,-177
2021-09-22 20:27:04.296696,-160
2021-09-22 20:27:04.296702,-150
2021-09-22 20:27:04.296707,-148
2021-09-22 20:27:04.296713,-145
2021-09-22 20:27:04.296719,-136
2021-09-22 20:27:04.296725,-136
2021-09-22 20:27:04.296731,-143
2021-09-22 20:27:04.296737,-136
2021-09-22 20:27:04.296743,-131
2021-09-22 20:27:04.296749,-136
2021-09-22 20:27:04.296754,-133
2021-09-22 20:27:04.296760,-124
2021-09-22 20:27:04.296766,-116
2021-09-22 20:27:04.296772,-114
2021-09-22 20:27:04.296778,-111
2021-09-22 20:27:04.296784,-107
2021-09-22 20:27:04.296789,-97
2021-09-22 20:27:04.296795,-90
2021-09-22 20:27:04.521623,-87
2021-09-22 20:27:04.521641,-87
2021-09-22 20:27:04.521648,-87
2021-09-22 20:27:04.521655,-87
2021-09-22 20:27:04.521660,-82
2021-09-22 20:27:04.521666,-75
2021-09-22 20:27:04.521672,-65
2021-09-22 20:27:04.521678,-65
2021-09-22 20:27:04.521684,-72
2021-09-22 20:27:04.521690,-75
2021-09-22 20:27:04.521696,-63
2021-09-22 20:27:04.521707,-53
2021-09-22 20:27:04.521713,-51
2021-09-22 20:27:04.521718,-55
2021-09-22 20:27:04.521724,-60
2021-09-22 20:27:04.521730,-58
2021-09-22 20:27:04.521736,-51
2021-09-22 20:27:04.521741,-46
2021-09-22 20:27:04.521747,-46
2021-09-22 20:27:04.521753,-46
2021-09-22 20:27:04.521758,-46
2021-09-22 20:27:04.521764,-43
2021-09-22 20:27:04.521770,-34
2021-09-22 20:27:04.521776,-26
2021-09-22 20:27:04.521781,-24
2021-09-22 20:27:04.521787,-24
2021-09-22 20:27:04.521793,-24
2021-09-22 20:27:04.521799,-12
2021-09-22 20:27:04.521805,7
2021-09-22 20:27:04.521810,14
2021-09-22 20:27:04.791610,7
2021-09-22 20:27:04.791627,17
2021-09-22 20:27:04.791634,24
2021-09-22 20:27:04.791641,7
2021-09-22 20:27:04.791647,-9
2021-09-22 20:27:04.791653,-17
2021-09-22 20:27:04.791659,-24
2021-09-22 20:27:04.791665,-29
2021-09-22 20:27:04.791671,-31
2021-09-22 20:27:04.791676,-29
2021-09-22 20:27:04.791682,-26
2021-09-22 20:27:04.791688,-24
2021-09-22 20:27:04.791694,-19
2021-09-22 20:27:04.791700,-7
2021-09-22 20:27:04.791706,41
2021-09-22 20:27:04.791712,158
2021-09-22 20:27:04.791718,369
2021-09-22 20:27:04.791723,559
2021-09-22 20:27:04.791729,413
2021-09-22 20:27:04.791735,-43
2021-09-22 20:27:04.791741,-493
2021-09-22 20:27:04.791747,-705
2021-09-22 20:27:04.791753,-459
2021-09-22 20:27:04.791759,-82
2021-09-22 20:27:04.791764,-21
2021-09-22 20:27:04.791770,-9
2021-09-22 20:27:04.791776,107
2021-09-22 20:27:04.791782,131
2021-09-22 20:27:04.791788,102
2021-09-22 20:27:04.791794,133
2021-09-22 20:27:04.971954,155
2021-09-22 20:27:04.971970,148
2021-09-22 20:27:04.971977,155
2021-09-22 20:27:04.971984,170
2021-09-22 20:27:04.971990,180
2021-09-22 20:27:04.971996,189
2021-09-22 20:27:04.972002,197
2021-09-22 20:27:04.972008,204
2021-09-22 20:27:04.972014,221
2021-09-22 20:27:04.972019,243
2021-09-22 20:27:04.972025,265
2021-09-22 20:27:04.972031,289
2021-09-22 20:27:04.972037,313
2021-09-22 20:27:04.972043,335
2021-09-22 20:27:04.972049,364
2021-09-22 20:27:04.972055,403
2021-09-22 20:27:04.972061,440
2021-09-22 20:27:04.972067,474
2021-09-22 20:27:04.972072,491
2021-09-22 20:27:04.972078,489
2021-09-22 20:27:04.972084,479
2021-09-22 20:27:04.972090,455
2021-09-22 20:27:04.972096,399
2021-09-22 20:27:04.972101,306
2021-09-22 20:27:04.972107,184
2021-09-22 20:27:04.972113,60
2021-09-22 20:27:04.972119,-53
2021-09-22 20:27:04.972125,-150
2021-09-22 20:27:04.972131,-221
2021-09-22 20:27:04.972136,-262
2021-09-22 20:27:05.240298,-282
2021-09-22 20:27:05.240316,-294
2021-09-22 20:27:05.240323,-299
2021-09-22 20:27:05.240329,-296
2021-09-22 20:27:05.240335,-287
2021-09-22 20:27:05.240341,-279
2021-09-22 20:27:05.240347,-277
2021-09-22 20:27:05.240353,-265
2021-09-22 20:27:05.240359,-243
2021-09-22 20:27:05.240365,-231
2021-09-22 20:27:05.240371,-216
2021-09-22 20:27:05.240376,-201
2021-09-22 20:27:05.240382,-189
2021-09-22 20:27:05.240388,-177
2021-09-22 20:27:05.240394,-163
2021-09-22 20:27:05.240400,-153
2021-09-22 20:27:05.240406,-145
2021-09-22 20:27:05.240412,-138
2021-09-22 20:27:05.240418,-131
2021-09-22 20:27:05.240423,-126
2021-09-22 20:27:05.240429,-121
2021-09-22 20:27:05.240435,-126
2021-09-22 20:27:05.240441,-133
2021-09-22 20:27:05.240447,-136
2021-09-22 20:27:05.240452,-131
2021-09-22 20:27:05.240458,-126
2021-09-22 20:27:05.240464,-131
2021-09-22 20:27:05.240470,-131
2021-09-22 20:27:05.240476,-124
2021-09-22 20:27:05.240482,-119
2021-09-22 20:27:05.466563,-116
2021-09-22 20:27:05.466579,-109
2021-09-22 20:27:05.466586,-104
2021-09-22 20:27:05.466592,-99
2021-09-22 20:27:05.466598,-97
2021-09-22 20:27:05.466604,-99
2021-09-22 20:27:05.466610,-97
2021-09-22 20:27:05.466616,-90
2021-09-22 20:27:05.466621,-82
2021-09-22 20:27:05.466627,-75
2021-09-22 20:27:05.466633,-70
2021-09-22 20:27:05.466639,-75
2021-09-22 20:27:05.466645,-77
2021-09-22 20:27:05.466651,-68
2021-09-22 20:27:05.466656,-60
2021-09-22 20:27:05.466662,-58
2021-09-22 20:27:05.466668,-53
2021-09-22 20:27:05.466674,-53
2021-09-22 20:27:05.466679,-53
2021-09-22 20:27:05.466685,-41
2021-09-22 20:27:05.466691,-36
2021-09-22 20:27:05.466697,-38
2021-09-22 20:27:05.466702,-38
2021-09-22 20:27:05.466708,-36
2021-09-22 20:27:05.466714,-31
2021-09-22 20:27:05.466719,-19
2021-09-22 20:27:05.466725,-17
2021-09-22 20:27:05.466731,-26
2021-09-22 20:27:05.466737,-31
2021-09-22 20:27:05.466742,-24
2021-09-22 20:27:05.646511,-21
2021-09-22 20:27:05.646527,-17
2021-09-22 20:27:05.646534,2
2021-09-22 20:27:05.646540,19
2021-09-22 20:27:05.646546,19
2021-09-22 20:27:05.646552,17
2021-09-22 20:27:05.646557,26
2021-09-22 20:27:05.646563,34
2021-09-22 20:27:05.646575,19
2021-09-22 20:27:05.646581,-4
2021-09-22 20:27:05.646587,-21
2021-09-22 20:27:05.646593,-26
2021-09-22 20:27:05.646599,-17
2021-09-22 20:27:05.646605,-9
2021-09-22 20:27:05.646611,-9
2021-09-22 20:27:05.646616,-12
2021-09-22 20:27:05.646622,-19
2021-09-22 20:27:05.646628,-24
2021-09-22 20:27:05.646634,-4
2021-09-22 20:27:05.646639,53
2021-09-22 20:27:05.646645,163
2021-09-22 20:27:05.646651,360
2021-09-22 20:27:05.646657,571
2021-09-22 20:27:05.646662,493
2021-09-22 20:27:05.646668,82
2021-09-22 20:27:05.646674,-384
2021-09-22 20:27:05.646680,-656
2021-09-22 20:27:05.646685,-462
2021-09-22 20:27:05.646691,-80
2021-09-22 20:27:05.646697,-4
2021-09-22 20:27:05.871580,-14
2021-09-22 20:27:05.871599,104
2021-09-22 20:27:05.871606,143
2021-09-22 20:27:05.871612,104
2021-09-22 20:27:05.871618,121
2021-09-22 20:27:05.871624,148
2021-09-22 20:27:05.871630,150
2021-09-22 20:27:05.871636,160
2021-09-22 20:27:05.871642,180
2021-09-22 20:27:05.871648,184
2021-09-22 20:27:05.871654,184
2021-09-22 20:27:05.871660,197
2021-09-22 20:27:05.871666,216
2021-09-22 20:27:05.871672,233
2021-09-22 20:27:05.871677,250
2021-09-22 20:27:05.871683,267
2021-09-22 20:27:05.871689,294
2021-09-22 20:27:05.871695,323
2021-09-22 20:27:05.871701,355
2021-09-22 20:27:05.871707,396
2021-09-22 20:27:05.871713,440
2021-09-22 20:27:05.871719,464
2021-09-22 20:27:05.871725,484
2021-09-22 20:27:05.871731,508
2021-09-22 20:27:05.871736,518
2021-09-22 20:27:05.871742,510
2021-09-22 20:27:05.871748,484
2021-09-22 20:27:05.871754,433
2021-09-22 20:27:05.871760,355
2021-09-22 20:27:05.871766,248
2021-09-22 20:27:06.141658,124
2021-09-22 20:27:06.141679,4
2021-09-22 20:27:06.141686,-102
2021-09-22 20:27:06.141692,-184
2021-09-22 20:27:06.141698,-233
2021-09-22 20:27:06.141704,-260
2021-09-22 20:27:06.141710,-279
2021-09-22 20:27:06.141716,-284
2021-09-22 20:27:06.141722,-284
2021-09-22 20:27:06.141728,-289
2021-09-22 20:27:06.141733,-282
2021-09-22 20:27:06.141739,-260
2021-09-22 20:27:06.141745,-240
2021-09-22 20:27:06.141751,-226
2021-09-22 20:27:06.141756,-211
2021-09-22 20:27:06.141762,-201
2021-09-22 20:27:06.141768,-182
2021-09-22 20:27:06.141774,-158
2021-09-22 20:27:06.141779,-143
2021-09-22 20:27:06.141785,-141
2021-09-22 20:27:06.141791,-138
2021-09-22 20:27:06.141797,-133
2021-09-22 20:27:06.141802,-124
2021-09-22 20:27:06.141808,-114
2021-09-22 20:27:06.141814,-107
2021-09-22 20:27:06.141820,-102
2021-09-22 20:27:06.141825,-104
2021-09-22 20:27:06.141831,-109
2021-09-22 20:27:06.141837,-107
2021-09-22 20:27:06.141843,-102
2021-09-22 20:27:06.366520,-102
2021-09-22 20:27:06.366538,-97
2021-09-22 20:27:06.366545,-92
2021-09-22 20:27:06.366551,-102
2021-09-22 20:27:06.366557,-109
2021-09-22 20:27:06.366563,-94
2021-09-22 20:27:06.366569,-87
2021-09-22 20:27:06.366574,-90
2021-09-22 20:27:06.366580,-94
2021-09-22 20:27:06.366586,-92
2021-09-22 20:27:06.366592,-85
2021-09-22 20:27:06.366598,-75
2021-09-22 20:27:06.366604,-72
2021-09-22 20:27:06.366610,-70
2021-09-22 20:27:06.366616,-72
2021-09-22 20:27:06.366621,-72
2021-09-22 20:27:06.366627,-60
2021-09-22 20:27:06.366633,-48
2021-09-22 20:27:06.366639,-51
2021-09-22 20:27:06.366645,-53
2021-09-22 20:27:06.366650,-51
2021-09-22 20:27:06.366656,-48
2021-09-22 20:27:06.366662,-48
2021-09-22 20:27:06.366667,-46
2021-09-22 20:27:06.366673,-34
2021-09-22 20:27:06.366679,-31
2021-09-22 20:27:06.366684,-31
2021-09-22 20:27:06.366690,-31
2021-09-22 20:27:06.366696,-26
2021-09-22 20:27:06.366701,-19
2021-09-22 20:27:06.636664,-19
2021-09-22 20:27:06.636683,-19
2021-09-22 20:27:06.636690,-9
2021-09-22 20:27:06.636696,-2
2021-09-22 20:27:06.636702,9
2021-09-22 20:27:06.636708,19
2021-09-22 20:27:06.636714,12
2021-09-22 20:27:06.636720,14
2021-09-22 20:27:06.636726,14
2021-09-22 20:27:06.636732,-2
2021-09-22 20:27:06.636738,-17
2021-09-22 20:27:06.636744,-19
2021-09-22 20:27:06.636750,-19
2021-09-22 20:27:06.636755,-19
2021-09-22 20:27:06.636761,-24
2021-09-22 20:27:06.636767,-26
2021-09-22 20:27:06.636773,-24
2021-09-22 20:27:06.636779,-19
2021-09-22 20:27:06.636785,-19
2021-09-22 20:27:06.636791,-4
2021-09-22 20:27:06.636797,51
2021-09-22 20:27:06.636803,163
2021-09-22 20:27:06.636809,335
2021-09-22 20:27:06.636815,503
2021-09-22 20:27:06.636821,408
2021-09-22 20:27:06.636827,4
2021-09-22 20:27:06.636832,-455
2021-09-22 20:27:06.636838,-686
2021-09-22 20:27:06.636844,-447
2021-09-22 20:27:06.636850,-72
2021-09-22 20:27:06.816578,-4
2021-09-22 20:27:06.816595,-2
2021-09-22 20:27:06.816601,114
2021-09-22 20:27:06.816608,145
2021-09-22 20:27:06.816614,116
2021-09-22 20:27:06.816619,145
2021-09-22 20:27:06.816625,170
2021-09-22 20:27:06.816631,160
2021-09-22 20:27:06.816637,158
2021-09-22 20:27:06.816643,160
2021-09-22 20:27:06.816649,165
2021-09-22 20:27:06.816654,184
2021-09-22 20:27:06.816660,194
2021-09-22 20:27:06.816666,197
2021-09-22 20:27:06.816672,214
2021-09-22 20:27:06.816677,236
2021-09-22 20:27:06.816683,253
2021-09-22 20:27:06.816689,277
2021-09-22 20:27:06.816694,301
2021-09-22 20:27:06.816700,326
2021-09-22 20:27:06.816706,364
2021-09-22 20:27:06.816711,406
2021-09-22 20:27:06.816717,440
2021-09-22 20:27:06.816728,459
2021-09-22 20:27:06.816734,469
2021-09-22 20:27:06.816739,479
2021-09-22 20:27:06.816745,476
2021-09-22 20:27:06.816751,445
2021-09-22 20:27:06.816757,394
2021-09-22 20:27:06.816762,318
2021-09-22 20:27:07.086651,204
2021-09-22 20:27:07.086670,80
2021-09-22 20:27:07.086677,-26
2021-09-22 20:27:07.086683,-119
2021-09-22 20:27:07.086690,-192
2021-09-22 20:27:07.086696,-240
2021-09-22 20:27:07.086702,-274
2021-09-22 20:27:07.086708,-291
2021-09-22 20:27:07.086714,-289
2021-09-22 20:27:07.086720,-291
2021-09-22 20:27:07.086726,-294
2021-09-22 20:27:07.086732,-284
2021-09-22 20:27:07.086738,-274
2021-09-22 20:27:07.086744,-267
2021-09-22 20:27:07.086750,-248
2021-09-22 20:27:07.086756,-226
2021-09-22 20:27:07.086762,-211
2021-09-22 20:27:07.086768,-199
2021-09-22 20:27:07.086774,-189
2021-09-22 20:27:07.086780,-177
2021-09-22 20:27:07.086785,-165
2021-09-22 20:27:07.086791,-158
2021-09-22 20:27:07.086797,-150
2021-09-22 20:27:07.086803,-145
2021-09-22 20:27:07.086809,-143
2021-09-22 20:27:07.086814,-138
2021-09-22 20:27:07.086820,-136
2021-09-22 20:27:07.086826,-136
2021-09-22 20:27:07.086831,-136
2021-09-22 20:27:07.086837,-128
2021-09-22 20:27:07.310317,-124
2021-09-22 20:27:07.310334,-124
2021-09-22 20:27:07.310341,-124
2021-09-22 20:27:07.310347,-119
2021-09-22 20:27:07.310353,-119
2021-09-22 20:27:07.310359,-121
2021-09-22 20:27:07.310365,-119
2021-09-22 20:27:07.310371,-109
2021-09-22 20:27:07.310377,-104
2021-09-22 20:27:07.310383,-104
2021-09-22 20:27:07.310389,-97
2021-09-22 20:27:07.310394,-92
2021-09-22 20:27:07.310400,-92
2021-09-22 20:27:07.310406,-87
2021-09-22 20:27:07.310412,-87
2021-09-22 20:27:07.310418,-99
2021-09-22 20:27:07.310423,-104
2021-09-22 20:27:07.310429,-99
2021-09-22 20:27:07.310435,-97
2021-09-22 20:27:07.310441,-90
2021-09-22 20:27:07.310447,-80
2021-09-22 20:27:07.310452,-80
2021-09-22 20:27:07.310458,-82
2021-09-22 20:27:07.310464,-77
2021-09-22 20:27:07.310470,-68
2021-09-22 20:27:07.310475,-63
2021-09-22 20:27:07.310481,-63
2021-09-22 20:27:07.310487,-60
2021-09-22 20:27:07.310493,-53
2021-09-22 20:27:07.310499,-53
2021-09-22 20:27:07.581493,-51
2021-09-22 20:27:07.581511,-43
2021-09-22 20:27:07.581518,-41
2021-09-22 20:27:07.581524,-38
2021-09-22 20:27:07.581530,-41
2021-09-22 20:27:07.581535,-43
2021-09-22 20:27:07.581541,-41
2021-09-22 20:27:07.581547,-26
2021-09-22 20:27:07.581553,-9
2021-09-22 20:27:07.581559,0
2021-09-22 20:27:07.581564,-7
2021-09-22 20:27:07.581570,-12
2021-09-22 20:27:07.581576,0
2021-09-22 20:27:07.581582,-4
2021-09-22 20:27:07.581588,-24
2021-09-22 20:27:07.581594,-36
2021-09-22 20:27:07.581600,-46
2021-09-22 20:27:07.581605,-51
2021-09-22 20:27:07.581611,-43
2021-09-22 20:27:07.581617,-36
2021-09-22 20:27:07.581623,-38
2021-09-22 20:27:07.581628,-41
2021-09-22 20:27:07.581634,-38
2021-09-22 20:27:07.581640,-29
2021-09-22 20:27:07.581645,7
2021-09-22 20:27:07.581651,97
2021-09-22 20:27:07.581657,257
2021-09-22 20:27:07.581663,484
2021-09-22 20:27:07.581668,532
2021-09-22 20:27:07.581674,206
2021-09-22 20:27:07.806020,-265
2021-09-22 20:27:07.806037,-618
2021-09-22 20:27:07.806044,-598
2021-09-22 20:27:07.806050,-226
2021-09-22 20:27:07.806056,-14
2021-09-22 20:27:07.806062,-26
2021-09-22 20:27:07.806068,60
2021-09-22 20:27:07.806074,141
2021-09-22 20:27:07.806080,116
2021-09-22 20:27:07.806086,116
2021-09-22 20:27:07.806091,143
2021-09-22 20:27:07.806097,141
2021-09-22 20:27:07.806103,145
2021-09-22 20:27:07.806109,167
2021-09-22 20:27:07.806115,177
2021-09-22 20:27:07.806120,180
2021-09-22 20:27:07.806126,184
2021-09-22 20:27:07.806132,194
2021-09-22 20:27:07.806138,211
2021-09-22 20:27:07.806144,231
2021-09-22 20:27:07.806149,238
2021-09-22 20:27:07.806155,240
2021-09-22 20:27:07.806161,257
2021-09-22 20:27:07.806167,291
2021-09-22 20:27:07.806172,330
2021-09-22 20:27:07.806178,367
2021-09-22 20:27:07.806183,401
2021-09-22 20:27:07.806189,430
2021-09-22 20:27:07.806195,452
2021-09-22 20:27:07.806200,474
2021-09-22 20:27:07.986675,481
2021-09-22 20:27:07.986694,462
2021-09-22 20:27:07.986702,413
2021-09-22 20:27:07.986708,338
2021-09-22 20:27:07.986714,238
2021-09-22 20:27:07.986720,119
2021-09-22 20:27:07.986726,0
2021-09-22 20:27:07.986731,-99
2021-09-22 20:27:07.986737,-182
2021-09-22 20:27:07.986743,-253
2021-09-22 20:27:07.986748,-291
2021-09-22 20:27:07.986754,-304
2021-09-22 20:27:07.986760,-301
2021-09-22 20:27:07.986765,-299
2021-09-22 20:27:07.986771,-299
2021-09-22 20:27:07.986777,-299
2021-09-22 20:27:07.986783,-289
2021-09-22 20:27:07.986788,-274
2021-09-22 20:27:07.986794,-265
2021-09-22 20:27:07.986800,-253
2021-09-22 20:27:07.986806,-238
2021-09-22 20:27:07.986812,-226
2021-09-22 20:27:07.986817,-209
2021-09-22 20:27:07.986823,-189
2021-09-22 20:27:07.986828,-175
2021-09-22 20:27:07.986834,-165
2021-09-22 20:27:07.986840,-158
2021-09-22 20:27:07.986846,-150
2021-09-22 20:27:07.986852,-141
2021-09-22 20:27:07.986858,-133
2021-09-22 20:27:08.256020,-128
2021-09-22 20:27:08.256038,-124
2021-09-22 20:27:08.256045,-126
2021-09-22 20:27:08.256051,-126
2021-09-22 20:27:08.256057,-124
2021-09-22 20:27:08.256063,-121
2021-09-22 20:27:08.256069,-119
2021-09-22 20:27:08.256075,-114
2021-09-22 20:27:08.256081,-119
2021-09-22 20:27:08.256087,-124
2021-09-22 20:27:08.256093,-116
2021-09-22 20:27:08.256099,-107
2021-09-22 20:27:08.256105,-104
2021-09-22 20:27:08.256111,-99
2021-09-22 20:27:08.256116,-99
2021-09-22 20:27:08.256122,-104
2021-09-22 20:27:08.256128,-97
2021-09-22 20:27:08.256134,-85
2021-09-22 20:27:08.256140,-82
2021-09-22 20:27:08.256145,-80
2021-09-22 20:27:08.256151,-82
2021-09-22 20:27:08.256157,-82
2021-09-22 20:27:08.256163,-75
2021-09-22 20:27:08.256168,-68
2021-09-22 20:27:08.256174,-65
2021-09-22 20:27:08.256180,-65
2021-09-22 20:27:08.256186,-70
2021-09-22 20:27:08.256192,-75
2021-09-22 20:27:08.256198,-63
2021-09-22 20:27:08.256206,-58
2021-09-22 20:27:08.436517,-58
2021-09-22 20:27:08.436533,-55
2021-09-22 20:27:08.436540,-55
2021-09-22 20:27:08.436546,-58
2021-09-22 20:27:08.436552,-48
2021-09-22 20:27:08.436558,-43
2021-09-22 20:27:08.436564,-41
2021-09-22 20:27:08.436570,-43
2021-09-22 20:27:08.436575,-48
2021-09-22 20:27:08.436581,-48
2021-09-22 20:27:08.436587,-41
2021-09-22 20:27:08.436593,-38
2021-09-22 20:27:08.436599,-36
2021-09-22 20:27:08.436604,-34
2021-09-22 20:27:08.436610,-36
2021-09-22 20:27:08.436616,-31
2021-09-22 20:27:08.436622,-12
2021-09-22 20:27:08.436627,2
2021-09-22 20:27:08.436633,2
2021-09-22 20:27:08.436639,0
2021-09-22 20:27:08.436645,4
2021-09-22 20:27:08.436651,0
2021-09-22 20:27:08.436656,-17
2021-09-22 20:27:08.436662,-31
2021-09-22 20:27:08.436668,-38
2021-09-22 20:27:08.436674,-41
2021-09-22 20:27:08.436680,-41
2021-09-22 20:27:08.436686,-36
2021-09-22 20:27:08.436691,-31
2021-09-22 20:27:08.436697,-29
2021-09-22 20:27:08.706669,-26
2021-09-22 20:27:08.706688,-24
2021-09-22 20:27:08.706695,2
2021-09-22 20:27:08.706701,72
2021-09-22 20:27:08.706707,209
2021-09-22 20:27:08.706713,445
2021-09-22 20:27:08.706718,598
2021-09-22 20:27:08.706724,362
2021-09-22 20:27:08.706730,-116
2021-09-22 20:27:08.706736,-528
2021-09-22 20:27:08.706742,-652
2021-09-22 20:27:08.706748,-333
2021-09-22 20:27:08.706754,-24
2021-09-22 20:27:08.706759,-21
2021-09-22 20:27:08.706765,19
2021-09-22 20:27:08.706771,126
2021-09-22 20:27:08.706777,116
2021-09-22 20:27:08.706782,104
2021-09-22 20:27:08.706788,145
2021-09-22 20:27:08.706794,153
2021-09-22 20:27:08.706800,145
2021-09-22 20:27:08.706805,160
2021-09-22 20:27:08.706811,175
2021-09-22 20:27:08.706816,177
2021-09-22 20:27:08.706822,184
2021-09-22 20:27:08.706828,194
2021-09-22 20:27:08.706834,204
2021-09-22 20:27:08.706839,216
2021-09-22 20:27:08.706845,236
2021-09-22 20:27:08.706851,257
2021-09-22 20:27:08.886527,279
2021-09-22 20:27:08.886544,304
2021-09-22 20:27:08.886551,326
2021-09-22 20:27:08.886557,350
2021-09-22 20:27:08.886563,389
2021-09-22 20:27:08.886569,428
2021-09-22 20:27:08.886575,447
2021-09-22 20:27:08.886581,457
2021-09-22 20:27:08.886587,459
2021-09-22 20:27:08.886592,445
2021-09-22 20:27:08.886598,411
2021-09-22 20:27:08.886604,355
2021-09-22 20:27:08.886610,262
2021-09-22 20:27:08.886616,148
2021-09-22 20:27:08.886622,34
2021-09-22 20:27:08.886628,-72
2021-09-22 20:27:08.886634,-158
2021-09-22 20:27:08.886640,-223
2021-09-22 20:27:08.886646,-270
2021-09-22 20:27:08.886652,-294
2021-09-22 20:27:08.886658,-299
2021-09-22 20:27:08.886663,-299
2021-09-22 20:27:08.886669,-291
2021-09-22 20:27:08.886675,-279
2021-09-22 20:27:08.886681,-270
2021-09-22 20:27:08.886687,-260
2021-09-22 20:27:08.886693,-253
2021-09-22 20:27:08.886698,-240
2021-09-22 20:27:08.886704,-218
2021-09-22 20:27:08.886710,-204
2021-09-22 20:27:09.156727,-192
2021-09-22 20:27:09.156746,-177
2021-09-22 20:27:09.156753,-163
2021-09-22 20:27:09.156759,-155
2021-09-22 20:27:09.156765,-148
2021-09-22 20:27:09.156771,-143
2021-09-22 20:27:09.156777,-138
2021-09-22 20:27:09.156782,-126
2021-09-22 20:27:09.156788,-121
2021-09-22 20:27:09.156794,-121
2021-09-22 20:27:09.156800,-121
2021-09-22 20:27:09.156806,-126
2021-09-22 20:27:09.156812,-126
2021-09-22 20:27:09.156818,-116
2021-09-22 20:27:09.156823,-111
2021-09-22 20:27:09.156829,-116
2021-09-22 20:27:09.156835,-114
2021-09-22 20:27:09.156841,-111
2021-09-22 20:27:09.156846,-109
2021-09-22 20:27:09.156852,-97
2021-09-22 20:27:09.156858,-90
2021-09-22 20:27:09.156864,-87
2021-09-22 20:27:09.156870,-85
2021-09-22 20:27:09.156875,-80
2021-09-22 20:27:09.156881,-77
2021-09-22 20:27:09.156886,-72
2021-09-22 20:27:09.156892,-68
2021-09-22 20:27:09.156898,-65
2021-09-22 20:27:09.156904,-70
2021-09-22 20:27:09.156909,-72
2021-09-22 20:27:09.425263,-65
2021-09-22 20:27:09.425279,-55
2021-09-22 20:27:09.425286,-55
2021-09-22 20:27:09.425292,-58
2021-09-22 20:27:09.425298,-51
2021-09-22 20:27:09.425304,-46
2021-09-22 20:27:09.425310,-41
2021-09-22 20:27:09.425316,-41
2021-09-22 20:27:09.425322,-51
2021-09-22 20:27:09.425328,-55
2021-09-22 20:27:09.425334,-55
2021-09-22 20:27:09.425339,-53
2021-09-22 20:27:09.425345,-51
2021-09-22 20:27:09.425351,-46
2021-09-22 20:27:09.425357,-43
2021-09-22 20:27:09.425362,-43
2021-09-22 20:27:09.425368,-43
2021-09-22 20:27:09.425374,-46
2021-09-22 20:27:09.425380,-38
2021-09-22 20:27:09.425386,-29
2021-09-22 20:27:09.425391,-29
2021-09-22 20:27:09.425397,-29
2021-09-22 20:27:09.425403,-29
2021-09-22 20:27:09.425409,-24
2021-09-22 20:27:09.425414,-4
2021-09-22 20:27:09.425420,14
2021-09-22 20:27:09.425426,17
2021-09-22 20:27:09.425432,12
2021-09-22 20:27:09.425438,21
2021-09-22 20:27:09.425443,21
2021-09-22 20:27:09.561564,-2
2021-09-22 20:27:09.561580,-21
2021-09-22 20:27:09.561587,-26
2021-09-22 20:27:09.561594,-31
2021-09-22 20:27:09.561600,-36
2021-09-22 20:27:09.561606,-34
2021-09-22 20:27:09.561612,-26
2021-09-22 20:27:09.561618,-26
2021-09-22 20:27:09.561624,-26
2021-09-22 20:27:09.561629,-17
2021-09-22 20:27:09.561635,7
2021-09-22 20:27:09.561641,80
2021-09-22 20:27:09.561647,233
2021-09-22 20:27:09.561653,484
2021-09-22 20:27:09.561659,610
2021-09-22 20:27:09.561664,340
2021-09-22 20:27:09.561670,-155
2021-09-22 20:27:09.561676,-564
2021-09-22 20:27:09.561682,-627
2021-09-22 20:27:09.561688,-272
2021-09-22 20:27:09.561694,0
2021-09-22 20:27:09.561700,-9
2021-09-22 20:27:09.561705,48
2021-09-22 20:27:09.561711,145
2021-09-22 20:27:09.561717,131
2021-09-22 20:27:09.561723,124
2021-09-22 20:27:09.561729,163
2021-09-22 20:27:09.561734,167
2021-09-22 20:27:09.561740,165
2021-09-22 20:27:09.561746,187
2021-09-22 20:27:09.831558,199
2021-09-22 20:27:09.831574,197
2021-09-22 20:27:09.831581,197
2021-09-22 20:27:09.831587,199
2021-09-22 20:27:09.831592,206
2021-09-22 20:27:09.831598,223
2021-09-22 20:27:09.831604,243
2021-09-22 20:27:09.831610,265
2021-09-22 20:27:09.831615,289
2021-09-22 20:27:09.831621,311
2021-09-22 20:27:09.831627,343
2021-09-22 20:27:09.831633,379
2021-09-22 20:27:09.831639,416
2021-09-22 20:27:09.831644,445
2021-09-22 20:27:09.831650,457
2021-09-22 20:27:09.831656,450
2021-09-22 20:27:09.831661,450
2021-09-22 20:27:09.831667,452
2021-09-22 20:27:09.831673,423
2021-09-22 20:27:09.831678,360
2021-09-22 20:27:09.831684,267
2021-09-22 20:27:09.831690,150
2021-09-22 20:27:09.831696,36
2021-09-22 20:27:09.831701,-60
2021-09-22 20:27:09.831707,-145
2021-09-22 20:27:09.831713,-214
2021-09-22 20:27:09.831719,-250
2021-09-22 20:27:09.831724,-272
2021-09-22 20:27:09.831733,-282
2021-09-22 20:27:09.831739,-277
2021-09-22 20:27:10.056626,-267
2021-09-22 20:27:10.056642,-260
2021-09-22 20:27:10.056650,-253
2021-09-22 20:27:10.056656,-238
2021-09-22 20:27:10.056661,-223
2021-09-22 20:27:10.056667,-211
2021-09-22 20:27:10.056673,-197
2021-09-22 20:27:10.056679,-180
2021-09-22 20:27:10.056685,-172
2021-09-22 20:27:10.056691,-167
2021-09-22 20:27:10.056697,-150
2021-09-22 20:27:10.056703,-133
2021-09-22 20:27:10.056708,-128
2021-09-22 20:27:10.056714,-124
2021-09-22 20:27:10.056720,-124
2021-09-22 20:27:10.056725,-126
2021-09-22 20:27:10.056731,-116
2021-09-22 20:27:10.056737,-109
2021-09-22 20:27:10.056743,-114
2021-09-22 20:27:10.056749,-111
2021-09-22 20:27:10.056755,-109
2021-09-22 20:27:10.056760,-109
2021-09-22 20:27:10.056766,-104
2021-09-22 20:27:10.056772,-94
2021-09-22 20:27:10.056778,-94
2021-09-22 20:27:10.056784,-92
2021-09-22 20:27:10.056790,-87
2021-09-22 20:27:10.056796,-82
2021-09-22 20:27:10.056801,-77
2021-09-22 20:27:10.056807,-72
2021-09-22 20:27:10.281678,-72
2021-09-22 20:27:10.281697,-63
2021-09-22 20:27:10.281704,-60
2021-09-22 20:27:10.281710,-60
2021-09-22 20:27:10.281716,-58
2021-09-22 20:27:10.281722,-51
2021-09-22 20:27:10.281728,-51
2021-09-22 20:27:10.281734,-55
2021-09-22 20:27:10.281740,-60
2021-09-22 20:27:10.281746,-60
2021-09-22 20:27:10.281752,-51
2021-09-22 20:27:10.281758,-43
2021-09-22 20:27:10.281763,-43
2021-09-22 20:27:10.281769,-41
2021-09-22 20:27:10.281775,-41
2021-09-22 20:27:10.281781,-46
2021-09-22 20:27:10.281787,-41
2021-09-22 20:27:10.281793,-29
2021-09-22 20:27:10.281799,-24
2021-09-22 20:27:10.281805,-29
2021-09-22 20:27:10.281810,-38
2021-09-22 20:27:10.281816,-36
2021-09-22 20:27:10.281822,-26
2021-09-22 20:27:10.281828,-24
2021-09-22 20:27:10.281834,-24
2021-09-22 20:27:10.281839,-9
2021-09-22 20:27:10.281845,9
2021-09-22 20:27:10.281851,14
2021-09-22 20:27:10.281857,12
2021-09-22 20:27:10.281863,21
2021-09-22 20:27:10.506658,29
2021-09-22 20:27:10.506676,12
2021-09-22 20:27:10.506683,-4
2021-09-22 20:27:10.506689,-9
2021-09-22 20:27:10.506695,-12
2021-09-22 20:27:10.506701,-9
2021-09-22 20:27:10.506706,-2
2021-09-22 20:27:10.506712,-7
2021-09-22 20:27:10.506718,-21
2021-09-22 20:27:10.506724,-24
2021-09-22 20:27:10.506729,-12
2021-09-22 20:27:10.506735,14
2021-09-22 20:27:10.506741,70
2021-09-22 20:27:10.506747,165
2021-09-22 20:27:10.506753,340
2021-09-22 20:27:10.506758,513
2021-09-22 20:27:10.506764,411
2021-09-22 20:27:10.506770,12
2021-09-22 20:27:10.506776,-445
2021-09-22 20:27:10.506781,-676
2021-09-22 20:27:10.506787,-418
2021-09-22 20:27:10.506793,-51
2021-09-22 20:27:10.506799,0
2021-09-22 20:27:10.506804,17
2021-09-22 20:27:10.506810,138
2021-09-22 20:27:10.506816,165
2021-09-22 20:27:10.506821,136
2021-09-22 20:27:10.506827,163
2021-09-22 20:27:10.506833,182
2021-09-22 20:27:10.506839,177
2021-09-22 20:27:10.731578,192
2021-09-22 20:27:10.731595,204
2021-09-22 20:27:10.731601,197
2021-09-22 20:27:10.731608,199
2021-09-22 20:27:10.731613,221
2021-09-22 20:27:10.731619,238
2021-09-22 20:27:10.731625,240
2021-09-22 20:27:10.731631,253
2021-09-22 20:27:10.731637,274
2021-09-22 20:27:10.731643,299
2021-09-22 20:27:10.731648,323
2021-09-22 20:27:10.731654,347
2021-09-22 20:27:10.731660,369
2021-09-22 20:27:10.731666,399
2021-09-22 20:27:10.731671,435
2021-09-22 20:27:10.731677,457
2021-09-22 20:27:10.731683,472
2021-09-22 20:27:10.731689,479
2021-09-22 20:27:10.731695,469
2021-09-22 20:27:10.731700,442
2021-09-22 20:27:10.731706,391
2021-09-22 20:27:10.731712,309
2021-09-22 20:27:10.731718,206
2021-09-22 20:27:10.731723,90
2021-09-22 20:27:10.731729,-26
2021-09-22 20:27:10.731735,-124
2021-09-22 20:27:10.731741,-194
2021-09-22 20:27:10.731747,-238
2021-09-22 20:27:10.731753,-267
2021-09-22 20:27:10.731758,-277
2021-09-22 20:27:10.956573,-279
2021-09-22 20:27:10.956589,-274
2021-09-22 20:27:10.956596,-270
2021-09-22 20:27:10.956602,-255
2021-09-22 20:27:10.956608,-236
2021-09-22 20:27:10.956614,-223
2021-09-22 20:27:10.956620,-218
2021-09-22 20:27:10.956625,-201
2021-09-22 20:27:10.956631,-180
2021-09-22 20:27:10.956637,-170
2021-09-22 20:27:10.956643,-165
2021-09-22 20:27:10.956648,-155
2021-09-22 20:27:10.956654,-155
2021-09-22 20:27:10.956660,-155
2021-09-22 20:27:10.956666,-143
2021-09-22 20:27:10.956672,-136
2021-09-22 20:27:10.956677,-133
2021-09-22 20:27:10.956683,-136
2021-09-22 20:27:10.956689,-136
2021-09-22 20:27:10.956695,-133
2021-09-22 20:27:10.956701,-131
2021-09-22 20:27:10.956706,-126
2021-09-22 20:27:10.956712,-121
2021-09-22 20:27:10.956718,-121
2021-09-22 20:27:10.956724,-121
2021-09-22 20:27:10.956729,-114
2021-09-22 20:27:10.956735,-107
2021-09-22 20:27:10.956741,-107
2021-09-22 20:27:10.956746,-102
2021-09-22 20:27:10.956752,-99
2021-09-22 20:27:11.181745,-97
2021-09-22 20:27:11.181763,-90
2021-09-22 20:27:11.181770,-85
2021-09-22 20:27:11.181776,-85
2021-09-22 20:27:11.181782,-82
2021-09-22 20:27:11.181788,-87
2021-09-22 20:27:11.181794,-90
2021-09-22 20:27:11.181799,-77
2021-09-22 20:27:11.181805,-70
2021-09-22 20:27:11.181811,-70
2021-09-22 20:27:11.181817,-75
2021-09-22 20:27:11.181822,-75
2021-09-22 20:27:11.181828,-72
2021-09-22 20:27:11.181834,-65
2021-09-22 20:27:11.181839,-65
2021-09-22 20:27:11.181845,-70
2021-09-22 20:27:11.181851,-65
2021-09-22 20:27:11.181857,-63
2021-09-22 20:27:11.181862,-60
2021-09-22 20:27:11.181868,-55
2021-09-22 20:27:11.181874,-41
2021-09-22 20:27:11.181880,-21
2021-09-22 20:27:11.181885,-14
2021-09-22 20:27:11.181891,-21
2021-09-22 20:27:11.181897,-14
2021-09-22 20:27:11.181902,-4
2021-09-22 20:27:11.181908,-19
2021-09-22 20:27:11.181914,-38
2021-09-22 20:27:11.181919,-46
2021-09-22 20:27:11.181925,-51
2021-09-22 20:27:11.450228,-55
2021-09-22 20:27:11.450244,-58
2021-09-22 20:27:11.450251,-58
2021-09-22 20:27:11.450256,-58
2021-09-22 20:27:11.450262,-60
2021-09-22 20:27:11.450268,-60
2021-09-22 20:27:11.450274,-34
2021-09-22 20:27:11.450280,34
2021-09-22 20:27:11.450286,153
2021-09-22 20:27:11.450292,352
2021-09-22 20:27:11.450297,515
2021-09-22 20:27:11.450303,347
2021-09-22 20:27:11.450309,-111
2021-09-22 20:27:11.450315,-557
2021-09-22 20:27:11.450321,-722
2021-09-22 20:27:11.450326,-433
2021-09-22 20:27:11.450332,-87
2021-09-22 20:27:11.450338,-48
2021-09-22 20:27:11.450344,-19
2021-09-22 20:27:11.450349,107
2021-09-22 20:27:11.450355,121
2021-09-22 20:27:11.450361,92
2021-09-22 20:27:11.450367,124
2021-09-22 20:27:11.450372,148
2021-09-22 20:27:11.450378,145
2021-09-22 20:27:11.450384,158
2021-09-22 20:27:11.450389,172
2021-09-22 20:27:11.450395,175
2021-09-22 20:27:11.450401,184
2021-09-22 20:27:11.450407,201
2021-09-22 20:27:11.631624,216
2021-09-22 20:27:11.631642,233
2021-09-22 20:27:11.631649,255
2021-09-22 20:27:11.631655,267
2021-09-22 20:27:11.631660,282
2021-09-22 20:27:11.631666,311
2021-09-22 20:27:11.631672,345
2021-09-22 20:27:11.631679,377
2021-09-22 20:27:11.631685,411
2021-09-22 20:27:11.631691,442
2021-09-22 20:27:11.631697,462
2021-09-22 20:27:11.631703,481
2021-09-22 20:27:11.631709,489
2021-09-22 20:27:11.631715,479
2021-09-22 20:27:11.631720,447
2021-09-22 20:27:11.631726,382
2021-09-22 20:27:11.631732,287
2021-09-22 20:27:11.631738,170
2021-09-22 20:27:11.631744,46
2021-09-22 20:27:11.631749,-70
2021-09-22 20:27:11.631755,-167
2021-09-22 20:27:11.631761,-236
2021-09-22 20:27:11.631767,-277
2021-09-22 20:27:11.631775,-296
2021-09-22 20:27:11.631781,-306
2021-09-22 20:27:11.631787,-306
2021-09-22 20:27:11.631793,-309
2021-09-22 20:27:11.631799,-306
2021-09-22 20:27:11.631804,-291
2021-09-22 20:27:11.631810,-274
2021-09-22 20:27:11.901743,-262
2021-09-22 20:27:11.901761,-243
2021-09-22 20:27:11.901767,-233
2021-09-22 20:27:11.901773,-228
2021-09-22 20:27:11.901779,-214
2021-09-22 20:27:11.901785,-199
2021-09-22 20:27:11.901791,-197
2021-09-22 20:27:11.901796,-187
2021-09-22 20:27:11.901802,-172
2021-09-22 20:27:11.901808,-172
2021-09-22 20:27:11.901813,-167
2021-09-22 20:27:11.901819,-155
2021-09-22 20:27:11.901825,-150
2021-09-22 20:27:11.901830,-148
2021-09-22 20:27:11.901836,-150
2021-09-22 20:27:11.901842,-150
2021-09-22 20:27:11.901848,-145
2021-09-22 20:27:11.901853,-138
2021-09-22 20:27:11.901859,-136
2021-09-22 20:27:11.901865,-131
2021-09-22 20:27:11.901871,-131
2021-09-22 20:27:11.901876,-136
2021-09-22 20:27:11.901882,-131
2021-09-22 20:27:11.901888,-121
2021-09-22 20:27:11.901893,-114
2021-09-22 20:27:11.901899,-109
2021-09-22 20:27:11.901905,-109
2021-09-22 20:27:11.901911,-107
2021-09-22 20:27:11.901917,-102
2021-09-22 20:27:11.901922,-99
2021-09-22 20:27:12.126664,-107
2021-09-22 20:27:12.126682,-114
2021-09-22 20:27:12.126689,-111
2021-09-22 20:27:12.126695,-104
2021-09-22 20:27:12.126701,-97
2021-09-22 20:27:12.126707,-92
2021-09-22 20:27:12.126713,-87
2021-09-22 20:27:12.126719,-87
2021-09-22 20:27:12.126725,-90
2021-09-22 20:27:12.126730,-90
2021-09-22 20:27:12.126736,-80
2021-09-22 20:27:12.126742,-72
2021-09-22 20:27:12.126748,-70
2021-09-22 20:27:12.126754,-68
2021-09-22 20:27:12.126759,-72
2021-09-22 20:27:12.126765,-68
2021-09-22 20:27:12.126771,-58
2021-09-22 20:27:12.126777,-55
2021-09-22 20:27:12.126782,-51
2021-09-22 20:27:12.126788,-31
2021-09-22 20:27:12.126794,-14
2021-09-22 20:27:12.126800,-12
2021-09-22 20:27:12.126806,-14
2021-09-22 20:27:12.126811,-9
2021-09-22 20:27:12.126817,-7
2021-09-22 20:27:12.126823,-19
2021-09-22 20:27:12.126829,-38
2021-09-22 20:27:12.126834,-48
2021-09-22 20:27:12.126840,-48
2021-09-22 20:27:12.126846,-38
2021-09-22 20:27:12.396665,-34
2021-09-22 20:27:12.396682,-38
2021-09-22 20:27:12.396689,-43
2021-09-22 20:27:12.396695,-41
2021-09-22 20:27:12.396701,-31
2021-09-22 20:27:12.396707,-7
2021-09-22 20:27:12.396713,58
2021-09-22 20:27:12.396719,182
2021-09-22 20:27:12.396725,399
2021-09-22 20:27:12.396731,562
2021-09-22 20:27:12.396736,357
2021-09-22 20:27:12.396742,-119
2021-09-22 20:27:12.396748,-547
2021-09-22 20:27:12.396754,-705
2021-09-22 20:27:12.396760,-411
2021-09-22 20:27:12.396766,-68
2021-09-22 20:27:12.396772,-34
2021-09-22 20:27:12.396778,2
2021-09-22 20:27:12.396784,116
2021-09-22 20:27:12.396789,114
2021-09-22 20:27:12.396795,94
2021-09-22 20:27:12.396801,133
2021-09-22 20:27:12.396807,153
2021-09-22 20:27:12.396813,148
2021-09-22 20:27:12.396818,158
2021-09-22 20:27:12.396824,165
2021-09-22 20:27:12.396830,167
2021-09-22 20:27:12.396836,180
2021-09-22 20:27:12.396841,197
2021-09-22 20:27:12.396847,211
2021-09-22 20:27:12.576612,226
2021-09-22 20:27:12.576628,243
2021-09-22 20:27:12.576635,265
2021-09-22 20:27:12.576641,289
2021-09-22 20:27:12.576647,321
2021-09-22 20:27:12.576653,357
2021-09-22 20:27:12.576659,389
2021-09-22 20:27:12.576665,416
2021-09-22 20:27:12.576671,452
2021-09-22 20:27:12.576676,484
2021-09-22 20:27:12.576682,501
2021-09-22 20:27:12.576688,506
2021-09-22 20:27:12.576694,496
2021-09-22 20:27:12.576700,462
2021-09-22 20:27:12.576705,399
2021-09-22 20:27:12.576711,309
2021-09-22 20:27:12.576717,192
2021-09-22 20:27:12.576723,70
2021-09-22 20:27:12.576729,-43
2021-09-22 20:27:12.576735,-136
2021-09-22 20:27:12.576741,-197
2021-09-22 20:27:12.576746,-238
2021-09-22 20:27:12.576752,-260
2021-09-22 20:27:12.576758,-270
2021-09-22 20:27:12.576764,-277
2021-09-22 20:27:12.576770,-279
2021-09-22 20:27:12.576775,-279
2021-09-22 20:27:12.576781,-277
2021-09-22 20:27:12.576787,-270
2021-09-22 20:27:12.576793,-255
2021-09-22 20:27:12.846594,-240
2021-09-22 20:27:12.846610,-226
2021-09-22 20:27:12.846617,-209
2021-09-22 20:27:12.846623,-197
2021-09-22 20:27:12.846629,-184
2021-09-22 20:27:12.846634,-172
2021-09-22 20:27:12.846640,-170
2021-09-22 20:27:12.846646,-160
2021-09-22 20:27:12.846652,-150
2021-09-22 20:27:12.846658,-145
2021-09-22 20:27:12.846664,-138
2021-09-22 20:27:12.846670,-136
2021-09-22 20:27:12.846675,-138
2021-09-22 20:27:12.846681,-136
2021-09-22 20:27:12.846687,-128
2021-09-22 20:27:12.846693,-131
2021-09-22 20:27:12.846698,-131
2021-09-22 20:27:12.846704,-131
2021-09-22 20:27:12.846709,-131
2021-09-22 20:27:12.846715,-126
2021-09-22 20:27:12.846721,-121
2021-09-22 20:27:12.846726,-119
2021-09-22 20:27:12.846732,-111
2021-09-22 20:27:12.846737,-107
2021-09-22 20:27:12.846743,-104
2021-09-22 20:27:12.846749,-97
2021-09-22 20:27:12.846754,-92
2021-09-22 20:27:12.846760,-90
2021-09-22 20:27:12.846766,-85
2021-09-22 20:27:12.846772,-82
2021-09-22 20:27:13.071734,-82
2021-09-22 20:27:13.071751,-77
2021-09-22 20:27:13.071762,-72
2021-09-22 20:27:13.071768,-70
2021-09-22 20:27:13.071774,-68
2021-09-22 20:27:13.071780,-63
2021-09-22 20:27:13.071786,-58
2021-09-22 20:27:13.071792,-53
2021-09-22 20:27:13.071798,-51
2021-09-22 20:27:13.071804,-48
2021-09-22 20:27:13.071809,-48
2021-09-22 20:27:13.071815,-48
2021-09-22 20:27:13.071821,-48
2021-09-22 20:27:13.071827,-41
2021-09-22 20:27:13.071833,-36
2021-09-22 20:27:13.071839,-36
2021-09-22 20:27:13.071845,-34
2021-09-22 20:27:13.071851,-34
2021-09-22 20:27:13.071856,-34
2021-09-22 20:27:13.071862,-29
2021-09-22 20:27:13.071868,-21
2021-09-22 20:27:13.071874,-12
2021-09-22 20:27:13.071880,7
2021-09-22 20:27:13.071886,17
2021-09-22 20:27:13.071892,12
2021-09-22 20:27:13.071898,14
2021-09-22 20:27:13.071904,24
2021-09-22 20:27:13.071910,14
2021-09-22 20:27:13.071916,-2
2021-09-22 20:27:13.071923,-14
2021-09-22 20:27:13.341672,-21
2021-09-22 20:27:13.341690,-24
2021-09-22 20:27:13.341697,-24
2021-09-22 20:27:13.341703,-26
2021-09-22 20:27:13.341709,-31
2021-09-22 20:27:13.341715,-29
2021-09-22 20:27:13.341720,-24
2021-09-22 20:27:13.341726,-9
2021-09-22 20:27:13.341732,31
2021-09-22 20:27:13.341738,124
2021-09-22 20:27:13.341744,301
2021-09-22 20:27:13.341749,540
2021-09-22 20:27:13.341755,545
2021-09-22 20:27:13.341761,160
2021-09-22 20:27:13.341767,-330
2021-09-22 20:27:13.341773,-659
2021-09-22 20:27:13.341778,-564
2021-09-22 20:27:13.341784,-160
2021-09-22 20:27:13.341790,12
2021-09-22 20:27:13.341796,0
2021-09-22 20:27:13.341801,94
2021-09-22 20:27:13.341807,153
2021-09-22 20:27:13.341813,119
2021-09-22 20:27:13.341819,126
2021-09-22 20:27:13.341824,153
2021-09-22 20:27:13.341830,158
2021-09-22 20:27:13.341836,165
2021-09-22 20:27:13.341841,177
2021-09-22 20:27:13.341847,184
2021-09-22 20:27:13.341853,197
2021-09-22 20:27:13.520298,211
2021-09-22 20:27:13.520316,223
2021-09-22 20:27:13.520323,236
2021-09-22 20:27:13.520329,248
2021-09-22 20:27:13.520335,267
2021-09-22 20:27:13.520341,299
2021-09-22 20:27:13.520346,330
2021-09-22 20:27:13.520352,357
2021-09-22 20:27:13.520358,389
2021-09-22 20:27:13.520364,423
2021-09-22 20:27:13.520370,455
2021-09-22 20:27:13.520375,489
2021-09-22 20:27:13.520381,515
2021-09-22 20:27:13.520387,528
2021-09-22 20:27:13.520393,528
2021-09-22 20:27:13.520398,506
2021-09-22 20:27:13.520404,455
2021-09-22 20:27:13.520411,379
2021-09-22 20:27:13.520416,277
2021-09-22 20:27:13.520422,158
2021-09-22 20:27:13.520428,38
2021-09-22 20:27:13.520433,-68
2021-09-22 20:27:13.520439,-153
2021-09-22 20:27:13.520445,-206
2021-09-22 20:27:13.520451,-238
2021-09-22 20:27:13.520457,-250
2021-09-22 20:27:13.520463,-255
2021-09-22 20:27:13.520468,-260
2021-09-22 20:27:13.520474,-255
2021-09-22 20:27:13.520480,-238
2021-09-22 20:27:13.746614,-223
2021-09-22 20:27:13.746630,-211
2021-09-22 20:27:13.746637,-199
2021-09-22 20:27:13.746643,-197
2021-09-22 20:27:13.746649,-189
2021-09-22 20:27:13.746654,-175
2021-09-22 20:27:13.746660,-165
2021-09-22 20:27:13.746666,-158
2021-09-22 20:27:13.746672,-150
2021-09-22 20:27:13.746678,-148
2021-09-22 20:27:13.746683,-141
2021-09-22 20:27:13.746689,-128
2021-09-22 20:27:13.746695,-121
2021-09-22 20:27:13.746701,-119
2021-09-22 20:27:13.746707,-119
2021-09-22 20:27:13.746713,-121
2021-09-22 20:27:13.746718,-119
2021-09-22 20:27:13.746727,-109
2021-09-22 20:27:13.746733,-107
2021-09-22 20:27:13.746739,-111
2021-09-22 20:27:13.746745,-111
2021-09-22 20:27:13.746750,-109
2021-09-22 20:27:13.746756,-104
2021-09-22 20:27:13.746762,-92
2021-09-22 20:27:13.746768,-85
2021-09-22 20:27:13.746773,-82
2021-09-22 20:27:13.746779,-82
2021-09-22 20:27:13.746785,-82
2021-09-22 20:27:13.746791,-85
2021-09-22 20:27:13.746796,-85
2021-09-22 20:27:13.971618,-80
2021-09-22 20:27:13.971634,-72
2021-09-22 20:27:13.971641,-72
2021-09-22 20:27:13.971647,-72
2021-09-22 20:27:13.971653,-63
2021-09-22 20:27:13.971659,-55
2021-09-22 20:27:13.971665,-53
2021-09-22 20:27:13.971672,-58
2021-09-22 20:27:13.971678,-70
2021-09-22 20:27:13.971684,-70
2021-09-22 20:27:13.971690,-53
2021-09-22 20:27:13.971696,-43
2021-09-22 20:27:13.971702,-43
2021-09-22 20:27:13.971707,-46
2021-09-22 20:27:13.971713,-48
2021-09-22 20:27:13.971719,-48
2021-09-22 20:27:13.971725,-41
2021-09-22 20:27:13.971731,-31
2021-09-22 20:27:13.971736,-29
2021-09-22 20:27:13.971742,-26
2021-09-22 20:27:13.971748,-19
2021-09-22 20:27:13.971754,-2
2021-09-22 20:27:13.971760,12
2021-09-22 20:27:13.971765,14
2021-09-22 20:27:13.971771,17
2021-09-22 20:27:13.971777,26
2021-09-22 20:27:13.971783,21
2021-09-22 20:27:13.971789,2
2021-09-22 20:27:13.971794,-4
2021-09-22 20:27:13.971800,-4
2021-09-22 20:27:14.196786,0
2021-09-22 20:27:14.196804,2
2021-09-22 20:27:14.196811,0
2021-09-22 20:27:14.196818,-2
2021-09-22 20:27:14.196824,-2
2021-09-22 20:27:14.196830,4
2021-09-22 20:27:14.196836,14
2021-09-22 20:27:14.196842,36
2021-09-22 20:27:14.196848,102
2021-09-22 20:27:14.196854,228
2021-09-22 20:27:14.196860,420
2021-09-22 20:27:14.196866,523
2021-09-22 20:27:14.196872,301
2021-09-22 20:27:14.196878,-148
2021-09-22 20:27:14.196883,-574
2021-09-22 20:27:14.196889,-659
2021-09-22 20:27:14.196895,-287
2021-09-22 20:27:14.196901,-2
2021-09-22 20:27:14.196906,-12
2021-09-22 20:27:14.196912,48
2021-09-22 20:27:14.196918,155
2021-09-22 20:27:14.196924,148
2021-09-22 20:27:14.196930,141
2021-09-22 20:27:14.196935,180
2021-09-22 20:27:14.196941,187
2021-09-22 20:27:14.196947,182
2021-09-22 20:27:14.196953,192
2021-09-22 20:27:14.196959,206
2021-09-22 20:27:14.196965,216
2021-09-22 20:27:14.196970,231
2021-09-22 20:27:14.421701,240
2021-09-22 20:27:14.421718,253
2021-09-22 20:27:14.421725,270
2021-09-22 20:27:14.421731,287
2021-09-22 20:27:14.421737,301
2021-09-22 20:27:14.421743,316
2021-09-22 20:27:14.421749,338
2021-09-22 20:27:14.421754,372
2021-09-22 20:27:14.421760,406
2021-09-22 20:27:14.421766,435
2021-09-22 20:27:14.421772,464
2021-09-22 20:27:14.421778,489
2021-09-22 20:27:14.421783,493
2021-09-22 20:27:14.421789,484
2021-09-22 20:27:14.421795,472
2021-09-22 20:27:14.421801,447
2021-09-22 20:27:14.421807,384
2021-09-22 20:27:14.421813,291
2021-09-22 20:27:14.421818,180
2021-09-22 20:27:14.421824,63
2021-09-22 20:27:14.421830,-41
2021-09-22 20:27:14.421836,-119
2021-09-22 20:27:14.421841,-172
2021-09-22 20:27:14.421847,-214
2021-09-22 20:27:14.421853,-248
2021-09-22 20:27:14.421859,-257
2021-09-22 20:27:14.421865,-250
2021-09-22 20:27:14.421870,-248
2021-09-22 20:27:14.421876,-236
2021-09-22 20:27:14.421882,-218
2021-09-22 20:27:14.646634,-206
2021-09-22 20:27:14.646650,-197
2021-09-22 20:27:14.646657,-177
2021-09-22 20:27:14.646663,-165
2021-09-22 20:27:14.646670,-160
2021-09-22 20:27:14.646676,-155
2021-09-22 20:27:14.646681,-153
2021-09-22 20:27:14.646687,-150
2021-09-22 20:27:14.646693,-145
2021-09-22 20:27:14.646699,-141
2021-09-22 20:27:14.646705,-133
2021-09-22 20:27:14.646711,-131
2021-09-22 20:27:14.646717,-136
2021-09-22 20:27:14.646722,-141
2021-09-22 20:27:14.646728,-143
2021-09-22 20:27:14.646734,-145
2021-09-22 20:27:14.646740,-141
2021-09-22 20:27:14.646746,-136
2021-09-22 20:27:14.646752,-133
2021-09-22 20:27:14.646758,-128
2021-09-22 20:27:14.646764,-126
2021-09-22 20:27:14.646769,-126
2021-09-22 20:27:14.646775,-119
2021-09-22 20:27:14.646781,-114
2021-09-22 20:27:14.646787,-109
2021-09-22 20:27:14.646793,-102
2021-09-22 20:27:14.646798,-94
2021-09-22 20:27:14.646804,-97
2021-09-22 20:27:14.646810,-94
2021-09-22 20:27:14.646816,-90
2021-09-22 20:27:14.916058,-85
2021-09-22 20:27:14.916074,-82
2021-09-22 20:27:14.916081,-77
2021-09-22 20:27:14.916087,-77
2021-09-22 20:27:14.916093,-75
2021-09-22 20:27:14.916099,-75
2021-09-22 20:27:14.916105,-75
2021-09-22 20:27:14.916111,-68
2021-09-22 20:27:14.916117,-65
2021-09-22 20:27:14.916123,-70
2021-09-22 20:27:14.916129,-77
2021-09-22 20:27:14.916134,-80
2021-09-22 20:27:14.916140,-75
2021-09-22 20:27:14.916146,-70
2021-09-22 20:27:14.916152,-70
2021-09-22 20:27:14.916158,-65
2021-09-22 20:27:14.916164,-55
2021-09-22 20:27:14.916170,-38
2021-09-22 20:27:14.916175,-31
2021-09-22 20:27:14.916181,-29
2021-09-22 20:27:14.916187,-19
2021-09-22 20:27:14.916193,-19
2021-09-22 20:27:14.916199,-38
2021-09-22 20:27:14.916204,-55
2021-09-22 20:27:14.916210,-55
2021-09-22 20:27:14.916216,-48
2021-09-22 20:27:14.916222,-46
2021-09-22 20:27:14.916228,-46
2021-09-22 20:27:14.916233,-46
2021-09-22 20:27:14.916239,-46
2021-09-22 20:27:15.096658,-43
2021-09-22 20:27:15.096674,-34
2021-09-22 20:27:15.096681,0
2021-09-22 20:27:15.096688,77
2021-09-22 20:27:15.096694,204
2021-09-22 20:27:15.096700,406
2021-09-22 20:27:15.096706,515
2021-09-22 20:27:15.096712,260
2021-09-22 20:27:15.096718,-221
2021-09-22 20:27:15.096724,-615
2021-09-22 20:27:15.096730,-666
2021-09-22 20:27:15.096735,-316
2021-09-22 20:27:15.096741,-41
2021-09-22 20:27:15.096747,-36
2021-09-22 20:27:15.096753,29
2021-09-22 20:27:15.096759,131
2021-09-22 20:27:15.096764,119
2021-09-22 20:27:15.096770,107
2021-09-22 20:27:15.096776,138
2021-09-22 20:27:15.096782,145
2021-09-22 20:27:15.096788,145
2021-09-22 20:27:15.096793,158
2021-09-22 20:27:15.096799,167
2021-09-22 20:27:15.096805,170
2021-09-22 20:27:15.096811,184
2021-09-22 20:27:15.096820,199
2021-09-22 20:27:15.096826,211
2021-09-22 20:27:15.096832,226
2021-09-22 20:27:15.096838,245
2021-09-22 20:27:15.096844,270
2021-09-22 20:27:15.321741,299
2021-09-22 20:27:15.321760,330
2021-09-22 20:27:15.321767,362
2021-09-22 20:27:15.321773,396
2021-09-22 20:27:15.321779,423
2021-09-22 20:27:15.321785,455
2021-09-22 20:27:15.321791,484
2021-09-22 20:27:15.321797,501
2021-09-22 20:27:15.321803,498
2021-09-22 20:27:15.321809,476
2021-09-22 20:27:15.321815,430
2021-09-22 20:27:15.321821,367
2021-09-22 20:27:15.321827,272
2021-09-22 20:27:15.321833,150
2021-09-22 20:27:15.321839,29
2021-09-22 20:27:15.321844,-75
2021-09-22 20:27:15.321850,-163
2021-09-22 20:27:15.321856,-221
2021-09-22 20:27:15.321862,-255
2021-09-22 20:27:15.321868,-277
2021-09-22 20:27:15.321874,-294
2021-09-22 20:27:15.321879,-301
2021-09-22 20:27:15.321885,-294
2021-09-22 20:27:15.321891,-284
2021-09-22 20:27:15.321897,-272
2021-09-22 20:27:15.321903,-257
2021-09-22 20:27:15.321908,-243
2021-09-22 20:27:15.321914,-228
2021-09-22 20:27:15.321920,-214
2021-09-22 20:27:15.321926,-201
2021-09-22 20:27:15.635376,-187
2021-09-22 20:27:15.635393,-175
2021-09-22 20:27:15.635400,-170
2021-09-22 20:27:15.635406,-170
2021-09-22 20:27:15.635412,-163
2021-09-22 20:27:15.635418,-153
2021-09-22 20:27:15.635424,-148
2021-09-22 20:27:15.635430,-143
2021-09-22 20:27:15.635436,-141
2021-09-22 20:27:15.635442,-148
2021-09-22 20:27:15.635447,-150
2021-09-22 20:27:15.635453,-143
2021-09-22 20:27:15.635459,-143
2021-09-22 20:27:15.635465,-141
2021-09-22 20:27:15.635471,-138
2021-09-22 20:27:15.635476,-138
2021-09-22 20:27:15.635482,-136
2021-09-22 20:27:15.635488,-128
2021-09-22 20:27:15.635494,-124
2021-09-22 20:27:15.635499,-119
2021-09-22 20:27:15.635505,-111
2021-09-22 20:27:15.635511,-109
2021-09-22 20:27:15.635517,-111
2021-09-22 20:27:15.635522,-104
2021-09-22 20:27:15.635528,-97
2021-09-22 20:27:15.635534,-92
2021-09-22 20:27:15.635540,-92
2021-09-22 20:27:15.635545,-92
2021-09-22 20:27:15.635551,-85
2021-09-22 20:27:15.635557,-77
2021-09-22 20:27:15.816688,-72
2021-09-22 20:27:15.816705,-70
2021-09-22 20:27:15.816712,-70
2021-09-22 20:27:15.816718,-70
2021-09-22 20:27:15.816724,-65
2021-09-22 20:27:15.816730,-60
2021-09-22 20:27:15.816736,-58
2021-09-22 20:27:15.816742,-53
2021-09-22 20:27:15.816748,-53
2021-09-22 20:27:15.816754,-58
2021-09-22 20:27:15.816760,-55
2021-09-22 20:27:15.816766,-48
2021-09-22 20:27:15.816772,-41
2021-09-22 20:27:15.816778,-38
2021-09-22 20:27:15.816784,-43
2021-09-22 20:27:15.816790,-48
2021-09-22 20:27:15.816795,-43
2021-09-22 20:27:15.816802,-38
2021-09-22 20:27:15.816807,-31
2021-09-22 20:27:15.816813,-17
2021-09-22 20:27:15.816819,-4
2021-09-22 20:27:15.816825,-12
2021-09-22 20:27:15.816831,-24
2021-09-22 20:27:15.816837,-17
2021-09-22 20:27:15.816843,-7
2021-09-22 20:27:15.816848,-17
2021-09-22 20:27:15.816854,-36
2021-09-22 20:27:15.816860,-46
2021-09-22 20:27:15.816866,-55
2021-09-22 20:27:15.816871,-46
2021-09-22 20:27:16.086682,-34
2021-09-22 20:27:16.086699,-34
2021-09-22 20:27:16.086706,-36
2021-09-22 20:27:16.086712,-34
2021-09-22 20:27:16.086719,-29
2021-09-22 20:27:16.086725,-9
2021-09-22 20:27:16.086731,46
2021-09-22 20:27:16.086736,150
2021-09-22 20:27:16.086742,340
2021-09-22 20:27:16.086748,554
2021-09-22 20:27:16.086754,467
2021-09-22 20:27:16.086760,38
2021-09-22 20:27:16.086766,-413
2021-09-22 20:27:16.086772,-664
2021-09-22 20:27:16.086780,-484
2021-09-22 20:27:16.086786,-109
2021-09-22 20:27:16.086792,-9
2021-09-22 20:27:16.086798,-7
2021-09-22 20:27:16.086804,99
2021-09-22 20:27:16.086810,133
2021-09-22 20:27:16.086816,109
2021-09-22 20:27:16.086822,136
2021-09-22 20:27:16.086827,163
2021-09-22 20:27:16.086833,160
2021-09-22 20:27:16.086839,167
2021-09-22 20:27:16.086845,182
2021-09-22 20:27:16.086851,182
2021-09-22 20:27:16.086857,184
2021-09-22 20:27:16.086862,204
2021-09-22 20:27:16.086868,223
2021-09-22 20:27:16.266755,236
2021-09-22 20:27:16.266772,255
2021-09-22 20:27:16.266780,272
2021-09-22 20:27:16.266786,289
2021-09-22 20:27:16.266792,326
2021-09-22 20:27:16.266798,367
2021-09-22 20:27:16.266804,399
2021-09-22 20:27:16.266810,420
2021-09-22 20:27:16.266816,450
2021-09-22 20:27:16.266822,481
2021-09-22 20:27:16.266828,501
2021-09-22 20:27:16.266833,510
2021-09-22 20:27:16.266839,506
2021-09-22 20:27:16.266845,479
2021-09-22 20:27:16.266851,428
2021-09-22 20:27:16.266857,355
2021-09-22 20:27:16.266862,257
2021-09-22 20:27:16.266868,133
2021-09-22 20:27:16.266874,4
2021-09-22 20:27:16.266879,-94
2021-09-22 20:27:16.266885,-160
2021-09-22 20:27:16.266891,-211
2021-09-22 20:27:16.266897,-245
2021-09-22 20:27:16.266902,-260
2021-09-22 20:27:16.266908,-265
2021-09-22 20:27:16.266914,-257
2021-09-22 20:27:16.266920,-248
2021-09-22 20:27:16.266925,-255
2021-09-22 20:27:16.266931,-260
2021-09-22 20:27:16.266937,-245
2021-09-22 20:27:16.536637,-228
2021-09-22 20:27:16.536654,-221
2021-09-22 20:27:16.536661,-206
2021-09-22 20:27:16.536667,-189
2021-09-22 20:27:16.536673,-180
2021-09-22 20:27:16.536679,-167
2021-09-22 20:27:16.536685,-160
2021-09-22 20:27:16.536691,-153
2021-09-22 20:27:16.536696,-145
2021-09-22 20:27:16.536702,-136
2021-09-22 20:27:16.536708,-128
2021-09-22 20:27:16.536714,-131
2021-09-22 20:27:16.536720,-133
2021-09-22 20:27:16.536725,-128
2021-09-22 20:27:16.536731,-124
2021-09-22 20:27:16.536737,-126
2021-09-22 20:27:16.536742,-121
2021-09-22 20:27:16.536748,-116
2021-09-22 20:27:16.536754,-114
2021-09-22 20:27:16.536760,-114
2021-09-22 20:27:16.536765,-111
2021-09-22 20:27:16.536771,-107
2021-09-22 20:27:16.536777,-99
2021-09-22 20:27:16.536782,-94
2021-09-22 20:27:16.536788,-92
2021-09-22 20:27:16.536793,-85
2021-09-22 20:27:16.536799,-77
2021-09-22 20:27:16.536805,-75
2021-09-22 20:27:16.536811,-70
2021-09-22 20:27:16.536817,-63
2021-09-22 20:27:16.761039,-65
2021-09-22 20:27:16.761056,-65
2021-09-22 20:27:16.761063,-58
2021-09-22 20:27:16.761069,-55
2021-09-22 20:27:16.761075,-48
2021-09-22 20:27:16.761081,-41
2021-09-22 20:27:16.761087,-43
2021-09-22 20:27:16.761093,-38
2021-09-22 20:27:16.761099,-29
2021-09-22 20:27:16.761105,-29
2021-09-22 20:27:16.761111,-36
2021-09-22 20:27:16.761117,-38
2021-09-22 20:27:16.761123,-38
2021-09-22 20:27:16.761129,-31
2021-09-22 20:27:16.761135,-26
2021-09-22 20:27:16.761140,-31
2021-09-22 20:27:16.761146,-31
2021-09-22 20:27:16.761152,-21
2021-09-22 20:27:16.761158,-4
2021-09-22 20:27:16.761164,12
2021-09-22 20:27:16.761170,9
2021-09-22 20:27:16.761176,7
2021-09-22 20:27:16.761181,19
2021-09-22 20:27:16.761187,17
2021-09-22 20:27:16.761193,2
2021-09-22 20:27:16.761199,-4
2021-09-22 20:27:16.761205,-12
2021-09-22 20:27:16.761211,-14
2021-09-22 20:27:16.761216,-12
2021-09-22 20:27:16.761222,-9
2021-09-22 20:27:16.986717,-9
2021-09-22 20:27:16.986734,-9
2021-09-22 20:27:16.986741,-19
2021-09-22 20:27:16.986747,-21
2021-09-22 20:27:16.986753,21
2021-09-22 20:27:16.986759,111
2021-09-22 20:27:16.986765,245
2021-09-22 20:27:16.986771,416
2021-09-22 20:27:16.986777,406
2021-09-22 20:27:16.986783,77
2021-09-22 20:27:16.986789,-352
2021-09-22 20:27:16.986795,-661
2021-09-22 20:27:16.986801,-571
2021-09-22 20:27:16.986807,-170
2021-09-22 20:27:16.986813,-4
2021-09-22 20:27:16.986819,-34
2021-09-22 20:27:16.986825,63
2021-09-22 20:27:16.986831,138
2021-09-22 20:27:16.986837,114
2021-09-22 20:27:16.986843,131
2021-09-22 20:27:16.986849,160
2021-09-22 20:27:16.986854,153
2021-09-22 20:27:16.986860,153
2021-09-22 20:27:16.986866,172
2021-09-22 20:27:16.986872,187
2021-09-22 20:27:16.986878,192
2021-09-22 20:27:16.986883,197
2021-09-22 20:27:16.986889,209
2021-09-22 20:27:16.986895,223
2021-09-22 20:27:16.986901,243
2021-09-22 20:27:17.211128,260
2021-09-22 20:27:17.211147,282
2021-09-22 20:27:17.211154,311
2021-09-22 20:27:17.211160,340
2021-09-22 20:27:17.211166,367
2021-09-22 20:27:17.211172,401
2021-09-22 20:27:17.211178,435
2021-09-22 20:27:17.211184,464
2021-09-22 20:27:17.211190,486
2021-09-22 20:27:17.211195,496
2021-09-22 20:27:17.211201,481
2021-09-22 20:27:17.211207,457
2021-09-22 20:27:17.211213,425
2021-09-22 20:27:17.211219,360
2021-09-22 20:27:17.211225,257
2021-09-22 20:27:17.211230,138
2021-09-22 20:27:17.211236,21
2021-09-22 20:27:17.211242,-72
2021-09-22 20:27:17.211248,-138
2021-09-22 20:27:17.211254,-187
2021-09-22 20:27:17.211259,-226
2021-09-22 20:27:17.211265,-248
2021-09-22 20:27:17.211271,-257
2021-09-22 20:27:17.211277,-255
2021-09-22 20:27:17.211283,-243
2021-09-22 20:27:17.211288,-233
2021-09-22 20:27:17.211294,-221
2021-09-22 20:27:17.211300,-206
2021-09-22 20:27:17.211306,-194
2021-09-22 20:27:17.211311,-180
2021-09-22 20:27:17.481808,-163
2021-09-22 20:27:17.481826,-155
2021-09-22 20:27:17.481833,-150
2021-09-22 20:27:17.481839,-148
2021-09-22 20:27:17.481845,-148
2021-09-22 20:27:17.481851,-141
2021-09-22 20:27:17.481857,-141
2021-09-22 20:27:17.481863,-150
2021-09-22 20:27:17.481869,-158
2021-09-22 20:27:17.481875,-165
2021-09-22 20:27:17.481881,-163
2021-09-22 20:27:17.481886,-150
2021-09-22 20:27:17.481892,-148
2021-09-22 20:27:17.481898,-153
2021-09-22 20:27:17.481904,-150
2021-09-22 20:27:17.481910,-148
2021-09-22 20:27:17.481916,-145
2021-09-22 20:27:17.481921,-138
2021-09-22 20:27:17.481927,-131
2021-09-22 20:27:17.481933,-128
2021-09-22 20:27:17.481939,-124
2021-09-22 20:27:17.481945,-119
2021-09-22 20:27:17.481950,-111
2021-09-22 20:27:17.481956,-107
2021-09-22 20:27:17.481962,-102
2021-09-22 20:27:17.481968,-102
2021-09-22 20:27:17.481974,-97
2021-09-22 20:27:17.481980,-90
2021-09-22 20:27:17.481985,-85
2021-09-22 20:27:17.481991,-82
2021-09-22 20:27:17.795443,-72
2021-09-22 20:27:17.795460,-68
2021-09-22 20:27:17.795467,-68
2021-09-22 20:27:17.795474,-68
2021-09-22 20:27:17.795480,-65
2021-09-22 20:27:17.795485,-60
2021-09-22 20:27:17.795491,-58
2021-09-22 20:27:17.795497,-53
2021-09-22 20:27:17.795503,-53
2021-09-22 20:27:17.795509,-55
2021-09-22 20:27:17.795515,-48
2021-09-22 20:27:17.795520,-46
2021-09-22 20:27:17.795526,-48
2021-09-22 20:27:17.795532,-41
2021-09-22 20:27:17.795538,-29
2021-09-22 20:27:17.795543,-24
2021-09-22 20:27:17.795549,-14
2021-09-22 20:27:17.795555,-12
2021-09-22 20:27:17.795561,-9
2021-09-22 20:27:17.795567,2
2021-09-22 20:27:17.795573,-9
2021-09-22 20:27:17.795578,-36
2021-09-22 20:27:17.795584,-43
2021-09-22 20:27:17.795590,-38
2021-09-22 20:27:17.795596,-38
2021-09-22 20:27:17.795601,-38
2021-09-22 20:27:17.795607,-36
2021-09-22 20:27:17.795613,-34
2021-09-22 20:27:17.795619,-29
2021-09-22 20:27:17.795625,-26
2021-09-22 20:27:17.886642,-4
2021-09-22 20:27:17.886659,55
2021-09-22 20:27:17.886666,167
2021-09-22 20:27:17.886672,352
2021-09-22 20:27:17.886678,508
2021-09-22 20:27:17.886684,343
2021-09-22 20:27:17.886690,-94
2021-09-22 20:27:17.886696,-501
2021-09-22 20:27:17.886702,-669
2021-09-22 20:27:17.886708,-413
2021-09-22 20:27:17.886714,-72
2021-09-22 20:27:17.886719,-29
2021-09-22 20:27:17.886725,-7
2021-09-22 20:27:17.886731,111
2021-09-22 20:27:17.886737,126
2021-09-22 20:27:17.886743,99
2021-09-22 20:27:17.886749,133
2021-09-22 20:27:17.886754,158
2021-09-22 20:27:17.886760,158
2021-09-22 20:27:17.886766,160
2021-09-22 20:27:17.886772,163
2021-09-22 20:27:17.886778,167
2021-09-22 20:27:17.886784,182
2021-09-22 20:27:17.886789,197
2021-09-22 20:27:17.886795,211
2021-09-22 20:27:17.886801,223
2021-09-22 20:27:17.886807,233
2021-09-22 20:27:17.886813,250
2021-09-22 20:27:17.886819,282
2021-09-22 20:27:17.886824,313
2021-09-22 20:27:18.111717,343
2021-09-22 20:27:18.111734,379
2021-09-22 20:27:18.111741,416
2021-09-22 20:27:18.111747,450
2021-09-22 20:27:18.111754,479
2021-09-22 20:27:18.111760,501
2021-09-22 20:27:18.111766,506
2021-09-22 20:27:18.111772,489
2021-09-22 20:27:18.111778,455
2021-09-22 20:27:18.111784,396
2021-09-22 20:27:18.111790,311
2021-09-22 20:27:18.111796,204
2021-09-22 20:27:18.111802,80
2021-09-22 20:27:18.111808,-38
2021-09-22 20:27:18.111814,-128
2021-09-22 20:27:18.111819,-187
2021-09-22 20:27:18.111825,-228
2021-09-22 20:27:18.111831,-248
2021-09-22 20:27:18.111837,-260
2021-09-22 20:27:18.111842,-267
2021-09-22 20:27:18.111848,-267
2021-09-22 20:27:18.111854,-260
2021-09-22 20:27:18.111860,-250
2021-09-22 20:27:18.111866,-240
2021-09-22 20:27:18.111871,-231
2021-09-22 20:27:18.111877,-214
2021-09-22 20:27:18.111883,-197
2021-09-22 20:27:18.111888,-182
2021-09-22 20:27:18.111894,-165
2021-09-22 20:27:18.111900,-150
2021-09-22 20:27:18.336791,-141
2021-09-22 20:27:18.336809,-133
2021-09-22 20:27:18.336816,-126
2021-09-22 20:27:18.336822,-121
2021-09-22 20:27:18.336828,-119
2021-09-22 20:27:18.336834,-119
2021-09-22 20:27:18.336840,-121
2021-09-22 20:27:18.336846,-124
2021-09-22 20:27:18.336852,-121
2021-09-22 20:27:18.336858,-119
2021-09-22 20:27:18.336863,-116
2021-09-22 20:27:18.336869,-116
2021-09-22 20:27:18.336875,-126
2021-09-22 20:27:18.336881,-128
2021-09-22 20:27:18.336887,-124
2021-09-22 20:27:18.336893,-126
2021-09-22 20:27:18.336898,-128
2021-09-22 20:27:18.336904,-119
2021-09-22 20:27:18.336910,-109
2021-09-22 20:27:18.336916,-111
2021-09-22 20:27:18.336921,-116
2021-09-22 20:27:18.336927,-111
2021-09-22 20:27:18.336933,-102
2021-09-22 20:27:18.336939,-99
2021-09-22 20:27:18.336945,-99
2021-09-22 20:27:18.336950,-92
2021-09-22 20:27:18.336956,-82
2021-09-22 20:27:18.336962,-82
2021-09-22 20:27:18.336967,-77
2021-09-22 20:27:18.336973,-72
2021-09-22 20:27:18.561709,-72
2021-09-22 20:27:18.561726,-72
2021-09-22 20:27:18.561733,-65
2021-09-22 20:27:18.561739,-60
2021-09-22 20:27:18.561745,-55
2021-09-22 20:27:18.561751,-55
2021-09-22 20:27:18.561757,-60
2021-09-22 20:27:18.561763,-51
2021-09-22 20:27:18.561769,-41
2021-09-22 20:27:18.561775,-41
2021-09-22 20:27:18.561781,-43
2021-09-22 20:27:18.561787,-41
2021-09-22 20:27:18.561792,-41
2021-09-22 20:27:18.561798,-38
2021-09-22 20:27:18.561804,-34
2021-09-22 20:27:18.561810,-26
2021-09-22 20:27:18.561816,-17
2021-09-22 20:27:18.561821,-4
2021-09-22 20:27:18.561827,-4
2021-09-22 20:27:18.561842,-2
2021-09-22 20:27:18.561848,7
2021-09-22 20:27:18.561854,9
2021-09-22 20:27:18.561860,-4
2021-09-22 20:27:18.561866,-19
2021-09-22 20:27:18.561872,-29
2021-09-22 20:27:18.561877,-29
2021-09-22 20:27:18.561883,-21
2021-09-22 20:27:18.561889,-21
2021-09-22 20:27:18.561895,-24
2021-09-22 20:27:18.561900,-24
2021-09-22 20:27:18.786795,-19
2021-09-22 20:27:18.786812,-12
2021-09-22 20:27:18.786820,17
2021-09-22 20:27:18.786826,92
2021-09-22 20:27:18.786832,226
2021-09-22 20:27:18.786838,425
2021-09-22 20:27:18.786844,515
2021-09-22 20:27:18.786850,245
2021-09-22 20:27:18.786856,-201
2021-09-22 20:27:18.786862,-549
2021-09-22 20:27:18.786868,-622
2021-09-22 20:27:18.786873,-309
2021-09-22 20:27:18.786879,-31
2021-09-22 20:27:18.786885,-26
2021-09-22 20:27:18.786891,26
2021-09-22 20:27:18.786897,128
2021-09-22 20:27:18.786903,121
2021-09-22 20:27:18.786908,109
2021-09-22 20:27:18.786914,141
2021-09-22 20:27:18.786920,143
2021-09-22 20:27:18.786926,141
2021-09-22 20:27:18.786932,158
2021-09-22 20:27:18.786938,167
2021-09-22 20:27:18.786943,167
2021-09-22 20:27:18.786949,175
2021-09-22 20:27:18.786955,180
2021-09-22 20:27:18.786960,189
2021-09-22 20:27:18.786966,209
2021-09-22 20:27:18.786972,226
2021-09-22 20:27:18.786978,248
2021-09-22 20:27:19.056778,279
2021-09-22 20:27:19.056796,311
2021-09-22 20:27:19.056803,343
2021-09-22 20:27:19.056809,377
2021-09-22 20:27:19.056815,411
2021-09-22 20:27:19.056821,440
2021-09-22 20:27:19.056827,469
2021-09-22 20:27:19.056833,493
2021-09-22 20:27:19.056839,491
2021-09-22 20:27:19.056845,472
2021-09-22 20:27:19.056851,430
2021-09-22 20:27:19.056857,364
2021-09-22 20:27:19.056863,272
2021-09-22 20:27:19.056868,153
2021-09-22 20:27:19.056874,29
2021-09-22 20:27:19.056880,-80
2021-09-22 20:27:19.056886,-158
2021-09-22 20:27:19.056892,-211
2021-09-22 20:27:19.056898,-248
2021-09-22 20:27:19.056903,-265
2021-09-22 20:27:19.056909,-274
2021-09-22 20:27:19.056915,-284
2021-09-22 20:27:19.056921,-284
2021-09-22 20:27:19.056927,-270
2021-09-22 20:27:19.056932,-262
2021-09-22 20:27:19.056938,-257
2021-09-22 20:27:19.056944,-248
2021-09-22 20:27:19.056950,-236
2021-09-22 20:27:19.056956,-228
2021-09-22 20:27:19.056962,-211
2021-09-22 20:27:19.326822,-194
2021-09-22 20:27:19.326840,-180
2021-09-22 20:27:19.326847,-170
2021-09-22 20:27:19.326853,-165
2021-09-22 20:27:19.326859,-160
2021-09-22 20:27:19.326865,-148
2021-09-22 20:27:19.326871,-136
2021-09-22 20:27:19.326877,-128
2021-09-22 20:27:19.326883,-128
2021-09-22 20:27:19.326889,-131
2021-09-22 20:27:19.326895,-128
2021-09-22 20:27:19.326901,-121
2021-09-22 20:27:19.326907,-116
2021-09-22 20:27:19.326913,-116
2021-09-22 20:27:19.326919,-119
2021-09-22 20:27:19.326925,-128
2021-09-22 20:27:19.326931,-131
2021-09-22 20:27:19.326936,-124
2021-09-22 20:27:19.326942,-116
2021-09-22 20:27:19.326948,-111
2021-09-22 20:27:19.326954,-107
2021-09-22 20:27:19.326960,-107
2021-09-22 20:27:19.326966,-109
2021-09-22 20:27:19.326972,-109
2021-09-22 20:27:19.326977,-102
2021-09-22 20:27:19.326983,-94
2021-09-22 20:27:19.326989,-94
2021-09-22 20:27:19.326995,-92
2021-09-22 20:27:19.327001,-85
2021-09-22 20:27:19.327007,-77
2021-09-22 20:27:19.551792,-80
2021-09-22 20:27:19.551809,-87
2021-09-22 20:27:19.551816,-85
2021-09-22 20:27:19.551823,-80
2021-09-22 20:27:19.551829,-77
2021-09-22 20:27:19.551835,-70
2021-09-22 20:27:19.551841,-65
2021-09-22 20:27:19.551846,-63
2021-09-22 20:27:19.551852,-68
2021-09-22 20:27:19.551858,-72
2021-09-22 20:27:19.551864,-68
2021-09-22 20:27:19.551870,-58
2021-09-22 20:27:19.551875,-53
2021-09-22 20:27:19.551881,-53
2021-09-22 20:27:19.551887,-55
2021-09-22 20:27:19.551893,-58
2021-09-22 20:27:19.551899,-51
2021-09-22 20:27:19.551904,-43
2021-09-22 20:27:19.551910,-41
2021-09-22 20:27:19.551916,-36
2021-09-22 20:27:19.551921,-38
2021-09-22 20:27:19.551927,-43
2021-09-22 20:27:19.551933,-36
2021-09-22 20:27:19.551939,-29
2021-09-22 20:27:19.551944,-29
2021-09-22 20:27:19.551950,-24
2021-09-22 20:27:19.551956,-7
2021-09-22 20:27:19.551961,4
2021-09-22 20:27:19.551967,2
2021-09-22 20:27:19.551973,9
2021-09-22 20:27:19.775387,21
2021-09-22 20:27:19.775405,17
2021-09-22 20:27:19.775412,2
2021-09-22 20:27:19.775418,-12
2021-09-22 20:27:19.775424,-17
2021-09-22 20:27:19.775430,-14
2021-09-22 20:27:19.775436,-9
2021-09-22 20:27:19.775442,-9
2021-09-22 20:27:19.775448,-14
2021-09-22 20:27:19.775454,-19
2021-09-22 20:27:19.775460,-14
2021-09-22 20:27:19.775466,-2
2021-09-22 20:27:19.775472,29
2021-09-22 20:27:19.775478,104
2021-09-22 20:27:19.775483,250
2021-09-22 20:27:19.775489,479
2021-09-22 20:27:19.775495,559
2021-09-22 20:27:19.775501,257
2021-09-22 20:27:19.775507,-182
2021-09-22 20:27:19.775513,-530
2021-09-22 20:27:19.775519,-605
2021-09-22 20:27:19.775524,-270
2021-09-22 20:27:19.775530,-2
2021-09-22 20:27:19.775536,-14
2021-09-22 20:27:19.775542,48
2021-09-22 20:27:19.775547,138
2021-09-22 20:27:19.775553,114
2021-09-22 20:27:19.775559,102
2021-09-22 20:27:19.775565,138
2021-09-22 20:27:19.775570,148
2021-09-22 20:27:19.956799,145
2021-09-22 20:27:19.956816,160
2021-09-22 20:27:19.956823,167
2021-09-22 20:27:19.956829,170
2021-09-22 20:27:19.956835,182
2021-09-22 20:27:19.956841,194
2021-09-22 20:27:19.956847,194
2021-09-22 20:27:19.956853,192
2021-09-22 20:27:19.956859,206
2021-09-22 20:27:19.956865,233
2021-09-22 20:27:19.956871,260
2021-09-22 20:27:19.956877,289
2021-09-22 20:27:19.956883,318
2021-09-22 20:27:19.956888,347
2021-09-22 20:27:19.956894,379
2021-09-22 20:27:19.956900,416
2021-09-22 20:27:19.956906,445
2021-09-22 20:27:19.956912,462
2021-09-22 20:27:19.956918,459
2021-09-22 20:27:19.956924,440
2021-09-22 20:27:19.956929,401
2021-09-22 20:27:19.956935,338
2021-09-22 20:27:19.956941,243
2021-09-22 20:27:19.956947,126
2021-09-22 20:27:19.956952,9
2021-09-22 20:27:19.956958,-94
2021-09-22 20:27:19.956964,-177
2021-09-22 20:27:19.956970,-236
2021-09-22 20:27:19.956976,-277
2021-09-22 20:27:19.956982,-304
2021-09-22 20:27:20.226852,-318
2021-09-22 20:27:20.226873,-318
2021-09-22 20:27:20.226881,-316
2021-09-22 20:27:20.226887,-309
2021-09-22 20:27:20.226893,-294
2021-09-22 20:27:20.226899,-282
2021-09-22 20:27:20.226905,-272
2021-09-22 20:27:20.226911,-262
2021-09-22 20:27:20.226917,-248
2021-09-22 20:27:20.226923,-231
2021-09-22 20:27:20.226929,-216
2021-09-22 20:27:20.226935,-201
2021-09-22 20:27:20.226941,-194
2021-09-22 20:27:20.226946,-187
2021-09-22 20:27:20.226952,-175
2021-09-22 20:27:20.226958,-163
2021-09-22 20:27:20.226964,-150
2021-09-22 20:27:20.226970,-143
2021-09-22 20:27:20.226976,-143
2021-09-22 20:27:20.226982,-141
2021-09-22 20:27:20.226988,-136
2021-09-22 20:27:20.226994,-133
2021-09-22 20:27:20.227000,-131
2021-09-22 20:27:20.227006,-126
2021-09-22 20:27:20.227011,-124
2021-09-22 20:27:20.227017,-124
2021-09-22 20:27:20.227023,-121
2021-09-22 20:27:20.227029,-116
2021-09-22 20:27:20.227035,-109
2021-09-22 20:27:20.227041,-102
2021-09-22 20:27:20.406760,-99
2021-09-22 20:27:20.406778,-104
2021-09-22 20:27:20.406785,-107
2021-09-22 20:27:20.406791,-102
2021-09-22 20:27:20.406797,-94
2021-09-22 20:27:20.406803,-92
2021-09-22 20:27:20.406809,-97
2021-09-22 20:27:20.406815,-92
2021-09-22 20:27:20.406821,-82
2021-09-22 20:27:20.406827,-80
2021-09-22 20:27:20.406833,-75
2021-09-22 20:27:20.406839,-68
2021-09-22 20:27:20.406845,-75
2021-09-22 20:27:20.406850,-77
2021-09-22 20:27:20.406856,-68
2021-09-22 20:27:20.406862,-63
2021-09-22 20:27:20.406868,-63
2021-09-22 20:27:20.406874,-60
2021-09-22 20:27:20.406879,-63
2021-09-22 20:27:20.406885,-60
2021-09-22 20:27:20.406891,-53
2021-09-22 20:27:20.406896,-53
2021-09-22 20:27:20.406902,-48
2021-09-22 20:27:20.406908,-41
2021-09-22 20:27:20.406913,-41
2021-09-22 20:27:20.406919,-38
2021-09-22 20:27:20.406925,-31
2021-09-22 20:27:20.406931,-29
2021-09-22 20:27:20.406937,-29
2021-09-22 20:27:20.406942,-26
2021-09-22 20:27:20.676743,-24
2021-09-22 20:27:20.676761,-19
2021-09-22 20:27:20.676768,-17
2021-09-22 20:27:20.676774,-21
2021-09-22 20:27:20.676780,-26
2021-09-22 20:27:20.676786,-26
2021-09-22 20:27:20.676791,-17
2021-09-22 20:27:20.676797,4
2021-09-22 20:27:20.676803,14
2021-09-22 20:27:20.676809,7
2021-09-22 20:27:20.676815,7
2021-09-22 20:27:20.676820,14
2021-09-22 20:27:20.676826,7
2021-09-22 20:27:20.676832,-7
2021-09-22 20:27:20.676838,-19
2021-09-22 20:27:20.676844,-26
2021-09-22 20:27:20.676849,-19
2021-09-22 20:27:20.676855,-14
2021-09-22 20:27:20.676861,-14
2021-09-22 20:27:20.676867,-14
2021-09-22 20:27:20.676872,-12
2021-09-22 20:27:20.676878,-7
2021-09-22 20:27:20.676883,-7
2021-09-22 20:27:20.676889,17
2021-09-22 20:27:20.676895,87
2021-09-22 20:27:20.676900,226
2021-09-22 20:27:20.676906,447
2021-09-22 20:27:20.676912,593
2021-09-22 20:27:20.676918,389
2021-09-22 20:27:20.676923,-38
2021-09-22 20:27:20.856856,-447
2021-09-22 20:27:20.856869,-610
2021-09-22 20:27:20.856873,-311
2021-09-22 20:27:20.856876,0
2021-09-22 20:27:20.856879,-2
2021-09-22 20:27:20.856882,34
2021-09-22 20:27:20.856885,145
2021-09-22 20:27:20.856889,141
2021-09-22 20:27:20.856892,124
2021-09-22 20:27:20.856895,158
2021-09-22 20:27:20.856898,167
2021-09-22 20:27:20.856901,160
2021-09-22 20:27:20.856904,175
2021-09-22 20:27:20.856908,192
2021-09-22 20:27:20.856911,194
2021-09-22 20:27:20.856914,201
2021-09-22 20:27:20.856917,206
2021-09-22 20:27:20.856920,204
2021-09-22 20:27:20.856923,214
2021-09-22 20:27:20.856926,238
2021-09-22 20:27:20.856929,262
2021-09-22 20:27:20.856932,279
2021-09-22 20:27:20.856935,304
2021-09-22 20:27:20.856938,340
2021-09-22 20:27:20.856941,382
2021-09-22 20:27:20.856947,418
2021-09-22 20:27:20.856950,450
2021-09-22 20:27:20.856953,472
2021-09-22 20:27:20.856956,481
2021-09-22 20:27:20.856959,484
2021-09-22 20:27:21.126759,476
2021-09-22 20:27:21.126776,445
2021-09-22 20:27:21.126783,382
2021-09-22 20:27:21.126790,284
2021-09-22 20:27:21.126796,170
2021-09-22 20:27:21.126802,55
2021-09-22 20:27:21.126808,-48
2021-09-22 20:27:21.126814,-143
2021-09-22 20:27:21.126820,-211
2021-09-22 20:27:21.126826,-257
2021-09-22 20:27:21.126832,-284
2021-09-22 20:27:21.126838,-294
2021-09-22 20:27:21.126844,-287
2021-09-22 20:27:21.126849,-277
2021-09-22 20:27:21.126855,-272
2021-09-22 20:27:21.126861,-270
2021-09-22 20:27:21.126867,-253
2021-09-22 20:27:21.126873,-231
2021-09-22 20:27:21.126879,-216
2021-09-22 20:27:21.126885,-201
2021-09-22 20:27:21.126890,-180
2021-09-22 20:27:21.126896,-167
2021-09-22 20:27:21.126902,-155
2021-09-22 20:27:21.126908,-141
2021-09-22 20:27:21.126914,-128
2021-09-22 20:27:21.126919,-116
2021-09-22 20:27:21.126925,-114
2021-09-22 20:27:21.126931,-114
2021-09-22 20:27:21.126937,-109
2021-09-22 20:27:21.126943,-104
2021-09-22 20:27:21.351860,-104
2021-09-22 20:27:21.351878,-97
2021-09-22 20:27:21.351885,-94
2021-09-22 20:27:21.351891,-102
2021-09-22 20:27:21.351897,-102
2021-09-22 20:27:21.351903,-99
2021-09-22 20:27:21.351909,-94
2021-09-22 20:27:21.351915,-92
2021-09-22 20:27:21.351921,-90
2021-09-22 20:27:21.351927,-92
2021-09-22 20:27:21.351933,-92
2021-09-22 20:27:21.351939,-82
2021-09-22 20:27:21.351944,-72
2021-09-22 20:27:21.351950,-68
2021-09-22 20:27:21.351956,-70
2021-09-22 20:27:21.351962,-72
2021-09-22 20:27:21.351968,-75
2021-09-22 20:27:21.351974,-65
2021-09-22 20:27:21.351979,-58
2021-09-22 20:27:21.351985,-55
2021-09-22 20:27:21.351991,-55
2021-09-22 20:27:21.351997,-51
2021-09-22 20:27:21.352002,-43
2021-09-22 20:27:21.352008,-48
2021-09-22 20:27:21.352014,-63
2021-09-22 20:27:21.352020,-58
2021-09-22 20:27:21.352025,-43
2021-09-22 20:27:21.352031,-43
2021-09-22 20:27:21.352037,-48
2021-09-22 20:27:21.352043,-43
2021-09-22 20:27:21.666767,-36
2021-09-22 20:27:21.666785,-34
2021-09-22 20:27:21.666792,-36
2021-09-22 20:27:21.666798,-31
2021-09-22 20:27:21.666805,-21
2021-09-22 20:27:21.666843,-14
2021-09-22 20:27:21.666850,-19
2021-09-22 20:27:21.666856,-29
2021-09-22 20:27:21.666862,-29
2021-09-22 20:27:21.666868,-14
2021-09-22 20:27:21.666874,2
2021-09-22 20:27:21.666880,7
2021-09-22 20:27:21.666886,-2
2021-09-22 20:27:21.666891,4
2021-09-22 20:27:21.666897,9
2021-09-22 20:27:21.666903,-7
2021-09-22 20:27:21.666909,-19
2021-09-22 20:27:21.666915,-26
2021-09-22 20:27:21.666921,-31
2021-09-22 20:27:21.666927,-31
2021-09-22 20:27:21.666933,-26
2021-09-22 20:27:21.666939,-24
2021-09-22 20:27:21.666944,-21
2021-09-22 20:27:21.666950,-17
2021-09-22 20:27:21.666956,-17
2021-09-22 20:27:21.666961,-14
2021-09-22 20:27:21.666967,21
2021-09-22 20:27:21.666973,107
2021-09-22 20:27:21.666979,248
2021-09-22 20:27:21.666985,450
2021-09-22 20:27:21.845361,515
2021-09-22 20:27:21.845377,226
2021-09-22 20:27:21.845384,-231
2021-09-22 20:27:21.845391,-591
2021-09-22 20:27:21.845397,-596
2021-09-22 20:27:21.845403,-223
2021-09-22 20:27:21.845409,-2
2021-09-22 20:27:21.845415,-26
2021-09-22 20:27:21.845420,48
2021-09-22 20:27:21.845426,143
2021-09-22 20:27:21.845432,126
2021-09-22 20:27:21.845438,128
2021-09-22 20:27:21.845444,163
2021-09-22 20:27:21.845450,155
2021-09-22 20:27:21.845456,138
2021-09-22 20:27:21.845461,160
2021-09-22 20:27:21.845467,180
2021-09-22 20:27:21.845473,180
2021-09-22 20:27:21.845479,187
2021-09-22 20:27:21.845484,199
2021-09-22 20:27:21.845490,209
2021-09-22 20:27:21.845496,221
2021-09-22 20:27:21.845502,240
2021-09-22 20:27:21.845508,262
2021-09-22 20:27:21.845513,282
2021-09-22 20:27:21.845519,301
2021-09-22 20:27:21.845525,330
2021-09-22 20:27:21.845530,367
2021-09-22 20:27:21.845536,399
2021-09-22 20:27:21.845542,428
2021-09-22 20:27:22.026792,447
2021-09-22 20:27:22.026809,459
2021-09-22 20:27:22.026816,457
2021-09-22 20:27:22.026822,435
2021-09-22 20:27:22.026828,401
2021-09-22 20:27:22.026834,338
2021-09-22 20:27:22.026840,236
2021-09-22 20:27:22.026846,111
2021-09-22 20:27:22.026852,-4
2021-09-22 20:27:22.026858,-102
2021-09-22 20:27:22.026864,-177
2021-09-22 20:27:22.026869,-231
2021-09-22 20:27:22.026875,-265
2021-09-22 20:27:22.026881,-287
2021-09-22 20:27:22.026887,-296
2021-09-22 20:27:22.026893,-304
2021-09-22 20:27:22.026899,-301
2021-09-22 20:27:22.026904,-287
2021-09-22 20:27:22.026910,-272
2021-09-22 20:27:22.026916,-265
2021-09-22 20:27:22.026922,-248
2021-09-22 20:27:22.026928,-226
2021-09-22 20:27:22.026934,-206
2021-09-22 20:27:22.026940,-194
2021-09-22 20:27:22.026945,-182
2021-09-22 20:27:22.026951,-163
2021-09-22 20:27:22.026957,-150
2021-09-22 20:27:22.026962,-148
2021-09-22 20:27:22.026968,-136
2021-09-22 20:27:22.026974,-124
2021-09-22 20:27:22.296789,-121
2021-09-22 20:27:22.296807,-121
2021-09-22 20:27:22.296814,-116
2021-09-22 20:27:22.296821,-114
2021-09-22 20:27:22.296827,-114
2021-09-22 20:27:22.296833,-116
2021-09-22 20:27:22.296839,-121
2021-09-22 20:27:22.296845,-119
2021-09-22 20:27:22.296851,-109
2021-09-22 20:27:22.296856,-109
2021-09-22 20:27:22.296862,-109
2021-09-22 20:27:22.296868,-107
2021-09-22 20:27:22.296874,-109
2021-09-22 20:27:22.296880,-104
2021-09-22 20:27:22.296886,-94
2021-09-22 20:27:22.296892,-90
2021-09-22 20:27:22.296898,-90
2021-09-22 20:27:22.296904,-90
2021-09-22 20:27:22.296910,-87
2021-09-22 20:27:22.296915,-82
2021-09-22 20:27:22.296921,-77
2021-09-22 20:27:22.296927,-70
2021-09-22 20:27:22.296933,-63
2021-09-22 20:27:22.296938,-63
2021-09-22 20:27:22.296944,-63
2021-09-22 20:27:22.296950,-58
2021-09-22 20:27:22.296956,-53
2021-09-22 20:27:22.296962,-55
2021-09-22 20:27:22.296968,-53
2021-09-22 20:27:22.296973,-46
2021-09-22 20:27:22.476728,-46
2021-09-22 20:27:22.476744,-41
2021-09-22 20:27:22.476751,-38
2021-09-22 20:27:22.476757,-38
2021-09-22 20:27:22.476763,-34
2021-09-22 20:27:22.476769,-31
2021-09-22 20:27:22.476775,-38
2021-09-22 20:27:22.476781,-38
2021-09-22 20:27:22.476787,-31
2021-09-22 20:27:22.476793,-34
2021-09-22 20:27:22.476799,-34
2021-09-22 20:27:22.476805,-34
2021-09-22 20:27:22.476810,-36
2021-09-22 20:27:22.476816,-29
2021-09-22 20:27:22.476822,-24
2021-09-22 20:27:22.476828,-26
2021-09-22 20:27:22.476834,-24
2021-09-22 20:27:22.476840,-26
2021-09-22 20:27:22.476845,-26
2021-09-22 20:27:22.476851,-17
2021-09-22 20:27:22.476857,-4
2021-09-22 20:27:22.476863,-2
2021-09-22 20:27:22.476868,-2
2021-09-22 20:27:22.476874,2
2021-09-22 20:27:22.476880,7
2021-09-22 20:27:22.476886,0
2021-09-22 20:27:22.476892,-17
2021-09-22 20:27:22.476897,-24
2021-09-22 20:27:22.476903,-26
2021-09-22 20:27:22.476909,-24
2021-09-22 20:27:22.701925,-21
2021-09-22 20:27:22.701945,-17
2021-09-22 20:27:22.701952,-14
2021-09-22 20:27:22.701958,-14
2021-09-22 20:27:22.701964,-19
2021-09-22 20:27:22.701970,-4
2021-09-22 20:27:22.701976,60
2021-09-22 20:27:22.701982,184
2021-09-22 20:27:22.701988,391
2021-09-22 20:27:22.701994,562
2021-09-22 20:27:22.701999,399
2021-09-22 20:27:22.702005,-38
2021-09-22 20:27:22.702011,-450
2021-09-22 20:27:22.702017,-637
2021-09-22 20:27:22.702023,-403
2021-09-22 20:27:22.702029,-72
2021-09-22 20:27:22.702035,-29
2021-09-22 20:27:22.702041,-4
2021-09-22 20:27:22.702047,114
2021-09-22 20:27:22.702053,126
2021-09-22 20:27:22.702058,99
2021-09-22 20:27:22.702064,124
2021-09-22 20:27:22.702070,136
2021-09-22 20:27:22.702076,133
2021-09-22 20:27:22.702082,145
2021-09-22 20:27:22.702088,153
2021-09-22 20:27:22.702093,155
2021-09-22 20:27:22.702099,158
2021-09-22 20:27:22.702105,165
2021-09-22 20:27:22.702111,180
2021-09-22 20:27:22.926751,201
2021-09-22 20:27:22.926768,218
2021-09-22 20:27:22.926775,233
2021-09-22 20:27:22.926781,253
2021-09-22 20:27:22.926787,277
2021-09-22 20:27:22.926793,309
2021-09-22 20:27:22.926799,345
2021-09-22 20:27:22.926805,382
2021-09-22 20:27:22.926811,413
2021-09-22 20:27:22.926817,440
2021-09-22 20:27:22.926823,452
2021-09-22 20:27:22.926828,450
2021-09-22 20:27:22.926834,435
2021-09-22 20:27:22.926840,413
2021-09-22 20:27:22.926846,364
2021-09-22 20:27:22.926852,282
2021-09-22 20:27:22.926858,180
2021-09-22 20:27:22.926864,65
2021-09-22 20:27:22.926870,-41
2021-09-22 20:27:22.926876,-126
2021-09-22 20:27:22.926881,-194
2021-09-22 20:27:22.926887,-248
2021-09-22 20:27:22.926893,-277
2021-09-22 20:27:22.926899,-287
2021-09-22 20:27:22.926904,-291
2021-09-22 20:27:22.926910,-291
2021-09-22 20:27:22.926916,-284
2021-09-22 20:27:22.926922,-277
2021-09-22 20:27:22.926927,-262
2021-09-22 20:27:22.926933,-238
2021-09-22 20:27:23.196882,-221
2021-09-22 20:27:23.196900,-209
2021-09-22 20:27:23.196907,-194
2021-09-22 20:27:23.196913,-189
2021-09-22 20:27:23.196920,-182
2021-09-22 20:27:23.196925,-160
2021-09-22 20:27:23.196931,-143
2021-09-22 20:27:23.196937,-133
2021-09-22 20:27:23.196943,-128
2021-09-22 20:27:23.196949,-128
2021-09-22 20:27:23.196955,-126
2021-09-22 20:27:23.196961,-121
2021-09-22 20:27:23.196967,-114
2021-09-22 20:27:23.196973,-109
2021-09-22 20:27:23.196978,-109
2021-09-22 20:27:23.196984,-114
2021-09-22 20:27:23.196990,-111
2021-09-22 20:27:23.196996,-104
2021-09-22 20:27:23.197002,-99
2021-09-22 20:27:23.197008,-97
2021-09-22 20:27:23.197014,-97
2021-09-22 20:27:23.197020,-99
2021-09-22 20:27:23.197026,-97
2021-09-22 20:27:23.197032,-87
2021-09-22 20:27:23.197037,-80
2021-09-22 20:27:23.197043,-82
2021-09-22 20:27:23.197049,-85
2021-09-22 20:27:23.197054,-87
2021-09-22 20:27:23.197060,-82
2021-09-22 20:27:23.197066,-72
2021-09-22 20:27:23.421806,-68
2021-09-22 20:27:23.421822,-63
2021-09-22 20:27:23.421829,-63
2021-09-22 20:27:23.421835,-63
2021-09-22 20:27:23.421841,-58
2021-09-22 20:27:23.421847,-51
2021-09-22 20:27:23.421853,-46
2021-09-22 20:27:23.421859,-41
2021-09-22 20:27:23.421865,-46
2021-09-22 20:27:23.421871,-53
2021-09-22 20:27:23.421877,-46
2021-09-22 20:27:23.421883,-36
2021-09-22 20:27:23.421889,-38
2021-09-22 20:27:23.421895,-41
2021-09-22 20:27:23.421901,-41
2021-09-22 20:27:23.421906,-43
2021-09-22 20:27:23.421912,-41
2021-09-22 20:27:23.421918,-46
2021-09-22 20:27:23.421924,-51
2021-09-22 20:27:23.421929,-46
2021-09-22 20:27:23.421935,-38
2021-09-22 20:27:23.421941,-38
2021-09-22 20:27:23.421947,-36
2021-09-22 20:27:23.421952,-29
2021-09-22 20:27:23.421958,-26
2021-09-22 20:27:23.421964,-26
2021-09-22 20:27:23.421970,-26
2021-09-22 20:27:23.421976,-26
2021-09-22 20:27:23.421981,-26
2021-09-22 20:27:23.421987,-26
2021-09-22 20:27:23.691753,-24
2021-09-22 20:27:23.691769,-21
2021-09-22 20:27:23.691776,-19
2021-09-22 20:27:23.691782,-14
2021-09-22 20:27:23.691788,-2
2021-09-22 20:27:23.691794,17
2021-09-22 20:27:23.691800,24
2021-09-22 20:27:23.691806,14
2021-09-22 20:27:23.691812,12
2021-09-22 20:27:23.691818,17
2021-09-22 20:27:23.691824,12
2021-09-22 20:27:23.691833,-2
2021-09-22 20:27:23.691839,-14
2021-09-22 20:27:23.691845,-24
2021-09-22 20:27:23.691851,-24
2021-09-22 20:27:23.691857,-21
2021-09-22 20:27:23.691863,-24
2021-09-22 20:27:23.691868,-21
2021-09-22 20:27:23.691874,-14
2021-09-22 20:27:23.691880,-12
2021-09-22 20:27:23.691886,-4
2021-09-22 20:27:23.691892,48
2021-09-22 20:27:23.691897,167
2021-09-22 20:27:23.691903,374
2021-09-22 20:27:23.691909,579
2021-09-22 20:27:23.691915,472
2021-09-22 20:27:23.691921,51
2021-09-22 20:27:23.691927,-379
2021-09-22 20:27:23.691933,-627
2021-09-22 20:27:23.691938,-452
2021-09-22 20:27:23.915453,-94
2021-09-22 20:27:23.915470,-19
2021-09-22 20:27:23.915477,-17
2021-09-22 20:27:23.915483,94
2021-09-22 20:27:23.915489,119
2021-09-22 20:27:23.915495,90
2021-09-22 20:27:23.915501,114
2021-09-22 20:27:23.915507,128
2021-09-22 20:27:23.915513,116
2021-09-22 20:27:23.915519,128
2021-09-22 20:27:23.915525,153
2021-09-22 20:27:23.915530,155
2021-09-22 20:27:23.915536,155
2021-09-22 20:27:23.915542,160
2021-09-22 20:27:23.915547,172
2021-09-22 20:27:23.915553,187
2021-09-22 20:27:23.915559,206
2021-09-22 20:27:23.915565,228
2021-09-22 20:27:23.915571,245
2021-09-22 20:27:23.915577,265
2021-09-22 20:27:23.915583,299
2021-09-22 20:27:23.915588,335
2021-09-22 20:27:23.915594,372
2021-09-22 20:27:23.915600,403
2021-09-22 20:27:23.915605,420
2021-09-22 20:27:23.915611,440
2021-09-22 20:27:23.915617,457
2021-09-22 20:27:23.915622,450
2021-09-22 20:27:23.915628,425
2021-09-22 20:27:23.915634,386
2021-09-22 20:27:24.096812,316
2021-09-22 20:27:24.096829,209
2021-09-22 20:27:24.096836,87
2021-09-22 20:27:24.096842,-26
2021-09-22 20:27:24.096848,-114
2021-09-22 20:27:24.096854,-180
2021-09-22 20:27:24.096860,-238
2021-09-22 20:27:24.096866,-277
2021-09-22 20:27:24.096871,-284
2021-09-22 20:27:24.096877,-287
2021-09-22 20:27:24.096883,-287
2021-09-22 20:27:24.096889,-282
2021-09-22 20:27:24.096895,-277
2021-09-22 20:27:24.096901,-267
2021-09-22 20:27:24.096907,-248
2021-09-22 20:27:24.096912,-231
2021-09-22 20:27:24.096918,-211
2021-09-22 20:27:24.096924,-197
2021-09-22 20:27:24.096930,-184
2021-09-22 20:27:24.096936,-165
2021-09-22 20:27:24.096941,-150
2021-09-22 20:27:24.096947,-143
2021-09-22 20:27:24.096953,-133
2021-09-22 20:27:24.096959,-124
2021-09-22 20:27:24.096965,-119
2021-09-22 20:27:24.096970,-114
2021-09-22 20:27:24.096976,-107
2021-09-22 20:27:24.096982,-99
2021-09-22 20:27:24.096988,-97
2021-09-22 20:27:24.096993,-99
2021-09-22 20:27:24.366799,-102
2021-09-22 20:27:24.366816,-97
2021-09-22 20:27:24.366823,-97
2021-09-22 20:27:24.366829,-99
2021-09-22 20:27:24.366835,-102
2021-09-22 20:27:24.366841,-107
2021-09-22 20:27:24.366847,-109
2021-09-22 20:27:24.366853,-99
2021-09-22 20:27:24.366859,-87
2021-09-22 20:27:24.366865,-90
2021-09-22 20:27:24.366871,-87
2021-09-22 20:27:24.366877,-85
2021-09-22 20:27:24.366883,-85
2021-09-22 20:27:24.366889,-80
2021-09-22 20:27:24.366895,-72
2021-09-22 20:27:24.366901,-70
2021-09-22 20:27:24.366907,-65
2021-09-22 20:27:24.366913,-63
2021-09-22 20:27:24.366919,-60
2021-09-22 20:27:24.366925,-55
2021-09-22 20:27:24.366931,-48
2021-09-22 20:27:24.366936,-43
2021-09-22 20:27:24.366942,-41
2021-09-22 20:27:24.366948,-41
2021-09-22 20:27:24.366954,-36
2021-09-22 20:27:24.366960,-31
2021-09-22 20:27:24.366965,-29
2021-09-22 20:27:24.366971,-29
2021-09-22 20:27:24.366977,-34
2021-09-22 20:27:24.366983,-41
2021-09-22 20:27:24.591151,-38
2021-09-22 20:27:24.591168,-31
2021-09-22 20:27:24.591175,-29
2021-09-22 20:27:24.591181,-31
2021-09-22 20:27:24.591187,-24
2021-09-22 20:27:24.591193,-21
2021-09-22 20:27:24.591199,-24
2021-09-22 20:27:24.591205,-19
2021-09-22 20:27:24.591211,-14
2021-09-22 20:27:24.591217,-17
2021-09-22 20:27:24.591223,-24
2021-09-22 20:27:24.591228,-26
2021-09-22 20:27:24.591234,-19
2021-09-22 20:27:24.591240,-14
2021-09-22 20:27:24.591246,-17
2021-09-22 20:27:24.591252,-14
2021-09-22 20:27:24.591258,-14
2021-09-22 20:27:24.591264,-17
2021-09-22 20:27:24.591270,-7
2021-09-22 20:27:24.591276,12
2021-09-22 20:27:24.591282,19
2021-09-22 20:27:24.591288,12
2021-09-22 20:27:24.591294,14
2021-09-22 20:27:24.591300,21
2021-09-22 20:27:24.591305,14
2021-09-22 20:27:24.591311,-4
2021-09-22 20:27:24.591317,-12
2021-09-22 20:27:24.591323,-17
2021-09-22 20:27:24.591329,-19
2021-09-22 20:27:24.591335,-19
2021-09-22 20:27:24.816813,-14
2021-09-22 20:27:24.816829,-14
2021-09-22 20:27:24.816836,-14
2021-09-22 20:27:24.816842,-14
2021-09-22 20:27:24.816848,-4
2021-09-22 20:27:24.816854,38
2021-09-22 20:27:24.816860,136
2021-09-22 20:27:24.816866,321
2021-09-22 20:27:24.816925,549
2021-09-22 20:27:24.816933,513
2021-09-22 20:27:24.816939,116
2021-09-22 20:27:24.816945,-352
2021-09-22 20:27:24.816951,-647
2021-09-22 20:27:24.816957,-513
2021-09-22 20:27:24.816962,-136
2021-09-22 20:27:24.816968,-26
2021-09-22 20:27:24.816974,-41
2021-09-22 20:27:24.816980,65
2021-09-22 20:27:24.816986,109
2021-09-22 20:27:24.816992,70
2021-09-22 20:27:24.816997,90
2021-09-22 20:27:24.817003,121
2021-09-22 20:27:24.817009,119
2021-09-22 20:27:24.817015,126
2021-09-22 20:27:24.817021,143
2021-09-22 20:27:24.817026,150
2021-09-22 20:27:24.817032,158
2021-09-22 20:27:24.817038,165
2021-09-22 20:27:24.817044,177
2021-09-22 20:27:24.817050,197
2021-09-22 20:27:25.041862,214
2021-09-22 20:27:25.041879,231
2021-09-22 20:27:25.041886,253
2021-09-22 20:27:25.041892,277
2021-09-22 20:27:25.041898,296
2021-09-22 20:27:25.041904,326
2021-09-22 20:27:25.041910,357
2021-09-22 20:27:25.041916,394
2021-09-22 20:27:25.041922,425
2021-09-22 20:27:25.041927,445
2021-09-22 20:27:25.041933,450
2021-09-22 20:27:25.041939,445
2021-09-22 20:27:25.041945,433
2021-09-22 20:27:25.041951,394
2021-09-22 20:27:25.041957,321
2021-09-22 20:27:25.041963,218
2021-09-22 20:27:25.041969,104
2021-09-22 20:27:25.041975,-2
2021-09-22 20:27:25.041981,-94
2021-09-22 20:27:25.041987,-167
2021-09-22 20:27:25.041992,-223
2021-09-22 20:27:25.041998,-262
2021-09-22 20:27:25.042004,-279
2021-09-22 20:27:25.042010,-279
2021-09-22 20:27:25.042016,-272
2021-09-22 20:27:25.042021,-267
2021-09-22 20:27:25.042027,-265
2021-09-22 20:27:25.042033,-253
2021-09-22 20:27:25.042039,-233
2021-09-22 20:27:25.042045,-216
2021-09-22 20:27:25.356888,-199
2021-09-22 20:27:25.356905,-184
2021-09-22 20:27:25.356913,-172
2021-09-22 20:27:25.356919,-163
2021-09-22 20:27:25.356925,-145
2021-09-22 20:27:25.356931,-128
2021-09-22 20:27:25.356938,-121
2021-09-22 20:27:25.356944,-114
2021-09-22 20:27:25.356950,-111
2021-09-22 20:27:25.356955,-116
2021-09-22 20:27:25.356961,-116
2021-09-22 20:27:25.356967,-111
2021-09-22 20:27:25.356973,-114
2021-09-22 20:27:25.356978,-119
2021-09-22 20:27:25.356984,-124
2021-09-22 20:27:25.356990,-126
2021-09-22 20:27:25.356996,-119
2021-09-22 20:27:25.357002,-111
2021-09-22 20:27:25.357008,-111
2021-09-22 20:27:25.357013,-109
2021-09-22 20:27:25.357019,-107
2021-09-22 20:27:25.357025,-102
2021-09-22 20:27:25.357031,-94
2021-09-22 20:27:25.357036,-90
2021-09-22 20:27:25.357042,-85
2021-09-22 20:27:25.357048,-80
2021-09-22 20:27:25.357054,-80
2021-09-22 20:27:25.357059,-77
2021-09-22 20:27:25.357065,-70
2021-09-22 20:27:25.357071,-65
2021-09-22 20:27:25.491763,-63
2021-09-22 20:27:25.491780,-60
2021-09-22 20:27:25.491787,-60
2021-09-22 20:27:25.491793,-60
2021-09-22 20:27:25.491798,-51
2021-09-22 20:27:25.491804,-43
2021-09-22 20:27:25.491810,-41
2021-09-22 20:27:25.491816,-46
