Time,ECG
2021-09-22 19:46:43.327132,192
2021-09-22 19:46:43.327150,211
2021-09-22 19:46:43.327157,233
2021-09-22 19:46:43.327163,253
2021-09-22 19:46:43.327169,282
2021-09-22 19:46:43.327176,318
2021-09-22 19:46:43.327182,350
2021-09-22 19:46:43.327188,374
2021-09-22 19:46:43.327194,379
2021-09-22 19:46:43.327200,374
2021-09-22 19:46:43.327206,369
2021-09-22 19:46:43.327212,352
2021-09-22 19:46:43.327218,306
2021-09-22 19:46:43.327223,226
2021-09-22 19:46:43.327229,121
2021-09-22 19:46:43.327235,12
2021-09-22 19:46:43.327240,-70
2021-09-22 19:46:43.327246,-138
2021-09-22 19:46:43.327252,-192
2021-09-22 19:46:43.327257,-231
2021-09-22 19:46:43.327263,-257
2021-09-22 19:46:43.327269,-265
2021-09-22 19:46:43.327275,-260
2021-09-22 19:46:43.327280,-255
2021-09-22 19:46:43.327286,-255
2021-09-22 19:46:43.327292,-248
2021-09-22 19:46:43.327298,-233
2021-09-22 19:46:43.327304,-221
2021-09-22 19:46:43.327309,-204
2021-09-22 19:46:43.327315,-189
2021-09-22 19:46:43.355358,-177
2021-09-22 19:46:43.355372,-165
2021-09-22 19:46:43.355379,-155
2021-09-22 19:46:43.355385,-150
2021-09-22 19:46:43.355391,-141
2021-09-22 19:46:43.355397,-128
2021-09-22 19:46:43.355403,-121
2021-09-22 19:46:43.355409,-124
2021-09-22 19:46:43.355415,-126
2021-09-22 19:46:43.355420,-121
2021-09-22 19:46:43.355426,-116
2021-09-22 19:46:43.355432,-114
2021-09-22 19:46:43.355437,-114
2021-09-22 19:46:43.355443,-116
2021-09-22 19:46:43.355449,-121
2021-09-22 19:46:43.355455,-119
2021-09-22 19:46:43.355460,-111
2021-09-22 19:46:43.355467,-107
2021-09-22 19:46:43.355472,-102
2021-09-22 19:46:43.355478,-104
2021-09-22 19:46:43.355484,-102
2021-09-22 19:46:43.355489,-99
2021-09-22 19:46:43.355495,-92
2021-09-22 19:46:43.355501,-85
2021-09-22 19:46:43.355506,-82
2021-09-22 19:46:43.355512,-80
2021-09-22 19:46:43.355518,-82
2021-09-22 19:46:43.355524,-85
2021-09-22 19:46:43.355529,-77
2021-09-22 19:46:43.355537,-75
2021-09-22 19:46:43.580503,-80
2021-09-22 19:46:43.580524,-70
2021-09-22 19:46:43.580532,-51
2021-09-22 19:46:43.580538,-31
2021-09-22 19:46:43.580544,-29
2021-09-22 19:46:43.580550,-31
2021-09-22 19:46:43.580556,-24
2021-09-22 19:46:43.580562,-26
2021-09-22 19:46:43.580568,-46
2021-09-22 19:46:43.580574,-60
2021-09-22 19:46:43.580580,-65
2021-09-22 19:46:43.580585,-65
2021-09-22 19:46:43.580591,-68
2021-09-22 19:46:43.580601,-77
2021-09-22 19:46:43.580607,-85
2021-09-22 19:46:43.580613,-85
2021-09-22 19:46:43.580619,-80
2021-09-22 19:46:43.580625,-68
2021-09-22 19:46:43.580631,-24
2021-09-22 19:46:43.580636,77
2021-09-22 19:46:43.580642,279
2021-09-22 19:46:43.580647,501
2021-09-22 19:46:43.580653,416
2021-09-22 19:46:43.580659,-46
2021-09-22 19:46:43.580665,-545
2021-09-22 19:46:43.580671,-761
2021-09-22 19:46:43.580676,-510
2021-09-22 19:46:43.580682,-143
2021-09-22 19:46:43.580688,-75
2021-09-22 19:46:43.580696,-53
2021-09-22 19:46:43.805498,53
2021-09-22 19:46:43.805518,68
2021-09-22 19:46:43.805525,48
2021-09-22 19:46:43.805531,77
2021-09-22 19:46:43.805537,97
2021-09-22 19:46:43.805543,94
2021-09-22 19:46:43.805550,99
2021-09-22 19:46:43.805555,116
2021-09-22 19:46:43.805561,128
2021-09-22 19:46:43.805567,141
2021-09-22 19:46:43.805573,155
2021-09-22 19:46:43.805579,172
2021-09-22 19:46:43.805585,182
2021-09-22 19:46:43.805591,204
2021-09-22 19:46:43.805597,236
2021-09-22 19:46:43.805603,265
2021-09-22 19:46:43.805609,294
2021-09-22 19:46:43.805619,328
2021-09-22 19:46:43.805625,355
2021-09-22 19:46:43.805631,379
2021-09-22 19:46:43.805636,391
2021-09-22 19:46:43.805642,389
2021-09-22 19:46:43.805648,377
2021-09-22 19:46:43.805653,345
2021-09-22 19:46:43.805659,284
2021-09-22 19:46:43.805665,197
2021-09-22 19:46:43.805670,90
2021-09-22 19:46:43.805676,-14
2021-09-22 19:46:43.805682,-97
2021-09-22 19:46:43.805688,-160
2021-09-22 19:46:44.030447,-214
2021-09-22 19:46:44.030468,-243
2021-09-22 19:46:44.030476,-253
2021-09-22 19:46:44.030482,-257
2021-09-22 19:46:44.030489,-257
2021-09-22 19:46:44.030495,-257
2021-09-22 19:46:44.030502,-250
2021-09-22 19:46:44.030514,-233
2021-09-22 19:46:44.030520,-216
2021-09-22 19:46:44.030527,-206
2021-09-22 19:46:44.030533,-194
2021-09-22 19:46:44.030539,-184
2021-09-22 19:46:44.030546,-175
2021-09-22 19:46:44.030552,-160
2021-09-22 19:46:44.030558,-148
2021-09-22 19:46:44.030564,-141
2021-09-22 19:46:44.030570,-131
2021-09-22 19:46:44.030576,-124
2021-09-22 19:46:44.030582,-119
2021-09-22 19:46:44.030588,-116
2021-09-22 19:46:44.030595,-124
2021-09-22 19:46:44.030601,-124
2021-09-22 19:46:44.030607,-119
2021-09-22 19:46:44.030613,-119
2021-09-22 19:46:44.030620,-116
2021-09-22 19:46:44.030626,-109
2021-09-22 19:46:44.030632,-107
2021-09-22 19:46:44.030638,-109
2021-09-22 19:46:44.030644,-104
2021-09-22 19:46:44.030651,-99
2021-09-22 19:46:44.300498,-97
2021-09-22 19:46:44.300519,-94
2021-09-22 19:46:44.300526,-97
2021-09-22 19:46:44.300532,-102
2021-09-22 19:46:44.300538,-102
2021-09-22 19:46:44.300543,-102
2021-09-22 19:46:44.300549,-97
2021-09-22 19:46:44.300555,-90
2021-09-22 19:46:44.300561,-85
2021-09-22 19:46:44.300567,-85
2021-09-22 19:46:44.300573,-85
2021-09-22 19:46:44.300578,-85
2021-09-22 19:46:44.300584,-82
2021-09-22 19:46:44.300590,-82
2021-09-22 19:46:44.300596,-82
2021-09-22 19:46:44.300602,-72
2021-09-22 19:46:44.300608,-55
2021-09-22 19:46:44.300613,-36
2021-09-22 19:46:44.300620,-29
2021-09-22 19:46:44.300625,-26
2021-09-22 19:46:44.300631,-14
2021-09-22 19:46:44.300637,-24
2021-09-22 19:46:44.300643,-48
2021-09-22 19:46:44.300648,-55
2021-09-22 19:46:44.300658,-51
2021-09-22 19:46:44.300664,-48
2021-09-22 19:46:44.300670,-48
2021-09-22 19:46:44.300676,-48
2021-09-22 19:46:44.300682,-48
2021-09-22 19:46:44.300687,-43
2021-09-22 19:46:44.525419,-38
2021-09-22 19:46:44.525441,-21
2021-09-22 19:46:44.525448,21
2021-09-22 19:46:44.525454,119
2021-09-22 19:46:44.525460,318
2021-09-22 19:46:44.525466,535
2021-09-22 19:46:44.525471,435
2021-09-22 19:46:44.525477,-31
2021-09-22 19:46:44.525483,-535
2021-09-22 19:46:44.525489,-739
2021-09-22 19:46:44.525495,-455
2021-09-22 19:46:44.525500,-94
2021-09-22 19:46:44.525506,-41
2021-09-22 19:46:44.525512,-2
2021-09-22 19:46:44.525518,99
2021-09-22 19:46:44.525524,92
2021-09-22 19:46:44.525529,65
2021-09-22 19:46:44.525535,99
2021-09-22 19:46:44.525541,116
2021-09-22 19:46:44.525546,109
2021-09-22 19:46:44.525552,121
2021-09-22 19:46:44.525558,136
2021-09-22 19:46:44.525566,141
2021-09-22 19:46:44.525571,155
2021-09-22 19:46:44.525577,175
2021-09-22 19:46:44.525583,184
2021-09-22 19:46:44.525589,192
2021-09-22 19:46:44.525595,204
2021-09-22 19:46:44.525600,233
2021-09-22 19:46:44.525606,265
2021-09-22 19:46:44.839141,294
2021-09-22 19:46:44.839161,328
2021-09-22 19:46:44.839168,357
2021-09-22 19:46:44.839174,367
2021-09-22 19:46:44.839180,369
2021-09-22 19:46:44.839186,374
2021-09-22 19:46:44.839192,360
2021-09-22 19:46:44.839198,318
2021-09-22 19:46:44.839203,257
2021-09-22 19:46:44.839209,175
2021-09-22 19:46:44.839215,68
2021-09-22 19:46:44.839221,-29
2021-09-22 19:46:44.839227,-107
2021-09-22 19:46:44.839233,-170
2021-09-22 19:46:44.839239,-218
2021-09-22 19:46:44.839245,-255
2021-09-22 19:46:44.839250,-267
2021-09-22 19:46:44.839256,-262
2021-09-22 19:46:44.839262,-257
2021-09-22 19:46:44.839268,-248
2021-09-22 19:46:44.839273,-238
2021-09-22 19:46:44.839279,-228
2021-09-22 19:46:44.839285,-214
2021-09-22 19:46:44.839290,-194
2021-09-22 19:46:44.839301,-182
2021-09-22 19:46:44.839307,-165
2021-09-22 19:46:44.839313,-155
2021-09-22 19:46:44.839319,-148
2021-09-22 19:46:44.839325,-136
2021-09-22 19:46:44.839330,-124
2021-09-22 19:46:44.975489,-116
2021-09-22 19:46:44.975509,-109
2021-09-22 19:46:44.975517,-107
2021-09-22 19:46:44.975523,-107
2021-09-22 19:46:44.975529,-102
2021-09-22 19:46:44.975535,-94
2021-09-22 19:46:44.975541,-92
2021-09-22 19:46:44.975547,-92
2021-09-22 19:46:44.975553,-94
2021-09-22 19:46:44.975559,-102
2021-09-22 19:46:44.975564,-99
2021-09-22 19:46:44.975570,-92
2021-09-22 19:46:44.975576,-87
2021-09-22 19:46:44.975582,-90
2021-09-22 19:46:44.975588,-94
2021-09-22 19:46:44.975593,-99
2021-09-22 19:46:44.975599,-92
2021-09-22 19:46:44.975605,-82
2021-09-22 19:46:44.975611,-80
2021-09-22 19:46:44.975616,-77
2021-09-22 19:46:44.975622,-82
2021-09-22 19:46:44.975628,-85
2021-09-22 19:46:44.975633,-77
2021-09-22 19:46:44.975639,-70
2021-09-22 19:46:44.975645,-68
2021-09-22 19:46:44.975651,-68
2021-09-22 19:46:44.975657,-72
2021-09-22 19:46:44.975662,-75
2021-09-22 19:46:44.975668,-58
2021-09-22 19:46:44.975674,-34
2021-09-22 19:46:45.245427,-17
2021-09-22 19:46:45.245448,-19
2021-09-22 19:46:45.245455,-29
2021-09-22 19:46:45.245461,-26
2021-09-22 19:46:45.245467,-34
2021-09-22 19:46:45.245473,-48
2021-09-22 19:46:45.245478,-55
2021-09-22 19:46:45.245484,-55
2021-09-22 19:46:45.245490,-63
2021-09-22 19:46:45.245496,-63
2021-09-22 19:46:45.245501,-60
2021-09-22 19:46:45.245507,-60
2021-09-22 19:46:45.245513,-60
2021-09-22 19:46:45.245519,-60
2021-09-22 19:46:45.245525,-46
2021-09-22 19:46:45.245530,12
2021-09-22 19:46:45.245536,145
2021-09-22 19:46:45.245542,384
2021-09-22 19:46:45.245548,562
2021-09-22 19:46:45.245553,350
2021-09-22 19:46:45.245559,-187
2021-09-22 19:46:45.245565,-644
2021-09-22 19:46:45.245570,-688
2021-09-22 19:46:45.245576,-318
2021-09-22 19:46:45.245582,-55
2021-09-22 19:46:45.245588,-43
2021-09-22 19:46:45.245594,26
2021-09-22 19:46:45.245599,109
2021-09-22 19:46:45.245605,94
2021-09-22 19:46:45.245611,99
2021-09-22 19:46:45.470423,136
2021-09-22 19:46:45.470442,133
2021-09-22 19:46:45.470450,128
2021-09-22 19:46:45.470456,145
2021-09-22 19:46:45.470462,155
2021-09-22 19:46:45.470469,163
2021-09-22 19:46:45.470475,175
2021-09-22 19:46:45.470481,184
2021-09-22 19:46:45.470488,197
2021-09-22 19:46:45.470494,221
2021-09-22 19:46:45.470512,248
2021-09-22 19:46:45.470519,272
2021-09-22 19:46:45.470525,296
2021-09-22 19:46:45.470531,323
2021-09-22 19:46:45.470537,357
2021-09-22 19:46:45.470544,384
2021-09-22 19:46:45.470550,399
2021-09-22 19:46:45.470556,406
2021-09-22 19:46:45.470562,399
2021-09-22 19:46:45.470568,367
2021-09-22 19:46:45.470574,326
2021-09-22 19:46:45.470580,262
2021-09-22 19:46:45.470586,172
2021-09-22 19:46:45.470592,70
2021-09-22 19:46:45.470598,-24
2021-09-22 19:46:45.470604,-107
2021-09-22 19:46:45.470611,-167
2021-09-22 19:46:45.470617,-206
2021-09-22 19:46:45.470623,-223
2021-09-22 19:46:45.470629,-228
2021-09-22 19:46:45.650495,-231
2021-09-22 19:46:45.650516,-223
2021-09-22 19:46:45.650523,-211
2021-09-22 19:46:45.650529,-201
2021-09-22 19:46:45.650535,-187
2021-09-22 19:46:45.650541,-172
2021-09-22 19:46:45.650547,-163
2021-09-22 19:46:45.650553,-155
2021-09-22 19:46:45.650559,-148
2021-09-22 19:46:45.650565,-133
2021-09-22 19:46:45.650570,-119
2021-09-22 19:46:45.650576,-116
2021-09-22 19:46:45.650582,-119
2021-09-22 19:46:45.650588,-114
2021-09-22 19:46:45.650594,-109
2021-09-22 19:46:45.650600,-109
2021-09-22 19:46:45.650606,-104
2021-09-22 19:46:45.650611,-97
2021-09-22 19:46:45.650617,-102
2021-09-22 19:46:45.650623,-107
2021-09-22 19:46:45.650629,-104
2021-09-22 19:46:45.650635,-102
2021-09-22 19:46:45.650641,-97
2021-09-22 19:46:45.650646,-90
2021-09-22 19:46:45.650652,-87
2021-09-22 19:46:45.650662,-85
2021-09-22 19:46:45.650668,-82
2021-09-22 19:46:45.650674,-75
2021-09-22 19:46:45.650680,-68
2021-09-22 19:46:45.650685,-68
2021-09-22 19:46:45.875468,-65
2021-09-22 19:46:45.875489,-55
2021-09-22 19:46:45.875496,-58
2021-09-22 19:46:45.875502,-55
2021-09-22 19:46:45.875508,-51
2021-09-22 19:46:45.875514,-51
2021-09-22 19:46:45.875520,-58
2021-09-22 19:46:45.875526,-51
2021-09-22 19:46:45.875532,-31
2021-09-22 19:46:45.875537,-14
2021-09-22 19:46:45.875543,-4
2021-09-22 19:46:45.875549,-9
2021-09-22 19:46:45.875555,-9
2021-09-22 19:46:45.875561,0
2021-09-22 19:46:45.875566,-12
2021-09-22 19:46:45.875572,-34
2021-09-22 19:46:45.875578,-43
2021-09-22 19:46:45.875584,-46
2021-09-22 19:46:45.875590,-43
2021-09-22 19:46:45.875595,-38
2021-09-22 19:46:45.875601,-31
2021-09-22 19:46:45.875607,-29
2021-09-22 19:46:45.875613,-34
2021-09-22 19:46:45.875618,-34
2021-09-22 19:46:45.875624,-4
2021-09-22 19:46:45.875630,63
2021-09-22 19:46:45.875635,182
2021-09-22 19:46:45.875641,394
2021-09-22 19:46:45.875647,547
2021-09-22 19:46:45.875653,323
2021-09-22 19:46:46.100381,-206
2021-09-22 19:46:46.100400,-642
2021-09-22 19:46:46.100408,-644
2021-09-22 19:46:46.100414,-277
2021-09-22 19:46:46.100420,-48
2021-09-22 19:46:46.100426,-43
2021-09-22 19:46:46.100432,43
2021-09-22 19:46:46.100438,138
2021-09-22 19:46:46.100444,124
2021-09-22 19:46:46.100449,121
2021-09-22 19:46:46.100455,153
2021-09-22 19:46:46.100461,153
2021-09-22 19:46:46.100467,141
2021-09-22 19:46:46.100473,148
2021-09-22 19:46:46.100479,155
2021-09-22 19:46:46.100484,165
2021-09-22 19:46:46.100494,175
2021-09-22 19:46:46.100500,189
2021-09-22 19:46:46.100506,209
2021-09-22 19:46:46.100512,223
2021-09-22 19:46:46.100518,240
2021-09-22 19:46:46.100524,270
2021-09-22 19:46:46.100530,304
2021-09-22 19:46:46.100535,333
2021-09-22 19:46:46.100541,364
2021-09-22 19:46:46.100547,391
2021-09-22 19:46:46.100552,408
2021-09-22 19:46:46.100558,408
2021-09-22 19:46:46.100564,394
2021-09-22 19:46:46.100570,369
2021-09-22 19:46:46.325526,326
2021-09-22 19:46:46.325547,257
2021-09-22 19:46:46.325554,160
2021-09-22 19:46:46.325561,51
2021-09-22 19:46:46.325567,-46
2021-09-22 19:46:46.325573,-119
2021-09-22 19:46:46.325579,-167
2021-09-22 19:46:46.325585,-199
2021-09-22 19:46:46.325590,-218
2021-09-22 19:46:46.325596,-231
2021-09-22 19:46:46.325602,-238
2021-09-22 19:46:46.325608,-228
2021-09-22 19:46:46.325614,-214
2021-09-22 19:46:46.325619,-201
2021-09-22 19:46:46.325625,-189
2021-09-22 19:46:46.325631,-175
2021-09-22 19:46:46.325637,-165
2021-09-22 19:46:46.325643,-153
2021-09-22 19:46:46.325649,-138
2021-09-22 19:46:46.325655,-124
2021-09-22 19:46:46.325661,-119
2021-09-22 19:46:46.325666,-121
2021-09-22 19:46:46.325672,-121
2021-09-22 19:46:46.325678,-109
2021-09-22 19:46:46.325684,-99
2021-09-22 19:46:46.325690,-94
2021-09-22 19:46:46.325696,-94
2021-09-22 19:46:46.325702,-99
2021-09-22 19:46:46.325707,-97
2021-09-22 19:46:46.325713,-90
2021-09-22 19:46:46.640878,-87
2021-09-22 19:46:46.640899,-85
2021-09-22 19:46:46.640906,-82
2021-09-22 19:46:46.640913,-92
2021-09-22 19:46:46.640919,-97
2021-09-22 19:46:46.640925,-90
2021-09-22 19:46:46.640930,-82
2021-09-22 19:46:46.640936,-77
2021-09-22 19:46:46.640942,-77
2021-09-22 19:46:46.640948,-82
2021-09-22 19:46:46.640954,-85
2021-09-22 19:46:46.640959,-75
2021-09-22 19:46:46.640965,-70
2021-09-22 19:46:46.640974,-70
2021-09-22 19:46:46.640980,-72
2021-09-22 19:46:46.640986,-75
2021-09-22 19:46:46.640992,-68
2021-09-22 19:46:46.640998,-48
2021-09-22 19:46:46.641003,-34
2021-09-22 19:46:46.641009,-38
2021-09-22 19:46:46.641015,-43
2021-09-22 19:46:46.641020,-34
2021-09-22 19:46:46.641026,-41
2021-09-22 19:46:46.641032,-65
2021-09-22 19:46:46.641038,-75
2021-09-22 19:46:46.641043,-70
2021-09-22 19:46:46.641049,-65
2021-09-22 19:46:46.641055,-65
2021-09-22 19:46:46.641061,-63
2021-09-22 19:46:46.641066,-58
2021-09-22 19:46:46.864180,-53
2021-09-22 19:46:46.864200,-48
2021-09-22 19:46:46.864208,-31
2021-09-22 19:46:46.864214,14
2021-09-22 19:46:46.864220,116
2021-09-22 19:46:46.864226,299
2021-09-22 19:46:46.864232,476
2021-09-22 19:46:46.864237,357
2021-09-22 19:46:46.864243,-109
2021-09-22 19:46:46.864249,-593
2021-09-22 19:46:46.864255,-727
2021-09-22 19:46:46.864261,-413
2021-09-22 19:46:46.864267,-109
2021-09-22 19:46:46.864273,-70
2021-09-22 19:46:46.864279,-12
2021-09-22 19:46:46.864285,99
2021-09-22 19:46:46.864290,107
2021-09-22 19:46:46.864296,90
2021-09-22 19:46:46.864302,124
2021-09-22 19:46:46.864308,141
2021-09-22 19:46:46.864313,128
2021-09-22 19:46:46.864319,131
2021-09-22 19:46:46.864325,148
2021-09-22 19:46:46.864331,155
2021-09-22 19:46:46.864336,160
2021-09-22 19:46:46.864342,165
2021-09-22 19:46:46.864348,170
2021-09-22 19:46:46.864354,187
2021-09-22 19:46:46.864359,214
2021-09-22 19:46:46.864365,240
2021-09-22 19:46:47.090346,265
2021-09-22 19:46:47.090364,294
2021-09-22 19:46:47.090371,321
2021-09-22 19:46:47.090377,345
2021-09-22 19:46:47.090383,362
2021-09-22 19:46:47.090389,369
2021-09-22 19:46:47.090394,360
2021-09-22 19:46:47.090400,335
2021-09-22 19:46:47.090406,291
2021-09-22 19:46:47.090412,223
2021-09-22 19:46:47.090417,136
2021-09-22 19:46:47.090423,38
2021-09-22 19:46:47.090429,-53
2021-09-22 19:46:47.090435,-133
2021-09-22 19:46:47.090441,-199
2021-09-22 19:46:47.090446,-238
2021-09-22 19:46:47.090452,-253
2021-09-22 19:46:47.090464,-260
2021-09-22 19:46:47.090470,-260
2021-09-22 19:46:47.090475,-260
2021-09-22 19:46:47.090481,-253
2021-09-22 19:46:47.090487,-243
2021-09-22 19:46:47.090493,-226
2021-09-22 19:46:47.090498,-214
2021-09-22 19:46:47.090504,-211
2021-09-22 19:46:47.090510,-204
2021-09-22 19:46:47.090516,-192
2021-09-22 19:46:47.090522,-187
2021-09-22 19:46:47.090528,-180
2021-09-22 19:46:47.090533,-165
2021-09-22 19:46:47.315495,-153
2021-09-22 19:46:47.315516,-150
2021-09-22 19:46:47.315523,-145
2021-09-22 19:46:47.315529,-138
2021-09-22 19:46:47.315535,-133
2021-09-22 19:46:47.315541,-128
2021-09-22 19:46:47.315547,-128
2021-09-22 19:46:47.315553,-136
2021-09-22 19:46:47.315559,-133
2021-09-22 19:46:47.315565,-126
2021-09-22 19:46:47.315570,-121
2021-09-22 19:46:47.315576,-119
2021-09-22 19:46:47.315582,-116
2021-09-22 19:46:47.315588,-114
2021-09-22 19:46:47.315593,-111
2021-09-22 19:46:47.315599,-107
2021-09-22 19:46:47.315605,-99
2021-09-22 19:46:47.315611,-94
2021-09-22 19:46:47.315617,-94
2021-09-22 19:46:47.315623,-99
2021-09-22 19:46:47.315629,-97
2021-09-22 19:46:47.315634,-92
2021-09-22 19:46:47.315640,-87
2021-09-22 19:46:47.315646,-82
2021-09-22 19:46:47.315651,-77
2021-09-22 19:46:47.315657,-80
2021-09-22 19:46:47.315663,-82
2021-09-22 19:46:47.315668,-75
2021-09-22 19:46:47.315674,-60
2021-09-22 19:46:47.315680,-43
2021-09-22 19:46:47.495499,-36
2021-09-22 19:46:47.495519,-41
2021-09-22 19:46:47.495526,-31
2021-09-22 19:46:47.495532,-24
2021-09-22 19:46:47.495538,-38
2021-09-22 19:46:47.495544,-58
2021-09-22 19:46:47.495550,-72
2021-09-22 19:46:47.495556,-80
2021-09-22 19:46:47.495561,-72
2021-09-22 19:46:47.495567,-65
2021-09-22 19:46:47.495573,-65
2021-09-22 19:46:47.495579,-63
2021-09-22 19:46:47.495584,-63
2021-09-22 19:46:47.495590,-55
2021-09-22 19:46:47.495596,-14
2021-09-22 19:46:47.495602,75
2021-09-22 19:46:47.495608,253
2021-09-22 19:46:47.495614,484
2021-09-22 19:46:47.495620,457
2021-09-22 19:46:47.495626,29
2021-09-22 19:46:47.495632,-484
2021-09-22 19:46:47.495638,-744
2021-09-22 19:46:47.495644,-545
2021-09-22 19:46:47.495649,-165
2021-09-22 19:46:47.495655,-60
2021-09-22 19:46:47.495661,-43
2021-09-22 19:46:47.495666,70
2021-09-22 19:46:47.495672,102
2021-09-22 19:46:47.495678,75
2021-09-22 19:46:47.495688,102
2021-09-22 19:46:47.720467,116
2021-09-22 19:46:47.720487,99
2021-09-22 19:46:47.720494,109
2021-09-22 19:46:47.720500,131
2021-09-22 19:46:47.720506,136
2021-09-22 19:46:47.720512,138
2021-09-22 19:46:47.720518,148
2021-09-22 19:46:47.720524,160
2021-09-22 19:46:47.720530,175
2021-09-22 19:46:47.720535,194
2021-09-22 19:46:47.720541,221
2021-09-22 19:46:47.720547,243
2021-09-22 19:46:47.720553,267
2021-09-22 19:46:47.720559,299
2021-09-22 19:46:47.720565,333
2021-09-22 19:46:47.720571,352
2021-09-22 19:46:47.720576,362
2021-09-22 19:46:47.720582,362
2021-09-22 19:46:47.720588,347
2021-09-22 19:46:47.720594,318
2021-09-22 19:46:47.720599,267
2021-09-22 19:46:47.720605,184
2021-09-22 19:46:47.720611,80
2021-09-22 19:46:47.720617,-21
2021-09-22 19:46:47.720623,-107
2021-09-22 19:46:47.720628,-167
2021-09-22 19:46:47.720634,-214
2021-09-22 19:46:47.720640,-243
2021-09-22 19:46:47.720645,-257
2021-09-22 19:46:47.720651,-265
2021-09-22 19:46:47.945443,-262
2021-09-22 19:46:47.945464,-253
2021-09-22 19:46:47.945472,-240
2021-09-22 19:46:47.945478,-238
2021-09-22 19:46:47.945484,-233
2021-09-22 19:46:47.945490,-223
2021-09-22 19:46:47.945495,-206
2021-09-22 19:46:47.945501,-189
2021-09-22 19:46:47.945507,-177
2021-09-22 19:46:47.945512,-167
2021-09-22 19:46:47.945518,-160
2021-09-22 19:46:47.945524,-153
2021-09-22 19:46:47.945530,-145
2021-09-22 19:46:47.945536,-133
2021-09-22 19:46:47.945541,-126
2021-09-22 19:46:47.945547,-124
2021-09-22 19:46:47.945553,-121
2021-09-22 19:46:47.945559,-119
2021-09-22 19:46:47.945564,-116
2021-09-22 19:46:47.945570,-111
2021-09-22 19:46:47.945576,-107
2021-09-22 19:46:47.945581,-109
2021-09-22 19:46:47.945587,-109
2021-09-22 19:46:47.945593,-107
2021-09-22 19:46:47.945599,-102
2021-09-22 19:46:47.945605,-97
2021-09-22 19:46:47.945610,-94
2021-09-22 19:46:47.945616,-94
2021-09-22 19:46:47.945622,-92
2021-09-22 19:46:47.945627,-87
2021-09-22 19:46:48.170499,-80
2021-09-22 19:46:48.170520,-75
2021-09-22 19:46:48.170528,-75
2021-09-22 19:46:48.170534,-75
2021-09-22 19:46:48.170540,-80
2021-09-22 19:46:48.170546,-90
2021-09-22 19:46:48.170553,-92
2021-09-22 19:46:48.170559,-82
2021-09-22 19:46:48.170565,-77
2021-09-22 19:46:48.170570,-80
2021-09-22 19:46:48.170576,-82
2021-09-22 19:46:48.170582,-70
2021-09-22 19:46:48.170588,-43
2021-09-22 19:46:48.170594,-26
2021-09-22 19:46:48.170600,-31
2021-09-22 19:46:48.170605,-29
2021-09-22 19:46:48.170611,-19
2021-09-22 19:46:48.170617,-29
2021-09-22 19:46:48.170623,-46
2021-09-22 19:46:48.170628,-53
2021-09-22 19:46:48.170638,-53
2021-09-22 19:46:48.170643,-53
2021-09-22 19:46:48.170649,-51
2021-09-22 19:46:48.170655,-48
2021-09-22 19:46:48.170660,-46
2021-09-22 19:46:48.170666,-43
2021-09-22 19:46:48.170672,-36
2021-09-22 19:46:48.170678,-12
2021-09-22 19:46:48.170683,55
2021-09-22 19:46:48.170689,204
2021-09-22 19:46:48.485642,450
2021-09-22 19:46:48.485663,549
2021-09-22 19:46:48.485670,231
2021-09-22 19:46:48.485675,-316
2021-09-22 19:46:48.485681,-703
2021-09-22 19:46:48.485686,-635
2021-09-22 19:46:48.485692,-233
2021-09-22 19:46:48.485697,-38
2021-09-22 19:46:48.485703,-51
2021-09-22 19:46:48.485708,36
2021-09-22 19:46:48.485713,97
2021-09-22 19:46:48.485718,72
2021-09-22 19:46:48.485723,87
2021-09-22 19:46:48.485727,124
2021-09-22 19:46:48.485732,124
2021-09-22 19:46:48.485737,126
2021-09-22 19:46:48.485742,145
2021-09-22 19:46:48.485746,158
2021-09-22 19:46:48.485751,165
2021-09-22 19:46:48.485756,177
2021-09-22 19:46:48.485761,192
2021-09-22 19:46:48.485766,199
2021-09-22 19:46:48.485771,214
2021-09-22 19:46:48.485776,243
2021-09-22 19:46:48.485781,270
2021-09-22 19:46:48.485787,296
2021-09-22 19:46:48.485793,323
2021-09-22 19:46:48.485798,350
2021-09-22 19:46:48.485804,372
2021-09-22 19:46:48.485809,389
2021-09-22 19:46:48.665533,394
2021-09-22 19:46:48.665553,384
2021-09-22 19:46:48.665561,357
2021-09-22 19:46:48.665567,309
2021-09-22 19:46:48.665573,238
2021-09-22 19:46:48.665579,145
2021-09-22 19:46:48.665584,43
2021-09-22 19:46:48.665590,-48
2021-09-22 19:46:48.665596,-121
2021-09-22 19:46:48.665602,-182
2021-09-22 19:46:48.665608,-223
2021-09-22 19:46:48.665613,-245
2021-09-22 19:46:48.665619,-260
2021-09-22 19:46:48.665625,-257
2021-09-22 19:46:48.665631,-255
2021-09-22 19:46:48.665636,-253
2021-09-22 19:46:48.665642,-238
2021-09-22 19:46:48.665648,-214
2021-09-22 19:46:48.665653,-201
2021-09-22 19:46:48.665659,-187
2021-09-22 19:46:48.665665,-177
2021-09-22 19:46:48.665671,-172
2021-09-22 19:46:48.665677,-155
2021-09-22 19:46:48.665682,-136
2021-09-22 19:46:48.665688,-124
2021-09-22 19:46:48.665694,-116
2021-09-22 19:46:48.665699,-114
2021-09-22 19:46:48.665705,-114
2021-09-22 19:46:48.665711,-107
2021-09-22 19:46:48.665716,-97
2021-09-22 19:46:48.979093,-94
2021-09-22 19:46:48.979113,-90
2021-09-22 19:46:48.979120,-92
2021-09-22 19:46:48.979126,-94
2021-09-22 19:46:48.979132,-90
2021-09-22 19:46:48.979138,-85
2021-09-22 19:46:48.979144,-82
2021-09-22 19:46:48.979150,-82
2021-09-22 19:46:48.979155,-90
2021-09-22 19:46:48.979161,-92
2021-09-22 19:46:48.979167,-85
2021-09-22 19:46:48.979173,-85
2021-09-22 19:46:48.979178,-90
2021-09-22 19:46:48.979184,-87
2021-09-22 19:46:48.979190,-87
2021-09-22 19:46:48.979196,-90
2021-09-22 19:46:48.979202,-80
2021-09-22 19:46:48.979208,-72
2021-09-22 19:46:48.979213,-68
2021-09-22 19:46:48.979219,-63
2021-09-22 19:46:48.979225,-63
2021-09-22 19:46:48.979231,-60
2021-09-22 19:46:48.979239,-55
2021-09-22 19:46:48.979245,-48
2021-09-22 19:46:48.979251,-43
2021-09-22 19:46:48.979257,-43
2021-09-22 19:46:48.979262,-46
2021-09-22 19:46:48.979268,-46
2021-09-22 19:46:48.979274,-36
2021-09-22 19:46:48.979280,-19
2021-09-22 19:46:49.115476,4
2021-09-22 19:46:49.115497,12
2021-09-22 19:46:49.115505,2
2021-09-22 19:46:49.115511,7
2021-09-22 19:46:49.115516,17
2021-09-22 19:46:49.115522,0
2021-09-22 19:46:49.115528,-21
2021-09-22 19:46:49.115534,-36
2021-09-22 19:46:49.115540,-41
2021-09-22 19:46:49.115545,-36
2021-09-22 19:46:49.115551,-31
2021-09-22 19:46:49.115557,-34
2021-09-22 19:46:49.115563,-31
2021-09-22 19:46:49.115568,-31
2021-09-22 19:46:49.115574,-31
2021-09-22 19:46:49.115580,0
2021-09-22 19:46:49.115586,80
2021-09-22 19:46:49.115591,233
2021-09-22 19:46:49.115597,467
2021-09-22 19:46:49.115603,515
2021-09-22 19:46:49.115609,138
2021-09-22 19:46:49.115614,-413
2021-09-22 19:46:49.115620,-734
2021-09-22 19:46:49.115626,-576
2021-09-22 19:46:49.115632,-187
2021-09-22 19:46:49.115637,-43
2021-09-22 19:46:49.115643,-31
2021-09-22 19:46:49.115649,70
2021-09-22 19:46:49.115655,111
2021-09-22 19:46:49.115660,90
2021-09-22 19:46:49.430426,109
2021-09-22 19:46:49.430446,128
2021-09-22 19:46:49.430453,126
2021-09-22 19:46:49.430459,133
2021-09-22 19:46:49.430465,145
2021-09-22 19:46:49.430471,153
2021-09-22 19:46:49.430476,160
2021-09-22 19:46:49.430482,170
2021-09-22 19:46:49.430488,184
2021-09-22 19:46:49.430494,204
2021-09-22 19:46:49.430500,223
2021-09-22 19:46:49.430506,245
2021-09-22 19:46:49.430511,265
2021-09-22 19:46:49.430517,287
2021-09-22 19:46:49.430523,313
2021-09-22 19:46:49.430529,340
2021-09-22 19:46:49.430535,352
2021-09-22 19:46:49.430541,367
2021-09-22 19:46:49.430547,372
2021-09-22 19:46:49.430553,360
2021-09-22 19:46:49.430558,335
2021-09-22 19:46:49.430564,294
2021-09-22 19:46:49.430570,228
2021-09-22 19:46:49.430575,136
2021-09-22 19:46:49.430581,36
2021-09-22 19:46:49.430587,-51
2021-09-22 19:46:49.430593,-119
2021-09-22 19:46:49.430598,-170
2021-09-22 19:46:49.430604,-204
2021-09-22 19:46:49.430610,-221
2021-09-22 19:46:49.609862,-228
2021-09-22 19:46:49.609881,-228
2021-09-22 19:46:49.609888,-218
2021-09-22 19:46:49.609895,-206
2021-09-22 19:46:49.609900,-192
2021-09-22 19:46:49.609906,-182
2021-09-22 19:46:49.609912,-177
2021-09-22 19:46:49.609918,-163
2021-09-22 19:46:49.609924,-143
2021-09-22 19:46:49.609930,-133
2021-09-22 19:46:49.609936,-124
2021-09-22 19:46:49.609941,-114
2021-09-22 19:46:49.609947,-109
2021-09-22 19:46:49.609953,-104
2021-09-22 19:46:49.609959,-94
2021-09-22 19:46:49.609965,-92
2021-09-22 19:46:49.609970,-90
2021-09-22 19:46:49.609976,-90
2021-09-22 19:46:49.609982,-92
2021-09-22 19:46:49.609988,-87
2021-09-22 19:46:49.609993,-82
2021-09-22 19:46:49.609999,-85
2021-09-22 19:46:49.610005,-90
2021-09-22 19:46:49.610011,-102
2021-09-22 19:46:49.610017,-107
2021-09-22 19:46:49.610023,-94
2021-09-22 19:46:49.610029,-92
2021-09-22 19:46:49.610034,-94
2021-09-22 19:46:49.610040,-87
2021-09-22 19:46:49.610046,-82
2021-09-22 19:46:49.790540,-82
2021-09-22 19:46:49.790561,-75
2021-09-22 19:46:49.790568,-68
2021-09-22 19:46:49.790574,-68
2021-09-22 19:46:49.790580,-65
2021-09-22 19:46:49.790591,-68
2021-09-22 19:46:49.790597,-68
2021-09-22 19:46:49.790603,-58
2021-09-22 19:46:49.790609,-53
2021-09-22 19:46:49.790615,-53
2021-09-22 19:46:49.790621,-51
2021-09-22 19:46:49.790626,-48
2021-09-22 19:46:49.790632,-46
2021-09-22 19:46:49.790638,-38
2021-09-22 19:46:49.790643,-36
2021-09-22 19:46:49.790649,-34
2021-09-22 19:46:49.790655,-31
2021-09-22 19:46:49.790660,-34
2021-09-22 19:46:49.790666,-34
2021-09-22 19:46:49.790672,-31
2021-09-22 19:46:49.790678,-24
2021-09-22 19:46:49.790683,-4
2021-09-22 19:46:49.790689,9
2021-09-22 19:46:49.790695,2
2021-09-22 19:46:49.790700,7
2021-09-22 19:46:49.790706,21
2021-09-22 19:46:49.790712,9
2021-09-22 19:46:49.790718,-17
2021-09-22 19:46:49.790723,-26
2021-09-22 19:46:49.790729,-26
2021-09-22 19:46:50.015480,-26
2021-09-22 19:46:50.015500,-26
2021-09-22 19:46:50.015507,-29
2021-09-22 19:46:50.015513,-29
2021-09-22 19:46:50.015519,-34
2021-09-22 19:46:50.015525,-34
2021-09-22 19:46:50.015531,-7
2021-09-22 19:46:50.015537,60
2021-09-22 19:46:50.015543,197
2021-09-22 19:46:50.015549,437
2021-09-22 19:46:50.015554,559
2021-09-22 19:46:50.015560,250
2021-09-22 19:46:50.015566,-313
2021-09-22 19:46:50.015572,-703
2021-09-22 19:46:50.015578,-630
2021-09-22 19:46:50.015584,-250
2021-09-22 19:46:50.015590,-53
2021-09-22 19:46:50.015595,-38
2021-09-22 19:46:50.015601,53
2021-09-22 19:46:50.015606,114
2021-09-22 19:46:50.015612,90
2021-09-22 19:46:50.015618,97
2021-09-22 19:46:50.015624,126
2021-09-22 19:46:50.015629,131
2021-09-22 19:46:50.015635,141
2021-09-22 19:46:50.015641,160
2021-09-22 19:46:50.015647,167
2021-09-22 19:46:50.015653,177
2021-09-22 19:46:50.015659,189
2021-09-22 19:46:50.015664,194
2021-09-22 19:46:50.285484,206
2021-09-22 19:46:50.285506,228
2021-09-22 19:46:50.285513,250
2021-09-22 19:46:50.285519,265
2021-09-22 19:46:50.285525,282
2021-09-22 19:46:50.285530,311
2021-09-22 19:46:50.285536,345
2021-09-22 19:46:50.285542,367
2021-09-22 19:46:50.285548,379
2021-09-22 19:46:50.285554,374
2021-09-22 19:46:50.285559,360
2021-09-22 19:46:50.285565,343
2021-09-22 19:46:50.285571,311
2021-09-22 19:46:50.285577,250
2021-09-22 19:46:50.285582,163
2021-09-22 19:46:50.285588,63
2021-09-22 19:46:50.285594,-29
2021-09-22 19:46:50.285599,-97
2021-09-22 19:46:50.285605,-148
2021-09-22 19:46:50.285611,-184
2021-09-22 19:46:50.285616,-209
2021-09-22 19:46:50.285622,-221
2021-09-22 19:46:50.285628,-223
2021-09-22 19:46:50.285633,-216
2021-09-22 19:46:50.285639,-211
2021-09-22 19:46:50.285645,-199
2021-09-22 19:46:50.285651,-182
2021-09-22 19:46:50.285656,-172
2021-09-22 19:46:50.285662,-158
2021-09-22 19:46:50.285668,-141
2021-09-22 19:46:50.510415,-128
2021-09-22 19:46:50.510434,-114
2021-09-22 19:46:50.510441,-104
2021-09-22 19:46:50.510447,-102
2021-09-22 19:46:50.510453,-94
2021-09-22 19:46:50.510459,-82
2021-09-22 19:46:50.510465,-77
2021-09-22 19:46:50.510471,-77
2021-09-22 19:46:50.510476,-80
2021-09-22 19:46:50.510482,-87
2021-09-22 19:46:50.510488,-85
2021-09-22 19:46:50.510493,-77
2021-09-22 19:46:50.510499,-75
2021-09-22 19:46:50.510505,-70
2021-09-22 19:46:50.510511,-72
2021-09-22 19:46:50.510516,-82
2021-09-22 19:46:50.510522,-82
2021-09-22 19:46:50.510528,-72
2021-09-22 19:46:50.510534,-65
2021-09-22 19:46:50.510540,-63
2021-09-22 19:46:50.510545,-65
2021-09-22 19:46:50.510551,-68
2021-09-22 19:46:50.510556,-63
2021-09-22 19:46:50.510562,-51
2021-09-22 19:46:50.510568,-46
2021-09-22 19:46:50.510573,-48
2021-09-22 19:46:50.510579,-51
2021-09-22 19:46:50.510585,-51
2021-09-22 19:46:50.510590,-46
2021-09-22 19:46:50.510596,-41
2021-09-22 19:46:50.735552,-36
2021-09-22 19:46:50.735576,-34
2021-09-22 19:46:50.735583,-36
2021-09-22 19:46:50.735589,-36
2021-09-22 19:46:50.735595,-34
2021-09-22 19:46:50.735600,-38
2021-09-22 19:46:50.735606,-41
2021-09-22 19:46:50.735612,-34
2021-09-22 19:46:50.735618,-41
2021-09-22 19:46:50.735624,-55
2021-09-22 19:46:50.735630,-48
2021-09-22 19:46:50.735635,-34
2021-09-22 19:46:50.735641,-19
2021-09-22 19:46:50.735647,-2
2021-09-22 19:46:50.735653,-2
2021-09-22 19:46:50.735659,-12
2021-09-22 19:46:50.735664,2
2021-09-22 19:46:50.735670,14
2021-09-22 19:46:50.735676,-9
2021-09-22 19:46:50.735682,-38
2021-09-22 19:46:50.735687,-48
2021-09-22 19:46:50.735693,-48
2021-09-22 19:46:50.735699,-43
2021-09-22 19:46:50.735705,-43
2021-09-22 19:46:50.735711,-41
2021-09-22 19:46:50.735717,-36
2021-09-22 19:46:50.735722,-38
2021-09-22 19:46:50.735728,-34
2021-09-22 19:46:50.735734,-4
2021-09-22 19:46:50.735740,72
2021-09-22 19:46:51.004141,240
2021-09-22 19:46:51.004162,489
2021-09-22 19:46:51.004169,525
2021-09-22 19:46:51.004175,133
2021-09-22 19:46:51.004181,-425
2021-09-22 19:46:51.004187,-705
2021-09-22 19:46:51.004193,-501
2021-09-22 19:46:51.004199,-148
2021-09-22 19:46:51.004205,-46
2021-09-22 19:46:51.004211,-14
2021-09-22 19:46:51.004217,97
2021-09-22 19:46:51.004223,126
2021-09-22 19:46:51.004228,102
2021-09-22 19:46:51.004234,126
2021-09-22 19:46:51.004240,148
2021-09-22 19:46:51.004246,145
2021-09-22 19:46:51.004251,158
2021-09-22 19:46:51.004257,177
2021-09-22 19:46:51.004263,189
2021-09-22 19:46:51.004268,197
2021-09-22 19:46:51.004274,214
2021-09-22 19:46:51.004280,228
2021-09-22 19:46:51.004286,243
2021-09-22 19:46:51.004291,265
2021-09-22 19:46:51.004297,289
2021-09-22 19:46:51.004303,311
2021-09-22 19:46:51.004309,335
2021-09-22 19:46:51.004315,364
2021-09-22 19:46:51.004320,391
2021-09-22 19:46:51.004326,406
2021-09-22 19:46:51.185576,406
2021-09-22 19:46:51.185597,401
2021-09-22 19:46:51.185604,389
2021-09-22 19:46:51.185610,362
2021-09-22 19:46:51.185616,321
2021-09-22 19:46:51.185622,255
2021-09-22 19:46:51.185628,160
2021-09-22 19:46:51.185634,55
2021-09-22 19:46:51.185640,-24
2021-09-22 19:46:51.185646,-90
2021-09-22 19:46:51.185651,-145
2021-09-22 19:46:51.185657,-187
2021-09-22 19:46:51.185663,-211
2021-09-22 19:46:51.185669,-218
2021-09-22 19:46:51.185675,-214
2021-09-22 19:46:51.185681,-211
2021-09-22 19:46:51.185687,-201
2021-09-22 19:46:51.185693,-180
2021-09-22 19:46:51.185699,-165
2021-09-22 19:46:51.185705,-158
2021-09-22 19:46:51.185710,-141
2021-09-22 19:46:51.185716,-128
2021-09-22 19:46:51.185722,-121
2021-09-22 19:46:51.185727,-109
2021-09-22 19:46:51.185733,-99
2021-09-22 19:46:51.185739,-94
2021-09-22 19:46:51.185744,-87
2021-09-22 19:46:51.185750,-80
2021-09-22 19:46:51.185756,-80
2021-09-22 19:46:51.185762,-77
2021-09-22 19:46:51.410563,-72
2021-09-22 19:46:51.410584,-75
2021-09-22 19:46:51.410591,-80
2021-09-22 19:46:51.410597,-77
2021-09-22 19:46:51.410603,-70
2021-09-22 19:46:51.410609,-75
2021-09-22 19:46:51.410615,-82
2021-09-22 19:46:51.410621,-80
2021-09-22 19:46:51.410627,-75
2021-09-22 19:46:51.410632,-75
2021-09-22 19:46:51.410638,-63
2021-09-22 19:46:51.410644,-58
2021-09-22 19:46:51.410650,-68
2021-09-22 19:46:51.410656,-63
2021-09-22 19:46:51.410662,-53
2021-09-22 19:46:51.410668,-53
2021-09-22 19:46:51.410673,-51
2021-09-22 19:46:51.410679,-46
2021-09-22 19:46:51.410685,-46
2021-09-22 19:46:51.410691,-46
2021-09-22 19:46:51.410697,-43
2021-09-22 19:46:51.410702,-41
2021-09-22 19:46:51.410708,-38
2021-09-22 19:46:51.410714,-34
2021-09-22 19:46:51.410720,-34
2021-09-22 19:46:51.410726,-36
2021-09-22 19:46:51.410732,-34
2021-09-22 19:46:51.410737,-29
2021-09-22 19:46:51.410743,-21
2021-09-22 19:46:51.410749,-7
2021-09-22 19:46:51.635537,2
2021-09-22 19:46:51.635558,2
2021-09-22 19:46:51.635566,-2
2021-09-22 19:46:51.635572,0
2021-09-22 19:46:51.635578,-12
2021-09-22 19:46:51.635585,-41
2021-09-22 19:46:51.635591,-60
2021-09-22 19:46:51.635597,-58
2021-09-22 19:46:51.635603,-51
2021-09-22 19:46:51.635609,-48
2021-09-22 19:46:51.635614,-48
2021-09-22 19:46:51.635626,-53
2021-09-22 19:46:51.635632,-55
2021-09-22 19:46:51.635638,-46
2021-09-22 19:46:51.635644,-19
2021-09-22 19:46:51.635650,31
2021-09-22 19:46:51.635656,128
2021-09-22 19:46:51.635662,296
2021-09-22 19:46:51.635668,459
2021-09-22 19:46:51.635673,323
2021-09-22 19:46:51.635679,-148
2021-09-22 19:46:51.635685,-615
2021-09-22 19:46:51.635691,-712
2021-09-22 19:46:51.635697,-386
2021-09-22 19:46:51.635703,-90
2021-09-22 19:46:51.635708,-43
2021-09-22 19:46:51.635714,17
2021-09-22 19:46:51.635720,121
2021-09-22 19:46:51.635726,128
2021-09-22 19:46:51.635732,111
2021-09-22 19:46:51.860581,143
2021-09-22 19:46:51.860602,163
2021-09-22 19:46:51.860608,163
2021-09-22 19:46:51.860614,172
2021-09-22 19:46:51.860620,177
2021-09-22 19:46:51.860626,180
2021-09-22 19:46:51.860632,189
2021-09-22 19:46:51.860638,204
2021-09-22 19:46:51.860643,221
2021-09-22 19:46:51.860649,236
2021-09-22 19:46:51.860655,248
2021-09-22 19:46:51.860661,270
2021-09-22 19:46:51.860667,301
2021-09-22 19:46:51.860673,330
2021-09-22 19:46:51.860679,360
2021-09-22 19:46:51.860684,382
2021-09-22 19:46:51.860690,396
2021-09-22 19:46:51.860696,401
2021-09-22 19:46:51.860702,396
2021-09-22 19:46:51.860708,379
2021-09-22 19:46:51.860713,340
2021-09-22 19:46:51.860719,279
2021-09-22 19:46:51.860725,197
2021-09-22 19:46:51.860731,102
2021-09-22 19:46:51.860737,12
2021-09-22 19:46:51.860743,-63
2021-09-22 19:46:51.860748,-124
2021-09-22 19:46:51.860754,-165
2021-09-22 19:46:51.860760,-189
2021-09-22 19:46:51.860766,-204
2021-09-22 19:46:52.085544,-206
2021-09-22 19:46:52.085564,-201
2021-09-22 19:46:52.085571,-194
2021-09-22 19:46:52.085577,-189
2021-09-22 19:46:52.085583,-180
2021-09-22 19:46:52.085589,-170
2021-09-22 19:46:52.085595,-158
2021-09-22 19:46:52.085601,-145
2021-09-22 19:46:52.085606,-138
2021-09-22 19:46:52.085612,-141
2021-09-22 19:46:52.085618,-138
2021-09-22 19:46:52.085624,-126
2021-09-22 19:46:52.085630,-119
2021-09-22 19:46:52.085636,-109
2021-09-22 19:46:52.085642,-104
2021-09-22 19:46:52.085648,-104
2021-09-22 19:46:52.085654,-107
2021-09-22 19:46:52.085659,-102
2021-09-22 19:46:52.085665,-92
2021-09-22 19:46:52.085671,-90
2021-09-22 19:46:52.085677,-87
2021-09-22 19:46:52.085682,-90
2021-09-22 19:46:52.085688,-99
2021-09-22 19:46:52.085694,-104
2021-09-22 19:46:52.085700,-94
2021-09-22 19:46:52.085705,-90
2021-09-22 19:46:52.085711,-90
2021-09-22 19:46:52.085717,-90
2021-09-22 19:46:52.085723,-87
2021-09-22 19:46:52.085729,-82
2021-09-22 19:46:52.399969,-77
2021-09-22 19:46:52.399986,-72
2021-09-22 19:46:52.399993,-75
2021-09-22 19:46:52.399999,-87
2021-09-22 19:46:52.400005,-90
2021-09-22 19:46:52.400011,-80
2021-09-22 19:46:52.400017,-75
2021-09-22 19:46:52.400023,-77
2021-09-22 19:46:52.400028,-75
2021-09-22 19:46:52.400034,-82
2021-09-22 19:46:52.400040,-90
2021-09-22 19:46:52.400045,-85
2021-09-22 19:46:52.400051,-77
2021-09-22 19:46:52.400057,-82
2021-09-22 19:46:52.400063,-87
2021-09-22 19:46:52.400069,-80
2021-09-22 19:46:52.400074,-60
2021-09-22 19:46:52.400080,-51
2021-09-22 19:46:52.400086,-55
2021-09-22 19:46:52.400092,-43
2021-09-22 19:46:52.400097,-38
2021-09-22 19:46:52.400103,-60
2021-09-22 19:46:52.400109,-80
2021-09-22 19:46:52.400114,-82
2021-09-22 19:46:52.400120,-77
2021-09-22 19:46:52.400126,-75
2021-09-22 19:46:52.400131,-77
2021-09-22 19:46:52.400137,-80
2021-09-22 19:46:52.400143,-72
2021-09-22 19:46:52.400149,-68
2021-09-22 19:46:52.625598,-58
2021-09-22 19:46:52.625619,-14
2021-09-22 19:46:52.625626,75
2021-09-22 19:46:52.625632,240
2021-09-22 19:46:52.625638,455
2021-09-22 19:46:52.625644,406
2021-09-22 19:46:52.625649,-29
2021-09-22 19:46:52.625655,-528
2021-09-22 19:46:52.625661,-749
2021-09-22 19:46:52.625667,-518
2021-09-22 19:46:52.625672,-155
2021-09-22 19:46:52.625678,-60
2021-09-22 19:46:52.625684,-36
2021-09-22 19:46:52.625689,63
2021-09-22 19:46:52.625695,82
2021-09-22 19:46:52.625701,55
2021-09-22 19:46:52.625706,87
2021-09-22 19:46:52.625712,114
2021-09-22 19:46:52.625718,111
2021-09-22 19:46:52.625723,124
2021-09-22 19:46:52.625729,141
2021-09-22 19:46:52.625735,145
2021-09-22 19:46:52.625740,158
2021-09-22 19:46:52.625746,180
2021-09-22 19:46:52.625752,194
2021-09-22 19:46:52.625757,211
2021-09-22 19:46:52.625763,226
2021-09-22 19:46:52.625768,245
2021-09-22 19:46:52.625774,265
2021-09-22 19:46:52.625780,287
2021-09-22 19:46:52.805903,318
2021-09-22 19:46:52.805922,350
2021-09-22 19:46:52.805929,364
2021-09-22 19:46:52.805935,372
2021-09-22 19:46:52.805940,374
2021-09-22 19:46:52.805946,362
2021-09-22 19:46:52.805952,333
2021-09-22 19:46:52.805958,277
2021-09-22 19:46:52.805972,189
2021-09-22 19:46:52.805978,90
2021-09-22 19:46:52.805984,-2
2021-09-22 19:46:52.805990,-82
2021-09-22 19:46:52.805995,-148
2021-09-22 19:46:52.806001,-194
2021-09-22 19:46:52.806007,-228
2021-09-22 19:46:52.806012,-250
2021-09-22 19:46:52.806018,-253
2021-09-22 19:46:52.806024,-245
2021-09-22 19:46:52.806029,-243
2021-09-22 19:46:52.806035,-238
2021-09-22 19:46:52.806041,-231
2021-09-22 19:46:52.806046,-216
2021-09-22 19:46:52.806052,-199
2021-09-22 19:46:52.806058,-182
2021-09-22 19:46:52.806063,-170
2021-09-22 19:46:52.806069,-160
2021-09-22 19:46:52.806075,-150
2021-09-22 19:46:52.806080,-141
2021-09-22 19:46:52.806086,-128
2021-09-22 19:46:52.806092,-119
2021-09-22 19:46:53.119276,-114
2021-09-22 19:46:53.119296,-111
2021-09-22 19:46:53.119303,-109
2021-09-22 19:46:53.119309,-107
2021-09-22 19:46:53.119315,-102
2021-09-22 19:46:53.119321,-97
2021-09-22 19:46:53.119327,-99
2021-09-22 19:46:53.119333,-104
2021-09-22 19:46:53.119338,-107
2021-09-22 19:46:53.119344,-99
2021-09-22 19:46:53.119350,-97
2021-09-22 19:46:53.119356,-94
2021-09-22 19:46:53.119361,-97
2021-09-22 19:46:53.119367,-99
2021-09-22 19:46:53.119373,-99
2021-09-22 19:46:53.119379,-94
2021-09-22 19:46:53.119385,-94
2021-09-22 19:46:53.119390,-97
2021-09-22 19:46:53.119396,-94
2021-09-22 19:46:53.119402,-90
2021-09-22 19:46:53.119408,-87
2021-09-22 19:46:53.119414,-90
2021-09-22 19:46:53.119419,-87
2021-09-22 19:46:53.119425,-82
2021-09-22 19:46:53.119431,-80
2021-09-22 19:46:53.119437,-77
2021-09-22 19:46:53.119443,-72
2021-09-22 19:46:53.119448,-75
2021-09-22 19:46:53.119454,-75
2021-09-22 19:46:53.119460,-60
2021-09-22 19:46:53.300484,-41
2021-09-22 19:46:53.300503,-29
2021-09-22 19:46:53.300510,-34
2021-09-22 19:46:53.300516,-46
2021-09-22 19:46:53.300522,-51
2021-09-22 19:46:53.300528,-60
2021-09-22 19:46:53.300533,-82
2021-09-22 19:46:53.300539,-99
2021-09-22 19:46:53.300545,-97
2021-09-22 19:46:53.300551,-90
2021-09-22 19:46:53.300556,-87
2021-09-22 19:46:53.300562,-87
2021-09-22 19:46:53.300568,-92
2021-09-22 19:46:53.300573,-92
2021-09-22 19:46:53.300579,-82
2021-09-22 19:46:53.300585,-55
2021-09-22 19:46:53.300590,9
2021-09-22 19:46:53.300596,155
2021-09-22 19:46:53.300602,394
2021-09-22 19:46:53.300608,508
2021-09-22 19:46:53.300613,211
2021-09-22 19:46:53.300619,-326
2021-09-22 19:46:53.300625,-715
2021-09-22 19:46:53.300631,-676
2021-09-22 19:46:53.300636,-287
2021-09-22 19:46:53.300642,-60
2021-09-22 19:46:53.300648,-48
2021-09-22 19:46:53.300653,36
2021-09-22 19:46:53.300659,104
2021-09-22 19:46:53.300665,82
2021-09-22 19:46:53.480601,90
2021-09-22 19:46:53.480622,124
2021-09-22 19:46:53.480630,128
2021-09-22 19:46:53.480636,131
2021-09-22 19:46:53.480642,150
2021-09-22 19:46:53.480648,160
2021-09-22 19:46:53.480654,163
2021-09-22 19:46:53.480660,182
2021-09-22 19:46:53.480665,201
2021-09-22 19:46:53.480671,214
2021-09-22 19:46:53.480677,233
2021-09-22 19:46:53.480683,257
2021-09-22 19:46:53.480689,279
2021-09-22 19:46:53.480695,311
2021-09-22 19:46:53.480701,343
2021-09-22 19:46:53.480707,369
2021-09-22 19:46:53.480712,391
2021-09-22 19:46:53.480718,403
2021-09-22 19:46:53.480724,403
2021-09-22 19:46:53.480730,399
2021-09-22 19:46:53.480735,374
2021-09-22 19:46:53.480741,321
2021-09-22 19:46:53.480747,250
2021-09-22 19:46:53.480753,160
2021-09-22 19:46:53.480758,53
2021-09-22 19:46:53.480764,-38
2021-09-22 19:46:53.480770,-111
2021-09-22 19:46:53.480776,-170
2021-09-22 19:46:53.480781,-209
2021-09-22 19:46:53.480787,-226
2021-09-22 19:46:53.705615,-233
2021-09-22 19:46:53.705634,-236
2021-09-22 19:46:53.705641,-231
2021-09-22 19:46:53.705647,-223
2021-09-22 19:46:53.705653,-214
2021-09-22 19:46:53.705659,-206
2021-09-22 19:46:53.705665,-192
2021-09-22 19:46:53.705670,-172
2021-09-22 19:46:53.705676,-163
2021-09-22 19:46:53.705682,-165
2021-09-22 19:46:53.705688,-165
2021-09-22 19:46:53.705693,-155
2021-09-22 19:46:53.705699,-143
2021-09-22 19:46:53.705705,-133
2021-09-22 19:46:53.705711,-126
2021-09-22 19:46:53.705716,-119
2021-09-22 19:46:53.705722,-114
2021-09-22 19:46:53.705728,-109
2021-09-22 19:46:53.705733,-102
2021-09-22 19:46:53.705739,-97
2021-09-22 19:46:53.705745,-94
2021-09-22 19:46:53.705750,-94
2021-09-22 19:46:53.705756,-97
2021-09-22 19:46:53.705762,-99
2021-09-22 19:46:53.705767,-97
2021-09-22 19:46:53.705773,-90
2021-09-22 19:46:53.705779,-87
2021-09-22 19:46:53.705784,-90
2021-09-22 19:46:53.705790,-87
2021-09-22 19:46:53.705796,-82
2021-09-22 19:46:53.930513,-77
2021-09-22 19:46:53.930532,-72
2021-09-22 19:46:53.930539,-72
2021-09-22 19:46:53.930545,-72
2021-09-22 19:46:53.930551,-75
2021-09-22 19:46:53.930558,-72
2021-09-22 19:46:53.930563,-65
2021-09-22 19:46:53.930569,-58
2021-09-22 19:46:53.930575,-58
2021-09-22 19:46:53.930581,-60
2021-09-22 19:46:53.930587,-60
2021-09-22 19:46:53.930592,-60
2021-09-22 19:46:53.930598,-58
2021-09-22 19:46:53.930604,-63
2021-09-22 19:46:53.930610,-60
2021-09-22 19:46:53.930616,-51
2021-09-22 19:46:53.930621,-34
2021-09-22 19:46:53.930627,-17
2021-09-22 19:46:53.930633,-17
2021-09-22 19:46:53.930639,-17
2021-09-22 19:46:53.930645,-4
2021-09-22 19:46:53.930650,-17
2021-09-22 19:46:53.930656,-43
2021-09-22 19:46:53.930670,-60
2021-09-22 19:46:53.930676,-65
2021-09-22 19:46:53.930682,-70
2021-09-22 19:46:53.930687,-75
2021-09-22 19:46:53.930693,-75
2021-09-22 19:46:53.930699,-75
2021-09-22 19:46:53.930705,-70
2021-09-22 19:46:54.200547,-60
2021-09-22 19:46:54.200568,-31
2021-09-22 19:46:54.200575,38
2021-09-22 19:46:54.200581,182
2021-09-22 19:46:54.200587,425
2021-09-22 19:46:54.200593,513
2021-09-22 19:46:54.200598,170
2021-09-22 19:46:54.200604,-389
2021-09-22 19:46:54.200610,-737
2021-09-22 19:46:54.200616,-613
2021-09-22 19:46:54.200621,-226
2021-09-22 19:46:54.200627,-58
2021-09-22 19:46:54.200633,-41
2021-09-22 19:46:54.200638,55
2021-09-22 19:46:54.200644,94
2021-09-22 19:46:54.200650,58
2021-09-22 19:46:54.200656,75
2021-09-22 19:46:54.200661,114
2021-09-22 19:46:54.200667,116
2021-09-22 19:46:54.200673,124
2021-09-22 19:46:54.200679,143
2021-09-22 19:46:54.200684,150
2021-09-22 19:46:54.200690,160
2021-09-22 19:46:54.200696,180
2021-09-22 19:46:54.200701,199
2021-09-22 19:46:54.200708,216
2021-09-22 19:46:54.200713,233
2021-09-22 19:46:54.200719,250
2021-09-22 19:46:54.200725,272
2021-09-22 19:46:54.200730,306
2021-09-22 19:46:54.425501,338
2021-09-22 19:46:54.425521,364
2021-09-22 19:46:54.425528,384
2021-09-22 19:46:54.425534,394
2021-09-22 19:46:54.425540,396
2021-09-22 19:46:54.425546,391
2021-09-22 19:46:54.425552,369
2021-09-22 19:46:54.425558,326
2021-09-22 19:46:54.425564,248
2021-09-22 19:46:54.425570,143
2021-09-22 19:46:54.425576,41
2021-09-22 19:46:54.425582,-41
2021-09-22 19:46:54.425588,-111
2021-09-22 19:46:54.425594,-167
2021-09-22 19:46:54.425599,-209
2021-09-22 19:46:54.425605,-236
2021-09-22 19:46:54.425611,-240
2021-09-22 19:46:54.425617,-233
2021-09-22 19:46:54.425622,-226
2021-09-22 19:46:54.425628,-216
2021-09-22 19:46:54.425634,-206
2021-09-22 19:46:54.425640,-194
2021-09-22 19:46:54.425646,-177
2021-09-22 19:46:54.425652,-160
2021-09-22 19:46:54.425657,-148
2021-09-22 19:46:54.425663,-136
2021-09-22 19:46:54.425669,-128
2021-09-22 19:46:54.425675,-124
2021-09-22 19:46:54.425680,-116
2021-09-22 19:46:54.425686,-111
2021-09-22 19:46:54.650632,-107
2021-09-22 19:46:54.650653,-102
2021-09-22 19:46:54.650660,-99
2021-09-22 19:46:54.650666,-99
2021-09-22 19:46:54.650672,-94
2021-09-22 19:46:54.650678,-90
2021-09-22 19:46:54.650684,-87
2021-09-22 19:46:54.650689,-90
2021-09-22 19:46:54.650695,-99
2021-09-22 19:46:54.650701,-102
2021-09-22 19:46:54.650707,-94
2021-09-22 19:46:54.650712,-90
2021-09-22 19:46:54.650718,-87
2021-09-22 19:46:54.650724,-87
2021-09-22 19:46:54.650730,-92
2021-09-22 19:46:54.650736,-92
2021-09-22 19:46:54.650741,-82
2021-09-22 19:46:54.650747,-77
2021-09-22 19:46:54.650753,-72
2021-09-22 19:46:54.650758,-70
2021-09-22 19:46:54.650764,-75
2021-09-22 19:46:54.650770,-82
2021-09-22 19:46:54.650775,-75
2021-09-22 19:46:54.650781,-65
2021-09-22 19:46:54.650787,-63
2021-09-22 19:46:54.650793,-60
2021-09-22 19:46:54.650798,-60
2021-09-22 19:46:54.650804,-58
2021-09-22 19:46:54.650810,-51
2021-09-22 19:46:54.650815,-51
2021-09-22 19:46:54.875551,-51
2021-09-22 19:46:54.875571,-48
2021-09-22 19:46:54.875578,-34
2021-09-22 19:46:54.875584,-17
2021-09-22 19:46:54.875590,-17
2021-09-22 19:46:54.875596,-21
2021-09-22 19:46:54.875602,-9
2021-09-22 19:46:54.875607,-14
2021-09-22 19:46:54.875613,-46
2021-09-22 19:46:54.875619,-60
2021-09-22 19:46:54.875625,-58
2021-09-22 19:46:54.875630,-55
2021-09-22 19:46:54.875636,-55
2021-09-22 19:46:54.875642,-60
2021-09-22 19:46:54.875648,-65
2021-09-22 19:46:54.875653,-65
2021-09-22 19:46:54.875659,-63
2021-09-22 19:46:54.875665,-48
2021-09-22 19:46:54.875670,-2
2021-09-22 19:46:54.875676,114
2021-09-22 19:46:54.875682,343
2021-09-22 19:46:54.875688,532
2021-09-22 19:46:54.875693,343
2021-09-22 19:46:54.875699,-199
2021-09-22 19:46:54.875705,-666
2021-09-22 19:46:54.875710,-700
2021-09-22 19:46:54.875716,-335
2021-09-22 19:46:54.875722,-75
2021-09-22 19:46:54.875727,-51
2021-09-22 19:46:54.875733,26
2021-09-22 19:46:55.144297,104
2021-09-22 19:46:55.144318,85
2021-09-22 19:46:55.144326,85
2021-09-22 19:46:55.144332,111
2021-09-22 19:46:55.144338,116
2021-09-22 19:46:55.144344,124
2021-09-22 19:46:55.144350,133
2021-09-22 19:46:55.144356,138
2021-09-22 19:46:55.144362,153
2021-09-22 19:46:55.144368,170
2021-09-22 19:46:55.144373,184
2021-09-22 19:46:55.144379,201
2021-09-22 19:46:55.144385,216
2021-09-22 19:46:55.144391,233
2021-09-22 19:46:55.144397,257
2021-09-22 19:46:55.144403,284
2021-09-22 19:46:55.144408,313
2021-09-22 19:46:55.144414,345
2021-09-22 19:46:55.144420,367
2021-09-22 19:46:55.144425,382
2021-09-22 19:46:55.144431,389
2021-09-22 19:46:55.144437,384
2021-09-22 19:46:55.144443,367
2021-09-22 19:46:55.144448,333
2021-09-22 19:46:55.144454,272
2021-09-22 19:46:55.144460,180
2021-09-22 19:46:55.144465,72
2021-09-22 19:46:55.144471,-31
2021-09-22 19:46:55.144477,-107
2021-09-22 19:46:55.144483,-163
2021-09-22 19:46:55.325602,-209
2021-09-22 19:46:55.325622,-231
2021-09-22 19:46:55.325629,-236
2021-09-22 19:46:55.325635,-240
2021-09-22 19:46:55.325641,-240
2021-09-22 19:46:55.325647,-243
2021-09-22 19:46:55.325653,-238
2021-09-22 19:46:55.325659,-221
2021-09-22 19:46:55.325665,-201
2021-09-22 19:46:55.325670,-189
2021-09-22 19:46:55.325676,-175
2021-09-22 19:46:55.325682,-165
2021-09-22 19:46:55.325687,-163
2021-09-22 19:46:55.325693,-148
2021-09-22 19:46:55.325699,-136
2021-09-22 19:46:55.325705,-131
2021-09-22 19:46:55.325710,-124
2021-09-22 19:46:55.325716,-116
2021-09-22 19:46:55.325722,-114
2021-09-22 19:46:55.325728,-107
2021-09-22 19:46:55.325733,-104
2021-09-22 19:46:55.325739,-104
2021-09-22 19:46:55.325745,-102
2021-09-22 19:46:55.325750,-97
2021-09-22 19:46:55.325756,-97
2021-09-22 19:46:55.325762,-92
2021-09-22 19:46:55.325768,-90
2021-09-22 19:46:55.325774,-87
2021-09-22 19:46:55.325779,-82
2021-09-22 19:46:55.325792,-80
2021-09-22 19:46:55.550641,-80
2021-09-22 19:46:55.550661,-72
2021-09-22 19:46:55.550669,-70
2021-09-22 19:46:55.550675,-70
2021-09-22 19:46:55.550681,-72
2021-09-22 19:46:55.550687,-75
2021-09-22 19:46:55.550693,-77
2021-09-22 19:46:55.550699,-75
2021-09-22 19:46:55.550705,-72
2021-09-22 19:46:55.550710,-68
2021-09-22 19:46:55.550716,-65
2021-09-22 19:46:55.550722,-72
2021-09-22 19:46:55.550728,-68
2021-09-22 19:46:55.550734,-55
2021-09-22 19:46:55.550739,-53
2021-09-22 19:46:55.550745,-53
2021-09-22 19:46:55.550751,-53
2021-09-22 19:46:55.550757,-48
2021-09-22 19:46:55.550762,-29
2021-09-22 19:46:55.550768,-2
2021-09-22 19:46:55.550774,-2
2021-09-22 19:46:55.550780,-12
2021-09-22 19:46:55.550786,-4
2021-09-22 19:46:55.550792,-2
2021-09-22 19:46:55.550797,-21
2021-09-22 19:46:55.550803,-38
2021-09-22 19:46:55.550808,-43
2021-09-22 19:46:55.550814,-43
2021-09-22 19:46:55.550820,-38
2021-09-22 19:46:55.550825,-34
2021-09-22 19:46:55.775615,-34
2021-09-22 19:46:55.775635,-36
2021-09-22 19:46:55.775642,-43
2021-09-22 19:46:55.775648,-43
2021-09-22 19:46:55.775654,-7
2021-09-22 19:46:55.775660,111
2021-09-22 19:46:55.775666,352
2021-09-22 19:46:55.775672,549
2021-09-22 19:46:55.775677,355
2021-09-22 19:46:55.775683,-199
2021-09-22 19:46:55.775689,-681
2021-09-22 19:46:55.775695,-708
2021-09-22 19:46:55.775701,-338
2021-09-22 19:46:55.775707,-90
2021-09-22 19:46:55.775713,-68
2021-09-22 19:46:55.775719,14
2021-09-22 19:46:55.775725,99
2021-09-22 19:46:55.775731,82
2021-09-22 19:46:55.775736,87
2021-09-22 19:46:55.775743,126
2021-09-22 19:46:55.775748,133
2021-09-22 19:46:55.775754,133
2021-09-22 19:46:55.775760,150
2021-09-22 19:46:55.775765,167
2021-09-22 19:46:55.775771,177
2021-09-22 19:46:55.775777,197
2021-09-22 19:46:55.775783,216
2021-09-22 19:46:55.775789,226
2021-09-22 19:46:55.775794,243
2021-09-22 19:46:55.775800,272
2021-09-22 19:46:56.090561,296
2021-09-22 19:46:56.090582,326
2021-09-22 19:46:56.090589,357
2021-09-22 19:46:56.090595,377
2021-09-22 19:46:56.090601,394
2021-09-22 19:46:56.090607,413
2021-09-22 19:46:56.090613,420
2021-09-22 19:46:56.090619,411
2021-09-22 19:46:56.090624,391
2021-09-22 19:46:56.090630,347
2021-09-22 19:46:56.090636,274
2021-09-22 19:46:56.090642,187
2021-09-22 19:46:56.090648,87
2021-09-22 19:46:56.090653,-7
2021-09-22 19:46:56.090659,-82
2021-09-22 19:46:56.090665,-143
2021-09-22 19:46:56.090671,-184
2021-09-22 19:46:56.090676,-204
2021-09-22 19:46:56.090682,-214
2021-09-22 19:46:56.090688,-214
2021-09-22 19:46:56.090694,-206
2021-09-22 19:46:56.090700,-201
2021-09-22 19:46:56.090705,-189
2021-09-22 19:46:56.090711,-170
2021-09-22 19:46:56.090717,-155
2021-09-22 19:46:56.090723,-143
2021-09-22 19:46:56.090728,-131
2021-09-22 19:46:56.090734,-121
2021-09-22 19:46:56.090740,-111
2021-09-22 19:46:56.090746,-99
2021-09-22 19:46:56.270639,-90
2021-09-22 19:46:56.270660,-82
2021-09-22 19:46:56.270667,-77
2021-09-22 19:46:56.270673,-80
2021-09-22 19:46:56.270679,-80
2021-09-22 19:46:56.270685,-72
2021-09-22 19:46:56.270691,-68
2021-09-22 19:46:56.270697,-63
2021-09-22 19:46:56.270703,-70
2021-09-22 19:46:56.270708,-82
2021-09-22 19:46:56.270714,-80
2021-09-22 19:46:56.270720,-68
2021-09-22 19:46:56.270726,-70
2021-09-22 19:46:56.270731,-77
2021-09-22 19:46:56.270737,-77
2021-09-22 19:46:56.270743,-70
2021-09-22 19:46:56.270749,-65
2021-09-22 19:46:56.270755,-65
2021-09-22 19:46:56.270761,-63
2021-09-22 19:46:56.270767,-60
2021-09-22 19:46:56.270773,-60
2021-09-22 19:46:56.270778,-60
2021-09-22 19:46:56.270784,-55
2021-09-22 19:46:56.270790,-48
2021-09-22 19:46:56.270796,-43
2021-09-22 19:46:56.270801,-41
2021-09-22 19:46:56.270807,-41
2021-09-22 19:46:56.270813,-43
2021-09-22 19:46:56.270818,-41
2021-09-22 19:46:56.270824,-29
2021-09-22 19:46:56.540754,-7
2021-09-22 19:46:56.540776,9
2021-09-22 19:46:56.540783,9
2021-09-22 19:46:56.540789,7
2021-09-22 19:46:56.540795,17
2021-09-22 19:46:56.540801,17
2021-09-22 19:46:56.540807,-4
2021-09-22 19:46:56.540813,-26
2021-09-22 19:46:56.540819,-38
2021-09-22 19:46:56.540825,-38
2021-09-22 19:46:56.540830,-36
2021-09-22 19:46:56.540836,-31
2021-09-22 19:46:56.540842,-26
2021-09-22 19:46:56.540847,-29
2021-09-22 19:46:56.540855,-31
2021-09-22 19:46:56.540860,-19
2021-09-22 19:46:56.540866,34
2021-09-22 19:46:56.540872,141
2021-09-22 19:46:56.540878,326
2021-09-22 19:46:56.540883,486
2021-09-22 19:46:56.540889,313
2021-09-22 19:46:56.540895,-199
2021-09-22 19:46:56.540900,-661
2021-09-22 19:46:56.540906,-703
2021-09-22 19:46:56.540912,-343
2021-09-22 19:46:56.540918,-77
2021-09-22 19:46:56.540924,-53
2021-09-22 19:46:56.540929,21
2021-09-22 19:46:56.540935,121
2021-09-22 19:46:56.540940,121
2021-09-22 19:46:56.720489,116
2021-09-22 19:46:56.720508,145
2021-09-22 19:46:56.720515,153
2021-09-22 19:46:56.720521,153
2021-09-22 19:46:56.720527,170
2021-09-22 19:46:56.720533,182
2021-09-22 19:46:56.720539,189
2021-09-22 19:46:56.720544,201
2021-09-22 19:46:56.720550,211
2021-09-22 19:46:56.720556,223
2021-09-22 19:46:56.720562,248
2021-09-22 19:46:56.720567,277
2021-09-22 19:46:56.720573,304
2021-09-22 19:46:56.720579,333
2021-09-22 19:46:56.720585,352
2021-09-22 19:46:56.720590,369
2021-09-22 19:46:56.720596,394
2021-09-22 19:46:56.720602,411
2021-09-22 19:46:56.720608,403
2021-09-22 19:46:56.720613,389
2021-09-22 19:46:56.720619,367
2021-09-22 19:46:56.720625,323
2021-09-22 19:46:56.720630,255
2021-09-22 19:46:56.720636,165
2021-09-22 19:46:56.720641,65
2021-09-22 19:46:56.720647,-26
2021-09-22 19:46:56.720653,-99
2021-09-22 19:46:56.720659,-153
2021-09-22 19:46:56.720664,-192
2021-09-22 19:46:56.720670,-211
2021-09-22 19:46:56.945639,-221
2021-09-22 19:46:56.945660,-223
2021-09-22 19:46:56.945667,-218
2021-09-22 19:46:56.945673,-211
2021-09-22 19:46:56.945679,-201
2021-09-22 19:46:56.945685,-184
2021-09-22 19:46:56.945690,-177
2021-09-22 19:46:56.945696,-172
2021-09-22 19:46:56.945702,-158
2021-09-22 19:46:56.945708,-143
2021-09-22 19:46:56.945714,-136
2021-09-22 19:46:56.945719,-126
2021-09-22 19:46:56.945725,-121
2021-09-22 19:46:56.945731,-124
2021-09-22 19:46:56.945737,-116
2021-09-22 19:46:56.945743,-107
2021-09-22 19:46:56.945749,-104
2021-09-22 19:46:56.945755,-102
2021-09-22 19:46:56.945760,-97
2021-09-22 19:46:56.945766,-97
2021-09-22 19:46:56.945772,-102
2021-09-22 19:46:56.945777,-99
2021-09-22 19:46:56.945783,-92
2021-09-22 19:46:56.945789,-92
2021-09-22 19:46:56.945794,-92
2021-09-22 19:46:56.945800,-90
2021-09-22 19:46:56.945806,-87
2021-09-22 19:46:56.945812,-87
2021-09-22 19:46:56.945821,-82
2021-09-22 19:46:56.945827,-75
2021-09-22 19:46:57.214235,-77
2021-09-22 19:46:57.214255,-77
2021-09-22 19:46:57.214262,-70
2021-09-22 19:46:57.214268,-65
2021-09-22 19:46:57.214274,-63
2021-09-22 19:46:57.214280,-65
2021-09-22 19:46:57.214286,-68
2021-09-22 19:46:57.214292,-68
2021-09-22 19:46:57.214298,-68
2021-09-22 19:46:57.214304,-65
2021-09-22 19:46:57.214309,-51
2021-09-22 19:46:57.214316,-29
2021-09-22 19:46:57.214321,-24
2021-09-22 19:46:57.214327,-29
2021-09-22 19:46:57.214333,-21
2021-09-22 19:46:57.214339,-14
2021-09-22 19:46:57.214345,-29
2021-09-22 19:46:57.214351,-48
2021-09-22 19:46:57.214357,-60
2021-09-22 19:46:57.214363,-68
2021-09-22 19:46:57.214369,-72
2021-09-22 19:46:57.214375,-77
2021-09-22 19:46:57.214381,-80
2021-09-22 19:46:57.214386,-80
2021-09-22 19:46:57.214392,-77
2021-09-22 19:46:57.214397,-58
2021-09-22 19:46:57.214403,-4
2021-09-22 19:46:57.214409,90
2021-09-22 19:46:57.214415,265
2021-09-22 19:46:57.214421,462
2021-09-22 19:46:57.395578,374
2021-09-22 19:46:57.395598,-77
2021-09-22 19:46:57.395605,-574
2021-09-22 19:46:57.395611,-749
2021-09-22 19:46:57.395617,-469
2021-09-22 19:46:57.395623,-150
2021-09-22 19:46:57.395629,-97
2021-09-22 19:46:57.395635,-43
2021-09-22 19:46:57.395641,72
2021-09-22 19:46:57.395646,82
2021-09-22 19:46:57.395652,60
2021-09-22 19:46:57.395658,85
2021-09-22 19:46:57.395664,99
2021-09-22 19:46:57.395670,107
2021-09-22 19:46:57.395676,121
2021-09-22 19:46:57.395682,133
2021-09-22 19:46:57.395688,138
2021-09-22 19:46:57.395694,153
2021-09-22 19:46:57.395699,172
2021-09-22 19:46:57.395705,189
2021-09-22 19:46:57.395711,204
2021-09-22 19:46:57.395716,228
2021-09-22 19:46:57.395722,255
2021-09-22 19:46:57.395728,282
2021-09-22 19:46:57.395734,304
2021-09-22 19:46:57.395740,335
2021-09-22 19:46:57.395745,364
2021-09-22 19:46:57.395751,382
2021-09-22 19:46:57.395757,386
2021-09-22 19:46:57.395763,384
2021-09-22 19:46:57.620650,364
2021-09-22 19:46:57.620671,328
2021-09-22 19:46:57.620678,267
2021-09-22 19:46:57.620684,175
2021-09-22 19:46:57.620690,65
2021-09-22 19:46:57.620696,-36
2021-09-22 19:46:57.620702,-111
2021-09-22 19:46:57.620708,-167
2021-09-22 19:46:57.620714,-209
2021-09-22 19:46:57.620720,-236
2021-09-22 19:46:57.620725,-253
2021-09-22 19:46:57.620732,-257
2021-09-22 19:46:57.620737,-250
2021-09-22 19:46:57.620743,-238
2021-09-22 19:46:57.620749,-228
2021-09-22 19:46:57.620755,-218
2021-09-22 19:46:57.620761,-209
2021-09-22 19:46:57.620766,-194
2021-09-22 19:46:57.620772,-177
2021-09-22 19:46:57.620778,-163
2021-09-22 19:46:57.620784,-155
2021-09-22 19:46:57.620789,-143
2021-09-22 19:46:57.620795,-136
2021-09-22 19:46:57.620801,-128
2021-09-22 19:46:57.620807,-116
2021-09-22 19:46:57.620812,-116
2021-09-22 19:46:57.620818,-124
2021-09-22 19:46:57.620824,-124
2021-09-22 19:46:57.620830,-114
2021-09-22 19:46:57.620835,-109
2021-09-22 19:46:57.845560,-109
2021-09-22 19:46:57.845580,-104
2021-09-22 19:46:57.845587,-104
2021-09-22 19:46:57.845593,-109
2021-09-22 19:46:57.845599,-114
2021-09-22 19:46:57.845605,-109
2021-09-22 19:46:57.845611,-102
2021-09-22 19:46:57.845617,-99
2021-09-22 19:46:57.845623,-97
2021-09-22 19:46:57.845629,-99
2021-09-22 19:46:57.845635,-99
2021-09-22 19:46:57.845640,-92
2021-09-22 19:46:57.845646,-85
2021-09-22 19:46:57.845652,-85
2021-09-22 19:46:57.845658,-82
2021-09-22 19:46:57.845663,-82
2021-09-22 19:46:57.845669,-80
2021-09-22 19:46:57.845675,-72
2021-09-22 19:46:57.845681,-65
2021-09-22 19:46:57.845687,-63
2021-09-22 19:46:57.845692,-65
2021-09-22 19:46:57.845698,-70
2021-09-22 19:46:57.845704,-68
2021-09-22 19:46:57.845710,-48
2021-09-22 19:46:57.845716,-21
2021-09-22 19:46:57.845721,-9
2021-09-22 19:46:57.845727,-17
2021-09-22 19:46:57.845733,-17
2021-09-22 19:46:57.845739,-14
2021-09-22 19:46:57.845744,-26
2021-09-22 19:46:58.115627,-41
2021-09-22 19:46:58.115648,-48
2021-09-22 19:46:58.115655,-55
2021-09-22 19:46:58.115662,-60
2021-09-22 19:46:58.115668,-60
2021-09-22 19:46:58.115673,-53
2021-09-22 19:46:58.115679,-51
2021-09-22 19:46:58.115685,-51
2021-09-22 19:46:58.115691,-51
2021-09-22 19:46:58.115697,-21
2021-09-22 19:46:58.115702,70
2021-09-22 19:46:58.115708,253
2021-09-22 19:46:58.115714,481
2021-09-22 19:46:58.115719,452
2021-09-22 19:46:58.115725,29
2021-09-22 19:46:58.115731,-486
2021-09-22 19:46:58.115737,-739
2021-09-22 19:46:58.115743,-530
2021-09-22 19:46:58.115749,-160
2021-09-22 19:46:58.115754,-58
2021-09-22 19:46:58.115760,-38
2021-09-22 19:46:58.115766,63
2021-09-22 19:46:58.115772,90
2021-09-22 19:46:58.115777,70
2021-09-22 19:46:58.115783,97
2021-09-22 19:46:58.115789,121
2021-09-22 19:46:58.115795,116
2021-09-22 19:46:58.115801,124
2021-09-22 19:46:58.115807,141
2021-09-22 19:46:58.115812,150
2021-09-22 19:46:58.385045,153
2021-09-22 19:46:58.385065,158
2021-09-22 19:46:58.385072,167
2021-09-22 19:46:58.385078,182
2021-09-22 19:46:58.385084,206
2021-09-22 19:46:58.385090,233
2021-09-22 19:46:58.385096,265
2021-09-22 19:46:58.385102,296
2021-09-22 19:46:58.385108,318
2021-09-22 19:46:58.385114,340
2021-09-22 19:46:58.385119,367
2021-09-22 19:46:58.385125,386
2021-09-22 19:46:58.385131,384
2021-09-22 19:46:58.385137,372
2021-09-22 19:46:58.385142,335
2021-09-22 19:46:58.385149,277
2021-09-22 19:46:58.385154,199
2021-09-22 19:46:58.385160,99
2021-09-22 19:46:58.385166,-4
2021-09-22 19:46:58.385172,-92
2021-09-22 19:46:58.385178,-160
2021-09-22 19:46:58.385184,-211
2021-09-22 19:46:58.385190,-238
2021-09-22 19:46:58.385195,-248
2021-09-22 19:46:58.385201,-250
2021-09-22 19:46:58.385207,-250
2021-09-22 19:46:58.385213,-248
2021-09-22 19:46:58.385218,-238
2021-09-22 19:46:58.385224,-221
2021-09-22 19:46:58.385229,-206
2021-09-22 19:46:58.610613,-194
2021-09-22 19:46:58.610635,-180
2021-09-22 19:46:58.610642,-172
2021-09-22 19:46:58.610648,-163
2021-09-22 19:46:58.610654,-148
2021-09-22 19:46:58.610660,-133
2021-09-22 19:46:58.610666,-126
2021-09-22 19:46:58.610672,-124
2021-09-22 19:46:58.610678,-124
2021-09-22 19:46:58.610684,-116
2021-09-22 19:46:58.610690,-107
2021-09-22 19:46:58.610696,-102
2021-09-22 19:46:58.610702,-99
2021-09-22 19:46:58.610708,-104
2021-09-22 19:46:58.610713,-109
2021-09-22 19:46:58.610719,-107
2021-09-22 19:46:58.610725,-102
2021-09-22 19:46:58.610730,-99
2021-09-22 19:46:58.610736,-99
2021-09-22 19:46:58.610742,-97
2021-09-22 19:46:58.610748,-99
2021-09-22 19:46:58.610754,-94
2021-09-22 19:46:58.610760,-87
2021-09-22 19:46:58.610765,-82
2021-09-22 19:46:58.610771,-77
2021-09-22 19:46:58.610777,-77
2021-09-22 19:46:58.610783,-72
2021-09-22 19:46:58.610789,-70
2021-09-22 19:46:58.610794,-63
2021-09-22 19:46:58.610800,-58
2021-09-22 19:46:58.835536,-55
2021-09-22 19:46:58.835554,-53
2021-09-22 19:46:58.835561,-51
2021-09-22 19:46:58.835567,-53
2021-09-22 19:46:58.835573,-58
2021-09-22 19:46:58.835579,-58
2021-09-22 19:46:58.835584,-55
2021-09-22 19:46:58.835590,-51
2021-09-22 19:46:58.835596,-41
2021-09-22 19:46:58.835602,-24
2021-09-22 19:46:58.835608,-19
2021-09-22 19:46:58.835614,-21
2021-09-22 19:46:58.835619,-14
2021-09-22 19:46:58.835625,-24
2021-09-22 19:46:58.835631,-48
2021-09-22 19:46:58.835637,-58
2021-09-22 19:46:58.835642,-58
2021-09-22 19:46:58.835648,-53
2021-09-22 19:46:58.835654,-55
2021-09-22 19:46:58.835659,-58
2021-09-22 19:46:58.835665,-55
2021-09-22 19:46:58.835671,-48
2021-09-22 19:46:58.835677,-46
2021-09-22 19:46:58.835686,-26
2021-09-22 19:46:58.835692,31
2021-09-22 19:46:58.835698,163
2021-09-22 19:46:58.835704,399
2021-09-22 19:46:58.835709,545
2021-09-22 19:46:58.835715,294
2021-09-22 19:46:58.835721,-228
2021-09-22 19:46:59.060011,-654
2021-09-22 19:46:59.060030,-674
2021-09-22 19:46:59.060037,-301
2021-09-22 19:46:59.060043,-51
2021-09-22 19:46:59.060049,-41
2021-09-22 19:46:59.060055,29
2021-09-22 19:46:59.060062,102
2021-09-22 19:46:59.060067,77
2021-09-22 19:46:59.060073,85
2021-09-22 19:46:59.060079,116
2021-09-22 19:46:59.060085,116
2021-09-22 19:46:59.060091,119
2021-09-22 19:46:59.060097,131
2021-09-22 19:46:59.060102,138
2021-09-22 19:46:59.060108,153
2021-09-22 19:46:59.060114,167
2021-09-22 19:46:59.060120,182
2021-09-22 19:46:59.060126,194
2021-09-22 19:46:59.060132,206
2021-09-22 19:46:59.060137,228
2021-09-22 19:46:59.060143,260
2021-09-22 19:46:59.060149,289
2021-09-22 19:46:59.060155,316
2021-09-22 19:46:59.060160,347
2021-09-22 19:46:59.060166,372
2021-09-22 19:46:59.060172,389
2021-09-22 19:46:59.060178,399
2021-09-22 19:46:59.060184,391
2021-09-22 19:46:59.060190,372
2021-09-22 19:46:59.060195,330
2021-09-22 19:46:59.284245,262
2021-09-22 19:46:59.284266,167
2021-09-22 19:46:59.284273,63
2021-09-22 19:46:59.284279,-34
2021-09-22 19:46:59.284285,-111
2021-09-22 19:46:59.284291,-177
2021-09-22 19:46:59.284297,-221
2021-09-22 19:46:59.284302,-240
2021-09-22 19:46:59.284308,-253
2021-09-22 19:46:59.284314,-260
2021-09-22 19:46:59.284320,-253
2021-09-22 19:46:59.284326,-248
2021-09-22 19:46:59.284331,-245
2021-09-22 19:46:59.284337,-238
2021-09-22 19:46:59.284343,-226
2021-09-22 19:46:59.284349,-211
2021-09-22 19:46:59.284355,-197
2021-09-22 19:46:59.284361,-184
2021-09-22 19:46:59.284367,-170
2021-09-22 19:46:59.284373,-155
2021-09-22 19:46:59.284378,-143
2021-09-22 19:46:59.284384,-136
2021-09-22 19:46:59.284390,-128
2021-09-22 19:46:59.284396,-124
2021-09-22 19:46:59.284402,-119
2021-09-22 19:46:59.284407,-109
2021-09-22 19:46:59.284413,-104
2021-09-22 19:46:59.284419,-107
2021-09-22 19:46:59.284424,-104
2021-09-22 19:46:59.284430,-102
2021-09-22 19:46:59.465566,-99
2021-09-22 19:46:59.465586,-97
2021-09-22 19:46:59.465593,-94
2021-09-22 19:46:59.465599,-94
2021-09-22 19:46:59.465605,-97
2021-09-22 19:46:59.465611,-99
2021-09-22 19:46:59.465617,-94
2021-09-22 19:46:59.465623,-87
2021-09-22 19:46:59.465629,-85
2021-09-22 19:46:59.465634,-85
2021-09-22 19:46:59.465640,-90
2021-09-22 19:46:59.465646,-92
2021-09-22 19:46:59.465652,-85
2021-09-22 19:46:59.465658,-77
2021-09-22 19:46:59.465663,-75
2021-09-22 19:46:59.465669,-75
2021-09-22 19:46:59.465675,-70
2021-09-22 19:46:59.465680,-68
2021-09-22 19:46:59.465686,-60
2021-09-22 19:46:59.465692,-58
2021-09-22 19:46:59.465697,-53
2021-09-22 19:46:59.465703,-53
2021-09-22 19:46:59.465709,-55
2021-09-22 19:46:59.465715,-53
2021-09-22 19:46:59.465720,-41
2021-09-22 19:46:59.465726,-19
2021-09-22 19:46:59.465732,-2
2021-09-22 19:46:59.465737,-9
2021-09-22 19:46:59.465743,-12
2021-09-22 19:46:59.465749,4
2021-09-22 19:46:59.690679,0
2021-09-22 19:46:59.690697,-21
2021-09-22 19:46:59.690704,-36
2021-09-22 19:46:59.690710,-43
2021-09-22 19:46:59.690717,-51
2021-09-22 19:46:59.690723,-46
2021-09-22 19:46:59.690729,-41
2021-09-22 19:46:59.690735,-38
2021-09-22 19:46:59.690741,-41
2021-09-22 19:46:59.690747,-43
2021-09-22 19:46:59.690752,-36
2021-09-22 19:46:59.690758,12
2021-09-22 19:46:59.690764,128
2021-09-22 19:46:59.690769,350
2021-09-22 19:46:59.690775,540
2021-09-22 19:46:59.690781,357
2021-09-22 19:46:59.690787,-167
2021-09-22 19:46:59.690792,-632
2021-09-22 19:46:59.690798,-705
2021-09-22 19:46:59.690804,-364
2021-09-22 19:46:59.690810,-92
2021-09-22 19:46:59.690816,-70
2021-09-22 19:46:59.690821,-4
2021-09-22 19:46:59.690827,77
2021-09-22 19:46:59.690833,65
2021-09-22 19:46:59.690838,68
2021-09-22 19:46:59.690844,102
2021-09-22 19:46:59.690850,104
2021-09-22 19:46:59.690856,107
2021-09-22 19:46:59.690862,128
2021-09-22 19:46:59.960579,143
2021-09-22 19:46:59.960598,150
2021-09-22 19:46:59.960605,163
2021-09-22 19:46:59.960611,170
2021-09-22 19:46:59.960617,180
2021-09-22 19:46:59.960623,206
2021-09-22 19:46:59.960629,233
2021-09-22 19:46:59.960635,255
2021-09-22 19:46:59.960640,282
2021-09-22 19:46:59.960646,304
2021-09-22 19:46:59.960652,328
2021-09-22 19:46:59.960658,360
2021-09-22 19:46:59.960663,382
2021-09-22 19:46:59.960669,386
2021-09-22 19:46:59.960675,374
2021-09-22 19:46:59.960680,347
2021-09-22 19:46:59.960686,316
2021-09-22 19:46:59.960692,262
2021-09-22 19:46:59.960698,177
2021-09-22 19:46:59.960704,75
2021-09-22 19:46:59.960709,-24
2021-09-22 19:46:59.960715,-107
2021-09-22 19:46:59.960721,-165
2021-09-22 19:46:59.960726,-201
2021-09-22 19:46:59.960732,-223
2021-09-22 19:46:59.960738,-236
2021-09-22 19:46:59.960744,-240
2021-09-22 19:46:59.960749,-240
2021-09-22 19:46:59.960755,-231
2021-09-22 19:46:59.960761,-214
2021-09-22 19:47:00.185737,-197
2021-09-22 19:47:00.185758,-184
2021-09-22 19:47:00.185765,-175
2021-09-22 19:47:00.185771,-165
2021-09-22 19:47:00.185776,-148
2021-09-22 19:47:00.185782,-131
2021-09-22 19:47:00.185788,-121
2021-09-22 19:47:00.185794,-114
2021-09-22 19:47:00.185800,-114
2021-09-22 19:47:00.185806,-116
2021-09-22 19:47:00.185812,-107
2021-09-22 19:47:00.185817,-94
2021-09-22 19:47:00.185823,-92
2021-09-22 19:47:00.185829,-94
2021-09-22 19:47:00.185835,-99
2021-09-22 19:47:00.185840,-107
2021-09-22 19:47:00.185846,-107
2021-09-22 19:47:00.185852,-104
2021-09-22 19:47:00.185858,-102
2021-09-22 19:47:00.185863,-97
2021-09-22 19:47:00.185869,-99
2021-09-22 19:47:00.185875,-99
2021-09-22 19:47:00.185881,-94
2021-09-22 19:47:00.185886,-87
2021-09-22 19:47:00.185892,-85
2021-09-22 19:47:00.185898,-92
2021-09-22 19:47:00.185904,-102
2021-09-22 19:47:00.185909,-97
2021-09-22 19:47:00.185915,-85
2021-09-22 19:47:00.185921,-80
2021-09-22 19:47:00.410663,-75
2021-09-22 19:47:00.410683,-72
2021-09-22 19:47:00.410690,-72
2021-09-22 19:47:00.410696,-72
2021-09-22 19:47:00.410702,-63
2021-09-22 19:47:00.410709,-55
2021-09-22 19:47:00.410715,-55
2021-09-22 19:47:00.410720,-58
2021-09-22 19:47:00.410726,-60
2021-09-22 19:47:00.410732,-58
2021-09-22 19:47:00.410738,-51
2021-09-22 19:47:00.410743,-48
2021-09-22 19:47:00.410749,-48
2021-09-22 19:47:00.410755,-41
2021-09-22 19:47:00.410761,-29
2021-09-22 19:47:00.410767,-12
2021-09-22 19:47:00.410773,-9
2021-09-22 19:47:00.410779,-7
2021-09-22 19:47:00.410785,0
2021-09-22 19:47:00.410791,-7
2021-09-22 19:47:00.410796,-34
2021-09-22 19:47:00.410802,-51
2021-09-22 19:47:00.410808,-58
2021-09-22 19:47:00.410814,-53
2021-09-22 19:47:00.410820,-46
2021-09-22 19:47:00.410826,-46
2021-09-22 19:47:00.410831,-48
2021-09-22 19:47:00.410837,-48
2021-09-22 19:47:00.410843,-41
2021-09-22 19:47:00.410849,-24
2021-09-22 19:47:00.635656,21
2021-09-22 19:47:00.635677,128
2021-09-22 19:47:00.635685,335
2021-09-22 19:47:00.635691,540
2021-09-22 19:47:00.635697,403
2021-09-22 19:47:00.635703,-99
2021-09-22 19:47:00.635709,-601
2021-09-22 19:47:00.635715,-725
2021-09-22 19:47:00.635721,-394
2021-09-22 19:47:00.635727,-87
2021-09-22 19:47:00.635733,-48
2021-09-22 19:47:00.635739,14
2021-09-22 19:47:00.635745,104
2021-09-22 19:47:00.635751,87
2021-09-22 19:47:00.635757,75
2021-09-22 19:47:00.635763,116
2021-09-22 19:47:00.635769,128
2021-09-22 19:47:00.635775,128
2021-09-22 19:47:00.635781,145
2021-09-22 19:47:00.635787,160
2021-09-22 19:47:00.635792,165
2021-09-22 19:47:00.635798,172
2021-09-22 19:47:00.635804,192
2021-09-22 19:47:00.635810,211
2021-09-22 19:47:00.635816,226
2021-09-22 19:47:00.635822,248
2021-09-22 19:47:00.635828,274
2021-09-22 19:47:00.635834,301
2021-09-22 19:47:00.635840,333
2021-09-22 19:47:00.635846,367
2021-09-22 19:47:00.860702,389
2021-09-22 19:47:00.860722,399
2021-09-22 19:47:00.860729,394
2021-09-22 19:47:00.860735,386
2021-09-22 19:47:00.860741,379
2021-09-22 19:47:00.860748,350
2021-09-22 19:47:00.860754,284
2021-09-22 19:47:00.860760,197
2021-09-22 19:47:00.860766,102
2021-09-22 19:47:00.860771,2
2021-09-22 19:47:00.860777,-77
2021-09-22 19:47:00.860783,-138
2021-09-22 19:47:00.860789,-187
2021-09-22 19:47:00.860795,-216
2021-09-22 19:47:00.860801,-226
2021-09-22 19:47:00.860807,-228
2021-09-22 19:47:00.860813,-226
2021-09-22 19:47:00.860822,-214
2021-09-22 19:47:00.860828,-201
2021-09-22 19:47:00.860834,-187
2021-09-22 19:47:00.860839,-172
2021-09-22 19:47:00.860844,-158
2021-09-22 19:47:00.860850,-148
2021-09-22 19:47:00.860856,-141
2021-09-22 19:47:00.860861,-133
2021-09-22 19:47:00.860867,-121
2021-09-22 19:47:00.860873,-111
2021-09-22 19:47:00.860879,-107
2021-09-22 19:47:00.860885,-97
2021-09-22 19:47:00.860891,-85
2021-09-22 19:47:01.130049,-82
2021-09-22 19:47:01.130070,-77
2021-09-22 19:47:01.130077,-75
2021-09-22 19:47:01.130083,-77
2021-09-22 19:47:01.130089,-75
2021-09-22 19:47:01.130095,-77
2021-09-22 19:47:01.130101,-85
2021-09-22 19:47:01.130107,-80
2021-09-22 19:47:01.130113,-70
2021-09-22 19:47:01.130119,-70
2021-09-22 19:47:01.130125,-70
2021-09-22 19:47:01.130131,-72
2021-09-22 19:47:01.130137,-75
2021-09-22 19:47:01.130142,-68
2021-09-22 19:47:01.130148,-55
2021-09-22 19:47:01.130154,-55
2021-09-22 19:47:01.130160,-55
2021-09-22 19:47:01.130166,-51
2021-09-22 19:47:01.130172,-46
2021-09-22 19:47:01.130177,-41
2021-09-22 19:47:01.130183,-36
2021-09-22 19:47:01.130189,-38
2021-09-22 19:47:01.130195,-34
2021-09-22 19:47:01.130201,-31
2021-09-22 19:47:01.130207,-34
2021-09-22 19:47:01.130213,-38
2021-09-22 19:47:01.130219,-34
2021-09-22 19:47:01.130225,-26
2021-09-22 19:47:01.130231,-29
2021-09-22 19:47:01.130237,-26
2021-09-22 19:47:01.354373,-12
2021-09-22 19:47:01.354393,7
2021-09-22 19:47:01.354400,9
2021-09-22 19:47:01.354406,0
2021-09-22 19:47:01.354412,7
2021-09-22 19:47:01.354419,14
2021-09-22 19:47:01.354425,-4
2021-09-22 19:47:01.354431,-31
2021-09-22 19:47:01.354437,-43
2021-09-22 19:47:01.354442,-43
2021-09-22 19:47:01.354448,-43
2021-09-22 19:47:01.354454,-51
2021-09-22 19:47:01.354460,-51
2021-09-22 19:47:01.354466,-46
2021-09-22 19:47:01.354472,-51
2021-09-22 19:47:01.354478,-43
2021-09-22 19:47:01.354483,-2
2021-09-22 19:47:01.354489,77
2021-09-22 19:47:01.354495,221
2021-09-22 19:47:01.354501,435
2021-09-22 19:47:01.354507,474
2021-09-22 19:47:01.354513,111
2021-09-22 19:47:01.354519,-430
2021-09-22 19:47:01.354525,-729
2021-09-22 19:47:01.354531,-542
2021-09-22 19:47:01.354537,-167
2021-09-22 19:47:01.354542,-51
2021-09-22 19:47:01.354548,-36
2021-09-22 19:47:01.354554,77
2021-09-22 19:47:01.354560,131
2021-09-22 19:47:01.535711,104
2021-09-22 19:47:01.535730,121
2021-09-22 19:47:01.535737,148
2021-09-22 19:47:01.535744,148
2021-09-22 19:47:01.535750,148
2021-09-22 19:47:01.535756,160
2021-09-22 19:47:01.535762,177
2021-09-22 19:47:01.535768,194
2021-09-22 19:47:01.535774,206
2021-09-22 19:47:01.535780,216
2021-09-22 19:47:01.535786,231
2021-09-22 19:47:01.535792,248
2021-09-22 19:47:01.535798,272
2021-09-22 19:47:01.535804,306
2021-09-22 19:47:01.535811,338
2021-09-22 19:47:01.535817,364
2021-09-22 19:47:01.535822,389
2021-09-22 19:47:01.535828,411
2021-09-22 19:47:01.535833,420
2021-09-22 19:47:01.535838,418
2021-09-22 19:47:01.535843,408
2021-09-22 19:47:01.535848,377
2021-09-22 19:47:01.535854,326
2021-09-22 19:47:01.535860,255
2021-09-22 19:47:01.535865,160
2021-09-22 19:47:01.535870,60
2021-09-22 19:47:01.535876,-26
2021-09-22 19:47:01.535885,-97
2021-09-22 19:47:01.535891,-150
2021-09-22 19:47:01.535933,-184
2021-09-22 19:47:01.805635,-199
2021-09-22 19:47:01.805656,-204
2021-09-22 19:47:01.805664,-209
2021-09-22 19:47:01.805670,-214
2021-09-22 19:47:01.805676,-204
2021-09-22 19:47:01.805682,-184
2021-09-22 19:47:01.805688,-170
2021-09-22 19:47:01.805694,-160
2021-09-22 19:47:01.805700,-150
2021-09-22 19:47:01.805706,-143
2021-09-22 19:47:01.805712,-138
2021-09-22 19:47:01.805717,-128
2021-09-22 19:47:01.805723,-119
2021-09-22 19:47:01.805729,-119
2021-09-22 19:47:01.805735,-121
2021-09-22 19:47:01.805741,-119
2021-09-22 19:47:01.805748,-111
2021-09-22 19:47:01.805753,-104
2021-09-22 19:47:01.805759,-99
2021-09-22 19:47:01.805765,-97
2021-09-22 19:47:01.805771,-92
2021-09-22 19:47:01.805777,-94
2021-09-22 19:47:01.805783,-94
2021-09-22 19:47:01.805789,-92
2021-09-22 19:47:01.805794,-87
2021-09-22 19:47:01.805800,-85
2021-09-22 19:47:01.805806,-80
2021-09-22 19:47:01.805812,-80
2021-09-22 19:47:01.805818,-80
2021-09-22 19:47:01.805824,-77
2021-09-22 19:47:02.030633,-75
2021-09-22 19:47:02.030653,-75
2021-09-22 19:47:02.030660,-75
2021-09-22 19:47:02.030666,-75
2021-09-22 19:47:02.030672,-72
2021-09-22 19:47:02.030679,-65
2021-09-22 19:47:02.030685,-60
2021-09-22 19:47:02.030691,-58
2021-09-22 19:47:02.030697,-60
2021-09-22 19:47:02.030703,-65
2021-09-22 19:47:02.030709,-63
2021-09-22 19:47:02.030714,-55
2021-09-22 19:47:02.030720,-53
2021-09-22 19:47:02.030726,-53
2021-09-22 19:47:02.030732,-58
2021-09-22 19:47:02.030738,-55
2021-09-22 19:47:02.030744,-34
2021-09-22 19:47:02.030750,-24
2021-09-22 19:47:02.030756,-29
2021-09-22 19:47:02.030761,-21
2021-09-22 19:47:02.030767,-24
2021-09-22 19:47:02.030773,-46
2021-09-22 19:47:02.030779,-65
2021-09-22 19:47:02.030785,-68
2021-09-22 19:47:02.030791,-58
2021-09-22 19:47:02.030796,-55
2021-09-22 19:47:02.030802,-65
2021-09-22 19:47:02.030808,-75
2021-09-22 19:47:02.030814,-72
2021-09-22 19:47:02.030820,-65
2021-09-22 19:47:02.300651,-41
2021-09-22 19:47:02.300672,24
2021-09-22 19:47:02.300680,131
2021-09-22 19:47:02.300686,316
2021-09-22 19:47:02.300692,452
2021-09-22 19:47:02.300698,236
2021-09-22 19:47:02.300704,-262
2021-09-22 19:47:02.300710,-674
2021-09-22 19:47:02.300716,-705
2021-09-22 19:47:02.300722,-355
2021-09-22 19:47:02.300728,-99
2021-09-22 19:47:02.300734,-80
2021-09-22 19:47:02.300740,4
2021-09-22 19:47:02.300746,99
2021-09-22 19:47:02.300751,82
2021-09-22 19:47:02.300757,72
2021-09-22 19:47:02.300763,107
2021-09-22 19:47:02.300769,114
2021-09-22 19:47:02.300775,114
2021-09-22 19:47:02.300781,119
2021-09-22 19:47:02.300787,124
2021-09-22 19:47:02.300793,133
2021-09-22 19:47:02.300799,153
2021-09-22 19:47:02.300804,172
2021-09-22 19:47:02.300810,189
2021-09-22 19:47:02.300816,206
2021-09-22 19:47:02.300822,228
2021-09-22 19:47:02.300828,253
2021-09-22 19:47:02.300834,284
2021-09-22 19:47:02.300840,316
2021-09-22 19:47:02.525604,345
2021-09-22 19:47:02.525623,367
2021-09-22 19:47:02.525630,379
2021-09-22 19:47:02.525637,384
2021-09-22 19:47:02.525643,374
2021-09-22 19:47:02.525649,347
2021-09-22 19:47:02.525655,304
2021-09-22 19:47:02.525661,233
2021-09-22 19:47:02.525667,138
2021-09-22 19:47:02.525673,41
2021-09-22 19:47:02.525679,-48
2021-09-22 19:47:02.525685,-124
2021-09-22 19:47:02.525690,-177
2021-09-22 19:47:02.525696,-218
2021-09-22 19:47:02.525703,-243
2021-09-22 19:47:02.525708,-250
2021-09-22 19:47:02.525714,-248
2021-09-22 19:47:02.525720,-243
2021-09-22 19:47:02.525726,-240
2021-09-22 19:47:02.525732,-233
2021-09-22 19:47:02.525738,-221
2021-09-22 19:47:02.525743,-206
2021-09-22 19:47:02.525749,-192
2021-09-22 19:47:02.525755,-180
2021-09-22 19:47:02.525761,-165
2021-09-22 19:47:02.525767,-155
2021-09-22 19:47:02.525773,-145
2021-09-22 19:47:02.525778,-136
2021-09-22 19:47:02.525784,-128
2021-09-22 19:47:02.525790,-121
2021-09-22 19:47:02.705734,-116
2021-09-22 19:47:02.705755,-111
2021-09-22 19:47:02.705762,-107
2021-09-22 19:47:02.705768,-104
2021-09-22 19:47:02.705774,-104
2021-09-22 19:47:02.705780,-102
2021-09-22 19:47:02.705786,-102
2021-09-22 19:47:02.705792,-104
2021-09-22 19:47:02.705798,-104
2021-09-22 19:47:02.705804,-102
2021-09-22 19:47:02.705810,-99
2021-09-22 19:47:02.705816,-97
2021-09-22 19:47:02.705821,-99
2021-09-22 19:47:02.705827,-102
2021-09-22 19:47:02.705833,-94
2021-09-22 19:47:02.705839,-90
2021-09-22 19:47:02.705845,-87
2021-09-22 19:47:02.705851,-85
2021-09-22 19:47:02.705857,-90
2021-09-22 19:47:02.705863,-92
2021-09-22 19:47:02.705869,-85
2021-09-22 19:47:02.705875,-80
2021-09-22 19:47:02.705880,-77
2021-09-22 19:47:02.705886,-77
2021-09-22 19:47:02.705892,-82
2021-09-22 19:47:02.705898,-82
2021-09-22 19:47:02.705904,-72
2021-09-22 19:47:02.705910,-72
2021-09-22 19:47:02.705915,-77
2021-09-22 19:47:02.705921,-72
2021-09-22 19:47:02.975710,-63
2021-09-22 19:47:02.975730,-43
2021-09-22 19:47:02.975737,-31
2021-09-22 19:47:02.975743,-38
2021-09-22 19:47:02.975750,-34
2021-09-22 19:47:02.975756,-26
2021-09-22 19:47:02.975762,-51
2021-09-22 19:47:02.975768,-72
2021-09-22 19:47:02.975773,-80
2021-09-22 19:47:02.975780,-87
2021-09-22 19:47:02.975786,-90
2021-09-22 19:47:02.975792,-90
2021-09-22 19:47:02.975798,-99
2021-09-22 19:47:02.975804,-102
2021-09-22 19:47:02.975810,-94
2021-09-22 19:47:02.975815,-80
2021-09-22 19:47:02.975821,-34
2021-09-22 19:47:02.975827,70
2021-09-22 19:47:02.975833,262
2021-09-22 19:47:02.975839,469
2021-09-22 19:47:02.975845,362
2021-09-22 19:47:02.975851,-99
2021-09-22 19:47:02.975857,-571
2021-09-22 19:47:02.975863,-754
2021-09-22 19:47:02.975869,-486
2021-09-22 19:47:02.975875,-133
2021-09-22 19:47:02.975880,-68
2021-09-22 19:47:02.975886,-34
2021-09-22 19:47:02.975892,75
2021-09-22 19:47:02.975898,87
2021-09-22 19:47:03.155671,68
2021-09-22 19:47:03.155692,104
2021-09-22 19:47:03.155699,126
2021-09-22 19:47:03.155705,119
2021-09-22 19:47:03.155711,131
2021-09-22 19:47:03.155717,143
2021-09-22 19:47:03.155723,148
2021-09-22 19:47:03.155729,163
2021-09-22 19:47:03.155735,180
2021-09-22 19:47:03.155741,192
2021-09-22 19:47:03.155747,209
2021-09-22 19:47:03.155752,228
2021-09-22 19:47:03.155758,250
2021-09-22 19:47:03.155764,279
2021-09-22 19:47:03.155774,311
2021-09-22 19:47:03.155780,343
2021-09-22 19:47:03.155786,369
2021-09-22 19:47:03.155791,386
2021-09-22 19:47:03.155797,394
2021-09-22 19:47:03.155803,396
2021-09-22 19:47:03.155809,382
2021-09-22 19:47:03.155815,347
2021-09-22 19:47:03.155820,291
2021-09-22 19:47:03.155826,206
2021-09-22 19:47:03.155832,104
2021-09-22 19:47:03.155838,7
2021-09-22 19:47:03.155844,-80
2021-09-22 19:47:03.155850,-150
2021-09-22 19:47:03.155856,-199
2021-09-22 19:47:03.155861,-233
2021-09-22 19:47:03.469300,-255
2021-09-22 19:47:03.469319,-255
2021-09-22 19:47:03.469326,-250
2021-09-22 19:47:03.469333,-250
2021-09-22 19:47:03.469339,-245
2021-09-22 19:47:03.469345,-233
2021-09-22 19:47:03.469350,-218
2021-09-22 19:47:03.469356,-201
2021-09-22 19:47:03.469362,-189
2021-09-22 19:47:03.469368,-180
2021-09-22 19:47:03.469374,-170
2021-09-22 19:47:03.469380,-160
2021-09-22 19:47:03.469385,-150
2021-09-22 19:47:03.469391,-145
2021-09-22 19:47:03.469397,-141
2021-09-22 19:47:03.469403,-133
2021-09-22 19:47:03.469409,-128
2021-09-22 19:47:03.469415,-121
2021-09-22 19:47:03.469420,-114
2021-09-22 19:47:03.469426,-111
2021-09-22 19:47:03.469432,-109
2021-09-22 19:47:03.469438,-111
2021-09-22 19:47:03.469444,-109
2021-09-22 19:47:03.469450,-104
2021-09-22 19:47:03.469455,-102
2021-09-22 19:47:03.469461,-99
2021-09-22 19:47:03.469467,-99
2021-09-22 19:47:03.469473,-99
2021-09-22 19:47:03.469479,-97
2021-09-22 19:47:03.469485,-90
2021-09-22 19:47:03.650756,-85
2021-09-22 19:47:03.650776,-85
2021-09-22 19:47:03.650784,-82
2021-09-22 19:47:03.650790,-85
2021-09-22 19:47:03.650796,-90
2021-09-22 19:47:03.650802,-85
2021-09-22 19:47:03.650808,-75
2021-09-22 19:47:03.650814,-72
2021-09-22 19:47:03.650819,-72
2021-09-22 19:47:03.650825,-75
2021-09-22 19:47:03.650831,-80
2021-09-22 19:47:03.650837,-72
2021-09-22 19:47:03.650843,-63
2021-09-22 19:47:03.650849,-63
2021-09-22 19:47:03.650855,-68
2021-09-22 19:47:03.650860,-70
2021-09-22 19:47:03.650866,-63
2021-09-22 19:47:03.650872,-41
2021-09-22 19:47:03.650878,-26
2021-09-22 19:47:03.650884,-34
2021-09-22 19:47:03.650890,-31
2021-09-22 19:47:03.650895,-24
2021-09-22 19:47:03.650901,-36
2021-09-22 19:47:03.650907,-53
2021-09-22 19:47:03.650913,-60
2021-09-22 19:47:03.650918,-60
2021-09-22 19:47:03.650924,-60
2021-09-22 19:47:03.650930,-65
2021-09-22 19:47:03.650936,-68
2021-09-22 19:47:03.650942,-65
2021-09-22 19:47:03.875663,-65
2021-09-22 19:47:03.875683,-60
2021-09-22 19:47:03.875690,-29
2021-09-22 19:47:03.875696,48
2021-09-22 19:47:03.875702,214
2021-09-22 19:47:03.875708,452
2021-09-22 19:47:03.875714,469
2021-09-22 19:47:03.875720,85
2021-09-22 19:47:03.875725,-440
2021-09-22 19:47:03.875731,-761
2021-09-22 19:47:03.875737,-610
2021-09-22 19:47:03.875743,-211
2021-09-22 19:47:03.875749,-63
2021-09-22 19:47:03.875754,-53
2021-09-22 19:47:03.875760,46
2021-09-22 19:47:03.875766,80
2021-09-22 19:47:03.875772,51
2021-09-22 19:47:03.875778,75
2021-09-22 19:47:03.875784,102
2021-09-22 19:47:03.875790,104
2021-09-22 19:47:03.875796,111
2021-09-22 19:47:03.875802,126
2021-09-22 19:47:03.875807,138
2021-09-22 19:47:03.875813,155
2021-09-22 19:47:03.875819,175
2021-09-22 19:47:03.875825,189
2021-09-22 19:47:03.875831,201
2021-09-22 19:47:03.875837,221
2021-09-22 19:47:03.875842,248
2021-09-22 19:47:03.875848,277
2021-09-22 19:47:04.100709,309
2021-09-22 19:47:04.100731,340
2021-09-22 19:47:04.100738,367
2021-09-22 19:47:04.100744,389
2021-09-22 19:47:04.100750,406
2021-09-22 19:47:04.100756,411
2021-09-22 19:47:04.100762,401
2021-09-22 19:47:04.100768,372
2021-09-22 19:47:04.100774,316
2021-09-22 19:47:04.100780,233
2021-09-22 19:47:04.100786,138
2021-09-22 19:47:04.100792,36
2021-09-22 19:47:04.100798,-58
2021-09-22 19:47:04.100804,-133
2021-09-22 19:47:04.100810,-194
2021-09-22 19:47:04.100816,-233
2021-09-22 19:47:04.100822,-243
2021-09-22 19:47:04.100828,-245
2021-09-22 19:47:04.100834,-250
2021-09-22 19:47:04.100839,-253
2021-09-22 19:47:04.100845,-250
2021-09-22 19:47:04.100851,-236
2021-09-22 19:47:04.100857,-218
2021-09-22 19:47:04.100863,-204
2021-09-22 19:47:04.100869,-189
2021-09-22 19:47:04.100875,-172
2021-09-22 19:47:04.100881,-163
2021-09-22 19:47:04.100887,-153
2021-09-22 19:47:04.100893,-138
2021-09-22 19:47:04.100898,-126
2021-09-22 19:47:04.325706,-119
2021-09-22 19:47:04.325726,-111
2021-09-22 19:47:04.325734,-109
2021-09-22 19:47:04.325740,-107
2021-09-22 19:47:04.325746,-99
2021-09-22 19:47:04.325753,-94
2021-09-22 19:47:04.325759,-94
2021-09-22 19:47:04.325765,-99
2021-09-22 19:47:04.325771,-104
2021-09-22 19:47:04.325777,-104
2021-09-22 19:47:04.325783,-99
2021-09-22 19:47:04.325789,-102
2021-09-22 19:47:04.325795,-114
2021-09-22 19:47:04.325801,-119
2021-09-22 19:47:04.325807,-116
2021-09-22 19:47:04.325813,-111
2021-09-22 19:47:04.325819,-104
2021-09-22 19:47:04.325824,-99
2021-09-22 19:47:04.325830,-94
2021-09-22 19:47:04.325836,-94
2021-09-22 19:47:04.325842,-92
2021-09-22 19:47:04.325848,-94
2021-09-22 19:47:04.325854,-92
2021-09-22 19:47:04.325860,-85
2021-09-22 19:47:04.325866,-80
2021-09-22 19:47:04.325872,-77
2021-09-22 19:47:04.325878,-75
2021-09-22 19:47:04.325884,-70
2021-09-22 19:47:04.325889,-63
2021-09-22 19:47:04.325895,-58
2021-09-22 19:47:04.550850,-60
2021-09-22 19:47:04.550871,-60
2021-09-22 19:47:04.550879,-51
2021-09-22 19:47:04.550885,-31
2021-09-22 19:47:04.550891,-12
2021-09-22 19:47:04.550897,-19
2021-09-22 19:47:04.550904,-29
2021-09-22 19:47:04.550910,-21
2021-09-22 19:47:04.550916,-29
2021-09-22 19:47:04.550922,-51
2021-09-22 19:47:04.550928,-63
2021-09-22 19:47:04.550934,-63
2021-09-22 19:47:04.550940,-65
2021-09-22 19:47:04.550946,-68
2021-09-22 19:47:04.550952,-65
2021-09-22 19:47:04.550958,-63
2021-09-22 19:47:04.550964,-65
2021-09-22 19:47:04.550970,-63
2021-09-22 19:47:04.550976,-48
2021-09-22 19:47:04.550982,7
2021-09-22 19:47:04.550988,133
2021-09-22 19:47:04.550994,369
2021-09-22 19:47:04.551000,525
2021-09-22 19:47:04.551006,277
2021-09-22 19:47:04.551012,-265
2021-09-22 19:47:04.551018,-691
2021-09-22 19:47:04.551024,-698
2021-09-22 19:47:04.551030,-328
2021-09-22 19:47:04.551036,-77
2021-09-22 19:47:04.551042,-63
2021-09-22 19:47:04.775740,17
2021-09-22 19:47:04.775760,94
2021-09-22 19:47:04.775767,75
2021-09-22 19:47:04.775773,80
2021-09-22 19:47:04.775779,119
2021-09-22 19:47:04.775785,121
2021-09-22 19:47:04.775791,116
2021-09-22 19:47:04.775797,133
2021-09-22 19:47:04.775802,150
2021-09-22 19:47:04.775808,158
2021-09-22 19:47:04.775814,172
2021-09-22 19:47:04.775820,187
2021-09-22 19:47:04.775826,194
2021-09-22 19:47:04.775832,214
2021-09-22 19:47:04.775838,240
2021-09-22 19:47:04.775843,265
2021-09-22 19:47:04.775849,291
2021-09-22 19:47:04.775855,318
2021-09-22 19:47:04.775861,340
2021-09-22 19:47:04.775867,367
2021-09-22 19:47:04.775873,389
2021-09-22 19:47:04.775878,394
2021-09-22 19:47:04.775884,389
2021-09-22 19:47:04.775890,372
2021-09-22 19:47:04.775896,330
2021-09-22 19:47:04.775901,260
2021-09-22 19:47:04.775907,163
2021-09-22 19:47:04.775913,58
2021-09-22 19:47:04.775919,-34
2021-09-22 19:47:04.775925,-114
2021-09-22 19:47:05.000638,-172
2021-09-22 19:47:05.000656,-209
2021-09-22 19:47:05.000663,-231
2021-09-22 19:47:05.000669,-245
2021-09-22 19:47:05.000675,-248
2021-09-22 19:47:05.000681,-248
2021-09-22 19:47:05.000687,-243
2021-09-22 19:47:05.000693,-226
2021-09-22 19:47:05.000699,-211
2021-09-22 19:47:05.000705,-199
2021-09-22 19:47:05.000711,-184
2021-09-22 19:47:05.000716,-175
2021-09-22 19:47:05.000722,-165
2021-09-22 19:47:05.000728,-148
2021-09-22 19:47:05.000734,-136
2021-09-22 19:47:05.000740,-128
2021-09-22 19:47:05.000746,-121
2021-09-22 19:47:05.000752,-114
2021-09-22 19:47:05.000758,-109
2021-09-22 19:47:05.000764,-102
2021-09-22 19:47:05.000770,-97
2021-09-22 19:47:05.000776,-97
2021-09-22 19:47:05.000782,-97
2021-09-22 19:47:05.000787,-94
2021-09-22 19:47:05.000793,-92
2021-09-22 19:47:05.000799,-87
2021-09-22 19:47:05.000805,-87
2021-09-22 19:47:05.000811,-94
2021-09-22 19:47:05.000817,-99
2021-09-22 19:47:05.000823,-94
2021-09-22 19:47:05.225751,-87
2021-09-22 19:47:05.225771,-85
2021-09-22 19:47:05.225778,-80
2021-09-22 19:47:05.225784,-80
2021-09-22 19:47:05.225790,-82
2021-09-22 19:47:05.225796,-85
2021-09-22 19:47:05.225802,-77
2021-09-22 19:47:05.225808,-68
2021-09-22 19:47:05.225814,-65
2021-09-22 19:47:05.225820,-65
2021-09-22 19:47:05.225826,-68
2021-09-22 19:47:05.225832,-70
2021-09-22 19:47:05.225838,-63
2021-09-22 19:47:05.225844,-55
2021-09-22 19:47:05.225850,-53
2021-09-22 19:47:05.225856,-53
2021-09-22 19:47:05.225862,-53
2021-09-22 19:47:05.225868,-53
2021-09-22 19:47:05.225874,-46
2021-09-22 19:47:05.225880,-36
2021-09-22 19:47:05.225886,-19
2021-09-22 19:47:05.225892,-4
2021-09-22 19:47:05.225898,-12
2021-09-22 19:47:05.225903,-26
2021-09-22 19:47:05.225909,-19
2021-09-22 19:47:05.225915,-14
2021-09-22 19:47:05.225921,-38
2021-09-22 19:47:05.225926,-58
2021-09-22 19:47:05.225932,-63
2021-09-22 19:47:05.225938,-60
2021-09-22 19:47:05.494308,-63
2021-09-22 19:47:05.494327,-60
2021-09-22 19:47:05.494335,-60
2021-09-22 19:47:05.494341,-70
2021-09-22 19:47:05.494347,-75
2021-09-22 19:47:05.494353,-55
2021-09-22 19:47:05.494359,9
2021-09-22 19:47:05.494365,145
2021-09-22 19:47:05.494371,384
2021-09-22 19:47:05.494377,530
2021-09-22 19:47:05.494383,262
2021-09-22 19:47:05.494389,-282
2021-09-22 19:47:05.494395,-693
2021-09-22 19:47:05.494400,-671
2021-09-22 19:47:05.494406,-299
2021-09-22 19:47:05.494412,-72
2021-09-22 19:47:05.494418,-58
2021-09-22 19:47:05.494424,31
2021-09-22 19:47:05.494430,107
2021-09-22 19:47:05.494436,87
2021-09-22 19:47:05.494442,97
2021-09-22 19:47:05.494447,124
2021-09-22 19:47:05.494453,124
2021-09-22 19:47:05.494459,133
2021-09-22 19:47:05.494465,160
2021-09-22 19:47:05.494471,170
2021-09-22 19:47:05.494476,177
2021-09-22 19:47:05.494482,189
2021-09-22 19:47:05.494488,204
2021-09-22 19:47:05.494494,226
2021-09-22 19:47:05.765116,248
2021-09-22 19:47:05.765137,267
2021-09-22 19:47:05.765144,279
2021-09-22 19:47:05.765151,301
2021-09-22 19:47:05.765157,330
2021-09-22 19:47:05.765163,364
2021-09-22 19:47:05.765169,394
2021-09-22 19:47:05.765175,411
2021-09-22 19:47:05.765181,411
2021-09-22 19:47:05.765187,396
2021-09-22 19:47:05.765193,374
2021-09-22 19:47:05.765199,340
2021-09-22 19:47:05.765205,277
2021-09-22 19:47:05.765211,187
2021-09-22 19:47:05.765217,82
2021-09-22 19:47:05.765223,-14
2021-09-22 19:47:05.765229,-92
2021-09-22 19:47:05.765235,-148
2021-09-22 19:47:05.765241,-184
2021-09-22 19:47:05.765251,-206
2021-09-22 19:47:05.765257,-221
2021-09-22 19:47:05.765262,-228
2021-09-22 19:47:05.765268,-216
2021-09-22 19:47:05.765274,-201
2021-09-22 19:47:05.765280,-189
2021-09-22 19:47:05.765286,-175
2021-09-22 19:47:05.765292,-163
2021-09-22 19:47:05.765298,-150
2021-09-22 19:47:05.765304,-138
2021-09-22 19:47:05.765310,-133
2021-09-22 19:47:05.990755,-131
2021-09-22 19:47:05.990777,-121
2021-09-22 19:47:05.990784,-111
2021-09-22 19:47:05.990790,-114
2021-09-22 19:47:05.990796,-114
2021-09-22 19:47:05.990802,-102
2021-09-22 19:47:05.990808,-94
2021-09-22 19:47:05.990814,-92
2021-09-22 19:47:05.990820,-99
2021-09-22 19:47:05.990826,-107
2021-09-22 19:47:05.990832,-102
2021-09-22 19:47:05.990838,-92
2021-09-22 19:47:05.990843,-87
2021-09-22 19:47:05.990849,-85
2021-09-22 19:47:05.990855,-90
2021-09-22 19:47:05.990861,-94
2021-09-22 19:47:05.990866,-87
2021-09-22 19:47:05.990872,-80
2021-09-22 19:47:05.990878,-75
2021-09-22 19:47:05.990884,-75
2021-09-22 19:47:05.990889,-75
2021-09-22 19:47:05.990895,-72
2021-09-22 19:47:05.990901,-63
2021-09-22 19:47:05.990907,-51
2021-09-22 19:47:05.990913,-51
2021-09-22 19:47:05.990918,-51
2021-09-22 19:47:05.990924,-46
2021-09-22 19:47:05.990930,-43
2021-09-22 19:47:05.990936,-41
2021-09-22 19:47:05.990941,-38
2021-09-22 19:47:06.215739,-34
2021-09-22 19:47:06.215759,-26
2021-09-22 19:47:06.215767,-14
2021-09-22 19:47:06.215773,2
2021-09-22 19:47:06.215779,7
2021-09-22 19:47:06.215785,4
2021-09-22 19:47:06.215791,7
2021-09-22 19:47:06.215797,-4
2021-09-22 19:47:06.215803,-29
2021-09-22 19:47:06.215809,-38
2021-09-22 19:47:06.215815,-34
2021-09-22 19:47:06.215821,-29
2021-09-22 19:47:06.215827,-34
2021-09-22 19:47:06.215832,-36
2021-09-22 19:47:06.215838,-34
2021-09-22 19:47:06.215845,-31
2021-09-22 19:47:06.215850,-26
2021-09-22 19:47:06.215856,-7
2021-09-22 19:47:06.215862,51
2021-09-22 19:47:06.215868,155
2021-09-22 19:47:06.215874,343
2021-09-22 19:47:06.215880,506
2021-09-22 19:47:06.215886,323
2021-09-22 19:47:06.215892,-194
2021-09-22 19:47:06.215897,-652
2021-09-22 19:47:06.215903,-688
2021-09-22 19:47:06.215909,-326
2021-09-22 19:47:06.215915,-68
2021-09-22 19:47:06.215921,-46
2021-09-22 19:47:06.215927,36
2021-09-22 19:47:06.395772,128
2021-09-22 19:47:06.395793,119
2021-09-22 19:47:06.395800,121
2021-09-22 19:47:06.395806,153
2021-09-22 19:47:06.395812,148
2021-09-22 19:47:06.395818,141
2021-09-22 19:47:06.395824,163
2021-09-22 19:47:06.395831,177
2021-09-22 19:47:06.395836,177
2021-09-22 19:47:06.395842,192
2021-09-22 19:47:06.395848,216
2021-09-22 19:47:06.395854,233
2021-09-22 19:47:06.395860,245
2021-09-22 19:47:06.395866,262
2021-09-22 19:47:06.395872,291
2021-09-22 19:47:06.395878,323
2021-09-22 19:47:06.395884,355
2021-09-22 19:47:06.395890,391
2021-09-22 19:47:06.395896,411
2021-09-22 19:47:06.395902,420
2021-09-22 19:47:06.395907,430
2021-09-22 19:47:06.395913,430
2021-09-22 19:47:06.395919,406
2021-09-22 19:47:06.395925,360
2021-09-22 19:47:06.395931,287
2021-09-22 19:47:06.395937,194
2021-09-22 19:47:06.395943,94
2021-09-22 19:47:06.395949,0
2021-09-22 19:47:06.395955,-77
2021-09-22 19:47:06.395960,-131
2021-09-22 19:47:06.665792,-167
2021-09-22 19:47:06.665812,-194
2021-09-22 19:47:06.665820,-209
2021-09-22 19:47:06.665826,-211
2021-09-22 19:47:06.665832,-204
2021-09-22 19:47:06.665838,-197
2021-09-22 19:47:06.665845,-189
2021-09-22 19:47:06.665851,-177
2021-09-22 19:47:06.665857,-158
2021-09-22 19:47:06.665863,-150
2021-09-22 19:47:06.665869,-145
2021-09-22 19:47:06.665874,-141
2021-09-22 19:47:06.665880,-136
2021-09-22 19:47:06.665886,-131
2021-09-22 19:47:06.665892,-119
2021-09-22 19:47:06.665898,-109
2021-09-22 19:47:06.665903,-102
2021-09-22 19:47:06.665909,-99
2021-09-22 19:47:06.665915,-102
2021-09-22 19:47:06.665921,-92
2021-09-22 19:47:06.665926,-85
2021-09-22 19:47:06.665932,-87
2021-09-22 19:47:06.665938,-90
2021-09-22 19:47:06.665944,-82
2021-09-22 19:47:06.665950,-80
2021-09-22 19:47:06.665955,-77
2021-09-22 19:47:06.665961,-72
2021-09-22 19:47:06.665967,-72
2021-09-22 19:47:06.665973,-70
2021-09-22 19:47:06.665978,-70
2021-09-22 19:47:06.845685,-68
2021-09-22 19:47:06.845705,-63
2021-09-22 19:47:06.845712,-58
2021-09-22 19:47:06.845719,-55
2021-09-22 19:47:06.845725,-55
2021-09-22 19:47:06.845731,-60
2021-09-22 19:47:06.845737,-63
2021-09-22 19:47:06.845743,-55
2021-09-22 19:47:06.845749,-53
2021-09-22 19:47:06.845755,-60
2021-09-22 19:47:06.845761,-63
2021-09-22 19:47:06.845767,-65
2021-09-22 19:47:06.845772,-51
2021-09-22 19:47:06.845778,-29
2021-09-22 19:47:06.845784,-29
2021-09-22 19:47:06.845790,-26
2021-09-22 19:47:06.845796,-19
2021-09-22 19:47:06.845802,-38
2021-09-22 19:47:06.845807,-63
2021-09-22 19:47:06.845813,-60
2021-09-22 19:47:06.845819,-53
2021-09-22 19:47:06.845825,-55
2021-09-22 19:47:06.845831,-60
2021-09-22 19:47:06.845837,-60
2021-09-22 19:47:06.845842,-53
2021-09-22 19:47:06.845848,-46
2021-09-22 19:47:06.845854,-36
2021-09-22 19:47:06.845860,0
2021-09-22 19:47:06.845866,80
2021-09-22 19:47:06.845872,221
2021-09-22 19:47:07.070924,423
2021-09-22 19:47:07.070964,447
2021-09-22 19:47:07.070973,80
2021-09-22 19:47:07.070979,-442
2021-09-22 19:47:07.070984,-744
2021-09-22 19:47:07.070990,-586
2021-09-22 19:47:07.070995,-214
2021-09-22 19:47:07.071000,-72
2021-09-22 19:47:07.071006,-55
2021-09-22 19:47:07.071012,55
2021-09-22 19:47:07.071017,104
2021-09-22 19:47:07.071023,68
2021-09-22 19:47:07.071029,87
2021-09-22 19:47:07.071034,121
2021-09-22 19:47:07.071039,114
2021-09-22 19:47:07.071044,114
2021-09-22 19:47:07.071050,133
2021-09-22 19:47:07.071055,141
2021-09-22 19:47:07.071061,150
2021-09-22 19:47:07.071066,170
2021-09-22 19:47:07.071072,187
2021-09-22 19:47:07.071078,201
2021-09-22 19:47:07.071083,223
2021-09-22 19:47:07.071089,250
2021-09-22 19:47:07.071094,277
2021-09-22 19:47:07.071099,306
2021-09-22 19:47:07.071104,335
2021-09-22 19:47:07.071109,362
2021-09-22 19:47:07.071114,382
2021-09-22 19:47:07.071119,394
2021-09-22 19:47:07.295797,399
2021-09-22 19:47:07.295818,386
2021-09-22 19:47:07.295825,355
2021-09-22 19:47:07.295831,296
2021-09-22 19:47:07.295837,209
2021-09-22 19:47:07.295843,107
2021-09-22 19:47:07.295849,9
2021-09-22 19:47:07.295855,-72
2021-09-22 19:47:07.295861,-143
2021-09-22 19:47:07.295867,-199
2021-09-22 19:47:07.295873,-233
2021-09-22 19:47:07.295879,-245
2021-09-22 19:47:07.295885,-243
2021-09-22 19:47:07.295891,-243
2021-09-22 19:47:07.295897,-240
2021-09-22 19:47:07.295904,-236
2021-09-22 19:47:07.295910,-233
2021-09-22 19:47:07.295916,-221
2021-09-22 19:47:07.295922,-204
2021-09-22 19:47:07.295927,-184
2021-09-22 19:47:07.295933,-172
2021-09-22 19:47:07.295939,-163
2021-09-22 19:47:07.295945,-153
2021-09-22 19:47:07.295951,-141
2021-09-22 19:47:07.295957,-131
2021-09-22 19:47:07.295963,-124
2021-09-22 19:47:07.295969,-116
2021-09-22 19:47:07.295975,-114
2021-09-22 19:47:07.295981,-114
2021-09-22 19:47:07.295987,-109
2021-09-22 19:47:07.654397,-107
2021-09-22 19:47:07.654417,-102
2021-09-22 19:47:07.654424,-102
2021-09-22 19:47:07.654430,-111
2021-09-22 19:47:07.654436,-114
2021-09-22 19:47:07.654442,-104
2021-09-22 19:47:07.654448,-99
2021-09-22 19:47:07.654454,-97
2021-09-22 19:47:07.654460,-94
2021-09-22 19:47:07.654466,-102
2021-09-22 19:47:07.654472,-102
2021-09-22 19:47:07.654478,-94
2021-09-22 19:47:07.654483,-87
2021-09-22 19:47:07.654489,-85
2021-09-22 19:47:07.654495,-80
2021-09-22 19:47:07.654501,-82
2021-09-22 19:47:07.654507,-82
2021-09-22 19:47:07.654513,-77
2021-09-22 19:47:07.654519,-77
2021-09-22 19:47:07.654524,-80
2021-09-22 19:47:07.654530,-77
2021-09-22 19:47:07.654536,-72
2021-09-22 19:47:07.654542,-60
2021-09-22 19:47:07.654548,-36
2021-09-22 19:47:07.654553,-24
2021-09-22 19:47:07.654559,-29
2021-09-22 19:47:07.654565,-26
2021-09-22 19:47:07.654571,-19
2021-09-22 19:47:07.654577,-29
2021-09-22 19:47:07.654582,-46
2021-09-22 19:47:07.790754,-55
2021-09-22 19:47:07.790774,-55
2021-09-22 19:47:07.790781,-55
2021-09-22 19:47:07.790787,-58
2021-09-22 19:47:07.790794,-53
2021-09-22 19:47:07.790800,-48
2021-09-22 19:47:07.790806,-46
2021-09-22 19:47:07.790812,-38
2021-09-22 19:47:07.790818,-12
2021-09-22 19:47:07.790824,60
2021-09-22 19:47:07.790830,226
2021-09-22 19:47:07.790836,459
2021-09-22 19:47:07.790841,467
2021-09-22 19:47:07.790847,70
2021-09-22 19:47:07.790853,-452
2021-09-22 19:47:07.790859,-749
2021-09-22 19:47:07.790865,-583
2021-09-22 19:47:07.790871,-194
2021-09-22 19:47:07.790877,-60
2021-09-22 19:47:07.790883,-51
2021-09-22 19:47:07.790889,46
2021-09-22 19:47:07.790895,72
2021-09-22 19:47:07.790900,36
2021-09-22 19:47:07.790906,68
2021-09-22 19:47:07.790912,99
2021-09-22 19:47:07.790918,94
2021-09-22 19:47:07.790924,99
2021-09-22 19:47:07.790929,116
2021-09-22 19:47:07.790935,126
2021-09-22 19:47:07.790941,141
2021-09-22 19:47:08.060166,160
2021-09-22 19:47:08.060188,175
2021-09-22 19:47:08.060195,187
2021-09-22 19:47:08.060202,209
2021-09-22 19:47:08.060208,233
2021-09-22 19:47:08.060214,262
2021-09-22 19:47:08.060220,296
2021-09-22 19:47:08.060226,323
2021-09-22 19:47:08.060232,345
2021-09-22 19:47:08.060238,364
2021-09-22 19:47:08.060244,386
2021-09-22 19:47:08.060250,391
2021-09-22 19:47:08.060256,377
2021-09-22 19:47:08.060262,345
2021-09-22 19:47:08.060268,289
2021-09-22 19:47:08.060274,211
2021-09-22 19:47:08.060280,111
2021-09-22 19:47:08.060287,7
2021-09-22 19:47:08.060292,-82
2021-09-22 19:47:08.060298,-153
2021-09-22 19:47:08.060304,-206
2021-09-22 19:47:08.060310,-240
2021-09-22 19:47:08.060316,-257
2021-09-22 19:47:08.060321,-265
2021-09-22 19:47:08.060327,-260
2021-09-22 19:47:08.060333,-255
2021-09-22 19:47:08.060339,-248
2021-09-22 19:47:08.060345,-236
2021-09-22 19:47:08.060351,-218
2021-09-22 19:47:08.060357,-204
2021-09-22 19:47:08.240721,-187
2021-09-22 19:47:08.240742,-177
2021-09-22 19:47:08.240749,-165
2021-09-22 19:47:08.240755,-153
2021-09-22 19:47:08.240761,-141
2021-09-22 19:47:08.240767,-131
2021-09-22 19:47:08.240774,-124
2021-09-22 19:47:08.240780,-121
2021-09-22 19:47:08.240786,-124
2021-09-22 19:47:08.240791,-116
2021-09-22 19:47:08.240797,-109
2021-09-22 19:47:08.240803,-104
2021-09-22 19:47:08.240809,-104
2021-09-22 19:47:08.240815,-111
2021-09-22 19:47:08.240821,-114
2021-09-22 19:47:08.240827,-107
2021-09-22 19:47:08.240833,-104
2021-09-22 19:47:08.240839,-102
2021-09-22 19:47:08.240845,-99
2021-09-22 19:47:08.240851,-99
2021-09-22 19:47:08.240856,-94
2021-09-22 19:47:08.240862,-90
2021-09-22 19:47:08.240868,-87
2021-09-22 19:47:08.240874,-85
2021-09-22 19:47:08.240879,-85
2021-09-22 19:47:08.240885,-85
2021-09-22 19:47:08.240891,-82
2021-09-22 19:47:08.240897,-87
2021-09-22 19:47:08.240903,-90
2021-09-22 19:47:08.240908,-80
2021-09-22 19:47:08.465813,-77
2021-09-22 19:47:08.465834,-80
2021-09-22 19:47:08.465841,-77
2021-09-22 19:47:08.465847,-65
2021-09-22 19:47:08.465853,-43
2021-09-22 19:47:08.465859,-24
2021-09-22 19:47:08.465865,-31
2021-09-22 19:47:08.465871,-36
2021-09-22 19:47:08.465877,-19
2021-09-22 19:47:08.465883,-19
2021-09-22 19:47:08.465889,-41
2021-09-22 19:47:08.465895,-58
2021-09-22 19:47:08.465900,-65
2021-09-22 19:47:08.465906,-65
2021-09-22 19:47:08.465912,-60
2021-09-22 19:47:08.465918,-58
2021-09-22 19:47:08.465924,-58
2021-09-22 19:47:08.465930,-53
2021-09-22 19:47:08.465936,-51
2021-09-22 19:47:08.465942,-34
2021-09-22 19:47:08.465948,24
2021-09-22 19:47:08.465954,143
2021-09-22 19:47:08.465960,367
2021-09-22 19:47:08.465965,549
2021-09-22 19:47:08.465971,352
2021-09-22 19:47:08.465977,-165
2021-09-22 19:47:08.465983,-632
2021-09-22 19:47:08.465989,-729
2021-09-22 19:47:08.465995,-377
2021-09-22 19:47:08.466001,-75
2021-09-22 19:47:08.690832,-60
2021-09-22 19:47:08.690852,4
2021-09-22 19:47:08.690860,104
2021-09-22 19:47:08.690866,87
2021-09-22 19:47:08.690873,75
2021-09-22 19:47:08.690883,104
2021-09-22 19:47:08.690889,104
2021-09-22 19:47:08.690895,104
2021-09-22 19:47:08.690901,124
2021-09-22 19:47:08.690907,138
2021-09-22 19:47:08.690913,145
2021-09-22 19:47:08.690919,153
2021-09-22 19:47:08.690925,165
2021-09-22 19:47:08.690931,184
2021-09-22 19:47:08.690937,206
2021-09-22 19:47:08.690943,226
2021-09-22 19:47:08.690949,250
2021-09-22 19:47:08.690955,279
2021-09-22 19:47:08.690961,309
2021-09-22 19:47:08.690967,343
2021-09-22 19:47:08.690973,372
2021-09-22 19:47:08.690979,389
2021-09-22 19:47:08.690984,399
2021-09-22 19:47:08.690990,396
2021-09-22 19:47:08.690996,377
2021-09-22 19:47:08.691002,343
2021-09-22 19:47:08.691008,279
2021-09-22 19:47:08.691014,184
2021-09-22 19:47:08.691020,70
2021-09-22 19:47:08.691026,-34
2021-09-22 19:47:08.915754,-111
2021-09-22 19:47:08.915775,-167
2021-09-22 19:47:08.915782,-218
2021-09-22 19:47:08.915788,-255
2021-09-22 19:47:08.915794,-270
2021-09-22 19:47:08.915801,-272
2021-09-22 19:47:08.915807,-267
2021-09-22 19:47:08.915813,-253
2021-09-22 19:47:08.915819,-238
2021-09-22 19:47:08.915824,-226
2021-09-22 19:47:08.915830,-218
2021-09-22 19:47:08.915837,-209
2021-09-22 19:47:08.915843,-192
2021-09-22 19:47:08.915849,-175
2021-09-22 19:47:08.915855,-163
2021-09-22 19:47:08.915861,-150
2021-09-22 19:47:08.915867,-138
2021-09-22 19:47:08.915873,-131
2021-09-22 19:47:08.915878,-124
2021-09-22 19:47:08.915884,-114
2021-09-22 19:47:08.915890,-109
2021-09-22 19:47:08.915896,-107
2021-09-22 19:47:08.915902,-104
2021-09-22 19:47:08.915908,-99
2021-09-22 19:47:08.915914,-97
2021-09-22 19:47:08.915920,-92
2021-09-22 19:47:08.915926,-90
2021-09-22 19:47:08.915931,-90
2021-09-22 19:47:08.915937,-92
2021-09-22 19:47:08.915943,-90
2021-09-22 19:47:09.140835,-90
2021-09-22 19:47:09.140858,-90
2021-09-22 19:47:09.140865,-87
2021-09-22 19:47:09.140872,-85
2021-09-22 19:47:09.140877,-92
2021-09-22 19:47:09.140883,-92
2021-09-22 19:47:09.140889,-82
2021-09-22 19:47:09.140895,-75
2021-09-22 19:47:09.140901,-72
2021-09-22 19:47:09.140907,-72
2021-09-22 19:47:09.140913,-72
2021-09-22 19:47:09.140919,-70
2021-09-22 19:47:09.140925,-60
2021-09-22 19:47:09.140931,-53
2021-09-22 19:47:09.140936,-53
2021-09-22 19:47:09.140942,-55
2021-09-22 19:47:09.140948,-53
2021-09-22 19:47:09.140954,-43
2021-09-22 19:47:09.140960,-19
2021-09-22 19:47:09.140966,2
2021-09-22 19:47:09.140972,0
2021-09-22 19:47:09.140978,-2
2021-09-22 19:47:09.140984,7
2021-09-22 19:47:09.141019,4
2021-09-22 19:47:09.141025,-14
2021-09-22 19:47:09.141031,-29
2021-09-22 19:47:09.141037,-31
2021-09-22 19:47:09.141043,-31
2021-09-22 19:47:09.141049,-31
2021-09-22 19:47:09.141055,-29
2021-09-22 19:47:09.410843,-24
2021-09-22 19:47:09.410864,-21
2021-09-22 19:47:09.410872,-26
2021-09-22 19:47:09.410878,-24
2021-09-22 19:47:09.410884,24
2021-09-22 19:47:09.410890,145
2021-09-22 19:47:09.410896,372
2021-09-22 19:47:09.410902,559
2021-09-22 19:47:09.410908,369
2021-09-22 19:47:09.410914,-165
2021-09-22 19:47:09.410920,-644
2021-09-22 19:47:09.410926,-715
2021-09-22 19:47:09.410931,-357
2021-09-22 19:47:09.410937,-72
2021-09-22 19:47:09.410943,-51
2021-09-22 19:47:09.410949,14
2021-09-22 19:47:09.410955,104
2021-09-22 19:47:09.410961,92
2021-09-22 19:47:09.410967,92
2021-09-22 19:47:09.410973,128
2021-09-22 19:47:09.410978,136
2021-09-22 19:47:09.410984,128
2021-09-22 19:47:09.410990,141
2021-09-22 19:47:09.410996,158
2021-09-22 19:47:09.411002,163
2021-09-22 19:47:09.411007,172
2021-09-22 19:47:09.411013,187
2021-09-22 19:47:09.411019,199
2021-09-22 19:47:09.411025,218
2021-09-22 19:47:09.411031,240
2021-09-22 19:47:09.679474,265
2021-09-22 19:47:09.679496,289
2021-09-22 19:47:09.679503,318
2021-09-22 19:47:09.679510,345
2021-09-22 19:47:09.679516,367
2021-09-22 19:47:09.679522,382
2021-09-22 19:47:09.679528,391
2021-09-22 19:47:09.679534,389
2021-09-22 19:47:09.679540,367
2021-09-22 19:47:09.679545,321
2021-09-22 19:47:09.679551,260
2021-09-22 19:47:09.679557,180
2021-09-22 19:47:09.679563,77
2021-09-22 19:47:09.679569,-21
2021-09-22 19:47:09.679575,-107
2021-09-22 19:47:09.679581,-175
2021-09-22 19:47:09.679587,-216
2021-09-22 19:47:09.679592,-231
2021-09-22 19:47:09.679598,-240
2021-09-22 19:47:09.679604,-243
2021-09-22 19:47:09.679610,-243
2021-09-22 19:47:09.679616,-238
2021-09-22 19:47:09.679622,-218
2021-09-22 19:47:09.679627,-199
2021-09-22 19:47:09.679633,-184
2021-09-22 19:47:09.679638,-172
2021-09-22 19:47:09.679644,-160
2021-09-22 19:47:09.679650,-150
2021-09-22 19:47:09.679656,-138
2021-09-22 19:47:09.679662,-126
2021-09-22 19:47:09.860879,-116
2021-09-22 19:47:09.860901,-107
2021-09-22 19:47:09.860908,-104
2021-09-22 19:47:09.860915,-102
2021-09-22 19:47:09.860921,-94
2021-09-22 19:47:09.860927,-90
2021-09-22 19:47:09.860933,-94
2021-09-22 19:47:09.860939,-104
2021-09-22 19:47:09.860944,-111
2021-09-22 19:47:09.860950,-109
2021-09-22 19:47:09.860956,-104
2021-09-22 19:47:09.860962,-99
2021-09-22 19:47:09.860968,-97
2021-09-22 19:47:09.860974,-99
2021-09-22 19:47:09.860980,-109
2021-09-22 19:47:09.860986,-119
2021-09-22 19:47:09.860991,-116
2021-09-22 19:47:09.860997,-107
2021-09-22 19:47:09.861003,-99
2021-09-22 19:47:09.861009,-99
2021-09-22 19:47:09.861015,-97
2021-09-22 19:47:09.861021,-92
2021-09-22 19:47:09.861026,-85
2021-09-22 19:47:09.861032,-80
2021-09-22 19:47:09.861038,-72
2021-09-22 19:47:09.861044,-70
2021-09-22 19:47:09.861049,-70
2021-09-22 19:47:09.861055,-65
2021-09-22 19:47:09.861061,-58
2021-09-22 19:47:09.861067,-53
2021-09-22 19:47:10.085815,-53
2021-09-22 19:47:10.085836,-53
2021-09-22 19:47:10.085843,-53
2021-09-22 19:47:10.085850,-38
2021-09-22 19:47:10.085856,-12
2021-09-22 19:47:10.085862,0
2021-09-22 19:47:10.085868,-9
2021-09-22 19:47:10.085874,-9
2021-09-22 19:47:10.085880,-9
2021-09-22 19:47:10.085886,-31
2021-09-22 19:47:10.085892,-51
2021-09-22 19:47:10.085898,-53
2021-09-22 19:47:10.085904,-53
2021-09-22 19:47:10.085909,-60
2021-09-22 19:47:10.085915,-60
2021-09-22 19:47:10.085921,-53
2021-09-22 19:47:10.085927,-51
2021-09-22 19:47:10.085933,-46
2021-09-22 19:47:10.085938,-38
2021-09-22 19:47:10.085944,-14
2021-09-22 19:47:10.085950,55
2021-09-22 19:47:10.085956,211
2021-09-22 19:47:10.085962,457
2021-09-22 19:47:10.085967,537
2021-09-22 19:47:10.085973,192
2021-09-22 19:47:10.085979,-369
2021-09-22 19:47:10.085985,-717
2021-09-22 19:47:10.085991,-579
2021-09-22 19:47:10.085996,-187
2021-09-22 19:47:10.086002,-29
2021-09-22 19:47:10.355859,-17
2021-09-22 19:47:10.355880,77
2021-09-22 19:47:10.355888,124
2021-09-22 19:47:10.355894,97
2021-09-22 19:47:10.355900,111
2021-09-22 19:47:10.355906,136
2021-09-22 19:47:10.355912,128
2021-09-22 19:47:10.355918,128
2021-09-22 19:47:10.355924,148
2021-09-22 19:47:10.355930,160
2021-09-22 19:47:10.355936,167
2021-09-22 19:47:10.355942,177
2021-09-22 19:47:10.355948,187
2021-09-22 19:47:10.355954,201
2021-09-22 19:47:10.355960,221
2021-09-22 19:47:10.355966,243
2021-09-22 19:47:10.355972,270
2021-09-22 19:47:10.355978,301
2021-09-22 19:47:10.355984,328
2021-09-22 19:47:10.355990,355
2021-09-22 19:47:10.355996,374
2021-09-22 19:47:10.356002,377
2021-09-22 19:47:10.356007,374
2021-09-22 19:47:10.356013,369
2021-09-22 19:47:10.356019,347
2021-09-22 19:47:10.356025,304
2021-09-22 19:47:10.356031,240
2021-09-22 19:47:10.356037,153
2021-09-22 19:47:10.356043,48
2021-09-22 19:47:10.356049,-43
2021-09-22 19:47:10.625330,-111
2021-09-22 19:47:10.625351,-165
2021-09-22 19:47:10.625359,-201
2021-09-22 19:47:10.625365,-221
2021-09-22 19:47:10.625372,-226
2021-09-22 19:47:10.625379,-226
2021-09-22 19:47:10.625385,-228
2021-09-22 19:47:10.625391,-211
2021-09-22 19:47:10.625398,-192
2021-09-22 19:47:10.625404,-182
2021-09-22 19:47:10.625410,-167
2021-09-22 19:47:10.625416,-145
2021-09-22 19:47:10.625423,-136
2021-09-22 19:47:10.625429,-133
2021-09-22 19:47:10.625436,-121
2021-09-22 19:47:10.625442,-109
2021-09-22 19:47:10.625448,-104
2021-09-22 19:47:10.625454,-102
2021-09-22 19:47:10.625461,-99
2021-09-22 19:47:10.625467,-92
2021-09-22 19:47:10.625473,-85
2021-09-22 19:47:10.625479,-82
2021-09-22 19:47:10.625485,-82
2021-09-22 19:47:10.625491,-82
2021-09-22 19:47:10.625497,-80
2021-09-22 19:47:10.625504,-70
2021-09-22 19:47:10.625510,-65
2021-09-22 19:47:10.625517,-70
2021-09-22 19:47:10.625525,-70
2021-09-22 19:47:10.625533,-65
2021-09-22 19:47:10.760801,-60
2021-09-22 19:47:10.760823,-55
2021-09-22 19:47:10.760830,-48
2021-09-22 19:47:10.760836,-48
2021-09-22 19:47:10.760842,-48
2021-09-22 19:47:10.760849,-51
2021-09-22 19:47:10.760854,-53
2021-09-22 19:47:10.760860,-43
2021-09-22 19:47:10.760866,-36
2021-09-22 19:47:10.760872,-34
2021-09-22 19:47:10.760878,-38
2021-09-22 19:47:10.760884,-41
2021-09-22 19:47:10.760890,-34
2021-09-22 19:47:10.760896,-24
2021-09-22 19:47:10.760902,-29
2021-09-22 19:47:10.760908,-38
2021-09-22 19:47:10.760914,-34
2021-09-22 19:47:10.760920,-19
2021-09-22 19:47:10.760926,4
2021-09-22 19:47:10.760932,21
2021-09-22 19:47:10.760938,17
2021-09-22 19:47:10.760944,24
2021-09-22 19:47:10.760950,29
2021-09-22 19:47:10.760956,9
2021-09-22 19:47:10.760961,-9
2021-09-22 19:47:10.760967,-14
2021-09-22 19:47:10.760973,-24
2021-09-22 19:47:10.760979,-34
2021-09-22 19:47:10.760985,-29
2021-09-22 19:47:10.760991,-21
2021-09-22 19:47:10.985863,-19
2021-09-22 19:47:10.985884,-19
2021-09-22 19:47:10.985891,-14
2021-09-22 19:47:10.985897,12
2021-09-22 19:47:10.985903,80
2021-09-22 19:47:10.985909,221
2021-09-22 19:47:10.985915,452
2021-09-22 19:47:10.985921,528
2021-09-22 19:47:10.985927,187
2021-09-22 19:47:10.985933,-372
2021-09-22 19:47:10.985939,-712
2021-09-22 19:47:10.985944,-559
2021-09-22 19:47:10.985950,-180
2021-09-22 19:47:10.985956,-36
2021-09-22 19:47:10.985962,-21
2021-09-22 19:47:10.985968,85
2021-09-22 19:47:10.985974,136
2021-09-22 19:47:10.985980,104
2021-09-22 19:47:10.985985,116
2021-09-22 19:47:10.985991,145
2021-09-22 19:47:10.985997,145
2021-09-22 19:47:10.986003,150
2021-09-22 19:47:10.986009,165
2021-09-22 19:47:10.986014,177
2021-09-22 19:47:10.986020,189
2021-09-22 19:47:10.986026,206
2021-09-22 19:47:10.986032,223
2021-09-22 19:47:10.986038,240
2021-09-22 19:47:10.986044,260
2021-09-22 19:47:10.986049,284
2021-09-22 19:47:11.210884,313
2021-09-22 19:47:11.210905,345
2021-09-22 19:47:11.210912,374
2021-09-22 19:47:11.210918,394
2021-09-22 19:47:11.210924,406
2021-09-22 19:47:11.210930,418
2021-09-22 19:47:11.210936,420
2021-09-22 19:47:11.210942,406
2021-09-22 19:47:11.210948,379
2021-09-22 19:47:11.210954,328
2021-09-22 19:47:11.210960,248
2021-09-22 19:47:11.210966,153
2021-09-22 19:47:11.210972,58
2021-09-22 19:47:11.210978,-21
2021-09-22 19:47:11.210983,-90
2021-09-22 19:47:11.210989,-148
2021-09-22 19:47:11.210995,-187
2021-09-22 19:47:11.211001,-199
2021-09-22 19:47:11.211007,-209
2021-09-22 19:47:11.211012,-216
2021-09-22 19:47:11.211018,-214
2021-09-22 19:47:11.211024,-199
2021-09-22 19:47:11.211030,-187
2021-09-22 19:47:11.211036,-170
2021-09-22 19:47:11.211041,-153
2021-09-22 19:47:11.211047,-141
2021-09-22 19:47:11.211053,-128
2021-09-22 19:47:11.211059,-121
2021-09-22 19:47:11.211065,-111
2021-09-22 19:47:11.211071,-99
2021-09-22 19:47:11.480805,-90
2021-09-22 19:47:11.480826,-94
2021-09-22 19:47:11.480833,-104
2021-09-22 19:47:11.480839,-107
2021-09-22 19:47:11.480846,-102
2021-09-22 19:47:11.480852,-94
2021-09-22 19:47:11.480858,-85
2021-09-22 19:47:11.480864,-85
2021-09-22 19:47:11.480870,-92
2021-09-22 19:47:11.480876,-99
2021-09-22 19:47:11.480882,-94
2021-09-22 19:47:11.480888,-85
2021-09-22 19:47:11.480894,-77
2021-09-22 19:47:11.480900,-72
2021-09-22 19:47:11.480906,-77
2021-09-22 19:47:11.480912,-80
2021-09-22 19:47:11.480918,-72
2021-09-22 19:47:11.480923,-65
2021-09-22 19:47:11.480929,-63
2021-09-22 19:47:11.480935,-60
2021-09-22 19:47:11.480940,-58
2021-09-22 19:47:11.480946,-60
2021-09-22 19:47:11.480952,-60
2021-09-22 19:47:11.480958,-53
2021-09-22 19:47:11.480963,-53
2021-09-22 19:47:11.480970,-53
2021-09-22 19:47:11.480975,-53
2021-09-22 19:47:11.480981,-43
2021-09-22 19:47:11.480987,-21
2021-09-22 19:47:11.480993,-4
2021-09-22 19:47:11.839511,-2
2021-09-22 19:47:11.839533,4
2021-09-22 19:47:11.839541,2
2021-09-22 19:47:11.839547,-26
2021-09-22 19:47:11.839553,-41
2021-09-22 19:47:11.839559,-38
2021-09-22 19:47:11.839565,-31
2021-09-22 19:47:11.839571,-26
2021-09-22 19:47:11.839576,-31
2021-09-22 19:47:11.839582,-41
2021-09-22 19:47:11.839588,-36
2021-09-22 19:47:11.839594,-31
2021-09-22 19:47:11.839600,-19
2021-09-22 19:47:11.839606,21
2021-09-22 19:47:11.839612,102
2021-09-22 19:47:11.839617,257
2021-09-22 19:47:11.839623,459
2021-09-22 19:47:11.839629,411
2021-09-22 19:47:11.839635,-24
2021-09-22 19:47:11.839641,-537
2021-09-22 19:47:11.839647,-742
2021-09-22 19:47:11.839653,-476
2021-09-22 19:47:11.839659,-133
2021-09-22 19:47:11.839665,-65
2021-09-22 19:47:11.839670,-29
2021-09-22 19:47:11.839676,85
2021-09-22 19:47:11.839682,104
2021-09-22 19:47:11.839688,72
2021-09-22 19:47:11.839694,99
2021-09-22 19:47:11.839700,126
2021-09-22 19:47:11.930741,121
2021-09-22 19:47:11.930761,128
2021-09-22 19:47:11.930768,145
2021-09-22 19:47:11.930775,153
2021-09-22 19:47:11.930781,160
2021-09-22 19:47:11.930787,180
2021-09-22 19:47:11.930793,192
2021-09-22 19:47:11.930799,197
2021-09-22 19:47:11.930892,209
2021-09-22 19:47:11.930899,236
2021-09-22 19:47:11.930905,267
2021-09-22 19:47:11.930911,296
2021-09-22 19:47:11.930917,326
2021-09-22 19:47:11.930922,343
2021-09-22 19:47:11.930928,357
2021-09-22 19:47:11.930935,367
2021-09-22 19:47:11.930941,364
2021-09-22 19:47:11.930947,347
2021-09-22 19:47:11.930953,311
2021-09-22 19:47:11.930959,245
2021-09-22 19:47:11.930965,155
2021-09-22 19:47:11.930971,58
2021-09-22 19:47:11.930977,-34
2021-09-22 19:47:11.930983,-109
2021-09-22 19:47:11.930989,-170
2021-09-22 19:47:11.930994,-218
2021-09-22 19:47:11.931000,-248
2021-09-22 19:47:11.931006,-260
2021-09-22 19:47:11.931012,-260
2021-09-22 19:47:11.931018,-262
2021-09-22 19:47:12.155790,-265
2021-09-22 19:47:12.155810,-257
2021-09-22 19:47:12.155817,-240
2021-09-22 19:47:12.155823,-226
2021-09-22 19:47:12.155829,-209
2021-09-22 19:47:12.155835,-189
2021-09-22 19:47:12.155841,-182
2021-09-22 19:47:12.155847,-180
2021-09-22 19:47:12.155853,-167
2021-09-22 19:47:12.155859,-155
2021-09-22 19:47:12.155865,-148
2021-09-22 19:47:12.155871,-138
2021-09-22 19:47:12.155876,-136
2021-09-22 19:47:12.155882,-136
2021-09-22 19:47:12.155888,-133
2021-09-22 19:47:12.155894,-128
2021-09-22 19:47:12.155900,-124
2021-09-22 19:47:12.155906,-119
2021-09-22 19:47:12.155912,-119
2021-09-22 19:47:12.155917,-119
2021-09-22 19:47:12.155923,-114
2021-09-22 19:47:12.155929,-109
2021-09-22 19:47:12.155935,-107
2021-09-22 19:47:12.155940,-104
2021-09-22 19:47:12.155946,-102
2021-09-22 19:47:12.155952,-99
2021-09-22 19:47:12.155958,-97
2021-09-22 19:47:12.155964,-102
2021-09-22 19:47:12.155969,-99
2021-09-22 19:47:12.155975,-90
2021-09-22 19:47:12.425297,-90
2021-09-22 19:47:12.425318,-87
2021-09-22 19:47:12.425325,-80
2021-09-22 19:47:12.425331,-75
2021-09-22 19:47:12.425337,-72
2021-09-22 19:47:12.425344,-72
2021-09-22 19:47:12.425350,-77
2021-09-22 19:47:12.425356,-77
2021-09-22 19:47:12.425362,-70
2021-09-22 19:47:12.425368,-58
2021-09-22 19:47:12.425374,-38
2021-09-22 19:47:12.425379,-24
2021-09-22 19:47:12.425385,-36
2021-09-22 19:47:12.425391,-43
2021-09-22 19:47:12.425397,-36
2021-09-22 19:47:12.425403,-43
2021-09-22 19:47:12.425409,-63
2021-09-22 19:47:12.425415,-72
2021-09-22 19:47:12.425421,-75
2021-09-22 19:47:12.425427,-65
2021-09-22 19:47:12.425432,-60
2021-09-22 19:47:12.425438,-63
2021-09-22 19:47:12.425444,-63
2021-09-22 19:47:12.425450,-55
2021-09-22 19:47:12.425456,-48
2021-09-22 19:47:12.425461,-17
2021-09-22 19:47:12.425467,60
2021-09-22 19:47:12.425473,221
2021-09-22 19:47:12.425479,455
2021-09-22 19:47:12.425485,479
2021-09-22 19:47:12.605823,92
2021-09-22 19:47:12.605843,-428
2021-09-22 19:47:12.605850,-732
2021-09-22 19:47:12.605856,-583
2021-09-22 19:47:12.605862,-199
2021-09-22 19:47:12.605868,-60
2021-09-22 19:47:12.605874,-55
