Time,ECG
2021-09-22 19:36:40.296959,-182
2021-09-22 19:36:40.296977,-170
2021-09-22 19:36:40.296984,-163
2021-09-22 19:36:40.296990,-148
2021-09-22 19:36:40.296996,-133
2021-09-22 19:36:40.297003,-119
2021-09-22 19:36:40.297008,-109
2021-09-22 19:36:40.297014,-107
2021-09-22 19:36:40.297020,-102
2021-09-22 19:36:40.297027,-94
2021-09-22 19:36:40.297033,-87
2021-09-22 19:36:40.297039,-85
2021-09-22 19:36:40.297044,-85
2021-09-22 19:36:40.297050,-87
2021-09-22 19:36:40.297056,-87
2021-09-22 19:36:40.297061,-87
2021-09-22 19:36:40.297067,-87
2021-09-22 19:36:40.297073,-85
2021-09-22 19:36:40.297079,-85
2021-09-22 19:36:40.297085,-92
2021-09-22 19:36:40.297090,-97
2021-09-22 19:36:40.297096,-92
2021-09-22 19:36:40.297102,-87
2021-09-22 19:36:40.297107,-92
2021-09-22 19:36:40.297113,-97
2021-09-22 19:36:40.297119,-99
2021-09-22 19:36:40.297125,-104
2021-09-22 19:36:40.297131,-99
2021-09-22 19:36:40.297136,-90
2021-09-22 19:36:40.297142,-90
2021-09-22 19:36:40.481993,-94
2021-09-22 19:36:40.482011,-94
2021-09-22 19:36:40.482018,-90
2021-09-22 19:36:40.482024,-87
2021-09-22 19:36:40.482029,-85
2021-09-22 19:36:40.482035,-77
2021-09-22 19:36:40.482042,-80
2021-09-22 19:36:40.482048,-87
2021-09-22 19:36:40.482053,-85
2021-09-22 19:36:40.482059,-80
2021-09-22 19:36:40.482064,-80
2021-09-22 19:36:40.482070,-82
2021-09-22 19:36:40.482076,-87
2021-09-22 19:36:40.482081,-94
2021-09-22 19:36:40.482087,-94
2021-09-22 19:36:40.482093,-87
2021-09-22 19:36:40.482099,-90
2021-09-22 19:36:40.482105,-94
2021-09-22 19:36:40.482111,-90
2021-09-22 19:36:40.482117,-80
2021-09-22 19:36:40.482122,-63
2021-09-22 19:36:40.482128,-43
2021-09-22 19:36:40.482134,-34
2021-09-22 19:36:40.482139,-26
2021-09-22 19:36:40.482145,-31
2021-09-22 19:36:40.482154,-60
2021-09-22 19:36:40.482160,-77
2021-09-22 19:36:40.482166,-72
2021-09-22 19:36:40.482171,-63
2021-09-22 19:36:40.482185,-60
2021-09-22 19:36:40.706888,-60
2021-09-22 19:36:40.706905,-58
2021-09-22 19:36:40.706912,-51
2021-09-22 19:36:40.706918,-21
2021-09-22 19:36:40.706924,41
2021-09-22 19:36:40.706930,145
2021-09-22 19:36:40.706935,316
2021-09-22 19:36:40.706941,413
2021-09-22 19:36:40.706947,116
2021-09-22 19:36:40.706953,-472
2021-09-22 19:36:40.706959,-890
2021-09-22 19:36:40.706964,-812
2021-09-22 19:36:40.706970,-377
2021-09-22 19:36:40.706980,-102
2021-09-22 19:36:40.706985,-34
2021-09-22 19:36:40.706991,82
2021-09-22 19:36:40.706997,158
2021-09-22 19:36:40.707003,133
2021-09-22 19:36:40.707008,141
2021-09-22 19:36:40.707014,172
2021-09-22 19:36:40.707020,167
2021-09-22 19:36:40.707026,163
2021-09-22 19:36:40.707031,184
2021-09-22 19:36:40.707037,201
2021-09-22 19:36:40.707043,209
2021-09-22 19:36:40.707048,226
2021-09-22 19:36:40.707054,240
2021-09-22 19:36:40.707060,250
2021-09-22 19:36:40.707066,270
2021-09-22 19:36:40.707073,296
2021-09-22 19:36:40.931933,321
2021-09-22 19:36:40.931950,333
2021-09-22 19:36:40.931957,345
2021-09-22 19:36:40.931963,355
2021-09-22 19:36:40.931969,352
2021-09-22 19:36:40.931975,323
2021-09-22 19:36:40.931981,284
2021-09-22 19:36:40.931986,248
2021-09-22 19:36:40.931992,197
2021-09-22 19:36:40.931998,131
2021-09-22 19:36:40.932004,63
2021-09-22 19:36:40.932010,-9
2021-09-22 19:36:40.932016,-72
2021-09-22 19:36:40.932021,-114
2021-09-22 19:36:40.932027,-153
2021-09-22 19:36:40.932033,-189
2021-09-22 19:36:40.932038,-206
2021-09-22 19:36:40.932047,-206
2021-09-22 19:36:40.932053,-201
2021-09-22 19:36:40.932059,-189
2021-09-22 19:36:40.932065,-175
2021-09-22 19:36:40.932071,-163
2021-09-22 19:36:40.932076,-145
2021-09-22 19:36:40.932082,-128
2021-09-22 19:36:40.932088,-114
2021-09-22 19:36:40.932094,-102
2021-09-22 19:36:40.932099,-94
2021-09-22 19:36:40.932105,-94
2021-09-22 19:36:40.932111,-97
2021-09-22 19:36:40.932117,-97
2021-09-22 19:36:41.200622,-97
2021-09-22 19:36:41.200639,-94
2021-09-22 19:36:41.200646,-92
2021-09-22 19:36:41.200652,-92
2021-09-22 19:36:41.200658,-92
2021-09-22 19:36:41.200664,-87
2021-09-22 19:36:41.200670,-92
2021-09-22 19:36:41.200681,-102
2021-09-22 19:36:41.200687,-104
2021-09-22 19:36:41.200693,-102
2021-09-22 19:36:41.200699,-104
2021-09-22 19:36:41.200704,-104
2021-09-22 19:36:41.200710,-94
2021-09-22 19:36:41.200716,-85
2021-09-22 19:36:41.200722,-87
2021-09-22 19:36:41.200727,-90
2021-09-22 19:36:41.200733,-85
2021-09-22 19:36:41.200739,-77
2021-09-22 19:36:41.200744,-75
2021-09-22 19:36:41.200750,-72
2021-09-22 19:36:41.200756,-72
2021-09-22 19:36:41.200762,-72
2021-09-22 19:36:41.200767,-72
2021-09-22 19:36:41.200773,-77
2021-09-22 19:36:41.200779,-77
2021-09-22 19:36:41.200785,-70
2021-09-22 19:36:41.200791,-63
2021-09-22 19:36:41.200796,-65
2021-09-22 19:36:41.200802,-63
2021-09-22 19:36:41.200809,-53
2021-09-22 19:36:41.427004,-53
2021-09-22 19:36:41.427023,-72
2021-09-22 19:36:41.427030,-90
2021-09-22 19:36:41.427036,-92
2021-09-22 19:36:41.427042,-87
2021-09-22 19:36:41.427047,-72
2021-09-22 19:36:41.427053,-51
2021-09-22 19:36:41.427059,-43
2021-09-22 19:36:41.427065,-46
2021-09-22 19:36:41.427071,-65
2021-09-22 19:36:41.427077,-94
2021-09-22 19:36:41.427082,-102
2021-09-22 19:36:41.427088,-94
2021-09-22 19:36:41.427094,-90
2021-09-22 19:36:41.427100,-85
2021-09-22 19:36:41.427106,-85
2021-09-22 19:36:41.427111,-85
2021-09-22 19:36:41.427117,-70
2021-09-22 19:36:41.427123,-41
2021-09-22 19:36:41.427128,9
2021-09-22 19:36:41.427134,111
2021-09-22 19:36:41.427140,313
2021-09-22 19:36:41.427146,452
2021-09-22 19:36:41.427152,214
2021-09-22 19:36:41.427161,-333
2021-09-22 19:36:41.427167,-795
2021-09-22 19:36:41.427173,-771
2021-09-22 19:36:41.427179,-345
2021-09-22 19:36:41.427184,-90
2021-09-22 19:36:41.427190,-51
2021-09-22 19:36:41.651990,63
2021-09-22 19:36:41.652009,143
2021-09-22 19:36:41.652017,109
2021-09-22 19:36:41.652023,107
2021-09-22 19:36:41.652028,133
2021-09-22 19:36:41.652034,136
2021-09-22 19:36:41.652040,145
2021-09-22 19:36:41.652046,167
2021-09-22 19:36:41.652052,170
2021-09-22 19:36:41.652057,170
2021-09-22 19:36:41.652063,187
2021-09-22 19:36:41.652069,211
2021-09-22 19:36:41.652075,228
2021-09-22 19:36:41.652081,250
2021-09-22 19:36:41.652087,274
2021-09-22 19:36:41.652093,294
2021-09-22 19:36:41.652099,316
2021-09-22 19:36:41.652105,340
2021-09-22 19:36:41.652111,355
2021-09-22 19:36:41.652117,350
2021-09-22 19:36:41.652122,328
2021-09-22 19:36:41.652128,296
2021-09-22 19:36:41.652136,255
2021-09-22 19:36:41.652142,204
2021-09-22 19:36:41.652147,143
2021-09-22 19:36:41.652153,75
2021-09-22 19:36:41.652159,7
2021-09-22 19:36:41.652165,-55
2021-09-22 19:36:41.652171,-99
2021-09-22 19:36:41.652176,-131
2021-09-22 19:36:41.921950,-158
2021-09-22 19:36:41.921969,-177
2021-09-22 19:36:41.921976,-187
2021-09-22 19:36:41.921982,-189
2021-09-22 19:36:41.921988,-177
2021-09-22 19:36:41.921994,-165
2021-09-22 19:36:41.922000,-155
2021-09-22 19:36:41.922006,-136
2021-09-22 19:36:41.922012,-128
2021-09-22 19:36:41.922018,-124
2021-09-22 19:36:41.922024,-107
2021-09-22 19:36:41.922030,-92
2021-09-22 19:36:41.922036,-94
2021-09-22 19:36:41.922042,-104
2021-09-22 19:36:41.922048,-116
2021-09-22 19:36:41.922053,-114
2021-09-22 19:36:41.922059,-102
2021-09-22 19:36:41.922065,-94
2021-09-22 19:36:41.922071,-97
2021-09-22 19:36:41.922077,-99
2021-09-22 19:36:41.922083,-107
2021-09-22 19:36:41.922088,-107
2021-09-22 19:36:41.922094,-102
2021-09-22 19:36:41.922100,-94
2021-09-22 19:36:41.922110,-87
2021-09-22 19:36:41.922116,-85
2021-09-22 19:36:41.922121,-85
2021-09-22 19:36:41.922127,-82
2021-09-22 19:36:41.922133,-77
2021-09-22 19:36:41.922138,-68
2021-09-22 19:36:42.102012,-60
2021-09-22 19:36:42.102030,-60
2021-09-22 19:36:42.102037,-65
2021-09-22 19:36:42.102043,-68
2021-09-22 19:36:42.102049,-68
2021-09-22 19:36:42.102055,-63
2021-09-22 19:36:42.102061,-58
2021-09-22 19:36:42.102067,-58
2021-09-22 19:36:42.102072,-60
2021-09-22 19:36:42.102078,-55
2021-09-22 19:36:42.102084,-48
2021-09-22 19:36:42.102090,-51
2021-09-22 19:36:42.102096,-55
2021-09-22 19:36:42.102102,-65
2021-09-22 19:36:42.102108,-77
2021-09-22 19:36:42.102114,-70
2021-09-22 19:36:42.102119,-46
2021-09-22 19:36:42.102125,-21
2021-09-22 19:36:42.102131,-14
2021-09-22 19:36:42.102137,-19
2021-09-22 19:36:42.102143,-24
2021-09-22 19:36:42.102149,-34
2021-09-22 19:36:42.102154,-55
2021-09-22 19:36:42.102160,-72
2021-09-22 19:36:42.102166,-72
2021-09-22 19:36:42.102171,-70
2021-09-22 19:36:42.102177,-75
2021-09-22 19:36:42.102183,-72
2021-09-22 19:36:42.102189,-63
2021-09-22 19:36:42.102195,-55
2021-09-22 19:36:42.371998,-38
2021-09-22 19:36:42.372017,14
2021-09-22 19:36:42.372024,126
2021-09-22 19:36:42.372030,338
2021-09-22 19:36:42.372036,455
2021-09-22 19:36:42.372042,182
2021-09-22 19:36:42.372048,-379
2021-09-22 19:36:42.372054,-834
2021-09-22 19:36:42.372060,-781
2021-09-22 19:36:42.372066,-335
2021-09-22 19:36:42.372072,-97
2021-09-22 19:36:42.372078,-70
2021-09-22 19:36:42.372083,46
2021-09-22 19:36:42.372089,107
2021-09-22 19:36:42.372095,72
2021-09-22 19:36:42.372100,90
2021-09-22 19:36:42.372106,126
2021-09-22 19:36:42.372112,128
2021-09-22 19:36:42.372118,131
2021-09-22 19:36:42.372123,143
2021-09-22 19:36:42.372129,150
2021-09-22 19:36:42.372135,163
2021-09-22 19:36:42.372140,184
2021-09-22 19:36:42.372146,206
2021-09-22 19:36:42.372152,218
2021-09-22 19:36:42.372158,240
2021-09-22 19:36:42.372163,272
2021-09-22 19:36:42.372169,299
2021-09-22 19:36:42.372175,323
2021-09-22 19:36:42.372181,347
2021-09-22 19:36:42.551988,360
2021-09-22 19:36:42.552007,352
2021-09-22 19:36:42.552014,335
2021-09-22 19:36:42.552020,304
2021-09-22 19:36:42.552026,260
2021-09-22 19:36:42.552032,204
2021-09-22 19:36:42.552038,136
2021-09-22 19:36:42.552044,58
2021-09-22 19:36:42.552049,-12
2021-09-22 19:36:42.552055,-70
2021-09-22 19:36:42.552065,-119
2021-09-22 19:36:42.552071,-163
2021-09-22 19:36:42.552077,-192
2021-09-22 19:36:42.552083,-204
2021-09-22 19:36:42.552088,-206
2021-09-22 19:36:42.552094,-199
2021-09-22 19:36:42.552100,-184
2021-09-22 19:36:42.552106,-170
2021-09-22 19:36:42.552112,-163
2021-09-22 19:36:42.552118,-143
2021-09-22 19:36:42.552123,-128
2021-09-22 19:36:42.552129,-126
2021-09-22 19:36:42.552135,-116
2021-09-22 19:36:42.552140,-104
2021-09-22 19:36:42.552146,-99
2021-09-22 19:36:42.552151,-97
2021-09-22 19:36:42.552157,-87
2021-09-22 19:36:42.552163,-82
2021-09-22 19:36:42.552169,-77
2021-09-22 19:36:42.552174,-75
2021-09-22 19:36:42.776982,-77
2021-09-22 19:36:42.777000,-80
2021-09-22 19:36:42.777007,-82
2021-09-22 19:36:42.777013,-85
2021-09-22 19:36:42.777019,-85
2021-09-22 19:36:42.777025,-85
2021-09-22 19:36:42.777031,-87
2021-09-22 19:36:42.777036,-82
2021-09-22 19:36:42.777042,-75
2021-09-22 19:36:42.777048,-75
2021-09-22 19:36:42.777054,-75
2021-09-22 19:36:42.777060,-75
2021-09-22 19:36:42.777065,-80
2021-09-22 19:36:42.777071,-80
2021-09-22 19:36:42.777077,-80
2021-09-22 19:36:42.777083,-80
2021-09-22 19:36:42.777088,-72
2021-09-22 19:36:42.777094,-72
2021-09-22 19:36:42.777100,-75
2021-09-22 19:36:42.777106,-65
2021-09-22 19:36:42.777112,-58
2021-09-22 19:36:42.777117,-60
2021-09-22 19:36:42.777123,-63
2021-09-22 19:36:42.777129,-68
2021-09-22 19:36:42.777135,-72
2021-09-22 19:36:42.777143,-65
2021-09-22 19:36:42.777149,-41
2021-09-22 19:36:42.777155,-24
2021-09-22 19:36:42.777160,-24
2021-09-22 19:36:42.777166,-21
2021-09-22 19:36:43.001989,-12
2021-09-22 19:36:43.002007,-21
2021-09-22 19:36:43.002014,-48
2021-09-22 19:36:43.002020,-68
2021-09-22 19:36:43.002026,-75
2021-09-22 19:36:43.002032,-75
2021-09-22 19:36:43.002037,-70
2021-09-22 19:36:43.002043,-65
2021-09-22 19:36:43.002049,-63
2021-09-22 19:36:43.002055,-58
2021-09-22 19:36:43.002061,-31
2021-09-22 19:36:43.002067,24
2021-09-22 19:36:43.002072,145
2021-09-22 19:36:43.002078,352
2021-09-22 19:36:43.002084,418
2021-09-22 19:36:43.002090,82
2021-09-22 19:36:43.002096,-479
2021-09-22 19:36:43.002102,-885
2021-09-22 19:36:43.002108,-793
2021-09-22 19:36:43.002114,-335
2021-09-22 19:36:43.002119,-94
2021-09-22 19:36:43.002125,-63
2021-09-22 19:36:43.002131,48
2021-09-22 19:36:43.002137,111
2021-09-22 19:36:43.002143,82
2021-09-22 19:36:43.002149,97
2021-09-22 19:36:43.002154,128
2021-09-22 19:36:43.002160,126
2021-09-22 19:36:43.002166,128
2021-09-22 19:36:43.002172,148
2021-09-22 19:36:43.270663,163
2021-09-22 19:36:43.270681,177
2021-09-22 19:36:43.270688,192
2021-09-22 19:36:43.270694,204
2021-09-22 19:36:43.270700,216
2021-09-22 19:36:43.270706,240
2021-09-22 19:36:43.270712,270
2021-09-22 19:36:43.270717,296
2021-09-22 19:36:43.270723,323
2021-09-22 19:36:43.270729,343
2021-09-22 19:36:43.270734,345
2021-09-22 19:36:43.270740,335
2021-09-22 19:36:43.270746,321
2021-09-22 19:36:43.270752,294
2021-09-22 19:36:43.270757,250
2021-09-22 19:36:43.270763,192
2021-09-22 19:36:43.270773,121
2021-09-22 19:36:43.270779,46
2021-09-22 19:36:43.270785,-29
2021-09-22 19:36:43.270791,-85
2021-09-22 19:36:43.270797,-133
2021-09-22 19:36:43.270803,-175
2021-09-22 19:36:43.270808,-199
2021-09-22 19:36:43.270814,-204
2021-09-22 19:36:43.270820,-201
2021-09-22 19:36:43.270825,-194
2021-09-22 19:36:43.270831,-184
2021-09-22 19:36:43.270837,-175
2021-09-22 19:36:43.270843,-160
2021-09-22 19:36:43.270848,-143
2021-09-22 19:36:43.497078,-143
2021-09-22 19:36:43.497098,-138
2021-09-22 19:36:43.497105,-124
2021-09-22 19:36:43.497111,-121
2021-09-22 19:36:43.497117,-124
2021-09-22 19:36:43.497123,-111
2021-09-22 19:36:43.497129,-104
2021-09-22 19:36:43.497134,-102
2021-09-22 19:36:43.497140,-99
2021-09-22 19:36:43.497146,-104
2021-09-22 19:36:43.497152,-109
2021-09-22 19:36:43.497157,-99
2021-09-22 19:36:43.497163,-97
2021-09-22 19:36:43.497169,-97
2021-09-22 19:36:43.497175,-92
2021-09-22 19:36:43.497180,-94
2021-09-22 19:36:43.497186,-97
2021-09-22 19:36:43.497192,-90
2021-09-22 19:36:43.497197,-85
2021-09-22 19:36:43.497203,-85
2021-09-22 19:36:43.497209,-90
2021-09-22 19:36:43.497215,-92
2021-09-22 19:36:43.497220,-85
2021-09-22 19:36:43.497226,-77
2021-09-22 19:36:43.497232,-72
2021-09-22 19:36:43.497237,-68
2021-09-22 19:36:43.497243,-68
2021-09-22 19:36:43.497249,-72
2021-09-22 19:36:43.497254,-68
2021-09-22 19:36:43.497260,-58
2021-09-22 19:36:43.721920,-51
2021-09-22 19:36:43.721937,-53
2021-09-22 19:36:43.721945,-65
2021-09-22 19:36:43.721951,-65
2021-09-22 19:36:43.721956,-41
2021-09-22 19:36:43.721962,-17
2021-09-22 19:36:43.721968,-7
2021-09-22 19:36:43.721974,-4
2021-09-22 19:36:43.721980,-4
2021-09-22 19:36:43.721985,-12
2021-09-22 19:36:43.721991,-31
2021-09-22 19:36:43.721997,-43
2021-09-22 19:36:43.722002,-46
2021-09-22 19:36:43.722011,-43
2021-09-22 19:36:43.722017,-51
2021-09-22 19:36:43.722023,-58
2021-09-22 19:36:43.722028,-51
2021-09-22 19:36:43.722034,-41
2021-09-22 19:36:43.722040,-31
2021-09-22 19:36:43.722045,2
2021-09-22 19:36:43.722051,75
2021-09-22 19:36:43.722057,214
2021-09-22 19:36:43.722063,408
2021-09-22 19:36:43.722069,364
2021-09-22 19:36:43.722074,-65
2021-09-22 19:36:43.722080,-605
2021-09-22 19:36:43.722086,-888
2021-09-22 19:36:43.722091,-639
2021-09-22 19:36:43.722097,-189
2021-09-22 19:36:43.722103,-36
2021-09-22 19:36:43.991303,7
2021-09-22 19:36:43.991320,119
2021-09-22 19:36:43.991327,133
2021-09-22 19:36:43.991334,94
2021-09-22 19:36:43.991339,119
2021-09-22 19:36:43.991345,136
2021-09-22 19:36:43.991351,119
2021-09-22 19:36:43.991357,119
2021-09-22 19:36:43.991362,133
2021-09-22 19:36:43.991368,138
2021-09-22 19:36:43.991374,155
2021-09-22 19:36:43.991380,180
2021-09-22 19:36:43.991386,199
2021-09-22 19:36:43.991392,211
2021-09-22 19:36:43.991397,226
2021-09-22 19:36:43.991403,253
2021-09-22 19:36:43.991409,287
2021-09-22 19:36:43.991414,316
2021-09-22 19:36:43.991420,335
2021-09-22 19:36:43.991426,338
2021-09-22 19:36:43.991431,321
2021-09-22 19:36:43.991437,296
2021-09-22 19:36:43.991442,270
2021-09-22 19:36:43.991448,223
2021-09-22 19:36:43.991454,160
2021-09-22 19:36:43.991459,85
2021-09-22 19:36:43.991465,9
2021-09-22 19:36:43.991471,-60
2021-09-22 19:36:43.991477,-114
2021-09-22 19:36:43.991482,-155
2021-09-22 19:36:44.171912,-187
2021-09-22 19:36:44.171929,-209
2021-09-22 19:36:44.171936,-221
2021-09-22 19:36:44.171942,-221
2021-09-22 19:36:44.171948,-206
2021-09-22 19:36:44.171954,-189
2021-09-22 19:36:44.171960,-175
2021-09-22 19:36:44.171966,-165
2021-09-22 19:36:44.171972,-150
2021-09-22 19:36:44.171978,-136
2021-09-22 19:36:44.171983,-124
2021-09-22 19:36:44.171989,-114
2021-09-22 19:36:44.171995,-109
2021-09-22 19:36:44.172001,-119
2021-09-22 19:36:44.172007,-119
2021-09-22 19:36:44.172012,-107
2021-09-22 19:36:44.172018,-97
2021-09-22 19:36:44.172027,-94
2021-09-22 19:36:44.172033,-92
2021-09-22 19:36:44.172038,-94
2021-09-22 19:36:44.172044,-94
2021-09-22 19:36:44.172050,-92
2021-09-22 19:36:44.172056,-87
2021-09-22 19:36:44.172061,-90
2021-09-22 19:36:44.172067,-90
2021-09-22 19:36:44.172073,-92
2021-09-22 19:36:44.172079,-99
2021-09-22 19:36:44.172085,-99
2021-09-22 19:36:44.172090,-90
2021-09-22 19:36:44.172096,-85
2021-09-22 19:36:44.397039,-85
2021-09-22 19:36:44.397058,-80
2021-09-22 19:36:44.397065,-72
2021-09-22 19:36:44.397071,-75
2021-09-22 19:36:44.397077,-72
2021-09-22 19:36:44.397083,-68
2021-09-22 19:36:44.397089,-72
2021-09-22 19:36:44.397095,-72
2021-09-22 19:36:44.397100,-70
2021-09-22 19:36:44.397106,-80
2021-09-22 19:36:44.397112,-87
2021-09-22 19:36:44.397118,-87
2021-09-22 19:36:44.397124,-80
2021-09-22 19:36:44.397129,-58
2021-09-22 19:36:44.397135,-41
2021-09-22 19:36:44.397141,-36
2021-09-22 19:36:44.397147,-31
2021-09-22 19:36:44.397152,-43
2021-09-22 19:36:44.397158,-68
2021-09-22 19:36:44.397164,-75
2021-09-22 19:36:44.397169,-65
2021-09-22 19:36:44.397175,-58
2021-09-22 19:36:44.397181,-53
2021-09-22 19:36:44.397187,-53
2021-09-22 19:36:44.397192,-51
2021-09-22 19:36:44.397198,-46
2021-09-22 19:36:44.397204,-17
2021-09-22 19:36:44.397210,48
2021-09-22 19:36:44.397215,170
2021-09-22 19:36:44.397221,372
2021-09-22 19:36:44.621936,411
2021-09-22 19:36:44.621954,43
2021-09-22 19:36:44.621961,-508
2021-09-22 19:36:44.621967,-863
2021-09-22 19:36:44.621973,-720
2021-09-22 19:36:44.621979,-260
2021-09-22 19:36:44.621985,-46
2021-09-22 19:36:44.621991,-14
2021-09-22 19:36:44.621996,102
2021-09-22 19:36:44.622002,150
2021-09-22 19:36:44.622008,111
2021-09-22 19:36:44.622014,121
2021-09-22 19:36:44.622019,141
2021-09-22 19:36:44.622025,138
2021-09-22 19:36:44.622031,148
2021-09-22 19:36:44.622037,163
2021-09-22 19:36:44.622042,175
2021-09-22 19:36:44.622048,187
2021-09-22 19:36:44.622054,204
2021-09-22 19:36:44.622059,223
2021-09-22 19:36:44.622065,245
2021-09-22 19:36:44.622071,262
2021-09-22 19:36:44.622076,284
2021-09-22 19:36:44.622082,309
2021-09-22 19:36:44.622088,328
2021-09-22 19:36:44.622093,340
2021-09-22 19:36:44.622099,345
2021-09-22 19:36:44.622105,335
2021-09-22 19:36:44.622110,313
2021-09-22 19:36:44.622119,279
2021-09-22 19:36:44.891287,233
2021-09-22 19:36:44.891304,175
2021-09-22 19:36:44.891311,107
2021-09-22 19:36:44.891317,31
2021-09-22 19:36:44.891323,-41
2021-09-22 19:36:44.891329,-107
2021-09-22 19:36:44.891335,-155
2021-09-22 19:36:44.891341,-182
2021-09-22 19:36:44.891347,-206
2021-09-22 19:36:44.891352,-226
2021-09-22 19:36:44.891358,-231
2021-09-22 19:36:44.891364,-226
2021-09-22 19:36:44.891369,-214
2021-09-22 19:36:44.891375,-192
2021-09-22 19:36:44.891381,-172
2021-09-22 19:36:44.891387,-163
2021-09-22 19:36:44.891392,-158
2021-09-22 19:36:44.891398,-153
2021-09-22 19:36:44.891404,-138
2021-09-22 19:36:44.891409,-124
2021-09-22 19:36:44.891415,-119
2021-09-22 19:36:44.891421,-114
2021-09-22 19:36:44.891427,-111
2021-09-22 19:36:44.891433,-109
2021-09-22 19:36:44.891438,-104
2021-09-22 19:36:44.891444,-99
2021-09-22 19:36:44.891450,-102
2021-09-22 19:36:44.891456,-104
2021-09-22 19:36:44.891461,-102
2021-09-22 19:36:44.891467,-97
2021-09-22 19:36:45.116995,-94
2021-09-22 19:36:45.117013,-92
2021-09-22 19:36:45.117020,-99
2021-09-22 19:36:45.117026,-104
2021-09-22 19:36:45.117032,-99
2021-09-22 19:36:45.117037,-99
2021-09-22 19:36:45.117043,-94
2021-09-22 19:36:45.117049,-85
2021-09-22 19:36:45.117055,-85
2021-09-22 19:36:45.117061,-90
2021-09-22 19:36:45.117067,-90
2021-09-22 19:36:45.117072,-90
2021-09-22 19:36:45.117078,-85
2021-09-22 19:36:45.117084,-77
2021-09-22 19:36:45.117090,-72
2021-09-22 19:36:45.117096,-75
2021-09-22 19:36:45.117101,-77
2021-09-22 19:36:45.117107,-80
2021-09-22 19:36:45.117112,-82
2021-09-22 19:36:45.117118,-70
2021-09-22 19:36:45.117124,-46
2021-09-22 19:36:45.117130,-29
2021-09-22 19:36:45.117136,-21
2021-09-22 19:36:45.117141,-17
2021-09-22 19:36:45.117147,-4
2021-09-22 19:36:45.117153,-4
2021-09-22 19:36:45.117158,-31
2021-09-22 19:36:45.117164,-58
2021-09-22 19:36:45.117170,-60
2021-09-22 19:36:45.117175,-48
2021-09-22 19:36:45.385738,-41
2021-09-22 19:36:45.385757,-41
2021-09-22 19:36:45.385764,-41
2021-09-22 19:36:45.385771,-38
2021-09-22 19:36:45.385777,-26
2021-09-22 19:36:45.385783,12
2021-09-22 19:36:45.385789,99
2021-09-22 19:36:45.385795,270
2021-09-22 19:36:45.385801,445
2021-09-22 19:36:45.385807,301
2021-09-22 19:36:45.385813,-192
2021-09-22 19:36:45.385819,-695
2021-09-22 19:36:45.385824,-871
2021-09-22 19:36:45.385830,-523
2021-09-22 19:36:45.385836,-111
2021-09-22 19:36:45.385842,-31
2021-09-22 19:36:45.385848,24
2021-09-22 19:36:45.385853,141
2021-09-22 19:36:45.385859,138
2021-09-22 19:36:45.385865,116
2021-09-22 19:36:45.385874,155
2021-09-22 19:36:45.385879,158
2021-09-22 19:36:45.385885,136
2021-09-22 19:36:45.385891,153
2021-09-22 19:36:45.385897,180
2021-09-22 19:36:45.385903,187
2021-09-22 19:36:45.385909,194
2021-09-22 19:36:45.385914,206
2021-09-22 19:36:45.385920,226
2021-09-22 19:36:45.385926,250
2021-09-22 19:36:45.611941,274
2021-09-22 19:36:45.611959,296
2021-09-22 19:36:45.611966,323
2021-09-22 19:36:45.611972,343
2021-09-22 19:36:45.611978,350
2021-09-22 19:36:45.611983,347
2021-09-22 19:36:45.611989,330
2021-09-22 19:36:45.611995,296
2021-09-22 19:36:45.612001,248
2021-09-22 19:36:45.612007,189
2021-09-22 19:36:45.612012,126
2021-09-22 19:36:45.612018,63
2021-09-22 19:36:45.612024,-12
2021-09-22 19:36:45.612029,-82
2021-09-22 19:36:45.612035,-138
2021-09-22 19:36:45.612041,-187
2021-09-22 19:36:45.612047,-214
2021-09-22 19:36:45.612052,-226
2021-09-22 19:36:45.612058,-233
2021-09-22 19:36:45.612064,-228
2021-09-22 19:36:45.612069,-216
2021-09-22 19:36:45.612075,-204
2021-09-22 19:36:45.612081,-189
2021-09-22 19:36:45.612086,-170
2021-09-22 19:36:45.612092,-155
2021-09-22 19:36:45.612098,-143
2021-09-22 19:36:45.612103,-133
2021-09-22 19:36:45.612109,-126
2021-09-22 19:36:45.612115,-116
2021-09-22 19:36:45.612120,-107
2021-09-22 19:36:45.791986,-102
2021-09-22 19:36:45.792005,-99
2021-09-22 19:36:45.792012,-99
2021-09-22 19:36:45.792018,-99
2021-09-22 19:36:45.792024,-94
2021-09-22 19:36:45.792030,-90
2021-09-22 19:36:45.792035,-87
2021-09-22 19:36:45.792041,-92
2021-09-22 19:36:45.792047,-97
2021-09-22 19:36:45.792053,-102
2021-09-22 19:36:45.792058,-97
2021-09-22 19:36:45.792064,-90
2021-09-22 19:36:45.792070,-87
2021-09-22 19:36:45.792075,-90
2021-09-22 19:36:45.792081,-94
2021-09-22 19:36:45.792087,-92
2021-09-22 19:36:45.792093,-82
2021-09-22 19:36:45.792099,-75
2021-09-22 19:36:45.792104,-75
2021-09-22 19:36:45.792110,-80
2021-09-22 19:36:45.792115,-92
2021-09-22 19:36:45.792121,-87
2021-09-22 19:36:45.792127,-72
2021-09-22 19:36:45.792133,-70
2021-09-22 19:36:45.792139,-68
2021-09-22 19:36:45.792144,-65
2021-09-22 19:36:45.792150,-72
2021-09-22 19:36:45.792156,-85
2021-09-22 19:36:45.792161,-80
2021-09-22 19:36:45.792167,-58
2021-09-22 19:36:46.106399,-31
2021-09-22 19:36:46.106418,-24
2021-09-22 19:36:46.106426,-29
2021-09-22 19:36:46.106432,-21
2021-09-22 19:36:46.106439,-26
2021-09-22 19:36:46.106445,-51
2021-09-22 19:36:46.106451,-63
2021-09-22 19:36:46.106458,-65
2021-09-22 19:36:46.106464,-68
2021-09-22 19:36:46.106488,-65
2021-09-22 19:36:46.106497,-68
2021-09-22 19:36:46.106503,-68
2021-09-22 19:36:46.106509,-60
2021-09-22 19:36:46.106515,-48
2021-09-22 19:36:46.106522,-2
2021-09-22 19:36:46.106528,104
2021-09-22 19:36:46.106534,294
2021-09-22 19:36:46.106540,425
2021-09-22 19:36:46.106546,192
2021-09-22 19:36:46.106552,-338
2021-09-22 19:36:46.106558,-795
2021-09-22 19:36:46.106565,-839
2021-09-22 19:36:46.106574,-413
2021-09-22 19:36:46.106580,-68
2021-09-22 19:36:46.106586,-24
2021-09-22 19:36:46.106593,55
2021-09-22 19:36:46.106599,145
2021-09-22 19:36:46.106605,126
2021-09-22 19:36:46.106611,124
2021-09-22 19:36:46.106617,160
2021-09-22 19:36:46.241961,163
2021-09-22 19:36:46.241979,160
2021-09-22 19:36:46.241986,180
2021-09-22 19:36:46.241992,189
2021-09-22 19:36:46.241998,199
2021-09-22 19:36:46.242004,218
2021-09-22 19:36:46.242010,231
2021-09-22 19:36:46.242016,238
2021-09-22 19:36:46.242022,255
2021-09-22 19:36:46.242027,277
2021-09-22 19:36:46.242033,301
2021-09-22 19:36:46.242039,328
2021-09-22 19:36:46.242045,343
2021-09-22 19:36:46.242050,350
2021-09-22 19:36:46.242056,345
2021-09-22 19:36:46.242062,328
2021-09-22 19:36:46.242067,299
2021-09-22 19:36:46.242073,262
2021-09-22 19:36:46.242079,206
2021-09-22 19:36:46.242085,133
2021-09-22 19:36:46.242090,60
2021-09-22 19:36:46.242096,-14
2021-09-22 19:36:46.242101,-80
2021-09-22 19:36:46.242107,-128
2021-09-22 19:36:46.242113,-172
2021-09-22 19:36:46.242118,-201
2021-09-22 19:36:46.242124,-216
2021-09-22 19:36:46.242130,-223
2021-09-22 19:36:46.242136,-214
2021-09-22 19:36:46.242141,-199
2021-09-22 19:36:46.467056,-187
2021-09-22 19:36:46.467074,-175
2021-09-22 19:36:46.467081,-163
2021-09-22 19:36:46.467088,-160
2021-09-22 19:36:46.467094,-160
2021-09-22 19:36:46.467100,-150
2021-09-22 19:36:46.467105,-148
2021-09-22 19:36:46.467111,-143
2021-09-22 19:36:46.467117,-131
2021-09-22 19:36:46.467123,-124
2021-09-22 19:36:46.467129,-124
2021-09-22 19:36:46.467135,-121
2021-09-22 19:36:46.467141,-124
2021-09-22 19:36:46.467146,-124
2021-09-22 19:36:46.467152,-126
2021-09-22 19:36:46.467158,-131
2021-09-22 19:36:46.467164,-126
2021-09-22 19:36:46.467169,-119
2021-09-22 19:36:46.467175,-121
2021-09-22 19:36:46.467181,-121
2021-09-22 19:36:46.467187,-114
2021-09-22 19:36:46.467192,-109
2021-09-22 19:36:46.467198,-107
2021-09-22 19:36:46.467204,-102
2021-09-22 19:36:46.467210,-97
2021-09-22 19:36:46.467215,-92
2021-09-22 19:36:46.467221,-87
2021-09-22 19:36:46.467227,-85
2021-09-22 19:36:46.467232,-80
2021-09-22 19:36:46.467238,-77
2021-09-22 19:36:46.691950,-77
2021-09-22 19:36:46.691967,-72
2021-09-22 19:36:46.691974,-68
2021-09-22 19:36:46.691980,-68
2021-09-22 19:36:46.691986,-75
2021-09-22 19:36:46.691992,-82
2021-09-22 19:36:46.691998,-72
2021-09-22 19:36:46.692004,-51
2021-09-22 19:36:46.692010,-29
2021-09-22 19:36:46.692016,-19
2021-09-22 19:36:46.692021,-21
2021-09-22 19:36:46.692027,-24
2021-09-22 19:36:46.692033,-34
2021-09-22 19:36:46.692039,-55
2021-09-22 19:36:46.692044,-68
2021-09-22 19:36:46.692050,-63
2021-09-22 19:36:46.692056,-63
2021-09-22 19:36:46.692062,-63
2021-09-22 19:36:46.692068,-58
2021-09-22 19:36:46.692073,-51
2021-09-22 19:36:46.692079,-46
2021-09-22 19:36:46.692085,-31
2021-09-22 19:36:46.692091,12
2021-09-22 19:36:46.692097,102
2021-09-22 19:36:46.692102,279
2021-09-22 19:36:46.692108,442
2021-09-22 19:36:46.692114,260
2021-09-22 19:36:46.692119,-255
2021-09-22 19:36:46.692125,-749
2021-09-22 19:36:46.692131,-866
2021-09-22 19:36:46.962010,-467
2021-09-22 19:36:46.962027,-80
2021-09-22 19:36:46.962034,-17
2021-09-22 19:36:46.962040,48
2021-09-22 19:36:46.962046,145
2021-09-22 19:36:46.962055,126
2021-09-22 19:36:46.962061,116
2021-09-22 19:36:46.962067,158
2021-09-22 19:36:46.962073,160
2021-09-22 19:36:46.962078,141
2021-09-22 19:36:46.962084,145
2021-09-22 19:36:46.962090,163
2021-09-22 19:36:46.962095,175
2021-09-22 19:36:46.962101,189
2021-09-22 19:36:46.962106,204
2021-09-22 19:36:46.962112,221
2021-09-22 19:36:46.962118,243
2021-09-22 19:36:46.962124,270
2021-09-22 19:36:46.962129,289
2021-09-22 19:36:46.962135,304
2021-09-22 19:36:46.962140,330
2021-09-22 19:36:46.962146,343
2021-09-22 19:36:46.962152,333
2021-09-22 19:36:46.962158,318
2021-09-22 19:36:46.962163,296
2021-09-22 19:36:46.962169,262
2021-09-22 19:36:46.962175,211
2021-09-22 19:36:46.962180,141
2021-09-22 19:36:46.962186,65
2021-09-22 19:36:46.962192,-9
2021-09-22 19:36:47.232072,-75
2021-09-22 19:36:47.232090,-128
2021-09-22 19:36:47.232097,-175
2021-09-22 19:36:47.232103,-211
2021-09-22 19:36:47.232109,-231
2021-09-22 19:36:47.232115,-231
2021-09-22 19:36:47.232121,-221
2021-09-22 19:36:47.232127,-209
2021-09-22 19:36:47.232133,-197
2021-09-22 19:36:47.232139,-189
2021-09-22 19:36:47.232144,-180
2021-09-22 19:36:47.232150,-163
2021-09-22 19:36:47.232156,-145
2021-09-22 19:36:47.232162,-136
2021-09-22 19:36:47.232167,-131
2021-09-22 19:36:47.232173,-131
2021-09-22 19:36:47.232179,-131
2021-09-22 19:36:47.232188,-121
2021-09-22 19:36:47.232194,-111
2021-09-22 19:36:47.232200,-114
2021-09-22 19:36:47.232205,-116
2021-09-22 19:36:47.232211,-124
2021-09-22 19:36:47.232217,-124
2021-09-22 19:36:47.232223,-114
2021-09-22 19:36:47.232228,-111
2021-09-22 19:36:47.232234,-109
2021-09-22 19:36:47.232240,-109
2021-09-22 19:36:47.232246,-109
2021-09-22 19:36:47.232251,-107
2021-09-22 19:36:47.232257,-99
2021-09-22 19:36:47.455684,-92
2021-09-22 19:36:47.455702,-87
2021-09-22 19:36:47.455709,-90
2021-09-22 19:36:47.455715,-99
2021-09-22 19:36:47.455721,-97
2021-09-22 19:36:47.455727,-85
2021-09-22 19:36:47.455733,-77
2021-09-22 19:36:47.455739,-75
2021-09-22 19:36:47.455745,-72
2021-09-22 19:36:47.455751,-77
2021-09-22 19:36:47.455757,-72
2021-09-22 19:36:47.455763,-65
2021-09-22 19:36:47.455769,-70
2021-09-22 19:36:47.455775,-72
2021-09-22 19:36:47.455780,-68
2021-09-22 19:36:47.455786,-68
2021-09-22 19:36:47.455792,-53
2021-09-22 19:36:47.455798,-29
2021-09-22 19:36:47.455804,-19
2021-09-22 19:36:47.455809,-14
2021-09-22 19:36:47.455815,-24
2021-09-22 19:36:47.455821,-55
2021-09-22 19:36:47.455827,-70
2021-09-22 19:36:47.455832,-68
2021-09-22 19:36:47.455838,-65
2021-09-22 19:36:47.455844,-60
2021-09-22 19:36:47.455849,-60
2021-09-22 19:36:47.455855,-68
2021-09-22 19:36:47.455861,-65
2021-09-22 19:36:47.455867,-43
2021-09-22 19:36:47.636968,0
2021-09-22 19:36:47.636985,77
2021-09-22 19:36:47.636992,231
2021-09-22 19:36:47.636998,420
2021-09-22 19:36:47.637004,338
2021-09-22 19:36:47.637010,-121
2021-09-22 19:36:47.637016,-649
2021-09-22 19:36:47.637022,-885
2021-09-22 19:36:47.637028,-591
2021-09-22 19:36:47.637033,-148
2021-09-22 19:36:47.637039,-19
2021-09-22 19:36:47.637045,26
2021-09-22 19:36:47.637051,136
2021-09-22 19:36:47.637057,141
2021-09-22 19:36:47.637063,109
2021-09-22 19:36:47.637069,133
2021-09-22 19:36:47.637075,158
2021-09-22 19:36:47.637081,160
2021-09-22 19:36:47.637086,172
2021-09-22 19:36:47.637092,189
2021-09-22 19:36:47.637098,192
2021-09-22 19:36:47.637104,201
2021-09-22 19:36:47.637109,221
2021-09-22 19:36:47.637115,240
2021-09-22 19:36:47.637121,255
2021-09-22 19:36:47.637126,267
2021-09-22 19:36:47.637132,289
2021-09-22 19:36:47.637138,313
2021-09-22 19:36:47.637144,335
2021-09-22 19:36:47.637149,352
2021-09-22 19:36:47.862022,355
2021-09-22 19:36:47.862042,338
2021-09-22 19:36:47.862049,306
2021-09-22 19:36:47.862055,272
2021-09-22 19:36:47.862061,228
2021-09-22 19:36:47.862067,172
2021-09-22 19:36:47.862073,99
2021-09-22 19:36:47.862079,19
2021-09-22 19:36:47.862085,-55
2021-09-22 19:36:47.862091,-111
2021-09-22 19:36:47.862097,-158
2021-09-22 19:36:47.862102,-194
2021-09-22 19:36:47.862108,-216
2021-09-22 19:36:47.862114,-226
2021-09-22 19:36:47.862120,-231
2021-09-22 19:36:47.862126,-216
2021-09-22 19:36:47.862132,-197
2021-09-22 19:36:47.862137,-187
2021-09-22 19:36:47.862143,-177
2021-09-22 19:36:47.862149,-165
2021-09-22 19:36:47.862154,-163
2021-09-22 19:36:47.862160,-160
2021-09-22 19:36:47.862166,-145
2021-09-22 19:36:47.862171,-131
2021-09-22 19:36:47.862177,-128
2021-09-22 19:36:47.862183,-124
2021-09-22 19:36:47.862189,-121
2021-09-22 19:36:47.862195,-128
2021-09-22 19:36:47.862200,-126
2021-09-22 19:36:47.862206,-116
2021-09-22 19:36:48.086959,-116
2021-09-22 19:36:48.086977,-121
2021-09-22 19:36:48.086983,-119
2021-09-22 19:36:48.086989,-114
2021-09-22 19:36:48.086995,-111
2021-09-22 19:36:48.087001,-114
2021-09-22 19:36:48.087007,-116
2021-09-22 19:36:48.087013,-116
2021-09-22 19:36:48.087019,-111
2021-09-22 19:36:48.087025,-107
2021-09-22 19:36:48.087031,-99
2021-09-22 19:36:48.087036,-94
2021-09-22 19:36:48.087042,-94
2021-09-22 19:36:48.087048,-99
2021-09-22 19:36:48.087053,-92
2021-09-22 19:36:48.087059,-87
2021-09-22 19:36:48.087065,-87
2021-09-22 19:36:48.087071,-85
2021-09-22 19:36:48.087076,-80
2021-09-22 19:36:48.087082,-77
2021-09-22 19:36:48.087088,-75
2021-09-22 19:36:48.087094,-75
2021-09-22 19:36:48.087099,-80
2021-09-22 19:36:48.087105,-72
2021-09-22 19:36:48.087111,-58
2021-09-22 19:36:48.087116,-38
2021-09-22 19:36:48.087122,-17
2021-09-22 19:36:48.087128,-9
2021-09-22 19:36:48.087134,-14
2021-09-22 19:36:48.087139,-29
2021-09-22 19:36:48.401468,-51
2021-09-22 19:36:48.401485,-63
2021-09-22 19:36:48.401492,-58
2021-09-22 19:36:48.401498,-48
2021-09-22 19:36:48.401504,-48
2021-09-22 19:36:48.401510,-48
2021-09-22 19:36:48.401516,-51
2021-09-22 19:36:48.401522,-51
2021-09-22 19:36:48.401528,-31
2021-09-22 19:36:48.401534,12
2021-09-22 19:36:48.401540,97
2021-09-22 19:36:48.401546,267
2021-09-22 19:36:48.401552,430
2021-09-22 19:36:48.401557,265
2021-09-22 19:36:48.401563,-238
2021-09-22 19:36:48.401569,-739
2021-09-22 19:36:48.401575,-871
2021-09-22 19:36:48.401581,-476
2021-09-22 19:36:48.401586,-80
2021-09-22 19:36:48.401592,-17
2021-09-22 19:36:48.401598,46
2021-09-22 19:36:48.401604,148
2021-09-22 19:36:48.401610,138
2021-09-22 19:36:48.401615,119
2021-09-22 19:36:48.401621,153
2021-09-22 19:36:48.401627,165
2021-09-22 19:36:48.401632,155
2021-09-22 19:36:48.401638,158
2021-09-22 19:36:48.401644,172
2021-09-22 19:36:48.401649,184
2021-09-22 19:36:48.536952,192
2021-09-22 19:36:48.536968,201
2021-09-22 19:36:48.536975,218
2021-09-22 19:36:48.536981,240
2021-09-22 19:36:48.536987,262
2021-09-22 19:36:48.536993,284
2021-09-22 19:36:48.536999,309
2021-09-22 19:36:48.537004,335
2021-09-22 19:36:48.537010,345
2021-09-22 19:36:48.537016,338
2021-09-22 19:36:48.537021,323
2021-09-22 19:36:48.537027,294
2021-09-22 19:36:48.537033,253
2021-09-22 19:36:48.537039,209
2021-09-22 19:36:48.537044,150
2021-09-22 19:36:48.537050,72
2021-09-22 19:36:48.537056,-4
2021-09-22 19:36:48.537062,-75
2021-09-22 19:36:48.537067,-136
2021-09-22 19:36:48.537073,-172
2021-09-22 19:36:48.537079,-199
2021-09-22 19:36:48.537085,-216
2021-09-22 19:36:48.537090,-223
2021-09-22 19:36:48.537096,-223
2021-09-22 19:36:48.537102,-216
2021-09-22 19:36:48.537107,-197
2021-09-22 19:36:48.537113,-177
2021-09-22 19:36:48.537119,-165
2021-09-22 19:36:48.537125,-155
2021-09-22 19:36:48.537131,-143
2021-09-22 19:36:48.806974,-131
2021-09-22 19:36:48.806992,-116
2021-09-22 19:36:48.806999,-114
2021-09-22 19:36:48.807005,-119
2021-09-22 19:36:48.807011,-126
2021-09-22 19:36:48.807017,-121
2021-09-22 19:36:48.807023,-116
2021-09-22 19:36:48.807029,-114
2021-09-22 19:36:48.807035,-114
2021-09-22 19:36:48.807040,-111
2021-09-22 19:36:48.807046,-116
2021-09-22 19:36:48.807058,-119
2021-09-22 19:36:48.807064,-109
2021-09-22 19:36:48.807070,-102
2021-09-22 19:36:48.807076,-99
2021-09-22 19:36:48.807082,-94
2021-09-22 19:36:48.807087,-99
2021-09-22 19:36:48.807093,-107
2021-09-22 19:36:48.807099,-99
2021-09-22 19:36:48.807105,-90
2021-09-22 19:36:48.807110,-90
2021-09-22 19:36:48.807116,-90
2021-09-22 19:36:48.807122,-82
2021-09-22 19:36:48.807127,-80
2021-09-22 19:36:48.807133,-77
2021-09-22 19:36:48.807139,-72
2021-09-22 19:36:48.807144,-68
2021-09-22 19:36:48.807150,-72
2021-09-22 19:36:48.807156,-70
2021-09-22 19:36:48.807161,-63
2021-09-22 19:36:48.987019,-55
2021-09-22 19:36:48.987036,-63
2021-09-22 19:36:48.987043,-77
2021-09-22 19:36:48.987049,-82
2021-09-22 19:36:48.987055,-70
2021-09-22 19:36:48.987061,-48
2021-09-22 19:36:48.987067,-34
2021-09-22 19:36:48.987073,-26
2021-09-22 19:36:48.987079,-21
2021-09-22 19:36:48.987085,-34
2021-09-22 19:36:48.987090,-60
2021-09-22 19:36:48.987096,-75
2021-09-22 19:36:48.987102,-70
2021-09-22 19:36:48.987108,-60
2021-09-22 19:36:48.987114,-55
2021-09-22 19:36:48.987119,-63
2021-09-22 19:36:48.987125,-68
2021-09-22 19:36:48.987131,-68
2021-09-22 19:36:48.987137,-60
2021-09-22 19:36:48.987142,-14
2021-09-22 19:36:48.987148,77
2021-09-22 19:36:48.987154,226
2021-09-22 19:36:48.987160,425
2021-09-22 19:36:48.987166,372
2021-09-22 19:36:48.987171,-97
2021-09-22 19:36:48.987177,-649
2021-09-22 19:36:48.987183,-900
2021-09-22 19:36:48.987189,-622
2021-09-22 19:36:48.987194,-163
2021-09-22 19:36:48.987200,-19
2021-09-22 19:36:49.346320,14
2021-09-22 19:36:49.346336,128
2021-09-22 19:36:49.346343,148
2021-09-22 19:36:49.346350,107
2021-09-22 19:36:49.346355,119
2021-09-22 19:36:49.346361,143
2021-09-22 19:36:49.346367,148
2021-09-22 19:36:49.346373,153
2021-09-22 19:36:49.346379,160
2021-09-22 19:36:49.346384,160
2021-09-22 19:36:49.346390,172
2021-09-22 19:36:49.346396,197
2021-09-22 19:36:49.346402,214
2021-09-22 19:36:49.346407,233
2021-09-22 19:36:49.346413,250
2021-09-22 19:36:49.346419,270
2021-09-22 19:36:49.346424,296
2021-09-22 19:36:49.346430,323
2021-09-22 19:36:49.346436,338
2021-09-22 19:36:49.346441,338
2021-09-22 19:36:49.346447,323
2021-09-22 19:36:49.346453,294
2021-09-22 19:36:49.346459,257
2021-09-22 19:36:49.346464,211
2021-09-22 19:36:49.346470,155
2021-09-22 19:36:49.346476,87
2021-09-22 19:36:49.346482,7
2021-09-22 19:36:49.346488,-63
2021-09-22 19:36:49.346493,-109
2021-09-22 19:36:49.346499,-150
2021-09-22 19:36:49.525837,-189
2021-09-22 19:36:49.525857,-209
2021-09-22 19:36:49.525864,-218
2021-09-22 19:36:49.525870,-223
2021-09-22 19:36:49.525876,-211
2021-09-22 19:36:49.525882,-194
2021-09-22 19:36:49.525888,-177
2021-09-22 19:36:49.525893,-160
2021-09-22 19:36:49.525899,-155
2021-09-22 19:36:49.525905,-160
2021-09-22 19:36:49.525911,-148
2021-09-22 19:36:49.525917,-131
2021-09-22 19:36:49.525923,-121
2021-09-22 19:36:49.525929,-114
2021-09-22 19:36:49.525934,-114
2021-09-22 19:36:49.525940,-116
2021-09-22 19:36:49.525946,-109
2021-09-22 19:36:49.525952,-99
2021-09-22 19:36:49.525957,-94
2021-09-22 19:36:49.525963,-99
2021-09-22 19:36:49.525969,-114
2021-09-22 19:36:49.525975,-119
2021-09-22 19:36:49.525980,-109
2021-09-22 19:36:49.525986,-102
2021-09-22 19:36:49.525992,-99
2021-09-22 19:36:49.525997,-97
2021-09-22 19:36:49.526003,-99
2021-09-22 19:36:49.526009,-97
2021-09-22 19:36:49.526014,-87
2021-09-22 19:36:49.526020,-82
2021-09-22 19:36:49.752041,-77
2021-09-22 19:36:49.752058,-75
2021-09-22 19:36:49.752065,-75
2021-09-22 19:36:49.752071,-70
2021-09-22 19:36:49.752077,-60
2021-09-22 19:36:49.752083,-58
2021-09-22 19:36:49.752088,-65
2021-09-22 19:36:49.752094,-70
2021-09-22 19:36:49.752100,-72
2021-09-22 19:36:49.752106,-72
2021-09-22 19:36:49.752112,-72
2021-09-22 19:36:49.752117,-72
2021-09-22 19:36:49.752123,-65
2021-09-22 19:36:49.752129,-53
2021-09-22 19:36:49.752134,-34
2021-09-22 19:36:49.752140,-21
2021-09-22 19:36:49.752146,-19
2021-09-22 19:36:49.752151,-19
2021-09-22 19:36:49.752157,-26
2021-09-22 19:36:49.752163,-48
2021-09-22 19:36:49.752168,-63
2021-09-22 19:36:49.752174,-63
2021-09-22 19:36:49.752180,-53
2021-09-22 19:36:49.752186,-48
2021-09-22 19:36:49.752191,-46
2021-09-22 19:36:49.752197,-41
2021-09-22 19:36:49.752202,-36
2021-09-22 19:36:49.752208,-19
2021-09-22 19:36:49.752214,29
2021-09-22 19:36:49.752220,128
2021-09-22 19:36:49.976970,326
2021-09-22 19:36:49.976987,489
2021-09-22 19:36:49.976994,282
2021-09-22 19:36:49.977000,-253
2021-09-22 19:36:49.977006,-739
2021-09-22 19:36:49.977012,-815
2021-09-22 19:36:49.977017,-406
2021-09-22 19:36:49.977023,-68
2021-09-22 19:36:49.977045,-24
2021-09-22 19:36:49.977052,60
2021-09-22 19:36:49.977058,158
2021-09-22 19:36:49.977063,131
2021-09-22 19:36:49.977069,126
2021-09-22 19:36:49.977075,158
2021-09-22 19:36:49.977081,148
2021-09-22 19:36:49.977086,138
2021-09-22 19:36:49.977092,160
2021-09-22 19:36:49.977098,177
2021-09-22 19:36:49.977103,177
2021-09-22 19:36:49.977109,187
2021-09-22 19:36:49.977115,214
2021-09-22 19:36:49.977123,231
2021-09-22 19:36:49.977129,245
2021-09-22 19:36:49.977135,272
2021-09-22 19:36:49.977140,299
2021-09-22 19:36:49.977146,323
2021-09-22 19:36:49.977152,345
2021-09-22 19:36:49.977158,352
2021-09-22 19:36:49.977163,343
2021-09-22 19:36:49.977169,326
2021-09-22 19:36:50.157057,296
2021-09-22 19:36:50.157074,253
2021-09-22 19:36:50.157081,199
2021-09-22 19:36:50.157087,133
2021-09-22 19:36:50.157093,60
2021-09-22 19:36:50.157099,-12
2021-09-22 19:36:50.157105,-87
2021-09-22 19:36:50.157111,-141
2021-09-22 19:36:50.157116,-175
2021-09-22 19:36:50.157122,-204
2021-09-22 19:36:50.157128,-218
2021-09-22 19:36:50.157134,-221
2021-09-22 19:36:50.157139,-218
2021-09-22 19:36:50.157145,-209
2021-09-22 19:36:50.157151,-192
2021-09-22 19:36:50.157157,-187
2021-09-22 19:36:50.157163,-180
2021-09-22 19:36:50.157168,-160
2021-09-22 19:36:50.157174,-155
2021-09-22 19:36:50.157180,-148
2021-09-22 19:36:50.157185,-131
2021-09-22 19:36:50.157191,-126
2021-09-22 19:36:50.157197,-126
2021-09-22 19:36:50.157202,-116
2021-09-22 19:36:50.157208,-111
2021-09-22 19:36:50.157214,-109
2021-09-22 19:36:50.157219,-104
2021-09-22 19:36:50.157225,-104
2021-09-22 19:36:50.157231,-104
2021-09-22 19:36:50.157236,-99
2021-09-22 19:36:50.382068,-94
2021-09-22 19:36:50.382085,-94
2021-09-22 19:36:50.382092,-92
2021-09-22 19:36:50.382098,-90
2021-09-22 19:36:50.382104,-90
2021-09-22 19:36:50.382110,-94
2021-09-22 19:36:50.382116,-99
2021-09-22 19:36:50.382122,-94
2021-09-22 19:36:50.382128,-82
2021-09-22 19:36:50.382133,-80
2021-09-22 19:36:50.382139,-80
2021-09-22 19:36:50.382145,-82
2021-09-22 19:36:50.382151,-82
2021-09-22 19:36:50.382156,-72
2021-09-22 19:36:50.382162,-65
2021-09-22 19:36:50.382168,-63
2021-09-22 19:36:50.382174,-63
2021-09-22 19:36:50.382180,-63
2021-09-22 19:36:50.382185,-68
2021-09-22 19:36:50.382191,-70
2021-09-22 19:36:50.382197,-72
2021-09-22 19:36:50.382203,-63
2021-09-22 19:36:50.382209,-38
2021-09-22 19:36:50.382215,-29
2021-09-22 19:36:50.382220,-26
2021-09-22 19:36:50.382226,-12
2021-09-22 19:36:50.382232,-7
2021-09-22 19:36:50.382238,-31
2021-09-22 19:36:50.382243,-51
2021-09-22 19:36:50.382249,-58
2021-09-22 19:36:50.607066,-53
2021-09-22 19:36:50.607085,-41
2021-09-22 19:36:50.607092,-38
2021-09-22 19:36:50.607098,-41
2021-09-22 19:36:50.607104,-38
2021-09-22 19:36:50.607110,-34
2021-09-22 19:36:50.607116,0
2021-09-22 19:36:50.607121,90
2021-09-22 19:36:50.607127,270
2021-09-22 19:36:50.607133,479
2021-09-22 19:36:50.607139,389
2021-09-22 19:36:50.607145,-99
2021-09-22 19:36:50.607150,-649
2021-09-22 19:36:50.607156,-868
2021-09-22 19:36:50.607162,-545
2021-09-22 19:36:50.607168,-124
2021-09-22 19:36:50.607174,-24
2021-09-22 19:36:50.607179,31
2021-09-22 19:36:50.607185,143
2021-09-22 19:36:50.607191,141
2021-09-22 19:36:50.607197,109
2021-09-22 19:36:50.607203,143
2021-09-22 19:36:50.607208,165
2021-09-22 19:36:50.607214,160
2021-09-22 19:36:50.607220,175
2021-09-22 19:36:50.607225,194
2021-09-22 19:36:50.607231,204
2021-09-22 19:36:50.607237,216
2021-09-22 19:36:50.607243,233
2021-09-22 19:36:50.607248,253
2021-09-22 19:36:50.832061,272
2021-09-22 19:36:50.832078,296
2021-09-22 19:36:50.832085,318
2021-09-22 19:36:50.832091,335
2021-09-22 19:36:50.832097,347
2021-09-22 19:36:50.832103,357
2021-09-22 19:36:50.832109,367
2021-09-22 19:36:50.832115,355
2021-09-22 19:36:50.832121,326
2021-09-22 19:36:50.832127,282
2021-09-22 19:36:50.832132,221
2021-09-22 19:36:50.832138,155
2021-09-22 19:36:50.832144,90
2021-09-22 19:36:50.832150,19
2021-09-22 19:36:50.832156,-48
2021-09-22 19:36:50.832161,-102
2021-09-22 19:36:50.832167,-145
2021-09-22 19:36:50.832173,-175
2021-09-22 19:36:50.832178,-192
2021-09-22 19:36:50.832184,-197
2021-09-22 19:36:50.832190,-199
2021-09-22 19:36:50.832196,-194
2021-09-22 19:36:50.832204,-182
2021-09-22 19:36:50.832210,-165
2021-09-22 19:36:50.832216,-148
2021-09-22 19:36:50.832221,-138
2021-09-22 19:36:50.832227,-136
2021-09-22 19:36:50.832233,-141
2021-09-22 19:36:50.832239,-131
2021-09-22 19:36:50.832245,-116
2021-09-22 19:36:51.102141,-104
2021-09-22 19:36:51.102160,-99
2021-09-22 19:36:51.102167,-99
2021-09-22 19:36:51.102173,-107
2021-09-22 19:36:51.102179,-107
2021-09-22 19:36:51.102185,-99
2021-09-22 19:36:51.102191,-94
2021-09-22 19:36:51.102197,-92
2021-09-22 19:36:51.102203,-97
2021-09-22 19:36:51.102208,-107
2021-09-22 19:36:51.102214,-104
2021-09-22 19:36:51.102220,-92
2021-09-22 19:36:51.102226,-85
2021-09-22 19:36:51.102231,-80
2021-09-22 19:36:51.102237,-77
2021-09-22 19:36:51.102243,-80
2021-09-22 19:36:51.102248,-77
2021-09-22 19:36:51.102254,-72
2021-09-22 19:36:51.102260,-77
2021-09-22 19:36:51.102266,-75
2021-09-22 19:36:51.102271,-55
2021-09-22 19:36:51.102277,-48
2021-09-22 19:36:51.102283,-55
2021-09-22 19:36:51.102291,-60
2021-09-22 19:36:51.102297,-63
2021-09-22 19:36:51.102303,-72
2021-09-22 19:36:51.102308,-70
2021-09-22 19:36:51.102314,-43
2021-09-22 19:36:51.102320,-19
2021-09-22 19:36:51.102326,-7
2021-09-22 19:36:51.327015,0
2021-09-22 19:36:51.327032,2
2021-09-22 19:36:51.327039,7
2021-09-22 19:36:51.327045,2
2021-09-22 19:36:51.327051,-19
2021-09-22 19:36:51.327057,-34
2021-09-22 19:36:51.327063,-36
2021-09-22 19:36:51.327069,-34
2021-09-22 19:36:51.327075,-38
2021-09-22 19:36:51.327080,-48
2021-09-22 19:36:51.327086,-41
2021-09-22 19:36:51.327092,-24
2021-09-22 19:36:51.327098,-7
2021-09-22 19:36:51.327104,36
2021-09-22 19:36:51.327110,128
2021-09-22 19:36:51.327115,318
2021-09-22 19:36:51.327121,489
2021-09-22 19:36:51.327127,296
2021-09-22 19:36:51.327133,-228
2021-09-22 19:36:51.327139,-722
2021-09-22 19:36:51.327144,-837
2021-09-22 19:36:51.327150,-433
2021-09-22 19:36:51.327156,-53
2021-09-22 19:36:51.327162,-4
2021-09-22 19:36:51.327168,70
2021-09-22 19:36:51.327174,175
2021-09-22 19:36:51.327179,153
2021-09-22 19:36:51.327185,136
2021-09-22 19:36:51.327191,177
2021-09-22 19:36:51.327197,192
2021-09-22 19:36:51.595801,184
2021-09-22 19:36:51.595819,197
2021-09-22 19:36:51.595826,204
2021-09-22 19:36:51.595833,209
2021-09-22 19:36:51.595838,228
2021-09-22 19:36:51.595844,250
2021-09-22 19:36:51.595850,272
2021-09-22 19:36:51.595856,289
2021-09-22 19:36:51.595862,301
2021-09-22 19:36:51.595867,318
2021-09-22 19:36:51.595873,347
2021-09-22 19:36:51.595879,379
2021-09-22 19:36:51.595884,394
2021-09-22 19:36:51.595890,382
2021-09-22 19:36:51.595896,352
2021-09-22 19:36:51.595902,326
2021-09-22 19:36:51.595907,291
2021-09-22 19:36:51.595913,240
2021-09-22 19:36:51.595919,175
2021-09-22 19:36:51.595924,99
2021-09-22 19:36:51.595930,24
2021-09-22 19:36:51.595936,-46
2021-09-22 19:36:51.595942,-102
2021-09-22 19:36:51.595947,-138
2021-09-22 19:36:51.595953,-160
2021-09-22 19:36:51.595959,-175
2021-09-22 19:36:51.595964,-189
2021-09-22 19:36:51.595970,-194
2021-09-22 19:36:51.595976,-189
2021-09-22 19:36:51.595981,-170
2021-09-22 19:36:51.777060,-150
2021-09-22 19:36:51.777077,-141
2021-09-22 19:36:51.777084,-128
2021-09-22 19:36:51.777090,-114
2021-09-22 19:36:51.777096,-107
2021-09-22 19:36:51.777102,-99
2021-09-22 19:36:51.777108,-87
2021-09-22 19:36:51.777114,-90
2021-09-22 19:36:51.777119,-94
2021-09-22 19:36:51.777125,-85
2021-09-22 19:36:51.777131,-75
2021-09-22 19:36:51.777137,-77
2021-09-22 19:36:51.777142,-80
2021-09-22 19:36:51.777148,-82
2021-09-22 19:36:51.777154,-90
2021-09-22 19:36:51.777160,-87
2021-09-22 19:36:51.777166,-77
2021-09-22 19:36:51.777171,-70
2021-09-22 19:36:51.777177,-70
2021-09-22 19:36:51.777183,-70
2021-09-22 19:36:51.777189,-68
2021-09-22 19:36:51.777195,-65
2021-09-22 19:36:51.777200,-60
2021-09-22 19:36:51.777206,-53
2021-09-22 19:36:51.777212,-53
2021-09-22 19:36:51.777218,-55
2021-09-22 19:36:51.777223,-51
2021-09-22 19:36:51.777229,-48
2021-09-22 19:36:51.777235,-51
2021-09-22 19:36:51.777241,-55
2021-09-22 19:36:52.002071,-60
2021-09-22 19:36:52.002088,-48
2021-09-22 19:36:52.002094,-24
2021-09-22 19:36:52.002101,-14
2021-09-22 19:36:52.002106,-12
2021-09-22 19:36:52.002112,-2
2021-09-22 19:36:52.002118,-7
2021-09-22 19:36:52.002124,-34
2021-09-22 19:36:52.002130,-60
2021-09-22 19:36:52.002136,-63
2021-09-22 19:36:52.002141,-53
2021-09-22 19:36:52.002147,-53
2021-09-22 19:36:52.002153,-58
2021-09-22 19:36:52.002159,-55
2021-09-22 19:36:52.002165,-46
2021-09-22 19:36:52.002171,-34
2021-09-22 19:36:52.002176,2
2021-09-22 19:36:52.002183,65
2021-09-22 19:36:52.002188,172
2021-09-22 19:36:52.002194,362
2021-09-22 19:36:52.002200,408
2021-09-22 19:36:52.002206,46
2021-09-22 19:36:52.002212,-506
2021-09-22 19:36:52.002217,-829
2021-09-22 19:36:52.002223,-652
2021-09-22 19:36:52.002229,-218
2021-09-22 19:36:52.002235,-36
2021-09-22 19:36:52.002240,-4
2021-09-22 19:36:52.002246,121
2021-09-22 19:36:52.002252,172
2021-09-22 19:36:52.227082,133
2021-09-22 19:36:52.227098,150
2021-09-22 19:36:52.227105,175
2021-09-22 19:36:52.227111,167
2021-09-22 19:36:52.227117,177
2021-09-22 19:36:52.227123,194
2021-09-22 19:36:52.227128,189
2021-09-22 19:36:52.227134,199
2021-09-22 19:36:52.227140,226
2021-09-22 19:36:52.227146,248
2021-09-22 19:36:52.227152,265
2021-09-22 19:36:52.227158,284
2021-09-22 19:36:52.227164,306
2021-09-22 19:36:52.227169,338
2021-09-22 19:36:52.227175,364
2021-09-22 19:36:52.227181,374
2021-09-22 19:36:52.227187,374
2021-09-22 19:36:52.227193,360
2021-09-22 19:36:52.227198,328
2021-09-22 19:36:52.227204,296
2021-09-22 19:36:52.227210,255
2021-09-22 19:36:52.227215,184
2021-09-22 19:36:52.227221,97
2021-09-22 19:36:52.227227,21
2021-09-22 19:36:52.227232,-36
2021-09-22 19:36:52.227238,-90
2021-09-22 19:36:52.227244,-138
2021-09-22 19:36:52.227250,-180
2021-09-22 19:36:52.227256,-206
2021-09-22 19:36:52.227261,-216
2021-09-22 19:36:52.452149,-221
2021-09-22 19:36:52.452167,-214
2021-09-22 19:36:52.452175,-197
2021-09-22 19:36:52.452181,-189
2021-09-22 19:36:52.452187,-184
2021-09-22 19:36:52.452192,-172
2021-09-22 19:36:52.452198,-153
2021-09-22 19:36:52.452204,-141
2021-09-22 19:36:52.452210,-136
2021-09-22 19:36:52.452215,-124
2021-09-22 19:36:52.452221,-109
2021-09-22 19:36:52.452227,-111
2021-09-22 19:36:52.452232,-119
2021-09-22 19:36:52.452238,-121
2021-09-22 19:36:52.452244,-124
2021-09-22 19:36:52.452250,-121
2021-09-22 19:36:52.452255,-119
2021-09-22 19:36:52.452261,-116
2021-09-22 19:36:52.452267,-111
2021-09-22 19:36:52.452273,-107
2021-09-22 19:36:52.452278,-109
2021-09-22 19:36:52.452284,-109
2021-09-22 19:36:52.452290,-104
2021-09-22 19:36:52.452296,-99
2021-09-22 19:36:52.452301,-97
2021-09-22 19:36:52.452307,-90
2021-09-22 19:36:52.452313,-90
2021-09-22 19:36:52.452319,-92
2021-09-22 19:36:52.452325,-97
2021-09-22 19:36:52.452333,-99
2021-09-22 19:36:52.677097,-92
2021-09-22 19:36:52.677115,-82
2021-09-22 19:36:52.677122,-75
2021-09-22 19:36:52.677128,-68
2021-09-22 19:36:52.677133,-65
2021-09-22 19:36:52.677139,-58
2021-09-22 19:36:52.677145,-51
2021-09-22 19:36:52.677150,-60
2021-09-22 19:36:52.677156,-87
2021-09-22 19:36:52.677162,-97
2021-09-22 19:36:52.677167,-94
2021-09-22 19:36:52.677173,-87
2021-09-22 19:36:52.677179,-82
2021-09-22 19:36:52.677185,-77
2021-09-22 19:36:52.677190,-68
2021-09-22 19:36:52.677196,-58
2021-09-22 19:36:52.677202,-21
2021-09-22 19:36:52.677208,55
2021-09-22 19:36:52.677214,180
2021-09-22 19:36:52.677219,345
2021-09-22 19:36:52.677225,299
2021-09-22 19:36:52.677231,-163
2021-09-22 19:36:52.677236,-708
2021-09-22 19:36:52.677242,-929
2021-09-22 19:36:52.677248,-678
2021-09-22 19:36:52.677253,-236
2021-09-22 19:36:52.677259,-46
2021-09-22 19:36:52.677265,7
2021-09-22 19:36:52.677271,116
2021-09-22 19:36:52.677276,150
2021-09-22 19:36:53.036373,126
2021-09-22 19:36:53.036392,148
2021-09-22 19:36:53.036397,170
2021-09-22 19:36:53.036402,153
2021-09-22 19:36:53.036407,148
2021-09-22 19:36:53.036412,172
2021-09-22 19:36:53.036417,192
2021-09-22 19:36:53.036422,192
2021-09-22 19:36:53.036427,197
2021-09-22 19:36:53.036432,201
2021-09-22 19:36:53.036438,218
2021-09-22 19:36:53.036443,250
2021-09-22 19:36:53.036448,282
2021-09-22 19:36:53.036453,304
2021-09-22 19:36:53.036458,326
2021-09-22 19:36:53.036463,343
2021-09-22 19:36:53.036467,345
2021-09-22 19:36:53.036473,333
2021-09-22 19:36:53.036477,309
2021-09-22 19:36:53.036482,267
2021-09-22 19:36:53.036486,214
2021-09-22 19:36:53.036491,150
2021-09-22 19:36:53.036496,75
2021-09-22 19:36:53.036500,7
2021-09-22 19:36:53.036505,-48
2021-09-22 19:36:53.036510,-104
2021-09-22 19:36:53.036514,-155
2021-09-22 19:36:53.036519,-194
2021-09-22 19:36:53.036523,-211
2021-09-22 19:36:53.036528,-211
2021-09-22 19:36:53.172113,-214
2021-09-22 19:36:53.172130,-209
2021-09-22 19:36:53.172137,-197
2021-09-22 19:36:53.172143,-184
2021-09-22 19:36:53.172150,-167
2021-09-22 19:36:53.172156,-148
2021-09-22 19:36:53.172161,-141
2021-09-22 19:36:53.172167,-138
2021-09-22 19:36:53.172173,-138
2021-09-22 19:36:53.172179,-138
2021-09-22 19:36:53.172185,-141
2021-09-22 19:36:53.172191,-141
2021-09-22 19:36:53.172196,-131
2021-09-22 19:36:53.172202,-124
2021-09-22 19:36:53.172208,-133
2021-09-22 19:36:53.172214,-141
2021-09-22 19:36:53.172220,-131
2021-09-22 19:36:53.172225,-124
2021-09-22 19:36:53.172231,-126
2021-09-22 19:36:53.172237,-124
2021-09-22 19:36:53.172243,-126
2021-09-22 19:36:53.172248,-133
2021-09-22 19:36:53.172254,-126
2021-09-22 19:36:53.172260,-114
2021-09-22 19:36:53.172266,-109
2021-09-22 19:36:53.172271,-111
2021-09-22 19:36:53.172277,-119
2021-09-22 19:36:53.172283,-124
2021-09-22 19:36:53.172289,-111
2021-09-22 19:36:53.172294,-94
2021-09-22 19:36:53.442209,-87
2021-09-22 19:36:53.442227,-80
2021-09-22 19:36:53.442234,-70
2021-09-22 19:36:53.442240,-63
2021-09-22 19:36:53.442246,-53
2021-09-22 19:36:53.442252,-55
2021-09-22 19:36:53.442258,-75
2021-09-22 19:36:53.442264,-90
2021-09-22 19:36:53.442270,-87
2021-09-22 19:36:53.442276,-85
2021-09-22 19:36:53.442282,-80
2021-09-22 19:36:53.442288,-77
2021-09-22 19:36:53.442294,-80
2021-09-22 19:36:53.442300,-70
2021-09-22 19:36:53.442305,-21
2021-09-22 19:36:53.442311,72
2021-09-22 19:36:53.442317,228
2021-09-22 19:36:53.442323,372
2021-09-22 19:36:53.442329,182
2021-09-22 19:36:53.442335,-396
2021-09-22 19:36:53.442341,-914
2021-09-22 19:36:53.442346,-1014
2021-09-22 19:36:53.442352,-608
2021-09-22 19:36:53.442358,-131
2021-09-22 19:36:53.442364,-4
2021-09-22 19:36:53.442369,34
2021-09-22 19:36:53.442375,136
2021-09-22 19:36:53.442381,145
2021-09-22 19:36:53.442386,128
2021-09-22 19:36:53.442392,160
2021-09-22 19:36:53.665763,175
2021-09-22 19:36:53.665780,170
2021-09-22 19:36:53.665787,182
2021-09-22 19:36:53.665793,197
2021-09-22 19:36:53.665799,206
2021-09-22 19:36:53.665805,221
2021-09-22 19:36:53.665811,238
2021-09-22 19:36:53.665817,248
2021-09-22 19:36:53.665822,262
2021-09-22 19:36:53.665828,287
2021-09-22 19:36:53.665834,318
2021-09-22 19:36:53.665840,345
2021-09-22 19:36:53.665846,369
2021-09-22 19:36:53.665852,384
2021-09-22 19:36:53.665858,382
2021-09-22 19:36:53.665864,360
2021-09-22 19:36:53.665869,338
2021-09-22 19:36:53.665875,309
2021-09-22 19:36:53.665881,253
2021-09-22 19:36:53.665887,177
2021-09-22 19:36:53.665892,99
2021-09-22 19:36:53.665898,21
2021-09-22 19:36:53.665904,-46
2021-09-22 19:36:53.665910,-99
2021-09-22 19:36:53.665916,-143
2021-09-22 19:36:53.665921,-175
2021-09-22 19:36:53.665927,-189
2021-09-22 19:36:53.665933,-194
2021-09-22 19:36:53.665939,-192
2021-09-22 19:36:53.665944,-177
2021-09-22 19:36:53.847034,-167
2021-09-22 19:36:53.847051,-170
2021-09-22 19:36:53.847058,-167
2021-09-22 19:36:53.847064,-153
2021-09-22 19:36:53.847070,-150
2021-09-22 19:36:53.847075,-145
2021-09-22 19:36:53.847081,-133
2021-09-22 19:36:53.847087,-111
2021-09-22 19:36:53.847093,-87
2021-09-22 19:36:53.847098,-82
2021-09-22 19:36:53.847104,-92
2021-09-22 19:36:53.847110,-104
2021-09-22 19:36:53.847116,-116
2021-09-22 19:36:53.847121,-116
2021-09-22 19:36:53.847127,-107
2021-09-22 19:36:53.847133,-111
2021-09-22 19:36:53.847138,-126
2021-09-22 19:36:53.847144,-128
2021-09-22 19:36:53.847150,-128
2021-09-22 19:36:53.847156,-133
2021-09-22 19:36:53.847161,-136
2021-09-22 19:36:53.847167,-131
2021-09-22 19:36:53.847173,-128
2021-09-22 19:36:53.847185,-126
2021-09-22 19:36:53.847191,-131
2021-09-22 19:36:53.847197,-133
2021-09-22 19:36:53.847203,-126
2021-09-22 19:36:53.847208,-116
2021-09-22 19:36:53.847214,-104
2021-09-22 19:36:53.847220,-97
2021-09-22 19:36:54.072132,-97
2021-09-22 19:36:54.072149,-85
2021-09-22 19:36:54.072156,-75
2021-09-22 19:36:54.072162,-90
2021-09-22 19:36:54.072168,-107
2021-09-22 19:36:54.072174,-109
2021-09-22 19:36:54.072180,-107
2021-09-22 19:36:54.072186,-107
2021-09-22 19:36:54.072191,-97
2021-09-22 19:36:54.072197,-99
2021-09-22 19:36:54.072203,-99
2021-09-22 19:36:54.072209,-70
2021-09-22 19:36:54.072215,-17
2021-09-22 19:36:54.072220,75
2021-09-22 19:36:54.072226,287
2021-09-22 19:36:54.072232,430
2021-09-22 19:36:54.072238,133
2021-09-22 19:36:54.072244,-450
2021-09-22 19:36:54.072249,-858
2021-09-22 19:36:54.072255,-832
2021-09-22 19:36:54.072261,-416
2021-09-22 19:36:54.072267,-99
2021-09-22 19:36:54.072273,-51
2021-09-22 19:36:54.072278,29
2021-09-22 19:36:54.072284,119
2021-09-22 19:36:54.072290,114
2021-09-22 19:36:54.072296,121
2021-09-22 19:36:54.072302,148
2021-09-22 19:36:54.072310,145
2021-09-22 19:36:54.072316,145
2021-09-22 19:36:54.297106,165
2021-09-22 19:36:54.297123,184
2021-09-22 19:36:54.297130,209
2021-09-22 19:36:54.297136,226
2021-09-22 19:36:54.297142,233
2021-09-22 19:36:54.297148,248
2021-09-22 19:36:54.297154,262
2021-09-22 19:36:54.297160,291
2021-09-22 19:36:54.297165,328
2021-09-22 19:36:54.297171,355
2021-09-22 19:36:54.297177,369
2021-09-22 19:36:54.297183,369
2021-09-22 19:36:54.297189,355
2021-09-22 19:36:54.297195,345
2021-09-22 19:36:54.297200,323
2021-09-22 19:36:54.297206,260
2021-09-22 19:36:54.297212,182
2021-09-22 19:36:54.297218,124
2021-09-22 19:36:54.297224,58
2021-09-22 19:36:54.297229,-19
2021-09-22 19:36:54.297235,-77
2021-09-22 19:36:54.297241,-128
2021-09-22 19:36:54.297247,-172
2021-09-22 19:36:54.297253,-194
2021-09-22 19:36:54.297258,-201
2021-09-22 19:36:54.297264,-199
2021-09-22 19:36:54.297270,-187
2021-09-22 19:36:54.297275,-180
2021-09-22 19:36:54.297281,-170
2021-09-22 19:36:54.297287,-150
2021-09-22 19:36:54.522111,-133
2021-09-22 19:36:54.522129,-121
2021-09-22 19:36:54.522136,-109
2021-09-22 19:36:54.522142,-97
2021-09-22 19:36:54.522148,-99
2021-09-22 19:36:54.522154,-109
2021-09-22 19:36:54.522160,-111
2021-09-22 19:36:54.522166,-107
2021-09-22 19:36:54.522172,-104
2021-09-22 19:36:54.522178,-104
2021-09-22 19:36:54.522184,-109
2021-09-22 19:36:54.522190,-109
2021-09-22 19:36:54.522196,-94
2021-09-22 19:36:54.522201,-87
2021-09-22 19:36:54.522207,-97
2021-09-22 19:36:54.522213,-119
2021-09-22 19:36:54.522219,-141
2021-09-22 19:36:54.522224,-104
2021-09-22 19:36:54.522230,-46
2021-09-22 19:36:54.522236,-60
2021-09-22 19:36:54.522241,-92
2021-09-22 19:36:54.522247,-82
2021-09-22 19:36:54.522253,-82
2021-09-22 19:36:54.522259,-116
2021-09-22 19:36:54.522264,-148
2021-09-22 19:36:54.522270,-121
2021-09-22 19:36:54.522276,-68
2021-09-22 19:36:54.522282,-46
2021-09-22 19:36:54.522288,-24
2021-09-22 19:36:54.522293,-26
2021-09-22 19:36:54.791459,-65
2021-09-22 19:36:54.791477,-87
2021-09-22 19:36:54.791484,-97
2021-09-22 19:36:54.791491,-107
2021-09-22 19:36:54.791497,-104
2021-09-22 19:36:54.791503,-87
2021-09-22 19:36:54.791509,-80
2021-09-22 19:36:54.791515,-80
2021-09-22 19:36:54.791521,-46
2021-09-22 19:36:54.791527,36
2021-09-22 19:36:54.791533,175
2021-09-22 19:36:54.791539,386
2021-09-22 19:36:54.791545,435
2021-09-22 19:36:54.791550,0
2021-09-22 19:36:54.791556,-686
2021-09-22 19:36:54.791562,-1024
2021-09-22 19:36:54.791568,-756
2021-09-22 19:36:54.791573,-282
2021-09-22 19:36:54.791579,-82
2021-09-22 19:36:54.791585,-24
2021-09-22 19:36:54.791591,94
2021-09-22 19:36:54.791597,138
2021-09-22 19:36:54.791603,133
2021-09-22 19:36:54.791608,175
2021-09-22 19:36:54.791614,189
2021-09-22 19:36:54.791620,175
2021-09-22 19:36:54.791626,189
2021-09-22 19:36:54.791631,204
2021-09-22 19:36:54.791637,206
2021-09-22 19:36:54.791643,228
2021-09-22 19:36:55.017104,250
2021-09-22 19:36:55.017121,265
2021-09-22 19:36:55.017128,279
2021-09-22 19:36:55.017134,299
2021-09-22 19:36:55.017140,330
2021-09-22 19:36:55.017146,369
2021-09-22 19:36:55.017151,406
2021-09-22 19:36:55.017157,420
2021-09-22 19:36:55.017163,413
2021-09-22 19:36:55.017169,396
2021-09-22 19:36:55.017175,360
2021-09-22 19:36:55.017181,299
2021-09-22 19:36:55.017187,240
2021-09-22 19:36:55.017193,187
2021-09-22 19:36:55.017198,121
2021-09-22 19:36:55.017205,41
2021-09-22 19:36:55.017211,-24
2021-09-22 19:36:55.017216,-77
2021-09-22 19:36:55.017222,-133
2021-09-22 19:36:55.017228,-160
2021-09-22 19:36:55.017234,-155
2021-09-22 19:36:55.017239,-172
2021-09-22 19:36:55.017245,-182
2021-09-22 19:36:55.017251,-160
2021-09-22 19:36:55.017257,-148
2021-09-22 19:36:55.017262,-138
2021-09-22 19:36:55.017268,-119
2021-09-22 19:36:55.017274,-104
2021-09-22 19:36:55.017280,-99
2021-09-22 19:36:55.017286,-99
2021-09-22 19:36:55.242083,-97
2021-09-22 19:36:55.242100,-85
2021-09-22 19:36:55.242107,-65
2021-09-22 19:36:55.242113,-53
2021-09-22 19:36:55.242119,-53
2021-09-22 19:36:55.242125,-43
2021-09-22 19:36:55.242131,-34
2021-09-22 19:36:55.242137,-60
2021-09-22 19:36:55.242143,-104
2021-09-22 19:36:55.242149,-104
2021-09-22 19:36:55.242155,-82
2021-09-22 19:36:55.242160,-82
2021-09-22 19:36:55.242166,-77
2021-09-22 19:36:55.242172,-65
2021-09-22 19:36:55.242178,-58
2021-09-22 19:36:55.242183,-55
2021-09-22 19:36:55.242189,-70
2021-09-22 19:36:55.242194,-92
2021-09-22 19:36:55.242200,-82
2021-09-22 19:36:55.242206,-60
2021-09-22 19:36:55.242211,-58
2021-09-22 19:36:55.242217,-60
2021-09-22 19:36:55.242223,-41
2021-09-22 19:36:55.242229,-9
2021-09-22 19:36:55.242235,-2
2021-09-22 19:36:55.242240,-41
2021-09-22 19:36:55.242246,-70
2021-09-22 19:36:55.242252,-65
2021-09-22 19:36:55.242257,-87
2021-09-22 19:36:55.242263,-116
2021-09-22 19:36:55.467187,-102
2021-09-22 19:36:55.467206,-97
2021-09-22 19:36:55.467213,-114
2021-09-22 19:36:55.467219,-70
2021-09-22 19:36:55.467225,9
2021-09-22 19:36:55.467231,80
2021-09-22 19:36:55.467237,165
2021-09-22 19:36:55.467243,46
2021-09-22 19:36:55.467249,-545
2021-09-22 19:36:55.467255,-1245
2021-09-22 19:36:55.467260,-1498
2021-09-22 19:36:55.467266,-1226
2021-09-22 19:36:55.467272,-783
2021-09-22 19:36:55.467278,-525
2021-09-22 19:36:55.467284,-369
2021-09-22 19:36:55.467289,-163
2021-09-22 19:36:55.467295,-46
2021-09-22 19:36:55.467301,-34
2021-09-22 19:36:55.467306,31
2021-09-22 19:36:55.467312,116
2021-09-22 19:36:55.467318,119
2021-09-22 19:36:55.467323,104
2021-09-22 19:36:55.467329,133
2021-09-22 19:36:55.467335,175
2021-09-22 19:36:55.467340,214
2021-09-22 19:36:55.467346,248
2021-09-22 19:36:55.467352,282
2021-09-22 19:36:55.467358,321
2021-09-22 19:36:55.467364,369
2021-09-22 19:36:55.467370,406
2021-09-22 19:36:55.735796,416
2021-09-22 19:36:55.735814,435
2021-09-22 19:36:55.735822,462
2021-09-22 19:36:55.735828,447
2021-09-22 19:36:55.735834,406
2021-09-22 19:36:55.735840,374
2021-09-22 19:36:55.735846,335
2021-09-22 19:36:55.735851,267
2021-09-22 19:36:55.735857,194
2021-09-22 19:36:55.735863,119
2021-09-22 19:36:55.735869,36
2021-09-22 19:36:55.735875,-29
2021-09-22 19:36:55.735881,-85
2021-09-22 19:36:55.735887,-138
2021-09-22 19:36:55.735893,-172
2021-09-22 19:36:55.735898,-199
2021-09-22 19:36:55.735904,-223
2021-09-22 19:36:55.735910,-214
2021-09-22 19:36:55.735916,-184
2021-09-22 19:36:55.735921,-175
2021-09-22 19:36:55.735927,-165
2021-09-22 19:36:55.735933,-148
2021-09-22 19:36:55.735939,-138
2021-09-22 19:36:55.735944,-116
2021-09-22 19:36:55.735950,-104
2021-09-22 19:36:55.735956,-102
2021-09-22 19:36:55.735962,-85
2021-09-22 19:36:55.735967,-80
2021-09-22 19:36:55.735973,-90
2021-09-22 19:36:55.735979,-90
2021-09-22 19:36:55.961540,-90
2021-09-22 19:36:55.961557,-97
2021-09-22 19:36:55.961564,-90
2021-09-22 19:36:55.961570,-94
2021-09-22 19:36:55.961576,-109
2021-09-22 19:36:55.961582,-99
2021-09-22 19:36:55.961588,-104
2021-09-22 19:36:55.961593,-116
2021-09-22 19:36:55.961599,-114
2021-09-22 19:36:55.961605,-114
2021-09-22 19:36:55.961611,-119
2021-09-22 19:36:55.961616,-119
2021-09-22 19:36:55.961622,-114
2021-09-22 19:36:55.961628,-104
2021-09-22 19:36:55.961633,-104
2021-09-22 19:36:55.961639,-90
2021-09-22 19:36:55.961645,-58
2021-09-22 19:36:55.961650,-60
2021-09-22 19:36:55.961656,-87
2021-09-22 19:36:55.961662,-99
2021-09-22 19:36:55.961668,-114
2021-09-22 19:36:55.961673,-119
2021-09-22 19:36:55.961679,-111
2021-09-22 19:36:55.961688,-121
2021-09-22 19:36:55.961693,-133
2021-09-22 19:36:55.961699,-126
2021-09-22 19:36:55.961705,-102
2021-09-22 19:36:55.961710,-51
2021-09-22 19:36:55.961716,80
2021-09-22 19:36:55.961722,245
2021-09-22 19:36:56.142172,403
2021-09-22 19:36:56.142190,367
2021-09-22 19:36:56.142197,-170
2021-09-22 19:36:56.142203,-888
2021-09-22 19:36:56.142208,-1150
2021-09-22 19:36:56.142214,-914
2021-09-22 19:36:56.142220,-481
2021-09-22 19:36:56.142226,-177
2021-09-22 19:36:56.142232,-58
2021-09-22 19:36:56.142237,41
2021-09-22 19:36:56.142243,111
2021-09-22 19:36:56.142249,104
2021-09-22 19:36:56.142255,99
2021-09-22 19:36:56.142260,124
2021-09-22 19:36:56.142266,131
2021-09-22 19:36:56.142272,133
2021-09-22 19:36:56.142278,148
2021-09-22 19:36:56.142283,163
2021-09-22 19:36:56.142289,177
2021-09-22 19:36:56.142295,201
2021-09-22 19:36:56.142300,221
2021-09-22 19:36:56.142306,236
2021-09-22 19:36:56.142312,255
2021-09-22 19:36:56.142318,289
2021-09-22 19:36:56.142323,328
2021-09-22 19:36:56.142329,355
2021-09-22 19:36:56.142335,372
2021-09-22 19:36:56.142341,384
2021-09-22 19:36:56.142346,377
2021-09-22 19:36:56.142352,343
2021-09-22 19:36:56.411478,291
2021-09-22 19:36:56.411495,240
2021-09-22 19:36:56.411502,177
2021-09-22 19:36:56.411508,87
2021-09-22 19:36:56.411514,-4
2021-09-22 19:36:56.411520,-82
2021-09-22 19:36:56.411526,-141
2021-09-22 19:36:56.411532,-184
2021-09-22 19:36:56.411538,-211
2021-09-22 19:36:56.411544,-238
2021-09-22 19:36:56.411550,-265
2021-09-22 19:36:56.411555,-270
2021-09-22 19:36:56.411561,-253
2021-09-22 19:36:56.411567,-243
2021-09-22 19:36:56.411573,-233
2021-09-22 19:36:56.411579,-206
2021-09-22 19:36:56.411585,-187
2021-09-22 19:36:56.411591,-175
2021-09-22 19:36:56.411596,-160
2021-09-22 19:36:56.411602,-148
2021-09-22 19:36:56.411608,-148
2021-09-22 19:36:56.411614,-143
2021-09-22 19:36:56.411619,-128
2021-09-22 19:36:56.411625,-119
2021-09-22 19:36:56.411631,-128
2021-09-22 19:36:56.411637,-126
2021-09-22 19:36:56.411642,-111
2021-09-22 19:36:56.411648,-111
2021-09-22 19:36:56.411654,-128
2021-09-22 19:36:56.411660,-138
2021-09-22 19:36:56.592119,-133
2021-09-22 19:36:56.592138,-131
2021-09-22 19:36:56.592145,-128
2021-09-22 19:36:56.592151,-128
2021-09-22 19:36:56.592157,-136
2021-09-22 19:36:56.592163,-136
2021-09-22 19:36:56.592169,-121
2021-09-22 19:36:56.592174,-111
2021-09-22 19:36:56.592180,-119
2021-09-22 19:36:56.592186,-126
2021-09-22 19:36:56.592192,-119
2021-09-22 19:36:56.592198,-94
2021-09-22 19:36:56.592204,-72
2021-09-22 19:36:56.592209,-87
2021-09-22 19:36:56.592215,-128
2021-09-22 19:36:56.592221,-141
2021-09-22 19:36:56.592227,-124
2021-09-22 19:36:56.592233,-116
2021-09-22 19:36:56.592238,-114
2021-09-22 19:36:56.592244,-111
2021-09-22 19:36:56.592250,-107
2021-09-22 19:36:56.592256,-94
2021-09-22 19:36:56.592261,-24
2021-09-22 19:36:56.592267,126
2021-09-22 19:36:56.592273,321
2021-09-22 19:36:56.592278,486
2021-09-22 19:36:56.592284,299
2021-09-22 19:36:56.592290,-406
2021-09-22 19:36:56.592296,-1056
2021-09-22 19:36:56.592301,-1155
2021-09-22 19:36:56.862149,-800
2021-09-22 19:36:56.862167,-338
2021-09-22 19:36:56.862174,-85
2021-09-22 19:36:56.862180,24
2021-09-22 19:36:56.862186,116
2021-09-22 19:36:56.862192,131
2021-09-22 19:36:56.862197,119
2021-09-22 19:36:56.862203,143
2021-09-22 19:36:56.862209,148
2021-09-22 19:36:56.862215,133
2021-09-22 19:36:56.862220,145
2021-09-22 19:36:56.862227,170
2021-09-22 19:36:56.862232,172
2021-09-22 19:36:56.862238,182
2021-09-22 19:36:56.862244,211
2021-09-22 19:36:56.862249,231
2021-09-22 19:36:56.862255,245
2021-09-22 19:36:56.862261,282
2021-09-22 19:36:56.862267,321
2021-09-22 19:36:56.862273,347
2021-09-22 19:36:56.862278,374
2021-09-22 19:36:56.862284,396
2021-09-22 19:36:56.862290,401
2021-09-22 19:36:56.862296,389
2021-09-22 19:36:56.862301,360
2021-09-22 19:36:56.862307,316
2021-09-22 19:36:56.862313,253
2021-09-22 19:36:56.862319,175
2021-09-22 19:36:56.862324,90
2021-09-22 19:36:56.862330,7
2021-09-22 19:36:57.087516,-65
2021-09-22 19:36:57.087532,-121
2021-09-22 19:36:57.087539,-167
2021-09-22 19:36:57.087545,-206
2021-09-22 19:36:57.087551,-233
2021-09-22 19:36:57.087557,-255
2021-09-22 19:36:57.087562,-255
2021-09-22 19:36:57.087568,-240
2021-09-22 19:36:57.087574,-233
2021-09-22 19:36:57.087580,-221
2021-09-22 19:36:57.087586,-199
2021-09-22 19:36:57.087591,-182
2021-09-22 19:36:57.087597,-172
2021-09-22 19:36:57.087603,-170
2021-09-22 19:36:57.087609,-172
2021-09-22 19:36:57.087615,-170
2021-09-22 19:36:57.087620,-158
2021-09-22 19:36:57.087626,-141
2021-09-22 19:36:57.087632,-128
2021-09-22 19:36:57.087638,-128
2021-09-22 19:36:57.087644,-131
2021-09-22 19:36:57.087649,-133
2021-09-22 19:36:57.087655,-126
2021-09-22 19:36:57.087661,-124
2021-09-22 19:36:57.087666,-126
2021-09-22 19:36:57.087672,-126
2021-09-22 19:36:57.087678,-121
2021-09-22 19:36:57.087683,-114
2021-09-22 19:36:57.087689,-109
2021-09-22 19:36:57.087695,-107
2021-09-22 19:36:57.312200,-104
2021-09-22 19:36:57.312219,-107
2021-09-22 19:36:57.312225,-109
2021-09-22 19:36:57.312231,-102
2021-09-22 19:36:57.312237,-94
2021-09-22 19:36:57.312243,-85
2021-09-22 19:36:57.312249,-60
2021-09-22 19:36:57.312255,-46
2021-09-22 19:36:57.312261,-55
2021-09-22 19:36:57.312267,-70
2021-09-22 19:36:57.312272,-97
2021-09-22 19:36:57.312278,-109
2021-09-22 19:36:57.312284,-97
2021-09-22 19:36:57.312290,-102
2021-09-22 19:36:57.312295,-111
2021-09-22 19:36:57.312301,-104
2021-09-22 19:36:57.312307,-97
2021-09-22 19:36:57.312312,-85
2021-09-22 19:36:57.312318,-31
2021-09-22 19:36:57.312324,97
2021-09-22 19:36:57.312330,284
2021-09-22 19:36:57.312336,486
2021-09-22 19:36:57.312342,399
2021-09-22 19:36:57.312347,-223
2021-09-22 19:36:57.312353,-927
2021-09-22 19:36:57.312358,-1153
2021-09-22 19:36:57.312364,-849
2021-09-22 19:36:57.312370,-362
2021-09-22 19:36:57.312375,-94
2021-09-22 19:36:57.312381,12
2021-09-22 19:36:57.537156,133
2021-09-22 19:36:57.537174,163
2021-09-22 19:36:57.537181,126
2021-09-22 19:36:57.537187,143
2021-09-22 19:36:57.537193,177
2021-09-22 19:36:57.537199,172
2021-09-22 19:36:57.537205,165
2021-09-22 19:36:57.537211,175
2021-09-22 19:36:57.537217,184
2021-09-22 19:36:57.537222,192
2021-09-22 19:36:57.537228,206
2021-09-22 19:36:57.537234,226
2021-09-22 19:36:57.537240,243
2021-09-22 19:36:57.537246,267
2021-09-22 19:36:57.537252,299
2021-09-22 19:36:57.537257,333
2021-09-22 19:36:57.537263,360
2021-09-22 19:36:57.537269,374
2021-09-22 19:36:57.537274,374
2021-09-22 19:36:57.537280,362
2021-09-22 19:36:57.537286,338
2021-09-22 19:36:57.537292,301
2021-09-22 19:36:57.537297,250
2021-09-22 19:36:57.537303,177
2021-09-22 19:36:57.537309,92
2021-09-22 19:36:57.537315,14
2021-09-22 19:36:57.537320,-60
2021-09-22 19:36:57.537326,-133
2021-09-22 19:36:57.537331,-175
2021-09-22 19:36:57.537337,-197
2021-09-22 19:36:57.805772,-226
2021-09-22 19:36:57.805790,-245
2021-09-22 19:36:57.805797,-238
2021-09-22 19:36:57.805803,-221
2021-09-22 19:36:57.805809,-211
2021-09-22 19:36:57.805815,-204
2021-09-22 19:36:57.805821,-189
2021-09-22 19:36:57.805826,-175
2021-09-22 19:36:57.805832,-167
2021-09-22 19:36:57.805838,-150
2021-09-22 19:36:57.805844,-133
2021-09-22 19:36:57.805850,-133
2021-09-22 19:36:57.805856,-138
2021-09-22 19:36:57.805862,-133
2021-09-22 19:36:57.805867,-121
2021-09-22 19:36:57.805873,-111
2021-09-22 19:36:57.805879,-104
2021-09-22 19:36:57.805885,-104
2021-09-22 19:36:57.805891,-114
2021-09-22 19:36:57.805896,-124
2021-09-22 19:36:57.805902,-124
2021-09-22 19:36:57.805908,-119
2021-09-22 19:36:57.805914,-116
2021-09-22 19:36:57.805920,-119
2021-09-22 19:36:57.805926,-121
2021-09-22 19:36:57.805939,-107
2021-09-22 19:36:57.805945,-90
2021-09-22 19:36:57.805951,-87
2021-09-22 19:36:57.805957,-92
2021-09-22 19:36:57.805962,-90
2021-09-22 19:36:58.031540,-87
2021-09-22 19:36:58.031557,-85
2021-09-22 19:36:58.031564,-77
2021-09-22 19:36:58.031570,-63
2021-09-22 19:36:58.031576,-55
2021-09-22 19:36:58.031582,-53
2021-09-22 19:36:58.031588,-53
2021-09-22 19:36:58.031594,-60
2021-09-22 19:36:58.031600,-87
2021-09-22 19:36:58.031606,-92
2021-09-22 19:36:58.031612,-80
2021-09-22 19:36:58.031618,-85
2021-09-22 19:36:58.031624,-92
2021-09-22 19:36:58.031630,-80
2021-09-22 19:36:58.031635,-72
2021-09-22 19:36:58.031641,-75
2021-09-22 19:36:58.031647,-29
2021-09-22 19:36:58.031656,107
2021-09-22 19:36:58.031662,313
2021-09-22 19:36:58.031668,508
2021-09-22 19:36:58.031674,323
2021-09-22 19:36:58.031680,-367
2021-09-22 19:36:58.031685,-1007
2021-09-22 19:36:58.031691,-1143
2021-09-22 19:36:58.031697,-788
2021-09-22 19:36:58.031703,-304
2021-09-22 19:36:58.031708,-68
2021-09-22 19:36:58.031714,34
2021-09-22 19:36:58.031720,143
2021-09-22 19:36:58.031726,155
2021-09-22 19:36:58.212177,128
2021-09-22 19:36:58.212194,155
2021-09-22 19:36:58.212201,172
2021-09-22 19:36:58.212208,160
2021-09-22 19:36:58.212214,165
2021-09-22 19:36:58.212220,189
2021-09-22 19:36:58.212226,201
2021-09-22 19:36:58.212232,209
2021-09-22 19:36:58.212238,233
2021-09-22 19:36:58.212244,257
2021-09-22 19:36:58.212250,265
2021-09-22 19:36:58.212255,289
2021-09-22 19:36:58.212261,335
2021-09-22 19:36:58.212267,367
2021-09-22 19:36:58.212273,379
2021-09-22 19:36:58.212279,389
2021-09-22 19:36:58.212285,394
2021-09-22 19:36:58.212291,382
2021-09-22 19:36:58.212297,350
2021-09-22 19:36:58.212302,311
2021-09-22 19:36:58.212308,262
2021-09-22 19:36:58.212314,187
2021-09-22 19:36:58.212320,97
2021-09-22 19:36:58.212326,17
2021-09-22 19:36:58.212332,-55
2021-09-22 19:36:58.212337,-114
2021-09-22 19:36:58.212343,-163
2021-09-22 19:36:58.212349,-194
2021-09-22 19:36:58.212355,-201
2021-09-22 19:36:58.212361,-206
2021-09-22 19:36:58.437181,-214
2021-09-22 19:36:58.437199,-204
2021-09-22 19:36:58.437206,-187
2021-09-22 19:36:58.437213,-177
2021-09-22 19:36:58.437219,-175
2021-09-22 19:36:58.437225,-158
2021-09-22 19:36:58.437230,-136
2021-09-22 19:36:58.437236,-124
2021-09-22 19:36:58.437242,-116
2021-09-22 19:36:58.437248,-119
2021-09-22 19:36:58.437254,-124
2021-09-22 19:36:58.437260,-119
2021-09-22 19:36:58.437266,-109
2021-09-22 19:36:58.437272,-107
2021-09-22 19:36:58.437277,-107
2021-09-22 19:36:58.437283,-111
2021-09-22 19:36:58.437289,-107
2021-09-22 19:36:58.437295,-102
2021-09-22 19:36:58.437300,-99
2021-09-22 19:36:58.437306,-92
2021-09-22 19:36:58.437312,-92
2021-09-22 19:36:58.437318,-114
2021-09-22 19:36:58.437323,-121
2021-09-22 19:36:58.437329,-109
2021-09-22 19:36:58.437335,-104
2021-09-22 19:36:58.437340,-109
2021-09-22 19:36:58.437346,-99
2021-09-22 19:36:58.437352,-97
2021-09-22 19:36:58.437358,-107
2021-09-22 19:36:58.437364,-99
2021-09-22 19:36:58.751566,-87
2021-09-22 19:36:58.751582,-87
2021-09-22 19:36:58.751590,-82
2021-09-22 19:36:58.751596,-75
2021-09-22 19:36:58.751602,-68
2021-09-22 19:36:58.751608,-46
2021-09-22 19:36:58.751614,-36
2021-09-22 19:36:58.751620,-63
2021-09-22 19:36:58.751626,-102
2021-09-22 19:36:58.751632,-104
2021-09-22 19:36:58.751637,-82
2021-09-22 19:36:58.751643,-75
2021-09-22 19:36:58.751649,-82
2021-09-22 19:36:58.751655,-77
2021-09-22 19:36:58.751661,-70
2021-09-22 19:36:58.751667,-63
2021-09-22 19:36:58.751672,-12
2021-09-22 19:36:58.751678,114
2021-09-22 19:36:58.751684,309
2021-09-22 19:36:58.751690,515
2021-09-22 19:36:58.751696,386
2021-09-22 19:36:58.751702,-262
2021-09-22 19:36:58.751708,-919
2021-09-22 19:36:58.751714,-1094
2021-09-22 19:36:58.751719,-768
2021-09-22 19:36:58.751725,-291
2021-09-22 19:36:58.751731,-51
2021-09-22 19:36:58.751737,34
2021-09-22 19:36:58.751742,126
2021-09-22 19:36:58.751748,153
2021-09-22 19:36:58.976469,143
2021-09-22 19:36:58.976486,163
2021-09-22 19:36:58.976493,180
2021-09-22 19:36:58.976499,175
2021-09-22 19:36:58.976505,175
2021-09-22 19:36:58.976511,194
2021-09-22 19:36:58.976517,221
2021-09-22 19:36:58.976523,231
2021-09-22 19:36:58.976529,233
2021-09-22 19:36:58.976535,248
2021-09-22 19:36:58.976541,277
2021-09-22 19:36:58.976547,313
2021-09-22 19:36:58.976552,345
2021-09-22 19:36:58.976558,364
2021-09-22 19:36:58.976564,372
2021-09-22 19:36:58.976570,382
2021-09-22 19:36:58.976576,389
2021-09-22 19:36:58.976582,372
2021-09-22 19:36:58.976588,340
2021-09-22 19:36:58.976593,306
2021-09-22 19:36:58.976599,253
2021-09-22 19:36:58.976605,180
2021-09-22 19:36:58.976611,111
2021-09-22 19:36:58.976617,43
2021-09-22 19:36:58.976622,-34
2021-09-22 19:36:58.976628,-99
2021-09-22 19:36:58.976634,-148
2021-09-22 19:36:58.976640,-194
2021-09-22 19:36:58.976646,-233
2021-09-22 19:36:58.976652,-245
2021-09-22 19:36:59.157194,-228
2021-09-22 19:36:59.157211,-211
2021-09-22 19:36:59.157218,-204
2021-09-22 19:36:59.157224,-192
2021-09-22 19:36:59.157230,-175
2021-09-22 19:36:59.157236,-160
2021-09-22 19:36:59.157242,-145
2021-09-22 19:36:59.157247,-136
2021-09-22 19:36:59.157253,-131
2021-09-22 19:36:59.157259,-126
2021-09-22 19:36:59.157265,-119
2021-09-22 19:36:59.157271,-114
2021-09-22 19:36:59.157277,-109
2021-09-22 19:36:59.157282,-116
2021-09-22 19:36:59.157288,-126
2021-09-22 19:36:59.157294,-121
2021-09-22 19:36:59.157300,-121
2021-09-22 19:36:59.157305,-121
2021-09-22 19:36:59.157311,-109
2021-09-22 19:36:59.157317,-104
2021-09-22 19:36:59.157322,-114
2021-09-22 19:36:59.157328,-109
2021-09-22 19:36:59.157334,-102
2021-09-22 19:36:59.157340,-102
2021-09-22 19:36:59.157345,-99
2021-09-22 19:36:59.157351,-94
2021-09-22 19:36:59.157357,-92
2021-09-22 19:36:59.157363,-94
2021-09-22 19:36:59.157369,-92
2021-09-22 19:36:59.157374,-85
2021-09-22 19:36:59.382102,-75
2021-09-22 19:36:59.382119,-68
2021-09-22 19:36:59.382127,-70
2021-09-22 19:36:59.382133,-65
2021-09-22 19:36:59.382139,-41
2021-09-22 19:36:59.382145,-24
2021-09-22 19:36:59.382151,-31
2021-09-22 19:36:59.382157,-63
2021-09-22 19:36:59.382163,-90
2021-09-22 19:36:59.382169,-87
2021-09-22 19:36:59.382175,-75
2021-09-22 19:36:59.382181,-77
2021-09-22 19:36:59.382186,-80
2021-09-22 19:36:59.382192,-87
2021-09-22 19:36:59.382198,-87
2021-09-22 19:36:59.382204,-60
2021-09-22 19:36:59.382210,7
2021-09-22 19:36:59.382215,136
2021-09-22 19:36:59.382221,335
2021-09-22 19:36:59.382227,525
2021-09-22 19:36:59.382233,340
2021-09-22 19:36:59.382239,-350
2021-09-22 19:36:59.382248,-997
2021-09-22 19:36:59.382254,-1116
2021-09-22 19:36:59.382259,-744
2021-09-22 19:36:59.382265,-279
2021-09-22 19:36:59.382271,-55
2021-09-22 19:36:59.382277,46
2021-09-22 19:36:59.382283,143
2021-09-22 19:36:59.382288,158
2021-09-22 19:36:59.652185,143
2021-09-22 19:36:59.652203,167
2021-09-22 19:36:59.652210,182
2021-09-22 19:36:59.652216,170
2021-09-22 19:36:59.652222,163
2021-09-22 19:36:59.652228,180
2021-09-22 19:36:59.652234,194
2021-09-22 19:36:59.652240,201
2021-09-22 19:36:59.652246,218
2021-09-22 19:36:59.652251,248
2021-09-22 19:36:59.652257,277
2021-09-22 19:36:59.652263,304
2021-09-22 19:36:59.652269,323
2021-09-22 19:36:59.652274,347
2021-09-22 19:36:59.652280,377
2021-09-22 19:36:59.652286,386
2021-09-22 19:36:59.652292,377
2021-09-22 19:36:59.652298,364
2021-09-22 19:36:59.652303,333
2021-09-22 19:36:59.652309,289
2021-09-22 19:36:59.652315,243
2021-09-22 19:36:59.652320,180
2021-09-22 19:36:59.652326,104
2021-09-22 19:36:59.652332,34
2021-09-22 19:36:59.652338,-34
2021-09-22 19:36:59.652344,-97
2021-09-22 19:36:59.652349,-143
2021-09-22 19:36:59.652355,-172
2021-09-22 19:36:59.652361,-192
2021-09-22 19:36:59.652367,-199
2021-09-22 19:36:59.875817,-192
2021-09-22 19:36:59.875834,-184
2021-09-22 19:36:59.875841,-170
2021-09-22 19:36:59.875847,-153
2021-09-22 19:36:59.875853,-141
2021-09-22 19:36:59.875859,-128
2021-09-22 19:36:59.875865,-111
2021-09-22 19:36:59.875871,-99
2021-09-22 19:36:59.875877,-92
2021-09-22 19:36:59.875883,-90
2021-09-22 19:36:59.875888,-85
2021-09-22 19:36:59.875894,-85
2021-09-22 19:36:59.875900,-90
2021-09-22 19:36:59.875906,-90
2021-09-22 19:36:59.875912,-92
2021-09-22 19:36:59.875918,-94
2021-09-22 19:36:59.875923,-90
2021-09-22 19:36:59.875929,-87
2021-09-22 19:36:59.875935,-90
2021-09-22 19:36:59.875940,-90
2021-09-22 19:36:59.875946,-85
2021-09-22 19:36:59.875952,-85
2021-09-22 19:36:59.875958,-82
2021-09-22 19:36:59.875964,-82
2021-09-22 19:36:59.875969,-82
2021-09-22 19:36:59.875975,-75
2021-09-22 19:36:59.875981,-63
2021-09-22 19:36:59.875987,-58
2021-09-22 19:36:59.875992,-58
2021-09-22 19:36:59.875998,-60
2021-09-22 19:37:00.102212,-60
2021-09-22 19:37:00.102230,-53
2021-09-22 19:37:00.102238,-46
2021-09-22 19:37:00.102244,-36
2021-09-22 19:37:00.102250,-31
2021-09-22 19:37:00.102256,-24
2021-09-22 19:37:00.102262,-17
2021-09-22 19:37:00.102267,-29
2021-09-22 19:37:00.102273,-63
2021-09-22 19:37:00.102279,-94
2021-09-22 19:37:00.102285,-102
2021-09-22 19:37:00.102291,-97
2021-09-22 19:37:00.102297,-92
2021-09-22 19:37:00.102303,-87
2021-09-22 19:37:00.102309,-80
2021-09-22 19:37:00.102314,-72
2021-09-22 19:37:00.102320,-38
2021-09-22 19:37:00.102326,70
2021-09-22 19:37:00.102332,233
2021-09-22 19:37:00.102338,430
2021-09-22 19:37:00.102344,447
2021-09-22 19:37:00.102350,-17
2021-09-22 19:37:00.102356,-695
2021-09-22 19:37:00.102362,-1043
2021-09-22 19:37:00.102367,-878
2021-09-22 19:37:00.102373,-408
2021-09-22 19:37:00.102379,-92
2021-09-22 19:37:00.102385,0
2021-09-22 19:37:00.102391,97
2021-09-22 19:37:00.102397,163
2021-09-22 19:37:00.416678,148
2021-09-22 19:37:00.416698,158
2021-09-22 19:37:00.416705,182
2021-09-22 19:37:00.416712,177
2021-09-22 19:37:00.416718,177
2021-09-22 19:37:00.416724,199
2021-09-22 19:37:00.416730,218
2021-09-22 19:37:00.416736,228
2021-09-22 19:37:00.416743,245
2021-09-22 19:37:00.416749,267
2021-09-22 19:37:00.416755,282
2021-09-22 19:37:00.416762,301
2021-09-22 19:37:00.416768,335
2021-09-22 19:37:00.416775,367
2021-09-22 19:37:00.416830,396
2021-09-22 19:37:00.416839,406
2021-09-22 19:37:00.416846,394
2021-09-22 19:37:00.416852,384
2021-09-22 19:37:00.416859,367
2021-09-22 19:37:00.416865,326
2021-09-22 19:37:00.416872,272
2021-09-22 19:37:00.416879,214
2021-09-22 19:37:00.416886,138
2021-09-22 19:37:00.416893,60
2021-09-22 19:37:00.416899,-4
2021-09-22 19:37:00.416905,-55
2021-09-22 19:37:00.416912,-102
2021-09-22 19:37:00.416918,-143
2021-09-22 19:37:00.416924,-165
2021-09-22 19:37:00.416930,-177
2021-09-22 19:37:00.552240,-180
2021-09-22 19:37:00.552258,-165
2021-09-22 19:37:00.552265,-148
2021-09-22 19:37:00.552271,-145
2021-09-22 19:37:00.552277,-138
2021-09-22 19:37:00.552283,-119
2021-09-22 19:37:00.552289,-107
2021-09-22 19:37:00.552295,-97
2021-09-22 19:37:00.552301,-87
2021-09-22 19:37:00.552307,-90
2021-09-22 19:37:00.552313,-94
2021-09-22 19:37:00.552319,-94
2021-09-22 19:37:00.552325,-99
2021-09-22 19:37:00.552331,-97
2021-09-22 19:37:00.552337,-92
2021-09-22 19:37:00.552343,-99
2021-09-22 19:37:00.552348,-99
2021-09-22 19:37:00.552354,-99
2021-09-22 19:37:00.552360,-102
2021-09-22 19:37:00.552366,-87
2021-09-22 19:37:00.552372,-90
2021-09-22 19:37:00.552378,-104
2021-09-22 19:37:00.552384,-99
2021-09-22 19:37:00.552389,-80
2021-09-22 19:37:00.552395,-77
2021-09-22 19:37:00.552401,-82
2021-09-22 19:37:00.552407,-80
2021-09-22 19:37:00.552413,-77
2021-09-22 19:37:00.552419,-80
2021-09-22 19:37:00.552425,-80
2021-09-22 19:37:00.777209,-75
2021-09-22 19:37:00.777227,-65
2021-09-22 19:37:00.777234,-65
2021-09-22 19:37:00.777240,-68
2021-09-22 19:37:00.777246,-53
2021-09-22 19:37:00.777252,-31
2021-09-22 19:37:00.777258,-31
2021-09-22 19:37:00.777264,-51
2021-09-22 19:37:00.777270,-82
2021-09-22 19:37:00.777276,-97
2021-09-22 19:37:00.777282,-92
2021-09-22 19:37:00.777288,-82
2021-09-22 19:37:00.777294,-82
2021-09-22 19:37:00.777299,-92
2021-09-22 19:37:00.777305,-109
2021-09-22 19:37:00.777311,-102
2021-09-22 19:37:00.777317,-34
2021-09-22 19:37:00.777323,87
2021-09-22 19:37:00.777329,243
2021-09-22 19:37:00.777335,420
2021-09-22 19:37:00.777341,355
2021-09-22 19:37:00.777347,-184
2021-09-22 19:37:00.777353,-817
2021-09-22 19:37:00.777358,-1058
2021-09-22 19:37:00.777364,-810
2021-09-22 19:37:00.777370,-355
2021-09-22 19:37:00.777376,-107
2021-09-22 19:37:00.777382,-17
2021-09-22 19:37:00.777388,111
2021-09-22 19:37:00.777394,165
2021-09-22 19:37:01.002197,133
2021-09-22 19:37:01.002214,145
2021-09-22 19:37:01.002221,182
2021-09-22 19:37:01.002227,184
2021-09-22 19:37:01.002234,180
2021-09-22 19:37:01.002240,201
2021-09-22 19:37:01.002246,223
2021-09-22 19:37:01.002252,223
2021-09-22 19:37:01.002258,228
2021-09-22 19:37:01.002263,250
2021-09-22 19:37:01.002269,274
2021-09-22 19:37:01.002275,296
2021-09-22 19:37:01.002281,328
2021-09-22 19:37:01.002287,355
2021-09-22 19:37:01.002293,364
2021-09-22 19:37:01.002299,372
2021-09-22 19:37:01.002304,372
2021-09-22 19:37:01.002310,367
2021-09-22 19:37:01.002316,340
2021-09-22 19:37:01.002322,294
2021-09-22 19:37:01.002328,236
2021-09-22 19:37:01.002334,163
2021-09-22 19:37:01.002339,85
2021-09-22 19:37:01.002345,12
2021-09-22 19:37:01.002351,-51
2021-09-22 19:37:01.002357,-111
2021-09-22 19:37:01.002363,-158
2021-09-22 19:37:01.002369,-189
2021-09-22 19:37:01.002375,-206
2021-09-22 19:37:01.002381,-214
2021-09-22 19:37:01.272211,-211
2021-09-22 19:37:01.272229,-206
2021-09-22 19:37:01.272236,-194
2021-09-22 19:37:01.272242,-175
2021-09-22 19:37:01.272249,-158
2021-09-22 19:37:01.272255,-143
2021-09-22 19:37:01.272260,-131
2021-09-22 19:37:01.272266,-126
2021-09-22 19:37:01.272272,-119
2021-09-22 19:37:01.272278,-109
2021-09-22 19:37:01.272284,-109
2021-09-22 19:37:01.272290,-111
2021-09-22 19:37:01.272296,-107
2021-09-22 19:37:01.272302,-107
2021-09-22 19:37:01.272308,-104
2021-09-22 19:37:01.272313,-99
2021-09-22 19:37:01.272319,-97
2021-09-22 19:37:01.272325,-90
2021-09-22 19:37:01.272331,-99
2021-09-22 19:37:01.272336,-111
2021-09-22 19:37:01.272342,-104
2021-09-22 19:37:01.272348,-97
2021-09-22 19:37:01.272354,-102
2021-09-22 19:37:01.272359,-102
2021-09-22 19:37:01.272365,-97
2021-09-22 19:37:01.272371,-97
2021-09-22 19:37:01.272377,-94
2021-09-22 19:37:01.272383,-87
2021-09-22 19:37:01.272389,-75
2021-09-22 19:37:01.272394,-70
2021-09-22 19:37:01.452216,-75
2021-09-22 19:37:01.452238,-70
2021-09-22 19:37:01.452245,-68
2021-09-22 19:37:01.452252,-68
2021-09-22 19:37:01.452258,-48
2021-09-22 19:37:01.452264,-34
2021-09-22 19:37:01.452270,-38
2021-09-22 19:37:01.452276,-43
2021-09-22 19:37:01.452282,-63
2021-09-22 19:37:01.452288,-92
2021-09-22 19:37:01.452294,-85
2021-09-22 19:37:01.452300,-70
2021-09-22 19:37:01.452306,-77
2021-09-22 19:37:01.452311,-77
2021-09-22 19:37:01.452317,-68
2021-09-22 19:37:01.452323,-68
2021-09-22 19:37:01.452329,-48
2021-09-22 19:37:01.452334,31
2021-09-22 19:37:01.452340,163
2021-09-22 19:37:01.452346,328
2021-09-22 19:37:01.452352,450
2021-09-22 19:37:01.452358,194
2021-09-22 19:37:01.452364,-489
2021-09-22 19:37:01.452370,-1036
2021-09-22 19:37:01.452376,-1070
2021-09-22 19:37:01.452381,-661
2021-09-22 19:37:01.452387,-214
2021-09-22 19:37:01.452393,-38
2021-09-22 19:37:01.452399,51
2021-09-22 19:37:01.452405,155
2021-09-22 19:37:01.677222,182
2021-09-22 19:37:01.677240,177
2021-09-22 19:37:01.677247,187
2021-09-22 19:37:01.677253,192
2021-09-22 19:37:01.677259,204
2021-09-22 19:37:01.677265,211
2021-09-22 19:37:01.677271,206
2021-09-22 19:37:01.677277,223
2021-09-22 19:37:01.677283,255
2021-09-22 19:37:01.677289,267
2021-09-22 19:37:01.677295,274
2021-09-22 19:37:01.677301,301
2021-09-22 19:37:01.677307,323
2021-09-22 19:37:01.677313,350
2021-09-22 19:37:01.677319,379
2021-09-22 19:37:01.677324,403
2021-09-22 19:37:01.677330,423
2021-09-22 19:37:01.677336,423
2021-09-22 19:37:01.677342,403
2021-09-22 19:37:01.677347,379
2021-09-22 19:37:01.677353,343
2021-09-22 19:37:01.677359,282
2021-09-22 19:37:01.677365,197
2021-09-22 19:37:01.677371,109
2021-09-22 19:37:01.677376,36
2021-09-22 19:37:01.677382,-26
2021-09-22 19:37:01.677388,-87
2021-09-22 19:37:01.677400,-128
2021-09-22 19:37:01.677407,-145
2021-09-22 19:37:01.677412,-165
2021-09-22 19:37:01.945821,-180
2021-09-22 19:37:01.945839,-177
2021-09-22 19:37:01.945846,-167
2021-09-22 19:37:01.945852,-163
2021-09-22 19:37:01.945858,-155
2021-09-22 19:37:01.945864,-148
2021-09-22 19:37:01.945870,-136
2021-09-22 19:37:01.945876,-114
2021-09-22 19:37:01.945882,-92
2021-09-22 19:37:01.945888,-90
2021-09-22 19:37:01.945894,-87
2021-09-22 19:37:01.945900,-87
2021-09-22 19:37:01.945906,-87
2021-09-22 19:37:01.945912,-80
2021-09-22 19:37:01.945918,-75
2021-09-22 19:37:01.945924,-82
2021-09-22 19:37:01.945930,-82
2021-09-22 19:37:01.945936,-80
2021-09-22 19:37:01.945942,-77
2021-09-22 19:37:01.945947,-70
2021-09-22 19:37:01.945953,-72
2021-09-22 19:37:01.945959,-77
2021-09-22 19:37:01.945965,-72
2021-09-22 19:37:01.945971,-70
2021-09-22 19:37:01.945977,-87
2021-09-22 19:37:01.945983,-92
2021-09-22 19:37:01.945989,-85
2021-09-22 19:37:01.945995,-87
2021-09-22 19:37:01.946001,-97
2021-09-22 19:37:01.946006,-102
2021-09-22 19:37:02.127158,-92
2021-09-22 19:37:02.127175,-70
2021-09-22 19:37:02.127182,-60
2021-09-22 19:37:02.127189,-80
2021-09-22 19:37:02.127195,-97
2021-09-22 19:37:02.127201,-87
2021-09-22 19:37:02.127206,-70
2021-09-22 19:37:02.127212,-68
2021-09-22 19:37:02.127218,-80
2021-09-22 19:37:02.127224,-107
2021-09-22 19:37:02.127230,-126
2021-09-22 19:37:02.127236,-121
2021-09-22 19:37:02.127242,-109
2021-09-22 19:37:02.127247,-99
2021-09-22 19:37:02.127253,-87
2021-09-22 19:37:02.127259,-80
2021-09-22 19:37:02.127265,-75
2021-09-22 19:37:02.127270,-26
2021-09-22 19:37:02.127276,82
2021-09-22 19:37:02.127282,216
2021-09-22 19:37:02.127288,338
2021-09-22 19:37:02.127294,253
2021-09-22 19:37:02.127300,-226
2021-09-22 19:37:02.127306,-795
2021-09-22 19:37:02.127311,-1019
2021-09-22 19:37:02.127317,-768
2021-09-22 19:37:02.127323,-326
2021-09-22 19:37:02.127329,-109
2021-09-22 19:37:02.127335,-34
2021-09-22 19:37:02.127340,99
2021-09-22 19:37:02.531656,155
2021-09-22 19:37:02.531673,148
2021-09-22 19:37:02.531681,172
2021-09-22 19:37:02.531687,172
2021-09-22 19:37:02.531693,153
2021-09-22 19:37:02.531699,165
2021-09-22 19:37:02.531706,187
2021-09-22 19:37:02.531711,189
2021-09-22 19:37:02.531717,194
2021-09-22 19:37:02.531723,206
2021-09-22 19:37:02.531729,228
2021-09-22 19:37:02.531735,255
2021-09-22 19:37:02.531741,279
2021-09-22 19:37:02.531747,309
2021-09-22 19:37:02.531752,338
2021-09-22 19:37:02.531758,357
2021-09-22 19:37:02.531764,374
2021-09-22 19:37:02.531770,374
2021-09-22 19:37:02.531776,362
2021-09-22 19:37:02.531782,347
2021-09-22 19:37:02.531788,311
2021-09-22 19:37:02.531793,253
2021-09-22 19:37:02.531799,182
2021-09-22 19:37:02.531805,104
2021-09-22 19:37:02.531811,21
2021-09-22 19:37:02.531817,-53
2021-09-22 19:37:02.531823,-116
2021-09-22 19:37:02.531829,-165
2021-09-22 19:37:02.531835,-197
2021-09-22 19:37:02.531841,-216
2021-09-22 19:37:02.622186,-223
2021-09-22 19:37:02.622204,-218
2021-09-22 19:37:02.622211,-216
2021-09-22 19:37:02.622217,-214
2021-09-22 19:37:02.622223,-192
2021-09-22 19:37:02.622230,-172
2021-09-22 19:37:02.622236,-163
2021-09-22 19:37:02.622242,-150
2021-09-22 19:37:02.622248,-145
2021-09-22 19:37:02.622253,-153
2021-09-22 19:37:02.622259,-143
2021-09-22 19:37:02.622265,-119
2021-09-22 19:37:02.622271,-111
2021-09-22 19:37:02.622277,-116
2021-09-22 19:37:02.622283,-114
2021-09-22 19:37:02.622289,-119
2021-09-22 19:37:02.622295,-124
2021-09-22 19:37:02.622300,-119
2021-09-22 19:37:02.622306,-121
2021-09-22 19:37:02.622312,-126
2021-09-22 19:37:02.622318,-124
2021-09-22 19:37:02.622324,-119
2021-09-22 19:37:02.622330,-109
2021-09-22 19:37:02.622335,-102
2021-09-22 19:37:02.622341,-102
2021-09-22 19:37:02.622347,-104
2021-09-22 19:37:02.622353,-111
2021-09-22 19:37:02.622359,-121
2021-09-22 19:37:02.622364,-111
2021-09-22 19:37:02.622370,-99
2021-09-22 19:37:02.892163,-109
2021-09-22 19:37:02.892180,-114
2021-09-22 19:37:02.892187,-102
2021-09-22 19:37:02.892194,-90
2021-09-22 19:37:02.892200,-82
2021-09-22 19:37:02.892206,-75
2021-09-22 19:37:02.892212,-85
2021-09-22 19:37:02.892218,-114
2021-09-22 19:37:02.892224,-138
2021-09-22 19:37:02.892230,-141
2021-09-22 19:37:02.892236,-126
2021-09-22 19:37:02.892242,-114
2021-09-22 19:37:02.892247,-114
2021-09-22 19:37:02.892253,-121
2021-09-22 19:37:02.892259,-114
2021-09-22 19:37:02.892265,-65
2021-09-22 19:37:02.892271,24
2021-09-22 19:37:02.892277,143
2021-09-22 19:37:02.892283,304
2021-09-22 19:37:02.892297,318
2021-09-22 19:37:02.892303,-65
2021-09-22 19:37:02.892309,-659
2021-09-22 19:37:02.892315,-1007
2021-09-22 19:37:02.892321,-810
2021-09-22 19:37:02.892327,-330
2021-09-22 19:37:02.892332,-107
2021-09-22 19:37:02.892338,-60
2021-09-22 19:37:02.892344,70
2021-09-22 19:37:02.892350,150
2021-09-22 19:37:02.892356,124
2021-09-22 19:37:03.072260,131
2021-09-22 19:37:03.072278,167
2021-09-22 19:37:03.072285,165
2021-09-22 19:37:03.072291,155
2021-09-22 19:37:03.072297,175
2021-09-22 19:37:03.072304,187
2021-09-22 19:37:03.072310,184
2021-09-22 19:37:03.072315,197
2021-09-22 19:37:03.072321,226
2021-09-22 19:37:03.072327,253
2021-09-22 19:37:03.072333,284
2021-09-22 19:37:03.072339,316
2021-09-22 19:37:03.072345,343
2021-09-22 19:37:03.072351,355
2021-09-22 19:37:03.072357,355
2021-09-22 19:37:03.072362,352
2021-09-22 19:37:03.072368,350
2021-09-22 19:37:03.072374,328
2021-09-22 19:37:03.072380,282
2021-09-22 19:37:03.072386,221
2021-09-22 19:37:03.072391,150
2021-09-22 19:37:03.072397,68
2021-09-22 19:37:03.072403,-7
2021-09-22 19:37:03.072409,-53
2021-09-22 19:37:03.072415,-107
2021-09-22 19:37:03.072421,-165
2021-09-22 19:37:03.072427,-194
2021-09-22 19:37:03.072433,-199
2021-09-22 19:37:03.072439,-199
2021-09-22 19:37:03.072444,-206
2021-09-22 19:37:03.342308,-214
2021-09-22 19:37:03.342327,-204
2021-09-22 19:37:03.342334,-184
2021-09-22 19:37:03.342341,-163
2021-09-22 19:37:03.342347,-126
2021-09-22 19:37:03.342353,-114
2021-09-22 19:37:03.342359,-143
2021-09-22 19:37:03.342365,-170
2021-09-22 19:37:03.342372,-160
2021-09-22 19:37:03.342377,-133
2021-09-22 19:37:03.342383,-94
2021-09-22 19:37:03.342389,-75
2021-09-22 19:37:03.342395,-82
2021-09-22 19:37:03.342401,-92
2021-09-22 19:37:03.342407,-90
2021-09-22 19:37:03.342413,-90
2021-09-22 19:37:03.342418,-90
2021-09-22 19:37:03.342424,-90
2021-09-22 19:37:03.342430,-90
2021-09-22 19:37:03.342436,-75
2021-09-22 19:37:03.342441,-53
2021-09-22 19:37:03.342448,-46
2021-09-22 19:37:03.342453,-63
2021-09-22 19:37:03.342459,-58
2021-09-22 19:37:03.342465,-36
2021-09-22 19:37:03.342471,-51
2021-09-22 19:37:03.342477,-65
2021-09-22 19:37:03.342482,-34
2021-09-22 19:37:03.342488,-14
2021-09-22 19:37:03.342494,-34
2021-09-22 19:37:03.567005,-26
2021-09-22 19:37:03.567024,-9
2021-09-22 19:37:03.567031,-14
2021-09-22 19:37:03.567037,-26
2021-09-22 19:37:03.567044,-26
2021-09-22 19:37:03.567050,-24
2021-09-22 19:37:03.567055,-46
2021-09-22 19:37:03.567061,-77
2021-09-22 19:37:03.567067,-68
2021-09-22 19:37:03.567073,-34
2021-09-22 19:37:03.567079,24
2021-09-22 19:37:03.567085,126
2021-09-22 19:37:03.567091,240
2021-09-22 19:37:03.567097,350
2021-09-22 19:37:03.567103,289
2021-09-22 19:37:03.567109,-104
2021-09-22 19:37:03.567115,-613
2021-09-22 19:37:03.567120,-793
2021-09-22 19:37:03.567126,-489
2021-09-22 19:37:03.567132,-138
2021-09-22 19:37:03.567138,-72
2021-09-22 19:37:03.567144,-34
2021-09-22 19:37:03.567150,104
2021-09-22 19:37:03.567156,163
2021-09-22 19:37:03.567162,143
2021-09-22 19:37:03.567167,160
2021-09-22 19:37:03.567173,182
2021-09-22 19:37:03.567179,187
2021-09-22 19:37:03.567185,201
2021-09-22 19:37:03.567191,221
2021-09-22 19:37:03.792174,236
2021-09-22 19:37:03.792191,260
2021-09-22 19:37:03.792198,287
2021-09-22 19:37:03.792204,309
2021-09-22 19:37:03.792210,326
2021-09-22 19:37:03.792216,343
2021-09-22 19:37:03.792222,369
2021-09-22 19:37:03.792228,403
2021-09-22 19:37:03.792235,423
2021-09-22 19:37:03.792241,418
2021-09-22 19:37:03.792247,401
2021-09-22 19:37:03.792253,389
2021-09-22 19:37:03.792259,364
2021-09-22 19:37:03.792265,323
2021-09-22 19:37:03.792271,262
2021-09-22 19:37:03.792277,187
2021-09-22 19:37:03.792283,102
2021-09-22 19:37:03.792288,26
2021-09-22 19:37:03.792294,-26
2021-09-22 19:37:03.792300,-80
2021-09-22 19:37:03.792306,-126
2021-09-22 19:37:03.792312,-155
2021-09-22 19:37:03.792318,-153
2021-09-22 19:37:03.792324,-109
2021-09-22 19:37:03.792330,-114
2021-09-22 19:37:03.792336,-143
2021-09-22 19:37:03.792342,-143
2021-09-22 19:37:03.792347,-155
2021-09-22 19:37:03.792353,-133
2021-09-22 19:37:03.792359,-60
2021-09-22 19:37:04.015787,-38
2021-09-22 19:37:04.015804,-34
2021-09-22 19:37:04.015811,-2
2021-09-22 19:37:04.015817,-4
2021-09-22 19:37:04.015823,-36
2021-09-22 19:37:04.015829,-58
2021-09-22 19:37:04.015835,-60
2021-09-22 19:37:04.015841,-36
2021-09-22 19:37:04.015847,-29
2021-09-22 19:37:04.015853,-2
2021-09-22 19:37:04.015860,92
2021-09-22 19:37:04.015866,124
2021-09-22 19:37:04.015872,63
2021-09-22 19:37:04.015878,128
2021-09-22 19:37:04.015884,226
2021-09-22 19:37:04.015890,19
2021-09-22 19:37:04.015896,-240
2021-09-22 19:37:04.015902,-206
2021-09-22 19:37:04.015908,-82
2021-09-22 19:37:04.015914,-63
2021-09-22 19:37:04.015919,-48
2021-09-22 19:37:04.015925,-7
2021-09-22 19:37:04.015931,0
2021-09-22 19:37:04.015937,24
2021-09-22 19:37:04.015943,68
2021-09-22 19:37:04.015949,-17
2021-09-22 19:37:04.015955,-114
2021-09-22 19:37:04.015961,-58
2021-09-22 19:37:04.015967,-7
2021-09-22 19:37:04.015973,-26
2021-09-22 19:37:04.197247,-7
2021-09-22 19:37:04.197264,21
2021-09-22 19:37:04.197272,2
2021-09-22 19:37:04.197278,0
2021-09-22 19:37:04.197284,41
2021-09-22 19:37:04.197290,104
2021-09-22 19:37:04.197296,233
2021-09-22 19:37:04.197302,250
2021-09-22 19:37:04.197308,-60
2021-09-22 19:37:04.197314,-515
2021-09-22 19:37:04.197319,-742
2021-09-22 19:37:04.197325,-542
2021-09-22 19:37:04.197331,-204
2021-09-22 19:37:04.197337,-119
2021-09-22 19:37:04.197343,-119
2021-09-22 19:37:04.197349,48
2021-09-22 19:37:04.197355,148
2021-09-22 19:37:04.197361,87
2021-09-22 19:37:04.197367,82
2021-09-22 19:37:04.197373,70
2021-09-22 19:37:04.197379,26
2021-09-22 19:37:04.197385,43
2021-09-22 19:37:04.197391,58
2021-09-22 19:37:04.197397,104
2021-09-22 19:37:04.197402,160
2021-09-22 19:37:04.197408,124
2021-09-22 19:37:04.197414,150
2021-09-22 19:37:04.197420,287
2021-09-22 19:37:04.197426,284
2021-09-22 19:37:04.197432,197
2021-09-22 19:37:04.512304,236
2021-09-22 19:37:04.512323,255
2021-09-22 19:37:04.512330,216
2021-09-22 19:37:04.512336,238
2021-09-22 19:37:04.512342,265
2021-09-22 19:37:04.512348,277
2021-09-22 19:37:04.512354,265
2021-09-22 19:37:04.512360,170
2021-09-22 19:37:04.512366,51
2021-09-22 19:37:04.512372,4
2021-09-22 19:37:04.512378,12
2021-09-22 19:37:04.512384,-63
2021-09-22 19:37:04.512390,-177
2021-09-22 19:37:04.512396,-167
2021-09-22 19:37:04.512402,-158
2021-09-22 19:37:04.512407,-223
2021-09-22 19:37:04.512413,-209
2021-09-22 19:37:04.512419,-170
2021-09-22 19:37:04.512425,-170
2021-09-22 19:37:04.512431,-170
2021-09-22 19:37:04.512436,-138
2021-09-22 19:37:04.512442,-70
2021-09-22 19:37:04.512448,-85
2021-09-22 19:37:04.512454,-165
2021-09-22 19:37:04.512460,-128
2021-09-22 19:37:04.512466,-70
2021-09-22 19:37:04.512472,-92
2021-09-22 19:37:04.512477,-82
2021-09-22 19:37:04.512483,-82
2021-09-22 19:37:04.512489,-87
2021-09-22 19:37:04.692206,-2
2021-09-22 19:37:04.692225,-24
2021-09-22 19:37:04.692232,-99
2021-09-22 19:37:04.692238,-17
2021-09-22 19:37:04.692244,-41
2021-09-22 19:37:04.692251,-163
2021-09-22 19:37:04.692256,-85
2021-09-22 19:37:04.692262,2
2021-09-22 19:37:04.692268,-70
2021-09-22 19:37:04.692274,-92
2021-09-22 19:37:04.692280,-55
2021-09-22 19:37:04.692286,-82
2021-09-22 19:37:04.692292,-46
2021-09-22 19:37:04.692298,-36
2021-09-22 19:37:04.692303,-121
2021-09-22 19:37:04.692309,-114
2021-09-22 19:37:04.692315,-68
2021-09-22 19:37:04.692321,-17
2021-09-22 19:37:04.692326,48
2021-09-22 19:37:04.692332,-36
2021-09-22 19:37:04.692338,-184
2021-09-22 19:37:04.692344,-148
2021-09-22 19:37:04.692350,-75
2021-09-22 19:37:04.692356,-53
2021-09-22 19:37:04.692361,-21
2021-09-22 19:37:04.692367,-31
2021-09-22 19:37:04.692373,-70
2021-09-22 19:37:04.692379,-87
2021-09-22 19:37:04.692385,-43
2021-09-22 19:37:04.692390,-24
2021-09-22 19:37:05.007183,-31
2021-09-22 19:37:05.007200,128
2021-09-22 19:37:05.007207,299
2021-09-22 19:37:05.007214,204
2021-09-22 19:37:05.007220,36
2021-09-22 19:37:05.007226,-253
2021-09-22 19:37:05.007232,-737
2021-09-22 19:37:05.007238,-669
2021-09-22 19:37:05.007244,-150
2021-09-22 19:37:05.007250,-119
2021-09-22 19:37:05.007256,-206
2021-09-22 19:37:05.007262,17
2021-09-22 19:37:05.007268,72
2021-09-22 19:37:05.007273,-14
2021-09-22 19:37:05.007279,58
2021-09-22 19:37:05.007285,114
2021-09-22 19:37:05.007291,99
2021-09-22 19:37:05.007297,94
2021-09-22 19:37:05.007303,90
2021-09-22 19:37:05.007309,111
2021-09-22 19:37:05.007315,119
2021-09-22 19:37:05.007321,148
2021-09-22 19:37:05.007327,187
2021-09-22 19:37:05.007333,197
2021-09-22 19:37:05.007338,187
2021-09-22 19:37:05.007344,189
2021-09-22 19:37:05.007350,253
2021-09-22 19:37:05.007356,287
2021-09-22 19:37:05.007362,265
2021-09-22 19:37:05.007368,306
2021-09-22 19:37:05.186668,343
2021-09-22 19:37:05.186686,284
2021-09-22 19:37:05.186694,243
2021-09-22 19:37:05.186701,240
2021-09-22 19:37:05.186706,172
2021-09-22 19:37:05.186712,82
2021-09-22 19:37:05.186718,4
2021-09-22 19:37:05.186723,-75
2021-09-22 19:37:05.186729,-104
2021-09-22 19:37:05.186735,-148
2021-09-22 19:37:05.186741,-197
2021-09-22 19:37:05.186747,-182
2021-09-22 19:37:05.186752,-218
2021-09-22 19:37:05.186758,-218
2021-09-22 19:37:05.186764,-128
2021-09-22 19:37:05.186770,-141
2021-09-22 19:37:05.186775,-165
2021-09-22 19:37:05.186781,-116
2021-09-22 19:37:05.186787,-184
2021-09-22 19:37:05.186793,-204
2021-09-22 19:37:05.186799,-68
2021-09-22 19:37:05.186804,-65
2021-09-22 19:37:05.186810,-119
2021-09-22 19:37:05.186816,-60
2021-09-22 19:37:05.186822,-126
2021-09-22 19:37:05.186827,-216
2021-09-22 19:37:05.186833,-102
2021-09-22 19:37:05.186839,-38
2021-09-22 19:37:05.186845,-72
2021-09-22 19:37:05.186850,-41
2021-09-22 19:37:05.367201,-77
2021-09-22 19:37:05.367219,-150
2021-09-22 19:37:05.367226,-77
2021-09-22 19:37:05.367232,-75
2021-09-22 19:37:05.367238,-177
2021-09-22 19:37:05.367244,-109
2021-09-22 19:37:05.367250,-46
2021-09-22 19:37:05.367256,-111
2021-09-22 19:37:05.367262,-107
2021-09-22 19:37:05.367268,-102
2021-09-22 19:37:05.367274,-90
2021-09-22 19:37:05.367280,-58
2021-09-22 19:37:05.367285,-119
2021-09-22 19:37:05.367291,-70
2021-09-22 19:37:05.367297,21
2021-09-22 19:37:05.367303,-109
2021-09-22 19:37:05.367309,-167
2021-09-22 19:37:05.367315,-26
2021-09-22 19:37:05.367321,-26
2021-09-22 19:37:05.367327,-111
2021-09-22 19:37:05.367333,-63
2021-09-22 19:37:05.367338,-2
2021-09-22 19:37:05.367344,-92
2021-09-22 19:37:05.367350,-182
2021-09-22 19:37:05.367356,-102
2021-09-22 19:37:05.367362,-41
2021-09-22 19:37:05.367368,-58
2021-09-22 19:37:05.367374,-9
2021-09-22 19:37:05.367380,72
2021-09-22 19:37:05.367385,228
2021-09-22 19:37:05.592344,372
2021-09-22 19:37:05.592365,257
2021-09-22 19:37:05.592372,-148
2021-09-22 19:37:05.592378,-610
2021-09-22 19:37:05.592385,-608
2021-09-22 19:37:05.592391,-262
2021-09-22 19:37:05.592397,-199
2021-09-22 19:37:05.592403,-136
2021-09-22 19:37:05.592409,65
2021-09-22 19:37:05.592415,-24
2021-09-22 19:37:05.592421,-97
2021-09-22 19:37:05.592427,99
2021-09-22 19:37:05.592433,192
2021-09-22 19:37:05.592438,87
2021-09-22 19:37:05.592444,38
2021-09-22 19:37:05.592450,75
2021-09-22 19:37:05.592456,12
2021-09-22 19:37:05.592462,4
2021-09-22 19:37:05.592468,128
2021-09-22 19:37:05.592474,70
2021-09-22 19:37:05.592480,41
2021-09-22 19:37:05.592485,216
2021-09-22 19:37:05.592491,155
2021-09-22 19:37:05.592497,109
2021-09-22 19:37:05.592503,355
2021-09-22 19:37:05.592509,362
2021-09-22 19:37:05.592515,236
2021-09-22 19:37:05.592521,335
2021-09-22 19:37:05.592527,335
2021-09-22 19:37:05.592540,121
2021-09-22 19:37:05.817301,72
2021-09-22 19:37:05.817318,180
2021-09-22 19:37:05.817326,65
2021-09-22 19:37:05.817332,-121
2021-09-22 19:37:05.817338,-70
2021-09-22 19:37:05.817351,-24
2021-09-22 19:37:05.817357,-126
2021-09-22 19:37:05.817363,-209
2021-09-22 19:37:05.817369,-265
2021-09-22 19:37:05.817375,-270
2021-09-22 19:37:05.817381,-97
2021-09-22 19:37:05.817387,-43
2021-09-22 19:37:05.817393,-270
2021-09-22 19:37:05.817399,-301
2021-09-22 19:37:05.817404,-99
2021-09-22 19:37:05.817410,-128
2021-09-22 19:37:05.817416,-364
2021-09-22 19:37:05.817422,-321
2021-09-22 19:37:05.817428,-82
2021-09-22 19:37:05.817434,-231
2021-09-22 19:37:05.817440,-442
2021-09-22 19:37:05.817445,-226
2021-09-22 19:37:05.817451,97
2021-09-22 19:37:05.817457,102
2021-09-22 19:37:05.817463,-277
2021-09-22 19:37:05.817469,-447
2021-09-22 19:37:05.817474,-124
2021-09-22 19:37:05.817480,60
2021-09-22 19:37:05.817486,-48
2021-09-22 19:37:05.817492,34
2021-09-22 19:37:06.130990,233
2021-09-22 19:37:06.131008,51
2021-09-22 19:37:06.131015,-209
2021-09-22 19:37:06.131021,-175
2021-09-22 19:37:06.131028,-175
2021-09-22 19:37:06.131033,-145
2021-09-22 19:37:06.131039,-53
2021-09-22 19:37:06.131045,-68
2021-09-22 19:37:06.131051,-141
2021-09-22 19:37:06.131057,-116
2021-09-22 19:37:06.131063,177
2021-09-22 19:37:06.131069,184
2021-09-22 19:37:06.131075,-228
2021-09-22 19:37:06.131081,-289
2021-09-22 19:37:06.131087,-4
2021-09-22 19:37:06.131093,75
2021-09-22 19:37:06.131099,-34
2021-09-22 19:37:06.131105,-41
2021-09-22 19:37:06.131110,7
2021-09-22 19:37:06.131116,53
2021-09-22 19:37:06.131122,7
2021-09-22 19:37:06.131128,-150
2021-09-22 19:37:06.131134,-116
2021-09-22 19:37:06.131140,53
2021-09-22 19:37:06.131146,-26
2021-09-22 19:37:06.131151,-238
2021-09-22 19:37:06.131157,-121
2021-09-22 19:37:06.131163,70
2021-09-22 19:37:06.131169,90
2021-09-22 19:37:06.131175,126
2021-09-22 19:37:06.312242,12
2021-09-22 19:37:06.312258,26
2021-09-22 19:37:06.312265,382
2021-09-22 19:37:06.312272,430
2021-09-22 19:37:06.312278,133
2021-09-22 19:37:06.312284,-253
2021-09-22 19:37:06.312290,-656
2021-09-22 19:37:06.312296,-528
2021-09-22 19:37:06.312302,-141
2021-09-22 19:37:06.312308,-99
2021-09-22 19:37:06.312314,-92
2021-09-22 19:37:06.312320,-107
2021-09-22 19:37:06.312326,-97
2021-09-22 19:37:06.312332,124
2021-09-22 19:37:06.312338,170
2021-09-22 19:37:06.312344,109
2021-09-22 19:37:06.312350,236
2021-09-22 19:37:06.312355,194
2021-09-22 19:37:06.312362,-38
2021-09-22 19:37:06.312367,-51
2021-09-22 19:37:06.312373,87
2021-09-22 19:37:06.312379,201
2021-09-22 19:37:06.312385,316
2021-09-22 19:37:06.312391,301
2021-09-22 19:37:06.312397,177
2021-09-22 19:37:06.312403,216
2021-09-22 19:37:06.312408,313
2021-09-22 19:37:06.312414,245
2021-09-22 19:37:06.312420,279
2021-09-22 19:37:06.312426,425
2021-09-22 19:37:06.537282,316
2021-09-22 19:37:06.537301,160
2021-09-22 19:37:06.537308,206
2021-09-22 19:37:06.537314,245
2021-09-22 19:37:06.537320,284
2021-09-22 19:37:06.537326,226
2021-09-22 19:37:06.537332,-75
2021-09-22 19:37:06.537338,-197
2021-09-22 19:37:06.537344,-72
2021-09-22 19:37:06.537350,-124
2021-09-22 19:37:06.537356,-277
2021-09-22 19:37:06.537362,-333
2021-09-22 19:37:06.537368,-233
2021-09-22 19:37:06.537374,-68
2021-09-22 19:37:06.537380,-182
2021-09-22 19:37:06.537385,-360
2021-09-22 19:37:06.537391,-221
2021-09-22 19:37:06.537397,-148
2021-09-22 19:37:06.537403,-245
2021-09-22 19:37:06.537409,-209
2021-09-22 19:37:06.537415,-257
2021-09-22 19:37:06.537421,-360
2021-09-22 19:37:06.537427,-145
2021-09-22 19:37:06.537433,-12
2021-09-22 19:37:06.537439,-257
2021-09-22 19:37:06.537445,-321
2021-09-22 19:37:06.537451,-145
2021-09-22 19:37:06.537457,-160
2021-09-22 19:37:06.537463,-304
2021-09-22 19:37:06.537469,-328
2021-09-22 19:37:06.762290,-182
2021-09-22 19:37:06.762308,-55
2021-09-22 19:37:06.762315,-148
2021-09-22 19:37:06.762321,-238
2021-09-22 19:37:06.762327,-158
2021-09-22 19:37:06.762333,-119
2021-09-22 19:37:06.762339,-194
2021-09-22 19:37:06.762345,-211
2021-09-22 19:37:06.762351,-158
2021-09-22 19:37:06.762357,-206
2021-09-22 19:37:06.762363,-311
2021-09-22 19:37:06.762369,-189
2021-09-22 19:37:06.762375,19
2021-09-22 19:37:06.762381,-82
2021-09-22 19:37:06.762387,-211
2021-09-22 19:37:06.762393,-82
2021-09-22 19:37:06.762399,-38
2021-09-22 19:37:06.762404,-136
2021-09-22 19:37:06.762410,-133
2021-09-22 19:37:06.762416,-65
2021-09-22 19:37:06.762422,-75
2021-09-22 19:37:06.762428,-158
2021-09-22 19:37:06.762434,-153
2021-09-22 19:37:06.762440,-43
2021-09-22 19:37:06.762446,-29
2021-09-22 19:37:06.762452,-121
2021-09-22 19:37:06.762458,-104
2021-09-22 19:37:06.762463,-26
2021-09-22 19:37:06.762469,-99
2021-09-22 19:37:06.762475,-184
2021-09-22 19:37:07.077285,-150
2021-09-22 19:37:07.077302,-148
2021-09-22 19:37:07.077309,-136
2021-09-22 19:37:07.077315,-70
2021-09-22 19:37:07.077321,-121
2021-09-22 19:37:07.077327,-192
2021-09-22 19:37:07.077333,-85
2021-09-22 19:37:07.077339,55
2021-09-22 19:37:07.077345,77
2021-09-22 19:37:07.077351,87
2021-09-22 19:37:07.077357,29
2021-09-22 19:37:07.077362,-255
2021-09-22 19:37:07.077368,-656
2021-09-22 19:37:07.077374,-854
2021-09-22 19:37:07.077380,-608
2021-09-22 19:37:07.077386,-294
2021-09-22 19:37:07.077391,-262
2021-09-22 19:37:07.077397,-218
2021-09-22 19:37:07.077403,-75
2021-09-22 19:37:07.077409,-51
2021-09-22 19:37:07.077414,-85
2021-09-22 19:37:07.077420,-58
2021-09-22 19:37:07.077426,-34
2021-09-22 19:37:07.077432,-21
2021-09-22 19:37:07.077437,-9
2021-09-22 19:37:07.077443,-9
2021-09-22 19:37:07.077449,21
2021-09-22 19:37:07.077455,53
2021-09-22 19:37:07.077461,53
2021-09-22 19:37:07.077466,55
2021-09-22 19:37:07.256620,85
2021-09-22 19:37:07.256638,119
2021-09-22 19:37:07.256645,131
2021-09-22 19:37:07.256651,167
2021-09-22 19:37:07.256658,231
2021-09-22 19:37:07.256663,253
2021-09-22 19:37:07.256669,240
2021-09-22 19:37:07.256675,236
2021-09-22 19:37:07.256681,218
2021-09-22 19:37:07.256687,180
2021-09-22 19:37:07.256693,128
2021-09-22 19:37:07.256699,68
2021-09-22 19:37:07.256705,0
2021-09-22 19:37:07.256711,-72
2021-09-22 19:37:07.256717,-136
2021-09-22 19:37:07.256723,-177
2021-09-22 19:37:07.256729,-211
2021-09-22 19:37:07.256734,-245
2021-09-22 19:37:07.256740,-260
2021-09-22 19:37:07.256746,-255
2021-09-22 19:37:07.256752,-243
2021-09-22 19:37:07.256758,-248
2021-09-22 19:37:07.256764,-248
2021-09-22 19:37:07.256770,-216
2021-09-22 19:37:07.256776,-197
2021-09-22 19:37:07.256781,-194
2021-09-22 19:37:07.256787,-180
2021-09-22 19:37:07.256793,-153
2021-09-22 19:37:07.256799,-136
2021-09-22 19:37:07.256805,-131
2021-09-22 19:37:07.571720,-116
2021-09-22 19:37:07.571738,-94
2021-09-22 19:37:07.571745,-90
2021-09-22 19:37:07.571752,-92
2021-09-22 19:37:07.571758,-97
2021-09-22 19:37:07.571764,-121
2021-09-22 19:37:07.571770,-136
2021-09-22 19:37:07.571776,-124
2021-09-22 19:37:07.571782,-121
2021-09-22 19:37:07.571788,-128
2021-09-22 19:37:07.571794,-128
2021-09-22 19:37:07.571800,-131
2021-09-22 19:37:07.571806,-148
2021-09-22 19:37:07.571812,-145
2021-09-22 19:37:07.571817,-126
2021-09-22 19:37:07.571823,-131
2021-09-22 19:37:07.571829,-145
2021-09-22 19:37:07.571835,-145
2021-09-22 19:37:07.571841,-145
2021-09-22 19:37:07.571847,-148
2021-09-22 19:37:07.571853,-150
2021-09-22 19:37:07.571858,-163
2021-09-22 19:37:07.571864,-165
2021-09-22 19:37:07.571870,-145
2021-09-22 19:37:07.571876,-138
2021-09-22 19:37:07.571882,-141
2021-09-22 19:37:07.571888,-143
2021-09-22 19:37:07.571894,-158
2021-09-22 19:37:07.571899,-189
2021-09-22 19:37:07.571905,-209
2021-09-22 19:37:07.662307,-197
2021-09-22 19:37:07.662324,-170
2021-09-22 19:37:07.662331,-150
2021-09-22 19:37:07.662338,-141
2021-09-22 19:37:07.662344,-116
2021-09-22 19:37:07.662350,-94
2021-09-22 19:37:07.662356,-97
2021-09-22 19:37:07.662362,-90
2021-09-22 19:37:07.662368,-68
2021-09-22 19:37:07.662374,-72
2021-09-22 19:37:07.662380,-102
2021-09-22 19:37:07.662386,-114
2021-09-22 19:37:07.662392,-102
2021-09-22 19:37:07.662398,-102
2021-09-22 19:37:07.662404,-99
2021-09-22 19:37:07.662410,-92
2021-09-22 19:37:07.662415,-92
2021-09-22 19:37:07.662421,-87
2021-09-22 19:37:07.662427,-48
2021-09-22 19:37:07.662433,21
2021-09-22 19:37:07.662439,116
2021-09-22 19:37:07.662444,265
2021-09-22 19:37:07.662450,352
2021-09-22 19:37:07.662456,163
2021-09-22 19:37:07.662462,-192
2021-09-22 19:37:07.662468,-481
2021-09-22 19:37:07.662474,-537
2021-09-22 19:37:07.662480,-279
2021-09-22 19:37:07.662485,-68
2021-09-22 19:37:07.662491,-82
2021-09-22 19:37:07.887216,-24
2021-09-22 19:37:07.887232,94
2021-09-22 19:37:07.887239,94
2021-09-22 19:37:07.887245,65
2021-09-22 19:37:07.887252,92
2021-09-22 19:37:07.887258,109
2021-09-22 19:37:07.887264,102
2021-09-22 19:37:07.887270,104
2021-09-22 19:37:07.887276,114
2021-09-22 19:37:07.887281,119
2021-09-22 19:37:07.887287,119
2021-09-22 19:37:07.887293,133
2021-09-22 19:37:07.887299,167
2021-09-22 19:37:07.887305,192
2021-09-22 19:37:07.887311,197
2021-09-22 19:37:07.887317,214
2021-09-22 19:37:07.887323,248
2021-09-22 19:37:07.887329,279
2021-09-22 19:37:07.887335,299
2021-09-22 19:37:07.887341,306
2021-09-22 19:37:07.887347,304
2021-09-22 19:37:07.887353,274
2021-09-22 19:37:07.887359,236
2021-09-22 19:37:07.887365,209
2021-09-22 19:37:07.887371,172
2021-09-22 19:37:07.887377,94
2021-09-22 19:37:07.887382,0
2021-09-22 19:37:07.887388,-60
2021-09-22 19:37:07.887395,-87
2021-09-22 19:37:07.887401,-124
2021-09-22 19:37:08.200950,-155
2021-09-22 19:37:08.200967,-160
2021-09-22 19:37:08.200974,-160
2021-09-22 19:37:08.200981,-180
2021-09-22 19:37:08.200987,-187
2021-09-22 19:37:08.200993,-165
2021-09-22 19:37:08.200999,-153
2021-09-22 19:37:08.201005,-153
2021-09-22 19:37:08.201011,-143
2021-09-22 19:37:08.201017,-138
2021-09-22 19:37:08.201023,-153
2021-09-22 19:37:08.201028,-155
2021-09-22 19:37:08.201034,-141
2021-09-22 19:37:08.201040,-128
2021-09-22 19:37:08.201046,-126
2021-09-22 19:37:08.201052,-126
2021-09-22 19:37:08.201058,-126
2021-09-22 19:37:08.201064,-121
2021-09-22 19:37:08.201070,-114
2021-09-22 19:37:08.201075,-114
2021-09-22 19:37:08.201081,-119
2021-09-22 19:37:08.201087,-128
2021-09-22 19:37:08.201093,-131
2021-09-22 19:37:08.201099,-128
2021-09-22 19:37:08.201105,-133
2021-09-22 19:37:08.201110,-138
2021-09-22 19:37:08.201116,-136
2021-09-22 19:37:08.201122,-141
2021-09-22 19:37:08.201128,-143
2021-09-22 19:37:08.201134,-133
2021-09-22 19:37:08.382310,-128
2021-09-22 19:37:08.382326,-124
2021-09-22 19:37:08.382333,-119
2021-09-22 19:37:08.382339,-121
2021-09-22 19:37:08.382344,-116
2021-09-22 19:37:08.382348,-107
2021-09-22 19:37:08.382351,-104
2021-09-22 19:37:08.382354,-107
2021-09-22 19:37:08.382357,-119
2021-09-22 19:37:08.382360,-128
2021-09-22 19:37:08.382363,-119
2021-09-22 19:37:08.382367,-107
2021-09-22 19:37:08.382370,-97
2021-09-22 19:37:08.382373,-90
2021-09-22 19:37:08.382376,-85
2021-09-22 19:37:08.382379,-82
2021-09-22 19:37:08.382382,-70
2021-09-22 19:37:08.382385,-70
2021-09-22 19:37:08.382388,-90
2021-09-22 19:37:08.382391,-97
2021-09-22 19:37:08.382394,-97
2021-09-22 19:37:08.382397,-99
2021-09-22 19:37:08.382400,-87
2021-09-22 19:37:08.382403,-72
2021-09-22 19:37:08.382406,-75
2021-09-22 19:37:08.382409,-77
2021-09-22 19:37:08.382412,-63
2021-09-22 19:37:08.382415,-26
2021-09-22 19:37:08.382418,36
2021-09-22 19:37:08.382422,163
2021-09-22 19:37:08.607321,318
2021-09-22 19:37:08.607339,267
2021-09-22 19:37:08.607346,-72
2021-09-22 19:37:08.607353,-450
2021-09-22 19:37:08.607359,-625
2021-09-22 19:37:08.607365,-455
2021-09-22 19:37:08.607371,-170
2021-09-22 19:37:08.607377,-94
2021-09-22 19:37:08.607383,-80
2021-09-22 19:37:08.607389,24
2021-09-22 19:37:08.607395,80
2021-09-22 19:37:08.607401,68
2021-09-22 19:37:08.607407,80
2021-09-22 19:37:08.607413,92
2021-09-22 19:37:08.607419,80
2021-09-22 19:37:08.607425,80
2021-09-22 19:37:08.607431,90
2021-09-22 19:37:08.607437,97
2021-09-22 19:37:08.607443,109
2021-09-22 19:37:08.607449,124
2021-09-22 19:37:08.607454,136
2021-09-22 19:37:08.607460,158
2021-09-22 19:37:08.607466,184
2021-09-22 19:37:08.607472,216
2021-09-22 19:37:08.607478,245
2021-09-22 19:37:08.607484,270
2021-09-22 19:37:08.607490,291
2021-09-22 19:37:08.607496,306
2021-09-22 19:37:08.607502,309
2021-09-22 19:37:08.607507,294
2021-09-22 19:37:08.832322,265
2021-09-22 19:37:08.832340,221
2021-09-22 19:37:08.832347,163
2021-09-22 19:37:08.832353,92
2021-09-22 19:37:08.832359,19
2021-09-22 19:37:08.832365,-41
2021-09-22 19:37:08.832371,-94
2021-09-22 19:37:08.832377,-145
2021-09-22 19:37:08.832383,-180
2021-09-22 19:37:08.832389,-189
2021-09-22 19:37:08.832395,-194
2021-09-22 19:37:08.832402,-194
2021-09-22 19:37:08.832407,-192
2021-09-22 19:37:08.832413,-192
2021-09-22 19:37:08.832419,-187
2021-09-22 19:37:08.832425,-177
2021-09-22 19:37:08.832431,-163
2021-09-22 19:37:08.832437,-153
2021-09-22 19:37:08.832442,-148
2021-09-22 19:37:08.832448,-138
2021-09-22 19:37:08.832454,-133
2021-09-22 19:37:08.832460,-133
2021-09-22 19:37:08.832465,-128
2021-09-22 19:37:08.832471,-116
2021-09-22 19:37:08.832477,-109
2021-09-22 19:37:08.832483,-107
2021-09-22 19:37:08.832489,-104
2021-09-22 19:37:08.832495,-104
2021-09-22 19:37:08.832501,-102
2021-09-22 19:37:08.832506,-97
2021-09-22 19:37:09.057309,-102
2021-09-22 19:37:09.057326,-107
2021-09-22 19:37:09.057333,-102
2021-09-22 19:37:09.057339,-102
2021-09-22 19:37:09.057345,-102
2021-09-22 19:37:09.057351,-97
2021-09-22 19:37:09.057357,-102
2021-09-22 19:37:09.057363,-107
2021-09-22 19:37:09.057466,-97
2021-09-22 19:37:09.057472,-92
2021-09-22 19:37:09.057479,-92
2021-09-22 19:37:09.057485,-92
2021-09-22 19:37:09.057491,-97
2021-09-22 19:37:09.057497,-97
2021-09-22 19:37:09.057503,-87
2021-09-22 19:37:09.057509,-80
2021-09-22 19:37:09.057514,-77
2021-09-22 19:37:09.057520,-85
2021-09-22 19:37:09.057526,-94
2021-09-22 19:37:09.057532,-92
2021-09-22 19:37:09.057538,-82
2021-09-22 19:37:09.057544,-77
2021-09-22 19:37:09.057550,-77
2021-09-22 19:37:09.057556,-75
2021-09-22 19:37:09.057562,-63
2021-09-22 19:37:09.057567,-43
2021-09-22 19:37:09.057573,-43
2021-09-22 19:37:09.057579,-68
2021-09-22 19:37:09.057585,-80
2021-09-22 19:37:09.057591,-70
2021-09-22 19:37:09.282332,-63
2021-09-22 19:37:09.282350,-53
2021-09-22 19:37:09.282357,-38
2021-09-22 19:37:09.282363,-41
2021-09-22 19:37:09.282370,-75
2021-09-22 19:37:09.282376,-80
2021-09-22 19:37:09.282381,-17
2021-09-22 19:37:09.282387,75
2021-09-22 19:37:09.282393,216
2021-09-22 19:37:09.282399,357
2021-09-22 19:37:09.282405,265
2021-09-22 19:37:09.282411,-65
2021-09-22 19:37:09.282417,-455
2021-09-22 19:37:09.282423,-681
2021-09-22 19:37:09.282429,-472
2021-09-22 19:37:09.282435,-150
2021-09-22 19:37:09.282441,-119
2021-09-22 19:37:09.282447,-107
2021-09-22 19:37:09.282453,26
2021-09-22 19:37:09.282458,75
2021-09-22 19:37:09.282464,48
2021-09-22 19:37:09.282470,70
2021-09-22 19:37:09.282476,94
2021-09-22 19:37:09.282482,92
2021-09-22 19:37:09.282488,97
2021-09-22 19:37:09.282493,104
2021-09-22 19:37:09.282499,109
2021-09-22 19:37:09.282505,124
2021-09-22 19:37:09.282511,141
2021-09-22 19:37:09.282517,155
2021-09-22 19:37:09.507412,182
2021-09-22 19:37:09.507432,214
2021-09-22 19:37:09.507440,250
2021-09-22 19:37:09.507446,284
2021-09-22 19:37:09.507452,311
2021-09-22 19:37:09.507458,326
2021-09-22 19:37:09.507464,338
2021-09-22 19:37:09.507470,345
2021-09-22 19:37:09.507476,323
2021-09-22 19:37:09.507482,282
2021-09-22 19:37:09.507488,231
2021-09-22 19:37:09.507493,165
2021-09-22 19:37:09.507499,85
2021-09-22 19:37:09.507505,4
2021-09-22 19:37:09.507511,-72
2021-09-22 19:37:09.507517,-136
2021-09-22 19:37:09.507523,-182
2021-09-22 19:37:09.507529,-221
2021-09-22 19:37:09.507534,-233
2021-09-22 19:37:09.507540,-228
2021-09-22 19:37:09.507546,-233
2021-09-22 19:37:09.507552,-236
2021-09-22 19:37:09.507558,-226
2021-09-22 19:37:09.507564,-218
2021-09-22 19:37:09.507570,-209
2021-09-22 19:37:09.507576,-192
2021-09-22 19:37:09.507581,-177
2021-09-22 19:37:09.507587,-170
