Time,ECG
2021-09-22 20:16:52.745505,99
2021-09-22 20:16:52.745522,240
2021-09-22 20:16:52.745529,377
2021-09-22 20:16:52.745535,245
2021-09-22 20:16:52.745541,-194
2021-09-22 20:16:52.745548,-613
2021-09-22 20:16:52.745554,-729
2021-09-22 20:16:52.745560,-476
2021-09-22 20:16:52.745566,-180
2021-09-22 20:16:52.745572,-97
2021-09-22 20:16:52.745578,-34
2021-09-22 20:16:52.745584,75
2021-09-22 20:16:52.745589,92
2021-09-22 20:16:52.745595,70
2021-09-22 20:16:52.745601,94
2021-09-22 20:16:52.745607,114
2021-09-22 20:16:52.745612,116
2021-09-22 20:16:52.745619,133
2021-09-22 20:16:52.745624,145
2021-09-22 20:16:52.745630,145
2021-09-22 20:16:52.745636,158
2021-09-22 20:16:52.745641,180
2021-09-22 20:16:52.745647,197
2021-09-22 20:16:52.745653,211
2021-09-22 20:16:52.745659,231
2021-09-22 20:16:52.745665,253
2021-09-22 20:16:52.745671,277
2021-09-22 20:16:52.745676,311
2021-09-22 20:16:52.745682,345
2021-09-22 20:16:52.745688,377
2021-09-22 20:16:52.873617,403
2021-09-22 20:16:52.873633,423
2021-09-22 20:16:52.873640,433
2021-09-22 20:16:52.873646,433
2021-09-22 20:16:52.873652,420
2021-09-22 20:16:52.873658,389
2021-09-22 20:16:52.873664,323
2021-09-22 20:16:52.873670,243
2021-09-22 20:16:52.873676,158
2021-09-22 20:16:52.873682,68
2021-09-22 20:16:52.873688,-14
2021-09-22 20:16:52.873693,-75
2021-09-22 20:16:52.873699,-124
2021-09-22 20:16:52.873705,-158
2021-09-22 20:16:52.873711,-180
2021-09-22 20:16:52.873717,-192
2021-09-22 20:16:52.873722,-184
2021-09-22 20:16:52.873729,-170
2021-09-22 20:16:52.873735,-158
2021-09-22 20:16:52.873740,-138
2021-09-22 20:16:52.873746,-121
2021-09-22 20:16:52.873752,-111
2021-09-22 20:16:52.873757,-97
2021-09-22 20:16:52.873763,-75
2021-09-22 20:16:52.873769,-60
2021-09-22 20:16:52.873774,-53
2021-09-22 20:16:52.873780,-48
2021-09-22 20:16:52.873786,-38
2021-09-22 20:16:52.873792,-31
2021-09-22 20:16:52.873799,-36
2021-09-22 20:16:53.098719,-38
2021-09-22 20:16:53.098739,-31
2021-09-22 20:16:53.098746,-31
2021-09-22 20:16:53.098752,-36
2021-09-22 20:16:53.098758,-41
2021-09-22 20:16:53.098764,-46
2021-09-22 20:16:53.098770,-53
2021-09-22 20:16:53.098776,-58
2021-09-22 20:16:53.098782,-58
2021-09-22 20:16:53.098788,-58
2021-09-22 20:16:53.098793,-60
2021-09-22 20:16:53.098799,-63
2021-09-22 20:16:53.098805,-65
2021-09-22 20:16:53.098815,-65
2021-09-22 20:16:53.098821,-68
2021-09-22 20:16:53.098827,-70
2021-09-22 20:16:53.098833,-68
2021-09-22 20:16:53.098839,-63
2021-09-22 20:16:53.098845,-60
2021-09-22 20:16:53.098850,-53
2021-09-22 20:16:53.098856,-41
2021-09-22 20:16:53.098862,-34
2021-09-22 20:16:53.098868,-29
2021-09-22 20:16:53.098874,-46
2021-09-22 20:16:53.098879,-72
2021-09-22 20:16:53.098885,-75
2021-09-22 20:16:53.098891,-70
2021-09-22 20:16:53.098897,-72
2021-09-22 20:16:53.098902,-80
2021-09-22 20:16:53.098910,-82
2021-09-22 20:16:53.367197,-80
2021-09-22 20:16:53.367215,-77
2021-09-22 20:16:53.367222,-72
2021-09-22 20:16:53.367228,-38
2021-09-22 20:16:53.367234,43
2021-09-22 20:16:53.367239,167
2021-09-22 20:16:53.367245,330
2021-09-22 20:16:53.367251,338
2021-09-22 20:16:53.367256,-21
2021-09-22 20:16:53.367262,-508
2021-09-22 20:16:53.367268,-766
2021-09-22 20:16:53.367274,-647
2021-09-22 20:16:53.367279,-309
2021-09-22 20:16:53.367285,-138
2021-09-22 20:16:53.367291,-114
2021-09-22 20:16:53.367296,-19
2021-09-22 20:16:53.367302,46
2021-09-22 20:16:53.367312,29
2021-09-22 20:16:53.367318,36
2021-09-22 20:16:53.367323,63
2021-09-22 20:16:53.367329,53
2021-09-22 20:16:53.367335,41
2021-09-22 20:16:53.367341,51
2021-09-22 20:16:53.367346,65
2021-09-22 20:16:53.367352,68
2021-09-22 20:16:53.367358,72
2021-09-22 20:16:53.367364,82
2021-09-22 20:16:53.367369,87
2021-09-22 20:16:53.367375,99
2021-09-22 20:16:53.367380,124
2021-09-22 20:16:53.548567,148
2021-09-22 20:16:53.548584,170
2021-09-22 20:16:53.548591,199
2021-09-22 20:16:53.548597,226
2021-09-22 20:16:53.548603,243
2021-09-22 20:16:53.548609,262
2021-09-22 20:16:53.548615,282
2021-09-22 20:16:53.548625,289
2021-09-22 20:16:53.548631,277
2021-09-22 20:16:53.548637,253
2021-09-22 20:16:53.548643,206
2021-09-22 20:16:53.548649,136
2021-09-22 20:16:53.548655,51
2021-09-22 20:16:53.548661,-38
2021-09-22 20:16:53.548667,-124
2021-09-22 20:16:53.548672,-197
2021-09-22 20:16:53.548678,-250
2021-09-22 20:16:53.548684,-279
2021-09-22 20:16:53.548690,-294
2021-09-22 20:16:53.548695,-304
2021-09-22 20:16:53.548701,-304
2021-09-22 20:16:53.548707,-299
2021-09-22 20:16:53.548713,-289
2021-09-22 20:16:53.548719,-270
2021-09-22 20:16:53.548725,-248
2021-09-22 20:16:53.548730,-231
2021-09-22 20:16:53.548736,-216
2021-09-22 20:16:53.548747,-201
2021-09-22 20:16:53.548754,-187
2021-09-22 20:16:53.548760,-170
2021-09-22 20:16:53.863591,-155
2021-09-22 20:16:53.863610,-148
2021-09-22 20:16:53.863617,-143
2021-09-22 20:16:53.863623,-141
2021-09-22 20:16:53.863629,-141
2021-09-22 20:16:53.863635,-131
2021-09-22 20:16:53.863641,-124
2021-09-22 20:16:53.863647,-121
2021-09-22 20:16:53.863653,-119
2021-09-22 20:16:53.863659,-124
2021-09-22 20:16:53.863665,-126
2021-09-22 20:16:53.863671,-119
2021-09-22 20:16:53.863676,-111
2021-09-22 20:16:53.863682,-114
2021-09-22 20:16:53.863688,-116
2021-09-22 20:16:53.863694,-111
2021-09-22 20:16:53.863700,-107
2021-09-22 20:16:53.863706,-99
2021-09-22 20:16:53.863712,-90
2021-09-22 20:16:53.863718,-77
2021-09-22 20:16:53.863723,-72
2021-09-22 20:16:53.863729,-80
2021-09-22 20:16:53.863735,-77
2021-09-22 20:16:53.863741,-63
2021-09-22 20:16:53.863751,-48
2021-09-22 20:16:53.863757,-46
2021-09-22 20:16:53.863762,-48
2021-09-22 20:16:53.863768,-41
2021-09-22 20:16:53.863774,-19
2021-09-22 20:16:53.863780,-7
2021-09-22 20:16:54.043533,-21
2021-09-22 20:16:54.043550,-36
2021-09-22 20:16:54.043557,-38
2021-09-22 20:16:54.043563,-36
2021-09-22 20:16:54.043569,-31
2021-09-22 20:16:54.043574,-24
2021-09-22 20:16:54.043580,-19
2021-09-22 20:16:54.043586,-19
2021-09-22 20:16:54.043592,-21
2021-09-22 20:16:54.043597,-19
2021-09-22 20:16:54.043603,21
2021-09-22 20:16:54.043609,116
2021-09-22 20:16:54.043615,262
2021-09-22 20:16:54.043620,447
2021-09-22 20:16:54.043626,428
2021-09-22 20:16:54.043632,17
2021-09-22 20:16:54.043638,-457
2021-09-22 20:16:54.043643,-669
2021-09-22 20:16:54.043649,-532
2021-09-22 20:16:54.043655,-199
2021-09-22 20:16:54.043661,-31
2021-09-22 20:16:54.043667,0
2021-09-22 20:16:54.043674,107
2021-09-22 20:16:54.043680,167
2021-09-22 20:16:54.043685,141
2021-09-22 20:16:54.043691,153
2021-09-22 20:16:54.043697,180
2021-09-22 20:16:54.043703,177
2021-09-22 20:16:54.043708,180
2021-09-22 20:16:54.043714,199
2021-09-22 20:16:54.268627,204
2021-09-22 20:16:54.268644,209
2021-09-22 20:16:54.268651,216
2021-09-22 20:16:54.268657,223
2021-09-22 20:16:54.268663,236
2021-09-22 20:16:54.268669,253
2021-09-22 20:16:54.268675,267
2021-09-22 20:16:54.268681,277
2021-09-22 20:16:54.268687,289
2021-09-22 20:16:54.268693,316
2021-09-22 20:16:54.268698,347
2021-09-22 20:16:54.268704,372
2021-09-22 20:16:54.268710,391
2021-09-22 20:16:54.268716,401
2021-09-22 20:16:54.268722,396
2021-09-22 20:16:54.268727,382
2021-09-22 20:16:54.268733,357
2021-09-22 20:16:54.268739,309
2021-09-22 20:16:54.268745,231
2021-09-22 20:16:54.268750,138
2021-09-22 20:16:54.268756,36
2021-09-22 20:16:54.268762,-60
2021-09-22 20:16:54.268768,-133
2021-09-22 20:16:54.268774,-187
2021-09-22 20:16:54.268782,-226
2021-09-22 20:16:54.268788,-250
2021-09-22 20:16:54.268793,-265
2021-09-22 20:16:54.268799,-270
2021-09-22 20:16:54.268805,-265
2021-09-22 20:16:54.268811,-255
2021-09-22 20:16:54.493616,-243
2021-09-22 20:16:54.493635,-236
2021-09-22 20:16:54.493641,-231
2021-09-22 20:16:54.493648,-218
2021-09-22 20:16:54.493653,-199
2021-09-22 20:16:54.493659,-184
2021-09-22 20:16:54.493665,-175
2021-09-22 20:16:54.493671,-170
2021-09-22 20:16:54.493677,-165
2021-09-22 20:16:54.493682,-153
2021-09-22 20:16:54.493688,-143
2021-09-22 20:16:54.493694,-136
2021-09-22 20:16:54.493700,-138
2021-09-22 20:16:54.493706,-143
2021-09-22 20:16:54.493711,-145
2021-09-22 20:16:54.493717,-141
2021-09-22 20:16:54.493723,-138
2021-09-22 20:16:54.493728,-136
2021-09-22 20:16:54.493734,-133
2021-09-22 20:16:54.493740,-133
2021-09-22 20:16:54.493746,-136
2021-09-22 20:16:54.493752,-133
2021-09-22 20:16:54.493757,-126
2021-09-22 20:16:54.493763,-121
2021-09-22 20:16:54.493769,-121
2021-09-22 20:16:54.493774,-119
2021-09-22 20:16:54.493780,-114
2021-09-22 20:16:54.493786,-109
2021-09-22 20:16:54.493791,-104
2021-09-22 20:16:54.493797,-97
2021-09-22 20:16:54.718742,-97
2021-09-22 20:16:54.718761,-102
2021-09-22 20:16:54.718768,-97
2021-09-22 20:16:54.718774,-90
2021-09-22 20:16:54.718780,-87
2021-09-22 20:16:54.718786,-87
2021-09-22 20:16:54.718792,-92
2021-09-22 20:16:54.718797,-94
2021-09-22 20:16:54.718803,-80
2021-09-22 20:16:54.718809,-60
2021-09-22 20:16:54.718815,-55
2021-09-22 20:16:54.718821,-48
2021-09-22 20:16:54.718826,-41
2021-09-22 20:16:54.718832,-48
2021-09-22 20:16:54.718838,-70
2021-09-22 20:16:54.718844,-77
2021-09-22 20:16:54.718850,-72
2021-09-22 20:16:54.718855,-68
2021-09-22 20:16:54.718861,-68
2021-09-22 20:16:54.718867,-65
2021-09-22 20:16:54.718873,-65
2021-09-22 20:16:54.718878,-68
2021-09-22 20:16:54.718884,-68
2021-09-22 20:16:54.718890,-41
2021-09-22 20:16:54.718895,26
2021-09-22 20:16:54.718901,148
2021-09-22 20:16:54.718907,333
2021-09-22 20:16:54.718912,442
2021-09-22 20:16:54.718918,177
2021-09-22 20:16:54.718924,-338
2021-09-22 20:16:54.943630,-686
2021-09-22 20:16:54.943647,-698
2021-09-22 20:16:54.943653,-391
2021-09-22 20:16:54.943660,-102
2021-09-22 20:16:54.943666,-34
2021-09-22 20:16:54.943672,31
2021-09-22 20:16:54.943678,109
2021-09-22 20:16:54.943684,97
2021-09-22 20:16:54.943690,87
2021-09-22 20:16:54.943696,121
2021-09-22 20:16:54.943706,133
2021-09-22 20:16:54.943712,126
2021-09-22 20:16:54.943718,136
2021-09-22 20:16:54.943724,148
2021-09-22 20:16:54.943730,155
2021-09-22 20:16:54.943736,163
2021-09-22 20:16:54.943742,175
2021-09-22 20:16:54.943748,187
2021-09-22 20:16:54.943754,197
2021-09-22 20:16:54.943760,216
2021-09-22 20:16:54.943766,236
2021-09-22 20:16:54.943771,257
2021-09-22 20:16:54.943777,284
2021-09-22 20:16:54.943783,309
2021-09-22 20:16:54.943789,323
2021-09-22 20:16:54.943795,345
2021-09-22 20:16:54.943800,369
2021-09-22 20:16:54.943806,379
2021-09-22 20:16:54.943812,374
2021-09-22 20:16:54.943818,355
2021-09-22 20:16:55.213656,321
2021-09-22 20:16:55.213673,272
2021-09-22 20:16:55.213681,201
2021-09-22 20:16:55.213687,107
2021-09-22 20:16:55.213693,2
2021-09-22 20:16:55.213698,-94
2021-09-22 20:16:55.213704,-163
2021-09-22 20:16:55.213710,-214
2021-09-22 20:16:55.213716,-253
2021-09-22 20:16:55.213722,-270
2021-09-22 20:16:55.213728,-277
2021-09-22 20:16:55.213734,-284
2021-09-22 20:16:55.213740,-274
2021-09-22 20:16:55.213746,-257
2021-09-22 20:16:55.213752,-240
2021-09-22 20:16:55.213758,-226
2021-09-22 20:16:55.213764,-214
2021-09-22 20:16:55.213770,-206
2021-09-22 20:16:55.213775,-187
2021-09-22 20:16:55.213782,-167
2021-09-22 20:16:55.213787,-160
2021-09-22 20:16:55.213793,-155
2021-09-22 20:16:55.213799,-145
2021-09-22 20:16:55.213805,-138
2021-09-22 20:16:55.213811,-133
2021-09-22 20:16:55.213821,-131
2021-09-22 20:16:55.213827,-136
2021-09-22 20:16:55.213833,-136
2021-09-22 20:16:55.213839,-133
2021-09-22 20:16:55.213845,-133
2021-09-22 20:16:55.437233,-128
2021-09-22 20:16:55.437250,-128
2021-09-22 20:16:55.437257,-131
2021-09-22 20:16:55.437263,-133
2021-09-22 20:16:55.437269,-136
2021-09-22 20:16:55.437275,-133
2021-09-22 20:16:55.437281,-126
2021-09-22 20:16:55.437287,-119
2021-09-22 20:16:55.437293,-116
2021-09-22 20:16:55.437298,-116
2021-09-22 20:16:55.437304,-114
2021-09-22 20:16:55.437310,-107
2021-09-22 20:16:55.437316,-107
2021-09-22 20:16:55.437322,-114
2021-09-22 20:16:55.437328,-116
2021-09-22 20:16:55.437334,-109
2021-09-22 20:16:55.437339,-107
2021-09-22 20:16:55.437345,-102
2021-09-22 20:16:55.437351,-94
2021-09-22 20:16:55.437356,-92
2021-09-22 20:16:55.437362,-87
2021-09-22 20:16:55.437368,-82
2021-09-22 20:16:55.437374,-77
2021-09-22 20:16:55.437379,-58
2021-09-22 20:16:55.437385,-34
2021-09-22 20:16:55.437391,-29
2021-09-22 20:16:55.437396,-34
2021-09-22 20:16:55.437402,-34
2021-09-22 20:16:55.437408,-41
2021-09-22 20:16:55.437414,-58
2021-09-22 20:16:55.618743,-68
2021-09-22 20:16:55.618763,-70
2021-09-22 20:16:55.618770,-65
2021-09-22 20:16:55.618776,-63
2021-09-22 20:16:55.618782,-68
2021-09-22 20:16:55.618788,-63
2021-09-22 20:16:55.618794,-55
2021-09-22 20:16:55.618799,-55
2021-09-22 20:16:55.618805,-41
2021-09-22 20:16:55.618811,7
2021-09-22 20:16:55.618817,104
2021-09-22 20:16:55.618823,272
2021-09-22 20:16:55.618829,437
2021-09-22 20:16:55.618835,311
2021-09-22 20:16:55.618841,-138
2021-09-22 20:16:55.618847,-569
2021-09-22 20:16:55.618856,-691
2021-09-22 20:16:55.618862,-430
2021-09-22 20:16:55.618868,-121
2021-09-22 20:16:55.618874,-46
2021-09-22 20:16:55.618879,4
2021-09-22 20:16:55.618885,111
2021-09-22 20:16:55.618891,126
2021-09-22 20:16:55.618897,104
2021-09-22 20:16:55.618902,133
2021-09-22 20:16:55.618908,155
2021-09-22 20:16:55.618914,153
2021-09-22 20:16:55.618920,158
2021-09-22 20:16:55.618926,170
2021-09-22 20:16:55.618931,175
2021-09-22 20:16:55.888627,182
2021-09-22 20:16:55.888645,192
2021-09-22 20:16:55.888652,194
2021-09-22 20:16:55.888658,197
2021-09-22 20:16:55.888664,214
2021-09-22 20:16:55.888670,233
2021-09-22 20:16:55.888676,255
2021-09-22 20:16:55.888681,279
2021-09-22 20:16:55.888687,301
2021-09-22 20:16:55.888693,316
2021-09-22 20:16:55.888699,335
2021-09-22 20:16:55.888705,360
2021-09-22 20:16:55.888711,372
2021-09-22 20:16:55.888716,367
2021-09-22 20:16:55.888722,345
2021-09-22 20:16:55.888728,309
2021-09-22 20:16:55.888734,262
2021-09-22 20:16:55.888739,194
2021-09-22 20:16:55.888745,99
2021-09-22 20:16:55.888751,0
2021-09-22 20:16:55.888757,-85
2021-09-22 20:16:55.888763,-155
2021-09-22 20:16:55.888768,-201
2021-09-22 20:16:55.888774,-228
2021-09-22 20:16:55.888780,-250
2021-09-22 20:16:55.888786,-265
2021-09-22 20:16:55.888791,-267
2021-09-22 20:16:55.888797,-260
2021-09-22 20:16:55.888803,-243
2021-09-22 20:16:55.888809,-228
2021-09-22 20:16:56.158118,-216
2021-09-22 20:16:56.158136,-201
2021-09-22 20:16:56.158143,-192
2021-09-22 20:16:56.158149,-184
2021-09-22 20:16:56.158155,-172
2021-09-22 20:16:56.158161,-158
2021-09-22 20:16:56.158167,-148
2021-09-22 20:16:56.158173,-145
2021-09-22 20:16:56.158179,-148
2021-09-22 20:16:56.158184,-150
2021-09-22 20:16:56.158190,-148
2021-09-22 20:16:56.158196,-138
2021-09-22 20:16:56.158202,-136
2021-09-22 20:16:56.158212,-141
2021-09-22 20:16:56.158218,-150
2021-09-22 20:16:56.158224,-153
2021-09-22 20:16:56.158230,-148
2021-09-22 20:16:56.158236,-143
2021-09-22 20:16:56.158242,-138
2021-09-22 20:16:56.158247,-138
2021-09-22 20:16:56.158253,-141
2021-09-22 20:16:56.158259,-138
2021-09-22 20:16:56.158265,-128
2021-09-22 20:16:56.158270,-124
2021-09-22 20:16:56.158276,-119
2021-09-22 20:16:56.158282,-119
2021-09-22 20:16:56.158287,-121
2021-09-22 20:16:56.158293,-116
2021-09-22 20:16:56.158299,-109
2021-09-22 20:16:56.158304,-104
2021-09-22 20:16:56.338564,-99
2021-09-22 20:16:56.338581,-99
2021-09-22 20:16:56.338589,-107
2021-09-22 20:16:56.338595,-107
2021-09-22 20:16:56.338601,-94
2021-09-22 20:16:56.338607,-75
2021-09-22 20:16:56.338613,-63
2021-09-22 20:16:56.338619,-75
2021-09-22 20:16:56.338625,-75
2021-09-22 20:16:56.338630,-63
2021-09-22 20:16:56.338636,-75
2021-09-22 20:16:56.338642,-94
2021-09-22 20:16:56.338648,-104
2021-09-22 20:16:56.338654,-109
2021-09-22 20:16:56.338660,-111
2021-09-22 20:16:56.338665,-107
2021-09-22 20:16:56.338671,-102
2021-09-22 20:16:56.338677,-99
2021-09-22 20:16:56.338682,-97
2021-09-22 20:16:56.338688,-94
2021-09-22 20:16:56.338694,-68
2021-09-22 20:16:56.338700,9
2021-09-22 20:16:56.338705,121
2021-09-22 20:16:56.338711,262
2021-09-22 20:16:56.338717,323
2021-09-22 20:16:56.338723,70
2021-09-22 20:16:56.338728,-389
2021-09-22 20:16:56.338734,-715
2021-09-22 20:16:56.338740,-688
2021-09-22 20:16:56.338746,-357
2021-09-22 20:16:56.608146,-121
2021-09-22 20:16:56.608164,-90
2021-09-22 20:16:56.608171,-4
2021-09-22 20:16:56.608177,90
2021-09-22 20:16:56.608183,85
2021-09-22 20:16:56.608189,80
2021-09-22 20:16:56.608195,99
2021-09-22 20:16:56.608201,99
2021-09-22 20:16:56.608207,99
2021-09-22 20:16:56.608213,109
2021-09-22 20:16:56.608219,114
2021-09-22 20:16:56.608225,124
2021-09-22 20:16:56.608231,131
2021-09-22 20:16:56.608236,136
2021-09-22 20:16:56.608242,148
2021-09-22 20:16:56.608248,165
2021-09-22 20:16:56.608254,184
2021-09-22 20:16:56.608267,206
2021-09-22 20:16:56.608273,226
2021-09-22 20:16:56.608279,243
2021-09-22 20:16:56.608285,267
2021-09-22 20:16:56.608290,291
2021-09-22 20:16:56.608296,306
2021-09-22 20:16:56.608302,318
2021-09-22 20:16:56.608307,321
2021-09-22 20:16:56.608313,311
2021-09-22 20:16:56.608319,294
2021-09-22 20:16:56.608325,262
2021-09-22 20:16:56.608330,209
2021-09-22 20:16:56.608336,136
2021-09-22 20:16:56.788621,46
2021-09-22 20:16:56.788637,-43
2021-09-22 20:16:56.788644,-119
2021-09-22 20:16:56.788651,-175
2021-09-22 20:16:56.788656,-214
2021-09-22 20:16:56.788662,-245
2021-09-22 20:16:56.788668,-270
2021-09-22 20:16:56.788674,-272
2021-09-22 20:16:56.788680,-267
2021-09-22 20:16:56.788686,-265
2021-09-22 20:16:56.788691,-253
2021-09-22 20:16:56.788697,-238
2021-09-22 20:16:56.788703,-231
2021-09-22 20:16:56.788708,-214
2021-09-22 20:16:56.788714,-194
2021-09-22 20:16:56.788720,-184
2021-09-22 20:16:56.788725,-172
2021-09-22 20:16:56.788731,-160
2021-09-22 20:16:56.788737,-155
2021-09-22 20:16:56.788743,-148
2021-09-22 20:16:56.788748,-143
2021-09-22 20:16:56.788754,-141
2021-09-22 20:16:56.788760,-138
2021-09-22 20:16:56.788765,-136
2021-09-22 20:16:56.788771,-138
2021-09-22 20:16:56.788777,-138
2021-09-22 20:16:56.788782,-133
2021-09-22 20:16:56.788788,-133
2021-09-22 20:16:56.788794,-131
2021-09-22 20:16:56.788799,-133
2021-09-22 20:16:57.058579,-143
2021-09-22 20:16:57.058596,-138
2021-09-22 20:16:57.058603,-131
2021-09-22 20:16:57.058610,-133
2021-09-22 20:16:57.058616,-131
2021-09-22 20:16:57.058622,-131
2021-09-22 20:16:57.058627,-133
2021-09-22 20:16:57.058633,-124
2021-09-22 20:16:57.058639,-119
2021-09-22 20:16:57.058645,-121
2021-09-22 20:16:57.058651,-124
2021-09-22 20:16:57.058656,-128
2021-09-22 20:16:57.058662,-128
2021-09-22 20:16:57.058668,-119
2021-09-22 20:16:57.058674,-114
2021-09-22 20:16:57.058680,-114
2021-09-22 20:16:57.058685,-116
2021-09-22 20:16:57.058691,-114
2021-09-22 20:16:57.058697,-109
2021-09-22 20:16:57.058702,-94
2021-09-22 20:16:57.058708,-72
2021-09-22 20:16:57.058714,-63
2021-09-22 20:16:57.058720,-70
2021-09-22 20:16:57.058725,-65
2021-09-22 20:16:57.058731,-58
2021-09-22 20:16:57.058737,-70
2021-09-22 20:16:57.058742,-90
2021-09-22 20:16:57.058748,-104
2021-09-22 20:16:57.058754,-102
2021-09-22 20:16:57.058770,-94
2021-09-22 20:16:57.283111,-90
2021-09-22 20:16:57.283131,-90
2021-09-22 20:16:57.283138,-90
2021-09-22 20:16:57.283144,-92
2021-09-22 20:16:57.283149,-85
2021-09-22 20:16:57.283155,-43
2021-09-22 20:16:57.283161,51
2021-09-22 20:16:57.283167,192
2021-09-22 20:16:57.283173,360
2021-09-22 20:16:57.283179,309
2021-09-22 20:16:57.283184,-99
2021-09-22 20:16:57.283190,-540
2021-09-22 20:16:57.283196,-722
2021-09-22 20:16:57.283202,-576
2021-09-22 20:16:57.283208,-253
2021-09-22 20:16:57.283213,-104
2021-09-22 20:16:57.283219,-77
2021-09-22 20:16:57.283225,24
2021-09-22 20:16:57.283231,80
2021-09-22 20:16:57.283237,60
2021-09-22 20:16:57.283242,77
2021-09-22 20:16:57.283248,102
2021-09-22 20:16:57.283254,94
2021-09-22 20:16:57.283260,99
2021-09-22 20:16:57.283265,116
2021-09-22 20:16:57.283271,119
2021-09-22 20:16:57.283277,114
2021-09-22 20:16:57.283283,121
2021-09-22 20:16:57.283288,131
2021-09-22 20:16:57.283294,143
2021-09-22 20:16:57.507278,160
2021-09-22 20:16:57.507294,182
2021-09-22 20:16:57.507301,201
2021-09-22 20:16:57.507307,221
2021-09-22 20:16:57.507313,236
2021-09-22 20:16:57.507319,250
2021-09-22 20:16:57.507325,274
2021-09-22 20:16:57.507331,299
2021-09-22 20:16:57.507337,309
2021-09-22 20:16:57.507342,299
2021-09-22 20:16:57.507348,284
2021-09-22 20:16:57.507354,265
2021-09-22 20:16:57.507360,228
2021-09-22 20:16:57.507366,170
2021-09-22 20:16:57.507372,85
2021-09-22 20:16:57.507377,-12
2021-09-22 20:16:57.507383,-102
2021-09-22 20:16:57.507389,-165
2021-09-22 20:16:57.507395,-214
2021-09-22 20:16:57.507400,-250
2021-09-22 20:16:57.507406,-274
2021-09-22 20:16:57.507412,-287
2021-09-22 20:16:57.507418,-289
2021-09-22 20:16:57.507423,-282
2021-09-22 20:16:57.507429,-270
2021-09-22 20:16:57.507435,-257
2021-09-22 20:16:57.507440,-245
2021-09-22 20:16:57.507446,-228
2021-09-22 20:16:57.507452,-209
2021-09-22 20:16:57.507458,-189
2021-09-22 20:16:57.778645,-175
2021-09-22 20:16:57.778663,-160
2021-09-22 20:16:57.778670,-150
2021-09-22 20:16:57.778676,-150
2021-09-22 20:16:57.778682,-145
2021-09-22 20:16:57.778687,-133
2021-09-22 20:16:57.778693,-126
2021-09-22 20:16:57.778699,-126
2021-09-22 20:16:57.778705,-128
2021-09-22 20:16:57.778711,-138
2021-09-22 20:16:57.778717,-138
2021-09-22 20:16:57.778722,-133
2021-09-22 20:16:57.778728,-133
2021-09-22 20:16:57.778734,-126
2021-09-22 20:16:57.778740,-126
2021-09-22 20:16:57.778745,-131
2021-09-22 20:16:57.778751,-136
2021-09-22 20:16:57.778757,-131
2021-09-22 20:16:57.778763,-128
2021-09-22 20:16:57.778768,-124
2021-09-22 20:16:57.778780,-124
2021-09-22 20:16:57.778786,-124
2021-09-22 20:16:57.778792,-121
2021-09-22 20:16:57.778798,-114
2021-09-22 20:16:57.778803,-109
2021-09-22 20:16:57.778809,-104
2021-09-22 20:16:57.778815,-102
2021-09-22 20:16:57.778821,-102
2021-09-22 20:16:57.778827,-99
2021-09-22 20:16:57.778833,-92
2021-09-22 20:16:57.958615,-90
2021-09-22 20:16:57.958631,-90
2021-09-22 20:16:57.958638,-87
2021-09-22 20:16:57.958644,-87
2021-09-22 20:16:57.958650,-82
2021-09-22 20:16:57.958656,-72
2021-09-22 20:16:57.958661,-70
2021-09-22 20:16:57.958667,-80
2021-09-22 20:16:57.958673,-87
2021-09-22 20:16:57.958679,-82
2021-09-22 20:16:57.958685,-70
2021-09-22 20:16:57.958691,-58
2021-09-22 20:16:57.958696,-51
2021-09-22 20:16:57.958702,-51
2021-09-22 20:16:57.958708,-48
2021-09-22 20:16:57.958714,-46
2021-09-22 20:16:57.958719,-58
2021-09-22 20:16:57.958725,-75
2021-09-22 20:16:57.958731,-85
2021-09-22 20:16:57.958736,-92
2021-09-22 20:16:57.958742,-92
2021-09-22 20:16:57.958748,-97
2021-09-22 20:16:57.958753,-94
2021-09-22 20:16:57.958759,-85
2021-09-22 20:16:57.958764,-80
2021-09-22 20:16:57.958770,-68
2021-09-22 20:16:57.958776,-26
2021-09-22 20:16:57.958782,68
2021-09-22 20:16:57.958787,231
2021-09-22 20:16:57.958793,401
2021-09-22 20:16:58.183754,301
2021-09-22 20:16:58.183772,-143
2021-09-22 20:16:58.183780,-571
2021-09-22 20:16:58.183786,-734
2021-09-22 20:16:58.183792,-559
2021-09-22 20:16:58.183798,-228
2021-09-22 20:16:58.183804,-92
2021-09-22 20:16:58.183810,-60
2021-09-22 20:16:58.183816,36
2021-09-22 20:16:58.183822,80
2021-09-22 20:16:58.183828,58
2021-09-22 20:16:58.183834,77
2021-09-22 20:16:58.183840,104
2021-09-22 20:16:58.183845,99
2021-09-22 20:16:58.183851,97
2021-09-22 20:16:58.183857,114
2021-09-22 20:16:58.183863,124
2021-09-22 20:16:58.183869,128
2021-09-22 20:16:58.183875,143
2021-09-22 20:16:58.183880,155
2021-09-22 20:16:58.183886,160
2021-09-22 20:16:58.183892,167
2021-09-22 20:16:58.183898,187
2021-09-22 20:16:58.183904,214
2021-09-22 20:16:58.183910,238
2021-09-22 20:16:58.183916,260
2021-09-22 20:16:58.183921,284
2021-09-22 20:16:58.183927,311
2021-09-22 20:16:58.183933,333
2021-09-22 20:16:58.183939,345
2021-09-22 20:16:58.453625,343
2021-09-22 20:16:58.453641,333
2021-09-22 20:16:58.453648,309
2021-09-22 20:16:58.453655,270
2021-09-22 20:16:58.453661,214
2021-09-22 20:16:58.453667,136
2021-09-22 20:16:58.453673,38
2021-09-22 20:16:58.453679,-53
2021-09-22 20:16:58.453684,-124
2021-09-22 20:16:58.453690,-177
2021-09-22 20:16:58.453696,-216
2021-09-22 20:16:58.453702,-240
2021-09-22 20:16:58.453708,-253
2021-09-22 20:16:58.453713,-265
2021-09-22 20:16:58.453719,-262
2021-09-22 20:16:58.453725,-257
2021-09-22 20:16:58.453731,-253
2021-09-22 20:16:58.453737,-236
2021-09-22 20:16:58.453742,-216
2021-09-22 20:16:58.453748,-201
2021-09-22 20:16:58.453754,-182
2021-09-22 20:16:58.453760,-163
2021-09-22 20:16:58.453769,-155
2021-09-22 20:16:58.453775,-150
2021-09-22 20:16:58.453780,-136
2021-09-22 20:16:58.453786,-126
2021-09-22 20:16:58.453792,-124
2021-09-22 20:16:58.453798,-121
2021-09-22 20:16:58.453803,-114
2021-09-22 20:16:58.453809,-109
2021-09-22 20:16:58.633755,-111
2021-09-22 20:16:58.633773,-114
2021-09-22 20:16:58.633780,-111
2021-09-22 20:16:58.633786,-114
2021-09-22 20:16:58.633791,-111
2021-09-22 20:16:58.633797,-107
2021-09-22 20:16:58.633803,-114
2021-09-22 20:16:58.633809,-116
2021-09-22 20:16:58.633815,-109
2021-09-22 20:16:58.633821,-107
2021-09-22 20:16:58.633826,-102
2021-09-22 20:16:58.633832,-102
2021-09-22 20:16:58.633838,-107
2021-09-22 20:16:58.633844,-107
2021-09-22 20:16:58.633849,-97
2021-09-22 20:16:58.633855,-94
2021-09-22 20:16:58.633861,-92
2021-09-22 20:16:58.633867,-90
2021-09-22 20:16:58.633873,-94
2021-09-22 20:16:58.633879,-90
2021-09-22 20:16:58.633884,-82
2021-09-22 20:16:58.633890,-80
2021-09-22 20:16:58.633896,-77
2021-09-22 20:16:58.633901,-70
2021-09-22 20:16:58.633907,-68
2021-09-22 20:16:58.633913,-70
2021-09-22 20:16:58.633918,-72
2021-09-22 20:16:58.633924,-70
2021-09-22 20:16:58.633930,-63
2021-09-22 20:16:58.633935,-51
2021-09-22 20:16:58.858638,-31
2021-09-22 20:16:58.858654,-24
2021-09-22 20:16:58.858661,-29
2021-09-22 20:16:58.858667,-24
2021-09-22 20:16:58.858673,-24
2021-09-22 20:16:58.858679,-51
2021-09-22 20:16:58.858685,-70
2021-09-22 20:16:58.858691,-72
2021-09-22 20:16:58.858697,-68
2021-09-22 20:16:58.858703,-68
2021-09-22 20:16:58.858708,-68
2021-09-22 20:16:58.858714,-70
2021-09-22 20:16:58.858720,-72
2021-09-22 20:16:58.858726,-63
2021-09-22 20:16:58.858731,-48
2021-09-22 20:16:58.858737,-4
2021-09-22 20:16:58.858743,90
2021-09-22 20:16:58.858749,243
2021-09-22 20:16:58.858755,403
2021-09-22 20:16:58.858761,304
2021-09-22 20:16:58.858766,-145
2021-09-22 20:16:58.858772,-581
2021-09-22 20:16:58.858778,-729
2021-09-22 20:16:58.858784,-523
2021-09-22 20:16:58.858789,-197
2021-09-22 20:16:58.858795,-68
2021-09-22 20:16:58.858801,-29
2021-09-22 20:16:58.858807,65
2021-09-22 20:16:58.858813,99
2021-09-22 20:16:58.858819,85
2021-09-22 20:16:59.128713,107
2021-09-22 20:16:59.128732,131
2021-09-22 20:16:59.128739,131
2021-09-22 20:16:59.128745,136
2021-09-22 20:16:59.128751,148
2021-09-22 20:16:59.128757,148
2021-09-22 20:16:59.128763,158
2021-09-22 20:16:59.128768,177
2021-09-22 20:16:59.128774,189
2021-09-22 20:16:59.128780,197
2021-09-22 20:16:59.128786,209
2021-09-22 20:16:59.128792,228
2021-09-22 20:16:59.128798,250
2021-09-22 20:16:59.128804,277
2021-09-22 20:16:59.128809,301
2021-09-22 20:16:59.128815,330
2021-09-22 20:16:59.128821,357
2021-09-22 20:16:59.128827,379
2021-09-22 20:16:59.128833,391
2021-09-22 20:16:59.128839,389
2021-09-22 20:16:59.128844,382
2021-09-22 20:16:59.128850,360
2021-09-22 20:16:59.128856,313
2021-09-22 20:16:59.128862,245
2021-09-22 20:16:59.128867,163
2021-09-22 20:16:59.128873,72
2021-09-22 20:16:59.128879,-14
2021-09-22 20:16:59.128885,-87
2021-09-22 20:16:59.128891,-145
2021-09-22 20:16:59.128897,-187
2021-09-22 20:16:59.308645,-206
2021-09-22 20:16:59.308661,-214
2021-09-22 20:16:59.308668,-216
2021-09-22 20:16:59.308674,-218
2021-09-22 20:16:59.308680,-216
2021-09-22 20:16:59.308689,-199
2021-09-22 20:16:59.308695,-180
2021-09-22 20:16:59.308701,-165
2021-09-22 20:16:59.308707,-153
2021-09-22 20:16:59.308713,-141
2021-09-22 20:16:59.308719,-131
2021-09-22 20:16:59.308725,-116
2021-09-22 20:16:59.308731,-102
2021-09-22 20:16:59.308737,-92
2021-09-22 20:16:59.308742,-87
2021-09-22 20:16:59.308748,-85
2021-09-22 20:16:59.308754,-85
2021-09-22 20:16:59.308760,-80
2021-09-22 20:16:59.308765,-77
2021-09-22 20:16:59.308771,-77
2021-09-22 20:16:59.308777,-80
2021-09-22 20:16:59.308782,-85
2021-09-22 20:16:59.308788,-85
2021-09-22 20:16:59.308793,-77
2021-09-22 20:16:59.308799,-72
2021-09-22 20:16:59.308805,-75
2021-09-22 20:16:59.308811,-80
2021-09-22 20:16:59.308816,-90
2021-09-22 20:16:59.308822,-87
2021-09-22 20:16:59.308828,-75
2021-09-22 20:16:59.622389,-75
2021-09-22 20:16:59.622407,-80
2021-09-22 20:16:59.622414,-80
2021-09-22 20:16:59.622420,-80
2021-09-22 20:16:59.622426,-77
2021-09-22 20:16:59.622432,-72
2021-09-22 20:16:59.622438,-68
2021-09-22 20:16:59.622444,-65
2021-09-22 20:16:59.622450,-60
2021-09-22 20:16:59.622456,-63
2021-09-22 20:16:59.622461,-63
2021-09-22 20:16:59.622467,-55
2021-09-22 20:16:59.622473,-51
2021-09-22 20:16:59.622479,-46
2021-09-22 20:16:59.622485,-36
2021-09-22 20:16:59.622490,-19
2021-09-22 20:16:59.622496,-9
2021-09-22 20:16:59.622502,-12
2021-09-22 20:16:59.622507,-2
2021-09-22 20:16:59.622513,2
2021-09-22 20:16:59.622519,-14
2021-09-22 20:16:59.622525,-36
2021-09-22 20:16:59.622531,-46
2021-09-22 20:16:59.622536,-43
2021-09-22 20:16:59.622542,-38
2021-09-22 20:16:59.622547,-34
2021-09-22 20:16:59.622553,-34
2021-09-22 20:16:59.622559,-36
2021-09-22 20:16:59.622565,-36
2021-09-22 20:16:59.622570,-31
2021-09-22 20:16:59.803596,2
2021-09-22 20:16:59.803612,77
2021-09-22 20:16:59.803619,192
2021-09-22 20:16:59.803625,357
2021-09-22 20:16:59.803631,391
2021-09-22 20:16:59.803637,68
2021-09-22 20:16:59.803643,-389
2021-09-22 20:16:59.803649,-659
2021-09-22 20:16:59.803655,-598
2021-09-22 20:16:59.803660,-277
2021-09-22 20:16:59.803666,-68
2021-09-22 20:16:59.803672,-36
2021-09-22 20:16:59.803678,51
2021-09-22 20:16:59.803684,131
2021-09-22 20:16:59.803689,111
2021-09-22 20:16:59.803695,104
2021-09-22 20:16:59.803701,138
2021-09-22 20:16:59.803707,150
2021-09-22 20:16:59.803712,150
2021-09-22 20:16:59.803718,160
2021-09-22 20:16:59.803724,167
2021-09-22 20:16:59.803730,175
2021-09-22 20:16:59.803735,189
2021-09-22 20:16:59.803741,206
2021-09-22 20:16:59.803747,221
2021-09-22 20:16:59.803753,233
2021-09-22 20:16:59.803758,248
2021-09-22 20:16:59.803764,267
2021-09-22 20:16:59.803770,294
2021-09-22 20:16:59.803776,326
2021-09-22 20:17:00.118781,355
2021-09-22 20:17:00.118800,384
2021-09-22 20:17:00.118807,399
2021-09-22 20:17:00.118813,396
2021-09-22 20:17:00.118819,394
2021-09-22 20:17:00.118825,389
2021-09-22 20:17:00.118831,364
2021-09-22 20:17:00.118837,326
2021-09-22 20:17:00.118843,262
2021-09-22 20:17:00.118849,182
2021-09-22 20:17:00.118855,94
2021-09-22 20:17:00.118861,9
2021-09-22 20:17:00.118867,-60
2021-09-22 20:17:00.118872,-126
2021-09-22 20:17:00.118878,-177
2021-09-22 20:17:00.118884,-201
2021-09-22 20:17:00.118890,-206
2021-09-22 20:17:00.118895,-209
2021-09-22 20:17:00.118901,-206
2021-09-22 20:17:00.118907,-201
2021-09-22 20:17:00.118913,-187
2021-09-22 20:17:00.118919,-167
2021-09-22 20:17:00.118924,-153
2021-09-22 20:17:00.118930,-138
2021-09-22 20:17:00.118936,-119
2021-09-22 20:17:00.118942,-107
2021-09-22 20:17:00.118947,-99
2021-09-22 20:17:00.118953,-87
2021-09-22 20:17:00.118959,-75
2021-09-22 20:17:00.118965,-68
2021-09-22 20:17:00.253580,-63
2021-09-22 20:17:00.253600,-60
2021-09-22 20:17:00.253608,-63
2021-09-22 20:17:00.253614,-63
2021-09-22 20:17:00.253620,-55
2021-09-22 20:17:00.253626,-55
2021-09-22 20:17:00.253631,-60
2021-09-22 20:17:00.253637,-65
2021-09-22 20:17:00.253642,-63
2021-09-22 20:17:00.253648,-60
2021-09-22 20:17:00.253654,-63
2021-09-22 20:17:00.253660,-58
2021-09-22 20:17:00.253665,-53
2021-09-22 20:17:00.253671,-53
2021-09-22 20:17:00.253677,-53
2021-09-22 20:17:00.253683,-53
2021-09-22 20:17:00.253689,-48
2021-09-22 20:17:00.253695,-38
2021-09-22 20:17:00.253701,-43
2021-09-22 20:17:00.253707,-53
2021-09-22 20:17:00.253712,-46
2021-09-22 20:17:00.253718,-36
2021-09-22 20:17:00.253724,-36
2021-09-22 20:17:00.253730,-34
2021-09-22 20:17:00.253735,-31
2021-09-22 20:17:00.253741,-36
2021-09-22 20:17:00.253747,-34
2021-09-22 20:17:00.253753,-29
2021-09-22 20:17:00.253759,-24
2021-09-22 20:17:00.253765,-14
2021-09-22 20:17:00.523605,0
2021-09-22 20:17:00.523622,2
2021-09-22 20:17:00.523629,-2
2021-09-22 20:17:00.523635,4
2021-09-22 20:17:00.523641,12
2021-09-22 20:17:00.523647,-4
2021-09-22 20:17:00.523653,-29
2021-09-22 20:17:00.523659,-46
2021-09-22 20:17:00.523665,-53
2021-09-22 20:17:00.523671,-63
2021-09-22 20:17:00.523676,-60
2021-09-22 20:17:00.523682,-60
2021-09-22 20:17:00.523688,-72
2021-09-22 20:17:00.523694,-80
2021-09-22 20:17:00.523700,-68
2021-09-22 20:17:00.523706,-21
2021-09-22 20:17:00.523712,63
2021-09-22 20:17:00.523718,194
2021-09-22 20:17:00.523723,355
2021-09-22 20:17:00.523729,326
2021-09-22 20:17:00.523735,-51
2021-09-22 20:17:00.523740,-496
2021-09-22 20:17:00.523746,-700
2021-09-22 20:17:00.523752,-557
2021-09-22 20:17:00.523758,-226
2021-09-22 20:17:00.523763,-65
2021-09-22 20:17:00.523769,-36
2021-09-22 20:17:00.523775,68
2021-09-22 20:17:00.523781,131
2021-09-22 20:17:00.523786,107
2021-09-22 20:17:00.703781,114
2021-09-22 20:17:00.703799,145
2021-09-22 20:17:00.703807,148
2021-09-22 20:17:00.703813,148
2021-09-22 20:17:00.703819,165
2021-09-22 20:17:00.703825,170
2021-09-22 20:17:00.703831,167
2021-09-22 20:17:00.703837,180
2021-09-22 20:17:00.703843,194
2021-09-22 20:17:00.703848,206
2021-09-22 20:17:00.703854,223
2021-09-22 20:17:00.703860,240
2021-09-22 20:17:00.703866,257
2021-09-22 20:17:00.703872,282
2021-09-22 20:17:00.703878,311
2021-09-22 20:17:00.703884,340
2021-09-22 20:17:00.703890,364
2021-09-22 20:17:00.703896,382
2021-09-22 20:17:00.703902,389
2021-09-22 20:17:00.703908,394
2021-09-22 20:17:00.703913,386
2021-09-22 20:17:00.703919,357
2021-09-22 20:17:00.703925,311
2021-09-22 20:17:00.703931,250
2021-09-22 20:17:00.703937,165
2021-09-22 20:17:00.703942,75
2021-09-22 20:17:00.703948,-9
2021-09-22 20:17:00.703954,-77
2021-09-22 20:17:00.703960,-131
2021-09-22 20:17:00.703966,-170
2021-09-22 20:17:00.972980,-194
2021-09-22 20:17:00.972996,-204
2021-09-22 20:17:00.973003,-206
2021-09-22 20:17:00.973009,-204
2021-09-22 20:17:00.973015,-201
2021-09-22 20:17:00.973021,-197
2021-09-22 20:17:00.973027,-182
2021-09-22 20:17:00.973033,-160
2021-09-22 20:17:00.973038,-145
2021-09-22 20:17:00.973044,-136
2021-09-22 20:17:00.973050,-124
2021-09-22 20:17:00.973056,-116
2021-09-22 20:17:00.973062,-107
2021-09-22 20:17:00.973067,-104
2021-09-22 20:17:00.973073,-114
2021-09-22 20:17:00.973079,-116
2021-09-22 20:17:00.973085,-109
2021-09-22 20:17:00.973091,-104
2021-09-22 20:17:00.973097,-99
2021-09-22 20:17:00.973103,-97
2021-09-22 20:17:00.973108,-97
2021-09-22 20:17:00.973114,-97
2021-09-22 20:17:00.973120,-99
2021-09-22 20:17:00.973126,-97
2021-09-22 20:17:00.973131,-92
2021-09-22 20:17:00.973137,-87
2021-09-22 20:17:00.973143,-90
2021-09-22 20:17:00.973149,-87
2021-09-22 20:17:00.973154,-85
2021-09-22 20:17:00.973160,-80
2021-09-22 20:17:01.198800,-72
2021-09-22 20:17:01.198818,-68
2021-09-22 20:17:01.198826,-68
2021-09-22 20:17:01.198832,-68
2021-09-22 20:17:01.198838,-72
2021-09-22 20:17:01.198844,-72
2021-09-22 20:17:01.198849,-65
2021-09-22 20:17:01.198855,-58
2021-09-22 20:17:01.198861,-55
2021-09-22 20:17:01.198867,-55
2021-09-22 20:17:01.198873,-55
2021-09-22 20:17:01.198884,-53
2021-09-22 20:17:01.198890,-46
2021-09-22 20:17:01.198896,-41
2021-09-22 20:17:01.198902,-46
2021-09-22 20:17:01.198908,-55
2021-09-22 20:17:01.198914,-46
2021-09-22 20:17:01.198920,-24
2021-09-22 20:17:01.198926,-17
2021-09-22 20:17:01.198932,-21
2021-09-22 20:17:01.198937,-12
2021-09-22 20:17:01.198943,-9
2021-09-22 20:17:01.198949,-29
2021-09-22 20:17:01.198955,-43
2021-09-22 20:17:01.198961,-51
2021-09-22 20:17:01.198967,-53
2021-09-22 20:17:01.198972,-51
2021-09-22 20:17:01.198978,-53
2021-09-22 20:17:01.198984,-60
2021-09-22 20:17:01.198990,-65
2021-09-22 20:17:01.423629,-55
2021-09-22 20:17:01.423645,-41
2021-09-22 20:17:01.423652,0
2021-09-22 20:17:01.423659,87
2021-09-22 20:17:01.423665,236
2021-09-22 20:17:01.423671,406
2021-09-22 20:17:01.423677,338
2021-09-22 20:17:01.423683,-80
2021-09-22 20:17:01.423689,-508
2021-09-22 20:17:01.423695,-688
2021-09-22 20:17:01.423701,-540
2021-09-22 20:17:01.423707,-206
2021-09-22 20:17:01.423713,-51
2021-09-22 20:17:01.423719,-21
2021-09-22 20:17:01.423725,72
2021-09-22 20:17:01.423731,116
2021-09-22 20:17:01.423736,92
2021-09-22 20:17:01.423742,107
2021-09-22 20:17:01.423748,133
2021-09-22 20:17:01.423754,128
2021-09-22 20:17:01.423760,121
2021-09-22 20:17:01.423765,126
2021-09-22 20:17:01.423771,141
2021-09-22 20:17:01.423777,155
2021-09-22 20:17:01.423783,163
2021-09-22 20:17:01.423789,172
2021-09-22 20:17:01.423794,189
2021-09-22 20:17:01.423800,204
2021-09-22 20:17:01.423806,223
2021-09-22 20:17:01.423812,250
2021-09-22 20:17:01.692447,279
2021-09-22 20:17:01.692465,304
2021-09-22 20:17:01.692473,330
2021-09-22 20:17:01.692479,357
2021-09-22 20:17:01.692485,379
2021-09-22 20:17:01.692491,396
2021-09-22 20:17:01.692497,403
2021-09-22 20:17:01.692503,394
2021-09-22 20:17:01.692509,360
2021-09-22 20:17:01.692515,309
2021-09-22 20:17:01.692521,248
2021-09-22 20:17:01.692527,165
2021-09-22 20:17:01.692533,65
2021-09-22 20:17:01.692538,-26
2021-09-22 20:17:01.692544,-104
2021-09-22 20:17:01.692550,-165
2021-09-22 20:17:01.692555,-199
2021-09-22 20:17:01.692561,-216
2021-09-22 20:17:01.692567,-226
2021-09-22 20:17:01.692573,-236
2021-09-22 20:17:01.692579,-240
2021-09-22 20:17:01.692584,-236
2021-09-22 20:17:01.692590,-218
2021-09-22 20:17:01.692596,-204
2021-09-22 20:17:01.692602,-189
2021-09-22 20:17:01.692607,-175
2021-09-22 20:17:01.692613,-158
2021-09-22 20:17:01.692619,-145
2021-09-22 20:17:01.692625,-133
2021-09-22 20:17:01.692630,-116
2021-09-22 20:17:01.873713,-104
2021-09-22 20:17:01.873728,-99
2021-09-22 20:17:01.873735,-92
2021-09-22 20:17:01.873741,-85
2021-09-22 20:17:01.873747,-80
2021-09-22 20:17:01.873753,-80
2021-09-22 20:17:01.873759,-77
2021-09-22 20:17:01.873765,-82
2021-09-22 20:17:01.873771,-87
2021-09-22 20:17:01.873777,-90
2021-09-22 20:17:01.873782,-82
2021-09-22 20:17:01.873788,-82
2021-09-22 20:17:01.873794,-85
2021-09-22 20:17:01.873800,-87
2021-09-22 20:17:01.873805,-92
2021-09-22 20:17:01.873811,-90
2021-09-22 20:17:01.873817,-82
2021-09-22 20:17:01.873823,-75
2021-09-22 20:17:01.873829,-72
2021-09-22 20:17:01.873834,-70
2021-09-22 20:17:01.873840,-72
2021-09-22 20:17:01.873846,-77
2021-09-22 20:17:01.873852,-75
2021-09-22 20:17:01.873857,-63
2021-09-22 20:17:01.873863,-58
2021-09-22 20:17:01.873869,-63
2021-09-22 20:17:01.873874,-70
2021-09-22 20:17:01.873880,-72
2021-09-22 20:17:01.873886,-65
2021-09-22 20:17:01.873891,-58
2021-09-22 20:17:02.099017,-55
2021-09-22 20:17:02.099037,-53
2021-09-22 20:17:02.099045,-53
2021-09-22 20:17:02.099051,-55
2021-09-22 20:17:02.099057,-48
2021-09-22 20:17:02.099063,-31
2021-09-22 20:17:02.099068,-19
2021-09-22 20:17:02.099074,-26
2021-09-22 20:17:02.099080,-36
2021-09-22 20:17:02.099086,-24
2021-09-22 20:17:02.099092,-14
2021-09-22 20:17:02.099098,-29
2021-09-22 20:17:02.099104,-48
2021-09-22 20:17:02.099109,-63
2021-09-22 20:17:02.099115,-68
2021-09-22 20:17:02.099121,-55
2021-09-22 20:17:02.099127,-58
2021-09-22 20:17:02.099133,-65
2021-09-22 20:17:02.099139,-63
2021-09-22 20:17:02.099144,-63
2021-09-22 20:17:02.099150,-60
2021-09-22 20:17:02.099156,-17
2021-09-22 20:17:02.099162,70
2021-09-22 20:17:02.099168,209
2021-09-22 20:17:02.099174,384
2021-09-22 20:17:02.099180,357
2021-09-22 20:17:02.099185,-38
2021-09-22 20:17:02.099191,-489
2021-09-22 20:17:02.099197,-691
2021-09-22 20:17:02.099203,-564
2021-09-22 20:17:02.323648,-236
2021-09-22 20:17:02.323665,-63
2021-09-22 20:17:02.323672,-31
2021-09-22 20:17:02.323678,63
2021-09-22 20:17:02.323684,121
2021-09-22 20:17:02.323690,97
2021-09-22 20:17:02.323696,102
2021-09-22 20:17:02.323702,128
2021-09-22 20:17:02.323710,133
2021-09-22 20:17:02.323716,133
2021-09-22 20:17:02.323722,145
2021-09-22 20:17:02.323728,155
2021-09-22 20:17:02.323734,155
2021-09-22 20:17:02.323740,160
2021-09-22 20:17:02.323746,175
2021-09-22 20:17:02.323752,189
2021-09-22 20:17:02.323758,206
2021-09-22 20:17:02.323763,231
2021-09-22 20:17:02.323769,253
2021-09-22 20:17:02.323775,277
2021-09-22 20:17:02.323781,306
2021-09-22 20:17:02.323786,338
2021-09-22 20:17:02.323792,364
2021-09-22 20:17:02.323798,389
2021-09-22 20:17:02.323803,403
2021-09-22 20:17:02.323809,406
2021-09-22 20:17:02.323814,394
2021-09-22 20:17:02.323820,367
2021-09-22 20:17:02.323826,326
2021-09-22 20:17:02.323832,262
2021-09-22 20:17:02.548704,172
2021-09-22 20:17:02.548721,72
2021-09-22 20:17:02.548728,-29
2021-09-22 20:17:02.548734,-114
2021-09-22 20:17:02.548740,-167
2021-09-22 20:17:02.548746,-204
2021-09-22 20:17:02.548752,-236
2021-09-22 20:17:02.548758,-245
2021-09-22 20:17:02.548764,-245
2021-09-22 20:17:02.548770,-245
2021-09-22 20:17:02.548776,-238
2021-09-22 20:17:02.548783,-228
2021-09-22 20:17:02.548788,-221
2021-09-22 20:17:02.548794,-204
2021-09-22 20:17:02.548800,-184
2021-09-22 20:17:02.548806,-170
2021-09-22 20:17:02.548812,-158
2021-09-22 20:17:02.548818,-143
2021-09-22 20:17:02.548824,-128
2021-09-22 20:17:02.548830,-114
2021-09-22 20:17:02.548836,-104
2021-09-22 20:17:02.548841,-99
2021-09-22 20:17:02.548847,-90
2021-09-22 20:17:02.548853,-87
2021-09-22 20:17:02.548859,-85
2021-09-22 20:17:02.548864,-80
2021-09-22 20:17:02.548870,-85
2021-09-22 20:17:02.548876,-90
2021-09-22 20:17:02.548881,-94
2021-09-22 20:17:02.548887,-94
2021-09-22 20:17:02.818035,-92
2021-09-22 20:17:02.818053,-85
2021-09-22 20:17:02.818060,-85
2021-09-22 20:17:02.818066,-85
2021-09-22 20:17:02.818072,-85
2021-09-22 20:17:02.818078,-87
2021-09-22 20:17:02.818084,-87
2021-09-22 20:17:02.818090,-80
2021-09-22 20:17:02.818095,-75
2021-09-22 20:17:02.818101,-72
2021-09-22 20:17:02.818107,-68
2021-09-22 20:17:02.818113,-70
2021-09-22 20:17:02.818119,-70
2021-09-22 20:17:02.818125,-65
2021-09-22 20:17:02.818130,-58
2021-09-22 20:17:02.818136,-55
2021-09-22 20:17:02.818142,-55
2021-09-22 20:17:02.818148,-53
2021-09-22 20:17:02.818154,-48
2021-09-22 20:17:02.818159,-41
2021-09-22 20:17:02.818165,-36
2021-09-22 20:17:02.818171,-34
2021-09-22 20:17:02.818176,-36
2021-09-22 20:17:02.818182,-38
2021-09-22 20:17:02.818188,-31
2021-09-22 20:17:02.818194,-19
2021-09-22 20:17:02.818200,-7
2021-09-22 20:17:02.818205,-4
2021-09-22 20:17:02.818211,-9
2021-09-22 20:17:02.818217,-7
2021-09-22 20:17:02.998731,-4
2021-09-22 20:17:02.998747,-21
2021-09-22 20:17:02.998754,-36
2021-09-22 20:17:02.998761,-48
2021-09-22 20:17:02.998767,-60
2021-09-22 20:17:02.998773,-63
2021-09-22 20:17:02.998779,-60
2021-09-22 20:17:02.998785,-63
2021-09-22 20:17:02.998790,-75
2021-09-22 20:17:02.998796,-85
2021-09-22 20:17:02.998802,-75
2021-09-22 20:17:02.998808,-34
2021-09-22 20:17:02.998814,53
2021-09-22 20:17:02.998819,194
2021-09-22 20:17:02.998825,382
2021-09-22 20:17:02.998831,369
2021-09-22 20:17:02.998837,-21
2021-09-22 20:17:02.998842,-484
2021-09-22 20:17:02.998848,-705
2021-09-22 20:17:02.998854,-591
2021-09-22 20:17:02.998860,-257
2021-09-22 20:17:02.998865,-77
2021-09-22 20:17:02.998871,-43
2021-09-22 20:17:02.998877,55
2021-09-22 20:17:02.998882,121
2021-09-22 20:17:02.998888,99
2021-09-22 20:17:02.998894,111
2021-09-22 20:17:02.998899,138
2021-09-22 20:17:02.998905,136
2021-09-22 20:17:02.998911,143
2021-09-22 20:17:03.313233,160
2021-09-22 20:17:03.313252,165
2021-09-22 20:17:03.313259,163
2021-09-22 20:17:03.313265,167
2021-09-22 20:17:03.313270,172
2021-09-22 20:17:03.313276,187
2021-09-22 20:17:03.313282,206
2021-09-22 20:17:03.313288,223
2021-09-22 20:17:03.313294,243
2021-09-22 20:17:03.313300,262
2021-09-22 20:17:03.313306,284
2021-09-22 20:17:03.313312,318
2021-09-22 20:17:03.313317,350
2021-09-22 20:17:03.313323,374
2021-09-22 20:17:03.313329,389
2021-09-22 20:17:03.313335,389
2021-09-22 20:17:03.313340,382
2021-09-22 20:17:03.313346,362
2021-09-22 20:17:03.313352,328
2021-09-22 20:17:03.313358,265
2021-09-22 20:17:03.313364,175
2021-09-22 20:17:03.313369,70
2021-09-22 20:17:03.313376,-21
2021-09-22 20:17:03.313381,-92
2021-09-22 20:17:03.313387,-145
2021-09-22 20:17:03.313393,-184
2021-09-22 20:17:03.313398,-209
2021-09-22 20:17:03.313404,-226
2021-09-22 20:17:03.313410,-228
2021-09-22 20:17:03.313416,-223
2021-09-22 20:17:03.493767,-216
2021-09-22 20:17:03.493785,-204
2021-09-22 20:17:03.493791,-192
2021-09-22 20:17:03.493796,-184
2021-09-22 20:17:03.493801,-175
2021-09-22 20:17:03.493805,-158
2021-09-22 20:17:03.493810,-138
2021-09-22 20:17:03.493815,-126
2021-09-22 20:17:03.493820,-121
2021-09-22 20:17:03.493825,-124
2021-09-22 20:17:03.493830,-111
2021-09-22 20:17:03.493834,-99
2021-09-22 20:17:03.493840,-94
2021-09-22 20:17:03.493845,-94
2021-09-22 20:17:03.493850,-109
2021-09-22 20:17:03.493855,-124
2021-09-22 20:17:03.493860,-121
2021-09-22 20:17:03.493865,-114
2021-09-22 20:17:03.493870,-114
2021-09-22 20:17:03.493875,-114
2021-09-22 20:17:03.493880,-116
2021-09-22 20:17:03.493885,-121
2021-09-22 20:17:03.493889,-119
2021-09-22 20:17:03.493897,-109
2021-09-22 20:17:03.493902,-107
2021-09-22 20:17:03.493907,-107
2021-09-22 20:17:03.493912,-107
2021-09-22 20:17:03.493917,-107
2021-09-22 20:17:03.493922,-104
2021-09-22 20:17:03.493927,-97
2021-09-22 20:17:03.852313,-92
2021-09-22 20:17:03.852330,-92
2021-09-22 20:17:03.852337,-92
2021-09-22 20:17:03.852343,-92
2021-09-22 20:17:03.852349,-87
2021-09-22 20:17:03.852355,-85
2021-09-22 20:17:03.852361,-90
2021-09-22 20:17:03.852367,-92
2021-09-22 20:17:03.852372,-94
2021-09-22 20:17:03.852378,-97
2021-09-22 20:17:03.852384,-94
2021-09-22 20:17:03.852390,-90
2021-09-22 20:17:03.852396,-90
2021-09-22 20:17:03.852402,-92
2021-09-22 20:17:03.852407,-90
2021-09-22 20:17:03.852413,-72
2021-09-22 20:17:03.852419,-48
2021-09-22 20:17:03.852425,-46
2021-09-22 20:17:03.852431,-48
2021-09-22 20:17:03.852437,-38
2021-09-22 20:17:03.852442,-41
2021-09-22 20:17:03.852448,-63
2021-09-22 20:17:03.852454,-77
2021-09-22 20:17:03.852460,-82
2021-09-22 20:17:03.852466,-85
2021-09-22 20:17:03.852472,-80
2021-09-22 20:17:03.852478,-75
2021-09-22 20:17:03.852483,-77
2021-09-22 20:17:03.852489,-70
2021-09-22 20:17:03.852495,-63
2021-09-22 20:17:03.943705,-53
2021-09-22 20:17:03.943721,-19
2021-09-22 20:17:03.943728,63
2021-09-22 20:17:03.943734,211
2021-09-22 20:17:03.943740,425
2021-09-22 20:17:03.943746,464
2021-09-22 20:17:03.943752,109
2021-09-22 20:17:03.943758,-369
2021-09-22 20:17:03.943764,-666
2021-09-22 20:17:03.943770,-601
2021-09-22 20:17:03.943775,-221
2021-09-22 20:17:03.943781,9
2021-09-22 20:17:03.943787,34
2021-09-22 20:17:03.943793,124
2021-09-22 20:17:03.943798,189
2021-09-22 20:17:03.943804,175
2021-09-22 20:17:03.943810,194
2021-09-22 20:17:03.943816,233
2021-09-22 20:17:03.943821,240
2021-09-22 20:17:03.943827,243
2021-09-22 20:17:03.943833,253
2021-09-22 20:17:03.943839,262
2021-09-22 20:17:03.943845,277
2021-09-22 20:17:03.943850,294
2021-09-22 20:17:03.943856,304
2021-09-22 20:17:03.943862,313
2021-09-22 20:17:03.943867,328
2021-09-22 20:17:03.943873,350
2021-09-22 20:17:03.943879,377
2021-09-22 20:17:03.943884,406
2021-09-22 20:17:04.213767,437
2021-09-22 20:17:04.213786,469
2021-09-22 20:17:04.213793,498
2021-09-22 20:17:04.213799,525
2021-09-22 20:17:04.213805,545
2021-09-22 20:17:04.213811,552
2021-09-22 20:17:04.213816,542
2021-09-22 20:17:04.213822,510
2021-09-22 20:17:04.213828,467
2021-09-22 20:17:04.213833,399
2021-09-22 20:17:04.213839,294
2021-09-22 20:17:04.213845,182
2021-09-22 20:17:04.213851,77
2021-09-22 20:17:04.213856,-9
2021-09-22 20:17:04.213862,-75
2021-09-22 20:17:04.213868,-121
2021-09-22 20:17:04.213874,-148
2021-09-22 20:17:04.213880,-160
2021-09-22 20:17:04.213885,-165
2021-09-22 20:17:04.213891,-165
2021-09-22 20:17:04.213897,-160
2021-09-22 20:17:04.213903,-155
2021-09-22 20:17:04.213909,-141
2021-09-22 20:17:04.213914,-126
2021-09-22 20:17:04.213920,-116
2021-09-22 20:17:04.213926,-104
2021-09-22 20:17:04.213932,-90
2021-09-22 20:17:04.213937,-80
2021-09-22 20:17:04.213943,-68
2021-09-22 20:17:04.213949,-60
2021-09-22 20:17:04.393722,-55
2021-09-22 20:17:04.393739,-51
2021-09-22 20:17:04.393746,-43
2021-09-22 20:17:04.393752,-41
2021-09-22 20:17:04.393758,-41
2021-09-22 20:17:04.393763,-43
2021-09-22 20:17:04.393770,-51
2021-09-22 20:17:04.393775,-53
2021-09-22 20:17:04.393781,-53
2021-09-22 20:17:04.393787,-53
2021-09-22 20:17:04.393793,-53
2021-09-22 20:17:04.393799,-58
2021-09-22 20:17:04.393805,-63
2021-09-22 20:17:04.393811,-63
2021-09-22 20:17:04.393816,-58
2021-09-22 20:17:04.393822,-55
2021-09-22 20:17:04.393828,-55
2021-09-22 20:17:04.393834,-60
2021-09-22 20:17:04.393839,-63
2021-09-22 20:17:04.393845,-53
2021-09-22 20:17:04.393851,-51
2021-09-22 20:17:04.393857,-55
2021-09-22 20:17:04.393863,-55
2021-09-22 20:17:04.393868,-53
2021-09-22 20:17:04.393874,-55
2021-09-22 20:17:04.393880,-63
2021-09-22 20:17:04.393886,-72
2021-09-22 20:17:04.393892,-70
2021-09-22 20:17:04.393897,-63
2021-09-22 20:17:04.393903,-65
2021-09-22 20:17:04.618856,-68
2021-09-22 20:17:04.618874,-65
2021-09-22 20:17:04.618881,-60
2021-09-22 20:17:04.618887,-60
2021-09-22 20:17:04.618893,-63
2021-09-22 20:17:04.618899,-72
2021-09-22 20:17:04.618905,-80
2021-09-22 20:17:04.618910,-68
2021-09-22 20:17:04.618916,-48
2021-09-22 20:17:04.618923,-48
2021-09-22 20:17:04.618928,-55
2021-09-22 20:17:04.618934,-58
2021-09-22 20:17:04.618940,-51
2021-09-22 20:17:04.618946,-58
2021-09-22 20:17:04.618952,-87
2021-09-22 20:17:04.618958,-107
2021-09-22 20:17:04.618964,-102
2021-09-22 20:17:04.618969,-94
2021-09-22 20:17:04.618975,-102
2021-09-22 20:17:04.618981,-99
2021-09-22 20:17:04.618987,-97
2021-09-22 20:17:04.618993,-99
2021-09-22 20:17:04.618998,-97
2021-09-22 20:17:04.619004,-75
2021-09-22 20:17:04.619010,-17
2021-09-22 20:17:04.619016,90
2021-09-22 20:17:04.619021,272
2021-09-22 20:17:04.619027,430
2021-09-22 20:17:04.619033,265
2021-09-22 20:17:04.619039,-201
2021-09-22 20:17:04.843621,-620
2021-09-22 20:17:04.843636,-722
2021-09-22 20:17:04.843643,-442
2021-09-22 20:17:04.843650,-145
2021-09-22 20:17:04.843655,-97
2021-09-22 20:17:04.843661,-46
2021-09-22 20:17:04.843667,68
2021-09-22 20:17:04.843673,80
2021-09-22 20:17:04.843679,60
2021-09-22 20:17:04.843685,82
2021-09-22 20:17:04.843690,92
2021-09-22 20:17:04.843696,87
2021-09-22 20:17:04.843702,102
2021-09-22 20:17:04.843707,121
2021-09-22 20:17:04.843713,126
2021-09-22 20:17:04.843719,133
2021-09-22 20:17:04.843724,143
2021-09-22 20:17:04.843730,148
2021-09-22 20:17:04.843736,170
2021-09-22 20:17:04.843742,201
2021-09-22 20:17:04.843747,221
2021-09-22 20:17:04.843753,238
2021-09-22 20:17:04.843759,265
2021-09-22 20:17:04.843764,299
2021-09-22 20:17:04.843770,326
2021-09-22 20:17:04.843776,355
2021-09-22 20:17:04.843781,377
2021-09-22 20:17:04.843787,379
2021-09-22 20:17:04.843793,372
2021-09-22 20:17:04.843802,367
2021-09-22 20:17:05.068685,333
2021-09-22 20:17:05.068701,267
2021-09-22 20:17:05.068708,192
2021-09-22 20:17:05.068714,102
2021-09-22 20:17:05.068720,-2
2021-09-22 20:17:05.068726,-80
2021-09-22 20:17:05.068732,-133
2021-09-22 20:17:05.068738,-180
2021-09-22 20:17:05.068744,-226
2021-09-22 20:17:05.068750,-253
2021-09-22 20:17:05.068756,-253
2021-09-22 20:17:05.068761,-248
2021-09-22 20:17:05.068767,-248
2021-09-22 20:17:05.068773,-233
2021-09-22 20:17:05.068779,-214
2021-09-22 20:17:05.068785,-199
2021-09-22 20:17:05.068791,-184
2021-09-22 20:17:05.068797,-163
2021-09-22 20:17:05.068803,-150
2021-09-22 20:17:05.068809,-143
2021-09-22 20:17:05.068815,-128
2021-09-22 20:17:05.068821,-114
2021-09-22 20:17:05.068827,-107
2021-09-22 20:17:05.068833,-99
2021-09-22 20:17:05.068839,-92
2021-09-22 20:17:05.068845,-82
2021-09-22 20:17:05.068851,-75
2021-09-22 20:17:05.068857,-80
2021-09-22 20:17:05.068862,-82
2021-09-22 20:17:05.068868,-75
2021-09-22 20:17:05.338791,-68
2021-09-22 20:17:05.338810,-70
2021-09-22 20:17:05.338817,-72
2021-09-22 20:17:05.338823,-77
2021-09-22 20:17:05.338829,-80
2021-09-22 20:17:05.338835,-65
2021-09-22 20:17:05.338841,-58
2021-09-22 20:17:05.338847,-58
2021-09-22 20:17:05.338853,-58
2021-09-22 20:17:05.338858,-63
2021-09-22 20:17:05.338864,-63
2021-09-22 20:17:05.338870,-53
2021-09-22 20:17:05.338876,-48
2021-09-22 20:17:05.338881,-46
2021-09-22 20:17:05.338887,-41
2021-09-22 20:17:05.338893,-43
2021-09-22 20:17:05.338899,-41
2021-09-22 20:17:05.338905,-34
2021-09-22 20:17:05.338911,-31
2021-09-22 20:17:05.338916,-31
2021-09-22 20:17:05.338922,-26
2021-09-22 20:17:05.338928,-14
2021-09-22 20:17:05.338933,-2
2021-09-22 20:17:05.338939,-2
2021-09-22 20:17:05.338945,0
2021-09-22 20:17:05.338951,4
2021-09-22 20:17:05.338956,-12
2021-09-22 20:17:05.338962,-34
2021-09-22 20:17:05.338968,-38
2021-09-22 20:17:05.338973,-34
2021-09-22 20:17:05.563737,-29
2021-09-22 20:17:05.563754,-26
2021-09-22 20:17:05.563761,-29
2021-09-22 20:17:05.563767,-34
2021-09-22 20:17:05.563773,-29
2021-09-22 20:17:05.563779,-14
2021-09-22 20:17:05.563785,4
2021-09-22 20:17:05.563791,58
2021-09-22 20:17:05.563797,148
2021-09-22 20:17:05.563803,267
2021-09-22 20:17:05.563809,328
2021-09-22 20:17:05.563814,97
2021-09-22 20:17:05.563820,-360
2021-09-22 20:17:05.563826,-681
2021-09-22 20:17:05.563832,-647
2021-09-22 20:17:05.563838,-338
2021-09-22 20:17:05.563844,-94
2021-09-22 20:17:05.563850,-43
2021-09-22 20:17:05.563856,29
2021-09-22 20:17:05.563861,131
2021-09-22 20:17:05.563867,138
2021-09-22 20:17:05.563873,121
2021-09-22 20:17:05.563879,141
2021-09-22 20:17:05.563885,150
2021-09-22 20:17:05.563891,153
2021-09-22 20:17:05.563896,165
2021-09-22 20:17:05.563902,172
2021-09-22 20:17:05.563908,170
2021-09-22 20:17:05.563914,167
2021-09-22 20:17:05.563920,182
2021-09-22 20:17:05.832316,211
2021-09-22 20:17:05.832333,223
2021-09-22 20:17:05.832340,221
2021-09-22 20:17:05.832347,243
2021-09-22 20:17:05.832352,272
2021-09-22 20:17:05.832358,289
2021-09-22 20:17:05.832364,311
2021-09-22 20:17:05.832370,343
2021-09-22 20:17:05.832376,357
2021-09-22 20:17:05.832381,367
2021-09-22 20:17:05.832387,369
2021-09-22 20:17:05.832393,355
2021-09-22 20:17:05.832399,333
2021-09-22 20:17:05.832404,304
2021-09-22 20:17:05.832410,248
2021-09-22 20:17:05.832416,160
2021-09-22 20:17:05.832421,70
2021-09-22 20:17:05.832427,-9
2021-09-22 20:17:05.832433,-77
2021-09-22 20:17:05.832439,-143
2021-09-22 20:17:05.832444,-199
2021-09-22 20:17:05.832450,-228
2021-09-22 20:17:05.832456,-238
2021-09-22 20:17:05.832461,-245
2021-09-22 20:17:05.832467,-253
2021-09-22 20:17:05.832473,-253
2021-09-22 20:17:05.832479,-243
2021-09-22 20:17:05.832484,-223
2021-09-22 20:17:05.832490,-206
2021-09-22 20:17:05.832496,-214
2021-09-22 20:17:06.013679,-214
2021-09-22 20:17:06.013695,-197
2021-09-22 20:17:06.013702,-194
2021-09-22 20:17:06.013708,-192
2021-09-22 20:17:06.013714,-182
2021-09-22 20:17:06.013719,-175
2021-09-22 20:17:06.013725,-175
2021-09-22 20:17:06.013731,-177
2021-09-22 20:17:06.013737,-182
2021-09-22 20:17:06.013743,-182
2021-09-22 20:17:06.013748,-172
2021-09-22 20:17:06.013755,-177
2021-09-22 20:17:06.013760,-197
2021-09-22 20:17:06.013766,-209
2021-09-22 20:17:06.013772,-199
2021-09-22 20:17:06.013778,-197
2021-09-22 20:17:06.013783,-197
2021-09-22 20:17:06.013789,-187
2021-09-22 20:17:06.013795,-184
2021-09-22 20:17:06.013801,-189
2021-09-22 20:17:06.013807,-187
2021-09-22 20:17:06.013812,-182
2021-09-22 20:17:06.013818,-177
2021-09-22 20:17:06.013824,-167
2021-09-22 20:17:06.013830,-160
2021-09-22 20:17:06.013835,-163
2021-09-22 20:17:06.013841,-172
2021-09-22 20:17:06.013847,-177
2021-09-22 20:17:06.013852,-160
2021-09-22 20:17:06.013858,-145
2021-09-22 20:17:06.238800,-153
2021-09-22 20:17:06.238818,-158
2021-09-22 20:17:06.238825,-136
2021-09-22 20:17:06.238831,-116
2021-09-22 20:17:06.238837,-114
2021-09-22 20:17:06.238843,-109
2021-09-22 20:17:06.238849,-92
2021-09-22 20:17:06.238855,-80
2021-09-22 20:17:06.238861,-94
2021-09-22 20:17:06.238866,-131
2021-09-22 20:17:06.238872,-141
2021-09-22 20:17:06.238878,-133
2021-09-22 20:17:06.238884,-138
2021-09-22 20:17:06.238889,-136
2021-09-22 20:17:06.238895,-126
2021-09-22 20:17:06.238901,-126
2021-09-22 20:17:06.238907,-119
2021-09-22 20:17:06.238913,-107
2021-09-22 20:17:06.238918,-72
2021-09-22 20:17:06.238924,12
2021-09-22 20:17:06.238930,155
2021-09-22 20:17:06.238936,347
2021-09-22 20:17:06.238941,360
2021-09-22 20:17:06.238947,4
2021-09-22 20:17:06.238953,-447
2021-09-22 20:17:06.238959,-712
2021-09-22 20:17:06.238965,-610
2021-09-22 20:17:06.238970,-250
2021-09-22 20:17:06.238976,-77
2021-09-22 20:17:06.238982,-85
2021-09-22 20:17:06.463755,-2
2021-09-22 20:17:06.463771,65
2021-09-22 20:17:06.463778,48
2021-09-22 20:17:06.463784,53
2021-09-22 20:17:06.463790,85
2021-09-22 20:17:06.463796,80
2021-09-22 20:17:06.463802,75
2021-09-22 20:17:06.463807,97
2021-09-22 20:17:06.463813,109
2021-09-22 20:17:06.463819,111
2021-09-22 20:17:06.463825,126
2021-09-22 20:17:06.463831,138
2021-09-22 20:17:06.463836,148
2021-09-22 20:17:06.463842,172
2021-09-22 20:17:06.463848,184
2021-09-22 20:17:06.463854,199
2021-09-22 20:17:06.463859,240
2021-09-22 20:17:06.463865,284
2021-09-22 20:17:06.463871,304
2021-09-22 20:17:06.463876,321
2021-09-22 20:17:06.463882,352
2021-09-22 20:17:06.463888,369
2021-09-22 20:17:06.463894,357
2021-09-22 20:17:06.463899,343
2021-09-22 20:17:06.463905,330
2021-09-22 20:17:06.463911,291
2021-09-22 20:17:06.463916,211
2021-09-22 20:17:06.463922,121
2021-09-22 20:17:06.463931,26
2021-09-22 20:17:06.463937,-75
2021-09-22 20:17:06.688795,-170
2021-09-22 20:17:06.688813,-238
2021-09-22 20:17:06.688820,-262
2021-09-22 20:17:06.688827,-284
2021-09-22 20:17:06.688832,-318
2021-09-22 20:17:06.688838,-330
2021-09-22 20:17:06.688844,-318
2021-09-22 20:17:06.688850,-299
2021-09-22 20:17:06.688856,-284
2021-09-22 20:17:06.688862,-274
2021-09-22 20:17:06.688867,-265
2021-09-22 20:17:06.688873,-253
2021-09-22 20:17:06.688879,-240
2021-09-22 20:17:06.688885,-218
2021-09-22 20:17:06.688891,-199
2021-09-22 20:17:06.688896,-192
2021-09-22 20:17:06.688902,-192
2021-09-22 20:17:06.688908,-182
2021-09-22 20:17:06.688914,-177
2021-09-22 20:17:06.688920,-180
2021-09-22 20:17:06.688925,-177
2021-09-22 20:17:06.688931,-170
2021-09-22 20:17:06.688937,-167
2021-09-22 20:17:06.688943,-170
2021-09-22 20:17:06.688949,-170
2021-09-22 20:17:06.688954,-175
2021-09-22 20:17:06.688960,-180
2021-09-22 20:17:06.688966,-175
2021-09-22 20:17:06.688972,-172
2021-09-22 20:17:06.688977,-172
2021-09-22 20:17:06.913759,-165
2021-09-22 20:17:06.913776,-158
2021-09-22 20:17:06.913784,-163
2021-09-22 20:17:06.913790,-172
2021-09-22 20:17:06.913796,-175
2021-09-22 20:17:06.913802,-167
2021-09-22 20:17:06.913808,-163
2021-09-22 20:17:06.913814,-155
2021-09-22 20:17:06.913820,-141
2021-09-22 20:17:06.913825,-128
2021-09-22 20:17:06.913831,-126
2021-09-22 20:17:06.913837,-116
2021-09-22 20:17:06.913843,-111
2021-09-22 20:17:06.913849,-114
2021-09-22 20:17:06.913855,-102
2021-09-22 20:17:06.913860,-111
2021-09-22 20:17:06.913866,-155
2021-09-22 20:17:06.913872,-158
2021-09-22 20:17:06.913878,-126
2021-09-22 20:17:06.913884,-124
2021-09-22 20:17:06.913890,-136
2021-09-22 20:17:06.913895,-131
2021-09-22 20:17:06.913901,-104
2021-09-22 20:17:06.913907,-46
2021-09-22 20:17:06.913913,51
2021-09-22 20:17:06.913919,201
2021-09-22 20:17:06.913925,321
2021-09-22 20:17:06.913930,131
2021-09-22 20:17:06.913936,-326
2021-09-22 20:17:06.913942,-698
2021-09-22 20:17:07.183878,-781
2021-09-22 20:17:07.183897,-528
2021-09-22 20:17:07.183905,-240
2021-09-22 20:17:07.183911,-167
2021-09-22 20:17:07.183917,-107
2021-09-22 20:17:07.183923,0
2021-09-22 20:17:07.183928,21
2021-09-22 20:17:07.183934,9
2021-09-22 20:17:07.183940,34
2021-09-22 20:17:07.183946,38
2021-09-22 20:17:07.183952,29
2021-09-22 20:17:07.183958,46
2021-09-22 20:17:07.183964,65
2021-09-22 20:17:07.183970,72
2021-09-22 20:17:07.183976,77
2021-09-22 20:17:07.183981,87
2021-09-22 20:17:07.183987,102
2021-09-22 20:17:07.183993,126
2021-09-22 20:17:07.183999,148
2021-09-22 20:17:07.184005,172
2021-09-22 20:17:07.184011,199
2021-09-22 20:17:07.184017,221
2021-09-22 20:17:07.184022,265
2021-09-22 20:17:07.184028,316
2021-09-22 20:17:07.184034,340
2021-09-22 20:17:07.184040,355
2021-09-22 20:17:07.184046,362
2021-09-22 20:17:07.184051,357
2021-09-22 20:17:07.184057,345
2021-09-22 20:17:07.184062,313
2021-09-22 20:17:07.453713,245
2021-09-22 20:17:07.453729,153
2021-09-22 20:17:07.453736,53
2021-09-22 20:17:07.453742,-43
2021-09-22 20:17:07.453748,-119
2021-09-22 20:17:07.453754,-172
2021-09-22 20:17:07.453760,-218
2021-09-22 20:17:07.453766,-257
2021-09-22 20:17:07.453772,-279
2021-09-22 20:17:07.453777,-291
2021-09-22 20:17:07.453783,-294
2021-09-22 20:17:07.453789,-277
2021-09-22 20:17:07.453794,-255
2021-09-22 20:17:07.453800,-245
2021-09-22 20:17:07.453806,-243
2021-09-22 20:17:07.453812,-228
2021-09-22 20:17:07.453818,-204
2021-09-22 20:17:07.453824,-182
2021-09-22 20:17:07.453829,-160
2021-09-22 20:17:07.453835,-145
2021-09-22 20:17:07.453841,-143
2021-09-22 20:17:07.453847,-138
2021-09-22 20:17:07.453853,-124
2021-09-22 20:17:07.453858,-111
2021-09-22 20:17:07.453864,-109
2021-09-22 20:17:07.453870,-109
2021-09-22 20:17:07.453875,-104
2021-09-22 20:17:07.453881,-102
2021-09-22 20:17:07.453887,-104
2021-09-22 20:17:07.453893,-107
2021-09-22 20:17:07.633883,-107
2021-09-22 20:17:07.633901,-104
2021-09-22 20:17:07.633908,-104
2021-09-22 20:17:07.633914,-102
2021-09-22 20:17:07.633920,-94
2021-09-22 20:17:07.633926,-90
2021-09-22 20:17:07.633932,-85
2021-09-22 20:17:07.633938,-77
2021-09-22 20:17:07.633944,-70
2021-09-22 20:17:07.633950,-68
2021-09-22 20:17:07.633955,-72
2021-09-22 20:17:07.633961,-65
2021-09-22 20:17:07.633967,-48
2021-09-22 20:17:07.633973,-36
2021-09-22 20:17:07.633978,-38
2021-09-22 20:17:07.633984,-21
2021-09-22 20:17:07.633990,-7
2021-09-22 20:17:07.633996,-26
2021-09-22 20:17:07.634002,-46
2021-09-22 20:17:07.634007,-46
2021-09-22 20:17:07.634013,-46
2021-09-22 20:17:07.634019,-46
2021-09-22 20:17:07.634024,-38
2021-09-22 20:17:07.634030,-36
2021-09-22 20:17:07.634036,-41
2021-09-22 20:17:07.634042,-34
2021-09-22 20:17:07.634047,-21
2021-09-22 20:17:07.634053,-4
2021-09-22 20:17:07.634059,58
2021-09-22 20:17:07.634065,180
2021-09-22 20:17:07.947337,355
2021-09-22 20:17:07.947353,457
2021-09-22 20:17:07.947360,209
2021-09-22 20:17:07.947366,-277
2021-09-22 20:17:07.947372,-613
2021-09-22 20:17:07.947378,-654
2021-09-22 20:17:07.947384,-384
2021-09-22 20:17:07.947391,-99
2021-09-22 20:17:07.947397,-29
2021-09-22 20:17:07.947403,31
2021-09-22 20:17:07.947409,133
2021-09-22 20:17:07.947414,138
2021-09-22 20:17:07.947420,114
2021-09-22 20:17:07.947426,138
2021-09-22 20:17:07.947432,160
2021-09-22 20:17:07.947438,160
2021-09-22 20:17:07.947444,167
2021-09-22 20:17:07.947449,182
2021-09-22 20:17:07.947455,189
2021-09-22 20:17:07.947461,194
2021-09-22 20:17:07.947467,199
2021-09-22 20:17:07.947473,209
2021-09-22 20:17:07.947478,221
2021-09-22 20:17:07.947484,238
2021-09-22 20:17:07.947490,253
2021-09-22 20:17:07.947496,272
2021-09-22 20:17:07.947502,304
2021-09-22 20:17:07.947508,333
2021-09-22 20:17:07.947513,357
2021-09-22 20:17:07.947519,382
2021-09-22 20:17:08.084891,399
2021-09-22 20:17:08.084937,408
2021-09-22 20:17:08.084953,406
2021-09-22 20:17:08.084961,379
2021-09-22 20:17:08.084969,333
2021-09-22 20:17:08.084975,265
2021-09-22 20:17:08.084982,163
2021-09-22 20:17:08.085048,55
2021-09-22 20:17:08.085085,-34
2021-09-22 20:17:08.085099,-114
2021-09-22 20:17:08.085108,-172
2021-09-22 20:17:08.085116,-211
2021-09-22 20:17:08.085129,-250
2021-09-22 20:17:08.085145,-270
2021-09-22 20:17:08.085152,-262
2021-09-22 20:17:08.085159,-260
2021-09-22 20:17:08.085168,-267
2021-09-22 20:17:08.085177,-260
2021-09-22 20:17:08.085186,-245
2021-09-22 20:17:08.085194,-223
2021-09-22 20:17:08.085201,-201
2021-09-22 20:17:08.085209,-194
2021-09-22 20:17:08.085217,-187
2021-09-22 20:17:08.085225,-163
2021-09-22 20:17:08.085234,-148
2021-09-22 20:17:08.085243,-141
2021-09-22 20:17:08.085250,-133
2021-09-22 20:17:08.085260,-131
2021-09-22 20:17:08.085269,-116
2021-09-22 20:17:08.085278,-102
2021-09-22 20:17:08.397604,-104
2021-09-22 20:17:08.397623,-109
2021-09-22 20:17:08.397630,-107
2021-09-22 20:17:08.397636,-107
2021-09-22 20:17:08.397642,-104
2021-09-22 20:17:08.397648,-109
2021-09-22 20:17:08.397653,-116
2021-09-22 20:17:08.397659,-116
2021-09-22 20:17:08.397665,-121
2021-09-22 20:17:08.397671,-121
2021-09-22 20:17:08.397677,-109
2021-09-22 20:17:08.397683,-102
2021-09-22 20:17:08.397688,-104
2021-09-22 20:17:08.397694,-94
2021-09-22 20:17:08.397700,-90
2021-09-22 20:17:08.397706,-107
2021-09-22 20:17:08.397712,-109
2021-09-22 20:17:08.397718,-90
2021-09-22 20:17:08.397723,-85
2021-09-22 20:17:08.397729,-90
2021-09-22 20:17:08.397735,-77
2021-09-22 20:17:08.397741,-58
2021-09-22 20:17:08.397747,-65
2021-09-22 20:17:08.397755,-85
2021-09-22 20:17:08.397761,-94
2021-09-22 20:17:08.397767,-97
2021-09-22 20:17:08.397773,-97
2021-09-22 20:17:08.397778,-90
2021-09-22 20:17:08.397784,-77
2021-09-22 20:17:08.397790,-72
2021-09-22 20:17:08.533711,-77
2021-09-22 20:17:08.533728,-70
2021-09-22 20:17:08.533735,-41
2021-09-22 20:17:08.533741,21
2021-09-22 20:17:08.533747,143
2021-09-22 20:17:08.533753,338
2021-09-22 20:17:08.533759,430
2021-09-22 20:17:08.533765,136
2021-09-22 20:17:08.533770,-347
2021-09-22 20:17:08.533776,-669
2021-09-22 20:17:08.533782,-727
2021-09-22 20:17:08.533788,-423
2021-09-22 20:17:08.533794,-94
2021-09-22 20:17:08.533799,-36
2021-09-22 20:17:08.533805,7
2021-09-22 20:17:08.533811,80
2021-09-22 20:17:08.533817,41
2021-09-22 20:17:08.533822,7
2021-09-22 20:17:08.533828,46
2021-09-22 20:17:08.533834,109
2021-09-22 20:17:08.533840,165
2021-09-22 20:17:08.533846,177
2021-09-22 20:17:08.533851,170
2021-09-22 20:17:08.533857,182
2021-09-22 20:17:08.533863,184
2021-09-22 20:17:08.533868,177
2021-09-22 20:17:08.533874,197
2021-09-22 20:17:08.533880,211
2021-09-22 20:17:08.533886,199
2021-09-22 20:17:08.533891,233
2021-09-22 20:17:08.758878,309
2021-09-22 20:17:08.758896,343
2021-09-22 20:17:08.758903,347
2021-09-22 20:17:08.758908,367
2021-09-22 20:17:08.758914,391
2021-09-22 20:17:08.758920,406
2021-09-22 20:17:08.758926,416
2021-09-22 20:17:08.758932,416
2021-09-22 20:17:08.758938,391
2021-09-22 20:17:08.758943,347
2021-09-22 20:17:08.758949,279
2021-09-22 20:17:08.758955,172
2021-09-22 20:17:08.758961,58
2021-09-22 20:17:08.758967,-46
2021-09-22 20:17:08.758973,-138
2021-09-22 20:17:08.758978,-211
2021-09-22 20:17:08.758984,-243
2021-09-22 20:17:08.758990,-231
2021-09-22 20:17:08.758996,-238
2021-09-22 20:17:08.759002,-279
2021-09-22 20:17:08.759007,-282
2021-09-22 20:17:08.759013,-253
2021-09-22 20:17:08.759019,-240
2021-09-22 20:17:08.759025,-257
2021-09-22 20:17:08.759030,-257
2021-09-22 20:17:08.759036,-221
2021-09-22 20:17:08.759042,-194
2021-09-22 20:17:08.759047,-177
2021-09-22 20:17:08.759053,-145
2021-09-22 20:17:08.759059,-124
2021-09-22 20:17:09.028768,-121
2021-09-22 20:17:09.028784,-128
2021-09-22 20:17:09.028791,-143
2021-09-22 20:17:09.028797,-153
2021-09-22 20:17:09.028802,-126
2021-09-22 20:17:09.028808,-111
2021-09-22 20:17:09.028814,-153
2021-09-22 20:17:09.028820,-160
2021-09-22 20:17:09.028826,-111
2021-09-22 20:17:09.028831,-99
2021-09-22 20:17:09.028837,-104
2021-09-22 20:17:09.028842,-92
2021-09-22 20:17:09.028848,-102
2021-09-22 20:17:09.028854,-99
2021-09-22 20:17:09.028860,-82
2021-09-22 20:17:09.028865,-121
2021-09-22 20:17:09.028871,-155
2021-09-22 20:17:09.028877,-97
2021-09-22 20:17:09.028883,-53
2021-09-22 20:17:09.028888,-77
2021-09-22 20:17:09.028894,-77
2021-09-22 20:17:09.028900,-58
2021-09-22 20:17:09.028906,-53
2021-09-22 20:17:09.028911,-46
2021-09-22 20:17:09.028917,-43
2021-09-22 20:17:09.028923,-48
2021-09-22 20:17:09.028928,-31
2021-09-22 20:17:09.028934,-31
2021-09-22 20:17:09.028940,-58
2021-09-22 20:17:09.028946,-63
2021-09-22 20:17:09.253838,-34
2021-09-22 20:17:09.253856,-24
2021-09-22 20:17:09.253863,-48
2021-09-22 20:17:09.253869,-48
2021-09-22 20:17:09.253875,-34
2021-09-22 20:17:09.253881,-51
2021-09-22 20:17:09.253887,-53
2021-09-22 20:17:09.253893,-31
2021-09-22 20:17:09.253899,-38
2021-09-22 20:17:09.253905,-19
2021-09-22 20:17:09.253911,87
2021-09-22 20:17:09.253917,248
2021-09-22 20:17:09.253923,420
2021-09-22 20:17:09.253929,411
2021-09-22 20:17:09.253935,53
2021-09-22 20:17:09.253941,-411
2021-09-22 20:17:09.253947,-656
2021-09-22 20:17:09.253953,-530
2021-09-22 20:17:09.253958,-199
2021-09-22 20:17:09.253964,-38
2021-09-22 20:17:09.253970,-7
2021-09-22 20:17:09.253976,111
2021-09-22 20:17:09.253982,204
2021-09-22 20:17:09.253988,155
2021-09-22 20:17:09.253993,92
2021-09-22 20:17:09.253999,148
2021-09-22 20:17:09.254005,226
2021-09-22 20:17:09.254011,194
2021-09-22 20:17:09.254017,177
2021-09-22 20:17:09.254023,233
2021-09-22 20:17:09.523756,236
2021-09-22 20:17:09.523772,223
2021-09-22 20:17:09.523779,262
2021-09-22 20:17:09.523785,282
2021-09-22 20:17:09.523791,279
2021-09-22 20:17:09.523797,313
2021-09-22 20:17:09.523802,340
2021-09-22 20:17:09.523808,335
2021-09-22 20:17:09.523814,350
2021-09-22 20:17:09.523820,389
2021-09-22 20:17:09.523826,430
2021-09-22 20:17:09.523832,455
2021-09-22 20:17:09.523838,469
2021-09-22 20:17:09.523843,476
2021-09-22 20:17:09.523849,445
2021-09-22 20:17:09.523855,379
2021-09-22 20:17:09.523861,340
2021-09-22 20:17:09.523867,296
2021-09-22 20:17:09.523873,194
2021-09-22 20:17:09.523879,77
2021-09-22 20:17:09.523884,7
2021-09-22 20:17:09.523890,-55
2021-09-22 20:17:09.523896,-136
2021-09-22 20:17:09.523902,-170
2021-09-22 20:17:09.523908,-172
2021-09-22 20:17:09.523914,-184
2021-09-22 20:17:09.523919,-194
2021-09-22 20:17:09.523925,-194
2021-09-22 20:17:09.523931,-172
2021-09-22 20:17:09.523937,-141
2021-09-22 20:17:09.703897,-141
2021-09-22 20:17:09.703916,-153
2021-09-22 20:17:09.703924,-160
2021-09-22 20:17:09.703930,-128
2021-09-22 20:17:09.703936,-68
2021-09-22 20:17:09.703942,-68
2021-09-22 20:17:09.703948,-109
2021-09-22 20:17:09.703953,-97
2021-09-22 20:17:09.703959,-51
2021-09-22 20:17:09.703965,-29
2021-09-22 20:17:09.703971,-38
2021-09-22 20:17:09.703976,-53
2021-09-22 20:17:09.703982,-55
2021-09-22 20:17:09.703988,-48
2021-09-22 20:17:09.703994,-48
2021-09-22 20:17:09.703999,-58
2021-09-22 20:17:09.704005,-70
2021-09-22 20:17:09.704011,-63
2021-09-22 20:17:09.704017,-58
2021-09-22 20:17:09.704023,-68
2021-09-22 20:17:09.704028,-43
2021-09-22 20:17:09.704034,-26
2021-09-22 20:17:09.704040,-38
2021-09-22 20:17:09.704046,-26
2021-09-22 20:17:09.704051,-14
2021-09-22 20:17:09.704057,-19
2021-09-22 20:17:09.704063,-29
2021-09-22 20:17:09.704068,-41
2021-09-22 20:17:09.704074,-41
2021-09-22 20:17:09.704080,-19
2021-09-22 20:17:09.972391,-7
2021-09-22 20:17:09.972407,-26
2021-09-22 20:17:09.972414,-46
2021-09-22 20:17:09.972420,-29
2021-09-22 20:17:09.972426,-14
2021-09-22 20:17:09.972432,-41
2021-09-22 20:17:09.972438,-58
2021-09-22 20:17:09.972444,-55
2021-09-22 20:17:09.972450,-65
2021-09-22 20:17:09.972456,-60
2021-09-22 20:17:09.972462,-48
2021-09-22 20:17:09.972468,-41
2021-09-22 20:17:09.972473,-12
2021-09-22 20:17:09.972479,70
2021-09-22 20:17:09.972485,214
2021-09-22 20:17:09.972491,401
2021-09-22 20:17:09.972497,418
2021-09-22 20:17:09.972503,60
2021-09-22 20:17:09.972508,-420
2021-09-22 20:17:09.972514,-669
2021-09-22 20:17:09.972520,-588
2021-09-22 20:17:09.972526,-289
2021-09-22 20:17:09.972531,-82
2021-09-22 20:17:09.972537,-24
2021-09-22 20:17:09.972543,68
2021-09-22 20:17:09.972549,141
2021-09-22 20:17:09.972555,126
2021-09-22 20:17:09.972560,114
2021-09-22 20:17:09.972566,133
2021-09-22 20:17:09.972572,141
2021-09-22 20:17:10.153873,133
2021-09-22 20:17:10.153891,145
2021-09-22 20:17:10.153898,165
2021-09-22 20:17:10.153904,170
2021-09-22 20:17:10.153910,160
2021-09-22 20:17:10.153916,158
2021-09-22 20:17:10.153922,177
2021-09-22 20:17:10.153927,214
2021-09-22 20:17:10.153933,245
2021-09-22 20:17:10.153939,270
2021-09-22 20:17:10.153945,296
2021-09-22 20:17:10.153951,313
2021-09-22 20:17:10.153957,333
2021-09-22 20:17:10.153963,360
2021-09-22 20:17:10.153969,384
2021-09-22 20:17:10.153975,396
2021-09-22 20:17:10.153981,386
2021-09-22 20:17:10.153986,362
2021-09-22 20:17:10.153992,330
2021-09-22 20:17:10.153998,287
2021-09-22 20:17:10.154004,216
2021-09-22 20:17:10.154009,133
2021-09-22 20:17:10.154015,60
2021-09-22 20:17:10.154021,-14
2021-09-22 20:17:10.154027,-97
2021-09-22 20:17:10.154033,-165
2021-09-22 20:17:10.154039,-209
2021-09-22 20:17:10.154045,-226
2021-09-22 20:17:10.154050,-228
2021-09-22 20:17:10.154056,-240
2021-09-22 20:17:10.378855,-245
2021-09-22 20:17:10.378873,-228
2021-09-22 20:17:10.378880,-216
2021-09-22 20:17:10.378886,-214
2021-09-22 20:17:10.378892,-197
2021-09-22 20:17:10.378898,-175
2021-09-22 20:17:10.378904,-167
2021-09-22 20:17:10.378910,-172
2021-09-22 20:17:10.378916,-163
2021-09-22 20:17:10.378922,-148
2021-09-22 20:17:10.378927,-143
2021-09-22 20:17:10.378933,-145
2021-09-22 20:17:10.378939,-150
2021-09-22 20:17:10.378945,-143
2021-09-22 20:17:10.378950,-128
2021-09-22 20:17:10.378956,-138
2021-09-22 20:17:10.378962,-150
2021-09-22 20:17:10.378971,-141
2021-09-22 20:17:10.378977,-126
2021-09-22 20:17:10.378982,-128
2021-09-22 20:17:10.378988,-131
2021-09-22 20:17:10.378994,-124
2021-09-22 20:17:10.379000,-116
2021-09-22 20:17:10.379005,-114
2021-09-22 20:17:10.379011,-104
2021-09-22 20:17:10.379017,-94
2021-09-22 20:17:10.379022,-92
2021-09-22 20:17:10.379028,-90
2021-09-22 20:17:10.379034,-85
2021-09-22 20:17:10.379039,-68
2021-09-22 20:17:10.603862,-46
2021-09-22 20:17:10.603880,-43
2021-09-22 20:17:10.603887,-51
2021-09-22 20:17:10.603894,-68
2021-09-22 20:17:10.603900,-102
2021-09-22 20:17:10.603906,-114
2021-09-22 20:17:10.603911,-94
2021-09-22 20:17:10.603917,-77
2021-09-22 20:17:10.603923,-72
2021-09-22 20:17:10.603929,-80
2021-09-22 20:17:10.603934,-92
2021-09-22 20:17:10.603940,-85
2021-09-22 20:17:10.603946,-72
2021-09-22 20:17:10.603951,-68
2021-09-22 20:17:10.603957,-7
2021-09-22 20:17:10.603962,99
2021-09-22 20:17:10.603968,201
2021-09-22 20:17:10.603974,316
2021-09-22 20:17:10.603980,262
2021-09-22 20:17:10.603986,-163
2021-09-22 20:17:10.603991,-613
2021-09-22 20:17:10.603996,-705
2021-09-22 20:17:10.604002,-496
2021-09-22 20:17:10.604008,-221
2021-09-22 20:17:10.604013,-80
2021-09-22 20:17:10.604019,-14
2021-09-22 20:17:10.604025,90
2021-09-22 20:17:10.604031,148
2021-09-22 20:17:10.604036,136
2021-09-22 20:17:10.604042,143
2021-09-22 20:17:10.828824,172
2021-09-22 20:17:10.828840,177
2021-09-22 20:17:10.828848,175
2021-09-22 20:17:10.828854,182
2021-09-22 20:17:10.828860,170
2021-09-22 20:17:10.828866,167
2021-09-22 20:17:10.828872,197
2021-09-22 20:17:10.828878,216
2021-09-22 20:17:10.828884,216
2021-09-22 20:17:10.828890,231
2021-09-22 20:17:10.828896,253
2021-09-22 20:17:10.828901,265
2021-09-22 20:17:10.828907,274
2021-09-22 20:17:10.828913,306
2021-09-22 20:17:10.828919,335
2021-09-22 20:17:10.828925,338
2021-09-22 20:17:10.828931,364
2021-09-22 20:17:10.828936,399
2021-09-22 20:17:10.828942,386
2021-09-22 20:17:10.828948,357
2021-09-22 20:17:10.828954,330
2021-09-22 20:17:10.828960,277
2021-09-22 20:17:10.828965,197
2021-09-22 20:17:10.828971,121
2021-09-22 20:17:10.828977,51
2021-09-22 20:17:10.828983,-29
2021-09-22 20:17:10.828988,-85
2021-09-22 20:17:10.828994,-111
2021-09-22 20:17:10.829000,-141
2021-09-22 20:17:10.829006,-167
2021-09-22 20:17:11.188254,-163
2021-09-22 20:17:11.188272,-150
2021-09-22 20:17:11.188279,-163
2021-09-22 20:17:11.188285,-184
2021-09-22 20:17:11.188291,-165
2021-09-22 20:17:11.188297,-131
2021-09-22 20:17:11.188303,-131
2021-09-22 20:17:11.188309,-141
2021-09-22 20:17:11.188315,-133
2021-09-22 20:17:11.188321,-124
2021-09-22 20:17:11.188326,-124
2021-09-22 20:17:11.188332,-111
2021-09-22 20:17:11.188338,-97
2021-09-22 20:17:11.188344,-109
2021-09-22 20:17:11.188350,-124
2021-09-22 20:17:11.188355,-111
2021-09-22 20:17:11.188361,-102
2021-09-22 20:17:11.188367,-107
2021-09-22 20:17:11.188373,-107
2021-09-22 20:17:11.188379,-104
2021-09-22 20:17:11.188385,-109
2021-09-22 20:17:11.188391,-109
2021-09-22 20:17:11.188396,-107
2021-09-22 20:17:11.188402,-104
2021-09-22 20:17:11.188408,-90
2021-09-22 20:17:11.188414,-85
2021-09-22 20:17:11.188420,-90
2021-09-22 20:17:11.188425,-85
2021-09-22 20:17:11.188431,-72
2021-09-22 20:17:11.188437,-60
2021-09-22 20:17:11.368822,-36
2021-09-22 20:17:11.368840,-21
2021-09-22 20:17:11.368847,-51
2021-09-22 20:17:11.368853,-72
2021-09-22 20:17:11.368859,-63
2021-09-22 20:17:11.368866,-65
2021-09-22 20:17:11.368872,-75
2021-09-22 20:17:11.368877,-58
2021-09-22 20:17:11.368883,-58
2021-09-22 20:17:11.368889,-77
2021-09-22 20:17:11.368895,-72
2021-09-22 20:17:11.368901,-68
2021-09-22 20:17:11.368907,-77
2021-09-22 20:17:11.368913,-51
2021-09-22 20:17:11.368919,38
2021-09-22 20:17:11.368925,143
2021-09-22 20:17:11.368931,243
2021-09-22 20:17:11.368937,253
2021-09-22 20:17:11.368943,-31
2021-09-22 20:17:11.368949,-469
2021-09-22 20:17:11.368954,-681
2021-09-22 20:17:11.368961,-586
2021-09-22 20:17:11.368967,-326
2021-09-22 20:17:11.368972,-126
2021-09-22 20:17:11.368978,-51
2021-09-22 20:17:11.368984,38
2021-09-22 20:17:11.368990,119
2021-09-22 20:17:11.368996,121
2021-09-22 20:17:11.369002,124
2021-09-22 20:17:11.369008,136
2021-09-22 20:17:11.548901,128
2021-09-22 20:17:11.548918,143
2021-09-22 20:17:11.548926,155
2021-09-22 20:17:11.548932,150
2021-09-22 20:17:11.548939,163
2021-09-22 20:17:11.548945,189
2021-09-22 20:17:11.548951,204
2021-09-22 20:17:11.548957,204
2021-09-22 20:17:11.548963,201
2021-09-22 20:17:11.548970,211
2021-09-22 20:17:11.548976,233
2021-09-22 20:17:11.548982,248
2021-09-22 20:17:11.548988,265
2021-09-22 20:17:11.548994,284
2021-09-22 20:17:11.549000,291
2021-09-22 20:17:11.549006,309
2021-09-22 20:17:11.549012,330
2021-09-22 20:17:11.549018,328
2021-09-22 20:17:11.549025,306
2021-09-22 20:17:11.549031,289
2021-09-22 20:17:11.549037,250
2021-09-22 20:17:11.549043,180
2021-09-22 20:17:11.549049,104
2021-09-22 20:17:11.549055,43
2021-09-22 20:17:11.549061,-2
2021-09-22 20:17:11.549067,-60
2021-09-22 20:17:11.549074,-111
2021-09-22 20:17:11.549080,-133
2021-09-22 20:17:11.549086,-158
2021-09-22 20:17:11.549092,-182
2021-09-22 20:17:11.773895,-184
2021-09-22 20:17:11.773913,-163
2021-09-22 20:17:11.773920,-138
2021-09-22 20:17:11.773926,-133
2021-09-22 20:17:11.773932,-128
2021-09-22 20:17:11.773938,-109
2021-09-22 20:17:11.773944,-111
2021-09-22 20:17:11.773950,-121
2021-09-22 20:17:11.773956,-111
2021-09-22 20:17:11.773962,-99
2021-09-22 20:17:11.773968,-87
2021-09-22 20:17:11.773974,-77
2021-09-22 20:17:11.773981,-72
2021-09-22 20:17:11.773987,-75
2021-09-22 20:17:11.773992,-72
2021-09-22 20:17:11.773998,-72
2021-09-22 20:17:11.774004,-75
2021-09-22 20:17:11.774010,-77
2021-09-22 20:17:11.774016,-82
2021-09-22 20:17:11.774021,-90
2021-09-22 20:17:11.774027,-97
2021-09-22 20:17:11.774033,-87
2021-09-22 20:17:11.774039,-72
2021-09-22 20:17:11.774045,-77
2021-09-22 20:17:11.774051,-72
2021-09-22 20:17:11.774056,-63
2021-09-22 20:17:11.774062,-70
2021-09-22 20:17:11.774068,-65
2021-09-22 20:17:11.774074,-46
2021-09-22 20:17:11.774080,-38
2021-09-22 20:17:12.088499,-46
2021-09-22 20:17:12.088553,-38
2021-09-22 20:17:12.088565,-17
2021-09-22 20:17:12.088577,-26
2021-09-22 20:17:12.088588,-53
2021-09-22 20:17:12.088597,-63
2021-09-22 20:17:12.088607,-55
2021-09-22 20:17:12.088616,-48
2021-09-22 20:17:12.088625,-53
2021-09-22 20:17:12.088635,-55
2021-09-22 20:17:12.088644,-53
2021-09-22 20:17:12.088652,-53
2021-09-22 20:17:12.088661,-53
2021-09-22 20:17:12.088670,-17
2021-09-22 20:17:12.088679,65
2021-09-22 20:17:12.088690,167
2021-09-22 20:17:12.088700,289
2021-09-22 20:17:12.088710,277
2021-09-22 20:17:12.088720,-82
2021-09-22 20:17:12.088729,-520
2021-09-22 20:17:12.088738,-674
2021-09-22 20:17:12.088746,-564
2021-09-22 20:17:12.088755,-301
2021-09-22 20:17:12.088765,-104
2021-09-22 20:17:12.088773,-53
2021-09-22 20:17:12.088782,34
2021-09-22 20:17:12.088791,128
2021-09-22 20:17:12.088807,124
2021-09-22 20:17:12.088822,111
2021-09-22 20:17:12.088831,153
2021-09-22 20:17:12.223850,172
2021-09-22 20:17:12.223868,163
2021-09-22 20:17:12.223875,160
2021-09-22 20:17:12.223881,163
2021-09-22 20:17:12.223887,182
2021-09-22 20:17:12.223893,197
2021-09-22 20:17:12.223899,192
2021-09-22 20:17:12.223905,201
2021-09-22 20:17:12.223911,223
2021-09-22 20:17:12.223917,236
2021-09-22 20:17:12.223923,245
2021-09-22 20:17:12.223929,265
2021-09-22 20:17:12.223935,301
2021-09-22 20:17:12.223941,323
2021-09-22 20:17:12.223947,318
2021-09-22 20:17:12.223953,333
2021-09-22 20:17:12.223958,355
2021-09-22 20:17:12.223964,338
2021-09-22 20:17:12.223970,304
2021-09-22 20:17:12.223976,282
2021-09-22 20:17:12.223982,250
2021-09-22 20:17:12.223988,192
2021-09-22 20:17:12.223994,114
2021-09-22 20:17:12.224000,38
2021-09-22 20:17:12.224005,-26
2021-09-22 20:17:12.224011,-75
2021-09-22 20:17:12.224017,-104
2021-09-22 20:17:12.224023,-133
2021-09-22 20:17:12.224029,-153
2021-09-22 20:17:12.224035,-167
2021-09-22 20:17:12.448760,-172
2021-09-22 20:17:12.448776,-150
2021-09-22 20:17:12.448783,-128
2021-09-22 20:17:12.448789,-131
2021-09-22 20:17:12.448795,-133
2021-09-22 20:17:12.448801,-124
2021-09-22 20:17:12.448807,-121
2021-09-22 20:17:12.448813,-107
2021-09-22 20:17:12.448819,-65
2021-09-22 20:17:12.448825,-51
2021-09-22 20:17:12.448831,-68
2021-09-22 20:17:12.448836,-72
2021-09-22 20:17:12.448842,-63
2021-09-22 20:17:12.448848,-60
2021-09-22 20:17:12.448854,-70
2021-09-22 20:17:12.448859,-72
2021-09-22 20:17:12.448865,-58
2021-09-22 20:17:12.448871,-60
2021-09-22 20:17:12.448877,-70
2021-09-22 20:17:12.448883,-58
2021-09-22 20:17:12.448888,-60
2021-09-22 20:17:12.448894,-70
2021-09-22 20:17:12.448900,-58
2021-09-22 20:17:12.448906,-65
2021-09-22 20:17:12.448912,-97
2021-09-22 20:17:12.448917,-104
2021-09-22 20:17:12.448923,-85
2021-09-22 20:17:12.448929,-77
2021-09-22 20:17:12.448935,-85
2021-09-22 20:17:12.448940,-82
2021-09-22 20:17:12.674391,-72
2021-09-22 20:17:12.674409,-68
2021-09-22 20:17:12.674417,-68
2021-09-22 20:17:12.674423,-77
2021-09-22 20:17:12.674429,-65
2021-09-22 20:17:12.674435,-34
2021-09-22 20:17:12.674440,-38
2021-09-22 20:17:12.674446,-55
2021-09-22 20:17:12.674452,-55
2021-09-22 20:17:12.674458,-70
2021-09-22 20:17:12.674464,-77
2021-09-22 20:17:12.674470,-70
2021-09-22 20:17:12.674475,-80
2021-09-22 20:17:12.674481,-72
2021-09-22 20:17:12.674493,-68
2021-09-22 20:17:12.674499,-82
2021-09-22 20:17:12.674505,-68
2021-09-22 20:17:12.674511,-17
2021-09-22 20:17:12.674517,48
2021-09-22 20:17:12.674523,155
2021-09-22 20:17:12.674528,321
2021-09-22 20:17:12.674534,362
2021-09-22 20:17:12.674540,43
2021-09-22 20:17:12.674546,-401
2021-09-22 20:17:12.674552,-618
2021-09-22 20:17:12.674558,-610
2021-09-22 20:17:12.674563,-386
2021-09-22 20:17:12.674569,-126
2021-09-22 20:17:12.674575,-53
2021-09-22 20:17:12.674581,4
2021-09-22 20:17:12.943823,116
2021-09-22 20:17:12.943839,136
2021-09-22 20:17:12.943846,114
2021-09-22 20:17:12.943852,131
2021-09-22 20:17:12.943858,131
2021-09-22 20:17:12.943864,104
2021-09-22 20:17:12.943870,119
2021-09-22 20:17:12.943876,158
2021-09-22 20:17:12.943882,155
2021-09-22 20:17:12.943888,145
2021-09-22 20:17:12.943894,187
2021-09-22 20:17:12.943900,223
2021-09-22 20:17:12.943906,211
2021-09-22 20:17:12.943912,226
2021-09-22 20:17:12.943918,250
2021-09-22 20:17:12.943924,238
2021-09-22 20:17:12.943930,277
2021-09-22 20:17:12.943936,326
2021-09-22 20:17:12.943942,311
2021-09-22 20:17:12.943948,318
2021-09-22 20:17:12.943954,350
2021-09-22 20:17:12.943959,340
2021-09-22 20:17:12.943965,328
2021-09-22 20:17:12.943971,326
2021-09-22 20:17:12.943977,291
2021-09-22 20:17:12.943983,218
2021-09-22 20:17:12.943989,119
2021-09-22 20:17:12.943995,36
2021-09-22 20:17:12.944001,-17
2021-09-22 20:17:12.944007,-72
2021-09-22 20:17:13.169871,-136
2021-09-22 20:17:13.169889,-180
2021-09-22 20:17:13.169896,-206
2021-09-22 20:17:13.169902,-216
2021-09-22 20:17:13.169908,-204
2021-09-22 20:17:13.169914,-189
2021-09-22 20:17:13.169920,-197
2021-09-22 20:17:13.169926,-209
2021-09-22 20:17:13.169932,-201
2021-09-22 20:17:13.169938,-184
2021-09-22 20:17:13.169943,-160
2021-09-22 20:17:13.169949,-136
2021-09-22 20:17:13.169955,-124
2021-09-22 20:17:13.169961,-128
2021-09-22 20:17:13.169966,-141
2021-09-22 20:17:13.169972,-131
2021-09-22 20:17:13.169978,-107
2021-09-22 20:17:13.169984,-92
2021-09-22 20:17:13.169990,-102
2021-09-22 20:17:13.169995,-114
2021-09-22 20:17:13.170001,-116
2021-09-22 20:17:13.170007,-116
2021-09-22 20:17:13.170013,-116
2021-09-22 20:17:13.170018,-109
2021-09-22 20:17:13.170024,-94
2021-09-22 20:17:13.170030,-92
2021-09-22 20:17:13.170035,-102
2021-09-22 20:17:13.170042,-111
2021-09-22 20:17:13.170047,-114
2021-09-22 20:17:13.170053,-126
2021-09-22 20:17:13.438829,-131
2021-09-22 20:17:13.438846,-109
2021-09-22 20:17:13.438854,-99
2021-09-22 20:17:13.438860,-104
2021-09-22 20:17:13.438866,-107
2021-09-22 20:17:13.438872,-109
2021-09-22 20:17:13.438878,-111
2021-09-22 20:17:13.438884,-114
2021-09-22 20:17:13.438890,-121
2021-09-22 20:17:13.438896,-109
2021-09-22 20:17:13.438902,-94
2021-09-22 20:17:13.438907,-85
2021-09-22 20:17:13.438913,-63
2021-09-22 20:17:13.438919,-60
2021-09-22 20:17:13.438925,-80
2021-09-22 20:17:13.438931,-87
2021-09-22 20:17:13.438937,-92
2021-09-22 20:17:13.438943,-107
2021-09-22 20:17:13.438949,-111
2021-09-22 20:17:13.438954,-102
2021-09-22 20:17:13.438960,-94
2021-09-22 20:17:13.438966,-97
2021-09-22 20:17:13.438972,-87
2021-09-22 20:17:13.438978,-77
2021-09-22 20:17:13.438984,-72
2021-09-22 20:17:13.438989,-21
2021-09-22 20:17:13.438995,72
2021-09-22 20:17:13.439001,180
2021-09-22 20:17:13.439007,299
2021-09-22 20:17:13.439013,243
2021-09-22 20:17:13.619025,-163
2021-09-22 20:17:13.619043,-583
2021-09-22 20:17:13.619050,-700
2021-09-22 20:17:13.619056,-552
2021-09-22 20:17:13.619062,-274
2021-09-22 20:17:13.619068,-104
2021-09-22 20:17:13.619074,-77
2021-09-22 20:17:13.619080,-4
2021-09-22 20:17:13.619086,77
2021-09-22 20:17:13.619092,77
2021-09-22 20:17:13.619098,80
2021-09-22 20:17:13.619104,107
2021-09-22 20:17:13.619110,102
2021-09-22 20:17:13.619116,90
2021-09-22 20:17:13.619121,109
2021-09-22 20:17:13.619127,133
2021-09-22 20:17:13.619133,141
2021-09-22 20:17:13.619139,131
2021-09-22 20:17:13.619145,128
2021-09-22 20:17:13.619151,153
2021-09-22 20:17:13.619157,170
2021-09-22 20:17:13.619162,172
2021-09-22 20:17:13.619168,197
2021-09-22 20:17:13.619174,240
2021-09-22 20:17:13.619180,265
2021-09-22 20:17:13.619185,282
2021-09-22 20:17:13.619191,299
2021-09-22 20:17:13.619197,296
2021-09-22 20:17:13.619203,294
2021-09-22 20:17:13.619209,306
2021-09-22 20:17:13.843859,296
2021-09-22 20:17:13.843875,262
2021-09-22 20:17:13.843882,228
2021-09-22 20:17:13.843888,177
2021-09-22 20:17:13.843895,87
2021-09-22 20:17:13.843901,-7
2021-09-22 20:17:13.843907,-80
2021-09-22 20:17:13.843913,-150
2021-09-22 20:17:13.843919,-201
2021-09-22 20:17:13.843925,-214
2021-09-22 20:17:13.843931,-218
2021-09-22 20:17:13.843937,-231
2021-09-22 20:17:13.843943,-236
2021-09-22 20:17:13.843949,-228
2021-09-22 20:17:13.843955,-228
2021-09-22 20:17:13.843960,-228
2021-09-22 20:17:13.843966,-214
2021-09-22 20:17:13.843972,-197
2021-09-22 20:17:13.843978,-182
2021-09-22 20:17:13.843983,-170
2021-09-22 20:17:13.843989,-160
2021-09-22 20:17:13.843995,-136
2021-09-22 20:17:13.844001,-116
2021-09-22 20:17:13.844007,-124
2021-09-22 20:17:13.844012,-141
2021-09-22 20:17:13.844018,-138
2021-09-22 20:17:13.844024,-121
2021-09-22 20:17:13.844030,-119
2021-09-22 20:17:13.844035,-128
2021-09-22 20:17:13.844041,-116
2021-09-22 20:17:14.157636,-102
2021-09-22 20:17:14.157655,-119
2021-09-22 20:17:14.157662,-141
2021-09-22 20:17:14.157668,-138
2021-09-22 20:17:14.157675,-131
2021-09-22 20:17:14.157681,-138
2021-09-22 20:17:14.157687,-145
2021-09-22 20:17:14.157693,-143
2021-09-22 20:17:14.157699,-133
2021-09-22 20:17:14.157705,-126
2021-09-22 20:17:14.157711,-136
2021-09-22 20:17:14.157717,-153
2021-09-22 20:17:14.157723,-150
2021-09-22 20:17:14.157729,-141
2021-09-22 20:17:14.157735,-141
2021-09-22 20:17:14.157741,-133
2021-09-22 20:17:14.157746,-128
2021-09-22 20:17:14.157752,-138
2021-09-22 20:17:14.157758,-126
2021-09-22 20:17:14.157764,-102
2021-09-22 20:17:14.157770,-109
2021-09-22 20:17:14.157776,-126
2021-09-22 20:17:14.157782,-116
2021-09-22 20:17:14.157788,-104
2021-09-22 20:17:14.157794,-104
2021-09-22 20:17:14.157799,-99
2021-09-22 20:17:14.157805,-90
2021-09-22 20:17:14.157811,-87
2021-09-22 20:17:14.157817,-80
2021-09-22 20:17:14.157823,-70
2021-09-22 20:17:14.338797,-72
2021-09-22 20:17:14.338814,-87
2021-09-22 20:17:14.338821,-94
2021-09-22 20:17:14.338828,-90
2021-09-22 20:17:14.338834,-72
2021-09-22 20:17:14.338840,-53
2021-09-22 20:17:14.338846,-38
2021-09-22 20:17:14.338852,-29
2021-09-22 20:17:14.338857,-26
2021-09-22 20:17:14.338863,-43
2021-09-22 20:17:14.338869,-82
2021-09-22 20:17:14.338875,-104
2021-09-22 20:17:14.338880,-85
2021-09-22 20:17:14.338886,-63
2021-09-22 20:17:14.338892,-65
2021-09-22 20:17:14.338898,-72
2021-09-22 20:17:14.338903,-75
2021-09-22 20:17:14.338909,-70
2021-09-22 20:17:14.338915,-53
2021-09-22 20:17:14.338921,-21
2021-09-22 20:17:14.338927,53
2021-09-22 20:17:14.338932,204
2021-09-22 20:17:14.338938,406
2021-09-22 20:17:14.338944,403
2021-09-22 20:17:14.338950,-43
2021-09-22 20:17:14.338956,-552
2021-09-22 20:17:14.338962,-742
2021-09-22 20:17:14.338967,-659
2021-09-22 20:17:14.338973,-355
2021-09-22 20:17:14.338979,-87
2021-09-22 20:17:14.518953,-17
2021-09-22 20:17:14.518970,53
2021-09-22 20:17:14.518978,114
2021-09-22 20:17:14.518984,104
2021-09-22 20:17:14.518990,119
2021-09-22 20:17:14.518996,160
2021-09-22 20:17:14.519002,160
2021-09-22 20:17:14.519008,153
2021-09-22 20:17:14.519014,170
2021-09-22 20:17:14.519020,167
2021-09-22 20:17:14.519026,158
2021-09-22 20:17:14.519032,172
2021-09-22 20:17:14.519038,192
2021-09-22 20:17:14.519043,211
2021-09-22 20:17:14.519049,228
2021-09-22 20:17:14.519055,233
2021-09-22 20:17:14.519061,255
2021-09-22 20:17:14.519067,296
2021-09-22 20:17:14.519073,316
2021-09-22 20:17:14.519079,318
2021-09-22 20:17:14.519085,340
2021-09-22 20:17:14.519090,367
2021-09-22 20:17:14.519096,374
2021-09-22 20:17:14.519102,374
2021-09-22 20:17:14.519108,372
2021-09-22 20:17:14.519114,352
2021-09-22 20:17:14.519120,311
2021-09-22 20:17:14.519126,253
2021-09-22 20:17:14.519132,182
2021-09-22 20:17:14.519137,90
2021-09-22 20:17:14.788967,-17
2021-09-22 20:17:14.788985,-97
2021-09-22 20:17:14.788992,-155
2021-09-22 20:17:14.788999,-211
2021-09-22 20:17:14.789005,-250
2021-09-22 20:17:14.789011,-265
2021-09-22 20:17:14.789017,-274
2021-09-22 20:17:14.789023,-277
2021-09-22 20:17:14.789029,-274
2021-09-22 20:17:14.789035,-272
2021-09-22 20:17:14.789040,-262
2021-09-22 20:17:14.789046,-245
2021-09-22 20:17:14.789052,-228
2021-09-22 20:17:14.789058,-209
2021-09-22 20:17:14.789064,-192
2021-09-22 20:17:14.789070,-184
2021-09-22 20:17:14.789076,-177
2021-09-22 20:17:14.789081,-163
2021-09-22 20:17:14.789087,-148
2021-09-22 20:17:14.789094,-145
2021-09-22 20:17:14.789099,-148
2021-09-22 20:17:14.789105,-141
2021-09-22 20:17:14.789111,-133
2021-09-22 20:17:14.789117,-131
2021-09-22 20:17:14.789123,-126
2021-09-22 20:17:14.789129,-121
2021-09-22 20:17:14.789135,-126
2021-09-22 20:17:14.789140,-131
2021-09-22 20:17:14.789146,-124
2021-09-22 20:17:14.789152,-119
2021-09-22 20:17:15.013831,-121
2021-09-22 20:17:15.013848,-114
2021-09-22 20:17:15.013855,-114
2021-09-22 20:17:15.013861,-119
2021-09-22 20:17:15.013867,-109
2021-09-22 20:17:15.013873,-99
2021-09-22 20:17:15.013879,-97
2021-09-22 20:17:15.013885,-92
2021-09-22 20:17:15.013891,-92
2021-09-22 20:17:15.013897,-97
2021-09-22 20:17:15.013903,-99
2021-09-22 20:17:15.013908,-99
2021-09-22 20:17:15.013914,-99
2021-09-22 20:17:15.013920,-90
2021-09-22 20:17:15.013926,-90
2021-09-22 20:17:15.013932,-92
2021-09-22 20:17:15.013938,-82
2021-09-22 20:17:15.013944,-70
2021-09-22 20:17:15.013949,-72
2021-09-22 20:17:15.013955,-72
2021-09-22 20:17:15.013961,-72
2021-09-22 20:17:15.013967,-72
2021-09-22 20:17:15.013972,-65
2021-09-22 20:17:15.013978,-60
2021-09-22 20:17:15.013984,-63
2021-09-22 20:17:15.013990,-65
2021-09-22 20:17:15.013995,-68
2021-09-22 20:17:15.014001,-60
2021-09-22 20:17:15.014007,-53
2021-09-22 20:17:15.014013,-55
2021-09-22 20:17:15.238940,-58
2021-09-22 20:17:15.238959,-46
2021-09-22 20:17:15.238966,-38
2021-09-22 20:17:15.238972,-34
2021-09-22 20:17:15.238978,-19
2021-09-22 20:17:15.238984,-7
2021-09-22 20:17:15.238990,-7
2021-09-22 20:17:15.238996,-26
2021-09-22 20:17:15.239002,-51
2021-09-22 20:17:15.239007,-53
2021-09-22 20:17:15.239013,-38
2021-09-22 20:17:15.239019,-38
2021-09-22 20:17:15.239025,-38
2021-09-22 20:17:15.239031,-46
2021-09-22 20:17:15.239037,-58
2021-09-22 20:17:15.239043,-53
2021-09-22 20:17:15.239049,-31
2021-09-22 20:17:15.239055,19
2021-09-22 20:17:15.239061,131
2021-09-22 20:17:15.239076,311
2021-09-22 20:17:15.239083,486
2021-09-22 20:17:15.239088,357
2021-09-22 20:17:15.239094,-141
2021-09-22 20:17:15.239100,-588
2021-09-22 20:17:15.239106,-727
2021-09-22 20:17:15.239111,-542
2021-09-22 20:17:15.239117,-216
2021-09-22 20:17:15.239123,-60
2021-09-22 20:17:15.239129,-4
2021-09-22 20:17:15.239134,107
2021-09-22 20:17:15.463912,153
2021-09-22 20:17:15.463929,131
2021-09-22 20:17:15.463937,150
2021-09-22 20:17:15.463943,177
2021-09-22 20:17:15.463949,165
2021-09-22 20:17:15.463955,155
2021-09-22 20:17:15.463960,165
2021-09-22 20:17:15.463966,165
2021-09-22 20:17:15.463972,170
2021-09-22 20:17:15.463978,194
2021-09-22 20:17:15.463984,211
2021-09-22 20:17:15.463990,216
2021-09-22 20:17:15.463996,223
2021-09-22 20:17:15.464002,238
2021-09-22 20:17:15.464008,255
2021-09-22 20:17:15.464032,274
2021-09-22 20:17:15.464039,299
2021-09-22 20:17:15.464045,326
2021-09-22 20:17:15.464051,347
2021-09-22 20:17:15.464057,360
2021-09-22 20:17:15.464063,364
2021-09-22 20:17:15.464069,364
2021-09-22 20:17:15.464074,345
2021-09-22 20:17:15.464080,316
2021-09-22 20:17:15.464086,270
2021-09-22 20:17:15.464092,204
2021-09-22 20:17:15.464098,121
2021-09-22 20:17:15.464104,34
2021-09-22 20:17:15.464109,-41
2021-09-22 20:17:15.464115,-109
2021-09-22 20:17:15.688970,-167
2021-09-22 20:17:15.688988,-216
2021-09-22 20:17:15.688995,-245
2021-09-22 20:17:15.689001,-253
2021-09-22 20:17:15.689007,-253
2021-09-22 20:17:15.689013,-248
2021-09-22 20:17:15.689019,-243
2021-09-22 20:17:15.689025,-233
2021-09-22 20:17:15.689031,-216
2021-09-22 20:17:15.689037,-199
2021-09-22 20:17:15.689042,-177
2021-09-22 20:17:15.689048,-167
2021-09-22 20:17:15.689054,-165
2021-09-22 20:17:15.689060,-153
2021-09-22 20:17:15.689066,-133
2021-09-22 20:17:15.689072,-126
2021-09-22 20:17:15.689078,-128
2021-09-22 20:17:15.689083,-131
2021-09-22 20:17:15.689089,-126
2021-09-22 20:17:15.689095,-124
2021-09-22 20:17:15.689101,-119
2021-09-22 20:17:15.689107,-119
2021-09-22 20:17:15.689112,-119
2021-09-22 20:17:15.689118,-121
2021-09-22 20:17:15.689124,-124
2021-09-22 20:17:15.689129,-119
2021-09-22 20:17:15.689135,-111
2021-09-22 20:17:15.689141,-114
2021-09-22 20:17:15.689146,-111
2021-09-22 20:17:15.689152,-107
2021-09-22 20:17:15.913911,-104
2021-09-22 20:17:15.913928,-102
2021-09-22 20:17:15.913935,-99
2021-09-22 20:17:15.913941,-99
2021-09-22 20:17:15.913947,-97
2021-09-22 20:17:15.913953,-99
2021-09-22 20:17:15.913959,-102
2021-09-22 20:17:15.913965,-97
2021-09-22 20:17:15.913970,-92
2021-09-22 20:17:15.913976,-90
2021-09-22 20:17:15.913982,-87
2021-09-22 20:17:15.913988,-87
2021-09-22 20:17:15.913994,-90
2021-09-22 20:17:15.914000,-85
2021-09-22 20:17:15.914006,-82
2021-09-22 20:17:15.914012,-80
2021-09-22 20:17:15.914017,-75
2021-09-22 20:17:15.914023,-72
2021-09-22 20:17:15.914029,-75
2021-09-22 20:17:15.914034,-72
2021-09-22 20:17:15.914040,-72
2021-09-22 20:17:15.914046,-75
2021-09-22 20:17:15.914052,-72
2021-09-22 20:17:15.914058,-72
2021-09-22 20:17:15.914063,-77
2021-09-22 20:17:15.914069,-70
2021-09-22 20:17:15.914075,-68
2021-09-22 20:17:15.914081,-70
2021-09-22 20:17:15.914086,-65
2021-09-22 20:17:15.914092,-65
2021-09-22 20:17:16.182721,-70
2021-09-22 20:17:16.182740,-63
2021-09-22 20:17:16.182747,-58
2021-09-22 20:17:16.182753,-58
2021-09-22 20:17:16.182759,-53
2021-09-22 20:17:16.182765,-51
2021-09-22 20:17:16.182771,-55
2021-09-22 20:17:16.182777,-60
2021-09-22 20:17:16.182783,-80
2021-09-22 20:17:16.182789,-102
2021-09-22 20:17:16.182795,-107
2021-09-22 20:17:16.182801,-104
2021-09-22 20:17:16.182807,-104
2021-09-22 20:17:16.182813,-102
2021-09-22 20:17:16.182819,-97
2021-09-22 20:17:16.182825,-94
2021-09-22 20:17:16.182831,-94
2021-09-22 20:17:16.182837,-90
2021-09-22 20:17:16.182842,-58
2021-09-22 20:17:16.182848,26
2021-09-22 20:17:16.182854,182
2021-09-22 20:17:16.182860,406
2021-09-22 20:17:16.182865,484
2021-09-22 20:17:16.182871,133
2021-09-22 20:17:16.182877,-406
2021-09-22 20:17:16.182882,-751
2021-09-22 20:17:16.182888,-747
2021-09-22 20:17:16.182894,-391
2021-09-22 20:17:16.182900,-107
2021-09-22 20:17:16.182906,-65
2021-09-22 20:17:16.363934,14
2021-09-22 20:17:16.363948,104
2021-09-22 20:17:16.363952,92
2021-09-22 20:17:16.363955,87
2021-09-22 20:17:16.363959,114
2021-09-22 20:17:16.363962,116
2021-09-22 20:17:16.363965,124
2021-09-22 20:17:16.363968,143
2021-09-22 20:17:16.363972,150
2021-09-22 20:17:16.363978,150
2021-09-22 20:17:16.363983,158
2021-09-22 20:17:16.363989,175
2021-09-22 20:17:16.363994,192
2021-09-22 20:17:16.363999,211
2021-09-22 20:17:16.364003,228
2021-09-22 20:17:16.364009,248
2021-09-22 20:17:16.364013,267
2021-09-22 20:17:16.364018,299
2021-09-22 20:17:16.364023,330
2021-09-22 20:17:16.364029,355
2021-09-22 20:17:16.364034,372
2021-09-22 20:17:16.364039,382
2021-09-22 20:17:16.364045,379
2021-09-22 20:17:16.364049,364
2021-09-22 20:17:16.364056,343
2021-09-22 20:17:16.364060,311
2021-09-22 20:17:16.364066,260
2021-09-22 20:17:16.364071,180
2021-09-22 20:17:16.364077,80
2021-09-22 20:17:16.364082,-12
2021-09-22 20:17:16.634031,-90
2021-09-22 20:17:16.634051,-160
2021-09-22 20:17:16.634058,-221
2021-09-22 20:17:16.634064,-262
2021-09-22 20:17:16.634070,-287
2021-09-22 20:17:16.634076,-289
2021-09-22 20:17:16.634082,-274
2021-09-22 20:17:16.634088,-265
2021-09-22 20:17:16.634094,-257
2021-09-22 20:17:16.634100,-245
2021-09-22 20:17:16.634106,-228
2021-09-22 20:17:16.634111,-211
2021-09-22 20:17:16.634117,-199
2021-09-22 20:17:16.634123,-197
2021-09-22 20:17:16.634129,-187
2021-09-22 20:17:16.634135,-175
2021-09-22 20:17:16.634141,-165
2021-09-22 20:17:16.634146,-155
2021-09-22 20:17:16.634152,-148
2021-09-22 20:17:16.634158,-143
2021-09-22 20:17:16.634163,-138
2021-09-22 20:17:16.634169,-138
2021-09-22 20:17:16.634175,-138
2021-09-22 20:17:16.634181,-136
2021-09-22 20:17:16.634186,-133
2021-09-22 20:17:16.634192,-138
2021-09-22 20:17:16.634198,-143
2021-09-22 20:17:16.634204,-143
2021-09-22 20:17:16.634210,-143
2021-09-22 20:17:16.634215,-138
2021-09-22 20:17:16.858827,-131
2021-09-22 20:17:16.858844,-131
2021-09-22 20:17:16.858851,-128
2021-09-22 20:17:16.858857,-124
2021-09-22 20:17:16.858862,-111
2021-09-22 20:17:16.858868,-109
2021-09-22 20:17:16.858874,-107
2021-09-22 20:17:16.858880,-99
2021-09-22 20:17:16.858886,-109
2021-09-22 20:17:16.858892,-121
2021-09-22 20:17:16.858898,-114
2021-09-22 20:17:16.858907,-107
2021-09-22 20:17:16.858914,-107
2021-09-22 20:17:16.858919,-99
2021-09-22 20:17:16.858925,-94
2021-09-22 20:17:16.858931,-97
2021-09-22 20:17:16.858937,-94
2021-09-22 20:17:16.858943,-87
2021-09-22 20:17:16.858948,-82
2021-09-22 20:17:16.858954,-77
2021-09-22 20:17:16.858960,-77
2021-09-22 20:17:16.858966,-77
2021-09-22 20:17:16.858971,-72
2021-09-22 20:17:16.858977,-65
2021-09-22 20:17:16.858983,-63
2021-09-22 20:17:16.858989,-55
2021-09-22 20:17:16.858994,-48
2021-09-22 20:17:16.859000,-53
2021-09-22 20:17:16.859006,-55
2021-09-22 20:17:16.859012,-43
2021-09-22 20:17:17.083918,-38
2021-09-22 20:17:17.083933,-41
2021-09-22 20:17:17.083937,-46
2021-09-22 20:17:17.083940,-43
2021-09-22 20:17:17.083945,-31
2021-09-22 20:17:17.083948,-17
2021-09-22 20:17:17.083951,-7
2021-09-22 20:17:17.083955,-4
2021-09-22 20:17:17.083958,-2
2021-09-22 20:17:17.083962,2
2021-09-22 20:17:17.083965,-9
2021-09-22 20:17:17.083969,-31
2021-09-22 20:17:17.083972,-34
2021-09-22 20:17:17.083976,-24
2021-09-22 20:17:17.083979,-29
2021-09-22 20:17:17.083983,-31
2021-09-22 20:17:17.083986,-21
2021-09-22 20:17:17.083990,-21
2021-09-22 20:17:17.083993,-29
2021-09-22 20:17:17.083996,-24
2021-09-22 20:17:17.084000,17
2021-09-22 20:17:17.084003,119
2021-09-22 20:17:17.084006,316
2021-09-22 20:17:17.084010,566
2021-09-22 20:17:17.084014,562
2021-09-22 20:17:17.084017,126
2021-09-22 20:17:17.084020,-433
2021-09-22 20:17:17.084024,-742
2021-09-22 20:17:17.084027,-576
2021-09-22 20:17:17.084030,-184
2021-09-22 20:17:17.309002,-31
2021-09-22 20:17:17.309020,-4
2021-09-22 20:17:17.309027,99
2021-09-22 20:17:17.309034,148
2021-09-22 20:17:17.309040,128
2021-09-22 20:17:17.309046,150
2021-09-22 20:17:17.309052,177
2021-09-22 20:17:17.309057,172
2021-09-22 20:17:17.309063,177
2021-09-22 20:17:17.309069,194
2021-09-22 20:17:17.309075,206
2021-09-22 20:17:17.309081,214
2021-09-22 20:17:17.309087,226
2021-09-22 20:17:17.309093,236
2021-09-22 20:17:17.309099,243
2021-09-22 20:17:17.309105,262
2021-09-22 20:17:17.309111,287
2021-09-22 20:17:17.309116,316
2021-09-22 20:17:17.309122,338
2021-09-22 20:17:17.309128,357
2021-09-22 20:17:17.309134,382
2021-09-22 20:17:17.309140,406
2021-09-22 20:17:17.309146,416
2021-09-22 20:17:17.309152,420
2021-09-22 20:17:17.309157,420
2021-09-22 20:17:17.309163,401
2021-09-22 20:17:17.309169,367
2021-09-22 20:17:17.309175,326
2021-09-22 20:17:17.309181,267
2021-09-22 20:17:17.309186,192
2021-09-22 20:17:17.623967,99
2021-09-22 20:17:17.623986,0
2021-09-22 20:17:17.623993,-82
2021-09-22 20:17:17.623999,-138
2021-09-22 20:17:17.624005,-184
2021-09-22 20:17:17.624011,-223
2021-09-22 20:17:17.624017,-245
2021-09-22 20:17:17.624023,-248
2021-09-22 20:17:17.624029,-240
2021-09-22 20:17:17.624035,-223
2021-09-22 20:17:17.624041,-206
2021-09-22 20:17:17.624047,-194
2021-09-22 20:17:17.624053,-182
2021-09-22 20:17:17.624059,-165
2021-09-22 20:17:17.624065,-153
2021-09-22 20:17:17.624070,-145
2021-09-22 20:17:17.624076,-141
2021-09-22 20:17:17.624082,-133
2021-09-22 20:17:17.624088,-133
2021-09-22 20:17:17.624093,-133
2021-09-22 20:17:17.624099,-128
2021-09-22 20:17:17.624105,-126
2021-09-22 20:17:17.624111,-128
2021-09-22 20:17:17.624116,-131
2021-09-22 20:17:17.624122,-136
2021-09-22 20:17:17.624128,-138
2021-09-22 20:17:17.624134,-131
2021-09-22 20:17:17.624139,-133
2021-09-22 20:17:17.624145,-133
2021-09-22 20:17:17.624151,-126
2021-09-22 20:17:17.803963,-121
2021-09-22 20:17:17.803980,-121
2021-09-22 20:17:17.803987,-116
2021-09-22 20:17:17.803993,-114
2021-09-22 20:17:17.803999,-109
2021-09-22 20:17:17.804005,-109
2021-09-22 20:17:17.804011,-104
2021-09-22 20:17:17.804017,-94
2021-09-22 20:17:17.804023,-92
2021-09-22 20:17:17.804029,-92
2021-09-22 20:17:17.804035,-82
2021-09-22 20:17:17.804041,-80
2021-09-22 20:17:17.804047,-85
2021-09-22 20:17:17.804053,-70
2021-09-22 20:17:17.804059,-58
2021-09-22 20:17:17.804064,-68
2021-09-22 20:17:17.804070,-72
2021-09-22 20:17:17.804076,-58
2021-09-22 20:17:17.804082,-51
2021-09-22 20:17:17.804088,-51
2021-09-22 20:17:17.804094,-46
2021-09-22 20:17:17.804100,-41
2021-09-22 20:17:17.804106,-38
2021-09-22 20:17:17.804112,-31
2021-09-22 20:17:17.804117,-24
2021-09-22 20:17:17.804123,-21
2021-09-22 20:17:17.804129,-24
2021-09-22 20:17:17.804134,-19
2021-09-22 20:17:17.804140,-17
2021-09-22 20:17:17.804146,-24
2021-09-22 20:17:17.984060,-21
2021-09-22 20:17:17.984078,-12
2021-09-22 20:17:17.984085,-12
2021-09-22 20:17:17.984091,-17
2021-09-22 20:17:17.984097,-19
2021-09-22 20:17:17.984103,-26
2021-09-22 20:17:17.984109,-24
2021-09-22 20:17:17.984115,-9
2021-09-22 20:17:17.984121,2
2021-09-22 20:17:17.984126,7
2021-09-22 20:17:17.984132,7
2021-09-22 20:17:17.984138,12
2021-09-22 20:17:17.984144,12
2021-09-22 20:17:17.984150,-4
2021-09-22 20:17:17.984156,-26
2021-09-22 20:17:17.984162,-26
2021-09-22 20:17:17.984168,-29
2021-09-22 20:17:17.984173,-46
2021-09-22 20:17:17.984179,-46
2021-09-22 20:17:17.984185,-29
2021-09-22 20:17:17.984191,-31
2021-09-22 20:17:17.984197,-34
2021-09-22 20:17:17.984203,-21
2021-09-22 20:17:17.984209,21
2021-09-22 20:17:17.984215,121
2021-09-22 20:17:17.984220,316
2021-09-22 20:17:17.984226,557
2021-09-22 20:17:17.984232,540
2021-09-22 20:17:17.984237,104
2021-09-22 20:17:17.984243,-457
2021-09-22 20:17:18.297674,-764
2021-09-22 20:17:18.297692,-574
2021-09-22 20:17:18.297700,-189
2021-09-22 20:17:18.297706,-60
2021-09-22 20:17:18.297712,-36
2021-09-22 20:17:18.297760,75
2021-09-22 20:17:18.297767,121
2021-09-22 20:17:18.297773,92
2021-09-22 20:17:18.297779,99
2021-09-22 20:17:18.297785,119
2021-09-22 20:17:18.297791,119
2021-09-22 20:17:18.297796,128
2021-09-22 20:17:18.297802,145
2021-09-22 20:17:18.297808,160
2021-09-22 20:17:18.297814,172
2021-09-22 20:17:18.297820,189
2021-09-22 20:17:18.297826,206
2021-09-22 20:17:18.297832,223
2021-09-22 20:17:18.297838,240
2021-09-22 20:17:18.297843,265
2021-09-22 20:17:18.297849,291
2021-09-22 20:17:18.297856,316
2021-09-22 20:17:18.297862,335
2021-09-22 20:17:18.297867,362
2021-09-22 20:17:18.297873,399
2021-09-22 20:17:18.297879,423
2021-09-22 20:17:18.297885,428
2021-09-22 20:17:18.297891,425
2021-09-22 20:17:18.297897,413
2021-09-22 20:17:18.297902,386
2021-09-22 20:17:18.478326,345
2021-09-22 20:17:18.478343,294
2021-09-22 20:17:18.478350,221
2021-09-22 20:17:18.478357,124
2021-09-22 20:17:18.478363,38
2021-09-22 20:17:18.478369,-19
2021-09-22 20:17:18.478375,-70
2021-09-22 20:17:18.478381,-109
2021-09-22 20:17:18.478387,-126
2021-09-22 20:17:18.478393,-143
2021-09-22 20:17:18.478398,-150
2021-09-22 20:17:18.478404,-131
2021-09-22 20:17:18.478410,-111
2021-09-22 20:17:18.478416,-99
2021-09-22 20:17:18.478422,-80
2021-09-22 20:17:18.478428,-63
2021-09-22 20:17:18.478433,-53
2021-09-22 20:17:18.478439,-26
2021-09-22 20:17:18.478445,-2
2021-09-22 20:17:18.478451,12
2021-09-22 20:17:18.478456,19
2021-09-22 20:17:18.478462,29
2021-09-22 20:17:18.478468,36
2021-09-22 20:17:18.478474,48
2021-09-22 20:17:18.478480,60
2021-09-22 20:17:18.478486,68
2021-09-22 20:17:18.478491,72
2021-09-22 20:17:18.478497,75
2021-09-22 20:17:18.478502,82
2021-09-22 20:17:18.478508,94
2021-09-22 20:17:18.748996,102
2021-09-22 20:17:18.749015,104
2021-09-22 20:17:18.749022,99
2021-09-22 20:17:18.749028,90
2021-09-22 20:17:18.749034,90
2021-09-22 20:17:18.749040,92
2021-09-22 20:17:18.749046,90
2021-09-22 20:17:18.749052,94
2021-09-22 20:17:18.749058,102
2021-09-22 20:17:18.749064,102
2021-09-22 20:17:18.749070,111
2021-09-22 20:17:18.749076,116
2021-09-22 20:17:18.749082,111
2021-09-22 20:17:18.749088,111
2021-09-22 20:17:18.749093,109
2021-09-22 20:17:18.749099,102
2021-09-22 20:17:18.749105,102
2021-09-22 20:17:18.749111,107
2021-09-22 20:17:18.749117,111
2021-09-22 20:17:18.749122,114
2021-09-22 20:17:18.749128,109
2021-09-22 20:17:18.749134,104
2021-09-22 20:17:18.749140,109
2021-09-22 20:17:18.749145,109
2021-09-22 20:17:18.749151,102
2021-09-22 20:17:18.749157,102
2021-09-22 20:17:18.749162,102
2021-09-22 20:17:18.749168,97
2021-09-22 20:17:18.749174,99
2021-09-22 20:17:18.749180,99
2021-09-22 20:17:18.973288,97
2021-09-22 20:17:18.973304,97
2021-09-22 20:17:18.973311,97
2021-09-22 20:17:18.973317,85
2021-09-22 20:17:18.973323,77
2021-09-22 20:17:18.973329,85
2021-09-22 20:17:18.973335,85
2021-09-22 20:17:18.973341,70
2021-09-22 20:17:18.973347,68
2021-09-22 20:17:18.973353,80
2021-09-22 20:17:18.973359,87
2021-09-22 20:17:18.973364,94
2021-09-22 20:17:18.973370,92
2021-09-22 20:17:18.973376,65
2021-09-22 20:17:18.973382,38
2021-09-22 20:17:18.973388,38
2021-09-22 20:17:18.973394,46
2021-09-22 20:17:18.973399,43
2021-09-22 20:17:18.973405,36
2021-09-22 20:17:18.973411,34
2021-09-22 20:17:18.973417,31
2021-09-22 20:17:18.973422,29
2021-09-22 20:17:18.973428,41
2021-09-22 20:17:18.973434,92
2021-09-22 20:17:18.973440,206
2021-09-22 20:17:18.973445,420
2021-09-22 20:17:18.973451,649
2021-09-22 20:17:18.973457,552
2021-09-22 20:17:18.973463,46
2021-09-22 20:17:18.973468,-510
2021-09-22 20:17:19.154011,-722
2021-09-22 20:17:19.154030,-445
2021-09-22 20:17:19.154037,-90
2021-09-22 20:17:19.154043,-9
2021-09-22 20:17:19.154049,31
2021-09-22 20:17:19.154055,136
2021-09-22 20:17:19.154061,153
2021-09-22 20:17:19.154067,138
2021-09-22 20:17:19.154073,170
2021-09-22 20:17:19.154079,182
2021-09-22 20:17:19.154085,170
2021-09-22 20:17:19.154091,170
2021-09-22 20:17:19.154097,184
2021-09-22 20:17:19.154103,194
2021-09-22 20:17:19.154109,201
2021-09-22 20:17:19.154115,206
2021-09-22 20:17:19.154121,218
2021-09-22 20:17:19.154126,243
2021-09-22 20:17:19.154132,253
2021-09-22 20:17:19.154138,257
2021-09-22 20:17:19.154144,289
2021-09-22 20:17:19.154149,323
2021-09-22 20:17:19.154155,340
2021-09-22 20:17:19.154161,362
2021-09-22 20:17:19.154167,391
2021-09-22 20:17:19.154172,399
2021-09-22 20:17:19.154178,394
2021-09-22 20:17:19.154184,384
2021-09-22 20:17:19.154190,372
2021-09-22 20:17:19.154196,340
2021-09-22 20:17:19.378921,291
2021-09-22 20:17:19.378938,223
2021-09-22 20:17:19.378945,138
2021-09-22 20:17:19.378951,51
2021-09-22 20:17:19.378957,-29
2021-09-22 20:17:19.378963,-104
2021-09-22 20:17:19.378969,-172
2021-09-22 20:17:19.378975,-226
2021-09-22 20:17:19.378981,-245
2021-09-22 20:17:19.378987,-250
2021-09-22 20:17:19.378993,-255
2021-09-22 20:17:19.378999,-255
2021-09-22 20:17:19.379005,-248
2021-09-22 20:17:19.379010,-233
2021-09-22 20:17:19.379016,-214
2021-09-22 20:17:19.379022,-199
2021-09-22 20:17:19.379028,-189
2021-09-22 20:17:19.379034,-184
2021-09-22 20:17:19.379040,-180
2021-09-22 20:17:19.379046,-170
2021-09-22 20:17:19.379052,-155
2021-09-22 20:17:19.379058,-145
2021-09-22 20:17:19.379063,-141
2021-09-22 20:17:19.379069,-138
2021-09-22 20:17:19.379075,-143
2021-09-22 20:17:19.379081,-145
2021-09-22 20:17:19.379087,-136
2021-09-22 20:17:19.379093,-136
2021-09-22 20:17:19.379098,-141
2021-09-22 20:17:19.379104,-136
2021-09-22 20:17:19.603960,-124
2021-09-22 20:17:19.603981,-116
2021-09-22 20:17:19.603988,-116
2021-09-22 20:17:19.603994,-114
2021-09-22 20:17:19.604000,-111
2021-09-22 20:17:19.604006,-116
2021-09-22 20:17:19.604012,-124
2021-09-22 20:17:19.604018,-116
2021-09-22 20:17:19.604024,-107
2021-09-22 20:17:19.604030,-104
2021-09-22 20:17:19.604036,-94
2021-09-22 20:17:19.604042,-87
2021-09-22 20:17:19.604047,-90
2021-09-22 20:17:19.604053,-87
2021-09-22 20:17:19.604059,-80
2021-09-22 20:17:19.604065,-82
2021-09-22 20:17:19.604071,-90
2021-09-22 20:17:19.604077,-94
2021-09-22 20:17:19.604083,-94
2021-09-22 20:17:19.604088,-90
2021-09-22 20:17:19.604094,-90
2021-09-22 20:17:19.604100,-87
2021-09-22 20:17:19.604106,-80
2021-09-22 20:17:19.604112,-75
2021-09-22 20:17:19.604117,-75
2021-09-22 20:17:19.604123,-75
2021-09-22 20:17:19.604129,-68
2021-09-22 20:17:19.604135,-63
2021-09-22 20:17:19.604140,-60
2021-09-22 20:17:19.604146,-65
2021-09-22 20:17:19.828971,-70
2021-09-22 20:17:19.828988,-63
2021-09-22 20:17:19.828995,-46
2021-09-22 20:17:19.829001,-46
2021-09-22 20:17:19.829006,-58
2021-09-22 20:17:19.829012,-63
2021-09-22 20:17:19.829018,-58
2021-09-22 20:17:19.829024,-38
2021-09-22 20:17:19.829030,-21
2021-09-22 20:17:19.829036,-21
2021-09-22 20:17:19.829042,-17
2021-09-22 20:17:19.829048,-12
2021-09-22 20:17:19.829054,-34
2021-09-22 20:17:19.829059,-53
2021-09-22 20:17:19.829065,-51
2021-09-22 20:17:19.829071,-48
2021-09-22 20:17:19.829077,-48
2021-09-22 20:17:19.829083,-46
2021-09-22 20:17:19.829088,-48
2021-09-22 20:17:19.829094,-46
2021-09-22 20:17:19.829100,-38
2021-09-22 20:17:19.829106,-36
2021-09-22 20:17:19.829112,-4
2021-09-22 20:17:19.829117,99
2021-09-22 20:17:19.829123,301
2021-09-22 20:17:19.829129,549
2021-09-22 20:17:19.829135,542
2021-09-22 20:17:19.829141,97
2021-09-22 20:17:19.829146,-486
2021-09-22 20:17:19.829152,-771
2021-09-22 20:17:20.098958,-554
2021-09-22 20:17:20.098977,-172
2021-09-22 20:17:20.098985,-46
2021-09-22 20:17:20.098991,-21
2021-09-22 20:17:20.098997,82
2021-09-22 20:17:20.099003,119
2021-09-22 20:17:20.099009,99
2021-09-22 20:17:20.099015,126
2021-09-22 20:17:20.099021,153
2021-09-22 20:17:20.099026,145
2021-09-22 20:17:20.099032,145
2021-09-22 20:17:20.099038,163
2021-09-22 20:17:20.099044,175
2021-09-22 20:17:20.099050,184
2021-09-22 20:17:20.099056,199
2021-09-22 20:17:20.099062,211
2021-09-22 20:17:20.099068,223
2021-09-22 20:17:20.099073,238
2021-09-22 20:17:20.099079,260
2021-09-22 20:17:20.099085,287
2021-09-22 20:17:20.099091,311
2021-09-22 20:17:20.099097,330
2021-09-22 20:17:20.099102,345
2021-09-22 20:17:20.099108,355
2021-09-22 20:17:20.099114,362
2021-09-22 20:17:20.099119,372
2021-09-22 20:17:20.099125,369
2021-09-22 20:17:20.099131,347
2021-09-22 20:17:20.099137,306
2021-09-22 20:17:20.099143,257
2021-09-22 20:17:20.323201,201
2021-09-22 20:17:20.323218,128
2021-09-22 20:17:20.323225,34
2021-09-22 20:17:20.323231,-63
2021-09-22 20:17:20.323237,-141
2021-09-22 20:17:20.323243,-194
2021-09-22 20:17:20.323249,-231
2021-09-22 20:17:20.323255,-262
2021-09-22 20:17:20.323261,-279
2021-09-22 20:17:20.323267,-287
2021-09-22 20:17:20.323273,-279
2021-09-22 20:17:20.323279,-267
2021-09-22 20:17:20.323284,-255
2021-09-22 20:17:20.323290,-236
2021-09-22 20:17:20.323296,-223
2021-09-22 20:17:20.323302,-221
2021-09-22 20:17:20.323307,-214
2021-09-22 20:17:20.323313,-194
2021-09-22 20:17:20.323319,-180
2021-09-22 20:17:20.323324,-170
2021-09-22 20:17:20.323330,-165
2021-09-22 20:17:20.323336,-163
2021-09-22 20:17:20.323342,-160
2021-09-22 20:17:20.323347,-158
2021-09-22 20:17:20.323353,-153
2021-09-22 20:17:20.323359,-153
2021-09-22 20:17:20.323364,-163
2021-09-22 20:17:20.323370,-165
2021-09-22 20:17:20.323376,-158
2021-09-22 20:17:20.323381,-153
2021-09-22 20:17:20.593889,-148
2021-09-22 20:17:20.593931,-148
2021-09-22 20:17:20.593945,-158
2021-09-22 20:17:20.593956,-163
2021-09-22 20:17:20.593966,-153
2021-09-22 20:17:20.593977,-143
2021-09-22 20:17:20.593986,-141
2021-09-22 20:17:20.593997,-136
2021-09-22 20:17:20.594006,-133
2021-09-22 20:17:20.594016,-136
2021-09-22 20:17:20.594025,-128
2021-09-22 20:17:20.594034,-121
2021-09-22 20:17:20.594044,-121
2021-09-22 20:17:20.594055,-119
2021-09-22 20:17:20.594075,-111
2021-09-22 20:17:20.594085,-111
2021-09-22 20:17:20.594094,-109
2021-09-22 20:17:20.594102,-99
2021-09-22 20:17:20.594111,-97
2021-09-22 20:17:20.594121,-97
2021-09-22 20:17:20.594131,-92
2021-09-22 20:17:20.594140,-92
2021-09-22 20:17:20.594150,-87
2021-09-22 20:17:20.594161,-80
2021-09-22 20:17:20.594171,-80
2021-09-22 20:17:20.594181,-77
2021-09-22 20:17:20.594191,-72
2021-09-22 20:17:20.594201,-75
2021-09-22 20:17:20.594211,-90
2021-09-22 20:17:20.594221,-90
2021-09-22 20:17:20.818978,-75
2021-09-22 20:17:20.818995,-70
2021-09-22 20:17:20.819002,-82
2021-09-22 20:17:20.819008,-75
2021-09-22 20:17:20.819015,-55
2021-09-22 20:17:20.819021,-34
2021-09-22 20:17:20.819026,-24
2021-09-22 20:17:20.819033,-29
2021-09-22 20:17:20.819039,-31
2021-09-22 20:17:20.819044,-41
2021-09-22 20:17:20.819050,-58
2021-09-22 20:17:20.819056,-68
2021-09-22 20:17:20.819062,-65
2021-09-22 20:17:20.819068,-63
2021-09-22 20:17:20.819074,-70
2021-09-22 20:17:20.819080,-75
2021-09-22 20:17:20.819085,-68
2021-09-22 20:17:20.819091,-60
2021-09-22 20:17:20.819097,-53
2021-09-22 20:17:20.819103,-36
2021-09-22 20:17:20.819109,19
2021-09-22 20:17:20.819114,141
2021-09-22 20:17:20.819120,360
2021-09-22 20:17:20.819126,579
2021-09-22 20:17:20.819132,457
2021-09-22 20:17:20.819138,-58
2021-09-22 20:17:20.819143,-598
2021-09-22 20:17:20.819149,-761
2021-09-22 20:17:20.819155,-452
2021-09-22 20:17:20.819161,-116
2021-09-22 20:17:20.998920,-51
2021-09-22 20:17:20.998935,-2
2021-09-22 20:17:20.998942,97
2021-09-22 20:17:20.998949,109
2021-09-22 20:17:20.998955,102
2021-09-22 20:17:20.998961,136
2021-09-22 20:17:20.998967,148
2021-09-22 20:17:20.998973,138
2021-09-22 20:17:20.998979,148
2021-09-22 20:17:20.998985,163
2021-09-22 20:17:20.998991,172
2021-09-22 20:17:20.998997,187
2021-09-22 20:17:20.999002,209
2021-09-22 20:17:20.999008,221
2021-09-22 20:17:20.999014,236
2021-09-22 20:17:20.999020,255
2021-09-22 20:17:20.999026,274
2021-09-22 20:17:20.999031,294
2021-09-22 20:17:20.999037,318
2021-09-22 20:17:20.999043,340
2021-09-22 20:17:20.999048,355
2021-09-22 20:17:20.999054,372
2021-09-22 20:17:20.999060,386
2021-09-22 20:17:20.999066,391
2021-09-22 20:17:20.999072,379
2021-09-22 20:17:20.999078,355
2021-09-22 20:17:20.999083,318
2021-09-22 20:17:20.999089,270
2021-09-22 20:17:20.999095,206
2021-09-22 20:17:20.999101,114
2021-09-22 20:17:21.223999,14
2021-09-22 20:17:21.224018,-70
2021-09-22 20:17:21.224025,-143
2021-09-22 20:17:21.224031,-214
2021-09-22 20:17:21.224037,-262
2021-09-22 20:17:21.224043,-282
2021-09-22 20:17:21.224049,-291
2021-09-22 20:17:21.224055,-296
2021-09-22 20:17:21.224061,-284
2021-09-22 20:17:21.224067,-267
2021-09-22 20:17:21.224073,-260
2021-09-22 20:17:21.224079,-250
2021-09-22 20:17:21.224085,-238
2021-09-22 20:17:21.224091,-233
2021-09-22 20:17:21.224096,-226
2021-09-22 20:17:21.224102,-211
2021-09-22 20:17:21.224108,-199
2021-09-22 20:17:21.224114,-192
2021-09-22 20:17:21.224120,-184
2021-09-22 20:17:21.224126,-180
2021-09-22 20:17:21.224131,-172
2021-09-22 20:17:21.224137,-167
2021-09-22 20:17:21.224143,-170
2021-09-22 20:17:21.224148,-167
2021-09-22 20:17:21.224154,-158
2021-09-22 20:17:21.224160,-158
2021-09-22 20:17:21.224165,-160
2021-09-22 20:17:21.224171,-158
2021-09-22 20:17:21.224177,-155
2021-09-22 20:17:21.224183,-155
2021-09-22 20:17:21.493947,-148
2021-09-22 20:17:21.493963,-143
2021-09-22 20:17:21.493971,-143
2021-09-22 20:17:21.493977,-138
2021-09-22 20:17:21.493983,-136
2021-09-22 20:17:21.493989,-138
2021-09-22 20:17:21.493995,-143
2021-09-22 20:17:21.494001,-143
2021-09-22 20:17:21.494063,-133
2021-09-22 20:17:21.494071,-126
2021-09-22 20:17:21.494077,-121
2021-09-22 20:17:21.494083,-119
2021-09-22 20:17:21.494089,-121
2021-09-22 20:17:21.494095,-116
2021-09-22 20:17:21.494100,-107
2021-09-22 20:17:21.494106,-102
2021-09-22 20:17:21.494112,-102
2021-09-22 20:17:21.494118,-102
2021-09-22 20:17:21.494124,-97
2021-09-22 20:17:21.494130,-90
2021-09-22 20:17:21.494136,-87
2021-09-22 20:17:21.494141,-80
2021-09-22 20:17:21.494147,-72
2021-09-22 20:17:21.494153,-77
2021-09-22 20:17:21.494159,-82
2021-09-22 20:17:21.494165,-75
2021-09-22 20:17:21.494171,-65
2021-09-22 20:17:21.494177,-63
2021-09-22 20:17:21.494183,-63
2021-09-22 20:17:21.494188,-68
2021-09-22 20:17:21.719067,-63
2021-09-22 20:17:21.719086,-46
2021-09-22 20:17:21.719093,-26
2021-09-22 20:17:21.719099,-19
2021-09-22 20:17:21.719105,-19
2021-09-22 20:17:21.719111,-12
2021-09-22 20:17:21.719117,-14
2021-09-22 20:17:21.719123,-36
2021-09-22 20:17:21.719129,-55
2021-09-22 20:17:21.719135,-68
2021-09-22 20:17:21.719141,-72
2021-09-22 20:17:21.719147,-75
2021-09-22 20:17:21.719152,-77
2021-09-22 20:17:21.719158,-72
2021-09-22 20:17:21.719164,-63
2021-09-22 20:17:21.719170,-58
2021-09-22 20:17:21.719176,-55
2021-09-22 20:17:21.719181,-36
2021-09-22 20:17:21.719187,46
2021-09-22 20:17:21.719193,218
2021-09-22 20:17:21.719199,472
2021-09-22 20:17:21.719205,583
2021-09-22 20:17:21.719211,262
2021-09-22 20:17:21.719217,-326
2021-09-22 20:17:21.719222,-742
2021-09-22 20:17:21.719228,-681
2021-09-22 20:17:21.719234,-291
2021-09-22 20:17:21.719240,-70
2021-09-22 20:17:21.719246,-41
2021-09-22 20:17:21.719252,53
2021-09-22 20:17:21.943910,126
2021-09-22 20:17:21.943926,109
2021-09-22 20:17:21.943933,119
2021-09-22 20:17:21.943939,153
2021-09-22 20:17:21.943945,155
2021-09-22 20:17:21.943951,153
2021-09-22 20:17:21.943957,172
2021-09-22 20:17:21.943963,187
2021-09-22 20:17:21.943969,187
2021-09-22 20:17:21.943975,199
2021-09-22 20:17:21.943981,218
2021-09-22 20:17:21.943986,231
2021-09-22 20:17:21.943992,243
2021-09-22 20:17:21.943998,267
2021-09-22 20:17:21.944004,296
2021-09-22 20:17:21.944010,318
2021-09-22 20:17:21.944016,335
2021-09-22 20:17:21.944021,352
2021-09-22 20:17:21.944027,377
2021-09-22 20:17:21.944033,399
2021-09-22 20:17:21.944039,403
2021-09-22 20:17:21.944045,396
2021-09-22 20:17:21.944050,384
2021-09-22 20:17:21.944056,360
2021-09-22 20:17:21.944062,318
2021-09-22 20:17:21.944068,262
2021-09-22 20:17:21.944074,187
2021-09-22 20:17:21.944080,94
2021-09-22 20:17:21.944085,-4
2021-09-22 20:17:21.944091,-85
