Time,ECG
2021-09-22 20:06:50.190770,-160
2021-09-22 20:06:50.190787,-209
2021-09-22 20:06:50.190794,-238
2021-09-22 20:06:50.190800,-250
2021-09-22 20:06:50.190806,-255
2021-09-22 20:06:50.190812,-255
2021-09-22 20:06:50.190818,-257
2021-09-22 20:06:50.190824,-253
2021-09-22 20:06:50.190829,-238
2021-09-22 20:06:50.190836,-221
2021-09-22 20:06:50.190841,-201
2021-09-22 20:06:50.190847,-182
2021-09-22 20:06:50.190853,-170
2021-09-22 20:06:50.190858,-163
2021-09-22 20:06:50.190864,-150
2021-09-22 20:06:50.190870,-136
2021-09-22 20:06:50.190876,-126
2021-09-22 20:06:50.190882,-114
2021-09-22 20:06:50.190887,-107
2021-09-22 20:06:50.190893,-109
2021-09-22 20:06:50.190899,-109
2021-09-22 20:06:50.190904,-102
2021-09-22 20:06:50.190910,-99
2021-09-22 20:06:50.190916,-102
2021-09-22 20:06:50.190922,-97
2021-09-22 20:06:50.190927,-94
2021-09-22 20:06:50.190933,-97
2021-09-22 20:06:50.190939,-99
2021-09-22 20:06:50.190945,-94
2021-09-22 20:06:50.190950,-92
2021-09-22 20:06:50.226139,-92
2021-09-22 20:06:50.226153,-87
2021-09-22 20:06:50.226160,-80
2021-09-22 20:06:50.226166,-77
2021-09-22 20:06:50.226172,-75
2021-09-22 20:06:50.226177,-77
2021-09-22 20:06:50.226184,-85
2021-09-22 20:06:50.226190,-90
2021-09-22 20:06:50.226195,-97
2021-09-22 20:06:50.226201,-104
2021-09-22 20:06:50.226207,-97
2021-09-22 20:06:50.226213,-85
2021-09-22 20:06:50.226218,-82
2021-09-22 20:06:50.226224,-77
2021-09-22 20:06:50.226230,-72
2021-09-22 20:06:50.226235,-77
2021-09-22 20:06:50.226241,-80
2021-09-22 20:06:50.226248,-80
2021-09-22 20:06:50.226253,-75
2021-09-22 20:06:50.226259,-53
2021-09-22 20:06:50.226265,-34
2021-09-22 20:06:50.226271,-38
2021-09-22 20:06:50.226277,-46
2021-09-22 20:06:50.226282,-31
2021-09-22 20:06:50.226288,-24
2021-09-22 20:06:50.226294,-48
2021-09-22 20:06:50.226300,-75
2021-09-22 20:06:50.226305,-82
2021-09-22 20:06:50.226311,-80
2021-09-22 20:06:50.226318,-82
2021-09-22 20:06:50.496184,-80
2021-09-22 20:06:50.496201,-70
2021-09-22 20:06:50.496208,-68
2021-09-22 20:06:50.496214,-70
2021-09-22 20:06:50.496220,-48
2021-09-22 20:06:50.496226,17
2021-09-22 20:06:50.496232,141
2021-09-22 20:06:50.496238,343
2021-09-22 20:06:50.496244,469
2021-09-22 20:06:50.496249,184
2021-09-22 20:06:50.496255,-335
2021-09-22 20:06:50.496261,-681
2021-09-22 20:06:50.496267,-776
2021-09-22 20:06:50.496276,-491
2021-09-22 20:06:50.496282,-102
2021-09-22 20:06:50.496287,-14
2021-09-22 20:06:50.496293,12
2021-09-22 20:06:50.496299,102
2021-09-22 20:06:50.496305,111
2021-09-22 20:06:50.496310,102
2021-09-22 20:06:50.496316,143
2021-09-22 20:06:50.496322,163
2021-09-22 20:06:50.496328,153
2021-09-22 20:06:50.496333,163
2021-09-22 20:06:50.496339,180
2021-09-22 20:06:50.496345,187
2021-09-22 20:06:50.496351,197
2021-09-22 20:06:50.496357,206
2021-09-22 20:06:50.496362,218
2021-09-22 20:06:50.496370,236
2021-09-22 20:06:50.676144,257
2021-09-22 20:06:50.676161,279
2021-09-22 20:06:50.676168,304
2021-09-22 20:06:50.676174,333
2021-09-22 20:06:50.676181,364
2021-09-22 20:06:50.676187,389
2021-09-22 20:06:50.676193,418
2021-09-22 20:06:50.676199,442
2021-09-22 20:06:50.676205,450
2021-09-22 20:06:50.676211,442
2021-09-22 20:06:50.676217,425
2021-09-22 20:06:50.676222,382
2021-09-22 20:06:50.676228,306
2021-09-22 20:06:50.676234,201
2021-09-22 20:06:50.676240,80
2021-09-22 20:06:50.676246,-34
2021-09-22 20:06:50.676252,-124
2021-09-22 20:06:50.676261,-192
2021-09-22 20:06:50.676267,-236
2021-09-22 20:06:50.676273,-255
2021-09-22 20:06:50.676279,-265
2021-09-22 20:06:50.676284,-272
2021-09-22 20:06:50.676290,-270
2021-09-22 20:06:50.676296,-257
2021-09-22 20:06:50.676302,-245
2021-09-22 20:06:50.676307,-233
2021-09-22 20:06:50.676313,-221
2021-09-22 20:06:50.676319,-209
2021-09-22 20:06:50.676325,-194
2021-09-22 20:06:50.676330,-177
2021-09-22 20:06:50.901197,-163
2021-09-22 20:06:50.901214,-150
2021-09-22 20:06:50.901221,-141
2021-09-22 20:06:50.901227,-141
2021-09-22 20:06:50.901233,-138
2021-09-22 20:06:50.901239,-126
2021-09-22 20:06:50.901245,-114
2021-09-22 20:06:50.901256,-104
2021-09-22 20:06:50.901262,-104
2021-09-22 20:06:50.901268,-114
2021-09-22 20:06:50.901273,-119
2021-09-22 20:06:50.901279,-111
2021-09-22 20:06:50.901285,-104
2021-09-22 20:06:50.901291,-109
2021-09-22 20:06:50.901297,-116
2021-09-22 20:06:50.901303,-114
2021-09-22 20:06:50.901308,-107
2021-09-22 20:06:50.901314,-104
2021-09-22 20:06:50.901320,-99
2021-09-22 20:06:50.901326,-92
2021-09-22 20:06:50.901332,-90
2021-09-22 20:06:50.901337,-92
2021-09-22 20:06:50.901343,-90
2021-09-22 20:06:50.901349,-82
2021-09-22 20:06:50.901355,-75
2021-09-22 20:06:50.901360,-72
2021-09-22 20:06:50.901366,-70
2021-09-22 20:06:50.901372,-70
2021-09-22 20:06:50.901378,-68
2021-09-22 20:06:50.901385,-60
2021-09-22 20:06:51.215437,-55
2021-09-22 20:06:51.215455,-58
2021-09-22 20:06:51.215462,-63
2021-09-22 20:06:51.215468,-68
2021-09-22 20:06:51.215473,-65
2021-09-22 20:06:51.215479,-55
2021-09-22 20:06:51.215485,-53
2021-09-22 20:06:51.215491,-60
2021-09-22 20:06:51.215497,-63
2021-09-22 20:06:51.215503,-60
2021-09-22 20:06:51.215509,-46
2021-09-22 20:06:51.215514,-29
2021-09-22 20:06:51.215520,-31
2021-09-22 20:06:51.215526,-31
2021-09-22 20:06:51.215532,-21
2021-09-22 20:06:51.215537,-41
2021-09-22 20:06:51.215543,-70
2021-09-22 20:06:51.215549,-72
2021-09-22 20:06:51.215555,-65
2021-09-22 20:06:51.215560,-68
2021-09-22 20:06:51.215566,-77
2021-09-22 20:06:51.215572,-82
2021-09-22 20:06:51.215577,-75
2021-09-22 20:06:51.215583,-65
2021-09-22 20:06:51.215593,-60
2021-09-22 20:06:51.215599,-43
2021-09-22 20:06:51.215605,14
2021-09-22 20:06:51.215611,128
2021-09-22 20:06:51.215616,340
2021-09-22 20:06:51.215622,535
2021-09-22 20:06:51.396211,384
2021-09-22 20:06:51.396229,-119
2021-09-22 20:06:51.396236,-596
2021-09-22 20:06:51.396242,-747
2021-09-22 20:06:51.396248,-464
2021-09-22 20:06:51.396254,-111
2021-09-22 20:06:51.396260,-26
2021-09-22 20:06:51.396266,12
2021-09-22 20:06:51.396272,107
2021-09-22 20:06:51.396278,114
2021-09-22 20:06:51.396284,104
2021-09-22 20:06:51.396290,138
2021-09-22 20:06:51.396296,155
2021-09-22 20:06:51.396302,150
2021-09-22 20:06:51.396307,155
2021-09-22 20:06:51.396313,165
2021-09-22 20:06:51.396319,175
2021-09-22 20:06:51.396325,184
2021-09-22 20:06:51.396330,197
2021-09-22 20:06:51.396336,211
2021-09-22 20:06:51.396342,228
2021-09-22 20:06:51.396348,248
2021-09-22 20:06:51.396355,274
2021-09-22 20:06:51.396361,306
2021-09-22 20:06:51.396367,335
2021-09-22 20:06:51.396373,364
2021-09-22 20:06:51.396378,394
2021-09-22 20:06:51.396384,418
2021-09-22 20:06:51.396390,435
2021-09-22 20:06:51.396395,445
2021-09-22 20:06:51.621226,442
2021-09-22 20:06:51.621245,418
2021-09-22 20:06:51.621252,372
2021-09-22 20:06:51.621258,306
2021-09-22 20:06:51.621264,216
2021-09-22 20:06:51.621270,107
2021-09-22 20:06:51.621276,2
2021-09-22 20:06:51.621282,-90
2021-09-22 20:06:51.621288,-165
2021-09-22 20:06:51.621294,-214
2021-09-22 20:06:51.621300,-238
2021-09-22 20:06:51.621306,-250
2021-09-22 20:06:51.621311,-257
2021-09-22 20:06:51.621317,-260
2021-09-22 20:06:51.621323,-257
2021-09-22 20:06:51.621329,-243
2021-09-22 20:06:51.621334,-226
2021-09-22 20:06:51.621340,-209
2021-09-22 20:06:51.621346,-194
2021-09-22 20:06:51.621352,-182
2021-09-22 20:06:51.621358,-172
2021-09-22 20:06:51.621363,-160
2021-09-22 20:06:51.621369,-143
2021-09-22 20:06:51.621375,-131
2021-09-22 20:06:51.621383,-124
2021-09-22 20:06:51.621389,-121
2021-09-22 20:06:51.621395,-128
2021-09-22 20:06:51.621401,-126
2021-09-22 20:06:51.621407,-116
2021-09-22 20:06:51.621413,-114
2021-09-22 20:06:51.889833,-116
2021-09-22 20:06:51.889852,-114
2021-09-22 20:06:51.889859,-114
2021-09-22 20:06:51.889865,-114
2021-09-22 20:06:51.889871,-109
2021-09-22 20:06:51.889877,-107
2021-09-22 20:06:51.889882,-109
2021-09-22 20:06:51.889888,-114
2021-09-22 20:06:51.889894,-111
2021-09-22 20:06:51.889900,-107
2021-09-22 20:06:51.889906,-99
2021-09-22 20:06:51.889911,-94
2021-09-22 20:06:51.889917,-97
2021-09-22 20:06:51.889923,-99
2021-09-22 20:06:51.889929,-94
2021-09-22 20:06:51.889935,-87
2021-09-22 20:06:51.889940,-85
2021-09-22 20:06:51.889946,-82
2021-09-22 20:06:51.889952,-80
2021-09-22 20:06:51.889957,-82
2021-09-22 20:06:51.889963,-82
2021-09-22 20:06:51.889969,-80
2021-09-22 20:06:51.889975,-80
2021-09-22 20:06:51.889980,-77
2021-09-22 20:06:51.889986,-75
2021-09-22 20:06:51.889992,-75
2021-09-22 20:06:51.889998,-72
2021-09-22 20:06:51.890004,-65
2021-09-22 20:06:51.890009,-63
2021-09-22 20:06:51.890015,-68
2021-09-22 20:06:52.071403,-77
2021-09-22 20:06:52.071423,-77
2021-09-22 20:06:52.071430,-72
2021-09-22 20:06:52.071436,-58
2021-09-22 20:06:52.071442,-41
2021-09-22 20:06:52.071448,-38
2021-09-22 20:06:52.071454,-46
2021-09-22 20:06:52.071460,-38
2021-09-22 20:06:52.071466,-46
2021-09-22 20:06:52.071472,-68
2021-09-22 20:06:52.071478,-75
2021-09-22 20:06:52.071484,-72
2021-09-22 20:06:52.071489,-77
2021-09-22 20:06:52.071495,-77
2021-09-22 20:06:52.071502,-70
2021-09-22 20:06:52.071508,-70
2021-09-22 20:06:52.071514,-68
2021-09-22 20:06:52.071520,-63
2021-09-22 20:06:52.071526,-46
2021-09-22 20:06:52.071532,14
2021-09-22 20:06:52.071538,138
2021-09-22 20:06:52.071544,362
2021-09-22 20:06:52.071550,569
2021-09-22 20:06:52.071555,403
2021-09-22 20:06:52.071561,-119
2021-09-22 20:06:52.071567,-601
2021-09-22 20:06:52.071573,-732
2021-09-22 20:06:52.071579,-435
2021-09-22 20:06:52.071584,-99
2021-09-22 20:06:52.071590,-26
2021-09-22 20:06:52.296172,24
2021-09-22 20:06:52.296190,116
2021-09-22 20:06:52.296198,104
2021-09-22 20:06:52.296204,77
2021-09-22 20:06:52.296210,111
2021-09-22 20:06:52.296215,126
2021-09-22 20:06:52.296221,94
2021-09-22 20:06:52.296227,107
2021-09-22 20:06:52.296233,182
2021-09-22 20:06:52.296239,218
2021-09-22 20:06:52.296249,204
2021-09-22 20:06:52.296255,204
2021-09-22 20:06:52.296261,221
2021-09-22 20:06:52.296267,231
2021-09-22 20:06:52.296272,250
2021-09-22 20:06:52.296278,274
2021-09-22 20:06:52.296284,299
2021-09-22 20:06:52.296290,328
2021-09-22 20:06:52.296296,357
2021-09-22 20:06:52.296301,384
2021-09-22 20:06:52.296307,408
2021-09-22 20:06:52.296313,425
2021-09-22 20:06:52.296318,418
2021-09-22 20:06:52.296324,420
2021-09-22 20:06:52.296330,435
2021-09-22 20:06:52.296336,391
2021-09-22 20:06:52.296341,294
2021-09-22 20:06:52.296347,199
2021-09-22 20:06:52.296352,97
2021-09-22 20:06:52.296358,-4
2021-09-22 20:06:52.521268,-82
2021-09-22 20:06:52.521287,-148
2021-09-22 20:06:52.521293,-204
2021-09-22 20:06:52.521299,-240
2021-09-22 20:06:52.521304,-255
2021-09-22 20:06:52.521310,-260
2021-09-22 20:06:52.521316,-255
2021-09-22 20:06:52.521321,-243
2021-09-22 20:06:52.521327,-226
2021-09-22 20:06:52.521332,-206
2021-09-22 20:06:52.521337,-204
2021-09-22 20:06:52.521343,-209
2021-09-22 20:06:52.521349,-199
2021-09-22 20:06:52.521355,-177
2021-09-22 20:06:52.521361,-155
2021-09-22 20:06:52.521366,-138
2021-09-22 20:06:52.521372,-128
2021-09-22 20:06:52.521378,-116
2021-09-22 20:06:52.521384,-97
2021-09-22 20:06:52.521390,-92
2021-09-22 20:06:52.521395,-111
2021-09-22 20:06:52.521401,-124
2021-09-22 20:06:52.521407,-114
2021-09-22 20:06:52.521413,-102
2021-09-22 20:06:52.521419,-104
2021-09-22 20:06:52.521429,-111
2021-09-22 20:06:52.521435,-97
2021-09-22 20:06:52.521441,-82
2021-09-22 20:06:52.521446,-109
2021-09-22 20:06:52.521452,-136
2021-09-22 20:06:52.791285,-116
2021-09-22 20:06:52.791305,-87
2021-09-22 20:06:52.791312,-92
2021-09-22 20:06:52.791318,-99
2021-09-22 20:06:52.791324,-82
2021-09-22 20:06:52.791330,-75
2021-09-22 20:06:52.791336,-82
2021-09-22 20:06:52.791342,-90
2021-09-22 20:06:52.791348,-99
2021-09-22 20:06:52.791353,-107
2021-09-22 20:06:52.791359,-104
2021-09-22 20:06:52.791365,-97
2021-09-22 20:06:52.791371,-92
2021-09-22 20:06:52.791376,-87
2021-09-22 20:06:52.791382,-85
2021-09-22 20:06:52.791388,-87
2021-09-22 20:06:52.791394,-85
2021-09-22 20:06:52.791399,-72
2021-09-22 20:06:52.791405,-70
2021-09-22 20:06:52.791411,-75
2021-09-22 20:06:52.791416,-77
2021-09-22 20:06:52.791422,-87
2021-09-22 20:06:52.791428,-92
2021-09-22 20:06:52.791433,-75
2021-09-22 20:06:52.791439,-41
2021-09-22 20:06:52.791444,-29
2021-09-22 20:06:52.791450,-41
2021-09-22 20:06:52.791456,-36
2021-09-22 20:06:52.791461,-26
2021-09-22 20:06:52.791467,-46
2021-09-22 20:06:53.016217,-72
2021-09-22 20:06:53.016236,-75
2021-09-22 20:06:53.016243,-63
2021-09-22 20:06:53.016249,-63
2021-09-22 20:06:53.016255,-68
2021-09-22 20:06:53.016261,-68
2021-09-22 20:06:53.016267,-60
2021-09-22 20:06:53.016273,-60
2021-09-22 20:06:53.016279,-58
2021-09-22 20:06:53.016285,-36
2021-09-22 20:06:53.016291,41
2021-09-22 20:06:53.016297,197
2021-09-22 20:06:53.016303,450
2021-09-22 20:06:53.016308,608
2021-09-22 20:06:53.016314,330
2021-09-22 20:06:53.016320,-262
2021-09-22 20:06:53.016329,-712
2021-09-22 20:06:53.016335,-705
2021-09-22 20:06:53.016341,-311
2021-09-22 20:06:53.016347,-43
2021-09-22 20:06:53.016353,-24
2021-09-22 20:06:53.016359,43
2021-09-22 20:06:53.016365,121
2021-09-22 20:06:53.016370,111
2021-09-22 20:06:53.016376,116
2021-09-22 20:06:53.016382,148
2021-09-22 20:06:53.016387,148
2021-09-22 20:06:53.016393,153
2021-09-22 20:06:53.016399,184
2021-09-22 20:06:53.016405,197
2021-09-22 20:06:53.241193,197
2021-09-22 20:06:53.241211,209
2021-09-22 20:06:53.241218,216
2021-09-22 20:06:53.241224,223
2021-09-22 20:06:53.241230,245
2021-09-22 20:06:53.241236,274
2021-09-22 20:06:53.241242,299
2021-09-22 20:06:53.241248,328
2021-09-22 20:06:53.241254,355
2021-09-22 20:06:53.241260,379
2021-09-22 20:06:53.241266,406
2021-09-22 20:06:53.241271,435
2021-09-22 20:06:53.241277,440
2021-09-22 20:06:53.241283,428
2021-09-22 20:06:53.241288,408
2021-09-22 20:06:53.241294,382
2021-09-22 20:06:53.241300,335
2021-09-22 20:06:53.241306,262
2021-09-22 20:06:53.241312,167
2021-09-22 20:06:53.241317,58
2021-09-22 20:06:53.241323,-48
2021-09-22 20:06:53.241329,-136
2021-09-22 20:06:53.241335,-194
2021-09-22 20:06:53.241340,-228
2021-09-22 20:06:53.241346,-253
2021-09-22 20:06:53.241352,-265
2021-09-22 20:06:53.241357,-270
2021-09-22 20:06:53.241363,-277
2021-09-22 20:06:53.241369,-265
2021-09-22 20:06:53.241375,-228
2021-09-22 20:06:53.556195,-201
2021-09-22 20:06:53.556215,-194
2021-09-22 20:06:53.556222,-187
2021-09-22 20:06:53.556228,-175
2021-09-22 20:06:53.556233,-165
2021-09-22 20:06:53.556239,-153
2021-09-22 20:06:53.556245,-141
2021-09-22 20:06:53.556251,-141
2021-09-22 20:06:53.556257,-141
2021-09-22 20:06:53.556262,-131
2021-09-22 20:06:53.556268,-119
2021-09-22 20:06:53.556274,-114
2021-09-22 20:06:53.556279,-116
2021-09-22 20:06:53.556290,-119
2021-09-22 20:06:53.556296,-119
2021-09-22 20:06:53.556302,-116
2021-09-22 20:06:53.556308,-116
2021-09-22 20:06:53.556313,-116
2021-09-22 20:06:53.556319,-128
2021-09-22 20:06:53.556325,-148
2021-09-22 20:06:53.556330,-124
2021-09-22 20:06:53.556336,-72
2021-09-22 20:06:53.556342,-58
2021-09-22 20:06:53.556347,-68
2021-09-22 20:06:53.556353,-65
2021-09-22 20:06:53.556359,-70
2021-09-22 20:06:53.556365,-80
2021-09-22 20:06:53.556370,-82
2021-09-22 20:06:53.556376,-77
2021-09-22 20:06:53.556382,-75
2021-09-22 20:06:53.736216,-70
2021-09-22 20:06:53.736233,-60
2021-09-22 20:06:53.736241,-53
2021-09-22 20:06:53.736247,-58
2021-09-22 20:06:53.736253,-58
2021-09-22 20:06:53.736259,-51
2021-09-22 20:06:53.736265,-63
2021-09-22 20:06:53.736271,-85
2021-09-22 20:06:53.736277,-97
2021-09-22 20:06:53.736283,-85
2021-09-22 20:06:53.736288,-80
2021-09-22 20:06:53.736294,-87
2021-09-22 20:06:53.736300,-68
2021-09-22 20:06:53.736306,-36
2021-09-22 20:06:53.736312,-36
2021-09-22 20:06:53.736317,-34
2021-09-22 20:06:53.736323,-26
2021-09-22 20:06:53.736329,-55
2021-09-22 20:06:53.736334,-85
2021-09-22 20:06:53.736340,-82
2021-09-22 20:06:53.736346,-68
2021-09-22 20:06:53.736352,-68
2021-09-22 20:06:53.736358,-70
2021-09-22 20:06:53.736364,-68
2021-09-22 20:06:53.736370,-72
2021-09-22 20:06:53.736376,-75
2021-09-22 20:06:53.736381,-63
2021-09-22 20:06:53.736387,-19
2021-09-22 20:06:53.736393,77
2021-09-22 20:06:53.736399,274
2021-09-22 20:06:54.049942,542
2021-09-22 20:06:54.049961,566
2021-09-22 20:06:54.049968,138
2021-09-22 20:06:54.049974,-452
2021-09-22 20:06:54.049981,-759
2021-09-22 20:06:54.049987,-562
2021-09-22 20:06:54.049992,-175
2021-09-22 20:06:54.049998,-36
2021-09-22 20:06:54.050004,-12
2021-09-22 20:06:54.050010,72
2021-09-22 20:06:54.050016,109
2021-09-22 20:06:54.050022,99
2021-09-22 20:06:54.050027,124
2021-09-22 20:06:54.050033,141
2021-09-22 20:06:54.050039,141
2021-09-22 20:06:54.050045,158
2021-09-22 20:06:54.050051,177
2021-09-22 20:06:54.050059,177
2021-09-22 20:06:54.050065,184
2021-09-22 20:06:54.050071,211
2021-09-22 20:06:54.050077,233
2021-09-22 20:06:54.050083,231
2021-09-22 20:06:54.050088,236
2021-09-22 20:06:54.050094,267
2021-09-22 20:06:54.050100,301
2021-09-22 20:06:54.050105,333
2021-09-22 20:06:54.050111,374
2021-09-22 20:06:54.050117,411
2021-09-22 20:06:54.050123,428
2021-09-22 20:06:54.050129,445
2021-09-22 20:06:54.141237,455
2021-09-22 20:06:54.141256,447
2021-09-22 20:06:54.141263,430
2021-09-22 20:06:54.141269,399
2021-09-22 20:06:54.141275,335
2021-09-22 20:06:54.141281,233
2021-09-22 20:06:54.141287,121
2021-09-22 20:06:54.141293,21
2021-09-22 20:06:54.141299,-70
2021-09-22 20:06:54.141305,-155
2021-09-22 20:06:54.141311,-211
2021-09-22 20:06:54.141317,-245
2021-09-22 20:06:54.141322,-262
2021-09-22 20:06:54.141328,-265
2021-09-22 20:06:54.141334,-262
2021-09-22 20:06:54.141340,-267
2021-09-22 20:06:54.141346,-265
2021-09-22 20:06:54.141352,-257
2021-09-22 20:06:54.141358,-243
2021-09-22 20:06:54.141364,-209
2021-09-22 20:06:54.141369,-177
2021-09-22 20:06:54.141375,-167
2021-09-22 20:06:54.141381,-163
2021-09-22 20:06:54.141387,-153
2021-09-22 20:06:54.141393,-150
2021-09-22 20:06:54.141398,-148
2021-09-22 20:06:54.141404,-136
2021-09-22 20:06:54.141410,-131
2021-09-22 20:06:54.141416,-126
2021-09-22 20:06:54.141422,-124
2021-09-22 20:06:54.500733,-124
2021-09-22 20:06:54.500754,-119
2021-09-22 20:06:54.500761,-119
2021-09-22 20:06:54.500767,-128
2021-09-22 20:06:54.500773,-126
2021-09-22 20:06:54.500779,-116
2021-09-22 20:06:54.500784,-116
2021-09-22 20:06:54.500790,-116
2021-09-22 20:06:54.500796,-109
2021-09-22 20:06:54.500802,-109
2021-09-22 20:06:54.500807,-111
2021-09-22 20:06:54.500813,-119
2021-09-22 20:06:54.500819,-121
2021-09-22 20:06:54.500825,-119
2021-09-22 20:06:54.500831,-109
2021-09-22 20:06:54.500836,-97
2021-09-22 20:06:54.500842,-97
2021-09-22 20:06:54.500848,-109
2021-09-22 20:06:54.500854,-116
2021-09-22 20:06:54.500859,-114
2021-09-22 20:06:54.500865,-90
2021-09-22 20:06:54.500871,-65
2021-09-22 20:06:54.500877,-75
2021-09-22 20:06:54.500882,-90
2021-09-22 20:06:54.500888,-80
2021-09-22 20:06:54.500894,-75
2021-09-22 20:06:54.500899,-82
2021-09-22 20:06:54.500905,-82
2021-09-22 20:06:54.500911,-87
2021-09-22 20:06:54.500920,-92
2021-09-22 20:06:54.635597,-82
2021-09-22 20:06:54.635614,-53
2021-09-22 20:06:54.635621,-26
2021-09-22 20:06:54.635627,-19
2021-09-22 20:06:54.635633,-24
2021-09-22 20:06:54.635640,-36
2021-09-22 20:06:54.635646,-53
2021-09-22 20:06:54.635652,-60
2021-09-22 20:06:54.635658,-58
2021-09-22 20:06:54.635663,-53
2021-09-22 20:06:54.635669,-68
2021-09-22 20:06:54.635675,-82
2021-09-22 20:06:54.635681,-58
2021-09-22 20:06:54.635686,-34
2021-09-22 20:06:54.635692,-48
2021-09-22 20:06:54.635698,-53
2021-09-22 20:06:54.635703,-2
2021-09-22 20:06:54.635709,92
2021-09-22 20:06:54.635715,272
2021-09-22 20:06:54.635721,532
2021-09-22 20:06:54.635727,564
2021-09-22 20:06:54.635733,155
2021-09-22 20:06:54.635738,-418
2021-09-22 20:06:54.635744,-737
2021-09-22 20:06:54.635750,-554
2021-09-22 20:06:54.635756,-170
2021-09-22 20:06:54.635762,-26
2021-09-22 20:06:54.635767,0
2021-09-22 20:06:54.635773,92
2021-09-22 20:06:54.635779,121
2021-09-22 20:06:54.861146,92
2021-09-22 20:06:54.861163,114
2021-09-22 20:06:54.861170,143
2021-09-22 20:06:54.861176,133
2021-09-22 20:06:54.861182,128
2021-09-22 20:06:54.861188,150
2021-09-22 20:06:54.861194,175
2021-09-22 20:06:54.861200,192
2021-09-22 20:06:54.861205,206
2021-09-22 20:06:54.861211,214
2021-09-22 20:06:54.861217,221
2021-09-22 20:06:54.861223,248
2021-09-22 20:06:54.861229,282
2021-09-22 20:06:54.861235,304
2021-09-22 20:06:54.861241,326
2021-09-22 20:06:54.861247,352
2021-09-22 20:06:54.861252,374
2021-09-22 20:06:54.861258,391
2021-09-22 20:06:54.861264,420
2021-09-22 20:06:54.861270,452
2021-09-22 20:06:54.861276,447
2021-09-22 20:06:54.861281,413
2021-09-22 20:06:54.861287,377
2021-09-22 20:06:54.861293,333
2021-09-22 20:06:54.861299,248
2021-09-22 20:06:54.861305,136
2021-09-22 20:06:54.861310,31
2021-09-22 20:06:54.861316,-60
2021-09-22 20:06:54.861322,-138
2021-09-22 20:06:54.861327,-189
2021-09-22 20:06:55.175640,-221
2021-09-22 20:06:55.175660,-248
2021-09-22 20:06:55.175667,-260
2021-09-22 20:06:55.175673,-248
2021-09-22 20:06:55.175679,-228
2021-09-22 20:06:55.175685,-218
2021-09-22 20:06:55.175691,-209
2021-09-22 20:06:55.175697,-189
2021-09-22 20:06:55.175703,-182
2021-09-22 20:06:55.175709,-180
2021-09-22 20:06:55.175715,-163
2021-09-22 20:06:55.175721,-148
2021-09-22 20:06:55.175727,-138
2021-09-22 20:06:55.175733,-126
2021-09-22 20:06:55.175738,-119
2021-09-22 20:06:55.175744,-121
2021-09-22 20:06:55.175750,-119
2021-09-22 20:06:55.175756,-114
2021-09-22 20:06:55.175762,-114
2021-09-22 20:06:55.175768,-116
2021-09-22 20:06:55.175779,-119
2021-09-22 20:06:55.175785,-119
2021-09-22 20:06:55.175791,-111
2021-09-22 20:06:55.175797,-107
2021-09-22 20:06:55.175803,-107
2021-09-22 20:06:55.175808,-97
2021-09-22 20:06:55.175814,-92
2021-09-22 20:06:55.175820,-97
2021-09-22 20:06:55.175826,-94
2021-09-22 20:06:55.175832,-85
2021-09-22 20:06:55.311225,-80
2021-09-22 20:06:55.311243,-82
2021-09-22 20:06:55.311250,-87
2021-09-22 20:06:55.311256,-90
2021-09-22 20:06:55.311262,-85
2021-09-22 20:06:55.311268,-80
2021-09-22 20:06:55.311274,-75
2021-09-22 20:06:55.311280,-77
2021-09-22 20:06:55.311285,-94
2021-09-22 20:06:55.311291,-99
2021-09-22 20:06:55.311297,-77
2021-09-22 20:06:55.311303,-55
2021-09-22 20:06:55.311309,-60
2021-09-22 20:06:55.311315,-82
2021-09-22 20:06:55.311321,-94
2021-09-22 20:06:55.311326,-92
2021-09-22 20:06:55.311332,-92
2021-09-22 20:06:55.311338,-90
2021-09-22 20:06:55.311344,-70
2021-09-22 20:06:55.311350,-48
2021-09-22 20:06:55.311355,-43
2021-09-22 20:06:55.311361,-51
2021-09-22 20:06:55.311367,-43
2021-09-22 20:06:55.311373,-29
2021-09-22 20:06:55.311379,-43
2021-09-22 20:06:55.311384,-68
2021-09-22 20:06:55.311390,-70
2021-09-22 20:06:55.311396,-63
2021-09-22 20:06:55.311402,-58
2021-09-22 20:06:55.311408,-53
2021-09-22 20:06:55.536192,-48
2021-09-22 20:06:55.536210,-48
2021-09-22 20:06:55.536217,-51
2021-09-22 20:06:55.536223,-38
2021-09-22 20:06:55.536229,-4
2021-09-22 20:06:55.536235,72
2021-09-22 20:06:55.536241,201
2021-09-22 20:06:55.536247,420
2021-09-22 20:06:55.536253,583
2021-09-22 20:06:55.536258,360
2021-09-22 20:06:55.536264,-189
2021-09-22 20:06:55.536270,-661
2021-09-22 20:06:55.536276,-703
2021-09-22 20:06:55.536282,-333
2021-09-22 20:06:55.536288,-53
2021-09-22 20:06:55.536293,-26
2021-09-22 20:06:55.536299,43
2021-09-22 20:06:55.536305,138
2021-09-22 20:06:55.536311,131
2021-09-22 20:06:55.536317,121
2021-09-22 20:06:55.536322,163
2021-09-22 20:06:55.536328,184
2021-09-22 20:06:55.536334,180
2021-09-22 20:06:55.536340,184
2021-09-22 20:06:55.536346,197
2021-09-22 20:06:55.536351,206
2021-09-22 20:06:55.536357,221
2021-09-22 20:06:55.536363,240
2021-09-22 20:06:55.536369,255
2021-09-22 20:06:55.536375,272
2021-09-22 20:06:55.806221,299
2021-09-22 20:06:55.806237,326
2021-09-22 20:06:55.806244,347
2021-09-22 20:06:55.806250,374
2021-09-22 20:06:55.806256,406
2021-09-22 20:06:55.806262,440
2021-09-22 20:06:55.806268,455
2021-09-22 20:06:55.806274,452
2021-09-22 20:06:55.806280,450
2021-09-22 20:06:55.806286,442
2021-09-22 20:06:55.806292,413
2021-09-22 20:06:55.806298,355
2021-09-22 20:06:55.806304,272
2021-09-22 20:06:55.806310,175
2021-09-22 20:06:55.806316,75
2021-09-22 20:06:55.806322,-24
2021-09-22 20:06:55.806328,-102
2021-09-22 20:06:55.806334,-155
2021-09-22 20:06:55.806340,-199
2021-09-22 20:06:55.806346,-228
2021-09-22 20:06:55.806352,-240
2021-09-22 20:06:55.806357,-243
2021-09-22 20:06:55.806367,-231
2021-09-22 20:06:55.806373,-211
2021-09-22 20:06:55.806378,-204
2021-09-22 20:06:55.806384,-192
2021-09-22 20:06:55.806390,-170
2021-09-22 20:06:55.806395,-160
2021-09-22 20:06:55.806401,-155
2021-09-22 20:06:55.806407,-138
2021-09-22 20:06:56.074849,-126
2021-09-22 20:06:56.074867,-124
2021-09-22 20:06:56.074874,-114
2021-09-22 20:06:56.074880,-104
2021-09-22 20:06:56.074886,-97
2021-09-22 20:06:56.074892,-90
2021-09-22 20:06:56.074899,-92
2021-09-22 20:06:56.074905,-97
2021-09-22 20:06:56.074911,-92
2021-09-22 20:06:56.074917,-87
2021-09-22 20:06:56.074923,-87
2021-09-22 20:06:56.074929,-85
2021-09-22 20:06:56.074934,-87
2021-09-22 20:06:56.074940,-87
2021-09-22 20:06:56.074946,-82
2021-09-22 20:06:56.074952,-82
2021-09-22 20:06:56.074958,-82
2021-09-22 20:06:56.074963,-82
2021-09-22 20:06:56.074969,-82
2021-09-22 20:06:56.074975,-77
2021-09-22 20:06:56.074981,-70
2021-09-22 20:06:56.074987,-70
2021-09-22 20:06:56.074993,-70
2021-09-22 20:06:56.074998,-68
2021-09-22 20:06:56.075004,-63
2021-09-22 20:06:56.075010,-60
2021-09-22 20:06:56.075016,-70
2021-09-22 20:06:56.075021,-75
2021-09-22 20:06:56.075027,-65
2021-09-22 20:06:56.075033,-63
2021-09-22 20:06:56.211173,-68
2021-09-22 20:06:56.211190,-53
2021-09-22 20:06:56.211197,-29
2021-09-22 20:06:56.211203,-19
2021-09-22 20:06:56.211209,-31
2021-09-22 20:06:56.211215,-36
2021-09-22 20:06:56.211221,-29
2021-09-22 20:06:56.211226,-38
2021-09-22 20:06:56.211232,-58
2021-09-22 20:06:56.211238,-75
2021-09-22 20:06:56.211244,-82
2021-09-22 20:06:56.211250,-87
2021-09-22 20:06:56.211256,-82
2021-09-22 20:06:56.211261,-75
2021-09-22 20:06:56.211267,-70
2021-09-22 20:06:56.211273,-72
2021-09-22 20:06:56.211279,-75
2021-09-22 20:06:56.211285,-55
2021-09-22 20:06:56.211291,14
2021-09-22 20:06:56.211297,131
2021-09-22 20:06:56.211302,313
2021-09-22 20:06:56.211308,484
2021-09-22 20:06:56.211314,328
2021-09-22 20:06:56.211320,-167
2021-09-22 20:06:56.211325,-637
2021-09-22 20:06:56.211331,-749
2021-09-22 20:06:56.211337,-437
2021-09-22 20:06:56.211343,-116
2021-09-22 20:06:56.211348,-51
2021-09-22 20:06:56.211354,-2
2021-09-22 20:06:56.436229,104
2021-09-22 20:06:56.436246,121
2021-09-22 20:06:56.436253,104
2021-09-22 20:06:56.436259,131
2021-09-22 20:06:56.436265,141
2021-09-22 20:06:56.436271,136
2021-09-22 20:06:56.436277,153
2021-09-22 20:06:56.436283,175
2021-09-22 20:06:56.436289,180
2021-09-22 20:06:56.436295,187
2021-09-22 20:06:56.436301,199
2021-09-22 20:06:56.436307,214
2021-09-22 20:06:56.436313,236
2021-09-22 20:06:56.436318,260
2021-09-22 20:06:56.436328,284
2021-09-22 20:06:56.436334,309
2021-09-22 20:06:56.436339,335
2021-09-22 20:06:56.436345,369
2021-09-22 20:06:56.436351,403
2021-09-22 20:06:56.436357,428
2021-09-22 20:06:56.436363,437
2021-09-22 20:06:56.436369,437
2021-09-22 20:06:56.436375,423
2021-09-22 20:06:56.436381,399
2021-09-22 20:06:56.436386,352
2021-09-22 20:06:56.436392,274
2021-09-22 20:06:56.436398,175
2021-09-22 20:06:56.436404,63
2021-09-22 20:06:56.436409,-36
2021-09-22 20:06:56.436415,-114
2021-09-22 20:06:56.751199,-175
2021-09-22 20:06:56.751217,-221
2021-09-22 20:06:56.751224,-248
2021-09-22 20:06:56.751230,-265
2021-09-22 20:06:56.751236,-274
2021-09-22 20:06:56.751245,-267
2021-09-22 20:06:56.751251,-255
2021-09-22 20:06:56.751257,-243
2021-09-22 20:06:56.751263,-231
2021-09-22 20:06:56.751269,-226
2021-09-22 20:06:56.751275,-216
2021-09-22 20:06:56.751280,-197
2021-09-22 20:06:56.751286,-177
2021-09-22 20:06:56.751292,-167
2021-09-22 20:06:56.751298,-158
2021-09-22 20:06:56.751304,-150
2021-09-22 20:06:56.751309,-141
2021-09-22 20:06:56.751315,-128
2021-09-22 20:06:56.751321,-119
2021-09-22 20:06:56.751326,-116
2021-09-22 20:06:56.751332,-114
2021-09-22 20:06:56.751338,-119
2021-09-22 20:06:56.751344,-128
2021-09-22 20:06:56.751349,-131
2021-09-22 20:06:56.751355,-124
2021-09-22 20:06:56.751361,-119
2021-09-22 20:06:56.751366,-121
2021-09-22 20:06:56.751372,-124
2021-09-22 20:06:56.751378,-119
2021-09-22 20:06:56.751383,-111
2021-09-22 20:06:56.931192,-104
2021-09-22 20:06:56.931209,-99
2021-09-22 20:06:56.931216,-102
2021-09-22 20:06:56.931222,-104
2021-09-22 20:06:56.931228,-102
2021-09-22 20:06:56.931234,-92
2021-09-22 20:06:56.931240,-87
2021-09-22 20:06:56.931246,-82
2021-09-22 20:06:56.931252,-80
2021-09-22 20:06:56.931258,-80
2021-09-22 20:06:56.931264,-77
2021-09-22 20:06:56.931270,-72
2021-09-22 20:06:56.931276,-68
2021-09-22 20:06:56.931282,-63
2021-09-22 20:06:56.931287,-65
2021-09-22 20:06:56.931293,-72
2021-09-22 20:06:56.931299,-77
2021-09-22 20:06:56.931304,-80
2021-09-22 20:06:56.931310,-80
2021-09-22 20:06:56.931316,-70
2021-09-22 20:06:56.931322,-60
2021-09-22 20:06:56.931327,-53
2021-09-22 20:06:56.931333,-46
2021-09-22 20:06:56.931339,-38
2021-09-22 20:06:56.931344,-31
2021-09-22 20:06:56.931350,-36
2021-09-22 20:06:56.931356,-60
2021-09-22 20:06:56.931362,-80
2021-09-22 20:06:56.931367,-80
2021-09-22 20:06:56.931373,-77
2021-09-22 20:06:57.201261,-80
2021-09-22 20:06:57.201279,-80
2021-09-22 20:06:57.201286,-77
2021-09-22 20:06:57.201292,-80
2021-09-22 20:06:57.201298,-77
2021-09-22 20:06:57.201304,-60
2021-09-22 20:06:57.201310,-7
2021-09-22 20:06:57.201316,109
2021-09-22 20:06:57.201321,321
2021-09-22 20:06:57.201327,525
2021-09-22 20:06:57.201333,377
2021-09-22 20:06:57.201339,-128
2021-09-22 20:06:57.201344,-601
2021-09-22 20:06:57.201350,-761
2021-09-22 20:06:57.201356,-479
2021-09-22 20:06:57.201361,-119
2021-09-22 20:06:57.201367,-43
2021-09-22 20:06:57.201373,-9
2021-09-22 20:06:57.201379,94
2021-09-22 20:06:57.201384,109
2021-09-22 20:06:57.201390,87
2021-09-22 20:06:57.201396,121
2021-09-22 20:06:57.201401,143
2021-09-22 20:06:57.201407,143
2021-09-22 20:06:57.201413,155
2021-09-22 20:06:57.201419,172
2021-09-22 20:06:57.201425,175
2021-09-22 20:06:57.201431,180
2021-09-22 20:06:57.201436,187
2021-09-22 20:06:57.201442,204
2021-09-22 20:06:57.381146,226
2021-09-22 20:06:57.381162,245
2021-09-22 20:06:57.381169,267
2021-09-22 20:06:57.381175,296
2021-09-22 20:06:57.381181,330
2021-09-22 20:06:57.381187,367
2021-09-22 20:06:57.381193,399
2021-09-22 20:06:57.381199,423
2021-09-22 20:06:57.381205,437
2021-09-22 20:06:57.381211,447
2021-09-22 20:06:57.381217,445
2021-09-22 20:06:57.381222,420
2021-09-22 20:06:57.381228,374
2021-09-22 20:06:57.381234,296
2021-09-22 20:06:57.381240,192
2021-09-22 20:06:57.381245,80
2021-09-22 20:06:57.381251,-19
2021-09-22 20:06:57.381257,-104
2021-09-22 20:06:57.381262,-177
2021-09-22 20:06:57.381268,-231
2021-09-22 20:06:57.381274,-260
2021-09-22 20:06:57.381280,-272
2021-09-22 20:06:57.381286,-272
2021-09-22 20:06:57.381292,-267
2021-09-22 20:06:57.381298,-260
2021-09-22 20:06:57.381303,-253
2021-09-22 20:06:57.381309,-238
2021-09-22 20:06:57.381315,-221
2021-09-22 20:06:57.381320,-206
2021-09-22 20:06:57.381326,-187
2021-09-22 20:06:57.606632,-175
2021-09-22 20:06:57.606654,-163
2021-09-22 20:06:57.606661,-150
2021-09-22 20:06:57.606668,-141
2021-09-22 20:06:57.606674,-128
2021-09-22 20:06:57.606680,-116
2021-09-22 20:06:57.606686,-116
2021-09-22 20:06:57.606691,-116
2021-09-22 20:06:57.606697,-114
2021-09-22 20:06:57.606703,-116
2021-09-22 20:06:57.606709,-116
2021-09-22 20:06:57.606715,-111
2021-09-22 20:06:57.606720,-116
2021-09-22 20:06:57.606726,-121
2021-09-22 20:06:57.606732,-116
2021-09-22 20:06:57.606738,-111
2021-09-22 20:06:57.606744,-111
2021-09-22 20:06:57.606750,-109
2021-09-22 20:06:57.606756,-107
2021-09-22 20:06:57.606762,-104
2021-09-22 20:06:57.606767,-99
2021-09-22 20:06:57.606773,-94
2021-09-22 20:06:57.606779,-90
2021-09-22 20:06:57.606785,-85
2021-09-22 20:06:57.606791,-82
2021-09-22 20:06:57.606797,-80
2021-09-22 20:06:57.606802,-75
2021-09-22 20:06:57.606808,-72
2021-09-22 20:06:57.606814,-70
2021-09-22 20:06:57.606820,-65
2021-09-22 20:06:57.831209,-63
2021-09-22 20:06:57.831226,-60
2021-09-22 20:06:57.831232,-58
2021-09-22 20:06:57.831239,-63
2021-09-22 20:06:57.831244,-75
2021-09-22 20:06:57.831250,-82
2021-09-22 20:06:57.831256,-90
2021-09-22 20:06:57.831262,-87
2021-09-22 20:06:57.831268,-72
2021-09-22 20:06:57.831274,-51
2021-09-22 20:06:57.831279,-41
2021-09-22 20:06:57.831285,-48
2021-09-22 20:06:57.831291,-51
2021-09-22 20:06:57.831297,-41
2021-09-22 20:06:57.831302,-55
2021-09-22 20:06:57.831308,-82
2021-09-22 20:06:57.831314,-90
2021-09-22 20:06:57.831319,-87
2021-09-22 20:06:57.831325,-92
2021-09-22 20:06:57.831331,-90
2021-09-22 20:06:57.831336,-82
2021-09-22 20:06:57.831342,-82
2021-09-22 20:06:57.831348,-82
2021-09-22 20:06:57.831353,-75
2021-09-22 20:06:57.831359,-55
2021-09-22 20:06:57.831364,2
2021-09-22 20:06:57.831370,124
2021-09-22 20:06:57.831376,352
2021-09-22 20:06:57.831381,571
2021-09-22 20:06:57.831387,418
2021-09-22 20:06:58.099901,-102
2021-09-22 20:06:58.099918,-598
2021-09-22 20:06:58.099925,-744
2021-09-22 20:06:58.099931,-433
2021-09-22 20:06:58.099937,-92
2021-09-22 20:06:58.099943,-41
2021-09-22 20:06:58.099949,2
2021-09-22 20:06:58.099955,107
2021-09-22 20:06:58.099961,109
2021-09-22 20:06:58.099967,94
2021-09-22 20:06:58.099973,126
2021-09-22 20:06:58.099979,138
2021-09-22 20:06:58.099984,131
2021-09-22 20:06:58.099990,145
2021-09-22 20:06:58.099996,160
2021-09-22 20:06:58.100002,167
2021-09-22 20:06:58.100008,180
2021-09-22 20:06:58.100013,197
2021-09-22 20:06:58.100019,211
2021-09-22 20:06:58.100025,236
2021-09-22 20:06:58.100031,257
2021-09-22 20:06:58.100037,279
2021-09-22 20:06:58.100043,309
2021-09-22 20:06:58.100049,343
2021-09-22 20:06:58.100054,377
2021-09-22 20:06:58.100060,411
2021-09-22 20:06:58.100066,437
2021-09-22 20:06:58.100072,455
2021-09-22 20:06:58.100077,459
2021-09-22 20:06:58.100083,450
2021-09-22 20:06:58.281217,428
2021-09-22 20:06:58.281234,384
2021-09-22 20:06:58.281241,309
2021-09-22 20:06:58.281247,204
2021-09-22 20:06:58.281253,85
2021-09-22 20:06:58.281259,-24
2021-09-22 20:06:58.281265,-109
2021-09-22 20:06:58.281271,-170
2021-09-22 20:06:58.281277,-223
2021-09-22 20:06:58.281283,-262
2021-09-22 20:06:58.281289,-287
2021-09-22 20:06:58.281295,-287
2021-09-22 20:06:58.281301,-277
2021-09-22 20:06:58.281306,-270
2021-09-22 20:06:58.281312,-260
2021-09-22 20:06:58.281318,-253
2021-09-22 20:06:58.281323,-243
2021-09-22 20:06:58.281329,-223
2021-09-22 20:06:58.281335,-201
2021-09-22 20:06:58.281341,-187
2021-09-22 20:06:58.281346,-172
2021-09-22 20:06:58.281352,-163
2021-09-22 20:06:58.281358,-153
2021-09-22 20:06:58.281364,-141
2021-09-22 20:06:58.281370,-128
2021-09-22 20:06:58.281376,-121
2021-09-22 20:06:58.281382,-116
2021-09-22 20:06:58.281387,-116
2021-09-22 20:06:58.281393,-111
2021-09-22 20:06:58.281399,-107
2021-09-22 20:06:58.640600,-104
2021-09-22 20:06:58.640617,-104
2021-09-22 20:06:58.640624,-104
2021-09-22 20:06:58.640634,-109
2021-09-22 20:06:58.640640,-114
2021-09-22 20:06:58.640646,-109
2021-09-22 20:06:58.640652,-102
2021-09-22 20:06:58.640657,-99
2021-09-22 20:06:58.640663,-99
2021-09-22 20:06:58.640669,-99
2021-09-22 20:06:58.640675,-102
2021-09-22 20:06:58.640687,-94
2021-09-22 20:06:58.640693,-85
2021-09-22 20:06:58.640700,-82
2021-09-22 20:06:58.640706,-80
2021-09-22 20:06:58.640712,-80
2021-09-22 20:06:58.640717,-80
2021-09-22 20:06:58.640723,-77
2021-09-22 20:06:58.640729,-77
2021-09-22 20:06:58.640735,-70
2021-09-22 20:06:58.640741,-65
2021-09-22 20:06:58.640746,-65
2021-09-22 20:06:58.640752,-68
2021-09-22 20:06:58.640758,-65
2021-09-22 20:06:58.640764,-63
2021-09-22 20:06:58.640770,-58
2021-09-22 20:06:58.640776,-55
2021-09-22 20:06:58.640781,-58
2021-09-22 20:06:58.640787,-55
2021-09-22 20:06:58.640793,-51
2021-09-22 20:06:58.820806,-53
2021-09-22 20:06:58.820825,-53
2021-09-22 20:06:58.820832,-41
2021-09-22 20:06:58.820838,-31
2021-09-22 20:06:58.820844,-21
2021-09-22 20:06:58.820850,-19
2021-09-22 20:06:58.820856,-19
2021-09-22 20:06:58.820862,-12
2021-09-22 20:06:58.820868,-24
2021-09-22 20:06:58.820874,-53
2021-09-22 20:06:58.820880,-63
2021-09-22 20:06:58.820885,-53
2021-09-22 20:06:58.820891,-51
2021-09-22 20:06:58.820897,-53
2021-09-22 20:06:58.820903,-53
2021-09-22 20:06:58.820909,-60
2021-09-22 20:06:58.820915,-65
2021-09-22 20:06:58.820921,-55
2021-09-22 20:06:58.820927,-41
2021-09-22 20:06:58.820933,-9
2021-09-22 20:06:58.820939,80
2021-09-22 20:06:58.820945,274
2021-09-22 20:06:58.820951,535
2021-09-22 20:06:58.820956,535
2021-09-22 20:06:58.820962,94
2021-09-22 20:06:58.820968,-462
2021-09-22 20:06:58.820973,-754
2021-09-22 20:06:58.820979,-562
2021-09-22 20:06:58.820985,-165
2021-09-22 20:06:58.820991,-26
2021-09-22 20:06:59.001383,-7
2021-09-22 20:06:59.001402,92
2021-09-22 20:06:59.001409,128
2021-09-22 20:06:59.001415,99
2021-09-22 20:06:59.001421,124
2021-09-22 20:06:59.001427,155
2021-09-22 20:06:59.001433,158
2021-09-22 20:06:59.001439,163
2021-09-22 20:06:59.001445,172
2021-09-22 20:06:59.001450,175
2021-09-22 20:06:59.001456,189
2021-09-22 20:06:59.001462,209
2021-09-22 20:06:59.001468,223
2021-09-22 20:06:59.001473,243
2021-09-22 20:06:59.001479,257
2021-09-22 20:06:59.001485,277
2021-09-22 20:06:59.001491,306
2021-09-22 20:06:59.001497,340
2021-09-22 20:06:59.001503,372
2021-09-22 20:06:59.001508,401
2021-09-22 20:06:59.001514,423
2021-09-22 20:06:59.001520,437
2021-09-22 20:06:59.001525,445
2021-09-22 20:06:59.001531,447
2021-09-22 20:06:59.001536,433
2021-09-22 20:06:59.001542,396
2021-09-22 20:06:59.001548,333
2021-09-22 20:06:59.001554,243
2021-09-22 20:06:59.001559,136
2021-09-22 20:06:59.001565,31
2021-09-22 20:06:59.226304,-60
2021-09-22 20:06:59.226322,-133
2021-09-22 20:06:59.226329,-192
2021-09-22 20:06:59.226335,-226
2021-09-22 20:06:59.226341,-240
2021-09-22 20:06:59.226347,-243
2021-09-22 20:06:59.226353,-243
2021-09-22 20:06:59.226359,-245
2021-09-22 20:06:59.226365,-243
2021-09-22 20:06:59.226371,-226
2021-09-22 20:06:59.226377,-206
2021-09-22 20:06:59.226382,-192
2021-09-22 20:06:59.226388,-180
2021-09-22 20:06:59.226394,-167
2021-09-22 20:06:59.226400,-158
2021-09-22 20:06:59.226405,-148
2021-09-22 20:06:59.226411,-133
2021-09-22 20:06:59.226417,-121
2021-09-22 20:06:59.226423,-114
2021-09-22 20:06:59.226429,-109
2021-09-22 20:06:59.226435,-109
2021-09-22 20:06:59.226440,-114
2021-09-22 20:06:59.226446,-119
2021-09-22 20:06:59.226452,-116
2021-09-22 20:06:59.226458,-119
2021-09-22 20:06:59.226464,-121
2021-09-22 20:06:59.226470,-116
2021-09-22 20:06:59.226475,-116
2021-09-22 20:06:59.226481,-114
2021-09-22 20:06:59.226487,-109
2021-09-22 20:06:59.495665,-107
2021-09-22 20:06:59.495682,-107
2021-09-22 20:06:59.495689,-99
2021-09-22 20:06:59.495695,-97
2021-09-22 20:06:59.495701,-92
2021-09-22 20:06:59.495707,-87
2021-09-22 20:06:59.495713,-87
2021-09-22 20:06:59.495719,-90
2021-09-22 20:06:59.495725,-85
2021-09-22 20:06:59.495731,-80
2021-09-22 20:06:59.495737,-75
2021-09-22 20:06:59.495742,-72
2021-09-22 20:06:59.495748,-77
2021-09-22 20:06:59.495754,-82
2021-09-22 20:06:59.495759,-77
2021-09-22 20:06:59.495765,-72
2021-09-22 20:06:59.495771,-70
2021-09-22 20:06:59.495777,-65
2021-09-22 20:06:59.495782,-63
2021-09-22 20:06:59.495788,-63
2021-09-22 20:06:59.495794,-58
2021-09-22 20:06:59.495800,-58
2021-09-22 20:06:59.495806,-60
2021-09-22 20:06:59.495812,-60
2021-09-22 20:06:59.495818,-58
2021-09-22 20:06:59.495824,-63
2021-09-22 20:06:59.495829,-68
2021-09-22 20:06:59.495835,-68
2021-09-22 20:06:59.495841,-68
2021-09-22 20:06:59.495847,-68
2021-09-22 20:06:59.676244,-55
2021-09-22 20:06:59.676261,-36
2021-09-22 20:06:59.676268,-21
2021-09-22 20:06:59.676274,-24
2021-09-22 20:06:59.676280,-17
2021-09-22 20:06:59.676286,-9
2021-09-22 20:06:59.676292,-34
2021-09-22 20:06:59.676297,-55
2021-09-22 20:06:59.676310,-53
2021-09-22 20:06:59.676316,-48
2021-09-22 20:06:59.676322,-51
2021-09-22 20:06:59.676328,-48
2021-09-22 20:06:59.676334,-51
2021-09-22 20:06:59.676339,-53
2021-09-22 20:06:59.676345,-46
2021-09-22 20:06:59.676351,-41
2021-09-22 20:06:59.676357,-31
2021-09-22 20:06:59.676363,7
2021-09-22 20:06:59.676368,104
2021-09-22 20:06:59.676374,299
2021-09-22 20:06:59.676380,559
2021-09-22 20:06:59.676386,562
2021-09-22 20:06:59.676392,133
2021-09-22 20:06:59.676398,-428
2021-09-22 20:06:59.676403,-725
2021-09-22 20:06:59.676409,-537
2021-09-22 20:06:59.676415,-158
2021-09-22 20:06:59.676421,-38
2021-09-22 20:06:59.676426,-21
2021-09-22 20:06:59.676432,80
2021-09-22 20:06:59.945584,119
2021-09-22 20:06:59.945600,97
2021-09-22 20:06:59.945607,124
2021-09-22 20:06:59.945614,148
2021-09-22 20:06:59.945620,148
2021-09-22 20:06:59.945626,153
2021-09-22 20:06:59.945632,165
2021-09-22 20:06:59.945638,177
2021-09-22 20:06:59.945644,189
2021-09-22 20:06:59.945649,204
2021-09-22 20:06:59.945655,218
2021-09-22 20:06:59.945661,231
2021-09-22 20:06:59.945667,248
2021-09-22 20:06:59.945672,274
2021-09-22 20:06:59.945678,301
2021-09-22 20:06:59.945684,328
2021-09-22 20:06:59.945690,360
2021-09-22 20:06:59.945696,391
2021-09-22 20:06:59.945701,420
2021-09-22 20:06:59.945707,442
2021-09-22 20:06:59.945713,452
2021-09-22 20:06:59.945718,450
2021-09-22 20:06:59.945724,433
2021-09-22 20:06:59.945730,396
2021-09-22 20:06:59.945735,338
2021-09-22 20:06:59.945741,257
2021-09-22 20:06:59.945747,150
2021-09-22 20:06:59.945753,38
2021-09-22 20:06:59.945758,-53
2021-09-22 20:06:59.945764,-128
2021-09-22 20:07:00.170054,-187
2021-09-22 20:07:00.170074,-223
2021-09-22 20:07:00.170080,-238
2021-09-22 20:07:00.170087,-250
2021-09-22 20:07:00.170093,-255
2021-09-22 20:07:00.170099,-253
2021-09-22 20:07:00.170104,-240
2021-09-22 20:07:00.170110,-223
2021-09-22 20:07:00.170116,-209
2021-09-22 20:07:00.170122,-197
2021-09-22 20:07:00.170128,-184
2021-09-22 20:07:00.170134,-175
2021-09-22 20:07:00.170140,-158
2021-09-22 20:07:00.170146,-141
2021-09-22 20:07:00.170151,-131
2021-09-22 20:07:00.170157,-124
2021-09-22 20:07:00.170163,-121
2021-09-22 20:07:00.170169,-114
2021-09-22 20:07:00.170175,-104
2021-09-22 20:07:00.170180,-99
2021-09-22 20:07:00.170186,-97
2021-09-22 20:07:00.170192,-99
2021-09-22 20:07:00.170198,-97
2021-09-22 20:07:00.170203,-97
2021-09-22 20:07:00.170209,-99
2021-09-22 20:07:00.170215,-102
2021-09-22 20:07:00.170220,-102
2021-09-22 20:07:00.170226,-102
2021-09-22 20:07:00.170232,-104
2021-09-22 20:07:00.170238,-102
2021-09-22 20:07:00.396247,-99
2021-09-22 20:07:00.396263,-104
2021-09-22 20:07:00.396270,-116
2021-09-22 20:07:00.396276,-126
2021-09-22 20:07:00.396282,-128
2021-09-22 20:07:00.396288,-126
2021-09-22 20:07:00.396294,-124
2021-09-22 20:07:00.396300,-124
2021-09-22 20:07:00.396306,-121
2021-09-22 20:07:00.396312,-121
2021-09-22 20:07:00.396318,-124
2021-09-22 20:07:00.396324,-121
2021-09-22 20:07:00.396329,-111
2021-09-22 20:07:00.396335,-107
2021-09-22 20:07:00.396341,-104
2021-09-22 20:07:00.396347,-104
2021-09-22 20:07:00.396353,-99
2021-09-22 20:07:00.396359,-94
2021-09-22 20:07:00.396365,-87
2021-09-22 20:07:00.396370,-82
2021-09-22 20:07:00.396376,-82
2021-09-22 20:07:00.396382,-80
2021-09-22 20:07:00.396388,-77
2021-09-22 20:07:00.396393,-72
2021-09-22 20:07:00.396399,-68
2021-09-22 20:07:00.396405,-63
2021-09-22 20:07:00.396411,-60
2021-09-22 20:07:00.396417,-60
2021-09-22 20:07:00.396422,-55
2021-09-22 20:07:00.396428,-51
2021-09-22 20:07:00.666267,-48
2021-09-22 20:07:00.666284,-38
2021-09-22 20:07:00.666291,-24
2021-09-22 20:07:00.666297,-9
2021-09-22 20:07:00.666303,-12
2021-09-22 20:07:00.666309,-12
2021-09-22 20:07:00.666315,0
2021-09-22 20:07:00.666321,4
2021-09-22 20:07:00.666327,-17
2021-09-22 20:07:00.666332,-41
2021-09-22 20:07:00.666338,-48
2021-09-22 20:07:00.666344,-46
2021-09-22 20:07:00.666350,-38
2021-09-22 20:07:00.666355,-36
2021-09-22 20:07:00.666361,-38
2021-09-22 20:07:00.666367,-46
2021-09-22 20:07:00.666373,-46
2021-09-22 20:07:00.666378,-34
2021-09-22 20:07:00.666384,-14
2021-09-22 20:07:00.666390,38
2021-09-22 20:07:00.666395,153
2021-09-22 20:07:00.666401,372
2021-09-22 20:07:00.666407,603
2021-09-22 20:07:00.666413,493
2021-09-22 20:07:00.666418,-9
2021-09-22 20:07:00.666424,-532
2021-09-22 20:07:00.666430,-710
2021-09-22 20:07:00.666436,-416
2021-09-22 20:07:00.666442,-68
2021-09-22 20:07:00.666447,-2
2021-09-22 20:07:00.891652,38
2021-09-22 20:07:00.891668,138
2021-09-22 20:07:00.891675,143
2021-09-22 20:07:00.891681,121
2021-09-22 20:07:00.891688,153
2021-09-22 20:07:00.891694,170
2021-09-22 20:07:00.891699,163
2021-09-22 20:07:00.891705,170
2021-09-22 20:07:00.891711,177
2021-09-22 20:07:00.891717,177
2021-09-22 20:07:00.891723,192
2021-09-22 20:07:00.891729,211
2021-09-22 20:07:00.891735,226
2021-09-22 20:07:00.891741,243
2021-09-22 20:07:00.891746,255
2021-09-22 20:07:00.891752,272
2021-09-22 20:07:00.891758,301
2021-09-22 20:07:00.891764,335
2021-09-22 20:07:00.891770,367
2021-09-22 20:07:00.891775,396
2021-09-22 20:07:00.891781,416
2021-09-22 20:07:00.891787,428
2021-09-22 20:07:00.891793,435
2021-09-22 20:07:00.891804,433
2021-09-22 20:07:00.891810,413
2021-09-22 20:07:00.891816,377
2021-09-22 20:07:00.891822,311
2021-09-22 20:07:00.891828,218
2021-09-22 20:07:00.891833,114
2021-09-22 20:07:00.891839,9
2021-09-22 20:07:01.116280,-77
2021-09-22 20:07:01.116297,-145
2021-09-22 20:07:01.116304,-201
2021-09-22 20:07:01.116311,-236
2021-09-22 20:07:01.116316,-245
2021-09-22 20:07:01.116322,-248
2021-09-22 20:07:01.116328,-248
2021-09-22 20:07:01.116334,-240
2021-09-22 20:07:01.116340,-238
2021-09-22 20:07:01.116346,-228
2021-09-22 20:07:01.116352,-209
2021-09-22 20:07:01.116358,-194
2021-09-22 20:07:01.116363,-182
2021-09-22 20:07:01.116369,-177
2021-09-22 20:07:01.116375,-172
2021-09-22 20:07:01.116381,-160
2021-09-22 20:07:01.116387,-141
2021-09-22 20:07:01.116393,-128
2021-09-22 20:07:01.116398,-126
2021-09-22 20:07:01.116404,-126
2021-09-22 20:07:01.116410,-126
2021-09-22 20:07:01.116416,-119
2021-09-22 20:07:01.116422,-116
2021-09-22 20:07:01.116428,-119
2021-09-22 20:07:01.116433,-121
2021-09-22 20:07:01.116439,-124
2021-09-22 20:07:01.116445,-131
2021-09-22 20:07:01.116451,-133
2021-09-22 20:07:01.116457,-128
2021-09-22 20:07:01.116462,-124
2021-09-22 20:07:01.341307,-124
2021-09-22 20:07:01.341324,-126
2021-09-22 20:07:01.341330,-121
2021-09-22 20:07:01.341337,-119
2021-09-22 20:07:01.341343,-111
2021-09-22 20:07:01.341349,-104
2021-09-22 20:07:01.341355,-107
2021-09-22 20:07:01.341361,-114
2021-09-22 20:07:01.341367,-111
2021-09-22 20:07:01.341372,-104
2021-09-22 20:07:01.341378,-107
2021-09-22 20:07:01.341384,-104
2021-09-22 20:07:01.341390,-97
2021-09-22 20:07:01.341396,-102
2021-09-22 20:07:01.341402,-109
2021-09-22 20:07:01.341408,-104
2021-09-22 20:07:01.341414,-94
2021-09-22 20:07:01.341420,-92
2021-09-22 20:07:01.341425,-92
2021-09-22 20:07:01.341431,-90
2021-09-22 20:07:01.341437,-85
2021-09-22 20:07:01.341443,-82
2021-09-22 20:07:01.341449,-80
2021-09-22 20:07:01.341454,-75
2021-09-22 20:07:01.341460,-70
2021-09-22 20:07:01.341466,-68
2021-09-22 20:07:01.341472,-63
2021-09-22 20:07:01.341478,-58
2021-09-22 20:07:01.341483,-58
2021-09-22 20:07:01.341489,-53
2021-09-22 20:07:01.565706,-48
2021-09-22 20:07:01.565723,-46
2021-09-22 20:07:01.565730,-41
2021-09-22 20:07:01.565736,-38
2021-09-22 20:07:01.565742,-38
2021-09-22 20:07:01.565748,-36
2021-09-22 20:07:01.565754,-26
2021-09-22 20:07:01.565760,-12
2021-09-22 20:07:01.565766,0
2021-09-22 20:07:01.565772,-2
2021-09-22 20:07:01.565778,4
2021-09-22 20:07:01.565784,14
2021-09-22 20:07:01.565790,-4
2021-09-22 20:07:01.565796,-29
2021-09-22 20:07:01.565802,-34
2021-09-22 20:07:01.565807,-34
2021-09-22 20:07:01.565813,-29
2021-09-22 20:07:01.565819,-24
2021-09-22 20:07:01.565825,-34
2021-09-22 20:07:01.565831,-34
2021-09-22 20:07:01.565837,-26
2021-09-22 20:07:01.565842,-19
2021-09-22 20:07:01.565848,2
2021-09-22 20:07:01.565854,63
2021-09-22 20:07:01.565860,182
2021-09-22 20:07:01.565865,418
2021-09-22 20:07:01.565871,630
2021-09-22 20:07:01.565877,457
2021-09-22 20:07:01.565883,-63
2021-09-22 20:07:01.565889,-545
2021-09-22 20:07:01.746279,-674
2021-09-22 20:07:01.746296,-360
2021-09-22 20:07:01.746304,-38
2021-09-22 20:07:01.746310,4
2021-09-22 20:07:01.746316,53
2021-09-22 20:07:01.746322,143
2021-09-22 20:07:01.746328,138
2021-09-22 20:07:01.746334,128
2021-09-22 20:07:01.746340,165
2021-09-22 20:07:01.746346,177
2021-09-22 20:07:01.746351,175
2021-09-22 20:07:01.746357,189
2021-09-22 20:07:01.746363,197
2021-09-22 20:07:01.746369,201
2021-09-22 20:07:01.746375,214
2021-09-22 20:07:01.746381,223
2021-09-22 20:07:01.746387,238
2021-09-22 20:07:01.746392,257
2021-09-22 20:07:01.746398,274
2021-09-22 20:07:01.746404,287
2021-09-22 20:07:01.746410,301
2021-09-22 20:07:01.746415,335
2021-09-22 20:07:01.746421,374
2021-09-22 20:07:01.746427,403
2021-09-22 20:07:01.746433,430
2021-09-22 20:07:01.746439,447
2021-09-22 20:07:01.746445,452
2021-09-22 20:07:01.746450,447
2021-09-22 20:07:01.746456,428
2021-09-22 20:07:01.746462,384
2021-09-22 20:07:01.971284,316
2021-09-22 20:07:01.971300,223
2021-09-22 20:07:01.971307,111
2021-09-22 20:07:01.971313,2
2021-09-22 20:07:01.971319,-85
2021-09-22 20:07:01.971325,-158
2021-09-22 20:07:01.971330,-204
2021-09-22 20:07:01.971336,-228
2021-09-22 20:07:01.971342,-245
2021-09-22 20:07:01.971348,-255
2021-09-22 20:07:01.971354,-255
2021-09-22 20:07:01.971360,-257
2021-09-22 20:07:01.971366,-255
2021-09-22 20:07:01.971372,-238
2021-09-22 20:07:01.971378,-228
2021-09-22 20:07:01.971383,-221
2021-09-22 20:07:01.971389,-214
2021-09-22 20:07:01.971395,-201
2021-09-22 20:07:01.971401,-187
2021-09-22 20:07:01.971406,-170
2021-09-22 20:07:01.971412,-160
2021-09-22 20:07:01.971418,-150
2021-09-22 20:07:01.971423,-141
2021-09-22 20:07:01.971429,-136
2021-09-22 20:07:01.971435,-126
2021-09-22 20:07:01.971440,-116
2021-09-22 20:07:01.971446,-114
2021-09-22 20:07:01.971452,-111
2021-09-22 20:07:01.971458,-111
2021-09-22 20:07:01.971463,-111
2021-09-22 20:07:02.329863,-104
2021-09-22 20:07:02.329879,-97
2021-09-22 20:07:02.329886,-97
2021-09-22 20:07:02.329892,-102
2021-09-22 20:07:02.329898,-107
2021-09-22 20:07:02.329904,-104
2021-09-22 20:07:02.329910,-94
2021-09-22 20:07:02.329916,-85
2021-09-22 20:07:02.329921,-82
2021-09-22 20:07:02.329927,-85
2021-09-22 20:07:02.329933,-87
2021-09-22 20:07:02.329939,-82
2021-09-22 20:07:02.329945,-75
2021-09-22 20:07:02.329950,-70
2021-09-22 20:07:02.329956,-63
2021-09-22 20:07:02.329962,-58
2021-09-22 20:07:02.329968,-55
2021-09-22 20:07:02.329974,-51
2021-09-22 20:07:02.329979,-53
2021-09-22 20:07:02.329985,-53
2021-09-22 20:07:02.329991,-46
2021-09-22 20:07:02.329997,-43
2021-09-22 20:07:02.330003,-46
2021-09-22 20:07:02.330009,-43
2021-09-22 20:07:02.330014,-43
2021-09-22 20:07:02.330020,-48
2021-09-22 20:07:02.330026,-48
2021-09-22 20:07:02.330032,-48
2021-09-22 20:07:02.330037,-46
2021-09-22 20:07:02.330046,-36
2021-09-22 20:07:02.510684,-29
2021-09-22 20:07:02.510701,-34
2021-09-22 20:07:02.510708,-34
2021-09-22 20:07:02.510714,-29
2021-09-22 20:07:02.510720,-19
2021-09-22 20:07:02.510726,2
2021-09-22 20:07:02.510732,19
2021-09-22 20:07:02.510738,12
2021-09-22 20:07:02.510744,14
2021-09-22 20:07:02.510750,17
2021-09-22 20:07:02.510755,0
2021-09-22 20:07:02.510761,-14
2021-09-22 20:07:02.510767,-19
2021-09-22 20:07:02.510773,-17
2021-09-22 20:07:02.510778,-14
2021-09-22 20:07:02.510784,-14
2021-09-22 20:07:02.510790,-14
2021-09-22 20:07:02.510795,-12
2021-09-22 20:07:02.510801,-9
2021-09-22 20:07:02.510807,-4
2021-09-22 20:07:02.510812,14
2021-09-22 20:07:02.510818,77
2021-09-22 20:07:02.510824,209
2021-09-22 20:07:02.510829,430
2021-09-22 20:07:02.510835,571
2021-09-22 20:07:02.510841,330
2021-09-22 20:07:02.510846,-177
2021-09-22 20:07:02.510852,-598
2021-09-22 20:07:02.510858,-647
2021-09-22 20:07:02.510864,-296
2021-09-22 20:07:02.691311,-24
2021-09-22 20:07:02.691329,-4
2021-09-22 20:07:02.691336,58
2021-09-22 20:07:02.691342,153
2021-09-22 20:07:02.691348,153
2021-09-22 20:07:02.691354,150
2021-09-22 20:07:02.691360,182
2021-09-22 20:07:02.691366,192
2021-09-22 20:07:02.691372,187
2021-09-22 20:07:02.691378,197
2021-09-22 20:07:02.691384,209
2021-09-22 20:07:02.691389,216
2021-09-22 20:07:02.691395,231
2021-09-22 20:07:02.691401,250
2021-09-22 20:07:02.691407,257
2021-09-22 20:07:02.691412,265
2021-09-22 20:07:02.691418,291
2021-09-22 20:07:02.691424,321
2021-09-22 20:07:02.691430,345
2021-09-22 20:07:02.691436,374
2021-09-22 20:07:02.691441,401
2021-09-22 20:07:02.691447,428
2021-09-22 20:07:02.691453,445
2021-09-22 20:07:02.691458,457
2021-09-22 20:07:02.691464,459
2021-09-22 20:07:02.691470,447
2021-09-22 20:07:02.691475,413
2021-09-22 20:07:02.691481,360
2021-09-22 20:07:02.691487,291
2021-09-22 20:07:02.691493,194
2021-09-22 20:07:02.961279,77
2021-09-22 20:07:02.961297,-29
2021-09-22 20:07:02.961304,-114
2021-09-22 20:07:02.961310,-180
2021-09-22 20:07:02.961316,-221
2021-09-22 20:07:02.961321,-240
2021-09-22 20:07:02.961327,-253
2021-09-22 20:07:02.961333,-265
2021-09-22 20:07:02.961339,-272
2021-09-22 20:07:02.961345,-272
2021-09-22 20:07:02.961351,-260
2021-09-22 20:07:02.961357,-245
2021-09-22 20:07:02.961362,-236
2021-09-22 20:07:02.961368,-223
2021-09-22 20:07:02.961374,-214
2021-09-22 20:07:02.961380,-197
2021-09-22 20:07:02.961385,-182
2021-09-22 20:07:02.961391,-172
2021-09-22 20:07:02.961397,-163
2021-09-22 20:07:02.961403,-153
2021-09-22 20:07:02.961409,-145
2021-09-22 20:07:02.961414,-141
2021-09-22 20:07:02.961420,-131
2021-09-22 20:07:02.961426,-126
2021-09-22 20:07:02.961432,-131
2021-09-22 20:07:02.961438,-133
2021-09-22 20:07:02.961444,-131
2021-09-22 20:07:02.961450,-128
2021-09-22 20:07:02.961456,-128
2021-09-22 20:07:02.961462,-124
2021-09-22 20:07:03.186345,-121
2021-09-22 20:07:03.186363,-121
2021-09-22 20:07:03.186370,-119
2021-09-22 20:07:03.186376,-119
2021-09-22 20:07:03.186382,-111
2021-09-22 20:07:03.186388,-104
2021-09-22 20:07:03.186394,-107
2021-09-22 20:07:03.186399,-111
2021-09-22 20:07:03.186405,-109
2021-09-22 20:07:03.186411,-99
2021-09-22 20:07:03.186417,-90
2021-09-22 20:07:03.186423,-85
2021-09-22 20:07:03.186429,-80
2021-09-22 20:07:03.186434,-77
2021-09-22 20:07:03.186440,-82
2021-09-22 20:07:03.186446,-80
2021-09-22 20:07:03.186452,-72
2021-09-22 20:07:03.186457,-68
2021-09-22 20:07:03.186463,-65
2021-09-22 20:07:03.186469,-65
2021-09-22 20:07:03.186475,-68
2021-09-22 20:07:03.186480,-63
2021-09-22 20:07:03.186486,-53
2021-09-22 20:07:03.186492,-51
2021-09-22 20:07:03.186497,-53
2021-09-22 20:07:03.186503,-53
2021-09-22 20:07:03.186509,-53
2021-09-22 20:07:03.186515,-55
2021-09-22 20:07:03.186520,-51
2021-09-22 20:07:03.186526,-43
2021-09-22 20:07:03.411334,-41
2021-09-22 20:07:03.411351,-41
2021-09-22 20:07:03.411358,-31
2021-09-22 20:07:03.411365,-12
2021-09-22 20:07:03.411371,-2
2021-09-22 20:07:03.411377,-7
2021-09-22 20:07:03.411382,-7
2021-09-22 20:07:03.411388,-2
2021-09-22 20:07:03.411394,-12
2021-09-22 20:07:03.411400,-29
2021-09-22 20:07:03.411406,-41
2021-09-22 20:07:03.411412,-41
2021-09-22 20:07:03.411418,-41
2021-09-22 20:07:03.411424,-43
2021-09-22 20:07:03.411430,-43
2021-09-22 20:07:03.411436,-38
2021-09-22 20:07:03.411441,-34
2021-09-22 20:07:03.411447,-31
2021-09-22 20:07:03.411453,-14
2021-09-22 20:07:03.411458,51
2021-09-22 20:07:03.411464,180
2021-09-22 20:07:03.411470,396
2021-09-22 20:07:03.411476,552
2021-09-22 20:07:03.411482,330
2021-09-22 20:07:03.411487,-170
2021-09-22 20:07:03.411493,-591
2021-09-22 20:07:03.411499,-676
2021-09-22 20:07:03.411505,-360
2021-09-22 20:07:03.411510,-65
2021-09-22 20:07:03.411516,-38
2021-09-22 20:07:03.636349,17
2021-09-22 20:07:03.636366,126
2021-09-22 20:07:03.636373,126
2021-09-22 20:07:03.636379,111
2021-09-22 20:07:03.636385,148
2021-09-22 20:07:03.636391,163
2021-09-22 20:07:03.636397,160
2021-09-22 20:07:03.636403,177
2021-09-22 20:07:03.636408,187
2021-09-22 20:07:03.636414,192
2021-09-22 20:07:03.636420,209
2021-09-22 20:07:03.636426,221
2021-09-22 20:07:03.636431,223
2021-09-22 20:07:03.636437,245
2021-09-22 20:07:03.636443,272
2021-09-22 20:07:03.636449,291
2021-09-22 20:07:03.636454,318
2021-09-22 20:07:03.636460,347
2021-09-22 20:07:03.636466,374
2021-09-22 20:07:03.636472,406
2021-09-22 20:07:03.636477,435
2021-09-22 20:07:03.636483,450
2021-09-22 20:07:03.636488,455
2021-09-22 20:07:03.636494,447
2021-09-22 20:07:03.636500,418
2021-09-22 20:07:03.636506,372
2021-09-22 20:07:03.636511,306
2021-09-22 20:07:03.636517,206
2021-09-22 20:07:03.636523,90
2021-09-22 20:07:03.636528,-17
2021-09-22 20:07:03.816265,-107
2021-09-22 20:07:03.816282,-177
2021-09-22 20:07:03.816288,-218
2021-09-22 20:07:03.816295,-248
2021-09-22 20:07:03.816301,-272
2021-09-22 20:07:03.816307,-287
2021-09-22 20:07:03.816313,-284
2021-09-22 20:07:03.816319,-282
2021-09-22 20:07:03.816324,-277
2021-09-22 20:07:03.816330,-267
2021-09-22 20:07:03.816336,-250
2021-09-22 20:07:03.816342,-240
2021-09-22 20:07:03.816347,-236
2021-09-22 20:07:03.816353,-218
2021-09-22 20:07:03.816359,-199
2021-09-22 20:07:03.816365,-187
2021-09-22 20:07:03.816371,-180
2021-09-22 20:07:03.816377,-172
2021-09-22 20:07:03.816383,-160
2021-09-22 20:07:03.816388,-148
2021-09-22 20:07:03.816394,-138
2021-09-22 20:07:03.816400,-131
2021-09-22 20:07:03.816406,-128
2021-09-22 20:07:03.816411,-126
2021-09-22 20:07:03.816417,-119
2021-09-22 20:07:03.816423,-114
2021-09-22 20:07:03.816429,-116
2021-09-22 20:07:03.816435,-119
2021-09-22 20:07:03.816443,-116
2021-09-22 20:07:03.816449,-116
2021-09-22 20:07:04.086374,-111
2021-09-22 20:07:04.086393,-104
2021-09-22 20:07:04.086400,-107
2021-09-22 20:07:04.086406,-111
2021-09-22 20:07:04.086412,-111
2021-09-22 20:07:04.086418,-109
2021-09-22 20:07:04.086424,-99
2021-09-22 20:07:04.086430,-90
2021-09-22 20:07:04.086435,-90
2021-09-22 20:07:04.086441,-94
2021-09-22 20:07:04.086447,-94
2021-09-22 20:07:04.086453,-87
2021-09-22 20:07:04.086459,-77
2021-09-22 20:07:04.086465,-75
2021-09-22 20:07:04.086470,-72
2021-09-22 20:07:04.086476,-68
2021-09-22 20:07:04.086482,-65
2021-09-22 20:07:04.086488,-63
2021-09-22 20:07:04.086494,-55
2021-09-22 20:07:04.086499,-51
2021-09-22 20:07:04.086505,-51
2021-09-22 20:07:04.086511,-53
2021-09-22 20:07:04.086517,-51
2021-09-22 20:07:04.086523,-43
2021-09-22 20:07:04.086529,-38
2021-09-22 20:07:04.086535,-36
2021-09-22 20:07:04.086541,-34
2021-09-22 20:07:04.086547,-31
2021-09-22 20:07:04.086553,-34
2021-09-22 20:07:04.086558,-29
2021-09-22 20:07:04.309932,-21
2021-09-22 20:07:04.309948,-19
2021-09-22 20:07:04.309955,-21
2021-09-22 20:07:04.309961,-14
2021-09-22 20:07:04.309967,-4
2021-09-22 20:07:04.309973,9
2021-09-22 20:07:04.309979,14
2021-09-22 20:07:04.309985,12
2021-09-22 20:07:04.309990,19
2021-09-22 20:07:04.309996,12
2021-09-22 20:07:04.310002,-12
2021-09-22 20:07:04.310008,-21
2021-09-22 20:07:04.310013,-24
2021-09-22 20:07:04.310019,-29
2021-09-22 20:07:04.310025,-26
2021-09-22 20:07:04.310031,-29
2021-09-22 20:07:04.310037,-38
2021-09-22 20:07:04.310042,-43
2021-09-22 20:07:04.310048,-43
2021-09-22 20:07:04.310054,-34
2021-09-22 20:07:04.310059,-4
2021-09-22 20:07:04.310065,60
2021-09-22 20:07:04.310071,201
2021-09-22 20:07:04.310076,447
2021-09-22 20:07:04.310082,581
2021-09-22 20:07:04.310088,299
2021-09-22 20:07:04.310094,-218
2021-09-22 20:07:04.310099,-615
2021-09-22 20:07:04.310105,-654
2021-09-22 20:07:04.310111,-304
2021-09-22 20:07:04.581368,-21
2021-09-22 20:07:04.581386,-4
2021-09-22 20:07:04.581393,53
2021-09-22 20:07:04.581399,133
2021-09-22 20:07:04.581405,119
2021-09-22 20:07:04.581411,119
2021-09-22 20:07:04.581417,153
2021-09-22 20:07:04.581423,153
2021-09-22 20:07:04.581428,148
2021-09-22 20:07:04.581434,160
2021-09-22 20:07:04.581440,167
2021-09-22 20:07:04.581446,180
2021-09-22 20:07:04.581451,194
2021-09-22 20:07:04.581457,211
2021-09-22 20:07:04.581463,223
2021-09-22 20:07:04.581469,238
2021-09-22 20:07:04.581475,262
2021-09-22 20:07:04.581481,294
2021-09-22 20:07:04.581487,326
2021-09-22 20:07:04.581493,355
2021-09-22 20:07:04.581498,386
2021-09-22 20:07:04.581504,416
2021-09-22 20:07:04.581509,442
2021-09-22 20:07:04.581515,464
2021-09-22 20:07:04.581521,472
2021-09-22 20:07:04.581527,462
2021-09-22 20:07:04.581533,430
2021-09-22 20:07:04.581538,379
2021-09-22 20:07:04.581544,306
2021-09-22 20:07:04.581550,206
2021-09-22 20:07:04.761275,92
2021-09-22 20:07:04.761292,-12
2021-09-22 20:07:04.761299,-102
2021-09-22 20:07:04.761305,-172
2021-09-22 20:07:04.761311,-218
2021-09-22 20:07:04.761317,-243
2021-09-22 20:07:04.761323,-257
2021-09-22 20:07:04.761328,-265
2021-09-22 20:07:04.761334,-265
2021-09-22 20:07:04.761340,-270
2021-09-22 20:07:04.761346,-265
2021-09-22 20:07:04.761352,-248
2021-09-22 20:07:04.761358,-233
2021-09-22 20:07:04.761364,-226
2021-09-22 20:07:04.761369,-221
2021-09-22 20:07:04.761375,-209
2021-09-22 20:07:04.761381,-189
2021-09-22 20:07:04.761387,-175
2021-09-22 20:07:04.761392,-163
2021-09-22 20:07:04.761398,-155
2021-09-22 20:07:04.761404,-150
2021-09-22 20:07:04.761409,-141
2021-09-22 20:07:04.761415,-138
2021-09-22 20:07:04.761421,-141
2021-09-22 20:07:04.761426,-133
2021-09-22 20:07:04.761432,-126
2021-09-22 20:07:04.761438,-128
2021-09-22 20:07:04.761444,-128
2021-09-22 20:07:04.761449,-124
2021-09-22 20:07:04.761455,-121
2021-09-22 20:07:05.075699,-116
2021-09-22 20:07:05.075716,-119
2021-09-22 20:07:05.075723,-119
2021-09-22 20:07:05.075729,-114
2021-09-22 20:07:05.075735,-109
2021-09-22 20:07:05.075741,-107
2021-09-22 20:07:05.075747,-104
2021-09-22 20:07:05.075753,-107
2021-09-22 20:07:05.075759,-109
2021-09-22 20:07:05.075765,-102
2021-09-22 20:07:05.075771,-97
2021-09-22 20:07:05.075776,-99
2021-09-22 20:07:05.075782,-97
2021-09-22 20:07:05.075787,-97
2021-09-22 20:07:05.075793,-97
2021-09-22 20:07:05.075798,-92
2021-09-22 20:07:05.075803,-82
2021-09-22 20:07:05.075808,-75
2021-09-22 20:07:05.075813,-75
2021-09-22 20:07:05.075819,-75
2021-09-22 20:07:05.075824,-72
2021-09-22 20:07:05.075829,-68
2021-09-22 20:07:05.075834,-63
2021-09-22 20:07:05.075840,-60
2021-09-22 20:07:05.075845,-55
2021-09-22 20:07:05.075850,-53
2021-09-22 20:07:05.075855,-51
2021-09-22 20:07:05.075860,-48
2021-09-22 20:07:05.075865,-46
2021-09-22 20:07:05.075871,-41
2021-09-22 20:07:05.211299,-36
2021-09-22 20:07:05.211316,-34
2021-09-22 20:07:05.211323,-34
2021-09-22 20:07:05.211329,-31
2021-09-22 20:07:05.211335,-29
2021-09-22 20:07:05.211341,-21
2021-09-22 20:07:05.211347,-24
2021-09-22 20:07:05.211353,-34
2021-09-22 20:07:05.211359,-29
2021-09-22 20:07:05.211365,-19
2021-09-22 20:07:05.211370,-7
2021-09-22 20:07:05.211377,9
2021-09-22 20:07:05.211383,14
2021-09-22 20:07:05.211388,2
2021-09-22 20:07:05.211394,4
2021-09-22 20:07:05.211400,17
2021-09-22 20:07:05.211406,4
2021-09-22 20:07:05.211411,-12
2021-09-22 20:07:05.211417,-21
2021-09-22 20:07:05.211423,-26
2021-09-22 20:07:05.211429,-24
2021-09-22 20:07:05.211435,-21
2021-09-22 20:07:05.211440,-21
2021-09-22 20:07:05.211446,-17
2021-09-22 20:07:05.211452,-19
2021-09-22 20:07:05.211458,-19
2021-09-22 20:07:05.211464,-2
2021-09-22 20:07:05.211470,43
2021-09-22 20:07:05.211475,141
2021-09-22 20:07:05.211481,343
2021-09-22 20:07:05.436373,569
2021-09-22 20:07:05.436391,467
2021-09-22 20:07:05.436398,0
2021-09-22 20:07:05.436404,-484
2021-09-22 20:07:05.436411,-693
2021-09-22 20:07:05.436417,-459
2021-09-22 20:07:05.436423,-104
2021-09-22 20:07:05.436428,-17
2021-09-22 20:07:05.436434,14
2021-09-22 20:07:05.436440,111
2021-09-22 20:07:05.436446,128
2021-09-22 20:07:05.436452,109
2021-09-22 20:07:05.436458,131
2021-09-22 20:07:05.436464,148
2021-09-22 20:07:05.436469,148
2021-09-22 20:07:05.436475,153
2021-09-22 20:07:05.436481,165
2021-09-22 20:07:05.436487,177
2021-09-22 20:07:05.436493,187
2021-09-22 20:07:05.436498,201
2021-09-22 20:07:05.436504,218
2021-09-22 20:07:05.436510,233
2021-09-22 20:07:05.436516,255
2021-09-22 20:07:05.436521,279
2021-09-22 20:07:05.436527,306
2021-09-22 20:07:05.436533,335
2021-09-22 20:07:05.436539,369
2021-09-22 20:07:05.436544,403
2021-09-22 20:07:05.436550,435
2021-09-22 20:07:05.436556,455
2021-09-22 20:07:05.661320,457
2021-09-22 20:07:05.661338,457
2021-09-22 20:07:05.661345,442
2021-09-22 20:07:05.661351,401
2021-09-22 20:07:05.661357,338
2021-09-22 20:07:05.661363,243
2021-09-22 20:07:05.661369,128
2021-09-22 20:07:05.661375,21
2021-09-22 20:07:05.661381,-70
2021-09-22 20:07:05.661387,-148
2021-09-22 20:07:05.661392,-214
2021-09-22 20:07:05.661398,-257
2021-09-22 20:07:05.661404,-277
2021-09-22 20:07:05.661410,-284
2021-09-22 20:07:05.661416,-284
2021-09-22 20:07:05.661422,-282
2021-09-22 20:07:05.661428,-277
2021-09-22 20:07:05.661434,-267
2021-09-22 20:07:05.661439,-255
2021-09-22 20:07:05.661445,-236
2021-09-22 20:07:05.661451,-221
2021-09-22 20:07:05.661457,-209
2021-09-22 20:07:05.661462,-194
2021-09-22 20:07:05.661471,-180
2021-09-22 20:07:05.661477,-167
2021-09-22 20:07:05.661483,-153
2021-09-22 20:07:05.661489,-143
2021-09-22 20:07:05.661494,-136
2021-09-22 20:07:05.661500,-128
2021-09-22 20:07:05.661506,-124
2021-09-22 20:07:05.931305,-116
2021-09-22 20:07:05.931322,-109
2021-09-22 20:07:05.931329,-107
2021-09-22 20:07:05.931335,-116
2021-09-22 20:07:05.931341,-131
2021-09-22 20:07:05.931347,-136
2021-09-22 20:07:05.931353,-126
2021-09-22 20:07:05.931359,-121
2021-09-22 20:07:05.931364,-121
2021-09-22 20:07:05.931370,-121
2021-09-22 20:07:05.931376,-121
2021-09-22 20:07:05.931382,-121
2021-09-22 20:07:05.931388,-114
2021-09-22 20:07:05.931394,-104
2021-09-22 20:07:05.931399,-102
2021-09-22 20:07:05.931405,-99
2021-09-22 20:07:05.931411,-97
2021-09-22 20:07:05.931417,-92
2021-09-22 20:07:05.931423,-87
2021-09-22 20:07:05.931428,-87
2021-09-22 20:07:05.931434,-85
2021-09-22 20:07:05.931440,-80
2021-09-22 20:07:05.931446,-77
2021-09-22 20:07:05.931451,-75
2021-09-22 20:07:05.931457,-68
2021-09-22 20:07:05.931463,-63
2021-09-22 20:07:05.931469,-63
2021-09-22 20:07:05.931474,-63
2021-09-22 20:07:05.931480,-58
2021-09-22 20:07:05.931486,-53
2021-09-22 20:07:06.156372,-51
2021-09-22 20:07:06.156389,-46
2021-09-22 20:07:06.156396,-43
2021-09-22 20:07:06.156402,-46
2021-09-22 20:07:06.156408,-48
2021-09-22 20:07:06.156415,-43
2021-09-22 20:07:06.156421,-36
2021-09-22 20:07:06.156427,-34
2021-09-22 20:07:06.156433,-34
2021-09-22 20:07:06.156439,-36
2021-09-22 20:07:06.156445,-34
2021-09-22 20:07:06.156451,-29
2021-09-22 20:07:06.156457,-24
2021-09-22 20:07:06.156463,-17
2021-09-22 20:07:06.156468,-17
2021-09-22 20:07:06.156474,-26
2021-09-22 20:07:06.156480,-31
2021-09-22 20:07:06.156486,-21
2021-09-22 20:07:06.156492,-9
2021-09-22 20:07:06.156498,7
2021-09-22 20:07:06.156503,19
2021-09-22 20:07:06.156509,9
2021-09-22 20:07:06.156515,7
2021-09-22 20:07:06.156521,24
2021-09-22 20:07:06.156527,21
2021-09-22 20:07:06.156533,2
2021-09-22 20:07:06.156539,-12
2021-09-22 20:07:06.156545,-24
2021-09-22 20:07:06.156550,-26
2021-09-22 20:07:06.156556,-14
2021-09-22 20:07:06.425041,-12
2021-09-22 20:07:06.425058,-12
2021-09-22 20:07:06.425065,-14
2021-09-22 20:07:06.425072,-21
2021-09-22 20:07:06.425078,-19
2021-09-22 20:07:06.425084,9
2021-09-22 20:07:06.425090,75
2021-09-22 20:07:06.425095,204
2021-09-22 20:07:06.425101,435
2021-09-22 20:07:06.425107,593
2021-09-22 20:07:06.425113,360
2021-09-22 20:07:06.425119,-150
2021-09-22 20:07:06.425125,-576
2021-09-22 20:07:06.425130,-656
2021-09-22 20:07:06.425136,-330
2021-09-22 20:07:06.425142,-43
2021-09-22 20:07:06.425148,-14
2021-09-22 20:07:06.425153,46
2021-09-22 20:07:06.425159,141
2021-09-22 20:07:06.425165,133
2021-09-22 20:07:06.425170,121
2021-09-22 20:07:06.425176,150
2021-09-22 20:07:06.425182,160
2021-09-22 20:07:06.425188,158
2021-09-22 20:07:06.425194,167
2021-09-22 20:07:06.425200,182
2021-09-22 20:07:06.425206,189
2021-09-22 20:07:06.425212,194
2021-09-22 20:07:06.425217,204
2021-09-22 20:07:06.425223,223
2021-09-22 20:07:06.606381,245
2021-09-22 20:07:06.606398,265
2021-09-22 20:07:06.606405,287
2021-09-22 20:07:06.606411,311
2021-09-22 20:07:06.606417,343
2021-09-22 20:07:06.606423,379
2021-09-22 20:07:06.606429,408
2021-09-22 20:07:06.606435,433
2021-09-22 20:07:06.606441,442
2021-09-22 20:07:06.606446,440
2021-09-22 20:07:06.606452,433
2021-09-22 20:07:06.606458,413
2021-09-22 20:07:06.606464,372
2021-09-22 20:07:06.606470,301
2021-09-22 20:07:06.606475,197
2021-09-22 20:07:06.606481,80
2021-09-22 20:07:06.606487,-21
2021-09-22 20:07:06.606493,-109
2021-09-22 20:07:06.606498,-180
2021-09-22 20:07:06.606504,-228
2021-09-22 20:07:06.606510,-257
2021-09-22 20:07:06.606516,-272
2021-09-22 20:07:06.606521,-277
2021-09-22 20:07:06.606527,-272
2021-09-22 20:07:06.606533,-267
2021-09-22 20:07:06.606539,-265
2021-09-22 20:07:06.606544,-262
2021-09-22 20:07:06.606550,-248
2021-09-22 20:07:06.606556,-226
2021-09-22 20:07:06.606562,-211
2021-09-22 20:07:06.831320,-197
2021-09-22 20:07:06.831337,-182
2021-09-22 20:07:06.831344,-170
2021-09-22 20:07:06.831351,-158
2021-09-22 20:07:06.831357,-143
2021-09-22 20:07:06.831363,-131
2021-09-22 20:07:06.831369,-124
2021-09-22 20:07:06.831375,-124
2021-09-22 20:07:06.831381,-121
2021-09-22 20:07:06.831386,-116
2021-09-22 20:07:06.831392,-111
2021-09-22 20:07:06.831398,-109
2021-09-22 20:07:06.831404,-109
2021-09-22 20:07:06.831410,-111
2021-09-22 20:07:06.831416,-119
2021-09-22 20:07:06.831422,-126
2021-09-22 20:07:06.831427,-128
2021-09-22 20:07:06.831433,-121
2021-09-22 20:07:06.831439,-116
2021-09-22 20:07:06.831445,-114
2021-09-22 20:07:06.831451,-109
2021-09-22 20:07:06.831457,-107
2021-09-22 20:07:06.831462,-102
2021-09-22 20:07:06.831468,-94
2021-09-22 20:07:06.831474,-90
2021-09-22 20:07:06.831480,-87
2021-09-22 20:07:06.831486,-87
2021-09-22 20:07:06.831492,-90
2021-09-22 20:07:06.831498,-87
2021-09-22 20:07:06.831504,-77
2021-09-22 20:07:07.056349,-72
2021-09-22 20:07:07.056365,-72
2021-09-22 20:07:07.056373,-70
2021-09-22 20:07:07.056379,-65
2021-09-22 20:07:07.056385,-60
2021-09-22 20:07:07.056391,-53
2021-09-22 20:07:07.056397,-53
2021-09-22 20:07:07.056403,-60
2021-09-22 20:07:07.056410,-58
2021-09-22 20:07:07.056416,-51
2021-09-22 20:07:07.056422,-48
2021-09-22 20:07:07.056428,-48
2021-09-22 20:07:07.056434,-46
2021-09-22 20:07:07.056440,-48
2021-09-22 20:07:07.056446,-48
2021-09-22 20:07:07.056452,-43
2021-09-22 20:07:07.056458,-38
2021-09-22 20:07:07.056464,-36
2021-09-22 20:07:07.056470,-34
2021-09-22 20:07:07.056476,-31
2021-09-22 20:07:07.056482,-29
2021-09-22 20:07:07.056488,-26
2021-09-22 20:07:07.056494,-21
2021-09-22 20:07:07.056499,-17
2021-09-22 20:07:07.056505,-17
2021-09-22 20:07:07.056511,-19
2021-09-22 20:07:07.056517,-17
2021-09-22 20:07:07.056523,-4
2021-09-22 20:07:07.056529,9
2021-09-22 20:07:07.056535,14
2021-09-22 20:07:07.281329,2
2021-09-22 20:07:07.281346,7
2021-09-22 20:07:07.281353,21
2021-09-22 20:07:07.281359,9
2021-09-22 20:07:07.281365,-9
2021-09-22 20:07:07.281371,-17
2021-09-22 20:07:07.281377,-29
2021-09-22 20:07:07.281383,-34
2021-09-22 20:07:07.281389,-24
2021-09-22 20:07:07.281395,-21
2021-09-22 20:07:07.281401,-24
2021-09-22 20:07:07.281407,-21
2021-09-22 20:07:07.281413,-24
2021-09-22 20:07:07.281419,-19
2021-09-22 20:07:07.281425,17
2021-09-22 20:07:07.281431,94
2021-09-22 20:07:07.281437,253
2021-09-22 20:07:07.281442,501
2021-09-22 20:07:07.281448,591
2021-09-22 20:07:07.281454,262
2021-09-22 20:07:07.281460,-270
2021-09-22 20:07:07.281466,-652
2021-09-22 20:07:07.281472,-620
2021-09-22 20:07:07.281478,-243
2021-09-22 20:07:07.281483,-19
2021-09-22 20:07:07.281489,-17
2021-09-22 20:07:07.281495,58
2021-09-22 20:07:07.281501,131
2021-09-22 20:07:07.281507,109
2021-09-22 20:07:07.281512,114
2021-09-22 20:07:07.506412,145
2021-09-22 20:07:07.506430,145
2021-09-22 20:07:07.506437,141
2021-09-22 20:07:07.506443,155
2021-09-22 20:07:07.506449,170
2021-09-22 20:07:07.506455,170
2021-09-22 20:07:07.506461,170
2021-09-22 20:07:07.506467,187
2021-09-22 20:07:07.506473,206
2021-09-22 20:07:07.506479,218
2021-09-22 20:07:07.506485,233
2021-09-22 20:07:07.506491,257
2021-09-22 20:07:07.506496,282
2021-09-22 20:07:07.506502,316
2021-09-22 20:07:07.506508,352
2021-09-22 20:07:07.506514,382
2021-09-22 20:07:07.506520,408
2021-09-22 20:07:07.506526,428
2021-09-22 20:07:07.506531,430
2021-09-22 20:07:07.506537,423
2021-09-22 20:07:07.506543,406
2021-09-22 20:07:07.506549,360
2021-09-22 20:07:07.506555,282
2021-09-22 20:07:07.506561,182
2021-09-22 20:07:07.506566,75
2021-09-22 20:07:07.506573,-24
2021-09-22 20:07:07.506579,-111
2021-09-22 20:07:07.506584,-180
2021-09-22 20:07:07.506591,-226
2021-09-22 20:07:07.506596,-250
2021-09-22 20:07:07.731307,-260
2021-09-22 20:07:07.731323,-262
2021-09-22 20:07:07.731330,-260
2021-09-22 20:07:07.731337,-262
2021-09-22 20:07:07.731343,-265
2021-09-22 20:07:07.731349,-255
2021-09-22 20:07:07.731354,-236
2021-09-22 20:07:07.731361,-216
2021-09-22 20:07:07.731367,-201
2021-09-22 20:07:07.731372,-192
2021-09-22 20:07:07.731378,-182
2021-09-22 20:07:07.731384,-170
2021-09-22 20:07:07.731390,-155
2021-09-22 20:07:07.731396,-138
2021-09-22 20:07:07.731402,-128
2021-09-22 20:07:07.731408,-126
2021-09-22 20:07:07.731414,-116
2021-09-22 20:07:07.731423,-109
2021-09-22 20:07:07.731429,-104
2021-09-22 20:07:07.731435,-99
2021-09-22 20:07:07.731441,-97
2021-09-22 20:07:07.731447,-97
2021-09-22 20:07:07.731453,-97
2021-09-22 20:07:07.731459,-94
2021-09-22 20:07:07.731464,-90
2021-09-22 20:07:07.731470,-87
2021-09-22 20:07:07.731476,-90
2021-09-22 20:07:07.731482,-99
2021-09-22 20:07:07.731487,-109
2021-09-22 20:07:07.731493,-102
2021-09-22 20:07:07.956401,-90
2021-09-22 20:07:07.956419,-85
2021-09-22 20:07:07.956426,-82
2021-09-22 20:07:07.956432,-87
2021-09-22 20:07:07.956438,-90
2021-09-22 20:07:07.956444,-90
2021-09-22 20:07:07.956450,-90
2021-09-22 20:07:07.956456,-82
2021-09-22 20:07:07.956462,-75
2021-09-22 20:07:07.956468,-77
2021-09-22 20:07:07.956475,-82
2021-09-22 20:07:07.956480,-75
2021-09-22 20:07:07.956487,-65
2021-09-22 20:07:07.956492,-60
2021-09-22 20:07:07.956498,-58
2021-09-22 20:07:07.956504,-58
2021-09-22 20:07:07.956510,-60
2021-09-22 20:07:07.956516,-53
2021-09-22 20:07:07.956522,-46
2021-09-22 20:07:07.956528,-46
2021-09-22 20:07:07.956534,-46
2021-09-22 20:07:07.956539,-43
2021-09-22 20:07:07.956545,-38
2021-09-22 20:07:07.956551,-34
2021-09-22 20:07:07.956557,-29
2021-09-22 20:07:07.956562,-24
2021-09-22 20:07:07.956568,-24
2021-09-22 20:07:07.956574,-24
2021-09-22 20:07:07.956580,-26
2021-09-22 20:07:07.956586,-19
2021-09-22 20:07:08.226325,-14
2021-09-22 20:07:08.226342,-12
2021-09-22 20:07:08.226350,-12
2021-09-22 20:07:08.226356,-19
2021-09-22 20:07:08.226362,-26
2021-09-22 20:07:08.226368,-19
2021-09-22 20:07:08.226374,-7
2021-09-22 20:07:08.226379,2
2021-09-22 20:07:08.226385,7
2021-09-22 20:07:08.226391,2
2021-09-22 20:07:08.226397,-2
2021-09-22 20:07:08.226403,12
2021-09-22 20:07:08.226409,19
2021-09-22 20:07:08.226415,0
2021-09-22 20:07:08.226420,-19
2021-09-22 20:07:08.226426,-29
2021-09-22 20:07:08.226432,-24
2021-09-22 20:07:08.226438,-19
2021-09-22 20:07:08.226444,-17
2021-09-22 20:07:08.226449,-17
2021-09-22 20:07:08.226455,-17
2021-09-22 20:07:08.226461,-19
2021-09-22 20:07:08.226466,-14
2021-09-22 20:07:08.226472,17
2021-09-22 20:07:08.226478,85
2021-09-22 20:07:08.226483,218
2021-09-22 20:07:08.226489,450
2021-09-22 20:07:08.226495,603
2021-09-22 20:07:08.226501,357
2021-09-22 20:07:08.226506,-160
2021-09-22 20:07:08.495085,-586
2021-09-22 20:07:08.495103,-656
2021-09-22 20:07:08.495111,-328
2021-09-22 20:07:08.495117,-51
2021-09-22 20:07:08.495123,-21
2021-09-22 20:07:08.495129,43
2021-09-22 20:07:08.495135,133
2021-09-22 20:07:08.495141,121
2021-09-22 20:07:08.495147,102
2021-09-22 20:07:08.495153,121
2021-09-22 20:07:08.495159,126
2021-09-22 20:07:08.495165,128
2021-09-22 20:07:08.495171,145
2021-09-22 20:07:08.495177,158
2021-09-22 20:07:08.495183,155
2021-09-22 20:07:08.495189,160
2021-09-22 20:07:08.495195,184
2021-09-22 20:07:08.495200,206
2021-09-22 20:07:08.495206,218
2021-09-22 20:07:08.495212,240
2021-09-22 20:07:08.495218,267
2021-09-22 20:07:08.495224,291
2021-09-22 20:07:08.495230,323
2021-09-22 20:07:08.495236,360
2021-09-22 20:07:08.495242,396
2021-09-22 20:07:08.495247,430
2021-09-22 20:07:08.495253,450
2021-09-22 20:07:08.495259,459
2021-09-22 20:07:08.495264,455
2021-09-22 20:07:08.495270,433
2021-09-22 20:07:08.721399,391
2021-09-22 20:07:08.721417,333
2021-09-22 20:07:08.721424,238
2021-09-22 20:07:08.721430,119
2021-09-22 20:07:08.721437,17
2021-09-22 20:07:08.721443,-65
2021-09-22 20:07:08.721449,-136
2021-09-22 20:07:08.721454,-192
2021-09-22 20:07:08.721460,-228
2021-09-22 20:07:08.721466,-240
2021-09-22 20:07:08.721472,-245
2021-09-22 20:07:08.721478,-253
2021-09-22 20:07:08.721484,-255
2021-09-22 20:07:08.721490,-250
2021-09-22 20:07:08.721495,-238
2021-09-22 20:07:08.721501,-226
2021-09-22 20:07:08.721507,-206
2021-09-22 20:07:08.721513,-187
2021-09-22 20:07:08.721519,-170
2021-09-22 20:07:08.721524,-158
2021-09-22 20:07:08.721530,-145
2021-09-22 20:07:08.721536,-133
2021-09-22 20:07:08.721542,-121
2021-09-22 20:07:08.721548,-111
2021-09-22 20:07:08.721553,-102
2021-09-22 20:07:08.721559,-94
2021-09-22 20:07:08.721565,-90
2021-09-22 20:07:08.721571,-85
2021-09-22 20:07:08.721577,-80
2021-09-22 20:07:08.721582,-75
2021-09-22 20:07:08.901486,-70
2021-09-22 20:07:08.901507,-72
2021-09-22 20:07:08.901514,-75
2021-09-22 20:07:08.901520,-77
2021-09-22 20:07:08.901527,-72
2021-09-22 20:07:08.901533,-65
2021-09-22 20:07:08.901539,-65
2021-09-22 20:07:08.901545,-75
2021-09-22 20:07:08.901551,-85
2021-09-22 20:07:08.901557,-87
2021-09-22 20:07:08.901563,-85
2021-09-22 20:07:08.901569,-72
2021-09-22 20:07:08.901575,-65
2021-09-22 20:07:08.901581,-65
2021-09-22 20:07:08.901587,-70
2021-09-22 20:07:08.901593,-65
2021-09-22 20:07:08.901598,-53
2021-09-22 20:07:08.901604,-51
2021-09-22 20:07:08.901610,-55
2021-09-22 20:07:08.901616,-58
2021-09-22 20:07:08.901622,-51
2021-09-22 20:07:08.901628,-43
2021-09-22 20:07:08.901634,-41
2021-09-22 20:07:08.901639,-36
2021-09-22 20:07:08.901645,-31
2021-09-22 20:07:08.901651,-31
2021-09-22 20:07:08.901657,-29
2021-09-22 20:07:08.901663,-26
2021-09-22 20:07:08.901669,-24
2021-09-22 20:07:08.901674,-21
2021-09-22 20:07:09.126437,-17
2021-09-22 20:07:09.126455,-14
2021-09-22 20:07:09.126462,-12
2021-09-22 20:07:09.126468,-9
2021-09-22 20:07:09.126475,-2
2021-09-22 20:07:09.126481,-2
2021-09-22 20:07:09.126486,-14
2021-09-22 20:07:09.126492,-12
2021-09-22 20:07:09.126498,7
2021-09-22 20:07:09.126504,21
2021-09-22 20:07:09.126510,26
2021-09-22 20:07:09.126516,24
2021-09-22 20:07:09.126522,24
2021-09-22 20:07:09.126528,24
2021-09-22 20:07:09.126533,14
2021-09-22 20:07:09.126539,-4
2021-09-22 20:07:09.126545,-17
2021-09-22 20:07:09.126551,-17
2021-09-22 20:07:09.126557,-12
2021-09-22 20:07:09.126563,-14
2021-09-22 20:07:09.126569,-12
2021-09-22 20:07:09.126575,-9
2021-09-22 20:07:09.126581,-4
2021-09-22 20:07:09.126587,2
2021-09-22 20:07:09.126593,31
2021-09-22 20:07:09.126599,107
2021-09-22 20:07:09.126604,231
2021-09-22 20:07:09.126610,428
2021-09-22 20:07:09.126616,562
2021-09-22 20:07:09.126622,352
2021-09-22 20:07:09.351449,-119
2021-09-22 20:07:09.351467,-549
2021-09-22 20:07:09.351474,-647
2021-09-22 20:07:09.351480,-313
2021-09-22 20:07:09.351487,-24
2021-09-22 20:07:09.351493,-17
2021-09-22 20:07:09.351499,34
2021-09-22 20:07:09.351505,145
2021-09-22 20:07:09.351511,148
2021-09-22 20:07:09.351517,131
2021-09-22 20:07:09.351523,163
2021-09-22 20:07:09.351529,172
2021-09-22 20:07:09.351534,165
2021-09-22 20:07:09.351540,177
2021-09-22 20:07:09.351546,180
2021-09-22 20:07:09.351552,172
2021-09-22 20:07:09.351558,184
2021-09-22 20:07:09.351564,197
2021-09-22 20:07:09.351569,199
2021-09-22 20:07:09.351575,218
2021-09-22 20:07:09.351581,250
2021-09-22 20:07:09.351587,274
2021-09-22 20:07:09.351593,296
2021-09-22 20:07:09.351598,328
2021-09-22 20:07:09.351604,362
2021-09-22 20:07:09.351610,396
2021-09-22 20:07:09.351616,423
2021-09-22 20:07:09.351622,440
2021-09-22 20:07:09.351628,447
2021-09-22 20:07:09.351633,442
2021-09-22 20:07:09.620869,423
2021-09-22 20:07:09.620889,384
2021-09-22 20:07:09.620896,318
2021-09-22 20:07:09.620902,221
2021-09-22 20:07:09.620908,107
2021-09-22 20:07:09.620915,-4
2021-09-22 20:07:09.620921,-92
2021-09-22 20:07:09.620927,-158
2021-09-22 20:07:09.620933,-209
2021-09-22 20:07:09.620939,-240
2021-09-22 20:07:09.620945,-257
2021-09-22 20:07:09.620951,-270
2021-09-22 20:07:09.620957,-267
2021-09-22 20:07:09.620963,-253
2021-09-22 20:07:09.620969,-243
2021-09-22 20:07:09.620975,-233
2021-09-22 20:07:09.620981,-218
2021-09-22 20:07:09.620986,-204
2021-09-22 20:07:09.620992,-192
2021-09-22 20:07:09.620998,-180
2021-09-22 20:07:09.621004,-172
2021-09-22 20:07:09.621010,-163
2021-09-22 20:07:09.621015,-153
2021-09-22 20:07:09.621021,-145
2021-09-22 20:07:09.621027,-136
2021-09-22 20:07:09.621033,-124
2021-09-22 20:07:09.621039,-119
2021-09-22 20:07:09.621045,-116
2021-09-22 20:07:09.621051,-114
2021-09-22 20:07:09.621056,-111
2021-09-22 20:07:09.801820,-107
2021-09-22 20:07:09.801838,-102
2021-09-22 20:07:09.801846,-102
2021-09-22 20:07:09.801852,-107
2021-09-22 20:07:09.801858,-114
2021-09-22 20:07:09.801864,-114
2021-09-22 20:07:09.801871,-104
2021-09-22 20:07:09.801877,-99
2021-09-22 20:07:09.801883,-99
2021-09-22 20:07:09.801888,-104
2021-09-22 20:07:09.801895,-107
2021-09-22 20:07:09.801901,-104
2021-09-22 20:07:09.801907,-94
2021-09-22 20:07:09.801912,-90
2021-09-22 20:07:09.801918,-90
2021-09-22 20:07:09.801924,-90
2021-09-22 20:07:09.801930,-90
2021-09-22 20:07:09.801936,-87
2021-09-22 20:07:09.801942,-80
2021-09-22 20:07:09.801948,-77
2021-09-22 20:07:09.801954,-87
2021-09-22 20:07:09.801960,-94
2021-09-22 20:07:09.801966,-90
2021-09-22 20:07:09.801972,-85
2021-09-22 20:07:09.801978,-82
2021-09-22 20:07:09.801984,-77
2021-09-22 20:07:09.801990,-72
2021-09-22 20:07:09.801996,-75
2021-09-22 20:07:09.802002,-72
2021-09-22 20:07:09.802008,-68
2021-09-22 20:07:10.115912,-65
2021-09-22 20:07:10.115932,-63
2021-09-22 20:07:10.115940,-60
2021-09-22 20:07:10.115946,-68
2021-09-22 20:07:10.115952,-70
2021-09-22 20:07:10.115958,-60
2021-09-22 20:07:10.115964,-55
2021-09-22 20:07:10.115970,-58
2021-09-22 20:07:10.115976,-55
2021-09-22 20:07:10.115982,-51
2021-09-22 20:07:10.115988,-36
2021-09-22 20:07:10.115994,-24
2021-09-22 20:07:10.116000,-26
2021-09-22 20:07:10.116006,-19
2021-09-22 20:07:10.116015,-14
2021-09-22 20:07:10.116021,-31
2021-09-22 20:07:10.116027,-51
2021-09-22 20:07:10.116032,-53
2021-09-22 20:07:10.116038,-55
2021-09-22 20:07:10.116044,-48
2021-09-22 20:07:10.116050,-48
2021-09-22 20:07:10.116056,-53
2021-09-22 20:07:10.116062,-51
2021-09-22 20:07:10.116067,-48
2021-09-22 20:07:10.116073,-51
2021-09-22 20:07:10.116079,-24
2021-09-22 20:07:10.116084,55
2021-09-22 20:07:10.116090,194
2021-09-22 20:07:10.116096,428
2021-09-22 20:07:10.116102,569
2021-09-22 20:07:10.296369,294
2021-09-22 20:07:10.296387,-233
2021-09-22 20:07:10.296394,-630
2021-09-22 20:07:10.296401,-681
2021-09-22 20:07:10.296407,-340
2021-09-22 20:07:10.296413,-51
2021-09-22 20:07:10.296419,-26
2021-09-22 20:07:10.296425,34
2021-09-22 20:07:10.296431,121
2021-09-22 20:07:10.296437,99
2021-09-22 20:07:10.296443,94
2021-09-22 20:07:10.296449,138
2021-09-22 20:07:10.296455,143
2021-09-22 20:07:10.296461,136
2021-09-22 20:07:10.296467,145
2021-09-22 20:07:10.296473,148
2021-09-22 20:07:10.296479,155
2021-09-22 20:07:10.296485,175
2021-09-22 20:07:10.296491,189
2021-09-22 20:07:10.296496,204
2021-09-22 20:07:10.296502,221
2021-09-22 20:07:10.296508,236
2021-09-22 20:07:10.296514,262
2021-09-22 20:07:10.296520,289
2021-09-22 20:07:10.296526,316
2021-09-22 20:07:10.296532,347
2021-09-22 20:07:10.296538,369
2021-09-22 20:07:10.296544,386
2021-09-22 20:07:10.296550,411
2021-09-22 20:07:10.296556,428
2021-09-22 20:07:10.610254,423
2021-09-22 20:07:10.610274,401
2021-09-22 20:07:10.610281,357
2021-09-22 20:07:10.610288,287
2021-09-22 20:07:10.610294,194
2021-09-22 20:07:10.610300,85
2021-09-22 20:07:10.610306,-24
2021-09-22 20:07:10.610312,-119
2021-09-22 20:07:10.610318,-197
2021-09-22 20:07:10.610323,-250
2021-09-22 20:07:10.610329,-274
2021-09-22 20:07:10.610335,-284
2021-09-22 20:07:10.610342,-289
2021-09-22 20:07:10.610347,-289
2021-09-22 20:07:10.610353,-291
2021-09-22 20:07:10.610359,-284
2021-09-22 20:07:10.610365,-267
2021-09-22 20:07:10.610371,-250
2021-09-22 20:07:10.610377,-236
2021-09-22 20:07:10.610383,-223
2021-09-22 20:07:10.610389,-211
2021-09-22 20:07:10.610395,-194
2021-09-22 20:07:10.610400,-177
2021-09-22 20:07:10.610406,-163
2021-09-22 20:07:10.610412,-150
2021-09-22 20:07:10.610418,-141
2021-09-22 20:07:10.610424,-136
2021-09-22 20:07:10.610430,-131
2021-09-22 20:07:10.610435,-126
2021-09-22 20:07:10.610441,-121
2021-09-22 20:07:10.746466,-114
2021-09-22 20:07:10.746485,-111
2021-09-22 20:07:10.746492,-116
2021-09-22 20:07:10.746498,-114
2021-09-22 20:07:10.746504,-109
2021-09-22 20:07:10.746511,-107
2021-09-22 20:07:10.746517,-107
2021-09-22 20:07:10.746523,-102
2021-09-22 20:07:10.746529,-102
2021-09-22 20:07:10.746535,-99
2021-09-22 20:07:10.746541,-94
2021-09-22 20:07:10.746547,-87
2021-09-22 20:07:10.746553,-87
2021-09-22 20:07:10.746559,-92
2021-09-22 20:07:10.746565,-92
2021-09-22 20:07:10.746571,-85
2021-09-22 20:07:10.746577,-82
2021-09-22 20:07:10.746582,-77
2021-09-22 20:07:10.746588,-75
2021-09-22 20:07:10.746594,-80
2021-09-22 20:07:10.746600,-77
2021-09-22 20:07:10.746606,-70
2021-09-22 20:07:10.746612,-65
2021-09-22 20:07:10.746618,-63
2021-09-22 20:07:10.746623,-58
2021-09-22 20:07:10.746629,-55
2021-09-22 20:07:10.746635,-55
2021-09-22 20:07:10.746641,-58
2021-09-22 20:07:10.746647,-55
2021-09-22 20:07:10.746653,-53
2021-09-22 20:07:10.971434,-55
2021-09-22 20:07:10.971452,-55
2021-09-22 20:07:10.971459,-58
2021-09-22 20:07:10.971465,-65
2021-09-22 20:07:10.971471,-63
2021-09-22 20:07:10.971477,-55
2021-09-22 20:07:10.971483,-60
2021-09-22 20:07:10.971490,-65
2021-09-22 20:07:10.971496,-58
2021-09-22 20:07:10.971501,-51
2021-09-22 20:07:10.971507,-51
2021-09-22 20:07:10.971513,-51
2021-09-22 20:07:10.971519,-46
2021-09-22 20:07:10.971525,-34
2021-09-22 20:07:10.971531,-14
2021-09-22 20:07:10.971537,-9
2021-09-22 20:07:10.971543,-14
2021-09-22 20:07:10.971549,-4
2021-09-22 20:07:10.971555,0
2021-09-22 20:07:10.971561,-17
2021-09-22 20:07:10.971566,-31
2021-09-22 20:07:10.971572,-38
2021-09-22 20:07:10.971578,-41
2021-09-22 20:07:10.971584,-34
2021-09-22 20:07:10.971590,-31
2021-09-22 20:07:10.971596,-34
2021-09-22 20:07:10.971602,-29
2021-09-22 20:07:10.971608,-26
2021-09-22 20:07:10.971614,-19
2021-09-22 20:07:10.971620,4
2021-09-22 20:07:11.196538,70
2021-09-22 20:07:11.196558,209
2021-09-22 20:07:11.196565,452
2021-09-22 20:07:11.196571,610
2021-09-22 20:07:11.196577,357
2021-09-22 20:07:11.196583,-182
2021-09-22 20:07:11.196589,-618
2021-09-22 20:07:11.196595,-681
2021-09-22 20:07:11.196601,-330
2021-09-22 20:07:11.196607,-36
2021-09-22 20:07:11.196613,-14
2021-09-22 20:07:11.196619,38
2021-09-22 20:07:11.196625,124
2021-09-22 20:07:11.196631,116
2021-09-22 20:07:11.196637,114
2021-09-22 20:07:11.196643,145
2021-09-22 20:07:11.196649,155
2021-09-22 20:07:11.196654,155
2021-09-22 20:07:11.196660,167
2021-09-22 20:07:11.196666,184
2021-09-22 20:07:11.196672,192
2021-09-22 20:07:11.196678,197
2021-09-22 20:07:11.196684,209
2021-09-22 20:07:11.196690,223
2021-09-22 20:07:11.196695,240
2021-09-22 20:07:11.196701,265
2021-09-22 20:07:11.196707,287
2021-09-22 20:07:11.196713,313
2021-09-22 20:07:11.196719,345
2021-09-22 20:07:11.196724,377
2021-09-22 20:07:11.421466,408
2021-09-22 20:07:11.421485,437
2021-09-22 20:07:11.421492,455
2021-09-22 20:07:11.421499,457
2021-09-22 20:07:11.421505,447
2021-09-22 20:07:11.421511,413
2021-09-22 20:07:11.421517,369
2021-09-22 20:07:11.421523,306
2021-09-22 20:07:11.421529,204
2021-09-22 20:07:11.421535,80
2021-09-22 20:07:11.421541,-29
2021-09-22 20:07:11.421547,-124
2021-09-22 20:07:11.421553,-201
2021-09-22 20:07:11.421558,-248
2021-09-22 20:07:11.421564,-279
2021-09-22 20:07:11.421570,-296
2021-09-22 20:07:11.421576,-301
2021-09-22 20:07:11.421582,-299
2021-09-22 20:07:11.421588,-289
2021-09-22 20:07:11.421594,-277
2021-09-22 20:07:11.421599,-265
2021-09-22 20:07:11.421605,-253
2021-09-22 20:07:11.421611,-238
2021-09-22 20:07:11.421617,-221
2021-09-22 20:07:11.421623,-201
2021-09-22 20:07:11.421628,-184
2021-09-22 20:07:11.421634,-172
2021-09-22 20:07:11.421640,-160
2021-09-22 20:07:11.421645,-150
2021-09-22 20:07:11.421651,-138
2021-09-22 20:07:11.646555,-128
2021-09-22 20:07:11.646575,-119
2021-09-22 20:07:11.646583,-114
2021-09-22 20:07:11.646589,-114
2021-09-22 20:07:11.646595,-116
2021-09-22 20:07:11.646601,-119
2021-09-22 20:07:11.646607,-119
2021-09-22 20:07:11.646613,-119
2021-09-22 20:07:11.646618,-116
2021-09-22 20:07:11.646624,-119
2021-09-22 20:07:11.646630,-124
2021-09-22 20:07:11.646636,-121
2021-09-22 20:07:11.646642,-111
2021-09-22 20:07:11.646648,-107
2021-09-22 20:07:11.646653,-104
2021-09-22 20:07:11.646659,-102
2021-09-22 20:07:11.646665,-102
2021-09-22 20:07:11.646671,-97
2021-09-22 20:07:11.646677,-90
2021-09-22 20:07:11.646683,-85
2021-09-22 20:07:11.646689,-82
2021-09-22 20:07:11.646694,-80
2021-09-22 20:07:11.646700,-75
2021-09-22 20:07:11.646706,-70
2021-09-22 20:07:11.646712,-65
2021-09-22 20:07:11.646717,-60
2021-09-22 20:07:11.646723,-58
2021-09-22 20:07:11.646729,-58
2021-09-22 20:07:11.646735,-55
2021-09-22 20:07:11.646741,-51
2021-09-22 20:07:11.871620,-48
2021-09-22 20:07:11.871641,-43
2021-09-22 20:07:11.871648,-41
2021-09-22 20:07:11.871654,-48
2021-09-22 20:07:11.871660,-51
2021-09-22 20:07:11.871667,-43
2021-09-22 20:07:11.871673,-38
2021-09-22 20:07:11.871679,-38
2021-09-22 20:07:11.871685,-41
2021-09-22 20:07:11.871691,-53
2021-09-22 20:07:11.871697,-55
2021-09-22 20:07:11.871703,-46
2021-09-22 20:07:11.871709,-38
2021-09-22 20:07:11.871715,-46
2021-09-22 20:07:11.871720,-58
2021-09-22 20:07:11.871727,-63
2021-09-22 20:07:11.871733,-46
2021-09-22 20:07:11.871739,-19
2021-09-22 20:07:11.871744,-9
2021-09-22 20:07:11.871750,-9
2021-09-22 20:07:11.871756,-2
2021-09-22 20:07:11.871762,-4
2021-09-22 20:07:11.871768,-26
2021-09-22 20:07:11.871774,-34
2021-09-22 20:07:11.871779,-29
2021-09-22 20:07:11.871785,-29
2021-09-22 20:07:11.871791,-29
2021-09-22 20:07:11.871797,-29
2021-09-22 20:07:11.871803,-26
2021-09-22 20:07:11.871808,-21
2021-09-22 20:07:12.141591,-21
2021-09-22 20:07:12.141612,-26
2021-09-22 20:07:12.141619,-14
2021-09-22 20:07:12.141625,43
2021-09-22 20:07:12.141632,187
2021-09-22 20:07:12.141638,437
2021-09-22 20:07:12.141643,601
2021-09-22 20:07:12.141649,355
2021-09-22 20:07:12.141655,-184
2021-09-22 20:07:12.141661,-627
2021-09-22 20:07:12.141667,-693
2021-09-22 20:07:12.141673,-347
2021-09-22 20:07:12.141679,-48
2021-09-22 20:07:12.141685,-17
2021-09-22 20:07:12.141690,34
2021-09-22 20:07:12.141696,121
2021-09-22 20:07:12.141702,116
2021-09-22 20:07:12.141708,116
2021-09-22 20:07:12.141714,150
2021-09-22 20:07:12.141720,160
2021-09-22 20:07:12.141726,158
2021-09-22 20:07:12.141731,170
2021-09-22 20:07:12.141737,184
2021-09-22 20:07:12.141743,194
2021-09-22 20:07:12.141749,206
2021-09-22 20:07:12.141755,221
2021-09-22 20:07:12.141761,233
2021-09-22 20:07:12.141767,250
2021-09-22 20:07:12.141773,274
2021-09-22 20:07:12.141779,301
2021-09-22 20:07:12.366539,326
2021-09-22 20:07:12.366557,350
2021-09-22 20:07:12.366565,382
2021-09-22 20:07:12.366571,411
2021-09-22 20:07:12.366577,440
2021-09-22 20:07:12.366584,464
2021-09-22 20:07:12.366590,476
2021-09-22 20:07:12.366596,467
2021-09-22 20:07:12.366602,442
2021-09-22 20:07:12.366608,399
2021-09-22 20:07:12.366614,338
2021-09-22 20:07:12.366620,248
2021-09-22 20:07:12.366625,128
2021-09-22 20:07:12.366631,4
2021-09-22 20:07:12.366637,-102
2021-09-22 20:07:12.366643,-177
2021-09-22 20:07:12.366649,-231
2021-09-22 20:07:12.366655,-262
2021-09-22 20:07:12.366660,-274
2021-09-22 20:07:12.366666,-279
2021-09-22 20:07:12.366672,-287
2021-09-22 20:07:12.366678,-291
2021-09-22 20:07:12.366684,-279
2021-09-22 20:07:12.366690,-262
2021-09-22 20:07:12.366695,-248
2021-09-22 20:07:12.366701,-233
2021-09-22 20:07:12.366707,-218
2021-09-22 20:07:12.366713,-204
2021-09-22 20:07:12.366719,-187
2021-09-22 20:07:12.366725,-170
2021-09-22 20:07:12.635291,-155
2021-09-22 20:07:12.635312,-145
2021-09-22 20:07:12.635320,-141
2021-09-22 20:07:12.635326,-136
2021-09-22 20:07:12.635332,-124
2021-09-22 20:07:12.635338,-114
2021-09-22 20:07:12.635344,-109
2021-09-22 20:07:12.635350,-114
2021-09-22 20:07:12.635356,-119
2021-09-22 20:07:12.635362,-114
2021-09-22 20:07:12.635368,-109
2021-09-22 20:07:12.635374,-107
2021-09-22 20:07:12.635379,-107
2021-09-22 20:07:12.635385,-111
2021-09-22 20:07:12.635391,-119
2021-09-22 20:07:12.635398,-119
2021-09-22 20:07:12.635404,-111
2021-09-22 20:07:12.635410,-104
2021-09-22 20:07:12.635416,-102
2021-09-22 20:07:12.635425,-97
2021-09-22 20:07:12.635431,-94
2021-09-22 20:07:12.635437,-90
2021-09-22 20:07:12.635443,-82
2021-09-22 20:07:12.635449,-75
2021-09-22 20:07:12.635455,-70
2021-09-22 20:07:12.635464,-70
2021-09-22 20:07:12.635470,-68
2021-09-22 20:07:12.635476,-65
2021-09-22 20:07:12.635482,-58
2021-09-22 20:07:12.635488,-53
2021-09-22 20:07:12.951663,-53
2021-09-22 20:07:12.951684,-53
2021-09-22 20:07:12.951692,-48
2021-09-22 20:07:12.951698,-43
2021-09-22 20:07:12.951704,-38
2021-09-22 20:07:12.951710,-36
2021-09-22 20:07:12.951716,-38
2021-09-22 20:07:12.951722,-43
2021-09-22 20:07:12.951728,-38
2021-09-22 20:07:12.951734,-34
2021-09-22 20:07:12.951739,-36
2021-09-22 20:07:12.951745,-31
2021-09-22 20:07:12.951751,-29
2021-09-22 20:07:12.951757,-31
2021-09-22 20:07:12.951763,-26
2021-09-22 20:07:12.951769,-9
2021-09-22 20:07:12.951775,2
2021-09-22 20:07:12.951781,-2
2021-09-22 20:07:12.951787,-4
2021-09-22 20:07:12.951793,9
2021-09-22 20:07:12.951799,14
2021-09-22 20:07:12.951805,-2
2021-09-22 20:07:12.951811,-12
2021-09-22 20:07:12.951816,-19
2021-09-22 20:07:12.951822,-21
2021-09-22 20:07:12.951828,-21
2021-09-22 20:07:12.951834,-34
2021-09-22 20:07:12.951839,-46
2021-09-22 20:07:12.951845,-34
2021-09-22 20:07:12.951851,-24
2021-09-22 20:07:13.041561,-26
2021-09-22 20:07:13.041581,7
2021-09-22 20:07:13.041588,94
2021-09-22 20:07:13.041594,257
2021-09-22 20:07:13.041600,513
2021-09-22 20:07:13.041607,608
2021-09-22 20:07:13.041613,262
2021-09-22 20:07:13.041619,-289
2021-09-22 20:07:13.041625,-661
2021-09-22 20:07:13.041631,-608
2021-09-22 20:07:13.041637,-231
2021-09-22 20:07:13.041643,-9
2021-09-22 20:07:13.041649,4
2021-09-22 20:07:13.041655,82
2021-09-22 20:07:13.041661,155
2021-09-22 20:07:13.041667,136
2021-09-22 20:07:13.041673,141
2021-09-22 20:07:13.041679,175
2021-09-22 20:07:13.041685,177
2021-09-22 20:07:13.041691,175
2021-09-22 20:07:13.041697,189
2021-09-22 20:07:13.041702,204
2021-09-22 20:07:13.041708,214
2021-09-22 20:07:13.041714,223
2021-09-22 20:07:13.041720,233
2021-09-22 20:07:13.041726,253
2021-09-22 20:07:13.041732,277
2021-09-22 20:07:13.041737,299
2021-09-22 20:07:13.041743,323
2021-09-22 20:07:13.041749,347
2021-09-22 20:07:13.266705,374
2021-09-22 20:07:13.266727,408
2021-09-22 20:07:13.266734,440
2021-09-22 20:07:13.266741,464
2021-09-22 20:07:13.266747,481
2021-09-22 20:07:13.266753,481
2021-09-22 20:07:13.266759,467
2021-09-22 20:07:13.266765,445
2021-09-22 20:07:13.266771,401
2021-09-22 20:07:13.266777,323
2021-09-22 20:07:13.266783,216
2021-09-22 20:07:13.266789,94
2021-09-22 20:07:13.266795,-17
2021-09-22 20:07:13.266801,-107
2021-09-22 20:07:13.266807,-180
2021-09-22 20:07:13.266812,-226
2021-09-22 20:07:13.266818,-250
2021-09-22 20:07:13.266824,-267
2021-09-22 20:07:13.266830,-274
2021-09-22 20:07:13.266836,-267
2021-09-22 20:07:13.266842,-262
2021-09-22 20:07:13.266848,-265
2021-09-22 20:07:13.266854,-255
2021-09-22 20:07:13.266859,-236
2021-09-22 20:07:13.266865,-216
2021-09-22 20:07:13.266871,-197
2021-09-22 20:07:13.266877,-184
2021-09-22 20:07:13.266883,-177
2021-09-22 20:07:13.266889,-163
2021-09-22 20:07:13.266895,-150
2021-09-22 20:07:13.491578,-138
2021-09-22 20:07:13.491598,-133
2021-09-22 20:07:13.491605,-136
2021-09-22 20:07:13.491611,-133
2021-09-22 20:07:13.491617,-133
2021-09-22 20:07:13.491622,-133
2021-09-22 20:07:13.491628,-126
2021-09-22 20:07:13.491633,-119
2021-09-22 20:07:13.491638,-119
2021-09-22 20:07:13.491643,-119
2021-09-22 20:07:13.491649,-119
2021-09-22 20:07:13.491654,-119
2021-09-22 20:07:13.491660,-114
2021-09-22 20:07:13.491665,-107
2021-09-22 20:07:13.491671,-104
2021-09-22 20:07:13.491676,-102
2021-09-22 20:07:13.491681,-99
2021-09-22 20:07:13.491687,-94
2021-09-22 20:07:13.491692,-87
2021-09-22 20:07:13.491698,-82
2021-09-22 20:07:13.491703,-77
2021-09-22 20:07:13.491709,-72
2021-09-22 20:07:13.491714,-75
2021-09-22 20:07:13.491720,-77
2021-09-22 20:07:13.491725,-70
2021-09-22 20:07:13.491730,-63
2021-09-22 20:07:13.491735,-63
2021-09-22 20:07:13.491741,-68
2021-09-22 20:07:13.491747,-58
2021-09-22 20:07:13.491752,-51
2021-09-22 20:07:13.716596,-46
2021-09-22 20:07:13.716616,-41
2021-09-22 20:07:13.716623,-41
2021-09-22 20:07:13.716629,-48
2021-09-22 20:07:13.716635,-51
2021-09-22 20:07:13.716641,-46
2021-09-22 20:07:13.716647,-41
2021-09-22 20:07:13.716653,-36
2021-09-22 20:07:13.716659,-34
2021-09-22 20:07:13.716665,-38
2021-09-22 20:07:13.716671,-36
2021-09-22 20:07:13.716676,-17
2021-09-22 20:07:13.716682,4
2021-09-22 20:07:13.716688,4
2021-09-22 20:07:13.716694,4
2021-09-22 20:07:13.716700,17
2021-09-22 20:07:13.716706,12
2021-09-22 20:07:13.716712,-9
2021-09-22 20:07:13.716718,-19
2021-09-22 20:07:13.716724,-19
2021-09-22 20:07:13.716730,-19
2021-09-22 20:07:13.716736,-19
2021-09-22 20:07:13.716742,-19
2021-09-22 20:07:13.716748,-14
2021-09-22 20:07:13.716753,-14
2021-09-22 20:07:13.716759,-17
2021-09-22 20:07:13.716765,-7
2021-09-22 20:07:13.716771,43
2021-09-22 20:07:13.716776,148
2021-09-22 20:07:13.716782,328
2021-09-22 20:07:14.031014,535
2021-09-22 20:07:14.031035,498
2021-09-22 20:07:14.031043,87
2021-09-22 20:07:14.031049,-423
2021-09-22 20:07:14.031055,-695
2021-09-22 20:07:14.031061,-510
2021-09-22 20:07:14.031067,-133
2021-09-22 20:07:14.031073,-17
2021-09-22 20:07:14.031079,-19
2021-09-22 20:07:14.031085,75
2021-09-22 20:07:14.031091,126
2021-09-22 20:07:14.031097,107
2021-09-22 20:07:14.031103,126
2021-09-22 20:07:14.031109,155
2021-09-22 20:07:14.031114,150
2021-09-22 20:07:14.031120,153
2021-09-22 20:07:14.031126,172
2021-09-22 20:07:14.031132,187
2021-09-22 20:07:14.031138,194
2021-09-22 20:07:14.031144,211
2021-09-22 20:07:14.031150,226
2021-09-22 20:07:14.031156,236
2021-09-22 20:07:14.031161,255
2021-09-22 20:07:14.031167,284
2021-09-22 20:07:14.031173,313
2021-09-22 20:07:14.031179,340
2021-09-22 20:07:14.031184,372
2021-09-22 20:07:14.031190,399
2021-09-22 20:07:14.031196,428
2021-09-22 20:07:14.031202,455
2021-09-22 20:07:14.256730,469
2021-09-22 20:07:14.256751,467
2021-09-22 20:07:14.256759,445
2021-09-22 20:07:14.256765,406
2021-09-22 20:07:14.256771,352
2021-09-22 20:07:14.256777,272
2021-09-22 20:07:14.256783,167
2021-09-22 20:07:14.256790,53
2021-09-22 20:07:14.256796,-46
2021-09-22 20:07:14.256802,-126
2021-09-22 20:07:14.256808,-182
2021-09-22 20:07:14.256813,-218
2021-09-22 20:07:14.256819,-240
2021-09-22 20:07:14.256825,-257
2021-09-22 20:07:14.256831,-272
2021-09-22 20:07:14.256837,-277
2021-09-22 20:07:14.256843,-267
2021-09-22 20:07:14.256849,-253
2021-09-22 20:07:14.256855,-238
2021-09-22 20:07:14.256861,-223
2021-09-22 20:07:14.256867,-214
2021-09-22 20:07:14.256873,-204
2021-09-22 20:07:14.256879,-187
2021-09-22 20:07:14.256885,-170
2021-09-22 20:07:14.256891,-163
2021-09-22 20:07:14.256897,-155
2021-09-22 20:07:14.256903,-150
2021-09-22 20:07:14.256909,-143
2021-09-22 20:07:14.256914,-133
2021-09-22 20:07:14.256920,-133
2021-09-22 20:07:14.481682,-133
2021-09-22 20:07:14.481703,-128
2021-09-22 20:07:14.481710,-128
2021-09-22 20:07:14.481716,-126
2021-09-22 20:07:14.481723,-119
2021-09-22 20:07:14.481729,-116
2021-09-22 20:07:14.481735,-119
2021-09-22 20:07:14.481741,-121
2021-09-22 20:07:14.481747,-124
2021-09-22 20:07:14.481753,-121
2021-09-22 20:07:14.481758,-116
2021-09-22 20:07:14.481764,-109
2021-09-22 20:07:14.481770,-107
2021-09-22 20:07:14.481776,-104
2021-09-22 20:07:14.481782,-109
2021-09-22 20:07:14.481788,-111
2021-09-22 20:07:14.481794,-104
2021-09-22 20:07:14.481800,-99
2021-09-22 20:07:14.481806,-99
2021-09-22 20:07:14.481811,-99
2021-09-22 20:07:14.481817,-102
2021-09-22 20:07:14.481823,-97
2021-09-22 20:07:14.481829,-87
2021-09-22 20:07:14.481835,-82
2021-09-22 20:07:14.481840,-77
2021-09-22 20:07:14.481847,-75
2021-09-22 20:07:14.481852,-72
2021-09-22 20:07:14.481858,-70
2021-09-22 20:07:14.481864,-63
2021-09-22 20:07:14.481870,-58
2021-09-22 20:07:14.705948,-55
2021-09-22 20:07:14.705969,-58
2021-09-22 20:07:14.705976,-58
2021-09-22 20:07:14.705982,-55
2021-09-22 20:07:14.705988,-53
2021-09-22 20:07:14.705994,-46
2021-09-22 20:07:14.706000,-29
2021-09-22 20:07:14.706006,-14
2021-09-22 20:07:14.706012,-9
2021-09-22 20:07:14.706018,-12
2021-09-22 20:07:14.706024,-2
2021-09-22 20:07:14.706030,4
2021-09-22 20:07:14.706036,-14
2021-09-22 20:07:14.706042,-38
2021-09-22 20:07:14.706048,-46
2021-09-22 20:07:14.706054,-46
2021-09-22 20:07:14.706060,-43
2021-09-22 20:07:14.706065,-38
2021-09-22 20:07:14.706071,-41
2021-09-22 20:07:14.706077,-43
2021-09-22 20:07:14.706083,-41
2021-09-22 20:07:14.706089,-31
2021-09-22 20:07:14.706094,0
2021-09-22 20:07:14.706100,77
2021-09-22 20:07:14.706106,223
2021-09-22 20:07:14.706112,455
2021-09-22 20:07:14.706118,554
2021-09-22 20:07:14.706123,243
2021-09-22 20:07:14.706129,-272
2021-09-22 20:07:14.706135,-637
2021-09-22 20:07:14.931644,-637
2021-09-22 20:07:14.931665,-284
2021-09-22 20:07:14.931672,-31
2021-09-22 20:07:14.931678,-26
2021-09-22 20:07:14.931685,41
2021-09-22 20:07:14.931691,131
2021-09-22 20:07:14.931697,111
2021-09-22 20:07:14.931703,102
2021-09-22 20:07:14.931709,141
2021-09-22 20:07:14.931715,150
2021-09-22 20:07:14.931722,148
2021-09-22 20:07:14.931728,163
2021-09-22 20:07:14.931734,170
2021-09-22 20:07:14.931739,172
2021-09-22 20:07:14.931745,187
2021-09-22 20:07:14.931752,204
2021-09-22 20:07:14.931758,218
2021-09-22 20:07:14.931764,238
2021-09-22 20:07:14.931770,253
2021-09-22 20:07:14.931776,267
2021-09-22 20:07:14.931782,289
2021-09-22 20:07:14.931788,323
2021-09-22 20:07:14.931794,362
2021-09-22 20:07:14.931800,396
2021-09-22 20:07:14.931806,423
2021-09-22 20:07:14.931812,445
2021-09-22 20:07:14.931818,455
2021-09-22 20:07:14.931824,447
2021-09-22 20:07:14.931829,425
2021-09-22 20:07:14.931835,379
2021-09-22 20:07:15.111682,304
2021-09-22 20:07:15.111704,204
2021-09-22 20:07:15.111711,90
2021-09-22 20:07:15.111717,-17
2021-09-22 20:07:15.111723,-107
2021-09-22 20:07:15.111729,-180
2021-09-22 20:07:15.111735,-233
2021-09-22 20:07:15.111741,-257
2021-09-22 20:07:15.111747,-267
2021-09-22 20:07:15.111753,-272
2021-09-22 20:07:15.111759,-272
2021-09-22 20:07:15.111765,-272
2021-09-22 20:07:15.111771,-267
2021-09-22 20:07:15.111777,-253
2021-09-22 20:07:15.111783,-238
2021-09-22 20:07:15.111789,-226
2021-09-22 20:07:15.111795,-216
2021-09-22 20:07:15.111801,-211
2021-09-22 20:07:15.111806,-204
2021-09-22 20:07:15.111812,-187
2021-09-22 20:07:15.111818,-180
2021-09-22 20:07:15.111824,-172
2021-09-22 20:07:15.111829,-160
2021-09-22 20:07:15.111835,-150
2021-09-22 20:07:15.111841,-143
2021-09-22 20:07:15.111847,-136
2021-09-22 20:07:15.111852,-131
2021-09-22 20:07:15.111858,-128
2021-09-22 20:07:15.111864,-126
2021-09-22 20:07:15.111870,-124
2021-09-22 20:07:15.336509,-121
2021-09-22 20:07:15.336529,-116
2021-09-22 20:07:15.336536,-116
2021-09-22 20:07:15.336543,-116
2021-09-22 20:07:15.336549,-119
2021-09-22 20:07:15.336555,-124
2021-09-22 20:07:15.336561,-121
2021-09-22 20:07:15.336566,-121
2021-09-22 20:07:15.336572,-121
2021-09-22 20:07:15.336578,-116
2021-09-22 20:07:15.336584,-116
2021-09-22 20:07:15.336590,-116
2021-09-22 20:07:15.336596,-109
2021-09-22 20:07:15.336602,-99
2021-09-22 20:07:15.336608,-94
2021-09-22 20:07:15.336613,-92
2021-09-22 20:07:15.336619,-90
2021-09-22 20:07:15.336625,-87
2021-09-22 20:07:15.336631,-82
2021-09-22 20:07:15.336636,-77
2021-09-22 20:07:15.336642,-72
2021-09-22 20:07:15.336648,-70
2021-09-22 20:07:15.336654,-68
2021-09-22 20:07:15.336660,-63
2021-09-22 20:07:15.336665,-60
2021-09-22 20:07:15.336671,-65
2021-09-22 20:07:15.336677,-72
2021-09-22 20:07:15.336683,-70
2021-09-22 20:07:15.336688,-65
2021-09-22 20:07:15.336694,-63
2021-09-22 20:07:15.606755,-55
2021-09-22 20:07:15.606776,-51
2021-09-22 20:07:15.606784,-51
2021-09-22 20:07:15.606790,-51
2021-09-22 20:07:15.606796,-53
2021-09-22 20:07:15.606806,-53
2021-09-22 20:07:15.606812,-48
2021-09-22 20:07:15.606818,-38
2021-09-22 20:07:15.606824,-29
2021-09-22 20:07:15.606830,-21
2021-09-22 20:07:15.606835,-26
2021-09-22 20:07:15.606841,-29
2021-09-22 20:07:15.606847,-14
2021-09-22 20:07:15.606853,-4
2021-09-22 20:07:15.606859,-19
2021-09-22 20:07:15.606865,-38
2021-09-22 20:07:15.606871,-48
2021-09-22 20:07:15.606877,-48
2021-09-22 20:07:15.606883,-38
2021-09-22 20:07:15.606888,-34
2021-09-22 20:07:15.606894,-34
2021-09-22 20:07:15.606900,-34
2021-09-22 20:07:15.606906,-34
2021-09-22 20:07:15.606912,-29
2021-09-22 20:07:15.606917,-12
2021-09-22 20:07:15.606924,43
2021-09-22 20:07:15.606930,155
2021-09-22 20:07:15.606935,360
2021-09-22 20:07:15.606941,579
2021-09-22 20:07:15.606947,469
2021-09-22 20:07:15.876613,-4
2021-09-22 20:07:15.876634,-481
2021-09-22 20:07:15.876641,-688
2021-09-22 20:07:15.876647,-464
2021-09-22 20:07:15.876653,-102
2021-09-22 20:07:15.876660,-2
2021-09-22 20:07:15.876666,19
2021-09-22 20:07:15.876672,119
2021-09-22 20:07:15.876678,141
2021-09-22 20:07:15.876684,116
2021-09-22 20:07:15.876690,143
2021-09-22 20:07:15.876695,160
2021-09-22 20:07:15.876701,153
2021-09-22 20:07:15.876707,165
2021-09-22 20:07:15.876713,180
2021-09-22 20:07:15.876719,175
2021-09-22 20:07:15.876724,180
2021-09-22 20:07:15.876730,199
2021-09-22 20:07:15.876736,216
2021-09-22 20:07:15.876742,233
2021-09-22 20:07:15.876748,253
2021-09-22 20:07:15.876754,274
2021-09-22 20:07:15.876759,301
2021-09-22 20:07:15.876765,333
2021-09-22 20:07:15.876771,369
2021-09-22 20:07:15.876777,403
2021-09-22 20:07:15.876783,430
2021-09-22 20:07:15.876789,452
2021-09-22 20:07:15.876794,467
2021-09-22 20:07:15.876800,472
2021-09-22 20:07:16.056483,455
2021-09-22 20:07:16.056498,413
2021-09-22 20:07:16.056506,347
2021-09-22 20:07:16.056512,262
2021-09-22 20:07:16.056518,158
2021-09-22 20:07:16.056524,46
2021-09-22 20:07:16.056530,-51
2021-09-22 20:07:16.056536,-128
2021-09-22 20:07:16.056542,-192
2021-09-22 20:07:16.056548,-236
2021-09-22 20:07:16.056554,-260
2021-09-22 20:07:16.056560,-265
2021-09-22 20:07:16.056566,-265
2021-09-22 20:07:16.056572,-270
2021-09-22 20:07:16.056578,-274
2021-09-22 20:07:16.056584,-267
2021-09-22 20:07:16.056590,-248
2021-09-22 20:07:16.056595,-233
2021-09-22 20:07:16.056601,-221
2021-09-22 20:07:16.056607,-206
2021-09-22 20:07:16.056613,-204
2021-09-22 20:07:16.056619,-199
2021-09-22 20:07:16.056624,-182
2021-09-22 20:07:16.056630,-170
2021-09-22 20:07:16.056636,-163
2021-09-22 20:07:16.056642,-150
2021-09-22 20:07:16.056647,-145
2021-09-22 20:07:16.056653,-143
2021-09-22 20:07:16.056659,-133
2021-09-22 20:07:16.056665,-126
2021-09-22 20:07:16.326615,-124
2021-09-22 20:07:16.326634,-121
2021-09-22 20:07:16.326641,-124
2021-09-22 20:07:16.326647,-126
2021-09-22 20:07:16.326653,-119
2021-09-22 20:07:16.326659,-116
2021-09-22 20:07:16.326665,-116
2021-09-22 20:07:16.326671,-119
2021-09-22 20:07:16.326677,-121
2021-09-22 20:07:16.326682,-121
2021-09-22 20:07:16.326688,-114
2021-09-22 20:07:16.326694,-109
2021-09-22 20:07:16.326700,-104
2021-09-22 20:07:16.326706,-107
2021-09-22 20:07:16.326711,-111
2021-09-22 20:07:16.326717,-111
2021-09-22 20:07:16.326723,-109
2021-09-22 20:07:16.326729,-102
2021-09-22 20:07:16.326734,-94
2021-09-22 20:07:16.326740,-94
2021-09-22 20:07:16.326746,-92
2021-09-22 20:07:16.326752,-87
2021-09-22 20:07:16.326757,-82
2021-09-22 20:07:16.326763,-77
2021-09-22 20:07:16.326769,-70
2021-09-22 20:07:16.326775,-70
2021-09-22 20:07:16.326781,-68
2021-09-22 20:07:16.326786,-63
2021-09-22 20:07:16.326792,-58
2021-09-22 20:07:16.326798,-51
2021-09-22 20:07:16.506655,-48
2021-09-22 20:07:16.506677,-48
2021-09-22 20:07:16.506684,-46
2021-09-22 20:07:16.506690,-43
2021-09-22 20:07:16.506697,-38
2021-09-22 20:07:16.506703,-31
2021-09-22 20:07:16.506709,-31
2021-09-22 20:07:16.506715,-41
2021-09-22 20:07:16.506721,-43
2021-09-22 20:07:16.506727,-31
2021-09-22 20:07:16.506733,-9
2021-09-22 20:07:16.506739,4
2021-09-22 20:07:16.506745,2
2021-09-22 20:07:16.506751,-4
2021-09-22 20:07:16.506757,2
2021-09-22 20:07:16.506763,4
2021-09-22 20:07:16.506769,-12
2021-09-22 20:07:16.506775,-26
2021-09-22 20:07:16.506780,-43
2021-09-22 20:07:16.506786,-51
2021-09-22 20:07:16.506792,-41
2021-09-22 20:07:16.506798,-38
2021-09-22 20:07:16.506804,-38
2021-09-22 20:07:16.506810,-34
2021-09-22 20:07:16.506816,-31
2021-09-22 20:07:16.506821,-26
2021-09-22 20:07:16.506827,4
2021-09-22 20:07:16.506833,80
2021-09-22 20:07:16.506839,231
2021-09-22 20:07:16.506845,484
2021-09-22 20:07:16.775277,603
2021-09-22 20:07:16.775297,296
2021-09-22 20:07:16.775304,-236
2021-09-22 20:07:16.775311,-625
2021-09-22 20:07:16.775317,-627
2021-09-22 20:07:16.775323,-265
2021-09-22 20:07:16.775329,-17
2021-09-22 20:07:16.775335,-7
2021-09-22 20:07:16.775341,65
2021-09-22 20:07:16.775347,145
2021-09-22 20:07:16.775353,128
2021-09-22 20:07:16.775359,126
2021-09-22 20:07:16.775365,155
2021-09-22 20:07:16.775371,158
2021-09-22 20:07:16.775377,160
2021-09-22 20:07:16.775383,180
2021-09-22 20:07:16.775389,192
2021-09-22 20:07:16.775395,199
2021-09-22 20:07:16.775401,209
2021-09-22 20:07:16.775407,216
2021-09-22 20:07:16.775413,226
2021-09-22 20:07:16.775419,245
2021-09-22 20:07:16.775425,267
2021-09-22 20:07:16.775431,291
2021-09-22 20:07:16.775436,318
2021-09-22 20:07:16.775442,350
2021-09-22 20:07:16.775448,386
2021-09-22 20:07:16.775454,420
2021-09-22 20:07:16.775460,447
2021-09-22 20:07:16.775466,467
2021-09-22 20:07:16.956664,474
2021-09-22 20:07:16.956683,469
2021-09-22 20:07:16.956691,445
2021-09-22 20:07:16.956697,399
2021-09-22 20:07:16.956703,328
2021-09-22 20:07:16.956709,226
2021-09-22 20:07:16.956715,107
2021-09-22 20:07:16.956721,0
2021-09-22 20:07:16.956727,-92
2021-09-22 20:07:16.956733,-167
2021-09-22 20:07:16.956739,-216
2021-09-22 20:07:16.956744,-250
2021-09-22 20:07:16.956750,-277
2021-09-22 20:07:16.956756,-289
2021-09-22 20:07:16.956762,-284
2021-09-22 20:07:16.956768,-277
2021-09-22 20:07:16.956774,-270
2021-09-22 20:07:16.956780,-257
2021-09-22 20:07:16.956786,-245
2021-09-22 20:07:16.956792,-233
2021-09-22 20:07:16.956798,-221
2021-09-22 20:07:16.956804,-216
2021-09-22 20:07:16.956810,-211
2021-09-22 20:07:16.956816,-197
2021-09-22 20:07:16.956822,-182
2021-09-22 20:07:16.956827,-167
2021-09-22 20:07:16.956833,-158
2021-09-22 20:07:16.956839,-150
2021-09-22 20:07:16.956845,-145
2021-09-22 20:07:16.956851,-138
2021-09-22 20:07:17.226012,-133
2021-09-22 20:07:17.226033,-128
2021-09-22 20:07:17.226041,-128
2021-09-22 20:07:17.226047,-126
2021-09-22 20:07:17.226053,-126
2021-09-22 20:07:17.226059,-131
2021-09-22 20:07:17.226065,-128
2021-09-22 20:07:17.226071,-121
2021-09-22 20:07:17.226076,-119
2021-09-22 20:07:17.226082,-119
2021-09-22 20:07:17.226088,-119
2021-09-22 20:07:17.226094,-121
2021-09-22 20:07:17.226100,-116
2021-09-22 20:07:17.226106,-107
2021-09-22 20:07:17.226112,-104
2021-09-22 20:07:17.226118,-102
2021-09-22 20:07:17.226124,-97
2021-09-22 20:07:17.226130,-92
2021-09-22 20:07:17.226136,-90
2021-09-22 20:07:17.226142,-82
2021-09-22 20:07:17.226148,-77
2021-09-22 20:07:17.226154,-77
2021-09-22 20:07:17.226159,-75
2021-09-22 20:07:17.226165,-75
2021-09-22 20:07:17.226171,-77
2021-09-22 20:07:17.226177,-72
2021-09-22 20:07:17.226183,-68
2021-09-22 20:07:17.226189,-68
2021-09-22 20:07:17.226195,-65
2021-09-22 20:07:17.226200,-60
2021-09-22 20:07:17.451069,-58
2021-09-22 20:07:17.451088,-51
2021-09-22 20:07:17.451096,-38
2021-09-22 20:07:17.451102,-24
2021-09-22 20:07:17.451108,-21
2021-09-22 20:07:17.451114,-26
2021-09-22 20:07:17.451121,-14
2021-09-22 20:07:17.451127,-2
2021-09-22 20:07:17.451133,-17
2021-09-22 20:07:17.451139,-41
2021-09-22 20:07:17.451144,-53
2021-09-22 20:07:17.451150,-53
2021-09-22 20:07:17.451156,-43
2021-09-22 20:07:17.451162,-41
2021-09-22 20:07:17.451168,-41
2021-09-22 20:07:17.451174,-43
2021-09-22 20:07:17.451180,-43
2021-09-22 20:07:17.451186,-36
2021-09-22 20:07:17.451192,-9
2021-09-22 20:07:17.451198,53
2021-09-22 20:07:17.451204,192
2021-09-22 20:07:17.451210,442
2021-09-22 20:07:17.451216,593
2021-09-22 20:07:17.451222,323
2021-09-22 20:07:17.451228,-223
2021-09-22 20:07:17.451234,-656
2021-09-22 20:07:17.451240,-698
2021-09-22 20:07:17.451246,-340
2021-09-22 20:07:17.451252,-55
2021-09-22 20:07:17.451258,-26
2021-09-22 20:07:17.721704,43
2021-09-22 20:07:17.721725,131
2021-09-22 20:07:17.721733,116
2021-09-22 20:07:17.721739,104
2021-09-22 20:07:17.721745,133
2021-09-22 20:07:17.721752,145
2021-09-22 20:07:17.721758,150
2021-09-22 20:07:17.721764,170
2021-09-22 20:07:17.721770,180
2021-09-22 20:07:17.721776,180
2021-09-22 20:07:17.721782,187
2021-09-22 20:07:17.721788,209
2021-09-22 20:07:17.721794,228
2021-09-22 20:07:17.721800,248
2021-09-22 20:07:17.721806,270
2021-09-22 20:07:17.721812,289
2021-09-22 20:07:17.721818,316
2021-09-22 20:07:17.721823,357
2021-09-22 20:07:17.721829,394
2021-09-22 20:07:17.721835,428
2021-09-22 20:07:17.721841,457
2021-09-22 20:07:17.721847,476
2021-09-22 20:07:17.721852,484
2021-09-22 20:07:17.721858,481
2021-09-22 20:07:17.721864,462
2021-09-22 20:07:17.721870,416
2021-09-22 20:07:17.721876,343
2021-09-22 20:07:17.721882,233
2021-09-22 20:07:17.721888,107
2021-09-22 20:07:17.721894,-2
2021-09-22 20:07:17.901658,-90
2021-09-22 20:07:17.901679,-158
2021-09-22 20:07:17.901687,-209
2021-09-22 20:07:17.901693,-245
2021-09-22 20:07:17.901699,-262
2021-09-22 20:07:17.901705,-262
2021-09-22 20:07:17.901711,-257
2021-09-22 20:07:17.901717,-253
2021-09-22 20:07:17.901723,-253
2021-09-22 20:07:17.901729,-250
2021-09-22 20:07:17.901735,-233
2021-09-22 20:07:17.901741,-214
2021-09-22 20:07:17.901747,-199
2021-09-22 20:07:17.901753,-184
2021-09-22 20:07:17.901759,-177
2021-09-22 20:07:17.901765,-172
2021-09-22 20:07:17.901771,-160
2021-09-22 20:07:17.901776,-148
2021-09-22 20:07:17.901782,-143
2021-09-22 20:07:17.901788,-136
2021-09-22 20:07:17.901794,-136
2021-09-22 20:07:17.901800,-138
2021-09-22 20:07:17.901805,-131
2021-09-22 20:07:17.901811,-126
2021-09-22 20:07:17.901817,-133
2021-09-22 20:07:17.901824,-141
2021-09-22 20:07:17.901829,-138
2021-09-22 20:07:17.901835,-136
2021-09-22 20:07:17.901841,-133
2021-09-22 20:07:17.901847,-133
2021-09-22 20:07:18.126736,-133
2021-09-22 20:07:18.126756,-136
2021-09-22 20:07:18.126764,-133
2021-09-22 20:07:18.126770,-128
2021-09-22 20:07:18.126776,-121
2021-09-22 20:07:18.126782,-114
2021-09-22 20:07:18.126788,-107
2021-09-22 20:07:18.126793,-107
2021-09-22 20:07:18.126799,-111
2021-09-22 20:07:18.126805,-107
2021-09-22 20:07:18.126811,-97
2021-09-22 20:07:18.126817,-92
2021-09-22 20:07:18.126823,-87
2021-09-22 20:07:18.126829,-87
2021-09-22 20:07:18.126835,-90
2021-09-22 20:07:18.126841,-87
2021-09-22 20:07:18.126847,-77
2021-09-22 20:07:18.126853,-70
2021-09-22 20:07:18.126858,-68
2021-09-22 20:07:18.126865,-65
2021-09-22 20:07:18.126870,-68
2021-09-22 20:07:18.126876,-72
2021-09-22 20:07:18.126882,-60
2021-09-22 20:07:18.126888,-43
2021-09-22 20:07:18.126894,-24
2021-09-22 20:07:18.126900,-12
2021-09-22 20:07:18.126906,-14
2021-09-22 20:07:18.126911,-9
2021-09-22 20:07:18.126917,-4
2021-09-22 20:07:18.126923,-21
2021-09-22 20:07:18.351616,-36
2021-09-22 20:07:18.351637,-38
2021-09-22 20:07:18.351644,-41
2021-09-22 20:07:18.351650,-46
2021-09-22 20:07:18.351656,-41
2021-09-22 20:07:18.351662,-34
2021-09-22 20:07:18.351668,-36
2021-09-22 20:07:18.351674,-43
2021-09-22 20:07:18.351679,-41
2021-09-22 20:07:18.351685,-14
2021-09-22 20:07:18.351691,53
2021-09-22 20:07:18.351697,184
2021-09-22 20:07:18.351703,423
2021-09-22 20:07:18.351709,605
2021-09-22 20:07:18.351714,391
2021-09-22 20:07:18.351720,-150
2021-09-22 20:07:18.351726,-615
2021-09-22 20:07:18.351732,-698
2021-09-22 20:07:18.351738,-357
2021-09-22 20:07:18.351743,-51
2021-09-22 20:07:18.351749,-9
2021-09-22 20:07:18.351755,46
2021-09-22 20:07:18.351761,141
2021-09-22 20:07:18.351767,138
2021-09-22 20:07:18.351773,131
2021-09-22 20:07:18.351779,160
2021-09-22 20:07:18.351785,170
2021-09-22 20:07:18.351790,170
2021-09-22 20:07:18.351796,187
2021-09-22 20:07:18.351802,199
2021-09-22 20:07:18.666129,199
2021-09-22 20:07:18.666150,204
2021-09-22 20:07:18.666157,221
2021-09-22 20:07:18.666164,236
2021-09-22 20:07:18.666170,243
2021-09-22 20:07:18.666176,265
2021-09-22 20:07:18.666182,289
2021-09-22 20:07:18.666188,311
2021-09-22 20:07:18.666195,340
2021-09-22 20:07:18.666201,379
2021-09-22 20:07:18.666207,416
2021-09-22 20:07:18.666213,445
2021-09-22 20:07:18.666219,459
2021-09-22 20:07:18.666225,464
2021-09-22 20:07:18.666231,464
2021-09-22 20:07:18.666237,445
2021-09-22 20:07:18.666243,399
2021-09-22 20:07:18.666249,333
2021-09-22 20:07:18.666255,236
2021-09-22 20:07:18.666261,116
2021-09-22 20:07:18.666267,7
2021-09-22 20:07:18.666273,-85
2021-09-22 20:07:18.666279,-158
2021-09-22 20:07:18.666285,-209
2021-09-22 20:07:18.666291,-238
2021-09-22 20:07:18.666296,-250
2021-09-22 20:07:18.666302,-257
2021-09-22 20:07:18.666308,-255
2021-09-22 20:07:18.666314,-248
2021-09-22 20:07:18.666320,-243
2021-09-22 20:07:18.845269,-238
2021-09-22 20:07:18.845288,-223
2021-09-22 20:07:18.845295,-206
2021-09-22 20:07:18.845302,-192
2021-09-22 20:07:18.845308,-177
2021-09-22 20:07:18.845314,-165
2021-09-22 20:07:18.845320,-158
2021-09-22 20:07:18.845326,-148
2021-09-22 20:07:18.845402,-136
2021-09-22 20:07:18.845409,-133
2021-09-22 20:07:18.845415,-133
2021-09-22 20:07:18.845421,-133
2021-09-22 20:07:18.845427,-136
2021-09-22 20:07:18.845433,-138
2021-09-22 20:07:18.845439,-131
2021-09-22 20:07:18.845445,-131
2021-09-22 20:07:18.845451,-131
2021-09-22 20:07:18.845457,-131
2021-09-22 20:07:18.845463,-131
2021-09-22 20:07:18.845469,-128
2021-09-22 20:07:18.845475,-124
2021-09-22 20:07:18.845481,-124
2021-09-22 20:07:18.845486,-121
2021-09-22 20:07:18.845492,-119
2021-09-22 20:07:18.845498,-119
2021-09-22 20:07:18.845504,-114
2021-09-22 20:07:18.845510,-107
2021-09-22 20:07:18.845516,-107
2021-09-22 20:07:18.845521,-104
2021-09-22 20:07:18.845527,-99
2021-09-22 20:07:19.071709,-94
2021-09-22 20:07:19.071729,-87
2021-09-22 20:07:19.071737,-82
2021-09-22 20:07:19.071743,-85
2021-09-22 20:07:19.071749,-82
2021-09-22 20:07:19.071755,-82
2021-09-22 20:07:19.071760,-92
2021-09-22 20:07:19.071766,-99
2021-09-22 20:07:19.071771,-97
2021-09-22 20:07:19.071777,-94
2021-09-22 20:07:19.071783,-97
2021-09-22 20:07:19.071789,-97
2021-09-22 20:07:19.071795,-94
2021-09-22 20:07:19.071801,-87
2021-09-22 20:07:19.071807,-80
2021-09-22 20:07:19.071812,-77
2021-09-22 20:07:19.071818,-75
2021-09-22 20:07:19.071824,-72
2021-09-22 20:07:19.071830,-63
2021-09-22 20:07:19.071835,-43
2021-09-22 20:07:19.071841,-29
2021-09-22 20:07:19.071847,-26
2021-09-22 20:07:19.071853,-31
2021-09-22 20:07:19.071858,-21
2021-09-22 20:07:19.071864,-17
2021-09-22 20:07:19.071870,-34
2021-09-22 20:07:19.071876,-51
2021-09-22 20:07:19.071881,-55
2021-09-22 20:07:19.071887,-60
2021-09-22 20:07:19.071892,-53
2021-09-22 20:07:19.251504,-48
2021-09-22 20:07:19.251520,-48
2021-09-22 20:07:19.251527,-46
2021-09-22 20:07:19.251534,-43
2021-09-22 20:07:19.251540,-43
2021-09-22 20:07:19.251546,-21
2021-09-22 20:07:19.251551,58
2021-09-22 20:07:19.251557,211
2021-09-22 20:07:19.251563,459
2021-09-22 20:07:19.251569,596
2021-09-22 20:07:19.251575,296
2021-09-22 20:07:19.251582,-267
2021-09-22 20:07:19.251587,-681
2021-09-22 20:07:19.251593,-669
2021-09-22 20:07:19.251599,-296
2021-09-22 20:07:19.251605,-43
2021-09-22 20:07:19.251611,-26
2021-09-22 20:07:19.251617,48
2021-09-22 20:07:19.251623,131
2021-09-22 20:07:19.251628,114
2021-09-22 20:07:19.251634,114
2021-09-22 20:07:19.251640,148
2021-09-22 20:07:19.251646,153
2021-09-22 20:07:19.251652,153
2021-09-22 20:07:19.251657,172
2021-09-22 20:07:19.251663,184
2021-09-22 20:07:19.251669,192
2021-09-22 20:07:19.251675,206
2021-09-22 20:07:19.251680,218
2021-09-22 20:07:19.251686,233
