Time,ECG
2021-09-22 19:56:46.838583,-114
2021-09-22 19:56:46.838601,-114
2021-09-22 19:56:46.838608,-111
2021-09-22 19:56:46.838614,-109
2021-09-22 19:56:46.838620,-102
2021-09-22 19:56:46.838626,-94
2021-09-22 19:56:46.838632,-97
2021-09-22 19:56:46.838638,-111
2021-09-22 19:56:46.838644,-116
2021-09-22 19:56:46.838650,-107
2021-09-22 19:56:46.838656,-99
2021-09-22 19:56:46.838661,-94
2021-09-22 19:56:46.838667,-92
2021-09-22 19:56:46.838673,-97
2021-09-22 19:56:46.838678,-99
2021-09-22 19:56:46.838684,-94
2021-09-22 19:56:46.838690,-94
2021-09-22 19:56:46.838696,-94
2021-09-22 19:56:46.838702,-90
2021-09-22 19:56:46.838708,-92
2021-09-22 19:56:46.838713,-92
2021-09-22 19:56:46.838719,-87
2021-09-22 19:56:46.838725,-85
2021-09-22 19:56:46.838730,-75
2021-09-22 19:56:46.838736,-63
2021-09-22 19:56:46.838742,-53
2021-09-22 19:56:46.838748,-51
2021-09-22 19:56:46.838753,-55
2021-09-22 19:56:46.838759,-48
2021-09-22 19:56:46.838765,-34
2021-09-22 19:56:46.947597,-43
2021-09-22 19:56:46.947618,-68
2021-09-22 19:56:46.947625,-85
2021-09-22 19:56:46.947631,-92
2021-09-22 19:56:46.947637,-82
2021-09-22 19:56:46.947643,-72
2021-09-22 19:56:46.947649,-77
2021-09-22 19:56:46.947655,-82
2021-09-22 19:56:46.947661,-77
2021-09-22 19:56:46.947667,-70
2021-09-22 19:56:46.947673,-48
2021-09-22 19:56:46.947679,21
2021-09-22 19:56:46.947685,150
2021-09-22 19:56:46.947691,374
2021-09-22 19:56:46.947697,559
2021-09-22 19:56:46.947702,355
2021-09-22 19:56:46.947708,-136
2021-09-22 19:56:46.947715,-557
2021-09-22 19:56:46.947720,-710
2021-09-22 19:56:46.947726,-430
2021-09-22 19:56:46.947732,-90
2021-09-22 19:56:46.947738,-53
2021-09-22 19:56:46.947744,-19
2021-09-22 19:56:46.947750,99
2021-09-22 19:56:46.947755,99
2021-09-22 19:56:46.947761,72
2021-09-22 19:56:46.947767,111
2021-09-22 19:56:46.947773,133
2021-09-22 19:56:46.947779,131
2021-09-22 19:56:46.947786,145
2021-09-22 19:56:47.173113,160
2021-09-22 19:56:47.173134,167
2021-09-22 19:56:47.173141,182
2021-09-22 19:56:47.173147,194
2021-09-22 19:56:47.173153,201
2021-09-22 19:56:47.173159,216
2021-09-22 19:56:47.173164,240
2021-09-22 19:56:47.173170,267
2021-09-22 19:56:47.173176,299
2021-09-22 19:56:47.173182,335
2021-09-22 19:56:47.173188,377
2021-09-22 19:56:47.173194,416
2021-09-22 19:56:47.173200,445
2021-09-22 19:56:47.173219,474
2021-09-22 19:56:47.173225,496
2021-09-22 19:56:47.173232,496
2021-09-22 19:56:47.173237,474
2021-09-22 19:56:47.173243,428
2021-09-22 19:56:47.173249,352
2021-09-22 19:56:47.173255,245
2021-09-22 19:56:47.173261,121
2021-09-22 19:56:47.173266,2
2021-09-22 19:56:47.173272,-94
2021-09-22 19:56:47.173278,-167
2021-09-22 19:56:47.173284,-221
2021-09-22 19:56:47.173290,-248
2021-09-22 19:56:47.173295,-260
2021-09-22 19:56:47.173301,-267
2021-09-22 19:56:47.173307,-267
2021-09-22 19:56:47.173314,-265
2021-09-22 19:56:47.353032,-253
2021-09-22 19:56:47.353054,-240
2021-09-22 19:56:47.353060,-226
2021-09-22 19:56:47.353066,-211
2021-09-22 19:56:47.353072,-197
2021-09-22 19:56:47.353078,-182
2021-09-22 19:56:47.353083,-172
2021-09-22 19:56:47.353089,-165
2021-09-22 19:56:47.353094,-150
2021-09-22 19:56:47.353100,-133
2021-09-22 19:56:47.353105,-128
2021-09-22 19:56:47.353111,-124
2021-09-22 19:56:47.353116,-114
2021-09-22 19:56:47.353151,-109
2021-09-22 19:56:47.353156,-107
2021-09-22 19:56:47.353161,-104
2021-09-22 19:56:47.353167,-107
2021-09-22 19:56:47.353175,-114
2021-09-22 19:56:47.353180,-107
2021-09-22 19:56:47.353186,-94
2021-09-22 19:56:47.353192,-97
2021-09-22 19:56:47.353197,-102
2021-09-22 19:56:47.353203,-109
2021-09-22 19:56:47.353209,-114
2021-09-22 19:56:47.353215,-109
2021-09-22 19:56:47.353220,-102
2021-09-22 19:56:47.353226,-97
2021-09-22 19:56:47.353232,-94
2021-09-22 19:56:47.353238,-90
2021-09-22 19:56:47.353243,-94
2021-09-22 19:56:47.623048,-102
2021-09-22 19:56:47.623069,-94
2021-09-22 19:56:47.623076,-87
2021-09-22 19:56:47.623082,-99
2021-09-22 19:56:47.623088,-114
2021-09-22 19:56:47.623094,-109
2021-09-22 19:56:47.623100,-104
2021-09-22 19:56:47.623111,-104
2021-09-22 19:56:47.623117,-107
2021-09-22 19:56:47.623123,-111
2021-09-22 19:56:47.623129,-121
2021-09-22 19:56:47.623134,-114
2021-09-22 19:56:47.623140,-102
2021-09-22 19:56:47.623146,-97
2021-09-22 19:56:47.623152,-97
2021-09-22 19:56:47.623158,-92
2021-09-22 19:56:47.623164,-87
2021-09-22 19:56:47.623169,-85
2021-09-22 19:56:47.623175,-80
2021-09-22 19:56:47.623181,-70
2021-09-22 19:56:47.623187,-75
2021-09-22 19:56:47.623193,-80
2021-09-22 19:56:47.623199,-70
2021-09-22 19:56:47.623204,-51
2021-09-22 19:56:47.623210,-34
2021-09-22 19:56:47.623216,-26
2021-09-22 19:56:47.623221,-24
2021-09-22 19:56:47.623227,-19
2021-09-22 19:56:47.623233,-19
2021-09-22 19:56:47.623239,-31
2021-09-22 19:56:47.803082,-46
2021-09-22 19:56:47.803102,-48
2021-09-22 19:56:47.803109,-46
2021-09-22 19:56:47.803115,-55
2021-09-22 19:56:47.803121,-70
2021-09-22 19:56:47.803127,-60
2021-09-22 19:56:47.803133,-46
2021-09-22 19:56:47.803139,-48
2021-09-22 19:56:47.803144,-43
2021-09-22 19:56:47.803150,-12
2021-09-22 19:56:47.803156,58
2021-09-22 19:56:47.803162,206
2021-09-22 19:56:47.803168,472
2021-09-22 19:56:47.803173,608
2021-09-22 19:56:47.803179,318
2021-09-22 19:56:47.803185,-206
2021-09-22 19:56:47.803191,-625
2021-09-22 19:56:47.803196,-666
2021-09-22 19:56:47.803202,-294
2021-09-22 19:56:47.803208,-34
2021-09-22 19:56:47.803213,-46
2021-09-22 19:56:47.803219,14
2021-09-22 19:56:47.803225,116
2021-09-22 19:56:47.803231,111
2021-09-22 19:56:47.803241,104
2021-09-22 19:56:47.803247,138
2021-09-22 19:56:47.803253,148
2021-09-22 19:56:47.803259,143
2021-09-22 19:56:47.803264,153
2021-09-22 19:56:47.803270,167
2021-09-22 19:56:48.118046,184
2021-09-22 19:56:48.118066,216
2021-09-22 19:56:48.118073,236
2021-09-22 19:56:48.118079,226
2021-09-22 19:56:48.118085,240
2021-09-22 19:56:48.118092,282
2021-09-22 19:56:48.118097,296
2021-09-22 19:56:48.118103,316
2021-09-22 19:56:48.118109,364
2021-09-22 19:56:48.118115,396
2021-09-22 19:56:48.118121,423
2021-09-22 19:56:48.118127,457
2021-09-22 19:56:48.118133,479
2021-09-22 19:56:48.118138,486
2021-09-22 19:56:48.118144,481
2021-09-22 19:56:48.118150,455
2021-09-22 19:56:48.118156,416
2021-09-22 19:56:48.118162,347
2021-09-22 19:56:48.118168,228
2021-09-22 19:56:48.118174,90
2021-09-22 19:56:48.118180,-43
2021-09-22 19:56:48.118186,-136
2021-09-22 19:56:48.118194,-167
2021-09-22 19:56:48.118199,-199
2021-09-22 19:56:48.118205,-248
2021-09-22 19:56:48.118211,-262
2021-09-22 19:56:48.118217,-257
2021-09-22 19:56:48.118223,-260
2021-09-22 19:56:48.118229,-253
2021-09-22 19:56:48.118234,-236
2021-09-22 19:56:48.342350,-221
2021-09-22 19:56:48.342370,-206
2021-09-22 19:56:48.342377,-197
2021-09-22 19:56:48.342383,-192
2021-09-22 19:56:48.342389,-167
2021-09-22 19:56:48.342395,-138
2021-09-22 19:56:48.342401,-128
2021-09-22 19:56:48.342407,-126
2021-09-22 19:56:48.342413,-126
2021-09-22 19:56:48.342419,-124
2021-09-22 19:56:48.342425,-114
2021-09-22 19:56:48.342431,-102
2021-09-22 19:56:48.342437,-99
2021-09-22 19:56:48.342443,-102
2021-09-22 19:56:48.342449,-99
2021-09-22 19:56:48.342454,-90
2021-09-22 19:56:48.342460,-92
2021-09-22 19:56:48.342466,-116
2021-09-22 19:56:48.342472,-128
2021-09-22 19:56:48.342477,-114
2021-09-22 19:56:48.342483,-111
2021-09-22 19:56:48.342489,-121
2021-09-22 19:56:48.342495,-111
2021-09-22 19:56:48.342500,-99
2021-09-22 19:56:48.342512,-99
2021-09-22 19:56:48.342517,-99
2021-09-22 19:56:48.342523,-97
2021-09-22 19:56:48.342529,-102
2021-09-22 19:56:48.342535,-109
2021-09-22 19:56:48.342540,-104
2021-09-22 19:56:48.523052,-94
2021-09-22 19:56:48.523073,-102
2021-09-22 19:56:48.523080,-107
2021-09-22 19:56:48.523086,-85
2021-09-22 19:56:48.523092,-72
2021-09-22 19:56:48.523098,-75
2021-09-22 19:56:48.523104,-70
2021-09-22 19:56:48.523110,-70
2021-09-22 19:56:48.523115,-85
2021-09-22 19:56:48.523121,-87
2021-09-22 19:56:48.523127,-80
2021-09-22 19:56:48.523133,-75
2021-09-22 19:56:48.523139,-80
2021-09-22 19:56:48.523145,-82
2021-09-22 19:56:48.523150,-87
2021-09-22 19:56:48.523156,-87
2021-09-22 19:56:48.523162,-77
2021-09-22 19:56:48.523168,-65
2021-09-22 19:56:48.523173,-48
2021-09-22 19:56:48.523179,-38
2021-09-22 19:56:48.523185,-51
2021-09-22 19:56:48.523191,-58
2021-09-22 19:56:48.523196,-36
2021-09-22 19:56:48.523202,-19
2021-09-22 19:56:48.523208,-41
2021-09-22 19:56:48.523213,-70
2021-09-22 19:56:48.523219,-72
2021-09-22 19:56:48.523225,-58
2021-09-22 19:56:48.523231,-53
2021-09-22 19:56:48.523236,-48
2021-09-22 19:56:48.837397,-41
2021-09-22 19:56:48.837417,-46
2021-09-22 19:56:48.837424,-48
2021-09-22 19:56:48.837430,-34
2021-09-22 19:56:48.837436,7
2021-09-22 19:56:48.837442,97
2021-09-22 19:56:48.837448,260
2021-09-22 19:56:48.837454,486
2021-09-22 19:56:48.837460,528
2021-09-22 19:56:48.837466,189
2021-09-22 19:56:48.837471,-311
2021-09-22 19:56:48.837477,-686
2021-09-22 19:56:48.837483,-644
2021-09-22 19:56:48.837489,-240
2021-09-22 19:56:48.837494,-38
2021-09-22 19:56:48.837500,-60
2021-09-22 19:56:48.837506,43
2021-09-22 19:56:48.837512,145
2021-09-22 19:56:48.837517,121
2021-09-22 19:56:48.837523,119
2021-09-22 19:56:48.837529,153
2021-09-22 19:56:48.837534,155
2021-09-22 19:56:48.837540,160
2021-09-22 19:56:48.837546,182
2021-09-22 19:56:48.837552,189
2021-09-22 19:56:48.837557,197
2021-09-22 19:56:48.837563,214
2021-09-22 19:56:48.837569,233
2021-09-22 19:56:48.837574,253
2021-09-22 19:56:48.837580,282
2021-09-22 19:56:48.973180,309
2021-09-22 19:56:48.973201,321
2021-09-22 19:56:48.973209,338
2021-09-22 19:56:48.973215,377
2021-09-22 19:56:48.973221,428
2021-09-22 19:56:48.973227,459
2021-09-22 19:56:48.973232,479
2021-09-22 19:56:48.973238,498
2021-09-22 19:56:48.973244,510
2021-09-22 19:56:48.973250,498
2021-09-22 19:56:48.973259,474
2021-09-22 19:56:48.973265,420
2021-09-22 19:56:48.973271,321
2021-09-22 19:56:48.973277,204
2021-09-22 19:56:48.973283,87
2021-09-22 19:56:48.973289,-21
2021-09-22 19:56:48.973295,-109
2021-09-22 19:56:48.973300,-172
2021-09-22 19:56:48.973306,-226
2021-09-22 19:56:48.973312,-257
2021-09-22 19:56:48.973318,-265
2021-09-22 19:56:48.973324,-270
2021-09-22 19:56:48.973329,-274
2021-09-22 19:56:48.973335,-260
2021-09-22 19:56:48.973341,-243
2021-09-22 19:56:48.973346,-231
2021-09-22 19:56:48.973352,-221
2021-09-22 19:56:48.973359,-209
2021-09-22 19:56:48.973365,-192
2021-09-22 19:56:48.973372,-175
2021-09-22 19:56:49.198069,-160
2021-09-22 19:56:49.198089,-150
2021-09-22 19:56:49.198096,-141
2021-09-22 19:56:49.198102,-133
2021-09-22 19:56:49.198108,-128
2021-09-22 19:56:49.198114,-126
2021-09-22 19:56:49.198119,-126
2021-09-22 19:56:49.198125,-121
2021-09-22 19:56:49.198131,-114
2021-09-22 19:56:49.198137,-109
2021-09-22 19:56:49.198143,-109
2021-09-22 19:56:49.198149,-119
2021-09-22 19:56:49.198154,-128
2021-09-22 19:56:49.198160,-128
2021-09-22 19:56:49.198167,-124
2021-09-22 19:56:49.198172,-124
2021-09-22 19:56:49.198178,-131
2021-09-22 19:56:49.198184,-128
2021-09-22 19:56:49.198190,-107
2021-09-22 19:56:49.198195,-97
2021-09-22 19:56:49.198201,-116
2021-09-22 19:56:49.198207,-119
2021-09-22 19:56:49.198213,-109
2021-09-22 19:56:49.198218,-114
2021-09-22 19:56:49.198225,-116
2021-09-22 19:56:49.198235,-104
2021-09-22 19:56:49.198241,-97
2021-09-22 19:56:49.198247,-94
2021-09-22 19:56:49.198253,-87
2021-09-22 19:56:49.198259,-85
2021-09-22 19:56:49.468065,-90
2021-09-22 19:56:49.468086,-80
2021-09-22 19:56:49.468093,-63
2021-09-22 19:56:49.468099,-68
2021-09-22 19:56:49.468105,-85
2021-09-22 19:56:49.468111,-92
2021-09-22 19:56:49.468117,-80
2021-09-22 19:56:49.468123,-70
2021-09-22 19:56:49.468129,-65
2021-09-22 19:56:49.468135,-51
2021-09-22 19:56:49.468141,-41
2021-09-22 19:56:49.468147,-43
2021-09-22 19:56:49.468152,-41
2021-09-22 19:56:49.468158,-29
2021-09-22 19:56:49.468164,-29
2021-09-22 19:56:49.468170,-34
2021-09-22 19:56:49.468176,-43
2021-09-22 19:56:49.468181,-68
2021-09-22 19:56:49.468187,-72
2021-09-22 19:56:49.468193,-53
2021-09-22 19:56:49.468199,-46
2021-09-22 19:56:49.468204,-55
2021-09-22 19:56:49.468210,-55
2021-09-22 19:56:49.468216,-53
2021-09-22 19:56:49.468221,-53
2021-09-22 19:56:49.468227,-7
2021-09-22 19:56:49.468233,99
2021-09-22 19:56:49.468239,267
2021-09-22 19:56:49.468244,464
2021-09-22 19:56:49.468250,423
2021-09-22 19:56:49.648162,12
2021-09-22 19:56:49.648184,-467
2021-09-22 19:56:49.648191,-739
2021-09-22 19:56:49.648197,-579
2021-09-22 19:56:49.648203,-184
2021-09-22 19:56:49.648209,-48
2021-09-22 19:56:49.648215,-46
2021-09-22 19:56:49.648221,68
2021-09-22 19:56:49.648227,119
2021-09-22 19:56:49.648233,85
2021-09-22 19:56:49.648238,104
2021-09-22 19:56:49.648244,138
2021-09-22 19:56:49.648250,138
2021-09-22 19:56:49.648256,145
2021-09-22 19:56:49.648262,165
2021-09-22 19:56:49.648268,172
2021-09-22 19:56:49.648278,177
2021-09-22 19:56:49.648284,197
2021-09-22 19:56:49.648289,214
2021-09-22 19:56:49.648295,223
2021-09-22 19:56:49.648301,243
2021-09-22 19:56:49.648307,267
2021-09-22 19:56:49.648313,299
2021-09-22 19:56:49.648319,340
2021-09-22 19:56:49.648324,377
2021-09-22 19:56:49.648330,416
2021-09-22 19:56:49.648336,450
2021-09-22 19:56:49.648341,467
2021-09-22 19:56:49.648347,476
2021-09-22 19:56:49.648353,484
2021-09-22 19:56:49.962433,476
2021-09-22 19:56:49.962451,445
2021-09-22 19:56:49.962458,377
2021-09-22 19:56:49.962464,265
2021-09-22 19:56:49.962470,143
2021-09-22 19:56:49.962475,34
2021-09-22 19:56:49.962481,-65
2021-09-22 19:56:49.962487,-141
2021-09-22 19:56:49.962493,-197
2021-09-22 19:56:49.962499,-253
2021-09-22 19:56:49.962504,-282
2021-09-22 19:56:49.962510,-274
2021-09-22 19:56:49.962516,-265
2021-09-22 19:56:49.962522,-262
2021-09-22 19:56:49.962528,-262
2021-09-22 19:56:49.962534,-260
2021-09-22 19:56:49.962540,-245
2021-09-22 19:56:49.962546,-223
2021-09-22 19:56:49.962551,-201
2021-09-22 19:56:49.962557,-184
2021-09-22 19:56:49.962563,-177
2021-09-22 19:56:49.962569,-165
2021-09-22 19:56:49.962574,-145
2021-09-22 19:56:49.962580,-136
2021-09-22 19:56:49.962586,-138
2021-09-22 19:56:49.962592,-136
2021-09-22 19:56:49.962598,-126
2021-09-22 19:56:49.962603,-121
2021-09-22 19:56:49.962609,-116
2021-09-22 19:56:49.962615,-124
2021-09-22 19:56:50.143414,-133
2021-09-22 19:56:50.143434,-128
2021-09-22 19:56:50.143441,-124
2021-09-22 19:56:50.143447,-131
2021-09-22 19:56:50.143453,-133
2021-09-22 19:56:50.143459,-131
2021-09-22 19:56:50.143465,-133
2021-09-22 19:56:50.143471,-136
2021-09-22 19:56:50.143477,-138
2021-09-22 19:56:50.143483,-141
2021-09-22 19:56:50.143489,-133
2021-09-22 19:56:50.143495,-124
2021-09-22 19:56:50.143501,-121
2021-09-22 19:56:50.143510,-121
2021-09-22 19:56:50.143516,-124
2021-09-22 19:56:50.143522,-121
2021-09-22 19:56:50.143527,-111
2021-09-22 19:56:50.143533,-102
2021-09-22 19:56:50.143539,-102
2021-09-22 19:56:50.143545,-104
2021-09-22 19:56:50.143550,-104
2021-09-22 19:56:50.143556,-102
2021-09-22 19:56:50.143562,-94
2021-09-22 19:56:50.143567,-85
2021-09-22 19:56:50.143573,-80
2021-09-22 19:56:50.143579,-72
2021-09-22 19:56:50.143585,-70
2021-09-22 19:56:50.143590,-68
2021-09-22 19:56:50.143596,-68
2021-09-22 19:56:50.143602,-65
2021-09-22 19:56:50.456772,-55
2021-09-22 19:56:50.456794,-41
2021-09-22 19:56:50.456800,-34
2021-09-22 19:56:50.456807,-34
2021-09-22 19:56:50.456813,-26
2021-09-22 19:56:50.456819,-19
2021-09-22 19:56:50.456824,-26
2021-09-22 19:56:50.456830,-43
2021-09-22 19:56:50.456836,-58
2021-09-22 19:56:50.456842,-65
2021-09-22 19:56:50.456848,-58
2021-09-22 19:56:50.456854,-46
2021-09-22 19:56:50.456860,-41
2021-09-22 19:56:50.456865,-48
2021-09-22 19:56:50.456871,-58
2021-09-22 19:56:50.456877,-53
2021-09-22 19:56:50.456883,-26
2021-09-22 19:56:50.456889,36
2021-09-22 19:56:50.456895,148
2021-09-22 19:56:50.456900,352
2021-09-22 19:56:50.456906,542
2021-09-22 19:56:50.456912,367
2021-09-22 19:56:50.456918,-124
2021-09-22 19:56:50.456923,-542
2021-09-22 19:56:50.456929,-703
2021-09-22 19:56:50.456935,-462
2021-09-22 19:56:50.456941,-92
2021-09-22 19:56:50.456947,-9
2021-09-22 19:56:50.456953,9
2021-09-22 19:56:50.456958,128
2021-09-22 19:56:50.593067,158
2021-09-22 19:56:50.593088,128
2021-09-22 19:56:50.593095,153
2021-09-22 19:56:50.593102,172
2021-09-22 19:56:50.593108,158
2021-09-22 19:56:50.593113,160
2021-09-22 19:56:50.593119,177
2021-09-22 19:56:50.593125,180
2021-09-22 19:56:50.593131,184
2021-09-22 19:56:50.593137,204
2021-09-22 19:56:50.593143,223
2021-09-22 19:56:50.593149,240
2021-09-22 19:56:50.593155,262
2021-09-22 19:56:50.593160,284
2021-09-22 19:56:50.593166,313
2021-09-22 19:56:50.593172,350
2021-09-22 19:56:50.593177,386
2021-09-22 19:56:50.593188,420
2021-09-22 19:56:50.593194,447
2021-09-22 19:56:50.593200,462
2021-09-22 19:56:50.593206,479
2021-09-22 19:56:50.593212,486
2021-09-22 19:56:50.593217,476
2021-09-22 19:56:50.593223,437
2021-09-22 19:56:50.593229,364
2021-09-22 19:56:50.593234,265
2021-09-22 19:56:50.593240,145
2021-09-22 19:56:50.593246,29
2021-09-22 19:56:50.593252,-68
2021-09-22 19:56:50.593258,-143
2021-09-22 19:56:50.862633,-199
2021-09-22 19:56:50.862652,-228
2021-09-22 19:56:50.862659,-243
2021-09-22 19:56:50.862665,-253
2021-09-22 19:56:50.862671,-255
2021-09-22 19:56:50.862677,-255
2021-09-22 19:56:50.862683,-257
2021-09-22 19:56:50.862689,-248
2021-09-22 19:56:50.862694,-231
2021-09-22 19:56:50.862700,-218
2021-09-22 19:56:50.862706,-209
2021-09-22 19:56:50.862711,-194
2021-09-22 19:56:50.862717,-184
2021-09-22 19:56:50.862723,-170
2021-09-22 19:56:50.862729,-155
2021-09-22 19:56:50.862734,-145
2021-09-22 19:56:50.862740,-133
2021-09-22 19:56:50.862746,-121
2021-09-22 19:56:50.862751,-119
2021-09-22 19:56:50.862757,-121
2021-09-22 19:56:50.862763,-111
2021-09-22 19:56:50.862769,-109
2021-09-22 19:56:50.862774,-111
2021-09-22 19:56:50.862780,-111
2021-09-22 19:56:50.862786,-111
2021-09-22 19:56:50.862791,-109
2021-09-22 19:56:50.862797,-109
2021-09-22 19:56:50.862803,-111
2021-09-22 19:56:50.862809,-109
2021-09-22 19:56:50.862815,-116
2021-09-22 19:56:51.045113,-119
2021-09-22 19:56:51.045134,-109
2021-09-22 19:56:51.045141,-109
2021-09-22 19:56:51.045147,-111
2021-09-22 19:56:51.045153,-109
2021-09-22 19:56:51.045159,-109
2021-09-22 19:56:51.045165,-114
2021-09-22 19:56:51.045171,-119
2021-09-22 19:56:51.045177,-116
2021-09-22 19:56:51.045183,-111
2021-09-22 19:56:51.045188,-114
2021-09-22 19:56:51.045194,-126
2021-09-22 19:56:51.045200,-124
2021-09-22 19:56:51.045207,-107
2021-09-22 19:56:51.045212,-107
2021-09-22 19:56:51.045218,-111
2021-09-22 19:56:51.045224,-104
2021-09-22 19:56:51.045230,-99
2021-09-22 19:56:51.045236,-94
2021-09-22 19:56:51.045242,-87
2021-09-22 19:56:51.045247,-82
2021-09-22 19:56:51.045253,-85
2021-09-22 19:56:51.045259,-80
2021-09-22 19:56:51.045265,-75
2021-09-22 19:56:51.045270,-80
2021-09-22 19:56:51.045276,-77
2021-09-22 19:56:51.045282,-58
2021-09-22 19:56:51.045288,-36
2021-09-22 19:56:51.045293,-21
2021-09-22 19:56:51.045303,-24
2021-09-22 19:56:51.358112,-26
2021-09-22 19:56:51.358134,-17
2021-09-22 19:56:51.358141,-24
2021-09-22 19:56:51.358147,-41
2021-09-22 19:56:51.358153,-58
2021-09-22 19:56:51.358159,-63
2021-09-22 19:56:51.358165,-60
2021-09-22 19:56:51.358171,-55
2021-09-22 19:56:51.358177,-55
2021-09-22 19:56:51.358182,-63
2021-09-22 19:56:51.358188,-68
2021-09-22 19:56:51.358194,-68
2021-09-22 19:56:51.358200,-46
2021-09-22 19:56:51.358205,7
2021-09-22 19:56:51.358211,116
2021-09-22 19:56:51.358217,321
2021-09-22 19:56:51.358223,559
2021-09-22 19:56:51.358229,486
2021-09-22 19:56:51.358234,12
2021-09-22 19:56:51.358240,-474
2021-09-22 19:56:51.358246,-722
2021-09-22 19:56:51.358252,-566
2021-09-22 19:56:51.358258,-175
2021-09-22 19:56:51.358263,-21
2021-09-22 19:56:51.358269,-17
2021-09-22 19:56:51.358275,87
2021-09-22 19:56:51.358280,133
2021-09-22 19:56:51.358286,102
2021-09-22 19:56:51.358292,124
2021-09-22 19:56:51.358298,155
2021-09-22 19:56:51.582567,148
2021-09-22 19:56:51.582588,158
2021-09-22 19:56:51.582595,177
2021-09-22 19:56:51.582601,177
2021-09-22 19:56:51.582607,175
2021-09-22 19:56:51.582616,192
2021-09-22 19:56:51.582623,218
2021-09-22 19:56:51.582629,238
2021-09-22 19:56:51.582635,255
2021-09-22 19:56:51.582641,277
2021-09-22 19:56:51.582647,304
2021-09-22 19:56:51.582653,333
2021-09-22 19:56:51.582658,369
2021-09-22 19:56:51.582664,411
2021-09-22 19:56:51.582670,447
2021-09-22 19:56:51.582676,472
2021-09-22 19:56:51.582682,486
2021-09-22 19:56:51.582688,486
2021-09-22 19:56:51.582694,469
2021-09-22 19:56:51.582700,440
2021-09-22 19:56:51.582705,379
2021-09-22 19:56:51.582711,279
2021-09-22 19:56:51.582717,153
2021-09-22 19:56:51.582723,31
2021-09-22 19:56:51.582729,-65
2021-09-22 19:56:51.582735,-143
2021-09-22 19:56:51.582741,-206
2021-09-22 19:56:51.582746,-253
2021-09-22 19:56:51.582752,-274
2021-09-22 19:56:51.582758,-279
2021-09-22 19:56:51.808093,-277
2021-09-22 19:56:51.808114,-270
2021-09-22 19:56:51.808121,-265
2021-09-22 19:56:51.808127,-260
2021-09-22 19:56:51.808133,-243
2021-09-22 19:56:51.808139,-221
2021-09-22 19:56:51.808145,-206
2021-09-22 19:56:51.808151,-194
2021-09-22 19:56:51.808157,-180
2021-09-22 19:56:51.808162,-172
2021-09-22 19:56:51.808168,-165
2021-09-22 19:56:51.808174,-148
2021-09-22 19:56:51.808180,-136
2021-09-22 19:56:51.808185,-136
2021-09-22 19:56:51.808191,-138
2021-09-22 19:56:51.808197,-138
2021-09-22 19:56:51.808203,-136
2021-09-22 19:56:51.808208,-131
2021-09-22 19:56:51.808214,-133
2021-09-22 19:56:51.808220,-136
2021-09-22 19:56:51.808229,-128
2021-09-22 19:56:51.808235,-128
2021-09-22 19:56:51.808241,-131
2021-09-22 19:56:51.808246,-124
2021-09-22 19:56:51.808252,-119
2021-09-22 19:56:51.808258,-116
2021-09-22 19:56:51.808264,-116
2021-09-22 19:56:51.808270,-119
2021-09-22 19:56:51.808275,-116
2021-09-22 19:56:51.808281,-109
2021-09-22 19:56:52.033163,-114
2021-09-22 19:56:52.033189,-116
2021-09-22 19:56:52.033196,-111
2021-09-22 19:56:52.033201,-109
2021-09-22 19:56:52.033207,-104
2021-09-22 19:56:52.033213,-92
2021-09-22 19:56:52.033219,-87
2021-09-22 19:56:52.033225,-90
2021-09-22 19:56:52.033233,-92
2021-09-22 19:56:52.033239,-94
2021-09-22 19:56:52.033244,-87
2021-09-22 19:56:52.033250,-82
2021-09-22 19:56:52.033256,-77
2021-09-22 19:56:52.033262,-72
2021-09-22 19:56:52.033268,-70
2021-09-22 19:56:52.033273,-68
2021-09-22 19:56:52.033279,-63
2021-09-22 19:56:52.033285,-63
2021-09-22 19:56:52.033291,-63
2021-09-22 19:56:52.033297,-53
2021-09-22 19:56:52.033303,-41
2021-09-22 19:56:52.033308,-26
2021-09-22 19:56:52.033314,-29
2021-09-22 19:56:52.033320,-46
2021-09-22 19:56:52.033326,-36
2021-09-22 19:56:52.033331,-19
2021-09-22 19:56:52.033337,-38
2021-09-22 19:56:52.033343,-55
2021-09-22 19:56:52.033349,-55
2021-09-22 19:56:52.033354,-48
2021-09-22 19:56:52.213235,-43
2021-09-22 19:56:52.213257,-41
2021-09-22 19:56:52.213264,-43
2021-09-22 19:56:52.213270,-41
2021-09-22 19:56:52.213276,-34
2021-09-22 19:56:52.213282,-21
2021-09-22 19:56:52.213288,4
2021-09-22 19:56:52.213294,63
2021-09-22 19:56:52.213299,180
2021-09-22 19:56:52.213306,396
2021-09-22 19:56:52.213312,586
2021-09-22 19:56:52.213317,418
2021-09-22 19:56:52.213323,-70
2021-09-22 19:56:52.213330,-557
2021-09-22 19:56:52.213336,-720
2021-09-22 19:56:52.213342,-394
2021-09-22 19:56:52.213348,-51
2021-09-22 19:56:52.213354,-26
2021-09-22 19:56:52.213359,12
2021-09-22 19:56:52.213365,133
2021-09-22 19:56:52.213371,143
2021-09-22 19:56:52.213377,121
2021-09-22 19:56:52.213383,155
2021-09-22 19:56:52.213389,172
2021-09-22 19:56:52.213395,172
2021-09-22 19:56:52.213401,192
2021-09-22 19:56:52.213406,204
2021-09-22 19:56:52.213412,209
2021-09-22 19:56:52.213418,223
2021-09-22 19:56:52.213424,248
2021-09-22 19:56:52.526727,267
2021-09-22 19:56:52.526746,282
2021-09-22 19:56:52.526753,299
2021-09-22 19:56:52.526759,328
2021-09-22 19:56:52.526765,364
2021-09-22 19:56:52.526771,401
2021-09-22 19:56:52.526777,430
2021-09-22 19:56:52.526783,457
2021-09-22 19:56:52.526789,484
2021-09-22 19:56:52.526794,508
2021-09-22 19:56:52.526800,523
2021-09-22 19:56:52.526806,520
2021-09-22 19:56:52.526812,498
2021-09-22 19:56:52.526817,447
2021-09-22 19:56:52.526823,374
2021-09-22 19:56:52.526829,279
2021-09-22 19:56:52.526835,160
2021-09-22 19:56:52.526840,48
2021-09-22 19:56:52.526846,-38
2021-09-22 19:56:52.526852,-119
2021-09-22 19:56:52.526858,-182
2021-09-22 19:56:52.526864,-214
2021-09-22 19:56:52.526872,-226
2021-09-22 19:56:52.526878,-236
2021-09-22 19:56:52.526884,-236
2021-09-22 19:56:52.526890,-231
2021-09-22 19:56:52.526896,-218
2021-09-22 19:56:52.526901,-209
2021-09-22 19:56:52.526907,-204
2021-09-22 19:56:52.526913,-199
2021-09-22 19:56:52.663169,-177
2021-09-22 19:56:52.663190,-153
2021-09-22 19:56:52.663197,-145
2021-09-22 19:56:52.663203,-143
2021-09-22 19:56:52.663208,-128
2021-09-22 19:56:52.663214,-114
2021-09-22 19:56:52.663220,-111
2021-09-22 19:56:52.663226,-107
2021-09-22 19:56:52.663232,-94
2021-09-22 19:56:52.663237,-90
2021-09-22 19:56:52.663243,-87
2021-09-22 19:56:52.663249,-85
2021-09-22 19:56:52.663255,-92
2021-09-22 19:56:52.663261,-97
2021-09-22 19:56:52.663266,-87
2021-09-22 19:56:52.663272,-90
2021-09-22 19:56:52.663278,-92
2021-09-22 19:56:52.663284,-92
2021-09-22 19:56:52.663289,-92
2021-09-22 19:56:52.663295,-97
2021-09-22 19:56:52.663301,-97
2021-09-22 19:56:52.663306,-94
2021-09-22 19:56:52.663312,-94
2021-09-22 19:56:52.663318,-94
2021-09-22 19:56:52.663324,-97
2021-09-22 19:56:52.663329,-99
2021-09-22 19:56:52.663335,-97
2021-09-22 19:56:52.663341,-92
2021-09-22 19:56:52.663347,-87
2021-09-22 19:56:52.663352,-85
2021-09-22 19:56:52.888043,-85
2021-09-22 19:56:52.888063,-77
2021-09-22 19:56:52.888070,-68
2021-09-22 19:56:52.888076,-72
2021-09-22 19:56:52.888082,-75
2021-09-22 19:56:52.888088,-70
2021-09-22 19:56:52.888094,-53
2021-09-22 19:56:52.888100,-31
2021-09-22 19:56:52.888105,-24
2021-09-22 19:56:52.888111,-36
2021-09-22 19:56:52.888117,-29
2021-09-22 19:56:52.888123,-14
2021-09-22 19:56:52.888129,-34
2021-09-22 19:56:52.888135,-55
2021-09-22 19:56:52.888140,-58
2021-09-22 19:56:52.888146,-58
2021-09-22 19:56:52.888152,-53
2021-09-22 19:56:52.888158,-53
2021-09-22 19:56:52.888163,-55
2021-09-22 19:56:52.888169,-53
2021-09-22 19:56:52.888175,-43
2021-09-22 19:56:52.888181,-36
2021-09-22 19:56:52.888186,-12
2021-09-22 19:56:52.888192,58
2021-09-22 19:56:52.888198,172
2021-09-22 19:56:52.888204,338
2021-09-22 19:56:52.888209,442
2021-09-22 19:56:52.888215,223
2021-09-22 19:56:52.888221,-240
2021-09-22 19:56:52.888227,-632
2021-09-22 19:56:53.113172,-712
2021-09-22 19:56:53.113193,-389
2021-09-22 19:56:53.113201,-75
2021-09-22 19:56:53.113207,-41
2021-09-22 19:56:53.113213,-2
2021-09-22 19:56:53.113219,102
2021-09-22 19:56:53.113224,116
2021-09-22 19:56:53.113230,107
2021-09-22 19:56:53.113236,131
2021-09-22 19:56:53.113242,141
2021-09-22 19:56:53.113247,138
2021-09-22 19:56:53.113253,143
2021-09-22 19:56:53.113259,160
2021-09-22 19:56:53.113265,170
2021-09-22 19:56:53.113271,182
2021-09-22 19:56:53.113276,199
2021-09-22 19:56:53.113282,211
2021-09-22 19:56:53.113288,226
2021-09-22 19:56:53.113294,253
2021-09-22 19:56:53.113300,277
2021-09-22 19:56:53.113306,301
2021-09-22 19:56:53.113311,345
2021-09-22 19:56:53.113317,382
2021-09-22 19:56:53.113323,408
2021-09-22 19:56:53.113328,447
2021-09-22 19:56:53.113334,469
2021-09-22 19:56:53.113340,464
2021-09-22 19:56:53.113345,462
2021-09-22 19:56:53.113351,455
2021-09-22 19:56:53.113357,416
2021-09-22 19:56:53.383159,338
2021-09-22 19:56:53.383180,236
2021-09-22 19:56:53.383187,121
2021-09-22 19:56:53.383193,7
2021-09-22 19:56:53.383199,-90
2021-09-22 19:56:53.383208,-153
2021-09-22 19:56:53.383214,-192
2021-09-22 19:56:53.383220,-216
2021-09-22 19:56:53.383225,-236
2021-09-22 19:56:53.383231,-243
2021-09-22 19:56:53.383237,-240
2021-09-22 19:56:53.383242,-233
2021-09-22 19:56:53.383248,-221
2021-09-22 19:56:53.383254,-204
2021-09-22 19:56:53.383260,-189
2021-09-22 19:56:53.383265,-182
2021-09-22 19:56:53.383271,-172
2021-09-22 19:56:53.383276,-153
2021-09-22 19:56:53.383282,-136
2021-09-22 19:56:53.383288,-128
2021-09-22 19:56:53.383294,-119
2021-09-22 19:56:53.383299,-109
2021-09-22 19:56:53.383305,-104
2021-09-22 19:56:53.383311,-99
2021-09-22 19:56:53.383317,-92
2021-09-22 19:56:53.383322,-90
2021-09-22 19:56:53.383328,-94
2021-09-22 19:56:53.383333,-102
2021-09-22 19:56:53.383339,-97
2021-09-22 19:56:53.383345,-90
2021-09-22 19:56:53.608114,-92
2021-09-22 19:56:53.608135,-92
2021-09-22 19:56:53.608142,-92
2021-09-22 19:56:53.608148,-104
2021-09-22 19:56:53.608154,-109
2021-09-22 19:56:53.608159,-102
2021-09-22 19:56:53.608165,-102
2021-09-22 19:56:53.608171,-104
2021-09-22 19:56:53.608177,-99
2021-09-22 19:56:53.608183,-97
2021-09-22 19:56:53.608189,-102
2021-09-22 19:56:53.608195,-102
2021-09-22 19:56:53.608201,-97
2021-09-22 19:56:53.608207,-97
2021-09-22 19:56:53.608212,-102
2021-09-22 19:56:53.608218,-109
2021-09-22 19:56:53.608224,-116
2021-09-22 19:56:53.608230,-111
2021-09-22 19:56:53.608236,-102
2021-09-22 19:56:53.608242,-87
2021-09-22 19:56:53.608248,-65
2021-09-22 19:56:53.608254,-60
2021-09-22 19:56:53.608260,-65
2021-09-22 19:56:53.608265,-55
2021-09-22 19:56:53.608271,-46
2021-09-22 19:56:53.608277,-60
2021-09-22 19:56:53.608283,-77
2021-09-22 19:56:53.608289,-87
2021-09-22 19:56:53.608295,-90
2021-09-22 19:56:53.608300,-85
2021-09-22 19:56:53.833070,-85
2021-09-22 19:56:53.833090,-87
2021-09-22 19:56:53.833097,-85
2021-09-22 19:56:53.833103,-82
2021-09-22 19:56:53.833109,-77
2021-09-22 19:56:53.833115,-48
2021-09-22 19:56:53.833121,24
2021-09-22 19:56:53.833127,148
2021-09-22 19:56:53.833133,338
2021-09-22 19:56:53.833139,452
2021-09-22 19:56:53.833145,204
2021-09-22 19:56:53.833151,-277
2021-09-22 19:56:53.833157,-649
2021-09-22 19:56:53.833162,-725
2021-09-22 19:56:53.833168,-425
2021-09-22 19:56:53.833174,-121
2021-09-22 19:56:53.833183,-80
2021-09-22 19:56:53.833189,-24
2021-09-22 19:56:53.833195,90
2021-09-22 19:56:53.833201,104
2021-09-22 19:56:53.833206,90
2021-09-22 19:56:53.833212,114
2021-09-22 19:56:53.833218,131
2021-09-22 19:56:53.833224,133
2021-09-22 19:56:53.833230,141
2021-09-22 19:56:53.833235,148
2021-09-22 19:56:53.833243,160
2021-09-22 19:56:53.833249,175
2021-09-22 19:56:53.833255,192
2021-09-22 19:56:53.833261,211
2021-09-22 19:56:54.058188,231
2021-09-22 19:56:54.058210,253
2021-09-22 19:56:54.058217,277
2021-09-22 19:56:54.058223,311
2021-09-22 19:56:54.058229,345
2021-09-22 19:56:54.058235,379
2021-09-22 19:56:54.058241,423
2021-09-22 19:56:54.058247,459
2021-09-22 19:56:54.058253,469
2021-09-22 19:56:54.058259,469
2021-09-22 19:56:54.058265,469
2021-09-22 19:56:54.058271,450
2021-09-22 19:56:54.058276,399
2021-09-22 19:56:54.058282,311
2021-09-22 19:56:54.058288,192
2021-09-22 19:56:54.058295,65
2021-09-22 19:56:54.058300,-43
2021-09-22 19:56:54.058307,-131
2021-09-22 19:56:54.058312,-199
2021-09-22 19:56:54.058318,-243
2021-09-22 19:56:54.058324,-270
2021-09-22 19:56:54.058330,-279
2021-09-22 19:56:54.058336,-277
2021-09-22 19:56:54.058342,-272
2021-09-22 19:56:54.058347,-267
2021-09-22 19:56:54.058353,-257
2021-09-22 19:56:54.058359,-248
2021-09-22 19:56:54.058365,-238
2021-09-22 19:56:54.058371,-226
2021-09-22 19:56:54.058376,-209
2021-09-22 19:56:54.283182,-189
2021-09-22 19:56:54.283206,-175
2021-09-22 19:56:54.283214,-165
2021-09-22 19:56:54.283219,-158
2021-09-22 19:56:54.283225,-153
2021-09-22 19:56:54.283231,-138
2021-09-22 19:56:54.283237,-121
2021-09-22 19:56:54.283245,-119
2021-09-22 19:56:54.283251,-124
2021-09-22 19:56:54.283257,-121
2021-09-22 19:56:54.283263,-111
2021-09-22 19:56:54.283268,-109
2021-09-22 19:56:54.283274,-111
2021-09-22 19:56:54.283280,-119
2021-09-22 19:56:54.283286,-119
2021-09-22 19:56:54.283292,-114
2021-09-22 19:56:54.283298,-107
2021-09-22 19:56:54.283303,-104
2021-09-22 19:56:54.283309,-107
2021-09-22 19:56:54.283315,-111
2021-09-22 19:56:54.283321,-107
2021-09-22 19:56:54.283327,-102
2021-09-22 19:56:54.283333,-99
2021-09-22 19:56:54.283338,-97
2021-09-22 19:56:54.283344,-97
2021-09-22 19:56:54.283350,-99
2021-09-22 19:56:54.283355,-94
2021-09-22 19:56:54.283361,-85
2021-09-22 19:56:54.283367,-80
2021-09-22 19:56:54.283372,-80
2021-09-22 19:56:54.552435,-80
2021-09-22 19:56:54.552456,-72
2021-09-22 19:56:54.552463,-68
2021-09-22 19:56:54.552469,-70
2021-09-22 19:56:54.552475,-70
2021-09-22 19:56:54.552481,-63
2021-09-22 19:56:54.552486,-60
2021-09-22 19:56:54.552492,-70
2021-09-22 19:56:54.552498,-75
2021-09-22 19:56:54.552503,-65
2021-09-22 19:56:54.552509,-60
2021-09-22 19:56:54.552515,-72
2021-09-22 19:56:54.552521,-90
2021-09-22 19:56:54.552526,-109
2021-09-22 19:56:54.552532,-111
2021-09-22 19:56:54.552538,-102
2021-09-22 19:56:54.552543,-97
2021-09-22 19:56:54.552549,-99
2021-09-22 19:56:54.552555,-94
2021-09-22 19:56:54.552561,-85
2021-09-22 19:56:54.552566,-80
2021-09-22 19:56:54.552572,-58
2021-09-22 19:56:54.552577,17
2021-09-22 19:56:54.552583,182
2021-09-22 19:56:54.552589,416
2021-09-22 19:56:54.552595,462
2021-09-22 19:56:54.552600,102
2021-09-22 19:56:54.552606,-382
2021-09-22 19:56:54.552612,-698
2021-09-22 19:56:54.552618,-678
2021-09-22 19:56:54.733022,-311
2021-09-22 19:56:54.733039,-63
2021-09-22 19:56:54.733047,-65
2021-09-22 19:56:54.733053,12
2021-09-22 19:56:54.733059,107
2021-09-22 19:56:54.733066,90
2021-09-22 19:56:54.733072,82
2021-09-22 19:56:54.733079,114
2021-09-22 19:56:54.733085,114
2021-09-22 19:56:54.733091,114
2021-09-22 19:56:54.733097,136
2021-09-22 19:56:54.733103,143
2021-09-22 19:56:54.733109,148
2021-09-22 19:56:54.733115,170
2021-09-22 19:56:54.733121,192
2021-09-22 19:56:54.733128,204
2021-09-22 19:56:54.733134,226
2021-09-22 19:56:54.733140,250
2021-09-22 19:56:54.733146,274
2021-09-22 19:56:54.733152,316
2021-09-22 19:56:54.733158,360
2021-09-22 19:56:54.733164,399
2021-09-22 19:56:54.733170,437
2021-09-22 19:56:54.733176,467
2021-09-22 19:56:54.733182,486
2021-09-22 19:56:54.733189,496
2021-09-22 19:56:54.733195,486
2021-09-22 19:56:54.733201,455
2021-09-22 19:56:54.733207,396
2021-09-22 19:56:54.733213,309
2021-09-22 19:56:55.002667,187
2021-09-22 19:56:55.002688,65
2021-09-22 19:56:55.002695,-43
2021-09-22 19:56:55.002701,-138
2021-09-22 19:56:55.002708,-206
2021-09-22 19:56:55.002714,-245
2021-09-22 19:56:55.002720,-270
2021-09-22 19:56:55.002726,-287
2021-09-22 19:56:55.002731,-287
2021-09-22 19:56:55.002737,-279
2021-09-22 19:56:55.002743,-279
2021-09-22 19:56:55.002749,-272
2021-09-22 19:56:55.002755,-255
2021-09-22 19:56:55.002761,-240
2021-09-22 19:56:55.002766,-233
2021-09-22 19:56:55.002772,-223
2021-09-22 19:56:55.002778,-206
2021-09-22 19:56:55.002784,-197
2021-09-22 19:56:55.002790,-187
2021-09-22 19:56:55.002796,-167
2021-09-22 19:56:55.002802,-148
2021-09-22 19:56:55.002808,-141
2021-09-22 19:56:55.002813,-138
2021-09-22 19:56:55.002819,-126
2021-09-22 19:56:55.002825,-109
2021-09-22 19:56:55.002831,-107
2021-09-22 19:56:55.002837,-119
2021-09-22 19:56:55.002842,-128
2021-09-22 19:56:55.002848,-121
2021-09-22 19:56:55.002854,-111
2021-09-22 19:56:55.183137,-114
2021-09-22 19:56:55.183158,-116
2021-09-22 19:56:55.183165,-109
2021-09-22 19:56:55.183171,-109
2021-09-22 19:56:55.183177,-114
2021-09-22 19:56:55.183185,-116
2021-09-22 19:56:55.183191,-109
2021-09-22 19:56:55.183197,-97
2021-09-22 19:56:55.183203,-94
2021-09-22 19:56:55.183209,-119
2021-09-22 19:56:55.183215,-138
2021-09-22 19:56:55.183228,-121
2021-09-22 19:56:55.183234,-104
2021-09-22 19:56:55.183240,-104
2021-09-22 19:56:55.183247,-97
2021-09-22 19:56:55.183253,-90
2021-09-22 19:56:55.183259,-90
2021-09-22 19:56:55.183265,-85
2021-09-22 19:56:55.183270,-72
2021-09-22 19:56:55.183276,-68
2021-09-22 19:56:55.183282,-70
2021-09-22 19:56:55.183288,-77
2021-09-22 19:56:55.183294,-77
2021-09-22 19:56:55.183299,-65
2021-09-22 19:56:55.183305,-58
2021-09-22 19:56:55.183311,-60
2021-09-22 19:56:55.183316,-58
2021-09-22 19:56:55.183322,-43
2021-09-22 19:56:55.183328,-21
2021-09-22 19:56:55.183333,-17
2021-09-22 19:56:55.453137,-24
2021-09-22 19:56:55.453157,-17
2021-09-22 19:56:55.453165,-19
2021-09-22 19:56:55.453171,-41
2021-09-22 19:56:55.453177,-60
2021-09-22 19:56:55.453182,-72
2021-09-22 19:56:55.453188,-72
2021-09-22 19:56:55.453194,-68
2021-09-22 19:56:55.453200,-68
2021-09-22 19:56:55.453206,-72
2021-09-22 19:56:55.453212,-75
2021-09-22 19:56:55.453218,-68
2021-09-22 19:56:55.453224,-60
2021-09-22 19:56:55.453230,-46
2021-09-22 19:56:55.453236,2
2021-09-22 19:56:55.453242,114
2021-09-22 19:56:55.453247,330
2021-09-22 19:56:55.453253,520
2021-09-22 19:56:55.453259,350
2021-09-22 19:56:55.453266,-109
2021-09-22 19:56:55.453272,-520
2021-09-22 19:56:55.453278,-708
2021-09-22 19:56:55.453283,-464
2021-09-22 19:56:55.453289,-99
2021-09-22 19:56:55.453296,-38
2021-09-22 19:56:55.453301,-21
2021-09-22 19:56:55.453307,94
2021-09-22 19:56:55.453313,109
2021-09-22 19:56:55.453319,85
2021-09-22 19:56:55.453325,124
2021-09-22 19:56:55.678202,148
2021-09-22 19:56:55.678223,143
2021-09-22 19:56:55.678230,150
2021-09-22 19:56:55.678236,155
2021-09-22 19:56:55.678241,158
2021-09-22 19:56:55.678247,177
2021-09-22 19:56:55.678253,199
2021-09-22 19:56:55.678259,214
2021-09-22 19:56:55.678265,226
2021-09-22 19:56:55.678270,240
2021-09-22 19:56:55.678276,267
2021-09-22 19:56:55.678282,304
2021-09-22 19:56:55.678288,340
2021-09-22 19:56:55.678293,377
2021-09-22 19:56:55.678299,413
2021-09-22 19:56:55.678305,435
2021-09-22 19:56:55.678311,457
2021-09-22 19:56:55.678316,474
2021-09-22 19:56:55.678322,479
2021-09-22 19:56:55.678327,467
2021-09-22 19:56:55.678333,425
2021-09-22 19:56:55.678339,350
2021-09-22 19:56:55.678344,248
2021-09-22 19:56:55.678350,126
2021-09-22 19:56:55.678356,4
2021-09-22 19:56:55.678361,-94
2021-09-22 19:56:55.678367,-167
2021-09-22 19:56:55.678373,-221
2021-09-22 19:56:55.678378,-248
2021-09-22 19:56:55.678384,-257
2021-09-22 19:56:55.903044,-255
2021-09-22 19:56:55.903064,-253
2021-09-22 19:56:55.903070,-255
2021-09-22 19:56:55.903076,-250
2021-09-22 19:56:55.903082,-236
2021-09-22 19:56:55.903088,-221
2021-09-22 19:56:55.903094,-209
2021-09-22 19:56:55.903100,-197
2021-09-22 19:56:55.903106,-194
2021-09-22 19:56:55.903112,-187
2021-09-22 19:56:55.903118,-165
2021-09-22 19:56:55.903123,-145
2021-09-22 19:56:55.903129,-133
2021-09-22 19:56:55.903135,-126
2021-09-22 19:56:55.903141,-126
2021-09-22 19:56:55.903147,-121
2021-09-22 19:56:55.903152,-109
2021-09-22 19:56:55.903158,-104
2021-09-22 19:56:55.903164,-109
2021-09-22 19:56:55.903170,-109
2021-09-22 19:56:55.903176,-107
2021-09-22 19:56:55.903181,-107
2021-09-22 19:56:55.903188,-104
2021-09-22 19:56:55.903193,-99
2021-09-22 19:56:55.903199,-97
2021-09-22 19:56:55.903205,-97
2021-09-22 19:56:55.903211,-99
2021-09-22 19:56:55.903216,-99
2021-09-22 19:56:55.903222,-92
2021-09-22 19:56:55.903228,-85
2021-09-22 19:56:56.128212,-82
2021-09-22 19:56:56.128233,-85
2021-09-22 19:56:56.128240,-82
2021-09-22 19:56:56.128246,-80
2021-09-22 19:56:56.128252,-77
2021-09-22 19:56:56.128258,-65
2021-09-22 19:56:56.128264,-55
2021-09-22 19:56:56.128270,-65
2021-09-22 19:56:56.128276,-85
2021-09-22 19:56:56.128281,-94
2021-09-22 19:56:56.128287,-87
2021-09-22 19:56:56.128293,-77
2021-09-22 19:56:56.128299,-75
2021-09-22 19:56:56.128305,-77
2021-09-22 19:56:56.128311,-82
2021-09-22 19:56:56.128316,-82
2021-09-22 19:56:56.128322,-72
2021-09-22 19:56:56.128328,-70
2021-09-22 19:56:56.128334,-70
2021-09-22 19:56:56.128340,-65
2021-09-22 19:56:56.128345,-63
2021-09-22 19:56:56.128351,-65
2021-09-22 19:56:56.128357,-60
2021-09-22 19:56:56.128363,-58
2021-09-22 19:56:56.128368,-53
2021-09-22 19:56:56.128374,-43
2021-09-22 19:56:56.128380,-34
2021-09-22 19:56:56.128386,-36
2021-09-22 19:56:56.128392,-46
2021-09-22 19:56:56.128398,-34
2021-09-22 19:56:56.353130,-21
2021-09-22 19:56:56.353151,-34
2021-09-22 19:56:56.353158,-55
2021-09-22 19:56:56.353164,-68
2021-09-22 19:56:56.353170,-72
2021-09-22 19:56:56.353175,-68
2021-09-22 19:56:56.353181,-63
2021-09-22 19:56:56.353187,-68
2021-09-22 19:56:56.353199,-68
2021-09-22 19:56:56.353205,-63
2021-09-22 19:56:56.353211,-58
2021-09-22 19:56:56.353217,-53
2021-09-22 19:56:56.353223,-24
2021-09-22 19:56:56.353229,53
2021-09-22 19:56:56.353234,211
2021-09-22 19:56:56.353240,452
2021-09-22 19:56:56.353246,523
2021-09-22 19:56:56.353252,189
2021-09-22 19:56:56.353258,-291
2021-09-22 19:56:56.353263,-632
2021-09-22 19:56:56.353269,-630
2021-09-22 19:56:56.353275,-270
2021-09-22 19:56:56.353281,-38
2021-09-22 19:56:56.353286,-46
2021-09-22 19:56:56.353292,34
2021-09-22 19:56:56.353298,116
2021-09-22 19:56:56.353303,94
2021-09-22 19:56:56.353309,99
2021-09-22 19:56:56.353315,141
2021-09-22 19:56:56.353320,143
2021-09-22 19:56:56.621805,143
2021-09-22 19:56:56.621826,158
2021-09-22 19:56:56.621834,165
2021-09-22 19:56:56.621840,175
2021-09-22 19:56:56.621846,194
2021-09-22 19:56:56.621852,206
2021-09-22 19:56:56.621858,216
2021-09-22 19:56:56.621863,240
2021-09-22 19:56:56.621869,265
2021-09-22 19:56:56.621875,287
2021-09-22 19:56:56.621880,318
2021-09-22 19:56:56.621886,355
2021-09-22 19:56:56.621892,386
2021-09-22 19:56:56.621898,416
2021-09-22 19:56:56.621904,440
2021-09-22 19:56:56.621910,457
2021-09-22 19:56:56.621916,469
2021-09-22 19:56:56.621922,464
2021-09-22 19:56:56.621928,437
2021-09-22 19:56:56.621934,389
2021-09-22 19:56:56.621940,309
2021-09-22 19:56:56.621945,197
2021-09-22 19:56:56.621951,75
2021-09-22 19:56:56.621957,-29
2021-09-22 19:56:56.621963,-111
2021-09-22 19:56:56.621968,-182
2021-09-22 19:56:56.621974,-231
2021-09-22 19:56:56.621980,-253
2021-09-22 19:56:56.621986,-257
2021-09-22 19:56:56.621991,-257
2021-09-22 19:56:56.803192,-257
2021-09-22 19:56:56.803212,-250
2021-09-22 19:56:56.803219,-236
2021-09-22 19:56:56.803225,-223
2021-09-22 19:56:56.803231,-211
2021-09-22 19:56:56.803237,-206
2021-09-22 19:56:56.803243,-194
2021-09-22 19:56:56.803249,-172
2021-09-22 19:56:56.803254,-155
2021-09-22 19:56:56.803260,-148
2021-09-22 19:56:56.803266,-136
2021-09-22 19:56:56.803272,-131
2021-09-22 19:56:56.803277,-126
2021-09-22 19:56:56.803283,-111
2021-09-22 19:56:56.803289,-104
2021-09-22 19:56:56.803295,-107
2021-09-22 19:56:56.803300,-109
2021-09-22 19:56:56.803306,-107
2021-09-22 19:56:56.803312,-97
2021-09-22 19:56:56.803318,-90
2021-09-22 19:56:56.803323,-92
2021-09-22 19:56:56.803329,-94
2021-09-22 19:56:56.803335,-94
2021-09-22 19:56:56.803340,-97
2021-09-22 19:56:56.803346,-97
2021-09-22 19:56:56.803352,-92
2021-09-22 19:56:56.803357,-97
2021-09-22 19:56:56.803363,-102
2021-09-22 19:56:56.803369,-102
2021-09-22 19:56:56.803374,-92
2021-09-22 19:56:57.028103,-82
2021-09-22 19:56:57.028122,-80
2021-09-22 19:56:57.028129,-82
2021-09-22 19:56:57.028136,-87
2021-09-22 19:56:57.028141,-87
2021-09-22 19:56:57.028147,-77
2021-09-22 19:56:57.028153,-70
2021-09-22 19:56:57.028159,-70
2021-09-22 19:56:57.028165,-68
2021-09-22 19:56:57.028171,-68
2021-09-22 19:56:57.028177,-75
2021-09-22 19:56:57.028183,-82
2021-09-22 19:56:57.028189,-80
2021-09-22 19:56:57.028194,-80
2021-09-22 19:56:57.028200,-87
2021-09-22 19:56:57.028206,-82
2021-09-22 19:56:57.028212,-75
2021-09-22 19:56:57.028218,-77
2021-09-22 19:56:57.028223,-77
2021-09-22 19:56:57.028229,-80
2021-09-22 19:56:57.028235,-90
2021-09-22 19:56:57.028241,-90
2021-09-22 19:56:57.028246,-80
2021-09-22 19:56:57.028252,-72
2021-09-22 19:56:57.028258,-68
2021-09-22 19:56:57.028264,-65
2021-09-22 19:56:57.028269,-65
2021-09-22 19:56:57.028275,-58
2021-09-22 19:56:57.028281,-43
2021-09-22 19:56:57.028287,-29
2021-09-22 19:56:57.253176,-26
2021-09-22 19:56:57.253197,-26
2021-09-22 19:56:57.253204,-21
2021-09-22 19:56:57.253210,-26
2021-09-22 19:56:57.253216,-48
2021-09-22 19:56:57.253222,-63
2021-09-22 19:56:57.253228,-65
2021-09-22 19:56:57.253234,-60
2021-09-22 19:56:57.253239,-55
2021-09-22 19:56:57.253245,-63
2021-09-22 19:56:57.253251,-70
2021-09-22 19:56:57.253257,-63
2021-09-22 19:56:57.253263,-55
2021-09-22 19:56:57.253269,-51
2021-09-22 19:56:57.253275,-36
2021-09-22 19:56:57.253281,17
2021-09-22 19:56:57.253287,131
2021-09-22 19:56:57.253292,357
2021-09-22 19:56:57.253298,579
2021-09-22 19:56:57.253304,450
2021-09-22 19:56:57.253309,-17
2021-09-22 19:56:57.253315,-476
2021-09-22 19:56:57.253321,-686
2021-09-22 19:56:57.253327,-440
2021-09-22 19:56:57.253332,-87
2021-09-22 19:56:57.253338,-29
2021-09-22 19:56:57.253344,-7
2021-09-22 19:56:57.253350,99
2021-09-22 19:56:57.253355,116
2021-09-22 19:56:57.253361,97
2021-09-22 19:56:57.567624,128
2021-09-22 19:56:57.567646,143
2021-09-22 19:56:57.567653,136
2021-09-22 19:56:57.567659,138
2021-09-22 19:56:57.567665,150
2021-09-22 19:56:57.567671,163
2021-09-22 19:56:57.567677,182
2021-09-22 19:56:57.567682,199
2021-09-22 19:56:57.567688,211
2021-09-22 19:56:57.567694,218
2021-09-22 19:56:57.567700,236
2021-09-22 19:56:57.567705,267
2021-09-22 19:56:57.567711,301
2021-09-22 19:56:57.567717,335
2021-09-22 19:56:57.567723,369
2021-09-22 19:56:57.567728,401
2021-09-22 19:56:57.567734,433
2021-09-22 19:56:57.567740,462
2021-09-22 19:56:57.567746,479
2021-09-22 19:56:57.567751,479
2021-09-22 19:56:57.567757,457
2021-09-22 19:56:57.567762,420
2021-09-22 19:56:57.567768,362
2021-09-22 19:56:57.567778,272
2021-09-22 19:56:57.567783,150
2021-09-22 19:56:57.567789,26
2021-09-22 19:56:57.567795,-82
2021-09-22 19:56:57.567801,-160
2021-09-22 19:56:57.567806,-211
2021-09-22 19:56:57.567812,-243
2021-09-22 19:56:57.748564,-260
2021-09-22 19:56:57.748584,-262
2021-09-22 19:56:57.748591,-270
2021-09-22 19:56:57.748597,-274
2021-09-22 19:56:57.748603,-260
2021-09-22 19:56:57.748609,-240
2021-09-22 19:56:57.748615,-228
2021-09-22 19:56:57.748621,-216
2021-09-22 19:56:57.748626,-209
2021-09-22 19:56:57.748632,-199
2021-09-22 19:56:57.748638,-182
2021-09-22 19:56:57.748644,-165
2021-09-22 19:56:57.748650,-153
2021-09-22 19:56:57.748655,-145
2021-09-22 19:56:57.748661,-150
2021-09-22 19:56:57.748667,-150
2021-09-22 19:56:57.748672,-133
2021-09-22 19:56:57.748678,-124
2021-09-22 19:56:57.748684,-121
2021-09-22 19:56:57.748690,-121
2021-09-22 19:56:57.748696,-126
2021-09-22 19:56:57.748701,-126
2021-09-22 19:56:57.748707,-119
2021-09-22 19:56:57.748713,-116
2021-09-22 19:56:57.748719,-124
2021-09-22 19:56:57.748724,-126
2021-09-22 19:56:57.748730,-128
2021-09-22 19:56:57.748736,-136
2021-09-22 19:56:57.748742,-131
2021-09-22 19:56:57.748747,-119
2021-09-22 19:56:58.018291,-116
2021-09-22 19:56:58.018312,-116
2021-09-22 19:56:58.018319,-116
2021-09-22 19:56:58.018325,-111
2021-09-22 19:56:58.018331,-109
2021-09-22 19:56:58.018337,-114
2021-09-22 19:56:58.018343,-109
2021-09-22 19:56:58.018349,-107
2021-09-22 19:56:58.018355,-111
2021-09-22 19:56:58.018361,-111
2021-09-22 19:56:58.018366,-102
2021-09-22 19:56:58.018374,-97
2021-09-22 19:56:58.018379,-92
2021-09-22 19:56:58.018385,-92
2021-09-22 19:56:58.018391,-94
2021-09-22 19:56:58.018397,-92
2021-09-22 19:56:58.018403,-85
2021-09-22 19:56:58.018409,-80
2021-09-22 19:56:58.018414,-75
2021-09-22 19:56:58.018420,-75
2021-09-22 19:56:58.018426,-75
2021-09-22 19:56:58.018432,-70
2021-09-22 19:56:58.018437,-65
2021-09-22 19:56:58.018443,-63
2021-09-22 19:56:58.018449,-58
2021-09-22 19:56:58.018455,-55
2021-09-22 19:56:58.018461,-53
2021-09-22 19:56:58.018466,-48
2021-09-22 19:56:58.018472,-43
2021-09-22 19:56:58.018478,-41
2021-09-22 19:56:58.242616,-53
2021-09-22 19:56:58.242636,-63
2021-09-22 19:56:58.242643,-53
2021-09-22 19:56:58.242649,-34
2021-09-22 19:56:58.242656,-14
2021-09-22 19:56:58.242662,-4
2021-09-22 19:56:58.242668,-14
2021-09-22 19:56:58.242674,-14
2021-09-22 19:56:58.242679,-7
2021-09-22 19:56:58.242686,-21
2021-09-22 19:56:58.242692,-41
2021-09-22 19:56:58.242697,-43
2021-09-22 19:56:58.242703,-43
2021-09-22 19:56:58.242709,-48
2021-09-22 19:56:58.242715,-51
2021-09-22 19:56:58.242721,-46
2021-09-22 19:56:58.242726,-43
2021-09-22 19:56:58.242732,-38
2021-09-22 19:56:58.242738,-41
2021-09-22 19:56:58.242744,-36
2021-09-22 19:56:58.242750,12
2021-09-22 19:56:58.242755,116
2021-09-22 19:56:58.242761,316
2021-09-22 19:56:58.242767,569
2021-09-22 19:56:58.242772,547
2021-09-22 19:56:58.242778,126
2021-09-22 19:56:58.242784,-389
2021-09-22 19:56:58.242790,-688
2021-09-22 19:56:58.242796,-510
2021-09-22 19:56:58.242801,-128
2021-09-22 19:56:58.468178,-29
2021-09-22 19:56:58.468198,-26
2021-09-22 19:56:58.468205,87
2021-09-22 19:56:58.468211,126
2021-09-22 19:56:58.468217,99
2021-09-22 19:56:58.468223,124
2021-09-22 19:56:58.468229,143
2021-09-22 19:56:58.468235,136
2021-09-22 19:56:58.468240,145
2021-09-22 19:56:58.468246,155
2021-09-22 19:56:58.468252,160
2021-09-22 19:56:58.468258,172
2021-09-22 19:56:58.468263,184
2021-09-22 19:56:58.468269,197
2021-09-22 19:56:58.468275,221
2021-09-22 19:56:58.468281,240
2021-09-22 19:56:58.468287,262
2021-09-22 19:56:58.468292,296
2021-09-22 19:56:58.468298,330
2021-09-22 19:56:58.468304,362
2021-09-22 19:56:58.468310,396
2021-09-22 19:56:58.468315,430
2021-09-22 19:56:58.468321,455
2021-09-22 19:56:58.468327,472
2021-09-22 19:56:58.468333,476
2021-09-22 19:56:58.468338,467
2021-09-22 19:56:58.468344,435
2021-09-22 19:56:58.468350,379
2021-09-22 19:56:58.468356,294
2021-09-22 19:56:58.468362,182
2021-09-22 19:56:58.736813,58
2021-09-22 19:56:58.736833,-41
2021-09-22 19:56:58.736840,-124
2021-09-22 19:56:58.736846,-189
2021-09-22 19:56:58.736852,-226
2021-09-22 19:56:58.736858,-250
2021-09-22 19:56:58.736864,-274
2021-09-22 19:56:58.736870,-277
2021-09-22 19:56:58.736876,-265
2021-09-22 19:56:58.736881,-262
2021-09-22 19:56:58.736887,-262
2021-09-22 19:56:58.736893,-262
2021-09-22 19:56:58.736899,-257
2021-09-22 19:56:58.736904,-240
2021-09-22 19:56:58.736910,-221
2021-09-22 19:56:58.736916,-206
2021-09-22 19:56:58.736922,-192
2021-09-22 19:56:58.736927,-184
2021-09-22 19:56:58.736933,-180
2021-09-22 19:56:58.736939,-167
2021-09-22 19:56:58.736945,-150
2021-09-22 19:56:58.736950,-145
2021-09-22 19:56:58.736956,-143
2021-09-22 19:56:58.736962,-138
2021-09-22 19:56:58.736968,-136
2021-09-22 19:56:58.736973,-133
2021-09-22 19:56:58.736979,-131
2021-09-22 19:56:58.736985,-128
2021-09-22 19:56:58.736990,-128
2021-09-22 19:56:58.736996,-128
2021-09-22 19:56:58.873182,-121
2021-09-22 19:56:58.873201,-119
2021-09-22 19:56:58.873208,-116
2021-09-22 19:56:58.873214,-114
2021-09-22 19:56:58.873220,-114
2021-09-22 19:56:58.873226,-116
2021-09-22 19:56:58.873232,-111
2021-09-22 19:56:58.873238,-99
2021-09-22 19:56:58.873244,-94
2021-09-22 19:56:58.873250,-99
2021-09-22 19:56:58.873256,-97
2021-09-22 19:56:58.873262,-90
2021-09-22 19:56:58.873268,-87
2021-09-22 19:56:58.873273,-92
2021-09-22 19:56:58.873279,-90
2021-09-22 19:56:58.873285,-85
2021-09-22 19:56:58.873291,-85
2021-09-22 19:56:58.873297,-87
2021-09-22 19:56:58.873303,-82
2021-09-22 19:56:58.873310,-75
2021-09-22 19:56:58.873316,-72
2021-09-22 19:56:58.873322,-72
2021-09-22 19:56:58.873328,-68
2021-09-22 19:56:58.873334,-65
2021-09-22 19:56:58.873339,-60
2021-09-22 19:56:58.873345,-58
2021-09-22 19:56:58.873351,-53
2021-09-22 19:56:58.873357,-48
2021-09-22 19:56:58.873363,-51
2021-09-22 19:56:58.873372,-51
2021-09-22 19:56:59.143250,-46
2021-09-22 19:56:59.143271,-38
2021-09-22 19:56:59.143279,-38
2021-09-22 19:56:59.143285,-41
2021-09-22 19:56:59.143291,-46
2021-09-22 19:56:59.143297,-46
2021-09-22 19:56:59.143303,-41
2021-09-22 19:56:59.143308,-31
2021-09-22 19:56:59.143314,-14
2021-09-22 19:56:59.143320,0
2021-09-22 19:56:59.143326,-7
2021-09-22 19:56:59.143332,-24
2021-09-22 19:56:59.143338,-21
2021-09-22 19:56:59.143344,-9
2021-09-22 19:56:59.143350,-26
2021-09-22 19:56:59.143355,-55
2021-09-22 19:56:59.143361,-68
2021-09-22 19:56:59.143367,-58
2021-09-22 19:56:59.143373,-51
2021-09-22 19:56:59.143378,-48
2021-09-22 19:56:59.143384,-48
2021-09-22 19:56:59.143390,-46
2021-09-22 19:56:59.143396,-43
2021-09-22 19:56:59.143402,-38
2021-09-22 19:56:59.143408,-17
2021-09-22 19:56:59.143413,41
2021-09-22 19:56:59.143419,158
2021-09-22 19:56:59.143425,382
2021-09-22 19:56:59.143431,610
2021-09-22 19:56:59.143437,506
2021-09-22 19:56:59.368240,31
2021-09-22 19:56:59.368262,-474
2021-09-22 19:56:59.368269,-686
2021-09-22 19:56:59.368275,-418
2021-09-22 19:56:59.368281,-75
2021-09-22 19:56:59.368287,-24
2021-09-22 19:56:59.368293,9
2021-09-22 19:56:59.368299,124
2021-09-22 19:56:59.368304,133
2021-09-22 19:56:59.368311,104
2021-09-22 19:56:59.368316,133
2021-09-22 19:56:59.368322,160
2021-09-22 19:56:59.368328,158
2021-09-22 19:56:59.368334,167
2021-09-22 19:56:59.368340,182
2021-09-22 19:56:59.368346,182
2021-09-22 19:56:59.368352,184
2021-09-22 19:56:59.368357,201
2021-09-22 19:56:59.368363,216
2021-09-22 19:56:59.368369,236
2021-09-22 19:56:59.368375,257
2021-09-22 19:56:59.368380,277
2021-09-22 19:56:59.368386,301
2021-09-22 19:56:59.368392,338
2021-09-22 19:56:59.368397,374
2021-09-22 19:56:59.368403,408
2021-09-22 19:56:59.368409,435
2021-09-22 19:56:59.368415,455
2021-09-22 19:56:59.368420,469
2021-09-22 19:56:59.368426,474
2021-09-22 19:56:59.593186,462
2021-09-22 19:56:59.593207,428
2021-09-22 19:56:59.593214,360
2021-09-22 19:56:59.593220,260
2021-09-22 19:56:59.593226,148
2021-09-22 19:56:59.593232,34
2021-09-22 19:56:59.593238,-68
2021-09-22 19:56:59.593243,-150
2021-09-22 19:56:59.593249,-218
2021-09-22 19:56:59.593255,-262
2021-09-22 19:56:59.593261,-277
2021-09-22 19:56:59.593267,-282
2021-09-22 19:56:59.593273,-284
2021-09-22 19:56:59.593278,-279
2021-09-22 19:56:59.593284,-274
2021-09-22 19:56:59.593290,-270
2021-09-22 19:56:59.593296,-255
2021-09-22 19:56:59.593302,-245
2021-09-22 19:56:59.593308,-233
2021-09-22 19:56:59.593313,-218
2021-09-22 19:56:59.593319,-206
2021-09-22 19:56:59.593325,-199
2021-09-22 19:56:59.593331,-182
2021-09-22 19:56:59.593336,-167
2021-09-22 19:56:59.593342,-158
2021-09-22 19:56:59.593348,-148
2021-09-22 19:56:59.593353,-143
2021-09-22 19:56:59.593359,-141
2021-09-22 19:56:59.593365,-133
2021-09-22 19:56:59.593371,-126
2021-09-22 19:56:59.818223,-126
2021-09-22 19:56:59.818244,-124
2021-09-22 19:56:59.818251,-124
2021-09-22 19:56:59.818257,-126
2021-09-22 19:56:59.818263,-124
2021-09-22 19:56:59.818269,-119
2021-09-22 19:56:59.818275,-116
2021-09-22 19:56:59.818281,-119
2021-09-22 19:56:59.818287,-121
2021-09-22 19:56:59.818292,-119
2021-09-22 19:56:59.818298,-109
2021-09-22 19:56:59.818304,-104
2021-09-22 19:56:59.818310,-99
2021-09-22 19:56:59.818316,-99
2021-09-22 19:56:59.818322,-104
2021-09-22 19:56:59.818327,-99
2021-09-22 19:56:59.818333,-92
2021-09-22 19:56:59.818339,-87
2021-09-22 19:56:59.818345,-82
2021-09-22 19:56:59.818350,-77
2021-09-22 19:56:59.818356,-82
2021-09-22 19:56:59.818362,-87
2021-09-22 19:56:59.818367,-82
2021-09-22 19:56:59.818373,-72
2021-09-22 19:56:59.818379,-68
2021-09-22 19:56:59.818384,-68
2021-09-22 19:56:59.818390,-63
2021-09-22 19:56:59.818396,-63
2021-09-22 19:56:59.818402,-60
2021-09-22 19:56:59.818407,-53
2021-09-22 19:57:00.043343,-51
2021-09-22 19:57:00.043364,-48
2021-09-22 19:57:00.043371,-46
2021-09-22 19:57:00.043377,-46
2021-09-22 19:57:00.043383,-41
2021-09-22 19:57:00.043389,-34
2021-09-22 19:57:00.043395,-34
2021-09-22 19:57:00.043401,-38
2021-09-22 19:57:00.043407,-38
2021-09-22 19:57:00.043412,-36
2021-09-22 19:57:00.043418,-34
2021-09-22 19:57:00.043424,-26
2021-09-22 19:57:00.043430,-12
2021-09-22 19:57:00.043436,0
2021-09-22 19:57:00.043442,2
2021-09-22 19:57:00.043448,-2
2021-09-22 19:57:00.043454,7
2021-09-22 19:57:00.043460,17
2021-09-22 19:57:00.043466,0
2021-09-22 19:57:00.043472,-24
2021-09-22 19:57:00.043478,-31
2021-09-22 19:57:00.043483,-31
2021-09-22 19:57:00.043489,-36
2021-09-22 19:57:00.043495,-38
2021-09-22 19:57:00.043501,-41
2021-09-22 19:57:00.043507,-41
2021-09-22 19:57:00.043512,-34
2021-09-22 19:57:00.043518,-29
2021-09-22 19:57:00.043524,-9
2021-09-22 19:57:00.043530,41
2021-09-22 19:57:00.268198,148
2021-09-22 19:57:00.268219,362
2021-09-22 19:57:00.268226,605
2021-09-22 19:57:00.268233,545
2021-09-22 19:57:00.268239,99
2021-09-22 19:57:00.268245,-430
2021-09-22 19:57:00.268250,-698
2021-09-22 19:57:00.268256,-459
2021-09-22 19:57:00.268262,-94
2021-09-22 19:57:00.268268,-29
2021-09-22 19:57:00.268274,-4
2021-09-22 19:57:00.268279,114
2021-09-22 19:57:00.268285,131
2021-09-22 19:57:00.268291,104
2021-09-22 19:57:00.268297,141
2021-09-22 19:57:00.268303,163
2021-09-22 19:57:00.268308,155
2021-09-22 19:57:00.268314,167
2021-09-22 19:57:00.268320,187
2021-09-22 19:57:00.268325,197
2021-09-22 19:57:00.268331,211
2021-09-22 19:57:00.268337,218
2021-09-22 19:57:00.268343,226
2021-09-22 19:57:00.268348,245
2021-09-22 19:57:00.268354,267
2021-09-22 19:57:00.268360,284
2021-09-22 19:57:00.268365,311
2021-09-22 19:57:00.268371,347
2021-09-22 19:57:00.268377,384
2021-09-22 19:57:00.268383,416
2021-09-22 19:57:00.493272,445
2021-09-22 19:57:00.493293,464
2021-09-22 19:57:00.493300,474
2021-09-22 19:57:00.493306,474
2021-09-22 19:57:00.493313,457
2021-09-22 19:57:00.493319,418
2021-09-22 19:57:00.493325,352
2021-09-22 19:57:00.493331,265
2021-09-22 19:57:00.493336,163
2021-09-22 19:57:00.493343,48
2021-09-22 19:57:00.493349,-53
2021-09-22 19:57:00.493355,-133
2021-09-22 19:57:00.493361,-197
2021-09-22 19:57:00.493366,-238
2021-09-22 19:57:00.493372,-262
2021-09-22 19:57:00.493378,-270
2021-09-22 19:57:00.493384,-270
2021-09-22 19:57:00.493390,-265
2021-09-22 19:57:00.493396,-257
2021-09-22 19:57:00.493402,-238
2021-09-22 19:57:00.493407,-221
2021-09-22 19:57:00.493413,-206
2021-09-22 19:57:00.493419,-192
2021-09-22 19:57:00.493425,-175
2021-09-22 19:57:00.493431,-165
2021-09-22 19:57:00.493436,-150
2021-09-22 19:57:00.493442,-136
2021-09-22 19:57:00.493448,-133
2021-09-22 19:57:00.493457,-138
2021-09-22 19:57:00.493463,-136
2021-09-22 19:57:00.761917,-126
2021-09-22 19:57:00.761938,-116
2021-09-22 19:57:00.761945,-111
2021-09-22 19:57:00.761951,-107
2021-09-22 19:57:00.761957,-111
2021-09-22 19:57:00.761963,-114
2021-09-22 19:57:00.761969,-109
2021-09-22 19:57:00.761975,-102
2021-09-22 19:57:00.761981,-99
2021-09-22 19:57:00.761986,-97
2021-09-22 19:57:00.761992,-99
2021-09-22 19:57:00.761998,-102
2021-09-22 19:57:00.762004,-94
2021-09-22 19:57:00.762010,-82
2021-09-22 19:57:00.762016,-82
2021-09-22 19:57:00.762021,-85
2021-09-22 19:57:00.762027,-80
2021-09-22 19:57:00.762033,-72
2021-09-22 19:57:00.762039,-70
2021-09-22 19:57:00.762044,-65
2021-09-22 19:57:00.762050,-63
2021-09-22 19:57:00.762056,-65
2021-09-22 19:57:00.762062,-60
2021-09-22 19:57:00.762067,-51
2021-09-22 19:57:00.762073,-46
2021-09-22 19:57:00.762079,-41
2021-09-22 19:57:00.762084,-34
2021-09-22 19:57:00.762090,-34
2021-09-22 19:57:00.762096,-31
2021-09-22 19:57:00.762102,-29
2021-09-22 19:57:01.032700,-26
2021-09-22 19:57:01.032721,-21
2021-09-22 19:57:01.032729,-14
2021-09-22 19:57:01.032735,-14
2021-09-22 19:57:01.032741,-19
2021-09-22 19:57:01.032747,-17
2021-09-22 19:57:01.032753,-9
2021-09-22 19:57:01.032759,-9
2021-09-22 19:57:01.032765,-4
2021-09-22 19:57:01.032771,0
2021-09-22 19:57:01.032777,9
2021-09-22 19:57:01.032783,24
2021-09-22 19:57:01.032789,21
2021-09-22 19:57:01.032795,21
2021-09-22 19:57:01.032800,31
2021-09-22 19:57:01.032806,19
2021-09-22 19:57:01.032812,-4
2021-09-22 19:57:01.032818,-9
2021-09-22 19:57:01.032824,-9
2021-09-22 19:57:01.032830,-12
2021-09-22 19:57:01.032836,-4
2021-09-22 19:57:01.032842,-7
2021-09-22 19:57:01.032848,-17
2021-09-22 19:57:01.032853,-17
2021-09-22 19:57:01.032859,-9
2021-09-22 19:57:01.032865,7
2021-09-22 19:57:01.032871,55
2021-09-22 19:57:01.032876,160
2021-09-22 19:57:01.032882,345
2021-09-22 19:57:01.032888,557
2021-09-22 19:57:01.257655,472
2021-09-22 19:57:01.257677,-7
2021-09-22 19:57:01.257684,-513
2021-09-22 19:57:01.257690,-727
2021-09-22 19:57:01.257696,-508
2021-09-22 19:57:01.257703,-145
2021-09-22 19:57:01.257709,-29
2021-09-22 19:57:01.257715,0
2021-09-22 19:57:01.257721,102
2021-09-22 19:57:01.257727,131
2021-09-22 19:57:01.257733,104
2021-09-22 19:57:01.257739,131
2021-09-22 19:57:01.257745,158
2021-09-22 19:57:01.257751,153
2021-09-22 19:57:01.257757,163
2021-09-22 19:57:01.257763,172
2021-09-22 19:57:01.257769,175
2021-09-22 19:57:01.257775,189
2021-09-22 19:57:01.257780,211
2021-09-22 19:57:01.257787,223
2021-09-22 19:57:01.257792,238
2021-09-22 19:57:01.257798,257
2021-09-22 19:57:01.257804,277
2021-09-22 19:57:01.257810,301
2021-09-22 19:57:01.257816,330
2021-09-22 19:57:01.257822,367
2021-09-22 19:57:01.257827,401
2021-09-22 19:57:01.257834,425
2021-09-22 19:57:01.257840,445
2021-09-22 19:57:01.257846,464
2021-09-22 19:57:01.438210,469
2021-09-22 19:57:01.438230,455
2021-09-22 19:57:01.438237,420
2021-09-22 19:57:01.438243,357
2021-09-22 19:57:01.438249,265
2021-09-22 19:57:01.438255,158
2021-09-22 19:57:01.438261,43
2021-09-22 19:57:01.438267,-65
2021-09-22 19:57:01.438273,-150
2021-09-22 19:57:01.438279,-216
2021-09-22 19:57:01.438285,-255
2021-09-22 19:57:01.438291,-267
2021-09-22 19:57:01.438297,-272
2021-09-22 19:57:01.438302,-270
2021-09-22 19:57:01.438308,-272
2021-09-22 19:57:01.438314,-270
2021-09-22 19:57:01.438320,-253
2021-09-22 19:57:01.438326,-236
2021-09-22 19:57:01.438332,-226
2021-09-22 19:57:01.438338,-209
2021-09-22 19:57:01.438344,-192
2021-09-22 19:57:01.438349,-184
2021-09-22 19:57:01.438355,-172
2021-09-22 19:57:01.438361,-155
2021-09-22 19:57:01.438367,-143
2021-09-22 19:57:01.438373,-133
2021-09-22 19:57:01.438379,-126
2021-09-22 19:57:01.438385,-121
2021-09-22 19:57:01.438391,-114
2021-09-22 19:57:01.438396,-111
2021-09-22 19:57:01.708300,-109
2021-09-22 19:57:01.708321,-107
2021-09-22 19:57:01.708328,-107
2021-09-22 19:57:01.708334,-107
2021-09-22 19:57:01.708341,-104
2021-09-22 19:57:01.708346,-104
2021-09-22 19:57:01.708352,-109
2021-09-22 19:57:01.708358,-109
2021-09-22 19:57:01.708364,-114
2021-09-22 19:57:01.708371,-119
2021-09-22 19:57:01.708377,-121
2021-09-22 19:57:01.708383,-121
2021-09-22 19:57:01.708389,-114
2021-09-22 19:57:01.708395,-109
2021-09-22 19:57:01.708401,-116
2021-09-22 19:57:01.708407,-114
2021-09-22 19:57:01.708413,-97
2021-09-22 19:57:01.708418,-90
2021-09-22 19:57:01.708424,-92
2021-09-22 19:57:01.708430,-90
2021-09-22 19:57:01.708436,-85
2021-09-22 19:57:01.708442,-82
2021-09-22 19:57:01.708448,-77
2021-09-22 19:57:01.708454,-72
2021-09-22 19:57:01.708460,-68
2021-09-22 19:57:01.708466,-65
2021-09-22 19:57:01.708472,-65
2021-09-22 19:57:01.708477,-65
2021-09-22 19:57:01.708483,-63
2021-09-22 19:57:01.708489,-55
2021-09-22 19:57:01.888240,-51
2021-09-22 19:57:01.888259,-48
2021-09-22 19:57:01.888267,-48
2021-09-22 19:57:01.888273,-53
2021-09-22 19:57:01.888279,-43
2021-09-22 19:57:01.888285,-31
2021-09-22 19:57:01.888291,-34
2021-09-22 19:57:01.888297,-43
2021-09-22 19:57:01.888303,-41
2021-09-22 19:57:01.888309,-21
2021-09-22 19:57:01.888315,0
2021-09-22 19:57:01.888321,7
2021-09-22 19:57:01.888327,0
2021-09-22 19:57:01.888333,2
2021-09-22 19:57:01.888338,7
2021-09-22 19:57:01.888344,-7
2021-09-22 19:57:01.888350,-21
2021-09-22 19:57:01.888356,-29
2021-09-22 19:57:01.888362,-38
2021-09-22 19:57:01.888368,-41
2021-09-22 19:57:01.888374,-36
2021-09-22 19:57:01.888380,-36
2021-09-22 19:57:01.888386,-34
2021-09-22 19:57:01.888392,-26
2021-09-22 19:57:01.888398,-21
2021-09-22 19:57:01.888403,0
2021-09-22 19:57:01.888409,63
2021-09-22 19:57:01.888415,199
2021-09-22 19:57:01.888421,440
2021-09-22 19:57:01.888427,618
2021-09-22 19:57:02.158144,384
2021-09-22 19:57:02.158163,-160
2021-09-22 19:57:02.158171,-603
2021-09-22 19:57:02.158177,-693
2021-09-22 19:57:02.158183,-369
2021-09-22 19:57:02.158189,-53
2021-09-22 19:57:02.158194,-21
2021-09-22 19:57:02.158201,21
2021-09-22 19:57:02.158207,124
2021-09-22 19:57:02.158212,124
2021-09-22 19:57:02.158219,104
2021-09-22 19:57:02.158225,136
2021-09-22 19:57:02.158230,150
2021-09-22 19:57:02.158236,145
2021-09-22 19:57:02.158242,155
2021-09-22 19:57:02.158248,165
2021-09-22 19:57:02.158253,165
2021-09-22 19:57:02.158259,177
2021-09-22 19:57:02.158265,197
2021-09-22 19:57:02.158271,209
2021-09-22 19:57:02.158277,228
2021-09-22 19:57:02.158283,257
2021-09-22 19:57:02.158289,284
2021-09-22 19:57:02.158294,309
2021-09-22 19:57:02.158300,338
2021-09-22 19:57:02.158306,372
2021-09-22 19:57:02.158312,406
2021-09-22 19:57:02.158318,435
2021-09-22 19:57:02.158323,457
2021-09-22 19:57:02.158329,464
2021-09-22 19:57:02.338234,459
2021-09-22 19:57:02.338255,442
2021-09-22 19:57:02.338262,403
2021-09-22 19:57:02.338268,340
2021-09-22 19:57:02.338275,253
2021-09-22 19:57:02.338281,138
2021-09-22 19:57:02.338287,17
2021-09-22 19:57:02.338293,-80
2021-09-22 19:57:02.338299,-155
2021-09-22 19:57:02.338305,-218
2021-09-22 19:57:02.338311,-257
2021-09-22 19:57:02.338317,-279
2021-09-22 19:57:02.338323,-294
2021-09-22 19:57:02.338328,-294
2021-09-22 19:57:02.338334,-284
2021-09-22 19:57:02.338340,-279
2021-09-22 19:57:02.338346,-267
2021-09-22 19:57:02.338352,-255
2021-09-22 19:57:02.338358,-243
2021-09-22 19:57:02.338364,-228
2021-09-22 19:57:02.338370,-211
2021-09-22 19:57:02.338376,-199
2021-09-22 19:57:02.338381,-182
2021-09-22 19:57:02.338391,-170
2021-09-22 19:57:02.338397,-163
2021-09-22 19:57:02.338403,-150
2021-09-22 19:57:02.338408,-141
2021-09-22 19:57:02.338414,-136
2021-09-22 19:57:02.338420,-131
2021-09-22 19:57:02.338426,-124
2021-09-22 19:57:02.563314,-124
2021-09-22 19:57:02.563336,-121
2021-09-22 19:57:02.563343,-119
2021-09-22 19:57:02.563350,-119
2021-09-22 19:57:02.563356,-116
2021-09-22 19:57:02.563362,-121
2021-09-22 19:57:02.563368,-126
2021-09-22 19:57:02.563373,-116
2021-09-22 19:57:02.563380,-111
2021-09-22 19:57:02.563386,-114
2021-09-22 19:57:02.563391,-111
2021-09-22 19:57:02.563397,-109
2021-09-22 19:57:02.563403,-104
2021-09-22 19:57:02.563409,-102
2021-09-22 19:57:02.563415,-107
2021-09-22 19:57:02.563421,-107
2021-09-22 19:57:02.563427,-99
2021-09-22 19:57:02.563433,-92
2021-09-22 19:57:02.563439,-85
2021-09-22 19:57:02.563445,-77
2021-09-22 19:57:02.563450,-75
2021-09-22 19:57:02.563456,-80
2021-09-22 19:57:02.563462,-90
2021-09-22 19:57:02.563468,-87
2021-09-22 19:57:02.563474,-77
2021-09-22 19:57:02.563479,-75
2021-09-22 19:57:02.563485,-72
2021-09-22 19:57:02.563491,-68
2021-09-22 19:57:02.563497,-68
2021-09-22 19:57:02.563503,-65
2021-09-22 19:57:02.832515,-58
2021-09-22 19:57:02.832535,-55
2021-09-22 19:57:02.832542,-53
2021-09-22 19:57:02.832548,-53
2021-09-22 19:57:02.832554,-55
2021-09-22 19:57:02.832560,-55
2021-09-22 19:57:02.832566,-48
2021-09-22 19:57:02.832572,-46
2021-09-22 19:57:02.832578,-43
2021-09-22 19:57:02.832584,-31
2021-09-22 19:57:02.832590,-14
2021-09-22 19:57:02.832596,-12
2021-09-22 19:57:02.832602,-14
2021-09-22 19:57:02.832608,-2
2021-09-22 19:57:02.832614,4
2021-09-22 19:57:02.832620,-14
2021-09-22 19:57:02.832626,-43
2021-09-22 19:57:02.832632,-51
2021-09-22 19:57:02.832637,-43
2021-09-22 19:57:02.832643,-38
2021-09-22 19:57:02.832649,-36
2021-09-22 19:57:02.832655,-36
2021-09-22 19:57:02.832661,-38
2021-09-22 19:57:02.832667,-36
2021-09-22 19:57:02.832673,-29
2021-09-22 19:57:02.832679,-4
2021-09-22 19:57:02.832684,60
2021-09-22 19:57:02.832690,199
2021-09-22 19:57:02.832696,445
2021-09-22 19:57:02.832702,632
2021-09-22 19:57:03.013400,416
2021-09-22 19:57:03.013422,-133
2021-09-22 19:57:03.013429,-613
2021-09-22 19:57:03.013435,-688
2021-09-22 19:57:03.013442,-343
2021-09-22 19:57:03.013448,-58
2021-09-22 19:57:03.013454,-31
2021-09-22 19:57:03.013460,36
2021-09-22 19:57:03.013466,133
2021-09-22 19:57:03.013472,116
2021-09-22 19:57:03.013477,102
2021-09-22 19:57:03.013483,141
2021-09-22 19:57:03.013489,153
2021-09-22 19:57:03.013495,153
2021-09-22 19:57:03.013501,172
2021-09-22 19:57:03.013507,177
2021-09-22 19:57:03.013513,180
2021-09-22 19:57:03.013519,194
2021-09-22 19:57:03.013525,209
2021-09-22 19:57:03.013530,223
2021-09-22 19:57:03.013536,245
2021-09-22 19:57:03.013542,265
2021-09-22 19:57:03.013548,284
2021-09-22 19:57:03.013554,323
2021-09-22 19:57:03.013559,362
2021-09-22 19:57:03.013565,394
2021-09-22 19:57:03.013571,430
2021-09-22 19:57:03.013577,457
2021-09-22 19:57:03.013584,467
2021-09-22 19:57:03.013591,476
2021-09-22 19:57:03.283316,479
2021-09-22 19:57:03.283339,459
2021-09-22 19:57:03.283346,418
2021-09-22 19:57:03.283352,340
2021-09-22 19:57:03.283358,233
2021-09-22 19:57:03.283364,124
2021-09-22 19:57:03.283371,17
2021-09-22 19:57:03.283377,-82
2021-09-22 19:57:03.283383,-165
2021-09-22 19:57:03.283389,-231
2021-09-22 19:57:03.283395,-262
2021-09-22 19:57:03.283401,-270
2021-09-22 19:57:03.283407,-277
2021-09-22 19:57:03.283413,-284
2021-09-22 19:57:03.283418,-282
2021-09-22 19:57:03.283424,-277
2021-09-22 19:57:03.283430,-265
2021-09-22 19:57:03.283436,-248
2021-09-22 19:57:03.283442,-231
2021-09-22 19:57:03.283448,-221
2021-09-22 19:57:03.283454,-216
2021-09-22 19:57:03.283459,-204
2021-09-22 19:57:03.283465,-189
2021-09-22 19:57:03.283471,-177
2021-09-22 19:57:03.283477,-163
2021-09-22 19:57:03.283482,-150
2021-09-22 19:57:03.283488,-150
2021-09-22 19:57:03.283494,-150
2021-09-22 19:57:03.283499,-141
2021-09-22 19:57:03.283505,-131
2021-09-22 19:57:03.508259,-131
2021-09-22 19:57:03.508279,-126
2021-09-22 19:57:03.508286,-126
2021-09-22 19:57:03.508293,-128
2021-09-22 19:57:03.508299,-126
2021-09-22 19:57:03.508305,-121
2021-09-22 19:57:03.508311,-119
2021-09-22 19:57:03.508317,-121
2021-09-22 19:57:03.508323,-126
2021-09-22 19:57:03.508329,-128
2021-09-22 19:57:03.508335,-116
2021-09-22 19:57:03.508341,-109
2021-09-22 19:57:03.508346,-107
2021-09-22 19:57:03.508352,-102
2021-09-22 19:57:03.508358,-107
2021-09-22 19:57:03.508364,-107
2021-09-22 19:57:03.508370,-99
2021-09-22 19:57:03.508376,-87
2021-09-22 19:57:03.508381,-85
2021-09-22 19:57:03.508387,-80
2021-09-22 19:57:03.508393,-77
2021-09-22 19:57:03.508399,-77
2021-09-22 19:57:03.508405,-82
2021-09-22 19:57:03.508411,-82
2021-09-22 19:57:03.508417,-72
2021-09-22 19:57:03.508423,-68
2021-09-22 19:57:03.508429,-70
2021-09-22 19:57:03.508435,-68
2021-09-22 19:57:03.508441,-60
2021-09-22 19:57:03.508446,-53
2021-09-22 19:57:03.733327,-51
2021-09-22 19:57:03.733348,-51
2021-09-22 19:57:03.733356,-55
2021-09-22 19:57:03.733362,-65
2021-09-22 19:57:03.733368,-63
2021-09-22 19:57:03.733374,-53
2021-09-22 19:57:03.733380,-46
2021-09-22 19:57:03.733386,-38
2021-09-22 19:57:03.733392,-24
2021-09-22 19:57:03.733398,-19
2021-09-22 19:57:03.733404,-19
2021-09-22 19:57:03.733410,-7
2021-09-22 19:57:03.733416,-9
2021-09-22 19:57:03.733422,-34
2021-09-22 19:57:03.733428,-53
2021-09-22 19:57:03.733434,-55
2021-09-22 19:57:03.733440,-55
2021-09-22 19:57:03.733446,-51
2021-09-22 19:57:03.733452,-46
2021-09-22 19:57:03.733458,-48
2021-09-22 19:57:03.733464,-48
2021-09-22 19:57:03.733470,-41
2021-09-22 19:57:03.733475,-34
2021-09-22 19:57:03.733481,-7
2021-09-22 19:57:03.733487,68
2021-09-22 19:57:03.733493,226
2021-09-22 19:57:03.733499,489
2021-09-22 19:57:03.733504,622
2021-09-22 19:57:03.733510,321
2021-09-22 19:57:03.733516,-250
2021-09-22 19:57:04.002789,-681
2021-09-22 19:57:04.002816,-652
2021-09-22 19:57:04.002825,-262
2021-09-22 19:57:04.002831,-41
2021-09-22 19:57:04.002837,-34
2021-09-22 19:57:04.002843,55
2021-09-22 19:57:04.002850,131
2021-09-22 19:57:04.002856,104
2021-09-22 19:57:04.002862,107
2021-09-22 19:57:04.002867,145
2021-09-22 19:57:04.002873,150
2021-09-22 19:57:04.002879,155
2021-09-22 19:57:04.002885,167
2021-09-22 19:57:04.002891,172
2021-09-22 19:57:04.002897,184
2021-09-22 19:57:04.002903,201
2021-09-22 19:57:04.002909,218
2021-09-22 19:57:04.002914,238
2021-09-22 19:57:04.002920,257
2021-09-22 19:57:04.002926,279
2021-09-22 19:57:04.002932,309
2021-09-22 19:57:04.002938,338
2021-09-22 19:57:04.002944,374
2021-09-22 19:57:04.002950,411
2021-09-22 19:57:04.002956,442
2021-09-22 19:57:04.002962,467
2021-09-22 19:57:04.002967,484
2021-09-22 19:57:04.002973,486
2021-09-22 19:57:04.002979,481
2021-09-22 19:57:04.002985,462
2021-09-22 19:57:04.273322,416
2021-09-22 19:57:04.273343,338
2021-09-22 19:57:04.273350,231
2021-09-22 19:57:04.273356,109
2021-09-22 19:57:04.273362,-2
2021-09-22 19:57:04.273369,-94
2021-09-22 19:57:04.273374,-175
2021-09-22 19:57:04.273380,-233
2021-09-22 19:57:04.273386,-265
2021-09-22 19:57:04.273392,-287
2021-09-22 19:57:04.273398,-296
2021-09-22 19:57:04.273404,-291
2021-09-22 19:57:04.273410,-289
2021-09-22 19:57:04.273416,-282
2021-09-22 19:57:04.273422,-260
2021-09-22 19:57:04.273428,-243
2021-09-22 19:57:04.273434,-231
2021-09-22 19:57:04.273440,-218
2021-09-22 19:57:04.273446,-209
2021-09-22 19:57:04.273452,-194
2021-09-22 19:57:04.273458,-182
2021-09-22 19:57:04.273464,-177
2021-09-22 19:57:04.273469,-163
2021-09-22 19:57:04.273475,-155
2021-09-22 19:57:04.273481,-150
2021-09-22 19:57:04.273487,-141
2021-09-22 19:57:04.273493,-136
2021-09-22 19:57:04.273499,-138
2021-09-22 19:57:04.273505,-141
2021-09-22 19:57:04.273511,-138
2021-09-22 19:57:04.408251,-136
2021-09-22 19:57:04.408272,-133
2021-09-22 19:57:04.408279,-133
2021-09-22 19:57:04.408285,-133
2021-09-22 19:57:04.408291,-131
2021-09-22 19:57:04.408297,-131
2021-09-22 19:57:04.408303,-128
2021-09-22 19:57:04.408309,-126
2021-09-22 19:57:04.408315,-121
2021-09-22 19:57:04.408321,-116
2021-09-22 19:57:04.408327,-111
2021-09-22 19:57:04.408332,-116
2021-09-22 19:57:04.408338,-116
2021-09-22 19:57:04.408344,-104
2021-09-22 19:57:04.408350,-97
2021-09-22 19:57:04.408356,-99
2021-09-22 19:57:04.408362,-94
2021-09-22 19:57:04.408372,-87
2021-09-22 19:57:04.408378,-85
2021-09-22 19:57:04.408384,-77
2021-09-22 19:57:04.408390,-72
2021-09-22 19:57:04.408396,-72
2021-09-22 19:57:04.408401,-75
2021-09-22 19:57:04.408408,-75
2021-09-22 19:57:04.408413,-70
2021-09-22 19:57:04.408419,-63
2021-09-22 19:57:04.408425,-60
2021-09-22 19:57:04.408431,-60
2021-09-22 19:57:04.408437,-55
2021-09-22 19:57:04.408443,-55
2021-09-22 19:57:04.722654,-58
2021-09-22 19:57:04.722675,-55
2021-09-22 19:57:04.722683,-51
2021-09-22 19:57:04.722689,-51
2021-09-22 19:57:04.722695,-51
2021-09-22 19:57:04.722701,-51
2021-09-22 19:57:04.722707,-53
2021-09-22 19:57:04.722713,-38
2021-09-22 19:57:04.722719,-17
2021-09-22 19:57:04.722725,-2
2021-09-22 19:57:04.722731,-9
2021-09-22 19:57:04.722737,-17
2021-09-22 19:57:04.722743,-2
2021-09-22 19:57:04.722749,-2
2021-09-22 19:57:04.722755,-29
2021-09-22 19:57:04.722761,-53
2021-09-22 19:57:04.722766,-60
2021-09-22 19:57:04.722772,-60
2021-09-22 19:57:04.722778,-51
2021-09-22 19:57:04.722784,-46
2021-09-22 19:57:04.722790,-48
2021-09-22 19:57:04.722796,-46
2021-09-22 19:57:04.722802,-41
2021-09-22 19:57:04.722808,-34
2021-09-22 19:57:04.722814,-2
2021-09-22 19:57:04.722820,82
2021-09-22 19:57:04.722826,248
2021-09-22 19:57:04.722832,508
2021-09-22 19:57:04.722838,620
2021-09-22 19:57:04.722844,299
2021-09-22 19:57:04.947463,-262
2021-09-22 19:57:04.947482,-674
2021-09-22 19:57:04.947489,-627
2021-09-22 19:57:04.947496,-250
2021-09-22 19:57:04.947501,-55
2021-09-22 19:57:04.947507,-46
2021-09-22 19:57:04.947513,53
2021-09-22 19:57:04.947520,126
2021-09-22 19:57:04.947526,99
2021-09-22 19:57:04.947531,109
2021-09-22 19:57:04.947537,148
2021-09-22 19:57:04.947543,150
2021-09-22 19:57:04.947549,155
2021-09-22 19:57:04.947555,177
2021-09-22 19:57:04.947561,184
2021-09-22 19:57:04.947566,184
2021-09-22 19:57:04.947572,194
2021-09-22 19:57:04.947578,214
2021-09-22 19:57:04.947584,236
2021-09-22 19:57:04.947590,255
2021-09-22 19:57:04.947595,279
2021-09-22 19:57:04.947601,304
2021-09-22 19:57:04.947607,330
2021-09-22 19:57:04.947613,367
2021-09-22 19:57:04.947618,403
2021-09-22 19:57:04.947624,437
2021-09-22 19:57:04.947630,464
2021-09-22 19:57:04.947636,481
2021-09-22 19:57:04.947642,489
2021-09-22 19:57:04.947648,484
2021-09-22 19:57:05.128351,462
2021-09-22 19:57:05.128372,416
2021-09-22 19:57:05.128380,343
2021-09-22 19:57:05.128386,233
2021-09-22 19:57:05.128392,102
2021-09-22 19:57:05.128399,-12
2021-09-22 19:57:05.128405,-99
2021-09-22 19:57:05.128411,-167
2021-09-22 19:57:05.128417,-223
2021-09-22 19:57:05.128423,-262
2021-09-22 19:57:05.128429,-277
2021-09-22 19:57:05.128435,-274
2021-09-22 19:57:05.128441,-270
2021-09-22 19:57:05.128447,-262
2021-09-22 19:57:05.128453,-262
2021-09-22 19:57:05.128459,-262
2021-09-22 19:57:05.128465,-248
2021-09-22 19:57:05.128471,-231
2021-09-22 19:57:05.128477,-216
2021-09-22 19:57:05.128482,-204
2021-09-22 19:57:05.128488,-201
2021-09-22 19:57:05.128494,-204
2021-09-22 19:57:05.128500,-187
2021-09-22 19:57:05.128506,-172
2021-09-22 19:57:05.128512,-165
2021-09-22 19:57:05.128518,-153
2021-09-22 19:57:05.128524,-148
2021-09-22 19:57:05.128530,-150
2021-09-22 19:57:05.128535,-143
2021-09-22 19:57:05.128541,-133
2021-09-22 19:57:05.398265,-131
2021-09-22 19:57:05.398285,-131
2021-09-22 19:57:05.398292,-133
2021-09-22 19:57:05.398298,-133
2021-09-22 19:57:05.398304,-128
2021-09-22 19:57:05.398310,-124
2021-09-22 19:57:05.398316,-126
2021-09-22 19:57:05.398322,-128
2021-09-22 19:57:05.398328,-128
2021-09-22 19:57:05.398334,-131
2021-09-22 19:57:05.398340,-126
2021-09-22 19:57:05.398346,-114
2021-09-22 19:57:05.398351,-107
2021-09-22 19:57:05.398357,-104
2021-09-22 19:57:05.398363,-109
2021-09-22 19:57:05.398369,-109
2021-09-22 19:57:05.398375,-99
2021-09-22 19:57:05.398381,-90
2021-09-22 19:57:05.398387,-90
2021-09-22 19:57:05.398392,-87
2021-09-22 19:57:05.398398,-87
2021-09-22 19:57:05.398404,-82
2021-09-22 19:57:05.398410,-72
2021-09-22 19:57:05.398416,-68
2021-09-22 19:57:05.398422,-65
2021-09-22 19:57:05.398427,-63
2021-09-22 19:57:05.398433,-60
2021-09-22 19:57:05.398439,-60
2021-09-22 19:57:05.398445,-55
2021-09-22 19:57:05.398451,-48
2021-09-22 19:57:05.578243,-46
2021-09-22 19:57:05.578261,-43
2021-09-22 19:57:05.578269,-46
2021-09-22 19:57:05.578275,-43
2021-09-22 19:57:05.578281,-41
2021-09-22 19:57:05.578287,-31
2021-09-22 19:57:05.578293,-29
2021-09-22 19:57:05.578299,-31
2021-09-22 19:57:05.578305,-26
2021-09-22 19:57:05.578311,-14
2021-09-22 19:57:05.578317,4
2021-09-22 19:57:05.578323,9
2021-09-22 19:57:05.578329,0
2021-09-22 19:57:05.578334,4
2021-09-22 19:57:05.578340,2
2021-09-22 19:57:05.578346,-19
2021-09-22 19:57:05.578352,-26
2021-09-22 19:57:05.578358,-31
2021-09-22 19:57:05.578364,-36
2021-09-22 19:57:05.578370,-36
2021-09-22 19:57:05.578376,-38
2021-09-22 19:57:05.578381,-41
2021-09-22 19:57:05.578387,-36
2021-09-22 19:57:05.578393,-29
2021-09-22 19:57:05.578399,-24
2021-09-22 19:57:05.578405,-4
2021-09-22 19:57:05.578411,60
2021-09-22 19:57:05.578416,206
2021-09-22 19:57:05.578422,462
2021-09-22 19:57:05.578428,627
2021-09-22 19:57:05.937638,372
2021-09-22 19:57:05.937658,-192
2021-09-22 19:57:05.937666,-654
2021-09-22 19:57:05.937672,-676
2021-09-22 19:57:05.937678,-294
2021-09-22 19:57:05.937684,-38
2021-09-22 19:57:05.937690,-38
2021-09-22 19:57:05.937696,26
2021-09-22 19:57:05.937701,119
2021-09-22 19:57:05.937707,107
2021-09-22 19:57:05.937713,99
2021-09-22 19:57:05.937719,133
2021-09-22 19:57:05.937725,141
2021-09-22 19:57:05.937730,136
2021-09-22 19:57:05.937736,153
2021-09-22 19:57:05.937742,170
2021-09-22 19:57:05.937748,180
2021-09-22 19:57:05.937754,194
2021-09-22 19:57:05.937760,211
2021-09-22 19:57:05.937766,226
2021-09-22 19:57:05.937771,243
2021-09-22 19:57:05.937777,270
2021-09-22 19:57:05.937783,296
2021-09-22 19:57:05.937789,330
2021-09-22 19:57:05.937795,367
2021-09-22 19:57:05.937801,401
2021-09-22 19:57:05.937806,435
2021-09-22 19:57:05.937812,464
2021-09-22 19:57:05.937818,486
2021-09-22 19:57:05.937824,498
2021-09-22 19:57:06.072759,493
2021-09-22 19:57:06.072781,469
2021-09-22 19:57:06.072788,425
2021-09-22 19:57:06.072794,350
2021-09-22 19:57:06.072801,243
2021-09-22 19:57:06.072807,124
2021-09-22 19:57:06.072813,9
2021-09-22 19:57:06.072819,-90
2021-09-22 19:57:06.072825,-160
2021-09-22 19:57:06.072831,-214
2021-09-22 19:57:06.072837,-245
2021-09-22 19:57:06.072843,-260
2021-09-22 19:57:06.072849,-270
2021-09-22 19:57:06.072855,-277
2021-09-22 19:57:06.072861,-277
2021-09-22 19:57:06.072866,-267
2021-09-22 19:57:06.072872,-255
2021-09-22 19:57:06.072878,-245
2021-09-22 19:57:06.072884,-238
2021-09-22 19:57:06.072889,-223
2021-09-22 19:57:06.072895,-206
2021-09-22 19:57:06.072901,-194
2021-09-22 19:57:06.072907,-180
2021-09-22 19:57:06.072912,-167
2021-09-22 19:57:06.072918,-163
2021-09-22 19:57:06.072924,-148
2021-09-22 19:57:06.072930,-136
2021-09-22 19:57:06.072936,-136
2021-09-22 19:57:06.072942,-133
2021-09-22 19:57:06.072947,-126
2021-09-22 19:57:06.253372,-126
2021-09-22 19:57:06.253392,-126
2021-09-22 19:57:06.253399,-128
2021-09-22 19:57:06.253406,-141
2021-09-22 19:57:06.253412,-143
2021-09-22 19:57:06.253417,-138
2021-09-22 19:57:06.253423,-143
2021-09-22 19:57:06.253429,-141
2021-09-22 19:57:06.253435,-131
2021-09-22 19:57:06.253441,-126
2021-09-22 19:57:06.253447,-124
2021-09-22 19:57:06.253453,-126
2021-09-22 19:57:06.253459,-126
2021-09-22 19:57:06.253465,-116
2021-09-22 19:57:06.253470,-111
2021-09-22 19:57:06.253476,-114
2021-09-22 19:57:06.253482,-111
2021-09-22 19:57:06.253488,-107
2021-09-22 19:57:06.253494,-104
2021-09-22 19:57:06.253499,-97
2021-09-22 19:57:06.253505,-90
2021-09-22 19:57:06.253511,-87
2021-09-22 19:57:06.253517,-82
2021-09-22 19:57:06.253523,-80
2021-09-22 19:57:06.253529,-77
2021-09-22 19:57:06.253534,-72
2021-09-22 19:57:06.253540,-68
2021-09-22 19:57:06.253546,-65
2021-09-22 19:57:06.253552,-60
2021-09-22 19:57:06.253557,-55
2021-09-22 19:57:06.478360,-53
2021-09-22 19:57:06.478381,-48
2021-09-22 19:57:06.478388,-46
2021-09-22 19:57:06.478395,-46
2021-09-22 19:57:06.478401,-46
2021-09-22 19:57:06.478407,-46
2021-09-22 19:57:06.478412,-41
2021-09-22 19:57:06.478418,-38
2021-09-22 19:57:06.478424,-41
2021-09-22 19:57:06.478430,-34
2021-09-22 19:57:06.478436,-14
2021-09-22 19:57:06.478442,-2
2021-09-22 19:57:06.478448,-2
2021-09-22 19:57:06.478454,-4
2021-09-22 19:57:06.478460,4
2021-09-22 19:57:06.478466,7
2021-09-22 19:57:06.478472,-12
2021-09-22 19:57:06.478478,-34
2021-09-22 19:57:06.478484,-38
2021-09-22 19:57:06.478489,-34
2021-09-22 19:57:06.478495,-31
2021-09-22 19:57:06.478501,-36
2021-09-22 19:57:06.478507,-34
2021-09-22 19:57:06.478513,-29
2021-09-22 19:57:06.478519,-29
2021-09-22 19:57:06.478524,-21
2021-09-22 19:57:06.478530,12
2021-09-22 19:57:06.478536,87
2021-09-22 19:57:06.478542,238
2021-09-22 19:57:06.478548,498
2021-09-22 19:57:06.703341,647
2021-09-22 19:57:06.703362,367
2021-09-22 19:57:06.703369,-197
2021-09-22 19:57:06.703375,-647
2021-09-22 19:57:06.703382,-644
2021-09-22 19:57:06.703388,-255
2021-09-22 19:57:06.703394,-24
2021-09-22 19:57:06.703400,-26
2021-09-22 19:57:06.703406,48
2021-09-22 19:57:06.703412,126
2021-09-22 19:57:06.703418,107
2021-09-22 19:57:06.703424,114
2021-09-22 19:57:06.703430,150
2021-09-22 19:57:06.703436,153
2021-09-22 19:57:06.703445,155
2021-09-22 19:57:06.703451,175
2021-09-22 19:57:06.703457,180
2021-09-22 19:57:06.703463,189
2021-09-22 19:57:06.703469,211
2021-09-22 19:57:06.703475,226
2021-09-22 19:57:06.703481,238
2021-09-22 19:57:06.703487,260
2021-09-22 19:57:06.703492,284
2021-09-22 19:57:06.703498,309
2021-09-22 19:57:06.703504,338
2021-09-22 19:57:06.703510,382
2021-09-22 19:57:06.703516,420
2021-09-22 19:57:06.703522,452
2021-09-22 19:57:06.703528,481
2021-09-22 19:57:06.703534,506
2021-09-22 19:57:07.017115,515
2021-09-22 19:57:07.017136,510
2021-09-22 19:57:07.017143,484
2021-09-22 19:57:07.017150,418
2021-09-22 19:57:07.017156,328
2021-09-22 19:57:07.017162,236
2021-09-22 19:57:07.017168,131
2021-09-22 19:57:07.017174,17
2021-09-22 19:57:07.017181,-82
2021-09-22 19:57:07.017187,-163
2021-09-22 19:57:07.017193,-216
2021-09-22 19:57:07.017199,-240
2021-09-22 19:57:07.017205,-250
2021-09-22 19:57:07.017211,-257
2021-09-22 19:57:07.017217,-265
2021-09-22 19:57:07.017223,-267
2021-09-22 19:57:07.017230,-267
2021-09-22 19:57:07.017236,-253
2021-09-22 19:57:07.017242,-226
2021-09-22 19:57:07.017248,-209
2021-09-22 19:57:07.017254,-206
2021-09-22 19:57:07.017259,-197
2021-09-22 19:57:07.017265,-175
2021-09-22 19:57:07.017271,-160
2021-09-22 19:57:07.017277,-153
2021-09-22 19:57:07.017283,-141
2021-09-22 19:57:07.017289,-131
2021-09-22 19:57:07.017296,-131
2021-09-22 19:57:07.017302,-119
2021-09-22 19:57:07.017307,-104
2021-09-22 19:57:07.242815,-104
2021-09-22 19:57:07.242836,-104
2021-09-22 19:57:07.242843,-102
2021-09-22 19:57:07.242850,-104
2021-09-22 19:57:07.242856,-102
2021-09-22 19:57:07.242862,-92
2021-09-22 19:57:07.242868,-90
2021-09-22 19:57:07.242873,-90
2021-09-22 19:57:07.242879,-97
2021-09-22 19:57:07.242885,-109
2021-09-22 19:57:07.242891,-109
2021-09-22 19:57:07.242897,-99
2021-09-22 19:57:07.242903,-90
2021-09-22 19:57:07.242909,-99
2021-09-22 19:57:07.242915,-114
2021-09-22 19:57:07.242921,-114
2021-09-22 19:57:07.242927,-104
2021-09-22 19:57:07.242933,-97
2021-09-22 19:57:07.242938,-94
2021-09-22 19:57:07.242944,-92
2021-09-22 19:57:07.242950,-92
2021-09-22 19:57:07.242956,-94
2021-09-22 19:57:07.242962,-92
2021-09-22 19:57:07.242968,-90
2021-09-22 19:57:07.242973,-85
2021-09-22 19:57:07.242979,-80
2021-09-22 19:57:07.242985,-82
2021-09-22 19:57:07.242991,-82
2021-09-22 19:57:07.242996,-70
2021-09-22 19:57:07.243002,-63
2021-09-22 19:57:07.692071,-63
2021-09-22 19:57:07.692092,-60
2021-09-22 19:57:07.692100,-63
2021-09-22 19:57:07.692106,-63
2021-09-22 19:57:07.692112,-41
2021-09-22 19:57:07.692118,-14
2021-09-22 19:57:07.692124,-12
2021-09-22 19:57:07.692130,-24
2021-09-22 19:57:07.692136,-19
2021-09-22 19:57:07.692142,-14
2021-09-22 19:57:07.692148,-31
2021-09-22 19:57:07.692154,-41
2021-09-22 19:57:07.692160,-46
2021-09-22 19:57:07.692166,-53
2021-09-22 19:57:07.692172,-58
2021-09-22 19:57:07.692178,-53
2021-09-22 19:57:07.692184,-46
2021-09-22 19:57:07.692189,-43
2021-09-22 19:57:07.692195,-43
2021-09-22 19:57:07.692201,-38
2021-09-22 19:57:07.692207,-14
2021-09-22 19:57:07.692213,53
2021-09-22 19:57:07.692219,192
2021-09-22 19:57:07.692225,428
2021-09-22 19:57:07.692231,583
2021-09-22 19:57:07.692237,333
2021-09-22 19:57:07.692243,-211
2021-09-22 19:57:07.692249,-652
2021-09-22 19:57:07.692255,-715
2021-09-22 19:57:07.692260,-360
2021-09-22 19:57:07.826985,-65
2021-09-22 19:57:07.827004,-43
2021-09-22 19:57:07.827011,19
2021-09-22 19:57:07.827017,116
2021-09-22 19:57:07.827023,111
2021-09-22 19:57:07.827029,111
2021-09-22 19:57:07.827036,148
2021-09-22 19:57:07.827042,155
2021-09-22 19:57:07.827047,155
2021-09-22 19:57:07.827053,175
2021-09-22 19:57:07.827059,187
2021-09-22 19:57:07.827065,194
2021-09-22 19:57:07.827071,204
2021-09-22 19:57:07.827077,214
2021-09-22 19:57:07.827083,236
2021-09-22 19:57:07.827089,253
2021-09-22 19:57:07.827095,274
2021-09-22 19:57:07.827101,304
2021-09-22 19:57:07.827107,333
2021-09-22 19:57:07.827113,360
2021-09-22 19:57:07.827119,396
2021-09-22 19:57:07.827125,433
2021-09-22 19:57:07.827131,467
2021-09-22 19:57:07.827136,493
2021-09-22 19:57:07.827142,501
2021-09-22 19:57:07.827148,493
2021-09-22 19:57:07.827154,472
2021-09-22 19:57:07.827160,423
2021-09-22 19:57:07.827166,347
2021-09-22 19:57:07.827172,250
2021-09-22 19:57:07.917613,121
2021-09-22 19:57:07.917633,-2
2021-09-22 19:57:07.917640,-92
2021-09-22 19:57:07.917646,-165
2021-09-22 19:57:07.917652,-221
2021-09-22 19:57:07.917658,-250
2021-09-22 19:57:07.917664,-272
2021-09-22 19:57:07.917670,-287
2021-09-22 19:57:07.917676,-282
2021-09-22 19:57:07.917682,-270
2021-09-22 19:57:07.917688,-265
2021-09-22 19:57:07.917694,-262
2021-09-22 19:57:07.917699,-255
2021-09-22 19:57:07.917705,-240
2021-09-22 19:57:07.917711,-228
2021-09-22 19:57:07.917717,-218
2021-09-22 19:57:07.917723,-197
2021-09-22 19:57:07.917729,-184
2021-09-22 19:57:07.917734,-187
2021-09-22 19:57:07.917740,-177
2021-09-22 19:57:07.917746,-158
2021-09-22 19:57:07.917752,-148
2021-09-22 19:57:07.917758,-143
2021-09-22 19:57:07.917764,-136
2021-09-22 19:57:07.917770,-133
2021-09-22 19:57:07.917775,-126
2021-09-22 19:57:07.917781,-121
2021-09-22 19:57:07.917787,-124
2021-09-22 19:57:07.917793,-128
2021-09-22 19:57:07.917799,-136
2021-09-22 19:57:08.098363,-143
2021-09-22 19:57:08.098385,-143
2021-09-22 19:57:08.098392,-138
2021-09-22 19:57:08.098398,-138
2021-09-22 19:57:08.098404,-133
2021-09-22 19:57:08.098410,-133
2021-09-22 19:57:08.098416,-138
2021-09-22 19:57:08.098422,-131
2021-09-22 19:57:08.098428,-121
2021-09-22 19:57:08.098434,-119
2021-09-22 19:57:08.098440,-119
2021-09-22 19:57:08.098446,-116
2021-09-22 19:57:08.098452,-114
2021-09-22 19:57:08.098457,-109
2021-09-22 19:57:08.098463,-107
2021-09-22 19:57:08.098469,-99
2021-09-22 19:57:08.098475,-92
2021-09-22 19:57:08.098481,-92
2021-09-22 19:57:08.098487,-90
2021-09-22 19:57:08.098493,-82
2021-09-22 19:57:08.098498,-75
2021-09-22 19:57:08.098504,-70
2021-09-22 19:57:08.098510,-68
2021-09-22 19:57:08.098516,-70
2021-09-22 19:57:08.098522,-70
2021-09-22 19:57:08.098528,-72
2021-09-22 19:57:08.098533,-75
2021-09-22 19:57:08.098539,-68
2021-09-22 19:57:08.098545,-63
2021-09-22 19:57:08.098551,-65
2021-09-22 19:57:08.367694,-65
2021-09-22 19:57:08.367713,-58
2021-09-22 19:57:08.367720,-41
2021-09-22 19:57:08.367726,-24
2021-09-22 19:57:08.367733,-24
2021-09-22 19:57:08.367739,-38
2021-09-22 19:57:08.367745,-31
2021-09-22 19:57:08.367751,-21
2021-09-22 19:57:08.367757,-38
2021-09-22 19:57:08.367762,-53
2021-09-22 19:57:08.367768,-60
2021-09-22 19:57:08.367774,-72
2021-09-22 19:57:08.367780,-70
2021-09-22 19:57:08.367786,-55
2021-09-22 19:57:08.367792,-53
2021-09-22 19:57:08.367798,-58
2021-09-22 19:57:08.367803,-53
2021-09-22 19:57:08.367809,-51
2021-09-22 19:57:08.367815,-26
2021-09-22 19:57:08.367821,53
2021-09-22 19:57:08.367827,204
2021-09-22 19:57:08.367833,462
2021-09-22 19:57:08.367839,630
2021-09-22 19:57:08.367844,372
2021-09-22 19:57:08.367850,-194
2021-09-22 19:57:08.367856,-644
2021-09-22 19:57:08.367862,-678
2021-09-22 19:57:08.367868,-318
2021-09-22 19:57:08.367873,-51
2021-09-22 19:57:08.367879,-31
2021-09-22 19:57:08.548290,38
2021-09-22 19:57:08.548310,128
2021-09-22 19:57:08.548317,114
2021-09-22 19:57:08.548323,102
2021-09-22 19:57:08.548328,128
2021-09-22 19:57:08.548334,136
2021-09-22 19:57:08.548340,138
2021-09-22 19:57:08.548345,160
2021-09-22 19:57:08.548351,175
2021-09-22 19:57:08.548357,175
2021-09-22 19:57:08.548362,180
2021-09-22 19:57:08.548367,194
2021-09-22 19:57:08.548373,214
2021-09-22 19:57:08.548378,240
2021-09-22 19:57:08.548384,262
2021-09-22 19:57:08.548389,284
2021-09-22 19:57:08.548395,313
2021-09-22 19:57:08.548400,347
2021-09-22 19:57:08.548406,389
2021-09-22 19:57:08.548411,430
2021-09-22 19:57:08.548417,457
2021-09-22 19:57:08.548422,474
2021-09-22 19:57:08.548428,486
2021-09-22 19:57:08.548433,486
2021-09-22 19:57:08.548439,469
2021-09-22 19:57:08.548445,435
2021-09-22 19:57:08.548450,364
2021-09-22 19:57:08.548456,255
2021-09-22 19:57:08.548461,133
2021-09-22 19:57:08.548467,21
2021-09-22 19:57:08.818431,-75
2021-09-22 19:57:08.818451,-163
2021-09-22 19:57:08.818458,-233
2021-09-22 19:57:08.818465,-272
2021-09-22 19:57:08.818471,-294
2021-09-22 19:57:08.818477,-306
2021-09-22 19:57:08.818483,-304
2021-09-22 19:57:08.818489,-289
2021-09-22 19:57:08.818495,-279
2021-09-22 19:57:08.818501,-282
2021-09-22 19:57:08.818507,-272
2021-09-22 19:57:08.818513,-248
2021-09-22 19:57:08.818520,-231
2021-09-22 19:57:08.818525,-223
2021-09-22 19:57:08.818531,-214
2021-09-22 19:57:08.818537,-209
2021-09-22 19:57:08.818543,-197
2021-09-22 19:57:08.818549,-175
2021-09-22 19:57:08.818554,-163
2021-09-22 19:57:08.818560,-160
2021-09-22 19:57:08.818566,-153
2021-09-22 19:57:08.818572,-148
2021-09-22 19:57:08.818577,-148
2021-09-22 19:57:08.818583,-145
2021-09-22 19:57:08.818589,-138
2021-09-22 19:57:08.818595,-133
2021-09-22 19:57:08.818600,-128
2021-09-22 19:57:08.818606,-131
2021-09-22 19:57:08.818612,-133
2021-09-22 19:57:08.818618,-126
2021-09-22 19:57:09.132028,-119
2021-09-22 19:57:09.132049,-121
2021-09-22 19:57:09.132056,-121
2021-09-22 19:57:09.132063,-116
2021-09-22 19:57:09.132069,-111
2021-09-22 19:57:09.132075,-104
2021-09-22 19:57:09.132081,-99
2021-09-22 19:57:09.132087,-102
2021-09-22 19:57:09.132093,-109
2021-09-22 19:57:09.132099,-107
2021-09-22 19:57:09.132105,-97
2021-09-22 19:57:09.132111,-92
2021-09-22 19:57:09.132117,-85
2021-09-22 19:57:09.132123,-80
2021-09-22 19:57:09.132129,-85
2021-09-22 19:57:09.132135,-87
2021-09-22 19:57:09.132141,-82
2021-09-22 19:57:09.132146,-77
2021-09-22 19:57:09.132152,-77
2021-09-22 19:57:09.132158,-70
2021-09-22 19:57:09.132164,-68
2021-09-22 19:57:09.132170,-70
2021-09-22 19:57:09.132176,-63
2021-09-22 19:57:09.132181,-53
2021-09-22 19:57:09.132187,-48
2021-09-22 19:57:09.132193,-48
2021-09-22 19:57:09.132199,-41
2021-09-22 19:57:09.132204,-38
2021-09-22 19:57:09.132210,-41
2021-09-22 19:57:09.132215,-34
2021-09-22 19:57:09.268353,-12
2021-09-22 19:57:09.268374,4
2021-09-22 19:57:09.268381,9
2021-09-22 19:57:09.268387,2
2021-09-22 19:57:09.268393,9
2021-09-22 19:57:09.268400,17
2021-09-22 19:57:09.268405,0
2021-09-22 19:57:09.268411,-29
2021-09-22 19:57:09.268417,-43
2021-09-22 19:57:09.268423,-53
2021-09-22 19:57:09.268429,-53
2021-09-22 19:57:09.268435,-43
2021-09-22 19:57:09.268441,-38
2021-09-22 19:57:09.268447,-46
2021-09-22 19:57:09.268452,-53
2021-09-22 19:57:09.268458,-51
2021-09-22 19:57:09.268464,-36
2021-09-22 19:57:09.268470,-2
2021-09-22 19:57:09.268476,85
2021-09-22 19:57:09.268495,260
2021-09-22 19:57:09.268501,528
2021-09-22 19:57:09.268507,630
2021-09-22 19:57:09.268514,299
2021-09-22 19:57:09.268519,-299
2021-09-22 19:57:09.268525,-708
2021-09-22 19:57:09.268531,-583
2021-09-22 19:57:09.268537,-189
2021-09-22 19:57:09.268543,-46
2021-09-22 19:57:09.268549,-38
2021-09-22 19:57:09.268555,72
2021-09-22 19:57:09.538589,131
2021-09-22 19:57:09.538610,104
2021-09-22 19:57:09.538617,121
2021-09-22 19:57:09.538623,150
2021-09-22 19:57:09.538629,153
2021-09-22 19:57:09.538635,167
2021-09-22 19:57:09.538641,184
2021-09-22 19:57:09.538647,187
2021-09-22 19:57:09.538653,187
2021-09-22 19:57:09.538659,206
2021-09-22 19:57:09.538664,223
2021-09-22 19:57:09.538670,238
2021-09-22 19:57:09.538676,253
2021-09-22 19:57:09.538682,274
2021-09-22 19:57:09.538688,299
2021-09-22 19:57:09.538694,330
2021-09-22 19:57:09.538700,367
2021-09-22 19:57:09.538706,401
2021-09-22 19:57:09.538712,430
2021-09-22 19:57:09.538717,459
2021-09-22 19:57:09.538723,479
2021-09-22 19:57:09.538729,489
2021-09-22 19:57:09.538735,481
2021-09-22 19:57:09.538740,459
2021-09-22 19:57:09.538746,416
2021-09-22 19:57:09.538752,335
2021-09-22 19:57:09.538758,226
2021-09-22 19:57:09.538764,109
2021-09-22 19:57:09.538770,0
2021-09-22 19:57:09.538776,-87
2021-09-22 19:57:09.762782,-158
2021-09-22 19:57:09.762803,-211
2021-09-22 19:57:09.762810,-243
2021-09-22 19:57:09.762816,-260
2021-09-22 19:57:09.762823,-265
2021-09-22 19:57:09.762829,-260
2021-09-22 19:57:09.762835,-255
2021-09-22 19:57:09.762841,-253
2021-09-22 19:57:09.762847,-236
2021-09-22 19:57:09.762853,-214
2021-09-22 19:57:09.762859,-199
2021-09-22 19:57:09.762865,-187
2021-09-22 19:57:09.762871,-177
2021-09-22 19:57:09.762877,-177
2021-09-22 19:57:09.762883,-177
2021-09-22 19:57:09.762889,-163
2021-09-22 19:57:09.762895,-155
2021-09-22 19:57:09.762901,-155
2021-09-22 19:57:09.762907,-155
2021-09-22 19:57:09.762912,-153
2021-09-22 19:57:09.762918,-148
2021-09-22 19:57:09.762924,-145
2021-09-22 19:57:09.762930,-141
2021-09-22 19:57:09.762936,-136
2021-09-22 19:57:09.762941,-136
2021-09-22 19:57:09.762947,-133
2021-09-22 19:57:09.762953,-128
2021-09-22 19:57:09.762959,-126
2021-09-22 19:57:09.762964,-126
2021-09-22 19:57:09.762970,-121
2021-09-22 19:57:09.943381,-119
2021-09-22 19:57:09.943403,-111
2021-09-22 19:57:09.943410,-107
2021-09-22 19:57:09.943416,-104
2021-09-22 19:57:09.943423,-97
2021-09-22 19:57:09.943429,-92
2021-09-22 19:57:09.943435,-94
2021-09-22 19:57:09.943441,-90
2021-09-22 19:57:09.943447,-82
2021-09-22 19:57:09.943453,-82
2021-09-22 19:57:09.943459,-75
2021-09-22 19:57:09.943465,-72
2021-09-22 19:57:09.943471,-77
2021-09-22 19:57:09.943477,-75
2021-09-22 19:57:09.943483,-70
2021-09-22 19:57:09.943489,-72
2021-09-22 19:57:09.943495,-75
2021-09-22 19:57:09.943501,-70
2021-09-22 19:57:09.943507,-70
2021-09-22 19:57:09.943513,-68
2021-09-22 19:57:09.943519,-60
2021-09-22 19:57:09.943525,-58
2021-09-22 19:57:09.943531,-53
2021-09-22 19:57:09.943537,-51
2021-09-22 19:57:09.943542,-51
2021-09-22 19:57:09.943548,-43
2021-09-22 19:57:09.943554,-41
2021-09-22 19:57:09.943560,-38
2021-09-22 19:57:09.943566,-36
2021-09-22 19:57:09.943572,-36
2021-09-22 19:57:10.213442,-34
2021-09-22 19:57:10.213463,-14
2021-09-22 19:57:10.213470,9
2021-09-22 19:57:10.213477,14
2021-09-22 19:57:10.213483,0
2021-09-22 19:57:10.213489,0
2021-09-22 19:57:10.213495,9
2021-09-22 19:57:10.213501,2
2021-09-22 19:57:10.213507,-17
2021-09-22 19:57:10.213513,-29
2021-09-22 19:57:10.213519,-34
2021-09-22 19:57:10.213525,-38
2021-09-22 19:57:10.213531,-36
2021-09-22 19:57:10.213537,-29
2021-09-22 19:57:10.213543,-26
2021-09-22 19:57:10.213549,-29
2021-09-22 19:57:10.213555,-24
2021-09-22 19:57:10.213561,-17
2021-09-22 19:57:10.213567,17
2021-09-22 19:57:10.213573,119
2021-09-22 19:57:10.213578,321
2021-09-22 19:57:10.213584,579
2021-09-22 19:57:10.213590,583
2021-09-22 19:57:10.213596,158
2021-09-22 19:57:10.213601,-416
2021-09-22 19:57:10.213607,-729
2021-09-22 19:57:10.213613,-525
2021-09-22 19:57:10.213619,-138
2021-09-22 19:57:10.213625,-29
2021-09-22 19:57:10.213631,-12
2021-09-22 19:57:10.393410,99
2021-09-22 19:57:10.393431,143
2021-09-22 19:57:10.393438,116
2021-09-22 19:57:10.393445,138
2021-09-22 19:57:10.393451,165
2021-09-22 19:57:10.393457,165
2021-09-22 19:57:10.393463,172
2021-09-22 19:57:10.393468,192
2021-09-22 19:57:10.393474,201
2021-09-22 19:57:10.393481,209
2021-09-22 19:57:10.393486,216
2021-09-22 19:57:10.393492,228
2021-09-22 19:57:10.393498,250
2021-09-22 19:57:10.393504,277
2021-09-22 19:57:10.393510,299
2021-09-22 19:57:10.393516,321
2021-09-22 19:57:10.393522,345
2021-09-22 19:57:10.393527,379
2021-09-22 19:57:10.393533,418
2021-09-22 19:57:10.393539,447
2021-09-22 19:57:10.393545,469
2021-09-22 19:57:10.393551,486
2021-09-22 19:57:10.393557,489
2021-09-22 19:57:10.393562,476
2021-09-22 19:57:10.393568,452
2021-09-22 19:57:10.393574,401
2021-09-22 19:57:10.393580,316
2021-09-22 19:57:10.393586,204
2021-09-22 19:57:10.393591,85
2021-09-22 19:57:10.393597,-19
2021-09-22 19:57:10.707790,-102
2021-09-22 19:57:10.707812,-165
2021-09-22 19:57:10.707820,-214
2021-09-22 19:57:10.707826,-245
2021-09-22 19:57:10.707832,-270
2021-09-22 19:57:10.707838,-270
2021-09-22 19:57:10.707844,-260
2021-09-22 19:57:10.707850,-253
2021-09-22 19:57:10.707856,-243
2021-09-22 19:57:10.707862,-236
2021-09-22 19:57:10.707868,-228
2021-09-22 19:57:10.707874,-211
2021-09-22 19:57:10.707880,-189
2021-09-22 19:57:10.707885,-175
2021-09-22 19:57:10.707891,-165
2021-09-22 19:57:10.707897,-163
2021-09-22 19:57:10.707903,-158
2021-09-22 19:57:10.707908,-150
2021-09-22 19:57:10.707914,-143
2021-09-22 19:57:10.707920,-136
2021-09-22 19:57:10.707926,-128
2021-09-22 19:57:10.707931,-131
2021-09-22 19:57:10.707937,-138
2021-09-22 19:57:10.707943,-148
2021-09-22 19:57:10.707949,-145
2021-09-22 19:57:10.707954,-138
2021-09-22 19:57:10.707960,-138
2021-09-22 19:57:10.707966,-143
2021-09-22 19:57:10.707972,-138
2021-09-22 19:57:10.707977,-131
2021-09-22 19:57:10.933408,-126
2021-09-22 19:57:10.933429,-121
2021-09-22 19:57:10.933437,-121
2021-09-22 19:57:10.933443,-128
2021-09-22 19:57:10.933449,-126
2021-09-22 19:57:10.933455,-111
2021-09-22 19:57:10.933462,-107
2021-09-22 19:57:10.933468,-104
2021-09-22 19:57:10.933474,-102
2021-09-22 19:57:10.933480,-107
2021-09-22 19:57:10.933486,-104
2021-09-22 19:57:10.933492,-92
2021-09-22 19:57:10.933498,-87
2021-09-22 19:57:10.933504,-85
2021-09-22 19:57:10.933509,-82
2021-09-22 19:57:10.933515,-82
2021-09-22 19:57:10.933521,-80
2021-09-22 19:57:10.933527,-70
2021-09-22 19:57:10.933533,-65
2021-09-22 19:57:10.933539,-63
2021-09-22 19:57:10.933545,-63
2021-09-22 19:57:10.933551,-63
2021-09-22 19:57:10.933556,-55
2021-09-22 19:57:10.933562,-55
2021-09-22 19:57:10.933568,-60
2021-09-22 19:57:10.933574,-58
2021-09-22 19:57:10.933579,-51
2021-09-22 19:57:10.933585,-51
2021-09-22 19:57:10.933590,-51
2021-09-22 19:57:10.933596,-46
2021-09-22 19:57:11.201916,-36
2021-09-22 19:57:11.201936,-19
2021-09-22 19:57:11.201943,-4
2021-09-22 19:57:11.201949,-2
2021-09-22 19:57:11.201955,-4
2021-09-22 19:57:11.201961,2
2021-09-22 19:57:11.201966,12
2021-09-22 19:57:11.201972,0
2021-09-22 19:57:11.201978,-26
2021-09-22 19:57:11.201984,-43
2021-09-22 19:57:11.201990,-41
2021-09-22 19:57:11.201996,-34
2021-09-22 19:57:11.202002,-29
2021-09-22 19:57:11.202008,-29
2021-09-22 19:57:11.202013,-31
2021-09-22 19:57:11.202019,-31
2021-09-22 19:57:11.202025,-21
2021-09-22 19:57:11.202031,-4
2021-09-22 19:57:11.202037,43
2021-09-22 19:57:11.202043,153
2021-09-22 19:57:11.202049,362
2021-09-22 19:57:11.202055,603
2021-09-22 19:57:11.202060,542
2021-09-22 19:57:11.202066,72
2021-09-22 19:57:11.202072,-481
2021-09-22 19:57:11.202078,-727
2021-09-22 19:57:11.202084,-462
2021-09-22 19:57:11.202090,-99
2021-09-22 19:57:11.202095,-34
2021-09-22 19:57:11.202101,-14
2021-09-22 19:57:11.338277,94
2021-09-22 19:57:11.338296,124
2021-09-22 19:57:11.338304,102
2021-09-22 19:57:11.338310,131
2021-09-22 19:57:11.338316,153
2021-09-22 19:57:11.338322,153
2021-09-22 19:57:11.338328,167
2021-09-22 19:57:11.338334,180
2021-09-22 19:57:11.338340,180
2021-09-22 19:57:11.338345,189
2021-09-22 19:57:11.338351,209
2021-09-22 19:57:11.338357,226
2021-09-22 19:57:11.338363,248
2021-09-22 19:57:11.338369,265
2021-09-22 19:57:11.338375,279
2021-09-22 19:57:11.338381,309
2021-09-22 19:57:11.338387,350
2021-09-22 19:57:11.338392,389
2021-09-22 19:57:11.338398,418
2021-09-22 19:57:11.338404,445
2021-09-22 19:57:11.338410,469
2021-09-22 19:57:11.338416,489
2021-09-22 19:57:11.338421,496
2021-09-22 19:57:11.338427,481
2021-09-22 19:57:11.338433,445
2021-09-22 19:57:11.338439,389
2021-09-22 19:57:11.338445,301
2021-09-22 19:57:11.338451,182
2021-09-22 19:57:11.338456,58
2021-09-22 19:57:11.338462,-43
2021-09-22 19:57:11.608376,-128
2021-09-22 19:57:11.608397,-194
2021-09-22 19:57:11.608404,-236
2021-09-22 19:57:11.608411,-262
2021-09-22 19:57:11.608417,-270
2021-09-22 19:57:11.608423,-265
2021-09-22 19:57:11.608429,-267
2021-09-22 19:57:11.608435,-270
2021-09-22 19:57:11.608441,-265
2021-09-22 19:57:11.608447,-255
2021-09-22 19:57:11.608452,-240
2021-09-22 19:57:11.608458,-226
2021-09-22 19:57:11.608464,-221
2021-09-22 19:57:11.608470,-216
2021-09-22 19:57:11.608476,-194
2021-09-22 19:57:11.608482,-180
2021-09-22 19:57:11.608487,-172
2021-09-22 19:57:11.608493,-163
2021-09-22 19:57:11.608499,-155
2021-09-22 19:57:11.608505,-150
2021-09-22 19:57:11.608511,-141
2021-09-22 19:57:11.608517,-131
2021-09-22 19:57:11.608523,-128
2021-09-22 19:57:11.608528,-126
2021-09-22 19:57:11.608534,-124
2021-09-22 19:57:11.608540,-121
2021-09-22 19:57:11.608545,-121
2021-09-22 19:57:11.608551,-119
2021-09-22 19:57:11.608557,-114
2021-09-22 19:57:11.608563,-116
2021-09-22 19:57:11.788365,-116
2021-09-22 19:57:11.788386,-111
2021-09-22 19:57:11.788393,-104
2021-09-22 19:57:11.788400,-102
2021-09-22 19:57:11.788405,-99
2021-09-22 19:57:11.788411,-104
2021-09-22 19:57:11.788417,-114
2021-09-22 19:57:11.788423,-107
2021-09-22 19:57:11.788429,-97
2021-09-22 19:57:11.788435,-99
2021-09-22 19:57:11.788441,-94
2021-09-22 19:57:11.788447,-90
2021-09-22 19:57:11.788453,-92
2021-09-22 19:57:11.788459,-92
2021-09-22 19:57:11.788465,-82
2021-09-22 19:57:11.788470,-82
2021-09-22 19:57:11.788476,-82
2021-09-22 19:57:11.788482,-80
2021-09-22 19:57:11.788488,-82
2021-09-22 19:57:11.788494,-80
2021-09-22 19:57:11.788500,-72
2021-09-22 19:57:11.788505,-68
2021-09-22 19:57:11.788511,-65
2021-09-22 19:57:11.788517,-63
2021-09-22 19:57:11.788523,-63
2021-09-22 19:57:11.788528,-55
2021-09-22 19:57:11.788534,-51
2021-09-22 19:57:11.788540,-51
2021-09-22 19:57:11.788546,-53
2021-09-22 19:57:11.788552,-46
2021-09-22 19:57:12.103516,-29
2021-09-22 19:57:12.103539,-9
2021-09-22 19:57:12.103546,-9
2021-09-22 19:57:12.103552,-24
2021-09-22 19:57:12.103558,-17
2021-09-22 19:57:12.103564,-14
2021-09-22 19:57:12.103571,-36
2021-09-22 19:57:12.103577,-48
2021-09-22 19:57:12.103583,-51
2021-09-22 19:57:12.103588,-53
2021-09-22 19:57:12.103594,-53
2021-09-22 19:57:12.103601,-53
2021-09-22 19:57:12.103606,-58
2021-09-22 19:57:12.103612,-51
2021-09-22 19:57:12.103618,-43
2021-09-22 19:57:12.103624,-43
2021-09-22 19:57:12.103630,-26
2021-09-22 19:57:12.103636,34
2021-09-22 19:57:12.103642,165
2021-09-22 19:57:12.103648,403
2021-09-22 19:57:12.103654,625
2021-09-22 19:57:12.103659,476
2021-09-22 19:57:12.103665,-41
2021-09-22 19:57:12.103671,-559
2021-09-22 19:57:12.103677,-712
2021-09-22 19:57:12.103683,-389
2021-09-22 19:57:12.103689,-60
2021-09-22 19:57:12.103694,-26
2021-09-22 19:57:12.103700,21
2021-09-22 19:57:12.103706,128
2021-09-22 19:57:12.238404,131
2021-09-22 19:57:12.238425,116
2021-09-22 19:57:12.238432,148
2021-09-22 19:57:12.238439,158
2021-09-22 19:57:12.238444,150
2021-09-22 19:57:12.238462,163
2021-09-22 19:57:12.238469,184
2021-09-22 19:57:12.238474,194
2021-09-22 19:57:12.238480,206
2021-09-22 19:57:12.238486,223
2021-09-22 19:57:12.238491,233
2021-09-22 19:57:12.238497,240
2021-09-22 19:57:12.238503,265
2021-09-22 19:57:12.238509,296
2021-09-22 19:57:12.238514,323
2021-09-22 19:57:12.238520,355
2021-09-22 19:57:12.238526,386
2021-09-22 19:57:12.238532,416
2021-09-22 19:57:12.238538,450
2021-09-22 19:57:12.238544,479
2021-09-22 19:57:12.238549,491
2021-09-22 19:57:12.238555,489
2021-09-22 19:57:12.238561,469
2021-09-22 19:57:12.238567,430
2021-09-22 19:57:12.238572,372
2021-09-22 19:57:12.238578,279
2021-09-22 19:57:12.238584,153
2021-09-22 19:57:12.238589,26
2021-09-22 19:57:12.238595,-72
2021-09-22 19:57:12.238601,-148
2021-09-22 19:57:12.463464,-209
2021-09-22 19:57:12.463485,-248
2021-09-22 19:57:12.463493,-267
2021-09-22 19:57:12.463499,-279
2021-09-22 19:57:12.463505,-287
2021-09-22 19:57:12.463511,-284
2021-09-22 19:57:12.463517,-282
2021-09-22 19:57:12.463523,-277
2021-09-22 19:57:12.463529,-265
2021-09-22 19:57:12.463534,-255
2021-09-22 19:57:12.463540,-250
2021-09-22 19:57:12.463547,-236
2021-09-22 19:57:12.463553,-211
2021-09-22 19:57:12.463559,-197
2021-09-22 19:57:12.463565,-187
2021-09-22 19:57:12.463570,-177
2021-09-22 19:57:12.463576,-170
2021-09-22 19:57:12.463582,-155
2021-09-22 19:57:12.463588,-145
2021-09-22 19:57:12.463594,-141
2021-09-22 19:57:12.463600,-136
2021-09-22 19:57:12.463605,-136
2021-09-22 19:57:12.463611,-136
2021-09-22 19:57:12.463617,-131
2021-09-22 19:57:12.463623,-128
2021-09-22 19:57:12.463628,-126
2021-09-22 19:57:12.463634,-124
2021-09-22 19:57:12.463640,-124
2021-09-22 19:57:12.463646,-119
2021-09-22 19:57:12.463651,-114
2021-09-22 19:57:12.733462,-109
2021-09-22 19:57:12.733483,-104
2021-09-22 19:57:12.733490,-102
2021-09-22 19:57:12.733496,-109
2021-09-22 19:57:12.733502,-109
2021-09-22 19:57:12.733508,-97
2021-09-22 19:57:12.733514,-90
2021-09-22 19:57:12.733520,-87
2021-09-22 19:57:12.733526,-92
2021-09-22 19:57:12.733531,-102
2021-09-22 19:57:12.733537,-97
2021-09-22 19:57:12.733543,-85
2021-09-22 19:57:12.733549,-80
2021-09-22 19:57:12.733555,-77
2021-09-22 19:57:12.733561,-75
2021-09-22 19:57:12.733567,-77
2021-09-22 19:57:12.733573,-85
2021-09-22 19:57:12.733578,-85
2021-09-22 19:57:12.733584,-77
2021-09-22 19:57:12.733590,-72
2021-09-22 19:57:12.733596,-70
2021-09-22 19:57:12.733602,-68
2021-09-22 19:57:12.733608,-63
2021-09-22 19:57:12.733614,-55
2021-09-22 19:57:12.733620,-53
2021-09-22 19:57:12.733625,-48
2021-09-22 19:57:12.733631,-46
2021-09-22 19:57:12.733637,-46
2021-09-22 19:57:12.733643,-43
2021-09-22 19:57:12.733649,-41
2021-09-22 19:57:12.958437,-36
2021-09-22 19:57:12.958458,-19
2021-09-22 19:57:12.958465,-2
2021-09-22 19:57:12.958472,2
2021-09-22 19:57:12.958478,2
2021-09-22 19:57:12.958484,7
2021-09-22 19:57:12.958489,17
2021-09-22 19:57:12.958495,4
2021-09-22 19:57:12.958501,-21
2021-09-22 19:57:12.958507,-43
2021-09-22 19:57:12.958513,-51
2021-09-22 19:57:12.958519,-46
2021-09-22 19:57:12.958525,-38
2021-09-22 19:57:12.958530,-38
2021-09-22 19:57:12.958536,-46
2021-09-22 19:57:12.958542,-48
2021-09-22 19:57:12.958548,-41
2021-09-22 19:57:12.958554,-29
2021-09-22 19:57:12.958559,14
2021-09-22 19:57:12.958565,114
2021-09-22 19:57:12.958571,301
2021-09-22 19:57:12.958577,562
2021-09-22 19:57:12.958583,591
2021-09-22 19:57:12.958589,182
2021-09-22 19:57:12.958594,-389
2021-09-22 19:57:12.958600,-720
2021-09-22 19:57:12.958606,-547
2021-09-22 19:57:12.958612,-155
2021-09-22 19:57:12.958618,-26
2021-09-22 19:57:12.958623,-14
2021-09-22 19:57:13.227115,94
2021-09-22 19:57:13.227137,141
2021-09-22 19:57:13.227144,114
2021-09-22 19:57:13.227150,136
2021-09-22 19:57:13.227157,165
2021-09-22 19:57:13.227163,163
2021-09-22 19:57:13.227169,172
2021-09-22 19:57:13.227175,187
2021-09-22 19:57:13.227181,187
2021-09-22 19:57:13.227187,194
2021-09-22 19:57:13.227193,211
2021-09-22 19:57:13.227199,228
2021-09-22 19:57:13.227205,240
2021-09-22 19:57:13.227211,255
2021-09-22 19:57:13.227217,270
2021-09-22 19:57:13.227223,299
2021-09-22 19:57:13.227229,333
2021-09-22 19:57:13.227235,367
2021-09-22 19:57:13.227240,403
2021-09-22 19:57:13.227246,440
2021-09-22 19:57:13.227252,467
2021-09-22 19:57:13.227258,479
2021-09-22 19:57:13.227264,476
2021-09-22 19:57:13.227269,464
2021-09-22 19:57:13.227275,440
2021-09-22 19:57:13.227281,386
2021-09-22 19:57:13.227287,299
2021-09-22 19:57:13.227293,194
2021-09-22 19:57:13.227299,77
2021-09-22 19:57:13.227305,-34
2021-09-22 19:57:13.408362,-119
2021-09-22 19:57:13.408383,-187
2021-09-22 19:57:13.408390,-238
2021-09-22 19:57:13.408396,-265
2021-09-22 19:57:13.408402,-272
2021-09-22 19:57:13.408408,-279
2021-09-22 19:57:13.408414,-287
2021-09-22 19:57:13.408420,-289
2021-09-22 19:57:13.408426,-284
2021-09-22 19:57:13.408432,-270
2021-09-22 19:57:13.408438,-253
2021-09-22 19:57:13.408444,-236
2021-09-22 19:57:13.408450,-223
2021-09-22 19:57:13.408456,-216
2021-09-22 19:57:13.408461,-211
2021-09-22 19:57:13.408467,-201
2021-09-22 19:57:13.408473,-184
2021-09-22 19:57:13.408479,-165
2021-09-22 19:57:13.408485,-158
2021-09-22 19:57:13.408491,-153
2021-09-22 19:57:13.408497,-145
2021-09-22 19:57:13.408503,-141
2021-09-22 19:57:13.408509,-138
2021-09-22 19:57:13.408514,-133
2021-09-22 19:57:13.408520,-131
2021-09-22 19:57:13.408526,-131
2021-09-22 19:57:13.408532,-128
2021-09-22 19:57:13.408538,-124
2021-09-22 19:57:13.408543,-121
2021-09-22 19:57:13.408549,-119
2021-09-22 19:57:13.633390,-119
2021-09-22 19:57:13.633411,-116
2021-09-22 19:57:13.633418,-111
2021-09-22 19:57:13.633424,-109
2021-09-22 19:57:13.633430,-104
2021-09-22 19:57:13.633436,-97
2021-09-22 19:57:13.633442,-102
2021-09-22 19:57:13.633448,-102
2021-09-22 19:57:13.633454,-94
2021-09-22 19:57:13.633460,-90
2021-09-22 19:57:13.633466,-85
2021-09-22 19:57:13.633472,-80
2021-09-22 19:57:13.633478,-85
2021-09-22 19:57:13.633484,-92
2021-09-22 19:57:13.633490,-80
2021-09-22 19:57:13.633496,-65
2021-09-22 19:57:13.633501,-72
2021-09-22 19:57:13.633507,-82
2021-09-22 19:57:13.633513,-80
2021-09-22 19:57:13.633519,-70
2021-09-22 19:57:13.633525,-65
2021-09-22 19:57:13.633531,-63
2021-09-22 19:57:13.633537,-58
2021-09-22 19:57:13.633542,-55
2021-09-22 19:57:13.633548,-58
2021-09-22 19:57:13.633554,-51
2021-09-22 19:57:13.633560,-43
2021-09-22 19:57:13.633565,-43
2021-09-22 19:57:13.633571,-53
2021-09-22 19:57:13.633577,-55
2021-09-22 19:57:13.858376,-51
2021-09-22 19:57:13.858398,-46
2021-09-22 19:57:13.858405,-38
2021-09-22 19:57:13.858411,-38
2021-09-22 19:57:13.858418,-41
2021-09-22 19:57:13.858424,-36
2021-09-22 19:57:13.858430,-24
2021-09-22 19:57:13.858436,-4
2021-09-22 19:57:13.858442,4
2021-09-22 19:57:13.858448,-4
2021-09-22 19:57:13.858454,-2
2021-09-22 19:57:13.858460,4
2021-09-22 19:57:13.858465,-17
2021-09-22 19:57:13.858471,-38
2021-09-22 19:57:13.858477,-36
2021-09-22 19:57:13.858483,-36
2021-09-22 19:57:13.858489,-38
2021-09-22 19:57:13.858495,-43
2021-09-22 19:57:13.858501,-48
2021-09-22 19:57:13.858507,-48
2021-09-22 19:57:13.858513,-46
2021-09-22 19:57:13.858519,-41
2021-09-22 19:57:13.858525,-26
2021-09-22 19:57:13.858531,19
2021-09-22 19:57:13.858536,131
2021-09-22 19:57:13.858543,345
2021-09-22 19:57:13.858548,603
2021-09-22 19:57:13.858554,576
2021-09-22 19:57:13.858560,124
2021-09-22 19:57:13.858566,-447
2021-09-22 19:57:14.083529,-717
2021-09-22 19:57:14.083550,-469
2021-09-22 19:57:14.083558,-102
2021-09-22 19:57:14.083564,-26
2021-09-22 19:57:14.083570,-4
2021-09-22 19:57:14.083576,102
2021-09-22 19:57:14.083582,124
2021-09-22 19:57:14.083588,99
2021-09-22 19:57:14.083594,131
2021-09-22 19:57:14.083600,155
2021-09-22 19:57:14.083606,143
2021-09-22 19:57:14.083614,148
2021-09-22 19:57:14.083620,170
2021-09-22 19:57:14.083626,182
2021-09-22 19:57:14.083632,189
2021-09-22 19:57:14.083638,206
2021-09-22 19:57:14.083644,226
2021-09-22 19:57:14.083650,238
2021-09-22 19:57:14.083655,257
2021-09-22 19:57:14.083661,289
2021-09-22 19:57:14.083667,309
2021-09-22 19:57:14.083673,330
2021-09-22 19:57:14.083679,364
2021-09-22 19:57:14.083685,399
2021-09-22 19:57:14.083691,430
2021-09-22 19:57:14.083697,457
2021-09-22 19:57:14.083703,467
2021-09-22 19:57:14.083709,464
2021-09-22 19:57:14.083715,457
2021-09-22 19:57:14.083721,433
2021-09-22 19:57:14.308361,382
2021-09-22 19:57:14.308381,304
2021-09-22 19:57:14.308388,197
2021-09-22 19:57:14.308395,68
2021-09-22 19:57:14.308401,-46
2021-09-22 19:57:14.308407,-138
2021-09-22 19:57:14.308413,-211
2021-09-22 19:57:14.308419,-257
2021-09-22 19:57:14.308425,-282
2021-09-22 19:57:14.308431,-304
2021-09-22 19:57:14.308437,-318
2021-09-22 19:57:14.308443,-311
2021-09-22 19:57:14.308449,-291
2021-09-22 19:57:14.308455,-279
2021-09-22 19:57:14.308461,-272
2021-09-22 19:57:14.308467,-255
2021-09-22 19:57:14.308473,-236
2021-09-22 19:57:14.308479,-218
2021-09-22 19:57:14.308485,-204
2021-09-22 19:57:14.308491,-184
2021-09-22 19:57:14.308497,-175
2021-09-22 19:57:14.308503,-165
2021-09-22 19:57:14.308509,-158
2021-09-22 19:57:14.308515,-153
2021-09-22 19:57:14.308521,-143
2021-09-22 19:57:14.308527,-133
2021-09-22 19:57:14.308533,-131
2021-09-22 19:57:14.308538,-136
2021-09-22 19:57:14.308544,-128
2021-09-22 19:57:14.308550,-121
2021-09-22 19:57:14.578476,-119
2021-09-22 19:57:14.578496,-116
2021-09-22 19:57:14.578503,-116
2021-09-22 19:57:14.578510,-124
2021-09-22 19:57:14.578516,-126
2021-09-22 19:57:14.578522,-116
2021-09-22 19:57:14.578527,-107
2021-09-22 19:57:14.578533,-107
2021-09-22 19:57:14.578539,-107
2021-09-22 19:57:14.578545,-111
2021-09-22 19:57:14.578551,-114
2021-09-22 19:57:14.578557,-104
2021-09-22 19:57:14.578563,-94
2021-09-22 19:57:14.578569,-90
2021-09-22 19:57:14.578575,-92
2021-09-22 19:57:14.578581,-94
2021-09-22 19:57:14.578587,-92
2021-09-22 19:57:14.578593,-82
2021-09-22 19:57:14.578598,-77
2021-09-22 19:57:14.578604,-75
2021-09-22 19:57:14.578610,-70
2021-09-22 19:57:14.578616,-72
2021-09-22 19:57:14.578622,-70
2021-09-22 19:57:14.578627,-65
2021-09-22 19:57:14.578633,-63
2021-09-22 19:57:14.578639,-68
2021-09-22 19:57:14.578645,-72
2021-09-22 19:57:14.578650,-65
2021-09-22 19:57:14.578656,-58
2021-09-22 19:57:14.578663,-55
2021-09-22 19:57:14.847817,-51
2021-09-22 19:57:14.847838,-48
2021-09-22 19:57:14.847845,-55
2021-09-22 19:57:14.847851,-51
2021-09-22 19:57:14.847857,-41
2021-09-22 19:57:14.847863,-36
2021-09-22 19:57:14.847868,-29
2021-09-22 19:57:14.847874,-19
2021-09-22 19:57:14.847880,-17
2021-09-22 19:57:14.847886,-17
2021-09-22 19:57:14.847892,-17
2021-09-22 19:57:14.847898,-9
2021-09-22 19:57:14.847904,0
2021-09-22 19:57:14.847910,-4
2021-09-22 19:57:14.847916,-31
2021-09-22 19:57:14.847922,-53
2021-09-22 19:57:14.847928,-51
2021-09-22 19:57:14.847934,-43
2021-09-22 19:57:14.847939,-41
2021-09-22 19:57:14.847945,-43
2021-09-22 19:57:14.847951,-41
2021-09-22 19:57:14.847957,-41
2021-09-22 19:57:14.847963,-38
2021-09-22 19:57:14.847969,-29
2021-09-22 19:57:14.847975,0
2021-09-22 19:57:14.847980,85
2021-09-22 19:57:14.847986,248
2021-09-22 19:57:14.847992,506
2021-09-22 19:57:14.847998,664
2021-09-22 19:57:14.848004,413
2021-09-22 19:57:15.073454,-184
2021-09-22 19:57:15.073474,-676
2021-09-22 19:57:15.073481,-627
2021-09-22 19:57:15.073487,-226
2021-09-22 19:57:15.073493,-46
2021-09-22 19:57:15.073499,-41
2021-09-22 19:57:15.073505,68
2021-09-22 19:57:15.073510,141
2021-09-22 19:57:15.073516,102
2021-09-22 19:57:15.073521,104
2021-09-22 19:57:15.073527,148
2021-09-22 19:57:15.073532,150
2021-09-22 19:57:15.073537,153
2021-09-22 19:57:15.073542,175
2021-09-22 19:57:15.073547,177
2021-09-22 19:57:15.073552,177
2021-09-22 19:57:15.073557,197
2021-09-22 19:57:15.073562,216
2021-09-22 19:57:15.073568,236
2021-09-22 19:57:15.073573,255
2021-09-22 19:57:15.073579,267
2021-09-22 19:57:15.073584,289
2021-09-22 19:57:15.073589,328
2021-09-22 19:57:15.073595,362
2021-09-22 19:57:15.073600,391
2021-09-22 19:57:15.073605,423
2021-09-22 19:57:15.073610,442
2021-09-22 19:57:15.073616,457
2021-09-22 19:57:15.073621,464
2021-09-22 19:57:15.073627,459
2021-09-22 19:57:15.342109,437
2021-09-22 19:57:15.342130,391
2021-09-22 19:57:15.342138,328
2021-09-22 19:57:15.342144,238
2021-09-22 19:57:15.342150,124
2021-09-22 19:57:15.342156,17
2021-09-22 19:57:15.342163,-80
2021-09-22 19:57:15.342169,-172
2021-09-22 19:57:15.342174,-238
2021-09-22 19:57:15.342180,-272
2021-09-22 19:57:15.342186,-287
2021-09-22 19:57:15.342192,-289
2021-09-22 19:57:15.342198,-289
2021-09-22 19:57:15.342204,-287
2021-09-22 19:57:15.342210,-284
2021-09-22 19:57:15.342216,-272
2021-09-22 19:57:15.342222,-253
2021-09-22 19:57:15.342228,-238
2021-09-22 19:57:15.342234,-223
2021-09-22 19:57:15.342240,-211
2021-09-22 19:57:15.342246,-201
2021-09-22 19:57:15.342252,-187
2021-09-22 19:57:15.342258,-175
2021-09-22 19:57:15.342264,-170
2021-09-22 19:57:15.342269,-160
2021-09-22 19:57:15.342275,-148
2021-09-22 19:57:15.342281,-141
2021-09-22 19:57:15.342287,-141
2021-09-22 19:57:15.342293,-138
2021-09-22 19:57:15.342299,-131
2021-09-22 19:57:15.478424,-131
2021-09-22 19:57:15.478444,-133
2021-09-22 19:57:15.478451,-133
2021-09-22 19:57:15.478457,-128
2021-09-22 19:57:15.478463,-126
2021-09-22 19:57:15.478468,-128
2021-09-22 19:57:15.478474,-128
2021-09-22 19:57:15.478480,-126
2021-09-22 19:57:15.478571,-124
2021-09-22 19:57:15.478578,-121
2021-09-22 19:57:15.478584,-114
2021-09-22 19:57:15.478590,-107
2021-09-22 19:57:15.478596,-111
2021-09-22 19:57:15.478601,-114
2021-09-22 19:57:15.478607,-107
2021-09-22 19:57:15.478613,-99
2021-09-22 19:57:15.478619,-97
2021-09-22 19:57:15.478625,-92
2021-09-22 19:57:15.478631,-90
2021-09-22 19:57:15.478636,-87
2021-09-22 19:57:15.478642,-82
2021-09-22 19:57:15.478648,-77
2021-09-22 19:57:15.478654,-72
2021-09-22 19:57:15.478660,-70
2021-09-22 19:57:15.478666,-68
2021-09-22 19:57:15.478672,-65
2021-09-22 19:57:15.478677,-60
2021-09-22 19:57:15.478683,-60
2021-09-22 19:57:15.478689,-55
2021-09-22 19:57:15.478695,-51
2021-09-22 19:57:15.793478,-48
2021-09-22 19:57:15.793499,-41
2021-09-22 19:57:15.793506,-41
2021-09-22 19:57:15.793512,-48
2021-09-22 19:57:15.793518,-51
2021-09-22 19:57:15.793524,-48
2021-09-22 19:57:15.793530,-51
2021-09-22 19:57:15.793536,-31
2021-09-22 19:57:15.793542,-2
2021-09-22 19:57:15.793548,2
2021-09-22 19:57:15.793554,-9
2021-09-22 19:57:15.793559,-7
2021-09-22 19:57:15.793565,-4
2021-09-22 19:57:15.793571,-21
2021-09-22 19:57:15.793577,-36
2021-09-22 19:57:15.793583,-41
2021-09-22 19:57:15.793589,-43
2021-09-22 19:57:15.793595,-41
2021-09-22 19:57:15.793601,-41
2021-09-22 19:57:15.793607,-46
2021-09-22 19:57:15.793613,-53
2021-09-22 19:57:15.793618,-51
2021-09-22 19:57:15.793624,-43
2021-09-22 19:57:15.793630,-29
2021-09-22 19:57:15.793636,19
2021-09-22 19:57:15.793641,136
2021-09-22 19:57:15.793647,360
2021-09-22 19:57:15.793653,627
2021-09-22 19:57:15.793659,615
2021-09-22 19:57:15.793665,153
2021-09-22 19:57:15.928741,-481
2021-09-22 19:57:15.928757,-744
2021-09-22 19:57:15.928764,-425
2021-09-22 19:57:15.928770,-87
2021-09-22 19:57:15.928776,-51
2021-09-22 19:57:15.928782,0
2021-09-22 19:57:15.928788,116
2021-09-22 19:57:15.928794,131
2021-09-22 19:57:15.928800,114
2021-09-22 19:57:15.928806,148
2021-09-22 19:57:15.928812,165
2021-09-22 19:57:15.928818,163
2021-09-22 19:57:15.928824,177
2021-09-22 19:57:15.928830,194
2021-09-22 19:57:15.928836,204
2021-09-22 19:57:15.928841,218
2021-09-22 19:57:15.928847,231
2021-09-22 19:57:15.928853,240
2021-09-22 19:57:15.928859,257
2021-09-22 19:57:15.928865,284
2021-09-22 19:57:15.928871,309
2021-09-22 19:57:15.928877,333
2021-09-22 19:57:15.928883,360
2021-09-22 19:57:15.928888,389
2021-09-22 19:57:15.928894,420
2021-09-22 19:57:15.928900,450
2021-09-22 19:57:15.928906,469
