Time,ECG
2021-09-27 10:43:05.223911,90
2021-09-27 10:43:05.223942,117
2021-09-27 10:43:05.223954,146
2021-09-27 10:43:05.223964,163
2021-09-27 10:43:05.223974,190
2021-09-27 10:43:05.223983,237
2021-09-27 10:43:05.223993,288
2021-09-27 10:43:05.224018,342
2021-09-27 10:43:05.224028,393
2021-09-27 10:43:05.224038,440
2021-09-27 10:43:05.224048,486
2021-09-27 10:43:05.224057,533
2021-09-27 10:43:05.224067,562
2021-09-27 10:43:05.224077,579
2021-09-27 10:43:05.224086,577
2021-09-27 10:43:05.224096,530
2021-09-27 10:43:05.224106,435
2021-09-27 10:43:05.224120,305
2021-09-27 10:43:05.224130,149
2021-09-27 10:43:05.224140,-4
2021-09-27 10:43:05.224150,-132
2021-09-27 10:43:05.224160,-229
2021-09-27 10:43:05.224170,-291
2021-09-27 10:43:05.224179,-315
2021-09-27 10:43:05.224189,-330
2021-09-27 10:43:05.224199,-339
2021-09-27 10:43:05.224208,-332
2021-09-27 10:43:05.224218,-320
2021-09-27 10:43:05.224228,-308
2021-09-27 10:43:05.224237,-291
2021-09-27 10:43:05.492211,-273
2021-09-27 10:43:05.492231,-259
2021-09-27 10:43:05.492239,-256
2021-09-27 10:43:05.492246,-259
2021-09-27 10:43:05.492252,-256
2021-09-27 10:43:05.492259,-249
2021-09-27 10:43:05.492265,-232
2021-09-27 10:43:05.492271,-215
2021-09-27 10:43:05.492278,-217
2021-09-27 10:43:05.492284,-217
2021-09-27 10:43:05.492291,-202
2021-09-27 10:43:05.492297,-188
2021-09-27 10:43:05.492303,-178
2021-09-27 10:43:05.492310,-171
2021-09-27 10:43:05.492316,-178
2021-09-27 10:43:05.492322,-183
2021-09-27 10:43:05.492329,-171
2021-09-27 10:43:05.492335,-158
2021-09-27 10:43:05.492342,-156
2021-09-27 10:43:05.492348,-154
2021-09-27 10:43:05.492354,-156
2021-09-27 10:43:05.492361,-156
2021-09-27 10:43:05.492367,-144
2021-09-27 10:43:05.492373,-132
2021-09-27 10:43:05.492380,-127
2021-09-27 10:43:05.492386,-124
2021-09-27 10:43:05.492393,-124
2021-09-27 10:43:05.492399,-127
2021-09-27 10:43:05.492406,-122
2021-09-27 10:43:05.492412,-110
2021-09-27 10:43:05.673828,-105
2021-09-27 10:43:05.673850,-102
2021-09-27 10:43:05.673858,-102
2021-09-27 10:43:05.673865,-100
2021-09-27 10:43:05.673871,-90
2021-09-27 10:43:05.673878,-85
2021-09-27 10:43:05.673884,-90
2021-09-27 10:43:05.673890,-88
2021-09-27 10:43:05.673897,-85
2021-09-27 10:43:05.673903,-88
2021-09-27 10:43:05.673910,-85
2021-09-27 10:43:05.673916,-73
2021-09-27 10:43:05.673922,-68
2021-09-27 10:43:05.673929,-73
2021-09-27 10:43:05.673935,-80
2021-09-27 10:43:05.673942,-80
2021-09-27 10:43:05.673948,-75
2021-09-27 10:43:05.673955,-68
2021-09-27 10:43:05.673961,-56
2021-09-27 10:43:05.673968,-46
2021-09-27 10:43:05.673974,-46
2021-09-27 10:43:05.673980,-39
2021-09-27 10:43:05.673987,-29
2021-09-27 10:43:05.673993,-29
2021-09-27 10:43:05.674000,-41
2021-09-27 10:43:05.674006,-56
2021-09-27 10:43:05.674012,-68
2021-09-27 10:43:05.674019,-66
2021-09-27 10:43:05.674025,-63
2021-09-27 10:43:05.674032,-63
2021-09-27 10:43:05.898923,-56
2021-09-27 10:43:05.898955,-48
2021-09-27 10:43:05.898967,-63
2021-09-27 10:43:05.898978,-124
2021-09-27 10:43:05.898988,-151
2021-09-27 10:43:05.898998,149
2021-09-27 10:43:05.899008,956
2021-09-27 10:43:05.899018,1905
2021-09-27 10:43:05.899028,2242
2021-09-27 10:43:05.899038,1107
2021-09-27 10:43:05.899048,-716
2021-09-27 10:43:05.899058,-1009
2021-09-27 10:43:05.899068,-215
2021-09-27 10:43:05.899078,-171
2021-09-27 10:43:05.899088,-366
2021-09-27 10:43:05.899098,-149
2021-09-27 10:43:05.899108,-66
2021-09-27 10:43:05.899132,-154
2021-09-27 10:43:05.899143,-107
2021-09-27 10:43:05.899153,-48
2021-09-27 10:43:05.899163,-63
2021-09-27 10:43:05.899173,-44
2021-09-27 10:43:05.899183,-9
2021-09-27 10:43:05.899193,0
2021-09-27 10:43:05.899202,14
2021-09-27 10:43:05.899212,41
2021-09-27 10:43:05.899222,61
2021-09-27 10:43:05.899232,83
2021-09-27 10:43:05.899242,110
2021-09-27 10:43:05.899252,139
2021-09-27 10:43:06.123843,168
2021-09-27 10:43:06.123875,200
2021-09-27 10:43:06.123887,237
2021-09-27 10:43:06.123897,283
2021-09-27 10:43:06.123906,339
2021-09-27 10:43:06.123916,405
2021-09-27 10:43:06.123926,454
2021-09-27 10:43:06.123936,489
2021-09-27 10:43:06.123945,535
2021-09-27 10:43:06.123955,572
2021-09-27 10:43:06.123965,579
2021-09-27 10:43:06.123974,564
2021-09-27 10:43:06.123984,511
2021-09-27 10:43:06.123994,403
2021-09-27 10:43:06.124003,256
2021-09-27 10:43:06.124013,97
2021-09-27 10:43:06.124023,-53
2021-09-27 10:43:06.124033,-171
2021-09-27 10:43:06.124042,-251
2021-09-27 10:43:06.124052,-300
2021-09-27 10:43:06.124062,-325
2021-09-27 10:43:06.124071,-332
2021-09-27 10:43:06.124081,-325
2021-09-27 10:43:06.124091,-320
2021-09-27 10:43:06.124114,-310
2021-09-27 10:43:06.124125,-295
2021-09-27 10:43:06.124135,-281
2021-09-27 10:43:06.124144,-266
2021-09-27 10:43:06.124154,-251
2021-09-27 10:43:06.124164,-239
2021-09-27 10:43:06.393899,-227
2021-09-27 10:43:06.393931,-212
2021-09-27 10:43:06.393942,-205
2021-09-27 10:43:06.393952,-202
2021-09-27 10:43:06.393962,-188
2021-09-27 10:43:06.393971,-180
2021-09-27 10:43:06.393981,-190
2021-09-27 10:43:06.393991,-183
2021-09-27 10:43:06.394001,-176
2021-09-27 10:43:06.394010,-178
2021-09-27 10:43:06.394020,-173
2021-09-27 10:43:06.394029,-171
2021-09-27 10:43:06.394039,-176
2021-09-27 10:43:06.394049,-171
2021-09-27 10:43:06.394058,-161
2021-09-27 10:43:06.394068,-168
2021-09-27 10:43:06.394078,-176
2021-09-27 10:43:06.394087,-173
2021-09-27 10:43:06.394097,-166
2021-09-27 10:43:06.394107,-163
2021-09-27 10:43:06.394116,-156
2021-09-27 10:43:06.394126,-151
2021-09-27 10:43:06.394136,-149
2021-09-27 10:43:06.394145,-141
2021-09-27 10:43:06.394155,-136
2021-09-27 10:43:06.394165,-127
2021-09-27 10:43:06.394174,-117
2021-09-27 10:43:06.394184,-117
2021-09-27 10:43:06.394194,-117
2021-09-27 10:43:06.394204,-114
2021-09-27 10:43:06.573914,-107
2021-09-27 10:43:06.573947,-92
2021-09-27 10:43:06.573994,-88
2021-09-27 10:43:06.574006,-92
2021-09-27 10:43:06.574015,-92
2021-09-27 10:43:06.574025,-90
2021-09-27 10:43:06.574035,-88
2021-09-27 10:43:06.574044,-80
2021-09-27 10:43:06.574054,-78
2021-09-27 10:43:06.574064,-78
2021-09-27 10:43:06.574074,-78
2021-09-27 10:43:06.574083,-80
2021-09-27 10:43:06.574093,-80
2021-09-27 10:43:06.574103,-68
2021-09-27 10:43:06.574113,-66
2021-09-27 10:43:06.574122,-70
2021-09-27 10:43:06.574132,-70
2021-09-27 10:43:06.574142,-66
2021-09-27 10:43:06.574151,-56
2021-09-27 10:43:06.574161,-46
2021-09-27 10:43:06.574171,-41
2021-09-27 10:43:06.574180,-36
2021-09-27 10:43:06.574190,-39
2021-09-27 10:43:06.574200,-53
2021-09-27 10:43:06.574210,-68
2021-09-27 10:43:06.574219,-66
2021-09-27 10:43:06.574229,-58
2021-09-27 10:43:06.574239,-56
2021-09-27 10:43:06.574249,-56
2021-09-27 10:43:06.574259,-51
2021-09-27 10:43:06.798835,-41
2021-09-27 10:43:06.798857,-51
2021-09-27 10:43:06.798864,-107
2021-09-27 10:43:06.798871,-141
2021-09-27 10:43:06.798877,122
2021-09-27 10:43:06.798884,882
2021-09-27 10:43:06.798890,1831
2021-09-27 10:43:06.798897,2242
2021-09-27 10:43:06.798903,1212
2021-09-27 10:43:06.798910,-618
2021-09-27 10:43:06.798916,-1031
2021-09-27 10:43:06.798922,-246
2021-09-27 10:43:06.798929,-136
2021-09-27 10:43:06.798935,-344
2021-09-27 10:43:06.798942,-144
2021-09-27 10:43:06.798948,-53
2021-09-27 10:43:06.798955,-151
2021-09-27 10:43:06.798961,-102
2021-09-27 10:43:06.798967,-26
2021-09-27 10:43:06.798974,-41
2021-09-27 10:43:06.798980,-31
2021-09-27 10:43:06.798987,-2
2021-09-27 10:43:06.798993,-7
2021-09-27 10:43:06.799000,0
2021-09-27 10:43:06.799006,39
2021-09-27 10:43:06.799013,70
2021-09-27 10:43:06.799019,83
2021-09-27 10:43:06.799025,102
2021-09-27 10:43:06.799032,132
2021-09-27 10:43:06.799038,168
2021-09-27 10:43:07.068835,207
2021-09-27 10:43:07.068866,246
2021-09-27 10:43:07.068878,295
2021-09-27 10:43:07.068888,337
2021-09-27 10:43:07.068898,381
2021-09-27 10:43:07.068908,442
2021-09-27 10:43:07.068918,501
2021-09-27 10:43:07.068927,545
2021-09-27 10:43:07.068937,569
2021-09-27 10:43:07.068947,562
2021-09-27 10:43:07.068957,538
2021-09-27 10:43:07.068966,503
2021-09-27 10:43:07.068976,418
2021-09-27 10:43:07.068986,278
2021-09-27 10:43:07.068996,119
2021-09-27 10:43:07.069005,-34
2021-09-27 10:43:07.069015,-161
2021-09-27 10:43:07.069039,-244
2021-09-27 10:43:07.069050,-295
2021-09-27 10:43:07.069060,-322
2021-09-27 10:43:07.069070,-335
2021-09-27 10:43:07.069079,-337
2021-09-27 10:43:07.069089,-327
2021-09-27 10:43:07.069099,-313
2021-09-27 10:43:07.069109,-295
2021-09-27 10:43:07.069118,-281
2021-09-27 10:43:07.069128,-273
2021-09-27 10:43:07.069138,-264
2021-09-27 10:43:07.069148,-244
2021-09-27 10:43:07.069158,-224
2021-09-27 10:43:07.293849,-215
2021-09-27 10:43:07.293872,-202
2021-09-27 10:43:07.293879,-188
2021-09-27 10:43:07.293886,-178
2021-09-27 10:43:07.293892,-168
2021-09-27 10:43:07.293899,-156
2021-09-27 10:43:07.293905,-151
2021-09-27 10:43:07.293911,-149
2021-09-27 10:43:07.293917,-154
2021-09-27 10:43:07.293924,-163
2021-09-27 10:43:07.293930,-171
2021-09-27 10:43:07.293936,-178
2021-09-27 10:43:07.293942,-171
2021-09-27 10:43:07.293949,-161
2021-09-27 10:43:07.293955,-168
2021-09-27 10:43:07.293961,-178
2021-09-27 10:43:07.293967,-166
2021-09-27 10:43:07.293973,-151
2021-09-27 10:43:07.293980,-151
2021-09-27 10:43:07.293986,-149
2021-09-27 10:43:07.293992,-146
2021-09-27 10:43:07.293998,-139
2021-09-27 10:43:07.294005,-129
2021-09-27 10:43:07.294011,-122
2021-09-27 10:43:07.294017,-119
2021-09-27 10:43:07.294023,-119
2021-09-27 10:43:07.294029,-119
2021-09-27 10:43:07.294036,-122
2021-09-27 10:43:07.294042,-129
2021-09-27 10:43:07.294048,-124
2021-09-27 10:43:07.562602,-110
2021-09-27 10:43:07.562634,-107
2021-09-27 10:43:07.562646,-114
2021-09-27 10:43:07.562656,-110
2021-09-27 10:43:07.562666,-95
2021-09-27 10:43:07.562676,-88
2021-09-27 10:43:07.562686,-85
2021-09-27 10:43:07.562695,-85
2021-09-27 10:43:07.562705,-92
2021-09-27 10:43:07.562715,-92
2021-09-27 10:43:07.562725,-83
2021-09-27 10:43:07.562734,-78
2021-09-27 10:43:07.562744,-83
2021-09-27 10:43:07.562754,-90
2021-09-27 10:43:07.562763,-88
2021-09-27 10:43:07.562773,-70
2021-09-27 10:43:07.562783,-58
2021-09-27 10:43:07.562792,-56
2021-09-27 10:43:07.562802,-48
2021-09-27 10:43:07.562812,-46
2021-09-27 10:43:07.562821,-61
2021-09-27 10:43:07.562831,-78
2021-09-27 10:43:07.562841,-85
2021-09-27 10:43:07.562850,-75
2021-09-27 10:43:07.562860,-66
2021-09-27 10:43:07.562870,-66
2021-09-27 10:43:07.562880,-63
2021-09-27 10:43:07.562889,-53
2021-09-27 10:43:07.562899,-56
2021-09-27 10:43:07.562909,-88
2021-09-27 10:43:07.743898,-139
2021-09-27 10:43:07.743930,7
2021-09-27 10:43:07.743941,626
2021-09-27 10:43:07.743952,1562
2021-09-27 10:43:07.743961,2215
2021-09-27 10:43:07.743971,1665
2021-09-27 10:43:07.743981,-149
2021-09-27 10:43:07.743991,-1144
2021-09-27 10:43:07.744001,-479
2021-09-27 10:43:07.744010,-80
2021-09-27 10:43:07.744020,-332
2021-09-27 10:43:07.744030,-220
2021-09-27 10:43:07.744040,-26
2021-09-27 10:43:07.744049,-102
2021-09-27 10:43:07.744059,-122
2021-09-27 10:43:07.744069,-51
2021-09-27 10:43:07.744078,-48
2021-09-27 10:43:07.744088,-48
2021-09-27 10:43:07.744098,-9
2021-09-27 10:43:07.744107,9
2021-09-27 10:43:07.744117,17
2021-09-27 10:43:07.744127,41
2021-09-27 10:43:07.744136,75
2021-09-27 10:43:07.744146,100
2021-09-27 10:43:07.744156,119
2021-09-27 10:43:07.744165,144
2021-09-27 10:43:07.744175,180
2021-09-27 10:43:07.744185,215
2021-09-27 10:43:07.744195,251
2021-09-27 10:43:07.744205,298
2021-09-27 10:43:07.968906,354
2021-09-27 10:43:07.968938,408
2021-09-27 10:43:07.968950,464
2021-09-27 10:43:07.968960,506
2021-09-27 10:43:07.968970,538
2021-09-27 10:43:07.968980,569
2021-09-27 10:43:07.968989,586
2021-09-27 10:43:07.968999,574
2021-09-27 10:43:07.969009,540
2021-09-27 10:43:07.969018,454
2021-09-27 10:43:07.969028,315
2021-09-27 10:43:07.969038,154
2021-09-27 10:43:07.969048,-4
2021-09-27 10:43:07.969057,-144
2021-09-27 10:43:07.969067,-239
2021-09-27 10:43:07.969077,-293
2021-09-27 10:43:07.969086,-332
2021-09-27 10:43:07.969096,-349
2021-09-27 10:43:07.969106,-349
2021-09-27 10:43:07.969115,-342
2021-09-27 10:43:07.969125,-337
2021-09-27 10:43:07.969135,-327
2021-09-27 10:43:07.969144,-313
2021-09-27 10:43:07.969154,-293
2021-09-27 10:43:07.969164,-278
2021-09-27 10:43:07.969173,-264
2021-09-27 10:43:07.969183,-239
2021-09-27 10:43:07.969192,-220
2021-09-27 10:43:07.969202,-212
2021-09-27 10:43:07.969212,-200
2021-09-27 10:43:08.193886,-180
2021-09-27 10:43:08.193909,-168
2021-09-27 10:43:08.193917,-163
2021-09-27 10:43:08.193923,-161
2021-09-27 10:43:08.193930,-154
2021-09-27 10:43:08.193936,-158
2021-09-27 10:43:08.193942,-176
2021-09-27 10:43:08.193949,-173
2021-09-27 10:43:08.193955,-158
2021-09-27 10:43:08.193961,-158
2021-09-27 10:43:08.193968,-158
2021-09-27 10:43:08.193974,-154
2021-09-27 10:43:08.193980,-163
2021-09-27 10:43:08.193986,-163
2021-09-27 10:43:08.193993,-149
2021-09-27 10:43:08.193999,-139
2021-09-27 10:43:08.194005,-139
2021-09-27 10:43:08.194020,-144
2021-09-27 10:43:08.194027,-141
2021-09-27 10:43:08.194033,-136
2021-09-27 10:43:08.194039,-136
2021-09-27 10:43:08.194046,-134
2021-09-27 10:43:08.194052,-122
2021-09-27 10:43:08.194058,-117
2021-09-27 10:43:08.194064,-117
2021-09-27 10:43:08.194071,-110
2021-09-27 10:43:08.194077,-102
2021-09-27 10:43:08.194083,-97
2021-09-27 10:43:08.194090,-90
2021-09-27 10:43:08.194096,-88
2021-09-27 10:43:08.418808,-88
2021-09-27 10:43:08.418840,-80
2021-09-27 10:43:08.418851,-78
2021-09-27 10:43:08.418861,-75
2021-09-27 10:43:08.418871,-73
2021-09-27 10:43:08.418881,-80
2021-09-27 10:43:08.418891,-85
2021-09-27 10:43:08.418901,-66
2021-09-27 10:43:08.418911,-51
2021-09-27 10:43:08.418920,-63
2021-09-27 10:43:08.418930,-73
2021-09-27 10:43:08.418940,-68
2021-09-27 10:43:08.418950,-68
2021-09-27 10:43:08.418960,-75
2021-09-27 10:43:08.418969,-85
2021-09-27 10:43:08.418979,-90
2021-09-27 10:43:08.418989,-92
2021-09-27 10:43:08.418999,-83
2021-09-27 10:43:08.419008,-73
2021-09-27 10:43:08.419018,-66
2021-09-27 10:43:08.419028,-63
2021-09-27 10:43:08.419038,-78
2021-09-27 10:43:08.419047,-124
2021-09-27 10:43:08.419057,-180
2021-09-27 10:43:08.419067,4
2021-09-27 10:43:08.419077,704
2021-09-27 10:43:08.419087,1689
2021-09-27 10:43:08.419096,2259
2021-09-27 10:43:08.419106,1501
2021-09-27 10:43:08.419116,-342
2021-09-27 10:43:08.688827,-1107
2021-09-27 10:43:08.688850,-376
2021-09-27 10:43:08.688857,-92
2021-09-27 10:43:08.688864,-344
2021-09-27 10:43:08.688870,-200
2021-09-27 10:43:08.688877,-44
2021-09-27 10:43:08.688883,-124
2021-09-27 10:43:08.688912,-110
2021-09-27 10:43:08.688919,-31
2021-09-27 10:43:08.688925,-41
2021-09-27 10:43:08.688932,-51
2021-09-27 10:43:08.688938,-14
2021-09-27 10:43:08.688944,9
2021-09-27 10:43:08.688951,22
2021-09-27 10:43:08.688957,41
2021-09-27 10:43:08.688963,66
2021-09-27 10:43:08.688970,90
2021-09-27 10:43:08.688976,112
2021-09-27 10:43:08.688982,141
2021-09-27 10:43:08.688989,176
2021-09-27 10:43:08.688995,212
2021-09-27 10:43:08.689001,251
2021-09-27 10:43:08.689008,293
2021-09-27 10:43:08.689014,337
2021-09-27 10:43:08.689021,391
2021-09-27 10:43:08.689027,459
2021-09-27 10:43:08.689033,515
2021-09-27 10:43:08.689040,547
2021-09-27 10:43:08.689046,572
2021-09-27 10:43:08.689052,596
2021-09-27 10:43:08.868781,594
2021-09-27 10:43:08.868813,547
2021-09-27 10:43:08.868825,449
2021-09-27 10:43:08.868835,303
2021-09-27 10:43:08.868845,141
2021-09-27 10:43:08.868855,-4
2021-09-27 10:43:08.868864,-129
2021-09-27 10:43:08.868874,-217
2021-09-27 10:43:08.868884,-273
2021-09-27 10:43:08.868894,-317
2021-09-27 10:43:08.868904,-339
2021-09-27 10:43:08.868914,-327
2021-09-27 10:43:08.868923,-313
2021-09-27 10:43:08.868933,-313
2021-09-27 10:43:08.868943,-320
2021-09-27 10:43:08.868953,-325
2021-09-27 10:43:08.868962,-308
2021-09-27 10:43:08.868972,-278
2021-09-27 10:43:08.868982,-264
2021-09-27 10:43:08.868991,-249
2021-09-27 10:43:08.869001,-229
2021-09-27 10:43:08.869011,-217
2021-09-27 10:43:08.869021,-207
2021-09-27 10:43:08.869031,-190
2021-09-27 10:43:08.869040,-178
2021-09-27 10:43:08.869050,-173
2021-09-27 10:43:08.869060,-173
2021-09-27 10:43:08.869091,-168
2021-09-27 10:43:08.869102,-156
2021-09-27 10:43:08.869111,-154
2021-09-27 10:43:09.138942,-158
2021-09-27 10:43:09.138975,-156
2021-09-27 10:43:09.138987,-158
2021-09-27 10:43:09.138998,-173
2021-09-27 10:43:09.139008,-171
2021-09-27 10:43:09.139018,-158
2021-09-27 10:43:09.139028,-154
2021-09-27 10:43:09.139037,-149
2021-09-27 10:43:09.139047,-151
2021-09-27 10:43:09.139057,-161
2021-09-27 10:43:09.139067,-149
2021-09-27 10:43:09.139077,-129
2021-09-27 10:43:09.139087,-129
2021-09-27 10:43:09.139111,-124
2021-09-27 10:43:09.139122,-114
2021-09-27 10:43:09.139132,-122
2021-09-27 10:43:09.139142,-122
2021-09-27 10:43:09.139151,-110
2021-09-27 10:43:09.139161,-95
2021-09-27 10:43:09.139171,-90
2021-09-27 10:43:09.139181,-92
2021-09-27 10:43:09.139191,-92
2021-09-27 10:43:09.139200,-83
2021-09-27 10:43:09.139210,-78
2021-09-27 10:43:09.139220,-78
2021-09-27 10:43:09.139230,-70
2021-09-27 10:43:09.139239,-66
2021-09-27 10:43:09.139249,-75
2021-09-27 10:43:09.139259,-80
2021-09-27 10:43:09.139269,-68
2021-09-27 10:43:09.363789,-58
2021-09-27 10:43:09.363821,-53
2021-09-27 10:43:09.363832,-46
2021-09-27 10:43:09.363843,-41
2021-09-27 10:43:09.363852,-34
2021-09-27 10:43:09.363862,-24
2021-09-27 10:43:09.363872,-26
2021-09-27 10:43:09.363882,-41
2021-09-27 10:43:09.363891,-66
2021-09-27 10:43:09.363901,-78
2021-09-27 10:43:09.363911,-73
2021-09-27 10:43:09.363920,-63
2021-09-27 10:43:09.363930,-53
2021-09-27 10:43:09.363939,-46
2021-09-27 10:43:09.363949,-56
2021-09-27 10:43:09.363959,-68
2021-09-27 10:43:09.363969,-105
2021-09-27 10:43:09.363978,-166
2021-09-27 10:43:09.363988,4
2021-09-27 10:43:09.363998,696
2021-09-27 10:43:09.364008,1689
2021-09-27 10:43:09.364017,2271
2021-09-27 10:43:09.364027,1543
2021-09-27 10:43:09.364037,-278
2021-09-27 10:43:09.364046,-1090
2021-09-27 10:43:09.364056,-393
2021-09-27 10:43:09.364066,-80
2021-09-27 10:43:09.364076,-330
2021-09-27 10:43:09.364085,-198
2021-09-27 10:43:09.364095,-39
2021-09-27 10:43:09.632607,-127
2021-09-27 10:43:09.632638,-122
2021-09-27 10:43:09.632650,-41
2021-09-27 10:43:09.632660,-48
2021-09-27 10:43:09.632670,-48
2021-09-27 10:43:09.632680,-4
2021-09-27 10:43:09.632690,12
2021-09-27 10:43:09.632699,17
2021-09-27 10:43:09.632709,31
2021-09-27 10:43:09.632719,53
2021-09-27 10:43:09.632729,75
2021-09-27 10:43:09.632739,107
2021-09-27 10:43:09.632749,136
2021-09-27 10:43:09.632758,151
2021-09-27 10:43:09.632768,178
2021-09-27 10:43:09.632778,229
2021-09-27 10:43:09.632788,283
2021-09-27 10:43:09.632797,327
2021-09-27 10:43:09.632807,383
2021-09-27 10:43:09.632817,445
2021-09-27 10:43:09.632827,496
2021-09-27 10:43:09.632837,535
2021-09-27 10:43:09.632846,569
2021-09-27 10:43:09.632856,589
2021-09-27 10:43:09.632866,584
2021-09-27 10:43:09.632876,540
2021-09-27 10:43:09.632886,449
2021-09-27 10:43:09.632895,310
2021-09-27 10:43:09.632905,149
2021-09-27 10:43:09.632915,4
2021-09-27 10:43:09.813898,-114
2021-09-27 10:43:09.813931,-210
2021-09-27 10:43:09.813942,-276
2021-09-27 10:43:09.813952,-305
2021-09-27 10:43:09.813962,-315
2021-09-27 10:43:09.813971,-325
2021-09-27 10:43:09.813981,-330
2021-09-27 10:43:09.814005,-320
2021-09-27 10:43:09.814016,-305
2021-09-27 10:43:09.814025,-291
2021-09-27 10:43:09.814035,-271
2021-09-27 10:43:09.814045,-254
2021-09-27 10:43:09.814054,-254
2021-09-27 10:43:09.814064,-246
2021-09-27 10:43:09.814073,-224
2021-09-27 10:43:09.814083,-210
2021-09-27 10:43:09.814093,-202
2021-09-27 10:43:09.814102,-190
2021-09-27 10:43:09.814112,-178
2021-09-27 10:43:09.814121,-168
2021-09-27 10:43:09.814131,-156
2021-09-27 10:43:09.814141,-149
2021-09-27 10:43:09.814150,-144
2021-09-27 10:43:09.814160,-136
2021-09-27 10:43:09.814169,-136
2021-09-27 10:43:09.814179,-139
2021-09-27 10:43:09.814188,-149
2021-09-27 10:43:09.814198,-163
2021-09-27 10:43:09.814208,-163
2021-09-27 10:43:09.814217,-156
2021-09-27 10:43:10.128304,-154
2021-09-27 10:43:10.128369,-151
2021-09-27 10:43:10.128380,-149
2021-09-27 10:43:10.128390,-151
2021-09-27 10:43:10.128400,-154
2021-09-27 10:43:10.128410,-151
2021-09-27 10:43:10.128419,-154
2021-09-27 10:43:10.128429,-146
2021-09-27 10:43:10.128438,-136
2021-09-27 10:43:10.128448,-136
2021-09-27 10:43:10.128457,-129
2021-09-27 10:43:10.128467,-124
2021-09-27 10:43:10.128476,-127
2021-09-27 10:43:10.128486,-124
2021-09-27 10:43:10.128495,-114
2021-09-27 10:43:10.128505,-107
2021-09-27 10:43:10.128514,-102
2021-09-27 10:43:10.128524,-95
2021-09-27 10:43:10.128533,-90
2021-09-27 10:43:10.128557,-92
2021-09-27 10:43:10.128568,-90
2021-09-27 10:43:10.128577,-83
2021-09-27 10:43:10.128587,-75
2021-09-27 10:43:10.128596,-73
2021-09-27 10:43:10.128606,-78
2021-09-27 10:43:10.128620,-70
2021-09-27 10:43:10.128630,-61
2021-09-27 10:43:10.128655,-58
2021-09-27 10:43:10.128661,-61
2021-09-27 10:43:10.128667,-63
2021-09-27 10:43:10.263907,-58
2021-09-27 10:43:10.263939,-44
2021-09-27 10:43:10.263951,-36
2021-09-27 10:43:10.263961,-34
2021-09-27 10:43:10.263971,-24
2021-09-27 10:43:10.263981,-24
2021-09-27 10:43:10.263990,-41
2021-09-27 10:43:10.264047,-48
2021-09-27 10:43:10.264059,-51
2021-09-27 10:43:10.264070,-56
2021-09-27 10:43:10.264077,-56
2021-09-27 10:43:10.264083,-61
2021-09-27 10:43:10.264089,-61
2021-09-27 10:43:10.264095,-48
2021-09-27 10:43:10.264102,-41
2021-09-27 10:43:10.264108,-53
2021-09-27 10:43:10.264114,-105
2021-09-27 10:43:10.264120,-163
2021-09-27 10:43:10.264126,44
2021-09-27 10:43:10.264132,784
2021-09-27 10:43:10.264139,1782
2021-09-27 10:43:10.264145,2301
2021-09-27 10:43:10.264151,1423
2021-09-27 10:43:10.264157,-420
2021-09-27 10:43:10.264163,-1041
2021-09-27 10:43:10.264169,-286
2021-09-27 10:43:10.264176,-83
2021-09-27 10:43:10.264182,-330
2021-09-27 10:43:10.264188,-161
2021-09-27 10:43:10.264194,-26
2021-09-27 10:43:10.533875,-114
2021-09-27 10:43:10.533907,-95
2021-09-27 10:43:10.533919,-39
2021-09-27 10:43:10.533929,-66
2021-09-27 10:43:10.533939,-61
2021-09-27 10:43:10.533949,-22
2021-09-27 10:43:10.533958,-7
2021-09-27 10:43:10.533968,0
2021-09-27 10:43:10.533978,19
2021-09-27 10:43:10.533988,39
2021-09-27 10:43:10.533998,51
2021-09-27 10:43:10.534007,70
2021-09-27 10:43:10.534017,112
2021-09-27 10:43:10.534044,151
2021-09-27 10:43:10.534055,183
2021-09-27 10:43:10.534064,222
2021-09-27 10:43:10.534074,269
2021-09-27 10:43:10.534084,320
2021-09-27 10:43:10.534093,381
2021-09-27 10:43:10.534103,440
2021-09-27 10:43:10.534113,489
2021-09-27 10:43:10.534122,530
2021-09-27 10:43:10.534132,555
2021-09-27 10:43:10.534141,577
2021-09-27 10:43:10.534151,586
2021-09-27 10:43:10.534161,542
2021-09-27 10:43:10.534171,442
2021-09-27 10:43:10.534180,303
2021-09-27 10:43:10.534190,141
2021-09-27 10:43:10.534199,-4
2021-09-27 10:43:10.803947,-119
2021-09-27 10:43:10.803980,-207
2021-09-27 10:43:10.803991,-266
2021-09-27 10:43:10.804001,-308
2021-09-27 10:43:10.804011,-344
2021-09-27 10:43:10.804020,-344
2021-09-27 10:43:10.804030,-322
2021-09-27 10:43:10.804039,-310
2021-09-27 10:43:10.804049,-305
2021-09-27 10:43:10.804058,-295
2021-09-27 10:43:10.804068,-283
2021-09-27 10:43:10.804078,-269
2021-09-27 10:43:10.804087,-251
2021-09-27 10:43:10.804097,-234
2021-09-27 10:43:10.804107,-222
2021-09-27 10:43:10.804116,-220
2021-09-27 10:43:10.804126,-217
2021-09-27 10:43:10.804135,-202
2021-09-27 10:43:10.804145,-185
2021-09-27 10:43:10.804155,-173
2021-09-27 10:43:10.804164,-166
2021-09-27 10:43:10.804174,-161
2021-09-27 10:43:10.804183,-156
2021-09-27 10:43:10.804193,-146
2021-09-27 10:43:10.804203,-146
2021-09-27 10:43:10.804212,-149
2021-09-27 10:43:10.804222,-146
2021-09-27 10:43:10.804231,-154
2021-09-27 10:43:10.804241,-163
2021-09-27 10:43:10.804251,-156
2021-09-27 10:43:11.028953,-146
2021-09-27 10:43:11.028984,-146
2021-09-27 10:43:11.028996,-144
2021-09-27 10:43:11.029006,-136
2021-09-27 10:43:11.029016,-132
2021-09-27 10:43:11.029025,-124
2021-09-27 10:43:11.029035,-119
2021-09-27 10:43:11.029060,-114
2021-09-27 10:43:11.029070,-129
2021-09-27 10:43:11.029080,-154
2021-09-27 10:43:11.029090,-146
2021-09-27 10:43:11.029100,-127
2021-09-27 10:43:11.029109,-129
2021-09-27 10:43:11.029119,-134
2021-09-27 10:43:11.029129,-136
2021-09-27 10:43:11.029138,-134
2021-09-27 10:43:11.029148,-119
2021-09-27 10:43:11.029158,-107
2021-09-27 10:43:11.029167,-110
2021-09-27 10:43:11.029177,-105
2021-09-27 10:43:11.029187,-97
2021-09-27 10:43:11.029196,-105
2021-09-27 10:43:11.029206,-105
2021-09-27 10:43:11.029216,-92
2021-09-27 10:43:11.029225,-85
2021-09-27 10:43:11.029235,-83
2021-09-27 10:43:11.029249,-80
2021-09-27 10:43:11.029259,-78
2021-09-27 10:43:11.029269,-78
2021-09-27 10:43:11.029279,-73
2021-09-27 10:43:11.208923,-66
2021-09-27 10:43:11.208956,-58
2021-09-27 10:43:11.208968,-53
2021-09-27 10:43:11.208979,-51
2021-09-27 10:43:11.208988,-44
2021-09-27 10:43:11.208998,-26
2021-09-27 10:43:11.209008,-24
2021-09-27 10:43:11.209017,-41
2021-09-27 10:43:11.209027,-70
2021-09-27 10:43:11.209037,-85
2021-09-27 10:43:11.209047,-70
2021-09-27 10:43:11.209056,-58
2021-09-27 10:43:11.209066,-61
2021-09-27 10:43:11.209076,-58
2021-09-27 10:43:11.209085,-58
2021-09-27 10:43:11.209095,-58
2021-09-27 10:43:11.209104,-73
2021-09-27 10:43:11.209114,-132
2021-09-27 10:43:11.209124,-100
2021-09-27 10:43:11.209133,352
2021-09-27 10:43:11.209143,1237
2021-09-27 10:43:11.209153,2059
2021-09-27 10:43:11.209163,1975
2021-09-27 10:43:11.209172,430
2021-09-27 10:43:11.209182,-1029
2021-09-27 10:43:11.209192,-721
2021-09-27 10:43:11.209201,-80
2021-09-27 10:43:11.209227,-251
2021-09-27 10:43:11.209238,-286
2021-09-27 10:43:11.209248,-51
2021-09-27 10:43:11.433829,-61
2021-09-27 10:43:11.433861,-112
2021-09-27 10:43:11.433873,-44
2021-09-27 10:43:11.433883,-22
2021-09-27 10:43:11.433893,-29
2021-09-27 10:43:11.433903,9
2021-09-27 10:43:11.433913,29
2021-09-27 10:43:11.433922,24
2021-09-27 10:43:11.433932,41
2021-09-27 10:43:11.433942,66
2021-09-27 10:43:11.433951,85
2021-09-27 10:43:11.433961,114
2021-09-27 10:43:11.433971,144
2021-09-27 10:43:11.433980,158
2021-09-27 10:43:11.433990,171
2021-09-27 10:43:11.434000,195
2021-09-27 10:43:11.434010,237
2021-09-27 10:43:11.434019,291
2021-09-27 10:43:11.434029,347
2021-09-27 10:43:11.434039,405
2021-09-27 10:43:11.434048,457
2021-09-27 10:43:11.434058,506
2021-09-27 10:43:11.434068,542
2021-09-27 10:43:11.434077,564
2021-09-27 10:43:11.434087,569
2021-09-27 10:43:11.434097,545
2021-09-27 10:43:11.434107,481
2021-09-27 10:43:11.434117,361
2021-09-27 10:43:11.434127,205
2021-09-27 10:43:11.434136,56
2021-09-27 10:43:11.747542,-73
2021-09-27 10:43:11.747574,-185
2021-09-27 10:43:11.747586,-261
2021-09-27 10:43:11.747596,-303
2021-09-27 10:43:11.747605,-322
2021-09-27 10:43:11.747615,-330
2021-09-27 10:43:11.747624,-332
2021-09-27 10:43:11.747634,-332
2021-09-27 10:43:11.747643,-320
2021-09-27 10:43:11.747653,-303
2021-09-27 10:43:11.747663,-283
2021-09-27 10:43:11.747672,-264
2021-09-27 10:43:11.747682,-256
2021-09-27 10:43:11.747691,-251
2021-09-27 10:43:11.747701,-237
2021-09-27 10:43:11.747710,-217
2021-09-27 10:43:11.747720,-202
2021-09-27 10:43:11.747730,-190
2021-09-27 10:43:11.747740,-195
2021-09-27 10:43:11.747749,-193
2021-09-27 10:43:11.747759,-173
2021-09-27 10:43:11.747768,-158
2021-09-27 10:43:11.747778,-163
2021-09-27 10:43:11.747787,-166
2021-09-27 10:43:11.747797,-161
2021-09-27 10:43:11.747806,-166
2021-09-27 10:43:11.747816,-168
2021-09-27 10:43:11.747825,-154
2021-09-27 10:43:11.747835,-149
2021-09-27 10:43:11.747844,-154
2021-09-27 10:43:11.883867,-154
2021-09-27 10:43:11.883899,-141
2021-09-27 10:43:11.883911,-136
2021-09-27 10:43:11.883921,-139
2021-09-27 10:43:11.883930,-134
2021-09-27 10:43:11.883940,-129
2021-09-27 10:43:11.883949,-129
2021-09-27 10:43:11.883959,-124
2021-09-27 10:43:11.883968,-117
2021-09-27 10:43:11.883978,-114
2021-09-27 10:43:11.883987,-110
2021-09-27 10:43:11.883997,-100
2021-09-27 10:43:11.884006,-100
2021-09-27 10:43:11.884016,-102
2021-09-27 10:43:11.884025,-92
2021-09-27 10:43:11.884035,-88
2021-09-27 10:43:11.884044,-88
2021-09-27 10:43:11.884053,-88
2021-09-27 10:43:11.884063,-90
2021-09-27 10:43:11.884072,-95
2021-09-27 10:43:11.884082,-100
2021-09-27 10:43:11.884091,-107
2021-09-27 10:43:11.884101,-97
2021-09-27 10:43:11.884110,-85
2021-09-27 10:43:11.884119,-85
2021-09-27 10:43:11.884129,-83
2021-09-27 10:43:11.884138,-75
2021-09-27 10:43:11.884148,-73
2021-09-27 10:43:11.884157,-66
2021-09-27 10:43:11.884167,-61
2021-09-27 10:43:12.108774,-68
2021-09-27 10:43:12.108806,-68
2021-09-27 10:43:12.108818,-56
2021-09-27 10:43:12.108828,-41
2021-09-27 10:43:12.108838,-41
2021-09-27 10:43:12.108848,-48
2021-09-27 10:43:12.108857,-44
2021-09-27 10:43:12.108879,-29
2021-09-27 10:43:12.108890,-31
2021-09-27 10:43:12.108900,-48
2021-09-27 10:43:12.108910,-61
2021-09-27 10:43:12.108919,-68
2021-09-27 10:43:12.108929,-68
2021-09-27 10:43:12.108939,-56
2021-09-27 10:43:12.108948,-48
2021-09-27 10:43:12.108958,-51
2021-09-27 10:43:12.108967,-46
2021-09-27 10:43:12.108977,-63
2021-09-27 10:43:12.108987,-136
2021-09-27 10:43:12.108996,-114
2021-09-27 10:43:12.109006,330
2021-09-27 10:43:12.109016,1232
2021-09-27 10:43:12.109026,2093
2021-09-27 10:43:12.109035,2046
2021-09-27 10:43:12.109045,530
2021-09-27 10:43:12.109055,-975
2021-09-27 10:43:12.109064,-736
2021-09-27 10:43:12.109074,-70
2021-09-27 10:43:12.109084,-229
2021-09-27 10:43:12.109093,-295
2021-09-27 10:43:12.333876,-56
2021-09-27 10:43:12.333907,-56
2021-09-27 10:43:12.333919,-122
2021-09-27 10:43:12.333929,-48
2021-09-27 10:43:12.333939,-24
2021-09-27 10:43:12.333949,-48
2021-09-27 10:43:12.333958,-19
2021-09-27 10:43:12.333968,17
2021-09-27 10:43:12.333978,26
2021-09-27 10:43:12.333988,36
2021-09-27 10:43:12.333998,51
2021-09-27 10:43:12.334007,66
2021-09-27 10:43:12.334017,97
2021-09-27 10:43:12.334027,129
2021-09-27 10:43:12.334037,151
2021-09-27 10:43:12.334046,180
2021-09-27 10:43:12.334056,220
2021-09-27 10:43:12.334066,256
2021-09-27 10:43:12.334075,305
2021-09-27 10:43:12.334085,364
2021-09-27 10:43:12.334095,420
2021-09-27 10:43:12.334105,464
2021-09-27 10:43:12.334114,511
2021-09-27 10:43:12.334124,550
2021-09-27 10:43:12.334134,562
2021-09-27 10:43:12.334143,555
2021-09-27 10:43:12.334153,528
2021-09-27 10:43:12.334177,467
2021-09-27 10:43:12.334188,357
2021-09-27 10:43:12.334198,217
2021-09-27 10:43:12.558857,68
2021-09-27 10:43:12.558890,-68
2021-09-27 10:43:12.558901,-180
2021-09-27 10:43:12.558912,-264
2021-09-27 10:43:12.558922,-315
2021-09-27 10:43:12.558932,-335
2021-09-27 10:43:12.558942,-332
2021-09-27 10:43:12.558952,-325
2021-09-27 10:43:12.558961,-320
2021-09-27 10:43:12.558971,-320
2021-09-27 10:43:12.558980,-313
2021-09-27 10:43:12.558990,-291
2021-09-27 10:43:12.559000,-266
2021-09-27 10:43:12.559009,-256
2021-09-27 10:43:12.559019,-244
2021-09-27 10:43:12.559029,-234
2021-09-27 10:43:12.559039,-224
2021-09-27 10:43:12.559048,-217
2021-09-27 10:43:12.559058,-212
2021-09-27 10:43:12.559068,-200
2021-09-27 10:43:12.559077,-185
2021-09-27 10:43:12.559087,-180
2021-09-27 10:43:12.559097,-178
2021-09-27 10:43:12.559106,-166
2021-09-27 10:43:12.559116,-156
2021-09-27 10:43:12.559125,-158
2021-09-27 10:43:12.559135,-166
2021-09-27 10:43:12.559145,-168
2021-09-27 10:43:12.559154,-156
2021-09-27 10:43:12.559164,-146
2021-09-27 10:43:12.828938,-144
2021-09-27 10:43:12.828970,-141
2021-09-27 10:43:12.828982,-141
2021-09-27 10:43:12.828992,-151
2021-09-27 10:43:12.829002,-154
2021-09-27 10:43:12.829011,-146
2021-09-27 10:43:12.829021,-141
2021-09-27 10:43:12.829031,-127
2021-09-27 10:43:12.829040,-112
2021-09-27 10:43:12.829050,-122
2021-09-27 10:43:12.829060,-127
2021-09-27 10:43:12.829070,-112
2021-09-27 10:43:12.829079,-105
2021-09-27 10:43:12.829089,-105
2021-09-27 10:43:12.829098,-97
2021-09-27 10:43:12.829108,-97
2021-09-27 10:43:12.829118,-92
2021-09-27 10:43:12.829128,-80
2021-09-27 10:43:12.829137,-75
2021-09-27 10:43:12.829147,-73
2021-09-27 10:43:12.829157,-73
2021-09-27 10:43:12.829166,-73
2021-09-27 10:43:12.829176,-68
2021-09-27 10:43:12.829185,-58
2021-09-27 10:43:12.829195,-53
2021-09-27 10:43:12.829204,-51
2021-09-27 10:43:12.829214,-51
2021-09-27 10:43:12.829223,-58
2021-09-27 10:43:12.829233,-61
2021-09-27 10:43:12.829243,-58
2021-09-27 10:43:13.053906,-51
2021-09-27 10:43:13.053938,-48
2021-09-27 10:43:13.053949,-63
2021-09-27 10:43:13.053959,-75
2021-09-27 10:43:13.053969,-61
2021-09-27 10:43:13.053979,-41
2021-09-27 10:43:13.053989,-36
2021-09-27 10:43:13.053999,-34
2021-09-27 10:43:13.054009,-39
2021-09-27 10:43:13.054018,-46
2021-09-27 10:43:13.054028,-44
2021-09-27 10:43:13.054038,-46
2021-09-27 10:43:13.054048,-58
2021-09-27 10:43:13.054058,-63
2021-09-27 10:43:13.054068,-58
2021-09-27 10:43:13.054077,-58
2021-09-27 10:43:13.054087,-56
2021-09-27 10:43:13.054097,-41
2021-09-27 10:43:13.054107,-44
2021-09-27 10:43:13.054116,-95
2021-09-27 10:43:13.054126,-161
2021-09-27 10:43:13.054136,7
2021-09-27 10:43:13.054146,699
2021-09-27 10:43:13.054156,1699
2021-09-27 10:43:13.054165,2293
2021-09-27 10:43:13.054175,1569
2021-09-27 10:43:13.054185,-254
2021-09-27 10:43:13.054195,-1058
2021-09-27 10:43:13.054204,-354
2021-09-27 10:43:13.054214,-58
2021-09-27 10:43:13.323960,-325
2021-09-27 10:43:13.323992,-195
2021-09-27 10:43:13.324004,-26
2021-09-27 10:43:13.324014,-112
2021-09-27 10:43:13.324023,-107
2021-09-27 10:43:13.324033,-24
2021-09-27 10:43:13.324042,-29
2021-09-27 10:43:13.324066,-39
2021-09-27 10:43:13.324077,-7
2021-09-27 10:43:13.324086,9
2021-09-27 10:43:13.324096,19
2021-09-27 10:43:13.324106,46
2021-09-27 10:43:13.324115,68
2021-09-27 10:43:13.324125,80
2021-09-27 10:43:13.324134,97
2021-09-27 10:43:13.324144,129
2021-09-27 10:43:13.324153,166
2021-09-27 10:43:13.324163,193
2021-09-27 10:43:13.324172,227
2021-09-27 10:43:13.324182,264
2021-09-27 10:43:13.324192,310
2021-09-27 10:43:13.324201,366
2021-09-27 10:43:13.324211,427
2021-09-27 10:43:13.324220,476
2021-09-27 10:43:13.324230,515
2021-09-27 10:43:13.324239,545
2021-09-27 10:43:13.324249,564
2021-09-27 10:43:13.324258,569
2021-09-27 10:43:13.324268,542
2021-09-27 10:43:13.324277,471
2021-09-27 10:43:13.503635,349
2021-09-27 10:43:13.503657,195
2021-09-27 10:43:13.503664,34
2021-09-27 10:43:13.503671,-102
2021-09-27 10:43:13.503678,-195
2021-09-27 10:43:13.503684,-256
2021-09-27 10:43:13.503691,-300
2021-09-27 10:43:13.503697,-330
2021-09-27 10:43:13.503703,-344
2021-09-27 10:43:13.503709,-339
2021-09-27 10:43:13.503716,-325
2021-09-27 10:43:13.503722,-315
2021-09-27 10:43:13.503729,-317
2021-09-27 10:43:13.503735,-310
2021-09-27 10:43:13.503741,-291
2021-09-27 10:43:13.503748,-273
2021-09-27 10:43:13.503754,-259
2021-09-27 10:43:13.503761,-239
2021-09-27 10:43:13.503767,-234
2021-09-27 10:43:13.503773,-234
2021-09-27 10:43:13.503779,-224
2021-09-27 10:43:13.503786,-205
2021-09-27 10:43:13.503792,-190
2021-09-27 10:43:13.503798,-183
2021-09-27 10:43:13.503805,-178
2021-09-27 10:43:13.503811,-173
2021-09-27 10:43:13.503817,-166
2021-09-27 10:43:13.503824,-161
2021-09-27 10:43:13.503830,-156
2021-09-27 10:43:13.503836,-149
2021-09-27 10:43:13.817579,-149
2021-09-27 10:43:13.817644,-144
2021-09-27 10:43:13.817656,-136
2021-09-27 10:43:13.817666,-139
2021-09-27 10:43:13.817675,-139
2021-09-27 10:43:13.817685,-141
2021-09-27 10:43:13.817695,-146
2021-09-27 10:43:13.817704,-144
2021-09-27 10:43:13.817714,-129
2021-09-27 10:43:13.817724,-124
2021-09-27 10:43:13.817734,-122
2021-09-27 10:43:13.817743,-117
2021-09-27 10:43:13.817753,-119
2021-09-27 10:43:13.817763,-117
2021-09-27 10:43:13.817772,-107
2021-09-27 10:43:13.817782,-105
2021-09-27 10:43:13.817792,-100
2021-09-27 10:43:13.817801,-95
2021-09-27 10:43:13.817811,-95
2021-09-27 10:43:13.817821,-88
2021-09-27 10:43:13.817830,-80
2021-09-27 10:43:13.817840,-75
2021-09-27 10:43:13.817850,-73
2021-09-27 10:43:13.817859,-68
2021-09-27 10:43:13.817869,-68
2021-09-27 10:43:13.817879,-63
2021-09-27 10:43:13.817889,-61
2021-09-27 10:43:13.817898,-58
2021-09-27 10:43:13.817908,-51
2021-09-27 10:43:13.817918,-48
2021-09-27 10:43:13.953956,-48
2021-09-27 10:43:13.953988,-46
2021-09-27 10:43:13.954000,-44
2021-09-27 10:43:13.954010,-48
2021-09-27 10:43:13.954020,-44
2021-09-27 10:43:13.954029,-29
2021-09-27 10:43:13.954039,-24
2021-09-27 10:43:13.954049,-26
2021-09-27 10:43:13.954079,-19
2021-09-27 10:43:13.954089,-14
2021-09-27 10:43:13.954099,-26
2021-09-27 10:43:13.954109,-51
2021-09-27 10:43:13.954119,-70
2021-09-27 10:43:13.954128,-75
2021-09-27 10:43:13.954150,-70
2021-09-27 10:43:13.954161,-66
2021-09-27 10:43:13.954171,-63
2021-09-27 10:43:13.954185,-68
2021-09-27 10:43:13.954195,-73
2021-09-27 10:43:13.954205,-102
2021-09-27 10:43:13.954215,-156
2021-09-27 10:43:13.954224,7
2021-09-27 10:43:13.954234,672
2021-09-27 10:43:13.954244,1636
2021-09-27 10:43:13.954253,2240
2021-09-27 10:43:13.954263,1574
2021-09-27 10:43:13.954273,-232
2021-09-27 10:43:13.954283,-1080
2021-09-27 10:43:13.954292,-391
2021-09-27 10:43:13.954302,-68
2021-09-27 10:43:14.223922,-322
2021-09-27 10:43:14.223954,-193
2021-09-27 10:43:14.223966,-26
2021-09-27 10:43:14.223976,-112
2021-09-27 10:43:14.223986,-119
2021-09-27 10:43:14.223996,-48
2021-09-27 10:43:14.224005,-44
2021-09-27 10:43:14.224015,-39
2021-09-27 10:43:14.224024,-12
2021-09-27 10:43:14.224034,-4
2021-09-27 10:43:14.224044,2
2021-09-27 10:43:14.224054,22
2021-09-27 10:43:14.224064,48
2021-09-27 10:43:14.224073,73
2021-09-27 10:43:14.224083,100
2021-09-27 10:43:14.224093,127
2021-09-27 10:43:14.224102,151
2021-09-27 10:43:14.224112,180
2021-09-27 10:43:14.224122,217
2021-09-27 10:43:14.224132,266
2021-09-27 10:43:14.224142,313
2021-09-27 10:43:14.224151,364
2021-09-27 10:43:14.224161,415
2021-09-27 10:43:14.224171,464
2021-09-27 10:43:14.224180,508
2021-09-27 10:43:14.224190,545
2021-09-27 10:43:14.224200,564
2021-09-27 10:43:14.224210,567
2021-09-27 10:43:14.224219,535
2021-09-27 10:43:14.224229,457
2021-09-27 10:43:14.404139,344
2021-09-27 10:43:14.404169,202
2021-09-27 10:43:14.404180,46
2021-09-27 10:43:14.404189,-95
2021-09-27 10:43:14.404199,-207
2021-09-27 10:43:14.404208,-276
2021-09-27 10:43:14.404218,-308
2021-09-27 10:43:14.404227,-322
2021-09-27 10:43:14.404237,-325
2021-09-27 10:43:14.404247,-327
2021-09-27 10:43:14.404256,-332
2021-09-27 10:43:14.404265,-327
2021-09-27 10:43:14.404275,-313
2021-09-27 10:43:14.404284,-295
2021-09-27 10:43:14.404295,-283
2021-09-27 10:43:14.404324,-276
2021-09-27 10:43:14.404334,-264
2021-09-27 10:43:14.404344,-251
2021-09-27 10:43:14.404353,-251
2021-09-27 10:43:14.404362,-246
2021-09-27 10:43:14.404371,-224
2021-09-27 10:43:14.404394,-217
2021-09-27 10:43:14.404402,-217
2021-09-27 10:43:14.404411,-202
2021-09-27 10:43:14.404420,-188
2021-09-27 10:43:14.404429,-180
2021-09-27 10:43:14.404438,-171
2021-09-27 10:43:14.404447,-171
2021-09-27 10:43:14.404456,-168
2021-09-27 10:43:14.404464,-161
2021-09-27 10:43:14.718911,-156
2021-09-27 10:43:14.718944,-154
2021-09-27 10:43:14.718956,-154
2021-09-27 10:43:14.718966,-166
2021-09-27 10:43:14.718975,-166
2021-09-27 10:43:14.718985,-146
2021-09-27 10:43:14.718994,-134
2021-09-27 10:43:14.719004,-129
2021-09-27 10:43:14.719013,-132
2021-09-27 10:43:14.719023,-144
2021-09-27 10:43:14.719032,-139
2021-09-27 10:43:14.719042,-119
2021-09-27 10:43:14.719051,-122
2021-09-27 10:43:14.719061,-129
2021-09-27 10:43:14.719070,-119
2021-09-27 10:43:14.719080,-117
2021-09-27 10:43:14.719089,-117
2021-09-27 10:43:14.719099,-105
2021-09-27 10:43:14.719108,-92
2021-09-27 10:43:14.719117,-88
2021-09-27 10:43:14.719127,-92
2021-09-27 10:43:14.719136,-95
2021-09-27 10:43:14.719146,-88
2021-09-27 10:43:14.719156,-70
2021-09-27 10:43:14.719165,-63
2021-09-27 10:43:14.719174,-63
2021-09-27 10:43:14.719184,-68
2021-09-27 10:43:14.719194,-68
2021-09-27 10:43:14.719203,-51
2021-09-27 10:43:14.719213,-36
2021-09-27 10:43:14.898862,-29
2021-09-27 10:43:14.898894,-24
2021-09-27 10:43:14.898905,-31
2021-09-27 10:43:14.898915,-48
2021-09-27 10:43:14.898925,-56
2021-09-27 10:43:14.898935,-58
2021-09-27 10:43:14.898944,-53
2021-09-27 10:43:14.898954,-46
2021-09-27 10:43:14.898963,-53
2021-09-27 10:43:14.898973,-66
2021-09-27 10:43:14.898983,-56
2021-09-27 10:43:14.898992,-46
2021-09-27 10:43:14.899002,-88
2021-09-27 10:43:14.899011,-132
2021-09-27 10:43:14.899021,78
2021-09-27 10:43:14.899031,765
2021-09-27 10:43:14.899040,1694
2021-09-27 10:43:14.899050,2174
2021-09-27 10:43:14.899059,1313
2021-09-27 10:43:14.899069,-481
2021-09-27 10:43:14.899092,-1073
2021-09-27 10:43:14.899103,-332
2021-09-27 10:43:14.899112,-119
2021-09-27 10:43:14.899122,-339
2021-09-27 10:43:14.899132,-178
2021-09-27 10:43:14.899141,-46
2021-09-27 10:43:14.899151,-127
2021-09-27 10:43:14.899160,-107
2021-09-27 10:43:14.899170,-24
2021-09-27 10:43:14.899179,-24
2021-09-27 10:43:15.213251,-26
2021-09-27 10:43:15.213274,7
2021-09-27 10:43:15.213281,22
2021-09-27 10:43:15.213288,31
2021-09-27 10:43:15.213294,56
2021-09-27 10:43:15.213301,80
2021-09-27 10:43:15.213307,105
2021-09-27 10:43:15.213313,127
2021-09-27 10:43:15.213319,141
2021-09-27 10:43:15.213326,171
2021-09-27 10:43:15.213332,215
2021-09-27 10:43:15.213338,251
2021-09-27 10:43:15.213344,295
2021-09-27 10:43:15.213351,342
2021-09-27 10:43:15.213357,388
2021-09-27 10:43:15.213363,440
2021-09-27 10:43:15.213369,484
2021-09-27 10:43:15.213386,515
2021-09-27 10:43:15.213393,545
2021-09-27 10:43:15.213399,555
2021-09-27 10:43:15.213405,540
2021-09-27 10:43:15.213411,503
2021-09-27 10:43:15.213417,420
2021-09-27 10:43:15.213424,283
2021-09-27 10:43:15.213430,129
2021-09-27 10:43:15.213436,-12
2021-09-27 10:43:15.213443,-136
2021-09-27 10:43:15.213449,-229
2021-09-27 10:43:15.213455,-278
2021-09-27 10:43:15.213461,-300
2021-09-27 10:43:15.348891,-317
2021-09-27 10:43:15.348914,-320
2021-09-27 10:43:15.348922,-313
2021-09-27 10:43:15.348928,-305
2021-09-27 10:43:15.348935,-295
2021-09-27 10:43:15.348941,-273
2021-09-27 10:43:15.348947,-259
2021-09-27 10:43:15.348954,-256
2021-09-27 10:43:15.348960,-246
2021-09-27 10:43:15.348966,-229
2021-09-27 10:43:15.348973,-220
2021-09-27 10:43:15.348979,-207
2021-09-27 10:43:15.348985,-210
2021-09-27 10:43:15.348991,-215
2021-09-27 10:43:15.348998,-200
2021-09-27 10:43:15.349004,-185
2021-09-27 10:43:15.349010,-178
2021-09-27 10:43:15.349016,-171
2021-09-27 10:43:15.349023,-171
2021-09-27 10:43:15.349029,-178
2021-09-27 10:43:15.349035,-171
2021-09-27 10:43:15.349041,-161
2021-09-27 10:43:15.349047,-158
2021-09-27 10:43:15.349054,-151
2021-09-27 10:43:15.349060,-144
2021-09-27 10:43:15.349066,-149
2021-09-27 10:43:15.349072,-151
2021-09-27 10:43:15.349079,-144
2021-09-27 10:43:15.349085,-134
2021-09-27 10:43:15.349091,-136
2021-09-27 10:43:15.573474,-151
2021-09-27 10:43:15.573495,-151
2021-09-27 10:43:15.573503,-134
2021-09-27 10:43:15.573509,-132
2021-09-27 10:43:15.573516,-127
2021-09-27 10:43:15.573522,-114
2021-09-27 10:43:15.573528,-122
2021-09-27 10:43:15.573535,-132
2021-09-27 10:43:15.573541,-117
2021-09-27 10:43:15.573547,-102
2021-09-27 10:43:15.573553,-102
2021-09-27 10:43:15.573560,-100
2021-09-27 10:43:15.573566,-105
2021-09-27 10:43:15.573572,-107
2021-09-27 10:43:15.573578,-100
2021-09-27 10:43:15.573584,-90
2021-09-27 10:43:15.573591,-78
2021-09-27 10:43:15.573597,-68
2021-09-27 10:43:15.573603,-66
2021-09-27 10:43:15.573609,-56
2021-09-27 10:43:15.573616,-53
2021-09-27 10:43:15.573622,-73
2021-09-27 10:43:15.573628,-85
2021-09-27 10:43:15.573634,-90
2021-09-27 10:43:15.573640,-92
2021-09-27 10:43:15.573647,-88
2021-09-27 10:43:15.573653,-75
2021-09-27 10:43:15.573659,-63
2021-09-27 10:43:15.573665,-61
2021-09-27 10:43:15.573672,-61
2021-09-27 10:43:15.842513,-95
2021-09-27 10:43:15.842535,-166
2021-09-27 10:43:15.842543,-39
2021-09-27 10:43:15.842550,579
2021-09-27 10:43:15.842556,1533
2021-09-27 10:43:15.842562,2191
2021-09-27 10:43:15.842569,1640
2021-09-27 10:43:15.842575,-132
2021-09-27 10:43:15.842581,-1110
2021-09-27 10:43:15.842588,-471
2021-09-27 10:43:15.842594,-70
2021-09-27 10:43:15.842600,-327
2021-09-27 10:43:15.842607,-234
2021-09-27 10:43:15.842613,-36
2021-09-27 10:43:15.842619,-102
2021-09-27 10:43:15.842626,-114
2021-09-27 10:43:15.842632,-36
2021-09-27 10:43:15.842638,-39
2021-09-27 10:43:15.842645,-44
2021-09-27 10:43:15.842651,-2
2021-09-27 10:43:15.842657,14
2021-09-27 10:43:15.842664,26
2021-09-27 10:43:15.842670,51
2021-09-27 10:43:15.842676,63
2021-09-27 10:43:15.842683,80
2021-09-27 10:43:15.842689,114
2021-09-27 10:43:15.842696,144
2021-09-27 10:43:15.842713,166
2021-09-27 10:43:15.842720,195
2021-09-27 10:43:15.842726,232
2021-09-27 10:43:16.023927,278
2021-09-27 10:43:16.023961,332
2021-09-27 10:43:16.023973,386
2021-09-27 10:43:16.023983,432
2021-09-27 10:43:16.023992,479
2021-09-27 10:43:16.024002,515
2021-09-27 10:43:16.024012,530
2021-09-27 10:43:16.024021,540
2021-09-27 10:43:16.024031,545
2021-09-27 10:43:16.024040,513
2021-09-27 10:43:16.024050,425
2021-09-27 10:43:16.024060,293
2021-09-27 10:43:16.024069,139
2021-09-27 10:43:16.024079,-7
2021-09-27 10:43:16.024089,-132
2021-09-27 10:43:16.024098,-227
2021-09-27 10:43:16.024108,-281
2021-09-27 10:43:16.024118,-305
2021-09-27 10:43:16.024127,-317
2021-09-27 10:43:16.024137,-325
2021-09-27 10:43:16.024147,-327
2021-09-27 10:43:16.024156,-317
2021-09-27 10:43:16.024166,-298
2021-09-27 10:43:16.024175,-286
2021-09-27 10:43:16.024185,-278
2021-09-27 10:43:16.024195,-271
2021-09-27 10:43:16.024204,-256
2021-09-27 10:43:16.024214,-239
2021-09-27 10:43:16.024224,-229
2021-09-27 10:43:16.024233,-212
2021-09-27 10:43:16.293266,-193
2021-09-27 10:43:16.293288,-180
2021-09-27 10:43:16.293296,-176
2021-09-27 10:43:16.293303,-173
2021-09-27 10:43:16.293309,-173
2021-09-27 10:43:16.293315,-171
2021-09-27 10:43:16.293322,-163
2021-09-27 10:43:16.293328,-156
2021-09-27 10:43:16.293334,-151
2021-09-27 10:43:16.293340,-151
2021-09-27 10:43:16.293347,-161
2021-09-27 10:43:16.293353,-163
2021-09-27 10:43:16.293359,-156
2021-09-27 10:43:16.293365,-156
2021-09-27 10:43:16.293371,-158
2021-09-27 10:43:16.293378,-156
2021-09-27 10:43:16.293384,-154
2021-09-27 10:43:16.293400,-146
2021-09-27 10:43:16.293407,-139
2021-09-27 10:43:16.293413,-134
2021-09-27 10:43:16.293419,-127
2021-09-27 10:43:16.293425,-122
2021-09-27 10:43:16.293432,-122
2021-09-27 10:43:16.293438,-117
2021-09-27 10:43:16.293444,-110
2021-09-27 10:43:16.293450,-105
2021-09-27 10:43:16.293457,-107
2021-09-27 10:43:16.293463,-117
2021-09-27 10:43:16.293469,-114
2021-09-27 10:43:16.293475,-105
2021-09-27 10:43:16.518856,-100
2021-09-27 10:43:16.518888,-95
2021-09-27 10:43:16.518899,-90
2021-09-27 10:43:16.518909,-85
2021-09-27 10:43:16.518919,-78
2021-09-27 10:43:16.518929,-68
2021-09-27 10:43:16.518938,-56
2021-09-27 10:43:16.518948,-56
2021-09-27 10:43:16.518957,-66
2021-09-27 10:43:16.518967,-90
2021-09-27 10:43:16.518976,-110
2021-09-27 10:43:16.518986,-105
2021-09-27 10:43:16.518995,-97
2021-09-27 10:43:16.519005,-107
2021-09-27 10:43:16.519014,-100
2021-09-27 10:43:16.519024,-88
2021-09-27 10:43:16.519034,-92
2021-09-27 10:43:16.519043,-129
2021-09-27 10:43:16.519053,-185
2021-09-27 10:43:16.519062,-31
2021-09-27 10:43:16.519072,628
2021-09-27 10:43:16.519082,1611
2021-09-27 10:43:16.519091,2230
2021-09-27 10:43:16.519101,1552
2021-09-27 10:43:16.519110,-266
2021-09-27 10:43:16.519120,-1110
2021-09-27 10:43:16.519129,-415
2021-09-27 10:43:16.519139,-92
2021-09-27 10:43:16.519149,-344
2021-09-27 10:43:16.519158,-217
2021-09-27 10:43:16.743554,-51
2021-09-27 10:43:16.743579,-129
2021-09-27 10:43:16.743587,-132
2021-09-27 10:43:16.743593,-53
2021-09-27 10:43:16.743600,-44
2021-09-27 10:43:16.743606,-41
2021-09-27 10:43:16.743612,-12
2021-09-27 10:43:16.743619,7
2021-09-27 10:43:16.743625,12
2021-09-27 10:43:16.743632,19
2021-09-27 10:43:16.743638,46
2021-09-27 10:43:16.743644,75
2021-09-27 10:43:16.743650,95
2021-09-27 10:43:16.743657,124
2021-09-27 10:43:16.743663,154
2021-09-27 10:43:16.743669,176
2021-09-27 10:43:16.743675,220
2021-09-27 10:43:16.743682,276
2021-09-27 10:43:16.743688,322
2021-09-27 10:43:16.743694,371
2021-09-27 10:43:16.743701,425
2021-09-27 10:43:16.743707,474
2021-09-27 10:43:16.743713,520
2021-09-27 10:43:16.743719,555
2021-09-27 10:43:16.743726,567
2021-09-27 10:43:16.743732,562
2021-09-27 10:43:16.743738,518
2021-09-27 10:43:16.743745,423
2021-09-27 10:43:16.743751,291
2021-09-27 10:43:16.743757,139
2021-09-27 10:43:16.968789,-12
2021-09-27 10:43:16.968821,-136
2021-09-27 10:43:16.968834,-229
2021-09-27 10:43:16.968844,-288
2021-09-27 10:43:16.968854,-313
2021-09-27 10:43:16.968863,-315
2021-09-27 10:43:16.968873,-310
2021-09-27 10:43:16.968883,-310
2021-09-27 10:43:16.968892,-313
2021-09-27 10:43:16.968902,-303
2021-09-27 10:43:16.968912,-281
2021-09-27 10:43:16.968921,-261
2021-09-27 10:43:16.968931,-244
2021-09-27 10:43:16.968941,-237
2021-09-27 10:43:16.968950,-237
2021-09-27 10:43:16.968960,-220
2021-09-27 10:43:16.968970,-202
2021-09-27 10:43:16.968979,-205
2021-09-27 10:43:16.968989,-205
2021-09-27 10:43:16.968999,-190
2021-09-27 10:43:16.969008,-183
2021-09-27 10:43:16.969018,-188
2021-09-27 10:43:16.969027,-183
2021-09-27 10:43:16.969037,-161
2021-09-27 10:43:16.969047,-154
2021-09-27 10:43:16.969056,-166
2021-09-27 10:43:16.969066,-166
2021-09-27 10:43:16.969088,-151
2021-09-27 10:43:16.969099,-141
2021-09-27 10:43:16.969108,-139
2021-09-27 10:43:17.193556,-134
2021-09-27 10:43:17.193577,-132
2021-09-27 10:43:17.193585,-139
2021-09-27 10:43:17.193591,-144
2021-09-27 10:43:17.193598,-136
2021-09-27 10:43:17.193604,-124
2021-09-27 10:43:17.193610,-124
2021-09-27 10:43:17.193616,-132
2021-09-27 10:43:17.193622,-134
2021-09-27 10:43:17.193629,-124
2021-09-27 10:43:17.193635,-110
2021-09-27 10:43:17.193641,-107
2021-09-27 10:43:17.193647,-117
2021-09-27 10:43:17.193654,-129
2021-09-27 10:43:17.193660,-127
2021-09-27 10:43:17.193666,-122
2021-09-27 10:43:17.193672,-119
2021-09-27 10:43:17.193678,-119
2021-09-27 10:43:17.193685,-114
2021-09-27 10:43:17.193691,-110
2021-09-27 10:43:17.193697,-97
2021-09-27 10:43:17.193703,-83
2021-09-27 10:43:17.193709,-73
2021-09-27 10:43:17.193716,-68
2021-09-27 10:43:17.193722,-73
2021-09-27 10:43:17.193728,-85
2021-09-27 10:43:17.193734,-102
2021-09-27 10:43:17.193740,-105
2021-09-27 10:43:17.193747,-97
2021-09-27 10:43:17.193753,-88
2021-09-27 10:43:17.419831,-80
2021-09-27 10:43:17.419883,-73
2021-09-27 10:43:17.419901,-70
2021-09-27 10:43:17.419915,-95
2021-09-27 10:43:17.419927,-166
2021-09-27 10:43:17.419939,-136
2021-09-27 10:43:17.419950,322
2021-09-27 10:43:17.419962,1244
2021-09-27 10:43:17.419973,2103
2021-09-27 10:43:17.419985,1990
2021-09-27 10:43:17.419996,396
2021-09-27 10:43:17.420006,-1063
2021-09-27 10:43:17.420017,-745
2021-09-27 10:43:17.420028,-107
2021-09-27 10:43:17.420039,-283
2021-09-27 10:43:17.420049,-315
2021-09-27 10:43:17.420060,-78
2021-09-27 10:43:17.420071,-97
2021-09-27 10:43:17.420082,-156
2021-09-27 10:43:17.420092,-78
2021-09-27 10:43:17.420103,-41
2021-09-27 10:43:17.420112,-58
2021-09-27 10:43:17.420120,-44
2021-09-27 10:43:17.420129,-29
2021-09-27 10:43:17.420137,-17
2021-09-27 10:43:17.420145,9
2021-09-27 10:43:17.420154,36
2021-09-27 10:43:17.420164,56
2021-09-27 10:43:17.420173,80
2021-09-27 10:43:17.420182,102
2021-09-27 10:43:17.688361,132
2021-09-27 10:43:17.688393,176
2021-09-27 10:43:17.688404,217
2021-09-27 10:43:17.688414,251
2021-09-27 10:43:17.688424,300
2021-09-27 10:43:17.688434,352
2021-09-27 10:43:17.688444,396
2021-09-27 10:43:17.688453,442
2021-09-27 10:43:17.688463,491
2021-09-27 10:43:17.688473,520
2021-09-27 10:43:17.688483,542
2021-09-27 10:43:17.688492,540
2021-09-27 10:43:17.688502,506
2021-09-27 10:43:17.688512,435
2021-09-27 10:43:17.688521,317
2021-09-27 10:43:17.688531,161
2021-09-27 10:43:17.688541,7
2021-09-27 10:43:17.688551,-119
2021-09-27 10:43:17.688561,-212
2021-09-27 10:43:17.688570,-271
2021-09-27 10:43:17.688580,-303
2021-09-27 10:43:17.688590,-320
2021-09-27 10:43:17.688600,-317
2021-09-27 10:43:17.688609,-313
2021-09-27 10:43:17.688619,-308
2021-09-27 10:43:17.688629,-288
2021-09-27 10:43:17.688639,-271
2021-09-27 10:43:17.688648,-261
2021-09-27 10:43:17.688658,-246
2021-09-27 10:43:17.688668,-229
2021-09-27 10:43:17.957441,-217
2021-09-27 10:43:17.957473,-202
2021-09-27 10:43:17.957484,-188
2021-09-27 10:43:17.957494,-178
2021-09-27 10:43:17.957504,-171
2021-09-27 10:43:17.957513,-171
2021-09-27 10:43:17.957523,-166
2021-09-27 10:43:17.957533,-154
2021-09-27 10:43:17.957555,-146
2021-09-27 10:43:17.957566,-151
2021-09-27 10:43:17.957576,-158
2021-09-27 10:43:17.957585,-156
2021-09-27 10:43:17.957595,-146
2021-09-27 10:43:17.957605,-139
2021-09-27 10:43:17.957614,-136
2021-09-27 10:43:17.957624,-132
2021-09-27 10:43:17.957633,-132
2021-09-27 10:43:17.957643,-132
2021-09-27 10:43:17.957652,-127
2021-09-27 10:43:17.957662,-119
2021-09-27 10:43:17.957671,-117
2021-09-27 10:43:17.957681,-124
2021-09-27 10:43:17.957691,-127
2021-09-27 10:43:17.957700,-119
2021-09-27 10:43:17.957709,-110
2021-09-27 10:43:17.957719,-102
2021-09-27 10:43:17.957729,-102
2021-09-27 10:43:17.957738,-107
2021-09-27 10:43:17.957748,-112
2021-09-27 10:43:17.957757,-112
2021-09-27 10:43:18.093949,-102
2021-09-27 10:43:18.093982,-95
2021-09-27 10:43:18.093993,-100
2021-09-27 10:43:18.094003,-105
2021-09-27 10:43:18.094013,-105
2021-09-27 10:43:18.094023,-105
2021-09-27 10:43:18.094032,-97
2021-09-27 10:43:18.094042,-83
2021-09-27 10:43:18.094052,-75
2021-09-27 10:43:18.094061,-70
2021-09-27 10:43:18.094071,-63
2021-09-27 10:43:18.094081,-63
2021-09-27 10:43:18.094090,-75
2021-09-27 10:43:18.094100,-88
2021-09-27 10:43:18.094110,-100
2021-09-27 10:43:18.094119,-119
2021-09-27 10:43:18.094129,-127
2021-09-27 10:43:18.094139,-117
2021-09-27 10:43:18.094148,-100
2021-09-27 10:43:18.094158,-90
2021-09-27 10:43:18.094168,-88
2021-09-27 10:43:18.094177,-102
2021-09-27 10:43:18.094187,-166
2021-09-27 10:43:18.094197,-178
2021-09-27 10:43:18.094206,185
2021-09-27 10:43:18.094216,1044
2021-09-27 10:43:18.094226,1980
2021-09-27 10:43:18.094250,2169
2021-09-27 10:43:18.094261,829
2021-09-27 10:43:18.094271,-895
2021-09-27 10:43:18.452804,-914
2021-09-27 10:43:18.452825,-151
2021-09-27 10:43:18.452833,-220
2021-09-27 10:43:18.452839,-361
2021-09-27 10:43:18.452846,-127
2021-09-27 10:43:18.452852,-80
2021-09-27 10:43:18.452859,-158
2021-09-27 10:43:18.452865,-95
2021-09-27 10:43:18.452871,-46
2021-09-27 10:43:18.452877,-80
2021-09-27 10:43:18.452884,-68
2021-09-27 10:43:18.452890,-17
2021-09-27 10:43:18.452896,0
2021-09-27 10:43:18.452903,2
2021-09-27 10:43:18.452909,22
2021-09-27 10:43:18.452915,46
2021-09-27 10:43:18.452922,68
2021-09-27 10:43:18.452946,100
2021-09-27 10:43:18.452953,132
2021-09-27 10:43:18.452959,168
2021-09-27 10:43:18.452966,212
2021-09-27 10:43:18.452972,246
2021-09-27 10:43:18.452978,291
2021-09-27 10:43:18.452985,349
2021-09-27 10:43:18.452991,408
2021-09-27 10:43:18.452997,462
2021-09-27 10:43:18.453004,508
2021-09-27 10:43:18.453010,538
2021-09-27 10:43:18.453016,555
2021-09-27 10:43:18.453022,574
2021-09-27 10:43:18.588951,564
2021-09-27 10:43:18.588983,496
2021-09-27 10:43:18.588994,376
2021-09-27 10:43:18.589004,215
2021-09-27 10:43:18.589014,46
2021-09-27 10:43:18.589024,-85
2021-09-27 10:43:18.589034,-183
2021-09-27 10:43:18.589043,-256
2021-09-27 10:43:18.589053,-310
2021-09-27 10:43:18.589063,-339
2021-09-27 10:43:18.589073,-337
2021-09-27 10:43:18.589083,-322
2021-09-27 10:43:18.589092,-317
2021-09-27 10:43:18.589102,-308
2021-09-27 10:43:18.589112,-293
2021-09-27 10:43:18.589122,-288
2021-09-27 10:43:18.589131,-276
2021-09-27 10:43:18.589142,-249
2021-09-27 10:43:18.589152,-229
2021-09-27 10:43:18.589162,-224
2021-09-27 10:43:18.589171,-220
2021-09-27 10:43:18.589181,-202
2021-09-27 10:43:18.589191,-178
2021-09-27 10:43:18.589201,-166
2021-09-27 10:43:18.589210,-158
2021-09-27 10:43:18.589220,-151
2021-09-27 10:43:18.589230,-154
2021-09-27 10:43:18.589240,-151
2021-09-27 10:43:18.589249,-141
2021-09-27 10:43:18.589259,-139
2021-09-27 10:43:18.813904,-136
2021-09-27 10:43:18.813937,-132
2021-09-27 10:43:18.813948,-132
2021-09-27 10:43:18.813958,-132
2021-09-27 10:43:18.813967,-124
2021-09-27 10:43:18.813977,-112
2021-09-27 10:43:18.813987,-107
2021-09-27 10:43:18.813996,-117
2021-09-27 10:43:18.814006,-127
2021-09-27 10:43:18.814015,-124
2021-09-27 10:43:18.814025,-114
2021-09-27 10:43:18.814035,-107
2021-09-27 10:43:18.814045,-105
2021-09-27 10:43:18.814054,-107
2021-09-27 10:43:18.814064,-117
2021-09-27 10:43:18.814087,-112
2021-09-27 10:43:18.814098,-102
2021-09-27 10:43:18.814108,-112
2021-09-27 10:43:18.814117,-117
2021-09-27 10:43:18.814127,-102
2021-09-27 10:43:18.814137,-95
2021-09-27 10:43:18.814146,-92
2021-09-27 10:43:18.814156,-80
2021-09-27 10:43:18.814166,-66
2021-09-27 10:43:18.814175,-61
2021-09-27 10:43:18.814185,-70
2021-09-27 10:43:18.814195,-83
2021-09-27 10:43:18.814204,-95
2021-09-27 10:43:18.814214,-100
2021-09-27 10:43:18.814223,-90
2021-09-27 10:43:19.038927,-75
2021-09-27 10:43:19.038959,-73
2021-09-27 10:43:19.038971,-73
2021-09-27 10:43:19.038981,-70
2021-09-27 10:43:19.038991,-88
2021-09-27 10:43:19.039001,-146
2021-09-27 10:43:19.039010,-129
2021-09-27 10:43:19.039035,283
2021-09-27 10:43:19.039045,1144
2021-09-27 10:43:19.039055,1990
2021-09-27 10:43:19.039065,1978
2021-09-27 10:43:19.039074,481
2021-09-27 10:43:19.039084,-1073
2021-09-27 10:43:19.039093,-865
2021-09-27 10:43:19.039103,-178
2021-09-27 10:43:19.039113,-308
2021-09-27 10:43:19.039122,-357
2021-09-27 10:43:19.039132,-114
2021-09-27 10:43:19.039142,-107
2021-09-27 10:43:19.039151,-166
2021-09-27 10:43:19.039161,-100
2021-09-27 10:43:19.039170,-61
2021-09-27 10:43:19.039180,-68
2021-09-27 10:43:19.039189,-46
2021-09-27 10:43:19.039199,-19
2021-09-27 10:43:19.039209,-4
2021-09-27 10:43:19.039218,17
2021-09-27 10:43:19.039228,41
2021-09-27 10:43:19.039237,63
2021-09-27 10:43:19.039247,92
2021-09-27 10:43:19.263913,124
2021-09-27 10:43:19.263945,144
2021-09-27 10:43:19.263957,173
2021-09-27 10:43:19.263967,227
2021-09-27 10:43:19.263977,278
2021-09-27 10:43:19.263987,320
2021-09-27 10:43:19.263996,364
2021-09-27 10:43:19.264006,418
2021-09-27 10:43:19.264015,476
2021-09-27 10:43:19.264025,520
2021-09-27 10:43:19.264035,550
2021-09-27 10:43:19.264044,569
2021-09-27 10:43:19.264054,562
2021-09-27 10:43:19.264064,520
2021-09-27 10:43:19.264073,437
2021-09-27 10:43:19.264083,305
2021-09-27 10:43:19.264093,149
2021-09-27 10:43:19.264102,2
2021-09-27 10:43:19.264112,-124
2021-09-27 10:43:19.264121,-220
2021-09-27 10:43:19.264131,-273
2021-09-27 10:43:19.264141,-313
2021-09-27 10:43:19.264150,-335
2021-09-27 10:43:19.264160,-330
2021-09-27 10:43:19.264170,-325
2021-09-27 10:43:19.264179,-325
2021-09-27 10:43:19.264189,-315
2021-09-27 10:43:19.264213,-298
2021-09-27 10:43:19.264224,-278
2021-09-27 10:43:19.264233,-259
2021-09-27 10:43:19.488831,-242
2021-09-27 10:43:19.488863,-222
2021-09-27 10:43:19.488875,-205
2021-09-27 10:43:19.488886,-195
2021-09-27 10:43:19.488895,-185
2021-09-27 10:43:19.488905,-176
2021-09-27 10:43:19.488915,-171
2021-09-27 10:43:19.488925,-161
2021-09-27 10:43:19.488935,-151
2021-09-27 10:43:19.488945,-146
2021-09-27 10:43:19.488954,-139
2021-09-27 10:43:19.488964,-139
2021-09-27 10:43:19.488974,-144
2021-09-27 10:43:19.488984,-136
2021-09-27 10:43:19.488993,-141
2021-09-27 10:43:19.489003,-161
2021-09-27 10:43:19.489013,-156
2021-09-27 10:43:19.489023,-144
2021-09-27 10:43:19.489032,-144
2021-09-27 10:43:19.489042,-136
2021-09-27 10:43:19.489052,-129
2021-09-27 10:43:19.489061,-127
2021-09-27 10:43:19.489071,-122
2021-09-27 10:43:19.489081,-122
2021-09-27 10:43:19.489090,-124
2021-09-27 10:43:19.489100,-114
2021-09-27 10:43:19.489110,-107
2021-09-27 10:43:19.489120,-107
2021-09-27 10:43:19.489130,-105
2021-09-27 10:43:19.489139,-97
2021-09-27 10:43:19.713957,-95
2021-09-27 10:43:19.713990,-95
2021-09-27 10:43:19.714002,-97
2021-09-27 10:43:19.714012,-95
2021-09-27 10:43:19.714021,-90
2021-09-27 10:43:19.714031,-90
2021-09-27 10:43:19.714041,-80
2021-09-27 10:43:19.714050,-68
2021-09-27 10:43:19.714060,-68
2021-09-27 10:43:19.714069,-75
2021-09-27 10:43:19.714079,-85
2021-09-27 10:43:19.714088,-105
2021-09-27 10:43:19.714098,-110
2021-09-27 10:43:19.714107,-92
2021-09-27 10:43:19.714117,-85
2021-09-27 10:43:19.714126,-85
2021-09-27 10:43:19.714136,-83
2021-09-27 10:43:19.714146,-78
2021-09-27 10:43:19.714156,-102
2021-09-27 10:43:19.714165,-166
2021-09-27 10:43:19.714175,-95
2021-09-27 10:43:19.714198,442
2021-09-27 10:43:19.714209,1391
2021-09-27 10:43:19.714218,2169
2021-09-27 10:43:19.714228,1868
2021-09-27 10:43:19.714237,156
2021-09-27 10:43:19.714247,-1144
2021-09-27 10:43:19.714257,-662
2021-09-27 10:43:19.714266,-107
2021-09-27 10:43:19.714276,-332
2021-09-27 10:43:19.982447,-300
2021-09-27 10:43:19.982479,-73
2021-09-27 10:43:19.982490,-117
2021-09-27 10:43:19.982500,-158
2021-09-27 10:43:19.982510,-88
2021-09-27 10:43:19.982520,-78
2021-09-27 10:43:19.982529,-78
2021-09-27 10:43:19.982538,-39
2021-09-27 10:43:19.982548,-17
2021-09-27 10:43:19.982557,-14
2021-09-27 10:43:19.982567,0
2021-09-27 10:43:19.982577,22
2021-09-27 10:43:19.982586,48
2021-09-27 10:43:19.982596,83
2021-09-27 10:43:19.982605,110
2021-09-27 10:43:19.982615,136
2021-09-27 10:43:19.982624,168
2021-09-27 10:43:19.982634,210
2021-09-27 10:43:19.982644,259
2021-09-27 10:43:19.982653,313
2021-09-27 10:43:19.982663,361
2021-09-27 10:43:19.982672,396
2021-09-27 10:43:19.982682,437
2021-09-27 10:43:19.982691,496
2021-09-27 10:43:19.982701,535
2021-09-27 10:43:19.982710,545
2021-09-27 10:43:19.982720,542
2021-09-27 10:43:19.982729,506
2021-09-27 10:43:19.982739,410
2021-09-27 10:43:19.982748,273
2021-09-27 10:43:20.163777,122
2021-09-27 10:43:20.163809,-19
2021-09-27 10:43:20.163820,-141
2021-09-27 10:43:20.163830,-246
2021-09-27 10:43:20.163840,-310
2021-09-27 10:43:20.163850,-325
2021-09-27 10:43:20.163860,-325
2021-09-27 10:43:20.163883,-330
2021-09-27 10:43:20.163894,-327
2021-09-27 10:43:20.163904,-327
2021-09-27 10:43:20.163913,-322
2021-09-27 10:43:20.163923,-300
2021-09-27 10:43:20.163933,-276
2021-09-27 10:43:20.163942,-261
2021-09-27 10:43:20.163952,-246
2021-09-27 10:43:20.163961,-234
2021-09-27 10:43:20.163971,-222
2021-09-27 10:43:20.163981,-207
2021-09-27 10:43:20.163990,-185
2021-09-27 10:43:20.164000,-168
2021-09-27 10:43:20.164009,-166
2021-09-27 10:43:20.164019,-166
2021-09-27 10:43:20.164029,-154
2021-09-27 10:43:20.164038,-144
2021-09-27 10:43:20.164048,-136
2021-09-27 10:43:20.164057,-129
2021-09-27 10:43:20.164067,-129
2021-09-27 10:43:20.164077,-134
2021-09-27 10:43:20.164086,-132
2021-09-27 10:43:20.164096,-127
2021-09-27 10:43:20.433810,-127
2021-09-27 10:43:20.433842,-129
2021-09-27 10:43:20.433854,-129
2021-09-27 10:43:20.433865,-136
2021-09-27 10:43:20.433876,-134
2021-09-27 10:43:20.433886,-122
2021-09-27 10:43:20.433897,-112
2021-09-27 10:43:20.433908,-107
2021-09-27 10:43:20.433918,-110
2021-09-27 10:43:20.433929,-119
2021-09-27 10:43:20.433939,-117
2021-09-27 10:43:20.434023,-102
2021-09-27 10:43:20.434047,-95
2021-09-27 10:43:20.434060,-88
2021-09-27 10:43:20.434106,-85
2021-09-27 10:43:20.434138,-92
2021-09-27 10:43:20.434151,-90
2021-09-27 10:43:20.434163,-78
2021-09-27 10:43:20.434175,-75
2021-09-27 10:43:20.434187,-83
2021-09-27 10:43:20.434197,-88
2021-09-27 10:43:20.434209,-80
2021-09-27 10:43:20.434291,-68
2021-09-27 10:43:20.434308,-61
2021-09-27 10:43:20.434320,-48
2021-09-27 10:43:20.434332,-39
2021-09-27 10:43:20.434344,-56
2021-09-27 10:43:20.434357,-83
2021-09-27 10:43:20.434370,-90
2021-09-27 10:43:20.434383,-85
2021-09-27 10:43:20.658910,-80
2021-09-27 10:43:20.658943,-83
2021-09-27 10:43:20.658955,-95
2021-09-27 10:43:20.658964,-92
2021-09-27 10:43:20.658974,-73
2021-09-27 10:43:20.658984,-75
2021-09-27 10:43:20.658994,-129
2021-09-27 10:43:20.659004,-183
2021-09-27 10:43:20.659013,24
2021-09-27 10:43:20.659023,760
2021-09-27 10:43:20.659033,1758
2021-09-27 10:43:20.659043,2264
2021-09-27 10:43:20.659052,1345
2021-09-27 10:43:20.659062,-533
2021-09-27 10:43:20.659072,-1129
2021-09-27 10:43:20.659081,-352
2021-09-27 10:43:20.659091,-151
2021-09-27 10:43:20.659101,-383
2021-09-27 10:43:20.659110,-205
2021-09-27 10:43:20.659120,-78
2021-09-27 10:43:20.659130,-168
2021-09-27 10:43:20.659139,-139
2021-09-27 10:43:20.659149,-63
2021-09-27 10:43:20.659159,-75
2021-09-27 10:43:20.659168,-66
2021-09-27 10:43:20.659178,-26
2021-09-27 10:43:20.659188,-14
2021-09-27 10:43:20.659197,-2
2021-09-27 10:43:20.659221,24
2021-09-27 10:43:20.659232,48
2021-09-27 10:43:20.883960,70
2021-09-27 10:43:20.883993,92
2021-09-27 10:43:20.884004,114
2021-09-27 10:43:20.884014,144
2021-09-27 10:43:20.884024,180
2021-09-27 10:43:20.884033,220
2021-09-27 10:43:20.884043,266
2021-09-27 10:43:20.884052,313
2021-09-27 10:43:20.884062,361
2021-09-27 10:43:20.884072,423
2021-09-27 10:43:20.884081,476
2021-09-27 10:43:20.884091,518
2021-09-27 10:43:20.884101,542
2021-09-27 10:43:20.884110,545
2021-09-27 10:43:20.884120,523
2021-09-27 10:43:20.884129,479
2021-09-27 10:43:20.884139,393
2021-09-27 10:43:20.884162,249
2021-09-27 10:43:20.884173,83
2021-09-27 10:43:20.884182,-58
2021-09-27 10:43:20.884192,-166
2021-09-27 10:43:20.884202,-251
2021-09-27 10:43:20.884211,-295
2021-09-27 10:43:20.884221,-310
2021-09-27 10:43:20.884231,-322
2021-09-27 10:43:20.884240,-327
2021-09-27 10:43:20.884250,-320
2021-09-27 10:43:20.884259,-308
2021-09-27 10:43:20.884269,-293
2021-09-27 10:43:20.884279,-271
2021-09-27 10:43:21.153816,-256
2021-09-27 10:43:21.153848,-246
2021-09-27 10:43:21.153860,-239
2021-09-27 10:43:21.153870,-239
2021-09-27 10:43:21.153880,-227
2021-09-27 10:43:21.153890,-210
2021-09-27 10:43:21.153900,-215
2021-09-27 10:43:21.153909,-215
2021-09-27 10:43:21.153919,-198
2021-09-27 10:43:21.153929,-183
2021-09-27 10:43:21.153939,-176
2021-09-27 10:43:21.153948,-168
2021-09-27 10:43:21.153958,-168
2021-09-27 10:43:21.153968,-168
2021-09-27 10:43:21.153978,-158
2021-09-27 10:43:21.153987,-156
2021-09-27 10:43:21.153997,-151
2021-09-27 10:43:21.154006,-141
2021-09-27 10:43:21.154016,-139
2021-09-27 10:43:21.154026,-139
2021-09-27 10:43:21.154036,-132
2021-09-27 10:43:21.154045,-124
2021-09-27 10:43:21.154055,-124
2021-09-27 10:43:21.154065,-122
2021-09-27 10:43:21.154074,-119
2021-09-27 10:43:21.154084,-112
2021-09-27 10:43:21.154094,-105
2021-09-27 10:43:21.154103,-100
2021-09-27 10:43:21.154113,-95
2021-09-27 10:43:21.154123,-85
2021-09-27 10:43:21.333907,-85
2021-09-27 10:43:21.333939,-85
2021-09-27 10:43:21.333951,-78
2021-09-27 10:43:21.333962,-78
2021-09-27 10:43:21.333972,-80
2021-09-27 10:43:21.333982,-80
2021-09-27 10:43:21.333992,-90
2021-09-27 10:43:21.334013,-97
2021-09-27 10:43:21.334025,-95
2021-09-27 10:43:21.334035,-92
2021-09-27 10:43:21.334045,-88
2021-09-27 10:43:21.334055,-85
2021-09-27 10:43:21.334064,-88
2021-09-27 10:43:21.334074,-83
2021-09-27 10:43:21.334084,-66
2021-09-27 10:43:21.334094,-58
2021-09-27 10:43:21.334104,-56
2021-09-27 10:43:21.334114,-56
2021-09-27 10:43:21.334123,-61
2021-09-27 10:43:21.334133,-66
2021-09-27 10:43:21.334143,-75
2021-09-27 10:43:21.334153,-88
2021-09-27 10:43:21.334163,-80
2021-09-27 10:43:21.334172,-70
2021-09-27 10:43:21.334182,-73
2021-09-27 10:43:21.334192,-68
2021-09-27 10:43:21.334202,-66
2021-09-27 10:43:21.334212,-73
2021-09-27 10:43:21.334221,-97
2021-09-27 10:43:21.334231,-166
2021-09-27 10:43:21.558808,-141
2021-09-27 10:43:21.558840,310
2021-09-27 10:43:21.558852,1210
2021-09-27 10:43:21.558862,2071
2021-09-27 10:43:21.558872,2051
2021-09-27 10:43:21.558881,518
2021-09-27 10:43:21.558891,-1044
2021-09-27 10:43:21.558901,-789
2021-09-27 10:43:21.558910,-107
2021-09-27 10:43:21.558920,-295
2021-09-27 10:43:21.558930,-369
2021-09-27 10:43:21.558939,-132
2021-09-27 10:43:21.558949,-139
2021-09-27 10:43:21.558958,-193
2021-09-27 10:43:21.558968,-112
2021-09-27 10:43:21.558978,-83
2021-09-27 10:43:21.558987,-95
2021-09-27 10:43:21.558997,-61
2021-09-27 10:43:21.559007,-29
2021-09-27 10:43:21.559016,-22
2021-09-27 10:43:21.559026,0
2021-09-27 10:43:21.559036,24
2021-09-27 10:43:21.559045,44
2021-09-27 10:43:21.559055,70
2021-09-27 10:43:21.559065,97
2021-09-27 10:43:21.559075,129
2021-09-27 10:43:21.559084,163
2021-09-27 10:43:21.559108,198
2021-09-27 10:43:21.559118,242
2021-09-27 10:43:21.559128,298
2021-09-27 10:43:21.828274,349
2021-09-27 10:43:21.828297,401
2021-09-27 10:43:21.828305,457
2021-09-27 10:43:21.828311,503
2021-09-27 10:43:21.828317,528
2021-09-27 10:43:21.828324,540
2021-09-27 10:43:21.828330,550
2021-09-27 10:43:21.828336,535
2021-09-27 10:43:21.828343,467
2021-09-27 10:43:21.828349,342
2021-09-27 10:43:21.828355,185
2021-09-27 10:43:21.828362,26
2021-09-27 10:43:21.828368,-110
2021-09-27 10:43:21.828374,-210
2021-09-27 10:43:21.828380,-273
2021-09-27 10:43:21.828387,-315
2021-09-27 10:43:21.828393,-339
2021-09-27 10:43:21.828399,-339
2021-09-27 10:43:21.828405,-325
2021-09-27 10:43:21.828412,-310
2021-09-27 10:43:21.828418,-300
2021-09-27 10:43:21.828425,-295
2021-09-27 10:43:21.828431,-283
2021-09-27 10:43:21.828437,-264
2021-09-27 10:43:21.828444,-242
2021-09-27 10:43:21.828450,-224
2021-09-27 10:43:21.828456,-210
2021-09-27 10:43:21.828462,-200
2021-09-27 10:43:21.828469,-185
2021-09-27 10:43:21.828475,-176
2021-09-27 10:43:22.052542,-166
2021-09-27 10:43:22.052576,-154
2021-09-27 10:43:22.052620,-146
2021-09-27 10:43:22.052630,-156
2021-09-27 10:43:22.052640,-161
2021-09-27 10:43:22.052650,-149
2021-09-27 10:43:22.052659,-136
2021-09-27 10:43:22.052669,-134
2021-09-27 10:43:22.052678,-129
2021-09-27 10:43:22.052688,-134
2021-09-27 10:43:22.052698,-144
2021-09-27 10:43:22.052707,-136
2021-09-27 10:43:22.052717,-119
2021-09-27 10:43:22.052726,-119
2021-09-27 10:43:22.052736,-132
2021-09-27 10:43:22.052746,-146
2021-09-27 10:43:22.052756,-144
2021-09-27 10:43:22.052780,-129
2021-09-27 10:43:22.052791,-114
2021-09-27 10:43:22.052800,-112
2021-09-27 10:43:22.052810,-112
2021-09-27 10:43:22.052820,-114
2021-09-27 10:43:22.052829,-110
2021-09-27 10:43:22.052839,-102
2021-09-27 10:43:22.052849,-102
2021-09-27 10:43:22.052858,-95
2021-09-27 10:43:22.052868,-88
2021-09-27 10:43:22.052878,-95
2021-09-27 10:43:22.052888,-95
2021-09-27 10:43:22.052897,-80
2021-09-27 10:43:22.278914,-73
2021-09-27 10:43:22.278947,-73
2021-09-27 10:43:22.278958,-73
2021-09-27 10:43:22.278968,-85
2021-09-27 10:43:22.278978,-88
2021-09-27 10:43:22.278987,-78
2021-09-27 10:43:22.278997,-66
2021-09-27 10:43:22.279007,-53
2021-09-27 10:43:22.279016,-48
2021-09-27 10:43:22.279026,-56
2021-09-27 10:43:22.279036,-56
2021-09-27 10:43:22.279045,-51
2021-09-27 10:43:22.279055,-56
2021-09-27 10:43:22.279065,-68
2021-09-27 10:43:22.279131,-83
2021-09-27 10:43:22.279142,-95
2021-09-27 10:43:22.279152,-97
2021-09-27 10:43:22.279161,-92
2021-09-27 10:43:22.279171,-88
2021-09-27 10:43:22.279194,-83
2021-09-27 10:43:22.279204,-95
2021-09-27 10:43:22.279214,-154
2021-09-27 10:43:22.279224,-168
2021-09-27 10:43:22.279233,163
2021-09-27 10:43:22.279243,980
2021-09-27 10:43:22.279253,1912
2021-09-27 10:43:22.279263,2174
2021-09-27 10:43:22.279272,924
2021-09-27 10:43:22.279282,-841
2021-09-27 10:43:22.279292,-961
2021-09-27 10:43:22.503793,-176
2021-09-27 10:43:22.503825,-195
2021-09-27 10:43:22.503836,-361
2021-09-27 10:43:22.503846,-129
2021-09-27 10:43:22.503856,-58
2021-09-27 10:43:22.503866,-136
2021-09-27 10:43:22.503876,-85
2021-09-27 10:43:22.503886,-34
2021-09-27 10:43:22.503896,-58
2021-09-27 10:43:22.503905,-46
2021-09-27 10:43:22.503915,-2
2021-09-27 10:43:22.503925,12
2021-09-27 10:43:22.503935,26
2021-09-27 10:43:22.503944,53
2021-09-27 10:43:22.503954,66
2021-09-27 10:43:22.503964,78
2021-09-27 10:43:22.503973,112
2021-09-27 10:43:22.503983,141
2021-09-27 10:43:22.503993,166
2021-09-27 10:43:22.504003,195
2021-09-27 10:43:22.504012,227
2021-09-27 10:43:22.504022,266
2021-09-27 10:43:22.504032,335
2021-09-27 10:43:22.504042,398
2021-09-27 10:43:22.504051,445
2021-09-27 10:43:22.504061,496
2021-09-27 10:43:22.504071,538
2021-09-27 10:43:22.504080,555
2021-09-27 10:43:22.504090,564
2021-09-27 10:43:22.504100,555
2021-09-27 10:43:22.773836,493
2021-09-27 10:43:22.773859,379
2021-09-27 10:43:22.773866,227
2021-09-27 10:43:22.773873,70
2021-09-27 10:43:22.773879,-66
2021-09-27 10:43:22.773885,-173
2021-09-27 10:43:22.773892,-244
2021-09-27 10:43:22.773898,-298
2021-09-27 10:43:22.773904,-335
2021-09-27 10:43:22.773910,-342
2021-09-27 10:43:22.773917,-330
2021-09-27 10:43:22.773923,-317
2021-09-27 10:43:22.773930,-308
2021-09-27 10:43:22.773936,-305
2021-09-27 10:43:22.773942,-300
2021-09-27 10:43:22.773948,-278
2021-09-27 10:43:22.773955,-251
2021-09-27 10:43:22.773961,-237
2021-09-27 10:43:22.773967,-220
2021-09-27 10:43:22.773973,-202
2021-09-27 10:43:22.773980,-200
2021-09-27 10:43:22.773986,-193
2021-09-27 10:43:22.773992,-171
2021-09-27 10:43:22.773998,-154
2021-09-27 10:43:22.774005,-146
2021-09-27 10:43:22.774011,-146
2021-09-27 10:43:22.774017,-141
2021-09-27 10:43:22.774034,-136
2021-09-27 10:43:22.774041,-129
2021-09-27 10:43:22.774047,-122
2021-09-27 10:43:22.953765,-129
2021-09-27 10:43:22.953797,-134
2021-09-27 10:43:22.953809,-124
2021-09-27 10:43:22.953819,-124
2021-09-27 10:43:22.953828,-122
2021-09-27 10:43:22.953838,-107
2021-09-27 10:43:22.953848,-112
2021-09-27 10:43:22.953857,-129
2021-09-27 10:43:22.953867,-119
2021-09-27 10:43:22.953877,-107
2021-09-27 10:43:22.953887,-112
2021-09-27 10:43:22.953896,-105
2021-09-27 10:43:22.953906,-100
2021-09-27 10:43:22.953916,-102
2021-09-27 10:43:22.953925,-95
2021-09-27 10:43:22.953935,-90
2021-09-27 10:43:22.953944,-92
2021-09-27 10:43:22.953954,-88
2021-09-27 10:43:22.953964,-88
2021-09-27 10:43:22.953973,-90
2021-09-27 10:43:22.953983,-85
2021-09-27 10:43:22.953993,-85
2021-09-27 10:43:22.954002,-92
2021-09-27 10:43:22.954012,-88
2021-09-27 10:43:22.954022,-73
2021-09-27 10:43:22.954031,-73
2021-09-27 10:43:22.954041,-80
2021-09-27 10:43:22.954050,-75
2021-09-27 10:43:22.954060,-73
2021-09-27 10:43:22.954070,-83
2021-09-27 10:43:23.178962,-97
2021-09-27 10:43:23.178995,-114
2021-09-27 10:43:23.179006,-114
2021-09-27 10:43:23.179016,-105
2021-09-27 10:43:23.179026,-100
2021-09-27 10:43:23.179035,-100
2021-09-27 10:43:23.179045,-95
2021-09-27 10:43:23.179054,-88
2021-09-27 10:43:23.179064,-107
2021-09-27 10:43:23.179074,-171
2021-09-27 10:43:23.179083,-176
2021-09-27 10:43:23.179093,166
2021-09-27 10:43:23.179103,983
2021-09-27 10:43:23.179112,1900
2021-09-27 10:43:23.179122,2117
2021-09-27 10:43:23.179131,829
2021-09-27 10:43:23.179141,-887
2021-09-27 10:43:23.179165,-946
2021-09-27 10:43:23.179176,-185
2021-09-27 10:43:23.179185,-220
2021-09-27 10:43:23.179195,-354
2021-09-27 10:43:23.179205,-117
2021-09-27 10:43:23.179214,-66
2021-09-27 10:43:23.179224,-144
2021-09-27 10:43:23.179233,-92
2021-09-27 10:43:23.179243,-46
2021-09-27 10:43:23.179252,-61
2021-09-27 10:43:23.179262,-41
2021-09-27 10:43:23.179272,0
2021-09-27 10:43:23.179281,9
2021-09-27 10:43:23.403953,19
2021-09-27 10:43:23.403984,46
2021-09-27 10:43:23.403996,73
2021-09-27 10:43:23.404006,88
2021-09-27 10:43:23.404016,114
2021-09-27 10:43:23.404025,136
2021-09-27 10:43:23.404035,161
2021-09-27 10:43:23.404044,210
2021-09-27 10:43:23.404054,259
2021-09-27 10:43:23.404064,293
2021-09-27 10:43:23.404073,347
2021-09-27 10:43:23.404083,410
2021-09-27 10:43:23.404093,454
2021-09-27 10:43:23.404102,501
2021-09-27 10:43:23.404112,545
2021-09-27 10:43:23.404121,567
2021-09-27 10:43:23.404131,564
2021-09-27 10:43:23.404141,545
2021-09-27 10:43:23.404150,481
2021-09-27 10:43:23.404160,364
2021-09-27 10:43:23.404170,205
2021-09-27 10:43:23.404179,46
2021-09-27 10:43:23.404189,-80
2021-09-27 10:43:23.404199,-178
2021-09-27 10:43:23.404208,-249
2021-09-27 10:43:23.404218,-291
2021-09-27 10:43:23.404228,-315
2021-09-27 10:43:23.404237,-330
2021-09-27 10:43:23.404247,-327
2021-09-27 10:43:23.404256,-320
2021-09-27 10:43:23.629432,-322
2021-09-27 10:43:23.629465,-315
2021-09-27 10:43:23.629476,-295
2021-09-27 10:43:23.629486,-278
2021-09-27 10:43:23.629496,-271
2021-09-27 10:43:23.629506,-259
2021-09-27 10:43:23.629516,-237
2021-09-27 10:43:23.629526,-222
2021-09-27 10:43:23.629536,-212
2021-09-27 10:43:23.629545,-198
2021-09-27 10:43:23.629555,-190
2021-09-27 10:43:23.629564,-185
2021-09-27 10:43:23.629574,-173
2021-09-27 10:43:23.629584,-161
2021-09-27 10:43:23.629594,-154
2021-09-27 10:43:23.629603,-149
2021-09-27 10:43:23.629613,-149
2021-09-27 10:43:23.629622,-144
2021-09-27 10:43:23.629632,-136
2021-09-27 10:43:23.629642,-136
2021-09-27 10:43:23.629652,-144
2021-09-27 10:43:23.629661,-149
2021-09-27 10:43:23.629671,-141
2021-09-27 10:43:23.629681,-129
2021-09-27 10:43:23.629690,-127
2021-09-27 10:43:23.629700,-127
2021-09-27 10:43:23.629710,-119
2021-09-27 10:43:23.629719,-117
2021-09-27 10:43:23.629729,-122
2021-09-27 10:43:23.629738,-119
2021-09-27 10:43:23.853682,-107
2021-09-27 10:43:23.853704,-105
2021-09-27 10:43:23.853711,-107
2021-09-27 10:43:23.853718,-110
2021-09-27 10:43:23.853724,-112
2021-09-27 10:43:23.853730,-107
2021-09-27 10:43:23.853736,-95
2021-09-27 10:43:23.853743,-88
2021-09-27 10:43:23.853749,-88
2021-09-27 10:43:23.853755,-92
2021-09-27 10:43:23.853761,-97
2021-09-27 10:43:23.853767,-97
2021-09-27 10:43:23.853774,-92
2021-09-27 10:43:23.853780,-97
2021-09-27 10:43:23.853786,-105
2021-09-27 10:43:23.853792,-100
2021-09-27 10:43:23.853798,-92
2021-09-27 10:43:23.853804,-83
2021-09-27 10:43:23.853811,-73
2021-09-27 10:43:23.853817,-63
2021-09-27 10:43:23.853823,-61
2021-09-27 10:43:23.853829,-70
2021-09-27 10:43:23.853835,-88
2021-09-27 10:43:23.853842,-92
2021-09-27 10:43:23.853848,-88
2021-09-27 10:43:23.853854,-80
2021-09-27 10:43:23.853860,-78
2021-09-27 10:43:23.853876,-78
2021-09-27 10:43:23.853883,-73
2021-09-27 10:43:23.853889,-66
2021-09-27 10:43:24.167259,-97
2021-09-27 10:43:24.167290,-178
2021-09-27 10:43:24.167301,-139
2021-09-27 10:43:24.167311,352
2021-09-27 10:43:24.167321,1298
2021-09-27 10:43:24.167331,2149
2021-09-27 10:43:24.167340,1971
2021-09-27 10:43:24.167350,310
2021-09-27 10:43:24.167360,-1098
2021-09-27 10:43:24.167369,-718
2021-09-27 10:43:24.167379,-117
2021-09-27 10:43:24.167389,-310
2021-09-27 10:43:24.167398,-315
2021-09-27 10:43:24.167408,-83
2021-09-27 10:43:24.167417,-112
2021-09-27 10:43:24.167427,-168
2021-09-27 10:43:24.167437,-85
2021-09-27 10:43:24.167446,-53
2021-09-27 10:43:24.167456,-66
2021-09-27 10:43:24.167465,-34
2021-09-27 10:43:24.167475,-4
2021-09-27 10:43:24.167484,-4
2021-09-27 10:43:24.167494,17
2021-09-27 10:43:24.167503,51
2021-09-27 10:43:24.167513,73
2021-09-27 10:43:24.167523,92
2021-09-27 10:43:24.167532,114
2021-09-27 10:43:24.167542,139
2021-09-27 10:43:24.167551,176
2021-09-27 10:43:24.167561,217
2021-09-27 10:43:24.348855,264
2021-09-27 10:43:24.348878,313
2021-09-27 10:43:24.348885,359
2021-09-27 10:43:24.348892,403
2021-09-27 10:43:24.348898,454
2021-09-27 10:43:24.348904,511
2021-09-27 10:43:24.348910,550
2021-09-27 10:43:24.348916,567
2021-09-27 10:43:24.348923,560
2021-09-27 10:43:24.348929,528
2021-09-27 10:43:24.348935,464
2021-09-27 10:43:24.348941,349
2021-09-27 10:43:24.348947,195
2021-09-27 10:43:24.348953,36
2021-09-27 10:43:24.348960,-105
2021-09-27 10:43:24.348966,-212
2021-09-27 10:43:24.348972,-271
2021-09-27 10:43:24.348989,-303
2021-09-27 10:43:24.348996,-320
2021-09-27 10:43:24.349002,-322
2021-09-27 10:43:24.349008,-322
2021-09-27 10:43:24.349014,-317
2021-09-27 10:43:24.349020,-298
2021-09-27 10:43:24.349027,-276
2021-09-27 10:43:24.349033,-264
2021-09-27 10:43:24.349039,-254
2021-09-27 10:43:24.349045,-242
2021-09-27 10:43:24.349051,-224
2021-09-27 10:43:24.349057,-207
2021-09-27 10:43:24.349064,-195
2021-09-27 10:43:24.663306,-180
2021-09-27 10:43:24.663338,-171
2021-09-27 10:43:24.663350,-166
2021-09-27 10:43:24.663360,-166
2021-09-27 10:43:24.663370,-163
2021-09-27 10:43:24.663380,-151
2021-09-27 10:43:24.663389,-141
2021-09-27 10:43:24.663399,-151
2021-09-27 10:43:24.663409,-168
2021-09-27 10:43:24.663418,-161
2021-09-27 10:43:24.663428,-151
2021-09-27 10:43:24.663438,-163
2021-09-27 10:43:24.663447,-173
2021-09-27 10:43:24.663457,-168
2021-09-27 10:43:24.663467,-168
2021-09-27 10:43:24.663477,-168
2021-09-27 10:43:24.663486,-156
2021-09-27 10:43:24.663496,-141
2021-09-27 10:43:24.663506,-136
2021-09-27 10:43:24.663516,-139
2021-09-27 10:43:24.663525,-134
2021-09-27 10:43:24.663535,-127
2021-09-27 10:43:24.663545,-122
2021-09-27 10:43:24.663554,-114
2021-09-27 10:43:24.663564,-110
2021-09-27 10:43:24.663574,-110
2021-09-27 10:43:24.663584,-107
2021-09-27 10:43:24.663593,-105
2021-09-27 10:43:24.663603,-102
2021-09-27 10:43:24.663613,-97
2021-09-27 10:43:24.798850,-97
2021-09-27 10:43:24.798873,-105
2021-09-27 10:43:24.798881,-107
2021-09-27 10:43:24.798887,-102
2021-09-27 10:43:24.798894,-97
2021-09-27 10:43:24.798900,-92
2021-09-27 10:43:24.798906,-92
2021-09-27 10:43:24.798923,-95
2021-09-27 10:43:24.798930,-92
2021-09-27 10:43:24.798936,-92
2021-09-27 10:43:24.798942,-92
2021-09-27 10:43:24.798948,-83
2021-09-27 10:43:24.798955,-75
2021-09-27 10:43:24.798961,-70
2021-09-27 10:43:24.798967,-63
2021-09-27 10:43:24.798973,-56
2021-09-27 10:43:24.798980,-51
2021-09-27 10:43:24.798986,-48
2021-09-27 10:43:24.798992,-61
2021-09-27 10:43:24.798998,-78
2021-09-27 10:43:24.799005,-88
2021-09-27 10:43:24.799011,-85
2021-09-27 10:43:24.799017,-80
2021-09-27 10:43:24.799023,-75
2021-09-27 10:43:24.799030,-66
2021-09-27 10:43:24.799036,-61
2021-09-27 10:43:24.799042,-66
2021-09-27 10:43:24.799048,-105
2021-09-27 10:43:24.799055,-171
2021-09-27 10:43:24.799061,-44
2021-09-27 10:43:25.023906,586
2021-09-27 10:43:25.023939,1579
2021-09-27 10:43:25.023950,2257
2021-09-27 10:43:25.023961,1684
2021-09-27 10:43:25.023970,-117
2021-09-27 10:43:25.023980,-1102
2021-09-27 10:43:25.023990,-467
2021-09-27 10:43:25.023999,-73
2021-09-27 10:43:25.024009,-325
2021-09-27 10:43:25.024019,-237
2021-09-27 10:43:25.024028,-56
2021-09-27 10:43:25.024038,-124
2021-09-27 10:43:25.024048,-141
2021-09-27 10:43:25.024057,-66
2021-09-27 10:43:25.024067,-53
2021-09-27 10:43:25.024076,-56
2021-09-27 10:43:25.024086,-29
2021-09-27 10:43:25.024096,-24
2021-09-27 10:43:25.024105,-22
2021-09-27 10:43:25.024115,12
2021-09-27 10:43:25.024125,39
2021-09-27 10:43:25.024134,56
2021-09-27 10:43:25.024144,85
2021-09-27 10:43:25.024154,112
2021-09-27 10:43:25.024163,136
2021-09-27 10:43:25.024173,176
2021-09-27 10:43:25.024183,217
2021-09-27 10:43:25.024207,259
2021-09-27 10:43:25.024218,305
2021-09-27 10:43:25.024227,357
2021-09-27 10:43:25.248954,413
2021-09-27 10:43:25.248986,469
2021-09-27 10:43:25.248997,513
2021-09-27 10:43:25.249007,538
2021-09-27 10:43:25.249016,555
2021-09-27 10:43:25.249026,552
2021-09-27 10:43:25.249035,520
2021-09-27 10:43:25.249045,447
2021-09-27 10:43:25.249054,327
2021-09-27 10:43:25.249064,171
2021-09-27 10:43:25.249074,12
2021-09-27 10:43:25.249083,-129
2021-09-27 10:43:25.249093,-232
2021-09-27 10:43:25.249103,-286
2021-09-27 10:43:25.249112,-315
2021-09-27 10:43:25.249122,-332
2021-09-27 10:43:25.249131,-332
2021-09-27 10:43:25.249141,-330
2021-09-27 10:43:25.249150,-317
2021-09-27 10:43:25.249160,-295
2021-09-27 10:43:25.249169,-283
2021-09-27 10:43:25.249179,-271
2021-09-27 10:43:25.249189,-254
2021-09-27 10:43:25.249198,-244
2021-09-27 10:43:25.249208,-234
2021-09-27 10:43:25.249217,-210
2021-09-27 10:43:25.249227,-190
2021-09-27 10:43:25.249237,-183
2021-09-27 10:43:25.249246,-178
2021-09-27 10:43:25.249256,-171
2021-09-27 10:43:25.473824,-163
2021-09-27 10:43:25.473844,-158
2021-09-27 10:43:25.473850,-156
2021-09-27 10:43:25.473856,-151
2021-09-27 10:43:25.473862,-151
2021-09-27 10:43:25.473867,-158
2021-09-27 10:43:25.473873,-154
2021-09-27 10:43:25.473878,-141
2021-09-27 10:43:25.473884,-134
2021-09-27 10:43:25.473889,-136
2021-09-27 10:43:25.473894,-146
2021-09-27 10:43:25.473900,-146
2021-09-27 10:43:25.473905,-141
2021-09-27 10:43:25.473911,-141
2021-09-27 10:43:25.473916,-139
2021-09-27 10:43:25.473922,-132
2021-09-27 10:43:25.473927,-129
2021-09-27 10:43:25.473932,-127
2021-09-27 10:43:25.473938,-117
2021-09-27 10:43:25.473943,-110
2021-09-27 10:43:25.473949,-110
2021-09-27 10:43:25.473954,-107
2021-09-27 10:43:25.473959,-122
2021-09-27 10:43:25.473965,-139
2021-09-27 10:43:25.473970,-132
2021-09-27 10:43:25.473976,-114
2021-09-27 10:43:25.473981,-117
2021-09-27 10:43:25.473987,-119
2021-09-27 10:43:25.473992,-114
2021-09-27 10:43:25.473997,-110
2021-09-27 10:43:25.698492,-105
2021-09-27 10:43:25.698515,-95
2021-09-27 10:43:25.698522,-90
2021-09-27 10:43:25.698529,-97
2021-09-27 10:43:25.698535,-105
2021-09-27 10:43:25.698542,-100
2021-09-27 10:43:25.698548,-90
2021-09-27 10:43:25.698554,-83
2021-09-27 10:43:25.698560,-80
2021-09-27 10:43:25.698567,-90
2021-09-27 10:43:25.698573,-102
2021-09-27 10:43:25.698579,-88
2021-09-27 10:43:25.698586,-66
2021-09-27 10:43:25.698592,-66
2021-09-27 10:43:25.698598,-70
2021-09-27 10:43:25.698604,-66
2021-09-27 10:43:25.698611,-61
2021-09-27 10:43:25.698617,-66
2021-09-27 10:43:25.698623,-78
2021-09-27 10:43:25.698629,-83
2021-09-27 10:43:25.698636,-78
2021-09-27 10:43:25.698642,-75
2021-09-27 10:43:25.698648,-75
2021-09-27 10:43:25.698654,-70
2021-09-27 10:43:25.698660,-58
2021-09-27 10:43:25.698667,-53
2021-09-27 10:43:25.698673,-80
2021-09-27 10:43:25.698679,-156
2021-09-27 10:43:25.698685,-107
2021-09-27 10:43:25.698692,405
2021-09-27 10:43:25.968949,1342
2021-09-27 10:43:25.968982,2159
2021-09-27 10:43:25.968994,1975
2021-09-27 10:43:25.969004,330
2021-09-27 10:43:25.969014,-1063
2021-09-27 10:43:25.969024,-652
2021-09-27 10:43:25.969034,-53
2021-09-27 10:43:25.969076,-276
2021-09-27 10:43:25.969087,-286
2021-09-27 10:43:25.969096,-58
2021-09-27 10:43:25.969106,-102
2021-09-27 10:43:25.969116,-144
2021-09-27 10:43:25.969126,-46
2021-09-27 10:43:25.969135,-24
2021-09-27 10:43:25.969145,-46
2021-09-27 10:43:25.969155,-22
2021-09-27 10:43:25.969164,0
2021-09-27 10:43:25.969174,4
2021-09-27 10:43:25.969184,26
2021-09-27 10:43:25.969193,58
2021-09-27 10:43:25.969203,75
2021-09-27 10:43:25.969213,92
2021-09-27 10:43:25.969222,124
2021-09-27 10:43:25.969232,156
2021-09-27 10:43:25.969241,185
2021-09-27 10:43:25.969251,224
2021-09-27 10:43:25.969261,269
2021-09-27 10:43:25.969270,305
2021-09-27 10:43:25.969280,347
2021-09-27 10:43:25.969289,393
2021-09-27 10:43:26.282621,447
2021-09-27 10:43:26.282654,498
2021-09-27 10:43:26.282665,533
2021-09-27 10:43:26.282676,550
2021-09-27 10:43:26.282685,560
2021-09-27 10:43:26.282695,542
2021-09-27 10:43:26.282705,486
2021-09-27 10:43:26.282714,386
2021-09-27 10:43:26.282724,227
2021-09-27 10:43:26.282733,56
2021-09-27 10:43:26.282743,-73
2021-09-27 10:43:26.282753,-171
2021-09-27 10:43:26.282762,-249
2021-09-27 10:43:26.282772,-295
2021-09-27 10:43:26.282782,-325
2021-09-27 10:43:26.282791,-339
2021-09-27 10:43:26.282801,-330
2021-09-27 10:43:26.282810,-308
2021-09-27 10:43:26.282820,-303
2021-09-27 10:43:26.282829,-305
2021-09-27 10:43:26.282839,-295
2021-09-27 10:43:26.282867,-273
2021-09-27 10:43:26.282877,-254
2021-09-27 10:43:26.282887,-246
2021-09-27 10:43:26.282897,-237
2021-09-27 10:43:26.282906,-217
2021-09-27 10:43:26.282916,-210
2021-09-27 10:43:26.282932,-202
2021-09-27 10:43:26.282942,-183
2021-09-27 10:43:26.282952,-166
2021-09-27 10:43:26.418922,-161
2021-09-27 10:43:26.418947,-154
2021-09-27 10:43:26.418955,-154
2021-09-27 10:43:26.418993,-158
2021-09-27 10:43:26.418999,-149
2021-09-27 10:43:26.419006,-139
2021-09-27 10:43:26.419012,-141
2021-09-27 10:43:26.419018,-139
2021-09-27 10:43:26.419024,-134
2021-09-27 10:43:26.419031,-129
2021-09-27 10:43:26.419037,-122
2021-09-27 10:43:26.419043,-114
2021-09-27 10:43:26.419049,-117
2021-09-27 10:43:26.419055,-127
2021-09-27 10:43:26.419062,-139
2021-09-27 10:43:26.419068,-136
2021-09-27 10:43:26.419074,-127
2021-09-27 10:43:26.419080,-127
2021-09-27 10:43:26.419087,-127
2021-09-27 10:43:26.419093,-129
2021-09-27 10:43:26.419099,-134
2021-09-27 10:43:26.419105,-136
2021-09-27 10:43:26.419111,-129
2021-09-27 10:43:26.419118,-122
2021-09-27 10:43:26.419124,-114
2021-09-27 10:43:26.419130,-112
2021-09-27 10:43:26.419136,-112
2021-09-27 10:43:26.419142,-112
2021-09-27 10:43:26.419149,-105
2021-09-27 10:43:26.419155,-92
2021-09-27 10:43:26.643984,-88
2021-09-27 10:43:26.644016,-90
2021-09-27 10:43:26.644028,-88
2021-09-27 10:43:26.644038,-83
2021-09-27 10:43:26.644047,-88
2021-09-27 10:43:26.644057,-100
2021-09-27 10:43:26.644067,-97
2021-09-27 10:43:26.644077,-90
2021-09-27 10:43:26.644086,-88
2021-09-27 10:43:26.644096,-80
2021-09-27 10:43:26.644105,-68
2021-09-27 10:43:26.644115,-58
2021-09-27 10:43:26.644124,-61
2021-09-27 10:43:26.644134,-83
2021-09-27 10:43:26.644144,-102
2021-09-27 10:43:26.644153,-102
2021-09-27 10:43:26.644163,-88
2021-09-27 10:43:26.644173,-75
2021-09-27 10:43:26.644182,-75
2021-09-27 10:43:26.644192,-75
2021-09-27 10:43:26.644202,-66
2021-09-27 10:43:26.644211,-70
2021-09-27 10:43:26.644221,-122
2021-09-27 10:43:26.644230,-151
2021-09-27 10:43:26.644240,124
2021-09-27 10:43:26.644250,887
2021-09-27 10:43:26.644260,1804
2021-09-27 10:43:26.644269,2144
2021-09-27 10:43:26.644279,1076
2021-09-27 10:43:26.644289,-679
2021-09-27 10:43:26.868920,-1000
2021-09-27 10:43:26.868952,-237
2021-09-27 10:43:26.868964,-158
2021-09-27 10:43:26.868974,-344
2021-09-27 10:43:26.868984,-129
2021-09-27 10:43:26.868994,-34
2021-09-27 10:43:26.869003,-127
2021-09-27 10:43:26.869013,-90
2021-09-27 10:43:26.869022,-22
2021-09-27 10:43:26.869032,-39
2021-09-27 10:43:26.869041,-29
2021-09-27 10:43:26.869051,12
2021-09-27 10:43:26.869061,14
2021-09-27 10:43:26.869070,19
2021-09-27 10:43:26.869080,56
2021-09-27 10:43:26.869089,78
2021-09-27 10:43:26.869099,95
2021-09-27 10:43:26.869109,127
2021-09-27 10:43:26.869118,154
2021-09-27 10:43:26.869128,183
2021-09-27 10:43:26.869138,217
2021-09-27 10:43:26.869147,256
2021-09-27 10:43:26.869157,303
2021-09-27 10:43:26.869166,352
2021-09-27 10:43:26.869176,398
2021-09-27 10:43:26.869185,442
2021-09-27 10:43:26.869195,489
2021-09-27 10:43:26.869205,528
2021-09-27 10:43:26.869214,550
2021-09-27 10:43:26.869224,562
2021-09-27 10:43:27.138957,560
2021-09-27 10:43:27.138988,518
2021-09-27 10:43:27.139000,423
2021-09-27 10:43:27.139010,278
2021-09-27 10:43:27.139020,124
2021-09-27 10:43:27.139030,-24
2021-09-27 10:43:27.139039,-149
2021-09-27 10:43:27.139063,-224
2021-09-27 10:43:27.139074,-266
2021-09-27 10:43:27.139083,-305
2021-09-27 10:43:27.139093,-337
2021-09-27 10:43:27.139102,-359
2021-09-27 10:43:27.139112,-349
2021-09-27 10:43:27.139121,-327
2021-09-27 10:43:27.139131,-313
2021-09-27 10:43:27.139140,-300
2021-09-27 10:43:27.139150,-283
2021-09-27 10:43:27.139159,-269
2021-09-27 10:43:27.139169,-254
2021-09-27 10:43:27.139178,-234
2021-09-27 10:43:27.139188,-215
2021-09-27 10:43:27.139197,-202
2021-09-27 10:43:27.139207,-198
2021-09-27 10:43:27.139217,-185
2021-09-27 10:43:27.139226,-168
2021-09-27 10:43:27.139236,-161
2021-09-27 10:43:27.139245,-158
2021-09-27 10:43:27.139255,-161
2021-09-27 10:43:27.139264,-163
2021-09-27 10:43:27.139274,-158
2021-09-27 10:43:27.318884,-154
2021-09-27 10:43:27.318907,-151
2021-09-27 10:43:27.318915,-154
2021-09-27 10:43:27.318921,-154
2021-09-27 10:43:27.318927,-158
2021-09-27 10:43:27.318934,-171
2021-09-27 10:43:27.318940,-166
2021-09-27 10:43:27.318946,-156
2021-09-27 10:43:27.318953,-154
2021-09-27 10:43:27.318959,-151
2021-09-27 10:43:27.318965,-144
2021-09-27 10:43:27.318972,-139
2021-09-27 10:43:27.318978,-134
2021-09-27 10:43:27.318984,-127
2021-09-27 10:43:27.318991,-119
2021-09-27 10:43:27.318997,-117
2021-09-27 10:43:27.319003,-122
2021-09-27 10:43:27.319009,-124
2021-09-27 10:43:27.319016,-114
2021-09-27 10:43:27.319022,-105
2021-09-27 10:43:27.319028,-105
2021-09-27 10:43:27.319035,-100
2021-09-27 10:43:27.319041,-102
2021-09-27 10:43:27.319047,-105
2021-09-27 10:43:27.319054,-90
2021-09-27 10:43:27.319060,-70
2021-09-27 10:43:27.319066,-70
2021-09-27 10:43:27.319083,-78
2021-09-27 10:43:27.319090,-75
2021-09-27 10:43:27.319096,-75
2021-09-27 10:43:27.543829,-73
2021-09-27 10:43:27.543862,-58
2021-09-27 10:43:27.543874,-51
2021-09-27 10:43:27.543884,-58
2021-09-27 10:43:27.543894,-58
2021-09-27 10:43:27.543903,-56
2021-09-27 10:43:27.543913,-61
2021-09-27 10:43:27.543923,-63
2021-09-27 10:43:27.543932,-68
2021-09-27 10:43:27.543942,-83
2021-09-27 10:43:27.543952,-83
2021-09-27 10:43:27.543961,-73
2021-09-27 10:43:27.543971,-61
2021-09-27 10:43:27.543981,-56
2021-09-27 10:43:27.543991,-63
2021-09-27 10:43:27.544000,-119
2021-09-27 10:43:27.544010,-185
2021-09-27 10:43:27.544020,29
2021-09-27 10:43:27.544029,767
2021-09-27 10:43:27.544039,1748
2021-09-27 10:43:27.544048,2237
2021-09-27 10:43:27.544058,1340
2021-09-27 10:43:27.544068,-479
2021-09-27 10:43:27.544077,-1056
2021-09-27 10:43:27.544087,-300
2021-09-27 10:43:27.544097,-107
2021-09-27 10:43:27.544106,-342
2021-09-27 10:43:27.544116,-171
2021-09-27 10:43:27.544126,-34
2021-09-27 10:43:27.544135,-114
2021-09-27 10:43:27.813933,-92
2021-09-27 10:43:27.813965,-34
2021-09-27 10:43:27.813976,-53
2021-09-27 10:43:27.813986,-56
2021-09-27 10:43:27.813995,-24
2021-09-27 10:43:27.814005,-2
2021-09-27 10:43:27.814015,12
2021-09-27 10:43:27.814024,41
2021-09-27 10:43:27.814034,66
2021-09-27 10:43:27.814043,73
2021-09-27 10:43:27.814053,88
2021-09-27 10:43:27.814063,127
2021-09-27 10:43:27.814072,163
2021-09-27 10:43:27.814082,195
2021-09-27 10:43:27.814091,232
2021-09-27 10:43:27.814101,271
2021-09-27 10:43:27.814110,320
2021-09-27 10:43:27.814134,379
2021-09-27 10:43:27.814145,430
2021-09-27 10:43:27.814154,479
2021-09-27 10:43:27.814164,523
2021-09-27 10:43:27.814173,547
2021-09-27 10:43:27.814183,560
2021-09-27 10:43:27.814192,560
2021-09-27 10:43:27.814202,528
2021-09-27 10:43:27.814212,445
2021-09-27 10:43:27.814221,308
2021-09-27 10:43:27.814231,149
2021-09-27 10:43:27.814240,7
2021-09-27 10:43:27.814250,-114
2021-09-27 10:43:28.038889,-202
2021-09-27 10:43:28.038913,-256
2021-09-27 10:43:28.038921,-295
2021-09-27 10:43:28.038928,-327
2021-09-27 10:43:28.038934,-330
2021-09-27 10:43:28.038940,-313
2021-09-27 10:43:28.038946,-300
2021-09-27 10:43:28.038952,-291
2021-09-27 10:43:28.038959,-286
2021-09-27 10:43:28.038965,-278
2021-09-27 10:43:28.038971,-259
2021-09-27 10:43:28.039018,-242
2021-09-27 10:43:28.039025,-227
2021-09-27 10:43:28.039031,-210
2021-09-27 10:43:28.039038,-207
2021-09-27 10:43:28.039044,-210
2021-09-27 10:43:28.039054,-190
2021-09-27 10:43:28.039060,-171
2021-09-27 10:43:28.039066,-163
2021-09-27 10:43:28.039073,-158
2021-09-27 10:43:28.039112,-156
2021-09-27 10:43:28.039118,-166
2021-09-27 10:43:28.039124,-173
2021-09-27 10:43:28.039131,-176
2021-09-27 10:43:28.039168,-168
2021-09-27 10:43:28.039218,-161
2021-09-27 10:43:28.039225,-168
2021-09-27 10:43:28.039232,-171
2021-09-27 10:43:28.039238,-163
2021-09-27 10:43:28.039244,-154
2021-09-27 10:43:28.352522,-149
2021-09-27 10:43:28.352554,-144
2021-09-27 10:43:28.352566,-141
2021-09-27 10:43:28.352576,-141
2021-09-27 10:43:28.352585,-139
2021-09-27 10:43:28.352595,-136
2021-09-27 10:43:28.352605,-134
2021-09-27 10:43:28.352629,-136
2021-09-27 10:43:28.352639,-139
2021-09-27 10:43:28.352649,-136
2021-09-27 10:43:28.352659,-124
2021-09-27 10:43:28.352668,-117
2021-09-27 10:43:28.352678,-110
2021-09-27 10:43:28.352688,-112
2021-09-27 10:43:28.352697,-122
2021-09-27 10:43:28.352707,-122
2021-09-27 10:43:28.352716,-105
2021-09-27 10:43:28.352726,-92
2021-09-27 10:43:28.352735,-95
2021-09-27 10:43:28.352745,-97
2021-09-27 10:43:28.352755,-88
2021-09-27 10:43:28.352764,-85
2021-09-27 10:43:28.352774,-83
2021-09-27 10:43:28.352783,-78
2021-09-27 10:43:28.352793,-66
2021-09-27 10:43:28.352802,-61
2021-09-27 10:43:28.352812,-56
2021-09-27 10:43:28.352822,-51
2021-09-27 10:43:28.352831,-44
2021-09-27 10:43:28.352841,-36
2021-09-27 10:43:28.488481,-44
2021-09-27 10:43:28.488505,-66
2021-09-27 10:43:28.488514,-70
2021-09-27 10:43:28.488520,-63
2021-09-27 10:43:28.488527,-61
2021-09-27 10:43:28.488533,-53
2021-09-27 10:43:28.488540,-44
2021-09-27 10:43:28.488546,-46
2021-09-27 10:43:28.488552,-68
2021-09-27 10:43:28.488559,-127
2021-09-27 10:43:28.488565,-156
2021-09-27 10:43:28.488571,132
2021-09-27 10:43:28.488577,921
2021-09-27 10:43:28.488584,1873
2021-09-27 10:43:28.488590,2220
2021-09-27 10:43:28.488596,1120
2021-09-27 10:43:28.488603,-660
2021-09-27 10:43:28.488609,-978
2021-09-27 10:43:28.488615,-212
2021-09-27 10:43:28.488622,-149
2021-09-27 10:43:28.488628,-344
2021-09-27 10:43:28.488635,-132
2021-09-27 10:43:28.488641,-44
2021-09-27 10:43:28.488647,-132
2021-09-27 10:43:28.488653,-85
2021-09-27 10:43:28.488660,-29
2021-09-27 10:43:28.488666,-48
2021-09-27 10:43:28.488684,-44
2021-09-27 10:43:28.488691,-22
2021-09-27 10:43:28.488697,-4
2021-09-27 10:43:28.758610,12
2021-09-27 10:43:28.758635,29
2021-09-27 10:43:28.758642,51
2021-09-27 10:43:28.758648,78
2021-09-27 10:43:28.758655,107
2021-09-27 10:43:28.758661,134
2021-09-27 10:43:28.758667,158
2021-09-27 10:43:28.758673,185
2021-09-27 10:43:28.758680,222
2021-09-27 10:43:28.758686,266
2021-09-27 10:43:28.758693,310
2021-09-27 10:43:28.758699,361
2021-09-27 10:43:28.758705,405
2021-09-27 10:43:28.758711,449
2021-09-27 10:43:28.758717,501
2021-09-27 10:43:28.758724,535
2021-09-27 10:43:28.758730,545
2021-09-27 10:43:28.758736,538
2021-09-27 10:43:28.758742,498
2021-09-27 10:43:28.758748,408
2021-09-27 10:43:28.758755,271
2021-09-27 10:43:28.758761,112
2021-09-27 10:43:28.758767,-29
2021-09-27 10:43:28.758773,-141
2021-09-27 10:43:28.758780,-229
2021-09-27 10:43:28.758786,-281
2021-09-27 10:43:28.758792,-308
2021-09-27 10:43:28.758798,-317
2021-09-27 10:43:28.758805,-317
2021-09-27 10:43:28.758811,-315
2021-09-27 10:43:28.938954,-310
2021-09-27 10:43:28.938976,-295
2021-09-27 10:43:28.938984,-281
2021-09-27 10:43:28.938990,-269
2021-09-27 10:43:28.938996,-254
2021-09-27 10:43:28.939003,-244
2021-09-27 10:43:28.939009,-239
2021-09-27 10:43:28.939015,-222
2021-09-27 10:43:28.939021,-200
2021-09-27 10:43:28.939028,-195
2021-09-27 10:43:28.939034,-188
2021-09-27 10:43:28.939040,-178
2021-09-27 10:43:28.939046,-176
2021-09-27 10:43:28.939053,-166
2021-09-27 10:43:28.939059,-154
2021-09-27 10:43:28.939065,-154
2021-09-27 10:43:28.939071,-154
2021-09-27 10:43:28.939088,-154
2021-09-27 10:43:28.939095,-156
2021-09-27 10:43:28.939101,-149
2021-09-27 10:43:28.939107,-144
2021-09-27 10:43:28.939114,-149
2021-09-27 10:43:28.939120,-151
2021-09-27 10:43:28.939126,-151
2021-09-27 10:43:28.939132,-151
2021-09-27 10:43:28.939138,-144
2021-09-27 10:43:28.939145,-139
2021-09-27 10:43:28.939151,-134
2021-09-27 10:43:28.939157,-129
2021-09-27 10:43:28.939163,-129
2021-09-27 10:43:29.163928,-129
2021-09-27 10:43:29.163960,-119
2021-09-27 10:43:29.163972,-114
2021-09-27 10:43:29.163982,-129
2021-09-27 10:43:29.163992,-136
2021-09-27 10:43:29.164001,-132
2021-09-27 10:43:29.164011,-129
2021-09-27 10:43:29.164020,-122
2021-09-27 10:43:29.164030,-112
2021-09-27 10:43:29.164040,-110
2021-09-27 10:43:29.164049,-112
2021-09-27 10:43:29.164059,-117
2021-09-27 10:43:29.164069,-110
2021-09-27 10:43:29.164078,-105
2021-09-27 10:43:29.164088,-110
2021-09-27 10:43:29.164098,-102
2021-09-27 10:43:29.164107,-97
2021-09-27 10:43:29.164117,-97
2021-09-27 10:43:29.164126,-90
2021-09-27 10:43:29.164136,-78
2021-09-27 10:43:29.164145,-68
2021-09-27 10:43:29.164155,-66
2021-09-27 10:43:29.164164,-58
2021-09-27 10:43:29.164174,-48
2021-09-27 10:43:29.164184,-48
2021-09-27 10:43:29.164193,-61
2021-09-27 10:43:29.164203,-78
2021-09-27 10:43:29.164212,-80
2021-09-27 10:43:29.164222,-66
2021-09-27 10:43:29.164232,-63
2021-09-27 10:43:29.433947,-63
2021-09-27 10:43:29.433979,-48
2021-09-27 10:43:29.433991,-46
2021-09-27 10:43:29.434001,-73
2021-09-27 10:43:29.434011,-144
2021-09-27 10:43:29.434021,-134
2021-09-27 10:43:29.434031,281
2021-09-27 10:43:29.434055,1159
2021-09-27 10:43:29.434065,2037
2021-09-27 10:43:29.434075,2093
2021-09-27 10:43:29.434085,650
2021-09-27 10:43:29.434094,-951
2021-09-27 10:43:29.434104,-807
2021-09-27 10:43:29.434114,-92
2021-09-27 10:43:29.434124,-222
2021-09-27 10:43:29.434133,-320
2021-09-27 10:43:29.434143,-83
2021-09-27 10:43:29.434152,-66
2021-09-27 10:43:29.434162,-132
2021-09-27 10:43:29.434171,-63
2021-09-27 10:43:29.434181,-26
2021-09-27 10:43:29.434190,-51
2021-09-27 10:43:29.434200,-31
2021-09-27 10:43:29.434210,4
2021-09-27 10:43:29.434219,26
2021-09-27 10:43:29.434234,44
2021-09-27 10:43:29.434244,63
2021-09-27 10:43:29.434254,78
2021-09-27 10:43:29.434264,97
2021-09-27 10:43:29.434273,129
2021-09-27 10:43:29.658917,161
2021-09-27 10:43:29.658949,195
2021-09-27 10:43:29.658960,232
2021-09-27 10:43:29.658970,261
2021-09-27 10:43:29.658980,293
2021-09-27 10:43:29.658990,349
2021-09-27 10:43:29.659000,418
2021-09-27 10:43:29.659009,464
2021-09-27 10:43:29.659019,486
2021-09-27 10:43:29.659029,511
2021-09-27 10:43:29.659038,538
2021-09-27 10:43:29.659048,550
2021-09-27 10:43:29.659057,538
2021-09-27 10:43:29.659067,491
2021-09-27 10:43:29.659077,383
2021-09-27 10:43:29.659086,220
2021-09-27 10:43:29.659096,56
2021-09-27 10:43:29.659106,-75
2021-09-27 10:43:29.659115,-180
2021-09-27 10:43:29.659125,-251
2021-09-27 10:43:29.659135,-298
2021-09-27 10:43:29.659144,-325
2021-09-27 10:43:29.659154,-332
2021-09-27 10:43:29.659163,-327
2021-09-27 10:43:29.659173,-313
2021-09-27 10:43:29.659183,-295
2021-09-27 10:43:29.659192,-291
2021-09-27 10:43:29.659202,-286
2021-09-27 10:43:29.659212,-273
2021-09-27 10:43:29.659222,-256
2021-09-27 10:43:29.928944,-239
2021-09-27 10:43:29.928976,-222
2021-09-27 10:43:29.928987,-207
2021-09-27 10:43:29.928997,-200
2021-09-27 10:43:29.929007,-190
2021-09-27 10:43:29.929017,-176
2021-09-27 10:43:29.929026,-168
2021-09-27 10:43:29.929036,-166
2021-09-27 10:43:29.929045,-163
2021-09-27 10:43:29.929055,-166
2021-09-27 10:43:29.929064,-158
2021-09-27 10:43:29.929074,-151
2021-09-27 10:43:29.929084,-151
2021-09-27 10:43:29.929093,-146
2021-09-27 10:43:29.929103,-146
2021-09-27 10:43:29.929112,-154
2021-09-27 10:43:29.929122,-144
2021-09-27 10:43:29.929131,-136
2021-09-27 10:43:29.929141,-139
2021-09-27 10:43:29.929150,-139
2021-09-27 10:43:29.929160,-146
2021-09-27 10:43:29.929170,-156
2021-09-27 10:43:29.929179,-156
2021-09-27 10:43:29.929189,-149
2021-09-27 10:43:29.929198,-141
2021-09-27 10:43:29.929208,-132
2021-09-27 10:43:29.929217,-127
2021-09-27 10:43:29.929227,-124
2021-09-27 10:43:29.929236,-122
2021-09-27 10:43:29.929246,-114
2021-09-27 10:43:30.108939,-107
2021-09-27 10:43:30.108971,-102
2021-09-27 10:43:30.108983,-107
2021-09-27 10:43:30.108993,-110
2021-09-27 10:43:30.109003,-102
2021-09-27 10:43:30.109012,-90
2021-09-27 10:43:30.109022,-85
2021-09-27 10:43:30.109031,-85
2021-09-27 10:43:30.109041,-95
2021-09-27 10:43:30.109051,-100
2021-09-27 10:43:30.109060,-80
2021-09-27 10:43:30.109070,-58
2021-09-27 10:43:30.109080,-58
2021-09-27 10:43:30.109089,-68
2021-09-27 10:43:30.109099,-73
2021-09-27 10:43:30.109108,-75
2021-09-27 10:43:30.109118,-78
2021-09-27 10:43:30.109142,-83
2021-09-27 10:43:30.109153,-90
2021-09-27 10:43:30.109163,-88
2021-09-27 10:43:30.109173,-88
2021-09-27 10:43:30.109182,-97
2021-09-27 10:43:30.109192,-97
2021-09-27 10:43:30.109211,-83
2021-09-27 10:43:30.109221,-88
2021-09-27 10:43:30.109231,-156
2021-09-27 10:43:30.109241,-149
2021-09-27 10:43:30.109251,266
2021-09-27 10:43:30.109260,1129
2021-09-27 10:43:30.109270,1988
2021-09-27 10:43:30.467432,2051
2021-09-27 10:43:30.467465,626
2021-09-27 10:43:30.467477,-985
2021-09-27 10:43:30.467488,-846
2021-09-27 10:43:30.467498,-122
2021-09-27 10:43:30.467507,-237
2021-09-27 10:43:30.467517,-325
2021-09-27 10:43:30.467527,-88
2021-09-27 10:43:30.467536,-73
2021-09-27 10:43:30.467546,-136
2021-09-27 10:43:30.467556,-61
2021-09-27 10:43:30.467566,-19
2021-09-27 10:43:30.467575,-39
2021-09-27 10:43:30.467585,-29
2021-09-27 10:43:30.467595,0
2021-09-27 10:43:30.467605,14
2021-09-27 10:43:30.467614,34
2021-09-27 10:43:30.467624,61
2021-09-27 10:43:30.467634,83
2021-09-27 10:43:30.467643,102
2021-09-27 10:43:30.467653,127
2021-09-27 10:43:30.467663,163
2021-09-27 10:43:30.467672,202
2021-09-27 10:43:30.467682,234
2021-09-27 10:43:30.467692,264
2021-09-27 10:43:30.467702,308
2021-09-27 10:43:30.467711,366
2021-09-27 10:43:30.467721,423
2021-09-27 10:43:30.467731,474
2021-09-27 10:43:30.467741,520
2021-09-27 10:43:30.603807,555
2021-09-27 10:43:30.603839,579
2021-09-27 10:43:30.603851,584
2021-09-27 10:43:30.603861,557
2021-09-27 10:43:30.603870,496
2021-09-27 10:43:30.603880,383
2021-09-27 10:43:30.603890,224
2021-09-27 10:43:30.603914,58
2021-09-27 10:43:30.603925,-78
2021-09-27 10:43:30.603935,-180
2021-09-27 10:43:30.603944,-249
2021-09-27 10:43:30.603954,-291
2021-09-27 10:43:30.603964,-322
2021-09-27 10:43:30.603973,-337
2021-09-27 10:43:30.603983,-330
2021-09-27 10:43:30.603993,-317
2021-09-27 10:43:30.604002,-308
2021-09-27 10:43:30.604012,-293
2021-09-27 10:43:30.604022,-283
2021-09-27 10:43:30.604031,-281
2021-09-27 10:43:30.604041,-264
2021-09-27 10:43:30.604051,-244
2021-09-27 10:43:30.604060,-224
2021-09-27 10:43:30.604070,-205
2021-09-27 10:43:30.604079,-200
2021-09-27 10:43:30.604089,-202
2021-09-27 10:43:30.604099,-200
2021-09-27 10:43:30.604108,-188
2021-09-27 10:43:30.604118,-168
2021-09-27 10:43:30.604127,-158
2021-09-27 10:43:30.783854,-158
2021-09-27 10:43:30.783877,-154
2021-09-27 10:43:30.783885,-151
2021-09-27 10:43:30.783891,-154
2021-09-27 10:43:30.783897,-146
2021-09-27 10:43:30.783904,-146
2021-09-27 10:43:30.783910,-156
2021-09-27 10:43:30.783916,-156
2021-09-27 10:43:30.783922,-144
2021-09-27 10:43:30.783929,-136
2021-09-27 10:43:30.783935,-132
2021-09-27 10:43:30.783941,-127
2021-09-27 10:43:30.783947,-124
2021-09-27 10:43:30.783954,-122
2021-09-27 10:43:30.783960,-117
2021-09-27 10:43:30.783966,-122
2021-09-27 10:43:30.783972,-119
2021-09-27 10:43:30.783979,-122
2021-09-27 10:43:30.783985,-132
2021-09-27 10:43:30.783991,-124
2021-09-27 10:43:30.783997,-112
2021-09-27 10:43:30.784003,-117
2021-09-27 10:43:30.784010,-117
2021-09-27 10:43:30.784016,-100
2021-09-27 10:43:30.784022,-95
2021-09-27 10:43:30.784028,-97
2021-09-27 10:43:30.784035,-100
2021-09-27 10:43:30.784051,-97
2021-09-27 10:43:30.784058,-102
2021-09-27 10:43:30.784065,-100
2021-09-27 10:43:31.053938,-83
2021-09-27 10:43:31.053970,-68
2021-09-27 10:43:31.053981,-66
2021-09-27 10:43:31.053991,-66
2021-09-27 10:43:31.054001,-73
2021-09-27 10:43:31.054011,-97
2021-09-27 10:43:31.054021,-110
2021-09-27 10:43:31.054030,-97
2021-09-27 10:43:31.054040,-88
2021-09-27 10:43:31.054050,-88
2021-09-27 10:43:31.054060,-85
2021-09-27 10:43:31.054069,-85
2021-09-27 10:43:31.054079,-90
2021-09-27 10:43:31.054089,-110
2021-09-27 10:43:31.054098,-171
2021-09-27 10:43:31.054108,-85
2021-09-27 10:43:31.054118,471
2021-09-27 10:43:31.054128,1415
2021-09-27 10:43:31.054137,2164
2021-09-27 10:43:31.054147,1814
2021-09-27 10:43:31.054157,92
2021-09-27 10:43:31.054166,-1117
2021-09-27 10:43:31.054176,-584
2021-09-27 10:43:31.054186,-83
2021-09-27 10:43:31.054196,-335
2021-09-27 10:43:31.054205,-278
2021-09-27 10:43:31.054215,-53
2021-09-27 10:43:31.054225,-110
2021-09-27 10:43:31.054234,-149
2021-09-27 10:43:31.054244,-66
2021-09-27 10:43:31.233949,-53
2021-09-27 10:43:31.233981,-66
2021-09-27 10:43:31.233993,-31
2021-09-27 10:43:31.234003,-7
2021-09-27 10:43:31.234013,-4
2021-09-27 10:43:31.234023,17
2021-09-27 10:43:31.234033,46
2021-09-27 10:43:31.234043,68
2021-09-27 10:43:31.234053,92
2021-09-27 10:43:31.234063,119
2021-09-27 10:43:31.234073,144
2021-09-27 10:43:31.234082,178
2021-09-27 10:43:31.234092,224
2021-09-27 10:43:31.234102,276
2021-09-27 10:43:31.234112,325
2021-09-27 10:43:31.234121,369
2021-09-27 10:43:31.234131,413
2021-09-27 10:43:31.234156,467
2021-09-27 10:43:31.234167,515
2021-09-27 10:43:31.234177,550
2021-09-27 10:43:31.234187,567
2021-09-27 10:43:31.234196,562
2021-09-27 10:43:31.234206,525
2021-09-27 10:43:31.234216,447
2021-09-27 10:43:31.234226,325
2021-09-27 10:43:31.234236,166
2021-09-27 10:43:31.234245,9
2021-09-27 10:43:31.234255,-119
2021-09-27 10:43:31.234265,-215
2021-09-27 10:43:31.234275,-271
2021-09-27 10:43:31.503490,-300
2021-09-27 10:43:31.503510,-317
2021-09-27 10:43:31.503518,-327
2021-09-27 10:43:31.503525,-337
2021-09-27 10:43:31.503531,-332
2021-09-27 10:43:31.503538,-310
2021-09-27 10:43:31.503544,-288
2021-09-27 10:43:31.503550,-276
2021-09-27 10:43:31.503557,-266
2021-09-27 10:43:31.503563,-259
2021-09-27 10:43:31.503570,-246
2021-09-27 10:43:31.503576,-222
2021-09-27 10:43:31.503582,-205
2021-09-27 10:43:31.503589,-195
2021-09-27 10:43:31.503595,-185
2021-09-27 10:43:31.503601,-180
2021-09-27 10:43:31.503608,-171
2021-09-27 10:43:31.503615,-161
2021-09-27 10:43:31.503621,-158
2021-09-27 10:43:31.503627,-156
2021-09-27 10:43:31.503634,-151
2021-09-27 10:43:31.503640,-151
2021-09-27 10:43:31.503646,-146
2021-09-27 10:43:31.503652,-141
2021-09-27 10:43:31.503659,-139
2021-09-27 10:43:31.503665,-132
2021-09-27 10:43:31.503671,-127
2021-09-27 10:43:31.503678,-134
2021-09-27 10:43:31.503684,-129
2021-09-27 10:43:31.503691,-129
2021-09-27 10:43:31.728828,-139
2021-09-27 10:43:31.728851,-136
2021-09-27 10:43:31.728859,-127
2021-09-27 10:43:31.728866,-132
2021-09-27 10:43:31.728872,-136
2021-09-27 10:43:31.728878,-124
2021-09-27 10:43:31.728899,-117
2021-09-27 10:43:31.728915,-117
2021-09-27 10:43:31.728922,-119
2021-09-27 10:43:31.728929,-132
2021-09-27 10:43:31.728935,-132
2021-09-27 10:43:31.728941,-124
2021-09-27 10:43:31.728948,-117
2021-09-27 10:43:31.728954,-112
2021-09-27 10:43:31.728960,-119
2021-09-27 10:43:31.728966,-132
2021-09-27 10:43:31.728973,-124
2021-09-27 10:43:31.728979,-105
2021-09-27 10:43:31.728985,-95
2021-09-27 10:43:31.728991,-90
2021-09-27 10:43:31.728998,-85
2021-09-27 10:43:31.729004,-80
2021-09-27 10:43:31.729010,-73
2021-09-27 10:43:31.729016,-75
2021-09-27 10:43:31.729022,-88
2021-09-27 10:43:31.729029,-97
2021-09-27 10:43:31.729035,-97
2021-09-27 10:43:31.729041,-97
2021-09-27 10:43:31.729048,-90
2021-09-27 10:43:31.729054,-75
2021-09-27 10:43:31.998940,-70
2021-09-27 10:43:31.998974,-70
2021-09-27 10:43:31.998986,-97
2021-09-27 10:43:31.998996,-173
2021-09-27 10:43:31.999005,-129
2021-09-27 10:43:31.999015,369
2021-09-27 10:43:31.999025,1310
2021-09-27 10:43:31.999034,2142
2021-09-27 10:43:31.999044,1971
2021-09-27 10:43:31.999054,330
2021-09-27 10:43:31.999063,-1083
2021-09-27 10:43:31.999073,-696
2021-09-27 10:43:31.999083,-83
2021-09-27 10:43:31.999093,-291
2021-09-27 10:43:31.999102,-313
2021-09-27 10:43:31.999112,-78
2021-09-27 10:43:31.999121,-102
2021-09-27 10:43:31.999131,-156
2021-09-27 10:43:31.999141,-75
2021-09-27 10:43:31.999150,-48
2021-09-27 10:43:31.999160,-61
2021-09-27 10:43:31.999170,-34
2021-09-27 10:43:31.999179,-7
2021-09-27 10:43:31.999189,4
2021-09-27 10:43:31.999199,31
2021-09-27 10:43:31.999208,53
2021-09-27 10:43:31.999218,63
2021-09-27 10:43:31.999244,88
2021-09-27 10:43:31.999254,124
2021-09-27 10:43:31.999264,156
2021-09-27 10:43:32.178960,188
2021-09-27 10:43:32.178993,224
2021-09-27 10:43:32.179004,264
2021-09-27 10:43:32.179014,313
2021-09-27 10:43:32.179024,369
2021-09-27 10:43:32.179034,423
2021-09-27 10:43:32.179043,464
2021-09-27 10:43:32.179053,498
2021-09-27 10:43:32.179062,530
2021-09-27 10:43:32.179072,547
2021-09-27 10:43:32.179081,552
2021-09-27 10:43:32.179091,530
2021-09-27 10:43:32.179101,459
2021-09-27 10:43:32.179110,322
2021-09-27 10:43:32.179120,163
2021-09-27 10:43:32.179130,17
2021-09-27 10:43:32.179139,-110
2021-09-27 10:43:32.179149,-212
2021-09-27 10:43:32.179159,-281
2021-09-27 10:43:32.179168,-322
2021-09-27 10:43:32.179178,-342
2021-09-27 10:43:32.179187,-339
2021-09-27 10:43:32.179197,-330
2021-09-27 10:43:32.179207,-317
2021-09-27 10:43:32.179216,-305
2021-09-27 10:43:32.179226,-298
2021-09-27 10:43:32.179236,-286
2021-09-27 10:43:32.179245,-271
2021-09-27 10:43:32.179255,-251
2021-09-27 10:43:32.179265,-229
2021-09-27 10:43:32.492883,-215
2021-09-27 10:43:32.492928,-205
2021-09-27 10:43:32.492945,-193
2021-09-27 10:43:32.492960,-180
2021-09-27 10:43:32.492975,-171
2021-09-27 10:43:32.492989,-158
2021-09-27 10:43:32.493003,-156
2021-09-27 10:43:32.493017,-158
2021-09-27 10:43:32.493031,-149
2021-09-27 10:43:32.493045,-141
2021-09-27 10:43:32.493059,-156
2021-09-27 10:43:32.493073,-168
2021-09-27 10:43:32.493086,-166
2021-09-27 10:43:32.493100,-161
2021-09-27 10:43:32.493114,-158
2021-09-27 10:43:32.493128,-154
2021-09-27 10:43:32.493142,-146
2021-09-27 10:43:32.493158,-141
2021-09-27 10:43:32.493173,-139
2021-09-27 10:43:32.493187,-134
2021-09-27 10:43:32.493201,-127
2021-09-27 10:43:32.493215,-127
2021-09-27 10:43:32.493230,-122
2021-09-27 10:43:32.493243,-114
2021-09-27 10:43:32.493257,-110
2021-09-27 10:43:32.493284,-105
2021-09-27 10:43:32.493297,-102
2021-09-27 10:43:32.493308,-100
2021-09-27 10:43:32.493319,-90
2021-09-27 10:43:32.493329,-90
2021-09-27 10:43:32.628934,-92
2021-09-27 10:43:32.628968,-90
2021-09-27 10:43:32.628980,-90
2021-09-27 10:43:32.628989,-95
2021-09-27 10:43:32.628999,-100
2021-09-27 10:43:32.629009,-105
2021-09-27 10:43:32.629018,-102
2021-09-27 10:43:32.629027,-88
2021-09-27 10:43:32.629037,-75
2021-09-27 10:43:32.629047,-73
2021-09-27 10:43:32.629056,-68
2021-09-27 10:43:32.629066,-75
2021-09-27 10:43:32.629075,-102
2021-09-27 10:43:32.629085,-117
2021-09-27 10:43:32.629094,-107
2021-09-27 10:43:32.629104,-102
2021-09-27 10:43:32.629113,-105
2021-09-27 10:43:32.629123,-105
2021-09-27 10:43:32.629132,-102
2021-09-27 10:43:32.629142,-92
2021-09-27 10:43:32.629151,-110
2021-09-27 10:43:32.629161,-185
2021-09-27 10:43:32.629170,-136
2021-09-27 10:43:32.629180,374
2021-09-27 10:43:32.629190,1313
2021-09-27 10:43:32.629199,2137
2021-09-27 10:43:32.629209,1966
2021-09-27 10:43:32.629218,315
2021-09-27 10:43:32.629228,-1095
2021-09-27 10:43:32.629237,-687
2021-09-27 10:43:32.943921,-75
2021-09-27 10:43:32.943954,-291
2021-09-27 10:43:32.943965,-293
2021-09-27 10:43:32.943975,-58
2021-09-27 10:43:32.943985,-97
2021-09-27 10:43:32.943995,-156
2021-09-27 10:43:32.944005,-75
2021-09-27 10:43:32.944029,-46
2021-09-27 10:43:32.944040,-61
2021-09-27 10:43:32.944049,-26
2021-09-27 10:43:32.944059,0
2021-09-27 10:43:32.944069,-2
2021-09-27 10:43:32.944079,14
2021-09-27 10:43:32.944089,44
2021-09-27 10:43:32.944098,58
2021-09-27 10:43:32.944108,73
2021-09-27 10:43:32.944118,107
2021-09-27 10:43:32.944127,139
2021-09-27 10:43:32.944137,176
2021-09-27 10:43:32.944146,224
2021-09-27 10:43:32.944156,269
2021-09-27 10:43:32.944166,308
2021-09-27 10:43:32.944175,359
2021-09-27 10:43:32.944185,423
2021-09-27 10:43:32.944195,481
2021-09-27 10:43:32.944204,523
2021-09-27 10:43:32.944214,555
2021-09-27 10:43:32.944224,574
2021-09-27 10:43:32.944233,577
2021-09-27 10:43:32.944243,542
2021-09-27 10:43:33.078842,467
2021-09-27 10:43:33.078861,344
2021-09-27 10:43:33.078869,178
2021-09-27 10:43:33.078875,19
2021-09-27 10:43:33.078882,-105
2021-09-27 10:43:33.078888,-198
2021-09-27 10:43:33.078894,-264
2021-09-27 10:43:33.078901,-293
2021-09-27 10:43:33.078907,-305
2021-09-27 10:43:33.078913,-315
2021-09-27 10:43:33.078919,-322
2021-09-27 10:43:33.078926,-320
2021-09-27 10:43:33.078932,-300
2021-09-27 10:43:33.078938,-281
2021-09-27 10:43:33.078945,-273
2021-09-27 10:43:33.078951,-261
2021-09-27 10:43:33.078957,-246
2021-09-27 10:43:33.078964,-242
2021-09-27 10:43:33.078970,-242
2021-09-27 10:43:33.078976,-222
2021-09-27 10:43:33.078982,-198
2021-09-27 10:43:33.078989,-193
2021-09-27 10:43:33.078995,-198
2021-09-27 10:43:33.079001,-185
2021-09-27 10:43:33.079007,-166
2021-09-27 10:43:33.079014,-158
2021-09-27 10:43:33.079020,-156
2021-09-27 10:43:33.079035,-156
2021-09-27 10:43:33.079042,-154
2021-09-27 10:43:33.079048,-149
2021-09-27 10:43:33.303880,-144
2021-09-27 10:43:33.303901,-134
2021-09-27 10:43:33.303913,-129
2021-09-27 10:43:33.303961,-136
2021-09-27 10:43:33.303974,-144
2021-09-27 10:43:33.303982,-136
2021-09-27 10:43:33.303988,-134
2021-09-27 10:43:33.303994,-134
2021-09-27 10:43:33.304001,-132
2021-09-27 10:43:33.304007,-134
2021-09-27 10:43:33.304013,-139
2021-09-27 10:43:33.304019,-129
2021-09-27 10:43:33.304026,-114
2021-09-27 10:43:33.304032,-110
2021-09-27 10:43:33.304038,-110
2021-09-27 10:43:33.304044,-112
2021-09-27 10:43:33.304050,-107
2021-09-27 10:43:33.304057,-102
2021-09-27 10:43:33.304063,-102
2021-09-27 10:43:33.304069,-105
2021-09-27 10:43:33.304075,-102
2021-09-27 10:43:33.304087,-97
2021-09-27 10:43:33.304095,-85
2021-09-27 10:43:33.304101,-70
2021-09-27 10:43:33.304107,-61
2021-09-27 10:43:33.304114,-53
2021-09-27 10:43:33.304120,-56
2021-09-27 10:43:33.304126,-75
2021-09-27 10:43:33.304132,-92
2021-09-27 10:43:33.304139,-102
2021-09-27 10:43:33.573823,-105
2021-09-27 10:43:33.573855,-97
2021-09-27 10:43:33.573867,-95
2021-09-27 10:43:33.573877,-102
2021-09-27 10:43:33.573887,-102
2021-09-27 10:43:33.573897,-92
2021-09-27 10:43:33.573907,-107
2021-09-27 10:43:33.573917,-168
2021-09-27 10:43:33.573927,-112
2021-09-27 10:43:33.573937,379
2021-09-27 10:43:33.573947,1293
2021-09-27 10:43:33.573956,2105
2021-09-27 10:43:33.573966,1917
2021-09-27 10:43:33.573976,256
2021-09-27 10:43:33.573986,-1139
2021-09-27 10:43:33.573996,-711
2021-09-27 10:43:33.574006,-100
2021-09-27 10:43:33.574016,-313
2021-09-27 10:43:33.574025,-303
2021-09-27 10:43:33.574036,-61
2021-09-27 10:43:33.574045,-97
2021-09-27 10:43:33.574055,-151
2021-09-27 10:43:33.574065,-63
2021-09-27 10:43:33.574075,-48
2021-09-27 10:43:33.574084,-78
2021-09-27 10:43:33.574094,-39
2021-09-27 10:43:33.574104,-12
2021-09-27 10:43:33.574114,-12
2021-09-27 10:43:33.574123,14
2021-09-27 10:43:33.574133,51
2021-09-27 10:43:33.843962,73
2021-09-27 10:43:33.843994,100
2021-09-27 10:43:33.844005,127
2021-09-27 10:43:33.844015,151
2021-09-27 10:43:33.844025,188
2021-09-27 10:43:33.844035,234
2021-09-27 10:43:33.844044,283
2021-09-27 10:43:33.844054,332
2021-09-27 10:43:33.844063,376
2021-09-27 10:43:33.844073,423
2021-09-27 10:43:33.844083,484
2021-09-27 10:43:33.844092,535
2021-09-27 10:43:33.844102,569
2021-09-27 10:43:33.844111,584
2021-09-27 10:43:33.844121,572
2021-09-27 10:43:33.844130,528
2021-09-27 10:43:33.844140,452
2021-09-27 10:43:33.844149,322
2021-09-27 10:43:33.844159,154
2021-09-27 10:43:33.844168,-2
2021-09-27 10:43:33.844178,-124
2021-09-27 10:43:33.844188,-220
2021-09-27 10:43:33.844197,-291
2021-09-27 10:43:33.844207,-327
2021-09-27 10:43:33.844216,-335
2021-09-27 10:43:33.844226,-332
2021-09-27 10:43:33.844235,-337
2021-09-27 10:43:33.844245,-325
2021-09-27 10:43:33.844254,-310
2021-09-27 10:43:33.844264,-298
2021-09-27 10:43:34.023893,-281
2021-09-27 10:43:34.023918,-256
2021-09-27 10:43:34.023926,-244
2021-09-27 10:43:34.023932,-232
2021-09-27 10:43:34.023939,-212
2021-09-27 10:43:34.023945,-193
2021-09-27 10:43:34.023951,-178
2021-09-27 10:43:34.023970,-166
2021-09-27 10:43:34.023976,-161
2021-09-27 10:43:34.023983,-156
2021-09-27 10:43:34.023989,-139
2021-09-27 10:43:34.023995,-129
2021-09-27 10:43:34.024002,-132
2021-09-27 10:43:34.024008,-136
2021-09-27 10:43:34.024014,-139
2021-09-27 10:43:34.024020,-136
2021-09-27 10:43:34.024026,-127
2021-09-27 10:43:34.024033,-122
2021-09-27 10:43:34.024039,-129
2021-09-27 10:43:34.024045,-132
2021-09-27 10:43:34.024051,-132
2021-09-27 10:43:34.024057,-124
2021-09-27 10:43:34.024064,-117
2021-09-27 10:43:34.024070,-112
2021-09-27 10:43:34.024076,-122
2021-09-27 10:43:34.024090,-127
2021-09-27 10:43:34.024097,-119
2021-09-27 10:43:34.024103,-122
2021-09-27 10:43:34.024109,-132
2021-09-27 10:43:34.024115,-134
2021-09-27 10:43:34.248892,-127
2021-09-27 10:43:34.248924,-119
2021-09-27 10:43:34.248936,-117
2021-09-27 10:43:34.248946,-112
2021-09-27 10:43:34.248956,-102
2021-09-27 10:43:34.248965,-92
2021-09-27 10:43:34.248975,-92
2021-09-27 10:43:34.248984,-90
2021-09-27 10:43:34.248994,-78
2021-09-27 10:43:34.249004,-73
2021-09-27 10:43:34.249013,-83
2021-09-27 10:43:34.249023,-97
2021-09-27 10:43:34.249032,-112
2021-09-27 10:43:34.249042,-112
2021-09-27 10:43:34.249052,-102
2021-09-27 10:43:34.249061,-92
2021-09-27 10:43:34.249071,-88
2021-09-27 10:43:34.249081,-88
2021-09-27 10:43:34.249090,-100
2021-09-27 10:43:34.249100,-144
2021-09-27 10:43:34.249110,-200
2021-09-27 10:43:34.249119,-19
2021-09-27 10:43:34.249129,670
2021-09-27 10:43:34.249139,1643
2021-09-27 10:43:34.249148,2198
2021-09-27 10:43:34.249158,1411
2021-09-27 10:43:34.249168,-435
2021-09-27 10:43:34.249196,-1164
2021-09-27 10:43:34.249207,-418
2021-09-27 10:43:34.249217,-144
2021-09-27 10:43:34.517000,-388
2021-09-27 10:43:34.517021,-224
2021-09-27 10:43:34.517029,-63
