Time,ECG
2021-09-27 10:55:00.004683,-300
2021-09-27 10:55:00.004704,-286
2021-09-27 10:55:00.004712,-273
2021-09-27 10:55:00.004718,-259
2021-09-27 10:55:00.004725,-239
2021-09-27 10:55:00.004731,-224
2021-09-27 10:55:00.004737,-210
2021-09-27 10:55:00.004744,-198
2021-09-27 10:55:00.004750,-195
2021-09-27 10:55:00.004756,-195
2021-09-27 10:55:00.004762,-188
2021-09-27 10:55:00.004769,-185
2021-09-27 10:55:00.004775,-176
2021-09-27 10:55:00.004781,-168
2021-09-27 10:55:00.004788,-176
2021-09-27 10:55:00.004794,-178
2021-09-27 10:55:00.004800,-163
2021-09-27 10:55:00.004807,-158
2021-09-27 10:55:00.004813,-161
2021-09-27 10:55:00.004819,-156
2021-09-27 10:55:00.004826,-149
2021-09-27 10:55:00.004832,-139
2021-09-27 10:55:00.004838,-144
2021-09-27 10:55:00.004844,-156
2021-09-27 10:55:00.004851,-151
2021-09-27 10:55:00.004857,-136
2021-09-27 10:55:00.004863,-141
2021-09-27 10:55:00.004870,-149
2021-09-27 10:55:00.004876,-134
2021-09-27 10:55:00.004882,-122
2021-09-27 10:55:00.230436,-119
2021-09-27 10:55:00.230468,-119
2021-09-27 10:55:00.230479,-117
2021-09-27 10:55:00.230489,-117
2021-09-27 10:55:00.230499,-110
2021-09-27 10:55:00.230508,-102
2021-09-27 10:55:00.230518,-100
2021-09-27 10:55:00.230528,-102
2021-09-27 10:55:00.230537,-105
2021-09-27 10:55:00.230547,-105
2021-09-27 10:55:00.230557,-100
2021-09-27 10:55:00.230566,-90
2021-09-27 10:55:00.230576,-83
2021-09-27 10:55:00.230586,-83
2021-09-27 10:55:00.230595,-80
2021-09-27 10:55:00.230605,-68
2021-09-27 10:55:00.230615,-68
2021-09-27 10:55:00.230624,-75
2021-09-27 10:55:00.230634,-85
2021-09-27 10:55:00.230644,-105
2021-09-27 10:55:00.230654,-114
2021-09-27 10:55:00.230663,-112
2021-09-27 10:55:00.230673,-100
2021-09-27 10:55:00.230682,-90
2021-09-27 10:55:00.230692,-90
2021-09-27 10:55:00.230702,-90
2021-09-27 10:55:00.230711,-102
2021-09-27 10:55:00.230721,-166
2021-09-27 10:55:00.230731,-180
2021-09-27 10:55:00.230740,183
2021-09-27 10:55:00.454877,1046
2021-09-27 10:55:00.454897,1985
2021-09-27 10:55:00.454905,2183
2021-09-27 10:55:00.454912,880
2021-09-27 10:55:00.454919,-848
2021-09-27 10:55:00.454925,-926
2021-09-27 10:55:00.454931,-163
2021-09-27 10:55:00.454938,-190
2021-09-27 10:55:00.454944,-335
2021-09-27 10:55:00.454951,-107
2021-09-27 10:55:00.454957,-53
2021-09-27 10:55:00.454963,-134
2021-09-27 10:55:00.454970,-83
2021-09-27 10:55:00.454976,-41
2021-09-27 10:55:00.454982,-58
2021-09-27 10:55:00.454989,-44
2021-09-27 10:55:00.454995,-12
2021-09-27 10:55:00.455002,4
2021-09-27 10:55:00.455008,24
2021-09-27 10:55:00.455014,48
2021-09-27 10:55:00.455021,70
2021-09-27 10:55:00.455027,92
2021-09-27 10:55:00.455033,122
2021-09-27 10:55:00.455040,158
2021-09-27 10:55:00.455046,193
2021-09-27 10:55:00.455052,229
2021-09-27 10:55:00.455059,278
2021-09-27 10:55:00.455065,330
2021-09-27 10:55:00.455072,379
2021-09-27 10:55:00.455078,423
2021-09-27 10:55:00.680416,476
2021-09-27 10:55:00.680449,533
2021-09-27 10:55:00.680461,574
2021-09-27 10:55:00.680471,596
2021-09-27 10:55:00.680481,606
2021-09-27 10:55:00.680491,584
2021-09-27 10:55:00.680501,503
2021-09-27 10:55:00.680511,366
2021-09-27 10:55:00.680521,202
2021-09-27 10:55:00.680531,31
2021-09-27 10:55:00.680541,-114
2021-09-27 10:55:00.680551,-227
2021-09-27 10:55:00.680561,-305
2021-09-27 10:55:00.680571,-349
2021-09-27 10:55:00.680580,-361
2021-09-27 10:55:00.680590,-366
2021-09-27 10:55:00.680646,-371
2021-09-27 10:55:00.680657,-371
2021-09-27 10:55:00.680667,-361
2021-09-27 10:55:00.680676,-337
2021-09-27 10:55:00.680686,-320
2021-09-27 10:55:00.680696,-313
2021-09-27 10:55:00.680706,-295
2021-09-27 10:55:00.680716,-276
2021-09-27 10:55:00.680726,-266
2021-09-27 10:55:00.680736,-246
2021-09-27 10:55:00.680746,-229
2021-09-27 10:55:00.680756,-222
2021-09-27 10:55:00.680765,-212
2021-09-27 10:55:00.680775,-198
2021-09-27 10:55:00.949535,-185
2021-09-27 10:55:00.949557,-176
2021-09-27 10:55:00.949565,-171
2021-09-27 10:55:00.949571,-166
2021-09-27 10:55:00.949578,-158
2021-09-27 10:55:00.949584,-161
2021-09-27 10:55:00.949591,-166
2021-09-27 10:55:00.949597,-154
2021-09-27 10:55:00.949603,-146
2021-09-27 10:55:00.949610,-146
2021-09-27 10:55:00.949616,-144
2021-09-27 10:55:00.949622,-141
2021-09-27 10:55:00.949629,-144
2021-09-27 10:55:00.949635,-136
2021-09-27 10:55:00.949641,-129
2021-09-27 10:55:00.949648,-127
2021-09-27 10:55:00.949654,-124
2021-09-27 10:55:00.949660,-122
2021-09-27 10:55:00.949667,-124
2021-09-27 10:55:00.949673,-127
2021-09-27 10:55:00.949680,-124
2021-09-27 10:55:00.949686,-117
2021-09-27 10:55:00.949692,-110
2021-09-27 10:55:00.949699,-110
2021-09-27 10:55:00.949705,-102
2021-09-27 10:55:00.949711,-92
2021-09-27 10:55:00.949718,-92
2021-09-27 10:55:00.949724,-92
2021-09-27 10:55:00.949730,-88
2021-09-27 10:55:00.949737,-83
2021-09-27 10:55:01.173922,-78
2021-09-27 10:55:01.173954,-73
2021-09-27 10:55:01.173966,-73
2021-09-27 10:55:01.173976,-73
2021-09-27 10:55:01.173986,-85
2021-09-27 10:55:01.173996,-107
2021-09-27 10:55:01.174005,-105
2021-09-27 10:55:01.174015,-85
2021-09-27 10:55:01.174025,-75
2021-09-27 10:55:01.174034,-78
2021-09-27 10:55:01.174044,-80
2021-09-27 10:55:01.174054,-80
2021-09-27 10:55:01.174063,-75
2021-09-27 10:55:01.174073,-78
2021-09-27 10:55:01.174083,-92
2021-09-27 10:55:01.174092,-105
2021-09-27 10:55:01.174102,-110
2021-09-27 10:55:01.174112,-102
2021-09-27 10:55:01.174121,-90
2021-09-27 10:55:01.174131,-80
2021-09-27 10:55:01.174141,-80
2021-09-27 10:55:01.174151,-88
2021-09-27 10:55:01.174160,-119
2021-09-27 10:55:01.174170,-183
2021-09-27 10:55:01.174180,-134
2021-09-27 10:55:01.174190,344
2021-09-27 10:55:01.174199,1266
2021-09-27 10:55:01.174209,2110
2021-09-27 10:55:01.174219,2015
2021-09-27 10:55:01.174229,437
2021-09-27 10:55:01.399662,-1041
2021-09-27 10:55:01.399682,-716
2021-09-27 10:55:01.399690,-58
2021-09-27 10:55:01.399699,-246
2021-09-27 10:55:01.399706,-293
2021-09-27 10:55:01.399712,-61
2021-09-27 10:55:01.399719,-73
2021-09-27 10:55:01.399725,-127
2021-09-27 10:55:01.399731,-51
2021-09-27 10:55:01.399738,-29
2021-09-27 10:55:01.399744,-51
2021-09-27 10:55:01.399750,-19
2021-09-27 10:55:01.399757,14
2021-09-27 10:55:01.399763,24
2021-09-27 10:55:01.399769,44
2021-09-27 10:55:01.399776,70
2021-09-27 10:55:01.399782,88
2021-09-27 10:55:01.399788,114
2021-09-27 10:55:01.399795,149
2021-09-27 10:55:01.399801,180
2021-09-27 10:55:01.399808,215
2021-09-27 10:55:01.399814,256
2021-09-27 10:55:01.399821,295
2021-09-27 10:55:01.399827,342
2021-09-27 10:55:01.399833,401
2021-09-27 10:55:01.399840,462
2021-09-27 10:55:01.399846,515
2021-09-27 10:55:01.399852,562
2021-09-27 10:55:01.399859,596
2021-09-27 10:55:01.399865,621
2021-09-27 10:55:01.624983,628
2021-09-27 10:55:01.625022,599
2021-09-27 10:55:01.625030,511
2021-09-27 10:55:01.625037,364
2021-09-27 10:55:01.625044,185
2021-09-27 10:55:01.625050,22
2021-09-27 10:55:01.625057,-114
2021-09-27 10:55:01.625063,-217
2021-09-27 10:55:01.625070,-286
2021-09-27 10:55:01.625076,-332
2021-09-27 10:55:01.625083,-364
2021-09-27 10:55:01.625089,-371
2021-09-27 10:55:01.625096,-359
2021-09-27 10:55:01.625102,-347
2021-09-27 10:55:01.625109,-339
2021-09-27 10:55:01.625115,-335
2021-09-27 10:55:01.625122,-322
2021-09-27 10:55:01.625128,-303
2021-09-27 10:55:01.625135,-283
2021-09-27 10:55:01.625141,-261
2021-09-27 10:55:01.625148,-249
2021-09-27 10:55:01.625154,-246
2021-09-27 10:55:01.625161,-232
2021-09-27 10:55:01.625167,-210
2021-09-27 10:55:01.625173,-195
2021-09-27 10:55:01.625180,-190
2021-09-27 10:55:01.625186,-188
2021-09-27 10:55:01.625193,-183
2021-09-27 10:55:01.625199,-176
2021-09-27 10:55:01.625206,-166
2021-09-27 10:55:01.849886,-156
2021-09-27 10:55:01.849907,-151
2021-09-27 10:55:01.849914,-151
2021-09-27 10:55:01.849921,-154
2021-09-27 10:55:01.849927,-146
2021-09-27 10:55:01.849934,-141
2021-09-27 10:55:01.849940,-141
2021-09-27 10:55:01.849947,-139
2021-09-27 10:55:01.849953,-141
2021-09-27 10:55:01.849959,-144
2021-09-27 10:55:01.849976,-136
2021-09-27 10:55:01.849983,-127
2021-09-27 10:55:01.849989,-124
2021-09-27 10:55:01.849996,-124
2021-09-27 10:55:01.850002,-124
2021-09-27 10:55:01.850009,-127
2021-09-27 10:55:01.850015,-119
2021-09-27 10:55:01.850021,-110
2021-09-27 10:55:01.850028,-105
2021-09-27 10:55:01.850034,-100
2021-09-27 10:55:01.850040,-100
2021-09-27 10:55:01.850047,-97
2021-09-27 10:55:01.850053,-88
2021-09-27 10:55:01.850060,-85
2021-09-27 10:55:01.850066,-83
2021-09-27 10:55:01.850072,-83
2021-09-27 10:55:01.850079,-90
2021-09-27 10:55:01.850085,-100
2021-09-27 10:55:01.850091,-102
2021-09-27 10:55:01.850098,-95
2021-09-27 10:55:02.074790,-88
2021-09-27 10:55:02.074812,-92
2021-09-27 10:55:02.074820,-97
2021-09-27 10:55:02.074827,-92
2021-09-27 10:55:02.074833,-85
2021-09-27 10:55:02.074840,-83
2021-09-27 10:55:02.074846,-73
2021-09-27 10:55:02.074852,-63
2021-09-27 10:55:02.074859,-66
2021-09-27 10:55:02.074865,-63
2021-09-27 10:55:02.074872,-51
2021-09-27 10:55:02.074878,-46
2021-09-27 10:55:02.074884,-61
2021-09-27 10:55:02.074891,-85
2021-09-27 10:55:02.074897,-102
2021-09-27 10:55:02.074903,-102
2021-09-27 10:55:02.074910,-97
2021-09-27 10:55:02.074916,-92
2021-09-27 10:55:02.074922,-85
2021-09-27 10:55:02.074929,-83
2021-09-27 10:55:02.074935,-88
2021-09-27 10:55:02.074941,-122
2021-09-27 10:55:02.074948,-183
2021-09-27 10:55:02.074954,-56
2021-09-27 10:55:02.074961,567
2021-09-27 10:55:02.074967,1555
2021-09-27 10:55:02.074973,2276
2021-09-27 10:55:02.074980,1765
2021-09-27 10:55:02.074986,-75
2021-09-27 10:55:02.074992,-1144
2021-09-27 10:55:02.299902,-506
2021-09-27 10:55:02.299924,-83
2021-09-27 10:55:02.299932,-325
2021-09-27 10:55:02.299939,-224
2021-09-27 10:55:02.299946,-26
2021-09-27 10:55:02.299952,-90
2021-09-27 10:55:02.299958,-107
2021-09-27 10:55:02.299965,-36
2021-09-27 10:55:02.299971,-26
2021-09-27 10:55:02.299978,-24
2021-09-27 10:55:02.299984,7
2021-09-27 10:55:02.299991,24
2021-09-27 10:55:02.299997,36
2021-09-27 10:55:02.300003,58
2021-09-27 10:55:02.300010,78
2021-09-27 10:55:02.300016,102
2021-09-27 10:55:02.300023,134
2021-09-27 10:55:02.300029,168
2021-09-27 10:55:02.300035,200
2021-09-27 10:55:02.300042,234
2021-09-27 10:55:02.300048,276
2021-09-27 10:55:02.300055,327
2021-09-27 10:55:02.300061,386
2021-09-27 10:55:02.300067,454
2021-09-27 10:55:02.300074,508
2021-09-27 10:55:02.300080,555
2021-09-27 10:55:02.300086,601
2021-09-27 10:55:02.300093,643
2021-09-27 10:55:02.300099,657
2021-09-27 10:55:02.300105,652
2021-09-27 10:55:02.525034,616
2021-09-27 10:55:02.525057,511
2021-09-27 10:55:02.525064,347
2021-09-27 10:55:02.525071,163
2021-09-27 10:55:02.525078,2
2021-09-27 10:55:02.525085,-136
2021-09-27 10:55:02.525091,-244
2021-09-27 10:55:02.525098,-310
2021-09-27 10:55:02.525105,-342
2021-09-27 10:55:02.525111,-361
2021-09-27 10:55:02.525118,-364
2021-09-27 10:55:02.525125,-357
2021-09-27 10:55:02.525131,-357
2021-09-27 10:55:02.525138,-349
2021-09-27 10:55:02.525144,-330
2021-09-27 10:55:02.525151,-315
2021-09-27 10:55:02.525158,-298
2021-09-27 10:55:02.525164,-278
2021-09-27 10:55:02.525171,-264
2021-09-27 10:55:02.525178,-244
2021-09-27 10:55:02.525185,-234
2021-09-27 10:55:02.525191,-242
2021-09-27 10:55:02.525198,-239
2021-09-27 10:55:02.525204,-215
2021-09-27 10:55:02.525211,-202
2021-09-27 10:55:02.525217,-198
2021-09-27 10:55:02.525224,-185
2021-09-27 10:55:02.525231,-173
2021-09-27 10:55:02.525237,-173
2021-09-27 10:55:02.525244,-171
2021-09-27 10:55:02.839797,-161
2021-09-27 10:55:02.839830,-156
2021-09-27 10:55:02.839841,-156
2021-09-27 10:55:02.839851,-161
2021-09-27 10:55:02.839861,-161
2021-09-27 10:55:02.839871,-163
2021-09-27 10:55:02.839881,-163
2021-09-27 10:55:02.839891,-156
2021-09-27 10:55:02.839900,-146
2021-09-27 10:55:02.839910,-144
2021-09-27 10:55:02.839920,-141
2021-09-27 10:55:02.839930,-144
2021-09-27 10:55:02.839940,-154
2021-09-27 10:55:02.839949,-149
2021-09-27 10:55:02.839959,-144
2021-09-27 10:55:02.839969,-144
2021-09-27 10:55:02.839979,-139
2021-09-27 10:55:02.839988,-129
2021-09-27 10:55:02.839998,-127
2021-09-27 10:55:02.840008,-122
2021-09-27 10:55:02.840018,-114
2021-09-27 10:55:02.840027,-112
2021-09-27 10:55:02.840037,-107
2021-09-27 10:55:02.840047,-102
2021-09-27 10:55:02.840056,-97
2021-09-27 10:55:02.840066,-95
2021-09-27 10:55:02.840076,-95
2021-09-27 10:55:02.840086,-88
2021-09-27 10:55:02.840096,-83
2021-09-27 10:55:02.840130,-90
2021-09-27 10:55:02.975344,-90
2021-09-27 10:55:02.975367,-73
2021-09-27 10:55:02.975374,-58
2021-09-27 10:55:02.975381,-53
2021-09-27 10:55:02.975387,-46
2021-09-27 10:55:02.975394,-41
2021-09-27 10:55:02.975400,-48
2021-09-27 10:55:02.975406,-51
2021-09-27 10:55:02.975413,-56
2021-09-27 10:55:02.975419,-73
2021-09-27 10:55:02.975426,-90
2021-09-27 10:55:02.975432,-90
2021-09-27 10:55:02.975438,-80
2021-09-27 10:55:02.975445,-70
2021-09-27 10:55:02.975451,-70
2021-09-27 10:55:02.975457,-75
2021-09-27 10:55:02.975463,-95
2021-09-27 10:55:02.975470,-161
2021-09-27 10:55:02.975476,-176
2021-09-27 10:55:02.975482,195
2021-09-27 10:55:02.975489,1085
2021-09-27 10:55:02.975495,2046
2021-09-27 10:55:02.975501,2222
2021-09-27 10:55:02.975508,873
2021-09-27 10:55:02.975514,-829
2021-09-27 10:55:02.975520,-860
2021-09-27 10:55:02.975527,-122
2021-09-27 10:55:02.975533,-193
2021-09-27 10:55:02.975539,-339
2021-09-27 10:55:02.975546,-105
2021-09-27 10:55:03.334083,-58
2021-09-27 10:55:03.334107,-144
2021-09-27 10:55:03.334114,-85
2021-09-27 10:55:03.334121,-34
2021-09-27 10:55:03.334127,-53
2021-09-27 10:55:03.334134,-39
2021-09-27 10:55:03.334141,0
2021-09-27 10:55:03.334147,12
2021-09-27 10:55:03.334154,22
2021-09-27 10:55:03.334160,41
2021-09-27 10:55:03.334166,53
2021-09-27 10:55:03.334173,78
2021-09-27 10:55:03.334179,124
2021-09-27 10:55:03.334186,161
2021-09-27 10:55:03.334192,188
2021-09-27 10:55:03.334198,215
2021-09-27 10:55:03.334205,264
2021-09-27 10:55:03.334211,322
2021-09-27 10:55:03.334218,381
2021-09-27 10:55:03.334224,445
2021-09-27 10:55:03.334231,501
2021-09-27 10:55:03.334237,547
2021-09-27 10:55:03.334243,591
2021-09-27 10:55:03.334250,628
2021-09-27 10:55:03.334256,645
2021-09-27 10:55:03.334263,628
2021-09-27 10:55:03.334269,545
2021-09-27 10:55:03.334275,398
2021-09-27 10:55:03.334282,229
2021-09-27 10:55:03.334288,73
2021-09-27 10:55:03.469967,-66
2021-09-27 10:55:03.469992,-188
2021-09-27 10:55:03.470000,-278
2021-09-27 10:55:03.470007,-335
2021-09-27 10:55:03.470014,-359
2021-09-27 10:55:03.470020,-361
2021-09-27 10:55:03.470027,-352
2021-09-27 10:55:03.470033,-342
2021-09-27 10:55:03.470040,-337
2021-09-27 10:55:03.470046,-337
2021-09-27 10:55:03.470053,-327
2021-09-27 10:55:03.470059,-313
2021-09-27 10:55:03.470066,-295
2021-09-27 10:55:03.470073,-273
2021-09-27 10:55:03.470079,-259
2021-09-27 10:55:03.470086,-256
2021-09-27 10:55:03.470092,-244
2021-09-27 10:55:03.470099,-224
2021-09-27 10:55:03.470105,-207
2021-09-27 10:55:03.470112,-195
2021-09-27 10:55:03.470118,-188
2021-09-27 10:55:03.470125,-178
2021-09-27 10:55:03.470131,-166
2021-09-27 10:55:03.470137,-158
2021-09-27 10:55:03.470144,-156
2021-09-27 10:55:03.470150,-158
2021-09-27 10:55:03.470157,-156
2021-09-27 10:55:03.470163,-146
2021-09-27 10:55:03.470170,-146
2021-09-27 10:55:03.470176,-154
2021-09-27 10:55:03.740356,-154
2021-09-27 10:55:03.740379,-141
2021-09-27 10:55:03.740387,-146
2021-09-27 10:55:03.740393,-163
2021-09-27 10:55:03.740400,-161
2021-09-27 10:55:03.740406,-146
2021-09-27 10:55:03.740413,-136
2021-09-27 10:55:03.740419,-129
2021-09-27 10:55:03.740425,-134
2021-09-27 10:55:03.740432,-144
2021-09-27 10:55:03.740438,-144
2021-09-27 10:55:03.740445,-144
2021-09-27 10:55:03.740451,-141
2021-09-27 10:55:03.740457,-127
2021-09-27 10:55:03.740464,-119
2021-09-27 10:55:03.740470,-132
2021-09-27 10:55:03.740476,-127
2021-09-27 10:55:03.740483,-114
2021-09-27 10:55:03.740489,-107
2021-09-27 10:55:03.740496,-90
2021-09-27 10:55:03.740512,-90
2021-09-27 10:55:03.740519,-112
2021-09-27 10:55:03.740526,-105
2021-09-27 10:55:03.740532,-85
2021-09-27 10:55:03.740538,-80
2021-09-27 10:55:03.740545,-83
2021-09-27 10:55:03.740551,-85
2021-09-27 10:55:03.740558,-85
2021-09-27 10:55:03.740564,-66
2021-09-27 10:55:03.740571,-46
2021-09-27 10:55:03.920912,-48
2021-09-27 10:55:03.920945,-41
2021-09-27 10:55:03.920956,-41
2021-09-27 10:55:03.920967,-53
2021-09-27 10:55:03.920976,-44
2021-09-27 10:55:03.920986,-17
2021-09-27 10:55:03.920996,-2
2021-09-27 10:55:03.921006,-19
2021-09-27 10:55:03.921016,-58
2021-09-27 10:55:03.921026,-75
2021-09-27 10:55:03.921035,-56
2021-09-27 10:55:03.921045,-51
2021-09-27 10:55:03.921055,-58
2021-09-27 10:55:03.921065,-46
2021-09-27 10:55:03.921075,-46
2021-09-27 10:55:03.921085,-53
2021-09-27 10:55:03.921094,-48
2021-09-27 10:55:03.921104,-83
2021-09-27 10:55:03.921114,-95
2021-09-27 10:55:03.921124,269
2021-09-27 10:55:03.921134,1146
2021-09-27 10:55:03.921143,2056
2021-09-27 10:55:03.921153,2144
2021-09-27 10:55:03.921163,736
2021-09-27 10:55:03.921173,-873
2021-09-27 10:55:03.921182,-772
2021-09-27 10:55:03.921192,-75
2021-09-27 10:55:03.921202,-176
2021-09-27 10:55:03.921212,-259
2021-09-27 10:55:03.921222,-44
2021-09-27 10:55:04.145397,-41
2021-09-27 10:55:04.145429,-95
2021-09-27 10:55:04.145441,-29
2021-09-27 10:55:04.145451,-9
2021-09-27 10:55:04.145461,-17
2021-09-27 10:55:04.145471,17
2021-09-27 10:55:04.145481,46
2021-09-27 10:55:04.145491,48
2021-09-27 10:55:04.145501,39
2021-09-27 10:55:04.145511,36
2021-09-27 10:55:04.145521,66
2021-09-27 10:55:04.145531,105
2021-09-27 10:55:04.145540,141
2021-09-27 10:55:04.145550,173
2021-09-27 10:55:04.145560,207
2021-09-27 10:55:04.145570,251
2021-09-27 10:55:04.145580,295
2021-09-27 10:55:04.145589,339
2021-09-27 10:55:04.145599,381
2021-09-27 10:55:04.145609,415
2021-09-27 10:55:04.145619,457
2021-09-27 10:55:04.145629,508
2021-09-27 10:55:04.145638,569
2021-09-27 10:55:04.145648,626
2021-09-27 10:55:04.145658,628
2021-09-27 10:55:04.145668,574
2021-09-27 10:55:04.145677,523
2021-09-27 10:55:04.145687,427
2021-09-27 10:55:04.145697,254
2021-09-27 10:55:04.145707,78
2021-09-27 10:55:04.370352,-66
2021-09-27 10:55:04.370378,-195
2021-09-27 10:55:04.370386,-293
2021-09-27 10:55:04.370424,-339
2021-09-27 10:55:04.370430,-354
2021-09-27 10:55:04.370437,-374
2021-09-27 10:55:04.370443,-376
2021-09-27 10:55:04.370450,-349
2021-09-27 10:55:04.370456,-327
2021-09-27 10:55:04.370462,-315
2021-09-27 10:55:04.370469,-291
2021-09-27 10:55:04.370475,-276
2021-09-27 10:55:04.370481,-298
2021-09-27 10:55:04.370488,-288
2021-09-27 10:55:04.370494,-249
2021-09-27 10:55:04.370500,-259
2021-09-27 10:55:04.370507,-261
2021-09-27 10:55:04.370513,-212
2021-09-27 10:55:04.370519,-195
2021-09-27 10:55:04.370526,-205
2021-09-27 10:55:04.370532,-185
2021-09-27 10:55:04.370538,-178
2021-09-27 10:55:04.370545,-190
2021-09-27 10:55:04.370551,-193
2021-09-27 10:55:04.370557,-185
2021-09-27 10:55:04.370564,-185
2021-09-27 10:55:04.370570,-183
2021-09-27 10:55:04.370576,-171
2021-09-27 10:55:04.370583,-156
2021-09-27 10:55:04.370589,-149
2021-09-27 10:55:04.640396,-168
2021-09-27 10:55:04.640419,-176
2021-09-27 10:55:04.640427,-151
2021-09-27 10:55:04.640438,-139
2021-09-27 10:55:04.640450,-144
2021-09-27 10:55:04.640460,-141
2021-09-27 10:55:04.640471,-141
2021-09-27 10:55:04.640483,-151
2021-09-27 10:55:04.640494,-161
2021-09-27 10:55:04.640505,-146
2021-09-27 10:55:04.640517,-92
2021-09-27 10:55:04.640529,-78
2021-09-27 10:55:04.640541,-134
2021-09-27 10:55:04.640553,-158
2021-09-27 10:55:04.640565,-134
2021-09-27 10:55:04.640577,-134
2021-09-27 10:55:04.640589,-124
2021-09-27 10:55:04.640601,-112
2021-09-27 10:55:04.640613,-132
2021-09-27 10:55:04.640625,-129
2021-09-27 10:55:04.640637,-107
2021-09-27 10:55:04.640648,-110
2021-09-27 10:55:04.640660,-127
2021-09-27 10:55:04.640671,-119
2021-09-27 10:55:04.640682,-73
2021-09-27 10:55:04.640693,-73
2021-09-27 10:55:04.640705,-105
2021-09-27 10:55:04.640717,-90
2021-09-27 10:55:04.640730,-83
2021-09-27 10:55:04.640743,-92
2021-09-27 10:55:04.864744,-58
2021-09-27 10:55:04.864768,-34
2021-09-27 10:55:04.864776,-68
2021-09-27 10:55:04.864782,-75
2021-09-27 10:55:04.864789,-51
2021-09-27 10:55:04.864795,-68
2021-09-27 10:55:04.864801,-88
2021-09-27 10:55:04.864808,-48
2021-09-27 10:55:04.864814,-9
2021-09-27 10:55:04.864820,-44
2021-09-27 10:55:04.864827,-110
2021-09-27 10:55:04.864833,-117
2021-09-27 10:55:04.864839,-68
2021-09-27 10:55:04.864846,-39
2021-09-27 10:55:04.864852,-66
2021-09-27 10:55:04.864858,-132
2021-09-27 10:55:04.864864,-171
2021-09-27 10:55:04.864871,73
2021-09-27 10:55:04.864877,792
2021-09-27 10:55:04.864883,1709
2021-09-27 10:55:04.864890,2213
2021-09-27 10:55:04.864896,1389
2021-09-27 10:55:04.864903,-462
2021-09-27 10:55:04.864909,-1071
2021-09-27 10:55:04.864915,-273
2021-09-27 10:55:04.864922,-61
2021-09-27 10:55:04.864928,-293
2021-09-27 10:55:04.864934,-136
2021-09-27 10:55:04.864941,-56
2021-09-27 10:55:04.864947,-156
2021-09-27 10:55:05.045406,-105
2021-09-27 10:55:05.045471,-22
2021-09-27 10:55:05.045483,-31
2021-09-27 10:55:05.045493,-14
2021-09-27 10:55:05.045503,2
2021-09-27 10:55:05.045513,-14
2021-09-27 10:55:05.045522,9
2021-09-27 10:55:05.045532,58
2021-09-27 10:55:05.045542,97
2021-09-27 10:55:05.045552,124
2021-09-27 10:55:05.045562,114
2021-09-27 10:55:05.045571,122
2021-09-27 10:55:05.045581,176
2021-09-27 10:55:05.045591,220
2021-09-27 10:55:05.045601,249
2021-09-27 10:55:05.045610,305
2021-09-27 10:55:05.045620,371
2021-09-27 10:55:05.045630,410
2021-09-27 10:55:05.045640,445
2021-09-27 10:55:05.045649,506
2021-09-27 10:55:05.045659,552
2021-09-27 10:55:05.045669,562
2021-09-27 10:55:05.045679,591
2021-09-27 10:55:05.045688,611
2021-09-27 10:55:05.045698,542
2021-09-27 10:55:05.045708,398
2021-09-27 10:55:05.045718,251
2021-09-27 10:55:05.045727,100
2021-09-27 10:55:05.045737,-56
2021-09-27 10:55:05.045747,-173
2021-09-27 10:55:05.359566,-249
2021-09-27 10:55:05.359598,-315
2021-09-27 10:55:05.359610,-349
2021-09-27 10:55:05.359620,-369
2021-09-27 10:55:05.359630,-408
2021-09-27 10:55:05.359640,-408
2021-09-27 10:55:05.359650,-364
2021-09-27 10:55:05.359659,-337
2021-09-27 10:55:05.359669,-337
2021-09-27 10:55:05.359679,-332
2021-09-27 10:55:05.359689,-315
2021-09-27 10:55:05.359699,-300
2021-09-27 10:55:05.359709,-278
2021-09-27 10:55:05.359719,-227
2021-09-27 10:55:05.359729,-202
2021-09-27 10:55:05.359738,-246
2021-09-27 10:55:05.359748,-269
2021-09-27 10:55:05.359758,-222
2021-09-27 10:55:05.359768,-195
2021-09-27 10:55:05.359777,-217
2021-09-27 10:55:05.359787,-220
2021-09-27 10:55:05.359797,-207
2021-09-27 10:55:05.359807,-200
2021-09-27 10:55:05.359816,-190
2021-09-27 10:55:05.359826,-178
2021-09-27 10:55:05.359836,-161
2021-09-27 10:55:05.359846,-149
2021-09-27 10:55:05.359856,-166
2021-09-27 10:55:05.359865,-200
2021-09-27 10:55:05.359875,-205
2021-09-27 10:55:05.539942,-178
2021-09-27 10:55:05.539964,-158
2021-09-27 10:55:05.539972,-156
2021-09-27 10:55:05.539979,-144
2021-09-27 10:55:05.539986,-114
2021-09-27 10:55:05.539993,-110
2021-09-27 10:55:05.540000,-139
2021-09-27 10:55:05.540006,-154
2021-09-27 10:55:05.540013,-141
2021-09-27 10:55:05.540020,-134
2021-09-27 10:55:05.540027,-134
2021-09-27 10:55:05.540033,-127
2021-09-27 10:55:05.540040,-114
2021-09-27 10:55:05.540047,-105
2021-09-27 10:55:05.540053,-102
2021-09-27 10:55:05.540060,-100
2021-09-27 10:55:05.540067,-100
2021-09-27 10:55:05.540073,-100
2021-09-27 10:55:05.540080,-100
2021-09-27 10:55:05.540087,-102
2021-09-27 10:55:05.540093,-105
2021-09-27 10:55:05.540100,-100
2021-09-27 10:55:05.540106,-83
2021-09-27 10:55:05.540113,-70
2021-09-27 10:55:05.540120,-61
2021-09-27 10:55:05.540126,-53
2021-09-27 10:55:05.540133,-85
2021-09-27 10:55:05.540140,-114
2021-09-27 10:55:05.540146,-90
2021-09-27 10:55:05.540153,-68
2021-09-27 10:55:05.764778,-85
2021-09-27 10:55:05.764800,-95
2021-09-27 10:55:05.764808,-92
2021-09-27 10:55:05.764815,-117
2021-09-27 10:55:05.764822,-100
2021-09-27 10:55:05.764828,-48
2021-09-27 10:55:05.764835,-73
2021-09-27 10:55:05.764841,-129
2021-09-27 10:55:05.764847,-161
2021-09-27 10:55:05.764854,-132
2021-09-27 10:55:05.764860,264
2021-09-27 10:55:05.764866,1127
2021-09-27 10:55:05.764873,2007
2021-09-27 10:55:05.764879,2100
2021-09-27 10:55:05.764885,648
2021-09-27 10:55:05.764892,-990
2021-09-27 10:55:05.764898,-807
2021-09-27 10:55:05.764905,-85
2021-09-27 10:55:05.764911,-249
2021-09-27 10:55:05.764917,-339
2021-09-27 10:55:05.764924,-78
2021-09-27 10:55:05.764930,-53
2021-09-27 10:55:05.764937,-122
2021-09-27 10:55:05.764943,-51
2021-09-27 10:55:05.764949,-24
2021-09-27 10:55:05.764956,-34
2021-09-27 10:55:05.764962,22
2021-09-27 10:55:05.764969,48
2021-09-27 10:55:05.764975,19
2021-09-27 10:55:05.764981,36
2021-09-27 10:55:05.990421,83
2021-09-27 10:55:05.990454,102
2021-09-27 10:55:05.990466,124
2021-09-27 10:55:05.990476,156
2021-09-27 10:55:05.990486,168
2021-09-27 10:55:05.990496,198
2021-09-27 10:55:05.990506,254
2021-09-27 10:55:05.990515,293
2021-09-27 10:55:05.990525,327
2021-09-27 10:55:05.990535,383
2021-09-27 10:55:05.990545,452
2021-09-27 10:55:05.990554,513
2021-09-27 10:55:05.990564,557
2021-09-27 10:55:05.990574,594
2021-09-27 10:55:05.990583,613
2021-09-27 10:55:05.990593,623
2021-09-27 10:55:05.990603,623
2021-09-27 10:55:05.990612,535
2021-09-27 10:55:05.990622,376
2021-09-27 10:55:05.990632,215
2021-09-27 10:55:05.990642,46
2021-09-27 10:55:05.990652,-92
2021-09-27 10:55:05.990662,-173
2021-09-27 10:55:05.990671,-251
2021-09-27 10:55:05.990681,-330
2021-09-27 10:55:05.990691,-364
2021-09-27 10:55:05.990701,-359
2021-09-27 10:55:05.990710,-364
2021-09-27 10:55:05.990720,-386
2021-09-27 10:55:05.990730,-381
2021-09-27 10:55:06.215328,-349
2021-09-27 10:55:06.215351,-327
2021-09-27 10:55:06.215359,-300
2021-09-27 10:55:06.215365,-286
2021-09-27 10:55:06.215372,-295
2021-09-27 10:55:06.215378,-286
2021-09-27 10:55:06.215385,-266
2021-09-27 10:55:06.215391,-259
2021-09-27 10:55:06.215398,-227
2021-09-27 10:55:06.215404,-215
2021-09-27 10:55:06.215410,-237
2021-09-27 10:55:06.215417,-210
2021-09-27 10:55:06.215423,-173
2021-09-27 10:55:06.215429,-198
2021-09-27 10:55:06.215436,-205
2021-09-27 10:55:06.215442,-183
2021-09-27 10:55:06.215449,-193
2021-09-27 10:55:06.215455,-188
2021-09-27 10:55:06.215461,-185
2021-09-27 10:55:06.215468,-193
2021-09-27 10:55:06.215474,-168
2021-09-27 10:55:06.215480,-163
2021-09-27 10:55:06.215487,-200
2021-09-27 10:55:06.215493,-180
2021-09-27 10:55:06.215499,-129
2021-09-27 10:55:06.215506,-141
2021-09-27 10:55:06.215512,-176
2021-09-27 10:55:06.215519,-154
2021-09-27 10:55:06.215525,-112
2021-09-27 10:55:06.215531,-129
2021-09-27 10:55:06.440347,-161
2021-09-27 10:55:06.440370,-127
2021-09-27 10:55:06.440378,-97
2021-09-27 10:55:06.440385,-127
2021-09-27 10:55:06.440391,-127
2021-09-27 10:55:06.440398,-110
2021-09-27 10:55:06.440404,-129
2021-09-27 10:55:06.440411,-139
2021-09-27 10:55:06.440417,-114
2021-09-27 10:55:06.440423,-90
2021-09-27 10:55:06.440430,-73
2021-09-27 10:55:06.440437,-95
2021-09-27 10:55:06.440443,-139
2021-09-27 10:55:06.440449,-122
2021-09-27 10:55:06.440456,-63
2021-09-27 10:55:06.440462,-46
2021-09-27 10:55:06.440469,-75
2021-09-27 10:55:06.440475,-100
2021-09-27 10:55:06.440482,-100
2021-09-27 10:55:06.440488,-92
2021-09-27 10:55:06.440494,-90
2021-09-27 10:55:06.440501,-90
2021-09-27 10:55:06.440507,-78
2021-09-27 10:55:06.440513,-63
2021-09-27 10:55:06.440520,-129
2021-09-27 10:55:06.440526,-224
2021-09-27 10:55:06.440533,-58
2021-09-27 10:55:06.440539,621
2021-09-27 10:55:06.440546,1626
2021-09-27 10:55:06.440552,2306
2021-09-27 10:55:06.710455,1692
2021-09-27 10:55:06.710488,-166
2021-09-27 10:55:06.710500,-1098
2021-09-27 10:55:06.710510,-435
2021-09-27 10:55:06.710520,-97
2021-09-27 10:55:06.710530,-335
2021-09-27 10:55:06.710540,-220
2021-09-27 10:55:06.710550,-63
2021-09-27 10:55:06.710560,-119
2021-09-27 10:55:06.710570,-132
2021-09-27 10:55:06.710580,-85
2021-09-27 10:55:06.710590,-66
2021-09-27 10:55:06.710599,-44
2021-09-27 10:55:06.710609,-19
2021-09-27 10:55:06.710619,-7
2021-09-27 10:55:06.710629,19
2021-09-27 10:55:06.710639,44
2021-09-27 10:55:06.710649,56
2021-09-27 10:55:06.710659,102
2021-09-27 10:55:06.710669,156
2021-09-27 10:55:06.710678,141
2021-09-27 10:55:06.710688,132
2021-09-27 10:55:06.710698,198
2021-09-27 10:55:06.710708,261
2021-09-27 10:55:06.710718,305
2021-09-27 10:55:06.710727,374
2021-09-27 10:55:06.710737,445
2021-09-27 10:55:06.710747,489
2021-09-27 10:55:06.710757,525
2021-09-27 10:55:06.710767,577
2021-09-27 10:55:06.980391,606
2021-09-27 10:55:06.980431,616
2021-09-27 10:55:06.980439,618
2021-09-27 10:55:06.980446,582
2021-09-27 10:55:06.980452,476
2021-09-27 10:55:06.980458,317
2021-09-27 10:55:06.980465,158
2021-09-27 10:55:06.980471,19
2021-09-27 10:55:06.980478,-127
2021-09-27 10:55:06.980484,-283
2021-09-27 10:55:06.980490,-374
2021-09-27 10:55:06.980497,-361
2021-09-27 10:55:06.980503,-339
2021-09-27 10:55:06.980509,-357
2021-09-27 10:55:06.980516,-366
2021-09-27 10:55:06.980522,-354
2021-09-27 10:55:06.980528,-337
2021-09-27 10:55:06.980535,-310
2021-09-27 10:55:06.980541,-308
2021-09-27 10:55:06.980547,-335
2021-09-27 10:55:06.980554,-313
2021-09-27 10:55:06.980560,-256
2021-09-27 10:55:06.980566,-234
2021-09-27 10:55:06.980573,-237
2021-09-27 10:55:06.980579,-229
2021-09-27 10:55:06.980585,-212
2021-09-27 10:55:06.980592,-200
2021-09-27 10:55:06.980598,-198
2021-09-27 10:55:06.980604,-198
2021-09-27 10:55:06.980611,-178
2021-09-27 10:55:07.115446,-161
2021-09-27 10:55:07.115478,-171
2021-09-27 10:55:07.115490,-168
2021-09-27 10:55:07.115500,-158
2021-09-27 10:55:07.115510,-166
2021-09-27 10:55:07.115519,-161
2021-09-27 10:55:07.115529,-139
2021-09-27 10:55:07.115539,-141
2021-09-27 10:55:07.115548,-161
2021-09-27 10:55:07.115558,-151
2021-09-27 10:55:07.115568,-127
2021-09-27 10:55:07.115578,-146
2021-09-27 10:55:07.115587,-176
2021-09-27 10:55:07.115597,-146
2021-09-27 10:55:07.115606,-132
2021-09-27 10:55:07.115616,-183
2021-09-27 10:55:07.115626,-190
2021-09-27 10:55:07.115635,-127
2021-09-27 10:55:07.115645,-114
2021-09-27 10:55:07.115655,-146
2021-09-27 10:55:07.115665,-129
2021-09-27 10:55:07.115675,-114
2021-09-27 10:55:07.115684,-144
2021-09-27 10:55:07.115694,-136
2021-09-27 10:55:07.115704,-75
2021-09-27 10:55:07.115713,-73
2021-09-27 10:55:07.115723,-114
2021-09-27 10:55:07.115733,-83
2021-09-27 10:55:07.115742,-58
2021-09-27 10:55:07.115752,-110
2021-09-27 10:55:07.473902,-122
2021-09-27 10:55:07.473934,-88
2021-09-27 10:55:07.473946,-95
2021-09-27 10:55:07.473956,-102
2021-09-27 10:55:07.473966,-95
2021-09-27 10:55:07.473976,-102
2021-09-27 10:55:07.473986,-85
2021-09-27 10:55:07.473996,-73
2021-09-27 10:55:07.474006,-129
2021-09-27 10:55:07.474016,-222
2021-09-27 10:55:07.474026,-200
2021-09-27 10:55:07.474036,185
2021-09-27 10:55:07.474046,1005
2021-09-27 10:55:07.474056,1946
2021-09-27 10:55:07.474066,2276
2021-09-27 10:55:07.474076,1024
2021-09-27 10:55:07.474086,-821
2021-09-27 10:55:07.474096,-953
2021-09-27 10:55:07.474106,-149
2021-09-27 10:55:07.474116,-185
2021-09-27 10:55:07.474126,-354
2021-09-27 10:55:07.474135,-127
2021-09-27 10:55:07.474145,-73
2021-09-27 10:55:07.474155,-141
2021-09-27 10:55:07.474165,-80
2021-09-27 10:55:07.474175,-34
2021-09-27 10:55:07.474185,-26
2021-09-27 10:55:07.474195,7
2021-09-27 10:55:07.474205,9
2021-09-27 10:55:07.474215,7
2021-09-27 10:55:07.610433,53
2021-09-27 10:55:07.610467,83
2021-09-27 10:55:07.610479,70
2021-09-27 10:55:07.610489,85
2021-09-27 10:55:07.610499,129
2021-09-27 10:55:07.610509,158
2021-09-27 10:55:07.610519,202
2021-09-27 10:55:07.610529,259
2021-09-27 10:55:07.610538,276
2021-09-27 10:55:07.610548,313
2021-09-27 10:55:07.610558,401
2021-09-27 10:55:07.610568,467
2021-09-27 10:55:07.610578,498
2021-09-27 10:55:07.610602,550
2021-09-27 10:55:07.610613,601
2021-09-27 10:55:07.610623,621
2021-09-27 10:55:07.610633,606
2021-09-27 10:55:07.610642,555
2021-09-27 10:55:07.610652,491
2021-09-27 10:55:07.610662,388
2021-09-27 10:55:07.610672,217
2021-09-27 10:55:07.610682,24
2021-09-27 10:55:07.610692,-141
2021-09-27 10:55:07.610702,-239
2021-09-27 10:55:07.610711,-259
2021-09-27 10:55:07.610721,-278
2021-09-27 10:55:07.610731,-352
2021-09-27 10:55:07.610740,-398
2021-09-27 10:55:07.610750,-369
2021-09-27 10:55:07.610760,-339
2021-09-27 10:55:07.835043,-330
2021-09-27 10:55:07.835063,-315
2021-09-27 10:55:07.835071,-308
2021-09-27 10:55:07.835078,-291
2021-09-27 10:55:07.835084,-256
2021-09-27 10:55:07.835091,-264
2021-09-27 10:55:07.835097,-273
2021-09-27 10:55:07.835104,-244
2021-09-27 10:55:07.835110,-220
2021-09-27 10:55:07.835116,-210
2021-09-27 10:55:07.835123,-183
2021-09-27 10:55:07.835129,-166
2021-09-27 10:55:07.835136,-185
2021-09-27 10:55:07.835142,-193
2021-09-27 10:55:07.835149,-158
2021-09-27 10:55:07.835155,-134
2021-09-27 10:55:07.835162,-166
2021-09-27 10:55:07.835168,-198
2021-09-27 10:55:07.835174,-176
2021-09-27 10:55:07.835181,-151
2021-09-27 10:55:07.835187,-161
2021-09-27 10:55:07.835194,-176
2021-09-27 10:55:07.835201,-176
2021-09-27 10:55:07.835207,-149
2021-09-27 10:55:07.835213,-112
2021-09-27 10:55:07.835220,-102
2021-09-27 10:55:07.835226,-112
2021-09-27 10:55:07.835233,-127
2021-09-27 10:55:07.835239,-139
2021-09-27 10:55:07.835245,-119
2021-09-27 10:55:08.060460,-85
2021-09-27 10:55:08.060492,-107
2021-09-27 10:55:08.060504,-149
2021-09-27 10:55:08.060514,-119
2021-09-27 10:55:08.060525,-58
2021-09-27 10:55:08.060534,-78
2021-09-27 10:55:08.060544,-110
2021-09-27 10:55:08.060554,-68
2021-09-27 10:55:08.060564,-46
2021-09-27 10:55:08.060574,-88
2021-09-27 10:55:08.060583,-88
2021-09-27 10:55:08.060593,-56
2021-09-27 10:55:08.060603,-66
2021-09-27 10:55:08.060613,-110
2021-09-27 10:55:08.060623,-136
2021-09-27 10:55:08.060632,-124
2021-09-27 10:55:08.060642,-95
2021-09-27 10:55:08.060652,-95
2021-09-27 10:55:08.060662,-100
2021-09-27 10:55:08.060671,-78
2021-09-27 10:55:08.060681,-66
2021-09-27 10:55:08.060691,-95
2021-09-27 10:55:08.060701,-176
2021-09-27 10:55:08.060710,-251
2021-09-27 10:55:08.060720,-58
2021-09-27 10:55:08.060730,606
2021-09-27 10:55:08.060740,1555
2021-09-27 10:55:08.060750,2259
2021-09-27 10:55:08.060760,1724
2021-09-27 10:55:08.060769,-163
2021-09-27 10:55:08.285413,-1166
2021-09-27 10:55:08.285445,-459
2021-09-27 10:55:08.285456,-68
2021-09-27 10:55:08.285467,-320
2021-09-27 10:55:08.285476,-217
2021-09-27 10:55:08.285486,-66
2021-09-27 10:55:08.285496,-154
2021-09-27 10:55:08.285506,-136
2021-09-27 10:55:08.285516,-53
2021-09-27 10:55:08.285526,-66
2021-09-27 10:55:08.285535,-48
2021-09-27 10:55:08.285545,-4
2021-09-27 10:55:08.285555,-7
2021-09-27 10:55:08.285564,7
2021-09-27 10:55:08.285574,39
2021-09-27 10:55:08.285584,29
2021-09-27 10:55:08.285594,44
2021-09-27 10:55:08.285604,105
2021-09-27 10:55:08.285613,141
2021-09-27 10:55:08.285623,163
2021-09-27 10:55:08.285633,207
2021-09-27 10:55:08.285643,269
2021-09-27 10:55:08.285653,310
2021-09-27 10:55:08.285662,335
2021-09-27 10:55:08.285672,386
2021-09-27 10:55:08.285682,449
2021-09-27 10:55:08.285692,484
2021-09-27 10:55:08.285701,525
2021-09-27 10:55:08.285711,582
2021-09-27 10:55:08.285721,599
2021-09-27 10:55:08.599803,586
2021-09-27 10:55:08.599837,564
2021-09-27 10:55:08.599849,467
2021-09-27 10:55:08.599859,283
2021-09-27 10:55:08.599869,92
2021-09-27 10:55:08.599879,-75
2021-09-27 10:55:08.599889,-207
2021-09-27 10:55:08.599931,-261
2021-09-27 10:55:08.599941,-291
2021-09-27 10:55:08.599951,-342
2021-09-27 10:55:08.599960,-361
2021-09-27 10:55:08.599970,-337
2021-09-27 10:55:08.599980,-313
2021-09-27 10:55:08.599990,-325
2021-09-27 10:55:08.600000,-335
2021-09-27 10:55:08.600010,-308
2021-09-27 10:55:08.600019,-278
2021-09-27 10:55:08.600029,-276
2021-09-27 10:55:08.600039,-276
2021-09-27 10:55:08.600049,-254
2021-09-27 10:55:08.600059,-227
2021-09-27 10:55:08.600069,-207
2021-09-27 10:55:08.600079,-205
2021-09-27 10:55:08.600088,-212
2021-09-27 10:55:08.600098,-202
2021-09-27 10:55:08.600108,-185
2021-09-27 10:55:08.600118,-176
2021-09-27 10:55:08.600128,-158
2021-09-27 10:55:08.600137,-141
2021-09-27 10:55:08.600147,-151
2021-09-27 10:55:08.824777,-168
2021-09-27 10:55:08.824800,-168
2021-09-27 10:55:08.824808,-156
2021-09-27 10:55:08.824815,-149
2021-09-27 10:55:08.824821,-146
2021-09-27 10:55:08.824827,-139
2021-09-27 10:55:08.824834,-127
2021-09-27 10:55:08.824840,-134
2021-09-27 10:55:08.824846,-144
2021-09-27 10:55:08.824853,-132
2021-09-27 10:55:08.824859,-122
2021-09-27 10:55:08.824865,-127
2021-09-27 10:55:08.824872,-127
2021-09-27 10:55:08.824878,-117
2021-09-27 10:55:08.824884,-95
2021-09-27 10:55:08.824891,-88
2021-09-27 10:55:08.824897,-117
2021-09-27 10:55:08.824903,-136
2021-09-27 10:55:08.824910,-105
2021-09-27 10:55:08.824916,-66
2021-09-27 10:55:08.824922,-88
2021-09-27 10:55:08.824928,-119
2021-09-27 10:55:08.824935,-75
2021-09-27 10:55:08.824941,-34
2021-09-27 10:55:08.824947,-75
2021-09-27 10:55:08.824953,-117
2021-09-27 10:55:08.824960,-85
2021-09-27 10:55:08.824966,-68
2021-09-27 10:55:08.824972,-102
2021-09-27 10:55:08.824979,-107
2021-09-27 10:55:08.960380,-78
2021-09-27 10:55:08.960403,-78
2021-09-27 10:55:08.960411,-92
2021-09-27 10:55:08.960418,-97
2021-09-27 10:55:08.960424,-105
2021-09-27 10:55:08.960430,-102
2021-09-27 10:55:08.960437,-127
2021-09-27 10:55:08.960443,-183
2021-09-27 10:55:08.960449,-9
2021-09-27 10:55:08.960456,648
2021-09-27 10:55:08.960462,1594
2021-09-27 10:55:08.960468,2257
2021-09-27 10:55:08.960475,1621
2021-09-27 10:55:08.960481,-281
2021-09-27 10:55:08.960487,-1171
2021-09-27 10:55:08.960494,-447
2021-09-27 10:55:08.960500,-127
2021-09-27 10:55:08.960507,-359
2021-09-27 10:55:08.960513,-217
2021-09-27 10:55:08.960519,-61
2021-09-27 10:55:08.960525,-136
2021-09-27 10:55:08.960532,-139
2021-09-27 10:55:08.960538,-73
2021-09-27 10:55:08.960544,-61
2021-09-27 10:55:08.960551,-34
2021-09-27 10:55:08.960557,-9
2021-09-27 10:55:08.960564,-31
2021-09-27 10:55:08.960570,-14
2021-09-27 10:55:08.960576,36
2021-09-27 10:55:08.960583,58
2021-09-27 10:55:09.274780,78
2021-09-27 10:55:09.274805,119
2021-09-27 10:55:09.274813,134
2021-09-27 10:55:09.274820,132
2021-09-27 10:55:09.274826,176
2021-09-27 10:55:09.274833,232
2021-09-27 10:55:09.274839,259
2021-09-27 10:55:09.274846,308
2021-09-27 10:55:09.274852,396
2021-09-27 10:55:09.274858,471
2021-09-27 10:55:09.274865,498
2021-09-27 10:55:09.274871,506
2021-09-27 10:55:09.274878,550
2021-09-27 10:55:09.274884,586
2021-09-27 10:55:09.274922,552
2021-09-27 10:55:09.274929,496
2021-09-27 10:55:09.274935,410
2021-09-27 10:55:09.274942,249
2021-09-27 10:55:09.274948,58
2021-09-27 10:55:09.274955,-107
2021-09-27 10:55:09.274961,-210
2021-09-27 10:55:09.274967,-246
2021-09-27 10:55:09.274974,-291
2021-09-27 10:55:09.274980,-354
2021-09-27 10:55:09.274986,-376
2021-09-27 10:55:09.274993,-359
2021-09-27 10:55:09.274999,-349
2021-09-27 10:55:09.275006,-335
2021-09-27 10:55:09.275012,-320
2021-09-27 10:55:09.275018,-332
2021-09-27 10:55:09.499555,-332
2021-09-27 10:55:09.499587,-293
2021-09-27 10:55:09.499599,-269
2021-09-27 10:55:09.499609,-251
2021-09-27 10:55:09.499619,-205
2021-09-27 10:55:09.499629,-200
2021-09-27 10:55:09.499639,-242
2021-09-27 10:55:09.499649,-227
2021-09-27 10:55:09.499659,-193
2021-09-27 10:55:09.499669,-207
2021-09-27 10:55:09.499679,-198
2021-09-27 10:55:09.499688,-163
2021-09-27 10:55:09.499698,-158
2021-09-27 10:55:09.499708,-166
2021-09-27 10:55:09.499718,-156
2021-09-27 10:55:09.499728,-141
2021-09-27 10:55:09.499738,-151
2021-09-27 10:55:09.499748,-173
2021-09-27 10:55:09.499758,-163
2021-09-27 10:55:09.499767,-144
2021-09-27 10:55:09.499777,-139
2021-09-27 10:55:09.499787,-129
2021-09-27 10:55:09.499797,-127
2021-09-27 10:55:09.499807,-134
2021-09-27 10:55:09.499817,-117
2021-09-27 10:55:09.499827,-88
2021-09-27 10:55:09.499837,-105
2021-09-27 10:55:09.499847,-127
2021-09-27 10:55:09.499892,-107
2021-09-27 10:55:09.499902,-102
2021-09-27 10:55:09.680387,-119
2021-09-27 10:55:09.680412,-117
2021-09-27 10:55:09.680419,-107
2021-09-27 10:55:09.680426,-107
2021-09-27 10:55:09.680432,-92
2021-09-27 10:55:09.680439,-70
2021-09-27 10:55:09.680445,-58
2021-09-27 10:55:09.680451,-63
2021-09-27 10:55:09.680458,-58
2021-09-27 10:55:09.680464,-51
2021-09-27 10:55:09.680471,-83
2021-09-27 10:55:09.680477,-122
2021-09-27 10:55:09.680483,-117
2021-09-27 10:55:09.680490,-112
2021-09-27 10:55:09.680496,-141
2021-09-27 10:55:09.680502,-156
2021-09-27 10:55:09.680509,-129
2021-09-27 10:55:09.680515,-83
2021-09-27 10:55:09.680521,-58
2021-09-27 10:55:09.680528,-117
2021-09-27 10:55:09.680534,-220
2021-09-27 10:55:09.680540,-210
2021-09-27 10:55:09.680547,139
2021-09-27 10:55:09.680553,946
2021-09-27 10:55:09.680559,1924
2021-09-27 10:55:09.680566,2320
2021-09-27 10:55:09.680572,1120
2021-09-27 10:55:09.680579,-816
2021-09-27 10:55:09.680585,-1053
2021-09-27 10:55:09.680592,-205
2021-09-27 10:55:09.905350,-198
2021-09-27 10:55:09.905373,-386
2021-09-27 10:55:09.905381,-136
2021-09-27 10:55:09.905388,-68
2021-09-27 10:55:09.905394,-176
2021-09-27 10:55:09.905400,-124
2021-09-27 10:55:09.905407,-66
2021-09-27 10:55:09.905413,-107
2021-09-27 10:55:09.905419,-97
2021-09-27 10:55:09.905426,-24
2021-09-27 10:55:09.905433,12
2021-09-27 10:55:09.905439,17
2021-09-27 10:55:09.905445,9
2021-09-27 10:55:09.905452,14
2021-09-27 10:55:09.905458,51
2021-09-27 10:55:09.905464,110
2021-09-27 10:55:09.905471,158
2021-09-27 10:55:09.905477,178
2021-09-27 10:55:09.905483,198
2021-09-27 10:55:09.905490,242
2021-09-27 10:55:09.905496,293
2021-09-27 10:55:09.905502,376
2021-09-27 10:55:09.905509,467
2021-09-27 10:55:09.905515,493
2021-09-27 10:55:09.905522,520
2021-09-27 10:55:09.905528,608
2021-09-27 10:55:09.905534,645
2021-09-27 10:55:09.905541,596
2021-09-27 10:55:09.905547,555
2021-09-27 10:55:09.905553,520
2021-09-27 10:55:10.174837,376
2021-09-27 10:55:10.174870,161
2021-09-27 10:55:10.174883,-2
2021-09-27 10:55:10.174893,-122
2021-09-27 10:55:10.174902,-237
2021-09-27 10:55:10.174912,-310
2021-09-27 10:55:10.174922,-339
2021-09-27 10:55:10.174931,-371
2021-09-27 10:55:10.174941,-403
2021-09-27 10:55:10.174951,-398
2021-09-27 10:55:10.174960,-371
2021-09-27 10:55:10.174970,-379
2021-09-27 10:55:10.175012,-393
2021-09-27 10:55:10.175022,-349
2021-09-27 10:55:10.175031,-293
2021-09-27 10:55:10.175041,-293
2021-09-27 10:55:10.175051,-315
2021-09-27 10:55:10.175060,-303
2021-09-27 10:55:10.175070,-256
2021-09-27 10:55:10.175079,-237
2021-09-27 10:55:10.175089,-254
2021-09-27 10:55:10.175099,-244
2021-09-27 10:55:10.175108,-207
2021-09-27 10:55:10.175118,-200
2021-09-27 10:55:10.175128,-210
2021-09-27 10:55:10.175137,-188
2021-09-27 10:55:10.175147,-156
2021-09-27 10:55:10.175157,-166
2021-09-27 10:55:10.175166,-166
2021-09-27 10:55:10.175176,-139
2021-09-27 10:55:10.355433,-151
2021-09-27 10:55:10.355467,-180
2021-09-27 10:55:10.355511,-163
2021-09-27 10:55:10.355521,-139
2021-09-27 10:55:10.355531,-141
2021-09-27 10:55:10.355541,-154
2021-09-27 10:55:10.355551,-149
2021-09-27 10:55:10.355560,-154
2021-09-27 10:55:10.355570,-166
2021-09-27 10:55:10.355579,-149
2021-09-27 10:55:10.355589,-110
2021-09-27 10:55:10.355599,-107
2021-09-27 10:55:10.355608,-136
2021-09-27 10:55:10.355618,-141
2021-09-27 10:55:10.355628,-114
2021-09-27 10:55:10.355637,-105
2021-09-27 10:55:10.355647,-100
2021-09-27 10:55:10.355656,-83
2021-09-27 10:55:10.355666,-75
2021-09-27 10:55:10.355676,-83
2021-09-27 10:55:10.355685,-75
2021-09-27 10:55:10.355695,-61
2021-09-27 10:55:10.355705,-83
2021-09-27 10:55:10.355715,-114
2021-09-27 10:55:10.355724,-105
2021-09-27 10:55:10.355734,-88
2021-09-27 10:55:10.355744,-85
2021-09-27 10:55:10.355753,-85
2021-09-27 10:55:10.355763,-83
2021-09-27 10:55:10.355773,-85
2021-09-27 10:55:10.580337,-107
2021-09-27 10:55:10.580368,-173
2021-09-27 10:55:10.580380,-139
2021-09-27 10:55:10.580390,364
2021-09-27 10:55:10.580400,1349
2021-09-27 10:55:10.580410,2232
2021-09-27 10:55:10.580420,2061
2021-09-27 10:55:10.580430,361
2021-09-27 10:55:10.580439,-1100
2021-09-27 10:55:10.580449,-699
2021-09-27 10:55:10.580459,-68
2021-09-27 10:55:10.580469,-283
2021-09-27 10:55:10.580479,-322
2021-09-27 10:55:10.580488,-110
2021-09-27 10:55:10.580498,-129
2021-09-27 10:55:10.580508,-161
2021-09-27 10:55:10.580518,-88
2021-09-27 10:55:10.580528,-66
2021-09-27 10:55:10.580538,-61
2021-09-27 10:55:10.580548,-22
2021-09-27 10:55:10.580558,-14
2021-09-27 10:55:10.580567,-22
2021-09-27 10:55:10.580578,0
2021-09-27 10:55:10.580587,26
2021-09-27 10:55:10.580597,39
2021-09-27 10:55:10.580607,78
2021-09-27 10:55:10.580617,127
2021-09-27 10:55:10.580627,158
2021-09-27 10:55:10.580637,185
2021-09-27 10:55:10.580647,210
2021-09-27 10:55:10.805372,259
2021-09-27 10:55:10.805395,344
2021-09-27 10:55:10.805403,415
2021-09-27 10:55:10.805428,447
2021-09-27 10:55:10.805435,481
2021-09-27 10:55:10.805441,542
2021-09-27 10:55:10.805447,596
2021-09-27 10:55:10.805454,608
2021-09-27 10:55:10.805460,601
2021-09-27 10:55:10.805466,555
2021-09-27 10:55:10.805473,435
2021-09-27 10:55:10.805479,259
2021-09-27 10:55:10.805485,61
2021-09-27 10:55:10.805492,-107
2021-09-27 10:55:10.805498,-222
2021-09-27 10:55:10.805505,-300
2021-09-27 10:55:10.805511,-349
2021-09-27 10:55:10.805517,-374
2021-09-27 10:55:10.805523,-396
2021-09-27 10:55:10.805530,-386
2021-09-27 10:55:10.805536,-349
2021-09-27 10:55:10.805542,-352
2021-09-27 10:55:10.805549,-371
2021-09-27 10:55:10.805555,-339
2021-09-27 10:55:10.805561,-310
2021-09-27 10:55:10.805567,-315
2021-09-27 10:55:10.805574,-298
2021-09-27 10:55:10.805580,-266
2021-09-27 10:55:10.805586,-242
2021-09-27 10:55:10.805593,-222
2021-09-27 10:55:11.120424,-220
2021-09-27 10:55:11.120455,-215
2021-09-27 10:55:11.120467,-212
2021-09-27 10:55:11.120477,-207
2021-09-27 10:55:11.120487,-185
2021-09-27 10:55:11.120497,-166
2021-09-27 10:55:11.120506,-163
2021-09-27 10:55:11.120516,-149
2021-09-27 10:55:11.120526,-141
2021-09-27 10:55:11.120536,-163
2021-09-27 10:55:11.120546,-190
2021-09-27 10:55:11.120555,-180
2021-09-27 10:55:11.120565,-156
2021-09-27 10:55:11.120575,-154
2021-09-27 10:55:11.120584,-151
2021-09-27 10:55:11.120594,-141
2021-09-27 10:55:11.120604,-132
2021-09-27 10:55:11.120613,-124
2021-09-27 10:55:11.120623,-122
2021-09-27 10:55:11.120633,-136
2021-09-27 10:55:11.120642,-149
2021-09-27 10:55:11.120652,-122
2021-09-27 10:55:11.120661,-90
2021-09-27 10:55:11.120671,-105
2021-09-27 10:55:11.120681,-124
2021-09-27 10:55:11.120690,-102
2021-09-27 10:55:11.120700,-92
2021-09-27 10:55:11.120709,-97
2021-09-27 10:55:11.120719,-88
2021-09-27 10:55:11.120728,-85
2021-09-27 10:55:11.300403,-90
2021-09-27 10:55:11.300425,-78
2021-09-27 10:55:11.300433,-63
2021-09-27 10:55:11.300440,-70
2021-09-27 10:55:11.300446,-83
2021-09-27 10:55:11.300452,-73
2021-09-27 10:55:11.300458,-66
2021-09-27 10:55:11.300465,-75
2021-09-27 10:55:11.300471,-90
2021-09-27 10:55:11.300477,-107
2021-09-27 10:55:11.300483,-102
2021-09-27 10:55:11.300490,-68
2021-09-27 10:55:11.300496,-68
2021-09-27 10:55:11.300502,-110
2021-09-27 10:55:11.300508,-173
2021-09-27 10:55:11.300515,-195
2021-09-27 10:55:11.300521,149
2021-09-27 10:55:11.300527,1058
2021-09-27 10:55:11.300534,2100
2021-09-27 10:55:11.300540,2340
2021-09-27 10:55:11.300546,919
2021-09-27 10:55:11.300553,-912
2021-09-27 10:55:11.300559,-948
2021-09-27 10:55:11.300565,-144
2021-09-27 10:55:11.300571,-190
2021-09-27 10:55:11.300578,-330
2021-09-27 10:55:11.300584,-100
2021-09-27 10:55:11.300590,-73
2021-09-27 10:55:11.300597,-149
2021-09-27 10:55:11.300603,-70
2021-09-27 10:55:11.658999,-48
2021-09-27 10:55:11.659024,-88
2021-09-27 10:55:11.659032,-36
2021-09-27 10:55:11.659069,31
2021-09-27 10:55:11.659075,39
2021-09-27 10:55:11.659082,26
2021-09-27 10:55:11.659088,14
2021-09-27 10:55:11.659095,22
2021-09-27 10:55:11.659101,70
2021-09-27 10:55:11.659107,117
2021-09-27 10:55:11.659114,154
2021-09-27 10:55:11.659120,202
2021-09-27 10:55:11.659126,251
2021-09-27 10:55:11.659133,271
2021-09-27 10:55:11.659139,276
2021-09-27 10:55:11.659145,339
2021-09-27 10:55:11.659152,442
2021-09-27 10:55:11.659158,506
2021-09-27 10:55:11.659164,540
2021-09-27 10:55:11.659170,572
2021-09-27 10:55:11.659177,601
2021-09-27 10:55:11.659183,606
2021-09-27 10:55:11.659189,557
2021-09-27 10:55:11.659196,467
2021-09-27 10:55:11.659202,337
2021-09-27 10:55:11.659208,163
2021-09-27 10:55:11.659215,-19
2021-09-27 10:55:11.659221,-176
2021-09-27 10:55:11.659227,-256
2021-09-27 10:55:11.659234,-293
2021-09-27 10:55:11.750465,-347
2021-09-27 10:55:11.750497,-381
2021-09-27 10:55:11.750508,-374
2021-09-27 10:55:11.750519,-391
2021-09-27 10:55:11.750528,-415
2021-09-27 10:55:11.750538,-364
2021-09-27 10:55:11.750548,-308
2021-09-27 10:55:11.750557,-315
2021-09-27 10:55:11.750567,-286
2021-09-27 10:55:11.750577,-227
2021-09-27 10:55:11.750586,-256
2021-09-27 10:55:11.750596,-293
2021-09-27 10:55:11.750606,-269
2021-09-27 10:55:11.750615,-259
2021-09-27 10:55:11.750625,-239
2021-09-27 10:55:11.750634,-200
2021-09-27 10:55:11.750644,-183
2021-09-27 10:55:11.750654,-163
2021-09-27 10:55:11.750663,-173
2021-09-27 10:55:11.750673,-210
2021-09-27 10:55:11.750683,-212
2021-09-27 10:55:11.750693,-183
2021-09-27 10:55:11.750702,-141
2021-09-27 10:55:11.750712,-127
2021-09-27 10:55:11.750722,-158
2021-09-27 10:55:11.750731,-163
2021-09-27 10:55:11.750758,-129
2021-09-27 10:55:11.750764,-136
2021-09-27 10:55:11.750771,-171
2021-09-27 10:55:11.750777,-158
2021-09-27 10:55:11.975359,-124
2021-09-27 10:55:11.975381,-119
2021-09-27 10:55:11.975389,-122
2021-09-27 10:55:11.975395,-100
2021-09-27 10:55:11.975401,-80
2021-09-27 10:55:11.975408,-88
2021-09-27 10:55:11.975414,-102
2021-09-27 10:55:11.975420,-110
2021-09-27 10:55:11.975426,-112
2021-09-27 10:55:11.975432,-110
2021-09-27 10:55:11.975439,-90
2021-09-27 10:55:11.975445,-68
2021-09-27 10:55:11.975451,-78
2021-09-27 10:55:11.975457,-110
2021-09-27 10:55:11.975464,-107
2021-09-27 10:55:11.975470,-85
2021-09-27 10:55:11.975476,-66
2021-09-27 10:55:11.975482,-48
2021-09-27 10:55:11.975489,-44
2021-09-27 10:55:11.975495,-29
2021-09-27 10:55:11.975501,-26
2021-09-27 10:55:11.975507,-58
2021-09-27 10:55:11.975514,-92
2021-09-27 10:55:11.975520,-117
2021-09-27 10:55:11.975526,-107
2021-09-27 10:55:11.975532,-75
2021-09-27 10:55:11.975538,-63
2021-09-27 10:55:11.975545,-56
2021-09-27 10:55:11.975551,-75
2021-09-27 10:55:11.975557,-129
2021-09-27 10:55:12.200415,-185
2021-09-27 10:55:12.200447,-85
2021-09-27 10:55:12.200458,501
2021-09-27 10:55:12.200468,1547
2021-09-27 10:55:12.200478,2377
2021-09-27 10:55:12.200488,1941
2021-09-27 10:55:12.200498,48
2021-09-27 10:55:12.200507,-1154
2021-09-27 10:55:12.200517,-533
2021-09-27 10:55:12.200527,-66
2021-09-27 10:55:12.200537,-335
2021-09-27 10:55:12.200547,-276
2021-09-27 10:55:12.200557,-102
2021-09-27 10:55:12.200566,-151
2021-09-27 10:55:12.200576,-144
2021-09-27 10:55:12.200586,-75
2021-09-27 10:55:12.200595,-78
2021-09-27 10:55:12.200605,-68
2021-09-27 10:55:12.200615,-14
2021-09-27 10:55:12.200624,-7
2021-09-27 10:55:12.200634,-14
2021-09-27 10:55:12.200644,17
2021-09-27 10:55:12.200653,12
2021-09-27 10:55:12.200663,0
2021-09-27 10:55:12.200673,78
2021-09-27 10:55:12.200683,151
2021-09-27 10:55:12.200693,151
2021-09-27 10:55:12.200702,180
2021-09-27 10:55:12.200712,264
2021-09-27 10:55:12.200722,313
2021-09-27 10:55:12.514689,332
2021-09-27 10:55:12.514720,383
2021-09-27 10:55:12.514732,442
2021-09-27 10:55:12.514742,491
2021-09-27 10:55:12.514752,545
2021-09-27 10:55:12.514762,589
2021-09-27 10:55:12.514772,613
2021-09-27 10:55:12.514782,606
2021-09-27 10:55:12.514792,552
2021-09-27 10:55:12.514802,430
2021-09-27 10:55:12.514811,224
2021-09-27 10:55:12.514821,14
2021-09-27 10:55:12.514831,-105
2021-09-27 10:55:12.514840,-173
2021-09-27 10:55:12.514850,-261
2021-09-27 10:55:12.514860,-342
2021-09-27 10:55:12.514870,-357
2021-09-27 10:55:12.514880,-359
2021-09-27 10:55:12.514889,-391
2021-09-27 10:55:12.514899,-381
2021-09-27 10:55:12.514909,-327
2021-09-27 10:55:12.514919,-322
2021-09-27 10:55:12.514928,-349
2021-09-27 10:55:12.514938,-337
2021-09-27 10:55:12.514948,-283
2021-09-27 10:55:12.514957,-264
2021-09-27 10:55:12.514967,-283
2021-09-27 10:55:12.514977,-264
2021-09-27 10:55:12.514987,-232
2021-09-27 10:55:12.514996,-229
2021-09-27 10:55:12.650315,-212
2021-09-27 10:55:12.650347,-195
2021-09-27 10:55:12.650358,-195
2021-09-27 10:55:12.650368,-178
2021-09-27 10:55:12.650378,-178
2021-09-27 10:55:12.650388,-205
2021-09-27 10:55:12.650398,-198
2021-09-27 10:55:12.650407,-146
2021-09-27 10:55:12.650417,-134
2021-09-27 10:55:12.650427,-161
2021-09-27 10:55:12.650436,-166
2021-09-27 10:55:12.650446,-144
2021-09-27 10:55:12.650456,-134
2021-09-27 10:55:12.650466,-156
2021-09-27 10:55:12.650475,-168
2021-09-27 10:55:12.650485,-156
2021-09-27 10:55:12.650494,-190
2021-09-27 10:55:12.650504,-176
2021-09-27 10:55:12.650514,-63
2021-09-27 10:55:12.650523,-61
2021-09-27 10:55:12.650533,-144
2021-09-27 10:55:12.650543,-124
2021-09-27 10:55:12.650553,-56
2021-09-27 10:55:12.650562,-66
2021-09-27 10:55:12.650572,-117
2021-09-27 10:55:12.650582,-129
2021-09-27 10:55:12.650591,-112
2021-09-27 10:55:12.650601,-114
2021-09-27 10:55:12.650611,-97
2021-09-27 10:55:12.650620,-80
2021-09-27 10:55:12.920364,-100
2021-09-27 10:55:12.920387,-95
2021-09-27 10:55:12.920394,-68
2021-09-27 10:55:12.920400,-70
2021-09-27 10:55:12.920407,-53
2021-09-27 10:55:12.920413,-24
2021-09-27 10:55:12.920419,-58
2021-09-27 10:55:12.920425,-97
2021-09-27 10:55:12.920432,-92
2021-09-27 10:55:12.920438,-95
2021-09-27 10:55:12.920444,-105
2021-09-27 10:55:12.920450,-100
2021-09-27 10:55:12.920457,-102
2021-09-27 10:55:12.920463,-85
2021-09-27 10:55:12.920469,-56
2021-09-27 10:55:12.920475,-110
2021-09-27 10:55:12.920482,-227
2021-09-27 10:55:12.920488,-178
2021-09-27 10:55:12.920494,276
2021-09-27 10:55:12.920501,1142
2021-09-27 10:55:12.920507,2061
2021-09-27 10:55:12.920514,2235
2021-09-27 10:55:12.920520,802
2021-09-27 10:55:12.920526,-965
2021-09-27 10:55:12.920532,-885
2021-09-27 10:55:12.920539,-100
2021-09-27 10:55:12.920545,-217
2021-09-27 10:55:12.920551,-347
2021-09-27 10:55:12.920557,-97
2021-09-27 10:55:12.920564,-56
2021-09-27 10:55:13.145369,-141
2021-09-27 10:55:13.145392,-88
2021-09-27 10:55:13.145399,-44
2021-09-27 10:55:13.145406,-61
2021-09-27 10:55:13.145412,-39
2021-09-27 10:55:13.145418,2
2021-09-27 10:55:13.145425,29
2021-09-27 10:55:13.145431,53
2021-09-27 10:55:13.145437,48
2021-09-27 10:55:13.145444,31
2021-09-27 10:55:13.145450,48
2021-09-27 10:55:13.145456,102
2021-09-27 10:55:13.145463,166
2021-09-27 10:55:13.145469,202
2021-09-27 10:55:13.145475,210
2021-09-27 10:55:13.145481,249
2021-09-27 10:55:13.145488,325
2021-09-27 10:55:13.145494,391
2021-09-27 10:55:13.145500,469
2021-09-27 10:55:13.145507,555
2021-09-27 10:55:13.145513,579
2021-09-27 10:55:13.145519,569
2021-09-27 10:55:13.145526,591
2021-09-27 10:55:13.145532,599
2021-09-27 10:55:13.145538,535
2021-09-27 10:55:13.145545,435
2021-09-27 10:55:13.145551,288
2021-09-27 10:55:13.145557,119
2021-09-27 10:55:13.145563,-14
2021-09-27 10:55:13.145570,-129
2021-09-27 10:55:13.370318,-232
2021-09-27 10:55:13.370340,-325
2021-09-27 10:55:13.370348,-371
2021-09-27 10:55:13.370354,-374
2021-09-27 10:55:13.370361,-388
2021-09-27 10:55:13.370367,-398
2021-09-27 10:55:13.370373,-383
2021-09-27 10:55:13.370380,-371
2021-09-27 10:55:13.370386,-352
2021-09-27 10:55:13.370392,-330
2021-09-27 10:55:13.370399,-327
2021-09-27 10:55:13.370405,-298
2021-09-27 10:55:13.370412,-234
2021-09-27 10:55:13.370418,-246
2021-09-27 10:55:13.370424,-303
2021-09-27 10:55:13.370431,-281
2021-09-27 10:55:13.370437,-224
2021-09-27 10:55:13.370443,-215
2021-09-27 10:55:13.370450,-222
2021-09-27 10:55:13.370456,-202
2021-09-27 10:55:13.370462,-156
2021-09-27 10:55:13.370478,-158
2021-09-27 10:55:13.370485,-212
2021-09-27 10:55:13.370492,-200
2021-09-27 10:55:13.370498,-156
2021-09-27 10:55:13.370504,-171
2021-09-27 10:55:13.370511,-188
2021-09-27 10:55:13.370517,-151
2021-09-27 10:55:13.370523,-124
2021-09-27 10:55:13.370530,-132
2021-09-27 10:55:13.683919,-127
2021-09-27 10:55:13.683950,-95
2021-09-27 10:55:13.683962,-95
2021-09-27 10:55:13.683972,-161
2021-09-27 10:55:13.683982,-200
2021-09-27 10:55:13.683992,-161
2021-09-27 10:55:13.684002,-122
2021-09-27 10:55:13.684012,-129
2021-09-27 10:55:13.684021,-136
2021-09-27 10:55:13.684031,-105
2021-09-27 10:55:13.684041,-80
2021-09-27 10:55:13.684050,-102
2021-09-27 10:55:13.684060,-114
2021-09-27 10:55:13.684070,-102
2021-09-27 10:55:13.684080,-95
2021-09-27 10:55:13.684090,-112
2021-09-27 10:55:13.684099,-134
2021-09-27 10:55:13.684109,-97
2021-09-27 10:55:13.684119,-51
2021-09-27 10:55:13.684129,-58
2021-09-27 10:55:13.684139,-78
2021-09-27 10:55:13.684148,-88
2021-09-27 10:55:13.684158,-107
2021-09-27 10:55:13.684168,-110
2021-09-27 10:55:13.684177,-70
2021-09-27 10:55:13.684187,-53
2021-09-27 10:55:13.684197,-90
2021-09-27 10:55:13.684207,-97
2021-09-27 10:55:13.684217,-78
2021-09-27 10:55:13.684227,-100
2021-09-27 10:55:13.820367,-124
2021-09-27 10:55:13.820390,-132
2021-09-27 10:55:13.820398,-198
2021-09-27 10:55:13.820404,-178
2021-09-27 10:55:13.820411,298
2021-09-27 10:55:13.820417,1244
2021-09-27 10:55:13.820423,2169
2021-09-27 10:55:13.820430,2178
2021-09-27 10:55:13.820436,560
2021-09-27 10:55:13.820442,-1073
2021-09-27 10:55:13.820448,-809
2021-09-27 10:55:13.820455,-154
2021-09-27 10:55:13.820461,-335
2021-09-27 10:55:13.820467,-315
2021-09-27 10:55:13.820474,-70
2021-09-27 10:55:13.820480,-146
2021-09-27 10:55:13.820486,-185
2021-09-27 10:55:13.820493,-44
2021-09-27 10:55:13.820499,-29
2021-09-27 10:55:13.820505,-70
2021-09-27 10:55:13.820511,-17
2021-09-27 10:55:13.820518,-4
2021-09-27 10:55:13.820524,-31
2021-09-27 10:55:13.820530,14
2021-09-27 10:55:13.820537,92
2021-09-27 10:55:13.820543,97
2021-09-27 10:55:13.820549,75
2021-09-27 10:55:13.820556,112
2021-09-27 10:55:13.820562,193
2021-09-27 10:55:13.820568,249
2021-09-27 10:55:14.090334,249
2021-09-27 10:55:14.090356,269
2021-09-27 10:55:14.090364,359
2021-09-27 10:55:14.090371,440
2021-09-27 10:55:14.090377,479
2021-09-27 10:55:14.090383,520
2021-09-27 10:55:14.090390,569
2021-09-27 10:55:14.090396,618
2021-09-27 10:55:14.090402,640
2021-09-27 10:55:14.090409,613
2021-09-27 10:55:14.090415,567
2021-09-27 10:55:14.090421,474
2021-09-27 10:55:14.090428,288
2021-09-27 10:55:14.090434,90
2021-09-27 10:55:14.090440,-51
2021-09-27 10:55:14.090447,-163
2021-09-27 10:55:14.090453,-273
2021-09-27 10:55:14.090460,-330
2021-09-27 10:55:14.090466,-339
2021-09-27 10:55:14.090472,-359
2021-09-27 10:55:14.090479,-388
2021-09-27 10:55:14.090485,-369
2021-09-27 10:55:14.090492,-344
2021-09-27 10:55:14.090498,-347
2021-09-27 10:55:14.090504,-344
2021-09-27 10:55:14.090511,-330
2021-09-27 10:55:14.090517,-303
2021-09-27 10:55:14.090524,-254
2021-09-27 10:55:14.090530,-224
2021-09-27 10:55:14.090536,-237
2021-09-27 10:55:14.270490,-237
2021-09-27 10:55:14.270523,-200
2021-09-27 10:55:14.270534,-180
2021-09-27 10:55:14.270545,-195
2021-09-27 10:55:14.270554,-212
2021-09-27 10:55:14.270564,-210
2021-09-27 10:55:14.270573,-190
2021-09-27 10:55:14.270583,-163
2021-09-27 10:55:14.270593,-173
2021-09-27 10:55:14.270602,-202
2021-09-27 10:55:14.270612,-190
2021-09-27 10:55:14.270621,-163
2021-09-27 10:55:14.270631,-161
2021-09-27 10:55:14.270641,-149
2021-09-27 10:55:14.270650,-136
2021-09-27 10:55:14.270660,-151
2021-09-27 10:55:14.270669,-151
2021-09-27 10:55:14.270679,-129
2021-09-27 10:55:14.270688,-127
2021-09-27 10:55:14.270698,-146
2021-09-27 10:55:14.270708,-154
2021-09-27 10:55:14.270717,-144
2021-09-27 10:55:14.270727,-144
2021-09-27 10:55:14.270736,-141
2021-09-27 10:55:14.270746,-110
2021-09-27 10:55:14.270755,-83
2021-09-27 10:55:14.270765,-97
2021-09-27 10:55:14.270775,-105
2021-09-27 10:55:14.270785,-92
2021-09-27 10:55:14.270794,-73
2021-09-27 10:55:14.540315,-53
2021-09-27 10:55:14.540347,-56
2021-09-27 10:55:14.540358,-95
2021-09-27 10:55:14.540368,-122
2021-09-27 10:55:14.540378,-105
2021-09-27 10:55:14.540388,-80
2021-09-27 10:55:14.540398,-75
2021-09-27 10:55:14.540408,-63
2021-09-27 10:55:14.540418,-53
2021-09-27 10:55:14.540428,-66
2021-09-27 10:55:14.540437,-85
2021-09-27 10:55:14.540447,-97
2021-09-27 10:55:14.540457,-107
2021-09-27 10:55:14.540467,-110
2021-09-27 10:55:14.540477,-95
2021-09-27 10:55:14.540486,-80
2021-09-27 10:55:14.540496,-88
2021-09-27 10:55:14.540506,-92
2021-09-27 10:55:14.540516,-90
2021-09-27 10:55:14.540525,-134
2021-09-27 10:55:14.540535,-198
2021-09-27 10:55:14.540545,-12
2021-09-27 10:55:14.540555,696
2021-09-27 10:55:14.540565,1719
2021-09-27 10:55:14.540575,2350
2021-09-27 10:55:14.540585,1552
2021-09-27 10:55:14.540595,-408
2021-09-27 10:55:14.540604,-1161
2021-09-27 10:55:14.540614,-371
2021-09-27 10:55:14.540624,-119
2021-09-27 10:55:14.765274,-376
2021-09-27 10:55:14.765306,-202
2021-09-27 10:55:14.765318,-46
2021-09-27 10:55:14.765328,-139
2021-09-27 10:55:14.765337,-134
2021-09-27 10:55:14.765371,-63
2021-09-27 10:55:14.765382,-78
2021-09-27 10:55:14.765391,-73
2021-09-27 10:55:14.765401,-17
2021-09-27 10:55:14.765411,-22
2021-09-27 10:55:14.765420,-31
2021-09-27 10:55:14.765430,17
2021-09-27 10:55:14.765440,53
2021-09-27 10:55:14.765449,68
2021-09-27 10:55:14.765459,97
2021-09-27 10:55:14.765468,114
2021-09-27 10:55:14.765478,136
2021-09-27 10:55:14.765487,188
2021-09-27 10:55:14.765497,234
2021-09-27 10:55:14.765507,281
2021-09-27 10:55:14.765517,352
2021-09-27 10:55:14.765526,413
2021-09-27 10:55:14.765536,454
2021-09-27 10:55:14.765545,496
2021-09-27 10:55:14.765555,560
2021-09-27 10:55:14.765565,599
2021-09-27 10:55:14.765574,589
2021-09-27 10:55:14.765584,567
2021-09-27 10:55:14.765593,528
2021-09-27 10:55:14.765603,418
2021-09-27 10:55:14.990400,239
2021-09-27 10:55:14.990422,66
2021-09-27 10:55:14.990430,-75
2021-09-27 10:55:14.990437,-195
2021-09-27 10:55:14.990443,-281
2021-09-27 10:55:14.990449,-317
2021-09-27 10:55:14.990456,-344
2021-09-27 10:55:14.990462,-366
2021-09-27 10:55:14.990468,-361
2021-09-27 10:55:14.990474,-347
2021-09-27 10:55:14.990480,-344
2021-09-27 10:55:14.990487,-339
2021-09-27 10:55:14.990493,-320
2021-09-27 10:55:14.990499,-303
2021-09-27 10:55:14.990505,-288
2021-09-27 10:55:14.990512,-273
2021-09-27 10:55:14.990518,-273
2021-09-27 10:55:14.990524,-269
2021-09-27 10:55:14.990531,-239
2021-09-27 10:55:14.990537,-210
2021-09-27 10:55:14.990543,-202
2021-09-27 10:55:14.990549,-200
2021-09-27 10:55:14.990556,-202
2021-09-27 10:55:14.990562,-195
2021-09-27 10:55:14.990568,-163
2021-09-27 10:55:14.990574,-154
2021-09-27 10:55:14.990580,-171
2021-09-27 10:55:14.990587,-156
2021-09-27 10:55:14.990593,-132
2021-09-27 10:55:14.990599,-136
2021-09-27 10:55:15.215380,-127
2021-09-27 10:55:15.215403,-105
2021-09-27 10:55:15.215411,-129
2021-09-27 10:55:15.215417,-149
2021-09-27 10:55:15.215423,-132
2021-09-27 10:55:15.215430,-122
2021-09-27 10:55:15.215436,-110
2021-09-27 10:55:15.215442,-97
2021-09-27 10:55:15.215449,-117
2021-09-27 10:55:15.215455,-112
2021-09-27 10:55:15.215461,-78
2021-09-27 10:55:15.215467,-88
2021-09-27 10:55:15.215474,-112
2021-09-27 10:55:15.215480,-102
2021-09-27 10:55:15.215486,-97
2021-09-27 10:55:15.215492,-105
2021-09-27 10:55:15.215499,-107
2021-09-27 10:55:15.215505,-107
2021-09-27 10:55:15.215511,-107
2021-09-27 10:55:15.215518,-100
2021-09-27 10:55:15.215524,-110
2021-09-27 10:55:15.215530,-134
2021-09-27 10:55:15.215537,-122
2021-09-27 10:55:15.215543,-83
2021-09-27 10:55:15.215549,-75
2021-09-27 10:55:15.215555,-73
2021-09-27 10:55:15.215562,-41
2021-09-27 10:55:15.215568,-46
2021-09-27 10:55:15.215574,-80
2021-09-27 10:55:15.215580,-73
2021-09-27 10:55:15.485391,-56
2021-09-27 10:55:15.485414,-75
2021-09-27 10:55:15.485422,-95
2021-09-27 10:55:15.485428,-90
2021-09-27 10:55:15.485435,-78
2021-09-27 10:55:15.485441,-68
2021-09-27 10:55:15.485447,-61
2021-09-27 10:55:15.485453,-68
2021-09-27 10:55:15.485459,-122
2021-09-27 10:55:15.485465,-200
2021-09-27 10:55:15.485472,-149
2021-09-27 10:55:15.485478,322
2021-09-27 10:55:15.485484,1230
2021-09-27 10:55:15.485490,2100
2021-09-27 10:55:15.485497,2076
2021-09-27 10:55:15.485503,496
2021-09-27 10:55:15.485509,-1066
2021-09-27 10:55:15.485515,-775
2021-09-27 10:55:15.485522,-83
2021-09-27 10:55:15.485528,-266
2021-09-27 10:55:15.485534,-337
2021-09-27 10:55:15.485540,-90
2021-09-27 10:55:15.485547,-61
2021-09-27 10:55:15.485553,-124
2021-09-27 10:55:15.485559,-85
2021-09-27 10:55:15.485565,-56
2021-09-27 10:55:15.485571,-68
2021-09-27 10:55:15.485578,-56
2021-09-27 10:55:15.485584,-4
2021-09-27 10:55:15.485590,31
2021-09-27 10:55:15.708706,39
2021-09-27 10:55:15.708729,63
2021-09-27 10:55:15.708736,95
2021-09-27 10:55:15.708743,107
2021-09-27 10:55:15.708749,151
2021-09-27 10:55:15.708756,193
2021-09-27 10:55:15.708762,171
2021-09-27 10:55:15.708768,180
2021-09-27 10:55:15.708775,266
2021-09-27 10:55:15.708781,342
2021-09-27 10:55:15.708788,383
2021-09-27 10:55:15.708794,445
2021-09-27 10:55:15.708800,503
2021-09-27 10:55:15.708806,535
2021-09-27 10:55:15.708813,572
2021-09-27 10:55:15.708819,616
2021-09-27 10:55:15.708825,618
2021-09-27 10:55:15.708831,569
2021-09-27 10:55:15.708838,479
2021-09-27 10:55:15.708844,337
2021-09-27 10:55:15.708850,139
2021-09-27 10:55:15.708857,-41
2021-09-27 10:55:15.708863,-158
2021-09-27 10:55:15.708869,-244
2021-09-27 10:55:15.708876,-317
2021-09-27 10:55:15.708882,-364
2021-09-27 10:55:15.708888,-376
2021-09-27 10:55:15.708895,-386
2021-09-27 10:55:15.708901,-381
2021-09-27 10:55:15.708907,-352
2021-09-27 10:55:15.890454,-339
2021-09-27 10:55:15.890486,-317
2021-09-27 10:55:15.890498,-281
2021-09-27 10:55:15.890508,-281
2021-09-27 10:55:15.890518,-281
2021-09-27 10:55:15.890528,-261
2021-09-27 10:55:15.890537,-266
2021-09-27 10:55:15.890547,-273
2021-09-27 10:55:15.890557,-244
2021-09-27 10:55:15.890566,-200
2021-09-27 10:55:15.890576,-198
2021-09-27 10:55:15.890586,-224
2021-09-27 10:55:15.890595,-210
2021-09-27 10:55:15.890605,-154
2021-09-27 10:55:15.890614,-144
2021-09-27 10:55:15.890624,-180
2021-09-27 10:55:15.890634,-185
2021-09-27 10:55:15.890643,-158
2021-09-27 10:55:15.890653,-156
2021-09-27 10:55:15.890663,-158
2021-09-27 10:55:15.890673,-136
2021-09-27 10:55:15.890682,-136
2021-09-27 10:55:15.890692,-156
2021-09-27 10:55:15.890702,-141
2021-09-27 10:55:15.890711,-102
2021-09-27 10:55:15.890721,-85
2021-09-27 10:55:15.890731,-112
2021-09-27 10:55:15.890740,-151
2021-09-27 10:55:15.890750,-139
2021-09-27 10:55:15.890760,-119
2021-09-27 10:55:16.158952,-119
2021-09-27 10:55:16.158967,-102
2021-09-27 10:55:16.158973,-92
2021-09-27 10:55:16.158977,-107
2021-09-27 10:55:16.158982,-107
2021-09-27 10:55:16.158986,-100
2021-09-27 10:55:16.158991,-105
2021-09-27 10:55:16.158995,-100
2021-09-27 10:55:16.158999,-83
2021-09-27 10:55:16.159004,-75
2021-09-27 10:55:16.159008,-70
2021-09-27 10:55:16.159012,-92
2021-09-27 10:55:16.159017,-124
2021-09-27 10:55:16.159021,-117
2021-09-27 10:55:16.159026,-90
2021-09-27 10:55:16.159032,-73
2021-09-27 10:55:16.159036,-56
2021-09-27 10:55:16.159041,-51
2021-09-27 10:55:16.159045,-51
2021-09-27 10:55:16.159049,-41
2021-09-27 10:55:16.159054,-31
2021-09-27 10:55:16.159058,-48
2021-09-27 10:55:16.159062,-80
2021-09-27 10:55:16.159067,-107
2021-09-27 10:55:16.159071,-107
2021-09-27 10:55:16.159076,-90
2021-09-27 10:55:16.159080,-100
2021-09-27 10:55:16.159084,-127
2021-09-27 10:55:16.159089,-132
2021-09-27 10:55:16.159093,-114
2021-09-27 10:55:16.340393,-141
2021-09-27 10:55:16.340415,-215
2021-09-27 10:55:16.340423,-78
2021-09-27 10:55:16.340429,557
2021-09-27 10:55:16.340436,1545
2021-09-27 10:55:16.340442,2262
2021-09-27 10:55:16.340449,1733
2021-09-27 10:55:16.340455,-119
2021-09-27 10:55:16.340461,-1183
2021-09-27 10:55:16.340480,-552
2021-09-27 10:55:16.340488,-146
2021-09-27 10:55:16.340495,-374
2021-09-27 10:55:16.340501,-244
2021-09-27 10:55:16.340508,-41
2021-09-27 10:55:16.340514,-119
2021-09-27 10:55:16.340520,-151
2021-09-27 10:55:16.340527,-68
2021-09-27 10:55:16.340533,-44
2021-09-27 10:55:16.340539,-46
2021-09-27 10:55:16.340546,-19
2021-09-27 10:55:16.340556,14
2021-09-27 10:55:16.340562,17
2021-09-27 10:55:16.340569,19
2021-09-27 10:55:16.340575,78
2021-09-27 10:55:16.340581,107
2021-09-27 10:55:16.340588,90
2021-09-27 10:55:16.340594,132
2021-09-27 10:55:16.340600,200
2021-09-27 10:55:16.340606,229
2021-09-27 10:55:16.340613,269
2021-09-27 10:55:16.610374,339
2021-09-27 10:55:16.610405,388
2021-09-27 10:55:16.610417,405
2021-09-27 10:55:16.610427,449
2021-09-27 10:55:16.610437,513
2021-09-27 10:55:16.610447,569
2021-09-27 10:55:16.610457,616
2021-09-27 10:55:16.610466,640
2021-09-27 10:55:16.610476,623
2021-09-27 10:55:16.610486,569
2021-09-27 10:55:16.610496,447
2021-09-27 10:55:16.610505,286
2021-09-27 10:55:16.610515,156
2021-09-27 10:55:16.610525,7
2021-09-27 10:55:16.610534,-176
2021-09-27 10:55:16.610544,-269
2021-09-27 10:55:16.610554,-298
2021-09-27 10:55:16.610564,-357
2021-09-27 10:55:16.610573,-388
2021-09-27 10:55:16.610583,-361
2021-09-27 10:55:16.610593,-337
2021-09-27 10:55:16.610603,-337
2021-09-27 10:55:16.610612,-352
2021-09-27 10:55:16.610622,-339
2021-09-27 10:55:16.610632,-298
2021-09-27 10:55:16.610641,-276
2021-09-27 10:55:16.610651,-269
2021-09-27 10:55:16.610661,-264
2021-09-27 10:55:16.610671,-229
2021-09-27 10:55:16.610681,-202
2021-09-27 10:55:16.835456,-220
2021-09-27 10:55:16.835488,-224
2021-09-27 10:55:16.835499,-210
2021-09-27 10:55:16.835509,-215
2021-09-27 10:55:16.835519,-195
2021-09-27 10:55:16.835529,-163
2021-09-27 10:55:16.835538,-185
2021-09-27 10:55:16.835548,-190
2021-09-27 10:55:16.835557,-146
2021-09-27 10:55:16.835567,-146
2021-09-27 10:55:16.835577,-171
2021-09-27 10:55:16.835586,-151
2021-09-27 10:55:16.835596,-158
2021-09-27 10:55:16.835606,-183
2021-09-27 10:55:16.835615,-154
2021-09-27 10:55:16.835625,-134
2021-09-27 10:55:16.835635,-146
2021-09-27 10:55:16.835644,-139
2021-09-27 10:55:16.835654,-114
2021-09-27 10:55:16.835664,-114
2021-09-27 10:55:16.835673,-127
2021-09-27 10:55:16.835683,-117
2021-09-27 10:55:16.835692,-117
2021-09-27 10:55:16.835702,-132
2021-09-27 10:55:16.835712,-114
2021-09-27 10:55:16.835721,-90
2021-09-27 10:55:16.835731,-112
2021-09-27 10:55:16.835741,-114
2021-09-27 10:55:16.835750,-75
2021-09-27 10:55:16.835760,-80
2021-09-27 10:55:17.060301,-110
2021-09-27 10:55:17.060333,-80
2021-09-27 10:55:17.060345,-56
2021-09-27 10:55:17.060355,-61
2021-09-27 10:55:17.060365,-58
2021-09-27 10:55:17.060375,-66
2021-09-27 10:55:17.060385,-48
2021-09-27 10:55:17.060394,-51
2021-09-27 10:55:17.060404,-92
2021-09-27 10:55:17.060414,-88
2021-09-27 10:55:17.060424,-63
2021-09-27 10:55:17.060434,-70
2021-09-27 10:55:17.060443,-85
2021-09-27 10:55:17.060453,-110
2021-09-27 10:55:17.060463,-114
2021-09-27 10:55:17.060473,-75
2021-09-27 10:55:17.060483,-73
2021-09-27 10:55:17.060492,-117
2021-09-27 10:55:17.060502,-122
2021-09-27 10:55:17.060512,-149
2021-09-27 10:55:17.060522,-207
2021-09-27 10:55:17.060532,51
2021-09-27 10:55:17.060542,836
2021-09-27 10:55:17.060552,1797
2021-09-27 10:55:17.060561,2281
2021-09-27 10:55:17.060571,1340
2021-09-27 10:55:17.060581,-552
2021-09-27 10:55:17.060591,-1058
2021-09-27 10:55:17.060601,-261
2021-09-27 10:55:17.060611,-136
2021-09-27 10:55:17.330322,-354
2021-09-27 10:55:17.330354,-136
2021-09-27 10:55:17.330366,-17
2021-09-27 10:55:17.330376,-107
2021-09-27 10:55:17.330386,-85
2021-09-27 10:55:17.330396,-36
2021-09-27 10:55:17.330405,-51
2021-09-27 10:55:17.330415,-44
2021-09-27 10:55:17.330425,-19
2021-09-27 10:55:17.330434,-19
2021-09-27 10:55:17.330444,-12
2021-09-27 10:55:17.330454,31
2021-09-27 10:55:17.330464,61
2021-09-27 10:55:17.330473,66
2021-09-27 10:55:17.330483,100
2021-09-27 10:55:17.330493,144
2021-09-27 10:55:17.330502,173
2021-09-27 10:55:17.330512,222
2021-09-27 10:55:17.330522,264
2021-09-27 10:55:17.330532,295
2021-09-27 10:55:17.330541,364
2021-09-27 10:55:17.330551,423
2021-09-27 10:55:17.330561,457
2021-09-27 10:55:17.330570,528
2021-09-27 10:55:17.330580,586
2021-09-27 10:55:17.330589,604
2021-09-27 10:55:17.330599,623
2021-09-27 10:55:17.330609,601
2021-09-27 10:55:17.330618,515
2021-09-27 10:55:17.330628,425
2021-09-27 10:55:17.510458,298
2021-09-27 10:55:17.510491,88
2021-09-27 10:55:17.510502,-112
2021-09-27 10:55:17.510513,-212
2021-09-27 10:55:17.510522,-261
2021-09-27 10:55:17.510532,-303
2021-09-27 10:55:17.510542,-339
2021-09-27 10:55:17.510551,-364
2021-09-27 10:55:17.510561,-359
2021-09-27 10:55:17.510571,-339
2021-09-27 10:55:17.510580,-325
2021-09-27 10:55:17.510590,-303
2021-09-27 10:55:17.510600,-286
2021-09-27 10:55:17.510609,-286
2021-09-27 10:55:17.510619,-266
2021-09-27 10:55:17.510629,-259
2021-09-27 10:55:17.510638,-269
2021-09-27 10:55:17.510648,-242
2021-09-27 10:55:17.510658,-217
2021-09-27 10:55:17.510667,-232
2021-09-27 10:55:17.510677,-220
2021-09-27 10:55:17.510687,-178
2021-09-27 10:55:17.510697,-156
2021-09-27 10:55:17.510706,-154
2021-09-27 10:55:17.510716,-146
2021-09-27 10:55:17.510726,-139
2021-09-27 10:55:17.510735,-144
2021-09-27 10:55:17.510745,-166
2021-09-27 10:55:17.510755,-168
2021-09-27 10:55:17.510764,-146
2021-09-27 10:55:17.868993,-127
2021-09-27 10:55:17.869018,-129
2021-09-27 10:55:17.869025,-127
2021-09-27 10:55:17.869064,-110
2021-09-27 10:55:17.869070,-112
2021-09-27 10:55:17.869077,-127
2021-09-27 10:55:17.869083,-134
2021-09-27 10:55:17.869089,-136
2021-09-27 10:55:17.869096,-129
2021-09-27 10:55:17.869102,-132
2021-09-27 10:55:17.869108,-122
2021-09-27 10:55:17.869114,-105
2021-09-27 10:55:17.869120,-90
2021-09-27 10:55:17.869127,-80
2021-09-27 10:55:17.869133,-119
2021-09-27 10:55:17.869139,-171
2021-09-27 10:55:17.869145,-136
2021-09-27 10:55:17.869152,-95
2021-09-27 10:55:17.869158,-110
2021-09-27 10:55:17.869164,-122
2021-09-27 10:55:17.869170,-107
2021-09-27 10:55:17.869177,-105
2021-09-27 10:55:17.869183,-95
2021-09-27 10:55:17.869189,-58
2021-09-27 10:55:17.869195,-46
2021-09-27 10:55:17.869202,-90
2021-09-27 10:55:17.869208,-100
2021-09-27 10:55:17.869214,-58
2021-09-27 10:55:17.869220,-61
2021-09-27 10:55:17.869227,-100
2021-09-27 10:55:17.960453,-85
2021-09-27 10:55:17.960487,-51
2021-09-27 10:55:17.960499,-58
2021-09-27 10:55:17.960509,-66
2021-09-27 10:55:17.960519,-80
2021-09-27 10:55:17.960528,-112
2021-09-27 10:55:17.960538,-122
2021-09-27 10:55:17.960548,-100
2021-09-27 10:55:17.960557,-90
2021-09-27 10:55:17.960567,-80
2021-09-27 10:55:17.960577,-73
2021-09-27 10:55:17.960586,-95
2021-09-27 10:55:17.960596,-158
2021-09-27 10:55:17.960605,-136
2021-09-27 10:55:17.960615,291
2021-09-27 10:55:17.960625,1188
2021-09-27 10:55:17.960634,2056
2021-09-27 10:55:17.960644,2051
2021-09-27 10:55:17.960654,582
2021-09-27 10:55:17.960663,-936
2021-09-27 10:55:17.960673,-721
2021-09-27 10:55:17.960682,-83
2021-09-27 10:55:17.960692,-256
2021-09-27 10:55:17.960702,-308
2021-09-27 10:55:17.960711,-66
2021-09-27 10:55:17.960721,-78
2021-09-27 10:55:17.960730,-146
2021-09-27 10:55:17.960740,-63
2021-09-27 10:55:17.960750,-17
2021-09-27 10:55:17.960759,-29
2021-09-27 10:55:18.185400,9
2021-09-27 10:55:18.185426,51
2021-09-27 10:55:18.185433,4
2021-09-27 10:55:18.185440,-24
2021-09-27 10:55:18.185446,48
2021-09-27 10:55:18.185452,97
2021-09-27 10:55:18.185459,97
2021-09-27 10:55:18.185465,127
2021-09-27 10:55:18.185471,178
2021-09-27 10:55:18.185477,229
2021-09-27 10:55:18.185483,254
2021-09-27 10:55:18.185490,239
2021-09-27 10:55:18.185496,266
2021-09-27 10:55:18.185502,357
2021-09-27 10:55:18.185508,430
2021-09-27 10:55:18.185514,486
2021-09-27 10:55:18.185521,530
2021-09-27 10:55:18.185527,552
2021-09-27 10:55:18.185533,582
2021-09-27 10:55:18.185539,599
2021-09-27 10:55:18.185545,520
2021-09-27 10:55:18.185552,398
2021-09-27 10:55:18.185558,313
2021-09-27 10:55:18.185564,195
2021-09-27 10:55:18.185570,44
2021-09-27 10:55:18.185577,-78
2021-09-27 10:55:18.185583,-207
2021-09-27 10:55:18.185589,-322
2021-09-27 10:55:18.185595,-342
2021-09-27 10:55:18.185602,-310
2021-09-27 10:55:18.454777,-339
2021-09-27 10:55:18.454799,-381
2021-09-27 10:55:18.454807,-337
2021-09-27 10:55:18.454814,-283
2021-09-27 10:55:18.454820,-298
2021-09-27 10:55:18.454827,-295
2021-09-27 10:55:18.454833,-273
2021-09-27 10:55:18.454839,-283
2021-09-27 10:55:18.454846,-254
2021-09-27 10:55:18.454852,-212
2021-09-27 10:55:18.454858,-237
2021-09-27 10:55:18.454864,-249
2021-09-27 10:55:18.454871,-207
2021-09-27 10:55:18.454877,-168
2021-09-27 10:55:18.454883,-168
2021-09-27 10:55:18.454890,-195
2021-09-27 10:55:18.454896,-185
2021-09-27 10:55:18.454902,-139
2021-09-27 10:55:18.454909,-141
2021-09-27 10:55:18.454915,-183
2021-09-27 10:55:18.454921,-168
2021-09-27 10:55:18.454928,-134
2021-09-27 10:55:18.454934,-163
2021-09-27 10:55:18.454940,-188
2021-09-27 10:55:18.454946,-146
2021-09-27 10:55:18.454953,-112
2021-09-27 10:55:18.454959,-112
2021-09-27 10:55:18.454965,-124
2021-09-27 10:55:18.454972,-146
2021-09-27 10:55:18.454978,-144
2021-09-27 10:55:18.680423,-105
2021-09-27 10:55:18.680448,-73
2021-09-27 10:55:18.680455,-92
2021-09-27 10:55:18.680462,-127
2021-09-27 10:55:18.680468,-110
2021-09-27 10:55:18.680475,-92
2021-09-27 10:55:18.680481,-122
2021-09-27 10:55:18.680506,-122
2021-09-27 10:55:18.680513,-83
2021-09-27 10:55:18.680519,-80
2021-09-27 10:55:18.680526,-102
2021-09-27 10:55:18.680532,-80
2021-09-27 10:55:18.680538,-53
2021-09-27 10:55:18.680545,-97
2021-09-27 10:55:18.680551,-132
2021-09-27 10:55:18.680557,-102
2021-09-27 10:55:18.680564,-88
2021-09-27 10:55:18.680570,-85
2021-09-27 10:55:18.680576,-68
2021-09-27 10:55:18.680582,-73
2021-09-27 10:55:18.680589,-117
2021-09-27 10:55:18.680595,-114
2021-09-27 10:55:18.680601,-41
2021-09-27 10:55:18.680608,-26
2021-09-27 10:55:18.680614,-85
2021-09-27 10:55:18.680620,-127
2021-09-27 10:55:18.680627,-139
2021-09-27 10:55:18.680633,-132
2021-09-27 10:55:18.680639,-107
2021-09-27 10:55:18.680646,-80
2021-09-27 10:55:18.905439,-70
2021-09-27 10:55:18.905471,-63
2021-09-27 10:55:18.905483,-85
2021-09-27 10:55:18.905493,-188
2021-09-27 10:55:18.905503,-117
2021-09-27 10:55:18.905513,508
2021-09-27 10:55:18.905522,1481
2021-09-27 10:55:18.905532,2171
2021-09-27 10:55:18.905541,1684
2021-09-27 10:55:18.905551,-83
2021-09-27 10:55:18.905561,-1073
2021-09-27 10:55:18.905570,-430
2021-09-27 10:55:18.905580,-78
2021-09-27 10:55:18.905590,-357
2021-09-27 10:55:18.905599,-234
2021-09-27 10:55:18.905609,-41
2021-09-27 10:55:18.905619,-119
2021-09-27 10:55:18.905628,-139
2021-09-27 10:55:18.905638,-80
2021-09-27 10:55:18.905647,-83
2021-09-27 10:55:18.905657,-44
2021-09-27 10:55:18.905667,29
2021-09-27 10:55:18.905677,34
2021-09-27 10:55:18.905686,24
2021-09-27 10:55:18.905696,36
2021-09-27 10:55:18.905706,44
2021-09-27 10:55:18.905715,95
2021-09-27 10:55:18.905725,149
2021-09-27 10:55:18.905734,134
2021-09-27 10:55:18.905744,122
2021-09-27 10:55:19.130430,180
2021-09-27 10:55:19.130461,266
2021-09-27 10:55:19.130473,305
2021-09-27 10:55:19.130484,337
2021-09-27 10:55:19.130494,403
2021-09-27 10:55:19.130504,462
2021-09-27 10:55:19.130514,518
2021-09-27 10:55:19.130523,569
2021-09-27 10:55:19.130533,591
2021-09-27 10:55:19.130543,608
2021-09-27 10:55:19.130567,584
2021-09-27 10:55:19.130578,498
2021-09-27 10:55:19.130588,415
2021-09-27 10:55:19.130598,295
2021-09-27 10:55:19.130608,105
2021-09-27 10:55:19.130618,-58
2021-09-27 10:55:19.130628,-154
2021-09-27 10:55:19.130637,-227
2021-09-27 10:55:19.130647,-251
2021-09-27 10:55:19.130657,-261
2021-09-27 10:55:19.130667,-359
2021-09-27 10:55:19.130677,-427
2021-09-27 10:55:19.130687,-364
2021-09-27 10:55:19.130696,-327
2021-09-27 10:55:19.130706,-344
2021-09-27 10:55:19.130716,-317
2021-09-27 10:55:19.130726,-281
2021-09-27 10:55:19.130740,-271
2021-09-27 10:55:19.130751,-242
2021-09-27 10:55:19.130761,-195
2021-09-27 10:55:19.355469,-193
2021-09-27 10:55:19.355501,-232
2021-09-27 10:55:19.355513,-244
2021-09-27 10:55:19.355523,-207
2021-09-27 10:55:19.355533,-190
2021-09-27 10:55:19.355542,-217
2021-09-27 10:55:19.355552,-220
2021-09-27 10:55:19.355562,-195
2021-09-27 10:55:19.355571,-183
2021-09-27 10:55:19.355581,-168
2021-09-27 10:55:19.355591,-134
2021-09-27 10:55:19.355601,-92
2021-09-27 10:55:19.355610,-139
2021-09-27 10:55:19.355620,-251
2021-09-27 10:55:19.355630,-222
2021-09-27 10:55:19.355639,-127
2021-09-27 10:55:19.355649,-141
2021-09-27 10:55:19.355659,-166
2021-09-27 10:55:19.355669,-141
2021-09-27 10:55:19.355678,-129
2021-09-27 10:55:19.355688,-102
2021-09-27 10:55:19.355698,-78
2021-09-27 10:55:19.355707,-132
2021-09-27 10:55:19.355717,-168
2021-09-27 10:55:19.355727,-132
2021-09-27 10:55:19.355736,-127
2021-09-27 10:55:19.355746,-141
2021-09-27 10:55:19.355756,-114
2021-09-27 10:55:19.355766,-85
2021-09-27 10:55:19.355775,-70
2021-09-27 10:55:19.580158,-78
2021-09-27 10:55:19.580189,-132
2021-09-27 10:55:19.580200,-144
2021-09-27 10:55:19.580209,-73
2021-09-27 10:55:19.580218,-61
2021-09-27 10:55:19.580227,-117
2021-09-27 10:55:19.580236,-134
2021-09-27 10:55:19.580246,-102
2021-09-27 10:55:19.580254,-66
2021-09-27 10:55:19.580262,-48
2021-09-27 10:55:19.580270,-88
2021-09-27 10:55:19.580279,-141
2021-09-27 10:55:19.580288,-114
2021-09-27 10:55:19.580297,-68
2021-09-27 10:55:19.580305,-58
2021-09-27 10:55:19.580314,-53
2021-09-27 10:55:19.580322,-63
2021-09-27 10:55:19.580331,-105
2021-09-27 10:55:19.580339,-129
2021-09-27 10:55:19.580348,-102
2021-09-27 10:55:19.580357,-75
2021-09-27 10:55:19.580365,-80
2021-09-27 10:55:19.580374,-90
2021-09-27 10:55:19.580382,-83
2021-09-27 10:55:19.580391,-75
2021-09-27 10:55:19.580399,-136
2021-09-27 10:55:19.580408,-156
2021-09-27 10:55:19.580417,220
2021-09-27 10:55:19.580426,1076
2021-09-27 10:55:19.580435,1995
2021-09-27 10:55:19.849103,2139
2021-09-27 10:55:19.849167,709
2021-09-27 10:55:19.849175,-963
2021-09-27 10:55:19.849182,-841
2021-09-27 10:55:19.849188,-102
2021-09-27 10:55:19.849195,-217
2021-09-27 10:55:19.849201,-315
2021-09-27 10:55:19.849208,-110
2021-09-27 10:55:19.849214,-119
2021-09-27 10:55:19.849220,-158
2021-09-27 10:55:19.849227,-75
2021-09-27 10:55:19.849233,-68
2021-09-27 10:55:19.849239,-88
2021-09-27 10:55:19.849245,-31
2021-09-27 10:55:19.849252,22
2021-09-27 10:55:19.849258,24
2021-09-27 10:55:19.849264,19
2021-09-27 10:55:19.849271,34
2021-09-27 10:55:19.849277,63
2021-09-27 10:55:19.849283,95
2021-09-27 10:55:19.849289,132
2021-09-27 10:55:19.849296,173
2021-09-27 10:55:19.849302,202
2021-09-27 10:55:19.849308,242
2021-09-27 10:55:19.849315,303
2021-09-27 10:55:19.849321,357
2021-09-27 10:55:19.849327,393
2021-09-27 10:55:19.849333,447
2021-09-27 10:55:19.849340,528
2021-09-27 10:55:19.849346,567
2021-09-27 10:55:20.030455,562
2021-09-27 10:55:20.030489,589
2021-09-27 10:55:20.030500,611
2021-09-27 10:55:20.030510,586
2021-09-27 10:55:20.030520,508
2021-09-27 10:55:20.030530,352
2021-09-27 10:55:20.030540,168
2021-09-27 10:55:20.030550,29
2021-09-27 10:55:20.030559,-88
2021-09-27 10:55:20.030569,-207
2021-09-27 10:55:20.030579,-300
2021-09-27 10:55:20.030589,-357
2021-09-27 10:55:20.030599,-364
2021-09-27 10:55:20.030609,-352
2021-09-27 10:55:20.030618,-381
2021-09-27 10:55:20.030628,-386
2021-09-27 10:55:20.030638,-322
2021-09-27 10:55:20.030648,-288
2021-09-27 10:55:20.030658,-300
2021-09-27 10:55:20.030667,-286
2021-09-27 10:55:20.030677,-266
2021-09-27 10:55:20.030687,-269
2021-09-27 10:55:20.030696,-266
2021-09-27 10:55:20.030706,-232
2021-09-27 10:55:20.030716,-178
2021-09-27 10:55:20.030726,-166
2021-09-27 10:55:20.030735,-178
2021-09-27 10:55:20.030745,-161
2021-09-27 10:55:20.030755,-156
2021-09-27 10:55:20.030765,-171
2021-09-27 10:55:20.255453,-161
2021-09-27 10:55:20.255485,-151
2021-09-27 10:55:20.255497,-166
2021-09-27 10:55:20.255507,-195
2021-09-27 10:55:20.255517,-202
2021-09-27 10:55:20.255527,-146
2021-09-27 10:55:20.255537,-95
2021-09-27 10:55:20.255547,-127
2021-09-27 10:55:20.255556,-163
2021-09-27 10:55:20.255566,-141
2021-09-27 10:55:20.255591,-132
2021-09-27 10:55:20.255601,-139
2021-09-27 10:55:20.255611,-119
2021-09-27 10:55:20.255621,-136
2021-09-27 10:55:20.255631,-180
2021-09-27 10:55:20.255641,-176
2021-09-27 10:55:20.255650,-154
2021-09-27 10:55:20.255660,-134
2021-09-27 10:55:20.255670,-102
2021-09-27 10:55:20.255680,-95
2021-09-27 10:55:20.255689,-97
2021-09-27 10:55:20.255699,-80
2021-09-27 10:55:20.255709,-75
2021-09-27 10:55:20.255718,-95
2021-09-27 10:55:20.255728,-97
2021-09-27 10:55:20.255738,-88
2021-09-27 10:55:20.255748,-136
2021-09-27 10:55:20.255757,-151
2021-09-27 10:55:20.255767,-85
2021-09-27 10:55:20.255777,-73
2021-09-27 10:55:20.615472,-102
2021-09-27 10:55:20.615504,-80
2021-09-27 10:55:20.615516,-68
2021-09-27 10:55:20.615526,-78
2021-09-27 10:55:20.615536,-61
2021-09-27 10:55:20.615546,-44
2021-09-27 10:55:20.615556,-73
2021-09-27 10:55:20.615566,-97
2021-09-27 10:55:20.615576,-100
2021-09-27 10:55:20.615585,-112
2021-09-27 10:55:20.615595,-129
2021-09-27 10:55:20.615605,-110
2021-09-27 10:55:20.615615,-66
2021-09-27 10:55:20.615624,-44
2021-09-27 10:55:20.615634,-68
2021-09-27 10:55:20.615644,-97
2021-09-27 10:55:20.615654,-119
2021-09-27 10:55:20.615664,-190
2021-09-27 10:55:20.615674,-85
2021-09-27 10:55:20.615684,591
2021-09-27 10:55:20.615694,1616
2021-09-27 10:55:20.615703,2249
2021-09-27 10:55:20.615713,1645
2021-09-27 10:55:20.615723,-141
2021-09-27 10:55:20.615733,-1078
2021-09-27 10:55:20.615743,-405
2021-09-27 10:55:20.615753,-41
2021-09-27 10:55:20.615763,-322
2021-09-27 10:55:20.615773,-210
2021-09-27 10:55:20.615783,-7
2021-09-27 10:55:20.750390,-92
2021-09-27 10:55:20.750412,-114
2021-09-27 10:55:20.750420,-7
2021-09-27 10:55:20.750426,0
2021-09-27 10:55:20.750433,-31
2021-09-27 10:55:20.750439,-2
2021-09-27 10:55:20.750445,26
2021-09-27 10:55:20.750451,29
2021-09-27 10:55:20.750457,24
2021-09-27 10:55:20.750464,44
2021-09-27 10:55:20.750470,95
2021-09-27 10:55:20.750476,134
2021-09-27 10:55:20.750482,158
2021-09-27 10:55:20.750489,205
2021-09-27 10:55:20.750495,246
2021-09-27 10:55:20.750501,256
2021-09-27 10:55:20.750508,278
2021-09-27 10:55:20.750514,337
2021-09-27 10:55:20.750520,418
2021-09-27 10:55:20.750526,493
2021-09-27 10:55:20.750532,515
2021-09-27 10:55:20.750539,508
2021-09-27 10:55:20.750545,560
2021-09-27 10:55:20.750551,589
2021-09-27 10:55:20.750557,535
2021-09-27 10:55:20.750563,550
2021-09-27 10:55:20.750570,523
2021-09-27 10:55:20.750576,300
2021-09-27 10:55:20.750582,95
2021-09-27 10:55:20.750588,-9
2021-09-27 10:55:21.020472,-136
2021-09-27 10:55:21.020503,-251
2021-09-27 10:55:21.020515,-293
2021-09-27 10:55:21.020525,-320
2021-09-27 10:55:21.020535,-361
2021-09-27 10:55:21.020545,-376
2021-09-27 10:55:21.020555,-347
2021-09-27 10:55:21.020565,-310
2021-09-27 10:55:21.020574,-313
2021-09-27 10:55:21.020584,-322
2021-09-27 10:55:21.020594,-305
2021-09-27 10:55:21.020604,-281
2021-09-27 10:55:21.020614,-261
2021-09-27 10:55:21.020624,-244
2021-09-27 10:55:21.020633,-232
2021-09-27 10:55:21.020643,-232
2021-09-27 10:55:21.020653,-232
2021-09-27 10:55:21.020663,-198
2021-09-27 10:55:21.020673,-161
2021-09-27 10:55:21.020683,-171
2021-09-27 10:55:21.020693,-176
2021-09-27 10:55:21.020703,-158
2021-09-27 10:55:21.020713,-178
2021-09-27 10:55:21.020722,-198
2021-09-27 10:55:21.020732,-163
2021-09-27 10:55:21.020742,-122
2021-09-27 10:55:21.020752,-139
2021-09-27 10:55:21.020761,-163
2021-09-27 10:55:21.020771,-139
2021-09-27 10:55:21.020781,-112
2021-09-27 10:55:21.290422,-122
2021-09-27 10:55:21.290445,-127
2021-09-27 10:55:21.290452,-107
2021-09-27 10:55:21.290459,-97
2021-09-27 10:55:21.290465,-122
2021-09-27 10:55:21.290471,-119
2021-09-27 10:55:21.290478,-78
2021-09-27 10:55:21.290484,-78
2021-09-27 10:55:21.290490,-107
2021-09-27 10:55:21.290496,-105
2021-09-27 10:55:21.290503,-107
2021-09-27 10:55:21.290509,-114
2021-09-27 10:55:21.290515,-97
2021-09-27 10:55:21.290521,-95
2021-09-27 10:55:21.290528,-105
2021-09-27 10:55:21.290534,-97
2021-09-27 10:55:21.290540,-97
2021-09-27 10:55:21.290546,-102
2021-09-27 10:55:21.290552,-88
2021-09-27 10:55:21.290558,-83
2021-09-27 10:55:21.290565,-107
2021-09-27 10:55:21.290571,-100
2021-09-27 10:55:21.290577,-73
2021-09-27 10:55:21.290583,-73
2021-09-27 10:55:21.290589,-75
2021-09-27 10:55:21.290596,-73
2021-09-27 10:55:21.290602,-88
2021-09-27 10:55:21.290608,-88
2021-09-27 10:55:21.290614,-70
2021-09-27 10:55:21.290620,-70
2021-09-27 10:55:21.470491,-88
2021-09-27 10:55:21.470523,-97
2021-09-27 10:55:21.470534,-88
2021-09-27 10:55:21.470544,-75
2021-09-27 10:55:21.470554,-90
2021-09-27 10:55:21.470563,-97
2021-09-27 10:55:21.470573,-83
2021-09-27 10:55:21.470583,-85
2021-09-27 10:55:21.470592,-112
2021-09-27 10:55:21.470602,-173
2021-09-27 10:55:21.470612,-134
2021-09-27 10:55:21.470622,332
2021-09-27 10:55:21.470631,1217
2021-09-27 10:55:21.470641,2046
2021-09-27 10:55:21.470650,2024
2021-09-27 10:55:21.470660,484
2021-09-27 10:55:21.470670,-1041
2021-09-27 10:55:21.470679,-740
2021-09-27 10:55:21.470689,-85
2021-09-27 10:55:21.470698,-261
2021-09-27 10:55:21.470708,-276
2021-09-27 10:55:21.470718,-29
2021-09-27 10:55:21.470727,-70
2021-09-27 10:55:21.470737,-149
2021-09-27 10:55:21.470746,-58
2021-09-27 10:55:21.470756,-39
2021-09-27 10:55:21.470766,-90
2021-09-27 10:55:21.470775,-48
2021-09-27 10:55:21.470785,9
2021-09-27 10:55:21.470795,4
2021-09-27 10:55:21.650394,24
2021-09-27 10:55:21.650426,78
2021-09-27 10:55:21.650437,100
2021-09-27 10:55:21.650447,117
2021-09-27 10:55:21.650457,141
2021-09-27 10:55:21.650467,158
2021-09-27 10:55:21.650477,188
2021-09-27 10:55:21.650486,232
2021-09-27 10:55:21.650496,278
2021-09-27 10:55:21.650506,332
2021-09-27 10:55:21.650515,396
2021-09-27 10:55:21.650525,445
2021-09-27 10:55:21.650534,491
2021-09-27 10:55:21.650544,545
2021-09-27 10:55:21.650554,584
2021-09-27 10:55:21.650563,599
2021-09-27 10:55:21.650573,604
2021-09-27 10:55:21.650583,569
2021-09-27 10:55:21.650592,479
2021-09-27 10:55:21.650602,339
2021-09-27 10:55:21.650612,166
2021-09-27 10:55:21.650621,-2
2021-09-27 10:55:21.650631,-136
2021-09-27 10:55:21.650641,-234
2021-09-27 10:55:21.650650,-303
2021-09-27 10:55:21.650660,-339
2021-09-27 10:55:21.650670,-354
2021-09-27 10:55:21.650680,-361
2021-09-27 10:55:21.650689,-366
2021-09-27 10:55:21.650699,-349
2021-09-27 10:55:22.098835,-335
2021-09-27 10:55:22.098857,-337
2021-09-27 10:55:22.098865,-335
2021-09-27 10:55:22.098872,-313
2021-09-27 10:55:22.098878,-308
2021-09-27 10:55:22.098885,-308
2021-09-27 10:55:22.098891,-283
2021-09-27 10:55:22.098897,-251
2021-09-27 10:55:22.098903,-239
2021-09-27 10:55:22.098910,-234
2021-09-27 10:55:22.098916,-224
2021-09-27 10:55:22.098922,-217
2021-09-27 10:55:22.098929,-207
2021-09-27 10:55:22.098935,-202
2021-09-27 10:55:22.098941,-205
2021-09-27 10:55:22.098948,-205
2021-09-27 10:55:22.098954,-198
2021-09-27 10:55:22.098960,-198
2021-09-27 10:55:22.098966,-195
2021-09-27 10:55:22.098973,-183
2021-09-27 10:55:22.098979,-178
2021-09-27 10:55:22.098985,-178
2021-09-27 10:55:22.098992,-173
2021-09-27 10:55:22.098998,-161
2021-09-27 10:55:22.099004,-154
2021-09-27 10:55:22.099010,-154
2021-09-27 10:55:22.099017,-151
2021-09-27 10:55:22.099023,-144
2021-09-27 10:55:22.099029,-139
2021-09-27 10:55:22.099036,-139
2021-09-27 10:55:22.189860,-139
2021-09-27 10:55:22.189893,-134
2021-09-27 10:55:22.189904,-127
2021-09-27 10:55:22.189914,-129
2021-09-27 10:55:22.189924,-129
2021-09-27 10:55:22.189933,-127
2021-09-27 10:55:22.189943,-124
2021-09-27 10:55:22.189953,-122
2021-09-27 10:55:22.189962,-129
2021-09-27 10:55:22.189972,-136
2021-09-27 10:55:22.189981,-132
2021-09-27 10:55:22.189991,-117
2021-09-27 10:55:22.190001,-97
2021-09-27 10:55:22.190088,-92
2021-09-27 10:55:22.190099,-92
2021-09-27 10:55:22.190108,-85
2021-09-27 10:55:22.190118,-90
2021-09-27 10:55:22.190128,-102
2021-09-27 10:55:22.190138,-112
2021-09-27 10:55:22.190148,-117
2021-09-27 10:55:22.190170,-117
2021-09-27 10:55:22.190180,-124
2021-09-27 10:55:22.190190,-127
2021-09-27 10:55:22.190200,-107
2021-09-27 10:55:22.190209,-95
2021-09-27 10:55:22.190219,-100
2021-09-27 10:55:22.190228,-122
2021-09-27 10:55:22.190238,-183
2021-09-27 10:55:22.190248,-158
2021-09-27 10:55:22.190257,269
2021-09-27 10:55:22.370412,1149
2021-09-27 10:55:22.370434,2039
2021-09-27 10:55:22.370442,2115
2021-09-27 10:55:22.370448,623
2021-09-27 10:55:22.370454,-1036
2021-09-27 10:55:22.370461,-853
2021-09-27 10:55:22.370467,-119
2021-09-27 10:55:22.370473,-271
2021-09-27 10:55:22.370480,-359
2021-09-27 10:55:22.370486,-110
2021-09-27 10:55:22.370492,-92
2021-09-27 10:55:22.370498,-149
2021-09-27 10:55:22.370505,-78
2021-09-27 10:55:22.370511,-51
2021-09-27 10:55:22.370517,-70
2021-09-27 10:55:22.370523,-44
2021-09-27 10:55:22.370529,-17
2021-09-27 10:55:22.370536,-9
2021-09-27 10:55:22.370542,7
2021-09-27 10:55:22.370548,31
2021-09-27 10:55:22.370554,53
2021-09-27 10:55:22.370561,80
2021-09-27 10:55:22.370567,117
2021-09-27 10:55:22.370573,161
2021-09-27 10:55:22.370579,195
2021-09-27 10:55:22.370586,229
2021-09-27 10:55:22.370592,283
2021-09-27 10:55:22.370598,342
2021-09-27 10:55:22.370605,391
2021-09-27 10:55:22.370611,449
2021-09-27 10:55:22.595374,515
2021-09-27 10:55:22.595430,564
2021-09-27 10:55:22.595450,591
2021-09-27 10:55:22.595462,611
2021-09-27 10:55:22.595473,616
2021-09-27 10:55:22.595483,586
2021-09-27 10:55:22.595493,515
2021-09-27 10:55:22.595504,374
2021-09-27 10:55:22.595527,144
2021-09-27 10:55:22.595574,-53
2021-09-27 10:55:22.595588,-144
2021-09-27 10:55:22.595600,-224
2021-09-27 10:55:22.595612,-325
2021-09-27 10:55:22.595623,-381
2021-09-27 10:55:22.595635,-403
2021-09-27 10:55:22.595647,-420
2021-09-27 10:55:22.595658,-401
2021-09-27 10:55:22.595669,-364
2021-09-27 10:55:22.595680,-330
2021-09-27 10:55:22.595691,-293
2021-09-27 10:55:22.595702,-305
2021-09-27 10:55:22.595713,-357
2021-09-27 10:55:22.595725,-352
2021-09-27 10:55:22.595736,-264
2021-09-27 10:55:22.595747,-210
2021-09-27 10:55:22.595759,-229
2021-09-27 10:55:22.595792,-207
2021-09-27 10:55:22.595830,-163
2021-09-27 10:55:22.595844,-188
2021-09-27 10:55:22.595855,-222
2021-09-27 10:55:22.864779,-193
2021-09-27 10:55:22.864802,-139
2021-09-27 10:55:22.864810,-127
2021-09-27 10:55:22.864816,-139
2021-09-27 10:55:22.864823,-144
2021-09-27 10:55:22.864829,-127
2021-09-27 10:55:22.864835,-117
2021-09-27 10:55:22.864842,-144
2021-09-27 10:55:22.864848,-156
2021-09-27 10:55:22.864854,-139
2021-09-27 10:55:22.864860,-132
2021-09-27 10:55:22.864867,-124
2021-09-27 10:55:22.864873,-132
2021-09-27 10:55:22.864879,-156
2021-09-27 10:55:22.864886,-151
2021-09-27 10:55:22.864892,-124
2021-09-27 10:55:22.864898,-124
2021-09-27 10:55:22.864904,-122
2021-09-27 10:55:22.864911,-100
2021-09-27 10:55:22.864917,-102
2021-09-27 10:55:22.864923,-119
2021-09-27 10:55:22.864929,-112
2021-09-27 10:55:22.864936,-105
2021-09-27 10:55:22.864942,-102
2021-09-27 10:55:22.864948,-97
2021-09-27 10:55:22.864954,-102
2021-09-27 10:55:22.864961,-105
2021-09-27 10:55:22.864967,-95
2021-09-27 10:55:22.864973,-97
2021-09-27 10:55:22.864979,-92
2021-09-27 10:55:23.045377,-66
2021-09-27 10:55:23.045400,-66
2021-09-27 10:55:23.045407,-80
2021-09-27 10:55:23.045414,-58
2021-09-27 10:55:23.045420,-41
2021-09-27 10:55:23.045426,-56
2021-09-27 10:55:23.045432,-83
2021-09-27 10:55:23.045438,-110
2021-09-27 10:55:23.045445,-110
2021-09-27 10:55:23.045451,-92
2021-09-27 10:55:23.045457,-95
2021-09-27 10:55:23.045463,-97
2021-09-27 10:55:23.045470,-73
2021-09-27 10:55:23.045476,-88
2021-09-27 10:55:23.045482,-198
2021-09-27 10:55:23.045488,-173
2021-09-27 10:55:23.045494,359
2021-09-27 10:55:23.045501,1349
2021-09-27 10:55:23.045507,2244
2021-09-27 10:55:23.045513,2110
2021-09-27 10:55:23.045519,398
2021-09-27 10:55:23.045526,-1058
2021-09-27 10:55:23.045532,-613
2021-09-27 10:55:23.045538,-31
2021-09-27 10:55:23.045545,-313
2021-09-27 10:55:23.045551,-315
2021-09-27 10:55:23.045557,-75
2021-09-27 10:55:23.045563,-127
2021-09-27 10:55:23.045569,-154
2021-09-27 10:55:23.045576,-44
2021-09-27 10:55:23.270450,-48
2021-09-27 10:55:23.270482,-78
2021-09-27 10:55:23.270494,-48
2021-09-27 10:55:23.270504,-39
2021-09-27 10:55:23.270514,-24
2021-09-27 10:55:23.270524,19
2021-09-27 10:55:23.270534,56
2021-09-27 10:55:23.270543,68
2021-09-27 10:55:23.270553,80
2021-09-27 10:55:23.270563,127
2021-09-27 10:55:23.270573,168
2021-09-27 10:55:23.270582,171
2021-09-27 10:55:23.270592,180
2021-09-27 10:55:23.270602,254
2021-09-27 10:55:23.270611,349
2021-09-27 10:55:23.270621,383
2021-09-27 10:55:23.270631,410
2021-09-27 10:55:23.270640,496
2021-09-27 10:55:23.270650,547
2021-09-27 10:55:23.270660,550
2021-09-27 10:55:23.270670,564
2021-09-27 10:55:23.270680,577
2021-09-27 10:55:23.270689,547
2021-09-27 10:55:23.270699,457
2021-09-27 10:55:23.270709,288
2021-09-27 10:55:23.270718,97
2021-09-27 10:55:23.270728,-63
2021-09-27 10:55:23.270738,-195
2021-09-27 10:55:23.270747,-273
2021-09-27 10:55:23.270757,-313
2021-09-27 10:55:23.495498,-354
2021-09-27 10:55:23.495529,-369
2021-09-27 10:55:23.495541,-352
2021-09-27 10:55:23.495551,-361
2021-09-27 10:55:23.495561,-374
2021-09-27 10:55:23.495571,-339
2021-09-27 10:55:23.495581,-313
2021-09-27 10:55:23.495590,-310
2021-09-27 10:55:23.495600,-303
2021-09-27 10:55:23.495610,-293
2021-09-27 10:55:23.495619,-273
2021-09-27 10:55:23.495629,-256
2021-09-27 10:55:23.495639,-254
2021-09-27 10:55:23.495648,-242
2021-09-27 10:55:23.495658,-207
2021-09-27 10:55:23.495668,-176
2021-09-27 10:55:23.495678,-171
2021-09-27 10:55:23.495687,-161
2021-09-27 10:55:23.495697,-134
2021-09-27 10:55:23.495706,-127
2021-09-27 10:55:23.495716,-141
2021-09-27 10:55:23.495726,-156
2021-09-27 10:55:23.495736,-144
2021-09-27 10:55:23.495745,-124
2021-09-27 10:55:23.495755,-122
2021-09-27 10:55:23.495765,-105
2021-09-27 10:55:23.495774,-85
2021-09-27 10:55:23.495784,-100
2021-09-27 10:55:23.495794,-117
2021-09-27 10:55:23.495803,-107
2021-09-27 10:55:23.720308,-100
2021-09-27 10:55:23.720341,-122
2021-09-27 10:55:23.720352,-129
2021-09-27 10:55:23.720362,-105
2021-09-27 10:55:23.720372,-102
2021-09-27 10:55:23.720382,-107
2021-09-27 10:55:23.720392,-75
2021-09-27 10:55:23.720402,-61
2021-09-27 10:55:23.720411,-83
2021-09-27 10:55:23.720421,-95
2021-09-27 10:55:23.720431,-83
2021-09-27 10:55:23.720441,-78
2021-09-27 10:55:23.720450,-90
2021-09-27 10:55:23.720460,-80
2021-09-27 10:55:23.720470,-53
2021-09-27 10:55:23.720479,-39
2021-09-27 10:55:23.720489,-19
2021-09-27 10:55:23.720499,-22
2021-09-27 10:55:23.720508,-39
2021-09-27 10:55:23.720518,-44
2021-09-27 10:55:23.720528,-44
2021-09-27 10:55:23.720538,-53
2021-09-27 10:55:23.720547,-63
2021-09-27 10:55:23.720557,-68
2021-09-27 10:55:23.720567,-75
2021-09-27 10:55:23.720577,-85
2021-09-27 10:55:23.720586,-80
2021-09-27 10:55:23.720596,-80
2021-09-27 10:55:23.720606,-92
2021-09-27 10:55:23.720615,-95
2021-09-27 10:55:23.989141,-134
2021-09-27 10:55:23.989173,-176
2021-09-27 10:55:23.989185,90
2021-09-27 10:55:23.989196,851
2021-09-27 10:55:23.989206,1794
2021-09-27 10:55:23.989216,2218
2021-09-27 10:55:23.989225,1190
2021-09-27 10:55:23.989235,-630
2021-09-27 10:55:23.989245,-978
2021-09-27 10:55:23.989255,-188
2021-09-27 10:55:23.989264,-144
2021-09-27 10:55:23.989274,-366
2021-09-27 10:55:23.989284,-144
2021-09-27 10:55:23.989294,-34
2021-09-27 10:55:23.989304,-124
2021-09-27 10:55:23.989313,-102
2021-09-27 10:55:23.989323,-44
2021-09-27 10:55:23.989333,-39
2021-09-27 10:55:23.989343,-12
2021-09-27 10:55:23.989352,19
2021-09-27 10:55:23.989362,24
2021-09-27 10:55:23.989372,36
2021-09-27 10:55:23.989382,58
2021-09-27 10:55:23.989391,88
2021-09-27 10:55:23.989401,114
2021-09-27 10:55:23.989411,141
2021-09-27 10:55:23.989421,171
2021-09-27 10:55:23.989431,207
2021-09-27 10:55:23.989441,242
2021-09-27 10:55:23.989450,281
2021-09-27 10:55:24.260314,325
2021-09-27 10:55:24.260346,376
2021-09-27 10:55:24.260358,440
2021-09-27 10:55:24.260368,503
2021-09-27 10:55:24.260378,557
2021-09-27 10:55:24.260387,582
2021-09-27 10:55:24.260397,594
2021-09-27 10:55:24.260407,613
2021-09-27 10:55:24.260416,601
2021-09-27 10:55:24.260426,506
2021-09-27 10:55:24.260436,364
2021-09-27 10:55:24.260446,195
2021-09-27 10:55:24.260455,22
2021-09-27 10:55:24.260465,-100
2021-09-27 10:55:24.260475,-195
2021-09-27 10:55:24.260485,-283
2021-09-27 10:55:24.260495,-322
2021-09-27 10:55:24.260504,-335
2021-09-27 10:55:24.260514,-344
2021-09-27 10:55:24.260524,-339
2021-09-27 10:55:24.260533,-330
2021-09-27 10:55:24.260543,-325
2021-09-27 10:55:24.260553,-313
2021-09-27 10:55:24.260563,-303
2021-09-27 10:55:24.260572,-293
2021-09-27 10:55:24.260582,-264
2021-09-27 10:55:24.260592,-237
2021-09-27 10:55:24.260601,-234
2021-09-27 10:55:24.260611,-232
2021-09-27 10:55:24.260621,-212
2021-09-27 10:55:24.484894,-202
2021-09-27 10:55:24.484927,-200
2021-09-27 10:55:24.484938,-198
2021-09-27 10:55:24.484948,-198
2021-09-27 10:55:24.484958,-193
2021-09-27 10:55:24.484968,-190
2021-09-27 10:55:24.484978,-180
2021-09-27 10:55:24.484988,-163
2021-09-27 10:55:24.484997,-156
2021-09-27 10:55:24.485007,-154
2021-09-27 10:55:24.485017,-149
2021-09-27 10:55:24.485026,-161
2021-09-27 10:55:24.485036,-161
2021-09-27 10:55:24.485046,-139
2021-09-27 10:55:24.485056,-141
2021-09-27 10:55:24.485065,-154
2021-09-27 10:55:24.485075,-136
2021-09-27 10:55:24.485085,-119
2021-09-27 10:55:24.485094,-124
2021-09-27 10:55:24.485104,-122
2021-09-27 10:55:24.485114,-122
2021-09-27 10:55:24.485124,-136
2021-09-27 10:55:24.485134,-139
2021-09-27 10:55:24.485144,-129
2021-09-27 10:55:24.485154,-122
2021-09-27 10:55:24.485163,-114
2021-09-27 10:55:24.485173,-107
2021-09-27 10:55:24.485183,-100
2021-09-27 10:55:24.485192,-92
2021-09-27 10:55:24.485202,-100
2021-09-27 10:55:24.710043,-105
2021-09-27 10:55:24.710068,-85
2021-09-27 10:55:24.710075,-70
2021-09-27 10:55:24.710082,-73
2021-09-27 10:55:24.710089,-78
2021-09-27 10:55:24.710095,-68
2021-09-27 10:55:24.710101,-63
2021-09-27 10:55:24.710108,-70
2021-09-27 10:55:24.710114,-83
2021-09-27 10:55:24.710121,-102
2021-09-27 10:55:24.710127,-124
2021-09-27 10:55:24.710133,-110
2021-09-27 10:55:24.710139,-78
2021-09-27 10:55:24.710146,-95
2021-09-27 10:55:24.710152,-124
2021-09-27 10:55:24.710159,-102
2021-09-27 10:55:24.710165,-100
2021-09-27 10:55:24.710171,-163
2021-09-27 10:55:24.710178,-229
2021-09-27 10:55:24.710184,-107
2021-09-27 10:55:24.710190,467
2021-09-27 10:55:24.710197,1408
2021-09-27 10:55:24.710203,2164
2021-09-27 10:55:24.710209,1787
2021-09-27 10:55:24.710216,29
2021-09-27 10:55:24.710222,-1115
2021-09-27 10:55:24.710228,-542
2021-09-27 10:55:24.710235,-100
2021-09-27 10:55:24.710241,-335
2021-09-27 10:55:24.710247,-244
2021-09-27 10:55:24.890423,-48
2021-09-27 10:55:24.890446,-112
2021-09-27 10:55:24.890454,-134
2021-09-27 10:55:24.890460,-51
2021-09-27 10:55:24.890466,-36
2021-09-27 10:55:24.890473,-48
2021-09-27 10:55:24.890479,-39
2021-09-27 10:55:24.890485,-22
2021-09-27 10:55:24.890491,0
2021-09-27 10:55:24.890498,17
2021-09-27 10:55:24.890504,29
2021-09-27 10:55:24.890510,63
2021-09-27 10:55:24.890517,107
2021-09-27 10:55:24.890523,119
2021-09-27 10:55:24.890529,127
2021-09-27 10:55:24.890536,180
2021-09-27 10:55:24.890542,244
2021-09-27 10:55:24.890548,278
2021-09-27 10:55:24.890554,330
2021-09-27 10:55:24.890560,405
2021-09-27 10:55:24.890567,459
2021-09-27 10:55:24.890573,511
2021-09-27 10:55:24.890579,564
2021-09-27 10:55:24.890585,586
2021-09-27 10:55:24.890592,604
2021-09-27 10:55:24.890598,611
2021-09-27 10:55:24.890604,552
2021-09-27 10:55:24.890610,432
2021-09-27 10:55:24.890617,278
2021-09-27 10:55:24.890623,100
2021-09-27 10:55:25.160365,-61
2021-09-27 10:55:25.160389,-168
2021-09-27 10:55:25.160396,-242
2021-09-27 10:55:25.160403,-305
2021-09-27 10:55:25.160409,-349
2021-09-27 10:55:25.160415,-369
2021-09-27 10:55:25.160422,-374
2021-09-27 10:55:25.160428,-366
2021-09-27 10:55:25.160434,-357
2021-09-27 10:55:25.160441,-342
2021-09-27 10:55:25.160447,-327
2021-09-27 10:55:25.160453,-332
2021-09-27 10:55:25.160459,-335
2021-09-27 10:55:25.160466,-315
2021-09-27 10:55:25.160472,-286
2021-09-27 10:55:25.160478,-269
2021-09-27 10:55:25.160484,-261
2021-09-27 10:55:25.160491,-251
2021-09-27 10:55:25.160497,-237
2021-09-27 10:55:25.160503,-220
2021-09-27 10:55:25.160509,-200
2021-09-27 10:55:25.160515,-185
2021-09-27 10:55:25.160522,-178
2021-09-27 10:55:25.160528,-168
2021-09-27 10:55:25.160534,-173
2021-09-27 10:55:25.160540,-180
2021-09-27 10:55:25.160547,-173
2021-09-27 10:55:25.160553,-168
2021-09-27 10:55:25.160559,-176
2021-09-27 10:55:25.160565,-163
2021-09-27 10:55:25.340526,-146
2021-09-27 10:55:25.340558,-149
2021-09-27 10:55:25.340570,-151
2021-09-27 10:55:25.340580,-144
2021-09-27 10:55:25.340589,-136
2021-09-27 10:55:25.340599,-141
2021-09-27 10:55:25.340609,-144
2021-09-27 10:55:25.340618,-132
2021-09-27 10:55:25.340628,-117
2021-09-27 10:55:25.340637,-117
2021-09-27 10:55:25.340647,-119
2021-09-27 10:55:25.340657,-124
2021-09-27 10:55:25.340667,-144
2021-09-27 10:55:25.340676,-154
2021-09-27 10:55:25.340686,-144
2021-09-27 10:55:25.340695,-124
2021-09-27 10:55:25.340705,-105
2021-09-27 10:55:25.340715,-100
2021-09-27 10:55:25.340724,-102
2021-09-27 10:55:25.340734,-85
2021-09-27 10:55:25.340744,-70
2021-09-27 10:55:25.340753,-88
2021-09-27 10:55:25.340763,-107
2021-09-27 10:55:25.340772,-119
2021-09-27 10:55:25.340782,-127
2021-09-27 10:55:25.340792,-114
2021-09-27 10:55:25.340801,-97
2021-09-27 10:55:25.340811,-90
2021-09-27 10:55:25.340820,-83
2021-09-27 10:55:25.340830,-73
2021-09-27 10:55:25.565462,-78
2021-09-27 10:55:25.565494,-117
2021-09-27 10:55:25.565505,-202
2021-09-27 10:55:25.565515,-202
2021-09-27 10:55:25.565525,190
2021-09-27 10:55:25.565535,1044
2021-09-27 10:55:25.565544,1966
2021-09-27 10:55:25.565554,2171
2021-09-27 10:55:25.565564,814
2021-09-27 10:55:25.565573,-912
2021-09-27 10:55:25.565583,-897
2021-09-27 10:55:25.565593,-149
2021-09-27 10:55:25.565602,-234
2021-09-27 10:55:25.565612,-359
2021-09-27 10:55:25.565622,-129
2021-09-27 10:55:25.565631,-100
2021-09-27 10:55:25.565641,-171
2021-09-27 10:55:25.565650,-100
2021-09-27 10:55:25.565660,-53
2021-09-27 10:55:25.565669,-75
2021-09-27 10:55:25.565679,-56
2021-09-27 10:55:25.565689,-26
2021-09-27 10:55:25.565699,-9
2021-09-27 10:55:25.565708,12
2021-09-27 10:55:25.565718,41
2021-09-27 10:55:25.565727,73
2021-09-27 10:55:25.565737,105
2021-09-27 10:55:25.565747,134
2021-09-27 10:55:25.565756,171
2021-09-27 10:55:25.565766,207
2021-09-27 10:55:25.790049,237
2021-09-27 10:55:25.790077,283
2021-09-27 10:55:25.790089,342
2021-09-27 10:55:25.790130,396
2021-09-27 10:55:25.790141,457
2021-09-27 10:55:25.790151,511
2021-09-27 10:55:25.790162,555
2021-09-27 10:55:25.790172,608
2021-09-27 10:55:25.790183,640
2021-09-27 10:55:25.790194,643
2021-09-27 10:55:25.790204,601
2021-09-27 10:55:25.790214,496
2021-09-27 10:55:25.790225,344
2021-09-27 10:55:25.790236,180
2021-09-27 10:55:25.790246,17
2021-09-27 10:55:25.790257,-136
2021-09-27 10:55:25.790268,-244
2021-09-27 10:55:25.790278,-310
2021-09-27 10:55:25.790289,-357
2021-09-27 10:55:25.790299,-376
2021-09-27 10:55:25.790310,-366
2021-09-27 10:55:25.790320,-357
2021-09-27 10:55:25.790331,-352
2021-09-27 10:55:25.790342,-354
2021-09-27 10:55:25.790352,-337
2021-09-27 10:55:25.790363,-298
2021-09-27 10:55:25.790373,-288
2021-09-27 10:55:25.790384,-298
2021-09-27 10:55:25.790394,-271
2021-09-27 10:55:25.790405,-227
2021-09-27 10:55:26.059124,-217
2021-09-27 10:55:26.059189,-220
2021-09-27 10:55:26.059200,-198
2021-09-27 10:55:26.059211,-180
2021-09-27 10:55:26.059220,-198
2021-09-27 10:55:26.059230,-195
2021-09-27 10:55:26.059240,-158
2021-09-27 10:55:26.059250,-151
2021-09-27 10:55:26.059260,-156
2021-09-27 10:55:26.059269,-151
2021-09-27 10:55:26.059279,-149
2021-09-27 10:55:26.059303,-144
2021-09-27 10:55:26.059315,-136
2021-09-27 10:55:26.059325,-136
2021-09-27 10:55:26.059335,-136
2021-09-27 10:55:26.059344,-127
2021-09-27 10:55:26.059354,-112
2021-09-27 10:55:26.059364,-110
2021-09-27 10:55:26.059374,-127
2021-09-27 10:55:26.059384,-132
2021-09-27 10:55:26.059394,-117
2021-09-27 10:55:26.059404,-122
2021-09-27 10:55:26.059413,-114
2021-09-27 10:55:26.059423,-88
2021-09-27 10:55:26.059433,-85
2021-09-27 10:55:26.059442,-92
2021-09-27 10:55:26.059452,-80
2021-09-27 10:55:26.059462,-70
2021-09-27 10:55:26.059472,-68
2021-09-27 10:55:26.059482,-70
2021-09-27 10:55:26.285475,-75
2021-09-27 10:55:26.285507,-70
2021-09-27 10:55:26.285519,-75
2021-09-27 10:55:26.285529,-92
2021-09-27 10:55:26.285539,-78
2021-09-27 10:55:26.285548,-53
2021-09-27 10:55:26.285558,-53
2021-09-27 10:55:26.285568,-41
2021-09-27 10:55:26.285577,-31
2021-09-27 10:55:26.285587,-53
2021-09-27 10:55:26.285597,-70
2021-09-27 10:55:26.285606,-70
2021-09-27 10:55:26.285616,-78
2021-09-27 10:55:26.285626,-75
2021-09-27 10:55:26.285636,-70
2021-09-27 10:55:26.285645,-70
2021-09-27 10:55:26.285655,-66
2021-09-27 10:55:26.285664,-46
2021-09-27 10:55:26.285674,-44
2021-09-27 10:55:26.285684,-95
2021-09-27 10:55:26.285693,-200
2021-09-27 10:55:26.285703,-163
2021-09-27 10:55:26.285713,366
2021-09-27 10:55:26.285723,1349
2021-09-27 10:55:26.285732,2222
2021-09-27 10:55:26.285742,2059
2021-09-27 10:55:26.285752,347
2021-09-27 10:55:26.285761,-1090
2021-09-27 10:55:26.285771,-645
2021-09-27 10:55:26.285781,-46
2021-09-27 10:55:26.555449,-293
2021-09-27 10:55:26.555514,-300
2021-09-27 10:55:26.555525,-73
2021-09-27 10:55:26.555535,-112
2021-09-27 10:55:26.555545,-146
2021-09-27 10:55:26.555555,-53
2021-09-27 10:55:26.555564,-41
2021-09-27 10:55:26.555574,-61
2021-09-27 10:55:26.555584,-29
2021-09-27 10:55:26.555593,-9
2021-09-27 10:55:26.555603,-7
2021-09-27 10:55:26.555636,19
2021-09-27 10:55:26.555647,58
2021-09-27 10:55:26.555657,78
2021-09-27 10:55:26.555666,100
2021-09-27 10:55:26.555676,136
2021-09-27 10:55:26.555686,161
2021-09-27 10:55:26.555696,183
2021-09-27 10:55:26.555705,232
2021-09-27 10:55:26.555715,288
2021-09-27 10:55:26.555725,339
2021-09-27 10:55:26.555735,396
2021-09-27 10:55:26.555744,454
2021-09-27 10:55:26.555754,501
2021-09-27 10:55:26.555764,547
2021-09-27 10:55:26.555774,589
2021-09-27 10:55:26.555783,613
2021-09-27 10:55:26.555793,621
2021-09-27 10:55:26.555803,586
2021-09-27 10:55:26.555813,491
2021-09-27 10:55:26.735338,349
2021-09-27 10:55:26.735369,178
2021-09-27 10:55:26.735381,-4
2021-09-27 10:55:26.735391,-149
2021-09-27 10:55:26.735402,-239
2021-09-27 10:55:26.735412,-295
2021-09-27 10:55:26.735421,-332
2021-09-27 10:55:26.735431,-354
2021-09-27 10:55:26.735441,-359
2021-09-27 10:55:26.735450,-349
2021-09-27 10:55:26.735460,-332
2021-09-27 10:55:26.735470,-317
2021-09-27 10:55:26.735479,-305
2021-09-27 10:55:26.735489,-298
2021-09-27 10:55:26.735499,-288
2021-09-27 10:55:26.735509,-276
2021-09-27 10:55:26.735519,-261
2021-09-27 10:55:26.735528,-237
2021-09-27 10:55:26.735538,-220
2021-09-27 10:55:26.735548,-222
2021-09-27 10:55:26.735558,-217
2021-09-27 10:55:26.735567,-200
2021-09-27 10:55:26.735577,-185
2021-09-27 10:55:26.735587,-176
2021-09-27 10:55:26.735596,-176
2021-09-27 10:55:26.735606,-176
2021-09-27 10:55:26.735616,-166
2021-09-27 10:55:26.735626,-156
2021-09-27 10:55:26.735636,-151
2021-09-27 10:55:26.735645,-158
2021-09-27 10:55:26.960359,-171
2021-09-27 10:55:26.960381,-166
2021-09-27 10:55:26.960389,-156
2021-09-27 10:55:26.960395,-149
2021-09-27 10:55:26.960402,-136
2021-09-27 10:55:26.960408,-127
2021-09-27 10:55:26.960414,-129
2021-09-27 10:55:26.960420,-132
2021-09-27 10:55:26.960427,-129
2021-09-27 10:55:26.960433,-124
2021-09-27 10:55:26.960439,-119
2021-09-27 10:55:26.960445,-112
2021-09-27 10:55:26.960452,-107
2021-09-27 10:55:26.960458,-110
2021-09-27 10:55:26.960464,-105
2021-09-27 10:55:26.960470,-97
2021-09-27 10:55:26.960477,-97
2021-09-27 10:55:26.960483,-100
2021-09-27 10:55:26.960489,-102
2021-09-27 10:55:26.960495,-100
2021-09-27 10:55:26.960502,-92
2021-09-27 10:55:26.960508,-90
2021-09-27 10:55:26.960514,-80
2021-09-27 10:55:26.960520,-63
2021-09-27 10:55:26.960526,-53
2021-09-27 10:55:26.960533,-51
2021-09-27 10:55:26.960539,-51
2021-09-27 10:55:26.960545,-56
2021-09-27 10:55:26.960552,-63
2021-09-27 10:55:26.960558,-73
2021-09-27 10:55:27.229806,-83
2021-09-27 10:55:27.229838,-88
2021-09-27 10:55:27.229850,-88
2021-09-27 10:55:27.229860,-85
2021-09-27 10:55:27.229870,-70
2021-09-27 10:55:27.229879,-63
2021-09-27 10:55:27.229889,-75
2021-09-27 10:55:27.229899,-92
2021-09-27 10:55:27.229909,-129
2021-09-27 10:55:27.229918,-205
2021-09-27 10:55:27.229929,-146
2021-09-27 10:55:27.229939,366
2021-09-27 10:55:27.229949,1296
2021-09-27 10:55:27.229958,2142
2021-09-27 10:55:27.229968,2015
2021-09-27 10:55:27.229978,364
2021-09-27 10:55:27.229987,-1076
2021-09-27 10:55:27.229997,-672
2021-09-27 10:55:27.230006,-66
2021-09-27 10:55:27.230016,-291
2021-09-27 10:55:27.230026,-303
2021-09-27 10:55:27.230035,-75
2021-09-27 10:55:27.230045,-110
2021-09-27 10:55:27.230054,-158
2021-09-27 10:55:27.230064,-75
2021-09-27 10:55:27.230073,-53
2021-09-27 10:55:27.230083,-66
2021-09-27 10:55:27.230092,-29
2021-09-27 10:55:27.230102,-2
2021-09-27 10:55:27.230112,-4
2021-09-27 10:55:27.410454,17
2021-09-27 10:55:27.410477,53
2021-09-27 10:55:27.410485,70
2021-09-27 10:55:27.410491,85
2021-09-27 10:55:27.410498,105
2021-09-27 10:55:27.410504,124
2021-09-27 10:55:27.410510,158
2021-09-27 10:55:27.410517,207
2021-09-27 10:55:27.410523,254
2021-09-27 10:55:27.410529,303
2021-09-27 10:55:27.410536,357
2021-09-27 10:55:27.410542,403
2021-09-27 10:55:27.410548,457
2021-09-27 10:55:27.410555,520
2021-09-27 10:55:27.410561,560
2021-09-27 10:55:27.410567,574
2021-09-27 10:55:27.410573,579
2021-09-27 10:55:27.410580,557
2021-09-27 10:55:27.410586,467
2021-09-27 10:55:27.410592,327
2021-09-27 10:55:27.410599,166
2021-09-27 10:55:27.410605,2
2021-09-27 10:55:27.410611,-139
2021-09-27 10:55:27.410618,-244
2021-09-27 10:55:27.410624,-308
2021-09-27 10:55:27.410630,-347
2021-09-27 10:55:27.410637,-364
2021-09-27 10:55:27.410643,-364
2021-09-27 10:55:27.410649,-354
2021-09-27 10:55:27.410656,-349
2021-09-27 10:55:27.724762,-344
2021-09-27 10:55:27.724794,-327
2021-09-27 10:55:27.724806,-305
2021-09-27 10:55:27.724816,-295
2021-09-27 10:55:27.724826,-288
2021-09-27 10:55:27.724835,-278
2021-09-27 10:55:27.724845,-264
2021-09-27 10:55:27.724855,-246
2021-09-27 10:55:27.724864,-239
2021-09-27 10:55:27.724874,-227
2021-09-27 10:55:27.724884,-217
2021-09-27 10:55:27.724893,-217
2021-09-27 10:55:27.724903,-217
2021-09-27 10:55:27.724913,-207
2021-09-27 10:55:27.724922,-195
2021-09-27 10:55:27.724932,-188
2021-09-27 10:55:27.724942,-188
2021-09-27 10:55:27.724951,-190
2021-09-27 10:55:27.724961,-188
2021-09-27 10:55:27.724971,-168
2021-09-27 10:55:27.724980,-154
2021-09-27 10:55:27.724990,-161
2021-09-27 10:55:27.724999,-176
2021-09-27 10:55:27.725009,-166
2021-09-27 10:55:27.725019,-144
2021-09-27 10:55:27.725028,-127
2021-09-27 10:55:27.725038,-110
2021-09-27 10:55:27.725048,-105
2021-09-27 10:55:27.725057,-124
2021-09-27 10:55:27.725067,-134
2021-09-27 10:55:27.860108,-110
2021-09-27 10:55:27.860130,-80
2021-09-27 10:55:27.860137,-80
2021-09-27 10:55:27.860144,-100
2021-09-27 10:55:27.860150,-110
2021-09-27 10:55:27.860157,-102
2021-09-27 10:55:27.860163,-92
2021-09-27 10:55:27.860169,-85
2021-09-27 10:55:27.860175,-78
2021-09-27 10:55:27.860181,-85
2021-09-27 10:55:27.860188,-97
2021-09-27 10:55:27.860194,-85
2021-09-27 10:55:27.860200,-66
2021-09-27 10:55:27.860207,-56
2021-09-27 10:55:27.860213,-53
2021-09-27 10:55:27.860219,-53
2021-09-27 10:55:27.860225,-56
2021-09-27 10:55:27.860231,-56
2021-09-27 10:55:27.860238,-63
2021-09-27 10:55:27.860244,-75
2021-09-27 10:55:27.860250,-75
2021-09-27 10:55:27.860257,-75
2021-09-27 10:55:27.860263,-73
2021-09-27 10:55:27.860280,-66
2021-09-27 10:55:27.860287,-63
2021-09-27 10:55:27.860293,-56
2021-09-27 10:55:27.860300,-63
2021-09-27 10:55:27.860306,-134
2021-09-27 10:55:27.860312,-183
2021-09-27 10:55:27.860319,88
2021-09-27 10:55:28.174005,858
2021-09-27 10:55:28.174037,1838
2021-09-27 10:55:28.174049,2325
2021-09-27 10:55:28.174059,1323
2021-09-27 10:55:28.174069,-577
2021-09-27 10:55:28.174079,-1022
2021-09-27 10:55:28.174089,-215
2021-09-27 10:55:28.174099,-110
2021-09-27 10:55:28.174108,-335
2021-09-27 10:55:28.174118,-136
2021-09-27 10:55:28.174128,-19
2021-09-27 10:55:28.174137,-90
2021-09-27 10:55:28.174147,-51
2021-09-27 10:55:28.174157,9
2021-09-27 10:55:28.174166,-4
2021-09-27 10:55:28.174176,9
2021-09-27 10:55:28.174186,56
2021-09-27 10:55:28.174195,75
2021-09-27 10:55:28.174205,90
2021-09-27 10:55:28.174214,119
2021-09-27 10:55:28.174224,151
2021-09-27 10:55:28.174234,178
2021-09-27 10:55:28.174243,207
2021-09-27 10:55:28.174253,239
2021-09-27 10:55:28.174262,278
2021-09-27 10:55:28.174272,317
2021-09-27 10:55:28.174282,359
2021-09-27 10:55:28.174291,408
2021-09-27 10:55:28.174301,467
2021-09-27 10:55:28.174311,530
2021-09-27 10:55:28.355495,596
2021-09-27 10:55:28.355526,657
2021-09-27 10:55:28.355538,699
2021-09-27 10:55:28.355548,721
2021-09-27 10:55:28.355558,740
2021-09-27 10:55:28.355568,736
2021-09-27 10:55:28.355577,679
2021-09-27 10:55:28.355587,552
2021-09-27 10:55:28.355597,369
2021-09-27 10:55:28.355606,183
2021-09-27 10:55:28.355616,39
2021-09-27 10:55:28.355626,-68
2021-09-27 10:55:28.355636,-154
2021-09-27 10:55:28.355645,-205
2021-09-27 10:55:28.355655,-234
2021-09-27 10:55:28.355665,-261
2021-09-27 10:55:28.355674,-266
2021-09-27 10:55:28.355684,-251
2021-09-27 10:55:28.355694,-244
2021-09-27 10:55:28.355703,-217
2021-09-27 10:55:28.355713,-180
2021-09-27 10:55:28.355723,-161
2021-09-27 10:55:28.355732,-134
2021-09-27 10:55:28.355742,-102
2021-09-27 10:55:28.355752,-90
2021-09-27 10:55:28.355761,-80
2021-09-27 10:55:28.355771,-66
2021-09-27 10:55:28.355780,-56
2021-09-27 10:55:28.355790,-46
2021-09-27 10:55:28.355800,-39
2021-09-27 10:55:28.580357,-34
2021-09-27 10:55:28.580388,-31
2021-09-27 10:55:28.580399,-34
2021-09-27 10:55:28.580409,-34
2021-09-27 10:55:28.580419,-34
2021-09-27 10:55:28.580429,-34
2021-09-27 10:55:28.580439,-36
2021-09-27 10:55:28.580448,-44
2021-09-27 10:55:28.580458,-53
2021-09-27 10:55:28.580467,-61
2021-09-27 10:55:28.580477,-63
2021-09-27 10:55:28.580487,-56
2021-09-27 10:55:28.580496,-48
2021-09-27 10:55:28.580506,-53
2021-09-27 10:55:28.580516,-58
2021-09-27 10:55:28.580525,-61
2021-09-27 10:55:28.580535,-56
2021-09-27 10:55:28.580545,-53
2021-09-27 10:55:28.580554,-46
2021-09-27 10:55:28.580564,-41
2021-09-27 10:55:28.580574,-46
2021-09-27 10:55:28.580583,-51
2021-09-27 10:55:28.580593,-44
2021-09-27 10:55:28.580603,-36
2021-09-27 10:55:28.580612,-36
2021-09-27 10:55:28.580622,-31
2021-09-27 10:55:28.580632,-17
2021-09-27 10:55:28.580641,-17
2021-09-27 10:55:28.580651,-12
2021-09-27 10:55:28.580661,4
2021-09-27 10:55:28.805374,9
2021-09-27 10:55:28.805396,0
2021-09-27 10:55:28.805404,-12
2021-09-27 10:55:28.805411,-29
2021-09-27 10:55:28.805417,-29
2021-09-27 10:55:28.805424,-14
2021-09-27 10:55:28.805430,-14
2021-09-27 10:55:28.805437,-24
2021-09-27 10:55:28.805443,-17
2021-09-27 10:55:28.805450,-4
2021-09-27 10:55:28.805456,-19
2021-09-27 10:55:28.805462,-90
2021-09-27 10:55:28.805469,-193
2021-09-27 10:55:28.805475,-80
2021-09-27 10:55:28.805482,586
2021-09-27 10:55:28.805488,1665
2021-09-27 10:55:28.805494,2438
2021-09-27 10:55:28.805501,1880
2021-09-27 10:55:28.805507,-31
2021-09-27 10:55:28.805514,-1095
2021-09-27 10:55:28.805520,-435
2021-09-27 10:55:28.805526,-39
2021-09-27 10:55:28.805533,-315
2021-09-27 10:55:28.805539,-205
2021-09-27 10:55:28.805545,-12
2021-09-27 10:55:28.805552,-92
2021-09-27 10:55:28.805558,-97
2021-09-27 10:55:28.805565,-9
2021-09-27 10:55:28.805571,-7
2021-09-27 10:55:28.805577,-7
2021-09-27 10:55:29.030448,31
2021-09-27 10:55:29.030480,53
2021-09-27 10:55:29.030492,66
2021-09-27 10:55:29.030503,90
2021-09-27 10:55:29.030513,114
2021-09-27 10:55:29.030522,134
2021-09-27 10:55:29.030532,156
2021-09-27 10:55:29.030542,183
2021-09-27 10:55:29.030552,215
2021-09-27 10:55:29.030561,254
2021-09-27 10:55:29.030571,305
2021-09-27 10:55:29.030581,352
2021-09-27 10:55:29.030591,396
2021-09-27 10:55:29.030600,447
2021-09-27 10:55:29.030610,506
2021-09-27 10:55:29.030620,562
2021-09-27 10:55:29.030630,616
2021-09-27 10:55:29.030639,652
2021-09-27 10:55:29.030649,672
2021-09-27 10:55:29.030659,670
2021-09-27 10:55:29.030684,630
2021-09-27 10:55:29.030695,525
2021-09-27 10:55:29.030705,366
2021-09-27 10:55:29.030715,188
2021-09-27 10:55:29.030724,12
2021-09-27 10:55:29.030734,-127
2021-09-27 10:55:29.030744,-212
2021-09-27 10:55:29.030754,-271
2021-09-27 10:55:29.030764,-310
2021-09-27 10:55:29.030774,-327
2021-09-27 10:55:29.255418,-322
