Time,ECG
2021-09-27 11:16:00.052879,-251
2021-09-27 11:16:00.052912,-202
2021-09-27 11:16:00.052923,-195
2021-09-27 11:16:00.052934,-195
2021-09-27 11:16:00.052944,-190
2021-09-27 11:16:00.052953,-200
2021-09-27 11:16:00.052963,-190
2021-09-27 11:16:00.052973,-178
2021-09-27 11:16:00.052982,-202
2021-09-27 11:16:00.052992,-224
2021-09-27 11:16:00.053002,-188
2021-09-27 11:16:00.053012,-158
2021-09-27 11:16:00.053021,-188
2021-09-27 11:16:00.053065,-200
2021-09-27 11:16:00.053076,-190
2021-09-27 11:16:00.053086,-193
2021-09-27 11:16:00.053096,-173
2021-09-27 11:16:00.053105,-158
2021-09-27 11:16:00.053115,-161
2021-09-27 11:16:00.053141,-134
2021-09-27 11:16:00.053147,-124
2021-09-27 11:16:00.053153,-154
2021-09-27 11:16:00.053160,-136
2021-09-27 11:16:00.053166,-127
2021-09-27 11:16:00.053172,-161
2021-09-27 11:16:00.053178,-146
2021-09-27 11:16:00.053185,-122
2021-09-27 11:16:00.053191,-141
2021-09-27 11:16:00.053198,-124
2021-09-27 11:16:00.053204,-85
2021-09-27 11:16:00.321566,-100
2021-09-27 11:16:00.321592,-97
2021-09-27 11:16:00.321600,-73
2021-09-27 11:16:00.321606,-110
2021-09-27 11:16:00.321613,-141
2021-09-27 11:16:00.321619,-129
2021-09-27 11:16:00.321626,-127
2021-09-27 11:16:00.321632,-97
2021-09-27 11:16:00.321638,-83
2021-09-27 11:16:00.321645,-114
2021-09-27 11:16:00.321651,-85
2021-09-27 11:16:00.321657,-29
2021-09-27 11:16:00.321664,-58
2021-09-27 11:16:00.321670,-97
2021-09-27 11:16:00.321677,-70
2021-09-27 11:16:00.321683,-51
2021-09-27 11:16:00.321689,-85
2021-09-27 11:16:00.321696,-107
2021-09-27 11:16:00.321702,-92
2021-09-27 11:16:00.321708,-88
2021-09-27 11:16:00.321715,-85
2021-09-27 11:16:00.321721,-53
2021-09-27 11:16:00.321727,-48
2021-09-27 11:16:00.321734,-68
2021-09-27 11:16:00.321740,-114
2021-09-27 11:16:00.321747,-195
2021-09-27 11:16:00.321753,-61
2021-09-27 11:16:00.321759,640
2021-09-27 11:16:00.321766,1689
2021-09-27 11:16:00.321772,2399
2021-09-27 11:16:00.502993,1887
2021-09-27 11:16:00.503025,48
2021-09-27 11:16:00.503037,-1110
2021-09-27 11:16:00.503048,-528
2021-09-27 11:16:00.503058,-39
2021-09-27 11:16:00.503068,-278
2021-09-27 11:16:00.503077,-234
2021-09-27 11:16:00.503087,-26
2021-09-27 11:16:00.503097,-58
2021-09-27 11:16:00.503107,-88
2021-09-27 11:16:00.503117,-51
2021-09-27 11:16:00.503127,-34
2021-09-27 11:16:00.503137,19
2021-09-27 11:16:00.503146,51
2021-09-27 11:16:00.503156,36
2021-09-27 11:16:00.503166,70
2021-09-27 11:16:00.503176,100
2021-09-27 11:16:00.503186,66
2021-09-27 11:16:00.503196,100
2021-09-27 11:16:00.503206,190
2021-09-27 11:16:00.503215,205
2021-09-27 11:16:00.503225,202
2021-09-27 11:16:00.503235,278
2021-09-27 11:16:00.503245,337
2021-09-27 11:16:00.503255,339
2021-09-27 11:16:00.503265,381
2021-09-27 11:16:00.503288,471
2021-09-27 11:16:00.503299,523
2021-09-27 11:16:00.503309,557
2021-09-27 11:16:00.503319,640
2021-09-27 11:16:00.727943,723
2021-09-27 11:16:00.727975,740
2021-09-27 11:16:00.727987,736
2021-09-27 11:16:00.727997,736
2021-09-27 11:16:00.728007,657
2021-09-27 11:16:00.728017,491
2021-09-27 11:16:00.728027,310
2021-09-27 11:16:00.728037,105
2021-09-27 11:16:00.728047,-95
2021-09-27 11:16:00.728057,-234
2021-09-27 11:16:00.728066,-359
2021-09-27 11:16:00.728076,-440
2021-09-27 11:16:00.728086,-420
2021-09-27 11:16:00.728096,-393
2021-09-27 11:16:00.728105,-432
2021-09-27 11:16:00.728115,-454
2021-09-27 11:16:00.728125,-413
2021-09-27 11:16:00.728135,-388
2021-09-27 11:16:00.728144,-391
2021-09-27 11:16:00.728154,-366
2021-09-27 11:16:00.728164,-349
2021-09-27 11:16:00.728174,-349
2021-09-27 11:16:00.728183,-320
2021-09-27 11:16:00.728193,-293
2021-09-27 11:16:00.728202,-295
2021-09-27 11:16:00.728212,-281
2021-09-27 11:16:00.728222,-256
2021-09-27 11:16:00.728232,-264
2021-09-27 11:16:00.728241,-254
2021-09-27 11:16:00.728251,-202
2021-09-27 11:16:00.952859,-212
2021-09-27 11:16:00.952882,-256
2021-09-27 11:16:00.952890,-244
2021-09-27 11:16:00.952896,-227
2021-09-27 11:16:00.952902,-242
2021-09-27 11:16:00.952909,-232
2021-09-27 11:16:00.952916,-198
2021-09-27 11:16:00.952922,-188
2021-09-27 11:16:00.952929,-205
2021-09-27 11:16:00.952935,-215
2021-09-27 11:16:00.952941,-193
2021-09-27 11:16:00.952948,-158
2021-09-27 11:16:00.952954,-166
2021-09-27 11:16:00.952960,-198
2021-09-27 11:16:00.952967,-176
2021-09-27 11:16:00.952973,-171
2021-09-27 11:16:00.952979,-180
2021-09-27 11:16:00.952985,-136
2021-09-27 11:16:00.952992,-119
2021-09-27 11:16:00.952998,-144
2021-09-27 11:16:00.953004,-119
2021-09-27 11:16:00.953011,-90
2021-09-27 11:16:00.953017,-124
2021-09-27 11:16:00.953023,-136
2021-09-27 11:16:00.953030,-105
2021-09-27 11:16:00.953036,-107
2021-09-27 11:16:00.953042,-117
2021-09-27 11:16:00.953049,-88
2021-09-27 11:16:00.953055,-61
2021-09-27 11:16:00.953061,-61
2021-09-27 11:16:01.222985,-70
2021-09-27 11:16:01.223017,-102
2021-09-27 11:16:01.223029,-124
2021-09-27 11:16:01.223039,-95
2021-09-27 11:16:01.223049,-66
2021-09-27 11:16:01.223058,-58
2021-09-27 11:16:01.223068,-44
2021-09-27 11:16:01.223078,-41
2021-09-27 11:16:01.223087,-48
2021-09-27 11:16:01.223097,-46
2021-09-27 11:16:01.223107,-58
2021-09-27 11:16:01.223117,-92
2021-09-27 11:16:01.223126,-88
2021-09-27 11:16:01.223136,-44
2021-09-27 11:16:01.223146,-56
2021-09-27 11:16:01.223155,-122
2021-09-27 11:16:01.223165,-102
2021-09-27 11:16:01.223175,-48
2021-09-27 11:16:01.223184,-68
2021-09-27 11:16:01.223194,-97
2021-09-27 11:16:01.223204,-124
2021-09-27 11:16:01.223213,-168
2021-09-27 11:16:01.223223,9
2021-09-27 11:16:01.223233,694
2021-09-27 11:16:01.223243,1697
2021-09-27 11:16:01.223252,2416
2021-09-27 11:16:01.223262,1846
2021-09-27 11:16:01.223272,-107
2021-09-27 11:16:01.223282,-1181
2021-09-27 11:16:01.223292,-459
2021-09-27 11:16:01.537820,-7
2021-09-27 11:16:01.537852,-293
2021-09-27 11:16:01.537864,-227
2021-09-27 11:16:01.537874,2
2021-09-27 11:16:01.537884,-53
2021-09-27 11:16:01.537894,-102
2021-09-27 11:16:01.537903,-26
2021-09-27 11:16:01.537913,-2
2021-09-27 11:16:01.537923,-2
2021-09-27 11:16:01.537933,29
2021-09-27 11:16:01.537942,56
2021-09-27 11:16:01.537952,61
2021-09-27 11:16:01.537962,51
2021-09-27 11:16:01.537971,61
2021-09-27 11:16:01.537981,114
2021-09-27 11:16:01.537991,171
2021-09-27 11:16:01.538001,202
2021-09-27 11:16:01.538010,229
2021-09-27 11:16:01.538020,266
2021-09-27 11:16:01.538030,293
2021-09-27 11:16:01.538040,339
2021-09-27 11:16:01.538050,408
2021-09-27 11:16:01.538059,481
2021-09-27 11:16:01.538069,555
2021-09-27 11:16:01.538079,601
2021-09-27 11:16:01.538088,638
2021-09-27 11:16:01.538098,716
2021-09-27 11:16:01.538108,767
2021-09-27 11:16:01.538118,743
2021-09-27 11:16:01.538127,711
2021-09-27 11:16:01.672917,650
2021-09-27 11:16:01.672950,511
2021-09-27 11:16:01.672962,300
2021-09-27 11:16:01.672972,46
2021-09-27 11:16:01.672982,-112
2021-09-27 11:16:01.672992,-193
2021-09-27 11:16:01.673002,-313
2021-09-27 11:16:01.673012,-405
2021-09-27 11:16:01.673021,-427
2021-09-27 11:16:01.673031,-442
2021-09-27 11:16:01.673041,-442
2021-09-27 11:16:01.673051,-408
2021-09-27 11:16:01.673060,-383
2021-09-27 11:16:01.673070,-398
2021-09-27 11:16:01.673080,-415
2021-09-27 11:16:01.673089,-396
2021-09-27 11:16:01.673116,-357
2021-09-27 11:16:01.673127,-322
2021-09-27 11:16:01.673136,-305
2021-09-27 11:16:01.673146,-293
2021-09-27 11:16:01.673156,-291
2021-09-27 11:16:01.673165,-286
2021-09-27 11:16:01.673175,-271
2021-09-27 11:16:01.673185,-271
2021-09-27 11:16:01.673194,-269
2021-09-27 11:16:01.673204,-264
2021-09-27 11:16:01.673214,-254
2021-09-27 11:16:01.673224,-232
2021-09-27 11:16:01.673233,-222
2021-09-27 11:16:01.673243,-222
2021-09-27 11:16:01.942990,-207
2021-09-27 11:16:01.943022,-205
2021-09-27 11:16:01.943034,-222
2021-09-27 11:16:01.943044,-210
2021-09-27 11:16:01.943054,-183
2021-09-27 11:16:01.943064,-168
2021-09-27 11:16:01.943073,-176
2021-09-27 11:16:01.943083,-212
2021-09-27 11:16:01.943093,-205
2021-09-27 11:16:01.943102,-144
2021-09-27 11:16:01.943112,-146
2021-09-27 11:16:01.943122,-202
2021-09-27 11:16:01.943132,-195
2021-09-27 11:16:01.943141,-141
2021-09-27 11:16:01.943151,-136
2021-09-27 11:16:01.943161,-188
2021-09-27 11:16:01.943170,-195
2021-09-27 11:16:01.943180,-122
2021-09-27 11:16:01.943190,-75
2021-09-27 11:16:01.943199,-117
2021-09-27 11:16:01.943209,-146
2021-09-27 11:16:01.943219,-122
2021-09-27 11:16:01.943229,-107
2021-09-27 11:16:01.943238,-102
2021-09-27 11:16:01.943248,-117
2021-09-27 11:16:01.943258,-141
2021-09-27 11:16:01.943268,-112
2021-09-27 11:16:01.943277,-61
2021-09-27 11:16:01.943287,-78
2021-09-27 11:16:01.943297,-102
2021-09-27 11:16:02.167923,-68
2021-09-27 11:16:02.167955,-34
2021-09-27 11:16:02.167966,-39
2021-09-27 11:16:02.167976,-48
2021-09-27 11:16:02.167986,-56
2021-09-27 11:16:02.167996,-58
2021-09-27 11:16:02.168006,-58
2021-09-27 11:16:02.168016,-70
2021-09-27 11:16:02.168026,-85
2021-09-27 11:16:02.168035,-95
2021-09-27 11:16:02.168045,-85
2021-09-27 11:16:02.168055,-66
2021-09-27 11:16:02.168065,-78
2021-09-27 11:16:02.168074,-88
2021-09-27 11:16:02.168084,-75
2021-09-27 11:16:02.168094,-83
2021-09-27 11:16:02.168103,-156
2021-09-27 11:16:02.168113,-44
2021-09-27 11:16:02.168123,645
2021-09-27 11:16:02.168133,1697
2021-09-27 11:16:02.168143,2421
2021-09-27 11:16:02.168152,1873
2021-09-27 11:16:02.168162,-78
2021-09-27 11:16:02.168172,-1205
2021-09-27 11:16:02.168182,-511
2021-09-27 11:16:02.168191,-73
2021-09-27 11:16:02.168201,-352
2021-09-27 11:16:02.168211,-239
2021-09-27 11:16:02.168221,-26
2021-09-27 11:16:02.168230,-88
2021-09-27 11:16:02.436574,-88
2021-09-27 11:16:02.436599,0
2021-09-27 11:16:02.436607,9
2021-09-27 11:16:02.436614,-7
2021-09-27 11:16:02.436620,-2
2021-09-27 11:16:02.436659,22
2021-09-27 11:16:02.436665,56
2021-09-27 11:16:02.436671,92
2021-09-27 11:16:02.436677,117
2021-09-27 11:16:02.436683,117
2021-09-27 11:16:02.436690,144
2021-09-27 11:16:02.436696,215
2021-09-27 11:16:02.436702,261
2021-09-27 11:16:02.436708,269
2021-09-27 11:16:02.436715,295
2021-09-27 11:16:02.436721,349
2021-09-27 11:16:02.436727,405
2021-09-27 11:16:02.436733,471
2021-09-27 11:16:02.436740,533
2021-09-27 11:16:02.436746,589
2021-09-27 11:16:02.436752,655
2021-09-27 11:16:02.436758,718
2021-09-27 11:16:02.436764,758
2021-09-27 11:16:02.436771,760
2021-09-27 11:16:02.436777,721
2021-09-27 11:16:02.436805,657
2021-09-27 11:16:02.436812,523
2021-09-27 11:16:02.436818,273
2021-09-27 11:16:02.436824,22
2021-09-27 11:16:02.436831,-124
2021-09-27 11:16:02.572768,-212
2021-09-27 11:16:02.572791,-317
2021-09-27 11:16:02.572799,-403
2021-09-27 11:16:02.572805,-430
2021-09-27 11:16:02.572812,-432
2021-09-27 11:16:02.572818,-423
2021-09-27 11:16:02.572825,-413
2021-09-27 11:16:02.572831,-425
2021-09-27 11:16:02.572838,-418
2021-09-27 11:16:02.572844,-376
2021-09-27 11:16:02.572851,-352
2021-09-27 11:16:02.572857,-361
2021-09-27 11:16:02.572864,-376
2021-09-27 11:16:02.572870,-349
2021-09-27 11:16:02.572877,-298
2021-09-27 11:16:02.572883,-286
2021-09-27 11:16:02.572889,-291
2021-09-27 11:16:02.572896,-259
2021-09-27 11:16:02.572902,-239
2021-09-27 11:16:02.572909,-239
2021-09-27 11:16:02.572915,-217
2021-09-27 11:16:02.572922,-215
2021-09-27 11:16:02.572928,-256
2021-09-27 11:16:02.572935,-259
2021-09-27 11:16:02.572941,-212
2021-09-27 11:16:02.572947,-190
2021-09-27 11:16:02.572954,-195
2021-09-27 11:16:02.572960,-200
2021-09-27 11:16:02.572967,-198
2021-09-27 11:16:02.572974,-193
2021-09-27 11:16:02.842396,-198
2021-09-27 11:16:02.842428,-185
2021-09-27 11:16:02.842440,-154
2021-09-27 11:16:02.842450,-161
2021-09-27 11:16:02.842460,-195
2021-09-27 11:16:02.842470,-205
2021-09-27 11:16:02.842480,-193
2021-09-27 11:16:02.842490,-154
2021-09-27 11:16:02.842499,-132
2021-09-27 11:16:02.842509,-154
2021-09-27 11:16:02.842519,-166
2021-09-27 11:16:02.842529,-154
2021-09-27 11:16:02.842538,-122
2021-09-27 11:16:02.842548,-105
2021-09-27 11:16:02.842558,-151
2021-09-27 11:16:02.842568,-163
2021-09-27 11:16:02.842578,-105
2021-09-27 11:16:02.842588,-100
2021-09-27 11:16:02.842597,-114
2021-09-27 11:16:02.842607,-90
2021-09-27 11:16:02.842617,-88
2021-09-27 11:16:02.842626,-83
2021-09-27 11:16:02.842636,-70
2021-09-27 11:16:02.842646,-92
2021-09-27 11:16:02.842656,-112
2021-09-27 11:16:02.842665,-90
2021-09-27 11:16:02.842675,-75
2021-09-27 11:16:02.842685,-80
2021-09-27 11:16:02.842695,-75
2021-09-27 11:16:02.842704,-61
2021-09-27 11:16:03.112357,-34
2021-09-27 11:16:03.112389,2
2021-09-27 11:16:03.112401,0
2021-09-27 11:16:03.112411,-19
2021-09-27 11:16:03.112421,-39
2021-09-27 11:16:03.112431,-88
2021-09-27 11:16:03.112441,-105
2021-09-27 11:16:03.112451,-70
2021-09-27 11:16:03.112461,-78
2021-09-27 11:16:03.112470,-102
2021-09-27 11:16:03.112480,-68
2021-09-27 11:16:03.112490,-34
2021-09-27 11:16:03.112500,-34
2021-09-27 11:16:03.112510,-61
2021-09-27 11:16:03.112520,-139
2021-09-27 11:16:03.112530,-90
2021-09-27 11:16:03.112539,464
2021-09-27 11:16:03.112549,1467
2021-09-27 11:16:03.112559,2347
2021-09-27 11:16:03.112569,2178
2021-09-27 11:16:03.112579,425
2021-09-27 11:16:03.112589,-1093
2021-09-27 11:16:03.112599,-687
2021-09-27 11:16:03.112609,-41
2021-09-27 11:16:03.112618,-234
2021-09-27 11:16:03.112628,-229
2021-09-27 11:16:03.112638,-12
2021-09-27 11:16:03.112648,-66
2021-09-27 11:16:03.112658,-117
2021-09-27 11:16:03.112668,-14
2021-09-27 11:16:03.292880,17
2021-09-27 11:16:03.292903,-7
2021-09-27 11:16:03.292911,22
2021-09-27 11:16:03.292918,58
2021-09-27 11:16:03.292924,73
2021-09-27 11:16:03.292930,92
2021-09-27 11:16:03.292937,117
2021-09-27 11:16:03.292943,132
2021-09-27 11:16:03.292950,129
2021-09-27 11:16:03.292956,139
2021-09-27 11:16:03.292962,183
2021-09-27 11:16:03.292969,246
2021-09-27 11:16:03.292975,305
2021-09-27 11:16:03.292981,335
2021-09-27 11:16:03.292988,361
2021-09-27 11:16:03.292994,430
2021-09-27 11:16:03.293000,513
2021-09-27 11:16:03.293007,562
2021-09-27 11:16:03.293013,594
2021-09-27 11:16:03.293019,662
2021-09-27 11:16:03.293026,733
2021-09-27 11:16:03.293032,726
2021-09-27 11:16:03.293038,699
2021-09-27 11:16:03.293045,665
2021-09-27 11:16:03.293051,523
2021-09-27 11:16:03.293057,317
2021-09-27 11:16:03.293064,127
2021-09-27 11:16:03.293070,-36
2021-09-27 11:16:03.293076,-180
2021-09-27 11:16:03.293083,-300
2021-09-27 11:16:03.562294,-366
2021-09-27 11:16:03.562319,-374
2021-09-27 11:16:03.562326,-383
2021-09-27 11:16:03.562333,-401
2021-09-27 11:16:03.562338,-388
2021-09-27 11:16:03.562345,-381
2021-09-27 11:16:03.562350,-376
2021-09-27 11:16:03.562448,-364
2021-09-27 11:16:03.562460,-371
2021-09-27 11:16:03.562468,-354
2021-09-27 11:16:03.562476,-310
2021-09-27 11:16:03.562484,-288
2021-09-27 11:16:03.562491,-271
2021-09-27 11:16:03.562499,-264
2021-09-27 11:16:03.562507,-273
2021-09-27 11:16:03.562515,-251
2021-09-27 11:16:03.562523,-212
2021-09-27 11:16:03.562530,-234
2021-09-27 11:16:03.562538,-271
2021-09-27 11:16:03.562545,-222
2021-09-27 11:16:03.562553,-180
2021-09-27 11:16:03.562560,-200
2021-09-27 11:16:03.562568,-207
2021-09-27 11:16:03.562575,-180
2021-09-27 11:16:03.562583,-161
2021-09-27 11:16:03.562590,-178
2021-09-27 11:16:03.562608,-224
2021-09-27 11:16:03.562616,-232
2021-09-27 11:16:03.562624,-183
2021-09-27 11:16:03.562632,-166
2021-09-27 11:16:03.742649,-183
2021-09-27 11:16:03.742672,-176
2021-09-27 11:16:03.742680,-154
2021-09-27 11:16:03.742687,-144
2021-09-27 11:16:03.742693,-139
2021-09-27 11:16:03.742699,-129
2021-09-27 11:16:03.742706,-114
2021-09-27 11:16:03.742712,-119
2021-09-27 11:16:03.742718,-146
2021-09-27 11:16:03.742725,-151
2021-09-27 11:16:03.742731,-136
2021-09-27 11:16:03.742738,-132
2021-09-27 11:16:03.742744,-112
2021-09-27 11:16:03.742750,-83
2021-09-27 11:16:03.742757,-92
2021-09-27 11:16:03.742763,-92
2021-09-27 11:16:03.742769,-78
2021-09-27 11:16:03.742776,-112
2021-09-27 11:16:03.742782,-136
2021-09-27 11:16:03.742788,-114
2021-09-27 11:16:03.742795,-100
2021-09-27 11:16:03.742801,-90
2021-09-27 11:16:03.742808,-83
2021-09-27 11:16:03.742814,-80
2021-09-27 11:16:03.742820,-58
2021-09-27 11:16:03.742827,-46
2021-09-27 11:16:03.742833,-61
2021-09-27 11:16:03.742840,-41
2021-09-27 11:16:03.742846,-19
2021-09-27 11:16:03.742852,-51
2021-09-27 11:16:03.967858,-73
2021-09-27 11:16:03.967890,-58
2021-09-27 11:16:03.967901,-58
2021-09-27 11:16:03.967912,-80
2021-09-27 11:16:03.967921,-70
2021-09-27 11:16:03.967931,-29
2021-09-27 11:16:03.967940,-46
2021-09-27 11:16:03.967950,-105
2021-09-27 11:16:03.967960,-105
2021-09-27 11:16:03.967969,-90
2021-09-27 11:16:03.967979,-134
2021-09-27 11:16:03.967989,-129
2021-09-27 11:16:03.967998,246
2021-09-27 11:16:03.968008,1105
2021-09-27 11:16:03.968018,2076
2021-09-27 11:16:03.968027,2384
2021-09-27 11:16:03.968037,1102
2021-09-27 11:16:03.968047,-799
2021-09-27 11:16:03.968057,-995
2021-09-27 11:16:03.968066,-144
2021-09-27 11:16:03.968076,-112
2021-09-27 11:16:03.968086,-310
2021-09-27 11:16:03.968095,-97
2021-09-27 11:16:03.968105,-22
2021-09-27 11:16:03.968114,-100
2021-09-27 11:16:03.968124,-36
2021-09-27 11:16:03.968134,22
2021-09-27 11:16:03.968143,-17
2021-09-27 11:16:03.968153,-12
2021-09-27 11:16:03.968163,39
2021-09-27 11:16:04.192825,66
2021-09-27 11:16:04.192856,58
2021-09-27 11:16:04.192868,75
2021-09-27 11:16:04.192878,136
2021-09-27 11:16:04.192888,156
2021-09-27 11:16:04.192898,146
2021-09-27 11:16:04.192907,193
2021-09-27 11:16:04.192917,242
2021-09-27 11:16:04.192927,242
2021-09-27 11:16:04.192936,293
2021-09-27 11:16:04.192946,386
2021-09-27 11:16:04.192956,423
2021-09-27 11:16:04.192966,462
2021-09-27 11:16:04.192975,538
2021-09-27 11:16:04.192985,611
2021-09-27 11:16:04.192995,652
2021-09-27 11:16:04.193004,670
2021-09-27 11:16:04.193014,694
2021-09-27 11:16:04.193024,721
2021-09-27 11:16:04.193033,677
2021-09-27 11:16:04.193043,547
2021-09-27 11:16:04.193053,383
2021-09-27 11:16:04.193063,210
2021-09-27 11:16:04.193072,12
2021-09-27 11:16:04.193082,-149
2021-09-27 11:16:04.193092,-256
2021-09-27 11:16:04.193101,-344
2021-09-27 11:16:04.193111,-383
2021-09-27 11:16:04.193121,-391
2021-09-27 11:16:04.193130,-403
2021-09-27 11:16:04.461578,-403
2021-09-27 11:16:04.461611,-396
2021-09-27 11:16:04.461623,-396
2021-09-27 11:16:04.461634,-388
2021-09-27 11:16:04.461644,-361
2021-09-27 11:16:04.461654,-337
2021-09-27 11:16:04.461664,-322
2021-09-27 11:16:04.461674,-317
2021-09-27 11:16:04.461684,-322
2021-09-27 11:16:04.461694,-293
2021-09-27 11:16:04.461704,-251
2021-09-27 11:16:04.461713,-276
2021-09-27 11:16:04.461723,-291
2021-09-27 11:16:04.461733,-229
2021-09-27 11:16:04.461743,-207
2021-09-27 11:16:04.461753,-242
2021-09-27 11:16:04.461762,-249
2021-09-27 11:16:04.461772,-202
2021-09-27 11:16:04.461782,-151
2021-09-27 11:16:04.461792,-151
2021-09-27 11:16:04.461802,-205
2021-09-27 11:16:04.461825,-237
2021-09-27 11:16:04.461836,-195
2021-09-27 11:16:04.461846,-163
2021-09-27 11:16:04.461855,-180
2021-09-27 11:16:04.461865,-163
2021-09-27 11:16:04.461875,-151
2021-09-27 11:16:04.461885,-195
2021-09-27 11:16:04.461895,-178
2021-09-27 11:16:04.461905,-122
2021-09-27 11:16:04.687240,-144
2021-09-27 11:16:04.687273,-168
2021-09-27 11:16:04.687285,-124
2021-09-27 11:16:04.687295,-112
2021-09-27 11:16:04.687305,-173
2021-09-27 11:16:04.687315,-190
2021-09-27 11:16:04.687324,-141
2021-09-27 11:16:04.687334,-122
2021-09-27 11:16:04.687344,-136
2021-09-27 11:16:04.687353,-129
2021-09-27 11:16:04.687363,-141
2021-09-27 11:16:04.687372,-154
2021-09-27 11:16:04.687382,-107
2021-09-27 11:16:04.687392,-53
2021-09-27 11:16:04.687401,-100
2021-09-27 11:16:04.687411,-168
2021-09-27 11:16:04.687421,-119
2021-09-27 11:16:04.687431,-66
2021-09-27 11:16:04.687440,-107
2021-09-27 11:16:04.687450,-105
2021-09-27 11:16:04.687460,-39
2021-09-27 11:16:04.687469,-46
2021-09-27 11:16:04.687479,-107
2021-09-27 11:16:04.687488,-100
2021-09-27 11:16:04.687498,-66
2021-09-27 11:16:04.687508,-92
2021-09-27 11:16:04.687518,-102
2021-09-27 11:16:04.687527,-51
2021-09-27 11:16:04.687537,-31
2021-09-27 11:16:04.687547,-78
2021-09-27 11:16:04.958002,-95
2021-09-27 11:16:04.958034,-83
2021-09-27 11:16:04.958046,-117
2021-09-27 11:16:04.958055,-129
2021-09-27 11:16:04.958065,-83
2021-09-27 11:16:04.958075,-73
2021-09-27 11:16:04.958085,-119
2021-09-27 11:16:04.958094,-122
2021-09-27 11:16:04.958104,-112
2021-09-27 11:16:04.958113,-173
2021-09-27 11:16:04.958123,56
2021-09-27 11:16:04.958133,963
2021-09-27 11:16:04.958142,2068
2021-09-27 11:16:04.958152,2455
2021-09-27 11:16:04.958161,1293
2021-09-27 11:16:04.958171,-677
2021-09-27 11:16:04.958181,-1117
2021-09-27 11:16:04.958191,-273
2021-09-27 11:16:04.958200,-127
2021-09-27 11:16:04.958210,-320
2021-09-27 11:16:04.958220,-107
2021-09-27 11:16:04.958229,-14
2021-09-27 11:16:04.958239,-110
2021-09-27 11:16:04.958248,-75
2021-09-27 11:16:04.958258,12
2021-09-27 11:16:04.958268,41
2021-09-27 11:16:04.958277,26
2021-09-27 11:16:04.958287,-19
2021-09-27 11:16:04.958296,-4
2021-09-27 11:16:04.958306,88
2021-09-27 11:16:05.137960,144
2021-09-27 11:16:05.137983,110
2021-09-27 11:16:05.137990,90
2021-09-27 11:16:05.137996,178
2021-09-27 11:16:05.138003,266
2021-09-27 11:16:05.138009,264
2021-09-27 11:16:05.138016,264
2021-09-27 11:16:05.138022,330
2021-09-27 11:16:05.138028,413
2021-09-27 11:16:05.138035,467
2021-09-27 11:16:05.138041,513
2021-09-27 11:16:05.138047,589
2021-09-27 11:16:05.138054,682
2021-09-27 11:16:05.138060,699
2021-09-27 11:16:05.138066,692
2021-09-27 11:16:05.138073,787
2021-09-27 11:16:05.138079,855
2021-09-27 11:16:05.138086,745
2021-09-27 11:16:05.138092,564
2021-09-27 11:16:05.138098,418
2021-09-27 11:16:05.138105,234
2021-09-27 11:16:05.138111,0
2021-09-27 11:16:05.138118,-212
2021-09-27 11:16:05.138124,-335
2021-09-27 11:16:05.138130,-383
2021-09-27 11:16:05.138137,-425
2021-09-27 11:16:05.138143,-445
2021-09-27 11:16:05.138149,-423
2021-09-27 11:16:05.138156,-413
2021-09-27 11:16:05.138162,-445
2021-09-27 11:16:05.362905,-471
2021-09-27 11:16:05.362931,-452
2021-09-27 11:16:05.362939,-427
2021-09-27 11:16:05.362945,-418
2021-09-27 11:16:05.362952,-388
2021-09-27 11:16:05.362958,-352
2021-09-27 11:16:05.362964,-361
2021-09-27 11:16:05.362970,-401
2021-09-27 11:16:05.362977,-401
2021-09-27 11:16:05.362983,-347
2021-09-27 11:16:05.362989,-313
2021-09-27 11:16:05.362995,-310
2021-09-27 11:16:05.363002,-320
2021-09-27 11:16:05.363008,-320
2021-09-27 11:16:05.363014,-310
2021-09-27 11:16:05.363020,-315
2021-09-27 11:16:05.363027,-298
2021-09-27 11:16:05.363033,-239
2021-09-27 11:16:05.363039,-237
2021-09-27 11:16:05.363045,-271
2021-09-27 11:16:05.363052,-261
2021-09-27 11:16:05.363058,-259
2021-09-27 11:16:05.363064,-276
2021-09-27 11:16:05.363070,-242
2021-09-27 11:16:05.363077,-185
2021-09-27 11:16:05.363083,-210
2021-09-27 11:16:05.363089,-269
2021-09-27 11:16:05.363095,-266
2021-09-27 11:16:05.363102,-229
2021-09-27 11:16:05.363108,-224
2021-09-27 11:16:05.587460,-273
2021-09-27 11:16:05.587483,-322
2021-09-27 11:16:05.587491,-332
2021-09-27 11:16:05.587498,-344
2021-09-27 11:16:05.587505,-376
2021-09-27 11:16:05.587511,-393
2021-09-27 11:16:05.587518,-435
2021-09-27 11:16:05.587525,-508
2021-09-27 11:16:05.587531,-547
2021-09-27 11:16:05.587537,-613
2021-09-27 11:16:05.587544,-704
2021-09-27 11:16:05.587550,-714
2021-09-27 11:16:05.587557,-716
2021-09-27 11:16:05.587563,-758
2021-09-27 11:16:05.587569,-772
2021-09-27 11:16:05.587576,-836
2021-09-27 11:16:05.587582,-946
2021-09-27 11:16:05.587589,-963
2021-09-27 11:16:05.587595,-973
2021-09-27 11:16:05.587602,-1051
2021-09-27 11:16:05.587609,-1053
2021-09-27 11:16:05.587615,-1007
2021-09-27 11:16:05.587621,-1029
2021-09-27 11:16:05.587628,-1046
2021-09-27 11:16:05.587634,-1073
2021-09-27 11:16:05.587640,-1166
2021-09-27 11:16:05.587647,-1237
2021-09-27 11:16:05.587653,-1252
2021-09-27 11:16:05.587660,-1269
2021-09-27 11:16:05.587666,-1291
2021-09-27 11:16:05.812804,-1330
2021-09-27 11:16:05.812836,-1349
2021-09-27 11:16:05.812848,-1310
2021-09-27 11:16:05.812859,-1340
2021-09-27 11:16:05.812869,-1491
2021-09-27 11:16:05.812878,-1628
2021-09-27 11:16:05.812888,-1618
2021-09-27 11:16:05.812898,-1173
2021-09-27 11:16:05.812908,-161
2021-09-27 11:16:05.812918,934
2021-09-27 11:16:05.812928,1078
2021-09-27 11:16:05.812938,-528
2021-09-27 11:16:05.812948,-2301
2021-09-27 11:16:05.812958,-2161
2021-09-27 11:16:05.812967,-1415
2021-09-27 11:16:05.812977,-1445
2021-09-27 11:16:05.812987,-1357
2021-09-27 11:16:05.812997,-1061
2021-09-27 11:16:05.813007,-1085
2021-09-27 11:16:05.813017,-1117
2021-09-27 11:16:05.813026,-985
2021-09-27 11:16:05.813036,-912
2021-09-27 11:16:05.813046,-887
2021-09-27 11:16:05.813056,-841
2021-09-27 11:16:05.813066,-811
2021-09-27 11:16:05.813076,-802
2021-09-27 11:16:05.813086,-758
2021-09-27 11:16:05.813096,-699
2021-09-27 11:16:05.813105,-650
2021-09-27 11:16:05.813115,-577
2021-09-27 11:16:06.172817,-562
2021-09-27 11:16:06.172842,-635
2021-09-27 11:16:06.172850,-635
2021-09-27 11:16:06.172857,-635
2021-09-27 11:16:06.172863,-787
2021-09-27 11:16:06.172869,-939
2021-09-27 11:16:06.172875,-1024
2021-09-27 11:16:06.172882,-1083
2021-09-27 11:16:06.172888,-1120
2021-09-27 11:16:06.172926,-1232
2021-09-27 11:16:06.172932,-1384
2021-09-27 11:16:06.172938,-1477
2021-09-27 11:16:06.172945,-1604
2021-09-27 11:16:06.172951,-1838
2021-09-27 11:16:06.172957,-2152
2021-09-27 11:16:06.172963,-2518
2021-09-27 11:16:06.172969,-2973
2021-09-27 11:16:06.172976,-3501
2021-09-27 11:16:06.172982,-4015
2021-09-27 11:16:06.172988,-4352
2021-09-27 11:16:06.172994,-4450
2021-09-27 11:16:06.173000,-4480
2021-09-27 11:16:06.173006,-4538
2021-09-27 11:16:06.173013,-4565
2021-09-27 11:16:06.173019,-4560
2021-09-27 11:16:06.173025,-4487
2021-09-27 11:16:06.173031,-4284
2021-09-27 11:16:06.173038,-4037
2021-09-27 11:16:06.173044,-3797
2021-09-27 11:16:06.173050,-3521
2021-09-27 11:16:06.262992,-3225
2021-09-27 11:16:06.263024,-2927
2021-09-27 11:16:06.263035,-2653
2021-09-27 11:16:06.263045,-2425
2021-09-27 11:16:06.263055,-2220
2021-09-27 11:16:06.263065,-1997
2021-09-27 11:16:06.263074,-1733
2021-09-27 11:16:06.263084,-1494
2021-09-27 11:16:06.263094,-1330
2021-09-27 11:16:06.263103,-1181
2021-09-27 11:16:06.263113,-1002
2021-09-27 11:16:06.263123,-836
2021-09-27 11:16:06.263132,-704
2021-09-27 11:16:06.263142,-601
2021-09-27 11:16:06.263152,-506
2021-09-27 11:16:06.263161,-386
2021-09-27 11:16:06.263172,-249
2021-09-27 11:16:06.263182,-163
2021-09-27 11:16:06.263191,-149
2021-09-27 11:16:06.263201,-88
2021-09-27 11:16:06.263210,29
2021-09-27 11:16:06.263220,92
2021-09-27 11:16:06.263230,136
2021-09-27 11:16:06.263240,202
2021-09-27 11:16:06.263249,261
2021-09-27 11:16:06.263259,308
2021-09-27 11:16:06.263269,359
2021-09-27 11:16:06.263307,427
2021-09-27 11:16:06.263318,449
2021-09-27 11:16:06.263328,420
2021-09-27 11:16:06.531761,437
2021-09-27 11:16:06.531784,511
2021-09-27 11:16:06.531791,555
2021-09-27 11:16:06.531798,538
2021-09-27 11:16:06.531804,493
2021-09-27 11:16:06.531810,496
2021-09-27 11:16:06.531816,557
2021-09-27 11:16:06.531823,572
2021-09-27 11:16:06.531829,520
2021-09-27 11:16:06.531835,508
2021-09-27 11:16:06.531841,528
2021-09-27 11:16:06.531848,530
2021-09-27 11:16:06.531854,542
2021-09-27 11:16:06.531860,550
2021-09-27 11:16:06.531866,572
2021-09-27 11:16:06.531873,621
2021-09-27 11:16:06.531879,616
2021-09-27 11:16:06.531885,555
2021-09-27 11:16:06.531891,540
2021-09-27 11:16:06.531898,557
2021-09-27 11:16:06.531904,515
2021-09-27 11:16:06.531910,462
2021-09-27 11:16:06.531916,452
2021-09-27 11:16:06.531923,476
2021-09-27 11:16:06.531929,474
2021-09-27 11:16:06.531935,459
2021-09-27 11:16:06.531941,481
2021-09-27 11:16:06.531958,464
2021-09-27 11:16:06.531965,354
2021-09-27 11:16:06.531971,264
2021-09-27 11:16:06.712956,383
2021-09-27 11:16:06.712988,975
2021-09-27 11:16:06.713000,2002
2021-09-27 11:16:06.713010,2839
2021-09-27 11:16:06.713020,2477
2021-09-27 11:16:06.713030,562
2021-09-27 11:16:06.713041,-890
2021-09-27 11:16:06.713051,-401
2021-09-27 11:16:06.713061,195
2021-09-27 11:16:06.713071,-19
2021-09-27 11:16:06.713081,12
2021-09-27 11:16:06.713091,239
2021-09-27 11:16:06.713101,205
2021-09-27 11:16:06.713111,188
2021-09-27 11:16:06.713120,278
2021-09-27 11:16:06.713130,242
2021-09-27 11:16:06.713140,163
2021-09-27 11:16:06.713150,188
2021-09-27 11:16:06.713159,229
2021-09-27 11:16:06.713169,229
2021-09-27 11:16:06.713179,222
2021-09-27 11:16:06.713189,244
2021-09-27 11:16:06.713199,273
2021-09-27 11:16:06.713209,259
2021-09-27 11:16:06.713219,266
2021-09-27 11:16:06.713229,325
2021-09-27 11:16:06.713239,371
2021-09-27 11:16:06.713248,391
2021-09-27 11:16:06.713258,408
2021-09-27 11:16:06.713268,454
2021-09-27 11:16:06.982963,530
2021-09-27 11:16:06.982995,586
2021-09-27 11:16:06.983006,623
2021-09-27 11:16:06.983016,692
2021-09-27 11:16:06.983026,780
2021-09-27 11:16:06.983036,797
2021-09-27 11:16:06.983046,772
2021-09-27 11:16:06.983055,775
2021-09-27 11:16:06.983065,684
2021-09-27 11:16:06.983075,464
2021-09-27 11:16:06.983084,273
2021-09-27 11:16:06.983094,100
2021-09-27 11:16:06.983104,-124
2021-09-27 11:16:06.983114,-278
2021-09-27 11:16:06.983123,-357
2021-09-27 11:16:06.983133,-447
2021-09-27 11:16:06.983143,-479
2021-09-27 11:16:06.983152,-423
2021-09-27 11:16:06.983162,-398
2021-09-27 11:16:06.983172,-435
2021-09-27 11:16:06.983181,-457
2021-09-27 11:16:06.983191,-445
2021-09-27 11:16:06.983200,-425
2021-09-27 11:16:06.983210,-430
2021-09-27 11:16:06.983220,-447
2021-09-27 11:16:06.983229,-413
2021-09-27 11:16:06.983239,-342
2021-09-27 11:16:06.983249,-337
2021-09-27 11:16:06.983258,-337
2021-09-27 11:16:06.983268,-278
2021-09-27 11:16:07.207855,-266
2021-09-27 11:16:07.207878,-293
2021-09-27 11:16:07.207886,-271
2021-09-27 11:16:07.207892,-242
2021-09-27 11:16:07.207899,-264
2021-09-27 11:16:07.207905,-286
2021-09-27 11:16:07.207912,-269
2021-09-27 11:16:07.207918,-244
2021-09-27 11:16:07.207924,-254
2021-09-27 11:16:07.207930,-278
2021-09-27 11:16:07.207937,-251
2021-09-27 11:16:07.207943,-220
2021-09-27 11:16:07.207950,-266
2021-09-27 11:16:07.207956,-291
2021-09-27 11:16:07.207962,-251
2021-09-27 11:16:07.207969,-266
2021-09-27 11:16:07.207975,-286
2021-09-27 11:16:07.207981,-239
2021-09-27 11:16:07.207988,-237
2021-09-27 11:16:07.207994,-283
2021-09-27 11:16:07.208000,-264
2021-09-27 11:16:07.208007,-215
2021-09-27 11:16:07.208013,-246
2021-09-27 11:16:07.208019,-291
2021-09-27 11:16:07.208026,-256
2021-09-27 11:16:07.208032,-224
2021-09-27 11:16:07.208038,-227
2021-09-27 11:16:07.208045,-244
2021-09-27 11:16:07.208051,-232
2021-09-27 11:16:07.208057,-195
2021-09-27 11:16:07.432845,-190
2021-09-27 11:16:07.432867,-188
2021-09-27 11:16:07.432875,-176
2021-09-27 11:16:07.432881,-220
2021-09-27 11:16:07.432888,-259
2021-09-27 11:16:07.432894,-178
2021-09-27 11:16:07.432900,-78
2021-09-27 11:16:07.432907,-112
2021-09-27 11:16:07.432913,-200
2021-09-27 11:16:07.432919,-188
2021-09-27 11:16:07.432926,-105
2021-09-27 11:16:07.432932,-80
2021-09-27 11:16:07.432939,-151
2021-09-27 11:16:07.432945,-222
2021-09-27 11:16:07.432951,-193
2021-09-27 11:16:07.432957,-144
2021-09-27 11:16:07.432974,-139
2021-09-27 11:16:07.432981,-149
2021-09-27 11:16:07.432987,-139
2021-09-27 11:16:07.432994,-124
2021-09-27 11:16:07.433000,-134
2021-09-27 11:16:07.433006,-202
2021-09-27 11:16:07.433013,-293
2021-09-27 11:16:07.433019,-166
2021-09-27 11:16:07.433025,459
2021-09-27 11:16:07.433032,1523
2021-09-27 11:16:07.433038,2457
2021-09-27 11:16:07.433044,2161
2021-09-27 11:16:07.433051,158
2021-09-27 11:16:07.433057,-1369
2021-09-27 11:16:07.657850,-784
2021-09-27 11:16:07.657882,-122
2021-09-27 11:16:07.657894,-398
2021-09-27 11:16:07.657905,-379
2021-09-27 11:16:07.657915,-110
2021-09-27 11:16:07.657925,-146
2021-09-27 11:16:07.657935,-190
2021-09-27 11:16:07.657944,-102
2021-09-27 11:16:07.657954,-88
2021-09-27 11:16:07.657964,-97
2021-09-27 11:16:07.657973,-44
2021-09-27 11:16:07.657983,-19
2021-09-27 11:16:07.657993,-29
2021-09-27 11:16:07.658003,0
2021-09-27 11:16:07.658013,44
2021-09-27 11:16:07.658022,46
2021-09-27 11:16:07.658032,48
2021-09-27 11:16:07.658042,88
2021-09-27 11:16:07.658052,144
2021-09-27 11:16:07.658061,185
2021-09-27 11:16:07.658071,200
2021-09-27 11:16:07.658081,249
2021-09-27 11:16:07.658091,354
2021-09-27 11:16:07.658101,449
2021-09-27 11:16:07.658110,498
2021-09-27 11:16:07.658120,520
2021-09-27 11:16:07.658130,562
2021-09-27 11:16:07.658140,643
2021-09-27 11:16:07.658150,689
2021-09-27 11:16:07.658159,674
2021-09-27 11:16:07.882961,667
2021-09-27 11:16:07.882994,604
2021-09-27 11:16:07.883005,408
2021-09-27 11:16:07.883015,217
2021-09-27 11:16:07.883025,100
2021-09-27 11:16:07.883035,-88
2021-09-27 11:16:07.883045,-322
2021-09-27 11:16:07.883055,-437
2021-09-27 11:16:07.883064,-427
2021-09-27 11:16:07.883074,-425
2021-09-27 11:16:07.883084,-489
2021-09-27 11:16:07.883094,-528
2021-09-27 11:16:07.883104,-498
2021-09-27 11:16:07.883113,-474
2021-09-27 11:16:07.883123,-476
2021-09-27 11:16:07.883133,-459
2021-09-27 11:16:07.883142,-423
2021-09-27 11:16:07.883152,-401
2021-09-27 11:16:07.883162,-396
2021-09-27 11:16:07.883172,-369
2021-09-27 11:16:07.883181,-317
2021-09-27 11:16:07.883191,-320
2021-09-27 11:16:07.883201,-339
2021-09-27 11:16:07.883211,-291
2021-09-27 11:16:07.883220,-259
2021-09-27 11:16:07.883230,-261
2021-09-27 11:16:07.883240,-246
2021-09-27 11:16:07.883250,-232
2021-09-27 11:16:07.883259,-222
2021-09-27 11:16:07.883269,-220
2021-09-27 11:16:08.197466,-220
2021-09-27 11:16:08.197488,-210
2021-09-27 11:16:08.197496,-205
2021-09-27 11:16:08.197502,-215
2021-09-27 11:16:08.197508,-210
2021-09-27 11:16:08.197515,-176
2021-09-27 11:16:08.197521,-198
2021-09-27 11:16:08.197527,-264
2021-09-27 11:16:08.197533,-234
2021-09-27 11:16:08.197540,-190
2021-09-27 11:16:08.197546,-207
2021-09-27 11:16:08.197552,-202
2021-09-27 11:16:08.197558,-183
2021-09-27 11:16:08.197564,-195
2021-09-27 11:16:08.197571,-195
2021-09-27 11:16:08.197577,-163
2021-09-27 11:16:08.197583,-154
2021-09-27 11:16:08.197589,-178
2021-09-27 11:16:08.197595,-151
2021-09-27 11:16:08.197602,-117
2021-09-27 11:16:08.197608,-156
2021-09-27 11:16:08.197614,-176
2021-09-27 11:16:08.197620,-136
2021-09-27 11:16:08.197627,-139
2021-09-27 11:16:08.197633,-158
2021-09-27 11:16:08.197639,-134
2021-09-27 11:16:08.197646,-107
2021-09-27 11:16:08.197652,-85
2021-09-27 11:16:08.197658,-73
2021-09-27 11:16:08.197664,-75
2021-09-27 11:16:08.332939,-58
2021-09-27 11:16:08.332961,-80
2021-09-27 11:16:08.332969,-134
2021-09-27 11:16:08.332976,-139
2021-09-27 11:16:08.332982,-139
2021-09-27 11:16:08.332989,-139
2021-09-27 11:16:08.332995,-110
2021-09-27 11:16:08.333002,-110
2021-09-27 11:16:08.333008,-132
2021-09-27 11:16:08.333014,-97
2021-09-27 11:16:08.333021,-56
2021-09-27 11:16:08.333027,-146
2021-09-27 11:16:08.333034,-278
2021-09-27 11:16:08.333040,-149
2021-09-27 11:16:08.333047,457
2021-09-27 11:16:08.333053,1445
2021-09-27 11:16:08.333059,2362
2021-09-27 11:16:08.333066,2266
2021-09-27 11:16:08.333072,462
2021-09-27 11:16:08.333079,-1208
2021-09-27 11:16:08.333085,-848
2021-09-27 11:16:08.333092,-171
2021-09-27 11:16:08.333098,-359
2021-09-27 11:16:08.333104,-332
2021-09-27 11:16:08.333111,-78
2021-09-27 11:16:08.333117,-92
2021-09-27 11:16:08.333123,-112
2021-09-27 11:16:08.333130,-51
2021-09-27 11:16:08.333136,-85
2021-09-27 11:16:08.333143,-88
2021-09-27 11:16:08.646485,2
2021-09-27 11:16:08.646517,34
2021-09-27 11:16:08.646529,7
2021-09-27 11:16:08.646539,22
2021-09-27 11:16:08.646549,46
2021-09-27 11:16:08.646559,66
2021-09-27 11:16:08.646569,97
2021-09-27 11:16:08.646578,112
2021-09-27 11:16:08.646588,161
2021-09-27 11:16:08.646598,224
2021-09-27 11:16:08.646608,244
2021-09-27 11:16:08.646617,317
2021-09-27 11:16:08.646627,393
2021-09-27 11:16:08.646637,379
2021-09-27 11:16:08.646647,425
2021-09-27 11:16:08.646656,547
2021-09-27 11:16:08.646666,596
2021-09-27 11:16:08.646676,621
2021-09-27 11:16:08.646686,694
2021-09-27 11:16:08.646695,743
2021-09-27 11:16:08.646705,738
2021-09-27 11:16:08.646715,645
2021-09-27 11:16:08.646725,437
2021-09-27 11:16:08.646735,244
2021-09-27 11:16:08.646744,114
2021-09-27 11:16:08.646754,-68
2021-09-27 11:16:08.646764,-271
2021-09-27 11:16:08.646774,-379
2021-09-27 11:16:08.646784,-408
2021-09-27 11:16:08.646794,-415
2021-09-27 11:16:08.872926,-427
2021-09-27 11:16:08.872948,-445
2021-09-27 11:16:08.872956,-454
2021-09-27 11:16:08.872963,-452
2021-09-27 11:16:08.872969,-425
2021-09-27 11:16:08.872976,-408
2021-09-27 11:16:08.872982,-403
2021-09-27 11:16:08.872988,-398
2021-09-27 11:16:08.872995,-398
2021-09-27 11:16:08.873001,-369
2021-09-27 11:16:08.873007,-315
2021-09-27 11:16:08.873014,-293
2021-09-27 11:16:08.873020,-320
2021-09-27 11:16:08.873026,-320
2021-09-27 11:16:08.873033,-261
2021-09-27 11:16:08.873039,-239
2021-09-27 11:16:08.873045,-288
2021-09-27 11:16:08.873051,-293
2021-09-27 11:16:08.873058,-229
2021-09-27 11:16:08.873064,-220
2021-09-27 11:16:08.873071,-244
2021-09-27 11:16:08.873077,-215
2021-09-27 11:16:08.873083,-178
2021-09-27 11:16:08.873089,-205
2021-09-27 11:16:08.873096,-242
2021-09-27 11:16:08.873102,-210
2021-09-27 11:16:08.873108,-171
2021-09-27 11:16:08.873115,-185
2021-09-27 11:16:08.873121,-215
2021-09-27 11:16:08.873127,-210
2021-09-27 11:16:09.052918,-161
2021-09-27 11:16:09.052950,-146
2021-09-27 11:16:09.052962,-183
2021-09-27 11:16:09.052972,-185
2021-09-27 11:16:09.052982,-156
2021-09-27 11:16:09.052992,-146
2021-09-27 11:16:09.053002,-151
2021-09-27 11:16:09.053012,-166
2021-09-27 11:16:09.053021,-180
2021-09-27 11:16:09.053031,-185
2021-09-27 11:16:09.053041,-171
2021-09-27 11:16:09.053051,-154
2021-09-27 11:16:09.053060,-139
2021-09-27 11:16:09.053070,-124
2021-09-27 11:16:09.053080,-112
2021-09-27 11:16:09.053089,-114
2021-09-27 11:16:09.053099,-149
2021-09-27 11:16:09.053109,-132
2021-09-27 11:16:09.053118,-75
2021-09-27 11:16:09.053128,-90
2021-09-27 11:16:09.053138,-161
2021-09-27 11:16:09.053147,-176
2021-09-27 11:16:09.053157,-144
2021-09-27 11:16:09.053167,-141
2021-09-27 11:16:09.053177,-129
2021-09-27 11:16:09.053186,-92
2021-09-27 11:16:09.053196,-95
2021-09-27 11:16:09.053206,-151
2021-09-27 11:16:09.053215,-173
2021-09-27 11:16:09.053225,-154
2021-09-27 11:16:09.277930,-176
2021-09-27 11:16:09.277953,41
2021-09-27 11:16:09.277961,853
2021-09-27 11:16:09.277967,1956
2021-09-27 11:16:09.277974,2589
2021-09-27 11:16:09.277980,1675
2021-09-27 11:16:09.277986,-467
2021-09-27 11:16:09.277993,-1286
2021-09-27 11:16:09.277999,-486
2021-09-27 11:16:09.278005,-193
2021-09-27 11:16:09.278012,-357
2021-09-27 11:16:09.278018,-176
2021-09-27 11:16:09.278024,-68
2021-09-27 11:16:09.278031,-136
2021-09-27 11:16:09.278037,-100
2021-09-27 11:16:09.278043,-53
2021-09-27 11:16:09.278049,-80
2021-09-27 11:16:09.278056,-56
2021-09-27 11:16:09.278062,-7
2021-09-27 11:16:09.278068,2
2021-09-27 11:16:09.278075,9
2021-09-27 11:16:09.278081,34
2021-09-27 11:16:09.278087,66
2021-09-27 11:16:09.278094,107
2021-09-27 11:16:09.278100,141
2021-09-27 11:16:09.278107,173
2021-09-27 11:16:09.278123,212
2021-09-27 11:16:09.278130,261
2021-09-27 11:16:09.278136,308
2021-09-27 11:16:09.278143,361
2021-09-27 11:16:09.547274,423
2021-09-27 11:16:09.547305,459
2021-09-27 11:16:09.547317,498
2021-09-27 11:16:09.547327,586
2021-09-27 11:16:09.547337,674
2021-09-27 11:16:09.547347,726
2021-09-27 11:16:09.547356,745
2021-09-27 11:16:09.547366,745
2021-09-27 11:16:09.547376,706
2021-09-27 11:16:09.547385,594
2021-09-27 11:16:09.547395,403
2021-09-27 11:16:09.547405,202
2021-09-27 11:16:09.547415,4
2021-09-27 11:16:09.547424,-202
2021-09-27 11:16:09.547434,-315
2021-09-27 11:16:09.547444,-330
2021-09-27 11:16:09.547454,-388
2021-09-27 11:16:09.547464,-457
2021-09-27 11:16:09.547473,-442
2021-09-27 11:16:09.547483,-430
2021-09-27 11:16:09.547493,-430
2021-09-27 11:16:09.547502,-393
2021-09-27 11:16:09.547512,-376
2021-09-27 11:16:09.547522,-413
2021-09-27 11:16:09.547532,-427
2021-09-27 11:16:09.547541,-381
2021-09-27 11:16:09.547551,-335
2021-09-27 11:16:09.547561,-313
2021-09-27 11:16:09.547570,-295
2021-09-27 11:16:09.547580,-276
2021-09-27 11:16:09.728069,-261
2021-09-27 11:16:09.728102,-237
2021-09-27 11:16:09.728114,-202
2021-09-27 11:16:09.728125,-205
2021-09-27 11:16:09.728134,-244
2021-09-27 11:16:09.728144,-244
2021-09-27 11:16:09.728154,-220
2021-09-27 11:16:09.728163,-224
2021-09-27 11:16:09.728173,-220
2021-09-27 11:16:09.728183,-200
2021-09-27 11:16:09.728192,-193
2021-09-27 11:16:09.728202,-200
2021-09-27 11:16:09.728211,-205
2021-09-27 11:16:09.728221,-200
2021-09-27 11:16:09.728231,-180
2021-09-27 11:16:09.728241,-161
2021-09-27 11:16:09.728251,-178
2021-09-27 11:16:09.728260,-220
2021-09-27 11:16:09.728270,-224
2021-09-27 11:16:09.728280,-198
2021-09-27 11:16:09.728290,-171
2021-09-27 11:16:09.728299,-166
2021-09-27 11:16:09.728309,-176
2021-09-27 11:16:09.728319,-178
2021-09-27 11:16:09.728328,-166
2021-09-27 11:16:09.728338,-139
2021-09-27 11:16:09.728348,-117
2021-09-27 11:16:09.728358,-139
2021-09-27 11:16:09.728367,-188
2021-09-27 11:16:09.728377,-188
2021-09-27 11:16:09.952896,-144
2021-09-27 11:16:09.952918,-136
2021-09-27 11:16:09.952926,-127
2021-09-27 11:16:09.952932,-92
2021-09-27 11:16:09.952939,-102
2021-09-27 11:16:09.952945,-132
2021-09-27 11:16:09.952951,-141
2021-09-27 11:16:09.952958,-136
2021-09-27 11:16:09.952964,-114
2021-09-27 11:16:09.952970,-95
2021-09-27 11:16:09.952977,-134
2021-09-27 11:16:09.952983,-176
2021-09-27 11:16:09.952990,-151
2021-09-27 11:16:09.952996,-141
2021-09-27 11:16:09.953002,-163
2021-09-27 11:16:09.953009,-190
2021-09-27 11:16:09.953015,-198
2021-09-27 11:16:09.953021,119
2021-09-27 11:16:09.953028,963
2021-09-27 11:16:09.953034,1956
2021-09-27 11:16:09.953041,2389
2021-09-27 11:16:09.953047,1278
2021-09-27 11:16:09.953053,-716
2021-09-27 11:16:09.953060,-1127
2021-09-27 11:16:09.953066,-276
2021-09-27 11:16:09.953073,-183
2021-09-27 11:16:09.953079,-381
2021-09-27 11:16:09.953085,-168
2021-09-27 11:16:09.953092,-70
2021-09-27 11:16:09.953098,-124
2021-09-27 11:16:10.177989,-58
2021-09-27 11:16:10.178021,2
2021-09-27 11:16:10.178033,-31
2021-09-27 11:16:10.178043,-24
2021-09-27 11:16:10.178053,12
2021-09-27 11:16:10.178063,9
2021-09-27 11:16:10.178073,39
2021-09-27 11:16:10.178082,80
2021-09-27 11:16:10.178092,70
2021-09-27 11:16:10.178101,88
2021-09-27 11:16:10.178111,144
2021-09-27 11:16:10.178121,161
2021-09-27 11:16:10.178130,185
2021-09-27 11:16:10.178140,249
2021-09-27 11:16:10.178149,273
2021-09-27 11:16:10.178159,286
2021-09-27 11:16:10.178169,381
2021-09-27 11:16:10.178178,491
2021-09-27 11:16:10.178188,530
2021-09-27 11:16:10.178197,560
2021-09-27 11:16:10.178207,608
2021-09-27 11:16:10.178217,643
2021-09-27 11:16:10.178226,660
2021-09-27 11:16:10.178236,665
2021-09-27 11:16:10.178245,613
2021-09-27 11:16:10.178255,486
2021-09-27 11:16:10.178265,320
2021-09-27 11:16:10.178274,163
2021-09-27 11:16:10.178284,2
2021-09-27 11:16:10.178327,-168
2021-09-27 11:16:10.447091,-286
2021-09-27 11:16:10.447113,-342
2021-09-27 11:16:10.447121,-383
2021-09-27 11:16:10.447128,-401
2021-09-27 11:16:10.447134,-408
2021-09-27 11:16:10.447140,-413
2021-09-27 11:16:10.447146,-393
2021-09-27 11:16:10.447152,-374
2021-09-27 11:16:10.447159,-359
2021-09-27 11:16:10.447165,-344
2021-09-27 11:16:10.447171,-359
2021-09-27 11:16:10.447177,-361
2021-09-27 11:16:10.447183,-320
2021-09-27 11:16:10.447190,-276
2021-09-27 11:16:10.447196,-269
2021-09-27 11:16:10.447202,-269
2021-09-27 11:16:10.447208,-244
2021-09-27 11:16:10.447214,-210
2021-09-27 11:16:10.447221,-198
2021-09-27 11:16:10.447227,-215
2021-09-27 11:16:10.447233,-220
2021-09-27 11:16:10.447239,-200
2021-09-27 11:16:10.447246,-188
2021-09-27 11:16:10.447252,-185
2021-09-27 11:16:10.447258,-176
2021-09-27 11:16:10.447264,-161
2021-09-27 11:16:10.447271,-176
2021-09-27 11:16:10.447277,-210
2021-09-27 11:16:10.447283,-180
2021-09-27 11:16:10.447289,-114
2021-09-27 11:16:10.716506,-129
2021-09-27 11:16:10.716537,-180
2021-09-27 11:16:10.716549,-168
2021-09-27 11:16:10.716560,-144
2021-09-27 11:16:10.716570,-156
2021-09-27 11:16:10.716580,-139
2021-09-27 11:16:10.716589,-97
2021-09-27 11:16:10.716599,-117
2021-09-27 11:16:10.716609,-166
2021-09-27 11:16:10.716618,-168
2021-09-27 11:16:10.716628,-151
2021-09-27 11:16:10.716638,-139
2021-09-27 11:16:10.716647,-110
2021-09-27 11:16:10.716657,-83
2021-09-27 11:16:10.716667,-92
2021-09-27 11:16:10.716677,-97
2021-09-27 11:16:10.716686,-88
2021-09-27 11:16:10.716696,-90
2021-09-27 11:16:10.716706,-80
2021-09-27 11:16:10.716715,-61
2021-09-27 11:16:10.716725,-66
2021-09-27 11:16:10.716735,-78
2021-09-27 11:16:10.716745,-95
2021-09-27 11:16:10.716754,-124
2021-09-27 11:16:10.716764,-129
2021-09-27 11:16:10.716774,-102
2021-09-27 11:16:10.716783,-100
2021-09-27 11:16:10.716793,-127
2021-09-27 11:16:10.716803,-117
2021-09-27 11:16:10.716812,-105
2021-09-27 11:16:10.897974,-158
2021-09-27 11:16:10.898006,-220
2021-09-27 11:16:10.898018,-44
2021-09-27 11:16:10.898028,623
2021-09-27 11:16:10.898038,1609
2021-09-27 11:16:10.898048,2266
2021-09-27 11:16:10.898058,1682
2021-09-27 11:16:10.898067,-151
2021-09-27 11:16:10.898077,-1171
2021-09-27 11:16:10.898087,-542
2021-09-27 11:16:10.898097,-129
2021-09-27 11:16:10.898107,-335
2021-09-27 11:16:10.898116,-227
2021-09-27 11:16:10.898126,-51
2021-09-27 11:16:10.898136,-114
2021-09-27 11:16:10.898145,-129
2021-09-27 11:16:10.898155,-56
2021-09-27 11:16:10.898165,-39
2021-09-27 11:16:10.898175,-7
2021-09-27 11:16:10.898184,44
2021-09-27 11:16:10.898194,34
2021-09-27 11:16:10.898204,19
2021-09-27 11:16:10.898213,34
2021-09-27 11:16:10.898223,56
2021-09-27 11:16:10.898233,112
2021-09-27 11:16:10.898242,156
2021-09-27 11:16:10.898252,161
2021-09-27 11:16:10.898262,198
2021-09-27 11:16:10.898271,261
2021-09-27 11:16:10.898281,293
2021-09-27 11:16:11.122932,322
2021-09-27 11:16:11.122956,388
2021-09-27 11:16:11.122964,459
2021-09-27 11:16:11.122971,496
2021-09-27 11:16:11.122977,528
2021-09-27 11:16:11.122983,591
2021-09-27 11:16:11.122990,650
2021-09-27 11:16:11.122996,667
2021-09-27 11:16:11.123002,662
2021-09-27 11:16:11.123009,648
2021-09-27 11:16:11.123015,569
2021-09-27 11:16:11.123022,393
2021-09-27 11:16:11.123028,193
2021-09-27 11:16:11.123034,24
2021-09-27 11:16:11.123041,-129
2021-09-27 11:16:11.123047,-246
2021-09-27 11:16:11.123053,-298
2021-09-27 11:16:11.123060,-347
2021-09-27 11:16:11.123066,-393
2021-09-27 11:16:11.123072,-366
2021-09-27 11:16:11.123079,-335
2021-09-27 11:16:11.123085,-359
2021-09-27 11:16:11.123092,-374
2021-09-27 11:16:11.123098,-344
2021-09-27 11:16:11.123104,-315
2021-09-27 11:16:11.123110,-310
2021-09-27 11:16:11.123117,-310
2021-09-27 11:16:11.123123,-305
2021-09-27 11:16:11.123130,-283
2021-09-27 11:16:11.123136,-237
2021-09-27 11:16:11.347847,-205
2021-09-27 11:16:11.347879,-227
2021-09-27 11:16:11.347890,-232
2021-09-27 11:16:11.347900,-193
2021-09-27 11:16:11.347910,-180
2021-09-27 11:16:11.347920,-193
2021-09-27 11:16:11.347944,-195
2021-09-27 11:16:11.347954,-185
2021-09-27 11:16:11.347964,-180
2021-09-27 11:16:11.347974,-190
2021-09-27 11:16:11.347983,-198
2021-09-27 11:16:11.347993,-176
2021-09-27 11:16:11.348002,-149
2021-09-27 11:16:11.348012,-151
2021-09-27 11:16:11.348021,-171
2021-09-27 11:16:11.348031,-168
2021-09-27 11:16:11.348040,-136
2021-09-27 11:16:11.348050,-119
2021-09-27 11:16:11.348060,-136
2021-09-27 11:16:11.348069,-163
2021-09-27 11:16:11.348079,-158
2021-09-27 11:16:11.348088,-112
2021-09-27 11:16:11.348098,-90
2021-09-27 11:16:11.348107,-117
2021-09-27 11:16:11.348117,-129
2021-09-27 11:16:11.348127,-119
2021-09-27 11:16:11.348136,-105
2021-09-27 11:16:11.348146,-95
2021-09-27 11:16:11.348155,-105
2021-09-27 11:16:11.348165,-105
2021-09-27 11:16:11.572853,-78
2021-09-27 11:16:11.572884,-61
2021-09-27 11:16:11.572896,-66
2021-09-27 11:16:11.572906,-61
2021-09-27 11:16:11.572916,-51
2021-09-27 11:16:11.572926,-58
2021-09-27 11:16:11.572936,-78
2021-09-27 11:16:11.572946,-75
2021-09-27 11:16:11.572955,-70
2021-09-27 11:16:11.572965,-88
2021-09-27 11:16:11.572975,-97
2021-09-27 11:16:11.572984,-90
2021-09-27 11:16:11.572994,-90
2021-09-27 11:16:11.573004,-88
2021-09-27 11:16:11.573013,-83
2021-09-27 11:16:11.573023,-85
2021-09-27 11:16:11.573033,-75
2021-09-27 11:16:11.573043,-88
2021-09-27 11:16:11.573052,-168
2021-09-27 11:16:11.573062,-161
2021-09-27 11:16:11.573072,244
2021-09-27 11:16:11.573082,1110
2021-09-27 11:16:11.573091,2063
2021-09-27 11:16:11.573101,2284
2021-09-27 11:16:11.573110,892
2021-09-27 11:16:11.573120,-914
2021-09-27 11:16:11.573130,-936
2021-09-27 11:16:11.573140,-158
2021-09-27 11:16:11.573150,-217
2021-09-27 11:16:11.573160,-317
2021-09-27 11:16:11.842987,-68
2021-09-27 11:16:11.843019,-31
2021-09-27 11:16:11.843031,-107
2021-09-27 11:16:11.843041,-58
2021-09-27 11:16:11.843050,-29
2021-09-27 11:16:11.843060,-26
2021-09-27 11:16:11.843070,4
2021-09-27 11:16:11.843079,19
2021-09-27 11:16:11.843089,19
2021-09-27 11:16:11.843098,36
2021-09-27 11:16:11.843108,63
2021-09-27 11:16:11.843118,85
2021-09-27 11:16:11.843127,117
2021-09-27 11:16:11.843137,171
2021-09-27 11:16:11.843147,193
2021-09-27 11:16:11.843156,183
2021-09-27 11:16:11.843166,222
2021-09-27 11:16:11.843175,276
2021-09-27 11:16:11.843185,313
2021-09-27 11:16:11.843195,383
2021-09-27 11:16:11.843204,464
2021-09-27 11:16:11.843214,508
2021-09-27 11:16:11.843234,555
2021-09-27 11:16:11.843244,618
2021-09-27 11:16:11.843254,655
2021-09-27 11:16:11.843264,674
2021-09-27 11:16:11.843334,672
2021-09-27 11:16:11.843364,621
2021-09-27 11:16:11.843374,486
2021-09-27 11:16:11.843380,283
2021-09-27 11:16:12.022998,105
2021-09-27 11:16:12.023030,-7
2021-09-27 11:16:12.023042,-141
2021-09-27 11:16:12.023052,-276
2021-09-27 11:16:12.023062,-332
2021-09-27 11:16:12.023072,-359
2021-09-27 11:16:12.023082,-391
2021-09-27 11:16:12.023092,-383
2021-09-27 11:16:12.023102,-361
2021-09-27 11:16:12.023111,-344
2021-09-27 11:16:12.023121,-332
2021-09-27 11:16:12.023131,-332
2021-09-27 11:16:12.023141,-332
2021-09-27 11:16:12.023151,-317
2021-09-27 11:16:12.023161,-298
2021-09-27 11:16:12.023170,-273
2021-09-27 11:16:12.023181,-261
2021-09-27 11:16:12.023191,-251
2021-09-27 11:16:12.023200,-239
2021-09-27 11:16:12.023210,-227
2021-09-27 11:16:12.023220,-198
2021-09-27 11:16:12.023230,-188
2021-09-27 11:16:12.023240,-205
2021-09-27 11:16:12.023249,-190
2021-09-27 11:16:12.023259,-163
2021-09-27 11:16:12.023269,-178
2021-09-27 11:16:12.023279,-193
2021-09-27 11:16:12.023288,-158
2021-09-27 11:16:12.023298,-119
2021-09-27 11:16:12.023308,-129
2021-09-27 11:16:12.382430,-154
2021-09-27 11:16:12.382464,-149
2021-09-27 11:16:12.382476,-141
2021-09-27 11:16:12.382486,-136
2021-09-27 11:16:12.382496,-132
2021-09-27 11:16:12.382506,-134
2021-09-27 11:16:12.382516,-136
2021-09-27 11:16:12.382525,-144
2021-09-27 11:16:12.382535,-136
2021-09-27 11:16:12.382545,-114
2021-09-27 11:16:12.382555,-119
2021-09-27 11:16:12.382565,-129
2021-09-27 11:16:12.382575,-102
2021-09-27 11:16:12.382585,-100
2021-09-27 11:16:12.382595,-117
2021-09-27 11:16:12.382605,-102
2021-09-27 11:16:12.382614,-102
2021-09-27 11:16:12.382624,-119
2021-09-27 11:16:12.382634,-112
2021-09-27 11:16:12.382644,-105
2021-09-27 11:16:12.382654,-110
2021-09-27 11:16:12.382664,-107
2021-09-27 11:16:12.382673,-102
2021-09-27 11:16:12.382683,-90
2021-09-27 11:16:12.382693,-63
2021-09-27 11:16:12.382703,-44
2021-09-27 11:16:12.382713,-58
2021-09-27 11:16:12.382723,-70
2021-09-27 11:16:12.382733,-78
2021-09-27 11:16:12.382743,-102
2021-09-27 11:16:12.652298,-105
2021-09-27 11:16:12.652321,-70
2021-09-27 11:16:12.652328,-68
2021-09-27 11:16:12.652335,-97
2021-09-27 11:16:12.652341,-90
2021-09-27 11:16:12.652348,-66
2021-09-27 11:16:12.652354,-88
2021-09-27 11:16:12.652360,-171
2021-09-27 11:16:12.652367,-190
2021-09-27 11:16:12.652373,119
2021-09-27 11:16:12.652379,914
2021-09-27 11:16:12.652385,1919
2021-09-27 11:16:12.652392,2391
2021-09-27 11:16:12.652398,1323
2021-09-27 11:16:12.652404,-645
2021-09-27 11:16:12.652410,-1107
2021-09-27 11:16:12.652417,-300
2021-09-27 11:16:12.652423,-180
2021-09-27 11:16:12.652429,-364
2021-09-27 11:16:12.652435,-151
2021-09-27 11:16:12.652442,-53
2021-09-27 11:16:12.652448,-119
2021-09-27 11:16:12.652454,-46
2021-09-27 11:16:12.652460,7
2021-09-27 11:16:12.652467,-46
2021-09-27 11:16:12.652473,-34
2021-09-27 11:16:12.652479,14
2021-09-27 11:16:12.652486,9
2021-09-27 11:16:12.652492,31
2021-09-27 11:16:12.652498,80
2021-09-27 11:16:12.832140,105
2021-09-27 11:16:12.832172,122
2021-09-27 11:16:12.832183,154
2021-09-27 11:16:12.832193,202
2021-09-27 11:16:12.832203,234
2021-09-27 11:16:12.832212,249
2021-09-27 11:16:12.832222,295
2021-09-27 11:16:12.832231,364
2021-09-27 11:16:12.832241,413
2021-09-27 11:16:12.832250,452
2021-09-27 11:16:12.832260,501
2021-09-27 11:16:12.832269,584
2021-09-27 11:16:12.832279,677
2021-09-27 11:16:12.832288,709
2021-09-27 11:16:12.832298,692
2021-09-27 11:16:12.832307,679
2021-09-27 11:16:12.832317,645
2021-09-27 11:16:12.832326,515
2021-09-27 11:16:12.832336,313
2021-09-27 11:16:12.832346,151
2021-09-27 11:16:12.832355,14
2021-09-27 11:16:12.832365,-149
2021-09-27 11:16:12.832375,-266
2021-09-27 11:16:12.832384,-308
2021-09-27 11:16:12.832394,-347
2021-09-27 11:16:12.832403,-432
2021-09-27 11:16:12.832413,-479
2021-09-27 11:16:12.832423,-408
2021-09-27 11:16:12.832433,-339
2021-09-27 11:16:12.832442,-354
2021-09-27 11:16:12.967972,-381
2021-09-27 11:16:12.968003,-376
2021-09-27 11:16:12.968015,-359
2021-09-27 11:16:12.968025,-344
2021-09-27 11:16:12.968035,-313
2021-09-27 11:16:12.968044,-286
2021-09-27 11:16:12.968054,-278
2021-09-27 11:16:12.968064,-251
2021-09-27 11:16:12.968073,-232
2021-09-27 11:16:12.968083,-242
2021-09-27 11:16:12.968092,-227
2021-09-27 11:16:12.968102,-198
2021-09-27 11:16:12.968111,-188
2021-09-27 11:16:12.968121,-193
2021-09-27 11:16:12.968131,-198
2021-09-27 11:16:12.968140,-205
2021-09-27 11:16:12.968150,-207
2021-09-27 11:16:12.968159,-171
2021-09-27 11:16:12.968169,-136
2021-09-27 11:16:12.968178,-158
2021-09-27 11:16:12.968188,-161
2021-09-27 11:16:12.968197,-117
2021-09-27 11:16:12.968207,-127
2021-09-27 11:16:12.968216,-173
2021-09-27 11:16:12.968226,-161
2021-09-27 11:16:12.968236,-129
2021-09-27 11:16:12.968245,-136
2021-09-27 11:16:12.968255,-139
2021-09-27 11:16:12.968264,-117
2021-09-27 11:16:12.968274,-112
2021-09-27 11:16:13.192970,-124
2021-09-27 11:16:13.193003,-117
2021-09-27 11:16:13.193015,-90
2021-09-27 11:16:13.193025,-70
2021-09-27 11:16:13.193035,-66
2021-09-27 11:16:13.193044,-70
2021-09-27 11:16:13.193054,-95
2021-09-27 11:16:13.193064,-124
2021-09-27 11:16:13.193073,-107
2021-09-27 11:16:13.193083,-68
2021-09-27 11:16:13.193092,-53
2021-09-27 11:16:13.193102,-48
2021-09-27 11:16:13.193112,-58
2021-09-27 11:16:13.193121,-73
2021-09-27 11:16:13.193131,-46
2021-09-27 11:16:13.193140,-31
2021-09-27 11:16:13.193150,-83
2021-09-27 11:16:13.193174,-119
2021-09-27 11:16:13.193185,-83
2021-09-27 11:16:13.193195,-70
2021-09-27 11:16:13.193205,-92
2021-09-27 11:16:13.193214,-73
2021-09-27 11:16:13.193224,-44
2021-09-27 11:16:13.193233,-46
2021-09-27 11:16:13.193243,-90
2021-09-27 11:16:13.193253,-173
2021-09-27 11:16:13.193262,-168
2021-09-27 11:16:13.193272,224
2021-09-27 11:16:13.193282,1127
2021-09-27 11:16:13.193291,2132
2021-09-27 11:16:13.417990,2399
2021-09-27 11:16:13.418022,1012
2021-09-27 11:16:13.418034,-907
2021-09-27 11:16:13.418044,-1007
2021-09-27 11:16:13.418054,-185
2021-09-27 11:16:13.418063,-224
2021-09-27 11:16:13.418073,-347
2021-09-27 11:16:13.418082,-88
2021-09-27 11:16:13.418092,-29
2021-09-27 11:16:13.418101,-105
2021-09-27 11:16:13.418111,-53
2021-09-27 11:16:13.418121,0
2021-09-27 11:16:13.418130,2
2021-09-27 11:16:13.418140,9
2021-09-27 11:16:13.418150,9
2021-09-27 11:16:13.418159,19
2021-09-27 11:16:13.418169,70
2021-09-27 11:16:13.418178,119
2021-09-27 11:16:13.418188,112
2021-09-27 11:16:13.418197,127
2021-09-27 11:16:13.418207,200
2021-09-27 11:16:13.418217,232
2021-09-27 11:16:13.418226,227
2021-09-27 11:16:13.418236,251
2021-09-27 11:16:13.418245,317
2021-09-27 11:16:13.418255,379
2021-09-27 11:16:13.418265,437
2021-09-27 11:16:13.418274,528
2021-09-27 11:16:13.418284,613
2021-09-27 11:16:13.418294,660
2021-09-27 11:16:13.687567,709
2021-09-27 11:16:13.687587,745
2021-09-27 11:16:13.687595,740
2021-09-27 11:16:13.687601,721
2021-09-27 11:16:13.687608,670
2021-09-27 11:16:13.687614,530
2021-09-27 11:16:13.687621,322
2021-09-27 11:16:13.687627,124
2021-09-27 11:16:13.687634,-51
2021-09-27 11:16:13.687640,-202
2021-09-27 11:16:13.687647,-286
2021-09-27 11:16:13.687653,-320
2021-09-27 11:16:13.687659,-352
2021-09-27 11:16:13.687666,-374
2021-09-27 11:16:13.687672,-386
2021-09-27 11:16:13.687678,-364
2021-09-27 11:16:13.687685,-339
2021-09-27 11:16:13.687691,-361
2021-09-27 11:16:13.687697,-361
2021-09-27 11:16:13.687704,-310
2021-09-27 11:16:13.687710,-295
2021-09-27 11:16:13.687716,-320
2021-09-27 11:16:13.687722,-310
2021-09-27 11:16:13.687729,-266
2021-09-27 11:16:13.687735,-234
2021-09-27 11:16:13.687742,-222
2021-09-27 11:16:13.687748,-205
2021-09-27 11:16:13.687754,-176
2021-09-27 11:16:13.687761,-166
2021-09-27 11:16:13.687769,-166
2021-09-27 11:16:13.867270,-151
2021-09-27 11:16:13.867293,-166
2021-09-27 11:16:13.867300,-193
2021-09-27 11:16:13.867307,-166
2021-09-27 11:16:13.867314,-129
2021-09-27 11:16:13.867320,-134
2021-09-27 11:16:13.867327,-144
2021-09-27 11:16:13.867333,-112
2021-09-27 11:16:13.867339,-88
2021-09-27 11:16:13.867346,-139
2021-09-27 11:16:13.867352,-146
2021-09-27 11:16:13.867358,-92
2021-09-27 11:16:13.867365,-139
2021-09-27 11:16:13.867371,-188
2021-09-27 11:16:13.867377,-119
2021-09-27 11:16:13.867384,-68
2021-09-27 11:16:13.867390,-97
2021-09-27 11:16:13.867396,-124
2021-09-27 11:16:13.867403,-102
2021-09-27 11:16:13.867409,-66
2021-09-27 11:16:13.867415,-63
2021-09-27 11:16:13.867422,-78
2021-09-27 11:16:13.867428,-90
2021-09-27 11:16:13.867434,-107
2021-09-27 11:16:13.867441,-127
2021-09-27 11:16:13.867447,-129
2021-09-27 11:16:13.867453,-78
2021-09-27 11:16:13.867460,-34
2021-09-27 11:16:13.867466,-61
2021-09-27 11:16:13.867473,-48
2021-09-27 11:16:14.137227,12
2021-09-27 11:16:14.137259,-12
2021-09-27 11:16:14.137271,-85
2021-09-27 11:16:14.137281,-85
2021-09-27 11:16:14.137291,-39
2021-09-27 11:16:14.137301,-46
2021-09-27 11:16:14.137310,-105
2021-09-27 11:16:14.137320,-105
2021-09-27 11:16:14.137330,-46
2021-09-27 11:16:14.137340,-48
2021-09-27 11:16:14.137349,-107
2021-09-27 11:16:14.137359,-154
2021-09-27 11:16:14.137369,-190
2021-09-27 11:16:14.137378,-73
2021-09-27 11:16:14.137388,552
2021-09-27 11:16:14.137398,1606
2021-09-27 11:16:14.137408,2455
2021-09-27 11:16:14.137417,2090
2021-09-27 11:16:14.137427,178
2021-09-27 11:16:14.137437,-1173
2021-09-27 11:16:14.137447,-599
2021-09-27 11:16:14.137456,-68
2021-09-27 11:16:14.137466,-332
2021-09-27 11:16:14.137476,-264
2021-09-27 11:16:14.137498,-34
2021-09-27 11:16:14.137509,-58
2021-09-27 11:16:14.137519,-61
2021-09-27 11:16:14.137529,-22
2021-09-27 11:16:14.137538,-29
2021-09-27 11:16:14.137548,-2
2021-09-27 11:16:14.362856,31
2021-09-27 11:16:14.362917,41
2021-09-27 11:16:14.362930,61
2021-09-27 11:16:14.362940,78
2021-09-27 11:16:14.362950,92
2021-09-27 11:16:14.362959,132
2021-09-27 11:16:14.362969,171
2021-09-27 11:16:14.362979,193
2021-09-27 11:16:14.362988,242
2021-09-27 11:16:14.362998,286
2021-09-27 11:16:14.363008,278
2021-09-27 11:16:14.363017,313
2021-09-27 11:16:14.363027,405
2021-09-27 11:16:14.363037,469
2021-09-27 11:16:14.363047,518
2021-09-27 11:16:14.363056,586
2021-09-27 11:16:14.363072,645
2021-09-27 11:16:14.363082,684
2021-09-27 11:16:14.363091,721
2021-09-27 11:16:14.363101,750
2021-09-27 11:16:14.363111,738
2021-09-27 11:16:14.363121,630
2021-09-27 11:16:14.363130,432
2021-09-27 11:16:14.363140,207
2021-09-27 11:16:14.363150,19
2021-09-27 11:16:14.363160,-119
2021-09-27 11:16:14.363170,-242
2021-09-27 11:16:14.363180,-330
2021-09-27 11:16:14.363189,-369
2021-09-27 11:16:14.363199,-374
2021-09-27 11:16:14.587866,-369
2021-09-27 11:16:14.587898,-371
2021-09-27 11:16:14.587910,-376
2021-09-27 11:16:14.587920,-361
2021-09-27 11:16:14.587930,-352
2021-09-27 11:16:14.587939,-335
2021-09-27 11:16:14.587949,-310
2021-09-27 11:16:14.587959,-308
2021-09-27 11:16:14.587969,-303
2021-09-27 11:16:14.587978,-283
2021-09-27 11:16:14.587988,-259
2021-09-27 11:16:14.587998,-232
2021-09-27 11:16:14.588007,-212
2021-09-27 11:16:14.588017,-215
2021-09-27 11:16:14.588027,-205
2021-09-27 11:16:14.588037,-180
2021-09-27 11:16:14.588046,-158
2021-09-27 11:16:14.588056,-141
2021-09-27 11:16:14.588066,-146
2021-09-27 11:16:14.588076,-168
2021-09-27 11:16:14.588085,-161
2021-09-27 11:16:14.588095,-141
2021-09-27 11:16:14.588105,-136
2021-09-27 11:16:14.588115,-132
2021-09-27 11:16:14.588124,-122
2021-09-27 11:16:14.588134,-136
2021-09-27 11:16:14.588144,-154
2021-09-27 11:16:14.588153,-119
2021-09-27 11:16:14.588163,-75
2021-09-27 11:16:14.588173,-88
2021-09-27 11:16:14.856626,-114
2021-09-27 11:16:14.856659,-100
2021-09-27 11:16:14.856670,-100
2021-09-27 11:16:14.856680,-117
2021-09-27 11:16:14.856690,-107
2021-09-27 11:16:14.856700,-85
2021-09-27 11:16:14.856710,-90
2021-09-27 11:16:14.856719,-102
2021-09-27 11:16:14.856729,-100
2021-09-27 11:16:14.856739,-85
2021-09-27 11:16:14.856748,-83
2021-09-27 11:16:14.856758,-85
2021-09-27 11:16:14.856768,-51
2021-09-27 11:16:14.856777,-12
2021-09-27 11:16:14.856787,-39
2021-09-27 11:16:14.856796,-90
2021-09-27 11:16:14.856806,-75
2021-09-27 11:16:14.856816,-51
2021-09-27 11:16:14.856825,-68
2021-09-27 11:16:14.856835,-75
2021-09-27 11:16:14.856845,-75
2021-09-27 11:16:14.856854,-100
2021-09-27 11:16:14.856864,-105
2021-09-27 11:16:14.856873,-78
2021-09-27 11:16:14.856883,-66
2021-09-27 11:16:14.856893,-70
2021-09-27 11:16:14.856902,-73
2021-09-27 11:16:14.856912,-83
2021-09-27 11:16:14.856921,-112
2021-09-27 11:16:14.856931,-166
2021-09-27 11:16:15.037946,-183
2021-09-27 11:16:15.037968,156
2021-09-27 11:16:15.037976,1039
2021-09-27 11:16:15.037982,2081
2021-09-27 11:16:15.037989,2445
2021-09-27 11:16:15.037995,1151
2021-09-27 11:16:15.038001,-809
2021-09-27 11:16:15.038007,-1019
2021-09-27 11:16:15.038014,-200
2021-09-27 11:16:15.038020,-207
2021-09-27 11:16:15.038026,-352
2021-09-27 11:16:15.038033,-100
2021-09-27 11:16:15.038039,-56
2021-09-27 11:16:15.038045,-151
2021-09-27 11:16:15.038051,-83
2021-09-27 11:16:15.038057,-22
2021-09-27 11:16:15.038064,-36
2021-09-27 11:16:15.038070,-17
2021-09-27 11:16:15.038076,19
2021-09-27 11:16:15.038082,31
2021-09-27 11:16:15.038089,46
2021-09-27 11:16:15.038095,73
2021-09-27 11:16:15.038101,107
2021-09-27 11:16:15.038107,149
2021-09-27 11:16:15.038114,180
2021-09-27 11:16:15.038120,198
2021-09-27 11:16:15.038126,210
2021-09-27 11:16:15.038133,259
2021-09-27 11:16:15.038139,322
2021-09-27 11:16:15.038145,371
2021-09-27 11:16:15.262923,432
2021-09-27 11:16:15.262946,506
2021-09-27 11:16:15.262953,572
2021-09-27 11:16:15.262960,640
2021-09-27 11:16:15.262966,701
2021-09-27 11:16:15.262972,731
2021-09-27 11:16:15.262979,745
2021-09-27 11:16:15.262985,738
2021-09-27 11:16:15.262991,667
2021-09-27 11:16:15.262998,503
2021-09-27 11:16:15.263004,286
2021-09-27 11:16:15.263010,85
2021-09-27 11:16:15.263017,-73
2021-09-27 11:16:15.263023,-205
2021-09-27 11:16:15.263030,-300
2021-09-27 11:16:15.263036,-354
2021-09-27 11:16:15.263042,-379
2021-09-27 11:16:15.263048,-393
2021-09-27 11:16:15.263055,-396
2021-09-27 11:16:15.263061,-381
2021-09-27 11:16:15.263067,-371
2021-09-27 11:16:15.263074,-366
2021-09-27 11:16:15.263080,-357
2021-09-27 11:16:15.263086,-354
2021-09-27 11:16:15.263092,-352
2021-09-27 11:16:15.263099,-330
2021-09-27 11:16:15.263105,-303
2021-09-27 11:16:15.263112,-288
2021-09-27 11:16:15.263118,-271
2021-09-27 11:16:15.263124,-254
2021-09-27 11:16:15.533028,-239
2021-09-27 11:16:15.533060,-224
2021-09-27 11:16:15.533071,-210
2021-09-27 11:16:15.533081,-193
2021-09-27 11:16:15.533091,-185
2021-09-27 11:16:15.533101,-202
2021-09-27 11:16:15.533110,-207
2021-09-27 11:16:15.533120,-180
2021-09-27 11:16:15.533129,-163
2021-09-27 11:16:15.533139,-171
2021-09-27 11:16:15.533149,-171
2021-09-27 11:16:15.533158,-158
2021-09-27 11:16:15.533168,-163
2021-09-27 11:16:15.533178,-168
2021-09-27 11:16:15.533187,-156
2021-09-27 11:16:15.533197,-141
2021-09-27 11:16:15.533207,-139
2021-09-27 11:16:15.533216,-149
2021-09-27 11:16:15.533226,-151
2021-09-27 11:16:15.533236,-141
2021-09-27 11:16:15.533245,-127
2021-09-27 11:16:15.533255,-112
2021-09-27 11:16:15.533265,-105
2021-09-27 11:16:15.533274,-107
2021-09-27 11:16:15.533284,-107
2021-09-27 11:16:15.533294,-95
2021-09-27 11:16:15.533303,-95
2021-09-27 11:16:15.533313,-105
2021-09-27 11:16:15.533322,-102
2021-09-27 11:16:15.533332,-90
2021-09-27 11:16:15.712724,-73
2021-09-27 11:16:15.712746,-70
2021-09-27 11:16:15.712754,-83
2021-09-27 11:16:15.712760,-66
2021-09-27 11:16:15.712767,-44
2021-09-27 11:16:15.712773,-51
2021-09-27 11:16:15.712780,-66
2021-09-27 11:16:15.712786,-68
2021-09-27 11:16:15.712792,-75
2021-09-27 11:16:15.712798,-88
2021-09-27 11:16:15.712805,-90
2021-09-27 11:16:15.712811,-88
2021-09-27 11:16:15.712817,-88
2021-09-27 11:16:15.712824,-90
2021-09-27 11:16:15.712830,-92
2021-09-27 11:16:15.712836,-100
2021-09-27 11:16:15.712843,-158
2021-09-27 11:16:15.712849,-210
2021-09-27 11:16:15.712855,70
2021-09-27 11:16:15.712862,909
2021-09-27 11:16:15.712868,1975
2021-09-27 11:16:15.712874,2489
2021-09-27 11:16:15.712881,1411
2021-09-27 11:16:15.712887,-616
2021-09-27 11:16:15.712893,-1110
2021-09-27 11:16:15.712899,-271
2021-09-27 11:16:15.712906,-161
2021-09-27 11:16:15.712912,-383
2021-09-27 11:16:15.712918,-149
2021-09-27 11:16:15.712925,-22
2021-09-27 11:16:15.983022,-119
2021-09-27 11:16:15.983054,-100
2021-09-27 11:16:15.983066,-39
2021-09-27 11:16:15.983076,-39
2021-09-27 11:16:15.983086,-24
2021-09-27 11:16:15.983096,0
2021-09-27 11:16:15.983106,9
2021-09-27 11:16:15.983116,34
2021-09-27 11:16:15.983125,53
2021-09-27 11:16:15.983135,66
2021-09-27 11:16:15.983145,100
2021-09-27 11:16:15.983155,136
2021-09-27 11:16:15.983164,166
2021-09-27 11:16:15.983174,210
2021-09-27 11:16:15.983184,259
2021-09-27 11:16:15.983193,295
2021-09-27 11:16:15.983203,337
2021-09-27 11:16:15.983213,405
2021-09-27 11:16:15.983223,486
2021-09-27 11:16:15.983232,552
2021-09-27 11:16:15.983242,613
2021-09-27 11:16:15.983251,672
2021-09-27 11:16:15.983261,721
2021-09-27 11:16:15.983271,743
2021-09-27 11:16:15.983280,738
2021-09-27 11:16:15.983290,677
2021-09-27 11:16:15.983300,525
2021-09-27 11:16:15.983309,325
2021-09-27 11:16:15.983319,132
2021-09-27 11:16:15.983329,-39
2021-09-27 11:16:16.207248,-178
2021-09-27 11:16:16.207280,-273
2021-09-27 11:16:16.207292,-330
2021-09-27 11:16:16.207302,-369
2021-09-27 11:16:16.207312,-391
2021-09-27 11:16:16.207322,-383
2021-09-27 11:16:16.207331,-366
2021-09-27 11:16:16.207341,-369
2021-09-27 11:16:16.207351,-369
2021-09-27 11:16:16.207360,-349
2021-09-27 11:16:16.207370,-332
2021-09-27 11:16:16.207380,-322
2021-09-27 11:16:16.207389,-300
2021-09-27 11:16:16.207399,-281
2021-09-27 11:16:16.207408,-271
2021-09-27 11:16:16.207418,-266
2021-09-27 11:16:16.207428,-251
2021-09-27 11:16:16.207437,-224
2021-09-27 11:16:16.207447,-207
2021-09-27 11:16:16.207457,-200
2021-09-27 11:16:16.207466,-190
2021-09-27 11:16:16.207476,-178
2021-09-27 11:16:16.207485,-168
2021-09-27 11:16:16.207495,-158
2021-09-27 11:16:16.207505,-154
2021-09-27 11:16:16.207514,-144
2021-09-27 11:16:16.207538,-134
2021-09-27 11:16:16.207548,-134
2021-09-27 11:16:16.207558,-141
2021-09-27 11:16:16.207567,-141
2021-09-27 11:16:16.522927,-132
2021-09-27 11:16:16.522987,-119
2021-09-27 11:16:16.523032,-114
2021-09-27 11:16:16.523055,-117
2021-09-27 11:16:16.523067,-119
2021-09-27 11:16:16.523078,-119
2021-09-27 11:16:16.523089,-124
2021-09-27 11:16:16.523100,-117
2021-09-27 11:16:16.523112,-112
2021-09-27 11:16:16.523123,-124
2021-09-27 11:16:16.523135,-124
2021-09-27 11:16:16.523142,-110
2021-09-27 11:16:16.523148,-112
2021-09-27 11:16:16.523154,-114
2021-09-27 11:16:16.523161,-110
2021-09-27 11:16:16.523167,-110
2021-09-27 11:16:16.523173,-105
2021-09-27 11:16:16.523179,-95
2021-09-27 11:16:16.523185,-90
2021-09-27 11:16:16.523191,-83
2021-09-27 11:16:16.523198,-68
2021-09-27 11:16:16.523204,-73
2021-09-27 11:16:16.523210,-85
2021-09-27 11:16:16.523216,-68
2021-09-27 11:16:16.523222,-44
2021-09-27 11:16:16.523228,-44
2021-09-27 11:16:16.523235,-51
2021-09-27 11:16:16.523241,-46
2021-09-27 11:16:16.523247,-41
2021-09-27 11:16:16.523253,-41
2021-09-27 11:16:16.657852,-48
2021-09-27 11:16:16.657876,-66
2021-09-27 11:16:16.657884,-78
2021-09-27 11:16:16.657892,-80
2021-09-27 11:16:16.657899,-75
2021-09-27 11:16:16.657906,-66
2021-09-27 11:16:16.657914,-58
2021-09-27 11:16:16.657922,-51
2021-09-27 11:16:16.657930,-75
2021-09-27 11:16:16.657937,-158
2021-09-27 11:16:16.657944,-185
2021-09-27 11:16:16.657951,156
2021-09-27 11:16:16.657958,1017
2021-09-27 11:16:16.657965,2044
2021-09-27 11:16:16.657972,2474
2021-09-27 11:16:16.657978,1308
2021-09-27 11:16:16.657985,-677
2021-09-27 11:16:16.657992,-1031
2021-09-27 11:16:16.657998,-200
2021-09-27 11:16:16.658005,-146
2021-09-27 11:16:16.658011,-349
2021-09-27 11:16:16.658018,-119
2021-09-27 11:16:16.658024,-26
2021-09-27 11:16:16.658030,-110
2021-09-27 11:16:16.658037,-61
2021-09-27 11:16:16.658043,-7
2021-09-27 11:16:16.658050,-39
2021-09-27 11:16:16.658056,-19
2021-09-27 11:16:16.658062,36
2021-09-27 11:16:16.658069,48
2021-09-27 11:16:16.971641,53
2021-09-27 11:16:16.971706,90
2021-09-27 11:16:16.971717,114
2021-09-27 11:16:16.971728,122
2021-09-27 11:16:16.971737,149
2021-09-27 11:16:16.971747,188
2021-09-27 11:16:16.971757,224
2021-09-27 11:16:16.971767,256
2021-09-27 11:16:16.971776,295
2021-09-27 11:16:16.971786,349
2021-09-27 11:16:16.971796,418
2021-09-27 11:16:16.971806,481
2021-09-27 11:16:16.971815,535
2021-09-27 11:16:16.971825,579
2021-09-27 11:16:16.971835,630
2021-09-27 11:16:16.971844,682
2021-09-27 11:16:16.971854,699
2021-09-27 11:16:16.971864,687
2021-09-27 11:16:16.971874,638
2021-09-27 11:16:16.971883,518
2021-09-27 11:16:16.971893,339
2021-09-27 11:16:16.971903,149
2021-09-27 11:16:16.971913,-29
2021-09-27 11:16:16.971923,-168
2021-09-27 11:16:16.971932,-266
2021-09-27 11:16:16.971942,-332
2021-09-27 11:16:16.971952,-366
2021-09-27 11:16:16.971962,-379
2021-09-27 11:16:16.971972,-381
2021-09-27 11:16:16.971981,-381
2021-09-27 11:16:17.152608,-376
2021-09-27 11:16:17.152628,-357
2021-09-27 11:16:17.152636,-332
2021-09-27 11:16:17.152642,-322
2021-09-27 11:16:17.152649,-310
2021-09-27 11:16:17.152655,-281
2021-09-27 11:16:17.152661,-273
2021-09-27 11:16:17.152668,-281
2021-09-27 11:16:17.152674,-261
2021-09-27 11:16:17.152680,-232
2021-09-27 11:16:17.152687,-224
2021-09-27 11:16:17.152693,-212
2021-09-27 11:16:17.152699,-193
2021-09-27 11:16:17.152715,-185
2021-09-27 11:16:17.152722,-183
2021-09-27 11:16:17.152728,-173
2021-09-27 11:16:17.152735,-168
2021-09-27 11:16:17.152741,-161
2021-09-27 11:16:17.152747,-154
2021-09-27 11:16:17.152753,-156
2021-09-27 11:16:17.152760,-151
2021-09-27 11:16:17.152766,-141
2021-09-27 11:16:17.152772,-136
2021-09-27 11:16:17.152778,-134
2021-09-27 11:16:17.152784,-122
2021-09-27 11:16:17.152791,-114
2021-09-27 11:16:17.152797,-127
2021-09-27 11:16:17.152803,-132
2021-09-27 11:16:17.152809,-114
2021-09-27 11:16:17.152816,-107
2021-09-27 11:16:17.332923,-112
2021-09-27 11:16:17.332946,-107
2021-09-27 11:16:17.332954,-100
2021-09-27 11:16:17.332960,-102
2021-09-27 11:16:17.332967,-92
2021-09-27 11:16:17.332973,-83
2021-09-27 11:16:17.332979,-92
2021-09-27 11:16:17.332986,-97
2021-09-27 11:16:17.332992,-80
2021-09-27 11:16:17.332998,-66
2021-09-27 11:16:17.333004,-68
2021-09-27 11:16:17.333011,-66
2021-09-27 11:16:17.333017,-70
2021-09-27 11:16:17.333023,-75
2021-09-27 11:16:17.333030,-66
2021-09-27 11:16:17.333036,-48
2021-09-27 11:16:17.333042,-51
2021-09-27 11:16:17.333049,-73
2021-09-27 11:16:17.333055,-92
2021-09-27 11:16:17.333061,-85
2021-09-27 11:16:17.333068,-80
2021-09-27 11:16:17.333074,-75
2021-09-27 11:16:17.333080,-56
2021-09-27 11:16:17.333086,-46
2021-09-27 11:16:17.333093,-56
2021-09-27 11:16:17.333099,-56
2021-09-27 11:16:17.333106,-56
2021-09-27 11:16:17.333112,-68
2021-09-27 11:16:17.333118,-80
2021-09-27 11:16:17.333125,-85
2021-09-27 11:16:17.557989,-83
2021-09-27 11:16:17.558022,-75
2021-09-27 11:16:17.558034,-66
2021-09-27 11:16:17.558044,-53
2021-09-27 11:16:17.558053,-46
2021-09-27 11:16:17.558063,-63
2021-09-27 11:16:17.558073,-119
2021-09-27 11:16:17.558083,-180
2021-09-27 11:16:17.558092,-29
2021-09-27 11:16:17.558102,628
2021-09-27 11:16:17.558112,1660
2021-09-27 11:16:17.558121,2440
2021-09-27 11:16:17.558131,1971
2021-09-27 11:16:17.558141,31
2021-09-27 11:16:17.558151,-1168
2021-09-27 11:16:17.558160,-515
2021-09-27 11:16:17.558170,-48
2021-09-27 11:16:17.558180,-320
2021-09-27 11:16:17.558189,-224
2021-09-27 11:16:17.558199,-9
2021-09-27 11:16:17.558209,-73
2021-09-27 11:16:17.558219,-88
2021-09-27 11:16:17.558228,-9
2021-09-27 11:16:17.558238,-12
2021-09-27 11:16:17.558248,-14
2021-09-27 11:16:17.558257,31
2021-09-27 11:16:17.558267,46
2021-09-27 11:16:17.558277,51
2021-09-27 11:16:17.558286,80
2021-09-27 11:16:17.558296,105
2021-09-27 11:16:17.872382,117
2021-09-27 11:16:17.872414,151
2021-09-27 11:16:17.872426,188
2021-09-27 11:16:17.872436,215
2021-09-27 11:16:17.872446,249
2021-09-27 11:16:17.872455,293
2021-09-27 11:16:17.872465,337
2021-09-27 11:16:17.872475,391
2021-09-27 11:16:17.872484,454
2021-09-27 11:16:17.872494,520
2021-09-27 11:16:17.872503,574
2021-09-27 11:16:17.872513,621
2021-09-27 11:16:17.872522,679
2021-09-27 11:16:17.872532,733
2021-09-27 11:16:17.872542,743
2021-09-27 11:16:17.872552,701
2021-09-27 11:16:17.872562,618
2021-09-27 11:16:17.872571,481
2021-09-27 11:16:17.872581,288
2021-09-27 11:16:17.872591,80
2021-09-27 11:16:17.872601,-80
2021-09-27 11:16:17.872610,-198
2021-09-27 11:16:17.872620,-281
2021-09-27 11:16:17.872630,-330
2021-09-27 11:16:17.872639,-366
2021-09-27 11:16:17.872649,-388
2021-09-27 11:16:17.872659,-386
2021-09-27 11:16:17.872668,-388
2021-09-27 11:16:17.872678,-369
2021-09-27 11:16:17.872688,-339
2021-09-27 11:16:18.008020,-344
2021-09-27 11:16:18.008053,-339
2021-09-27 11:16:18.008064,-295
2021-09-27 11:16:18.008075,-286
2021-09-27 11:16:18.008084,-291
2021-09-27 11:16:18.008094,-259
2021-09-27 11:16:18.008104,-246
2021-09-27 11:16:18.008113,-249
2021-09-27 11:16:18.008123,-207
2021-09-27 11:16:18.008133,-183
2021-09-27 11:16:18.008143,-200
2021-09-27 11:16:18.008152,-185
2021-09-27 11:16:18.008162,-156
2021-09-27 11:16:18.008172,-161
2021-09-27 11:16:18.008181,-180
2021-09-27 11:16:18.008191,-188
2021-09-27 11:16:18.008201,-173
2021-09-27 11:16:18.008210,-158
2021-09-27 11:16:18.008220,-136
2021-09-27 11:16:18.008230,-127
2021-09-27 11:16:18.008240,-134
2021-09-27 11:16:18.008249,-141
2021-09-27 11:16:18.008259,-146
2021-09-27 11:16:18.008269,-146
2021-09-27 11:16:18.008278,-129
2021-09-27 11:16:18.008288,-112
2021-09-27 11:16:18.008298,-114
2021-09-27 11:16:18.008308,-110
2021-09-27 11:16:18.008317,-95
2021-09-27 11:16:18.008327,-122
2021-09-27 11:16:18.278024,-141
2021-09-27 11:16:18.278056,-92
2021-09-27 11:16:18.278068,-66
2021-09-27 11:16:18.278106,-110
2021-09-27 11:16:18.278117,-141
2021-09-27 11:16:18.278126,-124
2021-09-27 11:16:18.278136,-88
2021-09-27 11:16:18.278146,-78
2021-09-27 11:16:18.278155,-105
2021-09-27 11:16:18.278165,-117
2021-09-27 11:16:18.278175,-92
2021-09-27 11:16:18.278184,-95
2021-09-27 11:16:18.278194,-110
2021-09-27 11:16:18.278203,-80
2021-09-27 11:16:18.278213,-63
2021-09-27 11:16:18.278222,-83
2021-09-27 11:16:18.278232,-70
2021-09-27 11:16:18.278242,-53
2021-09-27 11:16:18.278251,-56
2021-09-27 11:16:18.278261,-51
2021-09-27 11:16:18.278271,-51
2021-09-27 11:16:18.278280,-41
2021-09-27 11:16:18.278290,-36
2021-09-27 11:16:18.278299,-73
2021-09-27 11:16:18.278309,-73
2021-09-27 11:16:18.278319,-22
2021-09-27 11:16:18.278328,-29
2021-09-27 11:16:18.278338,-70
2021-09-27 11:16:18.278347,-83
2021-09-27 11:16:18.278357,-80
2021-09-27 11:16:18.502954,-58
2021-09-27 11:16:18.502977,-39
2021-09-27 11:16:18.502984,-75
2021-09-27 11:16:18.502991,-161
2021-09-27 11:16:18.502997,-168
2021-09-27 11:16:18.503004,222
2021-09-27 11:16:18.503010,1105
2021-09-27 11:16:18.503016,2090
2021-09-27 11:16:18.503023,2452
2021-09-27 11:16:18.503029,1188
2021-09-27 11:16:18.503035,-777
2021-09-27 11:16:18.503041,-997
2021-09-27 11:16:18.503048,-173
2021-09-27 11:16:18.503054,-180
2021-09-27 11:16:18.503060,-347
2021-09-27 11:16:18.503067,-110
2021-09-27 11:16:18.503073,-31
2021-09-27 11:16:18.503079,-95
2021-09-27 11:16:18.503085,-39
2021-09-27 11:16:18.503092,19
2021-09-27 11:16:18.503098,4
2021-09-27 11:16:18.503104,9
2021-09-27 11:16:18.503111,46
2021-09-27 11:16:18.503117,53
2021-09-27 11:16:18.503123,53
2021-09-27 11:16:18.503130,85
2021-09-27 11:16:18.503136,112
2021-09-27 11:16:18.503143,144
2021-09-27 11:16:18.503149,224
2021-09-27 11:16:18.503155,264
2021-09-27 11:16:18.772963,244
2021-09-27 11:16:18.772986,269
2021-09-27 11:16:18.772994,317
2021-09-27 11:16:18.773001,364
2021-09-27 11:16:18.773007,437
2021-09-27 11:16:18.773014,518
2021-09-27 11:16:18.773020,577
2021-09-27 11:16:18.773026,638
2021-09-27 11:16:18.773033,706
2021-09-27 11:16:18.773039,736
2021-09-27 11:16:18.773045,762
2021-09-27 11:16:18.773052,787
2021-09-27 11:16:18.773058,721
2021-09-27 11:16:18.773064,564
2021-09-27 11:16:18.773070,386
2021-09-27 11:16:18.773077,198
2021-09-27 11:16:18.773083,17
2021-09-27 11:16:18.773089,-134
2021-09-27 11:16:18.773096,-254
2021-09-27 11:16:18.773102,-313
2021-09-27 11:16:18.773109,-335
2021-09-27 11:16:18.773115,-383
2021-09-27 11:16:18.773121,-405
2021-09-27 11:16:18.773127,-366
2021-09-27 11:16:18.773134,-369
2021-09-27 11:16:18.773140,-396
2021-09-27 11:16:18.773146,-349
2021-09-27 11:16:18.773153,-295
2021-09-27 11:16:18.773159,-305
2021-09-27 11:16:18.773165,-315
2021-09-27 11:16:18.995976,-283
2021-09-27 11:16:18.995997,-261
2021-09-27 11:16:18.996005,-266
2021-09-27 11:16:18.996012,-281
2021-09-27 11:16:18.996018,-251
2021-09-27 11:16:18.996025,-195
2021-09-27 11:16:18.996031,-195
2021-09-27 11:16:18.996037,-220
2021-09-27 11:16:18.996043,-193
2021-09-27 11:16:18.996049,-180
2021-09-27 11:16:18.996056,-207
2021-09-27 11:16:18.996062,-188
2021-09-27 11:16:18.996068,-149
2021-09-27 11:16:18.996075,-156
2021-09-27 11:16:18.996081,-163
2021-09-27 11:16:18.996087,-134
2021-09-27 11:16:18.996093,-124
2021-09-27 11:16:18.996100,-151
2021-09-27 11:16:18.996106,-149
2021-09-27 11:16:18.996112,-134
2021-09-27 11:16:18.996118,-161
2021-09-27 11:16:18.996125,-161
2021-09-27 11:16:18.996131,-117
2021-09-27 11:16:18.996137,-110
2021-09-27 11:16:18.996143,-127
2021-09-27 11:16:18.996161,-117
2021-09-27 11:16:18.996168,-117
2021-09-27 11:16:18.996175,-127
2021-09-27 11:16:18.996181,-105
2021-09-27 11:16:18.996187,-90
2021-09-27 11:16:19.177989,-107
2021-09-27 11:16:19.178022,-100
2021-09-27 11:16:19.178033,-73
2021-09-27 11:16:19.178043,-80
2021-09-27 11:16:19.178053,-117
2021-09-27 11:16:19.178062,-100
2021-09-27 11:16:19.178072,-44
2021-09-27 11:16:19.178082,-53
2021-09-27 11:16:19.178091,-105
2021-09-27 11:16:19.178101,-110
2021-09-27 11:16:19.178110,-83
2021-09-27 11:16:19.178120,-56
2021-09-27 11:16:19.178130,-63
2021-09-27 11:16:19.178139,-90
2021-09-27 11:16:19.178149,-51
2021-09-27 11:16:19.178159,-9
2021-09-27 11:16:19.178168,-46
2021-09-27 11:16:19.178178,-58
2021-09-27 11:16:19.178187,-39
2021-09-27 11:16:19.178197,-66
2021-09-27 11:16:19.178207,-70
2021-09-27 11:16:19.178216,-66
2021-09-27 11:16:19.178226,-85
2021-09-27 11:16:19.178235,-61
2021-09-27 11:16:19.178245,-7
2021-09-27 11:16:19.178254,-7
2021-09-27 11:16:19.178264,-61
2021-09-27 11:16:19.178274,-139
2021-09-27 11:16:19.178283,-171
2021-09-27 11:16:19.178293,80
2021-09-27 11:16:19.402981,841
2021-09-27 11:16:19.403013,1922
2021-09-27 11:16:19.403025,2589
2021-09-27 11:16:19.403035,1716
2021-09-27 11:16:19.403045,-347
2021-09-27 11:16:19.403055,-1107
2021-09-27 11:16:19.403065,-303
2021-09-27 11:16:19.403074,-78
2021-09-27 11:16:19.403084,-359
2021-09-27 11:16:19.403094,-176
2021-09-27 11:16:19.403103,-9
2021-09-27 11:16:19.403113,-114
2021-09-27 11:16:19.403123,-112
2021-09-27 11:16:19.403132,-19
2021-09-27 11:16:19.403142,-12
2021-09-27 11:16:19.403152,0
2021-09-27 11:16:19.403162,44
2021-09-27 11:16:19.403171,51
2021-09-27 11:16:19.403181,39
2021-09-27 11:16:19.403191,61
2021-09-27 11:16:19.403200,112
2021-09-27 11:16:19.403210,144
2021-09-27 11:16:19.403220,149
2021-09-27 11:16:19.403229,178
2021-09-27 11:16:19.403239,237
2021-09-27 11:16:19.403249,273
2021-09-27 11:16:19.403258,293
2021-09-27 11:16:19.403268,371
2021-09-27 11:16:19.403278,479
2021-09-27 11:16:19.403288,515
2021-09-27 11:16:19.672908,530
2021-09-27 11:16:19.672940,604
2021-09-27 11:16:19.672951,687
2021-09-27 11:16:19.672961,728
2021-09-27 11:16:19.672971,758
2021-09-27 11:16:19.672981,775
2021-09-27 11:16:19.672990,750
2021-09-27 11:16:19.673000,660
2021-09-27 11:16:19.673010,464
2021-09-27 11:16:19.673019,237
2021-09-27 11:16:19.673029,88
2021-09-27 11:16:19.673039,-63
2021-09-27 11:16:19.673048,-269
2021-09-27 11:16:19.673058,-374
2021-09-27 11:16:19.673068,-371
2021-09-27 11:16:19.673077,-374
2021-09-27 11:16:19.673087,-361
2021-09-27 11:16:19.673097,-364
2021-09-27 11:16:19.673106,-391
2021-09-27 11:16:19.673116,-352
2021-09-27 11:16:19.673126,-305
2021-09-27 11:16:19.673135,-361
2021-09-27 11:16:19.673145,-393
2021-09-27 11:16:19.673154,-327
2021-09-27 11:16:19.673164,-288
2021-09-27 11:16:19.673173,-286
2021-09-27 11:16:19.673184,-264
2021-09-27 11:16:19.673194,-256
2021-09-27 11:16:19.673203,-256
2021-09-27 11:16:19.673213,-205
2021-09-27 11:16:19.897399,-149
2021-09-27 11:16:19.897432,-161
2021-09-27 11:16:19.897443,-171
2021-09-27 11:16:19.897454,-156
2021-09-27 11:16:19.897463,-190
2021-09-27 11:16:19.897473,-200
2021-09-27 11:16:19.897482,-151
2021-09-27 11:16:19.897492,-168
2021-09-27 11:16:19.897502,-222
2021-09-27 11:16:19.897511,-171
2021-09-27 11:16:19.897521,-92
2021-09-27 11:16:19.897530,-134
2021-09-27 11:16:19.897540,-176
2021-09-27 11:16:19.897549,-132
2021-09-27 11:16:19.897559,-127
2021-09-27 11:16:19.897568,-166
2021-09-27 11:16:19.897578,-161
2021-09-27 11:16:19.897587,-136
2021-09-27 11:16:19.897597,-136
2021-09-27 11:16:19.897607,-136
2021-09-27 11:16:19.897616,-132
2021-09-27 11:16:19.897626,-136
2021-09-27 11:16:19.897636,-136
2021-09-27 11:16:19.897645,-122
2021-09-27 11:16:19.897655,-102
2021-09-27 11:16:19.897664,-95
2021-09-27 11:16:19.897674,-117
2021-09-27 11:16:19.897684,-102
2021-09-27 11:16:19.897693,-46
2021-09-27 11:16:19.897703,-56
2021-09-27 11:16:20.213073,-114
2021-09-27 11:16:20.213105,-97
2021-09-27 11:16:20.213117,-61
2021-09-27 11:16:20.213127,-85
2021-09-27 11:16:20.213137,-97
2021-09-27 11:16:20.213147,-70
2021-09-27 11:16:20.213156,-53
2021-09-27 11:16:20.213166,-39
2021-09-27 11:16:20.213175,-41
2021-09-27 11:16:20.213185,-66
2021-09-27 11:16:20.213194,-53
2021-09-27 11:16:20.213204,-36
2021-09-27 11:16:20.213213,-26
2021-09-27 11:16:20.213223,-7
2021-09-27 11:16:20.213233,-24
2021-09-27 11:16:20.213242,-48
2021-09-27 11:16:20.213266,-36
2021-09-27 11:16:20.213277,-36
2021-09-27 11:16:20.213286,-44
2021-09-27 11:16:20.213296,-31
2021-09-27 11:16:20.213305,-24
2021-09-27 11:16:20.213315,-26
2021-09-27 11:16:20.213325,-31
2021-09-27 11:16:20.213334,-53
2021-09-27 11:16:20.213344,-53
2021-09-27 11:16:20.213353,-31
2021-09-27 11:16:20.213363,-41
2021-09-27 11:16:20.213372,-107
2021-09-27 11:16:20.213382,-156
2021-09-27 11:16:20.213392,73
2021-09-27 11:16:20.347958,838
2021-09-27 11:16:20.348013,1912
2021-09-27 11:16:20.348021,2579
2021-09-27 11:16:20.348028,1768
2021-09-27 11:16:20.348034,-269
2021-09-27 11:16:20.348041,-1115
2021-09-27 11:16:20.348047,-366
2021-09-27 11:16:20.348053,-66
2021-09-27 11:16:20.348059,-286
2021-09-27 11:16:20.348066,-134
2021-09-27 11:16:20.348072,9
2021-09-27 11:16:20.348078,-63
2021-09-27 11:16:20.348084,-48
2021-09-27 11:16:20.348091,19
2021-09-27 11:16:20.348097,22
2021-09-27 11:16:20.348103,39
2021-09-27 11:16:20.348109,85
2021-09-27 11:16:20.348116,70
2021-09-27 11:16:20.348122,44
2021-09-27 11:16:20.348128,83
2021-09-27 11:16:20.348134,127
2021-09-27 11:16:20.348141,132
2021-09-27 11:16:20.348147,154
2021-09-27 11:16:20.348153,202
2021-09-27 11:16:20.348159,239
2021-09-27 11:16:20.348166,264
2021-09-27 11:16:20.348172,317
2021-09-27 11:16:20.348178,398
2021-09-27 11:16:20.348185,435
2021-09-27 11:16:20.348191,440
2021-09-27 11:16:20.572980,496
2021-09-27 11:16:20.573012,599
2021-09-27 11:16:20.573023,660
2021-09-27 11:16:20.573033,692
2021-09-27 11:16:20.573043,745
2021-09-27 11:16:20.573053,784
2021-09-27 11:16:20.573062,740
2021-09-27 11:16:20.573072,640
2021-09-27 11:16:20.573082,511
2021-09-27 11:16:20.573091,332
2021-09-27 11:16:20.573101,114
2021-09-27 11:16:20.573110,-85
2021-09-27 11:16:20.573120,-210
2021-09-27 11:16:20.573130,-298
2021-09-27 11:16:20.573139,-379
2021-09-27 11:16:20.573149,-401
2021-09-27 11:16:20.573159,-388
2021-09-27 11:16:20.573168,-391
2021-09-27 11:16:20.573178,-369
2021-09-27 11:16:20.573187,-342
2021-09-27 11:16:20.573197,-379
2021-09-27 11:16:20.573206,-408
2021-09-27 11:16:20.573216,-357
2021-09-27 11:16:20.573226,-305
2021-09-27 11:16:20.573235,-286
2021-09-27 11:16:20.573245,-266
2021-09-27 11:16:20.573254,-276
2021-09-27 11:16:20.573264,-286
2021-09-27 11:16:20.573274,-246
2021-09-27 11:16:20.573283,-207
2021-09-27 11:16:20.798009,-212
2021-09-27 11:16:20.798042,-202
2021-09-27 11:16:20.798054,-163
2021-09-27 11:16:20.798064,-171
2021-09-27 11:16:20.798074,-220
2021-09-27 11:16:20.798084,-222
2021-09-27 11:16:20.798094,-190
2021-09-27 11:16:20.798103,-178
2021-09-27 11:16:20.798113,-180
2021-09-27 11:16:20.798122,-180
2021-09-27 11:16:20.798132,-163
2021-09-27 11:16:20.798142,-134
2021-09-27 11:16:20.798151,-132
2021-09-27 11:16:20.798161,-141
2021-09-27 11:16:20.798170,-144
2021-09-27 11:16:20.798180,-176
2021-09-27 11:16:20.798190,-185
2021-09-27 11:16:20.798199,-154
2021-09-27 11:16:20.798209,-134
2021-09-27 11:16:20.798219,-132
2021-09-27 11:16:20.798228,-139
2021-09-27 11:16:20.798238,-134
2021-09-27 11:16:20.798248,-85
2021-09-27 11:16:20.798257,-58
2021-09-27 11:16:20.798267,-83
2021-09-27 11:16:20.798277,-92
2021-09-27 11:16:20.798287,-95
2021-09-27 11:16:20.798296,-112
2021-09-27 11:16:20.798306,-88
2021-09-27 11:16:20.798316,-73
2021-09-27 11:16:21.066657,-132
2021-09-27 11:16:21.066689,-149
2021-09-27 11:16:21.066701,-58
2021-09-27 11:16:21.066711,-14
2021-09-27 11:16:21.066721,-75
2021-09-27 11:16:21.066731,-92
2021-09-27 11:16:21.066741,-56
2021-09-27 11:16:21.066751,-56
2021-09-27 11:16:21.066761,-61
2021-09-27 11:16:21.066770,-41
2021-09-27 11:16:21.066780,-31
2021-09-27 11:16:21.066790,-36
2021-09-27 11:16:21.066800,-44
2021-09-27 11:16:21.066810,-41
2021-09-27 11:16:21.066819,-26
2021-09-27 11:16:21.066829,-29
2021-09-27 11:16:21.066839,-56
2021-09-27 11:16:21.066849,-58
2021-09-27 11:16:21.066859,-26
2021-09-27 11:16:21.066868,-22
2021-09-27 11:16:21.066878,-44
2021-09-27 11:16:21.066888,-48
2021-09-27 11:16:21.066898,-44
2021-09-27 11:16:21.066907,-34
2021-09-27 11:16:21.066917,-19
2021-09-27 11:16:21.066927,-4
2021-09-27 11:16:21.066936,-70
2021-09-27 11:16:21.066946,-198
2021-09-27 11:16:21.066956,-48
2021-09-27 11:16:21.066966,645
2021-09-27 11:16:21.337572,1672
2021-09-27 11:16:21.337597,2482
2021-09-27 11:16:21.337605,2073
2021-09-27 11:16:21.337612,127
2021-09-27 11:16:21.337618,-1132
2021-09-27 11:16:21.337624,-498
2021-09-27 11:16:21.337631,-39
2021-09-27 11:16:21.337637,-322
2021-09-27 11:16:21.337643,-210
2021-09-27 11:16:21.337650,14
2021-09-27 11:16:21.337656,-56
2021-09-27 11:16:21.337662,-78
2021-09-27 11:16:21.337668,-19
2021-09-27 11:16:21.337675,-22
2021-09-27 11:16:21.337681,24
2021-09-27 11:16:21.337687,78
2021-09-27 11:16:21.337694,53
2021-09-27 11:16:21.337700,61
2021-09-27 11:16:21.337706,107
2021-09-27 11:16:21.337712,124
2021-09-27 11:16:21.337719,139
2021-09-27 11:16:21.337725,183
2021-09-27 11:16:21.337731,222
2021-09-27 11:16:21.337737,198
2021-09-27 11:16:21.337744,188
2021-09-27 11:16:21.337750,317
2021-09-27 11:16:21.337756,430
2021-09-27 11:16:21.337762,420
2021-09-27 11:16:21.337769,449
2021-09-27 11:16:21.337775,552
2021-09-27 11:16:21.472908,630
2021-09-27 11:16:21.472940,679
2021-09-27 11:16:21.472952,684
2021-09-27 11:16:21.472962,657
2021-09-27 11:16:21.472972,682
2021-09-27 11:16:21.472982,723
2021-09-27 11:16:21.472991,701
2021-09-27 11:16:21.473001,574
2021-09-27 11:16:21.473011,352
2021-09-27 11:16:21.473020,136
2021-09-27 11:16:21.473030,-12
2021-09-27 11:16:21.473040,-132
2021-09-27 11:16:21.473050,-281
2021-09-27 11:16:21.473060,-408
2021-09-27 11:16:21.473069,-427
2021-09-27 11:16:21.473079,-415
2021-09-27 11:16:21.473089,-423
2021-09-27 11:16:21.473098,-401
2021-09-27 11:16:21.473108,-374
2021-09-27 11:16:21.473117,-359
2021-09-27 11:16:21.473127,-335
2021-09-27 11:16:21.473137,-325
2021-09-27 11:16:21.473146,-330
2021-09-27 11:16:21.473156,-332
2021-09-27 11:16:21.473166,-317
2021-09-27 11:16:21.473176,-288
2021-09-27 11:16:21.473185,-281
2021-09-27 11:16:21.473195,-295
2021-09-27 11:16:21.473205,-300
2021-09-27 11:16:21.473215,-271
2021-09-27 11:16:21.697983,-222
2021-09-27 11:16:21.698015,-188
2021-09-27 11:16:21.698027,-188
2021-09-27 11:16:21.698037,-200
2021-09-27 11:16:21.698047,-212
2021-09-27 11:16:21.698056,-210
2021-09-27 11:16:21.698066,-188
2021-09-27 11:16:21.698076,-193
2021-09-27 11:16:21.698085,-215
2021-09-27 11:16:21.698095,-205
2021-09-27 11:16:21.698104,-207
2021-09-27 11:16:21.698114,-207
2021-09-27 11:16:21.698123,-178
2021-09-27 11:16:21.698133,-168
2021-09-27 11:16:21.698142,-166
2021-09-27 11:16:21.698152,-139
2021-09-27 11:16:21.698161,-129
2021-09-27 11:16:21.698524,-146
2021-09-27 11:16:21.698531,-129
2021-09-27 11:16:21.698538,-114
2021-09-27 11:16:21.698544,-139
2021-09-27 11:16:21.698550,-141
2021-09-27 11:16:21.698556,-124
2021-09-27 11:16:21.698562,-112
2021-09-27 11:16:21.698569,-92
2021-09-27 11:16:21.698575,-90
2021-09-27 11:16:21.698581,-100
2021-09-27 11:16:21.698587,-88
2021-09-27 11:16:21.698594,-80
2021-09-27 11:16:21.698600,-80
2021-09-27 11:16:21.967999,-63
2021-09-27 11:16:21.968030,-63
2021-09-27 11:16:21.968042,-97
2021-09-27 11:16:21.968052,-95
2021-09-27 11:16:21.968062,-56
2021-09-27 11:16:21.968072,-53
2021-09-27 11:16:21.968081,-48
2021-09-27 11:16:21.968091,-17
2021-09-27 11:16:21.968101,-44
2021-09-27 11:16:21.968110,-88
2021-09-27 11:16:21.968120,-90
2021-09-27 11:16:21.968129,-97
2021-09-27 11:16:21.968139,-102
2021-09-27 11:16:21.968149,-80
2021-09-27 11:16:21.968159,-68
2021-09-27 11:16:21.968169,-68
2021-09-27 11:16:21.968178,-48
2021-09-27 11:16:21.968188,-46
2021-09-27 11:16:21.968198,-119
2021-09-27 11:16:21.968207,-195
2021-09-27 11:16:21.968217,-95
2021-09-27 11:16:21.968227,403
2021-09-27 11:16:21.968237,1325
2021-09-27 11:16:21.968246,2252
2021-09-27 11:16:21.968256,2286
2021-09-27 11:16:21.968266,682
2021-09-27 11:16:21.968294,-1002
2021-09-27 11:16:21.968305,-775
2021-09-27 11:16:21.968315,-78
2021-09-27 11:16:21.968324,-249
2021-09-27 11:16:22.237983,-291
2021-09-27 11:16:22.238006,-39
2021-09-27 11:16:22.238013,-46
2021-09-27 11:16:22.238020,-110
2021-09-27 11:16:22.238026,-26
2021-09-27 11:16:22.238053,14
2021-09-27 11:16:22.238060,2
2021-09-27 11:16:22.238067,41
2021-09-27 11:16:22.238073,58
2021-09-27 11:16:22.238079,34
2021-09-27 11:16:22.238085,48
2021-09-27 11:16:22.238092,97
2021-09-27 11:16:22.238098,124
2021-09-27 11:16:22.238104,144
2021-09-27 11:16:22.238111,171
2021-09-27 11:16:22.238117,193
2021-09-27 11:16:22.238123,227
2021-09-27 11:16:22.238130,276
2021-09-27 11:16:22.238136,322
2021-09-27 11:16:22.238142,374
2021-09-27 11:16:22.238149,430
2021-09-27 11:16:22.238155,491
2021-09-27 11:16:22.238161,557
2021-09-27 11:16:22.238168,628
2021-09-27 11:16:22.238174,684
2021-09-27 11:16:22.238180,723
2021-09-27 11:16:22.238187,750
2021-09-27 11:16:22.238193,745
2021-09-27 11:16:22.238199,687
2021-09-27 11:16:22.238206,562
2021-09-27 11:16:22.417971,381
2021-09-27 11:16:22.418002,178
2021-09-27 11:16:22.418014,-14
2021-09-27 11:16:22.418024,-163
2021-09-27 11:16:22.418034,-261
2021-09-27 11:16:22.418044,-330
2021-09-27 11:16:22.418053,-371
2021-09-27 11:16:22.418063,-388
2021-09-27 11:16:22.418072,-401
2021-09-27 11:16:22.418082,-401
2021-09-27 11:16:22.418092,-383
2021-09-27 11:16:22.418101,-369
2021-09-27 11:16:22.418111,-359
2021-09-27 11:16:22.418120,-342
2021-09-27 11:16:22.418130,-332
2021-09-27 11:16:22.418139,-330
2021-09-27 11:16:22.418149,-310
2021-09-27 11:16:22.418159,-286
2021-09-27 11:16:22.418169,-273
2021-09-27 11:16:22.418178,-264
2021-09-27 11:16:22.418188,-254
2021-09-27 11:16:22.418197,-244
2021-09-27 11:16:22.418207,-227
2021-09-27 11:16:22.418216,-212
2021-09-27 11:16:22.418226,-205
2021-09-27 11:16:22.418235,-202
2021-09-27 11:16:22.418245,-205
2021-09-27 11:16:22.418254,-200
2021-09-27 11:16:22.418264,-190
2021-09-27 11:16:22.418273,-185
2021-09-27 11:16:22.643030,-185
2021-09-27 11:16:22.643062,-183
2021-09-27 11:16:22.643074,-180
2021-09-27 11:16:22.643084,-180
2021-09-27 11:16:22.643094,-180
2021-09-27 11:16:22.643104,-176
2021-09-27 11:16:22.643113,-173
2021-09-27 11:16:22.643123,-183
2021-09-27 11:16:22.643132,-180
2021-09-27 11:16:22.643142,-166
2021-09-27 11:16:22.643151,-156
2021-09-27 11:16:22.643161,-151
2021-09-27 11:16:22.643170,-139
2021-09-27 11:16:22.643180,-139
2021-09-27 11:16:22.643190,-146
2021-09-27 11:16:22.643199,-139
2021-09-27 11:16:22.643209,-124
2021-09-27 11:16:22.643218,-119
2021-09-27 11:16:22.643228,-122
2021-09-27 11:16:22.643237,-117
2021-09-27 11:16:22.643247,-107
2021-09-27 11:16:22.643256,-105
2021-09-27 11:16:22.643266,-102
2021-09-27 11:16:22.643275,-92
2021-09-27 11:16:22.643285,-85
2021-09-27 11:16:22.643294,-83
2021-09-27 11:16:22.643304,-80
2021-09-27 11:16:22.643314,-75
2021-09-27 11:16:22.643323,-73
2021-09-27 11:16:22.643333,-66
2021-09-27 11:16:22.868032,-53
2021-09-27 11:16:22.868064,-46
2021-09-27 11:16:22.868076,-36
2021-09-27 11:16:22.868085,-41
2021-09-27 11:16:22.868095,-56
2021-09-27 11:16:22.868105,-58
2021-09-27 11:16:22.868115,-73
2021-09-27 11:16:22.868125,-95
2021-09-27 11:16:22.868135,-88
2021-09-27 11:16:22.868144,-78
2021-09-27 11:16:22.868154,-73
2021-09-27 11:16:22.868163,-48
2021-09-27 11:16:22.868173,-46
2021-09-27 11:16:22.868183,-90
2021-09-27 11:16:22.868192,-122
2021-09-27 11:16:22.868202,-166
2021-09-27 11:16:22.868211,-100
2021-09-27 11:16:22.868221,489
2021-09-27 11:16:22.868231,1560
2021-09-27 11:16:22.868241,2425
2021-09-27 11:16:22.868267,2095
2021-09-27 11:16:22.868279,239
2021-09-27 11:16:22.868289,-1110
2021-09-27 11:16:22.868298,-579
2021-09-27 11:16:22.868308,-70
2021-09-27 11:16:22.868318,-332
2021-09-27 11:16:22.868328,-254
2021-09-27 11:16:22.868337,-14
2021-09-27 11:16:22.868347,-95
2021-09-27 11:16:22.868357,-141
2021-09-27 11:16:23.136616,-44
2021-09-27 11:16:23.136648,-22
2021-09-27 11:16:23.136660,-24
2021-09-27 11:16:23.136670,29
2021-09-27 11:16:23.136680,51
2021-09-27 11:16:23.136690,26
2021-09-27 11:16:23.136699,39
2021-09-27 11:16:23.136709,83
2021-09-27 11:16:23.136718,97
2021-09-27 11:16:23.136728,97
2021-09-27 11:16:23.136738,129
2021-09-27 11:16:23.136747,178
2021-09-27 11:16:23.136757,205
2021-09-27 11:16:23.136766,239
2021-09-27 11:16:23.136776,295
2021-09-27 11:16:23.136785,349
2021-09-27 11:16:23.136795,403
2021-09-27 11:16:23.136804,469
2021-09-27 11:16:23.136814,530
2021-09-27 11:16:23.136823,596
2021-09-27 11:16:23.136833,662
2021-09-27 11:16:23.136842,696
2021-09-27 11:16:23.136852,687
2021-09-27 11:16:23.136861,667
2021-09-27 11:16:23.136871,628
2021-09-27 11:16:23.136880,515
2021-09-27 11:16:23.136890,342
2021-09-27 11:16:23.136900,158
2021-09-27 11:16:23.136910,-14
2021-09-27 11:16:23.136919,-171
2021-09-27 11:16:23.318035,-278
2021-09-27 11:16:23.318068,-325
2021-09-27 11:16:23.318079,-352
2021-09-27 11:16:23.318089,-376
2021-09-27 11:16:23.318099,-388
2021-09-27 11:16:23.318109,-393
2021-09-27 11:16:23.318118,-379
2021-09-27 11:16:23.318128,-361
2021-09-27 11:16:23.318138,-364
2021-09-27 11:16:23.318147,-347
2021-09-27 11:16:23.318157,-320
2021-09-27 11:16:23.318167,-322
2021-09-27 11:16:23.318177,-325
2021-09-27 11:16:23.318186,-298
2021-09-27 11:16:23.318196,-273
2021-09-27 11:16:23.318206,-256
2021-09-27 11:16:23.318215,-237
2021-09-27 11:16:23.318225,-239
2021-09-27 11:16:23.318235,-239
2021-09-27 11:16:23.318244,-222
2021-09-27 11:16:23.318254,-215
2021-09-27 11:16:23.318264,-207
2021-09-27 11:16:23.318273,-198
2021-09-27 11:16:23.318283,-200
2021-09-27 11:16:23.318293,-195
2021-09-27 11:16:23.318303,-180
2021-09-27 11:16:23.318312,-185
2021-09-27 11:16:23.318322,-195
2021-09-27 11:16:23.318332,-180
2021-09-27 11:16:23.318342,-173
2021-09-27 11:16:23.542997,-188
2021-09-27 11:16:23.543029,-190
2021-09-27 11:16:23.543041,-178
2021-09-27 11:16:23.543051,-161
2021-09-27 11:16:23.543061,-161
2021-09-27 11:16:23.543071,-168
2021-09-27 11:16:23.543081,-154
2021-09-27 11:16:23.543090,-132
2021-09-27 11:16:23.543100,-136
2021-09-27 11:16:23.543110,-139
2021-09-27 11:16:23.543119,-132
2021-09-27 11:16:23.543129,-132
2021-09-27 11:16:23.543139,-136
2021-09-27 11:16:23.543148,-129
2021-09-27 11:16:23.543158,-112
2021-09-27 11:16:23.543168,-110
2021-09-27 11:16:23.543178,-112
2021-09-27 11:16:23.543187,-112
2021-09-27 11:16:23.543197,-105
2021-09-27 11:16:23.543207,-88
2021-09-27 11:16:23.543216,-83
2021-09-27 11:16:23.543226,-88
2021-09-27 11:16:23.543236,-85
2021-09-27 11:16:23.543245,-73
2021-09-27 11:16:23.543255,-63
2021-09-27 11:16:23.543265,-56
2021-09-27 11:16:23.543274,-58
2021-09-27 11:16:23.543284,-58
2021-09-27 11:16:23.543294,-39
2021-09-27 11:16:23.543303,-22
2021-09-27 11:16:23.767353,-31
2021-09-27 11:16:23.767374,-56
2021-09-27 11:16:23.767382,-75
2021-09-27 11:16:23.767388,-80
2021-09-27 11:16:23.767395,-73
2021-09-27 11:16:23.767401,-53
2021-09-27 11:16:23.767407,-41
2021-09-27 11:16:23.767413,-48
2021-09-27 11:16:23.767420,-53
2021-09-27 11:16:23.767426,-70
2021-09-27 11:16:23.767432,-146
2021-09-27 11:16:23.767438,-168
2021-09-27 11:16:23.767445,210
2021-09-27 11:16:23.767451,1085
2021-09-27 11:16:23.767457,2066
2021-09-27 11:16:23.767464,2384
2021-09-27 11:16:23.767470,1120
2021-09-27 11:16:23.767476,-758
2021-09-27 11:16:23.767482,-924
2021-09-27 11:16:23.767489,-124
2021-09-27 11:16:23.767495,-166
2021-09-27 11:16:23.767501,-339
2021-09-27 11:16:23.767508,-97
2021-09-27 11:16:23.767514,-29
2021-09-27 11:16:23.767520,-110
2021-09-27 11:16:23.767526,-48
2021-09-27 11:16:23.767533,7
2021-09-27 11:16:23.767539,-14
2021-09-27 11:16:23.767556,0
2021-09-27 11:16:23.767564,36
2021-09-27 11:16:24.037989,31
2021-09-27 11:16:24.038012,41
2021-09-27 11:16:24.038019,80
2021-09-27 11:16:24.038026,88
2021-09-27 11:16:24.038033,92
2021-09-27 11:16:24.038039,134
2021-09-27 11:16:24.038046,178
2021-09-27 11:16:24.038052,207
2021-09-27 11:16:24.038058,244
2021-09-27 11:16:24.038064,288
2021-09-27 11:16:24.038071,337
2021-09-27 11:16:24.038077,381
2021-09-27 11:16:24.038083,423
2021-09-27 11:16:24.038090,496
2021-09-27 11:16:24.038096,577
2021-09-27 11:16:24.038102,628
2021-09-27 11:16:24.038109,657
2021-09-27 11:16:24.038115,689
2021-09-27 11:16:24.038121,714
2021-09-27 11:16:24.038127,684
2021-09-27 11:16:24.038134,572
2021-09-27 11:16:24.038140,405
2021-09-27 11:16:24.038146,217
2021-09-27 11:16:24.038153,34
2021-09-27 11:16:24.038159,-119
2021-09-27 11:16:24.038165,-237
2021-09-27 11:16:24.038172,-327
2021-09-27 11:16:24.038178,-374
2021-09-27 11:16:24.038184,-376
2021-09-27 11:16:24.038191,-376
2021-09-27 11:16:24.352944,-391
2021-09-27 11:16:24.352967,-393
2021-09-27 11:16:24.352974,-379
2021-09-27 11:16:24.352981,-374
2021-09-27 11:16:24.352987,-371
2021-09-27 11:16:24.352993,-354
2021-09-27 11:16:24.352999,-327
2021-09-27 11:16:24.353006,-313
2021-09-27 11:16:24.353012,-310
2021-09-27 11:16:24.353018,-298
2021-09-27 11:16:24.353025,-269
2021-09-27 11:16:24.353031,-246
2021-09-27 11:16:24.353037,-232
2021-09-27 11:16:24.353043,-222
2021-09-27 11:16:24.353049,-229
2021-09-27 11:16:24.353056,-234
2021-09-27 11:16:24.353062,-220
2021-09-27 11:16:24.353068,-207
2021-09-27 11:16:24.353074,-210
2021-09-27 11:16:24.353080,-212
2021-09-27 11:16:24.353087,-207
2021-09-27 11:16:24.353093,-193
2021-09-27 11:16:24.353099,-188
2021-09-27 11:16:24.353105,-217
2021-09-27 11:16:24.353111,-220
2021-09-27 11:16:24.353118,-173
2021-09-27 11:16:24.353124,-173
2021-09-27 11:16:24.353130,-210
2021-09-27 11:16:24.353137,-193
2021-09-27 11:16:24.353143,-151
2021-09-27 11:16:24.532346,-144
2021-09-27 11:16:24.532371,-151
2021-09-27 11:16:24.532379,-136
2021-09-27 11:16:24.532385,-124
2021-09-27 11:16:24.532392,-124
2021-09-27 11:16:24.532398,-132
2021-09-27 11:16:24.532404,-134
2021-09-27 11:16:24.532411,-132
2021-09-27 11:16:24.532449,-132
2021-09-27 11:16:24.532455,-136
2021-09-27 11:16:24.532461,-141
2021-09-27 11:16:24.532468,-134
2021-09-27 11:16:24.532474,-122
2021-09-27 11:16:24.532480,-112
2021-09-27 11:16:24.532487,-112
2021-09-27 11:16:24.532493,-102
2021-09-27 11:16:24.532499,-88
2021-09-27 11:16:24.532506,-85
2021-09-27 11:16:24.532512,-73
2021-09-27 11:16:24.532518,-61
2021-09-27 11:16:24.532525,-78
2021-09-27 11:16:24.532531,-95
2021-09-27 11:16:24.532537,-85
2021-09-27 11:16:24.532544,-83
2021-09-27 11:16:24.532550,-100
2021-09-27 11:16:24.532556,-102
2021-09-27 11:16:24.532563,-90
2021-09-27 11:16:24.532569,-90
2021-09-27 11:16:24.532575,-95
2021-09-27 11:16:24.532582,-80
2021-09-27 11:16:24.848044,-80
2021-09-27 11:16:24.848075,-134
2021-09-27 11:16:24.848087,-198
2021-09-27 11:16:24.848097,-44
2021-09-27 11:16:24.848107,604
2021-09-27 11:16:24.848117,1611
2021-09-27 11:16:24.848127,2374
2021-09-27 11:16:24.848137,1900
2021-09-27 11:16:24.848146,-12
2021-09-27 11:16:24.848156,-1190
2021-09-27 11:16:24.848166,-547
2021-09-27 11:16:24.848176,-75
2021-09-27 11:16:24.848185,-339
2021-09-27 11:16:24.848195,-264
2021-09-27 11:16:24.848205,-44
2021-09-27 11:16:24.848215,-83
2021-09-27 11:16:24.848224,-100
2021-09-27 11:16:24.848234,-26
2021-09-27 11:16:24.848244,-19
2021-09-27 11:16:24.848253,-24
2021-09-27 11:16:24.848263,14
2021-09-27 11:16:24.848273,29
2021-09-27 11:16:24.848283,22
2021-09-27 11:16:24.848292,53
2021-09-27 11:16:24.848302,92
2021-09-27 11:16:24.848312,107
2021-09-27 11:16:24.848322,129
2021-09-27 11:16:24.848331,161
2021-09-27 11:16:24.848341,195
2021-09-27 11:16:24.848351,229
2021-09-27 11:16:24.983016,276
2021-09-27 11:16:24.983050,327
2021-09-27 11:16:24.983062,366
2021-09-27 11:16:24.983072,423
2021-09-27 11:16:24.983082,508
2021-09-27 11:16:24.983091,572
2021-09-27 11:16:24.983101,611
2021-09-27 11:16:24.983111,665
2021-09-27 11:16:24.983120,706
2021-09-27 11:16:24.983130,701
2021-09-27 11:16:24.983140,689
2021-09-27 11:16:24.983149,645
2021-09-27 11:16:24.983159,486
2021-09-27 11:16:24.983169,249
2021-09-27 11:16:24.983178,53
2021-09-27 11:16:24.983188,-92
2021-09-27 11:16:24.983198,-220
2021-09-27 11:16:24.983208,-310
2021-09-27 11:16:24.983217,-359
2021-09-27 11:16:24.983227,-388
2021-09-27 11:16:24.983237,-415
2021-09-27 11:16:24.983246,-425
2021-09-27 11:16:24.983256,-396
2021-09-27 11:16:24.983266,-366
2021-09-27 11:16:24.983275,-371
2021-09-27 11:16:24.983285,-386
2021-09-27 11:16:24.983295,-366
2021-09-27 11:16:24.983304,-339
2021-09-27 11:16:24.983314,-327
2021-09-27 11:16:24.983324,-313
2021-09-27 11:16:25.206523,-295
2021-09-27 11:16:25.206555,-288
2021-09-27 11:16:25.206567,-276
2021-09-27 11:16:25.206577,-254
2021-09-27 11:16:25.206587,-244
2021-09-27 11:16:25.206596,-244
2021-09-27 11:16:25.206606,-237
2021-09-27 11:16:25.206616,-229
2021-09-27 11:16:25.206625,-220
2021-09-27 11:16:25.206635,-193
2021-09-27 11:16:25.206645,-171
2021-09-27 11:16:25.206654,-190
2021-09-27 11:16:25.206664,-217
2021-09-27 11:16:25.206673,-207
2021-09-27 11:16:25.206683,-178
2021-09-27 11:16:25.206692,-171
2021-09-27 11:16:25.206702,-176
2021-09-27 11:16:25.206712,-180
2021-09-27 11:16:25.206721,-180
2021-09-27 11:16:25.206731,-171
2021-09-27 11:16:25.206740,-163
2021-09-27 11:16:25.206750,-173
2021-09-27 11:16:25.206759,-185
2021-09-27 11:16:25.206769,-176
2021-09-27 11:16:25.206779,-154
2021-09-27 11:16:25.206788,-146
2021-09-27 11:16:25.206798,-154
2021-09-27 11:16:25.206808,-158
2021-09-27 11:16:25.206817,-149
2021-09-27 11:16:25.206827,-132
2021-09-27 11:16:25.387909,-119
2021-09-27 11:16:25.387941,-122
2021-09-27 11:16:25.387952,-136
2021-09-27 11:16:25.387962,-144
2021-09-27 11:16:25.387972,-139
2021-09-27 11:16:25.387981,-129
2021-09-27 11:16:25.387991,-122
2021-09-27 11:16:25.388001,-102
2021-09-27 11:16:25.388010,-68
2021-09-27 11:16:25.388020,-75
2021-09-27 11:16:25.388029,-119
2021-09-27 11:16:25.388039,-110
2021-09-27 11:16:25.388048,-66
2021-09-27 11:16:25.388058,-80
2021-09-27 11:16:25.388067,-110
2021-09-27 11:16:25.388076,-95
2021-09-27 11:16:25.388086,-95
2021-09-27 11:16:25.388095,-127
2021-09-27 11:16:25.388105,-127
2021-09-27 11:16:25.388114,-117
2021-09-27 11:16:25.388124,-105
2021-09-27 11:16:25.388134,-68
2021-09-27 11:16:25.388143,-53
2021-09-27 11:16:25.388153,-97
2021-09-27 11:16:25.388162,-180
2021-09-27 11:16:25.388172,-171
2021-09-27 11:16:25.388182,251
2021-09-27 11:16:25.388191,1173
2021-09-27 11:16:25.388201,2130
2021-09-27 11:16:25.388211,2303
2021-09-27 11:16:25.612973,873
2021-09-27 11:16:25.612999,-931
2021-09-27 11:16:25.613006,-919
2021-09-27 11:16:25.613013,-146
2021-09-27 11:16:25.613019,-232
2021-09-27 11:16:25.613025,-335
2021-09-27 11:16:25.613031,-70
2021-09-27 11:16:25.613038,-29
2021-09-27 11:16:25.613044,-136
2021-09-27 11:16:25.613050,-110
2021-09-27 11:16:25.613056,-41
2021-09-27 11:16:25.613062,-36
2021-09-27 11:16:25.613069,-22
2021-09-27 11:16:25.613075,17
2021-09-27 11:16:25.613081,31
2021-09-27 11:16:25.613087,34
2021-09-27 11:16:25.613094,66
2021-09-27 11:16:25.613100,114
2021-09-27 11:16:25.613106,144
2021-09-27 11:16:25.613112,151
2021-09-27 11:16:25.613118,163
2021-09-27 11:16:25.613124,205
2021-09-27 11:16:25.613131,264
2021-09-27 11:16:25.613137,313
2021-09-27 11:16:25.613143,357
2021-09-27 11:16:25.613149,413
2021-09-27 11:16:25.613156,471
2021-09-27 11:16:25.613162,528
2021-09-27 11:16:25.613168,599
2021-09-27 11:16:25.613174,682
2021-09-27 11:16:25.883002,726
2021-09-27 11:16:25.883035,716
2021-09-27 11:16:25.883046,701
2021-09-27 11:16:25.883056,655
2021-09-27 11:16:25.883066,523
2021-09-27 11:16:25.883076,352
2021-09-27 11:16:25.883086,173
2021-09-27 11:16:25.883096,-9
2021-09-27 11:16:25.883106,-166
2021-09-27 11:16:25.883115,-283
2021-09-27 11:16:25.883125,-369
2021-09-27 11:16:25.883135,-401
2021-09-27 11:16:25.883144,-391
2021-09-27 11:16:25.883154,-401
2021-09-27 11:16:25.883164,-413
2021-09-27 11:16:25.883173,-403
2021-09-27 11:16:25.883183,-391
2021-09-27 11:16:25.883193,-374
2021-09-27 11:16:25.883202,-344
2021-09-27 11:16:25.883212,-325
2021-09-27 11:16:25.883222,-322
2021-09-27 11:16:25.883231,-315
2021-09-27 11:16:25.883241,-295
2021-09-27 11:16:25.883250,-276
2021-09-27 11:16:25.883260,-264
2021-09-27 11:16:25.883270,-264
2021-09-27 11:16:25.883279,-269
2021-09-27 11:16:25.883289,-251
2021-09-27 11:16:25.883299,-227
2021-09-27 11:16:25.883309,-222
2021-09-27 11:16:26.152344,-212
2021-09-27 11:16:26.152376,-195
2021-09-27 11:16:26.152388,-178
2021-09-27 11:16:26.152398,-176
2021-09-27 11:16:26.152407,-190
2021-09-27 11:16:26.152417,-200
2021-09-27 11:16:26.152427,-173
2021-09-27 11:16:26.152465,-144
2021-09-27 11:16:26.152475,-161
2021-09-27 11:16:26.152485,-198
2021-09-27 11:16:26.152495,-195
2021-09-27 11:16:26.152505,-171
2021-09-27 11:16:26.152514,-161
2021-09-27 11:16:26.152524,-158
2021-09-27 11:16:26.152534,-158
2021-09-27 11:16:26.152543,-151
2021-09-27 11:16:26.152553,-139
2021-09-27 11:16:26.152563,-139
2021-09-27 11:16:26.152572,-158
2021-09-27 11:16:26.152582,-166
2021-09-27 11:16:26.152592,-149
2021-09-27 11:16:26.152601,-134
2021-09-27 11:16:26.152611,-132
2021-09-27 11:16:26.152621,-124
2021-09-27 11:16:26.152630,-107
2021-09-27 11:16:26.152640,-95
2021-09-27 11:16:26.152650,-97
2021-09-27 11:16:26.152659,-107
2021-09-27 11:16:26.152669,-90
2021-09-27 11:16:26.152679,-73
2021-09-27 11:16:26.467443,-92
2021-09-27 11:16:26.467475,-102
2021-09-27 11:16:26.467486,-78
2021-09-27 11:16:26.467497,-73
2021-09-27 11:16:26.467506,-90
2021-09-27 11:16:26.467516,-88
2021-09-27 11:16:26.467526,-68
2021-09-27 11:16:26.467535,-56
2021-09-27 11:16:26.467545,-46
2021-09-27 11:16:26.467555,-46
2021-09-27 11:16:26.467564,-70
2021-09-27 11:16:26.467574,-73
2021-09-27 11:16:26.467584,-48
2021-09-27 11:16:26.467593,-66
2021-09-27 11:16:26.467603,-97
2021-09-27 11:16:26.467612,-95
2021-09-27 11:16:26.467622,-85
2021-09-27 11:16:26.467632,-80
2021-09-27 11:16:26.467641,-70
2021-09-27 11:16:26.467651,-53
2021-09-27 11:16:26.467661,-48
2021-09-27 11:16:26.467670,-83
2021-09-27 11:16:26.467680,-178
2021-09-27 11:16:26.467689,-134
2021-09-27 11:16:26.467699,410
2021-09-27 11:16:26.467709,1425
2021-09-27 11:16:26.467719,2345
2021-09-27 11:16:26.467728,2227
2021-09-27 11:16:26.467738,489
2021-09-27 11:16:26.467747,-1088
2021-09-27 11:16:26.557905,-718
2021-09-27 11:16:26.557937,-66
2021-09-27 11:16:26.557949,-264
2021-09-27 11:16:26.557959,-249
2021-09-27 11:16:26.557969,-4
2021-09-27 11:16:26.557979,-70
2021-09-27 11:16:26.557988,-146
2021-09-27 11:16:26.557998,-53
2021-09-27 11:16:26.558007,-19
2021-09-27 11:16:26.558017,-39
2021-09-27 11:16:26.558027,-7
2021-09-27 11:16:26.558036,36
2021-09-27 11:16:26.558046,39
2021-09-27 11:16:26.558056,46
2021-09-27 11:16:26.558065,80
2021-09-27 11:16:26.558075,114
2021-09-27 11:16:26.558085,139
2021-09-27 11:16:26.558094,161
2021-09-27 11:16:26.558104,180
2021-09-27 11:16:26.558114,200
2021-09-27 11:16:26.558123,246
2021-09-27 11:16:26.558133,303
2021-09-27 11:16:26.558143,344
2021-09-27 11:16:26.558153,401
2021-09-27 11:16:26.558162,471
2021-09-27 11:16:26.558172,547
2021-09-27 11:16:26.558182,608
2021-09-27 11:16:26.558192,648
2021-09-27 11:16:26.558202,684
2021-09-27 11:16:26.558212,736
2021-09-27 11:16:26.828054,738
2021-09-27 11:16:26.828085,643
2021-09-27 11:16:26.828097,486
2021-09-27 11:16:26.828107,335
2021-09-27 11:16:26.828117,161
2021-09-27 11:16:26.828127,-36
2021-09-27 11:16:26.828136,-193
2021-09-27 11:16:26.828146,-281
2021-09-27 11:16:26.828156,-344
2021-09-27 11:16:26.828165,-391
2021-09-27 11:16:26.828175,-398
2021-09-27 11:16:26.828184,-398
2021-09-27 11:16:26.828194,-403
2021-09-27 11:16:26.828204,-401
2021-09-27 11:16:26.828213,-393
2021-09-27 11:16:26.828223,-371
2021-09-27 11:16:26.828233,-347
2021-09-27 11:16:26.828242,-347
2021-09-27 11:16:26.828252,-337
2021-09-27 11:16:26.828261,-313
2021-09-27 11:16:26.828271,-298
2021-09-27 11:16:26.828280,-283
2021-09-27 11:16:26.828290,-261
2021-09-27 11:16:26.828300,-251
2021-09-27 11:16:26.828309,-249
2021-09-27 11:16:26.828319,-239
2021-09-27 11:16:26.828329,-224
2021-09-27 11:16:26.828338,-207
2021-09-27 11:16:26.828348,-188
2021-09-27 11:16:26.828357,-180
2021-09-27 11:16:27.053047,-190
2021-09-27 11:16:27.053079,-188
2021-09-27 11:16:27.053091,-173
2021-09-27 11:16:27.053101,-168
2021-09-27 11:16:27.053111,-180
2021-09-27 11:16:27.053120,-195
2021-09-27 11:16:27.053130,-180
2021-09-27 11:16:27.053140,-156
2021-09-27 11:16:27.053149,-163
2021-09-27 11:16:27.053159,-168
2021-09-27 11:16:27.053168,-166
2021-09-27 11:16:27.053178,-173
2021-09-27 11:16:27.053187,-178
2021-09-27 11:16:27.053197,-180
2021-09-27 11:16:27.053206,-176
2021-09-27 11:16:27.053216,-144
2021-09-27 11:16:27.053226,-136
2021-09-27 11:16:27.053236,-171
2021-09-27 11:16:27.053245,-161
2021-09-27 11:16:27.053255,-127
2021-09-27 11:16:27.053264,-127
2021-09-27 11:16:27.053274,-136
2021-09-27 11:16:27.053284,-129
2021-09-27 11:16:27.053293,-127
2021-09-27 11:16:27.053303,-117
2021-09-27 11:16:27.053312,-92
2021-09-27 11:16:27.053322,-85
2021-09-27 11:16:27.053332,-90
2021-09-27 11:16:27.053341,-78
2021-09-27 11:16:27.053351,-80
2021-09-27 11:16:27.321612,-107
2021-09-27 11:16:27.321635,-102
2021-09-27 11:16:27.321643,-80
2021-09-27 11:16:27.321649,-80
2021-09-27 11:16:27.321656,-78
2021-09-27 11:16:27.321662,-70
2021-09-27 11:16:27.321668,-73
2021-09-27 11:16:27.321674,-63
2021-09-27 11:16:27.321681,-41
2021-09-27 11:16:27.321687,-34
2021-09-27 11:16:27.321693,-36
2021-09-27 11:16:27.321700,-46
2021-09-27 11:16:27.321706,-53
2021-09-27 11:16:27.321712,-48
2021-09-27 11:16:27.321718,-48
2021-09-27 11:16:27.321725,-63
2021-09-27 11:16:27.321731,-90
2021-09-27 11:16:27.321737,-107
2021-09-27 11:16:27.321743,-85
2021-09-27 11:16:27.321750,-68
2021-09-27 11:16:27.321756,-75
2021-09-27 11:16:27.321762,-68
2021-09-27 11:16:27.321768,-68
2021-09-27 11:16:27.321775,-127
2021-09-27 11:16:27.321781,-168
2021-09-27 11:16:27.321787,70
2021-09-27 11:16:27.321794,804
2021-09-27 11:16:27.321800,1794
2021-09-27 11:16:27.321806,2379
2021-09-27 11:16:27.321813,1582
2021-09-27 11:16:27.458026,-325
2021-09-27 11:16:27.458059,-1068
2021-09-27 11:16:27.458070,-327
2021-09-27 11:16:27.458081,-95
2021-09-27 11:16:27.458090,-332
2021-09-27 11:16:27.458100,-149
2021-09-27 11:16:27.458110,0
2021-09-27 11:16:27.458120,-92
2021-09-27 11:16:27.458130,-73
2021-09-27 11:16:27.458139,4
2021-09-27 11:16:27.458149,-7
2021-09-27 11:16:27.458159,-7
2021-09-27 11:16:27.458168,17
2021-09-27 11:16:27.458178,17
2021-09-27 11:16:27.458187,29
2021-09-27 11:16:27.458197,56
2021-09-27 11:16:27.458207,66
2021-09-27 11:16:27.458216,88
2021-09-27 11:16:27.458226,124
2021-09-27 11:16:27.458235,161
2021-09-27 11:16:27.458245,198
2021-09-27 11:16:27.458254,224
2021-09-27 11:16:27.458264,251
2021-09-27 11:16:27.458274,300
2021-09-27 11:16:27.458283,371
2021-09-27 11:16:27.458293,449
2021-09-27 11:16:27.458303,511
2021-09-27 11:16:27.458312,538
2021-09-27 11:16:27.458322,572
2021-09-27 11:16:27.458332,633
2021-09-27 11:16:27.727933,682
2021-09-27 11:16:27.727965,699
2021-09-27 11:16:27.727976,677
2021-09-27 11:16:27.727986,591
2021-09-27 11:16:27.727996,442
2021-09-27 11:16:27.728006,259
2021-09-27 11:16:27.728016,80
2021-09-27 11:16:27.728025,-70
2021-09-27 11:16:27.728035,-190
2021-09-27 11:16:27.728045,-286
2021-09-27 11:16:27.728055,-354
2021-09-27 11:16:27.728064,-388
2021-09-27 11:16:27.728074,-386
2021-09-27 11:16:27.728084,-383
2021-09-27 11:16:27.728093,-396
2021-09-27 11:16:27.728103,-396
2021-09-27 11:16:27.728113,-376
2021-09-27 11:16:27.728123,-361
2021-09-27 11:16:27.728132,-349
2021-09-27 11:16:27.728142,-330
2021-09-27 11:16:27.728152,-313
2021-09-27 11:16:27.728161,-300
2021-09-27 11:16:27.728171,-278
2021-09-27 11:16:27.728181,-254
2021-09-27 11:16:27.728190,-239
2021-09-27 11:16:27.728200,-229
2021-09-27 11:16:27.728227,-217
2021-09-27 11:16:27.728238,-220
2021-09-27 11:16:27.728247,-217
2021-09-27 11:16:27.728257,-200
2021-09-27 11:16:27.952991,-188
2021-09-27 11:16:27.953025,-180
2021-09-27 11:16:27.953037,-178
2021-09-27 11:16:27.953047,-183
2021-09-27 11:16:27.953056,-180
2021-09-27 11:16:27.953099,-171
2021-09-27 11:16:27.953108,-158
2021-09-27 11:16:27.953118,-154
2021-09-27 11:16:27.953128,-171
2021-09-27 11:16:27.953137,-190
2021-09-27 11:16:27.953147,-176
2021-09-27 11:16:27.953157,-151
2021-09-27 11:16:27.953166,-144
2021-09-27 11:16:27.953176,-146
2021-09-27 11:16:27.953185,-151
2021-09-27 11:16:27.953195,-166
2021-09-27 11:16:27.953204,-163
2021-09-27 11:16:27.953214,-149
2021-09-27 11:16:27.953223,-151
2021-09-27 11:16:27.953233,-156
2021-09-27 11:16:27.953242,-144
2021-09-27 11:16:27.953252,-146
2021-09-27 11:16:27.953262,-146
2021-09-27 11:16:27.953271,-122
2021-09-27 11:16:27.953281,-112
2021-09-27 11:16:27.953290,-129
2021-09-27 11:16:27.953300,-124
2021-09-27 11:16:27.953309,-114
2021-09-27 11:16:27.953319,-119
2021-09-27 11:16:27.953328,-110
2021-09-27 11:16:28.178014,-80
2021-09-27 11:16:28.178045,-70
2021-09-27 11:16:28.178057,-95
2021-09-27 11:16:28.178067,-97
2021-09-27 11:16:28.178077,-78
2021-09-27 11:16:28.178087,-75
2021-09-27 11:16:28.178096,-75
2021-09-27 11:16:28.178106,-53
2021-09-27 11:16:28.178115,-44
2021-09-27 11:16:28.178125,-63
2021-09-27 11:16:28.178134,-73
2021-09-27 11:16:28.178144,-53
2021-09-27 11:16:28.178154,-34
2021-09-27 11:16:28.178163,-44
2021-09-27 11:16:28.178173,-70
2021-09-27 11:16:28.178183,-92
2021-09-27 11:16:28.178192,-97
2021-09-27 11:16:28.178202,-78
2021-09-27 11:16:28.178211,-51
2021-09-27 11:16:28.178221,-61
2021-09-27 11:16:28.178231,-75
2021-09-27 11:16:28.178240,-56
2021-09-27 11:16:28.178250,-51
2021-09-27 11:16:28.178259,-114
2021-09-27 11:16:28.178269,-166
2021-09-27 11:16:28.178279,85
2021-09-27 11:16:28.178288,853
2021-09-27 11:16:28.178298,1868
2021-09-27 11:16:28.178308,2425
2021-09-27 11:16:28.178317,1499
2021-09-27 11:16:28.402828,-474
2021-09-27 11:16:28.402851,-1085
2021-09-27 11:16:28.402858,-291
2021-09-27 11:16:28.402865,-112
2021-09-27 11:16:28.402871,-335
2021-09-27 11:16:28.402878,-141
2021-09-27 11:16:28.402884,-14
2021-09-27 11:16:28.402890,-97
2021-09-27 11:16:28.402897,-70
2021-09-27 11:16:28.402903,-7
2021-09-27 11:16:28.402909,-14
2021-09-27 11:16:28.402916,9
2021-09-27 11:16:28.402922,46
2021-09-27 11:16:28.402929,36
2021-09-27 11:16:28.402935,46
2021-09-27 11:16:28.402941,88
2021-09-27 11:16:28.402948,112
2021-09-27 11:16:28.402954,124
2021-09-27 11:16:28.402961,149
2021-09-27 11:16:28.402967,183
2021-09-27 11:16:28.402973,217
2021-09-27 11:16:28.402980,242
2021-09-27 11:16:28.402986,271
2021-09-27 11:16:28.402993,320
2021-09-27 11:16:28.402999,371
2021-09-27 11:16:28.403005,442
2021-09-27 11:16:28.403012,535
2021-09-27 11:16:28.403018,596
2021-09-27 11:16:28.403024,626
2021-09-27 11:16:28.403031,674
2021-09-27 11:16:28.628041,721
2021-09-27 11:16:28.628073,721
2021-09-27 11:16:28.628085,674
2021-09-27 11:16:28.628095,584
2021-09-27 11:16:28.628105,427
2021-09-27 11:16:28.628114,237
2021-09-27 11:16:28.628124,41
2021-09-27 11:16:28.628134,-139
2021-09-27 11:16:28.628144,-266
2021-09-27 11:16:28.628154,-335
2021-09-27 11:16:28.628163,-357
2021-09-27 11:16:28.628173,-376
2021-09-27 11:16:28.628182,-423
2021-09-27 11:16:28.628192,-447
2021-09-27 11:16:28.628202,-418
2021-09-27 11:16:28.628211,-396
2021-09-27 11:16:28.628221,-388
2021-09-27 11:16:28.628230,-379
2021-09-27 11:16:28.628240,-374
2021-09-27 11:16:28.628249,-354
2021-09-27 11:16:28.628259,-317
2021-09-27 11:16:28.628269,-291
2021-09-27 11:16:28.628278,-276
2021-09-27 11:16:28.628288,-259
2021-09-27 11:16:28.628298,-244
2021-09-27 11:16:28.628307,-237
2021-09-27 11:16:28.628317,-232
2021-09-27 11:16:28.628327,-239
2021-09-27 11:16:28.628353,-246
2021-09-27 11:16:28.628364,-229
2021-09-27 11:16:28.853047,-193
2021-09-27 11:16:28.853081,-180
2021-09-27 11:16:28.853092,-200
2021-09-27 11:16:28.853102,-195
2021-09-27 11:16:28.853112,-176
2021-09-27 11:16:28.853122,-183
2021-09-27 11:16:28.853132,-188
2021-09-27 11:16:28.853142,-176
2021-09-27 11:16:28.853151,-173
2021-09-27 11:16:28.853161,-171
2021-09-27 11:16:28.853171,-158
2021-09-27 11:16:28.853180,-166
2021-09-27 11:16:28.853190,-183
2021-09-27 11:16:28.853200,-166
2021-09-27 11:16:28.853210,-144
2021-09-27 11:16:28.853219,-146
2021-09-27 11:16:28.853229,-141
2021-09-27 11:16:28.853239,-127
2021-09-27 11:16:28.853249,-117
2021-09-27 11:16:28.853258,-114
2021-09-27 11:16:28.853268,-119
2021-09-27 11:16:28.853278,-117
2021-09-27 11:16:28.853287,-110
2021-09-27 11:16:28.853297,-110
2021-09-27 11:16:28.853307,-100
2021-09-27 11:16:28.853316,-88
2021-09-27 11:16:28.853326,-105
2021-09-27 11:16:28.853336,-129
2021-09-27 11:16:28.853346,-114
2021-09-27 11:16:28.853356,-88
2021-09-27 11:16:29.077970,-85
2021-09-27 11:16:29.077993,-90
2021-09-27 11:16:29.078000,-92
2021-09-27 11:16:29.078007,-90
2021-09-27 11:16:29.078013,-92
2021-09-27 11:16:29.078020,-90
2021-09-27 11:16:29.078026,-83
2021-09-27 11:16:29.078033,-78
2021-09-27 11:16:29.078039,-73
2021-09-27 11:16:29.078045,-48
2021-09-27 11:16:29.078052,-34
2021-09-27 11:16:29.078058,-51
2021-09-27 11:16:29.078065,-51
2021-09-27 11:16:29.078071,-34
2021-09-27 11:16:29.078077,-41
2021-09-27 11:16:29.078084,-58
2021-09-27 11:16:29.078090,-68
2021-09-27 11:16:29.078096,-83
2021-09-27 11:16:29.078102,-78
2021-09-27 11:16:29.078109,-56
2021-09-27 11:16:29.078115,-56
2021-09-27 11:16:29.078122,-61
2021-09-27 11:16:29.078128,-41
2021-09-27 11:16:29.078134,-26
2021-09-27 11:16:29.078140,-83
2021-09-27 11:16:29.078147,-190
2021-09-27 11:16:29.078153,-41
2021-09-27 11:16:29.078159,667
