Time,ECG
2021-09-24 14:46:25.207393,495
2021-09-24 14:46:25.207416,114
2021-09-24 14:46:25.207424,48
2021-09-24 14:46:25.207431,38
2021-09-24 14:46:25.207437,-68
2021-09-24 14:46:25.207444,-121
2021-09-24 14:46:25.207450,-138
2021-09-24 14:46:25.207457,-155
2021-09-24 14:46:25.207463,-143
2021-09-24 14:46:25.207470,-143
2021-09-24 14:46:25.207476,-167
2021-09-24 14:46:25.207483,-179
2021-09-24 14:46:25.207489,-201
2021-09-24 14:46:25.207496,-225
2021-09-24 14:46:25.207502,-238
2021-09-24 14:46:25.207509,-262
2021-09-24 14:46:25.207515,-264
2021-09-24 14:46:25.207521,-242
2021-09-24 14:46:25.207528,-267
2021-09-24 14:46:25.207534,-320
2021-09-24 14:46:25.207541,-340
2021-09-24 14:46:25.207547,-349
2021-09-24 14:46:25.207554,-374
2021-09-24 14:46:25.207560,-378
2021-09-24 14:46:25.207566,-374
2021-09-24 14:46:25.207573,-374
2021-09-24 14:46:25.207579,-361
2021-09-24 14:46:25.207586,-330
2021-09-24 14:46:25.207592,-274
2021-09-24 14:46:25.207598,-182
2021-09-24 14:46:25.476009,-72
2021-09-24 14:46:25.476032,14
2021-09-24 14:46:25.476039,75
2021-09-24 14:46:25.476046,133
2021-09-24 14:46:25.476053,184
2021-09-24 14:46:25.476059,191
2021-09-24 14:46:25.476065,194
2021-09-24 14:46:25.476072,216
2021-09-24 14:46:25.476078,218
2021-09-24 14:46:25.476085,208
2021-09-24 14:46:25.476091,208
2021-09-24 14:46:25.476097,189
2021-09-24 14:46:25.476104,160
2021-09-24 14:46:25.476110,162
2021-09-24 14:46:25.476127,170
2021-09-24 14:46:25.476134,153
2021-09-24 14:46:25.476141,140
2021-09-24 14:46:25.476147,133
2021-09-24 14:46:25.476154,126
2021-09-24 14:46:25.476160,126
2021-09-24 14:46:25.476167,123
2021-09-24 14:46:25.476174,111
2021-09-24 14:46:25.476180,109
2021-09-24 14:46:25.476187,102
2021-09-24 14:46:25.476193,89
2021-09-24 14:46:25.476200,94
2021-09-24 14:46:25.476206,102
2021-09-24 14:46:25.476213,94
2021-09-24 14:46:25.476219,92
2021-09-24 14:46:25.476226,97
2021-09-24 14:46:25.701738,92
2021-09-24 14:46:25.701761,70
2021-09-24 14:46:25.701769,51
2021-09-24 14:46:25.701775,46
2021-09-24 14:46:25.701782,38
2021-09-24 14:46:25.701788,41
2021-09-24 14:46:25.701795,46
2021-09-24 14:46:25.701801,48
2021-09-24 14:46:25.701808,63
2021-09-24 14:46:25.701814,70
2021-09-24 14:46:25.701820,60
2021-09-24 14:46:25.701827,63
2021-09-24 14:46:25.701833,75
2021-09-24 14:46:25.701840,80
2021-09-24 14:46:25.701846,75
2021-09-24 14:46:25.701853,80
2021-09-24 14:46:25.701859,97
2021-09-24 14:46:25.701865,99
2021-09-24 14:46:25.701872,99
2021-09-24 14:46:25.701878,92
2021-09-24 14:46:25.701884,70
2021-09-24 14:46:25.701891,68
2021-09-24 14:46:25.701897,68
2021-09-24 14:46:25.701904,21
2021-09-24 14:46:25.701910,-43
2021-09-24 14:46:25.701917,-116
2021-09-24 14:46:25.701923,-264
2021-09-24 14:46:25.701929,-364
2021-09-24 14:46:25.701936,-162
2021-09-24 14:46:25.701942,296
2021-09-24 14:46:25.972420,663
2021-09-24 14:46:25.972444,568
2021-09-24 14:46:25.972452,204
2021-09-24 14:46:25.972459,87
2021-09-24 14:46:25.972465,109
2021-09-24 14:46:25.972472,0
2021-09-24 14:46:25.972479,-85
2021-09-24 14:46:25.972485,-80
2021-09-24 14:46:25.972492,-87
2021-09-24 14:46:25.972498,-119
2021-09-24 14:46:25.972505,-131
2021-09-24 14:46:25.972511,-128
2021-09-24 14:46:25.972518,-138
2021-09-24 14:46:25.972524,-160
2021-09-24 14:46:25.972531,-167
2021-09-24 14:46:25.972537,-170
2021-09-24 14:46:25.972543,-182
2021-09-24 14:46:25.972550,-187
2021-09-24 14:46:25.972556,-191
2021-09-24 14:46:25.972563,-216
2021-09-24 14:46:25.972569,-250
2021-09-24 14:46:25.972576,-272
2021-09-24 14:46:25.972582,-291
2021-09-24 14:46:25.972589,-327
2021-09-24 14:46:25.972595,-359
2021-09-24 14:46:25.972602,-361
2021-09-24 14:46:25.972608,-352
2021-09-24 14:46:25.972614,-342
2021-09-24 14:46:25.972621,-327
2021-09-24 14:46:25.972627,-284
2021-09-24 14:46:26.152460,-201
2021-09-24 14:46:26.152490,-102
2021-09-24 14:46:26.152502,-19
2021-09-24 14:46:26.152513,46
2021-09-24 14:46:26.152523,114
2021-09-24 14:46:26.152533,170
2021-09-24 14:46:26.152543,189
2021-09-24 14:46:26.152553,191
2021-09-24 14:46:26.152563,187
2021-09-24 14:46:26.152573,177
2021-09-24 14:46:26.152583,179
2021-09-24 14:46:26.152593,187
2021-09-24 14:46:26.152603,182
2021-09-24 14:46:26.152627,162
2021-09-24 14:46:26.152638,148
2021-09-24 14:46:26.152648,157
2021-09-24 14:46:26.152658,172
2021-09-24 14:46:26.152668,148
2021-09-24 14:46:26.152678,109
2021-09-24 14:46:26.152688,114
2021-09-24 14:46:26.152697,119
2021-09-24 14:46:26.152707,82
2021-09-24 14:46:26.152717,68
2021-09-24 14:46:26.152727,106
2021-09-24 14:46:26.152742,128
2021-09-24 14:46:26.152752,116
2021-09-24 14:46:26.152762,97
2021-09-24 14:46:26.152772,85
2021-09-24 14:46:26.152782,77
2021-09-24 14:46:26.152791,82
2021-09-24 14:46:26.377501,109
2021-09-24 14:46:26.377525,111
2021-09-24 14:46:26.377533,80
2021-09-24 14:46:26.377540,70
2021-09-24 14:46:26.377546,87
2021-09-24 14:46:26.377553,94
2021-09-24 14:46:26.377559,85
2021-09-24 14:46:26.377566,70
2021-09-24 14:46:26.377572,65
2021-09-24 14:46:26.377579,106
2021-09-24 14:46:26.377585,150
2021-09-24 14:46:26.377591,143
2021-09-24 14:46:26.377598,99
2021-09-24 14:46:26.377604,72
2021-09-24 14:46:26.377611,116
2021-09-24 14:46:26.377617,145
2021-09-24 14:46:26.377624,116
2021-09-24 14:46:26.377630,165
2021-09-24 14:46:26.377636,201
2021-09-24 14:46:26.377643,160
2021-09-24 14:46:26.377649,182
2021-09-24 14:46:26.377656,225
2021-09-24 14:46:26.377662,189
2021-09-24 14:46:26.377668,206
2021-09-24 14:46:26.377675,291
2021-09-24 14:46:26.377681,177
2021-09-24 14:46:26.377688,-119
2021-09-24 14:46:26.377694,-330
2021-09-24 14:46:26.377732,-340
2021-09-24 14:46:26.377739,-131
2021-09-24 14:46:26.602417,242
2021-09-24 14:46:26.602443,704
2021-09-24 14:46:26.602452,959
2021-09-24 14:46:26.602459,663
2021-09-24 14:46:26.602466,279
2021-09-24 14:46:26.602473,359
2021-09-24 14:46:26.602481,420
2021-09-24 14:46:26.602488,-4
2021-09-24 14:46:26.602495,-272
2021-09-24 14:46:26.602502,-75
2021-09-24 14:46:26.602510,36
2021-09-24 14:46:26.602517,-34
2021-09-24 14:46:26.602524,-72
2021-09-24 14:46:26.602531,-60
2021-09-24 14:46:26.602549,-65
2021-09-24 14:46:26.602557,-87
2021-09-24 14:46:26.602564,-26
2021-09-24 14:46:26.602571,-7
2021-09-24 14:46:26.602579,-128
2021-09-24 14:46:26.602586,-153
2021-09-24 14:46:26.602593,-89
2021-09-24 14:46:26.602600,-162
2021-09-24 14:46:26.602607,-303
2021-09-24 14:46:26.602614,-335
2021-09-24 14:46:26.602621,-306
2021-09-24 14:46:26.602629,-323
2021-09-24 14:46:26.602636,-366
2021-09-24 14:46:26.602643,-378
2021-09-24 14:46:26.602650,-354
2021-09-24 14:46:26.602657,-281
2021-09-24 14:46:26.827320,-206
2021-09-24 14:46:26.827342,-182
2021-09-24 14:46:26.827350,-121
2021-09-24 14:46:26.827356,-9
2021-09-24 14:46:26.827363,72
2021-09-24 14:46:26.827370,128
2021-09-24 14:46:26.827376,165
2021-09-24 14:46:26.827383,189
2021-09-24 14:46:26.827389,211
2021-09-24 14:46:26.827396,221
2021-09-24 14:46:26.827402,223
2021-09-24 14:46:26.827409,208
2021-09-24 14:46:26.827415,194
2021-09-24 14:46:26.827422,199
2021-09-24 14:46:26.827429,196
2021-09-24 14:46:26.827435,170
2021-09-24 14:46:26.827442,167
2021-09-24 14:46:26.827448,184
2021-09-24 14:46:26.827455,177
2021-09-24 14:46:26.827461,170
2021-09-24 14:46:26.827468,177
2021-09-24 14:46:26.827474,174
2021-09-24 14:46:26.827481,162
2021-09-24 14:46:26.827487,145
2021-09-24 14:46:26.827493,133
2021-09-24 14:46:26.827500,128
2021-09-24 14:46:26.827506,121
2021-09-24 14:46:26.827513,114
2021-09-24 14:46:26.827519,128
2021-09-24 14:46:26.827526,153
2021-09-24 14:46:27.142434,157
2021-09-24 14:46:27.142457,155
2021-09-24 14:46:27.142465,157
2021-09-24 14:46:27.142471,162
2021-09-24 14:46:27.142488,167
2021-09-24 14:46:27.142495,177
2021-09-24 14:46:27.142502,150
2021-09-24 14:46:27.142508,111
2021-09-24 14:46:27.142515,80
2021-09-24 14:46:27.142521,41
2021-09-24 14:46:27.142528,51
2021-09-24 14:46:27.142534,89
2021-09-24 14:46:27.142541,77
2021-09-24 14:46:27.142547,65
2021-09-24 14:46:27.142554,72
2021-09-24 14:46:27.142560,63
2021-09-24 14:46:27.142567,65
2021-09-24 14:46:27.142573,80
2021-09-24 14:46:27.142580,97
2021-09-24 14:46:27.142589,99
2021-09-24 14:46:27.142596,87
2021-09-24 14:46:27.142602,87
2021-09-24 14:46:27.142609,92
2021-09-24 14:46:27.142615,58
2021-09-24 14:46:27.142622,36
2021-09-24 14:46:27.142628,63
2021-09-24 14:46:27.142635,55
2021-09-24 14:46:27.142642,-38
2021-09-24 14:46:27.142648,-177
2021-09-24 14:46:27.142655,-376
2021-09-24 14:46:27.277523,-476
2021-09-24 14:46:27.277548,-218
2021-09-24 14:46:27.277556,250
2021-09-24 14:46:27.277563,609
2021-09-24 14:46:27.277569,604
2021-09-24 14:46:27.277576,272
2021-09-24 14:46:27.277582,85
2021-09-24 14:46:27.277589,99
2021-09-24 14:46:27.277595,17
2021-09-24 14:46:27.277602,-70
2021-09-24 14:46:27.277608,-65
2021-09-24 14:46:27.277615,-63
2021-09-24 14:46:27.277621,-80
2021-09-24 14:46:27.277628,-85
2021-09-24 14:46:27.277634,-94
2021-09-24 14:46:27.277641,-126
2021-09-24 14:46:27.277647,-148
2021-09-24 14:46:27.277654,-136
2021-09-24 14:46:27.277660,-136
2021-09-24 14:46:27.277708,-177
2021-09-24 14:46:27.277715,-206
2021-09-24 14:46:27.277722,-204
2021-09-24 14:46:27.277728,-218
2021-09-24 14:46:27.277735,-262
2021-09-24 14:46:27.277746,-296
2021-09-24 14:46:27.277752,-313
2021-09-24 14:46:27.277759,-335
2021-09-24 14:46:27.277765,-357
2021-09-24 14:46:27.277772,-371
2021-09-24 14:46:27.277778,-369
2021-09-24 14:46:27.636162,-347
2021-09-24 14:46:27.636193,-318
2021-09-24 14:46:27.636204,-281
2021-09-24 14:46:27.636215,-216
2021-09-24 14:46:27.636225,-131
2021-09-24 14:46:27.636234,-60
2021-09-24 14:46:27.636244,2
2021-09-24 14:46:27.636254,80
2021-09-24 14:46:27.636264,140
2021-09-24 14:46:27.636274,162
2021-09-24 14:46:27.636284,172
2021-09-24 14:46:27.636294,184
2021-09-24 14:46:27.636304,182
2021-09-24 14:46:27.636314,172
2021-09-24 14:46:27.636324,172
2021-09-24 14:46:27.636334,177
2021-09-24 14:46:27.636343,162
2021-09-24 14:46:27.636353,148
2021-09-24 14:46:27.636363,148
2021-09-24 14:46:27.636373,148
2021-09-24 14:46:27.636383,131
2021-09-24 14:46:27.636393,116
2021-09-24 14:46:27.636403,111
2021-09-24 14:46:27.636413,109
2021-09-24 14:46:27.636422,109
2021-09-24 14:46:27.636432,102
2021-09-24 14:46:27.636442,94
2021-09-24 14:46:27.636452,89
2021-09-24 14:46:27.636462,85
2021-09-24 14:46:27.636472,80
2021-09-24 14:46:27.727074,85
2021-09-24 14:46:27.727093,87
2021-09-24 14:46:27.727100,94
2021-09-24 14:46:27.727105,94
2021-09-24 14:46:27.727110,75
2021-09-24 14:46:27.727116,77
2021-09-24 14:46:27.727121,102
2021-09-24 14:46:27.727126,97
2021-09-24 14:46:27.727131,85
2021-09-24 14:46:27.727136,89
2021-09-24 14:46:27.727141,97
2021-09-24 14:46:27.727147,102
2021-09-24 14:46:27.727152,94
2021-09-24 14:46:27.727157,80
2021-09-24 14:46:27.727170,72
2021-09-24 14:46:27.727176,63
2021-09-24 14:46:27.727181,46
2021-09-24 14:46:27.727186,46
2021-09-24 14:46:27.727191,51
2021-09-24 14:46:27.727196,60
2021-09-24 14:46:27.727201,77
2021-09-24 14:46:27.727207,72
2021-09-24 14:46:27.727212,63
2021-09-24 14:46:27.727217,65
2021-09-24 14:46:27.727222,70
2021-09-24 14:46:27.727227,68
2021-09-24 14:46:27.727232,63
2021-09-24 14:46:27.727237,48
2021-09-24 14:46:27.727243,36
2021-09-24 14:46:27.727248,19
2021-09-24 14:46:27.997466,-36
2021-09-24 14:46:27.997490,-136
2021-09-24 14:46:27.997498,-298
2021-09-24 14:46:27.997506,-422
2021-09-24 14:46:27.997513,-225
2021-09-24 14:46:27.997520,201
2021-09-24 14:46:27.997527,529
2021-09-24 14:46:27.997534,587
2021-09-24 14:46:27.997541,315
2021-09-24 14:46:27.997548,63
2021-09-24 14:46:27.997555,36
2021-09-24 14:46:27.997562,-21
2021-09-24 14:46:27.997569,-114
2021-09-24 14:46:27.997576,-106
2021-09-24 14:46:27.997583,-94
2021-09-24 14:46:27.997590,-128
2021-09-24 14:46:27.997597,-138
2021-09-24 14:46:27.997636,-131
2021-09-24 14:46:27.997643,-138
2021-09-24 14:46:27.997649,-148
2021-09-24 14:46:27.997656,-155
2021-09-24 14:46:27.997663,-172
2021-09-24 14:46:27.997670,-196
2021-09-24 14:46:27.997677,-216
2021-09-24 14:46:27.997684,-225
2021-09-24 14:46:27.997700,-238
2021-09-24 14:46:27.997708,-264
2021-09-24 14:46:27.997715,-296
2021-09-24 14:46:27.997722,-325
2021-09-24 14:46:27.997728,-347
2021-09-24 14:46:28.266713,-361
2021-09-24 14:46:28.266731,-378
2021-09-24 14:46:28.266738,-393
2021-09-24 14:46:28.266744,-388
2021-09-24 14:46:28.266757,-364
2021-09-24 14:46:28.266763,-320
2021-09-24 14:46:28.266768,-247
2021-09-24 14:46:28.266774,-155
2021-09-24 14:46:28.266780,-68
2021-09-24 14:46:28.266785,12
2021-09-24 14:46:28.266791,89
2021-09-24 14:46:28.266796,150
2021-09-24 14:46:28.266802,182
2021-09-24 14:46:28.266807,191
2021-09-24 14:46:28.266813,189
2021-09-24 14:46:28.266819,191
2021-09-24 14:46:28.266824,196
2021-09-24 14:46:28.266830,196
2021-09-24 14:46:28.266835,189
2021-09-24 14:46:28.266841,184
2021-09-24 14:46:28.266846,172
2021-09-24 14:46:28.266852,162
2021-09-24 14:46:28.266857,157
2021-09-24 14:46:28.266863,155
2021-09-24 14:46:28.266869,145
2021-09-24 14:46:28.266874,136
2021-09-24 14:46:28.266880,126
2021-09-24 14:46:28.266885,119
2021-09-24 14:46:28.266891,114
2021-09-24 14:46:28.266897,114
2021-09-24 14:46:28.447404,111
2021-09-24 14:46:28.447428,104
2021-09-24 14:46:28.447436,97
2021-09-24 14:46:28.447443,97
2021-09-24 14:46:28.447450,99
2021-09-24 14:46:28.447456,104
2021-09-24 14:46:28.447463,102
2021-09-24 14:46:28.447469,97
2021-09-24 14:46:28.447476,94
2021-09-24 14:46:28.447482,97
2021-09-24 14:46:28.447489,97
2021-09-24 14:46:28.447495,97
2021-09-24 14:46:28.447502,94
2021-09-24 14:46:28.447508,89
2021-09-24 14:46:28.447515,80
2021-09-24 14:46:28.447521,77
2021-09-24 14:46:28.447528,80
2021-09-24 14:46:28.447535,85
2021-09-24 14:46:28.447541,82
2021-09-24 14:46:28.447548,68
2021-09-24 14:46:28.447554,58
2021-09-24 14:46:28.447561,55
2021-09-24 14:46:28.447567,48
2021-09-24 14:46:28.447574,41
2021-09-24 14:46:28.447590,41
2021-09-24 14:46:28.447597,53
2021-09-24 14:46:28.447635,70
2021-09-24 14:46:28.447642,70
2021-09-24 14:46:28.447648,58
2021-09-24 14:46:28.447655,51
2021-09-24 14:46:28.671979,55
2021-09-24 14:46:28.671997,58
2021-09-24 14:46:28.672005,55
2021-09-24 14:46:28.672011,58
2021-09-24 14:46:28.672018,53
2021-09-24 14:46:28.672024,41
2021-09-24 14:46:28.672030,4
2021-09-24 14:46:28.672036,-77
2021-09-24 14:46:28.672042,-250
2021-09-24 14:46:28.672049,-466
2021-09-24 14:46:28.672055,-454
2021-09-24 14:46:28.672061,-99
2021-09-24 14:46:28.672067,388
2021-09-24 14:46:28.672073,626
2021-09-24 14:46:28.672080,395
2021-09-24 14:46:28.672086,106
2021-09-24 14:46:28.672092,82
2021-09-24 14:46:28.672098,41
2021-09-24 14:46:28.672104,-80
2021-09-24 14:46:28.672110,-87
2021-09-24 14:46:28.672116,-60
2021-09-24 14:46:28.672123,-94
2021-09-24 14:46:28.672129,-111
2021-09-24 14:46:28.672135,-104
2021-09-24 14:46:28.672141,-123
2021-09-24 14:46:28.672147,-140
2021-09-24 14:46:28.672153,-143
2021-09-24 14:46:28.672160,-153
2021-09-24 14:46:28.672166,-172
2021-09-24 14:46:28.672172,-184
2021-09-24 14:46:28.897417,-201
2021-09-24 14:46:28.897439,-221
2021-09-24 14:46:28.897447,-242
2021-09-24 14:46:28.897454,-272
2021-09-24 14:46:28.897461,-303
2021-09-24 14:46:28.897467,-340
2021-09-24 14:46:28.897474,-381
2021-09-24 14:46:28.897480,-398
2021-09-24 14:46:28.897487,-400
2021-09-24 14:46:28.897493,-410
2021-09-24 14:46:28.897500,-405
2021-09-24 14:46:28.897506,-364
2021-09-24 14:46:28.897512,-301
2021-09-24 14:46:28.897519,-216
2021-09-24 14:46:28.897525,-114
2021-09-24 14:46:28.897532,-19
2021-09-24 14:46:28.897539,60
2021-09-24 14:46:28.897545,126
2021-09-24 14:46:28.897552,167
2021-09-24 14:46:28.897558,187
2021-09-24 14:46:28.897564,191
2021-09-24 14:46:28.897571,199
2021-09-24 14:46:28.897577,204
2021-09-24 14:46:28.897584,194
2021-09-24 14:46:28.897590,184
2021-09-24 14:46:28.897597,177
2021-09-24 14:46:28.897603,170
2021-09-24 14:46:28.897610,157
2021-09-24 14:46:28.897616,153
2021-09-24 14:46:28.897623,145
2021-09-24 14:46:29.167419,138
2021-09-24 14:46:29.167441,131
2021-09-24 14:46:29.167449,123
2021-09-24 14:46:29.167456,106
2021-09-24 14:46:29.167462,89
2021-09-24 14:46:29.167469,82
2021-09-24 14:46:29.167475,77
2021-09-24 14:46:29.167482,80
2021-09-24 14:46:29.167488,82
2021-09-24 14:46:29.167495,82
2021-09-24 14:46:29.167501,85
2021-09-24 14:46:29.167508,85
2021-09-24 14:46:29.167514,85
2021-09-24 14:46:29.167521,92
2021-09-24 14:46:29.167527,94
2021-09-24 14:46:29.167534,89
2021-09-24 14:46:29.167540,89
2021-09-24 14:46:29.167547,89
2021-09-24 14:46:29.167553,89
2021-09-24 14:46:29.167560,92
2021-09-24 14:46:29.167566,92
2021-09-24 14:46:29.167573,85
2021-09-24 14:46:29.167579,75
2021-09-24 14:46:29.167586,72
2021-09-24 14:46:29.167592,77
2021-09-24 14:46:29.167599,80
2021-09-24 14:46:29.167605,80
2021-09-24 14:46:29.167612,87
2021-09-24 14:46:29.167618,87
2021-09-24 14:46:29.167625,82
2021-09-24 14:46:29.348026,75
2021-09-24 14:46:29.348048,70
2021-09-24 14:46:29.348056,63
2021-09-24 14:46:29.348063,46
2021-09-24 14:46:29.348081,31
2021-09-24 14:46:29.348088,34
2021-09-24 14:46:29.348094,51
2021-09-24 14:46:29.348101,70
2021-09-24 14:46:29.348107,68
2021-09-24 14:46:29.348114,60
2021-09-24 14:46:29.348120,60
2021-09-24 14:46:29.348127,60
2021-09-24 14:46:29.348133,60
2021-09-24 14:46:29.348140,60
2021-09-24 14:46:29.348146,58
2021-09-24 14:46:29.348153,48
2021-09-24 14:46:29.348159,24
2021-09-24 14:46:29.348166,-24
2021-09-24 14:46:29.348172,-121
2021-09-24 14:46:29.348179,-340
2021-09-24 14:46:29.348185,-531
2021-09-24 14:46:29.348192,-393
2021-09-24 14:46:29.348198,75
2021-09-24 14:46:29.348205,551
2021-09-24 14:46:29.348211,604
2021-09-24 14:46:29.348218,255
2021-09-24 14:46:29.348224,63
2021-09-24 14:46:29.348231,77
2021-09-24 14:46:29.348237,-14
2021-09-24 14:46:29.348244,-99
2021-09-24 14:46:29.616025,-70
2021-09-24 14:46:29.616047,-72
2021-09-24 14:46:29.616055,-111
2021-09-24 14:46:29.616061,-119
2021-09-24 14:46:29.616068,-123
2021-09-24 14:46:29.616075,-140
2021-09-24 14:46:29.616081,-145
2021-09-24 14:46:29.616088,-150
2021-09-24 14:46:29.616094,-170
2021-09-24 14:46:29.616100,-199
2021-09-24 14:46:29.616107,-228
2021-09-24 14:46:29.616114,-245
2021-09-24 14:46:29.616120,-259
2021-09-24 14:46:29.616126,-289
2021-09-24 14:46:29.616133,-323
2021-09-24 14:46:29.616139,-352
2021-09-24 14:46:29.616146,-376
2021-09-24 14:46:29.616152,-393
2021-09-24 14:46:29.616158,-400
2021-09-24 14:46:29.616165,-403
2021-09-24 14:46:29.616171,-398
2021-09-24 14:46:29.616178,-381
2021-09-24 14:46:29.616184,-340
2021-09-24 14:46:29.616191,-267
2021-09-24 14:46:29.616207,-172
2021-09-24 14:46:29.616214,-82
2021-09-24 14:46:29.616220,-2
2021-09-24 14:46:29.616226,70
2021-09-24 14:46:29.616233,133
2021-09-24 14:46:29.616239,177
2021-09-24 14:46:29.887454,199
2021-09-24 14:46:29.887476,211
2021-09-24 14:46:29.887484,213
2021-09-24 14:46:29.887491,201
2021-09-24 14:46:29.887498,191
2021-09-24 14:46:29.887504,191
2021-09-24 14:46:29.887511,184
2021-09-24 14:46:29.887517,174
2021-09-24 14:46:29.887524,162
2021-09-24 14:46:29.887531,143
2021-09-24 14:46:29.887537,133
2021-09-24 14:46:29.887544,131
2021-09-24 14:46:29.887550,126
2021-09-24 14:46:29.887557,119
2021-09-24 14:46:29.887563,114
2021-09-24 14:46:29.887570,109
2021-09-24 14:46:29.887577,106
2021-09-24 14:46:29.887583,106
2021-09-24 14:46:29.887590,109
2021-09-24 14:46:29.887596,106
2021-09-24 14:46:29.887603,106
2021-09-24 14:46:29.887610,104
2021-09-24 14:46:29.887616,104
2021-09-24 14:46:29.887623,109
2021-09-24 14:46:29.887629,111
2021-09-24 14:46:29.887636,111
2021-09-24 14:46:29.887643,106
2021-09-24 14:46:29.887649,97
2021-09-24 14:46:29.887656,92
2021-09-24 14:46:29.887662,92
2021-09-24 14:46:30.067502,94
2021-09-24 14:46:30.067525,94
2021-09-24 14:46:30.067533,89
2021-09-24 14:46:30.067541,85
2021-09-24 14:46:30.067548,85
2021-09-24 14:46:30.067554,89
2021-09-24 14:46:30.067561,89
2021-09-24 14:46:30.067568,85
2021-09-24 14:46:30.067576,77
2021-09-24 14:46:30.067582,68
2021-09-24 14:46:30.067589,72
2021-09-24 14:46:30.067596,80
2021-09-24 14:46:30.067603,82
2021-09-24 14:46:30.067610,87
2021-09-24 14:46:30.067625,85
2021-09-24 14:46:30.067632,65
2021-09-24 14:46:30.067639,51
2021-09-24 14:46:30.067677,51
2021-09-24 14:46:30.067684,46
2021-09-24 14:46:30.067691,26
2021-09-24 14:46:30.067698,9
2021-09-24 14:46:30.067705,17
2021-09-24 14:46:30.067712,41
2021-09-24 14:46:30.067718,58
2021-09-24 14:46:30.067725,55
2021-09-24 14:46:30.067732,48
2021-09-24 14:46:30.067739,43
2021-09-24 14:46:30.067746,38
2021-09-24 14:46:30.067753,43
2021-09-24 14:46:30.067759,41
2021-09-24 14:46:30.292511,31
2021-09-24 14:46:30.292540,21
2021-09-24 14:46:30.292553,0
2021-09-24 14:46:30.292563,-53
2021-09-24 14:46:30.292573,-187
2021-09-24 14:46:30.292583,-425
2021-09-24 14:46:30.292593,-536
2021-09-24 14:46:30.292603,-281
2021-09-24 14:46:30.292613,228
2021-09-24 14:46:30.292623,612
2021-09-24 14:46:30.292633,490
2021-09-24 14:46:30.292643,143
2021-09-24 14:46:30.292653,55
2021-09-24 14:46:30.292663,41
2021-09-24 14:46:30.292673,-82
2021-09-24 14:46:30.292683,-123
2021-09-24 14:46:30.292692,-87
2021-09-24 14:46:30.292702,-109
2021-09-24 14:46:30.292712,-136
2021-09-24 14:46:30.292722,-133
2021-09-24 14:46:30.292732,-143
2021-09-24 14:46:30.292742,-160
2021-09-24 14:46:30.292752,-162
2021-09-24 14:46:30.292762,-167
2021-09-24 14:46:30.292772,-179
2021-09-24 14:46:30.292781,-194
2021-09-24 14:46:30.292791,-208
2021-09-24 14:46:30.292801,-228
2021-09-24 14:46:30.292811,-245
2021-09-24 14:46:30.292821,-264
2021-09-24 14:46:30.517262,-284
2021-09-24 14:46:30.517284,-313
2021-09-24 14:46:30.517292,-344
2021-09-24 14:46:30.517299,-366
2021-09-24 14:46:30.517317,-371
2021-09-24 14:46:30.517324,-366
2021-09-24 14:46:30.517331,-361
2021-09-24 14:46:30.517338,-347
2021-09-24 14:46:30.517345,-303
2021-09-24 14:46:30.517352,-233
2021-09-24 14:46:30.517359,-143
2021-09-24 14:46:30.517365,-46
2021-09-24 14:46:30.517372,31
2021-09-24 14:46:30.517379,92
2021-09-24 14:46:30.517386,145
2021-09-24 14:46:30.517393,184
2021-09-24 14:46:30.517400,206
2021-09-24 14:46:30.517407,216
2021-09-24 14:46:30.517414,218
2021-09-24 14:46:30.517420,208
2021-09-24 14:46:30.517427,191
2021-09-24 14:46:30.517434,174
2021-09-24 14:46:30.517441,170
2021-09-24 14:46:30.517448,167
2021-09-24 14:46:30.517455,155
2021-09-24 14:46:30.517462,145
2021-09-24 14:46:30.517469,138
2021-09-24 14:46:30.517475,128
2021-09-24 14:46:30.517482,123
2021-09-24 14:46:30.517489,121
2021-09-24 14:46:30.787146,116
2021-09-24 14:46:30.787168,109
2021-09-24 14:46:30.787176,109
2021-09-24 14:46:30.787183,104
2021-09-24 14:46:30.787189,97
2021-09-24 14:46:30.787196,94
2021-09-24 14:46:30.787202,92
2021-09-24 14:46:30.787209,87
2021-09-24 14:46:30.787215,92
2021-09-24 14:46:30.787222,94
2021-09-24 14:46:30.787228,94
2021-09-24 14:46:30.787235,97
2021-09-24 14:46:30.787241,89
2021-09-24 14:46:30.787248,85
2021-09-24 14:46:30.787254,87
2021-09-24 14:46:30.787261,87
2021-09-24 14:46:30.787267,85
2021-09-24 14:46:30.787274,85
2021-09-24 14:46:30.787280,82
2021-09-24 14:46:30.787287,82
2021-09-24 14:46:30.787293,85
2021-09-24 14:46:30.787300,82
2021-09-24 14:46:30.787306,85
2021-09-24 14:46:30.787312,82
2021-09-24 14:46:30.787319,77
2021-09-24 14:46:30.787325,77
2021-09-24 14:46:30.787332,75
2021-09-24 14:46:30.787338,72
2021-09-24 14:46:30.787345,68
2021-09-24 14:46:30.787351,63
2021-09-24 14:46:30.967335,63
2021-09-24 14:46:30.967357,68
2021-09-24 14:46:30.967365,72
2021-09-24 14:46:30.967372,72
2021-09-24 14:46:30.967378,72
2021-09-24 14:46:30.967385,68
2021-09-24 14:46:30.967391,53
2021-09-24 14:46:30.967398,41
2021-09-24 14:46:30.967404,34
2021-09-24 14:46:30.967411,24
2021-09-24 14:46:30.967417,17
2021-09-24 14:46:30.967424,24
2021-09-24 14:46:30.967430,41
2021-09-24 14:46:30.967437,48
2021-09-24 14:46:30.967452,38
2021-09-24 14:46:30.967459,31
2021-09-24 14:46:30.967466,29
2021-09-24 14:46:30.967472,19
2021-09-24 14:46:30.967479,14
2021-09-24 14:46:30.967485,19
2021-09-24 14:46:30.967492,14
2021-09-24 14:46:30.967498,0
2021-09-24 14:46:30.967505,-29
2021-09-24 14:46:30.967511,-99
2021-09-24 14:46:30.967518,-281
2021-09-24 14:46:30.967524,-519
2021-09-24 14:46:30.967531,-519
2021-09-24 14:46:30.967537,-133
2021-09-24 14:46:30.967544,400
2021-09-24 14:46:30.967550,609
2021-09-24 14:46:31.282515,325
2021-09-24 14:46:31.282538,60
2021-09-24 14:46:31.282546,55
2021-09-24 14:46:31.282553,-4
2021-09-24 14:46:31.282559,-114
2021-09-24 14:46:31.282566,-111
2021-09-24 14:46:31.282572,-94
2021-09-24 14:46:31.282579,-123
2021-09-24 14:46:31.282585,-138
2021-09-24 14:46:31.282592,-138
2021-09-24 14:46:31.282598,-155
2021-09-24 14:46:31.282605,-172
2021-09-24 14:46:31.282611,-172
2021-09-24 14:46:31.282618,-177
2021-09-24 14:46:31.282635,-189
2021-09-24 14:46:31.282642,-199
2021-09-24 14:46:31.282649,-216
2021-09-24 14:46:31.282656,-233
2021-09-24 14:46:31.282662,-250
2021-09-24 14:46:31.282669,-264
2021-09-24 14:46:31.282676,-289
2021-09-24 14:46:31.282698,-315
2021-09-24 14:46:31.282705,-337
2021-09-24 14:46:31.282711,-352
2021-09-24 14:46:31.282718,-354
2021-09-24 14:46:31.282725,-344
2021-09-24 14:46:31.282731,-332
2021-09-24 14:46:31.282738,-306
2021-09-24 14:46:31.282744,-257
2021-09-24 14:46:31.282751,-182
2021-09-24 14:46:31.417388,-94
2021-09-24 14:46:31.417410,-7
2021-09-24 14:46:31.417418,68
2021-09-24 14:46:31.417425,123
2021-09-24 14:46:31.417432,167
2021-09-24 14:46:31.417439,199
2021-09-24 14:46:31.417446,218
2021-09-24 14:46:31.417453,225
2021-09-24 14:46:31.417459,228
2021-09-24 14:46:31.417466,221
2021-09-24 14:46:31.417473,208
2021-09-24 14:46:31.417480,199
2021-09-24 14:46:31.417487,194
2021-09-24 14:46:31.417493,187
2021-09-24 14:46:31.417500,172
2021-09-24 14:46:31.417507,155
2021-09-24 14:46:31.417514,143
2021-09-24 14:46:31.417520,138
2021-09-24 14:46:31.417527,136
2021-09-24 14:46:31.417534,133
2021-09-24 14:46:31.417541,128
2021-09-24 14:46:31.417547,116
2021-09-24 14:46:31.417554,106
2021-09-24 14:46:31.417561,109
2021-09-24 14:46:31.417568,114
2021-09-24 14:46:31.417574,111
2021-09-24 14:46:31.417581,111
2021-09-24 14:46:31.417588,111
2021-09-24 14:46:31.417595,109
2021-09-24 14:46:31.417602,111
2021-09-24 14:46:31.776075,114
2021-09-24 14:46:31.776097,102
2021-09-24 14:46:31.776105,85
2021-09-24 14:46:31.776112,72
2021-09-24 14:46:31.776129,68
2021-09-24 14:46:31.776136,70
2021-09-24 14:46:31.776143,72
2021-09-24 14:46:31.776150,72
2021-09-24 14:46:31.776157,65
2021-09-24 14:46:31.776164,58
2021-09-24 14:46:31.776171,55
2021-09-24 14:46:31.776177,58
2021-09-24 14:46:31.776184,53
2021-09-24 14:46:31.776191,46
2021-09-24 14:46:31.776198,48
2021-09-24 14:46:31.776205,46
2021-09-24 14:46:31.776212,41
2021-09-24 14:46:31.776218,38
2021-09-24 14:46:31.776225,36
2021-09-24 14:46:31.776232,36
2021-09-24 14:46:31.776239,31
2021-09-24 14:46:31.776246,26
2021-09-24 14:46:31.776253,36
2021-09-24 14:46:31.776260,46
2021-09-24 14:46:31.776266,41
2021-09-24 14:46:31.776273,26
2021-09-24 14:46:31.776280,9
2021-09-24 14:46:31.776287,0
2021-09-24 14:46:31.776294,-2
2021-09-24 14:46:31.776301,-7
2021-09-24 14:46:31.958020,-2
2021-09-24 14:46:31.958051,19
2021-09-24 14:46:31.958062,34
2021-09-24 14:46:31.958073,29
2021-09-24 14:46:31.958083,29
2021-09-24 14:46:31.958093,38
2021-09-24 14:46:31.958103,38
2021-09-24 14:46:31.958113,36
2021-09-24 14:46:31.958123,26
2021-09-24 14:46:31.958132,17
2021-09-24 14:46:31.958142,17
2021-09-24 14:46:31.958152,4
2021-09-24 14:46:31.958162,-38
2021-09-24 14:46:31.958172,-145
2021-09-24 14:46:31.958182,-371
2021-09-24 14:46:31.958192,-539
2021-09-24 14:46:31.958202,-347
2021-09-24 14:46:31.958212,157
2021-09-24 14:46:31.958222,592
2021-09-24 14:46:31.958232,546
2021-09-24 14:46:31.958242,187
2021-09-24 14:46:31.958252,48
2021-09-24 14:46:31.958275,58
2021-09-24 14:46:31.958286,-46
2021-09-24 14:46:31.958296,-106
2021-09-24 14:46:31.958306,-72
2021-09-24 14:46:31.958316,-87
2021-09-24 14:46:31.958326,-121
2021-09-24 14:46:31.958336,-119
2021-09-24 14:46:31.958345,-119
2021-09-24 14:46:32.137389,-133
2021-09-24 14:46:32.137411,-140
2021-09-24 14:46:32.137419,-150
2021-09-24 14:46:32.137426,-167
2021-09-24 14:46:32.137432,-177
2021-09-24 14:46:32.137439,-184
2021-09-24 14:46:32.137445,-206
2021-09-24 14:46:32.137452,-238
2021-09-24 14:46:32.137459,-262
2021-09-24 14:46:32.137465,-279
2021-09-24 14:46:32.137472,-301
2021-09-24 14:46:32.137478,-318
2021-09-24 14:46:32.137485,-332
2021-09-24 14:46:32.137491,-352
2021-09-24 14:46:32.137498,-359
2021-09-24 14:46:32.137505,-349
2021-09-24 14:46:32.137511,-330
2021-09-24 14:46:32.137518,-298
2021-09-24 14:46:32.137524,-238
2021-09-24 14:46:32.137531,-160
2021-09-24 14:46:32.137537,-82
2021-09-24 14:46:32.137544,0
2021-09-24 14:46:32.137550,77
2021-09-24 14:46:32.137557,133
2021-09-24 14:46:32.137563,172
2021-09-24 14:46:32.137570,194
2021-09-24 14:46:32.137576,201
2021-09-24 14:46:32.137583,204
2021-09-24 14:46:32.137589,206
2021-09-24 14:46:32.137596,204
2021-09-24 14:46:32.407593,194
2021-09-24 14:46:32.407618,182
2021-09-24 14:46:32.407626,172
2021-09-24 14:46:32.407633,162
2021-09-24 14:46:32.407640,153
2021-09-24 14:46:32.407647,145
2021-09-24 14:46:32.407653,138
2021-09-24 14:46:32.407660,121
2021-09-24 14:46:32.407667,106
2021-09-24 14:46:32.407674,104
2021-09-24 14:46:32.407681,106
2021-09-24 14:46:32.407687,102
2021-09-24 14:46:32.407694,97
2021-09-24 14:46:32.407701,89
2021-09-24 14:46:32.407751,87
2021-09-24 14:46:32.407758,89
2021-09-24 14:46:32.407765,94
2021-09-24 14:46:32.407772,97
2021-09-24 14:46:32.407779,92
2021-09-24 14:46:32.407786,89
2021-09-24 14:46:32.407793,92
2021-09-24 14:46:32.407800,92
2021-09-24 14:46:32.407806,87
2021-09-24 14:46:32.407813,85
2021-09-24 14:46:32.407820,77
2021-09-24 14:46:32.407827,70
2021-09-24 14:46:32.407834,65
2021-09-24 14:46:32.407841,58
2021-09-24 14:46:32.407848,58
2021-09-24 14:46:32.407855,60
2021-09-24 14:46:32.631275,55
2021-09-24 14:46:32.631294,53
2021-09-24 14:46:32.631302,53
2021-09-24 14:46:32.631308,53
2021-09-24 14:46:32.631314,53
2021-09-24 14:46:32.631320,51
2021-09-24 14:46:32.631326,43
2021-09-24 14:46:32.631332,38
2021-09-24 14:46:32.631338,41
2021-09-24 14:46:32.631344,43
2021-09-24 14:46:32.631354,41
2021-09-24 14:46:32.631361,43
2021-09-24 14:46:32.631367,41
2021-09-24 14:46:32.631373,41
2021-09-24 14:46:32.631379,38
2021-09-24 14:46:32.631385,24
2021-09-24 14:46:32.631391,9
2021-09-24 14:46:32.631397,2
2021-09-24 14:46:32.631403,-7
2021-09-24 14:46:32.631409,-17
2021-09-24 14:46:32.631414,-7
2021-09-24 14:46:32.631420,9
2021-09-24 14:46:32.631426,19
2021-09-24 14:46:32.631432,21
2021-09-24 14:46:32.631438,21
2021-09-24 14:46:32.631444,24
2021-09-24 14:46:32.631450,26
2021-09-24 14:46:32.631455,24
2021-09-24 14:46:32.631461,29
2021-09-24 14:46:32.631467,29
2021-09-24 14:46:32.857451,24
2021-09-24 14:46:32.857473,2
2021-09-24 14:46:32.857481,-51
2021-09-24 14:46:32.857488,-187
2021-09-24 14:46:32.857509,-420
2021-09-24 14:46:32.857517,-517
2021-09-24 14:46:32.857523,-238
2021-09-24 14:46:32.857530,306
2021-09-24 14:46:32.857536,653
2021-09-24 14:46:32.857543,471
2021-09-24 14:46:32.857549,133
2021-09-24 14:46:32.857556,65
2021-09-24 14:46:32.857562,38
2021-09-24 14:46:32.857569,-75
2021-09-24 14:46:32.857575,-97
2021-09-24 14:46:32.857582,-70
2021-09-24 14:46:32.857589,-97
2021-09-24 14:46:32.857595,-119
2021-09-24 14:46:32.857602,-114
2021-09-24 14:46:32.857608,-119
2021-09-24 14:46:32.857615,-133
2021-09-24 14:46:32.857621,-140
2021-09-24 14:46:32.857628,-155
2021-09-24 14:46:32.857634,-179
2021-09-24 14:46:32.857641,-189
2021-09-24 14:46:32.857647,-194
2021-09-24 14:46:32.857654,-216
2021-09-24 14:46:32.857660,-242
2021-09-24 14:46:32.857667,-262
2021-09-24 14:46:32.857682,-284
2021-09-24 14:46:33.126834,-306
2021-09-24 14:46:33.126865,-320
2021-09-24 14:46:33.126878,-332
2021-09-24 14:46:33.126888,-342
2021-09-24 14:46:33.126898,-342
2021-09-24 14:46:33.126908,-332
2021-09-24 14:46:33.126918,-306
2021-09-24 14:46:33.126928,-262
2021-09-24 14:46:33.126938,-199
2021-09-24 14:46:33.126948,-119
2021-09-24 14:46:33.126958,-36
2021-09-24 14:46:33.126968,41
2021-09-24 14:46:33.126978,106
2021-09-24 14:46:33.126987,160
2021-09-24 14:46:33.126997,196
2021-09-24 14:46:33.127007,213
2021-09-24 14:46:33.127017,216
2021-09-24 14:46:33.127027,206
2021-09-24 14:46:33.127037,189
2021-09-24 14:46:33.127047,177
2021-09-24 14:46:33.127057,172
2021-09-24 14:46:33.127067,160
2021-09-24 14:46:33.127077,148
2021-09-24 14:46:33.127087,136
2021-09-24 14:46:33.127110,123
2021-09-24 14:46:33.127121,114
2021-09-24 14:46:33.127131,111
2021-09-24 14:46:33.127141,106
2021-09-24 14:46:33.127151,97
2021-09-24 14:46:33.127161,99
2021-09-24 14:46:33.262542,102
2021-09-24 14:46:33.262574,99
2021-09-24 14:46:33.262586,97
2021-09-24 14:46:33.262597,87
2021-09-24 14:46:33.262607,75
2021-09-24 14:46:33.262617,72
2021-09-24 14:46:33.262627,72
2021-09-24 14:46:33.262637,68
2021-09-24 14:46:33.262647,63
2021-09-24 14:46:33.262657,65
2021-09-24 14:46:33.262667,60
2021-09-24 14:46:33.262677,55
2021-09-24 14:46:33.262687,60
2021-09-24 14:46:33.262729,63
2021-09-24 14:46:33.262739,60
2021-09-24 14:46:33.262749,53
2021-09-24 14:46:33.262759,46
2021-09-24 14:46:33.262769,51
2021-09-24 14:46:33.262779,55
2021-09-24 14:46:33.262789,55
2021-09-24 14:46:33.262798,55
2021-09-24 14:46:33.262808,53
2021-09-24 14:46:33.262818,48
2021-09-24 14:46:33.262828,53
2021-09-24 14:46:33.262838,53
2021-09-24 14:46:33.262848,48
2021-09-24 14:46:33.262858,46
2021-09-24 14:46:33.262868,36
2021-09-24 14:46:33.262878,34
2021-09-24 14:46:33.262888,43
2021-09-24 14:46:33.532538,48
2021-09-24 14:46:33.532569,51
2021-09-24 14:46:33.532581,53
2021-09-24 14:46:33.532591,43
2021-09-24 14:46:33.532601,24
2021-09-24 14:46:33.532611,12
2021-09-24 14:46:33.532621,7
2021-09-24 14:46:33.532631,2
2021-09-24 14:46:33.532641,-4
2021-09-24 14:46:33.532651,-2
2021-09-24 14:46:33.532661,17
2021-09-24 14:46:33.532671,34
2021-09-24 14:46:33.532681,34
2021-09-24 14:46:33.532691,34
2021-09-24 14:46:33.532714,36
2021-09-24 14:46:33.532725,34
2021-09-24 14:46:33.532735,34
2021-09-24 14:46:33.532744,38
2021-09-24 14:46:33.532754,38
2021-09-24 14:46:33.532764,31
2021-09-24 14:46:33.532774,4
2021-09-24 14:46:33.532784,-58
2021-09-24 14:46:33.532794,-216
2021-09-24 14:46:33.532804,-456
2021-09-24 14:46:33.532814,-507
2021-09-24 14:46:33.532824,-155
2021-09-24 14:46:33.532835,400
2021-09-24 14:46:33.532845,660
2021-09-24 14:46:33.532855,393
2021-09-24 14:46:33.532865,89
2021-09-24 14:46:33.800989,65
2021-09-24 14:46:33.801012,21
2021-09-24 14:46:33.801019,-97
2021-09-24 14:46:33.801026,-106
2021-09-24 14:46:33.801033,-80
2021-09-24 14:46:33.801040,-106
2021-09-24 14:46:33.801046,-121
2021-09-24 14:46:33.801053,-116
2021-09-24 14:46:33.801059,-133
2021-09-24 14:46:33.801065,-157
2021-09-24 14:46:33.801072,-157
2021-09-24 14:46:33.801078,-160
2021-09-24 14:46:33.801084,-177
2021-09-24 14:46:33.801091,-189
2021-09-24 14:46:33.801097,-208
2021-09-24 14:46:33.801104,-235
2021-09-24 14:46:33.801110,-252
2021-09-24 14:46:33.801117,-264
2021-09-24 14:46:33.801123,-286
2021-09-24 14:46:33.801130,-310
2021-09-24 14:46:33.801136,-330
2021-09-24 14:46:33.801143,-347
2021-09-24 14:46:33.801149,-347
2021-09-24 14:46:33.801156,-337
2021-09-24 14:46:33.801162,-320
2021-09-24 14:46:33.801168,-296
2021-09-24 14:46:33.801175,-255
2021-09-24 14:46:33.801181,-189
2021-09-24 14:46:33.801188,-99
2021-09-24 14:46:33.801194,-12
2021-09-24 14:46:33.982543,58
2021-09-24 14:46:33.982567,114
2021-09-24 14:46:33.982575,160
2021-09-24 14:46:33.982581,187
2021-09-24 14:46:33.982588,199
2021-09-24 14:46:33.982601,206
2021-09-24 14:46:33.982608,213
2021-09-24 14:46:33.982615,204
2021-09-24 14:46:33.982621,184
2021-09-24 14:46:33.982628,172
2021-09-24 14:46:33.982634,170
2021-09-24 14:46:33.982671,165
2021-09-24 14:46:33.982678,155
2021-09-24 14:46:33.982685,143
2021-09-24 14:46:33.982691,126
2021-09-24 14:46:33.982697,119
2021-09-24 14:46:33.982704,119
2021-09-24 14:46:33.982710,114
2021-09-24 14:46:33.982717,111
2021-09-24 14:46:33.982723,106
2021-09-24 14:46:33.982729,92
2021-09-24 14:46:33.982736,89
2021-09-24 14:46:33.982742,92
2021-09-24 14:46:33.982749,85
2021-09-24 14:46:33.982755,85
2021-09-24 14:46:33.982761,85
2021-09-24 14:46:33.982768,82
2021-09-24 14:46:33.982774,77
2021-09-24 14:46:33.982781,70
2021-09-24 14:46:33.982787,63
2021-09-24 14:46:34.207431,65
2021-09-24 14:46:34.207453,65
2021-09-24 14:46:34.207461,60
2021-09-24 14:46:34.207468,53
2021-09-24 14:46:34.207474,53
2021-09-24 14:46:34.207481,58
2021-09-24 14:46:34.207487,53
2021-09-24 14:46:34.207494,48
2021-09-24 14:46:34.207500,43
2021-09-24 14:46:34.207506,43
2021-09-24 14:46:34.207513,46
2021-09-24 14:46:34.207519,48
2021-09-24 14:46:34.207526,46
2021-09-24 14:46:34.207532,36
2021-09-24 14:46:34.207539,34
2021-09-24 14:46:34.207545,38
2021-09-24 14:46:34.207552,38
2021-09-24 14:46:34.207558,38
2021-09-24 14:46:34.207564,43
2021-09-24 14:46:34.207571,46
2021-09-24 14:46:34.207577,51
2021-09-24 14:46:34.207584,55
2021-09-24 14:46:34.207590,48
2021-09-24 14:46:34.207596,34
2021-09-24 14:46:34.207612,21
2021-09-24 14:46:34.207619,17
2021-09-24 14:46:34.207625,9
2021-09-24 14:46:34.207632,9
2021-09-24 14:46:34.207638,29
2021-09-24 14:46:34.207645,51
2021-09-24 14:46:34.477488,53
2021-09-24 14:46:34.477510,51
2021-09-24 14:46:34.477518,51
2021-09-24 14:46:34.477525,51
2021-09-24 14:46:34.477531,48
2021-09-24 14:46:34.477538,41
2021-09-24 14:46:34.477544,31
2021-09-24 14:46:34.477551,21
2021-09-24 14:46:34.477557,12
2021-09-24 14:46:34.477564,-19
2021-09-24 14:46:34.477570,-106
2021-09-24 14:46:34.477577,-310
2021-09-24 14:46:34.477583,-514
2021-09-24 14:46:34.477590,-393
2021-09-24 14:46:34.477596,99
2021-09-24 14:46:34.477603,587
2021-09-24 14:46:34.477609,604
2021-09-24 14:46:34.477616,245
2021-09-24 14:46:34.477622,68
2021-09-24 14:46:34.477628,75
2021-09-24 14:46:34.477635,-21
2021-09-24 14:46:34.477672,-99
2021-09-24 14:46:34.477679,-72
2021-09-24 14:46:34.477685,-75
2021-09-24 14:46:34.477691,-109
2021-09-24 14:46:34.477698,-111
2021-09-24 14:46:34.477704,-111
2021-09-24 14:46:34.477711,-128
2021-09-24 14:46:34.477717,-138
2021-09-24 14:46:34.477723,-143
2021-09-24 14:46:34.656992,-157
2021-09-24 14:46:34.657014,-172
2021-09-24 14:46:34.657022,-182
2021-09-24 14:46:34.657029,-206
2021-09-24 14:46:34.657036,-233
2021-09-24 14:46:34.657043,-252
2021-09-24 14:46:34.657050,-269
2021-09-24 14:46:34.657057,-298
2021-09-24 14:46:34.657064,-325
2021-09-24 14:46:34.657070,-340
2021-09-24 14:46:34.657077,-347
2021-09-24 14:46:34.657084,-354
2021-09-24 14:46:34.657091,-349
2021-09-24 14:46:34.657098,-320
2021-09-24 14:46:34.657112,-284
2021-09-24 14:46:34.657120,-233
2021-09-24 14:46:34.657127,-155
2021-09-24 14:46:34.657133,-72
2021-09-24 14:46:34.657140,0
2021-09-24 14:46:34.657147,75
2021-09-24 14:46:34.657154,136
2021-09-24 14:46:34.657161,170
2021-09-24 14:46:34.657168,194
2021-09-24 14:46:34.657175,206
2021-09-24 14:46:34.657181,204
2021-09-24 14:46:34.657188,201
2021-09-24 14:46:34.657195,199
2021-09-24 14:46:34.657202,187
2021-09-24 14:46:34.657209,177
2021-09-24 14:46:34.657216,167
2021-09-24 14:46:34.972479,157
2021-09-24 14:46:34.972503,150
2021-09-24 14:46:34.972511,145
2021-09-24 14:46:34.972518,133
2021-09-24 14:46:34.972525,123
2021-09-24 14:46:34.972531,114
2021-09-24 14:46:34.972538,106
2021-09-24 14:46:34.972544,106
2021-09-24 14:46:34.972551,99
2021-09-24 14:46:34.972557,82
2021-09-24 14:46:34.972564,68
2021-09-24 14:46:34.972570,63
2021-09-24 14:46:34.972577,60
2021-09-24 14:46:34.972584,63
2021-09-24 14:46:34.972590,65
2021-09-24 14:46:34.972597,60
2021-09-24 14:46:34.972603,60
2021-09-24 14:46:34.972610,60
2021-09-24 14:46:34.972616,63
2021-09-24 14:46:34.972623,68
2021-09-24 14:46:34.972629,65
2021-09-24 14:46:34.972636,63
2021-09-24 14:46:34.972642,60
2021-09-24 14:46:34.972649,60
2021-09-24 14:46:34.972655,60
2021-09-24 14:46:34.972662,60
2021-09-24 14:46:34.972668,60
2021-09-24 14:46:34.972675,60
2021-09-24 14:46:34.972681,58
2021-09-24 14:46:34.972688,58
2021-09-24 14:46:35.107660,58
2021-09-24 14:46:35.107724,60
2021-09-24 14:46:35.107737,58
2021-09-24 14:46:35.107747,53
2021-09-24 14:46:35.107771,51
2021-09-24 14:46:35.107781,53
2021-09-24 14:46:35.107791,53
2021-09-24 14:46:35.107801,51
2021-09-24 14:46:35.107811,55
2021-09-24 14:46:35.107821,58
2021-09-24 14:46:35.107831,48
2021-09-24 14:46:35.107840,34
2021-09-24 14:46:35.107850,26
2021-09-24 14:46:35.107860,17
2021-09-24 14:46:35.107870,4
2021-09-24 14:46:35.107880,-4
2021-09-24 14:46:35.107890,-12
2021-09-24 14:46:35.107900,-9
2021-09-24 14:46:35.107910,17
2021-09-24 14:46:35.107919,34
2021-09-24 14:46:35.107929,34
2021-09-24 14:46:35.107939,24
2021-09-24 14:46:35.107949,21
2021-09-24 14:46:35.107969,24
2021-09-24 14:46:35.107980,29
2021-09-24 14:46:35.107990,34
2021-09-24 14:46:35.108000,34
2021-09-24 14:46:35.108009,26
2021-09-24 14:46:35.108019,7
2021-09-24 14:46:35.108029,-36
2021-09-24 14:46:35.332503,-148
2021-09-24 14:46:35.332527,-374
2021-09-24 14:46:35.332535,-514
2021-09-24 14:46:35.332542,-291
2021-09-24 14:46:35.332548,242
2021-09-24 14:46:35.332555,643
2021-09-24 14:46:35.332562,519
2021-09-24 14:46:35.332568,167
2021-09-24 14:46:35.332575,72
2021-09-24 14:46:35.332581,55
2021-09-24 14:46:35.332588,-68
2021-09-24 14:46:35.332595,-106
2021-09-24 14:46:35.332601,-72
2021-09-24 14:46:35.332608,-99
2021-09-24 14:46:35.332614,-131
2021-09-24 14:46:35.332621,-126
2021-09-24 14:46:35.332627,-131
2021-09-24 14:46:35.332634,-145
2021-09-24 14:46:35.332640,-148
2021-09-24 14:46:35.332647,-155
2021-09-24 14:46:35.332653,-174
2021-09-24 14:46:35.332660,-191
2021-09-24 14:46:35.332666,-204
2021-09-24 14:46:35.332673,-216
2021-09-24 14:46:35.332690,-233
2021-09-24 14:46:35.332697,-252
2021-09-24 14:46:35.332703,-274
2021-09-24 14:46:35.332710,-298
2021-09-24 14:46:35.332717,-320
2021-09-24 14:46:35.332723,-332
2021-09-24 14:46:35.602482,-337
2021-09-24 14:46:35.602505,-330
2021-09-24 14:46:35.602513,-325
2021-09-24 14:46:35.602519,-315
2021-09-24 14:46:35.602526,-272
2021-09-24 14:46:35.602532,-201
2021-09-24 14:46:35.602539,-121
2021-09-24 14:46:35.602545,-34
2021-09-24 14:46:35.602551,41
2021-09-24 14:46:35.602558,97
2021-09-24 14:46:35.602564,148
2021-09-24 14:46:35.602571,189
2021-09-24 14:46:35.602577,208
2021-09-24 14:46:35.602584,211
2021-09-24 14:46:35.602590,208
2021-09-24 14:46:35.602597,194
2021-09-24 14:46:35.602603,170
2021-09-24 14:46:35.602609,162
2021-09-24 14:46:35.602616,165
2021-09-24 14:46:35.602622,153
2021-09-24 14:46:35.602628,138
2021-09-24 14:46:35.602635,128
2021-09-24 14:46:35.602641,126
2021-09-24 14:46:35.602648,121
2021-09-24 14:46:35.602654,116
2021-09-24 14:46:35.602660,114
2021-09-24 14:46:35.602667,106
2021-09-24 14:46:35.602705,97
2021-09-24 14:46:35.602712,92
2021-09-24 14:46:35.602718,89
2021-09-24 14:46:35.916234,87
2021-09-24 14:46:35.916266,82
2021-09-24 14:46:35.916280,72
2021-09-24 14:46:35.916292,70
2021-09-24 14:46:35.916304,75
2021-09-24 14:46:35.916316,77
2021-09-24 14:46:35.916326,77
2021-09-24 14:46:35.916332,75
2021-09-24 14:46:35.916339,65
2021-09-24 14:46:35.916346,58
2021-09-24 14:46:35.916352,63
2021-09-24 14:46:35.916358,68
2021-09-24 14:46:35.916365,65
2021-09-24 14:46:35.916371,63
2021-09-24 14:46:35.916378,53
2021-09-24 14:46:35.916384,51
2021-09-24 14:46:35.916391,51
2021-09-24 14:46:35.916397,43
2021-09-24 14:46:35.916411,41
2021-09-24 14:46:35.916418,46
2021-09-24 14:46:35.916424,43
2021-09-24 14:46:35.916431,38
2021-09-24 14:46:35.916437,43
2021-09-24 14:46:35.916443,43
2021-09-24 14:46:35.916450,41
2021-09-24 14:46:35.916456,41
2021-09-24 14:46:35.916463,41
2021-09-24 14:46:35.916469,36
2021-09-24 14:46:35.916476,41
2021-09-24 14:46:35.916482,55
2021-09-24 14:46:36.052490,60
2021-09-24 14:46:36.052512,48
2021-09-24 14:46:36.052521,34
2021-09-24 14:46:36.052528,19
2021-09-24 14:46:36.052535,14
2021-09-24 14:46:36.052542,14
2021-09-24 14:46:36.052549,7
2021-09-24 14:46:36.052556,4
2021-09-24 14:46:36.052562,21
2021-09-24 14:46:36.052569,36
2021-09-24 14:46:36.052576,36
2021-09-24 14:46:36.052583,38
2021-09-24 14:46:36.052590,41
2021-09-24 14:46:36.052597,34
2021-09-24 14:46:36.052603,29
2021-09-24 14:46:36.052610,34
2021-09-24 14:46:36.052617,36
2021-09-24 14:46:36.052624,31
2021-09-24 14:46:36.052631,12
2021-09-24 14:46:36.052638,-38
2021-09-24 14:46:36.052644,-170
2021-09-24 14:46:36.052652,-408
2021-09-24 14:46:36.052658,-534
2021-09-24 14:46:36.052665,-267
2021-09-24 14:46:36.052672,293
2021-09-24 14:46:36.052679,651
2021-09-24 14:46:36.052686,468
2021-09-24 14:46:36.052693,131
2021-09-24 14:46:36.052699,65
2021-09-24 14:46:36.052706,46
2021-09-24 14:46:36.277641,-72
2021-09-24 14:46:36.277663,-106
2021-09-24 14:46:36.277671,-77
2021-09-24 14:46:36.277678,-99
2021-09-24 14:46:36.277725,-123
2021-09-24 14:46:36.277732,-116
2021-09-24 14:46:36.277739,-128
2021-09-24 14:46:36.277745,-153
2021-09-24 14:46:36.277751,-155
2021-09-24 14:46:36.277758,-160
2021-09-24 14:46:36.277764,-177
2021-09-24 14:46:36.277771,-187
2021-09-24 14:46:36.277777,-204
2021-09-24 14:46:36.277784,-228
2021-09-24 14:46:36.277790,-247
2021-09-24 14:46:36.277797,-264
2021-09-24 14:46:36.277803,-291
2021-09-24 14:46:36.277810,-313
2021-09-24 14:46:36.277816,-332
2021-09-24 14:46:36.277823,-352
2021-09-24 14:46:36.277829,-359
2021-09-24 14:46:36.277836,-359
2021-09-24 14:46:36.277842,-349
2021-09-24 14:46:36.277849,-320
2021-09-24 14:46:36.277855,-274
2021-09-24 14:46:36.277862,-208
2021-09-24 14:46:36.277868,-123
2021-09-24 14:46:36.277874,-34
2021-09-24 14:46:36.277881,46
2021-09-24 14:46:36.277887,111
2021-09-24 14:46:36.502592,162
2021-09-24 14:46:36.502621,196
2021-09-24 14:46:36.502634,213
2021-09-24 14:46:36.502644,218
2021-09-24 14:46:36.502654,218
2021-09-24 14:46:36.502664,213
2021-09-24 14:46:36.502674,201
2021-09-24 14:46:36.502684,187
2021-09-24 14:46:36.502694,179
2021-09-24 14:46:36.502704,172
2021-09-24 14:46:36.502714,165
2021-09-24 14:46:36.502724,153
2021-09-24 14:46:36.502734,138
2021-09-24 14:46:36.502744,128
2021-09-24 14:46:36.502754,128
2021-09-24 14:46:36.502764,121
2021-09-24 14:46:36.502774,114
2021-09-24 14:46:36.502784,109
2021-09-24 14:46:36.502794,102
2021-09-24 14:46:36.502804,97
2021-09-24 14:46:36.502814,94
2021-09-24 14:46:36.502824,89
2021-09-24 14:46:36.502834,85
2021-09-24 14:46:36.502845,80
2021-09-24 14:46:36.502868,80
2021-09-24 14:46:36.502879,82
2021-09-24 14:46:36.502889,80
2021-09-24 14:46:36.502899,72
2021-09-24 14:46:36.502909,63
2021-09-24 14:46:36.502920,63
2021-09-24 14:46:36.727166,65
2021-09-24 14:46:36.727187,65
2021-09-24 14:46:36.727194,65
2021-09-24 14:46:36.727200,63
2021-09-24 14:46:36.727206,58
2021-09-24 14:46:36.727211,53
2021-09-24 14:46:36.727217,48
2021-09-24 14:46:36.727223,53
2021-09-24 14:46:36.727228,58
2021-09-24 14:46:36.727234,53
2021-09-24 14:46:36.727240,48
2021-09-24 14:46:36.727246,43
2021-09-24 14:46:36.727251,41
2021-09-24 14:46:36.727257,48
2021-09-24 14:46:36.727263,48
2021-09-24 14:46:36.727268,43
2021-09-24 14:46:36.727274,43
2021-09-24 14:46:36.727280,43
2021-09-24 14:46:36.727286,46
2021-09-24 14:46:36.727291,53
2021-09-24 14:46:36.727297,58
2021-09-24 14:46:36.727303,51
2021-09-24 14:46:36.727309,36
2021-09-24 14:46:36.727314,19
2021-09-24 14:46:36.727327,12
2021-09-24 14:46:36.727333,7
2021-09-24 14:46:36.727339,-7
2021-09-24 14:46:36.727345,2
2021-09-24 14:46:36.727351,29
2021-09-24 14:46:36.727356,38
2021-09-24 14:46:36.997569,36
2021-09-24 14:46:36.997593,38
2021-09-24 14:46:36.997601,41
2021-09-24 14:46:36.997607,36
2021-09-24 14:46:36.997614,29
2021-09-24 14:46:36.997621,26
2021-09-24 14:46:36.997627,31
2021-09-24 14:46:36.997633,24
2021-09-24 14:46:36.997640,-2
2021-09-24 14:46:36.997647,-58
2021-09-24 14:46:36.997653,-201
2021-09-24 14:46:36.997659,-444
2021-09-24 14:46:36.997697,-539
2021-09-24 14:46:36.997703,-230
2021-09-24 14:46:36.997710,337
2021-09-24 14:46:36.997716,663
2021-09-24 14:46:36.997723,444
2021-09-24 14:46:36.997729,116
2021-09-24 14:46:36.997735,70
2021-09-24 14:46:36.997742,41
2021-09-24 14:46:36.997748,-75
2021-09-24 14:46:36.997755,-97
2021-09-24 14:46:36.997761,-65
2021-09-24 14:46:36.997767,-92
2021-09-24 14:46:36.997774,-111
2021-09-24 14:46:36.997780,-99
2021-09-24 14:46:36.997787,-111
2021-09-24 14:46:36.997793,-133
2021-09-24 14:46:36.997799,-143
2021-09-24 14:46:36.997806,-148
2021-09-24 14:46:37.177546,-160
2021-09-24 14:46:37.177571,-174
2021-09-24 14:46:37.177580,-191
2021-09-24 14:46:37.177587,-218
2021-09-24 14:46:37.177594,-250
2021-09-24 14:46:37.177601,-272
2021-09-24 14:46:37.177608,-286
2021-09-24 14:46:37.177615,-310
2021-09-24 14:46:37.177622,-337
2021-09-24 14:46:37.177629,-361
2021-09-24 14:46:37.177636,-371
2021-09-24 14:46:37.177642,-366
2021-09-24 14:46:37.177649,-344
2021-09-24 14:46:37.177656,-313
2021-09-24 14:46:37.177663,-269
2021-09-24 14:46:37.177670,-206
2021-09-24 14:46:37.177677,-121
2021-09-24 14:46:37.177684,-29
2021-09-24 14:46:37.177691,53
2021-09-24 14:46:37.177698,119
2021-09-24 14:46:37.177736,165
2021-09-24 14:46:37.177743,187
2021-09-24 14:46:37.177750,199
2021-09-24 14:46:37.177757,211
2021-09-24 14:46:37.177764,216
2021-09-24 14:46:37.177771,213
2021-09-24 14:46:37.177778,201
2021-09-24 14:46:37.177785,187
2021-09-24 14:46:37.177792,179
2021-09-24 14:46:37.177799,170
2021-09-24 14:46:37.447644,155
2021-09-24 14:46:37.447669,148
2021-09-24 14:46:37.447677,138
2021-09-24 14:46:37.447684,119
2021-09-24 14:46:37.447702,109
2021-09-24 14:46:37.447709,106
2021-09-24 14:46:37.447716,104
2021-09-24 14:46:37.447723,92
2021-09-24 14:46:37.447730,80
2021-09-24 14:46:37.447737,65
2021-09-24 14:46:37.447744,60
2021-09-24 14:46:37.447751,65
2021-09-24 14:46:37.447757,70
2021-09-24 14:46:37.447764,70
2021-09-24 14:46:37.447771,68
2021-09-24 14:46:37.447778,63
2021-09-24 14:46:37.447785,65
2021-09-24 14:46:37.447792,70
2021-09-24 14:46:37.447799,70
2021-09-24 14:46:37.447806,72
2021-09-24 14:46:37.447813,70
2021-09-24 14:46:37.447819,65
2021-09-24 14:46:37.447826,65
2021-09-24 14:46:37.447833,70
2021-09-24 14:46:37.447840,70
2021-09-24 14:46:37.447847,68
2021-09-24 14:46:37.447854,65
2021-09-24 14:46:37.447861,60
2021-09-24 14:46:37.447868,58
2021-09-24 14:46:37.447874,58
2021-09-24 14:46:37.672955,63
2021-09-24 14:46:37.672976,58
2021-09-24 14:46:37.672984,46
2021-09-24 14:46:37.672991,41
2021-09-24 14:46:37.672997,43
2021-09-24 14:46:37.673004,48
2021-09-24 14:46:37.673010,51
2021-09-24 14:46:37.673016,48
2021-09-24 14:46:37.673023,36
2021-09-24 14:46:37.673029,21
2021-09-24 14:46:37.673036,17
2021-09-24 14:46:37.673042,26
2021-09-24 14:46:37.673048,36
2021-09-24 14:46:37.673055,29
2021-09-24 14:46:37.673061,9
2021-09-24 14:46:37.673068,-9
2021-09-24 14:46:37.673074,-14
2021-09-24 14:46:37.673081,-4
2021-09-24 14:46:37.673087,-9
2021-09-24 14:46:37.673094,-14
2021-09-24 14:46:37.673100,2
2021-09-24 14:46:37.673107,19
2021-09-24 14:46:37.673113,29
2021-09-24 14:46:37.673119,34
2021-09-24 14:46:37.673136,31
2021-09-24 14:46:37.673143,31
2021-09-24 14:46:37.673149,34
2021-09-24 14:46:37.673156,34
2021-09-24 14:46:37.673162,36
2021-09-24 14:46:37.673169,41
2021-09-24 14:46:37.986954,31
2021-09-24 14:46:37.986978,-2
2021-09-24 14:46:37.986986,-77
2021-09-24 14:46:37.986993,-272
2021-09-24 14:46:37.986999,-507
2021-09-24 14:46:37.987006,-471
2021-09-24 14:46:37.987012,-34
2021-09-24 14:46:37.987019,505
2021-09-24 14:46:37.987025,634
2021-09-24 14:46:37.987032,301
2021-09-24 14:46:37.987038,68
2021-09-24 14:46:37.987045,77
2021-09-24 14:46:37.987051,-4
2021-09-24 14:46:37.987058,-106
2021-09-24 14:46:37.987064,-94
2021-09-24 14:46:37.987071,-82
2021-09-24 14:46:37.987077,-111
2021-09-24 14:46:37.987084,-116
2021-09-24 14:46:37.987090,-114
2021-09-24 14:46:37.987097,-131
2021-09-24 14:46:37.987103,-145
2021-09-24 14:46:37.987110,-150
2021-09-24 14:46:37.987116,-160
2021-09-24 14:46:37.987122,-170
2021-09-24 14:46:37.987129,-184
2021-09-24 14:46:37.987135,-201
2021-09-24 14:46:37.987142,-221
2021-09-24 14:46:37.987148,-242
2021-09-24 14:46:37.987155,-267
2021-09-24 14:46:37.987161,-289
2021-09-24 14:46:38.122272,-315
2021-09-24 14:46:38.122295,-342
2021-09-24 14:46:38.122304,-352
2021-09-24 14:46:38.122311,-354
2021-09-24 14:46:38.122318,-347
2021-09-24 14:46:38.122325,-330
2021-09-24 14:46:38.122332,-308
2021-09-24 14:46:38.122339,-259
2021-09-24 14:46:38.122346,-177
2021-09-24 14:46:38.122352,-87
2021-09-24 14:46:38.122359,-4
2021-09-24 14:46:38.122366,70
2021-09-24 14:46:38.122373,128
2021-09-24 14:46:38.122380,167
2021-09-24 14:46:38.122397,194
2021-09-24 14:46:38.122405,199
2021-09-24 14:46:38.122412,191
2021-09-24 14:46:38.122419,196
2021-09-24 14:46:38.122426,196
2021-09-24 14:46:38.122433,187
2021-09-24 14:46:38.122439,179
2021-09-24 14:46:38.122446,174
2021-09-24 14:46:38.122453,162
2021-09-24 14:46:38.122460,153
2021-09-24 14:46:38.122467,140
2021-09-24 14:46:38.122474,126
2021-09-24 14:46:38.122481,116
2021-09-24 14:46:38.122488,106
2021-09-24 14:46:38.122495,97
2021-09-24 14:46:38.122502,89
2021-09-24 14:46:38.347536,85
2021-09-24 14:46:38.347560,80
2021-09-24 14:46:38.347568,80
2021-09-24 14:46:38.347575,77
2021-09-24 14:46:38.347581,80
2021-09-24 14:46:38.347588,77
2021-09-24 14:46:38.347595,68
2021-09-24 14:46:38.347601,63
2021-09-24 14:46:38.347608,60
2021-09-24 14:46:38.347614,60
2021-09-24 14:46:38.347621,63
2021-09-24 14:46:38.347627,63
2021-09-24 14:46:38.347634,55
2021-09-24 14:46:38.347640,55
2021-09-24 14:46:38.347647,60
2021-09-24 14:46:38.347654,58
2021-09-24 14:46:38.347691,60
2021-09-24 14:46:38.347698,60
2021-09-24 14:46:38.347705,58
2021-09-24 14:46:38.347711,60
2021-09-24 14:46:38.347718,60
2021-09-24 14:46:38.347724,58
2021-09-24 14:46:38.347731,58
2021-09-24 14:46:38.347737,58
2021-09-24 14:46:38.347744,53
2021-09-24 14:46:38.347750,53
2021-09-24 14:46:38.347757,58
2021-09-24 14:46:38.347763,55
2021-09-24 14:46:38.347770,53
2021-09-24 14:46:38.347776,55
2021-09-24 14:46:38.572239,53
2021-09-24 14:46:38.572261,53
2021-09-24 14:46:38.572269,63
2021-09-24 14:46:38.572275,65
2021-09-24 14:46:38.572292,60
2021-09-24 14:46:38.572299,43
2021-09-24 14:46:38.572306,19
2021-09-24 14:46:38.572312,12
2021-09-24 14:46:38.572319,17
2021-09-24 14:46:38.572325,7
2021-09-24 14:46:38.572332,-4
2021-09-24 14:46:38.572339,12
2021-09-24 14:46:38.572345,34
2021-09-24 14:46:38.572352,41
2021-09-24 14:46:38.572358,38
2021-09-24 14:46:38.572365,38
2021-09-24 14:46:38.572371,41
2021-09-24 14:46:38.572378,38
2021-09-24 14:46:38.572385,43
2021-09-24 14:46:38.572391,48
2021-09-24 14:46:38.572398,38
2021-09-24 14:46:38.572404,12
2021-09-24 14:46:38.572411,-17
2021-09-24 14:46:38.572417,-75
2021-09-24 14:46:38.572424,-240
2021-09-24 14:46:38.572430,-483
2021-09-24 14:46:38.572437,-510
2021-09-24 14:46:38.572444,-133
2021-09-24 14:46:38.572450,429
2021-09-24 14:46:38.572457,665
2021-09-24 14:46:38.797580,376
2021-09-24 14:46:38.797604,94
2021-09-24 14:46:38.797612,85
2021-09-24 14:46:38.797619,26
2021-09-24 14:46:38.797626,-92
2021-09-24 14:46:38.797632,-94
2021-09-24 14:46:38.797639,-75
2021-09-24 14:46:38.797646,-104
2021-09-24 14:46:38.797652,-119
2021-09-24 14:46:38.797659,-116
2021-09-24 14:46:38.797665,-136
2021-09-24 14:46:38.797672,-157
2021-09-24 14:46:38.797678,-167
2021-09-24 14:46:38.797685,-174
2021-09-24 14:46:38.797691,-184
2021-09-24 14:46:38.797698,-199
2021-09-24 14:46:38.797705,-218
2021-09-24 14:46:38.797711,-238
2021-09-24 14:46:38.797718,-257
2021-09-24 14:46:38.797724,-279
2021-09-24 14:46:38.797731,-310
2021-09-24 14:46:38.797737,-340
2021-09-24 14:46:38.797775,-361
2021-09-24 14:46:38.797781,-376
2021-09-24 14:46:38.797795,-378
2021-09-24 14:46:38.797802,-371
2021-09-24 14:46:38.797808,-354
2021-09-24 14:46:38.797815,-323
2021-09-24 14:46:38.797821,-269
2021-09-24 14:46:38.797827,-187
2021-09-24 14:46:39.022705,-92
2021-09-24 14:46:39.022769,-2
2021-09-24 14:46:39.022781,75
2021-09-24 14:46:39.022792,131
2021-09-24 14:46:39.022802,170
2021-09-24 14:46:39.022812,196
2021-09-24 14:46:39.022822,216
2021-09-24 14:46:39.022832,221
2021-09-24 14:46:39.022842,221
2021-09-24 14:46:39.022852,213
2021-09-24 14:46:39.022861,199
2021-09-24 14:46:39.022871,191
2021-09-24 14:46:39.022881,191
2021-09-24 14:46:39.022891,179
2021-09-24 14:46:39.022901,160
2021-09-24 14:46:39.022911,140
2021-09-24 14:46:39.022921,128
2021-09-24 14:46:39.022931,119
2021-09-24 14:46:39.022941,109
2021-09-24 14:46:39.022951,102
2021-09-24 14:46:39.022961,94
2021-09-24 14:46:39.022971,85
2021-09-24 14:46:39.022981,80
2021-09-24 14:46:39.022991,82
2021-09-24 14:46:39.023001,82
2021-09-24 14:46:39.023029,80
2021-09-24 14:46:39.023039,70
2021-09-24 14:46:39.023049,58
2021-09-24 14:46:39.023059,60
2021-09-24 14:46:39.023069,68
2021-09-24 14:46:39.292708,70
2021-09-24 14:46:39.292731,70
2021-09-24 14:46:39.292739,70
2021-09-24 14:46:39.292746,60
2021-09-24 14:46:39.292752,53
2021-09-24 14:46:39.292759,63
2021-09-24 14:46:39.292765,65
2021-09-24 14:46:39.292772,65
2021-09-24 14:46:39.292778,60
2021-09-24 14:46:39.292784,51
2021-09-24 14:46:39.292791,48
2021-09-24 14:46:39.292797,53
2021-09-24 14:46:39.292804,58
2021-09-24 14:46:39.292810,58
2021-09-24 14:46:39.292828,55
2021-09-24 14:46:39.292835,51
2021-09-24 14:46:39.292841,46
2021-09-24 14:46:39.292848,46
2021-09-24 14:46:39.292854,51
2021-09-24 14:46:39.292861,53
2021-09-24 14:46:39.292867,48
2021-09-24 14:46:39.292874,46
2021-09-24 14:46:39.292880,48
2021-09-24 14:46:39.292887,51
2021-09-24 14:46:39.292893,55
2021-09-24 14:46:39.292900,53
2021-09-24 14:46:39.292906,53
2021-09-24 14:46:39.292913,58
2021-09-24 14:46:39.292919,60
2021-09-24 14:46:39.292926,55
2021-09-24 14:46:39.517350,41
2021-09-24 14:46:39.517372,26
2021-09-24 14:46:39.517380,26
2021-09-24 14:46:39.517387,21
2021-09-24 14:46:39.517394,17
2021-09-24 14:46:39.517401,29
2021-09-24 14:46:39.517408,51
2021-09-24 14:46:39.517414,63
2021-09-24 14:46:39.517421,55
2021-09-24 14:46:39.517428,43
2021-09-24 14:46:39.517435,51
2021-09-24 14:46:39.517441,60
2021-09-24 14:46:39.517448,58
2021-09-24 14:46:39.517455,53
2021-09-24 14:46:39.517462,48
2021-09-24 14:46:39.517468,36
2021-09-24 14:46:39.517475,19
2021-09-24 14:46:39.517481,-26
2021-09-24 14:46:39.517489,-157
2021-09-24 14:46:39.517495,-408
2021-09-24 14:46:39.517502,-556
2021-09-24 14:46:39.517508,-320
2021-09-24 14:46:39.517515,230
2021-09-24 14:46:39.517522,646
2021-09-24 14:46:39.517528,529
2021-09-24 14:46:39.517535,172
2021-09-24 14:46:39.517541,75
2021-09-24 14:46:39.517548,68
2021-09-24 14:46:39.517555,-46
2021-09-24 14:46:39.517561,-87
2021-09-24 14:46:39.742612,-51
2021-09-24 14:46:39.742636,-72
2021-09-24 14:46:39.742643,-111
2021-09-24 14:46:39.742650,-116
2021-09-24 14:46:39.742667,-119
2021-09-24 14:46:39.742674,-128
2021-09-24 14:46:39.742680,-138
2021-09-24 14:46:39.742687,-155
2021-09-24 14:46:39.742693,-177
2021-09-24 14:46:39.742700,-191
2021-09-24 14:46:39.742706,-196
2021-09-24 14:46:39.742713,-213
2021-09-24 14:46:39.742722,-240
2021-09-24 14:46:39.742760,-269
2021-09-24 14:46:39.742767,-301
2021-09-24 14:46:39.742773,-330
2021-09-24 14:46:39.742780,-352
2021-09-24 14:46:39.742786,-369
2021-09-24 14:46:39.742793,-376
2021-09-24 14:46:39.742799,-378
2021-09-24 14:46:39.742806,-378
2021-09-24 14:46:39.742812,-357
2021-09-24 14:46:39.742819,-303
2021-09-24 14:46:39.742825,-228
2021-09-24 14:46:39.742832,-140
2021-09-24 14:46:39.742838,-48
2021-09-24 14:46:39.742845,36
2021-09-24 14:46:39.742851,104
2021-09-24 14:46:39.742858,160
2021-09-24 14:46:39.742864,199
2021-09-24 14:46:40.011233,216
2021-09-24 14:46:40.011257,223
2021-09-24 14:46:40.011265,228
2021-09-24 14:46:40.011271,225
2021-09-24 14:46:40.011278,223
2021-09-24 14:46:40.011285,213
2021-09-24 14:46:40.011291,194
2021-09-24 14:46:40.011298,174
2021-09-24 14:46:40.011304,157
2021-09-24 14:46:40.011311,145
2021-09-24 14:46:40.011317,136
2021-09-24 14:46:40.011323,128
2021-09-24 14:46:40.011330,116
2021-09-24 14:46:40.011337,102
2021-09-24 14:46:40.011343,97
2021-09-24 14:46:40.011350,97
2021-09-24 14:46:40.011356,94
2021-09-24 14:46:40.011363,92
2021-09-24 14:46:40.011369,87
2021-09-24 14:46:40.011376,82
2021-09-24 14:46:40.011382,85
2021-09-24 14:46:40.011389,82
2021-09-24 14:46:40.011396,75
2021-09-24 14:46:40.011402,72
2021-09-24 14:46:40.011409,75
2021-09-24 14:46:40.011415,75
2021-09-24 14:46:40.011422,75
2021-09-24 14:46:40.011428,80
2021-09-24 14:46:40.011435,82
2021-09-24 14:46:40.011442,82
2021-09-24 14:46:40.192199,82
2021-09-24 14:46:40.192219,80
2021-09-24 14:46:40.192227,77
2021-09-24 14:46:40.192234,77
2021-09-24 14:46:40.192240,75
2021-09-24 14:46:40.192247,72
2021-09-24 14:46:40.192253,65
2021-09-24 14:46:40.192260,58
2021-09-24 14:46:40.192266,53
2021-09-24 14:46:40.192273,43
2021-09-24 14:46:40.192279,41
2021-09-24 14:46:40.192286,46
2021-09-24 14:46:40.192292,38
2021-09-24 14:46:40.192299,34
2021-09-24 14:46:40.192305,38
2021-09-24 14:46:40.192312,38
2021-09-24 14:46:40.192318,38
2021-09-24 14:46:40.192325,38
2021-09-24 14:46:40.192331,38
2021-09-24 14:46:40.192338,38
2021-09-24 14:46:40.192344,41
2021-09-24 14:46:40.192351,41
2021-09-24 14:46:40.192357,43
2021-09-24 14:46:40.192364,46
2021-09-24 14:46:40.192370,36
2021-09-24 14:46:40.192377,17
2021-09-24 14:46:40.192383,4
2021-09-24 14:46:40.192390,7
2021-09-24 14:46:40.192396,12
2021-09-24 14:46:40.192403,4
2021-09-24 14:46:40.417774,2
2021-09-24 14:46:40.417804,26
2021-09-24 14:46:40.417816,46
2021-09-24 14:46:40.417826,48
2021-09-24 14:46:40.417836,46
2021-09-24 14:46:40.417846,43
2021-09-24 14:46:40.417856,41
2021-09-24 14:46:40.417866,41
2021-09-24 14:46:40.417876,43
2021-09-24 14:46:40.417886,43
2021-09-24 14:46:40.417896,41
2021-09-24 14:46:40.417907,26
2021-09-24 14:46:40.417917,-7
2021-09-24 14:46:40.417927,-72
2021-09-24 14:46:40.417950,-252
2021-09-24 14:46:40.417961,-500
2021-09-24 14:46:40.417971,-507
2021-09-24 14:46:40.417981,-111
2021-09-24 14:46:40.417991,446
2021-09-24 14:46:40.418001,663
2021-09-24 14:46:40.418011,366
2021-09-24 14:46:40.418022,94
2021-09-24 14:46:40.418032,92
2021-09-24 14:46:40.418042,29
2021-09-24 14:46:40.418052,-82
2021-09-24 14:46:40.418062,-72
2021-09-24 14:46:40.418072,-65
2021-09-24 14:46:40.418082,-106
2021-09-24 14:46:40.418092,-114
2021-09-24 14:46:40.418102,-109
2021-09-24 14:46:40.642761,-123
2021-09-24 14:46:40.642786,-133
2021-09-24 14:46:40.642794,-138
2021-09-24 14:46:40.642801,-153
2021-09-24 14:46:40.642840,-174
2021-09-24 14:46:40.642847,-194
2021-09-24 14:46:40.642854,-211
2021-09-24 14:46:40.642861,-225
2021-09-24 14:46:40.642867,-252
2021-09-24 14:46:40.642874,-289
2021-09-24 14:46:40.642881,-327
2021-09-24 14:46:40.642888,-361
2021-09-24 14:46:40.642894,-383
2021-09-24 14:46:40.642901,-405
2021-09-24 14:46:40.642908,-422
2021-09-24 14:46:40.642915,-420
2021-09-24 14:46:40.642921,-398
2021-09-24 14:46:40.642928,-361
2021-09-24 14:46:40.642944,-298
2021-09-24 14:46:40.642952,-208
2021-09-24 14:46:40.642959,-111
2021-09-24 14:46:40.642965,-17
2021-09-24 14:46:40.642972,63
2021-09-24 14:46:40.642979,128
2021-09-24 14:46:40.642986,174
2021-09-24 14:46:40.642993,199
2021-09-24 14:46:40.642999,206
2021-09-24 14:46:40.643006,206
2021-09-24 14:46:40.643013,201
2021-09-24 14:46:40.643020,194
2021-09-24 14:46:40.867092,189
2021-09-24 14:46:40.867112,187
2021-09-24 14:46:40.867119,177
2021-09-24 14:46:40.867126,160
2021-09-24 14:46:40.867132,143
2021-09-24 14:46:40.867138,133
2021-09-24 14:46:40.867144,131
2021-09-24 14:46:40.867151,126
2021-09-24 14:46:40.867157,114
2021-09-24 14:46:40.867163,102
2021-09-24 14:46:40.867168,89
2021-09-24 14:46:40.867174,82
2021-09-24 14:46:40.867180,82
2021-09-24 14:46:40.867186,77
2021-09-24 14:46:40.867192,72
2021-09-24 14:46:40.867198,70
2021-09-24 14:46:40.867204,72
2021-09-24 14:46:40.867210,72
2021-09-24 14:46:40.867216,75
2021-09-24 14:46:40.867222,80
2021-09-24 14:46:40.867228,82
2021-09-24 14:46:40.867234,77
2021-09-24 14:46:40.867240,77
2021-09-24 14:46:40.867246,80
2021-09-24 14:46:40.867252,82
2021-09-24 14:46:40.867258,85
2021-09-24 14:46:40.867264,85
2021-09-24 14:46:40.867270,80
2021-09-24 14:46:40.867276,77
2021-09-24 14:46:40.867282,82
2021-09-24 14:46:41.137741,77
2021-09-24 14:46:41.137763,70
2021-09-24 14:46:41.137771,68
2021-09-24 14:46:41.137778,60
2021-09-24 14:46:41.137784,51
2021-09-24 14:46:41.137791,55
2021-09-24 14:46:41.137797,60
2021-09-24 14:46:41.137804,58
2021-09-24 14:46:41.137811,55
2021-09-24 14:46:41.137817,48
2021-09-24 14:46:41.137824,43
2021-09-24 14:46:41.137830,51
2021-09-24 14:46:41.137837,58
2021-09-24 14:46:41.137843,55
2021-09-24 14:46:41.137850,51
2021-09-24 14:46:41.137856,46
2021-09-24 14:46:41.137863,48
2021-09-24 14:46:41.137869,55
2021-09-24 14:46:41.137876,55
2021-09-24 14:46:41.137882,38
2021-09-24 14:46:41.137889,12
2021-09-24 14:46:41.137895,-7
2021-09-24 14:46:41.137902,0
2021-09-24 14:46:41.137909,7
2021-09-24 14:46:41.137924,0
2021-09-24 14:46:41.137931,4
2021-09-24 14:46:41.137938,26
2021-09-24 14:46:41.137944,38
2021-09-24 14:46:41.137951,46
2021-09-24 14:46:41.137957,46
2021-09-24 14:46:41.362749,46
2021-09-24 14:46:41.362773,48
2021-09-24 14:46:41.362781,46
2021-09-24 14:46:41.362788,41
2021-09-24 14:46:41.362794,43
2021-09-24 14:46:41.362801,46
2021-09-24 14:46:41.362807,38
2021-09-24 14:46:41.362814,9
2021-09-24 14:46:41.362820,-68
2021-09-24 14:46:41.362827,-255
2021-09-24 14:46:41.362834,-500
2021-09-24 14:46:41.362871,-514
2021-09-24 14:46:41.362878,-133
2021-09-24 14:46:41.362884,429
2021-09-24 14:46:41.362891,668
2021-09-24 14:46:41.362897,371
2021-09-24 14:46:41.362904,87
2021-09-24 14:46:41.362910,87
2021-09-24 14:46:41.362917,31
2021-09-24 14:46:41.362923,-82
2021-09-24 14:46:41.362930,-77
2021-09-24 14:46:41.362936,-60
2021-09-24 14:46:41.362943,-94
2021-09-24 14:46:41.362949,-104
2021-09-24 14:46:41.362956,-97
2021-09-24 14:46:41.362962,-111
2021-09-24 14:46:41.362969,-131
2021-09-24 14:46:41.362975,-136
2021-09-24 14:46:41.362982,-143
2021-09-24 14:46:41.362988,-155
2021-09-24 14:46:41.632213,-170
2021-09-24 14:46:41.632238,-191
2021-09-24 14:46:41.632246,-221
2021-09-24 14:46:41.632253,-252
2021-09-24 14:46:41.632260,-284
2021-09-24 14:46:41.632267,-315
2021-09-24 14:46:41.632274,-344
2021-09-24 14:46:41.632281,-376
2021-09-24 14:46:41.632288,-408
2021-09-24 14:46:41.632295,-415
2021-09-24 14:46:41.632302,-405
2021-09-24 14:46:41.632309,-386
2021-09-24 14:46:41.632316,-352
2021-09-24 14:46:41.632322,-293
2021-09-24 14:46:41.632340,-216
2021-09-24 14:46:41.632347,-119
2021-09-24 14:46:41.632354,-19
2021-09-24 14:46:41.632361,63
2021-09-24 14:46:41.632368,126
2021-09-24 14:46:41.632375,167
2021-09-24 14:46:41.632382,189
2021-09-24 14:46:41.632389,199
2021-09-24 14:46:41.632395,206
2021-09-24 14:46:41.632402,211
2021-09-24 14:46:41.632409,201
2021-09-24 14:46:41.632416,182
2021-09-24 14:46:41.632426,172
2021-09-24 14:46:41.632434,167
2021-09-24 14:46:41.632441,157
2021-09-24 14:46:41.632448,150
2021-09-24 14:46:41.812843,143
2021-09-24 14:46:41.812866,133
2021-09-24 14:46:41.812874,121
2021-09-24 14:46:41.812880,114
2021-09-24 14:46:41.812887,109
2021-09-24 14:46:41.812893,102
2021-09-24 14:46:41.812900,92
2021-09-24 14:46:41.812937,75
2021-09-24 14:46:41.812944,68
2021-09-24 14:46:41.812950,70
2021-09-24 14:46:41.812957,72
2021-09-24 14:46:41.812963,75
2021-09-24 14:46:41.812970,70
2021-09-24 14:46:41.812976,65
2021-09-24 14:46:41.812982,63
2021-09-24 14:46:41.812989,68
2021-09-24 14:46:41.812995,72
2021-09-24 14:46:41.813002,72
2021-09-24 14:46:41.813008,72
2021-09-24 14:46:41.813014,70
2021-09-24 14:46:41.813021,72
2021-09-24 14:46:41.813027,72
2021-09-24 14:46:41.813034,72
2021-09-24 14:46:41.813040,75
2021-09-24 14:46:41.813047,75
2021-09-24 14:46:41.813053,72
2021-09-24 14:46:41.813060,72
2021-09-24 14:46:41.813066,72
2021-09-24 14:46:41.813073,72
2021-09-24 14:46:41.813079,75
2021-09-24 14:46:42.081916,72
2021-09-24 14:46:42.081938,68
2021-09-24 14:46:42.081946,65
2021-09-24 14:46:42.081953,63
2021-09-24 14:46:42.081959,65
2021-09-24 14:46:42.081966,65
2021-09-24 14:46:42.081973,58
2021-09-24 14:46:42.081979,51
2021-09-24 14:46:42.081985,48
2021-09-24 14:46:42.081992,43
2021-09-24 14:46:42.081998,43
2021-09-24 14:46:42.082004,46
2021-09-24 14:46:42.082011,41
2021-09-24 14:46:42.082017,38
2021-09-24 14:46:42.082024,38
2021-09-24 14:46:42.082030,26
2021-09-24 14:46:42.082036,7
2021-09-24 14:46:42.082043,7
2021-09-24 14:46:42.082049,12
2021-09-24 14:46:42.082055,4
2021-09-24 14:46:42.082062,0
2021-09-24 14:46:42.082068,17
2021-09-24 14:46:42.082075,38
2021-09-24 14:46:42.082081,53
2021-09-24 14:46:42.082087,48
2021-09-24 14:46:42.082094,46
2021-09-24 14:46:42.082100,48
2021-09-24 14:46:42.082106,48
2021-09-24 14:46:42.082113,48
2021-09-24 14:46:42.082119,53
2021-09-24 14:46:42.262876,43
2021-09-24 14:46:42.262899,29
2021-09-24 14:46:42.262907,7
2021-09-24 14:46:42.262914,-34
2021-09-24 14:46:42.262920,-157
2021-09-24 14:46:42.262927,-405
2021-09-24 14:46:42.262933,-573
2021-09-24 14:46:42.262939,-361
2021-09-24 14:46:42.262946,177
2021-09-24 14:46:42.262952,624
2021-09-24 14:46:42.262989,546
2021-09-24 14:46:42.262995,170
2021-09-24 14:46:42.263002,48
2021-09-24 14:46:42.263008,60
2021-09-24 14:46:42.263014,-51
2021-09-24 14:46:42.263021,-109
2021-09-24 14:46:42.263027,-72
2021-09-24 14:46:42.263034,-92
2021-09-24 14:46:42.263040,-126
2021-09-24 14:46:42.263046,-119
2021-09-24 14:46:42.263053,-121
2021-09-24 14:46:42.263059,-143
2021-09-24 14:46:42.263066,-150
2021-09-24 14:46:42.263072,-162
2021-09-24 14:46:42.263089,-182
2021-09-24 14:46:42.263096,-194
2021-09-24 14:46:42.263102,-208
2021-09-24 14:46:42.263108,-230
2021-09-24 14:46:42.263115,-255
2021-09-24 14:46:42.263121,-281
2021-09-24 14:46:42.487867,-310
2021-09-24 14:46:42.487892,-337
2021-09-24 14:46:42.487901,-369
2021-09-24 14:46:42.487908,-395
2021-09-24 14:46:42.487915,-412
2021-09-24 14:46:42.487922,-420
2021-09-24 14:46:42.487928,-410
2021-09-24 14:46:42.487935,-378
2021-09-24 14:46:42.487942,-330
2021-09-24 14:46:42.487949,-264
2021-09-24 14:46:42.487956,-174
2021-09-24 14:46:42.487962,-82
2021-09-24 14:46:42.487969,-4
2021-09-24 14:46:42.487976,65
2021-09-24 14:46:42.487983,126
2021-09-24 14:46:42.487990,162
2021-09-24 14:46:42.487997,182
2021-09-24 14:46:42.488004,189
2021-09-24 14:46:42.488010,194
2021-09-24 14:46:42.488017,199
2021-09-24 14:46:42.488024,196
2021-09-24 14:46:42.488063,187
2021-09-24 14:46:42.488070,179
2021-09-24 14:46:42.488077,170
2021-09-24 14:46:42.488084,165
2021-09-24 14:46:42.488090,157
2021-09-24 14:46:42.488097,150
2021-09-24 14:46:42.488104,138
2021-09-24 14:46:42.488111,126
2021-09-24 14:46:42.488118,121
2021-09-24 14:46:42.712913,119
2021-09-24 14:46:42.712938,111
2021-09-24 14:46:42.712946,106
2021-09-24 14:46:42.712953,97
2021-09-24 14:46:42.712961,82
2021-09-24 14:46:42.712967,80
2021-09-24 14:46:42.712974,80
2021-09-24 14:46:42.712981,70
2021-09-24 14:46:42.712988,63
2021-09-24 14:46:42.712995,65
2021-09-24 14:46:42.713002,60
2021-09-24 14:46:42.713009,58
2021-09-24 14:46:42.713015,68
2021-09-24 14:46:42.713022,72
2021-09-24 14:46:42.713036,65
2021-09-24 14:46:42.713044,55
2021-09-24 14:46:42.713051,58
2021-09-24 14:46:42.713058,60
2021-09-24 14:46:42.713064,60
2021-09-24 14:46:42.713071,63
2021-09-24 14:46:42.713078,65
2021-09-24 14:46:42.713085,63
2021-09-24 14:46:42.713092,58
2021-09-24 14:46:42.713099,60
2021-09-24 14:46:42.713106,65
2021-09-24 14:46:42.713113,65
2021-09-24 14:46:42.713120,60
2021-09-24 14:46:42.713127,55
2021-09-24 14:46:42.713133,55
2021-09-24 14:46:42.713140,55
2021-09-24 14:46:42.982377,60
2021-09-24 14:46:42.982398,60
2021-09-24 14:46:42.982406,55
2021-09-24 14:46:42.982413,46
2021-09-24 14:46:42.982421,38
2021-09-24 14:46:42.982427,41
2021-09-24 14:46:42.982434,46
2021-09-24 14:46:42.982441,48
2021-09-24 14:46:42.982448,51
2021-09-24 14:46:42.982455,41
2021-09-24 14:46:42.982462,24
2021-09-24 14:46:42.982469,12
2021-09-24 14:46:42.982476,12
2021-09-24 14:46:42.982483,14
2021-09-24 14:46:42.982490,9
2021-09-24 14:46:42.982497,-2
2021-09-24 14:46:42.982504,4
2021-09-24 14:46:42.982511,24
2021-09-24 14:46:42.982519,38
2021-09-24 14:46:42.982525,43
2021-09-24 14:46:42.982532,41
2021-09-24 14:46:42.982540,38
2021-09-24 14:46:42.982547,41
2021-09-24 14:46:42.982553,48
2021-09-24 14:46:42.982560,51
2021-09-24 14:46:42.982567,51
2021-09-24 14:46:42.982574,46
2021-09-24 14:46:42.982593,24
2021-09-24 14:46:42.982601,-14
2021-09-24 14:46:42.982608,-109
2021-09-24 14:46:43.207941,-330
2021-09-24 14:46:43.207964,-541
2021-09-24 14:46:43.207972,-425
2021-09-24 14:46:43.207978,51
2021-09-24 14:46:43.207995,561
2021-09-24 14:46:43.208003,629
2021-09-24 14:46:43.208009,274
2021-09-24 14:46:43.208016,82
2021-09-24 14:46:43.208022,92
2021-09-24 14:46:43.208029,-12
2021-09-24 14:46:43.208035,-94
2021-09-24 14:46:43.208042,-60
2021-09-24 14:46:43.208048,-70
2021-09-24 14:46:43.208055,-116
2021-09-24 14:46:43.208062,-123
2021-09-24 14:46:43.208068,-128
2021-09-24 14:46:43.208075,-143
2021-09-24 14:46:43.208081,-150
2021-09-24 14:46:43.208088,-165
2021-09-24 14:46:43.208094,-187
2021-09-24 14:46:43.208101,-204
2021-09-24 14:46:43.208107,-218
2021-09-24 14:46:43.208114,-238
2021-09-24 14:46:43.208120,-252
2021-09-24 14:46:43.208127,-276
2021-09-24 14:46:43.208133,-306
2021-09-24 14:46:43.208140,-340
2021-09-24 14:46:43.208146,-371
2021-09-24 14:46:43.208153,-393
2021-09-24 14:46:43.208195,-405
2021-09-24 14:46:43.433008,-410
2021-09-24 14:46:43.433031,-403
2021-09-24 14:46:43.433039,-383
2021-09-24 14:46:43.433046,-347
2021-09-24 14:46:43.433053,-279
2021-09-24 14:46:43.433059,-179
2021-09-24 14:46:43.433066,-80
2021-09-24 14:46:43.433072,4
2021-09-24 14:46:43.433079,75
2021-09-24 14:46:43.433085,138
2021-09-24 14:46:43.433092,184
2021-09-24 14:46:43.433098,208
2021-09-24 14:46:43.433105,221
2021-09-24 14:46:43.433111,221
2021-09-24 14:46:43.433118,213
2021-09-24 14:46:43.433124,208
2021-09-24 14:46:43.433130,208
2021-09-24 14:46:43.433137,206
2021-09-24 14:46:43.433143,196
2021-09-24 14:46:43.433150,184
2021-09-24 14:46:43.433156,167
2021-09-24 14:46:43.433163,150
2021-09-24 14:46:43.433169,145
2021-09-24 14:46:43.433176,143
2021-09-24 14:46:43.433194,133
2021-09-24 14:46:43.433201,126
2021-09-24 14:46:43.433207,116
2021-09-24 14:46:43.433214,111
2021-09-24 14:46:43.433220,109
2021-09-24 14:46:43.433227,106
2021-09-24 14:46:43.657965,104
2021-09-24 14:46:43.657995,102
2021-09-24 14:46:43.658007,102
2021-09-24 14:46:43.658017,104
2021-09-24 14:46:43.658027,104
2021-09-24 14:46:43.658037,106
2021-09-24 14:46:43.658047,109
2021-09-24 14:46:43.658057,102
2021-09-24 14:46:43.658067,97
2021-09-24 14:46:43.658077,99
2021-09-24 14:46:43.658087,102
2021-09-24 14:46:43.658097,99
2021-09-24 14:46:43.658107,97
2021-09-24 14:46:43.658117,92
2021-09-24 14:46:43.658126,87
2021-09-24 14:46:43.658136,85
2021-09-24 14:46:43.658146,87
2021-09-24 14:46:43.658156,87
2021-09-24 14:46:43.658166,82
2021-09-24 14:46:43.658176,70
2021-09-24 14:46:43.658186,70
2021-09-24 14:46:43.658196,72
2021-09-24 14:46:43.658206,70
2021-09-24 14:46:43.658216,63
2021-09-24 14:46:43.658226,63
2021-09-24 14:46:43.658236,63
2021-09-24 14:46:43.658246,65
2021-09-24 14:46:43.658256,65
2021-09-24 14:46:43.658266,63
2021-09-24 14:46:43.658276,68
2021-09-24 14:46:43.882366,68
2021-09-24 14:46:43.882387,65
2021-09-24 14:46:43.882395,65
2021-09-24 14:46:43.882402,65
2021-09-24 14:46:43.882408,65
2021-09-24 14:46:43.882414,68
2021-09-24 14:46:43.882421,63
2021-09-24 14:46:43.882427,55
2021-09-24 14:46:43.882433,53
2021-09-24 14:46:43.882440,41
2021-09-24 14:46:43.882446,26
2021-09-24 14:46:43.882452,26
2021-09-24 14:46:43.882458,24
2021-09-24 14:46:43.882465,9
2021-09-24 14:46:43.882471,17
2021-09-24 14:46:43.882477,41
2021-09-24 14:46:43.882484,55
2021-09-24 14:46:43.882490,65
2021-09-24 14:46:43.882496,63
2021-09-24 14:46:43.882503,60
2021-09-24 14:46:43.882509,65
2021-09-24 14:46:43.882515,65
2021-09-24 14:46:43.882522,65
2021-09-24 14:46:43.882528,70
2021-09-24 14:46:43.882534,65
2021-09-24 14:46:43.882541,51
2021-09-24 14:46:43.882547,21
2021-09-24 14:46:43.882553,-38
2021-09-24 14:46:43.882560,-204
2021-09-24 14:46:43.882566,-459
2021-09-24 14:46:44.151754,-534
2021-09-24 14:46:44.151778,-208
2021-09-24 14:46:44.151786,352
2021-09-24 14:46:44.151793,685
2021-09-24 14:46:44.151799,471
2021-09-24 14:46:44.151806,140
2021-09-24 14:46:44.151812,94
2021-09-24 14:46:44.151819,65
2021-09-24 14:46:44.151825,-51
2021-09-24 14:46:44.151832,-68
2021-09-24 14:46:44.151838,-38
2021-09-24 14:46:44.151844,-72
2021-09-24 14:46:44.151851,-99
2021-09-24 14:46:44.151857,-97
2021-09-24 14:46:44.151864,-111
2021-09-24 14:46:44.151870,-128
2021-09-24 14:46:44.151876,-133
2021-09-24 14:46:44.151883,-145
2021-09-24 14:46:44.151889,-162
2021-09-24 14:46:44.151895,-174
2021-09-24 14:46:44.151902,-191
2021-09-24 14:46:44.151908,-216
2021-09-24 14:46:44.151915,-238
2021-09-24 14:46:44.151921,-264
2021-09-24 14:46:44.151928,-306
2021-09-24 14:46:44.151934,-347
2021-09-24 14:46:44.151940,-376
2021-09-24 14:46:44.151947,-405
2021-09-24 14:46:44.151953,-425
2021-09-24 14:46:44.151960,-425
2021-09-24 14:46:44.332997,-412
2021-09-24 14:46:44.333027,-386
2021-09-24 14:46:44.333039,-335
2021-09-24 14:46:44.333050,-255
2021-09-24 14:46:44.333074,-153
2021-09-24 14:46:44.333084,-58
2021-09-24 14:46:44.333095,26
2021-09-24 14:46:44.333105,104
2021-09-24 14:46:44.333115,157
2021-09-24 14:46:44.333125,189
2021-09-24 14:46:44.333135,204
2021-09-24 14:46:44.333145,204
2021-09-24 14:46:44.333155,204
2021-09-24 14:46:44.333165,208
2021-09-24 14:46:44.333175,204
2021-09-24 14:46:44.333185,194
2021-09-24 14:46:44.333195,187
2021-09-24 14:46:44.333205,179
2021-09-24 14:46:44.333215,172
2021-09-24 14:46:44.333225,167
2021-09-24 14:46:44.333235,157
2021-09-24 14:46:44.333245,148
2021-09-24 14:46:44.333255,138
2021-09-24 14:46:44.333265,126
2021-09-24 14:46:44.333275,121
2021-09-24 14:46:44.333285,119
2021-09-24 14:46:44.333295,116
2021-09-24 14:46:44.333305,114
2021-09-24 14:46:44.333315,104
2021-09-24 14:46:44.333325,97
2021-09-24 14:46:44.558064,94
2021-09-24 14:46:44.558088,99
2021-09-24 14:46:44.558096,99
2021-09-24 14:46:44.558103,97
2021-09-24 14:46:44.558110,89
2021-09-24 14:46:44.558116,85
2021-09-24 14:46:44.558123,87
2021-09-24 14:46:44.558129,92
2021-09-24 14:46:44.558136,92
2021-09-24 14:46:44.558142,87
2021-09-24 14:46:44.558181,80
2021-09-24 14:46:44.558187,77
2021-09-24 14:46:44.558194,82
2021-09-24 14:46:44.558200,87
2021-09-24 14:46:44.558207,85
2021-09-24 14:46:44.558223,80
2021-09-24 14:46:44.558230,77
2021-09-24 14:46:44.558237,77
2021-09-24 14:46:44.558243,80
2021-09-24 14:46:44.558250,82
2021-09-24 14:46:44.558256,82
2021-09-24 14:46:44.558262,77
2021-09-24 14:46:44.558269,77
2021-09-24 14:46:44.558275,82
2021-09-24 14:46:44.558285,82
2021-09-24 14:46:44.558292,82
2021-09-24 14:46:44.558298,82
2021-09-24 14:46:44.558304,75
2021-09-24 14:46:44.558311,70
2021-09-24 14:46:44.558317,65
2021-09-24 14:46:44.917512,53
2021-09-24 14:46:44.917533,48
2021-09-24 14:46:44.917541,51
2021-09-24 14:46:44.917548,48
2021-09-24 14:46:44.917554,36
2021-09-24 14:46:44.917561,19
2021-09-24 14:46:44.917567,9
2021-09-24 14:46:44.917574,12
2021-09-24 14:46:44.917580,14
2021-09-24 14:46:44.917587,0
2021-09-24 14:46:44.917594,-4
2021-09-24 14:46:44.917600,19
2021-09-24 14:46:44.917607,43
2021-09-24 14:46:44.917613,51
2021-09-24 14:46:44.917620,48
2021-09-24 14:46:44.917626,46
2021-09-24 14:46:44.917633,46
2021-09-24 14:46:44.917639,51
2021-09-24 14:46:44.917646,55
2021-09-24 14:46:44.917653,55
2021-09-24 14:46:44.917659,53
2021-09-24 14:46:44.917666,43
2021-09-24 14:46:44.917672,19
2021-09-24 14:46:44.917679,-29
2021-09-24 14:46:44.917686,-165
2021-09-24 14:46:44.917692,-417
2021-09-24 14:46:44.917699,-548
2021-09-24 14:46:44.917705,-293
2021-09-24 14:46:44.917712,255
2021-09-24 14:46:44.917719,665
2021-09-24 14:46:45.053161,531
2021-09-24 14:46:45.053215,172
2021-09-24 14:46:45.053224,87
2021-09-24 14:46:45.053231,72
2021-09-24 14:46:45.053238,-51
2021-09-24 14:46:45.053245,-82
2021-09-24 14:46:45.053251,-46
2021-09-24 14:46:45.053258,-70
2021-09-24 14:46:45.053265,-104
2021-09-24 14:46:45.053272,-111
2021-09-24 14:46:45.053278,-121
2021-09-24 14:46:45.053285,-128
2021-09-24 14:46:45.053292,-136
2021-09-24 14:46:45.053299,-148
2021-09-24 14:46:45.053316,-167
2021-09-24 14:46:45.053323,-187
2021-09-24 14:46:45.053330,-199
2021-09-24 14:46:45.053337,-213
2021-09-24 14:46:45.053344,-240
2021-09-24 14:46:45.053351,-267
2021-09-24 14:46:45.053358,-306
2021-09-24 14:46:45.053364,-347
2021-09-24 14:46:45.053371,-374
2021-09-24 14:46:45.053378,-395
2021-09-24 14:46:45.053385,-415
2021-09-24 14:46:45.053392,-422
2021-09-24 14:46:45.053398,-417
2021-09-24 14:46:45.053405,-403
2021-09-24 14:46:45.053412,-344
2021-09-24 14:46:45.053419,-257
2021-09-24 14:46:45.322822,-155
2021-09-24 14:46:45.322844,-53
2021-09-24 14:46:45.322852,34
2021-09-24 14:46:45.322859,106
2021-09-24 14:46:45.322866,162
2021-09-24 14:46:45.322872,189
2021-09-24 14:46:45.322879,199
2021-09-24 14:46:45.322885,206
2021-09-24 14:46:45.322891,204
2021-09-24 14:46:45.322898,194
2021-09-24 14:46:45.322904,196
2021-09-24 14:46:45.322911,199
2021-09-24 14:46:45.322917,189
2021-09-24 14:46:45.322924,179
2021-09-24 14:46:45.322930,162
2021-09-24 14:46:45.322936,148
2021-09-24 14:46:45.322943,143
2021-09-24 14:46:45.322949,140
2021-09-24 14:46:45.322956,133
2021-09-24 14:46:45.322962,123
2021-09-24 14:46:45.322968,114
2021-09-24 14:46:45.322975,106
2021-09-24 14:46:45.322981,104
2021-09-24 14:46:45.322988,102
2021-09-24 14:46:45.322994,99
2021-09-24 14:46:45.323000,97
2021-09-24 14:46:45.323007,94
2021-09-24 14:46:45.323013,92
2021-09-24 14:46:45.323020,94
2021-09-24 14:46:45.323026,99
2021-09-24 14:46:45.503229,99
2021-09-24 14:46:45.503283,99
2021-09-24 14:46:45.503292,99
2021-09-24 14:46:45.503298,94
2021-09-24 14:46:45.503315,97
2021-09-24 14:46:45.503322,99
2021-09-24 14:46:45.503329,99
2021-09-24 14:46:45.503336,92
2021-09-24 14:46:45.503343,87
2021-09-24 14:46:45.503349,89
2021-09-24 14:46:45.503356,92
2021-09-24 14:46:45.503363,89
2021-09-24 14:46:45.503370,85
2021-09-24 14:46:45.503376,77
2021-09-24 14:46:45.503383,72
2021-09-24 14:46:45.503390,75
2021-09-24 14:46:45.503397,75
2021-09-24 14:46:45.503404,75
2021-09-24 14:46:45.503410,75
2021-09-24 14:46:45.503417,70
2021-09-24 14:46:45.503424,63
2021-09-24 14:46:45.503431,63
2021-09-24 14:46:45.503441,65
2021-09-24 14:46:45.503448,70
2021-09-24 14:46:45.503455,68
2021-09-24 14:46:45.503462,65
2021-09-24 14:46:45.503468,60
2021-09-24 14:46:45.503475,63
2021-09-24 14:46:45.503482,68
2021-09-24 14:46:45.503489,65
2021-09-24 14:46:45.773157,51
2021-09-24 14:46:45.773179,34
2021-09-24 14:46:45.773187,26
2021-09-24 14:46:45.773193,29
2021-09-24 14:46:45.773200,24
2021-09-24 14:46:45.773206,21
2021-09-24 14:46:45.773213,31
2021-09-24 14:46:45.773219,43
2021-09-24 14:46:45.773226,53
2021-09-24 14:46:45.773232,48
2021-09-24 14:46:45.773239,38
2021-09-24 14:46:45.773245,31
2021-09-24 14:46:45.773252,19
2021-09-24 14:46:45.773259,14
2021-09-24 14:46:45.773265,21
2021-09-24 14:46:45.773272,21
2021-09-24 14:46:45.773278,19
2021-09-24 14:46:45.773285,7
2021-09-24 14:46:45.773291,-29
2021-09-24 14:46:45.773298,-121
2021-09-24 14:46:45.773304,-332
2021-09-24 14:46:45.773311,-556
2021-09-24 14:46:45.773317,-478
2021-09-24 14:46:45.773324,-19
2021-09-24 14:46:45.773340,514
2021-09-24 14:46:45.773347,634
2021-09-24 14:46:45.773354,291
2021-09-24 14:46:45.773360,65
2021-09-24 14:46:45.773367,80
2021-09-24 14:46:45.773374,2
2021-09-24 14:46:45.953302,-92
2021-09-24 14:46:45.953344,-70
2021-09-24 14:46:45.953356,-63
2021-09-24 14:46:45.953366,-104
2021-09-24 14:46:45.953376,-114
2021-09-24 14:46:45.953386,-116
2021-09-24 14:46:45.953396,-140
2021-09-24 14:46:45.953406,-153
2021-09-24 14:46:45.953416,-157
2021-09-24 14:46:45.953426,-172
2021-09-24 14:46:45.953436,-189
2021-09-24 14:46:45.953446,-206
2021-09-24 14:46:45.953456,-228
2021-09-24 14:46:45.953466,-245
2021-09-24 14:46:45.953476,-272
2021-09-24 14:46:45.953486,-306
2021-09-24 14:46:45.953496,-337
2021-09-24 14:46:45.953506,-371
2021-09-24 14:46:45.953516,-410
2021-09-24 14:46:45.953526,-434
2021-09-24 14:46:45.953536,-442
2021-09-24 14:46:45.953546,-442
2021-09-24 14:46:45.953556,-427
2021-09-24 14:46:45.953566,-388
2021-09-24 14:46:45.953576,-315
2021-09-24 14:46:45.953586,-216
2021-09-24 14:46:45.953596,-111
2021-09-24 14:46:45.953606,-19
2021-09-24 14:46:45.953617,63
2021-09-24 14:46:45.953627,131
2021-09-24 14:46:46.222001,177
2021-09-24 14:46:46.222031,204
2021-09-24 14:46:46.222043,216
2021-09-24 14:46:46.222054,218
2021-09-24 14:46:46.222064,221
2021-09-24 14:46:46.222074,211
2021-09-24 14:46:46.222084,199
2021-09-24 14:46:46.222094,196
2021-09-24 14:46:46.222104,191
2021-09-24 14:46:46.222114,179
2021-09-24 14:46:46.222134,167
2021-09-24 14:46:46.222144,155
2021-09-24 14:46:46.222154,145
2021-09-24 14:46:46.222164,138
2021-09-24 14:46:46.222191,123
2021-09-24 14:46:46.222202,114
2021-09-24 14:46:46.222212,109
2021-09-24 14:46:46.222222,97
2021-09-24 14:46:46.222232,82
2021-09-24 14:46:46.222242,82
2021-09-24 14:46:46.222252,80
2021-09-24 14:46:46.222262,72
2021-09-24 14:46:46.222272,70
2021-09-24 14:46:46.222281,75
2021-09-24 14:46:46.222291,77
2021-09-24 14:46:46.222301,82
2021-09-24 14:46:46.222311,82
2021-09-24 14:46:46.222321,82
2021-09-24 14:46:46.222331,82
2021-09-24 14:46:46.222341,85
2021-09-24 14:46:46.403279,85
2021-09-24 14:46:46.403310,87
2021-09-24 14:46:46.403322,87
2021-09-24 14:46:46.403332,82
2021-09-24 14:46:46.403342,77
2021-09-24 14:46:46.403352,70
2021-09-24 14:46:46.403362,72
2021-09-24 14:46:46.403371,77
2021-09-24 14:46:46.403381,75
2021-09-24 14:46:46.403391,72
2021-09-24 14:46:46.403401,65
2021-09-24 14:46:46.403411,55
2021-09-24 14:46:46.403420,58
2021-09-24 14:46:46.403430,63
2021-09-24 14:46:46.403440,63
2021-09-24 14:46:46.403450,53
2021-09-24 14:46:46.403459,41
2021-09-24 14:46:46.403469,43
2021-09-24 14:46:46.403479,51
2021-09-24 14:46:46.403489,51
2021-09-24 14:46:46.403498,48
2021-09-24 14:46:46.403508,48
2021-09-24 14:46:46.403518,51
2021-09-24 14:46:46.403528,55
2021-09-24 14:46:46.403538,55
2021-09-24 14:46:46.403547,41
2021-09-24 14:46:46.403557,21
2021-09-24 14:46:46.403567,17
2021-09-24 14:46:46.403590,17
2021-09-24 14:46:46.403602,12
2021-09-24 14:46:46.627760,12
2021-09-24 14:46:46.627782,34
2021-09-24 14:46:46.627790,53
2021-09-24 14:46:46.627796,53
2021-09-24 14:46:46.627810,41
2021-09-24 14:46:46.627816,38
2021-09-24 14:46:46.627827,43
2021-09-24 14:46:46.627838,48
2021-09-24 14:46:46.627850,51
2021-09-24 14:46:46.627862,46
2021-09-24 14:46:46.627873,38
2021-09-24 14:46:46.627885,38
2021-09-24 14:46:46.627896,26
2021-09-24 14:46:46.627907,-9
2021-09-24 14:46:46.627914,-106
2021-09-24 14:46:46.627921,-335
2021-09-24 14:46:46.627927,-561
2021-09-24 14:46:46.627933,-459
2021-09-24 14:46:46.627940,17
2021-09-24 14:46:46.627947,544
2021-09-24 14:46:46.627953,634
2021-09-24 14:46:46.627960,274
2021-09-24 14:46:46.627966,58
2021-09-24 14:46:46.627972,68
2021-09-24 14:46:46.627979,-24
2021-09-24 14:46:46.627986,-106
2021-09-24 14:46:46.627992,-77
2021-09-24 14:46:46.627999,-85
2021-09-24 14:46:46.628005,-123
2021-09-24 14:46:46.628011,-121
2021-09-24 14:46:46.897729,-126
2021-09-24 14:46:46.897771,-143
2021-09-24 14:46:46.897780,-150
2021-09-24 14:46:46.897787,-167
2021-09-24 14:46:46.897794,-187
2021-09-24 14:46:46.897801,-191
2021-09-24 14:46:46.897808,-204
2021-09-24 14:46:46.897814,-223
2021-09-24 14:46:46.897821,-255
2021-09-24 14:46:46.897828,-291
2021-09-24 14:46:46.897833,-318
2021-09-24 14:46:46.897840,-342
2021-09-24 14:46:46.897847,-374
2021-09-24 14:46:46.897854,-403
2021-09-24 14:46:46.897861,-427
2021-09-24 14:46:46.897868,-446
2021-09-24 14:46:46.897875,-442
2021-09-24 14:46:46.897882,-420
2021-09-24 14:46:46.897888,-381
2021-09-24 14:46:46.897895,-315
2021-09-24 14:46:46.897902,-225
2021-09-24 14:46:46.897909,-123
2021-09-24 14:46:46.897915,-21
2021-09-24 14:46:46.897921,63
2021-09-24 14:46:46.897927,128
2021-09-24 14:46:46.897934,174
2021-09-24 14:46:46.897940,196
2021-09-24 14:46:46.897946,201
2021-09-24 14:46:46.897952,206
2021-09-24 14:46:46.897959,213
2021-09-24 14:46:47.122986,211
2021-09-24 14:46:47.123009,206
2021-09-24 14:46:47.123017,194
2021-09-24 14:46:47.123023,184
2021-09-24 14:46:47.123030,179
2021-09-24 14:46:47.123036,177
2021-09-24 14:46:47.123043,170
2021-09-24 14:46:47.123049,157
2021-09-24 14:46:47.123056,140
2021-09-24 14:46:47.123062,126
2021-09-24 14:46:47.123069,121
2021-09-24 14:46:47.123075,119
2021-09-24 14:46:47.123082,114
2021-09-24 14:46:47.123088,106
2021-09-24 14:46:47.123095,97
2021-09-24 14:46:47.123101,85
2021-09-24 14:46:47.123108,87
2021-09-24 14:46:47.123114,92
2021-09-24 14:46:47.123121,92
2021-09-24 14:46:47.123127,89
2021-09-24 14:46:47.123134,87
2021-09-24 14:46:47.123140,82
2021-09-24 14:46:47.123147,77
2021-09-24 14:46:47.123153,80
2021-09-24 14:46:47.123160,85
2021-09-24 14:46:47.123166,82
2021-09-24 14:46:47.123172,80
2021-09-24 14:46:47.123179,80
2021-09-24 14:46:47.123185,72
2021-09-24 14:46:47.123192,60
2021-09-24 14:46:47.392906,63
2021-09-24 14:46:47.392930,68
2021-09-24 14:46:47.392937,63
2021-09-24 14:46:47.392944,58
2021-09-24 14:46:47.392951,60
2021-09-24 14:46:47.392958,63
2021-09-24 14:46:47.392964,63
2021-09-24 14:46:47.392971,55
2021-09-24 14:46:47.392977,46
2021-09-24 14:46:47.392984,46
2021-09-24 14:46:47.392990,51
2021-09-24 14:46:47.392997,51
2021-09-24 14:46:47.393004,51
2021-09-24 14:46:47.393010,48
2021-09-24 14:46:47.393027,41
2021-09-24 14:46:47.393034,38
2021-09-24 14:46:47.393041,46
2021-09-24 14:46:47.393047,53
2021-09-24 14:46:47.393054,55
2021-09-24 14:46:47.393060,53
2021-09-24 14:46:47.393067,41
2021-09-24 14:46:47.393073,21
2021-09-24 14:46:47.393080,12
2021-09-24 14:46:47.393086,12
2021-09-24 14:46:47.393093,2
2021-09-24 14:46:47.393099,-2
2021-09-24 14:46:47.393106,17
2021-09-24 14:46:47.393113,36
2021-09-24 14:46:47.393119,41
2021-09-24 14:46:47.393126,43
2021-09-24 14:46:47.573418,43
2021-09-24 14:46:47.573440,43
2021-09-24 14:46:47.573448,43
2021-09-24 14:46:47.573455,43
2021-09-24 14:46:47.573461,46
2021-09-24 14:46:47.573468,48
2021-09-24 14:46:47.573474,41
2021-09-24 14:46:47.573481,24
2021-09-24 14:46:47.573487,-12
2021-09-24 14:46:47.573493,-102
2021-09-24 14:46:47.573500,-318
2021-09-24 14:46:47.573506,-548
2021-09-24 14:46:47.573513,-483
2021-09-24 14:46:47.573519,-34
2021-09-24 14:46:47.573526,510
2021-09-24 14:46:47.573532,646
2021-09-24 14:46:47.573538,298
2021-09-24 14:46:47.573545,68
2021-09-24 14:46:47.573551,82
2021-09-24 14:46:47.573558,0
2021-09-24 14:46:47.573564,-94
2021-09-24 14:46:47.573571,-70
2021-09-24 14:46:47.573577,-63
2021-09-24 14:46:47.573584,-102
2021-09-24 14:46:47.573590,-106
2021-09-24 14:46:47.573597,-109
2021-09-24 14:46:47.573603,-133
2021-09-24 14:46:47.573609,-148
2021-09-24 14:46:47.573616,-157
2021-09-24 14:46:47.573622,-172
2021-09-24 14:46:47.798311,-187
2021-09-24 14:46:47.798341,-199
2021-09-24 14:46:47.798353,-218
2021-09-24 14:46:47.798364,-250
2021-09-24 14:46:47.798387,-284
2021-09-24 14:46:47.798398,-318
2021-09-24 14:46:47.798408,-357
2021-09-24 14:46:47.798418,-391
2021-09-24 14:46:47.798428,-415
2021-09-24 14:46:47.798438,-434
2021-09-24 14:46:47.798448,-442
2021-09-24 14:46:47.798458,-439
2021-09-24 14:46:47.798468,-429
2021-09-24 14:46:47.798478,-395
2021-09-24 14:46:47.798488,-325
2021-09-24 14:46:47.798498,-230
2021-09-24 14:46:47.798508,-128
2021-09-24 14:46:47.798517,-36
2021-09-24 14:46:47.798527,48
2021-09-24 14:46:47.798538,116
2021-09-24 14:46:47.798548,162
2021-09-24 14:46:47.798558,187
2021-09-24 14:46:47.798568,201
2021-09-24 14:46:47.798577,206
2021-09-24 14:46:47.798587,204
2021-09-24 14:46:47.798597,201
2021-09-24 14:46:47.798607,199
2021-09-24 14:46:47.798675,191
2021-09-24 14:46:47.798732,174
2021-09-24 14:46:47.798746,162
2021-09-24 14:46:48.023277,157
2021-09-24 14:46:48.023299,150
2021-09-24 14:46:48.023307,138
2021-09-24 14:46:48.023314,128
2021-09-24 14:46:48.023321,119
2021-09-24 14:46:48.023327,106
2021-09-24 14:46:48.023334,92
2021-09-24 14:46:48.023340,92
2021-09-24 14:46:48.023347,92
2021-09-24 14:46:48.023354,85
2021-09-24 14:46:48.023360,80
2021-09-24 14:46:48.023367,75
2021-09-24 14:46:48.023373,70
2021-09-24 14:46:48.023380,75
2021-09-24 14:46:48.023387,80
2021-09-24 14:46:48.023393,77
2021-09-24 14:46:48.023401,77
2021-09-24 14:46:48.023408,75
2021-09-24 14:46:48.023414,75
2021-09-24 14:46:48.023421,75
2021-09-24 14:46:48.023427,82
2021-09-24 14:46:48.023434,82
2021-09-24 14:46:48.023440,77
2021-09-24 14:46:48.023447,80
2021-09-24 14:46:48.023454,85
2021-09-24 14:46:48.023460,77
2021-09-24 14:46:48.023467,72
2021-09-24 14:46:48.023473,80
2021-09-24 14:46:48.023480,85
2021-09-24 14:46:48.023486,75
2021-09-24 14:46:48.292600,63
2021-09-24 14:46:48.292623,63
2021-09-24 14:46:48.292630,63
2021-09-24 14:46:48.292637,58
2021-09-24 14:46:48.292644,55
2021-09-24 14:46:48.292650,55
2021-09-24 14:46:48.292657,58
2021-09-24 14:46:48.292663,63
2021-09-24 14:46:48.292670,55
2021-09-24 14:46:48.292676,36
2021-09-24 14:46:48.292683,12
2021-09-24 14:46:48.292689,0
2021-09-24 14:46:48.292696,-9
2021-09-24 14:46:48.292702,-12
2021-09-24 14:46:48.292709,0
2021-09-24 14:46:48.292715,17
2021-09-24 14:46:48.292722,29
2021-09-24 14:46:48.292728,29
2021-09-24 14:46:48.292735,31
2021-09-24 14:46:48.292741,31
2021-09-24 14:46:48.292747,29
2021-09-24 14:46:48.292754,24
2021-09-24 14:46:48.292760,24
2021-09-24 14:46:48.292767,29
2021-09-24 14:46:48.292773,34
2021-09-24 14:46:48.292780,21
2021-09-24 14:46:48.292786,-17
2021-09-24 14:46:48.292793,-82
2021-09-24 14:46:48.292799,-250
2021-09-24 14:46:48.292806,-505
2021-09-24 14:46:48.563362,-553
2021-09-24 14:46:48.563390,-191
2021-09-24 14:46:48.563402,386
2021-09-24 14:46:48.563414,658
2021-09-24 14:46:48.563422,374
2021-09-24 14:46:48.563429,75
2021-09-24 14:46:48.563438,75
2021-09-24 14:46:48.563448,31
2021-09-24 14:46:48.563460,-94
2021-09-24 14:46:48.563470,-109
2021-09-24 14:46:48.563520,-89
2021-09-24 14:46:48.563532,-116
2021-09-24 14:46:48.563540,-131
2021-09-24 14:46:48.563553,-126
2021-09-24 14:46:48.563571,-136
2021-09-24 14:46:48.563578,-155
2021-09-24 14:46:48.563585,-170
2021-09-24 14:46:48.563591,-177
2021-09-24 14:46:48.563598,-187
2021-09-24 14:46:48.563604,-199
2021-09-24 14:46:48.563611,-218
2021-09-24 14:46:48.563642,-250
2021-09-24 14:46:48.563653,-279
2021-09-24 14:46:48.563663,-306
2021-09-24 14:46:48.563678,-344
2021-09-24 14:46:48.563688,-378
2021-09-24 14:46:48.563698,-405
2021-09-24 14:46:48.563778,-437
2021-09-24 14:46:48.563791,-454
2021-09-24 14:46:48.563802,-444
2021-09-24 14:46:48.743405,-420
2021-09-24 14:46:48.743427,-381
2021-09-24 14:46:48.743435,-313
2021-09-24 14:46:48.743441,-221
2021-09-24 14:46:48.743448,-121
2021-09-24 14:46:48.743455,-19
2021-09-24 14:46:48.743461,75
2021-09-24 14:46:48.743468,143
2021-09-24 14:46:48.743474,179
2021-09-24 14:46:48.743481,189
2021-09-24 14:46:48.743487,199
2021-09-24 14:46:48.743494,211
2021-09-24 14:46:48.743500,208
2021-09-24 14:46:48.743507,199
2021-09-24 14:46:48.743513,199
2021-09-24 14:46:48.743520,187
2021-09-24 14:46:48.743526,165
2021-09-24 14:46:48.743533,155
2021-09-24 14:46:48.743539,155
2021-09-24 14:46:48.743546,148
2021-09-24 14:46:48.743552,131
2021-09-24 14:46:48.743559,106
2021-09-24 14:46:48.743565,99
2021-09-24 14:46:48.743572,99
2021-09-24 14:46:48.743578,94
2021-09-24 14:46:48.743585,89
2021-09-24 14:46:48.743591,82
2021-09-24 14:46:48.743598,72
2021-09-24 14:46:48.743604,72
2021-09-24 14:46:48.743611,75
2021-09-24 14:46:49.014028,75
2021-09-24 14:46:49.014052,75
2021-09-24 14:46:49.014060,75
2021-09-24 14:46:49.014067,72
2021-09-24 14:46:49.014073,77
2021-09-24 14:46:49.014080,82
2021-09-24 14:46:49.014087,75
2021-09-24 14:46:49.014094,70
2021-09-24 14:46:49.014100,65
2021-09-24 14:46:49.014107,58
2021-09-24 14:46:49.014114,60
2021-09-24 14:46:49.014120,65
2021-09-24 14:46:49.014127,60
2021-09-24 14:46:49.014134,58
2021-09-24 14:46:49.014140,58
2021-09-24 14:46:49.014147,53
2021-09-24 14:46:49.014154,58
2021-09-24 14:46:49.014160,60
2021-09-24 14:46:49.014167,65
2021-09-24 14:46:49.014174,72
2021-09-24 14:46:49.014180,65
2021-09-24 14:46:49.014187,53
2021-09-24 14:46:49.014193,51
2021-09-24 14:46:49.014200,51
2021-09-24 14:46:49.014206,38
2021-09-24 14:46:49.014213,21
2021-09-24 14:46:49.014220,19
2021-09-24 14:46:49.014226,36
2021-09-24 14:46:49.014233,58
2021-09-24 14:46:49.014240,63
2021-09-24 14:46:49.193295,63
2021-09-24 14:46:49.193317,63
2021-09-24 14:46:49.193325,55
2021-09-24 14:46:49.193332,51
2021-09-24 14:46:49.193338,55
2021-09-24 14:46:49.193345,63
2021-09-24 14:46:49.193351,60
2021-09-24 14:46:49.193358,48
2021-09-24 14:46:49.193364,17
2021-09-24 14:46:49.193371,-29
2021-09-24 14:46:49.193377,-133
2021-09-24 14:46:49.193384,-359
2021-09-24 14:46:49.193390,-524
2021-09-24 14:46:49.193397,-340
2021-09-24 14:46:49.193403,191
2021-09-24 14:46:49.193410,653
2021-09-24 14:46:49.193416,573
2021-09-24 14:46:49.193423,194
2021-09-24 14:46:49.193429,87
2021-09-24 14:46:49.193436,92
2021-09-24 14:46:49.193442,-46
2021-09-24 14:46:49.193449,-114
2021-09-24 14:46:49.193455,-82
2021-09-24 14:46:49.193462,-97
2021-09-24 14:46:49.193478,-126
2021-09-24 14:46:49.193485,-121
2021-09-24 14:46:49.193492,-126
2021-09-24 14:46:49.193498,-143
2021-09-24 14:46:49.193505,-143
2021-09-24 14:46:49.193511,-148
2021-09-24 14:46:49.463531,-165
2021-09-24 14:46:49.463553,-184
2021-09-24 14:46:49.463561,-201
2021-09-24 14:46:49.463568,-225
2021-09-24 14:46:49.463575,-250
2021-09-24 14:46:49.463581,-276
2021-09-24 14:46:49.463588,-315
2021-09-24 14:46:49.463594,-357
2021-09-24 14:46:49.463601,-386
2021-09-24 14:46:49.463607,-410
2021-09-24 14:46:49.463614,-432
2021-09-24 14:46:49.463621,-437
2021-09-24 14:46:49.463627,-425
2021-09-24 14:46:49.463634,-395
2021-09-24 14:46:49.463640,-335
2021-09-24 14:46:49.463647,-242
2021-09-24 14:46:49.463654,-140
2021-09-24 14:46:49.463660,-36
2021-09-24 14:46:49.463836,55
2021-09-24 14:46:49.463869,123
2021-09-24 14:46:49.463878,170
2021-09-24 14:46:49.463884,201
2021-09-24 14:46:49.463891,218
2021-09-24 14:46:49.463898,228
2021-09-24 14:46:49.463904,228
2021-09-24 14:46:49.463911,225
2021-09-24 14:46:49.463917,228
2021-09-24 14:46:49.463925,221
2021-09-24 14:46:49.463936,213
2021-09-24 14:46:49.463986,208
2021-09-24 14:46:49.643215,199
2021-09-24 14:46:49.643237,184
2021-09-24 14:46:49.643245,172
2021-09-24 14:46:49.643252,165
2021-09-24 14:46:49.643258,155
2021-09-24 14:46:49.643265,138
2021-09-24 14:46:49.643272,116
2021-09-24 14:46:49.643278,104
2021-09-24 14:46:49.643285,97
2021-09-24 14:46:49.643291,89
2021-09-24 14:46:49.643298,87
2021-09-24 14:46:49.643304,85
2021-09-24 14:46:49.643311,75
2021-09-24 14:46:49.643317,72
2021-09-24 14:46:49.643334,80
2021-09-24 14:46:49.643341,82
2021-09-24 14:46:49.643347,80
2021-09-24 14:46:49.643354,80
2021-09-24 14:46:49.643360,75
2021-09-24 14:46:49.643367,75
2021-09-24 14:46:49.643373,75
2021-09-24 14:46:49.643380,70
2021-09-24 14:46:49.643386,72
2021-09-24 14:46:49.643393,75
2021-09-24 14:46:49.643399,72
2021-09-24 14:46:49.643406,70
2021-09-24 14:46:49.643412,72
2021-09-24 14:46:49.643419,60
2021-09-24 14:46:49.643425,46
2021-09-24 14:46:49.643432,46
2021-09-24 14:46:49.873655,51
2021-09-24 14:46:49.873682,58
2021-09-24 14:46:49.873692,63
2021-09-24 14:46:49.873701,65
2021-09-24 14:46:49.873710,68
2021-09-24 14:46:49.873719,55
2021-09-24 14:46:49.873727,36
2021-09-24 14:46:49.873736,36
2021-09-24 14:46:49.873745,34
2021-09-24 14:46:49.873754,19
2021-09-24 14:46:49.873763,12
2021-09-24 14:46:49.873772,21
2021-09-24 14:46:49.873781,38
2021-09-24 14:46:49.873787,46
2021-09-24 14:46:49.873792,41
2021-09-24 14:46:49.873797,34
2021-09-24 14:46:49.873805,36
2021-09-24 14:46:49.873814,41
2021-09-24 14:46:49.873823,41
2021-09-24 14:46:49.873831,46
2021-09-24 14:46:49.873840,48
2021-09-24 14:46:49.873848,41
2021-09-24 14:46:49.873856,24
2021-09-24 14:46:49.873865,-21
2021-09-24 14:46:49.873874,-121
2021-09-24 14:46:49.873882,-332
2021-09-24 14:46:49.873890,-524
2021-09-24 14:46:49.873899,-393
2021-09-24 14:46:49.873910,82
2021-09-24 14:46:49.873920,585
2021-09-24 14:46:50.093199,653
2021-09-24 14:46:50.093224,289
2021-09-24 14:46:50.093234,85
2021-09-24 14:46:50.093242,102
2021-09-24 14:46:50.093261,0
2021-09-24 14:46:50.093269,-97
2021-09-24 14:46:50.093277,-68
2021-09-24 14:46:50.093281,-63
2021-09-24 14:46:50.093288,-102
2021-09-24 14:46:50.093296,-104
2021-09-24 14:46:50.093304,-109
2021-09-24 14:46:50.093312,-133
2021-09-24 14:46:50.093320,-136
2021-09-24 14:46:50.093328,-133
2021-09-24 14:46:50.093337,-153
2021-09-24 14:46:50.093345,-174
2021-09-24 14:46:50.093354,-191
2021-09-24 14:46:50.093362,-213
2021-09-24 14:46:50.093370,-233
2021-09-24 14:46:50.093378,-255
2021-09-24 14:46:50.093387,-289
2021-09-24 14:46:50.093395,-327
2021-09-24 14:46:50.093404,-364
2021-09-24 14:46:50.093412,-388
2021-09-24 14:46:50.093420,-403
2021-09-24 14:46:50.093429,-410
2021-09-24 14:46:50.093438,-405
2021-09-24 14:46:50.093446,-381
2021-09-24 14:46:50.093455,-332
2021-09-24 14:46:50.093463,-250
2021-09-24 14:46:50.361523,-145
2021-09-24 14:46:50.361539,-36
2021-09-24 14:46:50.361545,53
2021-09-24 14:46:50.361550,114
2021-09-24 14:46:50.361554,167
2021-09-24 14:46:50.361559,208
2021-09-24 14:46:50.361563,235
2021-09-24 14:46:50.361568,247
2021-09-24 14:46:50.361572,247
2021-09-24 14:46:50.361577,240
2021-09-24 14:46:50.361581,228
2021-09-24 14:46:50.361586,221
2021-09-24 14:46:50.361590,221
2021-09-24 14:46:50.361595,211
2021-09-24 14:46:50.361599,199
2021-09-24 14:46:50.361604,184
2021-09-24 14:46:50.361608,174
2021-09-24 14:46:50.361612,165
2021-09-24 14:46:50.361617,153
2021-09-24 14:46:50.361621,140
2021-09-24 14:46:50.361626,136
2021-09-24 14:46:50.361630,123
2021-09-24 14:46:50.361635,114
2021-09-24 14:46:50.361639,111
2021-09-24 14:46:50.372735,111
2021-09-24 14:46:50.372753,106
2021-09-24 14:46:50.390372,102
2021-09-24 14:46:50.390440,97
2021-09-24 14:46:50.390454,94
2021-09-24 14:46:50.390463,94
2021-09-24 14:46:50.591452,92
2021-09-24 14:46:50.591523,89
2021-09-24 14:46:50.591642,85
2021-09-24 14:46:50.591667,70
2021-09-24 14:46:50.591689,65
2021-09-24 14:46:50.591704,72
2021-09-24 14:46:50.591712,75
2021-09-24 14:46:50.591718,72
2021-09-24 14:46:50.591724,70
2021-09-24 14:46:50.591730,58
2021-09-24 14:46:50.591737,51
2021-09-24 14:46:50.591742,60
2021-09-24 14:46:50.591748,65
2021-09-24 14:46:50.591754,63
2021-09-24 14:46:50.591760,63
2021-09-24 14:46:50.591767,58
2021-09-24 14:46:50.591773,58
2021-09-24 14:46:50.591779,63
2021-09-24 14:46:50.591784,65
2021-09-24 14:46:50.591791,70
2021-09-24 14:46:50.591796,68
2021-09-24 14:46:50.591803,60
2021-09-24 14:46:50.591809,58
2021-09-24 14:46:50.591814,53
2021-09-24 14:46:50.591819,46
2021-09-24 14:46:50.591827,41
2021-09-24 14:46:50.591838,29
2021-09-24 14:46:50.591847,14
2021-09-24 14:46:50.591853,21
2021-09-24 14:46:50.591859,48
2021-09-24 14:46:50.813362,65
2021-09-24 14:46:50.813385,63
2021-09-24 14:46:50.813391,58
2021-09-24 14:46:50.813401,58
2021-09-24 14:46:50.813411,60
2021-09-24 14:46:50.813417,63
2021-09-24 14:46:50.813422,63
2021-09-24 14:46:50.813427,58
2021-09-24 14:46:50.813432,36
2021-09-24 14:46:50.813438,14
2021-09-24 14:46:50.813443,-2
2021-09-24 14:46:50.813448,-55
2021-09-24 14:46:50.813453,-208
2021-09-24 14:46:50.813458,-459
2021-09-24 14:46:50.813471,-561
2021-09-24 14:46:50.813477,-284
2021-09-24 14:46:50.813482,247
2021-09-24 14:46:50.813488,646
2021-09-24 14:46:50.813493,522
2021-09-24 14:46:50.813498,153
2021-09-24 14:46:50.813503,60
2021-09-24 14:46:50.813508,53
2021-09-24 14:46:50.813514,-65
2021-09-24 14:46:50.813519,-102
2021-09-24 14:46:50.813524,-65
2021-09-24 14:46:50.813529,-87
2021-09-24 14:46:50.813535,-116
2021-09-24 14:46:50.813540,-114
2021-09-24 14:46:50.813545,-119
2021-09-24 14:46:50.813550,-131
2021-09-24 14:46:51.083223,-133
2021-09-24 14:46:51.083247,-143
2021-09-24 14:46:51.083257,-162
2021-09-24 14:46:51.083266,-177
2021-09-24 14:46:51.083275,-189
2021-09-24 14:46:51.083284,-206
2021-09-24 14:46:51.083293,-230
2021-09-24 14:46:51.083301,-267
2021-09-24 14:46:51.083310,-308
2021-09-24 14:46:51.083318,-342
2021-09-24 14:46:51.083327,-369
2021-09-24 14:46:51.083335,-393
2021-09-24 14:46:51.083343,-415
2021-09-24 14:46:51.083352,-425
2021-09-24 14:46:51.083361,-420
2021-09-24 14:46:51.083370,-388
2021-09-24 14:46:51.083378,-327
2021-09-24 14:46:51.083387,-238
2021-09-24 14:46:51.083396,-128
2021-09-24 14:46:51.083404,-21
2021-09-24 14:46:51.083414,65
2021-09-24 14:46:51.083423,143
2021-09-24 14:46:51.083432,201
2021-09-24 14:46:51.083440,235
2021-09-24 14:46:51.083449,247
2021-09-24 14:46:51.083458,247
2021-09-24 14:46:51.083467,245
2021-09-24 14:46:51.083476,245
2021-09-24 14:46:51.083485,242
2021-09-24 14:46:51.083494,240
2021-09-24 14:46:51.263538,230
2021-09-24 14:46:51.263559,218
2021-09-24 14:46:51.263567,208
2021-09-24 14:46:51.263574,199
2021-09-24 14:46:51.263588,189
2021-09-24 14:46:51.263595,182
2021-09-24 14:46:51.263602,172
2021-09-24 14:46:51.263609,157
2021-09-24 14:46:51.263615,140
2021-09-24 14:46:51.263622,133
2021-09-24 14:46:51.263628,123
2021-09-24 14:46:51.263635,119
2021-09-24 14:46:51.263641,114
2021-09-24 14:46:51.263648,106
2021-09-24 14:46:51.263654,89
2021-09-24 14:46:51.263661,82
2021-09-24 14:46:51.263667,89
2021-09-24 14:46:51.263673,92
2021-09-24 14:46:51.263680,82
2021-09-24 14:46:51.263686,77
2021-09-24 14:46:51.263693,80
2021-09-24 14:46:51.263699,82
2021-09-24 14:46:51.263706,82
2021-09-24 14:46:51.263712,85
2021-09-24 14:46:51.263719,82
2021-09-24 14:46:51.263725,75
2021-09-24 14:46:51.263732,68
2021-09-24 14:46:51.263738,58
2021-09-24 14:46:51.263745,51
2021-09-24 14:46:51.263751,53
2021-09-24 14:46:51.533546,53
2021-09-24 14:46:51.533571,46
2021-09-24 14:46:51.533579,51
2021-09-24 14:46:51.533586,53
2021-09-24 14:46:51.533592,46
2021-09-24 14:46:51.533598,48
2021-09-24 14:46:51.533605,46
2021-09-24 14:46:51.533611,38
2021-09-24 14:46:51.533618,38
2021-09-24 14:46:51.533624,41
2021-09-24 14:46:51.533630,41
2021-09-24 14:46:51.533637,43
2021-09-24 14:46:51.533643,36
2021-09-24 14:46:51.533649,31
2021-09-24 14:46:51.533656,36
2021-09-24 14:46:51.533662,46
2021-09-24 14:46:51.533668,51
2021-09-24 14:46:51.533675,46
2021-09-24 14:46:51.533681,29
2021-09-24 14:46:51.533687,14
2021-09-24 14:46:51.533694,12
2021-09-24 14:46:51.533700,12
2021-09-24 14:46:51.533706,7
2021-09-24 14:46:51.533713,14
2021-09-24 14:46:51.533726,36
2021-09-24 14:46:51.533733,48
2021-09-24 14:46:51.533739,48
2021-09-24 14:46:51.533745,46
2021-09-24 14:46:51.533752,46
2021-09-24 14:46:51.533758,41
2021-09-24 14:46:51.713646,41
2021-09-24 14:46:51.713666,46
2021-09-24 14:46:51.713674,46
2021-09-24 14:46:51.713680,43
2021-09-24 14:46:51.713687,41
2021-09-24 14:46:51.713693,17
2021-09-24 14:46:51.713700,-31
2021-09-24 14:46:51.713706,-131
2021-09-24 14:46:51.713713,-359
2021-09-24 14:46:51.713719,-561
2021-09-24 14:46:51.713726,-429
2021-09-24 14:46:51.713732,34
2021-09-24 14:46:51.713739,534
2021-09-24 14:46:51.713745,621
2021-09-24 14:46:51.713752,264
2021-09-24 14:46:51.713758,58
2021-09-24 14:46:51.713764,80
2021-09-24 14:46:51.713771,-14
2021-09-24 14:46:51.713777,-106
2021-09-24 14:46:51.713784,-80
2021-09-24 14:46:51.713790,-87
2021-09-24 14:46:51.713797,-123
2021-09-24 14:46:51.713803,-119
2021-09-24 14:46:51.713809,-119
2021-09-24 14:46:51.713816,-138
2021-09-24 14:46:51.713822,-143
2021-09-24 14:46:51.713829,-143
2021-09-24 14:46:51.713835,-157
2021-09-24 14:46:51.713842,-172
2021-09-24 14:46:51.713848,-189
2021-09-24 14:46:51.938609,-208
2021-09-24 14:46:51.938630,-235
2021-09-24 14:46:51.938638,-262
2021-09-24 14:46:51.938645,-291
2021-09-24 14:46:51.938651,-327
2021-09-24 14:46:51.938658,-369
2021-09-24 14:46:51.938664,-395
2021-09-24 14:46:51.938671,-410
2021-09-24 14:46:51.938677,-417
2021-09-24 14:46:51.938684,-415
2021-09-24 14:46:51.938690,-400
2021-09-24 14:46:51.938697,-361
2021-09-24 14:46:51.938703,-284
2021-09-24 14:46:51.938710,-182
2021-09-24 14:46:51.938717,-80
2021-09-24 14:46:51.938724,12
2021-09-24 14:46:51.938731,94
2021-09-24 14:46:51.938737,160
2021-09-24 14:46:51.938744,204
2021-09-24 14:46:51.938750,233
2021-09-24 14:46:51.938757,242
2021-09-24 14:46:51.938763,245
2021-09-24 14:46:51.938770,242
2021-09-24 14:46:51.938776,242
2021-09-24 14:46:51.938783,240
2021-09-24 14:46:51.938790,238
2021-09-24 14:46:51.938796,230
2021-09-24 14:46:51.938810,216
2021-09-24 14:46:51.938817,196
2021-09-24 14:46:51.938824,187
2021-09-24 14:46:52.163354,179
2021-09-24 14:46:52.163377,170
2021-09-24 14:46:52.163385,155
2021-09-24 14:46:52.163391,136
2021-09-24 14:46:52.163398,119
2021-09-24 14:46:52.163404,109
2021-09-24 14:46:52.163410,106
2021-09-24 14:46:52.163417,109
2021-09-24 14:46:52.163423,106
2021-09-24 14:46:52.163429,99
2021-09-24 14:46:52.163436,89
2021-09-24 14:46:52.163442,87
2021-09-24 14:46:52.163448,92
2021-09-24 14:46:52.163455,87
2021-09-24 14:46:52.163461,80
2021-09-24 14:46:52.163467,77
2021-09-24 14:46:52.163474,70
2021-09-24 14:46:52.163480,68
2021-09-24 14:46:52.163486,72
2021-09-24 14:46:52.163492,77
2021-09-24 14:46:52.163499,75
2021-09-24 14:46:52.163505,70
2021-09-24 14:46:52.163511,68
2021-09-24 14:46:52.163518,65
2021-09-24 14:46:52.163524,58
2021-09-24 14:46:52.163530,43
2021-09-24 14:46:52.163537,43
2021-09-24 14:46:52.163543,46
2021-09-24 14:46:52.163549,43
2021-09-24 14:46:52.163556,46
2021-09-24 14:46:52.522115,48
2021-09-24 14:46:52.522138,46
2021-09-24 14:46:52.522145,38
2021-09-24 14:46:52.522152,29
2021-09-24 14:46:52.522159,21
2021-09-24 14:46:52.522166,19
2021-09-24 14:46:52.522172,21
2021-09-24 14:46:52.522179,26
2021-09-24 14:46:52.522193,26
2021-09-24 14:46:52.522200,17
2021-09-24 14:46:52.522206,19
2021-09-24 14:46:52.522213,26
2021-09-24 14:46:52.522219,26
2021-09-24 14:46:52.522226,31
2021-09-24 14:46:52.522232,36
2021-09-24 14:46:52.522238,29
2021-09-24 14:46:52.522245,12
2021-09-24 14:46:52.522251,0
2021-09-24 14:46:52.522258,-2
2021-09-24 14:46:52.522264,4
2021-09-24 14:46:52.522271,0
2021-09-24 14:46:52.522277,-4
2021-09-24 14:46:52.522284,9
2021-09-24 14:46:52.522290,34
2021-09-24 14:46:52.522297,48
2021-09-24 14:46:52.522303,51
2021-09-24 14:46:52.522310,48
2021-09-24 14:46:52.522316,46
2021-09-24 14:46:52.522323,46
2021-09-24 14:46:52.522329,46
2021-09-24 14:46:52.702824,51
2021-09-24 14:46:52.702839,53
2021-09-24 14:46:52.702845,51
2021-09-24 14:46:52.702850,38
2021-09-24 14:46:52.702854,17
2021-09-24 14:46:52.702859,-36
2021-09-24 14:46:52.702863,-191
2021-09-24 14:46:52.702868,-459
2021-09-24 14:46:52.702872,-578
2021-09-24 14:46:52.702877,-308
2021-09-24 14:46:52.702881,242
2021-09-24 14:46:52.702886,646
2021-09-24 14:46:52.702890,493
2021-09-24 14:46:52.702895,133
2021-09-24 14:46:52.702899,60
2021-09-24 14:46:52.702903,46
2021-09-24 14:46:52.702908,-72
2021-09-24 14:46:52.702912,-89
2021-09-24 14:46:52.702917,-53
2021-09-24 14:46:52.702921,-80
2021-09-24 14:46:52.702926,-109
2021-09-24 14:46:52.702930,-106
2021-09-24 14:46:52.702935,-114
2021-09-24 14:46:52.702939,-123
2021-09-24 14:46:52.702948,-128
2021-09-24 14:46:52.702953,-138
2021-09-24 14:46:52.702958,-155
2021-09-24 14:46:52.702962,-174
2021-09-24 14:46:52.702967,-187
2021-09-24 14:46:52.702971,-211
2021-09-24 14:46:52.883413,-245
2021-09-24 14:46:52.883437,-276
2021-09-24 14:46:52.883444,-306
2021-09-24 14:46:52.883449,-342
2021-09-24 14:46:52.883454,-371
2021-09-24 14:46:52.883459,-391
2021-09-24 14:46:52.883465,-408
2021-09-24 14:46:52.883470,-412
2021-09-24 14:46:52.883475,-403
2021-09-24 14:46:52.883480,-386
2021-09-24 14:46:52.883485,-340
2021-09-24 14:46:52.883490,-259
2021-09-24 14:46:52.883495,-157
2021-09-24 14:46:52.883501,-60
2021-09-24 14:46:52.883506,21
2021-09-24 14:46:52.883512,97
2021-09-24 14:46:52.883521,157
2021-09-24 14:46:52.883529,194
2021-09-24 14:46:52.883538,216
2021-09-24 14:46:52.883544,218
2021-09-24 14:46:52.883549,211
2021-09-24 14:46:52.883554,206
2021-09-24 14:46:52.883559,208
2021-09-24 14:46:52.883564,208
2021-09-24 14:46:52.883569,204
2021-09-24 14:46:52.883575,189
2021-09-24 14:46:52.883580,172
2021-09-24 14:46:52.883585,160
2021-09-24 14:46:52.883590,148
2021-09-24 14:46:52.883595,136
2021-09-24 14:46:53.198174,131
2021-09-24 14:46:53.198192,121
2021-09-24 14:46:53.198198,109
2021-09-24 14:46:53.198203,102
2021-09-24 14:46:53.198208,97
2021-09-24 14:46:53.198212,94
2021-09-24 14:46:53.198217,92
2021-09-24 14:46:53.198221,82
2021-09-24 14:46:53.198225,75
2021-09-24 14:46:53.198230,75
2021-09-24 14:46:53.198234,77
2021-09-24 14:46:53.198239,72
2021-09-24 14:46:53.198243,68
2021-09-24 14:46:53.198248,65
2021-09-24 14:46:53.198260,65
2021-09-24 14:46:53.198265,65
2021-09-24 14:46:53.198270,65
2021-09-24 14:46:53.198274,68
2021-09-24 14:46:53.198278,68
2021-09-24 14:46:53.198283,68
2021-09-24 14:46:53.198287,68
2021-09-24 14:46:53.198292,65
2021-09-24 14:46:53.198297,60
2021-09-24 14:46:53.198301,60
2021-09-24 14:46:53.198305,60
2021-09-24 14:46:53.198310,58
2021-09-24 14:46:53.198314,55
2021-09-24 14:46:53.198319,55
2021-09-24 14:46:53.198323,55
2021-09-24 14:46:53.198328,55
2021-09-24 14:46:53.333259,55
2021-09-24 14:46:53.333279,55
2021-09-24 14:46:53.333285,53
2021-09-24 14:46:53.333291,48
2021-09-24 14:46:53.333296,48
2021-09-24 14:46:53.333301,38
2021-09-24 14:46:53.333306,26
2021-09-24 14:46:53.333311,26
2021-09-24 14:46:53.333317,31
2021-09-24 14:46:53.333322,36
2021-09-24 14:46:53.333327,36
2021-09-24 14:46:53.333332,34
2021-09-24 14:46:53.333337,19
2021-09-24 14:46:53.333343,0
2021-09-24 14:46:53.333348,-4
2021-09-24 14:46:53.333353,-2
2021-09-24 14:46:53.333358,-9
2021-09-24 14:46:53.333371,-2
2021-09-24 14:46:53.333377,14
2021-09-24 14:46:53.333382,19
2021-09-24 14:46:53.333388,24
2021-09-24 14:46:53.333393,26
2021-09-24 14:46:53.333398,24
2021-09-24 14:46:53.333403,26
2021-09-24 14:46:53.333408,26
2021-09-24 14:46:53.333413,24
2021-09-24 14:46:53.333419,26
2021-09-24 14:46:53.333424,21
2021-09-24 14:46:53.333429,17
2021-09-24 14:46:53.333434,0
2021-09-24 14:46:53.648621,-41
2021-09-24 14:46:53.648643,-148
2021-09-24 14:46:53.648650,-391
2021-09-24 14:46:53.648657,-595
2021-09-24 14:46:53.648673,-449
2021-09-24 14:46:53.648680,53
2021-09-24 14:46:53.648687,546
2021-09-24 14:46:53.648693,561
2021-09-24 14:46:53.648700,204
2021-09-24 14:46:53.648706,53
2021-09-24 14:46:53.648713,75
2021-09-24 14:46:53.648719,-36
2021-09-24 14:46:53.648726,-121
2021-09-24 14:46:53.648732,-89
2021-09-24 14:46:53.648739,-92
2021-09-24 14:46:53.648745,-131
2021-09-24 14:46:53.648751,-126
2021-09-24 14:46:53.648758,-121
2021-09-24 14:46:53.648764,-138
2021-09-24 14:46:53.648771,-143
2021-09-24 14:46:53.648777,-150
2021-09-24 14:46:53.648784,-165
2021-09-24 14:46:53.648790,-177
2021-09-24 14:46:53.648797,-196
2021-09-24 14:46:53.648803,-228
2021-09-24 14:46:53.648809,-252
2021-09-24 14:46:53.648816,-272
2021-09-24 14:46:53.648822,-303
2021-09-24 14:46:53.648829,-342
2021-09-24 14:46:53.648835,-376
2021-09-24 14:46:53.827935,-398
2021-09-24 14:46:53.827965,-408
2021-09-24 14:46:53.827973,-415
2021-09-24 14:46:53.827979,-415
2021-09-24 14:46:53.827986,-393
2021-09-24 14:46:53.827992,-352
2021-09-24 14:46:53.827999,-279
2021-09-24 14:46:53.828005,-177
2021-09-24 14:46:53.828012,-80
2021-09-24 14:46:53.828018,7
2021-09-24 14:46:53.828025,80
2021-09-24 14:46:53.828031,131
2021-09-24 14:46:53.828038,162
2021-09-24 14:46:53.828044,187
2021-09-24 14:46:53.828051,201
2021-09-24 14:46:53.828057,206
2021-09-24 14:46:53.828064,204
2021-09-24 14:46:53.828070,194
2021-09-24 14:46:53.828077,182
2021-09-24 14:46:53.828083,179
2021-09-24 14:46:53.828090,174
2021-09-24 14:46:53.828096,162
2021-09-24 14:46:53.828103,143
2021-09-24 14:46:53.828109,128
2021-09-24 14:46:53.828125,123
2021-09-24 14:46:53.828132,123
2021-09-24 14:46:53.828139,114
2021-09-24 14:46:53.828145,104
2021-09-24 14:46:53.828152,99
2021-09-24 14:46:53.828158,94
2021-09-24 14:46:54.008706,89
2021-09-24 14:46:54.008737,85
2021-09-24 14:46:54.008749,82
2021-09-24 14:46:54.008759,82
2021-09-24 14:46:54.008769,77
2021-09-24 14:46:54.008779,72
2021-09-24 14:46:54.008789,77
2021-09-24 14:46:54.008799,85
2021-09-24 14:46:54.008809,80
2021-09-24 14:46:54.008819,77
2021-09-24 14:46:54.008829,80
2021-09-24 14:46:54.008839,77
2021-09-24 14:46:54.008849,75
2021-09-24 14:46:54.008859,80
2021-09-24 14:46:54.008869,82
2021-09-24 14:46:54.008879,75
2021-09-24 14:46:54.008889,68
2021-09-24 14:46:54.008899,65
2021-09-24 14:46:54.008909,65
2021-09-24 14:46:54.008919,58
2021-09-24 14:46:54.008928,53
2021-09-24 14:46:54.008939,53
2021-09-24 14:46:54.008949,46
2021-09-24 14:46:54.008958,38
2021-09-24 14:46:54.008968,48
2021-09-24 14:46:54.008979,55
2021-09-24 14:46:54.008989,58
2021-09-24 14:46:54.008998,55
2021-09-24 14:46:54.009009,41
2021-09-24 14:46:54.009112,24
2021-09-24 14:46:54.272893,17
2021-09-24 14:46:54.272917,21
2021-09-24 14:46:54.272926,14
2021-09-24 14:46:54.272933,4
2021-09-24 14:46:54.272940,14
2021-09-24 14:46:54.272947,31
2021-09-24 14:46:54.272954,38
2021-09-24 14:46:54.272961,43
2021-09-24 14:46:54.272970,43
2021-09-24 14:46:54.272978,29
2021-09-24 14:46:54.272987,19
2021-09-24 14:46:54.272996,26
2021-09-24 14:46:54.273004,31
2021-09-24 14:46:54.273013,31
2021-09-24 14:46:54.273028,29
2021-09-24 14:46:54.273037,2
2021-09-24 14:46:54.273047,-51
2021-09-24 14:46:54.273054,-138
2021-09-24 14:46:54.273062,-325
2021-09-24 14:46:54.273070,-531
2021-09-24 14:46:54.273078,-459
2021-09-24 14:46:54.273086,-21
2021-09-24 14:46:54.273104,510
2021-09-24 14:46:54.273126,621
2021-09-24 14:46:54.273163,257
2021-09-24 14:46:54.273183,41
2021-09-24 14:46:54.273199,72
2021-09-24 14:46:54.273212,-9
2021-09-24 14:46:54.273224,-116
2021-09-24 14:46:54.273238,-94
2021-09-24 14:46:54.546696,-80
2021-09-24 14:46:54.546713,-106
2021-09-24 14:46:54.546719,-116
2021-09-24 14:46:54.546725,-126
2021-09-24 14:46:54.546730,-150
2021-09-24 14:46:54.546735,-150
2021-09-24 14:46:54.546740,-150
2021-09-24 14:46:54.546746,-165
2021-09-24 14:46:54.546751,-189
2021-09-24 14:46:54.546756,-211
2021-09-24 14:46:54.546761,-233
2021-09-24 14:46:54.546766,-250
2021-09-24 14:46:54.546771,-276
2021-09-24 14:46:54.546777,-310
2021-09-24 14:46:54.546782,-347
2021-09-24 14:46:54.546787,-386
2021-09-24 14:46:54.546792,-412
2021-09-24 14:46:54.546797,-425
2021-09-24 14:46:54.546802,-429
2021-09-24 14:46:54.546808,-425
2021-09-24 14:46:54.546813,-405
2021-09-24 14:46:54.546818,-359
2021-09-24 14:46:54.546823,-279
2021-09-24 14:46:54.546828,-182
2021-09-24 14:46:54.546833,-85
2021-09-24 14:46:54.546839,9
2021-09-24 14:46:54.546844,94
2021-09-24 14:46:54.546849,148
2021-09-24 14:46:54.546854,174
2021-09-24 14:46:54.546860,196
2021-09-24 14:46:54.728515,206
2021-09-24 14:46:54.728543,208
2021-09-24 14:46:54.728549,208
2021-09-24 14:46:54.728555,204
2021-09-24 14:46:54.728568,199
2021-09-24 14:46:54.728574,196
2021-09-24 14:46:54.728579,191
2021-09-24 14:46:54.728585,177
2021-09-24 14:46:54.728590,157
2021-09-24 14:46:54.728595,143
2021-09-24 14:46:54.728600,136
2021-09-24 14:46:54.728605,128
2021-09-24 14:46:54.728611,123
2021-09-24 14:46:54.728616,116
2021-09-24 14:46:54.728621,99
2021-09-24 14:46:54.728626,87
2021-09-24 14:46:54.728632,94
2021-09-24 14:46:54.728637,97
2021-09-24 14:46:54.728642,87
2021-09-24 14:46:54.728647,82
2021-09-24 14:46:54.728652,85
2021-09-24 14:46:54.728658,82
2021-09-24 14:46:54.728663,75
2021-09-24 14:46:54.728668,68
2021-09-24 14:46:54.728673,68
2021-09-24 14:46:54.728679,70
2021-09-24 14:46:54.728684,68
2021-09-24 14:46:54.728689,68
2021-09-24 14:46:54.728694,72
2021-09-24 14:46:54.728700,77
2021-09-24 14:46:54.953686,77
2021-09-24 14:46:54.953707,75
2021-09-24 14:46:54.953715,70
2021-09-24 14:46:54.953723,70
2021-09-24 14:46:54.953730,70
2021-09-24 14:46:54.953736,72
2021-09-24 14:46:54.953743,75
2021-09-24 14:46:54.953749,70
2021-09-24 14:46:54.953756,63
2021-09-24 14:46:54.953762,68
2021-09-24 14:46:54.953768,75
2021-09-24 14:46:54.953775,72
2021-09-24 14:46:54.953781,63
2021-09-24 14:46:54.953788,51
2021-09-24 14:46:54.953795,36
2021-09-24 14:46:54.953801,26
2021-09-24 14:46:54.953808,24
2021-09-24 14:46:54.953815,34
2021-09-24 14:46:54.953822,53
2021-09-24 14:46:54.953828,65
2021-09-24 14:46:54.953835,63
2021-09-24 14:46:54.953841,60
2021-09-24 14:46:54.953848,65
2021-09-24 14:46:54.953854,68
2021-09-24 14:46:54.953861,65
2021-09-24 14:46:54.953867,63
2021-09-24 14:46:54.953874,60
2021-09-24 14:46:54.953880,46
2021-09-24 14:46:54.953887,26
2021-09-24 14:46:54.953893,-4
