Time,ECG
2021-09-24 15:04:00.292793,245
2021-09-24 15:04:00.292815,245
2021-09-24 15:04:00.292823,242
2021-09-24 15:04:00.292830,230
2021-09-24 15:04:00.292836,208
2021-09-24 15:04:00.292843,194
2021-09-24 15:04:00.292850,189
2021-09-24 15:04:00.292856,187
2021-09-24 15:04:00.292863,157
2021-09-24 15:04:00.292869,119
2021-09-24 15:04:00.292876,123
2021-09-24 15:04:00.292883,150
2021-09-24 15:04:00.292889,145
2021-09-24 15:04:00.292896,128
2021-09-24 15:04:00.292902,119
2021-09-24 15:04:00.292909,109
2021-09-24 15:04:00.292915,102
2021-09-24 15:04:00.292922,94
2021-09-24 15:04:00.292928,92
2021-09-24 15:04:00.292935,92
2021-09-24 15:04:00.292942,92
2021-09-24 15:04:00.292948,85
2021-09-24 15:04:00.292955,82
2021-09-24 15:04:00.292961,94
2021-09-24 15:04:00.292968,104
2021-09-24 15:04:00.292975,99
2021-09-24 15:04:00.292981,94
2021-09-24 15:04:00.292988,87
2021-09-24 15:04:00.292994,80
2021-09-24 15:04:00.293001,85
2021-09-24 15:04:00.428378,87
2021-09-24 15:04:00.428401,75
2021-09-24 15:04:00.428410,70
2021-09-24 15:04:00.428417,72
2021-09-24 15:04:00.428424,65
2021-09-24 15:04:00.428431,70
2021-09-24 15:04:00.428438,89
2021-09-24 15:04:00.428445,99
2021-09-24 15:04:00.428451,68
2021-09-24 15:04:00.428458,34
2021-09-24 15:04:00.428465,36
2021-09-24 15:04:00.428472,41
2021-09-24 15:04:00.428479,21
2021-09-24 15:04:00.428486,21
2021-09-24 15:04:00.428493,34
2021-09-24 15:04:00.428500,31
2021-09-24 15:04:00.428507,29
2021-09-24 15:04:00.428514,38
2021-09-24 15:04:00.428521,53
2021-09-24 15:04:00.428528,53
2021-09-24 15:04:00.428535,43
2021-09-24 15:04:00.428542,34
2021-09-24 15:04:00.428549,26
2021-09-24 15:04:00.428556,12
2021-09-24 15:04:00.428562,14
2021-09-24 15:04:00.428569,17
2021-09-24 15:04:00.428577,-43
2021-09-24 15:04:00.428584,-189
2021-09-24 15:04:00.428591,-463
2021-09-24 15:04:00.428598,-740
2021-09-24 15:04:00.653446,-624
2021-09-24 15:04:00.653471,17
2021-09-24 15:04:00.653479,568
2021-09-24 15:04:00.653486,444
2021-09-24 15:04:00.653492,87
2021-09-24 15:04:00.653499,51
2021-09-24 15:04:00.653505,68
2021-09-24 15:04:00.653512,-63
2021-09-24 15:04:00.653519,-114
2021-09-24 15:04:00.653525,-77
2021-09-24 15:04:00.653532,-89
2021-09-24 15:04:00.653538,-114
2021-09-24 15:04:00.653545,-114
2021-09-24 15:04:00.653552,-136
2021-09-24 15:04:00.653558,-160
2021-09-24 15:04:00.653565,-167
2021-09-24 15:04:00.653571,-179
2021-09-24 15:04:00.653578,-191
2021-09-24 15:04:00.653584,-199
2021-09-24 15:04:00.653591,-213
2021-09-24 15:04:00.653597,-245
2021-09-24 15:04:00.653604,-274
2021-09-24 15:04:00.653610,-296
2021-09-24 15:04:00.653617,-320
2021-09-24 15:04:00.653623,-349
2021-09-24 15:04:00.653630,-383
2021-09-24 15:04:00.653636,-415
2021-09-24 15:04:00.653643,-439
2021-09-24 15:04:00.653649,-449
2021-09-24 15:04:00.653655,-439
2021-09-24 15:04:00.922849,-420
2021-09-24 15:04:00.922873,-381
2021-09-24 15:04:00.922881,-301
2021-09-24 15:04:00.922888,-194
2021-09-24 15:04:00.922894,-94
2021-09-24 15:04:00.922901,4
2021-09-24 15:04:00.922908,99
2021-09-24 15:04:00.922914,157
2021-09-24 15:04:00.922921,191
2021-09-24 15:04:00.922927,223
2021-09-24 15:04:00.922934,245
2021-09-24 15:04:00.922940,247
2021-09-24 15:04:00.922947,238
2021-09-24 15:04:00.922953,223
2021-09-24 15:04:00.922960,208
2021-09-24 15:04:00.922966,204
2021-09-24 15:04:00.922973,196
2021-09-24 15:04:00.922979,182
2021-09-24 15:04:00.922986,174
2021-09-24 15:04:00.922992,167
2021-09-24 15:04:00.922999,153
2021-09-24 15:04:00.923006,145
2021-09-24 15:04:00.923012,140
2021-09-24 15:04:00.923018,131
2021-09-24 15:04:00.923025,119
2021-09-24 15:04:00.923031,116
2021-09-24 15:04:00.923038,114
2021-09-24 15:04:00.923044,99
2021-09-24 15:04:00.923051,85
2021-09-24 15:04:00.923057,94
2021-09-24 15:04:01.148187,99
2021-09-24 15:04:01.148205,94
2021-09-24 15:04:01.148211,97
2021-09-24 15:04:01.148216,89
2021-09-24 15:04:01.148221,82
2021-09-24 15:04:01.148226,89
2021-09-24 15:04:01.148231,85
2021-09-24 15:04:01.148236,70
2021-09-24 15:04:01.148241,72
2021-09-24 15:04:01.148247,70
2021-09-24 15:04:01.148252,63
2021-09-24 15:04:01.148257,55
2021-09-24 15:04:01.148262,48
2021-09-24 15:04:01.148267,48
2021-09-24 15:04:01.148272,51
2021-09-24 15:04:01.148277,53
2021-09-24 15:04:01.148281,60
2021-09-24 15:04:01.148286,55
2021-09-24 15:04:01.148291,26
2021-09-24 15:04:01.148296,14
2021-09-24 15:04:01.148301,14
2021-09-24 15:04:01.148306,2
2021-09-24 15:04:01.148311,-2
2021-09-24 15:04:01.148316,12
2021-09-24 15:04:01.148321,29
2021-09-24 15:04:01.148326,31
2021-09-24 15:04:01.148331,24
2021-09-24 15:04:01.148336,19
2021-09-24 15:04:01.148341,24
2021-09-24 15:04:01.148346,26
2021-09-24 15:04:01.417399,26
2021-09-24 15:04:01.417421,21
2021-09-24 15:04:01.417429,21
2021-09-24 15:04:01.417437,17
2021-09-24 15:04:01.417444,-7
2021-09-24 15:04:01.417451,-92
2021-09-24 15:04:01.417458,-313
2021-09-24 15:04:01.417464,-612
2021-09-24 15:04:01.417471,-692
2021-09-24 15:04:01.417478,-330
2021-09-24 15:04:01.417485,332
2021-09-24 15:04:01.417492,629
2021-09-24 15:04:01.417499,284
2021-09-24 15:04:01.417506,12
2021-09-24 15:04:01.417513,75
2021-09-24 15:04:01.417520,26
2021-09-24 15:04:01.417527,-97
2021-09-24 15:04:01.417534,-89
2021-09-24 15:04:01.417541,-82
2021-09-24 15:04:01.417548,-116
2021-09-24 15:04:01.417555,-116
2021-09-24 15:04:01.417562,-116
2021-09-24 15:04:01.417568,-136
2021-09-24 15:04:01.417575,-148
2021-09-24 15:04:01.417582,-157
2021-09-24 15:04:01.417589,-174
2021-09-24 15:04:01.417596,-187
2021-09-24 15:04:01.417603,-189
2021-09-24 15:04:01.417610,-216
2021-09-24 15:04:01.417617,-257
2021-09-24 15:04:01.598410,-274
2021-09-24 15:04:01.598434,-289
2021-09-24 15:04:01.598442,-340
2021-09-24 15:04:01.598449,-391
2021-09-24 15:04:01.598456,-427
2021-09-24 15:04:01.598463,-463
2021-09-24 15:04:01.598470,-478
2021-09-24 15:04:01.598477,-478
2021-09-24 15:04:01.598484,-473
2021-09-24 15:04:01.598491,-434
2021-09-24 15:04:01.598497,-359
2021-09-24 15:04:01.598504,-262
2021-09-24 15:04:01.598511,-143
2021-09-24 15:04:01.598518,-19
2021-09-24 15:04:01.598525,72
2021-09-24 15:04:01.598532,133
2021-09-24 15:04:01.598539,184
2021-09-24 15:04:01.598546,225
2021-09-24 15:04:01.598553,238
2021-09-24 15:04:01.598560,240
2021-09-24 15:04:01.598567,252
2021-09-24 15:04:01.598573,252
2021-09-24 15:04:01.598580,230
2021-09-24 15:04:01.598587,228
2021-09-24 15:04:01.598594,230
2021-09-24 15:04:01.598601,211
2021-09-24 15:04:01.598608,189
2021-09-24 15:04:01.598614,174
2021-09-24 15:04:01.598621,162
2021-09-24 15:04:01.598660,162
2021-09-24 15:04:01.868416,160
2021-09-24 15:04:01.868438,145
2021-09-24 15:04:01.868446,138
2021-09-24 15:04:01.868453,136
2021-09-24 15:04:01.868460,119
2021-09-24 15:04:01.868467,104
2021-09-24 15:04:01.868474,114
2021-09-24 15:04:01.868481,123
2021-09-24 15:04:01.868488,114
2021-09-24 15:04:01.868495,102
2021-09-24 15:04:01.868502,99
2021-09-24 15:04:01.868509,102
2021-09-24 15:04:01.868515,106
2021-09-24 15:04:01.868522,106
2021-09-24 15:04:01.868529,94
2021-09-24 15:04:01.868536,82
2021-09-24 15:04:01.868543,77
2021-09-24 15:04:01.868550,77
2021-09-24 15:04:01.868557,77
2021-09-24 15:04:01.868564,80
2021-09-24 15:04:01.868571,85
2021-09-24 15:04:01.868578,87
2021-09-24 15:04:01.868584,80
2021-09-24 15:04:01.868591,70
2021-09-24 15:04:01.868598,68
2021-09-24 15:04:01.868605,58
2021-09-24 15:04:01.868612,46
2021-09-24 15:04:01.868619,34
2021-09-24 15:04:01.868626,26
2021-09-24 15:04:01.868633,38
2021-09-24 15:04:02.093375,55
2021-09-24 15:04:02.093397,55
2021-09-24 15:04:02.093405,48
2021-09-24 15:04:02.093412,41
2021-09-24 15:04:02.093419,38
2021-09-24 15:04:02.093425,36
2021-09-24 15:04:02.093432,34
2021-09-24 15:04:02.093438,31
2021-09-24 15:04:02.093445,31
2021-09-24 15:04:02.093451,21
2021-09-24 15:04:02.093458,-14
2021-09-24 15:04:02.093464,-94
2021-09-24 15:04:02.093471,-291
2021-09-24 15:04:02.093477,-568
2021-09-24 15:04:02.093484,-672
2021-09-24 15:04:02.093490,-386
2021-09-24 15:04:02.093497,230
2021-09-24 15:04:02.093503,617
2021-09-24 15:04:02.093510,342
2021-09-24 15:04:02.093517,17
2021-09-24 15:04:02.093523,55
2021-09-24 15:04:02.093530,26
2021-09-24 15:04:02.093536,-114
2021-09-24 15:04:02.093543,-104
2021-09-24 15:04:02.093549,-55
2021-09-24 15:04:02.093556,-85
2021-09-24 15:04:02.093562,-116
2021-09-24 15:04:02.093569,-119
2021-09-24 15:04:02.093575,-128
2021-09-24 15:04:02.093582,-138
2021-09-24 15:04:02.317999,-143
2021-09-24 15:04:02.318021,-162
2021-09-24 15:04:02.318029,-184
2021-09-24 15:04:02.318036,-196
2021-09-24 15:04:02.318042,-211
2021-09-24 15:04:02.318049,-235
2021-09-24 15:04:02.318055,-262
2021-09-24 15:04:02.318062,-289
2021-09-24 15:04:02.318068,-330
2021-09-24 15:04:02.318075,-376
2021-09-24 15:04:02.318082,-400
2021-09-24 15:04:02.318088,-422
2021-09-24 15:04:02.318095,-454
2021-09-24 15:04:02.318101,-473
2021-09-24 15:04:02.318108,-466
2021-09-24 15:04:02.318114,-427
2021-09-24 15:04:02.318121,-354
2021-09-24 15:04:02.318127,-252
2021-09-24 15:04:02.318134,-126
2021-09-24 15:04:02.318140,-9
2021-09-24 15:04:02.318147,65
2021-09-24 15:04:02.318153,128
2021-09-24 15:04:02.318160,199
2021-09-24 15:04:02.318166,230
2021-09-24 15:04:02.318173,228
2021-09-24 15:04:02.318179,247
2021-09-24 15:04:02.318185,262
2021-09-24 15:04:02.318192,247
2021-09-24 15:04:02.318198,238
2021-09-24 15:04:02.318205,242
2021-09-24 15:04:02.498423,240
2021-09-24 15:04:02.498448,223
2021-09-24 15:04:02.498457,208
2021-09-24 15:04:02.498464,201
2021-09-24 15:04:02.498471,187
2021-09-24 15:04:02.498478,172
2021-09-24 15:04:02.498485,172
2021-09-24 15:04:02.498492,162
2021-09-24 15:04:02.498499,145
2021-09-24 15:04:02.498506,140
2021-09-24 15:04:02.498513,140
2021-09-24 15:04:02.498520,131
2021-09-24 15:04:02.498527,131
2021-09-24 15:04:02.498534,133
2021-09-24 15:04:02.498541,121
2021-09-24 15:04:02.498548,102
2021-09-24 15:04:02.498555,99
2021-09-24 15:04:02.498562,106
2021-09-24 15:04:02.498569,102
2021-09-24 15:04:02.498576,92
2021-09-24 15:04:02.498583,94
2021-09-24 15:04:02.498597,99
2021-09-24 15:04:02.498605,97
2021-09-24 15:04:02.498612,89
2021-09-24 15:04:02.498619,87
2021-09-24 15:04:02.498625,92
2021-09-24 15:04:02.498632,102
2021-09-24 15:04:02.498639,114
2021-09-24 15:04:02.498646,114
2021-09-24 15:04:02.498688,102
2021-09-24 15:04:02.722839,85
2021-09-24 15:04:02.722859,70
2021-09-24 15:04:02.722867,58
2021-09-24 15:04:02.722874,46
2021-09-24 15:04:02.722881,41
2021-09-24 15:04:02.722888,58
2021-09-24 15:04:02.722895,63
2021-09-24 15:04:02.722901,53
2021-09-24 15:04:02.722908,60
2021-09-24 15:04:02.722915,65
2021-09-24 15:04:02.722921,55
2021-09-24 15:04:02.722928,58
2021-09-24 15:04:02.722934,60
2021-09-24 15:04:02.722941,48
2021-09-24 15:04:02.722948,43
2021-09-24 15:04:02.722954,46
2021-09-24 15:04:02.722961,31
2021-09-24 15:04:02.722968,-9
2021-09-24 15:04:02.722975,-116
2021-09-24 15:04:02.722982,-366
2021-09-24 15:04:02.722989,-648
2021-09-24 15:04:02.722996,-660
2021-09-24 15:04:02.723003,-262
2021-09-24 15:04:02.723010,349
2021-09-24 15:04:02.723017,563
2021-09-24 15:04:02.723024,216
2021-09-24 15:04:02.723031,2
2021-09-24 15:04:02.723038,65
2021-09-24 15:04:02.723045,0
2021-09-24 15:04:02.723052,-104
2021-09-24 15:04:02.948535,-82
2021-09-24 15:04:02.948564,-72
2021-09-24 15:04:02.948577,-111
2021-09-24 15:04:02.948589,-126
2021-09-24 15:04:02.948600,-121
2021-09-24 15:04:02.948611,-136
2021-09-24 15:04:02.948622,-165
2021-09-24 15:04:02.948632,-174
2021-09-24 15:04:02.948643,-174
2021-09-24 15:04:02.948654,-184
2021-09-24 15:04:02.948664,-206
2021-09-24 15:04:02.948675,-233
2021-09-24 15:04:02.948686,-259
2021-09-24 15:04:02.948697,-286
2021-09-24 15:04:02.948707,-318
2021-09-24 15:04:02.948719,-359
2021-09-24 15:04:02.948730,-393
2021-09-24 15:04:02.948741,-425
2021-09-24 15:04:02.948753,-459
2021-09-24 15:04:02.948775,-478
2021-09-24 15:04:02.948787,-468
2021-09-24 15:04:02.948798,-456
2021-09-24 15:04:02.948809,-429
2021-09-24 15:04:02.948820,-347
2021-09-24 15:04:02.948830,-223
2021-09-24 15:04:02.948841,-104
2021-09-24 15:04:02.948853,-7
2021-09-24 15:04:02.948865,80
2021-09-24 15:04:02.948878,153
2021-09-24 15:04:02.948890,196
2021-09-24 15:04:03.173481,218
2021-09-24 15:04:03.173506,233
2021-09-24 15:04:03.173514,250
2021-09-24 15:04:03.173522,255
2021-09-24 15:04:03.173529,240
2021-09-24 15:04:03.173536,221
2021-09-24 15:04:03.173543,221
2021-09-24 15:04:03.173549,218
2021-09-24 15:04:03.173556,204
2021-09-24 15:04:03.173563,187
2021-09-24 15:04:03.173570,179
2021-09-24 15:04:03.173577,167
2021-09-24 15:04:03.173584,143
2021-09-24 15:04:03.173591,140
2021-09-24 15:04:03.173598,145
2021-09-24 15:04:03.173605,128
2021-09-24 15:04:03.173644,119
2021-09-24 15:04:03.173651,128
2021-09-24 15:04:03.173658,123
2021-09-24 15:04:03.173665,106
2021-09-24 15:04:03.173672,104
2021-09-24 15:04:03.173679,104
2021-09-24 15:04:03.173685,99
2021-09-24 15:04:03.173692,97
2021-09-24 15:04:03.173699,104
2021-09-24 15:04:03.173706,109
2021-09-24 15:04:03.173712,104
2021-09-24 15:04:03.173719,97
2021-09-24 15:04:03.173726,92
2021-09-24 15:04:03.173733,97
2021-09-24 15:04:03.442158,106
2021-09-24 15:04:03.442181,123
2021-09-24 15:04:03.442190,128
2021-09-24 15:04:03.442197,106
2021-09-24 15:04:03.442204,70
2021-09-24 15:04:03.442211,55
2021-09-24 15:04:03.442217,72
2021-09-24 15:04:03.442224,68
2021-09-24 15:04:03.442231,46
2021-09-24 15:04:03.442238,55
2021-09-24 15:04:03.442245,75
2021-09-24 15:04:03.442252,70
2021-09-24 15:04:03.442259,65
2021-09-24 15:04:03.442266,75
2021-09-24 15:04:03.442273,75
2021-09-24 15:04:03.442280,63
2021-09-24 15:04:03.442287,53
2021-09-24 15:04:03.442294,55
2021-09-24 15:04:03.442301,65
2021-09-24 15:04:03.442307,58
2021-09-24 15:04:03.442314,38
2021-09-24 15:04:03.442321,14
2021-09-24 15:04:03.442328,-65
2021-09-24 15:04:03.442335,-291
2021-09-24 15:04:03.442342,-539
2021-09-24 15:04:03.442349,-510
2021-09-24 15:04:03.442356,-94
2021-09-24 15:04:03.442363,471
2021-09-24 15:04:03.442379,595
2021-09-24 15:04:03.442394,208
2021-09-24 15:04:03.623510,24
2021-09-24 15:04:03.623535,94
2021-09-24 15:04:03.623544,9
2021-09-24 15:04:03.623551,-94
2021-09-24 15:04:03.623558,-80
2021-09-24 15:04:03.623565,-89
2021-09-24 15:04:03.623571,-133
2021-09-24 15:04:03.623578,-136
2021-09-24 15:04:03.623585,-140
2021-09-24 15:04:03.623592,-174
2021-09-24 15:04:03.623599,-191
2021-09-24 15:04:03.623638,-184
2021-09-24 15:04:03.623645,-187
2021-09-24 15:04:03.623652,-204
2021-09-24 15:04:03.623658,-225
2021-09-24 15:04:03.623665,-250
2021-09-24 15:04:03.623672,-274
2021-09-24 15:04:03.623679,-293
2021-09-24 15:04:03.623686,-315
2021-09-24 15:04:03.623692,-337
2021-09-24 15:04:03.623699,-376
2021-09-24 15:04:03.623706,-437
2021-09-24 15:04:03.623713,-451
2021-09-24 15:04:03.623720,-432
2021-09-24 15:04:03.623726,-446
2021-09-24 15:04:03.623733,-444
2021-09-24 15:04:03.623740,-383
2021-09-24 15:04:03.623747,-301
2021-09-24 15:04:03.623754,-194
2021-09-24 15:04:03.623761,-82
2021-09-24 15:04:03.937664,17
2021-09-24 15:04:03.937687,102
2021-09-24 15:04:03.937695,155
2021-09-24 15:04:03.937701,189
2021-09-24 15:04:03.937708,216
2021-09-24 15:04:03.937714,233
2021-09-24 15:04:03.937721,233
2021-09-24 15:04:03.937728,218
2021-09-24 15:04:03.937734,211
2021-09-24 15:04:03.937740,211
2021-09-24 15:04:03.937747,199
2021-09-24 15:04:03.937753,187
2021-09-24 15:04:03.937760,187
2021-09-24 15:04:03.937766,179
2021-09-24 15:04:03.937773,162
2021-09-24 15:04:03.937779,157
2021-09-24 15:04:03.937786,150
2021-09-24 15:04:03.937792,138
2021-09-24 15:04:03.937798,136
2021-09-24 15:04:03.937805,136
2021-09-24 15:04:03.937811,116
2021-09-24 15:04:03.937818,102
2021-09-24 15:04:03.937824,116
2021-09-24 15:04:03.937831,123
2021-09-24 15:04:03.937837,106
2021-09-24 15:04:03.937843,102
2021-09-24 15:04:03.937850,114
2021-09-24 15:04:03.937856,114
2021-09-24 15:04:03.937863,92
2021-09-24 15:04:03.937869,94
2021-09-24 15:04:04.207557,116
2021-09-24 15:04:04.207580,114
2021-09-24 15:04:04.207588,102
2021-09-24 15:04:04.207595,99
2021-09-24 15:04:04.207601,99
2021-09-24 15:04:04.207608,97
2021-09-24 15:04:04.207614,104
2021-09-24 15:04:04.207621,114
2021-09-24 15:04:04.207627,94
2021-09-24 15:04:04.207634,65
2021-09-24 15:04:04.207641,68
2021-09-24 15:04:04.207647,68
2021-09-24 15:04:04.207654,43
2021-09-24 15:04:04.207660,38
2021-09-24 15:04:04.207667,58
2021-09-24 15:04:04.207673,65
2021-09-24 15:04:04.207680,65
2021-09-24 15:04:04.207686,70
2021-09-24 15:04:04.207693,68
2021-09-24 15:04:04.207699,58
2021-09-24 15:04:04.207706,55
2021-09-24 15:04:04.207712,68
2021-09-24 15:04:04.207719,77
2021-09-24 15:04:04.207725,63
2021-09-24 15:04:04.207732,58
2021-09-24 15:04:04.207739,46
2021-09-24 15:04:04.207745,-34
2021-09-24 15:04:04.207752,-201
2021-09-24 15:04:04.207758,-446
2021-09-24 15:04:04.207765,-590
2021-09-24 15:04:04.387053,-395
2021-09-24 15:04:04.387068,140
2021-09-24 15:04:04.387074,607
2021-09-24 15:04:04.387078,478
2021-09-24 15:04:04.387083,109
2021-09-24 15:04:04.387087,68
2021-09-24 15:04:04.387092,75
2021-09-24 15:04:04.387096,-51
2021-09-24 15:04:04.387100,-85
2021-09-24 15:04:04.387105,-70
2021-09-24 15:04:04.387109,-111
2021-09-24 15:04:04.387114,-136
2021-09-24 15:04:04.387118,-126
2021-09-24 15:04:04.387123,-143
2021-09-24 15:04:04.387127,-170
2021-09-24 15:04:04.387131,-170
2021-09-24 15:04:04.387136,-177
2021-09-24 15:04:04.387140,-206
2021-09-24 15:04:04.387145,-225
2021-09-24 15:04:04.387149,-238
2021-09-24 15:04:04.387153,-274
2021-09-24 15:04:04.387158,-310
2021-09-24 15:04:04.387162,-327
2021-09-24 15:04:04.387167,-349
2021-09-24 15:04:04.387171,-386
2021-09-24 15:04:04.387176,-417
2021-09-24 15:04:04.387180,-449
2021-09-24 15:04:04.387184,-478
2021-09-24 15:04:04.387189,-480
2021-09-24 15:04:04.387193,-463
2021-09-24 15:04:04.568483,-439
2021-09-24 15:04:04.568506,-388
2021-09-24 15:04:04.568514,-286
2021-09-24 15:04:04.568520,-155
2021-09-24 15:04:04.568527,-41
2021-09-24 15:04:04.568534,48
2021-09-24 15:04:04.568540,121
2021-09-24 15:04:04.568547,162
2021-09-24 15:04:04.568553,184
2021-09-24 15:04:04.568571,196
2021-09-24 15:04:04.568578,189
2021-09-24 15:04:04.568616,196
2021-09-24 15:04:04.568623,218
2021-09-24 15:04:04.568629,208
2021-09-24 15:04:04.568636,179
2021-09-24 15:04:04.568642,174
2021-09-24 15:04:04.568649,179
2021-09-24 15:04:04.568655,179
2021-09-24 15:04:04.568662,165
2021-09-24 15:04:04.568668,143
2021-09-24 15:04:04.568674,136
2021-09-24 15:04:04.568681,145
2021-09-24 15:04:04.568687,136
2021-09-24 15:04:04.568694,111
2021-09-24 15:04:04.568701,109
2021-09-24 15:04:04.568707,123
2021-09-24 15:04:04.568714,123
2021-09-24 15:04:04.568720,102
2021-09-24 15:04:04.568726,92
2021-09-24 15:04:04.568733,97
2021-09-24 15:04:04.838479,92
2021-09-24 15:04:04.838502,94
2021-09-24 15:04:04.838510,106
2021-09-24 15:04:04.838517,99
2021-09-24 15:04:04.838524,87
2021-09-24 15:04:04.838530,82
2021-09-24 15:04:04.838537,82
2021-09-24 15:04:04.838543,92
2021-09-24 15:04:04.838550,92
2021-09-24 15:04:04.838557,85
2021-09-24 15:04:04.838563,89
2021-09-24 15:04:04.838570,89
2021-09-24 15:04:04.838576,72
2021-09-24 15:04:04.838583,65
2021-09-24 15:04:04.838589,70
2021-09-24 15:04:04.838627,60
2021-09-24 15:04:04.838633,51
2021-09-24 15:04:04.838640,46
2021-09-24 15:04:04.838646,55
2021-09-24 15:04:04.838653,72
2021-09-24 15:04:04.838659,77
2021-09-24 15:04:04.838666,68
2021-09-24 15:04:04.838672,68
2021-09-24 15:04:04.838679,77
2021-09-24 15:04:04.838685,80
2021-09-24 15:04:04.838692,68
2021-09-24 15:04:04.838698,63
2021-09-24 15:04:04.838705,72
2021-09-24 15:04:04.838711,75
2021-09-24 15:04:04.838718,41
2021-09-24 15:04:05.062768,-14
2021-09-24 15:04:05.062792,-145
2021-09-24 15:04:05.062800,-395
2021-09-24 15:04:05.062807,-534
2021-09-24 15:04:05.062814,-332
2021-09-24 15:04:05.062821,177
2021-09-24 15:04:05.062828,621
2021-09-24 15:04:05.062835,510
2021-09-24 15:04:05.062842,140
2021-09-24 15:04:05.062849,97
2021-09-24 15:04:05.062856,126
2021-09-24 15:04:05.062863,-26
2021-09-24 15:04:05.062870,-92
2021-09-24 15:04:05.062877,-41
2021-09-24 15:04:05.062884,-70
2021-09-24 15:04:05.062891,-123
2021-09-24 15:04:05.062897,-123
2021-09-24 15:04:05.062904,-126
2021-09-24 15:04:05.062911,-145
2021-09-24 15:04:05.062918,-155
2021-09-24 15:04:05.062925,-167
2021-09-24 15:04:05.062932,-187
2021-09-24 15:04:05.062939,-201
2021-09-24 15:04:05.062946,-223
2021-09-24 15:04:05.062953,-252
2021-09-24 15:04:05.062960,-272
2021-09-24 15:04:05.062967,-296
2021-09-24 15:04:05.062973,-340
2021-09-24 15:04:05.062980,-386
2021-09-24 15:04:05.062987,-410
2021-09-24 15:04:05.288427,-420
2021-09-24 15:04:05.288451,-434
2021-09-24 15:04:05.288459,-454
2021-09-24 15:04:05.288466,-446
2021-09-24 15:04:05.288472,-417
2021-09-24 15:04:05.288479,-359
2021-09-24 15:04:05.288485,-259
2021-09-24 15:04:05.288492,-140
2021-09-24 15:04:05.288499,-46
2021-09-24 15:04:05.288505,41
2021-09-24 15:04:05.288512,126
2021-09-24 15:04:05.288518,174
2021-09-24 15:04:05.288525,199
2021-09-24 15:04:05.288532,223
2021-09-24 15:04:05.288538,230
2021-09-24 15:04:05.288545,218
2021-09-24 15:04:05.288551,216
2021-09-24 15:04:05.288558,213
2021-09-24 15:04:05.288564,204
2021-09-24 15:04:05.288571,191
2021-09-24 15:04:05.288578,191
2021-09-24 15:04:05.288584,196
2021-09-24 15:04:05.288590,182
2021-09-24 15:04:05.288597,172
2021-09-24 15:04:05.288604,170
2021-09-24 15:04:05.288610,153
2021-09-24 15:04:05.288616,140
2021-09-24 15:04:05.288623,138
2021-09-24 15:04:05.288629,126
2021-09-24 15:04:05.288636,111
2021-09-24 15:04:05.556449,102
2021-09-24 15:04:05.556466,102
2021-09-24 15:04:05.556473,106
2021-09-24 15:04:05.556478,111
2021-09-24 15:04:05.556483,106
2021-09-24 15:04:05.556489,99
2021-09-24 15:04:05.556494,106
2021-09-24 15:04:05.556499,106
2021-09-24 15:04:05.556504,97
2021-09-24 15:04:05.556510,94
2021-09-24 15:04:05.556515,97
2021-09-24 15:04:05.556520,85
2021-09-24 15:04:05.556526,72
2021-09-24 15:04:05.556531,82
2021-09-24 15:04:05.556536,97
2021-09-24 15:04:05.556541,94
2021-09-24 15:04:05.556547,82
2021-09-24 15:04:05.556552,89
2021-09-24 15:04:05.556557,99
2021-09-24 15:04:05.556562,85
2021-09-24 15:04:05.556568,65
2021-09-24 15:04:05.556573,48
2021-09-24 15:04:05.556578,29
2021-09-24 15:04:05.556583,19
2021-09-24 15:04:05.556588,24
2021-09-24 15:04:05.556594,41
2021-09-24 15:04:05.556599,58
2021-09-24 15:04:05.556604,60
2021-09-24 15:04:05.556609,55
2021-09-24 15:04:05.556615,58
2021-09-24 15:04:05.783408,63
2021-09-24 15:04:05.783429,65
2021-09-24 15:04:05.783437,60
2021-09-24 15:04:05.783444,48
2021-09-24 15:04:05.783451,43
2021-09-24 15:04:05.783457,38
2021-09-24 15:04:05.783464,19
2021-09-24 15:04:05.783470,-4
2021-09-24 15:04:05.783477,-85
2021-09-24 15:04:05.783484,-315
2021-09-24 15:04:05.783491,-553
2021-09-24 15:04:05.783497,-497
2021-09-24 15:04:05.783504,-121
2021-09-24 15:04:05.783510,388
2021-09-24 15:04:05.783517,587
2021-09-24 15:04:05.783523,284
2021-09-24 15:04:05.783530,46
2021-09-24 15:04:05.783537,75
2021-09-24 15:04:05.783543,14
2021-09-24 15:04:05.783550,-85
2021-09-24 15:04:05.783556,-72
2021-09-24 15:04:05.783563,-68
2021-09-24 15:04:05.783570,-99
2021-09-24 15:04:05.783576,-106
2021-09-24 15:04:05.783583,-114
2021-09-24 15:04:05.783589,-138
2021-09-24 15:04:05.783596,-153
2021-09-24 15:04:05.783602,-153
2021-09-24 15:04:05.783609,-165
2021-09-24 15:04:05.783623,-194
2021-09-24 15:04:05.963172,-211
2021-09-24 15:04:05.963198,-216
2021-09-24 15:04:05.963206,-245
2021-09-24 15:04:05.963213,-286
2021-09-24 15:04:05.963219,-313
2021-09-24 15:04:05.963225,-342
2021-09-24 15:04:05.963232,-381
2021-09-24 15:04:05.963238,-415
2021-09-24 15:04:05.963245,-451
2021-09-24 15:04:05.963251,-473
2021-09-24 15:04:05.963258,-454
2021-09-24 15:04:05.963264,-422
2021-09-24 15:04:05.963270,-388
2021-09-24 15:04:05.963277,-310
2021-09-24 15:04:05.963283,-204
2021-09-24 15:04:05.963290,-99
2021-09-24 15:04:05.963296,-2
2021-09-24 15:04:05.963302,92
2021-09-24 15:04:05.963309,162
2021-09-24 15:04:05.963315,199
2021-09-24 15:04:05.963322,213
2021-09-24 15:04:05.963328,216
2021-09-24 15:04:05.963335,225
2021-09-24 15:04:05.963341,235
2021-09-24 15:04:05.963347,223
2021-09-24 15:04:05.963354,216
2021-09-24 15:04:05.963360,218
2021-09-24 15:04:05.963367,204
2021-09-24 15:04:05.963373,179
2021-09-24 15:04:05.963380,172
2021-09-24 15:04:06.233352,170
2021-09-24 15:04:06.233376,170
2021-09-24 15:04:06.233384,155
2021-09-24 15:04:06.233391,133
2021-09-24 15:04:06.233397,128
2021-09-24 15:04:06.233404,138
2021-09-24 15:04:06.233410,131
2021-09-24 15:04:06.233417,109
2021-09-24 15:04:06.233424,97
2021-09-24 15:04:06.233430,97
2021-09-24 15:04:06.233437,97
2021-09-24 15:04:06.233443,92
2021-09-24 15:04:06.233450,85
2021-09-24 15:04:06.233456,87
2021-09-24 15:04:06.233463,85
2021-09-24 15:04:06.233470,75
2021-09-24 15:04:06.233476,75
2021-09-24 15:04:06.233483,80
2021-09-24 15:04:06.233489,80
2021-09-24 15:04:06.233496,75
2021-09-24 15:04:06.233503,75
2021-09-24 15:04:06.233509,77
2021-09-24 15:04:06.233516,70
2021-09-24 15:04:06.233522,68
2021-09-24 15:04:06.233529,80
2021-09-24 15:04:06.233535,85
2021-09-24 15:04:06.233542,72
2021-09-24 15:04:06.233549,65
2021-09-24 15:04:06.233555,77
2021-09-24 15:04:06.233562,89
2021-09-24 15:04:06.412621,87
2021-09-24 15:04:06.412636,77
2021-09-24 15:04:06.412641,63
2021-09-24 15:04:06.412646,58
2021-09-24 15:04:06.412650,55
2021-09-24 15:04:06.412655,48
2021-09-24 15:04:06.412659,38
2021-09-24 15:04:06.412664,29
2021-09-24 15:04:06.412668,31
2021-09-24 15:04:06.412673,60
2021-09-24 15:04:06.412677,65
2021-09-24 15:04:06.412681,48
2021-09-24 15:04:06.412686,58
2021-09-24 15:04:06.412691,63
2021-09-24 15:04:06.412695,51
2021-09-24 15:04:06.412699,48
2021-09-24 15:04:06.412704,55
2021-09-24 15:04:06.412708,48
2021-09-24 15:04:06.412713,26
2021-09-24 15:04:06.412725,-2
2021-09-24 15:04:06.412730,-55
2021-09-24 15:04:06.412734,-187
2021-09-24 15:04:06.412739,-417
2021-09-24 15:04:06.412743,-541
2021-09-24 15:04:06.412748,-349
2021-09-24 15:04:06.412752,97
2021-09-24 15:04:06.412757,529
2021-09-24 15:04:06.412761,514
2021-09-24 15:04:06.412766,153
2021-09-24 15:04:06.412770,41
2021-09-24 15:04:06.638198,77
2021-09-24 15:04:06.638220,-41
2021-09-24 15:04:06.638228,-116
2021-09-24 15:04:06.638235,-89
2021-09-24 15:04:06.638241,-111
2021-09-24 15:04:06.638248,-145
2021-09-24 15:04:06.638255,-143
2021-09-24 15:04:06.638261,-150
2021-09-24 15:04:06.638267,-172
2021-09-24 15:04:06.638274,-182
2021-09-24 15:04:06.638280,-189
2021-09-24 15:04:06.638287,-194
2021-09-24 15:04:06.638293,-204
2021-09-24 15:04:06.638300,-228
2021-09-24 15:04:06.638306,-250
2021-09-24 15:04:06.638313,-262
2021-09-24 15:04:06.638319,-291
2021-09-24 15:04:06.638326,-332
2021-09-24 15:04:06.638332,-366
2021-09-24 15:04:06.638339,-395
2021-09-24 15:04:06.638345,-442
2021-09-24 15:04:06.638352,-468
2021-09-24 15:04:06.638358,-468
2021-09-24 15:04:06.638365,-468
2021-09-24 15:04:06.638371,-451
2021-09-24 15:04:06.638378,-386
2021-09-24 15:04:06.638384,-289
2021-09-24 15:04:06.638391,-189
2021-09-24 15:04:06.638397,-80
2021-09-24 15:04:06.638404,24
2021-09-24 15:04:06.908427,99
2021-09-24 15:04:06.908449,155
2021-09-24 15:04:06.908457,191
2021-09-24 15:04:06.908464,206
2021-09-24 15:04:06.908471,221
2021-09-24 15:04:06.908477,230
2021-09-24 15:04:06.908484,216
2021-09-24 15:04:06.908491,204
2021-09-24 15:04:06.908497,213
2021-09-24 15:04:06.908504,218
2021-09-24 15:04:06.908511,199
2021-09-24 15:04:06.908517,177
2021-09-24 15:04:06.908524,167
2021-09-24 15:04:06.908531,160
2021-09-24 15:04:06.908537,153
2021-09-24 15:04:06.908544,140
2021-09-24 15:04:06.908550,131
2021-09-24 15:04:06.908557,131
2021-09-24 15:04:06.908563,128
2021-09-24 15:04:06.908570,116
2021-09-24 15:04:06.908577,111
2021-09-24 15:04:06.908583,109
2021-09-24 15:04:06.908590,102
2021-09-24 15:04:06.908596,85
2021-09-24 15:04:06.908603,82
2021-09-24 15:04:06.908609,87
2021-09-24 15:04:06.908616,87
2021-09-24 15:04:06.908623,92
2021-09-24 15:04:06.908629,94
2021-09-24 15:04:06.908636,82
2021-09-24 15:04:07.132814,75
2021-09-24 15:04:07.132837,94
2021-09-24 15:04:07.132844,106
2021-09-24 15:04:07.132851,87
2021-09-24 15:04:07.132857,75
2021-09-24 15:04:07.132863,89
2021-09-24 15:04:07.132869,92
2021-09-24 15:04:07.132875,80
2021-09-24 15:04:07.132882,63
2021-09-24 15:04:07.132888,51
2021-09-24 15:04:07.132894,58
2021-09-24 15:04:07.132900,58
2021-09-24 15:04:07.132906,43
2021-09-24 15:04:07.132913,43
2021-09-24 15:04:07.132919,53
2021-09-24 15:04:07.132925,53
2021-09-24 15:04:07.132931,48
2021-09-24 15:04:07.132937,46
2021-09-24 15:04:07.132943,46
2021-09-24 15:04:07.132949,38
2021-09-24 15:04:07.132956,29
2021-09-24 15:04:07.132962,29
2021-09-24 15:04:07.132968,24
2021-09-24 15:04:07.132974,17
2021-09-24 15:04:07.132980,26
2021-09-24 15:04:07.132986,36
2021-09-24 15:04:07.132993,34
2021-09-24 15:04:07.132999,31
2021-09-24 15:04:07.133005,24
2021-09-24 15:04:07.133025,12
2021-09-24 15:04:07.357937,9
2021-09-24 15:04:07.357959,12
2021-09-24 15:04:07.357967,0
2021-09-24 15:04:07.357974,-19
2021-09-24 15:04:07.357981,-17
2021-09-24 15:04:07.357987,-2
2021-09-24 15:04:07.357994,9
2021-09-24 15:04:07.358000,19
2021-09-24 15:04:07.358006,19
2021-09-24 15:04:07.358013,4
2021-09-24 15:04:07.358019,-4
2021-09-24 15:04:07.358026,2
2021-09-24 15:04:07.358033,4
2021-09-24 15:04:07.358039,-2
2021-09-24 15:04:07.358045,-4
2021-09-24 15:04:07.358052,-12
2021-09-24 15:04:07.358058,-41
2021-09-24 15:04:07.358065,-92
2021-09-24 15:04:07.358072,-218
2021-09-24 15:04:07.358078,-456
2021-09-24 15:04:07.358085,-578
2021-09-24 15:04:07.358091,-378
2021-09-24 15:04:07.358097,60
2021-09-24 15:04:07.358104,495
2021-09-24 15:04:07.358111,493
2021-09-24 15:04:07.358117,140
2021-09-24 15:04:07.358124,17
2021-09-24 15:04:07.358130,41
2021-09-24 15:04:07.358137,-65
2021-09-24 15:04:07.358143,-123
2021-09-24 15:04:07.581454,-80
2021-09-24 15:04:07.581478,-80
2021-09-24 15:04:07.581485,-111
2021-09-24 15:04:07.581490,-121
2021-09-24 15:04:07.581496,-131
2021-09-24 15:04:07.581501,-148
2021-09-24 15:04:07.581506,-153
2021-09-24 15:04:07.581511,-155
2021-09-24 15:04:07.581517,-160
2021-09-24 15:04:07.581522,-174
2021-09-24 15:04:07.581527,-204
2021-09-24 15:04:07.581532,-228
2021-09-24 15:04:07.581538,-230
2021-09-24 15:04:07.581543,-252
2021-09-24 15:04:07.581548,-310
2021-09-24 15:04:07.581553,-359
2021-09-24 15:04:07.581558,-381
2021-09-24 15:04:07.581564,-408
2021-09-24 15:04:07.581569,-437
2021-09-24 15:04:07.581574,-434
2021-09-24 15:04:07.581579,-427
2021-09-24 15:04:07.581585,-432
2021-09-24 15:04:07.581590,-388
2021-09-24 15:04:07.581595,-289
2021-09-24 15:04:07.581600,-182
2021-09-24 15:04:07.581605,-87
2021-09-24 15:04:07.581611,4
2021-09-24 15:04:07.581616,89
2021-09-24 15:04:07.581621,155
2021-09-24 15:04:07.581627,194
2021-09-24 15:04:07.898494,216
2021-09-24 15:04:07.898519,233
2021-09-24 15:04:07.898528,238
2021-09-24 15:04:07.898535,228
2021-09-24 15:04:07.898542,216
2021-09-24 15:04:07.898549,213
2021-09-24 15:04:07.898556,216
2021-09-24 15:04:07.898563,216
2021-09-24 15:04:07.898569,201
2021-09-24 15:04:07.898576,172
2021-09-24 15:04:07.898583,160
2021-09-24 15:04:07.898590,170
2021-09-24 15:04:07.898597,170
2021-09-24 15:04:07.898604,150
2021-09-24 15:04:07.898611,133
2021-09-24 15:04:07.898618,119
2021-09-24 15:04:07.898625,114
2021-09-24 15:04:07.898631,111
2021-09-24 15:04:07.898638,111
2021-09-24 15:04:07.898677,114
2021-09-24 15:04:07.898684,104
2021-09-24 15:04:07.898691,92
2021-09-24 15:04:07.898698,94
2021-09-24 15:04:07.898704,102
2021-09-24 15:04:07.898711,104
2021-09-24 15:04:07.898718,92
2021-09-24 15:04:07.898725,85
2021-09-24 15:04:07.898732,94
2021-09-24 15:04:07.898739,99
2021-09-24 15:04:07.898746,87
2021-09-24 15:04:08.077996,85
2021-09-24 15:04:08.078015,87
2021-09-24 15:04:08.078021,82
2021-09-24 15:04:08.078027,77
2021-09-24 15:04:08.078033,75
2021-09-24 15:04:08.078038,72
2021-09-24 15:04:08.078043,77
2021-09-24 15:04:08.078048,77
2021-09-24 15:04:08.078054,70
2021-09-24 15:04:08.078059,72
2021-09-24 15:04:08.078065,75
2021-09-24 15:04:08.078070,63
2021-09-24 15:04:08.078075,53
2021-09-24 15:04:08.078081,55
2021-09-24 15:04:08.078086,55
2021-09-24 15:04:08.078091,48
2021-09-24 15:04:08.078096,48
2021-09-24 15:04:08.078102,43
2021-09-24 15:04:08.078107,31
2021-09-24 15:04:08.078112,36
2021-09-24 15:04:08.078118,41
2021-09-24 15:04:08.078123,24
2021-09-24 15:04:08.078129,19
2021-09-24 15:04:08.078134,34
2021-09-24 15:04:08.078139,34
2021-09-24 15:04:08.078145,19
2021-09-24 15:04:08.078150,21
2021-09-24 15:04:08.078155,36
2021-09-24 15:04:08.078161,31
2021-09-24 15:04:08.078166,9
2021-09-24 15:04:08.302513,-7
2021-09-24 15:04:08.302535,-2
2021-09-24 15:04:08.302543,7
2021-09-24 15:04:08.302550,0
2021-09-24 15:04:08.302556,-9
2021-09-24 15:04:08.302563,7
2021-09-24 15:04:08.302570,26
2021-09-24 15:04:08.302576,24
2021-09-24 15:04:08.302583,19
2021-09-24 15:04:08.302589,29
2021-09-24 15:04:08.302596,31
2021-09-24 15:04:08.302602,26
2021-09-24 15:04:08.302609,19
2021-09-24 15:04:08.302615,19
2021-09-24 15:04:08.302622,21
2021-09-24 15:04:08.302628,24
2021-09-24 15:04:08.302635,19
2021-09-24 15:04:08.302641,-12
2021-09-24 15:04:08.302648,-92
2021-09-24 15:04:08.302654,-276
2021-09-24 15:04:08.302693,-519
2021-09-24 15:04:08.302699,-551
2021-09-24 15:04:08.302706,-235
2021-09-24 15:04:08.302712,289
2021-09-24 15:04:08.302719,580
2021-09-24 15:04:08.302725,323
2021-09-24 15:04:08.302731,48
2021-09-24 15:04:08.302738,77
2021-09-24 15:04:08.302744,29
2021-09-24 15:04:08.302751,-80
2021-09-24 15:04:08.528187,-55
2021-09-24 15:04:08.528209,-48
2021-09-24 15:04:08.528217,-89
2021-09-24 15:04:08.528224,-94
2021-09-24 15:04:08.528231,-97
2021-09-24 15:04:08.528237,-121
2021-09-24 15:04:08.528244,-143
2021-09-24 15:04:08.528250,-153
2021-09-24 15:04:08.528257,-160
2021-09-24 15:04:08.528263,-167
2021-09-24 15:04:08.528270,-177
2021-09-24 15:04:08.528277,-204
2021-09-24 15:04:08.528283,-240
2021-09-24 15:04:08.528290,-257
2021-09-24 15:04:08.528296,-276
2021-09-24 15:04:08.528303,-315
2021-09-24 15:04:08.528309,-349
2021-09-24 15:04:08.528316,-381
2021-09-24 15:04:08.528322,-412
2021-09-24 15:04:08.528329,-427
2021-09-24 15:04:08.528335,-439
2021-09-24 15:04:08.528342,-434
2021-09-24 15:04:08.528348,-395
2021-09-24 15:04:08.528355,-335
2021-09-24 15:04:08.528362,-255
2021-09-24 15:04:08.528368,-155
2021-09-24 15:04:08.528375,-65
2021-09-24 15:04:08.528395,24
2021-09-24 15:04:08.528402,106
2021-09-24 15:04:08.528408,160
2021-09-24 15:04:08.753439,189
2021-09-24 15:04:08.753462,206
2021-09-24 15:04:08.753469,204
2021-09-24 15:04:08.753477,204
2021-09-24 15:04:08.753484,218
2021-09-24 15:04:08.753490,225
2021-09-24 15:04:08.753497,216
2021-09-24 15:04:08.753504,204
2021-09-24 15:04:08.753510,199
2021-09-24 15:04:08.753517,199
2021-09-24 15:04:08.753524,184
2021-09-24 15:04:08.753530,160
2021-09-24 15:04:08.753537,145
2021-09-24 15:04:08.753543,133
2021-09-24 15:04:08.753550,128
2021-09-24 15:04:08.753557,111
2021-09-24 15:04:08.753564,92
2021-09-24 15:04:08.753570,87
2021-09-24 15:04:08.753577,87
2021-09-24 15:04:08.753584,82
2021-09-24 15:04:08.753590,75
2021-09-24 15:04:08.753597,72
2021-09-24 15:04:08.753604,82
2021-09-24 15:04:08.753610,87
2021-09-24 15:04:08.753617,85
2021-09-24 15:04:08.753623,89
2021-09-24 15:04:08.753630,92
2021-09-24 15:04:08.753637,85
2021-09-24 15:04:08.753644,77
2021-09-24 15:04:08.753650,77
2021-09-24 15:04:09.067596,87
2021-09-24 15:04:09.067618,89
2021-09-24 15:04:09.067626,80
2021-09-24 15:04:09.067665,72
2021-09-24 15:04:09.067671,72
2021-09-24 15:04:09.067678,77
2021-09-24 15:04:09.067685,70
2021-09-24 15:04:09.067691,63
2021-09-24 15:04:09.067698,65
2021-09-24 15:04:09.067704,68
2021-09-24 15:04:09.067711,60
2021-09-24 15:04:09.067717,43
2021-09-24 15:04:09.067724,34
2021-09-24 15:04:09.067730,41
2021-09-24 15:04:09.067737,43
2021-09-24 15:04:09.067743,36
2021-09-24 15:04:09.067750,36
2021-09-24 15:04:09.067756,38
2021-09-24 15:04:09.067762,41
2021-09-24 15:04:09.067769,46
2021-09-24 15:04:09.067776,46
2021-09-24 15:04:09.067782,41
2021-09-24 15:04:09.067788,26
2021-09-24 15:04:09.067795,19
2021-09-24 15:04:09.067801,29
2021-09-24 15:04:09.067808,26
2021-09-24 15:04:09.067814,12
2021-09-24 15:04:09.067821,19
2021-09-24 15:04:09.067827,46
2021-09-24 15:04:09.067834,63
2021-09-24 15:04:09.247941,60
2021-09-24 15:04:09.247960,43
2021-09-24 15:04:09.247966,36
2021-09-24 15:04:09.247972,48
2021-09-24 15:04:09.247977,46
2021-09-24 15:04:09.247982,31
2021-09-24 15:04:09.247987,26
2021-09-24 15:04:09.247994,26
2021-09-24 15:04:09.248000,2
2021-09-24 15:04:09.248007,-43
2021-09-24 15:04:09.248013,-138
2021-09-24 15:04:09.248018,-347
2021-09-24 15:04:09.248024,-507
2021-09-24 15:04:09.248031,-374
2021-09-24 15:04:09.248037,68
2021-09-24 15:04:09.248045,546
2021-09-24 15:04:09.248051,548
2021-09-24 15:04:09.248058,160
2021-09-24 15:04:09.248065,26
2021-09-24 15:04:09.248070,85
2021-09-24 15:04:09.248078,-24
2021-09-24 15:04:09.248085,-116
2021-09-24 15:04:09.248092,-87
2021-09-24 15:04:09.248098,-94
2021-09-24 15:04:09.248105,-133
2021-09-24 15:04:09.248112,-133
2021-09-24 15:04:09.248118,-126
2021-09-24 15:04:09.248125,-140
2021-09-24 15:04:09.248131,-148
2021-09-24 15:04:09.248138,-145
2021-09-24 15:04:09.383183,-155
2021-09-24 15:04:09.383206,-174
2021-09-24 15:04:09.383214,-201
2021-09-24 15:04:09.383221,-238
2021-09-24 15:04:09.383228,-264
2021-09-24 15:04:09.383234,-279
2021-09-24 15:04:09.383241,-306
2021-09-24 15:04:09.383248,-342
2021-09-24 15:04:09.383254,-376
2021-09-24 15:04:09.383261,-408
2021-09-24 15:04:09.383267,-429
2021-09-24 15:04:09.383274,-432
2021-09-24 15:04:09.383281,-437
2021-09-24 15:04:09.383287,-442
2021-09-24 15:04:09.383294,-410
2021-09-24 15:04:09.383300,-330
2021-09-24 15:04:09.383307,-221
2021-09-24 15:04:09.383313,-109
2021-09-24 15:04:09.383320,-9
2021-09-24 15:04:09.383327,72
2021-09-24 15:04:09.383333,133
2021-09-24 15:04:09.383340,157
2021-09-24 15:04:09.383346,174
2021-09-24 15:04:09.383353,199
2021-09-24 15:04:09.383359,208
2021-09-24 15:04:09.383366,199
2021-09-24 15:04:09.383372,194
2021-09-24 15:04:09.383379,189
2021-09-24 15:04:09.383386,182
2021-09-24 15:04:09.383401,182
2021-09-24 15:04:09.742258,167
2021-09-24 15:04:09.742279,138
2021-09-24 15:04:09.742287,128
2021-09-24 15:04:09.742294,121
2021-09-24 15:04:09.742301,106
2021-09-24 15:04:09.742308,102
2021-09-24 15:04:09.742314,94
2021-09-24 15:04:09.742321,82
2021-09-24 15:04:09.742328,75
2021-09-24 15:04:09.742334,65
2021-09-24 15:04:09.742341,63
2021-09-24 15:04:09.742348,75
2021-09-24 15:04:09.742354,72
2021-09-24 15:04:09.742361,70
2021-09-24 15:04:09.742368,68
2021-09-24 15:04:09.742374,63
2021-09-24 15:04:09.742381,70
2021-09-24 15:04:09.742388,77
2021-09-24 15:04:09.742394,72
2021-09-24 15:04:09.742401,72
2021-09-24 15:04:09.742408,75
2021-09-24 15:04:09.742414,72
2021-09-24 15:04:09.742421,75
2021-09-24 15:04:09.742427,77
2021-09-24 15:04:09.742434,70
2021-09-24 15:04:09.742441,75
2021-09-24 15:04:09.742447,77
2021-09-24 15:04:09.742454,68
2021-09-24 15:04:09.742461,65
2021-09-24 15:04:09.742467,72
2021-09-24 15:04:09.968564,77
2021-09-24 15:04:09.968586,77
2021-09-24 15:04:09.968593,72
2021-09-24 15:04:09.968600,72
2021-09-24 15:04:09.968607,85
2021-09-24 15:04:09.968614,77
2021-09-24 15:04:09.968620,68
2021-09-24 15:04:09.968627,75
2021-09-24 15:04:09.968633,60
2021-09-24 15:04:09.968640,24
2021-09-24 15:04:09.968646,24
2021-09-24 15:04:09.968653,43
2021-09-24 15:04:09.968659,51
2021-09-24 15:04:09.968666,60
2021-09-24 15:04:09.968673,63
2021-09-24 15:04:09.968679,48
2021-09-24 15:04:09.968685,46
2021-09-24 15:04:09.968692,53
2021-09-24 15:04:09.968698,53
2021-09-24 15:04:09.968705,48
2021-09-24 15:04:09.968712,38
2021-09-24 15:04:09.968718,29
2021-09-24 15:04:09.968724,17
2021-09-24 15:04:09.968731,-17
2021-09-24 15:04:09.968738,-82
2021-09-24 15:04:09.968744,-230
2021-09-24 15:04:09.968751,-425
2021-09-24 15:04:09.968757,-420
2021-09-24 15:04:09.968764,-82
2021-09-24 15:04:09.968770,415
2021-09-24 15:04:10.103578,643
2021-09-24 15:04:10.103602,371
2021-09-24 15:04:10.103610,82
2021-09-24 15:04:10.103618,87
2021-09-24 15:04:10.103625,53
2021-09-24 15:04:10.103632,-72
2021-09-24 15:04:10.103638,-80
2021-09-24 15:04:10.103645,-55
2021-09-24 15:04:10.103652,-99
2021-09-24 15:04:10.103659,-123
2021-09-24 15:04:10.103666,-104
2021-09-24 15:04:10.103673,-116
2021-09-24 15:04:10.103712,-150
2021-09-24 15:04:10.103719,-162
2021-09-24 15:04:10.103726,-162
2021-09-24 15:04:10.103733,-177
2021-09-24 15:04:10.103740,-191
2021-09-24 15:04:10.103747,-196
2021-09-24 15:04:10.103753,-216
2021-09-24 15:04:10.103760,-255
2021-09-24 15:04:10.103767,-289
2021-09-24 15:04:10.103774,-318
2021-09-24 15:04:10.103781,-357
2021-09-24 15:04:10.103788,-386
2021-09-24 15:04:10.103795,-403
2021-09-24 15:04:10.103802,-427
2021-09-24 15:04:10.103809,-434
2021-09-24 15:04:10.103815,-412
2021-09-24 15:04:10.103822,-381
2021-09-24 15:04:10.103829,-330
2021-09-24 15:04:10.463576,-235
2021-09-24 15:04:10.463599,-121
2021-09-24 15:04:10.463639,-26
2021-09-24 15:04:10.463647,51
2021-09-24 15:04:10.463654,119
2021-09-24 15:04:10.463660,165
2021-09-24 15:04:10.463667,187
2021-09-24 15:04:10.463674,194
2021-09-24 15:04:10.463681,194
2021-09-24 15:04:10.463688,194
2021-09-24 15:04:10.463695,199
2021-09-24 15:04:10.463702,199
2021-09-24 15:04:10.463718,184
2021-09-24 15:04:10.463726,165
2021-09-24 15:04:10.463732,157
2021-09-24 15:04:10.463739,153
2021-09-24 15:04:10.463746,138
2021-09-24 15:04:10.463753,131
2021-09-24 15:04:10.463760,131
2021-09-24 15:04:10.463766,116
2021-09-24 15:04:10.463773,99
2021-09-24 15:04:10.463780,89
2021-09-24 15:04:10.463787,85
2021-09-24 15:04:10.463793,77
2021-09-24 15:04:10.463800,72
2021-09-24 15:04:10.463807,77
2021-09-24 15:04:10.463814,72
2021-09-24 15:04:10.463821,63
2021-09-24 15:04:10.463827,70
2021-09-24 15:04:10.463834,85
2021-09-24 15:04:10.553178,80
2021-09-24 15:04:10.553198,75
2021-09-24 15:04:10.553207,80
2021-09-24 15:04:10.553214,75
2021-09-24 15:04:10.553221,72
2021-09-24 15:04:10.553228,85
2021-09-24 15:04:10.553234,85
2021-09-24 15:04:10.553241,77
2021-09-24 15:04:10.553248,85
2021-09-24 15:04:10.553255,92
2021-09-24 15:04:10.553262,82
2021-09-24 15:04:10.553268,68
2021-09-24 15:04:10.553275,68
2021-09-24 15:04:10.553282,70
2021-09-24 15:04:10.553289,72
2021-09-24 15:04:10.553295,72
2021-09-24 15:04:10.553302,72
2021-09-24 15:04:10.553309,70
2021-09-24 15:04:10.553316,65
2021-09-24 15:04:10.553323,55
2021-09-24 15:04:10.553329,55
2021-09-24 15:04:10.553336,60
2021-09-24 15:04:10.553343,55
2021-09-24 15:04:10.553350,41
2021-09-24 15:04:10.553356,21
2021-09-24 15:04:10.553363,17
2021-09-24 15:04:10.553370,21
2021-09-24 15:04:10.553377,24
2021-09-24 15:04:10.553384,41
2021-09-24 15:04:10.553391,60
2021-09-24 15:04:10.777881,51
2021-09-24 15:04:10.777900,38
2021-09-24 15:04:10.777906,41
2021-09-24 15:04:10.777912,41
2021-09-24 15:04:10.777917,41
2021-09-24 15:04:10.777922,38
2021-09-24 15:04:10.777927,34
2021-09-24 15:04:10.777932,24
2021-09-24 15:04:10.777937,-4
2021-09-24 15:04:10.777942,-60
2021-09-24 15:04:10.777947,-187
2021-09-24 15:04:10.777952,-408
2021-09-24 15:04:10.777957,-495
2021-09-24 15:04:10.777962,-250
2021-09-24 15:04:10.777968,208
2021-09-24 15:04:10.777972,585
2021-09-24 15:04:10.777978,510
2021-09-24 15:04:10.777983,148
2021-09-24 15:04:10.777988,51
2021-09-24 15:04:10.777993,80
2021-09-24 15:04:10.777998,-43
2021-09-24 15:04:10.778003,-111
2021-09-24 15:04:10.778008,-65
2021-09-24 15:04:10.778012,-77
2021-09-24 15:04:10.778017,-121
2021-09-24 15:04:10.778022,-121
2021-09-24 15:04:10.778027,-116
2021-09-24 15:04:10.778032,-128
2021-09-24 15:04:10.778037,-140
2021-09-24 15:04:10.778042,-153
2021-09-24 15:04:11.003587,-162
2021-09-24 15:04:11.003610,-170
2021-09-24 15:04:11.003618,-187
2021-09-24 15:04:11.003625,-211
2021-09-24 15:04:11.003632,-238
2021-09-24 15:04:11.003638,-272
2021-09-24 15:04:11.003645,-298
2021-09-24 15:04:11.003651,-323
2021-09-24 15:04:11.003658,-359
2021-09-24 15:04:11.003664,-393
2021-09-24 15:04:11.003671,-420
2021-09-24 15:04:11.003677,-434
2021-09-24 15:04:11.003684,-432
2021-09-24 15:04:11.003690,-410
2021-09-24 15:04:11.003697,-369
2021-09-24 15:04:11.003703,-289
2021-09-24 15:04:11.003710,-182
2021-09-24 15:04:11.003716,-80
2021-09-24 15:04:11.003723,17
2021-09-24 15:04:11.003730,104
2021-09-24 15:04:11.003736,162
2021-09-24 15:04:11.003743,196
2021-09-24 15:04:11.003749,221
2021-09-24 15:04:11.003756,218
2021-09-24 15:04:11.003762,206
2021-09-24 15:04:11.003769,208
2021-09-24 15:04:11.003775,216
2021-09-24 15:04:11.003782,206
2021-09-24 15:04:11.003788,191
2021-09-24 15:04:11.003795,191
2021-09-24 15:04:11.227907,189
2021-09-24 15:04:11.227925,170
2021-09-24 15:04:11.227931,150
2021-09-24 15:04:11.227937,138
2021-09-24 15:04:11.227942,121
2021-09-24 15:04:11.227948,99
2021-09-24 15:04:11.227953,87
2021-09-24 15:04:11.227959,85
2021-09-24 15:04:11.227964,87
2021-09-24 15:04:11.227970,80
2021-09-24 15:04:11.227975,60
2021-09-24 15:04:11.227981,53
2021-09-24 15:04:11.227986,60
2021-09-24 15:04:11.227992,63
2021-09-24 15:04:11.227997,58
2021-09-24 15:04:11.228003,55
2021-09-24 15:04:11.228008,53
2021-09-24 15:04:11.228014,60
2021-09-24 15:04:11.228019,75
2021-09-24 15:04:11.228025,72
2021-09-24 15:04:11.228030,70
2021-09-24 15:04:11.228036,75
2021-09-24 15:04:11.228041,75
2021-09-24 15:04:11.228047,68
2021-09-24 15:04:11.228052,65
2021-09-24 15:04:11.228058,70
2021-09-24 15:04:11.228063,68
2021-09-24 15:04:11.228069,58
2021-09-24 15:04:11.228074,60
2021-09-24 15:04:11.228079,68
2021-09-24 15:04:11.543520,58
2021-09-24 15:04:11.543544,58
2021-09-24 15:04:11.543552,58
2021-09-24 15:04:11.543569,43
2021-09-24 15:04:11.543576,34
2021-09-24 15:04:11.543583,48
2021-09-24 15:04:11.543590,58
2021-09-24 15:04:11.543596,53
2021-09-24 15:04:11.543603,51
2021-09-24 15:04:11.543609,38
2021-09-24 15:04:11.543616,29
2021-09-24 15:04:11.543623,29
2021-09-24 15:04:11.543661,24
2021-09-24 15:04:11.543668,19
2021-09-24 15:04:11.543674,7
2021-09-24 15:04:11.543681,0
2021-09-24 15:04:11.543688,21
2021-09-24 15:04:11.543694,46
2021-09-24 15:04:11.543701,38
2021-09-24 15:04:11.543707,31
2021-09-24 15:04:11.543714,41
2021-09-24 15:04:11.543720,41
2021-09-24 15:04:11.543727,38
2021-09-24 15:04:11.543734,38
2021-09-24 15:04:11.543740,41
2021-09-24 15:04:11.543747,31
2021-09-24 15:04:11.543753,12
2021-09-24 15:04:11.543760,-29
2021-09-24 15:04:11.543767,-111
2021-09-24 15:04:11.543773,-298
2021-09-24 15:04:11.767160,-507
2021-09-24 15:04:11.767182,-456
2021-09-24 15:04:11.767190,-82
2021-09-24 15:04:11.767197,403
2021-09-24 15:04:11.767204,583
2021-09-24 15:04:11.767211,281
2021-09-24 15:04:11.767217,34
2021-09-24 15:04:11.767224,68
2021-09-24 15:04:11.767230,7
2021-09-24 15:04:11.767237,-109
2021-09-24 15:04:11.767244,-82
2021-09-24 15:04:11.767250,-58
2021-09-24 15:04:11.767257,-109
2021-09-24 15:04:11.767264,-123
2021-09-24 15:04:11.767271,-116
2021-09-24 15:04:11.767277,-136
2021-09-24 15:04:11.767284,-157
2021-09-24 15:04:11.767291,-160
2021-09-24 15:04:11.767297,-165
2021-09-24 15:04:11.767304,-187
2021-09-24 15:04:11.767310,-206
2021-09-24 15:04:11.767317,-218
2021-09-24 15:04:11.767323,-233
2021-09-24 15:04:11.767330,-257
2021-09-24 15:04:11.767337,-286
2021-09-24 15:04:11.767343,-323
2021-09-24 15:04:11.767350,-361
2021-09-24 15:04:11.767357,-393
2021-09-24 15:04:11.767363,-412
2021-09-24 15:04:11.767370,-427
2021-09-24 15:04:11.993616,-432
2021-09-24 15:04:11.993640,-420
2021-09-24 15:04:11.993649,-400
2021-09-24 15:04:11.993656,-349
2021-09-24 15:04:11.993663,-245
2021-09-24 15:04:11.993702,-131
2021-09-24 15:04:11.993709,-36
2021-09-24 15:04:11.993716,48
2021-09-24 15:04:11.993723,123
2021-09-24 15:04:11.993730,160
2021-09-24 15:04:11.993737,191
2021-09-24 15:04:11.993744,223
2021-09-24 15:04:11.993751,228
2021-09-24 15:04:11.993757,221
2021-09-24 15:04:11.993764,218
2021-09-24 15:04:11.993771,216
2021-09-24 15:04:11.993778,204
2021-09-24 15:04:11.993785,187
2021-09-24 15:04:11.993792,179
2021-09-24 15:04:11.993799,170
2021-09-24 15:04:11.993805,153
2021-09-24 15:04:11.993812,143
2021-09-24 15:04:11.993819,136
2021-09-24 15:04:11.993826,126
2021-09-24 15:04:11.993833,119
2021-09-24 15:04:11.993840,116
2021-09-24 15:04:11.993847,109
2021-09-24 15:04:11.993854,94
2021-09-24 15:04:11.993861,92
2021-09-24 15:04:11.993868,94
2021-09-24 15:04:12.173545,89
2021-09-24 15:04:12.173569,87
2021-09-24 15:04:12.173577,85
2021-09-24 15:04:12.173584,70
2021-09-24 15:04:12.173591,65
2021-09-24 15:04:12.173597,75
2021-09-24 15:04:12.173604,63
2021-09-24 15:04:12.173610,46
2021-09-24 15:04:12.173617,46
2021-09-24 15:04:12.173623,48
2021-09-24 15:04:12.173630,46
2021-09-24 15:04:12.173636,48
2021-09-24 15:04:12.173643,43
2021-09-24 15:04:12.173649,26
2021-09-24 15:04:12.173656,24
2021-09-24 15:04:12.173662,43
2021-09-24 15:04:12.173669,48
2021-09-24 15:04:12.173675,41
2021-09-24 15:04:12.173682,36
2021-09-24 15:04:12.173689,31
2021-09-24 15:04:12.173727,34
2021-09-24 15:04:12.173734,34
2021-09-24 15:04:12.173740,24
2021-09-24 15:04:12.173747,31
2021-09-24 15:04:12.173753,36
2021-09-24 15:04:12.173766,29
2021-09-24 15:04:12.173773,34
2021-09-24 15:04:12.173780,48
2021-09-24 15:04:12.173786,36
2021-09-24 15:04:12.173793,19
2021-09-24 15:04:12.442738,31
2021-09-24 15:04:12.442759,24
2021-09-24 15:04:12.442769,-4
2021-09-24 15:04:12.442777,0
2021-09-24 15:04:12.442783,29
2021-09-24 15:04:12.442790,46
2021-09-24 15:04:12.442797,26
2021-09-24 15:04:12.442803,2
2021-09-24 15:04:12.442810,12
2021-09-24 15:04:12.442817,19
2021-09-24 15:04:12.442823,12
2021-09-24 15:04:12.442830,14
2021-09-24 15:04:12.442836,17
2021-09-24 15:04:12.442843,12
2021-09-24 15:04:12.442849,9
2021-09-24 15:04:12.442856,-19
2021-09-24 15:04:12.442862,-102
2021-09-24 15:04:12.442869,-272
2021-09-24 15:04:12.442876,-468
2021-09-24 15:04:12.442882,-466
2021-09-24 15:04:12.442889,-177
2021-09-24 15:04:12.442895,279
2021-09-24 15:04:12.442902,570
2021-09-24 15:04:12.442908,374
2021-09-24 15:04:12.442915,68
2021-09-24 15:04:12.442921,63
2021-09-24 15:04:12.442928,58
2021-09-24 15:04:12.442934,-77
2021-09-24 15:04:12.442941,-106
2021-09-24 15:04:12.442947,-72
2021-09-24 15:04:12.667993,-94
2021-09-24 15:04:12.668012,-114
2021-09-24 15:04:12.668020,-121
2021-09-24 15:04:12.668027,-140
2021-09-24 15:04:12.668034,-155
2021-09-24 15:04:12.668040,-165
2021-09-24 15:04:12.668047,-167
2021-09-24 15:04:12.668053,-162
2021-09-24 15:04:12.668060,-191
2021-09-24 15:04:12.668067,-228
2021-09-24 15:04:12.668074,-221
2021-09-24 15:04:12.668080,-228
2021-09-24 15:04:12.668087,-289
2021-09-24 15:04:12.668093,-347
2021-09-24 15:04:12.668100,-366
2021-09-24 15:04:12.668106,-393
2021-09-24 15:04:12.668113,-437
2021-09-24 15:04:12.668119,-459
2021-09-24 15:04:12.668126,-451
2021-09-24 15:04:12.668133,-429
2021-09-24 15:04:12.668139,-405
2021-09-24 15:04:12.668146,-354
2021-09-24 15:04:12.668152,-245
2021-09-24 15:04:12.668159,-138
2021-09-24 15:04:12.668165,-38
2021-09-24 15:04:12.668172,77
2021-09-24 15:04:12.668178,153
2021-09-24 15:04:12.668185,170
2021-09-24 15:04:12.668191,189
2021-09-24 15:04:12.668198,208
2021-09-24 15:04:12.848357,216
2021-09-24 15:04:12.848380,221
2021-09-24 15:04:12.848389,223
2021-09-24 15:04:12.848397,213
2021-09-24 15:04:12.848405,199
2021-09-24 15:04:12.848412,208
2021-09-24 15:04:12.848421,225
2021-09-24 15:04:12.848428,177
2021-09-24 15:04:12.848435,128
2021-09-24 15:04:12.848442,153
2021-09-24 15:04:12.848450,157
2021-09-24 15:04:12.848457,133
2021-09-24 15:04:12.848464,136
2021-09-24 15:04:12.848472,111
2021-09-24 15:04:12.848479,58
2021-09-24 15:04:12.848486,60
2021-09-24 15:04:12.848494,87
2021-09-24 15:04:12.848501,51
2021-09-24 15:04:12.848508,26
2021-09-24 15:04:12.848515,41
2021-09-24 15:04:12.848522,38
2021-09-24 15:04:12.848529,68
2021-09-24 15:04:12.848536,116
2021-09-24 15:04:12.848543,99
2021-09-24 15:04:12.848551,75
2021-09-24 15:04:12.848558,89
2021-09-24 15:04:12.848566,70
2021-09-24 15:04:12.848573,34
2021-09-24 15:04:12.848580,43
2021-09-24 15:04:12.848589,53
2021-09-24 15:04:13.073555,51
2021-09-24 15:04:13.073577,24
2021-09-24 15:04:13.073585,-2
2021-09-24 15:04:13.073592,51
2021-09-24 15:04:13.073599,102
2021-09-24 15:04:13.073605,75
2021-09-24 15:04:13.073612,46
2021-09-24 15:04:13.073619,29
2021-09-24 15:04:13.073625,4
2021-09-24 15:04:13.073632,12
2021-09-24 15:04:13.073638,36
2021-09-24 15:04:13.073645,41
2021-09-24 15:04:13.073651,60
2021-09-24 15:04:13.073658,58
2021-09-24 15:04:13.073664,9
2021-09-24 15:04:13.073671,9
2021-09-24 15:04:13.073677,41
2021-09-24 15:04:13.073684,36
2021-09-24 15:04:13.073690,4
2021-09-24 15:04:13.073697,-26
2021-09-24 15:04:13.073704,-21
2021-09-24 15:04:13.073710,17
2021-09-24 15:04:13.073717,29
2021-09-24 15:04:13.073723,12
2021-09-24 15:04:13.073730,4
2021-09-24 15:04:13.073736,17
2021-09-24 15:04:13.073743,46
2021-09-24 15:04:13.073749,63
2021-09-24 15:04:13.073756,53
2021-09-24 15:04:13.073763,38
2021-09-24 15:04:13.343268,46
2021-09-24 15:04:13.343290,38
2021-09-24 15:04:13.343296,0
2021-09-24 15:04:13.343302,-41
2021-09-24 15:04:13.343308,-184
2021-09-24 15:04:13.343313,-432
2021-09-24 15:04:13.343318,-500
2021-09-24 15:04:13.343324,-272
2021-09-24 15:04:13.343329,182
2021-09-24 15:04:13.343334,566
2021-09-24 15:04:13.343339,454
2021-09-24 15:04:13.343345,121
2021-09-24 15:04:13.343350,70
2021-09-24 15:04:13.343355,85
2021-09-24 15:04:13.343360,-29
2021-09-24 15:04:13.343366,-70
2021-09-24 15:04:13.343371,-48
2021-09-24 15:04:13.343376,-77
2021-09-24 15:04:13.343381,-82
2021-09-24 15:04:13.343397,-70
2021-09-24 15:04:13.343403,-85
2021-09-24 15:04:13.343408,-99
2021-09-24 15:04:13.343413,-138
2021-09-24 15:04:13.343418,-165
2021-09-24 15:04:13.343424,-123
2021-09-24 15:04:13.343429,-128
2021-09-24 15:04:13.343434,-206
2021-09-24 15:04:13.343439,-211
2021-09-24 15:04:13.343445,-204
2021-09-24 15:04:13.343450,-255
2021-09-24 15:04:13.568615,-281
2021-09-24 15:04:13.568639,-289
2021-09-24 15:04:13.568646,-310
2021-09-24 15:04:13.568653,-340
2021-09-24 15:04:13.568660,-357
2021-09-24 15:04:13.568666,-366
2021-09-24 15:04:13.568673,-381
2021-09-24 15:04:13.568680,-361
2021-09-24 15:04:13.568718,-286
2021-09-24 15:04:13.568725,-211
2021-09-24 15:04:13.568731,-140
2021-09-24 15:04:13.568738,-29
2021-09-24 15:04:13.568745,89
2021-09-24 15:04:13.568751,148
2021-09-24 15:04:13.568758,172
2021-09-24 15:04:13.568764,204
2021-09-24 15:04:13.568770,238
2021-09-24 15:04:13.568777,238
2021-09-24 15:04:13.568783,218
2021-09-24 15:04:13.568790,206
2021-09-24 15:04:13.568796,211
2021-09-24 15:04:13.568803,208
2021-09-24 15:04:13.568809,167
2021-09-24 15:04:13.568816,131
2021-09-24 15:04:13.568822,121
2021-09-24 15:04:13.568829,109
2021-09-24 15:04:13.568835,102
2021-09-24 15:04:13.568842,82
2021-09-24 15:04:13.568848,41
2021-09-24 15:04:13.568855,21
2021-09-24 15:04:13.882240,24
2021-09-24 15:04:13.882264,26
2021-09-24 15:04:13.882271,7
2021-09-24 15:04:13.882278,-14
2021-09-24 15:04:13.882285,-4
2021-09-24 15:04:13.882292,-41
2021-09-24 15:04:13.882298,-99
2021-09-24 15:04:13.882305,-53
2021-09-24 15:04:13.882312,-14
2021-09-24 15:04:13.882318,-89
2021-09-24 15:04:13.882325,-106
2021-09-24 15:04:13.882332,-31
2021-09-24 15:04:13.882338,-43
2021-09-24 15:04:13.882345,-116
2021-09-24 15:04:13.882352,-102
2021-09-24 15:04:13.882358,-34
2021-09-24 15:04:13.882365,-51
2021-09-24 15:04:13.882371,-114
2021-09-24 15:04:13.882378,-63
2021-09-24 15:04:13.882384,9
2021-09-24 15:04:13.882391,-34
2021-09-24 15:04:13.882397,-136
2021-09-24 15:04:13.882404,-111
2021-09-24 15:04:13.882410,63
2021-09-24 15:04:13.882417,75
2021-09-24 15:04:13.882424,-82
2021-09-24 15:04:13.882430,-92
2021-09-24 15:04:13.882437,-38
2021-09-24 15:04:13.882443,-53
2021-09-24 15:04:13.882450,-104
2021-09-24 15:04:14.018510,-157
2021-09-24 15:04:14.018533,-53
2021-09-24 15:04:14.018541,53
2021-09-24 15:04:14.018548,-24
2021-09-24 15:04:14.018555,-24
2021-09-24 15:04:14.018561,97
2021-09-24 15:04:14.018568,150
2021-09-24 15:04:14.018575,7
2021-09-24 15:04:14.018581,-162
2021-09-24 15:04:14.018588,-7
2021-09-24 15:04:14.018595,145
2021-09-24 15:04:14.018601,-58
2021-09-24 15:04:14.018608,-225
2021-09-24 15:04:14.018615,-179
2021-09-24 15:04:14.018621,-43
2021-09-24 15:04:14.018628,133
2021-09-24 15:04:14.018634,38
2021-09-24 15:04:14.018641,-361
2021-09-24 15:04:14.018648,-595
2021-09-24 15:04:14.018654,-597
2021-09-24 15:04:14.018661,-539
2021-09-24 15:04:14.018667,-196
2021-09-24 15:04:14.018674,301
2021-09-24 15:04:14.018681,306
2021-09-24 15:04:14.018687,12
2021-09-24 15:04:14.018694,19
2021-09-24 15:04:14.018700,87
2021-09-24 15:04:14.018707,-31
2021-09-24 15:04:14.018714,-77
2021-09-24 15:04:14.018721,-34
2021-09-24 15:04:14.243002,-75
2021-09-24 15:04:14.243024,-145
2021-09-24 15:04:14.243034,-126
2021-09-24 15:04:14.243044,-85
2021-09-24 15:04:14.243053,-99
2021-09-24 15:04:14.243061,-111
2021-09-24 15:04:14.243070,-102
2021-09-24 15:04:14.243079,-121
2021-09-24 15:04:14.243088,-150
2021-09-24 15:04:14.243097,-160
2021-09-24 15:04:14.243106,-157
2021-09-24 15:04:14.243116,-160
2021-09-24 15:04:14.243124,-184
2021-09-24 15:04:14.243133,-206
2021-09-24 15:04:14.243142,-213
2021-09-24 15:04:14.243151,-250
2021-09-24 15:04:14.243160,-306
2021-09-24 15:04:14.243169,-342
2021-09-24 15:04:14.243178,-340
2021-09-24 15:04:14.243187,-320
2021-09-24 15:04:14.243196,-313
2021-09-24 15:04:14.243205,-269
2021-09-24 15:04:14.243213,-184
2021-09-24 15:04:14.243222,-94
2021-09-24 15:04:14.243230,17
2021-09-24 15:04:14.243238,131
2021-09-24 15:04:14.243247,196
2021-09-24 15:04:14.243256,233
2021-09-24 15:04:14.243264,267
2021-09-24 15:04:14.243845,274
2021-09-24 15:04:14.513579,259
2021-09-24 15:04:14.513604,269
2021-09-24 15:04:14.513612,262
2021-09-24 15:04:14.513619,242
2021-09-24 15:04:14.513658,274
2021-09-24 15:04:14.513665,281
2021-09-24 15:04:14.513672,201
2021-09-24 15:04:14.513679,155
2021-09-24 15:04:14.513686,167
2021-09-24 15:04:14.513693,157
2021-09-24 15:04:14.513700,162
2021-09-24 15:04:14.513707,177
2021-09-24 15:04:14.513713,150
2021-09-24 15:04:14.513720,133
2021-09-24 15:04:14.513727,145
2021-09-24 15:04:14.513734,121
2021-09-24 15:04:14.513741,102
2021-09-24 15:04:14.513748,121
2021-09-24 15:04:14.513755,126
2021-09-24 15:04:14.513762,126
2021-09-24 15:04:14.513769,138
2021-09-24 15:04:14.513776,119
2021-09-24 15:04:14.513782,92
2021-09-24 15:04:14.513789,109
2021-09-24 15:04:14.513796,109
2021-09-24 15:04:14.513803,82
2021-09-24 15:04:14.513810,75
2021-09-24 15:04:14.513817,68
2021-09-24 15:04:14.513824,58
2021-09-24 15:04:14.513831,58
2021-09-24 15:04:14.693454,63
2021-09-24 15:04:14.693477,75
2021-09-24 15:04:14.693485,92
2021-09-24 15:04:14.693492,89
2021-09-24 15:04:14.693499,51
2021-09-24 15:04:14.693505,34
2021-09-24 15:04:14.693512,38
2021-09-24 15:04:14.693518,19
2021-09-24 15:04:14.693525,12
2021-09-24 15:04:14.693531,24
2021-09-24 15:04:14.693538,29
2021-09-24 15:04:14.693545,19
2021-09-24 15:04:14.693551,-7
2021-09-24 15:04:14.693558,-21
2021-09-24 15:04:14.693565,0
2021-09-24 15:04:14.693571,34
2021-09-24 15:04:14.693578,34
2021-09-24 15:04:14.693584,29
2021-09-24 15:04:14.693591,17
2021-09-24 15:04:14.693598,-19
2021-09-24 15:04:14.693604,-2
2021-09-24 15:04:14.693611,34
2021-09-24 15:04:14.693617,7
2021-09-24 15:04:14.693624,-12
2021-09-24 15:04:14.693630,2
2021-09-24 15:04:14.693637,-24
2021-09-24 15:04:14.693643,-82
2021-09-24 15:04:14.693650,-184
2021-09-24 15:04:14.693657,-386
2021-09-24 15:04:14.693663,-444
2021-09-24 15:04:14.918537,-148
2021-09-24 15:04:14.918560,315
2021-09-24 15:04:14.918568,578
2021-09-24 15:04:14.918575,395
2021-09-24 15:04:14.918582,111
2021-09-24 15:04:14.918589,53
2021-09-24 15:04:14.918596,31
2021-09-24 15:04:14.918603,-55
2021-09-24 15:04:14.918610,-92
2021-09-24 15:04:14.918617,-75
2021-09-24 15:04:14.918624,-82
2021-09-24 15:04:14.918631,-97
2021-09-24 15:04:14.918638,-92
2021-09-24 15:04:14.918645,-119
2021-09-24 15:04:14.918652,-157
2021-09-24 15:04:14.918659,-153
2021-09-24 15:04:14.918666,-128
2021-09-24 15:04:14.918693,-140
2021-09-24 15:04:14.918700,-170
2021-09-24 15:04:14.918707,-174
2021-09-24 15:04:14.918714,-177
2021-09-24 15:04:14.918721,-201
2021-09-24 15:04:14.918728,-235
2021-09-24 15:04:14.918735,-274
2021-09-24 15:04:14.918742,-298
2021-09-24 15:04:14.918749,-320
2021-09-24 15:04:14.918756,-337
2021-09-24 15:04:14.918763,-337
2021-09-24 15:04:14.918769,-349
2021-09-24 15:04:14.918776,-357
2021-09-24 15:04:15.188126,-330
2021-09-24 15:04:15.188156,-269
2021-09-24 15:04:15.188165,-191
2021-09-24 15:04:15.188236,-123
2021-09-24 15:04:15.188244,-36
2021-09-24 15:04:15.188251,72
2021-09-24 15:04:15.188258,140
2021-09-24 15:04:15.188264,177
2021-09-24 15:04:15.188271,213
2021-09-24 15:04:15.188278,221
2021-09-24 15:04:15.188285,201
2021-09-24 15:04:15.188291,206
2021-09-24 15:04:15.188298,204
2021-09-24 15:04:15.188305,184
2021-09-24 15:04:15.188311,182
2021-09-24 15:04:15.188318,187
2021-09-24 15:04:15.188325,187
2021-09-24 15:04:15.188331,170
2021-09-24 15:04:15.188338,162
2021-09-24 15:04:15.188345,177
2021-09-24 15:04:15.188351,172
2021-09-24 15:04:15.188358,143
2021-09-24 15:04:15.188364,128
2021-09-24 15:04:15.188371,121
2021-09-24 15:04:15.188438,116
2021-09-24 15:04:15.188456,126
2021-09-24 15:04:15.188484,121
2021-09-24 15:04:15.188495,104
2021-09-24 15:04:15.188507,104
2021-09-24 15:04:15.188529,116
2021-09-24 15:04:15.413606,109
2021-09-24 15:04:15.413663,89
2021-09-24 15:04:15.413671,97
2021-09-24 15:04:15.413678,114
2021-09-24 15:04:15.413685,102
2021-09-24 15:04:15.413702,87
2021-09-24 15:04:15.413710,92
2021-09-24 15:04:15.413717,89
2021-09-24 15:04:15.413724,87
2021-09-24 15:04:15.413731,99
2021-09-24 15:04:15.413738,97
2021-09-24 15:04:15.413745,82
2021-09-24 15:04:15.413751,80
2021-09-24 15:04:15.413758,77
2021-09-24 15:04:15.413765,60
2021-09-24 15:04:15.413772,41
2021-09-24 15:04:15.413779,41
2021-09-24 15:04:15.413786,51
2021-09-24 15:04:15.413793,48
2021-09-24 15:04:15.413800,51
2021-09-24 15:04:15.413807,63
2021-09-24 15:04:15.413814,63
2021-09-24 15:04:15.413820,55
2021-09-24 15:04:15.413827,60
2021-09-24 15:04:15.413834,53
2021-09-24 15:04:15.413841,26
2021-09-24 15:04:15.413848,-2
2021-09-24 15:04:15.413855,-9
2021-09-24 15:04:15.413862,9
2021-09-24 15:04:15.413869,31
2021-09-24 15:04:15.683469,38
2021-09-24 15:04:15.683514,38
2021-09-24 15:04:15.683524,38
2021-09-24 15:04:15.683534,38
2021-09-24 15:04:15.683541,38
2021-09-24 15:04:15.683550,29
2021-09-24 15:04:15.683557,29
2021-09-24 15:04:15.683565,48
2021-09-24 15:04:15.683572,60
2021-09-24 15:04:15.683580,38
2021-09-24 15:04:15.683588,4
2021-09-24 15:04:15.683595,-14
2021-09-24 15:04:15.683603,-80
2021-09-24 15:04:15.683611,-279
2021-09-24 15:04:15.683618,-495
2021-09-24 15:04:15.683626,-461
2021-09-24 15:04:15.683633,-92
2021-09-24 15:04:15.683641,408
2021-09-24 15:04:15.683649,527
2021-09-24 15:04:15.683657,191
2021-09-24 15:04:15.683665,19
2021-09-24 15:04:15.683672,77
2021-09-24 15:04:15.683680,14
2021-09-24 15:04:15.683687,-72
2021-09-24 15:04:15.683694,-60
2021-09-24 15:04:15.683703,-55
2021-09-24 15:04:15.683711,-85
2021-09-24 15:04:15.683719,-77
2021-09-24 15:04:15.683727,-60
2021-09-24 15:04:15.683735,-89
2021-09-24 15:04:15.907289,-123
2021-09-24 15:04:15.907313,-114
2021-09-24 15:04:15.907321,-116
2021-09-24 15:04:15.907328,-148
2021-09-24 15:04:15.907335,-150
2021-09-24 15:04:15.907341,-150
2021-09-24 15:04:15.907348,-184
2021-09-24 15:04:15.907354,-221
2021-09-24 15:04:15.907361,-238
2021-09-24 15:04:15.907368,-257
2021-09-24 15:04:15.907374,-293
2021-09-24 15:04:15.907381,-327
2021-09-24 15:04:15.907387,-342
2021-09-24 15:04:15.907394,-344
2021-09-24 15:04:15.907400,-340
2021-09-24 15:04:15.907407,-327
2021-09-24 15:04:15.907413,-298
2021-09-24 15:04:15.907420,-245
2021-09-24 15:04:15.907426,-170
2021-09-24 15:04:15.907433,-75
2021-09-24 15:04:15.907440,9
2021-09-24 15:04:15.907446,77
2021-09-24 15:04:15.907453,155
2021-09-24 15:04:15.907459,208
2021-09-24 15:04:15.907466,225
2021-09-24 15:04:15.907472,242
2021-09-24 15:04:15.907479,247
2021-09-24 15:04:15.907485,238
2021-09-24 15:04:15.907492,245
2021-09-24 15:04:15.907498,242
2021-09-24 15:04:16.133533,213
2021-09-24 15:04:16.133556,206
2021-09-24 15:04:16.133564,208
2021-09-24 15:04:16.133571,194
2021-09-24 15:04:16.133578,187
2021-09-24 15:04:16.133584,189
2021-09-24 15:04:16.133591,184
2021-09-24 15:04:16.133597,157
2021-09-24 15:04:16.133604,138
2021-09-24 15:04:16.133611,138
2021-09-24 15:04:16.133617,133
2021-09-24 15:04:16.133624,111
2021-09-24 15:04:16.133630,97
2021-09-24 15:04:16.133637,87
2021-09-24 15:04:16.133644,75
2021-09-24 15:04:16.133650,72
2021-09-24 15:04:16.133657,85
2021-09-24 15:04:16.133663,97
2021-09-24 15:04:16.133670,89
2021-09-24 15:04:16.133676,94
2021-09-24 15:04:16.133683,109
2021-09-24 15:04:16.133689,102
2021-09-24 15:04:16.133702,97
2021-09-24 15:04:16.133709,92
2021-09-24 15:04:16.133716,80
2021-09-24 15:04:16.133723,80
2021-09-24 15:04:16.133729,85
2021-09-24 15:04:16.133736,85
2021-09-24 15:04:16.133742,82
2021-09-24 15:04:16.133749,80
2021-09-24 15:04:16.313571,82
2021-09-24 15:04:16.313599,82
2021-09-24 15:04:16.313611,68
2021-09-24 15:04:16.313622,60
2021-09-24 15:04:16.313632,63
2021-09-24 15:04:16.313642,55
2021-09-24 15:04:16.313652,46
2021-09-24 15:04:16.313662,48
2021-09-24 15:04:16.313672,53
2021-09-24 15:04:16.313682,53
2021-09-24 15:04:16.313692,53
2021-09-24 15:04:16.313702,48
2021-09-24 15:04:16.313712,36
2021-09-24 15:04:16.313722,29
2021-09-24 15:04:16.313732,41
2021-09-24 15:04:16.313742,38
2021-09-24 15:04:16.313752,19
2021-09-24 15:04:16.313762,14
2021-09-24 15:04:16.313772,24
2021-09-24 15:04:16.313782,26
2021-09-24 15:04:16.313792,34
2021-09-24 15:04:16.313802,41
2021-09-24 15:04:16.313812,31
2021-09-24 15:04:16.313822,26
2021-09-24 15:04:16.313832,48
2021-09-24 15:04:16.313842,58
2021-09-24 15:04:16.313852,38
2021-09-24 15:04:16.313862,36
2021-09-24 15:04:16.313872,48
2021-09-24 15:04:16.313882,24
2021-09-24 15:04:16.538762,-29
2021-09-24 15:04:16.538793,-128
2021-09-24 15:04:16.538805,-357
2021-09-24 15:04:16.538816,-534
2021-09-24 15:04:16.538826,-391
2021-09-24 15:04:16.538836,80
2021-09-24 15:04:16.538846,512
2021-09-24 15:04:16.538856,425
2021-09-24 15:04:16.538866,102
2021-09-24 15:04:16.538876,80
2021-09-24 15:04:16.538886,111
2021-09-24 15:04:16.538896,-7
2021-09-24 15:04:16.538906,-58
2021-09-24 15:04:16.538916,-31
2021-09-24 15:04:16.538926,-55
2021-09-24 15:04:16.538936,-89
2021-09-24 15:04:16.538946,-87
2021-09-24 15:04:16.538956,-82
2021-09-24 15:04:16.538966,-94
2021-09-24 15:04:16.538976,-97
2021-09-24 15:04:16.538986,-104
2021-09-24 15:04:16.538996,-126
2021-09-24 15:04:16.539006,-140
2021-09-24 15:04:16.539016,-150
2021-09-24 15:04:16.539026,-162
2021-09-24 15:04:16.539036,-177
2021-09-24 15:04:16.539046,-201
2021-09-24 15:04:16.539056,-230
2021-09-24 15:04:16.539066,-264
2021-09-24 15:04:16.539076,-296
2021-09-24 15:04:16.763608,-308
2021-09-24 15:04:16.763631,-325
2021-09-24 15:04:16.763638,-347
2021-09-24 15:04:16.763645,-349
2021-09-24 15:04:16.763652,-342
2021-09-24 15:04:16.763659,-310
2021-09-24 15:04:16.763666,-240
2021-09-24 15:04:16.763672,-155
2021-09-24 15:04:16.763679,-72
2021-09-24 15:04:16.763686,12
2021-09-24 15:04:16.763692,92
2021-09-24 15:04:16.763699,165
2021-09-24 15:04:16.763706,208
2021-09-24 15:04:16.763713,213
2021-09-24 15:04:16.763719,208
2021-09-24 15:04:16.763726,218
2021-09-24 15:04:16.763733,221
2021-09-24 15:04:16.763739,211
2021-09-24 15:04:16.763746,204
2021-09-24 15:04:16.763753,201
2021-09-24 15:04:16.763759,191
2021-09-24 15:04:16.763766,189
2021-09-24 15:04:16.763773,182
2021-09-24 15:04:16.763779,167
2021-09-24 15:04:16.763786,165
2021-09-24 15:04:16.763792,153
2021-09-24 15:04:16.763799,128
2021-09-24 15:04:16.763806,119
2021-09-24 15:04:16.763813,119
2021-09-24 15:04:16.763819,119
2021-09-24 15:04:16.988757,123
2021-09-24 15:04:16.988782,128
2021-09-24 15:04:16.988791,119
2021-09-24 15:04:16.988799,102
2021-09-24 15:04:16.988806,97
2021-09-24 15:04:16.988813,97
2021-09-24 15:04:16.988820,99
2021-09-24 15:04:16.988828,109
2021-09-24 15:04:16.988835,106
2021-09-24 15:04:16.988842,92
2021-09-24 15:04:16.988849,87
2021-09-24 15:04:16.988857,89
2021-09-24 15:04:16.988864,87
2021-09-24 15:04:16.988871,82
2021-09-24 15:04:16.988878,80
2021-09-24 15:04:16.988885,82
2021-09-24 15:04:16.988893,77
2021-09-24 15:04:16.988900,68
2021-09-24 15:04:16.988907,58
2021-09-24 15:04:16.988914,55
2021-09-24 15:04:16.988921,58
2021-09-24 15:04:16.988928,46
2021-09-24 15:04:16.988936,41
2021-09-24 15:04:16.988943,46
2021-09-24 15:04:16.988950,41
2021-09-24 15:04:16.988957,34
2021-09-24 15:04:16.988996,34
2021-09-24 15:04:16.989004,38
2021-09-24 15:04:16.989011,38
2021-09-24 15:04:16.989018,46
2021-09-24 15:04:17.258649,60
2021-09-24 15:04:17.258673,53
2021-09-24 15:04:17.258681,38
2021-09-24 15:04:17.258688,38
2021-09-24 15:04:17.258694,31
2021-09-24 15:04:17.258701,24
2021-09-24 15:04:17.258707,26
2021-09-24 15:04:17.258714,19
2021-09-24 15:04:17.258720,9
2021-09-24 15:04:17.258727,2
2021-09-24 15:04:17.258734,-14
2021-09-24 15:04:17.258740,-24
2021-09-24 15:04:17.258747,-19
2021-09-24 15:04:17.258753,-7
2021-09-24 15:04:17.258760,4
2021-09-24 15:04:17.258766,4
2021-09-24 15:04:17.258773,12
2021-09-24 15:04:17.258779,34
2021-09-24 15:04:17.258786,26
2021-09-24 15:04:17.258792,2
2021-09-24 15:04:17.258799,7
2021-09-24 15:04:17.258805,26
2021-09-24 15:04:17.258812,19
2021-09-24 15:04:17.258818,9
2021-09-24 15:04:17.258825,12
2021-09-24 15:04:17.258831,7
2021-09-24 15:04:17.258838,-29
2021-09-24 15:04:17.258845,-167
2021-09-24 15:04:17.258851,-410
2021-09-24 15:04:17.258858,-556
2021-09-24 15:04:17.483795,-410
2021-09-24 15:04:17.483826,55
2021-09-24 15:04:17.483838,485
2021-09-24 15:04:17.483849,374
2021-09-24 15:04:17.483859,65
2021-09-24 15:04:17.483869,72
2021-09-24 15:04:17.483879,102
2021-09-24 15:04:17.483889,-26
2021-09-24 15:04:17.483899,-72
2021-09-24 15:04:17.483910,-53
2021-09-24 15:04:17.483920,-85
2021-09-24 15:04:17.483930,-97
2021-09-24 15:04:17.483940,-75
2021-09-24 15:04:17.483950,-94
2021-09-24 15:04:17.483960,-126
2021-09-24 15:04:17.483970,-123
2021-09-24 15:04:17.483980,-128
2021-09-24 15:04:17.483990,-145
2021-09-24 15:04:17.484000,-157
2021-09-24 15:04:17.484010,-172
2021-09-24 15:04:17.484020,-182
2021-09-24 15:04:17.484030,-191
2021-09-24 15:04:17.484041,-223
2021-09-24 15:04:17.484051,-252
2021-09-24 15:04:17.484061,-269
2021-09-24 15:04:17.484071,-291
2021-09-24 15:04:17.484081,-310
2021-09-24 15:04:17.484092,-327
2021-09-24 15:04:17.484102,-340
2021-09-24 15:04:17.484112,-335
2021-09-24 15:04:17.708674,-303
2021-09-24 15:04:17.708696,-264
2021-09-24 15:04:17.708704,-230
2021-09-24 15:04:17.708711,-167
2021-09-24 15:04:17.708718,-63
2021-09-24 15:04:17.708725,29
2021-09-24 15:04:17.708732,99
2021-09-24 15:04:17.708738,148
2021-09-24 15:04:17.708745,177
2021-09-24 15:04:17.708752,204
2021-09-24 15:04:17.708758,216
2021-09-24 15:04:17.708765,206
2021-09-24 15:04:17.708772,206
2021-09-24 15:04:17.708778,199
2021-09-24 15:04:17.708785,177
2021-09-24 15:04:17.708792,165
2021-09-24 15:04:17.708798,165
2021-09-24 15:04:17.708805,153
2021-09-24 15:04:17.708812,131
2021-09-24 15:04:17.708818,119
2021-09-24 15:04:17.708825,128
2021-09-24 15:04:17.708831,123
2021-09-24 15:04:17.708838,99
2021-09-24 15:04:17.708845,77
2021-09-24 15:04:17.708851,80
2021-09-24 15:04:17.708858,94
2021-09-24 15:04:17.708865,85
2021-09-24 15:04:17.708871,68
2021-09-24 15:04:17.708878,77
2021-09-24 15:04:17.708916,82
2021-09-24 15:04:17.977312,65
2021-09-24 15:04:17.977336,58
2021-09-24 15:04:17.977344,65
2021-09-24 15:04:17.977351,63
2021-09-24 15:04:17.977357,53
2021-09-24 15:04:17.977363,55
2021-09-24 15:04:17.977370,53
2021-09-24 15:04:17.977376,36
2021-09-24 15:04:17.977383,43
2021-09-24 15:04:17.977389,51
2021-09-24 15:04:17.977395,46
2021-09-24 15:04:17.977402,55
2021-09-24 15:04:17.977408,55
2021-09-24 15:04:17.977415,29
2021-09-24 15:04:17.977421,24
2021-09-24 15:04:17.977427,38
2021-09-24 15:04:17.977434,36
2021-09-24 15:04:17.977440,29
2021-09-24 15:04:17.977446,36
2021-09-24 15:04:17.977453,31
2021-09-24 15:04:17.977459,19
2021-09-24 15:04:17.977466,29
2021-09-24 15:04:17.977472,46
2021-09-24 15:04:17.977478,36
2021-09-24 15:04:17.977484,17
2021-09-24 15:04:17.977491,29
2021-09-24 15:04:17.977497,43
2021-09-24 15:04:17.977504,34
2021-09-24 15:04:17.977510,31
2021-09-24 15:04:17.977516,31
2021-09-24 15:04:18.247911,2
2021-09-24 15:04:18.247934,-12
2021-09-24 15:04:18.247942,-2
2021-09-24 15:04:18.247949,-17
2021-09-24 15:04:18.247956,-26
2021-09-24 15:04:18.247962,-2
2021-09-24 15:04:18.247969,9
2021-09-24 15:04:18.247975,7
2021-09-24 15:04:18.247982,17
2021-09-24 15:04:18.247989,17
2021-09-24 15:04:18.247995,12
2021-09-24 15:04:18.248002,17
2021-09-24 15:04:18.248008,12
2021-09-24 15:04:18.248015,7
2021-09-24 15:04:18.248021,9
2021-09-24 15:04:18.248028,4
2021-09-24 15:04:18.248034,-17
2021-09-24 15:04:18.248041,-58
2021-09-24 15:04:18.248048,-179
2021-09-24 15:04:18.248054,-417
2021-09-24 15:04:18.248061,-575
2021-09-24 15:04:18.248067,-420
2021-09-24 15:04:18.248074,58
2021-09-24 15:04:18.248081,502
2021-09-24 15:04:18.248087,415
2021-09-24 15:04:18.248094,87
2021-09-24 15:04:18.248100,55
2021-09-24 15:04:18.248107,80
2021-09-24 15:04:18.248113,-38
2021-09-24 15:04:18.248120,-75
2021-09-24 15:04:18.383676,-46
2021-09-24 15:04:18.383730,-80
2021-09-24 15:04:18.383738,-109
2021-09-24 15:04:18.383745,-104
2021-09-24 15:04:18.383751,-114
2021-09-24 15:04:18.383758,-133
2021-09-24 15:04:18.383764,-138
2021-09-24 15:04:18.383771,-138
2021-09-24 15:04:18.383777,-148
2021-09-24 15:04:18.383784,-170
2021-09-24 15:04:18.383790,-191
2021-09-24 15:04:18.383797,-204
2021-09-24 15:04:18.383803,-211
2021-09-24 15:04:18.383810,-240
2021-09-24 15:04:18.383816,-269
2021-09-24 15:04:18.383823,-284
2021-09-24 15:04:18.383829,-306
2021-09-24 15:04:18.383836,-332
2021-09-24 15:04:18.383842,-340
2021-09-24 15:04:18.383849,-340
2021-09-24 15:04:18.383855,-344
2021-09-24 15:04:18.383862,-342
2021-09-24 15:04:18.383868,-310
2021-09-24 15:04:18.383875,-242
2021-09-24 15:04:18.383881,-160
2021-09-24 15:04:18.383887,-75
2021-09-24 15:04:18.383894,17
2021-09-24 15:04:18.383900,85
2021-09-24 15:04:18.383907,126
2021-09-24 15:04:18.383913,174
2021-09-24 15:04:18.608697,213
2021-09-24 15:04:18.608752,218
2021-09-24 15:04:18.608761,211
2021-09-24 15:04:18.608768,211
2021-09-24 15:04:18.608775,206
2021-09-24 15:04:18.608781,187
2021-09-24 15:04:18.608788,187
2021-09-24 15:04:18.608795,191
2021-09-24 15:04:18.608802,174
2021-09-24 15:04:18.608809,150
2021-09-24 15:04:18.608815,145
2021-09-24 15:04:18.608822,140
2021-09-24 15:04:18.608829,114
2021-09-24 15:04:18.608836,92
2021-09-24 15:04:18.608843,94
2021-09-24 15:04:18.608849,99
2021-09-24 15:04:18.608856,97
2021-09-24 15:04:18.608863,85
2021-09-24 15:04:18.608870,70
2021-09-24 15:04:18.608876,68
2021-09-24 15:04:18.608883,75
2021-09-24 15:04:18.608890,70
2021-09-24 15:04:18.608897,60
2021-09-24 15:04:18.608904,65
2021-09-24 15:04:18.608910,75
2021-09-24 15:04:18.608917,77
2021-09-24 15:04:18.608924,80
2021-09-24 15:04:18.608931,72
2021-09-24 15:04:18.608937,60
2021-09-24 15:04:18.608944,72
2021-09-24 15:04:18.923256,72
2021-09-24 15:04:18.923280,55
2021-09-24 15:04:18.923288,53
2021-09-24 15:04:18.923295,51
2021-09-24 15:04:18.923302,41
2021-09-24 15:04:18.923309,51
2021-09-24 15:04:18.923316,55
2021-09-24 15:04:18.923324,51
2021-09-24 15:04:18.923331,55
2021-09-24 15:04:18.923338,60
2021-09-24 15:04:18.923344,43
2021-09-24 15:04:18.923351,41
2021-09-24 15:04:18.923358,51
2021-09-24 15:04:18.923365,55
2021-09-24 15:04:18.923372,58
2021-09-24 15:04:18.923379,55
2021-09-24 15:04:18.923386,41
2021-09-24 15:04:18.923394,38
2021-09-24 15:04:18.923401,41
2021-09-24 15:04:18.923408,29
2021-09-24 15:04:18.923415,12
2021-09-24 15:04:18.923422,12
2021-09-24 15:04:18.923429,34
2021-09-24 15:04:18.923436,51
2021-09-24 15:04:18.923443,51
2021-09-24 15:04:18.923450,51
2021-09-24 15:04:18.923458,51
2021-09-24 15:04:18.923464,41
2021-09-24 15:04:18.923472,43
2021-09-24 15:04:18.923479,55
2021-09-24 15:04:19.103890,51
2021-09-24 15:04:19.103920,43
2021-09-24 15:04:19.103932,38
2021-09-24 15:04:19.103943,0
2021-09-24 15:04:19.103953,-133
2021-09-24 15:04:19.103963,-376
2021-09-24 15:04:19.103973,-519
2021-09-24 15:04:19.103983,-344
2021-09-24 15:04:19.103993,133
2021-09-24 15:04:19.104003,531
2021-09-24 15:04:19.104014,403
2021-09-24 15:04:19.104024,104
2021-09-24 15:04:19.104034,104
2021-09-24 15:04:19.104044,119
2021-09-24 15:04:19.104054,-21
2021-09-24 15:04:19.104064,-77
2021-09-24 15:04:19.104074,-48
2021-09-24 15:04:19.104084,-70
2021-09-24 15:04:19.104094,-97
2021-09-24 15:04:19.104118,-85
2021-09-24 15:04:19.104129,-102
2021-09-24 15:04:19.104139,-133
2021-09-24 15:04:19.104149,-128
2021-09-24 15:04:19.104159,-131
2021-09-24 15:04:19.104168,-153
2021-09-24 15:04:19.104178,-165
2021-09-24 15:04:19.104188,-177
2021-09-24 15:04:19.104198,-191
2021-09-24 15:04:19.104208,-218
2021-09-24 15:04:19.104219,-247
2021-09-24 15:04:19.373224,-259
2021-09-24 15:04:19.373246,-274
2021-09-24 15:04:19.373255,-296
2021-09-24 15:04:19.373262,-313
2021-09-24 15:04:19.373269,-332
2021-09-24 15:04:19.373276,-347
2021-09-24 15:04:19.373283,-340
2021-09-24 15:04:19.373300,-318
2021-09-24 15:04:19.373307,-293
2021-09-24 15:04:19.373314,-245
2021-09-24 15:04:19.373321,-167
2021-09-24 15:04:19.373328,-70
2021-09-24 15:04:19.373335,26
2021-09-24 15:04:19.373342,87
2021-09-24 15:04:19.373349,121
2021-09-24 15:04:19.373356,157
2021-09-24 15:04:19.373363,184
2021-09-24 15:04:19.373370,196
2021-09-24 15:04:19.373376,206
2021-09-24 15:04:19.373383,196
2021-09-24 15:04:19.373390,184
2021-09-24 15:04:19.373397,189
2021-09-24 15:04:19.373404,179
2021-09-24 15:04:19.373411,153
2021-09-24 15:04:19.373418,155
2021-09-24 15:04:19.373425,157
2021-09-24 15:04:19.373432,131
2021-09-24 15:04:19.373438,106
2021-09-24 15:04:19.373445,109
2021-09-24 15:04:19.373452,102
2021-09-24 15:04:19.553702,92
2021-09-24 15:04:19.553755,94
2021-09-24 15:04:19.553763,89
2021-09-24 15:04:19.553770,85
2021-09-24 15:04:19.553777,80
2021-09-24 15:04:19.553783,75
2021-09-24 15:04:19.553790,85
2021-09-24 15:04:19.553796,85
2021-09-24 15:04:19.553803,70
2021-09-24 15:04:19.553809,75
2021-09-24 15:04:19.553816,77
2021-09-24 15:04:19.553822,63
2021-09-24 15:04:19.553829,63
2021-09-24 15:04:19.553835,72
2021-09-24 15:04:19.553842,63
2021-09-24 15:04:19.553849,60
2021-09-24 15:04:19.553855,65
2021-09-24 15:04:19.553862,63
2021-09-24 15:04:19.553868,58
2021-09-24 15:04:19.553875,43
2021-09-24 15:04:19.553881,38
2021-09-24 15:04:19.553888,58
2021-09-24 15:04:19.553894,60
2021-09-24 15:04:19.553901,48
2021-09-24 15:04:19.553907,51
2021-09-24 15:04:19.553914,55
2021-09-24 15:04:19.553920,55
2021-09-24 15:04:19.553927,51
2021-09-24 15:04:19.553933,51
2021-09-24 15:04:19.553940,60
2021-09-24 15:04:19.778454,70
2021-09-24 15:04:19.778476,63
2021-09-24 15:04:19.778484,60
2021-09-24 15:04:19.778491,53
2021-09-24 15:04:19.778497,29
2021-09-24 15:04:19.778504,17
2021-09-24 15:04:19.778510,17
2021-09-24 15:04:19.778517,-2
2021-09-24 15:04:19.778524,-12
2021-09-24 15:04:19.778530,9
2021-09-24 15:04:19.778537,26
2021-09-24 15:04:19.778543,26
2021-09-24 15:04:19.778550,21
2021-09-24 15:04:19.778557,24
2021-09-24 15:04:19.778563,26
2021-09-24 15:04:19.778570,17
2021-09-24 15:04:19.778576,21
2021-09-24 15:04:19.778583,26
2021-09-24 15:04:19.778590,12
2021-09-24 15:04:19.778596,9
2021-09-24 15:04:19.778603,0
2021-09-24 15:04:19.778610,-72
2021-09-24 15:04:19.778616,-272
2021-09-24 15:04:19.778623,-493
2021-09-24 15:04:19.778629,-473
2021-09-24 15:04:19.778636,-114
2021-09-24 15:04:19.778643,386
2021-09-24 15:04:19.778649,507
2021-09-24 15:04:19.778656,174
2021-09-24 15:04:19.778663,48
2021-09-24 15:04:20.047512,138
2021-09-24 15:04:20.047536,24
2021-09-24 15:04:20.047544,-85
2021-09-24 15:04:20.047552,-36
2021-09-24 15:04:20.047559,-31
2021-09-24 15:04:20.047566,-72
2021-09-24 15:04:20.047573,-87
2021-09-24 15:04:20.047580,-87
2021-09-24 15:04:20.047587,-99
2021-09-24 15:04:20.047593,-133
2021-09-24 15:04:20.047600,-123
2021-09-24 15:04:20.047607,-65
2021-09-24 15:04:20.047614,-92
2021-09-24 15:04:20.047621,-189
2021-09-24 15:04:20.047628,-213
2021-09-24 15:04:20.047635,-201
2021-09-24 15:04:20.047642,-238
2021-09-24 15:04:20.047649,-262
2021-09-24 15:04:20.047656,-264
2021-09-24 15:04:20.047662,-276
2021-09-24 15:04:20.047669,-296
2021-09-24 15:04:20.047676,-347
2021-09-24 15:04:20.047683,-366
2021-09-24 15:04:20.047690,-332
2021-09-24 15:04:20.047697,-327
2021-09-24 15:04:20.047704,-332
2021-09-24 15:04:20.047711,-269
2021-09-24 15:04:20.047718,-184
2021-09-24 15:04:20.047724,-116
2021-09-24 15:04:20.047731,-21
2021-09-24 15:04:20.227894,55
2021-09-24 15:04:20.227911,92
2021-09-24 15:04:20.227918,143
2021-09-24 15:04:20.227924,189
2021-09-24 15:04:20.227930,184
2021-09-24 15:04:20.227935,172
2021-09-24 15:04:20.227941,204
2021-09-24 15:04:20.227947,230
2021-09-24 15:04:20.227953,182
2021-09-24 15:04:20.227958,119
2021-09-24 15:04:20.227964,114
2021-09-24 15:04:20.227970,131
2021-09-24 15:04:20.227975,119
2021-09-24 15:04:20.227981,94
2021-09-24 15:04:20.227987,92
2021-09-24 15:04:20.227992,92
2021-09-24 15:04:20.227998,77
2021-09-24 15:04:20.228004,51
2021-09-24 15:04:20.228010,34
2021-09-24 15:04:20.228015,51
2021-09-24 15:04:20.228021,63
2021-09-24 15:04:20.228027,46
2021-09-24 15:04:20.228032,46
2021-09-24 15:04:20.228038,68
2021-09-24 15:04:20.228044,70
2021-09-24 15:04:20.228049,77
2021-09-24 15:04:20.228055,75
2021-09-24 15:04:20.228061,34
2021-09-24 15:04:20.228067,41
2021-09-24 15:04:20.228072,75
2021-09-24 15:04:20.453754,51
2021-09-24 15:04:20.453778,43
2021-09-24 15:04:20.453787,85
2021-09-24 15:04:20.453794,87
2021-09-24 15:04:20.453801,43
2021-09-24 15:04:20.453808,46
2021-09-24 15:04:20.453847,58
2021-09-24 15:04:20.453854,38
2021-09-24 15:04:20.453861,65
2021-09-24 15:04:20.453868,77
2021-09-24 15:04:20.453875,21
2021-09-24 15:04:20.453882,21
2021-09-24 15:04:20.453888,72
2021-09-24 15:04:20.453895,60
2021-09-24 15:04:20.453902,14
2021-09-24 15:04:20.453909,29
2021-09-24 15:04:20.453916,60
2021-09-24 15:04:20.453923,51
2021-09-24 15:04:20.453930,38
2021-09-24 15:04:20.453937,31
2021-09-24 15:04:20.453943,4
2021-09-24 15:04:20.453950,-36
2021-09-24 15:04:20.453957,-31
2021-09-24 15:04:20.453964,21
2021-09-24 15:04:20.453971,51
2021-09-24 15:04:20.453978,41
2021-09-24 15:04:20.453985,12
2021-09-24 15:04:20.453992,19
2021-09-24 15:04:20.453999,34
2021-09-24 15:04:20.454006,14
2021-09-24 15:04:20.678661,24
2021-09-24 15:04:20.678682,58
2021-09-24 15:04:20.678691,24
2021-09-24 15:04:20.678698,-34
2021-09-24 15:04:20.678705,-58
2021-09-24 15:04:20.678712,-225
2021-09-24 15:04:20.678719,-519
2021-09-24 15:04:20.678725,-570
2021-09-24 15:04:20.678732,-206
2021-09-24 15:04:20.678739,376
2021-09-24 15:04:20.678746,607
2021-09-24 15:04:20.678753,245
2021-09-24 15:04:20.678760,-24
2021-09-24 15:04:20.678767,63
2021-09-24 15:04:20.678774,24
2021-09-24 15:04:20.678780,-131
2021-09-24 15:04:20.678787,-114
2021-09-24 15:04:20.678794,-43
2021-09-24 15:04:20.678801,-104
2021-09-24 15:04:20.678808,-172
2021-09-24 15:04:20.678815,-131
2021-09-24 15:04:20.678821,-128
2021-09-24 15:04:20.678828,-201
2021-09-24 15:04:20.678835,-194
2021-09-24 15:04:20.678842,-150
2021-09-24 15:04:20.678849,-179
2021-09-24 15:04:20.678855,-223
2021-09-24 15:04:20.678862,-228
2021-09-24 15:04:20.678869,-221
2021-09-24 15:04:20.678876,-233
2021-09-24 15:04:20.948687,-289
2021-09-24 15:04:20.948741,-349
2021-09-24 15:04:20.948749,-354
2021-09-24 15:04:20.948756,-371
2021-09-24 15:04:20.948763,-412
2021-09-24 15:04:20.948769,-388
2021-09-24 15:04:20.948776,-383
2021-09-24 15:04:20.948783,-451
2021-09-24 15:04:20.948789,-422
2021-09-24 15:04:20.948796,-293
2021-09-24 15:04:20.948802,-233
2021-09-24 15:04:20.948809,-199
2021-09-24 15:04:20.948816,-70
2021-09-24 15:04:20.948822,58
2021-09-24 15:04:20.948829,111
2021-09-24 15:04:20.948836,165
2021-09-24 15:04:20.948842,218
2021-09-24 15:04:20.948849,218
2021-09-24 15:04:20.948855,189
2021-09-24 15:04:20.948862,201
2021-09-24 15:04:20.948868,221
2021-09-24 15:04:20.948875,201
2021-09-24 15:04:20.948881,174
2021-09-24 15:04:20.948888,162
2021-09-24 15:04:20.948894,165
2021-09-24 15:04:20.948901,174
2021-09-24 15:04:20.948908,165
2021-09-24 15:04:20.948914,131
2021-09-24 15:04:20.948921,109
2021-09-24 15:04:20.948937,116
2021-09-24 15:04:21.173682,114
2021-09-24 15:04:21.173705,80
2021-09-24 15:04:21.173713,68
2021-09-24 15:04:21.173720,85
2021-09-24 15:04:21.173758,97
2021-09-24 15:04:21.173765,106
2021-09-24 15:04:21.173771,97
2021-09-24 15:04:21.173778,60
2021-09-24 15:04:21.173784,58
2021-09-24 15:04:21.173791,87
2021-09-24 15:04:21.173797,85
2021-09-24 15:04:21.173804,60
2021-09-24 15:04:21.173810,63
2021-09-24 15:04:21.173817,82
2021-09-24 15:04:21.173823,70
2021-09-24 15:04:21.173830,41
2021-09-24 15:04:21.173836,36
2021-09-24 15:04:21.173843,48
2021-09-24 15:04:21.173849,48
2021-09-24 15:04:21.173856,36
2021-09-24 15:04:21.173862,29
2021-09-24 15:04:21.173868,38
2021-09-24 15:04:21.173875,31
2021-09-24 15:04:21.173882,0
2021-09-24 15:04:21.173888,14
2021-09-24 15:04:21.173895,36
2021-09-24 15:04:21.173901,7
2021-09-24 15:04:21.173908,-7
2021-09-24 15:04:21.173915,0
2021-09-24 15:04:21.173921,-2
2021-09-24 15:04:21.443182,12
2021-09-24 15:04:21.443215,38
2021-09-24 15:04:21.443226,48
2021-09-24 15:04:21.443270,38
2021-09-24 15:04:21.443280,21
2021-09-24 15:04:21.443290,21
2021-09-24 15:04:21.443300,43
2021-09-24 15:04:21.443310,51
2021-09-24 15:04:21.443320,24
2021-09-24 15:04:21.443330,12
2021-09-24 15:04:21.443340,2
2021-09-24 15:04:21.443350,-46
2021-09-24 15:04:21.443360,-128
2021-09-24 15:04:21.443370,-325
2021-09-24 15:04:21.443380,-568
2021-09-24 15:04:21.443390,-534
2021-09-24 15:04:21.443400,-111
2021-09-24 15:04:21.443410,456
2021-09-24 15:04:21.443420,626
2021-09-24 15:04:21.443430,286
2021-09-24 15:04:21.443440,58
2021-09-24 15:04:21.443450,77
2021-09-24 15:04:21.443460,-14
2021-09-24 15:04:21.443470,-128
2021-09-24 15:04:21.443480,-109
2021-09-24 15:04:21.443490,-89
2021-09-24 15:04:21.443500,-119
2021-09-24 15:04:21.443510,-128
2021-09-24 15:04:21.443520,-136
2021-09-24 15:04:21.443530,-157
2021-09-24 15:04:21.623683,-165
2021-09-24 15:04:21.623705,-174
2021-09-24 15:04:21.623714,-191
2021-09-24 15:04:21.623721,-201
2021-09-24 15:04:21.623728,-216
2021-09-24 15:04:21.623734,-225
2021-09-24 15:04:21.623741,-238
2021-09-24 15:04:21.623748,-264
2021-09-24 15:04:21.623755,-293
2021-09-24 15:04:21.623762,-320
2021-09-24 15:04:21.623769,-352
2021-09-24 15:04:21.623776,-374
2021-09-24 15:04:21.623783,-391
2021-09-24 15:04:21.623790,-395
2021-09-24 15:04:21.623796,-383
2021-09-24 15:04:21.623803,-369
2021-09-24 15:04:21.623810,-347
2021-09-24 15:04:21.623817,-303
2021-09-24 15:04:21.623824,-216
2021-09-24 15:04:21.623831,-109
2021-09-24 15:04:21.623838,-17
2021-09-24 15:04:21.623845,68
2021-09-24 15:04:21.623851,148
2021-09-24 15:04:21.623858,199
2021-09-24 15:04:21.623865,228
2021-09-24 15:04:21.623872,230
2021-09-24 15:04:21.623879,213
2021-09-24 15:04:21.623886,206
2021-09-24 15:04:21.623893,218
2021-09-24 15:04:21.623899,223
2021-09-24 15:04:21.848862,199
2021-09-24 15:04:21.848894,174
2021-09-24 15:04:21.848907,177
2021-09-24 15:04:21.848917,172
2021-09-24 15:04:21.848928,157
2021-09-24 15:04:21.848938,153
2021-09-24 15:04:21.848948,140
2021-09-24 15:04:21.848958,128
2021-09-24 15:04:21.848968,126
2021-09-24 15:04:21.848979,119
2021-09-24 15:04:21.848989,114
2021-09-24 15:04:21.848999,116
2021-09-24 15:04:21.849009,102
2021-09-24 15:04:21.849051,92
2021-09-24 15:04:21.849061,104
2021-09-24 15:04:21.849071,109
2021-09-24 15:04:21.849081,104
2021-09-24 15:04:21.849091,92
2021-09-24 15:04:21.849101,77
2021-09-24 15:04:21.849111,77
2021-09-24 15:04:21.849121,97
2021-09-24 15:04:21.849131,99
2021-09-24 15:04:21.849141,99
2021-09-24 15:04:21.849151,109
2021-09-24 15:04:21.849161,102
2021-09-24 15:04:21.849171,94
2021-09-24 15:04:21.849181,102
2021-09-24 15:04:21.849191,97
2021-09-24 15:04:21.849201,80
2021-09-24 15:04:21.849211,82
2021-09-24 15:04:22.117310,92
2021-09-24 15:04:22.117332,92
2021-09-24 15:04:22.117340,80
2021-09-24 15:04:22.117347,65
2021-09-24 15:04:22.117353,53
2021-09-24 15:04:22.117360,34
2021-09-24 15:04:22.117366,14
2021-09-24 15:04:22.117373,9
2021-09-24 15:04:22.117379,9
2021-09-24 15:04:22.117386,21
2021-09-24 15:04:22.117393,41
2021-09-24 15:04:22.117399,38
2021-09-24 15:04:22.117406,24
2021-09-24 15:04:22.117412,26
2021-09-24 15:04:22.117419,38
2021-09-24 15:04:22.117425,38
2021-09-24 15:04:22.117432,34
2021-09-24 15:04:22.117438,21
2021-09-24 15:04:22.117445,12
2021-09-24 15:04:22.117451,-4
2021-09-24 15:04:22.117458,-58
2021-09-24 15:04:22.117464,-184
2021-09-24 15:04:22.117471,-417
2021-09-24 15:04:22.117477,-539
2021-09-24 15:04:22.117484,-284
2021-09-24 15:04:22.117490,238
2021-09-24 15:04:22.117497,595
2021-09-24 15:04:22.117503,473
2021-09-24 15:04:22.117510,162
2021-09-24 15:04:22.117526,89
2021-09-24 15:04:22.343047,72
2021-09-24 15:04:22.343069,-58
2021-09-24 15:04:22.343077,-131
2021-09-24 15:04:22.343084,-121
2021-09-24 15:04:22.343090,-121
2021-09-24 15:04:22.343097,-133
2021-09-24 15:04:22.343103,-136
2021-09-24 15:04:22.343110,-136
2021-09-24 15:04:22.343116,-160
2021-09-24 15:04:22.343123,-177
2021-09-24 15:04:22.343129,-174
2021-09-24 15:04:22.343136,-211
2021-09-24 15:04:22.343142,-238
2021-09-24 15:04:22.343149,-218
2021-09-24 15:04:22.343155,-235
2021-09-24 15:04:22.343162,-281
2021-09-24 15:04:22.343168,-298
2021-09-24 15:04:22.343175,-308
2021-09-24 15:04:22.343181,-330
2021-09-24 15:04:22.343187,-352
2021-09-24 15:04:22.343194,-364
2021-09-24 15:04:22.343200,-376
2021-09-24 15:04:22.343207,-386
2021-09-24 15:04:22.343213,-388
2021-09-24 15:04:22.343220,-361
2021-09-24 15:04:22.343226,-303
2021-09-24 15:04:22.343233,-235
2021-09-24 15:04:22.343239,-153
2021-09-24 15:04:22.343246,-53
2021-09-24 15:04:22.343252,41
2021-09-24 15:04:22.568742,111
2021-09-24 15:04:22.568765,160
2021-09-24 15:04:22.568773,184
2021-09-24 15:04:22.568780,194
2021-09-24 15:04:22.568787,211
2021-09-24 15:04:22.568793,221
2021-09-24 15:04:22.568800,218
2021-09-24 15:04:22.568807,213
2021-09-24 15:04:22.568813,206
2021-09-24 15:04:22.568820,196
2021-09-24 15:04:22.568827,182
2021-09-24 15:04:22.568833,160
2021-09-24 15:04:22.568840,148
2021-09-24 15:04:22.568847,138
2021-09-24 15:04:22.568853,128
2021-09-24 15:04:22.568860,126
2021-09-24 15:04:22.568866,116
2021-09-24 15:04:22.568873,94
2021-09-24 15:04:22.568879,102
2021-09-24 15:04:22.568886,119
2021-09-24 15:04:22.568893,104
2021-09-24 15:04:22.568899,80
2021-09-24 15:04:22.568906,87
2021-09-24 15:04:22.568913,97
2021-09-24 15:04:22.568919,92
2021-09-24 15:04:22.568926,94
2021-09-24 15:04:22.568932,99
2021-09-24 15:04:22.568939,97
2021-09-24 15:04:22.568945,92
2021-09-24 15:04:22.568952,94
2021-09-24 15:04:22.793728,104
2021-09-24 15:04:22.793751,97
2021-09-24 15:04:22.793759,87
2021-09-24 15:04:22.793766,80
2021-09-24 15:04:22.793772,70
2021-09-24 15:04:22.793779,63
2021-09-24 15:04:22.793785,65
2021-09-24 15:04:22.793792,63
2021-09-24 15:04:22.793798,51
2021-09-24 15:04:22.793805,41
2021-09-24 15:04:22.793811,38
2021-09-24 15:04:22.793818,36
2021-09-24 15:04:22.793824,29
2021-09-24 15:04:22.793831,17
2021-09-24 15:04:22.793837,2
2021-09-24 15:04:22.793844,-4
2021-09-24 15:04:22.793850,9
2021-09-24 15:04:22.793857,29
2021-09-24 15:04:22.793863,26
2021-09-24 15:04:22.793870,19
2021-09-24 15:04:22.793876,17
2021-09-24 15:04:22.793883,7
2021-09-24 15:04:22.793889,4
2021-09-24 15:04:22.793896,7
2021-09-24 15:04:22.793902,12
2021-09-24 15:04:22.793909,12
2021-09-24 15:04:22.793916,-4
2021-09-24 15:04:22.793922,-51
2021-09-24 15:04:22.793929,-150
2021-09-24 15:04:22.793935,-354
2021-09-24 15:04:23.063797,-534
2021-09-24 15:04:23.063830,-422
2021-09-24 15:04:23.063842,12
2021-09-24 15:04:23.063852,485
2021-09-24 15:04:23.063863,534
2021-09-24 15:04:23.063873,187
2021-09-24 15:04:23.063883,21
2021-09-24 15:04:23.063893,51
2021-09-24 15:04:23.063904,-51
2021-09-24 15:04:23.063928,-143
2021-09-24 15:04:23.063939,-111
2021-09-24 15:04:23.063949,-104
2021-09-24 15:04:23.063959,-136
2021-09-24 15:04:23.063969,-138
2021-09-24 15:04:23.063979,-153
2021-09-24 15:04:23.063989,-179
2021-09-24 15:04:23.063999,-179
2021-09-24 15:04:23.064010,-179
2021-09-24 15:04:23.064020,-194
2021-09-24 15:04:23.064062,-208
2021-09-24 15:04:23.064072,-221
2021-09-24 15:04:23.064082,-238
2021-09-24 15:04:23.064092,-255
2021-09-24 15:04:23.064102,-272
2021-09-24 15:04:23.064112,-293
2021-09-24 15:04:23.064122,-323
2021-09-24 15:04:23.064133,-357
2021-09-24 15:04:23.064143,-378
2021-09-24 15:04:23.064153,-386
2021-09-24 15:04:23.064163,-388
2021-09-24 15:04:23.243247,-386
2021-09-24 15:04:23.243268,-369
2021-09-24 15:04:23.243274,-335
2021-09-24 15:04:23.243280,-272
2021-09-24 15:04:23.243285,-179
2021-09-24 15:04:23.243290,-82
2021-09-24 15:04:23.243295,4
2021-09-24 15:04:23.243301,85
2021-09-24 15:04:23.243306,145
2021-09-24 15:04:23.243323,179
2021-09-24 15:04:23.243329,208
2021-09-24 15:04:23.243334,225
2021-09-24 15:04:23.243339,216
2021-09-24 15:04:23.243344,199
2021-09-24 15:04:23.243350,189
2021-09-24 15:04:23.243355,179
2021-09-24 15:04:23.243360,170
2021-09-24 15:04:23.243366,160
2021-09-24 15:04:23.243371,150
2021-09-24 15:04:23.243376,138
2021-09-24 15:04:23.243381,123
2021-09-24 15:04:23.243387,111
2021-09-24 15:04:23.243392,106
2021-09-24 15:04:23.243397,102
2021-09-24 15:04:23.243402,99
2021-09-24 15:04:23.243408,92
2021-09-24 15:04:23.243413,85
2021-09-24 15:04:23.243418,82
2021-09-24 15:04:23.243424,85
2021-09-24 15:04:23.243429,92
2021-09-24 15:04:23.558480,97
2021-09-24 15:04:23.558502,94
2021-09-24 15:04:23.558510,89
2021-09-24 15:04:23.558517,92
2021-09-24 15:04:23.558523,94
2021-09-24 15:04:23.558530,94
2021-09-24 15:04:23.558536,92
2021-09-24 15:04:23.558543,87
2021-09-24 15:04:23.558549,82
2021-09-24 15:04:23.558556,80
2021-09-24 15:04:23.558562,72
2021-09-24 15:04:23.558569,68
2021-09-24 15:04:23.558575,72
2021-09-24 15:04:23.558582,72
2021-09-24 15:04:23.558588,68
2021-09-24 15:04:23.558595,72
2021-09-24 15:04:23.558601,72
2021-09-24 15:04:23.558608,65
2021-09-24 15:04:23.558614,53
2021-09-24 15:04:23.558621,36
2021-09-24 15:04:23.558627,17
2021-09-24 15:04:23.558634,14
2021-09-24 15:04:23.558640,31
2021-09-24 15:04:23.558647,48
2021-09-24 15:04:23.558653,53
2021-09-24 15:04:23.558660,48
2021-09-24 15:04:23.558666,48
2021-09-24 15:04:23.558673,48
2021-09-24 15:04:23.558679,51
2021-09-24 15:04:23.558686,53
2021-09-24 15:04:23.693712,46
2021-09-24 15:04:23.693736,41
2021-09-24 15:04:23.693743,31
2021-09-24 15:04:23.693750,2
2021-09-24 15:04:23.693757,-51
2021-09-24 15:04:23.693764,-218
2021-09-24 15:04:23.693770,-478
2021-09-24 15:04:23.693777,-551
2021-09-24 15:04:23.693784,-240
2021-09-24 15:04:23.693790,323
2021-09-24 15:04:23.693797,609
2021-09-24 15:04:23.693803,332
2021-09-24 15:04:23.693810,48
2021-09-24 15:04:23.693817,63
2021-09-24 15:04:23.693823,26
2021-09-24 15:04:23.693830,-92
2021-09-24 15:04:23.693837,-102
2021-09-24 15:04:23.693843,-80
2021-09-24 15:04:23.693850,-119
2021-09-24 15:04:23.693857,-140
2021-09-24 15:04:23.693863,-136
2021-09-24 15:04:23.693870,-143
2021-09-24 15:04:23.693876,-153
2021-09-24 15:04:23.693883,-162
2021-09-24 15:04:23.693890,-179
2021-09-24 15:04:23.693896,-191
2021-09-24 15:04:23.693903,-208
2021-09-24 15:04:23.693909,-230
2021-09-24 15:04:23.693916,-247
2021-09-24 15:04:23.693922,-262
2021-09-24 15:04:23.918868,-289
2021-09-24 15:04:23.918890,-315
2021-09-24 15:04:23.918898,-337
2021-09-24 15:04:23.918905,-361
2021-09-24 15:04:23.918911,-381
2021-09-24 15:04:23.918918,-391
2021-09-24 15:04:23.918924,-400
2021-09-24 15:04:23.918931,-388
2021-09-24 15:04:23.918938,-354
2021-09-24 15:04:23.918944,-301
2021-09-24 15:04:23.918951,-225
2021-09-24 15:04:23.918957,-133
2021-09-24 15:04:23.918964,-43
2021-09-24 15:04:23.918971,38
2021-09-24 15:04:23.918977,104
2021-09-24 15:04:23.918984,145
2021-09-24 15:04:23.918991,179
2021-09-24 15:04:23.918997,196
2021-09-24 15:04:23.919004,199
2021-09-24 15:04:23.919010,201
2021-09-24 15:04:23.919017,201
2021-09-24 15:04:23.919023,194
2021-09-24 15:04:23.919030,184
2021-09-24 15:04:23.919036,172
2021-09-24 15:04:23.919043,162
2021-09-24 15:04:23.919050,155
2021-09-24 15:04:23.919057,145
2021-09-24 15:04:23.919063,136
2021-09-24 15:04:23.919070,128
2021-09-24 15:04:23.919076,121
2021-09-24 15:04:24.187406,116
2021-09-24 15:04:24.187428,114
2021-09-24 15:04:24.187436,111
2021-09-24 15:04:24.187443,109
2021-09-24 15:04:24.187450,106
2021-09-24 15:04:24.187457,99
2021-09-24 15:04:24.187464,94
2021-09-24 15:04:24.187471,99
2021-09-24 15:04:24.187477,102
2021-09-24 15:04:24.187484,99
2021-09-24 15:04:24.187491,94
2021-09-24 15:04:24.187498,85
2021-09-24 15:04:24.187504,87
2021-09-24 15:04:24.187511,92
2021-09-24 15:04:24.187518,89
2021-09-24 15:04:24.187525,85
2021-09-24 15:04:24.187531,82
2021-09-24 15:04:24.187538,75
2021-09-24 15:04:24.187545,77
2021-09-24 15:04:24.187551,87
2021-09-24 15:04:24.187558,89
2021-09-24 15:04:24.187565,82
2021-09-24 15:04:24.187572,75
2021-09-24 15:04:24.187578,60
2021-09-24 15:04:24.187585,38
2021-09-24 15:04:24.187591,21
2021-09-24 15:04:24.187598,14
2021-09-24 15:04:24.187605,19
2021-09-24 15:04:24.187612,34
2021-09-24 15:04:24.187618,48
2021-09-24 15:04:24.368705,51
2021-09-24 15:04:24.368758,51
2021-09-24 15:04:24.368774,48
2021-09-24 15:04:24.368782,38
2021-09-24 15:04:24.368789,26
2021-09-24 15:04:24.368796,24
2021-09-24 15:04:24.368803,29
2021-09-24 15:04:24.368810,26
2021-09-24 15:04:24.368816,7
2021-09-24 15:04:24.368823,-41
2021-09-24 15:04:24.368831,-162
2021-09-24 15:04:24.368838,-393
2021-09-24 15:04:24.368845,-578
2021-09-24 15:04:24.368851,-451
2021-09-24 15:04:24.368858,46
2021-09-24 15:04:24.368865,553
2021-09-24 15:04:24.368872,517
2021-09-24 15:04:24.368879,138
2021-09-24 15:04:24.368886,36
2021-09-24 15:04:24.368893,63
2021-09-24 15:04:24.368900,-60
2021-09-24 15:04:24.368907,-131
2021-09-24 15:04:24.368914,-102
2021-09-24 15:04:24.368921,-116
2021-09-24 15:04:24.368928,-145
2021-09-24 15:04:24.368935,-140
2021-09-24 15:04:24.368942,-143
2021-09-24 15:04:24.368948,-167
2021-09-24 15:04:24.368955,-179
2021-09-24 15:04:24.368963,-182
2021-09-24 15:04:24.638180,-194
2021-09-24 15:04:24.638200,-211
2021-09-24 15:04:24.638208,-225
2021-09-24 15:04:24.638215,-250
2021-09-24 15:04:24.638221,-276
2021-09-24 15:04:24.638228,-296
2021-09-24 15:04:24.638235,-318
2021-09-24 15:04:24.638241,-344
2021-09-24 15:04:24.638248,-371
2021-09-24 15:04:24.638254,-395
2021-09-24 15:04:24.638261,-410
2021-09-24 15:04:24.638268,-410
2021-09-24 15:04:24.638274,-398
2021-09-24 15:04:24.638281,-371
2021-09-24 15:04:24.638288,-332
2021-09-24 15:04:24.638294,-269
2021-09-24 15:04:24.638301,-179
2021-09-24 15:04:24.638307,-75
2021-09-24 15:04:24.638314,19
2021-09-24 15:04:24.638321,92
2021-09-24 15:04:24.638327,145
2021-09-24 15:04:24.638334,174
2021-09-24 15:04:24.638340,196
2021-09-24 15:04:24.638347,213
2021-09-24 15:04:24.638353,218
2021-09-24 15:04:24.638360,213
2021-09-24 15:04:24.638367,204
2021-09-24 15:04:24.638373,187
2021-09-24 15:04:24.638380,177
2021-09-24 15:04:24.638386,162
2021-09-24 15:04:24.863768,145
2021-09-24 15:04:24.863792,136
2021-09-24 15:04:24.863800,131
2021-09-24 15:04:24.863806,116
2021-09-24 15:04:24.863813,111
2021-09-24 15:04:24.863820,114
2021-09-24 15:04:24.863826,114
2021-09-24 15:04:24.863833,109
2021-09-24 15:04:24.863839,102
2021-09-24 15:04:24.863846,94
2021-09-24 15:04:24.863852,97
2021-09-24 15:04:24.863859,102
2021-09-24 15:04:24.863865,99
2021-09-24 15:04:24.863872,99
2021-09-24 15:04:24.863879,97
2021-09-24 15:04:24.863885,89
2021-09-24 15:04:24.863892,92
2021-09-24 15:04:24.863899,97
2021-09-24 15:04:24.863905,94
2021-09-24 15:04:24.863912,92
2021-09-24 15:04:24.863918,87
2021-09-24 15:04:24.863925,85
2021-09-24 15:04:24.863931,82
2021-09-24 15:04:24.863938,80
2021-09-24 15:04:24.863944,80
2021-09-24 15:04:24.863951,85
2021-09-24 15:04:24.863957,87
2021-09-24 15:04:24.863964,82
2021-09-24 15:04:24.863971,82
2021-09-24 15:04:24.863977,75
2021-09-24 15:04:25.133173,63
2021-09-24 15:04:25.133194,55
2021-09-24 15:04:25.133203,46
2021-09-24 15:04:25.133210,34
2021-09-24 15:04:25.133217,43
2021-09-24 15:04:25.133224,65
2021-09-24 15:04:25.133231,72
2021-09-24 15:04:25.133238,65
2021-09-24 15:04:25.133244,53
2021-09-24 15:04:25.133251,51
2021-09-24 15:04:25.133275,53
2021-09-24 15:04:25.133333,48
2021-09-24 15:04:25.133345,48
2021-09-24 15:04:25.133352,43
2021-09-24 15:04:25.133359,26
2021-09-24 15:04:25.133367,-4
2021-09-24 15:04:25.133374,-70
2021-09-24 15:04:25.133381,-245
2021-09-24 15:04:25.133388,-490
2021-09-24 15:04:25.133395,-546
2021-09-24 15:04:25.133449,-228
2021-09-24 15:04:25.133495,349
2021-09-24 15:04:25.133510,646
2021-09-24 15:04:25.133522,359
2021-09-24 15:04:25.133533,70
2021-09-24 15:04:25.133544,85
2021-09-24 15:04:25.133576,31
2021-09-24 15:04:25.133585,-99
2021-09-24 15:04:25.133592,-104
2021-09-24 15:04:25.133599,-85
2021-09-24 15:04:25.313889,-123
2021-09-24 15:04:25.313919,-140
2021-09-24 15:04:25.313931,-140
2021-09-24 15:04:25.313942,-157
2021-09-24 15:04:25.313953,-177
2021-09-24 15:04:25.313963,-191
2021-09-24 15:04:25.313973,-206
2021-09-24 15:04:25.313984,-223
2021-09-24 15:04:25.313994,-238
2021-09-24 15:04:25.314004,-257
2021-09-24 15:04:25.314015,-274
2021-09-24 15:04:25.314025,-291
2021-09-24 15:04:25.314035,-315
2021-09-24 15:04:25.314045,-347
2021-09-24 15:04:25.314055,-376
2021-09-24 15:04:25.314065,-391
2021-09-24 15:04:25.314075,-403
2021-09-24 15:04:25.314085,-412
2021-09-24 15:04:25.314095,-412
2021-09-24 15:04:25.314105,-398
2021-09-24 15:04:25.314115,-371
2021-09-24 15:04:25.314125,-320
2021-09-24 15:04:25.314135,-238
2021-09-24 15:04:25.314145,-138
2021-09-24 15:04:25.314155,-41
2021-09-24 15:04:25.314165,38
2021-09-24 15:04:25.314175,104
2021-09-24 15:04:25.314185,150
2021-09-24 15:04:25.314195,182
2021-09-24 15:04:25.314205,204
2021-09-24 15:04:25.538136,211
2021-09-24 15:04:25.538156,206
2021-09-24 15:04:25.538164,201
2021-09-24 15:04:25.538171,191
2021-09-24 15:04:25.538178,182
2021-09-24 15:04:25.538185,174
2021-09-24 15:04:25.538191,162
2021-09-24 15:04:25.538198,143
2021-09-24 15:04:25.538205,131
2021-09-24 15:04:25.538211,131
2021-09-24 15:04:25.538218,126
2021-09-24 15:04:25.538225,119
2021-09-24 15:04:25.538231,111
2021-09-24 15:04:25.538238,102
2021-09-24 15:04:25.538245,102
2021-09-24 15:04:25.538251,104
2021-09-24 15:04:25.538258,104
2021-09-24 15:04:25.538265,109
2021-09-24 15:04:25.538271,106
2021-09-24 15:04:25.538278,106
2021-09-24 15:04:25.538285,111
2021-09-24 15:04:25.538291,111
2021-09-24 15:04:25.538298,109
2021-09-24 15:04:25.538305,106
2021-09-24 15:04:25.538311,106
2021-09-24 15:04:25.538318,104
2021-09-24 15:04:25.538325,104
2021-09-24 15:04:25.538331,104
2021-09-24 15:04:25.538338,102
2021-09-24 15:04:25.538345,94
2021-09-24 15:04:25.808067,97
2021-09-24 15:04:25.808105,102
2021-09-24 15:04:25.808113,99
2021-09-24 15:04:25.808120,97
2021-09-24 15:04:25.808127,89
2021-09-24 15:04:25.808134,75
2021-09-24 15:04:25.808141,55
2021-09-24 15:04:25.808147,43
2021-09-24 15:04:25.808154,46
2021-09-24 15:04:25.808161,55
2021-09-24 15:04:25.808167,60
2021-09-24 15:04:25.808174,53
2021-09-24 15:04:25.808181,43
2021-09-24 15:04:25.808187,46
2021-09-24 15:04:25.808194,48
2021-09-24 15:04:25.808201,46
2021-09-24 15:04:25.808207,48
2021-09-24 15:04:25.808214,48
2021-09-24 15:04:25.808221,41
2021-09-24 15:04:25.808227,19
2021-09-24 15:04:25.808234,-17
2021-09-24 15:04:25.808241,-106
2021-09-24 15:04:25.808247,-323
2021-09-24 15:04:25.808254,-546
2021-09-24 15:04:25.808261,-502
2021-09-24 15:04:25.808268,-75
2021-09-24 15:04:25.808284,483
2021-09-24 15:04:25.808291,583
2021-09-24 15:04:25.808298,208
2021-09-24 15:04:25.808305,43
2021-09-24 15:04:25.988687,97
2021-09-24 15:04:25.988710,-7
2021-09-24 15:04:25.988718,-102
2021-09-24 15:04:25.988726,-75
2021-09-24 15:04:25.988733,-87
2021-09-24 15:04:25.988739,-133
2021-09-24 15:04:25.988746,-138
2021-09-24 15:04:25.988753,-140
2021-09-24 15:04:25.988760,-162
2021-09-24 15:04:25.988767,-174
2021-09-24 15:04:25.988774,-184
2021-09-24 15:04:25.988781,-208
2021-09-24 15:04:25.988787,-225
2021-09-24 15:04:25.988794,-233
2021-09-24 15:04:25.988802,-242
2021-09-24 15:04:25.988809,-264
2021-09-24 15:04:25.988816,-289
2021-09-24 15:04:25.988823,-318
2021-09-24 15:04:25.988830,-349
2021-09-24 15:04:25.988847,-371
2021-09-24 15:04:25.988854,-386
2021-09-24 15:04:25.988861,-400
2021-09-24 15:04:25.988868,-412
2021-09-24 15:04:25.988875,-412
2021-09-24 15:04:25.988882,-388
2021-09-24 15:04:25.988889,-340
2021-09-24 15:04:25.988896,-274
2021-09-24 15:04:25.988903,-184
2021-09-24 15:04:25.988910,-87
2021-09-24 15:04:25.988916,-2
2021-09-24 15:04:26.257417,77
2021-09-24 15:04:26.257440,143
2021-09-24 15:04:26.257448,184
2021-09-24 15:04:26.257455,199
2021-09-24 15:04:26.257462,199
2021-09-24 15:04:26.257468,201
2021-09-24 15:04:26.257475,206
2021-09-24 15:04:26.257482,199
2021-09-24 15:04:26.257488,189
2021-09-24 15:04:26.257495,179
2021-09-24 15:04:26.257501,160
2021-09-24 15:04:26.257508,143
2021-09-24 15:04:26.257514,140
2021-09-24 15:04:26.257521,138
2021-09-24 15:04:26.257528,128
2021-09-24 15:04:26.257534,111
2021-09-24 15:04:26.257541,94
2021-09-24 15:04:26.257547,87
2021-09-24 15:04:26.257554,92
2021-09-24 15:04:26.257560,94
2021-09-24 15:04:26.257567,92
2021-09-24 15:04:26.257573,92
2021-09-24 15:04:26.257580,92
2021-09-24 15:04:26.257586,94
2021-09-24 15:04:26.257593,94
2021-09-24 15:04:26.257599,97
2021-09-24 15:04:26.257606,104
2021-09-24 15:04:26.257612,104
2021-09-24 15:04:26.257619,99
2021-09-24 15:04:26.257626,97
2021-09-24 15:04:26.438398,97
2021-09-24 15:04:26.438419,99
2021-09-24 15:04:26.438427,104
2021-09-24 15:04:26.438435,99
2021-09-24 15:04:26.438442,87
2021-09-24 15:04:26.438449,77
2021-09-24 15:04:26.438456,72
2021-09-24 15:04:26.438463,70
2021-09-24 15:04:26.438470,58
2021-09-24 15:04:26.438477,36
2021-09-24 15:04:26.438484,26
2021-09-24 15:04:26.438491,43
2021-09-24 15:04:26.438498,65
2021-09-24 15:04:26.438505,68
2021-09-24 15:04:26.438512,60
2021-09-24 15:04:26.438519,60
2021-09-24 15:04:26.438526,65
2021-09-24 15:04:26.438533,65
2021-09-24 15:04:26.438540,60
2021-09-24 15:04:26.438555,58
2021-09-24 15:04:26.438567,55
2021-09-24 15:04:26.438579,31
2021-09-24 15:04:26.438592,-4
2021-09-24 15:04:26.438606,-97
2021-09-24 15:04:26.438620,-310
2021-09-24 15:04:26.438634,-500
2021-09-24 15:04:26.438648,-400
2021-09-24 15:04:26.438692,55
2021-09-24 15:04:26.438707,556
2021-09-24 15:04:26.438721,541
2021-09-24 15:04:26.798816,167
2021-09-24 15:04:26.798837,68
2021-09-24 15:04:26.798845,109
2021-09-24 15:04:26.798852,-24
2021-09-24 15:04:26.798858,-106
2021-09-24 15:04:26.798865,-70
2021-09-24 15:04:26.798872,-77
2021-09-24 15:04:26.798879,-121
2021-09-24 15:04:26.798885,-133
2021-09-24 15:04:26.798892,-140
2021-09-24 15:04:26.798898,-155
2021-09-24 15:04:26.798905,-160
2021-09-24 15:04:26.798911,-167
2021-09-24 15:04:26.798918,-184
2021-09-24 15:04:26.798924,-206
2021-09-24 15:04:26.798931,-225
2021-09-24 15:04:26.798937,-242
2021-09-24 15:04:26.798944,-259
2021-09-24 15:04:26.798951,-281
2021-09-24 15:04:26.798957,-308
2021-09-24 15:04:26.798964,-340
2021-09-24 15:04:26.798970,-376
2021-09-24 15:04:26.798977,-403
2021-09-24 15:04:26.798983,-410
2021-09-24 15:04:26.798990,-405
2021-09-24 15:04:26.798996,-398
2021-09-24 15:04:26.799003,-381
2021-09-24 15:04:26.799009,-335
2021-09-24 15:04:26.799016,-259
2021-09-24 15:04:26.799023,-160
2021-09-24 15:04:26.978829,-63
2021-09-24 15:04:26.978851,24
2021-09-24 15:04:26.978859,97
2021-09-24 15:04:26.978866,153
2021-09-24 15:04:26.978873,184
2021-09-24 15:04:26.978879,201
2021-09-24 15:04:26.978886,218
2021-09-24 15:04:26.978892,225
2021-09-24 15:04:26.978899,213
2021-09-24 15:04:26.978906,199
2021-09-24 15:04:26.978912,191
2021-09-24 15:04:26.978919,187
2021-09-24 15:04:26.978926,177
2021-09-24 15:04:26.978932,165
2021-09-24 15:04:26.978939,148
2021-09-24 15:04:26.978945,133
2021-09-24 15:04:26.978952,131
2021-09-24 15:04:26.978958,126
2021-09-24 15:04:26.978965,119
2021-09-24 15:04:26.978971,119
2021-09-24 15:04:26.978978,111
2021-09-24 15:04:26.978985,102
2021-09-24 15:04:26.978991,109
2021-09-24 15:04:26.978998,111
2021-09-24 15:04:26.979004,106
2021-09-24 15:04:26.979011,99
2021-09-24 15:04:26.979018,94
2021-09-24 15:04:26.979024,97
2021-09-24 15:04:26.979031,104
2021-09-24 15:04:26.979037,104
2021-09-24 15:04:27.203970,102
2021-09-24 15:04:27.203992,102
2021-09-24 15:04:27.204000,102
2021-09-24 15:04:27.204007,102
2021-09-24 15:04:27.204014,104
2021-09-24 15:04:27.204021,99
2021-09-24 15:04:27.204028,87
2021-09-24 15:04:27.204035,72
2021-09-24 15:04:27.204042,58
2021-09-24 15:04:27.204048,48
2021-09-24 15:04:27.204055,51
2021-09-24 15:04:27.204072,63
2021-09-24 15:04:27.204079,70
2021-09-24 15:04:27.204086,70
2021-09-24 15:04:27.204093,65
2021-09-24 15:04:27.204100,65
2021-09-24 15:04:27.204107,70
2021-09-24 15:04:27.204114,72
2021-09-24 15:04:27.204121,68
2021-09-24 15:04:27.204128,55
2021-09-24 15:04:27.204135,48
2021-09-24 15:04:27.204141,26
2021-09-24 15:04:27.204148,-21
2021-09-24 15:04:27.204155,-104
2021-09-24 15:04:27.204162,-291
2021-09-24 15:04:27.204169,-461
2021-09-24 15:04:27.204176,-335
2021-09-24 15:04:27.204183,119
2021-09-24 15:04:27.204190,548
2021-09-24 15:04:27.204197,500
2021-09-24 15:04:27.383586,150
2021-09-24 15:04:27.383608,55
2021-09-24 15:04:27.383616,85
2021-09-24 15:04:27.383623,-34
2021-09-24 15:04:27.383629,-106
2021-09-24 15:04:27.383636,-75
2021-09-24 15:04:27.383642,-94
2021-09-24 15:04:27.383649,-140
2021-09-24 15:04:27.383655,-140
2021-09-24 15:04:27.383662,-138
2021-09-24 15:04:27.383669,-153
2021-09-24 15:04:27.383675,-157
2021-09-24 15:04:27.383682,-167
2021-09-24 15:04:27.383688,-194
2021-09-24 15:04:27.383695,-208
2021-09-24 15:04:27.383701,-216
2021-09-24 15:04:27.383708,-233
2021-09-24 15:04:27.383714,-257
2021-09-24 15:04:27.383721,-286
2021-09-24 15:04:27.383727,-318
2021-09-24 15:04:27.383734,-347
2021-09-24 15:04:27.383740,-376
2021-09-24 15:04:27.383747,-398
2021-09-24 15:04:27.383753,-408
2021-09-24 15:04:27.383760,-410
2021-09-24 15:04:27.383766,-405
2021-09-24 15:04:27.383773,-376
2021-09-24 15:04:27.383780,-323
2021-09-24 15:04:27.383786,-245
2021-09-24 15:04:27.383793,-150
2021-09-24 15:04:27.698399,-51
2021-09-24 15:04:27.698420,36
2021-09-24 15:04:27.698428,102
2021-09-24 15:04:27.698435,145
2021-09-24 15:04:27.698442,174
2021-09-24 15:04:27.698448,191
2021-09-24 15:04:27.698455,194
2021-09-24 15:04:27.698461,199
2021-09-24 15:04:27.698468,196
2021-09-24 15:04:27.698475,189
2021-09-24 15:04:27.698481,184
2021-09-24 15:04:27.698488,170
2021-09-24 15:04:27.698494,150
2021-09-24 15:04:27.698501,138
2021-09-24 15:04:27.698507,133
2021-09-24 15:04:27.698514,116
2021-09-24 15:04:27.698520,104
2021-09-24 15:04:27.698527,104
2021-09-24 15:04:27.698533,99
2021-09-24 15:04:27.698540,89
2021-09-24 15:04:27.698546,89
2021-09-24 15:04:27.698553,97
2021-09-24 15:04:27.698560,89
2021-09-24 15:04:27.698566,82
2021-09-24 15:04:27.698573,89
2021-09-24 15:04:27.698579,97
2021-09-24 15:04:27.698586,92
2021-09-24 15:04:27.698592,85
2021-09-24 15:04:27.698599,97
2021-09-24 15:04:27.698605,109
2021-09-24 15:04:27.833774,99
2021-09-24 15:04:27.833796,92
2021-09-24 15:04:27.833804,102
2021-09-24 15:04:27.833811,99
2021-09-24 15:04:27.833818,72
2021-09-24 15:04:27.833824,55
2021-09-24 15:04:27.833831,55
2021-09-24 15:04:27.833837,46
2021-09-24 15:04:27.833844,38
2021-09-24 15:04:27.833851,36
2021-09-24 15:04:27.833857,38
2021-09-24 15:04:27.833864,46
2021-09-24 15:04:27.833870,53
2021-09-24 15:04:27.833877,60
2021-09-24 15:04:27.833883,60
2021-09-24 15:04:27.833890,48
2021-09-24 15:04:27.833897,53
2021-09-24 15:04:27.833903,58
2021-09-24 15:04:27.833910,41
2021-09-24 15:04:27.833916,36
2021-09-24 15:04:27.833923,36
2021-09-24 15:04:27.833930,-2
2021-09-24 15:04:27.833936,-72
2021-09-24 15:04:27.833943,-225
2021-09-24 15:04:27.833949,-432
2021-09-24 15:04:27.833956,-417
2021-09-24 15:04:27.833962,-48
2021-09-24 15:04:27.833969,432
2021-09-24 15:04:27.833976,578
2021-09-24 15:04:27.833992,281
2021-09-24 15:04:28.193381,68
2021-09-24 15:04:28.193403,94
2021-09-24 15:04:28.193410,31
2021-09-24 15:04:28.193417,-82
2021-09-24 15:04:28.193424,-80
2021-09-24 15:04:28.193430,-68
2021-09-24 15:04:28.193437,-106
2021-09-24 15:04:28.193443,-116
2021-09-24 15:04:28.193450,-114
2021-09-24 15:04:28.193456,-138
2021-09-24 15:04:28.193463,-160
2021-09-24 15:04:28.193469,-174
2021-09-24 15:04:28.193476,-184
2021-09-24 15:04:28.193482,-191
2021-09-24 15:04:28.193489,-204
2021-09-24 15:04:28.193495,-218
2021-09-24 15:04:28.193502,-233
2021-09-24 15:04:28.193508,-257
2021-09-24 15:04:28.193515,-284
2021-09-24 15:04:28.193521,-315
2021-09-24 15:04:28.193528,-347
2021-09-24 15:04:28.193534,-366
2021-09-24 15:04:28.193541,-383
2021-09-24 15:04:28.193547,-405
2021-09-24 15:04:28.193554,-403
2021-09-24 15:04:28.193560,-374
2021-09-24 15:04:28.193567,-347
2021-09-24 15:04:28.193573,-308
2021-09-24 15:04:28.193580,-218
2021-09-24 15:04:28.193586,-109
2021-09-24 15:04:28.327210,-19
2021-09-24 15:04:28.327231,63
2021-09-24 15:04:28.327238,126
2021-09-24 15:04:28.327245,157
2021-09-24 15:04:28.327251,162
2021-09-24 15:04:28.327256,165
2021-09-24 15:04:28.327263,179
2021-09-24 15:04:28.327269,191
2021-09-24 15:04:28.327275,172
2021-09-24 15:04:28.327280,148
2021-09-24 15:04:28.327286,143
2021-09-24 15:04:28.327292,131
2021-09-24 15:04:28.327298,128
2021-09-24 15:04:28.327304,138
2021-09-24 15:04:28.327310,126
2021-09-24 15:04:28.327316,106
2021-09-24 15:04:28.327322,104
2021-09-24 15:04:28.327328,97
2021-09-24 15:04:28.327334,92
2021-09-24 15:04:28.327340,104
2021-09-24 15:04:28.327346,99
2021-09-24 15:04:28.327352,60
2021-09-24 15:04:28.327358,48
2021-09-24 15:04:28.327364,80
2021-09-24 15:04:28.327370,80
2021-09-24 15:04:28.327376,60
2021-09-24 15:04:28.327382,65
2021-09-24 15:04:28.327388,80
2021-09-24 15:04:28.327394,80
2021-09-24 15:04:28.327400,80
2021-09-24 15:04:28.553967,85
2021-09-24 15:04:28.553989,80
2021-09-24 15:04:28.553997,55
2021-09-24 15:04:28.554004,34
2021-09-24 15:04:28.554010,31
2021-09-24 15:04:28.554017,24
2021-09-24 15:04:28.554023,24
2021-09-24 15:04:28.554030,65
2021-09-24 15:04:28.554036,87
2021-09-24 15:04:28.554043,53
2021-09-24 15:04:28.554050,36
2021-09-24 15:04:28.554056,46
2021-09-24 15:04:28.554063,38
2021-09-24 15:04:28.554069,36
2021-09-24 15:04:28.554076,48
2021-09-24 15:04:28.554082,43
2021-09-24 15:04:28.554089,31
2021-09-24 15:04:28.554095,9
2021-09-24 15:04:28.554102,-41
2021-09-24 15:04:28.554109,-123
2021-09-24 15:04:28.554115,-233
2021-09-24 15:04:28.554122,-204
2021-09-24 15:04:28.554128,99
2021-09-24 15:04:28.554135,490
2021-09-24 15:04:28.554141,648
2021-09-24 15:04:28.554148,429
2021-09-24 15:04:28.554154,116
2021-09-24 15:04:28.554161,31
2021-09-24 15:04:28.554168,38
2021-09-24 15:04:28.554174,-55
2021-09-24 15:04:28.778307,-136
2021-09-24 15:04:28.778327,-126
2021-09-24 15:04:28.778335,-111
2021-09-24 15:04:28.778342,-140
2021-09-24 15:04:28.778348,-165
2021-09-24 15:04:28.778355,-162
2021-09-24 15:04:28.778362,-165
2021-09-24 15:04:28.778368,-179
2021-09-24 15:04:28.778375,-172
2021-09-24 15:04:28.778381,-179
2021-09-24 15:04:28.778388,-213
2021-09-24 15:04:28.778395,-225
2021-09-24 15:04:28.778401,-221
2021-09-24 15:04:28.778408,-238
2021-09-24 15:04:28.778414,-301
2021-09-24 15:04:28.778421,-354
2021-09-24 15:04:28.778427,-364
2021-09-24 15:04:28.778434,-388
2021-09-24 15:04:28.778440,-415
2021-09-24 15:04:28.778447,-412
2021-09-24 15:04:28.778453,-415
2021-09-24 15:04:28.778460,-412
2021-09-24 15:04:28.778466,-376
2021-09-24 15:04:28.778473,-310
2021-09-24 15:04:28.778479,-228
2021-09-24 15:04:28.778486,-131
2021-09-24 15:04:28.778492,-38
2021-09-24 15:04:28.778499,36
2021-09-24 15:04:28.778506,97
2021-09-24 15:04:28.778512,123
2021-09-24 15:04:29.003819,136
2021-09-24 15:04:29.003842,150
2021-09-24 15:04:29.003850,140
2021-09-24 15:04:29.003858,138
2021-09-24 15:04:29.003864,138
2021-09-24 15:04:29.003871,121
2021-09-24 15:04:29.003878,111
2021-09-24 15:04:29.003885,109
2021-09-24 15:04:29.003892,102
2021-09-24 15:04:29.003899,82
2021-09-24 15:04:29.003906,65
2021-09-24 15:04:29.003913,75
2021-09-24 15:04:29.003919,92
2021-09-24 15:04:29.003926,75
2021-09-24 15:04:29.003933,46
2021-09-24 15:04:29.003940,55
2021-09-24 15:04:29.003947,63
2021-09-24 15:04:29.003954,38
2021-09-24 15:04:29.003961,41
2021-09-24 15:04:29.003968,58
2021-09-24 15:04:29.003974,36
2021-09-24 15:04:29.003981,21
2021-09-24 15:04:29.003988,58
2021-09-24 15:04:29.003995,82
2021-09-24 15:04:29.004002,63
2021-09-24 15:04:29.004009,48
2021-09-24 15:04:29.004016,55
2021-09-24 15:04:29.004023,53
2021-09-24 15:04:29.004030,36
2021-09-24 15:04:29.004037,29
2021-09-24 15:04:29.228583,24
2021-09-24 15:04:29.228610,17
2021-09-24 15:04:29.228624,29
2021-09-24 15:04:29.228635,48
2021-09-24 15:04:29.228647,46
2021-09-24 15:04:29.228659,51
2021-09-24 15:04:29.228670,55
2021-09-24 15:04:29.228682,38
2021-09-24 15:04:29.228694,29
2021-09-24 15:04:29.228705,46
2021-09-24 15:04:29.228715,53
2021-09-24 15:04:29.228727,36
2021-09-24 15:04:29.228738,4
2021-09-24 15:04:29.228750,-36
2021-09-24 15:04:29.228761,-97
2021-09-24 15:04:29.228773,-208
2021-09-24 15:04:29.228784,-286
2021-09-24 15:04:29.228796,-121
2021-09-24 15:04:29.228808,255
2021-09-24 15:04:29.228819,585
2021-09-24 15:04:29.228829,590
2021-09-24 15:04:29.228840,262
2021-09-24 15:04:29.228851,41
2021-09-24 15:04:29.228863,36
2021-09-24 15:04:29.228874,-24
2021-09-24 15:04:29.228886,-109
2021-09-24 15:04:29.228898,-111
2021-09-24 15:04:29.228909,-106
2021-09-24 15:04:29.228921,-126
2021-09-24 15:04:29.228932,-133
2021-09-24 15:04:29.453805,-138
2021-09-24 15:04:29.453827,-143
2021-09-24 15:04:29.453836,-145
2021-09-24 15:04:29.453843,-155
2021-09-24 15:04:29.453850,-162
2021-09-24 15:04:29.453857,-170
2021-09-24 15:04:29.453864,-189
2021-09-24 15:04:29.453871,-204
2021-09-24 15:04:29.453878,-218
2021-09-24 15:04:29.453885,-238
2021-09-24 15:04:29.453892,-252
2021-09-24 15:04:29.453899,-274
2021-09-24 15:04:29.453906,-306
2021-09-24 15:04:29.453913,-330
2021-09-24 15:04:29.453920,-337
2021-09-24 15:04:29.453927,-335
2021-09-24 15:04:29.453934,-330
2021-09-24 15:04:29.453941,-310
2021-09-24 15:04:29.453948,-269
2021-09-24 15:04:29.453955,-206
2021-09-24 15:04:29.453962,-121
2021-09-24 15:04:29.453969,-31
2021-09-24 15:04:29.453976,43
2021-09-24 15:04:29.453983,99
2021-09-24 15:04:29.453990,143
2021-09-24 15:04:29.453997,174
2021-09-24 15:04:29.454004,187
2021-09-24 15:04:29.454011,189
2021-09-24 15:04:29.454018,191
2021-09-24 15:04:29.454025,189
2021-09-24 15:04:29.678427,182
2021-09-24 15:04:29.678447,174
2021-09-24 15:04:29.678455,165
2021-09-24 15:04:29.678462,155
2021-09-24 15:04:29.678468,143
2021-09-24 15:04:29.678475,123
2021-09-24 15:04:29.678482,106
2021-09-24 15:04:29.678488,99
2021-09-24 15:04:29.678495,89
2021-09-24 15:04:29.678501,82
2021-09-24 15:04:29.678508,77
2021-09-24 15:04:29.678514,65
2021-09-24 15:04:29.678521,55
2021-09-24 15:04:29.678527,60
2021-09-24 15:04:29.678534,63
2021-09-24 15:04:29.678540,55
2021-09-24 15:04:29.678547,55
2021-09-24 15:04:29.678553,58
2021-09-24 15:04:29.678560,60
2021-09-24 15:04:29.678566,60
2021-09-24 15:04:29.678573,60
2021-09-24 15:04:29.678579,63
2021-09-24 15:04:29.678586,65
2021-09-24 15:04:29.678592,70
2021-09-24 15:04:29.678599,70
2021-09-24 15:04:29.678605,60
2021-09-24 15:04:29.678612,43
2021-09-24 15:04:29.678618,36
2021-09-24 15:04:29.678625,36
2021-09-24 15:04:29.678631,26
2021-09-24 15:04:29.903880,17
2021-09-24 15:04:29.903903,26
2021-09-24 15:04:29.903911,48
2021-09-24 15:04:29.903918,55
2021-09-24 15:04:29.903925,41
2021-09-24 15:04:29.903932,29
2021-09-24 15:04:29.903939,36
2021-09-24 15:04:29.903946,41
2021-09-24 15:04:29.903953,36
2021-09-24 15:04:29.903960,34
2021-09-24 15:04:29.903967,29
2021-09-24 15:04:29.903974,-4
2021-09-24 15:04:29.903981,-72
2021-09-24 15:04:29.903987,-157
2021-09-24 15:04:29.903994,-279
2021-09-24 15:04:29.904001,-347
2021-09-24 15:04:29.904008,-133
2021-09-24 15:04:29.904015,269
2021-09-24 15:04:29.904022,558
2021-09-24 15:04:29.904029,575
2021-09-24 15:04:29.904035,289
