Time,ECG
2021-09-24 15:12:00.044767,-160
2021-09-24 15:12:00.044791,-172
2021-09-24 15:12:00.044799,-174
2021-09-24 15:12:00.044806,-187
2021-09-24 15:12:00.044813,-204
2021-09-24 15:12:00.044819,-218
2021-09-24 15:12:00.044827,-235
2021-09-24 15:12:00.044833,-250
2021-09-24 15:12:00.044840,-269
2021-09-24 15:12:00.044846,-296
2021-09-24 15:12:00.044853,-327
2021-09-24 15:12:00.044860,-361
2021-09-24 15:12:00.044866,-383
2021-09-24 15:12:00.044873,-393
2021-09-24 15:12:00.044879,-398
2021-09-24 15:12:00.044886,-393
2021-09-24 15:12:00.044892,-369
2021-09-24 15:12:00.044899,-320
2021-09-24 15:12:00.044905,-247
2021-09-24 15:12:00.044912,-145
2021-09-24 15:12:00.044918,-43
2021-09-24 15:12:00.044925,38
2021-09-24 15:12:00.044932,109
2021-09-24 15:12:00.044938,165
2021-09-24 15:12:00.044944,191
2021-09-24 15:12:00.044951,211
2021-09-24 15:12:00.044957,218
2021-09-24 15:12:00.044964,216
2021-09-24 15:12:00.044970,213
2021-09-24 15:12:00.044977,211
2021-09-24 15:12:00.269286,206
2021-09-24 15:12:00.269306,199
2021-09-24 15:12:00.269312,187
2021-09-24 15:12:00.269318,167
2021-09-24 15:12:00.269323,148
2021-09-24 15:12:00.269328,138
2021-09-24 15:12:00.269333,133
2021-09-24 15:12:00.269338,128
2021-09-24 15:12:00.269344,121
2021-09-24 15:12:00.269349,111
2021-09-24 15:12:00.269354,102
2021-09-24 15:12:00.269359,92
2021-09-24 15:12:00.269365,85
2021-09-24 15:12:00.269370,80
2021-09-24 15:12:00.269375,77
2021-09-24 15:12:00.269380,77
2021-09-24 15:12:00.269385,75
2021-09-24 15:12:00.269391,72
2021-09-24 15:12:00.269396,75
2021-09-24 15:12:00.269401,77
2021-09-24 15:12:00.269406,77
2021-09-24 15:12:00.269412,77
2021-09-24 15:12:00.269417,77
2021-09-24 15:12:00.269422,77
2021-09-24 15:12:00.269427,80
2021-09-24 15:12:00.269432,82
2021-09-24 15:12:00.269438,85
2021-09-24 15:12:00.269443,85
2021-09-24 15:12:00.269448,80
2021-09-24 15:12:00.269453,75
2021-09-24 15:12:00.537455,72
2021-09-24 15:12:00.537470,68
2021-09-24 15:12:00.537475,53
2021-09-24 15:12:00.537480,36
2021-09-24 15:12:00.537485,31
2021-09-24 15:12:00.537489,51
2021-09-24 15:12:00.537493,75
2021-09-24 15:12:00.537498,80
2021-09-24 15:12:00.537502,75
2021-09-24 15:12:00.537507,72
2021-09-24 15:12:00.537511,65
2021-09-24 15:12:00.537516,63
2021-09-24 15:12:00.537520,65
2021-09-24 15:12:00.537525,63
2021-09-24 15:12:00.537529,55
2021-09-24 15:12:00.537534,24
2021-09-24 15:12:00.537538,-31
2021-09-24 15:12:00.537543,-123
2021-09-24 15:12:00.537547,-296
2021-09-24 15:12:00.537552,-417
2021-09-24 15:12:00.537556,-213
2021-09-24 15:12:00.537561,272
2021-09-24 15:12:00.537565,668
2021-09-24 15:12:00.537570,614
2021-09-24 15:12:00.537574,233
2021-09-24 15:12:00.537593,48
2021-09-24 15:12:00.537598,41
2021-09-24 15:12:00.537602,-65
2021-09-24 15:12:00.537607,-126
2021-09-24 15:12:00.537611,-89
2021-09-24 15:12:00.764598,-97
2021-09-24 15:12:00.764619,-128
2021-09-24 15:12:00.764627,-133
2021-09-24 15:12:00.764634,-150
2021-09-24 15:12:00.764640,-174
2021-09-24 15:12:00.764647,-184
2021-09-24 15:12:00.764654,-189
2021-09-24 15:12:00.764660,-204
2021-09-24 15:12:00.764667,-230
2021-09-24 15:12:00.764673,-262
2021-09-24 15:12:00.764680,-281
2021-09-24 15:12:00.764687,-296
2021-09-24 15:12:00.764693,-320
2021-09-24 15:12:00.764700,-352
2021-09-24 15:12:00.764706,-378
2021-09-24 15:12:00.764713,-408
2021-09-24 15:12:00.764719,-429
2021-09-24 15:12:00.764726,-437
2021-09-24 15:12:00.764732,-432
2021-09-24 15:12:00.764739,-408
2021-09-24 15:12:00.764745,-364
2021-09-24 15:12:00.764752,-289
2021-09-24 15:12:00.764758,-184
2021-09-24 15:12:00.764765,-72
2021-09-24 15:12:00.764771,19
2021-09-24 15:12:00.764778,94
2021-09-24 15:12:00.764785,150
2021-09-24 15:12:00.764791,179
2021-09-24 15:12:00.764797,199
2021-09-24 15:12:00.764804,216
2021-09-24 15:12:01.033945,218
2021-09-24 15:12:01.033962,218
2021-09-24 15:12:01.033968,213
2021-09-24 15:12:01.033973,204
2021-09-24 15:12:01.033978,201
2021-09-24 15:12:01.033983,194
2021-09-24 15:12:01.033988,187
2021-09-24 15:12:01.033992,179
2021-09-24 15:12:01.034232,162
2021-09-24 15:12:01.034239,145
2021-09-24 15:12:01.034244,140
2021-09-24 15:12:01.034248,140
2021-09-24 15:12:01.034253,133
2021-09-24 15:12:01.034257,123
2021-09-24 15:12:01.034262,114
2021-09-24 15:12:01.034267,102
2021-09-24 15:12:01.034271,102
2021-09-24 15:12:01.034276,106
2021-09-24 15:12:01.034280,99
2021-09-24 15:12:01.034285,89
2021-09-24 15:12:01.034290,89
2021-09-24 15:12:01.034294,89
2021-09-24 15:12:01.034299,92
2021-09-24 15:12:01.034303,97
2021-09-24 15:12:01.034308,97
2021-09-24 15:12:01.034312,94
2021-09-24 15:12:01.034317,89
2021-09-24 15:12:01.034322,87
2021-09-24 15:12:01.034326,89
2021-09-24 15:12:01.034331,92
2021-09-24 15:12:01.259000,92
2021-09-24 15:12:01.259021,92
2021-09-24 15:12:01.259029,89
2021-09-24 15:12:01.259035,89
2021-09-24 15:12:01.259042,94
2021-09-24 15:12:01.259055,92
2021-09-24 15:12:01.259062,80
2021-09-24 15:12:01.259069,63
2021-09-24 15:12:01.259076,43
2021-09-24 15:12:01.259082,34
2021-09-24 15:12:01.259103,34
2021-09-24 15:12:01.259136,46
2021-09-24 15:12:01.259145,68
2021-09-24 15:12:01.259153,75
2021-09-24 15:12:01.259159,63
2021-09-24 15:12:01.259166,53
2021-09-24 15:12:01.259172,60
2021-09-24 15:12:01.259179,63
2021-09-24 15:12:01.259185,58
2021-09-24 15:12:01.259192,53
2021-09-24 15:12:01.259199,41
2021-09-24 15:12:01.259205,31
2021-09-24 15:12:01.259212,12
2021-09-24 15:12:01.259218,-31
2021-09-24 15:12:01.259225,-153
2021-09-24 15:12:01.259232,-378
2021-09-24 15:12:01.259238,-478
2021-09-24 15:12:01.259245,-182
2021-09-24 15:12:01.259251,374
2021-09-24 15:12:01.259258,706
2021-09-24 15:12:01.439684,500
2021-09-24 15:12:01.439709,131
2021-09-24 15:12:01.439717,46
2021-09-24 15:12:01.439724,19
2021-09-24 15:12:01.439731,-99
2021-09-24 15:12:01.439738,-119
2021-09-24 15:12:01.439745,-92
2021-09-24 15:12:01.439752,-126
2021-09-24 15:12:01.439759,-148
2021-09-24 15:12:01.439766,-136
2021-09-24 15:12:01.439773,-145
2021-09-24 15:12:01.439779,-162
2021-09-24 15:12:01.439786,-170
2021-09-24 15:12:01.439793,-189
2021-09-24 15:12:01.439800,-208
2021-09-24 15:12:01.439807,-223
2021-09-24 15:12:01.439813,-247
2021-09-24 15:12:01.439821,-272
2021-09-24 15:12:01.439827,-296
2021-09-24 15:12:01.439834,-323
2021-09-24 15:12:01.439841,-354
2021-09-24 15:12:01.439848,-383
2021-09-24 15:12:01.439855,-405
2021-09-24 15:12:01.439862,-420
2021-09-24 15:12:01.439868,-425
2021-09-24 15:12:01.439875,-415
2021-09-24 15:12:01.439882,-386
2021-09-24 15:12:01.439889,-330
2021-09-24 15:12:01.439896,-242
2021-09-24 15:12:01.439902,-138
2021-09-24 15:12:01.664763,-38
2021-09-24 15:12:01.664795,48
2021-09-24 15:12:01.664808,119
2021-09-24 15:12:01.664818,167
2021-09-24 15:12:01.664829,191
2021-09-24 15:12:01.664839,208
2021-09-24 15:12:01.664849,211
2021-09-24 15:12:01.664859,211
2021-09-24 15:12:01.664869,211
2021-09-24 15:12:01.664880,208
2021-09-24 15:12:01.664890,201
2021-09-24 15:12:01.664900,191
2021-09-24 15:12:01.664910,177
2021-09-24 15:12:01.664920,167
2021-09-24 15:12:01.664930,160
2021-09-24 15:12:01.664941,150
2021-09-24 15:12:01.664951,140
2021-09-24 15:12:01.664961,133
2021-09-24 15:12:01.664971,121
2021-09-24 15:12:01.664981,109
2021-09-24 15:12:01.664991,97
2021-09-24 15:12:01.665001,89
2021-09-24 15:12:01.665012,92
2021-09-24 15:12:01.665022,92
2021-09-24 15:12:01.665032,85
2021-09-24 15:12:01.665042,80
2021-09-24 15:12:01.665052,85
2021-09-24 15:12:01.665062,85
2021-09-24 15:12:01.665073,85
2021-09-24 15:12:01.665083,85
2021-09-24 15:12:01.889748,87
2021-09-24 15:12:01.889772,89
2021-09-24 15:12:01.889780,89
2021-09-24 15:12:01.889788,87
2021-09-24 15:12:01.889795,85
2021-09-24 15:12:01.889801,82
2021-09-24 15:12:01.889808,75
2021-09-24 15:12:01.889816,77
2021-09-24 15:12:01.889823,80
2021-09-24 15:12:01.889829,77
2021-09-24 15:12:01.889837,77
2021-09-24 15:12:01.889843,70
2021-09-24 15:12:01.889850,63
2021-09-24 15:12:01.889857,70
2021-09-24 15:12:01.889864,80
2021-09-24 15:12:01.889871,77
2021-09-24 15:12:01.889878,65
2021-09-24 15:12:01.889885,48
2021-09-24 15:12:01.889892,34
2021-09-24 15:12:01.889899,36
2021-09-24 15:12:01.889906,36
2021-09-24 15:12:01.889913,29
2021-09-24 15:12:01.889920,46
2021-09-24 15:12:01.889927,68
2021-09-24 15:12:01.889933,70
2021-09-24 15:12:01.889940,68
2021-09-24 15:12:01.889947,65
2021-09-24 15:12:01.889954,58
2021-09-24 15:12:01.889961,58
2021-09-24 15:12:01.889968,60
2021-09-24 15:12:02.114751,60
2021-09-24 15:12:02.114774,60
2021-09-24 15:12:02.114782,55
2021-09-24 15:12:02.114789,26
2021-09-24 15:12:02.114796,-29
2021-09-24 15:12:02.114803,-157
2021-09-24 15:12:02.114810,-381
2021-09-24 15:12:02.114816,-485
2021-09-24 15:12:02.114823,-208
2021-09-24 15:12:02.114830,347
2021-09-24 15:12:02.114836,694
2021-09-24 15:12:02.114843,485
2021-09-24 15:12:02.114849,126
2021-09-24 15:12:02.114856,53
2021-09-24 15:12:02.114862,21
2021-09-24 15:12:02.114869,-104
2021-09-24 15:12:02.114876,-126
2021-09-24 15:12:02.114882,-94
2021-09-24 15:12:02.114889,-119
2021-09-24 15:12:02.114895,-138
2021-09-24 15:12:02.114902,-133
2021-09-24 15:12:02.114909,-145
2021-09-24 15:12:02.114915,-162
2021-09-24 15:12:02.114922,-174
2021-09-24 15:12:02.114928,-187
2021-09-24 15:12:02.114935,-206
2021-09-24 15:12:02.114941,-238
2021-09-24 15:12:02.114948,-259
2021-09-24 15:12:02.114955,-276
2021-09-24 15:12:02.114961,-306
2021-09-24 15:12:02.384067,-332
2021-09-24 15:12:02.384091,-352
2021-09-24 15:12:02.384099,-376
2021-09-24 15:12:02.384106,-403
2021-09-24 15:12:02.384113,-420
2021-09-24 15:12:02.384119,-422
2021-09-24 15:12:02.384126,-408
2021-09-24 15:12:02.384132,-378
2021-09-24 15:12:02.384139,-325
2021-09-24 15:12:02.384145,-250
2021-09-24 15:12:02.384152,-155
2021-09-24 15:12:02.384158,-53
2021-09-24 15:12:02.384164,36
2021-09-24 15:12:02.384171,104
2021-09-24 15:12:02.384177,155
2021-09-24 15:12:02.384184,184
2021-09-24 15:12:02.384190,199
2021-09-24 15:12:02.384197,208
2021-09-24 15:12:02.384203,213
2021-09-24 15:12:02.384210,213
2021-09-24 15:12:02.384216,206
2021-09-24 15:12:02.384222,196
2021-09-24 15:12:02.384229,187
2021-09-24 15:12:02.384235,182
2021-09-24 15:12:02.384242,174
2021-09-24 15:12:02.384248,167
2021-09-24 15:12:02.384254,157
2021-09-24 15:12:02.384261,143
2021-09-24 15:12:02.384267,133
2021-09-24 15:12:02.384274,128
2021-09-24 15:12:02.653962,121
2021-09-24 15:12:02.653986,109
2021-09-24 15:12:02.653994,99
2021-09-24 15:12:02.654001,92
2021-09-24 15:12:02.654007,87
2021-09-24 15:12:02.654014,89
2021-09-24 15:12:02.654020,92
2021-09-24 15:12:02.654027,92
2021-09-24 15:12:02.654033,92
2021-09-24 15:12:02.654040,82
2021-09-24 15:12:02.654046,77
2021-09-24 15:12:02.654053,82
2021-09-24 15:12:02.654059,87
2021-09-24 15:12:02.654066,87
2021-09-24 15:12:02.654072,85
2021-09-24 15:12:02.654078,77
2021-09-24 15:12:02.654085,75
2021-09-24 15:12:02.654092,80
2021-09-24 15:12:02.654098,80
2021-09-24 15:12:02.654104,80
2021-09-24 15:12:02.654111,80
2021-09-24 15:12:02.654118,75
2021-09-24 15:12:02.654124,72
2021-09-24 15:12:02.654130,75
2021-09-24 15:12:02.654137,77
2021-09-24 15:12:02.654143,82
2021-09-24 15:12:02.654150,77
2021-09-24 15:12:02.654156,60
2021-09-24 15:12:02.654163,43
2021-09-24 15:12:02.654169,34
2021-09-24 15:12:02.834769,38
2021-09-24 15:12:02.834790,29
2021-09-24 15:12:02.834798,9
2021-09-24 15:12:02.834805,12
2021-09-24 15:12:02.834812,38
2021-09-24 15:12:02.834818,53
2021-09-24 15:12:02.834824,53
2021-09-24 15:12:02.834831,55
2021-09-24 15:12:02.834837,53
2021-09-24 15:12:02.834844,48
2021-09-24 15:12:02.834850,48
2021-09-24 15:12:02.834857,53
2021-09-24 15:12:02.834863,48
2021-09-24 15:12:02.834870,36
2021-09-24 15:12:02.834876,12
2021-09-24 15:12:02.834883,-36
2021-09-24 15:12:02.834889,-133
2021-09-24 15:12:02.834896,-342
2021-09-24 15:12:02.834902,-507
2021-09-24 15:12:02.834909,-315
2021-09-24 15:12:02.834916,211
2021-09-24 15:12:02.834922,648
2021-09-24 15:12:02.834929,570
2021-09-24 15:12:02.834935,187
2021-09-24 15:12:02.834942,41
2021-09-24 15:12:02.834948,34
2021-09-24 15:12:02.834955,-85
2021-09-24 15:12:02.834961,-145
2021-09-24 15:12:02.834968,-111
2021-09-24 15:12:02.834974,-123
2021-09-24 15:12:03.104740,-155
2021-09-24 15:12:03.104764,-155
2021-09-24 15:12:03.104771,-165
2021-09-24 15:12:03.104778,-184
2021-09-24 15:12:03.104785,-194
2021-09-24 15:12:03.104791,-206
2021-09-24 15:12:03.104798,-225
2021-09-24 15:12:03.104805,-242
2021-09-24 15:12:03.104812,-267
2021-09-24 15:12:03.104818,-291
2021-09-24 15:12:03.104825,-306
2021-09-24 15:12:03.104832,-327
2021-09-24 15:12:03.104838,-354
2021-09-24 15:12:03.104845,-383
2021-09-24 15:12:03.104851,-410
2021-09-24 15:12:03.104858,-422
2021-09-24 15:12:03.104865,-420
2021-09-24 15:12:03.104871,-410
2021-09-24 15:12:03.104878,-386
2021-09-24 15:12:03.104884,-340
2021-09-24 15:12:03.104891,-267
2021-09-24 15:12:03.104897,-167
2021-09-24 15:12:03.104904,-63
2021-09-24 15:12:03.104911,29
2021-09-24 15:12:03.104917,102
2021-09-24 15:12:03.104924,155
2021-09-24 15:12:03.104931,189
2021-09-24 15:12:03.104937,208
2021-09-24 15:12:03.104944,218
2021-09-24 15:12:03.104951,225
2021-09-24 15:12:03.284837,225
2021-09-24 15:12:03.284868,218
2021-09-24 15:12:03.284880,211
2021-09-24 15:12:03.284891,204
2021-09-24 15:12:03.284901,194
2021-09-24 15:12:03.284911,184
2021-09-24 15:12:03.284921,177
2021-09-24 15:12:03.284931,153
2021-09-24 15:12:03.284941,131
2021-09-24 15:12:03.284951,123
2021-09-24 15:12:03.284961,123
2021-09-24 15:12:03.284971,116
2021-09-24 15:12:03.284981,109
2021-09-24 15:12:03.284991,99
2021-09-24 15:12:03.285001,92
2021-09-24 15:12:03.285011,92
2021-09-24 15:12:03.285021,94
2021-09-24 15:12:03.285031,97
2021-09-24 15:12:03.285041,89
2021-09-24 15:12:03.285051,85
2021-09-24 15:12:03.285061,85
2021-09-24 15:12:03.285071,89
2021-09-24 15:12:03.285081,92
2021-09-24 15:12:03.285091,92
2021-09-24 15:12:03.285101,92
2021-09-24 15:12:03.285111,89
2021-09-24 15:12:03.285121,89
2021-09-24 15:12:03.285131,92
2021-09-24 15:12:03.285141,92
2021-09-24 15:12:03.285151,89
2021-09-24 15:12:03.599132,89
2021-09-24 15:12:03.599155,87
2021-09-24 15:12:03.599163,87
2021-09-24 15:12:03.599169,85
2021-09-24 15:12:03.599176,87
2021-09-24 15:12:03.599182,85
2021-09-24 15:12:03.599188,77
2021-09-24 15:12:03.599195,70
2021-09-24 15:12:03.599201,70
2021-09-24 15:12:03.599207,65
2021-09-24 15:12:03.599214,65
2021-09-24 15:12:03.599220,60
2021-09-24 15:12:03.599227,38
2021-09-24 15:12:03.599233,17
2021-09-24 15:12:03.599239,14
2021-09-24 15:12:03.599246,17
2021-09-24 15:12:03.599252,7
2021-09-24 15:12:03.599258,12
2021-09-24 15:12:03.599265,34
2021-09-24 15:12:03.599271,51
2021-09-24 15:12:03.599278,55
2021-09-24 15:12:03.599284,53
2021-09-24 15:12:03.599290,55
2021-09-24 15:12:03.599297,58
2021-09-24 15:12:03.599303,55
2021-09-24 15:12:03.599309,58
2021-09-24 15:12:03.599347,58
2021-09-24 15:12:03.599354,53
2021-09-24 15:12:03.599360,43
2021-09-24 15:12:03.599366,12
2021-09-24 15:12:03.734752,-70
2021-09-24 15:12:03.734774,-250
2021-09-24 15:12:03.734782,-476
2021-09-24 15:12:03.734788,-449
2021-09-24 15:12:03.734795,-17
2021-09-24 15:12:03.734802,534
2021-09-24 15:12:03.734808,675
2021-09-24 15:12:03.734815,320
2021-09-24 15:12:03.734822,55
2021-09-24 15:12:03.734829,51
2021-09-24 15:12:03.734835,-31
2021-09-24 15:12:03.734842,-131
2021-09-24 15:12:03.734849,-121
2021-09-24 15:12:03.734855,-121
2021-09-24 15:12:03.734862,-157
2021-09-24 15:12:03.734868,-162
2021-09-24 15:12:03.734875,-160
2021-09-24 15:12:03.734882,-179
2021-09-24 15:12:03.734888,-191
2021-09-24 15:12:03.734895,-196
2021-09-24 15:12:03.734902,-206
2021-09-24 15:12:03.734908,-223
2021-09-24 15:12:03.734915,-238
2021-09-24 15:12:03.734921,-255
2021-09-24 15:12:03.734928,-276
2021-09-24 15:12:03.734935,-298
2021-09-24 15:12:03.734941,-325
2021-09-24 15:12:03.734948,-352
2021-09-24 15:12:03.734955,-374
2021-09-24 15:12:03.734961,-391
2021-09-24 15:12:03.959207,-400
2021-09-24 15:12:03.959228,-395
2021-09-24 15:12:03.959237,-378
2021-09-24 15:12:03.959243,-347
2021-09-24 15:12:03.959250,-291
2021-09-24 15:12:03.959257,-206
2021-09-24 15:12:03.959263,-104
2021-09-24 15:12:03.959270,-2
2021-09-24 15:12:03.959276,77
2021-09-24 15:12:03.959283,136
2021-09-24 15:12:03.959289,179
2021-09-24 15:12:03.959296,201
2021-09-24 15:12:03.959302,213
2021-09-24 15:12:03.959309,218
2021-09-24 15:12:03.959316,218
2021-09-24 15:12:03.959322,211
2021-09-24 15:12:03.959329,204
2021-09-24 15:12:03.959335,196
2021-09-24 15:12:03.959342,191
2021-09-24 15:12:03.959348,187
2021-09-24 15:12:03.959355,174
2021-09-24 15:12:03.959362,160
2021-09-24 15:12:03.959368,153
2021-09-24 15:12:03.959375,145
2021-09-24 15:12:03.959382,138
2021-09-24 15:12:03.959388,136
2021-09-24 15:12:03.959395,133
2021-09-24 15:12:03.959401,121
2021-09-24 15:12:03.959408,116
2021-09-24 15:12:03.959415,119
2021-09-24 15:12:04.184632,116
2021-09-24 15:12:04.184655,114
2021-09-24 15:12:04.184662,116
2021-09-24 15:12:04.184669,114
2021-09-24 15:12:04.184676,99
2021-09-24 15:12:04.184682,97
2021-09-24 15:12:04.184689,102
2021-09-24 15:12:04.184696,104
2021-09-24 15:12:04.184702,104
2021-09-24 15:12:04.184709,99
2021-09-24 15:12:04.184715,89
2021-09-24 15:12:04.184722,87
2021-09-24 15:12:04.184728,94
2021-09-24 15:12:04.184735,92
2021-09-24 15:12:04.184741,87
2021-09-24 15:12:04.184748,80
2021-09-24 15:12:04.184754,68
2021-09-24 15:12:04.184761,58
2021-09-24 15:12:04.184767,48
2021-09-24 15:12:04.184774,41
2021-09-24 15:12:04.184781,43
2021-09-24 15:12:04.184787,43
2021-09-24 15:12:04.184794,36
2021-09-24 15:12:04.184800,38
2021-09-24 15:12:04.184807,43
2021-09-24 15:12:04.184813,43
2021-09-24 15:12:04.184820,36
2021-09-24 15:12:04.184826,24
2021-09-24 15:12:04.184833,9
2021-09-24 15:12:04.184839,2
2021-09-24 15:12:04.454462,9
2021-09-24 15:12:04.454484,9
2021-09-24 15:12:04.454493,2
2021-09-24 15:12:04.454499,4
2021-09-24 15:12:04.454506,17
2021-09-24 15:12:04.454513,26
2021-09-24 15:12:04.454519,24
2021-09-24 15:12:04.454526,19
2021-09-24 15:12:04.454533,21
2021-09-24 15:12:04.454539,14
2021-09-24 15:12:04.454546,7
2021-09-24 15:12:04.454552,14
2021-09-24 15:12:04.454559,17
2021-09-24 15:12:04.454565,4
2021-09-24 15:12:04.454572,-26
2021-09-24 15:12:04.454579,-89
2021-09-24 15:12:04.454585,-235
2021-09-24 15:12:04.454592,-463
2021-09-24 15:12:04.454599,-519
2021-09-24 15:12:04.454605,-170
2021-09-24 15:12:04.454612,405
2021-09-24 15:12:04.454618,658
2021-09-24 15:12:04.454625,366
2021-09-24 15:12:04.454632,68
2021-09-24 15:12:04.454638,53
2021-09-24 15:12:04.454645,2
2021-09-24 15:12:04.454651,-123
2021-09-24 15:12:04.454679,-136
2021-09-24 15:12:04.454686,-109
2021-09-24 15:12:04.454693,-133
2021-09-24 15:12:04.722646,-145
2021-09-24 15:12:04.722662,-143
2021-09-24 15:12:04.722669,-157
2021-09-24 15:12:04.722674,-174
2021-09-24 15:12:04.722679,-179
2021-09-24 15:12:04.722684,-191
2021-09-24 15:12:04.722690,-204
2021-09-24 15:12:04.722695,-211
2021-09-24 15:12:04.722700,-235
2021-09-24 15:12:04.722705,-274
2021-09-24 15:12:04.722710,-296
2021-09-24 15:12:04.722716,-310
2021-09-24 15:12:04.722721,-340
2021-09-24 15:12:04.722726,-366
2021-09-24 15:12:04.722731,-386
2021-09-24 15:12:04.722736,-400
2021-09-24 15:12:04.722741,-395
2021-09-24 15:12:04.722747,-374
2021-09-24 15:12:04.722752,-344
2021-09-24 15:12:04.722757,-296
2021-09-24 15:12:04.722762,-218
2021-09-24 15:12:04.722767,-121
2021-09-24 15:12:04.722772,-24
2021-09-24 15:12:04.722778,55
2021-09-24 15:12:04.722783,111
2021-09-24 15:12:04.722788,150
2021-09-24 15:12:04.722793,179
2021-09-24 15:12:04.722798,191
2021-09-24 15:12:04.722803,196
2021-09-24 15:12:04.722809,206
2021-09-24 15:12:04.904124,211
2021-09-24 15:12:04.904144,204
2021-09-24 15:12:04.904151,189
2021-09-24 15:12:04.904158,179
2021-09-24 15:12:04.904165,174
2021-09-24 15:12:04.904171,167
2021-09-24 15:12:04.904178,157
2021-09-24 15:12:04.904184,145
2021-09-24 15:12:04.904191,128
2021-09-24 15:12:04.904197,119
2021-09-24 15:12:04.904204,119
2021-09-24 15:12:04.904210,114
2021-09-24 15:12:04.904217,109
2021-09-24 15:12:04.904223,102
2021-09-24 15:12:04.904229,87
2021-09-24 15:12:04.904236,82
2021-09-24 15:12:04.904243,87
2021-09-24 15:12:04.904249,87
2021-09-24 15:12:04.904256,87
2021-09-24 15:12:04.904262,89
2021-09-24 15:12:04.904269,89
2021-09-24 15:12:04.904275,85
2021-09-24 15:12:04.904282,82
2021-09-24 15:12:04.904288,80
2021-09-24 15:12:04.904295,75
2021-09-24 15:12:04.904301,68
2021-09-24 15:12:04.904308,68
2021-09-24 15:12:04.904314,70
2021-09-24 15:12:04.904320,68
2021-09-24 15:12:04.904327,68
2021-09-24 15:12:05.128997,70
2021-09-24 15:12:05.129013,65
2021-09-24 15:12:05.129018,60
2021-09-24 15:12:05.129023,63
2021-09-24 15:12:05.129027,65
2021-09-24 15:12:05.129032,65
2021-09-24 15:12:05.129036,65
2021-09-24 15:12:05.129041,55
2021-09-24 15:12:05.129045,51
2021-09-24 15:12:05.129050,51
2021-09-24 15:12:05.129054,46
2021-09-24 15:12:05.129059,43
2021-09-24 15:12:05.129063,34
2021-09-24 15:12:05.129068,26
2021-09-24 15:12:05.129072,19
2021-09-24 15:12:05.129077,9
2021-09-24 15:12:05.129081,-4
2021-09-24 15:12:05.129086,-9
2021-09-24 15:12:05.129091,0
2021-09-24 15:12:05.129096,-7
2021-09-24 15:12:05.129100,-14
2021-09-24 15:12:05.129105,2
2021-09-24 15:12:05.129109,29
2021-09-24 15:12:05.129114,38
2021-09-24 15:12:05.129118,29
2021-09-24 15:12:05.129123,26
2021-09-24 15:12:05.129127,31
2021-09-24 15:12:05.129132,31
2021-09-24 15:12:05.129136,34
2021-09-24 15:12:05.129141,34
2021-09-24 15:12:05.354764,19
2021-09-24 15:12:05.354786,0
2021-09-24 15:12:05.354794,-24
2021-09-24 15:12:05.354801,-82
2021-09-24 15:12:05.354808,-218
2021-09-24 15:12:05.354814,-427
2021-09-24 15:12:05.354821,-466
2021-09-24 15:12:05.354828,-133
2021-09-24 15:12:05.354834,403
2021-09-24 15:12:05.354841,663
2021-09-24 15:12:05.354848,400
2021-09-24 15:12:05.354854,87
2021-09-24 15:12:05.354861,51
2021-09-24 15:12:05.354867,0
2021-09-24 15:12:05.354874,-121
2021-09-24 15:12:05.354881,-128
2021-09-24 15:12:05.354887,-104
2021-09-24 15:12:05.354894,-131
2021-09-24 15:12:05.354900,-148
2021-09-24 15:12:05.354907,-143
2021-09-24 15:12:05.354913,-155
2021-09-24 15:12:05.354920,-167
2021-09-24 15:12:05.354926,-174
2021-09-24 15:12:05.354944,-187
2021-09-24 15:12:05.354951,-201
2021-09-24 15:12:05.354957,-216
2021-09-24 15:12:05.354964,-233
2021-09-24 15:12:05.354970,-250
2021-09-24 15:12:05.354977,-269
2021-09-24 15:12:05.354984,-296
2021-09-24 15:12:05.624800,-320
2021-09-24 15:12:05.624830,-340
2021-09-24 15:12:05.624842,-361
2021-09-24 15:12:05.624853,-376
2021-09-24 15:12:05.624863,-371
2021-09-24 15:12:05.624873,-359
2021-09-24 15:12:05.624883,-342
2021-09-24 15:12:05.624893,-286
2021-09-24 15:12:05.624903,-201
2021-09-24 15:12:05.624928,-109
2021-09-24 15:12:05.624938,-14
2021-09-24 15:12:05.624948,65
2021-09-24 15:12:05.624959,121
2021-09-24 15:12:05.624969,172
2021-09-24 15:12:05.624979,206
2021-09-24 15:12:05.625030,216
2021-09-24 15:12:05.625144,225
2021-09-24 15:12:05.625181,228
2021-09-24 15:12:05.625195,221
2021-09-24 15:12:05.625206,218
2021-09-24 15:12:05.625216,216
2021-09-24 15:12:05.625226,206
2021-09-24 15:12:05.625239,199
2021-09-24 15:12:05.625250,189
2021-09-24 15:12:05.625260,179
2021-09-24 15:12:05.625270,172
2021-09-24 15:12:05.625280,162
2021-09-24 15:12:05.625291,143
2021-09-24 15:12:05.625301,131
2021-09-24 15:12:05.625311,123
2021-09-24 15:12:05.849144,116
2021-09-24 15:12:05.849168,116
2021-09-24 15:12:05.849176,114
2021-09-24 15:12:05.849183,104
2021-09-24 15:12:05.849189,97
2021-09-24 15:12:05.849196,85
2021-09-24 15:12:05.849202,77
2021-09-24 15:12:05.849209,82
2021-09-24 15:12:05.849215,85
2021-09-24 15:12:05.849222,82
2021-09-24 15:12:05.849228,82
2021-09-24 15:12:05.849235,75
2021-09-24 15:12:05.849241,68
2021-09-24 15:12:05.849248,70
2021-09-24 15:12:05.849254,72
2021-09-24 15:12:05.849261,70
2021-09-24 15:12:05.849267,65
2021-09-24 15:12:05.849274,55
2021-09-24 15:12:05.849281,55
2021-09-24 15:12:05.849287,63
2021-09-24 15:12:05.849294,60
2021-09-24 15:12:05.849300,53
2021-09-24 15:12:05.849307,46
2021-09-24 15:12:05.849313,36
2021-09-24 15:12:05.849351,36
2021-09-24 15:12:05.849358,29
2021-09-24 15:12:05.849365,19
2021-09-24 15:12:05.849371,31
2021-09-24 15:12:05.849377,51
2021-09-24 15:12:05.849384,48
2021-09-24 15:12:06.029488,46
2021-09-24 15:12:06.029511,53
2021-09-24 15:12:06.029518,48
2021-09-24 15:12:06.029525,9
2021-09-24 15:12:06.029532,-19
2021-09-24 15:12:06.029539,-7
2021-09-24 15:12:06.029546,-4
2021-09-24 15:12:06.029552,-17
2021-09-24 15:12:06.029559,12
2021-09-24 15:12:06.029565,46
2021-09-24 15:12:06.029572,41
2021-09-24 15:12:06.029578,26
2021-09-24 15:12:06.029585,38
2021-09-24 15:12:06.029591,43
2021-09-24 15:12:06.029598,38
2021-09-24 15:12:06.029605,46
2021-09-24 15:12:06.029611,53
2021-09-24 15:12:06.029618,41
2021-09-24 15:12:06.029624,31
2021-09-24 15:12:06.029631,7
2021-09-24 15:12:06.029638,-75
2021-09-24 15:12:06.029644,-247
2021-09-24 15:12:06.029651,-459
2021-09-24 15:12:06.029657,-442
2021-09-24 15:12:06.029664,-48
2021-09-24 15:12:06.029671,468
2021-09-24 15:12:06.029677,680
2021-09-24 15:12:06.029684,400
2021-09-24 15:12:06.029690,97
2021-09-24 15:12:06.029697,65
2021-09-24 15:12:06.299910,12
2021-09-24 15:12:06.299943,-94
2021-09-24 15:12:06.299955,-99
2021-09-24 15:12:06.299966,-89
2021-09-24 15:12:06.299976,-131
2021-09-24 15:12:06.299986,-148
2021-09-24 15:12:06.299996,-128
2021-09-24 15:12:06.300006,-128
2021-09-24 15:12:06.300016,-155
2021-09-24 15:12:06.300026,-170
2021-09-24 15:12:06.300036,-177
2021-09-24 15:12:06.300046,-204
2021-09-24 15:12:06.300056,-235
2021-09-24 15:12:06.300067,-245
2021-09-24 15:12:06.300077,-257
2021-09-24 15:12:06.300087,-293
2021-09-24 15:12:06.300097,-320
2021-09-24 15:12:06.300107,-335
2021-09-24 15:12:06.300117,-366
2021-09-24 15:12:06.300127,-393
2021-09-24 15:12:06.300137,-393
2021-09-24 15:12:06.300147,-395
2021-09-24 15:12:06.300157,-400
2021-09-24 15:12:06.300167,-371
2021-09-24 15:12:06.300177,-301
2021-09-24 15:12:06.300188,-213
2021-09-24 15:12:06.300198,-121
2021-09-24 15:12:06.300208,-19
2021-09-24 15:12:06.300218,72
2021-09-24 15:12:06.300228,136
2021-09-24 15:12:06.524209,187
2021-09-24 15:12:06.524232,223
2021-09-24 15:12:06.524241,230
2021-09-24 15:12:06.524248,230
2021-09-24 15:12:06.524255,238
2021-09-24 15:12:06.524262,230
2021-09-24 15:12:06.524268,223
2021-09-24 15:12:06.524276,216
2021-09-24 15:12:06.524283,208
2021-09-24 15:12:06.524289,199
2021-09-24 15:12:06.524296,184
2021-09-24 15:12:06.524303,172
2021-09-24 15:12:06.524310,172
2021-09-24 15:12:06.524317,172
2021-09-24 15:12:06.524324,145
2021-09-24 15:12:06.524331,121
2021-09-24 15:12:06.524338,123
2021-09-24 15:12:06.524345,119
2021-09-24 15:12:06.524351,104
2021-09-24 15:12:06.524358,109
2021-09-24 15:12:06.524365,104
2021-09-24 15:12:06.524372,89
2021-09-24 15:12:06.524379,87
2021-09-24 15:12:06.524385,89
2021-09-24 15:12:06.524392,82
2021-09-24 15:12:06.524399,85
2021-09-24 15:12:06.524406,85
2021-09-24 15:12:06.524413,80
2021-09-24 15:12:06.524419,82
2021-09-24 15:12:06.524426,89
2021-09-24 15:12:06.838513,82
2021-09-24 15:12:06.838537,75
2021-09-24 15:12:06.838545,75
2021-09-24 15:12:06.838552,63
2021-09-24 15:12:06.838558,53
2021-09-24 15:12:06.838565,58
2021-09-24 15:12:06.838571,53
2021-09-24 15:12:06.838610,41
2021-09-24 15:12:06.838616,26
2021-09-24 15:12:06.838623,17
2021-09-24 15:12:06.838629,19
2021-09-24 15:12:06.838636,24
2021-09-24 15:12:06.838642,26
2021-09-24 15:12:06.838649,34
2021-09-24 15:12:06.838655,24
2021-09-24 15:12:06.838662,-2
2021-09-24 15:12:06.838668,-14
2021-09-24 15:12:06.838675,-12
2021-09-24 15:12:06.838681,-17
2021-09-24 15:12:06.838687,-29
2021-09-24 15:12:06.838694,-38
2021-09-24 15:12:06.838700,-26
2021-09-24 15:12:06.838707,4
2021-09-24 15:12:06.838713,24
2021-09-24 15:12:06.838720,26
2021-09-24 15:12:06.838726,31
2021-09-24 15:12:06.838733,29
2021-09-24 15:12:06.838739,29
2021-09-24 15:12:06.838746,31
2021-09-24 15:12:06.838752,36
2021-09-24 15:12:07.019144,34
2021-09-24 15:12:07.019165,31
2021-09-24 15:12:07.019173,7
2021-09-24 15:12:07.019180,-48
2021-09-24 15:12:07.019187,-172
2021-09-24 15:12:07.019194,-410
2021-09-24 15:12:07.019200,-556
2021-09-24 15:12:07.019207,-308
2021-09-24 15:12:07.019214,242
2021-09-24 15:12:07.019220,638
2021-09-24 15:12:07.019227,500
2021-09-24 15:12:07.019234,138
2021-09-24 15:12:07.019240,41
2021-09-24 15:12:07.019247,29
2021-09-24 15:12:07.019253,-89
2021-09-24 15:12:07.019260,-119
2021-09-24 15:12:07.019267,-87
2021-09-24 15:12:07.019273,-111
2021-09-24 15:12:07.019280,-131
2021-09-24 15:12:07.019286,-136
2021-09-24 15:12:07.019293,-153
2021-09-24 15:12:07.019300,-167
2021-09-24 15:12:07.019306,-177
2021-09-24 15:12:07.019313,-179
2021-09-24 15:12:07.019319,-187
2021-09-24 15:12:07.019326,-218
2021-09-24 15:12:07.019333,-247
2021-09-24 15:12:07.019340,-257
2021-09-24 15:12:07.019347,-272
2021-09-24 15:12:07.019354,-308
2021-09-24 15:12:07.244787,-337
2021-09-24 15:12:07.244811,-364
2021-09-24 15:12:07.244818,-395
2021-09-24 15:12:07.244825,-415
2021-09-24 15:12:07.244832,-415
2021-09-24 15:12:07.244838,-395
2021-09-24 15:12:07.244845,-381
2021-09-24 15:12:07.244851,-349
2021-09-24 15:12:07.244858,-259
2021-09-24 15:12:07.244864,-140
2021-09-24 15:12:07.244871,-43
2021-09-24 15:12:07.244878,41
2021-09-24 15:12:07.244884,116
2021-09-24 15:12:07.244891,162
2021-09-24 15:12:07.244897,191
2021-09-24 15:12:07.244904,213
2021-09-24 15:12:07.244911,228
2021-09-24 15:12:07.244917,228
2021-09-24 15:12:07.244924,233
2021-09-24 15:12:07.244931,235
2021-09-24 15:12:07.244937,223
2021-09-24 15:12:07.244944,213
2021-09-24 15:12:07.244950,206
2021-09-24 15:12:07.244957,189
2021-09-24 15:12:07.244963,172
2021-09-24 15:12:07.244970,155
2021-09-24 15:12:07.244976,138
2021-09-24 15:12:07.244983,138
2021-09-24 15:12:07.244990,145
2021-09-24 15:12:07.244996,131
2021-09-24 15:12:07.469723,114
2021-09-24 15:12:07.469746,116
2021-09-24 15:12:07.469754,109
2021-09-24 15:12:07.469761,89
2021-09-24 15:12:07.469768,92
2021-09-24 15:12:07.469775,97
2021-09-24 15:12:07.469781,77
2021-09-24 15:12:07.469788,72
2021-09-24 15:12:07.469795,85
2021-09-24 15:12:07.469801,92
2021-09-24 15:12:07.469808,89
2021-09-24 15:12:07.469815,80
2021-09-24 15:12:07.469821,77
2021-09-24 15:12:07.469828,85
2021-09-24 15:12:07.469835,82
2021-09-24 15:12:07.469841,75
2021-09-24 15:12:07.469848,77
2021-09-24 15:12:07.469854,65
2021-09-24 15:12:07.469861,38
2021-09-24 15:12:07.469868,41
2021-09-24 15:12:07.469874,55
2021-09-24 15:12:07.469881,48
2021-09-24 15:12:07.469888,43
2021-09-24 15:12:07.469894,41
2021-09-24 15:12:07.469901,34
2021-09-24 15:12:07.469908,38
2021-09-24 15:12:07.469914,43
2021-09-24 15:12:07.469921,29
2021-09-24 15:12:07.469927,12
2021-09-24 15:12:07.469934,2
2021-09-24 15:12:07.739081,0
2021-09-24 15:12:07.739103,0
2021-09-24 15:12:07.739111,-2
2021-09-24 15:12:07.739118,4
2021-09-24 15:12:07.739125,24
2021-09-24 15:12:07.739131,31
2021-09-24 15:12:07.739138,31
2021-09-24 15:12:07.739144,38
2021-09-24 15:12:07.739151,43
2021-09-24 15:12:07.739157,38
2021-09-24 15:12:07.739164,34
2021-09-24 15:12:07.739170,29
2021-09-24 15:12:07.739177,24
2021-09-24 15:12:07.739183,21
2021-09-24 15:12:07.739190,2
2021-09-24 15:12:07.739196,-36
2021-09-24 15:12:07.739203,-126
2021-09-24 15:12:07.739210,-354
2021-09-24 15:12:07.739216,-597
2021-09-24 15:12:07.739223,-502
2021-09-24 15:12:07.739229,21
2021-09-24 15:12:07.739236,573
2021-09-24 15:12:07.739242,609
2021-09-24 15:12:07.739249,225
2021-09-24 15:12:07.739255,36
2021-09-24 15:12:07.739262,46
2021-09-24 15:12:07.739268,-53
2021-09-24 15:12:07.739275,-138
2021-09-24 15:12:07.739281,-116
2021-09-24 15:12:07.739288,-119
2021-09-24 15:12:07.964706,-145
2021-09-24 15:12:07.964727,-145
2021-09-24 15:12:07.964735,-153
2021-09-24 15:12:07.964742,-179
2021-09-24 15:12:07.964748,-189
2021-09-24 15:12:07.964755,-199
2021-09-24 15:12:07.964762,-221
2021-09-24 15:12:07.964768,-228
2021-09-24 15:12:07.964775,-240
2021-09-24 15:12:07.964781,-274
2021-09-24 15:12:07.964788,-303
2021-09-24 15:12:07.964794,-323
2021-09-24 15:12:07.964801,-357
2021-09-24 15:12:07.964807,-386
2021-09-24 15:12:07.964814,-408
2021-09-24 15:12:07.964820,-432
2021-09-24 15:12:07.964827,-449
2021-09-24 15:12:07.964834,-444
2021-09-24 15:12:07.964840,-412
2021-09-24 15:12:07.964846,-369
2021-09-24 15:12:07.964853,-301
2021-09-24 15:12:07.964859,-196
2021-09-24 15:12:07.964866,-87
2021-09-24 15:12:07.964872,7
2021-09-24 15:12:07.964879,92
2021-09-24 15:12:07.964886,160
2021-09-24 15:12:07.964892,204
2021-09-24 15:12:07.964899,221
2021-09-24 15:12:07.964905,225
2021-09-24 15:12:07.964912,233
2021-09-24 15:12:08.144848,238
2021-09-24 15:12:08.144871,235
2021-09-24 15:12:08.144879,221
2021-09-24 15:12:08.144885,201
2021-09-24 15:12:08.144892,189
2021-09-24 15:12:08.144899,184
2021-09-24 15:12:08.144905,179
2021-09-24 15:12:08.144912,167
2021-09-24 15:12:08.144918,150
2021-09-24 15:12:08.144925,133
2021-09-24 15:12:08.144931,121
2021-09-24 15:12:08.144938,121
2021-09-24 15:12:08.144945,119
2021-09-24 15:12:08.144951,104
2021-09-24 15:12:08.144958,97
2021-09-24 15:12:08.144964,87
2021-09-24 15:12:08.144971,80
2021-09-24 15:12:08.144977,77
2021-09-24 15:12:08.144984,70
2021-09-24 15:12:08.144991,63
2021-09-24 15:12:08.144997,65
2021-09-24 15:12:08.145004,63
2021-09-24 15:12:08.145010,58
2021-09-24 15:12:08.145017,68
2021-09-24 15:12:08.145024,77
2021-09-24 15:12:08.145030,80
2021-09-24 15:12:08.145037,75
2021-09-24 15:12:08.145043,68
2021-09-24 15:12:08.145050,68
2021-09-24 15:12:08.145057,70
2021-09-24 15:12:08.414305,70
2021-09-24 15:12:08.414327,65
2021-09-24 15:12:08.414335,58
2021-09-24 15:12:08.414341,46
2021-09-24 15:12:08.414348,36
2021-09-24 15:12:08.414354,36
2021-09-24 15:12:08.414361,38
2021-09-24 15:12:08.414368,36
2021-09-24 15:12:08.414374,31
2021-09-24 15:12:08.414381,26
2021-09-24 15:12:08.414387,26
2021-09-24 15:12:08.414394,21
2021-09-24 15:12:08.414400,0
2021-09-24 15:12:08.414407,-12
2021-09-24 15:12:08.414414,-7
2021-09-24 15:12:08.414420,-17
2021-09-24 15:12:08.414427,-19
2021-09-24 15:12:08.414434,2
2021-09-24 15:12:08.414440,24
2021-09-24 15:12:08.414447,36
2021-09-24 15:12:08.414454,36
2021-09-24 15:12:08.414460,31
2021-09-24 15:12:08.414467,29
2021-09-24 15:12:08.414473,34
2021-09-24 15:12:08.414480,34
2021-09-24 15:12:08.414486,29
2021-09-24 15:12:08.414493,31
2021-09-24 15:12:08.414500,24
2021-09-24 15:12:08.414506,-2
2021-09-24 15:12:08.414532,-70
2021-09-24 15:12:08.594811,-264
2021-09-24 15:12:08.594832,-539
2021-09-24 15:12:08.594840,-578
2021-09-24 15:12:08.594847,-172
2021-09-24 15:12:08.594854,446
2021-09-24 15:12:08.594860,680
2021-09-24 15:12:08.594867,349
2021-09-24 15:12:08.594874,72
2021-09-24 15:12:08.594880,72
2021-09-24 15:12:08.594887,-2
2021-09-24 15:12:08.594893,-114
2021-09-24 15:12:08.594900,-99
2021-09-24 15:12:08.594907,-82
2021-09-24 15:12:08.594913,-119
2021-09-24 15:12:08.594920,-143
2021-09-24 15:12:08.594926,-148
2021-09-24 15:12:08.594933,-157
2021-09-24 15:12:08.594939,-170
2021-09-24 15:12:08.594946,-182
2021-09-24 15:12:08.594952,-199
2021-09-24 15:12:08.594959,-218
2021-09-24 15:12:08.594965,-230
2021-09-24 15:12:08.594972,-255
2021-09-24 15:12:08.594979,-293
2021-09-24 15:12:08.594985,-323
2021-09-24 15:12:08.594992,-344
2021-09-24 15:12:08.594998,-376
2021-09-24 15:12:08.595005,-412
2021-09-24 15:12:08.595011,-432
2021-09-24 15:12:08.595018,-434
2021-09-24 15:12:08.863527,-429
2021-09-24 15:12:08.863548,-420
2021-09-24 15:12:08.863556,-388
2021-09-24 15:12:08.863563,-325
2021-09-24 15:12:08.863570,-228
2021-09-24 15:12:08.863576,-119
2021-09-24 15:12:08.863583,-17
2021-09-24 15:12:08.863589,63
2021-09-24 15:12:08.863596,121
2021-09-24 15:12:08.863603,167
2021-09-24 15:12:08.863609,194
2021-09-24 15:12:08.863616,199
2021-09-24 15:12:08.863622,201
2021-09-24 15:12:08.863629,204
2021-09-24 15:12:08.863636,194
2021-09-24 15:12:08.863642,184
2021-09-24 15:12:08.863649,182
2021-09-24 15:12:08.863655,172
2021-09-24 15:12:08.863662,162
2021-09-24 15:12:08.863668,160
2021-09-24 15:12:08.863675,148
2021-09-24 15:12:08.863681,128
2021-09-24 15:12:08.863688,128
2021-09-24 15:12:08.863694,126
2021-09-24 15:12:08.863701,104
2021-09-24 15:12:08.863707,89
2021-09-24 15:12:08.863714,92
2021-09-24 15:12:08.863720,89
2021-09-24 15:12:08.863727,80
2021-09-24 15:12:08.863733,80
2021-09-24 15:12:09.044797,85
2021-09-24 15:12:09.044828,82
2021-09-24 15:12:09.044840,80
2021-09-24 15:12:09.044851,80
2021-09-24 15:12:09.044861,75
2021-09-24 15:12:09.044872,75
2021-09-24 15:12:09.044882,75
2021-09-24 15:12:09.044892,68
2021-09-24 15:12:09.044902,60
2021-09-24 15:12:09.044912,65
2021-09-24 15:12:09.044922,68
2021-09-24 15:12:09.044932,65
2021-09-24 15:12:09.044942,55
2021-09-24 15:12:09.044952,41
2021-09-24 15:12:09.044963,41
2021-09-24 15:12:09.044973,48
2021-09-24 15:12:09.044983,51
2021-09-24 15:12:09.044993,53
2021-09-24 15:12:09.045003,51
2021-09-24 15:12:09.045013,43
2021-09-24 15:12:09.045024,38
2021-09-24 15:12:09.045034,21
2021-09-24 15:12:09.045044,2
2021-09-24 15:12:09.045054,-4
2021-09-24 15:12:09.045064,-4
2021-09-24 15:12:09.045074,-14
2021-09-24 15:12:09.045085,-9
2021-09-24 15:12:09.045095,7
2021-09-24 15:12:09.045105,19
2021-09-24 15:12:09.045115,21
2021-09-24 15:12:09.269825,24
2021-09-24 15:12:09.269847,26
2021-09-24 15:12:09.269855,19
2021-09-24 15:12:09.269862,17
2021-09-24 15:12:09.269869,24
2021-09-24 15:12:09.269876,24
2021-09-24 15:12:09.269883,7
2021-09-24 15:12:09.269889,-9
2021-09-24 15:12:09.269896,-48
2021-09-24 15:12:09.269903,-145
2021-09-24 15:12:09.269909,-361
2021-09-24 15:12:09.269916,-583
2021-09-24 15:12:09.269923,-495
2021-09-24 15:12:09.269929,17
2021-09-24 15:12:09.269936,575
2021-09-24 15:12:09.269942,590
2021-09-24 15:12:09.269949,182
2021-09-24 15:12:09.269956,19
2021-09-24 15:12:09.269962,48
2021-09-24 15:12:09.269969,-60
2021-09-24 15:12:09.269975,-148
2021-09-24 15:12:09.269982,-123
2021-09-24 15:12:09.269988,-128
2021-09-24 15:12:09.269995,-160
2021-09-24 15:12:09.270002,-165
2021-09-24 15:12:09.270008,-167
2021-09-24 15:12:09.270015,-179
2021-09-24 15:12:09.270021,-191
2021-09-24 15:12:09.270028,-211
2021-09-24 15:12:09.270034,-233
2021-09-24 15:12:09.494875,-238
2021-09-24 15:12:09.494907,-250
2021-09-24 15:12:09.494919,-286
2021-09-24 15:12:09.494929,-313
2021-09-24 15:12:09.494940,-335
2021-09-24 15:12:09.494950,-374
2021-09-24 15:12:09.494960,-412
2021-09-24 15:12:09.494970,-434
2021-09-24 15:12:09.494980,-442
2021-09-24 15:12:09.494991,-444
2021-09-24 15:12:09.495001,-442
2021-09-24 15:12:09.495011,-427
2021-09-24 15:12:09.495021,-378
2021-09-24 15:12:09.495031,-293
2021-09-24 15:12:09.495041,-194
2021-09-24 15:12:09.495052,-92
2021-09-24 15:12:09.495062,14
2021-09-24 15:12:09.495072,97
2021-09-24 15:12:09.495083,153
2021-09-24 15:12:09.495093,191
2021-09-24 15:12:09.495103,211
2021-09-24 15:12:09.495113,223
2021-09-24 15:12:09.495123,235
2021-09-24 15:12:09.495133,233
2021-09-24 15:12:09.495144,221
2021-09-24 15:12:09.495154,216
2021-09-24 15:12:09.495164,216
2021-09-24 15:12:09.495174,211
2021-09-24 15:12:09.495184,194
2021-09-24 15:12:09.495194,174
2021-09-24 15:12:09.764294,167
2021-09-24 15:12:09.764313,157
2021-09-24 15:12:09.764321,143
2021-09-24 15:12:09.764327,138
2021-09-24 15:12:09.764334,131
2021-09-24 15:12:09.764341,109
2021-09-24 15:12:09.764347,102
2021-09-24 15:12:09.764354,106
2021-09-24 15:12:09.764360,102
2021-09-24 15:12:09.764367,94
2021-09-24 15:12:09.764374,92
2021-09-24 15:12:09.764380,89
2021-09-24 15:12:09.764387,89
2021-09-24 15:12:09.764393,89
2021-09-24 15:12:09.764400,87
2021-09-24 15:12:09.764406,94
2021-09-24 15:12:09.764412,99
2021-09-24 15:12:09.764419,89
2021-09-24 15:12:09.764425,87
2021-09-24 15:12:09.764432,92
2021-09-24 15:12:09.764438,85
2021-09-24 15:12:09.764445,70
2021-09-24 15:12:09.764451,63
2021-09-24 15:12:09.764458,70
2021-09-24 15:12:09.764465,72
2021-09-24 15:12:09.764471,58
2021-09-24 15:12:09.764478,41
2021-09-24 15:12:09.764484,34
2021-09-24 15:12:09.764491,34
2021-09-24 15:12:09.764497,24
2021-09-24 15:12:09.944909,26
2021-09-24 15:12:09.944933,53
2021-09-24 15:12:09.944941,63
2021-09-24 15:12:09.944947,51
2021-09-24 15:12:09.944954,38
2021-09-24 15:12:09.944961,41
2021-09-24 15:12:09.944967,41
2021-09-24 15:12:09.944974,38
2021-09-24 15:12:09.944981,34
2021-09-24 15:12:09.944987,26
2021-09-24 15:12:09.944994,17
2021-09-24 15:12:09.945000,2
2021-09-24 15:12:09.945007,-29
2021-09-24 15:12:09.945014,-92
2021-09-24 15:12:09.945020,-264
2021-09-24 15:12:09.945027,-505
2021-09-24 15:12:09.945033,-527
2021-09-24 15:12:09.945040,-138
2021-09-24 15:12:09.945046,446
2021-09-24 15:12:09.945053,660
2021-09-24 15:12:09.945060,325
2021-09-24 15:12:09.945066,60
2021-09-24 15:12:09.945073,77
2021-09-24 15:12:09.945079,4
2021-09-24 15:12:09.945086,-119
2021-09-24 15:12:09.945092,-106
2021-09-24 15:12:09.945099,-89
2021-09-24 15:12:09.945105,-133
2021-09-24 15:12:09.945112,-150
2021-09-24 15:12:09.945118,-133
2021-09-24 15:12:10.214828,-143
2021-09-24 15:12:10.214851,-162
2021-09-24 15:12:10.214859,-172
2021-09-24 15:12:10.214866,-196
2021-09-24 15:12:10.214873,-223
2021-09-24 15:12:10.214879,-240
2021-09-24 15:12:10.214886,-252
2021-09-24 15:12:10.214892,-276
2021-09-24 15:12:10.214899,-310
2021-09-24 15:12:10.214905,-347
2021-09-24 15:12:10.214912,-378
2021-09-24 15:12:10.214918,-400
2021-09-24 15:12:10.214925,-417
2021-09-24 15:12:10.214931,-425
2021-09-24 15:12:10.214938,-422
2021-09-24 15:12:10.214944,-408
2021-09-24 15:12:10.214951,-366
2021-09-24 15:12:10.214957,-291
2021-09-24 15:12:10.214964,-184
2021-09-24 15:12:10.214970,-70
2021-09-24 15:12:10.214977,29
2021-09-24 15:12:10.214983,102
2021-09-24 15:12:10.214990,162
2021-09-24 15:12:10.214996,211
2021-09-24 15:12:10.215003,233
2021-09-24 15:12:10.215009,240
2021-09-24 15:12:10.215016,245
2021-09-24 15:12:10.215022,240
2021-09-24 15:12:10.215029,228
2021-09-24 15:12:10.215035,221
2021-09-24 15:12:10.484819,218
2021-09-24 15:12:10.484840,213
2021-09-24 15:12:10.484848,204
2021-09-24 15:12:10.484855,194
2021-09-24 15:12:10.484862,179
2021-09-24 15:12:10.484869,167
2021-09-24 15:12:10.484875,160
2021-09-24 15:12:10.484882,150
2021-09-24 15:12:10.484888,131
2021-09-24 15:12:10.484895,114
2021-09-24 15:12:10.484902,111
2021-09-24 15:12:10.484908,111
2021-09-24 15:12:10.484915,111
2021-09-24 15:12:10.484922,111
2021-09-24 15:12:10.484928,99
2021-09-24 15:12:10.484935,87
2021-09-24 15:12:10.484942,97
2021-09-24 15:12:10.484948,104
2021-09-24 15:12:10.484955,97
2021-09-24 15:12:10.484961,97
2021-09-24 15:12:10.484968,99
2021-09-24 15:12:10.484975,97
2021-09-24 15:12:10.484981,94
2021-09-24 15:12:10.484988,99
2021-09-24 15:12:10.484994,102
2021-09-24 15:12:10.485001,99
2021-09-24 15:12:10.485007,97
2021-09-24 15:12:10.485014,102
2021-09-24 15:12:10.485021,104
2021-09-24 15:12:10.485036,99
2021-09-24 15:12:10.664829,92
2021-09-24 15:12:10.664851,85
2021-09-24 15:12:10.664859,70
2021-09-24 15:12:10.664866,51
2021-09-24 15:12:10.664873,38
2021-09-24 15:12:10.664880,48
2021-09-24 15:12:10.664887,75
2021-09-24 15:12:10.664894,92
2021-09-24 15:12:10.664900,80
2021-09-24 15:12:10.664907,63
2021-09-24 15:12:10.664914,65
2021-09-24 15:12:10.664921,75
2021-09-24 15:12:10.664928,72
2021-09-24 15:12:10.664934,58
2021-09-24 15:12:10.664941,48
2021-09-24 15:12:10.664948,46
2021-09-24 15:12:10.664955,24
2021-09-24 15:12:10.664962,-38
2021-09-24 15:12:10.664969,-170
2021-09-24 15:12:10.664976,-412
2021-09-24 15:12:10.664983,-558
2021-09-24 15:12:10.664990,-320
2021-09-24 15:12:10.664997,213
2021-09-24 15:12:10.665003,643
2021-09-24 15:12:10.665010,563
2021-09-24 15:12:10.665017,177
2021-09-24 15:12:10.665024,46
2021-09-24 15:12:10.665031,51
2021-09-24 15:12:10.665038,-72
2021-09-24 15:12:10.665044,-131
2021-09-24 15:12:10.979025,-92
2021-09-24 15:12:10.979046,-111
2021-09-24 15:12:10.979054,-148
2021-09-24 15:12:10.979060,-155
2021-09-24 15:12:10.979067,-167
2021-09-24 15:12:10.979073,-184
2021-09-24 15:12:10.979080,-189
2021-09-24 15:12:10.979086,-206
2021-09-24 15:12:10.979092,-228
2021-09-24 15:12:10.979099,-242
2021-09-24 15:12:10.979105,-259
2021-09-24 15:12:10.979111,-284
2021-09-24 15:12:10.979118,-318
2021-09-24 15:12:10.979124,-352
2021-09-24 15:12:10.979130,-378
2021-09-24 15:12:10.979137,-405
2021-09-24 15:12:10.979143,-432
2021-09-24 15:12:10.979150,-444
2021-09-24 15:12:10.979156,-451
2021-09-24 15:12:10.979162,-446
2021-09-24 15:12:10.979169,-417
2021-09-24 15:12:10.979175,-361
2021-09-24 15:12:10.979181,-272
2021-09-24 15:12:10.979188,-160
2021-09-24 15:12:10.979194,-51
2021-09-24 15:12:10.979201,43
2021-09-24 15:12:10.979207,121
2021-09-24 15:12:10.979213,174
2021-09-24 15:12:10.979220,208
2021-09-24 15:12:10.979226,230
2021-09-24 15:12:11.114647,238
2021-09-24 15:12:11.114671,235
2021-09-24 15:12:11.114679,235
2021-09-24 15:12:11.114685,230
2021-09-24 15:12:11.114692,221
2021-09-24 15:12:11.114698,218
2021-09-24 15:12:11.114705,204
2021-09-24 15:12:11.114712,189
2021-09-24 15:12:11.114718,187
2021-09-24 15:12:11.114725,179
2021-09-24 15:12:11.114731,170
2021-09-24 15:12:11.114738,165
2021-09-24 15:12:11.114744,153
2021-09-24 15:12:11.114751,133
2021-09-24 15:12:11.114757,126
2021-09-24 15:12:11.114764,123
2021-09-24 15:12:11.114770,119
2021-09-24 15:12:11.114777,114
2021-09-24 15:12:11.114783,102
2021-09-24 15:12:11.114789,92
2021-09-24 15:12:11.114796,99
2021-09-24 15:12:11.114802,99
2021-09-24 15:12:11.114809,97
2021-09-24 15:12:11.114815,97
2021-09-24 15:12:11.114822,97
2021-09-24 15:12:11.114828,99
2021-09-24 15:12:11.114835,99
2021-09-24 15:12:11.114841,97
2021-09-24 15:12:11.114847,99
2021-09-24 15:12:11.114854,99
2021-09-24 15:12:11.429228,94
2021-09-24 15:12:11.429252,92
2021-09-24 15:12:11.429260,94
2021-09-24 15:12:11.429267,92
2021-09-24 15:12:11.429274,89
2021-09-24 15:12:11.429281,92
2021-09-24 15:12:11.429288,87
2021-09-24 15:12:11.429295,82
2021-09-24 15:12:11.429301,72
2021-09-24 15:12:11.429308,53
2021-09-24 15:12:11.429315,31
2021-09-24 15:12:11.429322,19
2021-09-24 15:12:11.429329,17
2021-09-24 15:12:11.429336,29
2021-09-24 15:12:11.429342,48
2021-09-24 15:12:11.429349,48
2021-09-24 15:12:11.429356,38
2021-09-24 15:12:11.429363,36
2021-09-24 15:12:11.429370,34
2021-09-24 15:12:11.429377,34
2021-09-24 15:12:11.429383,36
2021-09-24 15:12:11.429390,36
2021-09-24 15:12:11.429397,36
2021-09-24 15:12:11.429404,26
2021-09-24 15:12:11.429411,2
2021-09-24 15:12:11.429418,-53
2021-09-24 15:12:11.429425,-189
2021-09-24 15:12:11.429432,-437
2021-09-24 15:12:11.429439,-558
2021-09-24 15:12:11.429445,-286
2021-09-24 15:12:11.655106,262
2021-09-24 15:12:11.655139,680
2021-09-24 15:12:11.655150,556
2021-09-24 15:12:11.655161,150
2021-09-24 15:12:11.655171,24
2021-09-24 15:12:11.655181,14
2021-09-24 15:12:11.655191,-106
2021-09-24 15:12:11.655201,-143
2021-09-24 15:12:11.655211,-106
2021-09-24 15:12:11.655221,-131
2021-09-24 15:12:11.655231,-167
2021-09-24 15:12:11.655241,-167
2021-09-24 15:12:11.655251,-172
2021-09-24 15:12:11.655261,-184
2021-09-24 15:12:11.655271,-194
2021-09-24 15:12:11.655281,-204
2021-09-24 15:12:11.655291,-216
2021-09-24 15:12:11.655301,-233
2021-09-24 15:12:11.655311,-250
2021-09-24 15:12:11.655321,-272
2021-09-24 15:12:11.655331,-298
2021-09-24 15:12:11.655341,-330
2021-09-24 15:12:11.655352,-361
2021-09-24 15:12:11.655362,-393
2021-09-24 15:12:11.655371,-420
2021-09-24 15:12:11.655381,-437
2021-09-24 15:12:11.655391,-446
2021-09-24 15:12:11.655401,-439
2021-09-24 15:12:11.655411,-415
2021-09-24 15:12:11.655422,-361
2021-09-24 15:12:11.789819,-267
2021-09-24 15:12:11.789843,-155
2021-09-24 15:12:11.789851,-48
2021-09-24 15:12:11.789858,43
2021-09-24 15:12:11.789865,114
2021-09-24 15:12:11.789871,170
2021-09-24 15:12:11.789878,211
2021-09-24 15:12:11.789884,230
2021-09-24 15:12:11.789891,235
2021-09-24 15:12:11.789897,233
2021-09-24 15:12:11.789903,228
2021-09-24 15:12:11.789910,223
2021-09-24 15:12:11.789916,218
2021-09-24 15:12:11.789923,216
2021-09-24 15:12:11.789929,208
2021-09-24 15:12:11.789935,187
2021-09-24 15:12:11.789942,167
2021-09-24 15:12:11.789949,162
2021-09-24 15:12:11.789955,157
2021-09-24 15:12:11.789961,143
2021-09-24 15:12:11.789968,128
2021-09-24 15:12:11.789974,116
2021-09-24 15:12:11.789981,106
2021-09-24 15:12:11.789987,104
2021-09-24 15:12:11.789993,102
2021-09-24 15:12:11.790000,99
2021-09-24 15:12:11.790006,94
2021-09-24 15:12:11.790013,87
2021-09-24 15:12:11.790019,85
2021-09-24 15:12:11.790026,87
2021-09-24 15:12:12.059849,87
2021-09-24 15:12:12.059871,89
2021-09-24 15:12:12.059878,92
2021-09-24 15:12:12.059885,80
2021-09-24 15:12:12.059892,72
2021-09-24 15:12:12.059898,82
2021-09-24 15:12:12.059905,85
2021-09-24 15:12:12.059911,82
2021-09-24 15:12:12.059918,80
2021-09-24 15:12:12.059924,72
2021-09-24 15:12:12.059931,68
2021-09-24 15:12:12.059937,72
2021-09-24 15:12:12.059944,75
2021-09-24 15:12:12.059950,72
2021-09-24 15:12:12.059957,70
2021-09-24 15:12:12.059963,68
2021-09-24 15:12:12.059970,65
2021-09-24 15:12:12.059976,65
2021-09-24 15:12:12.059983,75
2021-09-24 15:12:12.059989,82
2021-09-24 15:12:12.059996,70
2021-09-24 15:12:12.060002,43
2021-09-24 15:12:12.060009,24
2021-09-24 15:12:12.060015,24
2021-09-24 15:12:12.060022,31
2021-09-24 15:12:12.060028,26
2021-09-24 15:12:12.060035,26
2021-09-24 15:12:12.060041,38
2021-09-24 15:12:12.060047,55
2021-09-24 15:12:12.060054,58
2021-09-24 15:12:12.284835,53
2021-09-24 15:12:12.284859,53
2021-09-24 15:12:12.284868,53
2021-09-24 15:12:12.284875,51
2021-09-24 15:12:12.284882,46
2021-09-24 15:12:12.284889,48
2021-09-24 15:12:12.284896,51
2021-09-24 15:12:12.284903,41
2021-09-24 15:12:12.284910,-2
2021-09-24 15:12:12.284917,-80
2021-09-24 15:12:12.284924,-250
2021-09-24 15:12:12.284931,-500
2021-09-24 15:12:12.284938,-529
2021-09-24 15:12:12.284944,-140
2021-09-24 15:12:12.284951,429
2021-09-24 15:12:12.284958,685
2021-09-24 15:12:12.284965,398
2021-09-24 15:12:12.284972,70
2021-09-24 15:12:12.284979,31
2021-09-24 15:12:12.284986,-21
2021-09-24 15:12:12.284993,-138
2021-09-24 15:12:12.285000,-148
2021-09-24 15:12:12.285006,-136
2021-09-24 15:12:12.285013,-170
2021-09-24 15:12:12.285020,-182
2021-09-24 15:12:12.285027,-177
2021-09-24 15:12:12.285034,-191
2021-09-24 15:12:12.285041,-206
2021-09-24 15:12:12.285047,-206
2021-09-24 15:12:12.285054,-213
2021-09-24 15:12:12.509953,-230
2021-09-24 15:12:12.509998,-247
2021-09-24 15:12:12.510007,-269
2021-09-24 15:12:12.510014,-293
2021-09-24 15:12:12.510020,-313
2021-09-24 15:12:12.510026,-337
2021-09-24 15:12:12.510033,-369
2021-09-24 15:12:12.510039,-405
2021-09-24 15:12:12.510046,-432
2021-09-24 15:12:12.510052,-446
2021-09-24 15:12:12.510059,-451
2021-09-24 15:12:12.510066,-439
2021-09-24 15:12:12.510072,-410
2021-09-24 15:12:12.510078,-357
2021-09-24 15:12:12.510085,-269
2021-09-24 15:12:12.510091,-157
2021-09-24 15:12:12.510098,-51
2021-09-24 15:12:12.510104,43
2021-09-24 15:12:12.510111,119
2021-09-24 15:12:12.510117,167
2021-09-24 15:12:12.510124,196
2021-09-24 15:12:12.510130,216
2021-09-24 15:12:12.510137,223
2021-09-24 15:12:12.510143,223
2021-09-24 15:12:12.510150,223
2021-09-24 15:12:12.510156,213
2021-09-24 15:12:12.510163,199
2021-09-24 15:12:12.510169,194
2021-09-24 15:12:12.510176,191
2021-09-24 15:12:12.510182,182
2021-09-24 15:12:12.734941,172
2021-09-24 15:12:12.734971,165
2021-09-24 15:12:12.734983,150
2021-09-24 15:12:12.734993,143
2021-09-24 15:12:12.735003,140
2021-09-24 15:12:12.735014,133
2021-09-24 15:12:12.735024,123
2021-09-24 15:12:12.735033,114
2021-09-24 15:12:12.735044,106
2021-09-24 15:12:12.735053,106
2021-09-24 15:12:12.735063,106
2021-09-24 15:12:12.735073,104
2021-09-24 15:12:12.735083,97
2021-09-24 15:12:12.735094,92
2021-09-24 15:12:12.735104,89
2021-09-24 15:12:12.735114,92
2021-09-24 15:12:12.735124,97
2021-09-24 15:12:12.735134,94
2021-09-24 15:12:12.735144,94
2021-09-24 15:12:12.735153,94
2021-09-24 15:12:12.735163,89
2021-09-24 15:12:12.735173,87
2021-09-24 15:12:12.735183,92
2021-09-24 15:12:12.735193,94
2021-09-24 15:12:12.735203,89
2021-09-24 15:12:12.735213,85
2021-09-24 15:12:12.735223,82
2021-09-24 15:12:12.735233,70
2021-09-24 15:12:12.735243,60
2021-09-24 15:12:12.735253,65
2021-09-24 15:12:13.003227,65
2021-09-24 15:12:13.003248,58
2021-09-24 15:12:13.003256,60
2021-09-24 15:12:13.003263,65
2021-09-24 15:12:13.003269,65
2021-09-24 15:12:13.003276,53
2021-09-24 15:12:13.003282,29
2021-09-24 15:12:13.003289,12
2021-09-24 15:12:13.003295,19
2021-09-24 15:12:13.003302,17
2021-09-24 15:12:13.003308,0
2021-09-24 15:12:13.003315,9
2021-09-24 15:12:13.003321,31
2021-09-24 15:12:13.003328,38
2021-09-24 15:12:13.003335,41
2021-09-24 15:12:13.003341,41
2021-09-24 15:12:13.003348,41
2021-09-24 15:12:13.003354,41
2021-09-24 15:12:13.003361,41
2021-09-24 15:12:13.003367,41
2021-09-24 15:12:13.003374,46
2021-09-24 15:12:13.003380,41
2021-09-24 15:12:13.003387,21
2021-09-24 15:12:13.003394,-17
2021-09-24 15:12:13.003400,-133
2021-09-24 15:12:13.003407,-381
2021-09-24 15:12:13.003414,-573
2021-09-24 15:12:13.003420,-378
2021-09-24 15:12:13.003427,172
2021-09-24 15:12:13.003433,641
2021-09-24 15:12:13.184340,575
2021-09-24 15:12:13.184362,189
2021-09-24 15:12:13.184369,38
2021-09-24 15:12:13.184376,29
2021-09-24 15:12:13.184382,-89
2021-09-24 15:12:13.184388,-148
2021-09-24 15:12:13.184395,-116
2021-09-24 15:12:13.184401,-136
2021-09-24 15:12:13.184407,-162
2021-09-24 15:12:13.184413,-155
2021-09-24 15:12:13.184419,-162
2021-09-24 15:12:13.184426,-187
2021-09-24 15:12:13.184432,-196
2021-09-24 15:12:13.184442,-199
2021-09-24 15:12:13.184452,-213
2021-09-24 15:12:13.184462,-233
2021-09-24 15:12:13.184472,-245
2021-09-24 15:12:13.184482,-267
2021-09-24 15:12:13.184492,-293
2021-09-24 15:12:13.184503,-318
2021-09-24 15:12:13.184513,-347
2021-09-24 15:12:13.184528,-378
2021-09-24 15:12:13.184539,-403
2021-09-24 15:12:13.184550,-417
2021-09-24 15:12:13.184561,-425
2021-09-24 15:12:13.184573,-420
2021-09-24 15:12:13.184585,-405
2021-09-24 15:12:13.184596,-361
2021-09-24 15:12:13.184605,-279
2021-09-24 15:12:13.184616,-182
2021-09-24 15:12:13.409939,-82
2021-09-24 15:12:13.409969,17
2021-09-24 15:12:13.409981,87
2021-09-24 15:12:13.409992,136
2021-09-24 15:12:13.410002,170
2021-09-24 15:12:13.410012,187
2021-09-24 15:12:13.410022,196
2021-09-24 15:12:13.410032,208
2021-09-24 15:12:13.410042,211
2021-09-24 15:12:13.410052,201
2021-09-24 15:12:13.410062,196
2021-09-24 15:12:13.410071,187
2021-09-24 15:12:13.410081,174
2021-09-24 15:12:13.410091,167
2021-09-24 15:12:13.410101,162
2021-09-24 15:12:13.410111,148
2021-09-24 15:12:13.410121,136
2021-09-24 15:12:13.410131,131
2021-09-24 15:12:13.410141,128
2021-09-24 15:12:13.410150,123
2021-09-24 15:12:13.410160,116
2021-09-24 15:12:13.410170,111
2021-09-24 15:12:13.410180,109
2021-09-24 15:12:13.410190,106
2021-09-24 15:12:13.410200,104
2021-09-24 15:12:13.410210,104
2021-09-24 15:12:13.410219,104
2021-09-24 15:12:13.410229,106
2021-09-24 15:12:13.410239,104
2021-09-24 15:12:13.410249,99
2021-09-24 15:12:13.679181,102
2021-09-24 15:12:13.679200,109
2021-09-24 15:12:13.679206,109
2021-09-24 15:12:13.679212,94
2021-09-24 15:12:13.679218,77
2021-09-24 15:12:13.679224,77
2021-09-24 15:12:13.679229,82
2021-09-24 15:12:13.679235,80
2021-09-24 15:12:13.679241,80
2021-09-24 15:12:13.679246,75
2021-09-24 15:12:13.679252,63
2021-09-24 15:12:13.679258,60
2021-09-24 15:12:13.679263,68
2021-09-24 15:12:13.679269,63
2021-09-24 15:12:13.679275,55
2021-09-24 15:12:13.679280,53
2021-09-24 15:12:13.679286,51
2021-09-24 15:12:13.679292,51
2021-09-24 15:12:13.679297,58
2021-09-24 15:12:13.679303,51
2021-09-24 15:12:13.679309,34
2021-09-24 15:12:13.679314,17
2021-09-24 15:12:13.679320,14
2021-09-24 15:12:13.679326,14
2021-09-24 15:12:13.679332,12
2021-09-24 15:12:13.679337,21
2021-09-24 15:12:13.679343,41
2021-09-24 15:12:13.679349,48
2021-09-24 15:12:13.679354,48
2021-09-24 15:12:13.679360,51
2021-09-24 15:12:13.949894,48
2021-09-24 15:12:13.949917,43
2021-09-24 15:12:13.949925,34
2021-09-24 15:12:13.949932,19
2021-09-24 15:12:13.949938,9
2021-09-24 15:12:13.949945,7
2021-09-24 15:12:13.949951,-4
2021-09-24 15:12:13.949958,-41
2021-09-24 15:12:13.949964,-143
2021-09-24 15:12:13.949971,-376
2021-09-24 15:12:13.949977,-612
2021-09-24 15:12:13.949984,-502
2021-09-24 15:12:13.949990,21
2021-09-24 15:12:13.949997,563
2021-09-24 15:12:13.950003,583
2021-09-24 15:12:13.950010,189
2021-09-24 15:12:13.950016,17
2021-09-24 15:12:13.950023,36
2021-09-24 15:12:13.950029,-70
2021-09-24 15:12:13.950036,-150
2021-09-24 15:12:13.950042,-123
2021-09-24 15:12:13.950049,-133
2021-09-24 15:12:13.950055,-157
2021-09-24 15:12:13.950062,-153
2021-09-24 15:12:13.950068,-157
2021-09-24 15:12:13.950075,-174
2021-09-24 15:12:13.950081,-187
2021-09-24 15:12:13.950088,-196
2021-09-24 15:12:13.950095,-208
2021-09-24 15:12:13.950101,-221
2021-09-24 15:12:14.175038,-238
2021-09-24 15:12:14.175068,-257
2021-09-24 15:12:14.175081,-286
2021-09-24 15:12:14.175091,-320
2021-09-24 15:12:14.175101,-347
2021-09-24 15:12:14.175111,-369
2021-09-24 15:12:14.175121,-393
2021-09-24 15:12:14.175131,-415
2021-09-24 15:12:14.175141,-432
2021-09-24 15:12:14.175151,-434
2021-09-24 15:12:14.175161,-412
2021-09-24 15:12:14.175171,-364
2021-09-24 15:12:14.175181,-286
2021-09-24 15:12:14.175191,-184
2021-09-24 15:12:14.175201,-87
2021-09-24 15:12:14.175212,-2
2021-09-24 15:12:14.175222,77
2021-09-24 15:12:14.175232,148
2021-09-24 15:12:14.175242,191
2021-09-24 15:12:14.175252,213
2021-09-24 15:12:14.175261,218
2021-09-24 15:12:14.175272,213
2021-09-24 15:12:14.175282,218
2021-09-24 15:12:14.175292,223
2021-09-24 15:12:14.175302,213
2021-09-24 15:12:14.175312,204
2021-09-24 15:12:14.175322,196
2021-09-24 15:12:14.175332,184
2021-09-24 15:12:14.175342,172
2021-09-24 15:12:14.175352,165
2021-09-24 15:12:14.354984,157
2021-09-24 15:12:14.355007,148
2021-09-24 15:12:14.355015,133
2021-09-24 15:12:14.355021,123
2021-09-24 15:12:14.355028,123
2021-09-24 15:12:14.355034,119
2021-09-24 15:12:14.355041,116
2021-09-24 15:12:14.355047,114
2021-09-24 15:12:14.355086,99
2021-09-24 15:12:14.355093,85
2021-09-24 15:12:14.355099,87
2021-09-24 15:12:14.355106,94
2021-09-24 15:12:14.355112,94
2021-09-24 15:12:14.355118,92
2021-09-24 15:12:14.355125,87
2021-09-24 15:12:14.355131,80
2021-09-24 15:12:14.355138,77
2021-09-24 15:12:14.355145,80
2021-09-24 15:12:14.355151,75
2021-09-24 15:12:14.355157,68
2021-09-24 15:12:14.355164,60
2021-09-24 15:12:14.355170,60
2021-09-24 15:12:14.355177,60
2021-09-24 15:12:14.355183,55
2021-09-24 15:12:14.355190,55
2021-09-24 15:12:14.355196,65
2021-09-24 15:12:14.355203,68
2021-09-24 15:12:14.355209,58
2021-09-24 15:12:14.355247,48
2021-09-24 15:12:14.355254,43
2021-09-24 15:12:14.670088,34
2021-09-24 15:12:14.670109,19
2021-09-24 15:12:14.670117,9
2021-09-24 15:12:14.670124,17
2021-09-24 15:12:14.670130,38
2021-09-24 15:12:14.670137,53
2021-09-24 15:12:14.670143,41
2021-09-24 15:12:14.670150,19
2021-09-24 15:12:14.670156,19
2021-09-24 15:12:14.670163,26
2021-09-24 15:12:14.670170,24
2021-09-24 15:12:14.670176,19
2021-09-24 15:12:14.670183,17
2021-09-24 15:12:14.670189,9
2021-09-24 15:12:14.670195,-17
2021-09-24 15:12:14.670202,-63
2021-09-24 15:12:14.670208,-148
2021-09-24 15:12:14.670215,-342
2021-09-24 15:12:14.670221,-546
2021-09-24 15:12:14.670227,-442
2021-09-24 15:12:14.670234,58
2021-09-24 15:12:14.670240,583
2021-09-24 15:12:14.670246,590
2021-09-24 15:12:14.670253,201
2021-09-24 15:12:14.670259,43
2021-09-24 15:12:14.670266,63
2021-09-24 15:12:14.670272,-51
2021-09-24 15:12:14.670278,-140
2021-09-24 15:12:14.670285,-109
2021-09-24 15:12:14.670291,-106
2021-09-24 15:12:14.804937,-143
2021-09-24 15:12:14.804967,-148
2021-09-24 15:12:14.804979,-148
2021-09-24 15:12:14.804990,-165
2021-09-24 15:12:14.805000,-172
2021-09-24 15:12:14.805010,-179
2021-09-24 15:12:14.805020,-199
2021-09-24 15:12:14.805030,-218
2021-09-24 15:12:14.805040,-230
2021-09-24 15:12:14.805049,-252
2021-09-24 15:12:14.805059,-276
2021-09-24 15:12:14.805069,-303
2021-09-24 15:12:14.805079,-335
2021-09-24 15:12:14.805089,-374
2021-09-24 15:12:14.805099,-403
2021-09-24 15:12:14.805109,-410
2021-09-24 15:12:14.805119,-415
2021-09-24 15:12:14.805129,-415
2021-09-24 15:12:14.805139,-395
2021-09-24 15:12:14.805149,-349
2021-09-24 15:12:14.805159,-276
2021-09-24 15:12:14.805169,-179
2021-09-24 15:12:14.805178,-70
2021-09-24 15:12:14.805188,19
2021-09-24 15:12:14.805198,82
2021-09-24 15:12:14.805208,133
2021-09-24 15:12:14.805218,179
2021-09-24 15:12:14.805229,204
2021-09-24 15:12:14.805239,211
2021-09-24 15:12:14.805249,213
2021-09-24 15:12:15.119178,211
2021-09-24 15:12:15.119210,204
2021-09-24 15:12:15.119222,204
2021-09-24 15:12:15.119232,196
2021-09-24 15:12:15.119242,189
2021-09-24 15:12:15.119252,177
2021-09-24 15:12:15.119262,157
2021-09-24 15:12:15.119272,148
2021-09-24 15:12:15.119282,145
2021-09-24 15:12:15.119292,136
2021-09-24 15:12:15.119302,126
2021-09-24 15:12:15.119312,116
2021-09-24 15:12:15.119322,109
2021-09-24 15:12:15.119332,102
2021-09-24 15:12:15.119343,99
2021-09-24 15:12:15.119353,92
2021-09-24 15:12:15.119363,85
2021-09-24 15:12:15.119373,82
2021-09-24 15:12:15.119383,85
2021-09-24 15:12:15.119393,89
2021-09-24 15:12:15.119403,92
2021-09-24 15:12:15.119413,92
2021-09-24 15:12:15.119422,87
2021-09-24 15:12:15.119432,89
2021-09-24 15:12:15.119442,89
2021-09-24 15:12:15.119452,87
2021-09-24 15:12:15.119462,82
2021-09-24 15:12:15.119472,80
2021-09-24 15:12:15.119482,80
2021-09-24 15:12:15.119492,77
2021-09-24 15:12:15.255020,77
2021-09-24 15:12:15.255041,80
2021-09-24 15:12:15.255049,80
2021-09-24 15:12:15.255056,75
2021-09-24 15:12:15.255062,77
2021-09-24 15:12:15.255069,77
2021-09-24 15:12:15.255075,65
2021-09-24 15:12:15.255081,53
2021-09-24 15:12:15.255088,51
2021-09-24 15:12:15.255094,43
2021-09-24 15:12:15.255101,26
2021-09-24 15:12:15.255107,12
2021-09-24 15:12:15.255114,19
2021-09-24 15:12:15.255120,43
2021-09-24 15:12:15.255127,43
2021-09-24 15:12:15.255133,36
2021-09-24 15:12:15.255139,41
2021-09-24 15:12:15.255146,36
2021-09-24 15:12:15.255153,24
2021-09-24 15:12:15.255159,26
2021-09-24 15:12:15.255165,34
2021-09-24 15:12:15.255172,24
2021-09-24 15:12:15.255178,2
2021-09-24 15:12:15.255185,-36
2021-09-24 15:12:15.255191,-116
2021-09-24 15:12:15.255198,-298
2021-09-24 15:12:15.255204,-534
2021-09-24 15:12:15.255211,-514
2021-09-24 15:12:15.255217,-94
2021-09-24 15:12:15.255224,468
2021-09-24 15:12:15.479969,651
2021-09-24 15:12:15.479991,315
2021-09-24 15:12:15.479999,51
2021-09-24 15:12:15.480006,55
2021-09-24 15:12:15.480013,-26
2021-09-24 15:12:15.480021,-145
2021-09-24 15:12:15.480027,-128
2021-09-24 15:12:15.480034,-106
2021-09-24 15:12:15.480041,-143
2021-09-24 15:12:15.480048,-155
2021-09-24 15:12:15.480055,-155
2021-09-24 15:12:15.480062,-179
2021-09-24 15:12:15.480068,-189
2021-09-24 15:12:15.480075,-187
2021-09-24 15:12:15.480082,-196
2021-09-24 15:12:15.480089,-218
2021-09-24 15:12:15.480096,-235
2021-09-24 15:12:15.480103,-250
2021-09-24 15:12:15.480110,-269
2021-09-24 15:12:15.480117,-301
2021-09-24 15:12:15.480123,-337
2021-09-24 15:12:15.480130,-371
2021-09-24 15:12:15.480137,-393
2021-09-24 15:12:15.480144,-408
2021-09-24 15:12:15.480151,-417
2021-09-24 15:12:15.480157,-412
2021-09-24 15:12:15.480164,-395
2021-09-24 15:12:15.480171,-361
2021-09-24 15:12:15.480178,-298
2021-09-24 15:12:15.480185,-201
2021-09-24 15:12:15.749927,-89
2021-09-24 15:12:15.749950,9
2021-09-24 15:12:15.749958,94
2021-09-24 15:12:15.749964,150
2021-09-24 15:12:15.749971,184
2021-09-24 15:12:15.749977,213
2021-09-24 15:12:15.749984,235
2021-09-24 15:12:15.749990,238
2021-09-24 15:12:15.749997,233
2021-09-24 15:12:15.750003,223
2021-09-24 15:12:15.750010,213
2021-09-24 15:12:15.750016,213
2021-09-24 15:12:15.750022,206
2021-09-24 15:12:15.750029,194
2021-09-24 15:12:15.750035,187
2021-09-24 15:12:15.750042,174
2021-09-24 15:12:15.750048,167
2021-09-24 15:12:15.750055,162
2021-09-24 15:12:15.750061,157
2021-09-24 15:12:15.750067,145
2021-09-24 15:12:15.750074,138
2021-09-24 15:12:15.750080,128
2021-09-24 15:12:15.750087,116
2021-09-24 15:12:15.750093,111
2021-09-24 15:12:15.750099,114
2021-09-24 15:12:15.750106,111
2021-09-24 15:12:15.750112,106
2021-09-24 15:12:15.750119,106
2021-09-24 15:12:15.750125,106
2021-09-24 15:12:15.750132,109
2021-09-24 15:12:15.974885,106
2021-09-24 15:12:15.974908,106
2021-09-24 15:12:15.974916,106
2021-09-24 15:12:15.974923,92
2021-09-24 15:12:15.974929,80
2021-09-24 15:12:15.974936,89
2021-09-24 15:12:15.974942,94
2021-09-24 15:12:15.974949,92
2021-09-24 15:12:15.974955,92
2021-09-24 15:12:15.974961,77
2021-09-24 15:12:15.974968,63
2021-09-24 15:12:15.974974,68
2021-09-24 15:12:15.974981,75
2021-09-24 15:12:15.974987,70
2021-09-24 15:12:15.974994,63
2021-09-24 15:12:15.975000,63
2021-09-24 15:12:15.975007,68
2021-09-24 15:12:15.975013,68
2021-09-24 15:12:15.975020,55
2021-09-24 15:12:15.975026,36
2021-09-24 15:12:15.975033,24
2021-09-24 15:12:15.975039,24
2021-09-24 15:12:15.975045,19
2021-09-24 15:12:15.975052,21
2021-09-24 15:12:15.975058,34
2021-09-24 15:12:15.975065,43
2021-09-24 15:12:15.975071,38
2021-09-24 15:12:15.975078,31
2021-09-24 15:12:15.975084,31
2021-09-24 15:12:15.975091,36
2021-09-24 15:12:16.244958,38
2021-09-24 15:12:16.244988,36
2021-09-24 15:12:16.245001,29
2021-09-24 15:12:16.245011,19
2021-09-24 15:12:16.245021,4
2021-09-24 15:12:16.245032,-36
2021-09-24 15:12:16.245042,-145
2021-09-24 15:12:16.245052,-381
2021-09-24 15:12:16.245062,-575
2021-09-24 15:12:16.245072,-415
2021-09-24 15:12:16.245083,94
2021-09-24 15:12:16.245093,587
2021-09-24 15:12:16.245103,607
2021-09-24 15:12:16.245113,225
2021-09-24 15:12:16.245123,31
2021-09-24 15:12:16.245133,41
2021-09-24 15:12:16.245143,-55
2021-09-24 15:12:16.245154,-131
2021-09-24 15:12:16.245164,-99
2021-09-24 15:12:16.245174,-106
2021-09-24 15:12:16.245184,-143
2021-09-24 15:12:16.245194,-145
2021-09-24 15:12:16.245204,-143
2021-09-24 15:12:16.245214,-160
2021-09-24 15:12:16.245224,-170
2021-09-24 15:12:16.245234,-177
2021-09-24 15:12:16.245244,-191
2021-09-24 15:12:16.245255,-206
2021-09-24 15:12:16.245265,-221
2021-09-24 15:12:16.245275,-242
2021-09-24 15:12:16.469152,-264
2021-09-24 15:12:16.469175,-291
2021-09-24 15:12:16.469183,-332
2021-09-24 15:12:16.469211,-359
2021-09-24 15:12:16.469218,-378
2021-09-24 15:12:16.469225,-398
2021-09-24 15:12:16.469232,-412
2021-09-24 15:12:16.469239,-412
2021-09-24 15:12:16.469246,-408
2021-09-24 15:12:16.469253,-381
2021-09-24 15:12:16.469260,-303
2021-09-24 15:12:16.469267,-194
2021-09-24 15:12:16.469274,-87
2021-09-24 15:12:16.469281,7
2021-09-24 15:12:16.469288,87
2021-09-24 15:12:16.469295,148
2021-09-24 15:12:16.469302,189
2021-09-24 15:12:16.469309,213
2021-09-24 15:12:16.469316,225
2021-09-24 15:12:16.469323,225
2021-09-24 15:12:16.469330,216
2021-09-24 15:12:16.469337,211
2021-09-24 15:12:16.469343,211
2021-09-24 15:12:16.469351,208
2021-09-24 15:12:16.469357,204
2021-09-24 15:12:16.469364,191
2021-09-24 15:12:16.469371,182
2021-09-24 15:12:16.469378,170
2021-09-24 15:12:16.469385,153
2021-09-24 15:12:16.469392,140
2021-09-24 15:12:16.650424,136
2021-09-24 15:12:16.650448,128
2021-09-24 15:12:16.650456,121
2021-09-24 15:12:16.650493,119
2021-09-24 15:12:16.650500,119
2021-09-24 15:12:16.650507,114
2021-09-24 15:12:16.650513,104
2021-09-24 15:12:16.650520,99
2021-09-24 15:12:16.650526,99
2021-09-24 15:12:16.650532,102
2021-09-24 15:12:16.650539,102
2021-09-24 15:12:16.650545,104
2021-09-24 15:12:16.650552,97
2021-09-24 15:12:16.650558,92
2021-09-24 15:12:16.650565,94
2021-09-24 15:12:16.650571,92
2021-09-24 15:12:16.650577,89
2021-09-24 15:12:16.650584,94
2021-09-24 15:12:16.650590,92
2021-09-24 15:12:16.650596,85
2021-09-24 15:12:16.650603,89
2021-09-24 15:12:16.650609,92
2021-09-24 15:12:16.650616,87
2021-09-24 15:12:16.650622,82
2021-09-24 15:12:16.650628,80
2021-09-24 15:12:16.650635,80
2021-09-24 15:12:16.650641,87
2021-09-24 15:12:16.650648,77
2021-09-24 15:12:16.650654,60
2021-09-24 15:12:16.650660,46
2021-09-24 15:12:16.874689,34
2021-09-24 15:12:16.874712,31
2021-09-24 15:12:16.874720,34
2021-09-24 15:12:16.874726,36
2021-09-24 15:12:16.874733,53
2021-09-24 15:12:16.874739,70
2021-09-24 15:12:16.874746,63
2021-09-24 15:12:16.874753,55
2021-09-24 15:12:16.874759,63
2021-09-24 15:12:16.874766,63
2021-09-24 15:12:16.874772,51
2021-09-24 15:12:16.874779,43
2021-09-24 15:12:16.874785,38
2021-09-24 15:12:16.874792,29
2021-09-24 15:12:16.874798,12
2021-09-24 15:12:16.874805,-38
2021-09-24 15:12:16.874812,-136
2021-09-24 15:12:16.874818,-325
2021-09-24 15:12:16.874825,-522
2021-09-24 15:12:16.874831,-408
2021-09-24 15:12:16.874838,55
2021-09-24 15:12:16.874844,551
2021-09-24 15:12:16.874851,675
2021-09-24 15:12:16.874858,318
2021-09-24 15:12:16.874864,34
2021-09-24 15:12:16.874871,31
2021-09-24 15:12:16.874877,-41
2021-09-24 15:12:16.874884,-136
2021-09-24 15:12:16.874891,-109
2021-09-24 15:12:16.874897,-99
2021-09-24 15:12:17.188755,-140
2021-09-24 15:12:17.188774,-145
2021-09-24 15:12:17.188781,-145
2021-09-24 15:12:17.188787,-167
2021-09-24 15:12:17.188793,-182
2021-09-24 15:12:17.188799,-189
2021-09-24 15:12:17.188804,-201
2021-09-24 15:12:17.188810,-213
2021-09-24 15:12:17.188816,-225
2021-09-24 15:12:17.188821,-242
2021-09-24 15:12:17.188827,-267
2021-09-24 15:12:17.188832,-303
2021-09-24 15:12:17.188838,-335
2021-09-24 15:12:17.188844,-352
2021-09-24 15:12:17.188849,-374
2021-09-24 15:12:17.188855,-400
2021-09-24 15:12:17.188861,-415
2021-09-24 15:12:17.188867,-417
2021-09-24 15:12:17.188872,-403
2021-09-24 15:12:17.188878,-361
2021-09-24 15:12:17.188883,-296
2021-09-24 15:12:17.188889,-204
2021-09-24 15:12:17.188895,-94
2021-09-24 15:12:17.188900,14
2021-09-24 15:12:17.188906,97
2021-09-24 15:12:17.188912,160
2021-09-24 15:12:17.188917,208
2021-09-24 15:12:17.188923,235
2021-09-24 15:12:17.188929,247
2021-09-24 15:12:17.188934,250
2021-09-24 15:12:17.324496,250
2021-09-24 15:12:17.324520,245
2021-09-24 15:12:17.324529,240
2021-09-24 15:12:17.324536,235
2021-09-24 15:12:17.324544,218
2021-09-24 15:12:17.324551,204
2021-09-24 15:12:17.324558,204
2021-09-24 15:12:17.324565,204
2021-09-24 15:12:17.324572,191
2021-09-24 15:12:17.324580,179
2021-09-24 15:12:17.324587,162
2021-09-24 15:12:17.324594,148
2021-09-24 15:12:17.324601,150
2021-09-24 15:12:17.324609,153
2021-09-24 15:12:17.324616,138
2021-09-24 15:12:17.324623,131
2021-09-24 15:12:17.324630,123
2021-09-24 15:12:17.324637,111
2021-09-24 15:12:17.324645,114
2021-09-24 15:12:17.324652,119
2021-09-24 15:12:17.324659,106
2021-09-24 15:12:17.324666,92
2021-09-24 15:12:17.324674,94
2021-09-24 15:12:17.324681,102
2021-09-24 15:12:17.324688,102
2021-09-24 15:12:17.324703,102
2021-09-24 15:12:17.324728,104
2021-09-24 15:12:17.324777,104
2021-09-24 15:12:17.324794,99
2021-09-24 15:12:17.324807,102
2021-09-24 15:12:17.595149,106
2021-09-24 15:12:17.595173,106
2021-09-24 15:12:17.595181,104
2021-09-24 15:12:17.595188,97
2021-09-24 15:12:17.595195,87
2021-09-24 15:12:17.595202,82
2021-09-24 15:12:17.595209,80
2021-09-24 15:12:17.595216,70
2021-09-24 15:12:17.595223,70
2021-09-24 15:12:17.595229,68
2021-09-24 15:12:17.595236,48
2021-09-24 15:12:17.595243,29
2021-09-24 15:12:17.595250,26
2021-09-24 15:12:17.595257,36
2021-09-24 15:12:17.595264,31
2021-09-24 15:12:17.595270,19
2021-09-24 15:12:17.595277,31
2021-09-24 15:12:17.595284,58
2021-09-24 15:12:17.595291,72
2021-09-24 15:12:17.595298,70
2021-09-24 15:12:17.595305,68
2021-09-24 15:12:17.595311,68
2021-09-24 15:12:17.595350,68
2021-09-24 15:12:17.595357,65
2021-09-24 15:12:17.595364,60
2021-09-24 15:12:17.595371,58
2021-09-24 15:12:17.595377,51
2021-09-24 15:12:17.595384,19
2021-09-24 15:12:17.595391,-41
2021-09-24 15:12:17.595398,-182
2021-09-24 15:12:17.819972,-442
2021-09-24 15:12:17.820002,-563
2021-09-24 15:12:17.820015,-259
2021-09-24 15:12:17.820026,325
2021-09-24 15:12:17.820037,689
2021-09-24 15:12:17.820049,478
2021-09-24 15:12:17.820058,114
2021-09-24 15:12:17.820065,46
2021-09-24 15:12:17.820071,12
2021-09-24 15:12:17.820078,-116
2021-09-24 15:12:17.820084,-131
2021-09-24 15:12:17.820090,-94
2021-09-24 15:12:17.820097,-121
2021-09-24 15:12:17.820103,-140
2021-09-24 15:12:17.820109,-138
2021-09-24 15:12:17.820116,-160
2021-09-24 15:12:17.820122,-177
2021-09-24 15:12:17.820128,-177
2021-09-24 15:12:17.820135,-187
2021-09-24 15:12:17.820141,-201
2021-09-24 15:12:17.820147,-216
2021-09-24 15:12:17.820154,-238
2021-09-24 15:12:17.820160,-259
2021-09-24 15:12:17.820166,-279
2021-09-24 15:12:17.820173,-306
2021-09-24 15:12:17.820179,-344
2021-09-24 15:12:17.820185,-388
2021-09-24 15:12:17.820192,-412
2021-09-24 15:12:17.820198,-420
2021-09-24 15:12:17.820204,-422
2021-09-24 15:12:18.044874,-412
2021-09-24 15:12:18.044905,-386
2021-09-24 15:12:18.044916,-340
2021-09-24 15:12:18.044927,-257
2021-09-24 15:12:18.044937,-148
2021-09-24 15:12:18.044947,-38
2021-09-24 15:12:18.044957,51
2021-09-24 15:12:18.044967,126
2021-09-24 15:12:18.044978,177
2021-09-24 15:12:18.044988,199
2021-09-24 15:12:18.044997,213
2021-09-24 15:12:18.045008,223
2021-09-24 15:12:18.045018,228
2021-09-24 15:12:18.045028,225
2021-09-24 15:12:18.045038,213
2021-09-24 15:12:18.045048,201
2021-09-24 15:12:18.045058,199
2021-09-24 15:12:18.045068,191
2021-09-24 15:12:18.045078,182
2021-09-24 15:12:18.045088,174
2021-09-24 15:12:18.045098,162
2021-09-24 15:12:18.045108,150
2021-09-24 15:12:18.045118,148
2021-09-24 15:12:18.045128,143
2021-09-24 15:12:18.045138,136
2021-09-24 15:12:18.045148,136
2021-09-24 15:12:18.045158,131
2021-09-24 15:12:18.045168,126
2021-09-24 15:12:18.045178,123
2021-09-24 15:12:18.045189,123
2021-09-24 15:12:18.359987,123
2021-09-24 15:12:18.360011,123
2021-09-24 15:12:18.360019,121
2021-09-24 15:12:18.360026,119
2021-09-24 15:12:18.360032,121
2021-09-24 15:12:18.360039,119
2021-09-24 15:12:18.360045,121
2021-09-24 15:12:18.360052,119
2021-09-24 15:12:18.360058,106
2021-09-24 15:12:18.360065,102
2021-09-24 15:12:18.360071,106
2021-09-24 15:12:18.360078,111
2021-09-24 15:12:18.360084,102
2021-09-24 15:12:18.360091,87
2021-09-24 15:12:18.360097,80
2021-09-24 15:12:18.360104,80
2021-09-24 15:12:18.360110,80
2021-09-24 15:12:18.360117,77
2021-09-24 15:12:18.360123,75
2021-09-24 15:12:18.360129,70
2021-09-24 15:12:18.360136,68
2021-09-24 15:12:18.360142,72
2021-09-24 15:12:18.360149,75
2021-09-24 15:12:18.360155,70
2021-09-24 15:12:18.360162,72
2021-09-24 15:12:18.360168,72
2021-09-24 15:12:18.360175,58
2021-09-24 15:12:18.360182,38
2021-09-24 15:12:18.360188,31
2021-09-24 15:12:18.360194,36
2021-09-24 15:12:18.494963,34
2021-09-24 15:12:18.494986,21
2021-09-24 15:12:18.494994,19
2021-09-24 15:12:18.495001,34
2021-09-24 15:12:18.495007,48
2021-09-24 15:12:18.495014,46
2021-09-24 15:12:18.495020,41
2021-09-24 15:12:18.495027,38
2021-09-24 15:12:18.495034,38
2021-09-24 15:12:18.495040,38
2021-09-24 15:12:18.495047,41
2021-09-24 15:12:18.495053,38
2021-09-24 15:12:18.495059,26
2021-09-24 15:12:18.495066,0
2021-09-24 15:12:18.495073,-75
2021-09-24 15:12:18.495079,-272
2021-09-24 15:12:18.495086,-548
2021-09-24 15:12:18.495092,-585
2021-09-24 15:12:18.495099,-165
2021-09-24 15:12:18.495105,451
2021-09-24 15:12:18.495112,672
2021-09-24 15:12:18.495118,337
2021-09-24 15:12:18.495125,53
2021-09-24 15:12:18.495131,55
2021-09-24 15:12:18.495138,-19
2021-09-24 15:12:18.495144,-131
2021-09-24 15:12:18.495151,-111
2021-09-24 15:12:18.495157,-94
2021-09-24 15:12:18.495163,-128
2021-09-24 15:12:18.495170,-136
2021-09-24 15:12:18.719422,-136
2021-09-24 15:12:18.719442,-153
2021-09-24 15:12:18.719450,-165
2021-09-24 15:12:18.719457,-172
2021-09-24 15:12:18.719463,-184
2021-09-24 15:12:18.719470,-201
2021-09-24 15:12:18.719476,-225
2021-09-24 15:12:18.719483,-245
2021-09-24 15:12:18.719489,-259
2021-09-24 15:12:18.719496,-284
2021-09-24 15:12:18.719502,-313
2021-09-24 15:12:18.719509,-342
2021-09-24 15:12:18.719515,-376
2021-09-24 15:12:18.719522,-400
2021-09-24 15:12:18.719528,-405
2021-09-24 15:12:18.719535,-405
2021-09-24 15:12:18.719541,-398
2021-09-24 15:12:18.719548,-371
2021-09-24 15:12:18.719554,-315
2021-09-24 15:12:18.719561,-225
2021-09-24 15:12:18.719567,-121
2021-09-24 15:12:18.719574,-21
2021-09-24 15:12:18.719580,63
2021-09-24 15:12:18.719587,128
2021-09-24 15:12:18.719594,177
2021-09-24 15:12:18.719600,216
2021-09-24 15:12:18.719606,228
2021-09-24 15:12:18.719613,228
2021-09-24 15:12:18.719619,233
2021-09-24 15:12:18.719626,233
2021-09-24 15:12:18.944976,223
2021-09-24 15:12:18.944999,213
2021-09-24 15:12:18.945007,204
2021-09-24 15:12:18.945014,189
2021-09-24 15:12:18.945020,177
2021-09-24 15:12:18.945027,165
2021-09-24 15:12:18.945033,148
2021-09-24 15:12:18.945040,136
2021-09-24 15:12:18.945046,123
2021-09-24 15:12:18.945052,111
2021-09-24 15:12:18.945059,104
2021-09-24 15:12:18.945065,97
2021-09-24 15:12:18.945072,92
2021-09-24 15:12:18.945078,94
2021-09-24 15:12:18.945085,92
2021-09-24 15:12:18.945091,89
2021-09-24 15:12:18.945097,87
2021-09-24 15:12:18.945104,85
2021-09-24 15:12:18.945110,80
2021-09-24 15:12:18.945117,80
2021-09-24 15:12:18.945123,80
2021-09-24 15:12:18.945129,77
2021-09-24 15:12:18.945136,80
2021-09-24 15:12:18.945142,82
2021-09-24 15:12:18.945149,77
2021-09-24 15:12:18.945155,68
2021-09-24 15:12:18.945162,70
2021-09-24 15:12:18.945168,72
2021-09-24 15:12:18.945174,68
2021-09-24 15:12:18.945181,65
2021-09-24 15:12:19.213312,65
2021-09-24 15:12:19.213332,65
2021-09-24 15:12:19.213340,63
2021-09-24 15:12:19.213347,60
2021-09-24 15:12:19.213354,55
2021-09-24 15:12:19.213360,48
2021-09-24 15:12:19.213367,51
2021-09-24 15:12:19.213373,53
2021-09-24 15:12:19.213380,43
2021-09-24 15:12:19.213386,21
2021-09-24 15:12:19.213393,0
2021-09-24 15:12:19.213399,-4
2021-09-24 15:12:19.213406,-4
2021-09-24 15:12:19.213412,-17
2021-09-24 15:12:19.213419,-7
2021-09-24 15:12:19.213425,21
2021-09-24 15:12:19.213432,34
2021-09-24 15:12:19.213439,26
2021-09-24 15:12:19.213445,24
2021-09-24 15:12:19.213452,29
2021-09-24 15:12:19.213458,26
2021-09-24 15:12:19.213465,14
2021-09-24 15:12:19.213471,14
2021-09-24 15:12:19.213478,14
2021-09-24 15:12:19.213484,7
2021-09-24 15:12:19.213491,-12
2021-09-24 15:12:19.213497,-68
2021-09-24 15:12:19.213504,-225
2021-09-24 15:12:19.213510,-485
2021-09-24 15:12:19.213517,-580
2021-09-24 15:12:19.394912,-233
2021-09-24 15:12:19.394958,393
2021-09-24 15:12:19.394968,694
2021-09-24 15:12:19.394975,400
2021-09-24 15:12:19.394982,72
2021-09-24 15:12:19.394988,48
2021-09-24 15:12:19.394995,2
2021-09-24 15:12:19.395001,-119
2021-09-24 15:12:19.395008,-123
2021-09-24 15:12:19.395014,-106
2021-09-24 15:12:19.395025,-150
2021-09-24 15:12:19.395033,-165
2021-09-24 15:12:19.395039,-153
2021-09-24 15:12:19.395046,-172
2021-09-24 15:12:19.395052,-199
2021-09-24 15:12:19.395059,-208
2021-09-24 15:12:19.395066,-216
2021-09-24 15:12:19.395072,-228
2021-09-24 15:12:19.395078,-242
2021-09-24 15:12:19.395085,-262
2021-09-24 15:12:19.395092,-284
2021-09-24 15:12:19.395098,-308
2021-09-24 15:12:19.395105,-340
2021-09-24 15:12:19.395111,-371
2021-09-24 15:12:19.395118,-388
2021-09-24 15:12:19.395124,-395
2021-09-24 15:12:19.395131,-415
2021-09-24 15:12:19.395137,-422
2021-09-24 15:12:19.395144,-403
2021-09-24 15:12:19.395151,-361
2021-09-24 15:12:19.843790,-310
2021-09-24 15:12:19.843814,-233
2021-09-24 15:12:19.843823,-131
2021-09-24 15:12:19.843830,-38
2021-09-24 15:12:19.843837,36
2021-09-24 15:12:19.843844,114
2021-09-24 15:12:19.843850,172
2021-09-24 15:12:19.843857,201
2021-09-24 15:12:19.843864,213
2021-09-24 15:12:19.843871,216
2021-09-24 15:12:19.843877,213
2021-09-24 15:12:19.843884,213
2021-09-24 15:12:19.843891,208
2021-09-24 15:12:19.843898,201
2021-09-24 15:12:19.843904,194
2021-09-24 15:12:19.843911,179
2021-09-24 15:12:19.843918,162
2021-09-24 15:12:19.843925,153
2021-09-24 15:12:19.843931,150
2021-09-24 15:12:19.843938,145
2021-09-24 15:12:19.843945,136
2021-09-24 15:12:19.843952,126
2021-09-24 15:12:19.843959,121
2021-09-24 15:12:19.843965,116
2021-09-24 15:12:19.843972,106
2021-09-24 15:12:19.843979,94
2021-09-24 15:12:19.843986,89
2021-09-24 15:12:19.843992,89
2021-09-24 15:12:19.843999,92
2021-09-24 15:12:19.844006,97
2021-09-24 15:12:19.934147,102
2021-09-24 15:12:19.934170,102
2021-09-24 15:12:19.934178,94
2021-09-24 15:12:19.934185,87
2021-09-24 15:12:19.934192,94
2021-09-24 15:12:19.934199,102
2021-09-24 15:12:19.934205,92
2021-09-24 15:12:19.934212,82
2021-09-24 15:12:19.934218,77
2021-09-24 15:12:19.934225,65
2021-09-24 15:12:19.934231,60
2021-09-24 15:12:19.934238,65
2021-09-24 15:12:19.934245,68
2021-09-24 15:12:19.934251,65
2021-09-24 15:12:19.934258,63
2021-09-24 15:12:19.934264,55
2021-09-24 15:12:19.934271,48
2021-09-24 15:12:19.934278,31
2021-09-24 15:12:19.934284,17
2021-09-24 15:12:19.934291,12
2021-09-24 15:12:19.934297,-2
2021-09-24 15:12:19.934304,-12
2021-09-24 15:12:19.934311,4
2021-09-24 15:12:19.934317,24
2021-09-24 15:12:19.934324,31
2021-09-24 15:12:19.934330,31
2021-09-24 15:12:19.934337,26
2021-09-24 15:12:19.934344,19
2021-09-24 15:12:19.934350,19
2021-09-24 15:12:19.934357,26
2021-09-24 15:12:20.115012,29
2021-09-24 15:12:20.115037,24
2021-09-24 15:12:20.115046,12
2021-09-24 15:12:20.115053,-19
2021-09-24 15:12:20.115060,-65
2021-09-24 15:12:20.115066,-179
2021-09-24 15:12:20.115073,-410
2021-09-24 15:12:20.115079,-541
2021-09-24 15:12:20.115086,-276
2021-09-24 15:12:20.115092,301
2021-09-24 15:12:20.115099,663
2021-09-24 15:12:20.115105,449
2021-09-24 15:12:20.115111,104
2021-09-24 15:12:20.115118,55
2021-09-24 15:12:20.115124,24
2021-09-24 15:12:20.115131,-114
2021-09-24 15:12:20.115137,-143
2021-09-24 15:12:20.115144,-104
2021-09-24 15:12:20.115150,-126
2021-09-24 15:12:20.115157,-155
2021-09-24 15:12:20.115163,-153
2021-09-24 15:12:20.115169,-157
2021-09-24 15:12:20.115176,-167
2021-09-24 15:12:20.115182,-177
2021-09-24 15:12:20.115189,-191
2021-09-24 15:12:20.115195,-208
2021-09-24 15:12:20.115201,-223
2021-09-24 15:12:20.115208,-245
2021-09-24 15:12:20.115214,-269
2021-09-24 15:12:20.115221,-296
2021-09-24 15:12:20.339962,-323
2021-09-24 15:12:20.339988,-349
2021-09-24 15:12:20.339996,-376
2021-09-24 15:12:20.340003,-393
2021-09-24 15:12:20.340010,-398
2021-09-24 15:12:20.340039,-398
2021-09-24 15:12:20.340047,-395
2021-09-24 15:12:20.340054,-371
2021-09-24 15:12:20.340061,-315
2021-09-24 15:12:20.340068,-230
2021-09-24 15:12:20.340074,-128
2021-09-24 15:12:20.340081,-26
2021-09-24 15:12:20.340088,58
2021-09-24 15:12:20.340095,119
2021-09-24 15:12:20.340102,165
2021-09-24 15:12:20.340109,204
2021-09-24 15:12:20.340116,218
2021-09-24 15:12:20.340123,221
2021-09-24 15:12:20.340130,223
2021-09-24 15:12:20.340137,218
2021-09-24 15:12:20.340144,216
2021-09-24 15:12:20.340151,208
2021-09-24 15:12:20.340157,199
2021-09-24 15:12:20.340164,189
2021-09-24 15:12:20.340171,182
2021-09-24 15:12:20.340178,170
2021-09-24 15:12:20.340185,148
2021-09-24 15:12:20.340192,133
2021-09-24 15:12:20.340199,128
2021-09-24 15:12:20.340206,126
2021-09-24 15:12:20.564444,114
2021-09-24 15:12:20.564464,106
2021-09-24 15:12:20.564473,102
2021-09-24 15:12:20.564480,102
2021-09-24 15:12:20.564487,99
2021-09-24 15:12:20.564494,94
2021-09-24 15:12:20.564501,89
2021-09-24 15:12:20.564508,89
2021-09-24 15:12:20.564515,92
2021-09-24 15:12:20.564522,92
2021-09-24 15:12:20.564529,94
2021-09-24 15:12:20.564536,92
2021-09-24 15:12:20.564543,87
2021-09-24 15:12:20.564549,80
2021-09-24 15:12:20.564556,80
2021-09-24 15:12:20.564563,80
2021-09-24 15:12:20.564570,77
2021-09-24 15:12:20.564577,72
2021-09-24 15:12:20.564584,68
2021-09-24 15:12:20.564591,68
2021-09-24 15:12:20.564598,70
2021-09-24 15:12:20.564605,75
2021-09-24 15:12:20.564612,80
2021-09-24 15:12:20.564619,75
2021-09-24 15:12:20.564626,63
2021-09-24 15:12:20.564633,53
2021-09-24 15:12:20.564640,38
2021-09-24 15:12:20.564647,26
2021-09-24 15:12:20.564654,21
2021-09-24 15:12:20.564661,29
2021-09-24 15:12:20.835124,53
2021-09-24 15:12:20.835156,70
2021-09-24 15:12:20.835168,55
2021-09-24 15:12:20.835179,36
2021-09-24 15:12:20.835189,36
2021-09-24 15:12:20.835199,31
2021-09-24 15:12:20.835209,21
2021-09-24 15:12:20.835219,24
2021-09-24 15:12:20.835229,24
2021-09-24 15:12:20.835239,14
2021-09-24 15:12:20.835249,-9
2021-09-24 15:12:20.835259,-65
2021-09-24 15:12:20.835270,-182
2021-09-24 15:12:20.835280,-395
2021-09-24 15:12:20.835290,-551
2021-09-24 15:12:20.835300,-354
2021-09-24 15:12:20.835310,184
2021-09-24 15:12:20.835320,629
2021-09-24 15:12:20.835330,539
2021-09-24 15:12:20.835340,162
2021-09-24 15:12:20.835350,51
2021-09-24 15:12:20.835360,51
2021-09-24 15:12:20.835402,-77
2021-09-24 15:12:20.835413,-140
2021-09-24 15:12:20.835422,-104
2021-09-24 15:12:20.835432,-114
2021-09-24 15:12:20.835442,-140
2021-09-24 15:12:20.835452,-140
2021-09-24 15:12:20.835462,-148
2021-09-24 15:12:20.835472,-167
2021-09-24 15:12:21.015005,-177
2021-09-24 15:12:21.015028,-189
2021-09-24 15:12:21.015036,-211
2021-09-24 15:12:21.015043,-228
2021-09-24 15:12:21.015050,-242
2021-09-24 15:12:21.015056,-267
2021-09-24 15:12:21.015063,-289
2021-09-24 15:12:21.015069,-313
2021-09-24 15:12:21.015076,-340
2021-09-24 15:12:21.015082,-369
2021-09-24 15:12:21.015089,-398
2021-09-24 15:12:21.015096,-417
2021-09-24 15:12:21.015102,-417
2021-09-24 15:12:21.015109,-403
2021-09-24 15:12:21.015115,-378
2021-09-24 15:12:21.015122,-335
2021-09-24 15:12:21.015128,-259
2021-09-24 15:12:21.015135,-160
2021-09-24 15:12:21.015142,-53
2021-09-24 15:12:21.015148,41
2021-09-24 15:12:21.015155,111
2021-09-24 15:12:21.015162,162
2021-09-24 15:12:21.015168,199
2021-09-24 15:12:21.015175,216
2021-09-24 15:12:21.015181,225
2021-09-24 15:12:21.015188,233
2021-09-24 15:12:21.015194,230
2021-09-24 15:12:21.015201,228
2021-09-24 15:12:21.015207,221
2021-09-24 15:12:21.015214,211
2021-09-24 15:12:21.373648,204
2021-09-24 15:12:21.373672,196
2021-09-24 15:12:21.373680,187
2021-09-24 15:12:21.373687,170
2021-09-24 15:12:21.373693,153
2021-09-24 15:12:21.373700,143
2021-09-24 15:12:21.373706,136
2021-09-24 15:12:21.373713,126
2021-09-24 15:12:21.373720,116
2021-09-24 15:12:21.373726,109
2021-09-24 15:12:21.373733,97
2021-09-24 15:12:21.373739,94
2021-09-24 15:12:21.373746,99
2021-09-24 15:12:21.373752,99
2021-09-24 15:12:21.373759,94
2021-09-24 15:12:21.373766,94
2021-09-24 15:12:21.373772,92
2021-09-24 15:12:21.373779,92
2021-09-24 15:12:21.373785,97
2021-09-24 15:12:21.373792,99
2021-09-24 15:12:21.373799,99
2021-09-24 15:12:21.373805,94
2021-09-24 15:12:21.373812,92
2021-09-24 15:12:21.373818,97
2021-09-24 15:12:21.373825,94
2021-09-24 15:12:21.373832,92
2021-09-24 15:12:21.373838,94
2021-09-24 15:12:21.373845,89
2021-09-24 15:12:21.373851,85
2021-09-24 15:12:21.373858,77
2021-09-24 15:12:21.510025,77
2021-09-24 15:12:21.510050,87
2021-09-24 15:12:21.510058,89
2021-09-24 15:12:21.510065,72
2021-09-24 15:12:21.510072,48
2021-09-24 15:12:21.510079,34
2021-09-24 15:12:21.510086,31
2021-09-24 15:12:21.510093,29
2021-09-24 15:12:21.510100,12
2021-09-24 15:12:21.510106,7
2021-09-24 15:12:21.510113,26
2021-09-24 15:12:21.510120,48
2021-09-24 15:12:21.510127,51
2021-09-24 15:12:21.510134,51
2021-09-24 15:12:21.510141,48
2021-09-24 15:12:21.510148,34
2021-09-24 15:12:21.510155,24
2021-09-24 15:12:21.510161,29
2021-09-24 15:12:21.510168,26
2021-09-24 15:12:21.510175,21
2021-09-24 15:12:21.510182,-2
2021-09-24 15:12:21.510189,-70
2021-09-24 15:12:21.510196,-191
2021-09-24 15:12:21.510203,-403
2021-09-24 15:12:21.510210,-551
2021-09-24 15:12:21.510217,-335
2021-09-24 15:12:21.510223,196
2021-09-24 15:12:21.510230,631
2021-09-24 15:12:21.510237,563
2021-09-24 15:12:21.510244,187
2021-09-24 15:12:21.734410,46
2021-09-24 15:12:21.734431,43
2021-09-24 15:12:21.734439,-72
2021-09-24 15:12:21.734445,-138
2021-09-24 15:12:21.734452,-99
2021-09-24 15:12:21.734458,-109
2021-09-24 15:12:21.734465,-140
2021-09-24 15:12:21.734471,-138
2021-09-24 15:12:21.734478,-148
2021-09-24 15:12:21.734484,-177
2021-09-24 15:12:21.734490,-184
2021-09-24 15:12:21.734497,-189
2021-09-24 15:12:21.734503,-211
2021-09-24 15:12:21.734510,-223
2021-09-24 15:12:21.734516,-240
2021-09-24 15:12:21.734523,-269
2021-09-24 15:12:21.734529,-291
2021-09-24 15:12:21.734536,-310
2021-09-24 15:12:21.734542,-340
2021-09-24 15:12:21.734548,-369
2021-09-24 15:12:21.734555,-391
2021-09-24 15:12:21.734561,-408
2021-09-24 15:12:21.734568,-412
2021-09-24 15:12:21.734574,-405
2021-09-24 15:12:21.734580,-386
2021-09-24 15:12:21.734587,-340
2021-09-24 15:12:21.734593,-264
2021-09-24 15:12:21.734600,-162
2021-09-24 15:12:21.734606,-53
2021-09-24 15:12:21.734613,41
2021-09-24 15:12:21.959970,116
2021-09-24 15:12:21.959993,177
2021-09-24 15:12:21.960001,211
2021-09-24 15:12:21.960008,228
2021-09-24 15:12:21.960014,240
2021-09-24 15:12:21.960020,242
2021-09-24 15:12:21.960027,240
2021-09-24 15:12:21.960033,233
2021-09-24 15:12:21.960040,221
2021-09-24 15:12:21.960046,211
2021-09-24 15:12:21.960053,208
2021-09-24 15:12:21.960059,204
2021-09-24 15:12:21.960065,184
2021-09-24 15:12:21.960072,157
2021-09-24 15:12:21.960078,138
2021-09-24 15:12:21.960085,133
2021-09-24 15:12:21.960091,131
2021-09-24 15:12:21.960098,123
2021-09-24 15:12:21.960104,114
2021-09-24 15:12:21.960110,109
2021-09-24 15:12:21.960117,104
2021-09-24 15:12:21.960123,102
2021-09-24 15:12:21.960130,102
2021-09-24 15:12:21.960136,104
2021-09-24 15:12:21.960142,104
2021-09-24 15:12:21.960149,99
2021-09-24 15:12:21.960155,99
2021-09-24 15:12:21.960162,99
2021-09-24 15:12:21.960168,99
2021-09-24 15:12:21.960175,102
2021-09-24 15:12:22.184968,102
2021-09-24 15:12:22.184991,102
2021-09-24 15:12:22.184999,97
2021-09-24 15:12:22.185006,92
2021-09-24 15:12:22.185013,92
2021-09-24 15:12:22.185019,97
2021-09-24 15:12:22.185026,94
2021-09-24 15:12:22.185032,85
2021-09-24 15:12:22.185039,80
2021-09-24 15:12:22.185045,77
2021-09-24 15:12:22.185052,80
2021-09-24 15:12:22.185059,82
2021-09-24 15:12:22.185065,87
2021-09-24 15:12:22.185072,75
2021-09-24 15:12:22.185078,51
2021-09-24 15:12:22.185085,26
2021-09-24 15:12:22.185092,12
2021-09-24 15:12:22.185098,19
2021-09-24 15:12:22.185105,17
2021-09-24 15:12:22.185111,7
2021-09-24 15:12:22.185118,26
2021-09-24 15:12:22.185124,48
2021-09-24 15:12:22.185131,53
2021-09-24 15:12:22.185137,53
2021-09-24 15:12:22.185144,55
2021-09-24 15:12:22.185150,53
2021-09-24 15:12:22.185157,51
2021-09-24 15:12:22.185164,51
2021-09-24 15:12:22.185170,53
2021-09-24 15:12:22.185177,53
2021-09-24 15:12:22.410092,36
2021-09-24 15:12:22.410115,-4
2021-09-24 15:12:22.410123,-82
2021-09-24 15:12:22.410130,-259
2021-09-24 15:12:22.410137,-490
2021-09-24 15:12:22.410143,-478
2021-09-24 15:12:22.410150,-75
2021-09-24 15:12:22.410156,466
2021-09-24 15:12:22.410163,685
2021-09-24 15:12:22.410170,378
2021-09-24 15:12:22.410176,63
2021-09-24 15:12:22.410183,41
2021-09-24 15:12:22.410189,-26
2021-09-24 15:12:22.410196,-143
2021-09-24 15:12:22.410202,-131
2021-09-24 15:12:22.410209,-111
2021-09-24 15:12:22.410215,-150
2021-09-24 15:12:22.410222,-162
2021-09-24 15:12:22.410228,-165
2021-09-24 15:12:22.410235,-187
2021-09-24 15:12:22.410241,-204
2021-09-24 15:12:22.410248,-206
2021-09-24 15:12:22.410254,-216
2021-09-24 15:12:22.410261,-230
2021-09-24 15:12:22.410267,-247
2021-09-24 15:12:22.410274,-264
2021-09-24 15:12:22.410281,-286
2021-09-24 15:12:22.410287,-313
2021-09-24 15:12:22.410294,-337
2021-09-24 15:12:22.410300,-366
2021-09-24 15:12:22.634493,-398
2021-09-24 15:12:22.634512,-417
2021-09-24 15:12:22.634520,-427
2021-09-24 15:12:22.634527,-429
2021-09-24 15:12:22.634533,-417
2021-09-24 15:12:22.634540,-388
2021-09-24 15:12:22.634546,-332
2021-09-24 15:12:22.634553,-240
2021-09-24 15:12:22.634560,-128
2021-09-24 15:12:22.634566,-26
2021-09-24 15:12:22.634572,60
2021-09-24 15:12:22.634579,126
2021-09-24 15:12:22.634585,172
2021-09-24 15:12:22.634592,204
2021-09-24 15:12:22.634598,218
2021-09-24 15:12:22.634605,221
2021-09-24 15:12:22.634611,225
2021-09-24 15:12:22.634618,223
2021-09-24 15:12:22.634624,213
2021-09-24 15:12:22.634631,201
2021-09-24 15:12:22.634637,189
2021-09-24 15:12:22.634644,182
2021-09-24 15:12:22.634650,177
2021-09-24 15:12:22.634656,167
2021-09-24 15:12:22.634663,155
2021-09-24 15:12:22.634669,150
2021-09-24 15:12:22.634676,143
2021-09-24 15:12:22.634682,133
2021-09-24 15:12:22.634689,126
2021-09-24 15:12:22.634695,119
2021-09-24 15:12:22.905004,114
2021-09-24 15:12:22.905029,114
2021-09-24 15:12:22.905037,109
2021-09-24 15:12:22.905044,104
2021-09-24 15:12:22.905051,102
2021-09-24 15:12:22.905058,92
2021-09-24 15:12:22.905065,87
2021-09-24 15:12:22.905072,92
2021-09-24 15:12:22.905079,94
2021-09-24 15:12:22.905085,87
2021-09-24 15:12:22.905092,85
2021-09-24 15:12:22.905099,77
2021-09-24 15:12:22.905106,77
2021-09-24 15:12:22.905113,82
2021-09-24 15:12:22.905119,85
2021-09-24 15:12:22.905126,82
2021-09-24 15:12:22.905133,80
2021-09-24 15:12:22.905140,77
2021-09-24 15:12:22.905147,77
2021-09-24 15:12:22.905153,80
2021-09-24 15:12:22.905160,80
2021-09-24 15:12:22.905167,70
2021-09-24 15:12:22.905174,60
2021-09-24 15:12:22.905181,63
2021-09-24 15:12:22.905187,60
2021-09-24 15:12:22.905194,41
2021-09-24 15:12:22.905201,21
2021-09-24 15:12:22.905208,7
2021-09-24 15:12:22.905215,0
2021-09-24 15:12:22.905222,4
2021-09-24 15:12:23.130069,2
2021-09-24 15:12:23.130100,9
2021-09-24 15:12:23.130112,29
2021-09-24 15:12:23.130123,38
2021-09-24 15:12:23.130133,34
2021-09-24 15:12:23.130143,31
2021-09-24 15:12:23.130153,36
2021-09-24 15:12:23.130163,38
2021-09-24 15:12:23.130173,36
2021-09-24 15:12:23.130183,36
2021-09-24 15:12:23.130193,31
2021-09-24 15:12:23.130203,26
2021-09-24 15:12:23.130213,9
2021-09-24 15:12:23.130223,-41
2021-09-24 15:12:23.130233,-160
2021-09-24 15:12:23.130243,-395
2021-09-24 15:12:23.130253,-573
2021-09-24 15:12:23.130263,-357
2021-09-24 15:12:23.130274,201
2021-09-24 15:12:23.130284,648
2021-09-24 15:12:23.130294,563
2021-09-24 15:12:23.130304,174
2021-09-24 15:12:23.130314,21
2021-09-24 15:12:23.130324,7
2021-09-24 15:12:23.130334,-106
2021-09-24 15:12:23.130344,-153
2021-09-24 15:12:23.130354,-114
2021-09-24 15:12:23.130364,-133
2021-09-24 15:12:23.130374,-167
2021-09-24 15:12:23.130384,-160
2021-09-24 15:12:23.353783,-160
2021-09-24 15:12:23.353806,-172
2021-09-24 15:12:23.353814,-182
2021-09-24 15:12:23.353821,-196
2021-09-24 15:12:23.353828,-216
2021-09-24 15:12:23.353835,-225
2021-09-24 15:12:23.353841,-238
2021-09-24 15:12:23.353848,-257
2021-09-24 15:12:23.353855,-284
2021-09-24 15:12:23.353861,-318
2021-09-24 15:12:23.353868,-352
2021-09-24 15:12:23.353875,-376
2021-09-24 15:12:23.353881,-395
2021-09-24 15:12:23.353888,-415
2021-09-24 15:12:23.353894,-427
2021-09-24 15:12:23.353901,-429
2021-09-24 15:12:23.353908,-410
2021-09-24 15:12:23.353914,-359
2021-09-24 15:12:23.353921,-279
2021-09-24 15:12:23.353928,-174
2021-09-24 15:12:23.353934,-65
2021-09-24 15:12:23.353941,29
2021-09-24 15:12:23.353948,104
2021-09-24 15:12:23.353954,167
2021-09-24 15:12:23.353961,206
2021-09-24 15:12:23.353967,225
2021-09-24 15:12:23.353974,230
2021-09-24 15:12:23.353981,228
2021-09-24 15:12:23.353987,228
2021-09-24 15:12:23.353994,223
2021-09-24 15:12:23.579986,208
2021-09-24 15:12:23.580008,196
2021-09-24 15:12:23.580015,189
2021-09-24 15:12:23.580022,170
2021-09-24 15:12:23.580029,157
2021-09-24 15:12:23.580035,155
2021-09-24 15:12:23.580041,150
2021-09-24 15:12:23.580048,140
2021-09-24 15:12:23.580054,131
2021-09-24 15:12:23.580061,114
2021-09-24 15:12:23.580067,106
2021-09-24 15:12:23.580074,109
2021-09-24 15:12:23.580080,109
2021-09-24 15:12:23.580087,102
2021-09-24 15:12:23.580093,97
2021-09-24 15:12:23.580100,94
2021-09-24 15:12:23.580106,94
2021-09-24 15:12:23.580113,97
2021-09-24 15:12:23.580119,102
2021-09-24 15:12:23.580125,104
2021-09-24 15:12:23.580132,102
2021-09-24 15:12:23.580138,97
2021-09-24 15:12:23.580144,99
2021-09-24 15:12:23.580151,102
2021-09-24 15:12:23.580157,102
2021-09-24 15:12:23.580164,99
2021-09-24 15:12:23.580170,97
2021-09-24 15:12:23.580177,87
2021-09-24 15:12:23.580183,82
2021-09-24 15:12:23.580189,85
2021-09-24 15:12:23.804996,87
2021-09-24 15:12:23.805020,85
2021-09-24 15:12:23.805027,77
2021-09-24 15:12:23.805034,72
2021-09-24 15:12:23.805041,72
2021-09-24 15:12:23.805047,70
2021-09-24 15:12:23.805054,68
2021-09-24 15:12:23.805060,70
2021-09-24 15:12:23.805067,60
2021-09-24 15:12:23.805073,38
2021-09-24 15:12:23.805080,24
2021-09-24 15:12:23.805086,21
2021-09-24 15:12:23.805093,24
2021-09-24 15:12:23.805099,17
2021-09-24 15:12:23.805106,4
2021-09-24 15:12:23.805112,19
2021-09-24 15:12:23.805119,46
2021-09-24 15:12:23.805125,60
2021-09-24 15:12:23.805132,60
2021-09-24 15:12:23.805138,55
2021-09-24 15:12:23.805145,48
2021-09-24 15:12:23.805151,43
2021-09-24 15:12:23.805158,41
2021-09-24 15:12:23.805164,41
2021-09-24 15:12:23.805171,36
2021-09-24 15:12:23.805177,26
2021-09-24 15:12:23.805184,-4
2021-09-24 15:12:23.805190,-72
2021-09-24 15:12:23.805197,-238
2021-09-24 15:12:23.805203,-485
2021-09-24 15:12:24.075041,-517
2021-09-24 15:12:24.075064,-116
2021-09-24 15:12:24.075072,466
2021-09-24 15:12:24.075079,694
2021-09-24 15:12:24.075086,383
2021-09-24 15:12:24.075092,70
2021-09-24 15:12:24.075099,31
2021-09-24 15:12:24.075105,-38
2021-09-24 15:12:24.075112,-155
2021-09-24 15:12:24.075118,-143
2021-09-24 15:12:24.075125,-121
2021-09-24 15:12:24.075131,-155
2021-09-24 15:12:24.075138,-165
2021-09-24 15:12:24.075144,-165
2021-09-24 15:12:24.075151,-184
2021-09-24 15:12:24.075158,-196
2021-09-24 15:12:24.075164,-199
2021-09-24 15:12:24.075171,-208
2021-09-24 15:12:24.075177,-225
2021-09-24 15:12:24.075184,-240
2021-09-24 15:12:24.075190,-255
2021-09-24 15:12:24.075197,-279
2021-09-24 15:12:24.075203,-306
2021-09-24 15:12:24.075210,-330
2021-09-24 15:12:24.075216,-361
2021-09-24 15:12:24.075223,-388
2021-09-24 15:12:24.075229,-403
2021-09-24 15:12:24.075236,-420
2021-09-24 15:12:24.075242,-427
2021-09-24 15:12:24.075249,-410
2021-09-24 15:12:24.345256,-371
2021-09-24 15:12:24.345278,-320
2021-09-24 15:12:24.345287,-238
2021-09-24 15:12:24.345293,-131
2021-09-24 15:12:24.345300,-26
2021-09-24 15:12:24.345306,63
2021-09-24 15:12:24.345313,128
2021-09-24 15:12:24.345339,174
2021-09-24 15:12:24.345346,204
2021-09-24 15:12:24.345353,218
2021-09-24 15:12:24.345359,228
2021-09-24 15:12:24.345366,233
2021-09-24 15:12:24.345372,225
2021-09-24 15:12:24.345379,216
2021-09-24 15:12:24.345385,213
2021-09-24 15:12:24.345392,206
2021-09-24 15:12:24.345399,191
2021-09-24 15:12:24.345405,179
2021-09-24 15:12:24.345412,167
2021-09-24 15:12:24.345418,153
2021-09-24 15:12:24.345425,148
2021-09-24 15:12:24.345431,143
2021-09-24 15:12:24.345438,131
2021-09-24 15:12:24.345444,126
2021-09-24 15:12:24.345451,121
2021-09-24 15:12:24.345457,119
2021-09-24 15:12:24.345464,114
2021-09-24 15:12:24.345470,104
2021-09-24 15:12:24.345477,104
2021-09-24 15:12:24.345484,106
2021-09-24 15:12:24.570009,102
2021-09-24 15:12:24.570033,102
2021-09-24 15:12:24.570041,104
2021-09-24 15:12:24.570047,97
2021-09-24 15:12:24.570054,92
2021-09-24 15:12:24.570060,92
2021-09-24 15:12:24.570067,87
2021-09-24 15:12:24.570073,87
2021-09-24 15:12:24.570080,87
2021-09-24 15:12:24.570086,85
2021-09-24 15:12:24.570093,85
2021-09-24 15:12:24.570099,77
2021-09-24 15:12:24.570106,60
2021-09-24 15:12:24.570112,53
2021-09-24 15:12:24.570119,55
2021-09-24 15:12:24.570125,53
2021-09-24 15:12:24.570132,51
2021-09-24 15:12:24.570138,48
2021-09-24 15:12:24.570145,41
2021-09-24 15:12:24.570151,46
2021-09-24 15:12:24.570158,46
2021-09-24 15:12:24.570164,24
2021-09-24 15:12:24.570171,0
2021-09-24 15:12:24.570178,0
2021-09-24 15:12:24.570184,4
2021-09-24 15:12:24.570191,-2
2021-09-24 15:12:24.570197,-2
2021-09-24 15:12:24.570204,17
2021-09-24 15:12:24.570211,29
2021-09-24 15:12:24.570217,26
2021-09-24 15:12:24.705045,29
2021-09-24 15:12:24.705068,29
2021-09-24 15:12:24.705076,19
2021-09-24 15:12:24.705083,14
2021-09-24 15:12:24.705090,21
2021-09-24 15:12:24.705096,26
2021-09-24 15:12:24.705103,19
2021-09-24 15:12:24.705109,-2
2021-09-24 15:12:24.705116,-36
2021-09-24 15:12:24.705123,-111
2021-09-24 15:12:24.705129,-308
2021-09-24 15:12:24.705136,-551
2021-09-24 15:12:24.705142,-507
2021-09-24 15:12:24.705149,-29
2021-09-24 15:12:24.705155,539
2021-09-24 15:12:24.705162,626
2021-09-24 15:12:24.705168,250
2021-09-24 15:12:24.705175,31
2021-09-24 15:12:24.705181,41
2021-09-24 15:12:24.705188,-51
2021-09-24 15:12:24.705194,-140
2021-09-24 15:12:24.705201,-123
2021-09-24 15:12:24.705207,-126
2021-09-24 15:12:24.705214,-162
2021-09-24 15:12:24.705220,-162
2021-09-24 15:12:24.705227,-162
2021-09-24 15:12:24.705233,-182
2021-09-24 15:12:24.705240,-189
2021-09-24 15:12:24.705246,-199
2021-09-24 15:12:24.705253,-218
2021-09-24 15:12:24.975059,-230
2021-09-24 15:12:24.975091,-242
2021-09-24 15:12:24.975103,-264
2021-09-24 15:12:24.975113,-291
2021-09-24 15:12:24.975123,-323
2021-09-24 15:12:24.975133,-354
2021-09-24 15:12:24.975143,-378
2021-09-24 15:12:24.975153,-410
2021-09-24 15:12:24.975163,-442
2021-09-24 15:12:24.975173,-454
2021-09-24 15:12:24.975182,-446
2021-09-24 15:12:24.975192,-422
2021-09-24 15:12:24.975202,-378
2021-09-24 15:12:24.975212,-310
2021-09-24 15:12:24.975222,-208
2021-09-24 15:12:24.975231,-97
2021-09-24 15:12:24.975241,-9
2021-09-24 15:12:24.975251,58
2021-09-24 15:12:24.975261,121
2021-09-24 15:12:24.975271,167
2021-09-24 15:12:24.975281,189
2021-09-24 15:12:24.975290,196
2021-09-24 15:12:24.975300,204
2021-09-24 15:12:24.975310,211
2021-09-24 15:12:24.975320,216
2021-09-24 15:12:24.975330,206
2021-09-24 15:12:24.975340,194
2021-09-24 15:12:24.975382,187
2021-09-24 15:12:24.975392,177
2021-09-24 15:12:24.975402,165
2021-09-24 15:12:25.155111,157
2021-09-24 15:12:25.155134,143
2021-09-24 15:12:25.155142,131
2021-09-24 15:12:25.155149,123
2021-09-24 15:12:25.155156,111
2021-09-24 15:12:25.155162,102
2021-09-24 15:12:25.155169,102
2021-09-24 15:12:25.155175,102
2021-09-24 15:12:25.155182,99
2021-09-24 15:12:25.155188,92
2021-09-24 15:12:25.155195,87
2021-09-24 15:12:25.155201,85
2021-09-24 15:12:25.155207,89
2021-09-24 15:12:25.155214,94
2021-09-24 15:12:25.155221,92
2021-09-24 15:12:25.155227,85
2021-09-24 15:12:25.155234,77
2021-09-24 15:12:25.155240,80
2021-09-24 15:12:25.155247,85
2021-09-24 15:12:25.155253,87
2021-09-24 15:12:25.155260,85
2021-09-24 15:12:25.155266,80
2021-09-24 15:12:25.155273,77
2021-09-24 15:12:25.155279,72
2021-09-24 15:12:25.155286,70
2021-09-24 15:12:25.155292,72
2021-09-24 15:12:25.155299,70
2021-09-24 15:12:25.155327,65
2021-09-24 15:12:25.155335,65
2021-09-24 15:12:25.155341,65
2021-09-24 15:12:25.559166,51
2021-09-24 15:12:25.559189,34
2021-09-24 15:12:25.559197,21
2021-09-24 15:12:25.559204,19
2021-09-24 15:12:25.559211,14
2021-09-24 15:12:25.559217,17
2021-09-24 15:12:25.559224,34
2021-09-24 15:12:25.559231,51
2021-09-24 15:12:25.559237,51
2021-09-24 15:12:25.559244,31
2021-09-24 15:12:25.559251,21
2021-09-24 15:12:25.559258,29
2021-09-24 15:12:25.559264,24
2021-09-24 15:12:25.559271,17
2021-09-24 15:12:25.559278,14
2021-09-24 15:12:25.559285,17
2021-09-24 15:12:25.559291,9
2021-09-24 15:12:25.559298,-24
2021-09-24 15:12:25.559305,-94
2021-09-24 15:12:25.559312,-262
2021-09-24 15:12:25.559318,-495
2021-09-24 15:12:25.559325,-507
2021-09-24 15:12:25.559332,-104
2021-09-24 15:12:25.559339,463
2021-09-24 15:12:25.559345,643
2021-09-24 15:12:25.559352,310
2021-09-24 15:12:25.559359,51
2021-09-24 15:12:25.559365,53
2021-09-24 15:12:25.559372,-21
2021-09-24 15:12:25.559379,-131
2021-09-24 15:12:25.694521,-119
2021-09-24 15:12:25.694541,-106
2021-09-24 15:12:25.694548,-140
2021-09-24 15:12:25.694555,-150
2021-09-24 15:12:25.694562,-148
2021-09-24 15:12:25.694568,-162
2021-09-24 15:12:25.694575,-172
2021-09-24 15:12:25.694581,-177
2021-09-24 15:12:25.694588,-196
2021-09-24 15:12:25.694594,-213
2021-09-24 15:12:25.694601,-223
2021-09-24 15:12:25.694607,-242
2021-09-24 15:12:25.694614,-264
2021-09-24 15:12:25.694620,-289
2021-09-24 15:12:25.694626,-327
2021-09-24 15:12:25.694633,-364
2021-09-24 15:12:25.694639,-383
2021-09-24 15:12:25.694646,-395
2021-09-24 15:12:25.694653,-408
2021-09-24 15:12:25.694659,-405
2021-09-24 15:12:25.694665,-395
2021-09-24 15:12:25.694672,-359
2021-09-24 15:12:25.694678,-286
2021-09-24 15:12:25.694685,-182
2021-09-24 15:12:25.694691,-72
2021-09-24 15:12:25.694698,19
2021-09-24 15:12:25.694704,94
2021-09-24 15:12:25.694711,153
2021-09-24 15:12:25.694717,199
2021-09-24 15:12:25.694724,225
2021-09-24 15:12:25.875134,235
2021-09-24 15:12:25.875158,238
2021-09-24 15:12:25.875166,233
2021-09-24 15:12:25.875172,230
2021-09-24 15:12:25.875179,225
2021-09-24 15:12:25.875185,221
2021-09-24 15:12:25.875192,218
2021-09-24 15:12:25.875198,201
2021-09-24 15:12:25.875205,182
2021-09-24 15:12:25.875211,174
2021-09-24 15:12:25.875218,165
2021-09-24 15:12:25.875224,153
2021-09-24 15:12:25.875231,143
2021-09-24 15:12:25.875237,133
2021-09-24 15:12:25.875244,121
2021-09-24 15:12:25.875250,116
2021-09-24 15:12:25.875256,111
2021-09-24 15:12:25.875263,99
2021-09-24 15:12:25.875269,92
2021-09-24 15:12:25.875276,92
2021-09-24 15:12:25.875282,89
2021-09-24 15:12:25.875289,85
2021-09-24 15:12:25.875295,89
2021-09-24 15:12:25.875302,97
2021-09-24 15:12:25.875308,97
2021-09-24 15:12:25.875315,87
2021-09-24 15:12:25.875321,87
2021-09-24 15:12:25.875328,89
2021-09-24 15:12:25.875334,77
2021-09-24 15:12:25.875341,70
2021-09-24 15:12:26.099568,75
2021-09-24 15:12:26.099589,75
2021-09-24 15:12:26.099597,68
2021-09-24 15:12:26.099603,63
2021-09-24 15:12:26.099610,63
2021-09-24 15:12:26.099616,70
2021-09-24 15:12:26.099623,63
2021-09-24 15:12:26.099630,48
2021-09-24 15:12:26.099636,48
2021-09-24 15:12:26.099643,55
2021-09-24 15:12:26.099649,55
2021-09-24 15:12:26.099655,48
2021-09-24 15:12:26.099662,31
2021-09-24 15:12:26.099668,12
2021-09-24 15:12:26.099675,4
2021-09-24 15:12:26.099681,7
2021-09-24 15:12:26.099688,7
2021-09-24 15:12:26.099694,7
2021-09-24 15:12:26.099701,17
2021-09-24 15:12:26.099707,26
2021-09-24 15:12:26.099714,36
2021-09-24 15:12:26.099720,36
2021-09-24 15:12:26.099727,26
2021-09-24 15:12:26.099733,29
2021-09-24 15:12:26.099740,34
2021-09-24 15:12:26.099746,26
2021-09-24 15:12:26.099752,24
2021-09-24 15:12:26.099759,26
2021-09-24 15:12:26.099766,7
2021-09-24 15:12:26.099772,-43
2021-09-24 15:12:26.324449,-145
2021-09-24 15:12:26.324470,-349
2021-09-24 15:12:26.324478,-531
2021-09-24 15:12:26.324485,-386
2021-09-24 15:12:26.324492,119
2021-09-24 15:12:26.324498,602
2021-09-24 15:12:26.324505,604
2021-09-24 15:12:26.324512,223
2021-09-24 15:12:26.324518,48
2021-09-24 15:12:26.324525,58
2021-09-24 15:12:26.324531,-55
2021-09-24 15:12:26.324538,-140
2021-09-24 15:12:26.324544,-109
2021-09-24 15:12:26.324551,-114
2021-09-24 15:12:26.324557,-148
2021-09-24 15:12:26.324564,-148
2021-09-24 15:12:26.324590,-145
2021-09-24 15:12:26.324624,-165
2021-09-24 15:12:26.324635,-177
2021-09-24 15:12:26.324642,-184
2021-09-24 15:12:26.324649,-201
2021-09-24 15:12:26.324655,-216
2021-09-24 15:12:26.324661,-230
2021-09-24 15:12:26.324668,-252
2021-09-24 15:12:26.324674,-276
2021-09-24 15:12:26.324681,-293
2021-09-24 15:12:26.324687,-325
2021-09-24 15:12:26.324694,-359
2021-09-24 15:12:26.324700,-376
2021-09-24 15:12:26.324706,-393
2021-09-24 15:12:26.550094,-410
2021-09-24 15:12:26.550118,-405
2021-09-24 15:12:26.550126,-383
2021-09-24 15:12:26.550133,-349
2021-09-24 15:12:26.550139,-289
2021-09-24 15:12:26.550146,-199
2021-09-24 15:12:26.550152,-92
2021-09-24 15:12:26.550159,9
2021-09-24 15:12:26.550165,92
2021-09-24 15:12:26.550172,150
2021-09-24 15:12:26.550178,187
2021-09-24 15:12:26.550185,201
2021-09-24 15:12:26.550191,206
2021-09-24 15:12:26.550198,216
2021-09-24 15:12:26.550204,216
2021-09-24 15:12:26.550211,206
2021-09-24 15:12:26.550217,204
2021-09-24 15:12:26.550224,206
2021-09-24 15:12:26.550230,196
2021-09-24 15:12:26.550237,189
2021-09-24 15:12:26.550243,184
2021-09-24 15:12:26.550250,172
2021-09-24 15:12:26.550256,150
2021-09-24 15:12:26.550263,136
2021-09-24 15:12:26.550269,133
2021-09-24 15:12:26.550276,126
2021-09-24 15:12:26.550282,116
2021-09-24 15:12:26.550289,114
2021-09-24 15:12:26.550295,109
2021-09-24 15:12:26.550302,102
2021-09-24 15:12:26.820116,102
2021-09-24 15:12:26.820144,102
2021-09-24 15:12:26.820154,97
2021-09-24 15:12:26.820161,97
2021-09-24 15:12:26.820168,94
2021-09-24 15:12:26.820174,87
2021-09-24 15:12:26.820181,89
2021-09-24 15:12:26.820187,97
2021-09-24 15:12:26.820193,94
2021-09-24 15:12:26.820200,89
2021-09-24 15:12:26.820206,85
2021-09-24 15:12:26.820212,80
2021-09-24 15:12:26.820219,80
2021-09-24 15:12:26.820225,85
2021-09-24 15:12:26.820231,82
2021-09-24 15:12:26.820238,77
2021-09-24 15:12:26.820244,68
2021-09-24 15:12:26.820250,63
2021-09-24 15:12:26.820257,63
2021-09-24 15:12:26.820263,68
2021-09-24 15:12:26.820270,68
2021-09-24 15:12:26.820276,68
2021-09-24 15:12:26.820283,63
2021-09-24 15:12:26.820289,43
2021-09-24 15:12:26.820295,19
2021-09-24 15:12:26.820301,12
2021-09-24 15:12:26.820308,21
2021-09-24 15:12:26.820314,17
2021-09-24 15:12:26.820321,9
2021-09-24 15:12:26.820327,24
2021-09-24 15:12:27.000103,46
2021-09-24 15:12:27.000126,51
2021-09-24 15:12:27.000134,43
2021-09-24 15:12:27.000141,34
2021-09-24 15:12:27.000147,26
2021-09-24 15:12:27.000154,26
2021-09-24 15:12:27.000160,31
2021-09-24 15:12:27.000167,31
2021-09-24 15:12:27.000173,29
2021-09-24 15:12:27.000180,17
2021-09-24 15:12:27.000186,-26
2021-09-24 15:12:27.000193,-106
2021-09-24 15:12:27.000199,-281
2021-09-24 15:12:27.000206,-510
2021-09-24 15:12:27.000212,-490
2021-09-24 15:12:27.000219,-85
2021-09-24 15:12:27.000225,456
2021-09-24 15:12:27.000232,672
2021-09-24 15:12:27.000238,357
2021-09-24 15:12:27.000245,41
2021-09-24 15:12:27.000251,26
2021-09-24 15:12:27.000258,-36
2021-09-24 15:12:27.000264,-143
2021-09-24 15:12:27.000271,-119
2021-09-24 15:12:27.000277,-102
2021-09-24 15:12:27.000284,-140
2021-09-24 15:12:27.000290,-150
2021-09-24 15:12:27.000297,-153
2021-09-24 15:12:27.000303,-172
2021-09-24 15:12:27.000310,-184
2021-09-24 15:12:27.270058,-187
2021-09-24 15:12:27.270082,-196
2021-09-24 15:12:27.270090,-213
2021-09-24 15:12:27.270096,-238
2021-09-24 15:12:27.270103,-259
2021-09-24 15:12:27.270109,-279
2021-09-24 15:12:27.270116,-298
2021-09-24 15:12:27.270123,-325
2021-09-24 15:12:27.270129,-364
2021-09-24 15:12:27.270136,-403
2021-09-24 15:12:27.270142,-427
2021-09-24 15:12:27.270148,-434
2021-09-24 15:12:27.270155,-439
2021-09-24 15:12:27.270161,-429
2021-09-24 15:12:27.270168,-398
2021-09-24 15:12:27.270174,-337
2021-09-24 15:12:27.270181,-238
2021-09-24 15:12:27.270187,-121
2021-09-24 15:12:27.270194,-14
2021-09-24 15:12:27.270200,77
2021-09-24 15:12:27.270207,145
2021-09-24 15:12:27.270213,189
2021-09-24 15:12:27.270220,218
2021-09-24 15:12:27.270226,238
2021-09-24 15:12:27.270232,247
2021-09-24 15:12:27.270239,245
2021-09-24 15:12:27.270245,240
2021-09-24 15:12:27.270252,230
2021-09-24 15:12:27.270258,218
2021-09-24 15:12:27.270265,213
2021-09-24 15:12:27.538668,206
2021-09-24 15:12:27.538690,196
2021-09-24 15:12:27.538698,184
2021-09-24 15:12:27.538704,172
2021-09-24 15:12:27.538711,165
2021-09-24 15:12:27.538717,160
2021-09-24 15:12:27.538724,153
2021-09-24 15:12:27.538730,143
2021-09-24 15:12:27.538737,128
2021-09-24 15:12:27.538743,114
2021-09-24 15:12:27.538750,111
2021-09-24 15:12:27.538757,114
2021-09-24 15:12:27.538763,109
2021-09-24 15:12:27.538770,109
2021-09-24 15:12:27.538776,99
2021-09-24 15:12:27.538783,85
2021-09-24 15:12:27.538789,80
2021-09-24 15:12:27.538796,82
2021-09-24 15:12:27.538802,82
2021-09-24 15:12:27.538809,80
2021-09-24 15:12:27.538815,80
2021-09-24 15:12:27.538822,80
2021-09-24 15:12:27.538828,82
2021-09-24 15:12:27.538835,85
2021-09-24 15:12:27.538841,87
2021-09-24 15:12:27.538848,85
2021-09-24 15:12:27.538854,80
2021-09-24 15:12:27.538861,77
2021-09-24 15:12:27.538868,72
2021-09-24 15:12:27.538874,70
2021-09-24 15:12:27.720092,65
2021-09-24 15:12:27.720117,58
2021-09-24 15:12:27.720125,51
2021-09-24 15:12:27.720132,53
2021-09-24 15:12:27.720139,58
2021-09-24 15:12:27.720146,60
2021-09-24 15:12:27.720153,60
2021-09-24 15:12:27.720160,46
2021-09-24 15:12:27.720167,19
2021-09-24 15:12:27.720174,2
2021-09-24 15:12:27.720181,9
2021-09-24 15:12:27.720188,17
2021-09-24 15:12:27.720194,7
2021-09-24 15:12:27.720201,4
2021-09-24 15:12:27.720208,17
2021-09-24 15:12:27.720215,29
2021-09-24 15:12:27.720222,34
2021-09-24 15:12:27.720229,26
2021-09-24 15:12:27.720235,26
2021-09-24 15:12:27.720242,31
2021-09-24 15:12:27.720249,26
2021-09-24 15:12:27.720256,24
2021-09-24 15:12:27.720263,29
2021-09-24 15:12:27.720270,29
2021-09-24 15:12:27.720277,12
2021-09-24 15:12:27.720283,-31
2021-09-24 15:12:27.720291,-133
2021-09-24 15:12:27.720297,-359
2021-09-24 15:12:27.720304,-566
2021-09-24 15:12:27.720311,-417
2021-09-24 15:12:27.945103,114
2021-09-24 15:12:27.945126,619
2021-09-24 15:12:27.945134,614
2021-09-24 15:12:27.945141,221
2021-09-24 15:12:27.945148,36
2021-09-24 15:12:27.945154,41
2021-09-24 15:12:27.945161,-70
2021-09-24 15:12:27.945167,-150
2021-09-24 15:12:27.945174,-116
2021-09-24 15:12:27.945180,-119
2021-09-24 15:12:27.945187,-153
2021-09-24 15:12:27.945193,-148
2021-09-24 15:12:27.945200,-155
2021-09-24 15:12:27.945206,-182
2021-09-24 15:12:27.945213,-191
2021-09-24 15:12:27.945219,-189
2021-09-24 15:12:27.945226,-201
2021-09-24 15:12:27.945232,-218
2021-09-24 15:12:27.945239,-235
2021-09-24 15:12:27.945245,-262
2021-09-24 15:12:27.945252,-281
2021-09-24 15:12:27.945259,-310
2021-09-24 15:12:27.945265,-354
2021-09-24 15:12:27.945271,-388
2021-09-24 15:12:27.945278,-408
2021-09-24 15:12:27.945285,-429
2021-09-24 15:12:27.945291,-444
2021-09-24 15:12:27.945297,-439
2021-09-24 15:12:27.945304,-422
2021-09-24 15:12:27.945311,-381
2021-09-24 15:12:28.170132,-308
2021-09-24 15:12:28.170155,-208
2021-09-24 15:12:28.170163,-102
2021-09-24 15:12:28.170171,-2
2021-09-24 15:12:28.170177,80
2021-09-24 15:12:28.170184,138
2021-09-24 15:12:28.170191,174
2021-09-24 15:12:28.170197,201
2021-09-24 15:12:28.170204,213
2021-09-24 15:12:28.170233,218
2021-09-24 15:12:28.170239,221
2021-09-24 15:12:28.170246,216
2021-09-24 15:12:28.170252,199
2021-09-24 15:12:28.170259,191
2021-09-24 15:12:28.170265,191
2021-09-24 15:12:28.170272,182
2021-09-24 15:12:28.170278,170
2021-09-24 15:12:28.170285,162
2021-09-24 15:12:28.170291,153
2021-09-24 15:12:28.170298,140
2021-09-24 15:12:28.170304,136
2021-09-24 15:12:28.170311,128
2021-09-24 15:12:28.170317,121
2021-09-24 15:12:28.170324,116
2021-09-24 15:12:28.170330,111
2021-09-24 15:12:28.170337,109
2021-09-24 15:12:28.170343,106
2021-09-24 15:12:28.170350,104
2021-09-24 15:12:28.170356,104
2021-09-24 15:12:28.170363,104
2021-09-24 15:12:28.395065,104
2021-09-24 15:12:28.395089,106
2021-09-24 15:12:28.395096,106
2021-09-24 15:12:28.395103,106
2021-09-24 15:12:28.395110,106
2021-09-24 15:12:28.395116,99
2021-09-24 15:12:28.395123,87
2021-09-24 15:12:28.395129,85
2021-09-24 15:12:28.395136,85
2021-09-24 15:12:28.395142,82
2021-09-24 15:12:28.395149,72
2021-09-24 15:12:28.395155,65
2021-09-24 15:12:28.395162,63
2021-09-24 15:12:28.395168,63
2021-09-24 15:12:28.395175,63
2021-09-24 15:12:28.395181,60
2021-09-24 15:12:28.395188,58
2021-09-24 15:12:28.395194,58
2021-09-24 15:12:28.395201,58
2021-09-24 15:12:28.395207,60
2021-09-24 15:12:28.395214,58
2021-09-24 15:12:28.395220,58
2021-09-24 15:12:28.395227,60
2021-09-24 15:12:28.395233,60
2021-09-24 15:12:28.395240,53
2021-09-24 15:12:28.395246,36
2021-09-24 15:12:28.395253,14
2021-09-24 15:12:28.395259,0
2021-09-24 15:12:28.395266,-9
2021-09-24 15:12:28.395273,-21
2021-09-24 15:12:28.665091,-17
2021-09-24 15:12:28.665115,7
2021-09-24 15:12:28.665124,26
2021-09-24 15:12:28.665131,31
2021-09-24 15:12:28.665138,26
2021-09-24 15:12:28.665145,17
2021-09-24 15:12:28.665151,17
2021-09-24 15:12:28.665158,21
2021-09-24 15:12:28.665165,19
2021-09-24 15:12:28.665172,9
2021-09-24 15:12:28.665179,2
2021-09-24 15:12:28.665185,-4
2021-09-24 15:12:28.665192,-34
2021-09-24 15:12:28.665199,-102
2021-09-24 15:12:28.665206,-286
2021-09-24 15:12:28.665213,-531
2021-09-24 15:12:28.665219,-514
2021-09-24 15:12:28.665226,-65
2021-09-24 15:12:28.665233,512
2021-09-24 15:12:28.665240,677
2021-09-24 15:12:28.665247,327
2021-09-24 15:12:28.665254,55
2021-09-24 15:12:28.665260,46
2021-09-24 15:12:28.665267,-34
2021-09-24 15:12:28.665274,-128
2021-09-24 15:12:28.665281,-104
2021-09-24 15:12:28.665288,-94
2021-09-24 15:12:28.665295,-133
2021-09-24 15:12:28.665302,-140
2021-09-24 15:12:28.665308,-136
2021-09-24 15:12:28.890139,-150
2021-09-24 15:12:28.890164,-165
2021-09-24 15:12:28.890172,-170
2021-09-24 15:12:28.890179,-187
2021-09-24 15:12:28.890186,-211
2021-09-24 15:12:28.890193,-230
2021-09-24 15:12:28.890199,-245
2021-09-24 15:12:28.890206,-264
2021-09-24 15:12:28.890213,-286
2021-09-24 15:12:28.890220,-315
2021-09-24 15:12:28.890227,-349
2021-09-24 15:12:28.890234,-383
2021-09-24 15:12:28.890241,-403
2021-09-24 15:12:28.890247,-412
2021-09-24 15:12:28.890254,-420
2021-09-24 15:12:28.890261,-417
2021-09-24 15:12:28.890268,-388
2021-09-24 15:12:28.890275,-325
2021-09-24 15:12:28.890282,-230
2021-09-24 15:12:28.890289,-123
2021-09-24 15:12:28.890296,-21
2021-09-24 15:12:28.890303,63
2021-09-24 15:12:28.890309,131
2021-09-24 15:12:28.890316,187
2021-09-24 15:12:28.890323,218
2021-09-24 15:12:28.890330,230
2021-09-24 15:12:28.890337,235
2021-09-24 15:12:28.890344,235
2021-09-24 15:12:28.890351,235
2021-09-24 15:12:28.890358,235
2021-09-24 15:12:29.160009,230
2021-09-24 15:12:29.160032,216
2021-09-24 15:12:29.160040,204
2021-09-24 15:12:29.160047,191
2021-09-24 15:12:29.160054,170
2021-09-24 15:12:29.160060,160
2021-09-24 15:12:29.160067,155
2021-09-24 15:12:29.160073,148
2021-09-24 15:12:29.160080,136
2021-09-24 15:12:29.160086,121
2021-09-24 15:12:29.160093,111
2021-09-24 15:12:29.160099,114
2021-09-24 15:12:29.160105,106
2021-09-24 15:12:29.160112,94
2021-09-24 15:12:29.160119,87
2021-09-24 15:12:29.160125,85
2021-09-24 15:12:29.160132,80
2021-09-24 15:12:29.160138,82
2021-09-24 15:12:29.160145,87
2021-09-24 15:12:29.160151,80
2021-09-24 15:12:29.160158,75
2021-09-24 15:12:29.160164,80
2021-09-24 15:12:29.160171,80
2021-09-24 15:12:29.160177,75
2021-09-24 15:12:29.160184,72
2021-09-24 15:12:29.160190,77
2021-09-24 15:12:29.160197,75
2021-09-24 15:12:29.160204,68
2021-09-24 15:12:29.160210,70
2021-09-24 15:12:29.160217,77
2021-09-24 15:12:29.340136,72
2021-09-24 15:12:29.340160,68
2021-09-24 15:12:29.340168,65
2021-09-24 15:12:29.340175,58
2021-09-24 15:12:29.340181,55
2021-09-24 15:12:29.340188,55
2021-09-24 15:12:29.340194,55
2021-09-24 15:12:29.340201,51
2021-09-24 15:12:29.340207,31
2021-09-24 15:12:29.340214,21
2021-09-24 15:12:29.340220,29
2021-09-24 15:12:29.340227,24
2021-09-24 15:12:29.340234,2
2021-09-24 15:12:29.340240,-12
2021-09-24 15:12:29.340247,-9
2021-09-24 15:12:29.340253,-14
2021-09-24 15:12:29.340437,-24
2021-09-24 15:12:29.340446,-9
2021-09-24 15:12:29.340485,19
2021-09-24 15:12:29.340491,29
2021-09-24 15:12:29.340498,17
2021-09-24 15:12:29.340504,9
2021-09-24 15:12:29.340511,21
2021-09-24 15:12:29.340517,29
2021-09-24 15:12:29.340523,29
2021-09-24 15:12:29.340530,26
2021-09-24 15:12:29.340536,19
2021-09-24 15:12:29.340543,14
2021-09-24 15:12:29.340549,7
2021-09-24 15:12:29.340555,-17
2021-09-24 15:12:29.698939,-102
2021-09-24 15:12:29.698974,-320
2021-09-24 15:12:29.698981,-563
2021-09-24 15:12:29.698987,-497
2021-09-24 15:12:29.698993,2
2021-09-24 15:12:29.698999,568
2021-09-24 15:12:29.699005,638
2021-09-24 15:12:29.699011,257
2021-09-24 15:12:29.699017,43
2021-09-24 15:12:29.699023,38
2021-09-24 15:12:29.699029,-65
2021-09-24 15:12:29.699035,-143
2021-09-24 15:12:29.699041,-109
2021-09-24 15:12:29.699047,-116
2021-09-24 15:12:29.699052,-157
2021-09-24 15:12:29.699058,-162
2021-09-24 15:12:29.699064,-165
2021-09-24 15:12:29.699070,-184
2021-09-24 15:12:29.699076,-189
2021-09-24 15:12:29.699082,-199
2021-09-24 15:12:29.699088,-218
2021-09-24 15:12:29.699094,-233
2021-09-24 15:12:29.699100,-242
2021-09-24 15:12:29.699106,-262
2021-09-24 15:12:29.699112,-286
2021-09-24 15:12:29.699118,-318
2021-09-24 15:12:29.699123,-344
2021-09-24 15:12:29.699129,-371
2021-09-24 15:12:29.699135,-393
2021-09-24 15:12:29.699141,-408
2021-09-24 15:12:29.790087,-422
2021-09-24 15:12:29.790111,-422
2021-09-24 15:12:29.790119,-403
2021-09-24 15:12:29.790126,-369
2021-09-24 15:12:29.790133,-303
2021-09-24 15:12:29.790140,-201
2021-09-24 15:12:29.790146,-92
2021-09-24 15:12:29.790153,-2
2021-09-24 15:12:29.790159,72
2021-09-24 15:12:29.790166,140
2021-09-24 15:12:29.790172,194
2021-09-24 15:12:29.790179,221
2021-09-24 15:12:29.790185,223
2021-09-24 15:12:29.790192,221
2021-09-24 15:12:29.790198,223
2021-09-24 15:12:29.790205,223
2021-09-24 15:12:29.790212,216
2021-09-24 15:12:29.790218,208
