Time,ECG
2021-09-24 15:42:00.113009,-410
2021-09-24 15:42:00.113032,19
2021-09-24 15:42:00.113040,551
2021-09-24 15:42:00.113046,680
2021-09-24 15:42:00.113053,313
2021-09-24 15:42:00.113060,60
2021-09-24 15:42:00.113066,77
2021-09-24 15:42:00.113073,-2
2021-09-24 15:42:00.113079,-99
2021-09-24 15:42:00.113086,-80
2021-09-24 15:42:00.113092,-80
2021-09-24 15:42:00.113099,-116
2021-09-24 15:42:00.113105,-126
2021-09-24 15:42:00.113112,-126
2021-09-24 15:42:00.113119,-138
2021-09-24 15:42:00.113125,-153
2021-09-24 15:42:00.113132,-157
2021-09-24 15:42:00.113138,-170
2021-09-24 15:42:00.113145,-191
2021-09-24 15:42:00.113151,-211
2021-09-24 15:42:00.113158,-230
2021-09-24 15:42:00.113164,-247
2021-09-24 15:42:00.113171,-264
2021-09-24 15:42:00.113177,-296
2021-09-24 15:42:00.113184,-330
2021-09-24 15:42:00.113190,-352
2021-09-24 15:42:00.113197,-376
2021-09-24 15:42:00.113203,-400
2021-09-24 15:42:00.113210,-415
2021-09-24 15:42:00.113216,-420
2021-09-24 15:42:00.292647,-417
2021-09-24 15:42:00.292669,-386
2021-09-24 15:42:00.292676,-325
2021-09-24 15:42:00.292683,-240
2021-09-24 15:42:00.292690,-138
2021-09-24 15:42:00.292696,-31
2021-09-24 15:42:00.292703,55
2021-09-24 15:42:00.292710,121
2021-09-24 15:42:00.292716,182
2021-09-24 15:42:00.292723,221
2021-09-24 15:42:00.292730,230
2021-09-24 15:42:00.292736,233
2021-09-24 15:42:00.292743,242
2021-09-24 15:42:00.292749,242
2021-09-24 15:42:00.292756,228
2021-09-24 15:42:00.292763,223
2021-09-24 15:42:00.292769,216
2021-09-24 15:42:00.292776,199
2021-09-24 15:42:00.292782,184
2021-09-24 15:42:00.292789,179
2021-09-24 15:42:00.292796,160
2021-09-24 15:42:00.292803,143
2021-09-24 15:42:00.292809,133
2021-09-24 15:42:00.292816,121
2021-09-24 15:42:00.292823,116
2021-09-24 15:42:00.292829,111
2021-09-24 15:42:00.292836,104
2021-09-24 15:42:00.292843,104
2021-09-24 15:42:00.292849,102
2021-09-24 15:42:00.292856,94
2021-09-24 15:42:00.517980,97
2021-09-24 15:42:00.518004,106
2021-09-24 15:42:00.518013,102
2021-09-24 15:42:00.518020,89
2021-09-24 15:42:00.518026,89
2021-09-24 15:42:00.518033,94
2021-09-24 15:42:00.518040,92
2021-09-24 15:42:00.518047,89
2021-09-24 15:42:00.518053,89
2021-09-24 15:42:00.518060,89
2021-09-24 15:42:00.518067,82
2021-09-24 15:42:00.518074,82
2021-09-24 15:42:00.518080,80
2021-09-24 15:42:00.518087,70
2021-09-24 15:42:00.518094,65
2021-09-24 15:42:00.518101,72
2021-09-24 15:42:00.518107,70
2021-09-24 15:42:00.518114,63
2021-09-24 15:42:00.518121,65
2021-09-24 15:42:00.518127,72
2021-09-24 15:42:00.518134,70
2021-09-24 15:42:00.518141,65
2021-09-24 15:42:00.518147,65
2021-09-24 15:42:00.518154,58
2021-09-24 15:42:00.518161,46
2021-09-24 15:42:00.518167,43
2021-09-24 15:42:00.518174,51
2021-09-24 15:42:00.518181,48
2021-09-24 15:42:00.518187,43
2021-09-24 15:42:00.518194,46
2021-09-24 15:42:00.742948,51
2021-09-24 15:42:00.742970,53
2021-09-24 15:42:00.742978,55
2021-09-24 15:42:00.742985,46
2021-09-24 15:42:00.742991,21
2021-09-24 15:42:00.742998,9
2021-09-24 15:42:00.743004,9
2021-09-24 15:42:00.743011,12
2021-09-24 15:42:00.743018,2
2021-09-24 15:42:00.743024,0
2021-09-24 15:42:00.743031,7
2021-09-24 15:42:00.743038,26
2021-09-24 15:42:00.743044,48
2021-09-24 15:42:00.743051,53
2021-09-24 15:42:00.743057,43
2021-09-24 15:42:00.743064,38
2021-09-24 15:42:00.743070,38
2021-09-24 15:42:00.743077,41
2021-09-24 15:42:00.743084,46
2021-09-24 15:42:00.743090,41
2021-09-24 15:42:00.743097,14
2021-09-24 15:42:00.743103,-38
2021-09-24 15:42:00.743110,-145
2021-09-24 15:42:00.743116,-342
2021-09-24 15:42:00.743123,-446
2021-09-24 15:42:00.743130,-213
2021-09-24 15:42:00.743136,269
2021-09-24 15:42:00.743143,658
2021-09-24 15:42:00.743149,580
2021-09-24 15:42:00.743156,199
2021-09-24 15:42:01.101715,53
2021-09-24 15:42:01.101740,68
2021-09-24 15:42:01.101749,-43
2021-09-24 15:42:01.101756,-119
2021-09-24 15:42:01.101763,-85
2021-09-24 15:42:01.101770,-89
2021-09-24 15:42:01.101777,-123
2021-09-24 15:42:01.101783,-121
2021-09-24 15:42:01.101790,-123
2021-09-24 15:42:01.101797,-148
2021-09-24 15:42:01.101804,-162
2021-09-24 15:42:01.101811,-162
2021-09-24 15:42:01.101818,-170
2021-09-24 15:42:01.101825,-191
2021-09-24 15:42:01.101832,-211
2021-09-24 15:42:01.101839,-225
2021-09-24 15:42:01.101846,-245
2021-09-24 15:42:01.101852,-274
2021-09-24 15:42:01.101859,-306
2021-09-24 15:42:01.101898,-332
2021-09-24 15:42:01.101905,-359
2021-09-24 15:42:01.101912,-391
2021-09-24 15:42:01.101918,-415
2021-09-24 15:42:01.101925,-425
2021-09-24 15:42:01.101932,-427
2021-09-24 15:42:01.101939,-417
2021-09-24 15:42:01.101946,-381
2021-09-24 15:42:01.101953,-320
2021-09-24 15:42:01.101959,-228
2021-09-24 15:42:01.101966,-114
2021-09-24 15:42:01.237725,-14
2021-09-24 15:42:01.237747,63
2021-09-24 15:42:01.237755,131
2021-09-24 15:42:01.237762,177
2021-09-24 15:42:01.237768,206
2021-09-24 15:42:01.237775,223
2021-09-24 15:42:01.237782,233
2021-09-24 15:42:01.237788,233
2021-09-24 15:42:01.237795,221
2021-09-24 15:42:01.237801,206
2021-09-24 15:42:01.237808,199
2021-09-24 15:42:01.237814,189
2021-09-24 15:42:01.237821,170
2021-09-24 15:42:01.237827,162
2021-09-24 15:42:01.237834,150
2021-09-24 15:42:01.237840,128
2021-09-24 15:42:01.237846,123
2021-09-24 15:42:01.237853,123
2021-09-24 15:42:01.237859,114
2021-09-24 15:42:01.237866,102
2021-09-24 15:42:01.237872,89
2021-09-24 15:42:01.237894,80
2021-09-24 15:42:01.237901,82
2021-09-24 15:42:01.237907,85
2021-09-24 15:42:01.237914,77
2021-09-24 15:42:01.237920,80
2021-09-24 15:42:01.237927,82
2021-09-24 15:42:01.237933,80
2021-09-24 15:42:01.237940,85
2021-09-24 15:42:01.237946,87
2021-09-24 15:42:01.463063,87
2021-09-24 15:42:01.463087,89
2021-09-24 15:42:01.463095,85
2021-09-24 15:42:01.463101,80
2021-09-24 15:42:01.463108,87
2021-09-24 15:42:01.463114,87
2021-09-24 15:42:01.463121,82
2021-09-24 15:42:01.463128,77
2021-09-24 15:42:01.463134,77
2021-09-24 15:42:01.463141,75
2021-09-24 15:42:01.463147,70
2021-09-24 15:42:01.463154,68
2021-09-24 15:42:01.463161,70
2021-09-24 15:42:01.463167,68
2021-09-24 15:42:01.463174,60
2021-09-24 15:42:01.463180,63
2021-09-24 15:42:01.463187,60
2021-09-24 15:42:01.463193,58
2021-09-24 15:42:01.463200,60
2021-09-24 15:42:01.463206,55
2021-09-24 15:42:01.463213,51
2021-09-24 15:42:01.463220,48
2021-09-24 15:42:01.463226,41
2021-09-24 15:42:01.463233,38
2021-09-24 15:42:01.463240,43
2021-09-24 15:42:01.463246,38
2021-09-24 15:42:01.463253,36
2021-09-24 15:42:01.463259,46
2021-09-24 15:42:01.463266,46
2021-09-24 15:42:01.463273,38
2021-09-24 15:42:01.687911,29
2021-09-24 15:42:01.687932,12
2021-09-24 15:42:01.687940,2
2021-09-24 15:42:01.687947,7
2021-09-24 15:42:01.687953,-2
2021-09-24 15:42:01.687960,-9
2021-09-24 15:42:01.687967,-2
2021-09-24 15:42:01.687973,14
2021-09-24 15:42:01.687980,24
2021-09-24 15:42:01.687986,21
2021-09-24 15:42:01.687993,24
2021-09-24 15:42:01.687999,26
2021-09-24 15:42:01.688006,24
2021-09-24 15:42:01.688012,19
2021-09-24 15:42:01.688019,19
2021-09-24 15:42:01.688025,9
2021-09-24 15:42:01.688032,-26
2021-09-24 15:42:01.688038,-94
2021-09-24 15:42:01.688045,-221
2021-09-24 15:42:01.688052,-398
2021-09-24 15:42:01.688058,-378
2021-09-24 15:42:01.688065,-24
2021-09-24 15:42:01.688071,456
2021-09-24 15:42:01.688077,689
2021-09-24 15:42:01.688084,444
2021-09-24 15:42:01.688090,92
2021-09-24 15:42:01.688097,26
2021-09-24 15:42:01.688103,4
2021-09-24 15:42:01.688110,-104
2021-09-24 15:42:01.688116,-128
2021-09-24 15:42:01.913055,-104
2021-09-24 15:42:01.913080,-128
2021-09-24 15:42:01.913089,-145
2021-09-24 15:42:01.913095,-145
2021-09-24 15:42:01.913102,-148
2021-09-24 15:42:01.913109,-162
2021-09-24 15:42:01.913116,-182
2021-09-24 15:42:01.913123,-194
2021-09-24 15:42:01.913130,-199
2021-09-24 15:42:01.913136,-213
2021-09-24 15:42:01.913144,-233
2021-09-24 15:42:01.913150,-250
2021-09-24 15:42:01.913157,-276
2021-09-24 15:42:01.913164,-301
2021-09-24 15:42:01.913171,-327
2021-09-24 15:42:01.913178,-364
2021-09-24 15:42:01.913185,-393
2021-09-24 15:42:01.913192,-415
2021-09-24 15:42:01.913199,-432
2021-09-24 15:42:01.913205,-442
2021-09-24 15:42:01.913212,-442
2021-09-24 15:42:01.913219,-422
2021-09-24 15:42:01.913226,-371
2021-09-24 15:42:01.913233,-296
2021-09-24 15:42:01.913240,-199
2021-09-24 15:42:01.913246,-92
2021-09-24 15:42:01.913253,4
2021-09-24 15:42:01.913260,87
2021-09-24 15:42:01.913267,143
2021-09-24 15:42:01.913274,179
2021-09-24 15:42:02.182479,204
2021-09-24 15:42:02.182502,216
2021-09-24 15:42:02.182510,211
2021-09-24 15:42:02.182518,206
2021-09-24 15:42:02.182524,208
2021-09-24 15:42:02.182531,201
2021-09-24 15:42:02.182538,189
2021-09-24 15:42:02.182545,182
2021-09-24 15:42:02.182551,177
2021-09-24 15:42:02.182558,167
2021-09-24 15:42:02.182565,145
2021-09-24 15:42:02.182572,116
2021-09-24 15:42:02.182579,109
2021-09-24 15:42:02.182585,111
2021-09-24 15:42:02.182592,106
2021-09-24 15:42:02.182599,97
2021-09-24 15:42:02.182606,94
2021-09-24 15:42:02.182613,87
2021-09-24 15:42:02.182619,85
2021-09-24 15:42:02.182626,89
2021-09-24 15:42:02.182633,92
2021-09-24 15:42:02.182640,85
2021-09-24 15:42:02.182646,87
2021-09-24 15:42:02.182653,92
2021-09-24 15:42:02.182660,92
2021-09-24 15:42:02.182667,92
2021-09-24 15:42:02.182673,92
2021-09-24 15:42:02.182680,92
2021-09-24 15:42:02.182687,87
2021-09-24 15:42:02.182694,87
2021-09-24 15:42:02.363021,87
2021-09-24 15:42:02.363045,87
2021-09-24 15:42:02.363053,94
2021-09-24 15:42:02.363060,94
2021-09-24 15:42:02.363067,85
2021-09-24 15:42:02.363073,77
2021-09-24 15:42:02.363080,82
2021-09-24 15:42:02.363086,89
2021-09-24 15:42:02.363093,87
2021-09-24 15:42:02.363100,82
2021-09-24 15:42:02.363106,80
2021-09-24 15:42:02.363113,77
2021-09-24 15:42:02.363120,72
2021-09-24 15:42:02.363126,70
2021-09-24 15:42:02.363133,72
2021-09-24 15:42:02.363139,70
2021-09-24 15:42:02.363146,65
2021-09-24 15:42:02.363152,70
2021-09-24 15:42:02.363159,77
2021-09-24 15:42:02.363166,77
2021-09-24 15:42:02.363172,72
2021-09-24 15:42:02.363179,68
2021-09-24 15:42:02.363185,70
2021-09-24 15:42:02.363192,70
2021-09-24 15:42:02.363199,60
2021-09-24 15:42:02.363205,43
2021-09-24 15:42:02.363212,38
2021-09-24 15:42:02.363218,43
2021-09-24 15:42:02.363225,41
2021-09-24 15:42:02.363231,31
2021-09-24 15:42:02.588152,41
2021-09-24 15:42:02.588183,70
2021-09-24 15:42:02.588195,77
2021-09-24 15:42:02.588206,58
2021-09-24 15:42:02.588216,41
2021-09-24 15:42:02.588226,48
2021-09-24 15:42:02.588236,63
2021-09-24 15:42:02.588246,70
2021-09-24 15:42:02.588256,72
2021-09-24 15:42:02.588266,55
2021-09-24 15:42:02.588276,17
2021-09-24 15:42:02.588286,-36
2021-09-24 15:42:02.588297,-148
2021-09-24 15:42:02.588307,-340
2021-09-24 15:42:02.588317,-388
2021-09-24 15:42:02.588327,-99
2021-09-24 15:42:02.588337,381
2021-09-24 15:42:02.588347,694
2021-09-24 15:42:02.588357,527
2021-09-24 15:42:02.588367,162
2021-09-24 15:42:02.588377,63
2021-09-24 15:42:02.588387,43
2021-09-24 15:42:02.588397,-77
2021-09-24 15:42:02.588408,-109
2021-09-24 15:42:02.588418,-72
2021-09-24 15:42:02.588428,-97
2021-09-24 15:42:02.588438,-128
2021-09-24 15:42:02.588448,-128
2021-09-24 15:42:02.588458,-126
2021-09-24 15:42:02.588468,-143
2021-09-24 15:42:02.858065,-162
2021-09-24 15:42:02.858087,-157
2021-09-24 15:42:02.858095,-172
2021-09-24 15:42:02.858102,-211
2021-09-24 15:42:02.858108,-228
2021-09-24 15:42:02.858115,-228
2021-09-24 15:42:02.858122,-252
2021-09-24 15:42:02.858128,-293
2021-09-24 15:42:02.858135,-332
2021-09-24 15:42:02.858141,-366
2021-09-24 15:42:02.858148,-395
2021-09-24 15:42:02.858154,-408
2021-09-24 15:42:02.858161,-412
2021-09-24 15:42:02.858168,-425
2021-09-24 15:42:02.858174,-434
2021-09-24 15:42:02.858181,-417
2021-09-24 15:42:02.858187,-366
2021-09-24 15:42:02.858194,-296
2021-09-24 15:42:02.858201,-206
2021-09-24 15:42:02.858207,-89
2021-09-24 15:42:02.858214,21
2021-09-24 15:42:02.858220,92
2021-09-24 15:42:02.858227,145
2021-09-24 15:42:02.858234,194
2021-09-24 15:42:02.858240,223
2021-09-24 15:42:02.858247,225
2021-09-24 15:42:02.858253,218
2021-09-24 15:42:02.858260,223
2021-09-24 15:42:02.858266,230
2021-09-24 15:42:02.858273,223
2021-09-24 15:42:03.126236,213
2021-09-24 15:42:03.126261,206
2021-09-24 15:42:03.126270,191
2021-09-24 15:42:03.126278,172
2021-09-24 15:42:03.126285,157
2021-09-24 15:42:03.126293,153
2021-09-24 15:42:03.126300,148
2021-09-24 15:42:03.126307,140
2021-09-24 15:42:03.126315,128
2021-09-24 15:42:03.126323,114
2021-09-24 15:42:03.126331,102
2021-09-24 15:42:03.126338,97
2021-09-24 15:42:03.126345,102
2021-09-24 15:42:03.126353,104
2021-09-24 15:42:03.126361,89
2021-09-24 15:42:03.126369,77
2021-09-24 15:42:03.126377,85
2021-09-24 15:42:03.126384,92
2021-09-24 15:42:03.126392,94
2021-09-24 15:42:03.126400,97
2021-09-24 15:42:03.126407,89
2021-09-24 15:42:03.126415,80
2021-09-24 15:42:03.126422,85
2021-09-24 15:42:03.126430,87
2021-09-24 15:42:03.126437,77
2021-09-24 15:42:03.126444,75
2021-09-24 15:42:03.126452,80
2021-09-24 15:42:03.126459,75
2021-09-24 15:42:03.126466,70
2021-09-24 15:42:03.126473,77
2021-09-24 15:42:03.353212,87
2021-09-24 15:42:03.353244,85
2021-09-24 15:42:03.353256,75
2021-09-24 15:42:03.353267,68
2021-09-24 15:42:03.353277,68
2021-09-24 15:42:03.353287,77
2021-09-24 15:42:03.353297,72
2021-09-24 15:42:03.353307,58
2021-09-24 15:42:03.353317,51
2021-09-24 15:42:03.353327,53
2021-09-24 15:42:03.353337,53
2021-09-24 15:42:03.353347,53
2021-09-24 15:42:03.353357,55
2021-09-24 15:42:03.353367,55
2021-09-24 15:42:03.353377,53
2021-09-24 15:42:03.353387,51
2021-09-24 15:42:03.353397,48
2021-09-24 15:42:03.353407,48
2021-09-24 15:42:03.353417,38
2021-09-24 15:42:03.353427,19
2021-09-24 15:42:03.353437,14
2021-09-24 15:42:03.353447,17
2021-09-24 15:42:03.353457,14
2021-09-24 15:42:03.353467,29
2021-09-24 15:42:03.353477,51
2021-09-24 15:42:03.353487,58
2021-09-24 15:42:03.353497,60
2021-09-24 15:42:03.353507,65
2021-09-24 15:42:03.353518,63
2021-09-24 15:42:03.353528,72
2021-09-24 15:42:03.533108,87
2021-09-24 15:42:03.533138,77
2021-09-24 15:42:03.533151,58
2021-09-24 15:42:03.533161,41
2021-09-24 15:42:03.533171,2
2021-09-24 15:42:03.533182,-82
2021-09-24 15:42:03.533192,-262
2021-09-24 15:42:03.533202,-427
2021-09-24 15:42:03.533212,-306
2021-09-24 15:42:03.533222,131
2021-09-24 15:42:03.533233,597
2021-09-24 15:42:03.533243,668
2021-09-24 15:42:03.533253,308
2021-09-24 15:42:03.533263,72
2021-09-24 15:42:03.533273,75
2021-09-24 15:42:03.533284,-2
2021-09-24 15:42:03.533294,-82
2021-09-24 15:42:03.533304,-68
2021-09-24 15:42:03.533314,-72
2021-09-24 15:42:03.533324,-109
2021-09-24 15:42:03.533334,-114
2021-09-24 15:42:03.533344,-109
2021-09-24 15:42:03.533355,-121
2021-09-24 15:42:03.533365,-133
2021-09-24 15:42:03.533375,-148
2021-09-24 15:42:03.533385,-165
2021-09-24 15:42:03.533395,-177
2021-09-24 15:42:03.533406,-189
2021-09-24 15:42:03.533416,-213
2021-09-24 15:42:03.533426,-252
2021-09-24 15:42:03.803082,-284
2021-09-24 15:42:03.803103,-301
2021-09-24 15:42:03.803110,-327
2021-09-24 15:42:03.803117,-364
2021-09-24 15:42:03.803124,-398
2021-09-24 15:42:03.803131,-420
2021-09-24 15:42:03.803137,-434
2021-09-24 15:42:03.803144,-442
2021-09-24 15:42:03.803150,-432
2021-09-24 15:42:03.803157,-403
2021-09-24 15:42:03.803164,-352
2021-09-24 15:42:03.803170,-269
2021-09-24 15:42:03.803177,-162
2021-09-24 15:42:03.803183,-55
2021-09-24 15:42:03.803190,36
2021-09-24 15:42:03.803197,104
2021-09-24 15:42:03.803204,155
2021-09-24 15:42:03.803210,191
2021-09-24 15:42:03.803217,204
2021-09-24 15:42:03.803223,206
2021-09-24 15:42:03.803230,213
2021-09-24 15:42:03.803237,213
2021-09-24 15:42:03.803243,204
2021-09-24 15:42:03.803250,196
2021-09-24 15:42:03.803256,191
2021-09-24 15:42:03.803263,184
2021-09-24 15:42:03.803270,167
2021-09-24 15:42:03.803276,157
2021-09-24 15:42:03.803283,157
2021-09-24 15:42:03.803290,148
2021-09-24 15:42:04.028055,136
2021-09-24 15:42:04.028079,131
2021-09-24 15:42:04.028087,121
2021-09-24 15:42:04.028094,114
2021-09-24 15:42:04.028101,116
2021-09-24 15:42:04.028107,109
2021-09-24 15:42:04.028114,94
2021-09-24 15:42:04.028121,92
2021-09-24 15:42:04.028127,99
2021-09-24 15:42:04.028134,97
2021-09-24 15:42:04.028140,97
2021-09-24 15:42:04.028147,99
2021-09-24 15:42:04.028154,99
2021-09-24 15:42:04.028160,92
2021-09-24 15:42:04.028167,92
2021-09-24 15:42:04.028173,99
2021-09-24 15:42:04.028180,94
2021-09-24 15:42:04.028187,77
2021-09-24 15:42:04.028193,77
2021-09-24 15:42:04.028200,85
2021-09-24 15:42:04.028206,85
2021-09-24 15:42:04.028213,82
2021-09-24 15:42:04.028220,82
2021-09-24 15:42:04.028226,75
2021-09-24 15:42:04.028233,70
2021-09-24 15:42:04.028239,80
2021-09-24 15:42:04.028246,85
2021-09-24 15:42:04.028252,77
2021-09-24 15:42:04.028259,77
2021-09-24 15:42:04.028265,77
2021-09-24 15:42:04.342390,85
2021-09-24 15:42:04.342410,89
2021-09-24 15:42:04.342418,85
2021-09-24 15:42:04.342425,72
2021-09-24 15:42:04.342432,63
2021-09-24 15:42:04.342439,65
2021-09-24 15:42:04.342446,65
2021-09-24 15:42:04.342453,58
2021-09-24 15:42:04.342460,63
2021-09-24 15:42:04.342467,72
2021-09-24 15:42:04.342474,68
2021-09-24 15:42:04.342481,41
2021-09-24 15:42:04.342488,17
2021-09-24 15:42:04.342495,19
2021-09-24 15:42:04.342502,19
2021-09-24 15:42:04.342509,-2
2021-09-24 15:42:04.342516,-14
2021-09-24 15:42:04.342523,0
2021-09-24 15:42:04.342530,29
2021-09-24 15:42:04.342537,46
2021-09-24 15:42:04.342544,43
2021-09-24 15:42:04.342550,36
2021-09-24 15:42:04.342558,36
2021-09-24 15:42:04.342564,43
2021-09-24 15:42:04.342571,46
2021-09-24 15:42:04.342578,43
2021-09-24 15:42:04.342585,38
2021-09-24 15:42:04.342592,17
2021-09-24 15:42:04.342599,-34
2021-09-24 15:42:04.342606,-143
2021-09-24 15:42:04.567455,-349
2021-09-24 15:42:04.567480,-480
2021-09-24 15:42:04.567487,-272
2021-09-24 15:42:04.567494,228
2021-09-24 15:42:04.567501,646
2021-09-24 15:42:04.567507,568
2021-09-24 15:42:04.567514,187
2021-09-24 15:42:04.567520,55
2021-09-24 15:42:04.567527,65
2021-09-24 15:42:04.567533,-48
2021-09-24 15:42:04.567540,-111
2021-09-24 15:42:04.567546,-80
2021-09-24 15:42:04.567553,-97
2021-09-24 15:42:04.567559,-121
2021-09-24 15:42:04.567566,-119
2021-09-24 15:42:04.567572,-133
2021-09-24 15:42:04.567579,-150
2021-09-24 15:42:04.567585,-157
2021-09-24 15:42:04.567591,-167
2021-09-24 15:42:04.567598,-179
2021-09-24 15:42:04.567604,-191
2021-09-24 15:42:04.567611,-213
2021-09-24 15:42:04.567617,-242
2021-09-24 15:42:04.567624,-262
2021-09-24 15:42:04.567630,-284
2021-09-24 15:42:04.567636,-315
2021-09-24 15:42:04.567643,-349
2021-09-24 15:42:04.567649,-383
2021-09-24 15:42:04.567656,-412
2021-09-24 15:42:04.567662,-429
2021-09-24 15:42:04.702555,-437
2021-09-24 15:42:04.702576,-437
2021-09-24 15:42:04.702584,-425
2021-09-24 15:42:04.702591,-395
2021-09-24 15:42:04.702598,-337
2021-09-24 15:42:04.702604,-233
2021-09-24 15:42:04.702611,-114
2021-09-24 15:42:04.702617,-7
2021-09-24 15:42:04.702624,75
2021-09-24 15:42:04.702631,138
2021-09-24 15:42:04.702637,172
2021-09-24 15:42:04.702644,191
2021-09-24 15:42:04.702651,206
2021-09-24 15:42:04.702657,216
2021-09-24 15:42:04.702664,213
2021-09-24 15:42:04.702671,204
2021-09-24 15:42:04.702677,187
2021-09-24 15:42:04.702684,179
2021-09-24 15:42:04.702690,177
2021-09-24 15:42:04.702697,165
2021-09-24 15:42:04.702704,153
2021-09-24 15:42:04.702710,143
2021-09-24 15:42:04.702717,131
2021-09-24 15:42:04.702723,126
2021-09-24 15:42:04.702730,119
2021-09-24 15:42:04.702737,114
2021-09-24 15:42:04.702743,104
2021-09-24 15:42:04.702750,92
2021-09-24 15:42:04.702757,92
2021-09-24 15:42:04.702763,92
2021-09-24 15:42:04.927773,82
2021-09-24 15:42:04.927796,80
2021-09-24 15:42:04.927804,82
2021-09-24 15:42:04.927811,80
2021-09-24 15:42:04.927817,80
2021-09-24 15:42:04.927824,87
2021-09-24 15:42:04.927830,92
2021-09-24 15:42:04.927837,92
2021-09-24 15:42:04.927843,85
2021-09-24 15:42:04.927850,72
2021-09-24 15:42:04.927856,77
2021-09-24 15:42:04.927863,85
2021-09-24 15:42:04.927869,77
2021-09-24 15:42:04.927876,77
2021-09-24 15:42:04.927882,80
2021-09-24 15:42:04.927889,65
2021-09-24 15:42:04.927895,65
2021-09-24 15:42:04.927902,77
2021-09-24 15:42:04.927908,80
2021-09-24 15:42:04.927915,72
2021-09-24 15:42:04.927922,63
2021-09-24 15:42:04.927928,60
2021-09-24 15:42:04.927935,68
2021-09-24 15:42:04.927941,65
2021-09-24 15:42:04.927948,55
2021-09-24 15:42:04.927954,60
2021-09-24 15:42:04.927961,63
2021-09-24 15:42:04.927967,53
2021-09-24 15:42:04.927974,55
2021-09-24 15:42:04.927980,65
2021-09-24 15:42:05.196248,63
2021-09-24 15:42:05.196266,60
2021-09-24 15:42:05.196273,55
2021-09-24 15:42:05.196279,58
2021-09-24 15:42:05.196285,65
2021-09-24 15:42:05.196291,53
2021-09-24 15:42:05.196296,26
2021-09-24 15:42:05.196302,14
2021-09-24 15:42:05.196308,14
2021-09-24 15:42:05.196313,4
2021-09-24 15:42:05.196319,-4
2021-09-24 15:42:05.196325,9
2021-09-24 15:42:05.196330,34
2021-09-24 15:42:05.196336,46
2021-09-24 15:42:05.196342,43
2021-09-24 15:42:05.196347,31
2021-09-24 15:42:05.196353,21
2021-09-24 15:42:05.196358,24
2021-09-24 15:42:05.196364,34
2021-09-24 15:42:05.196370,29
2021-09-24 15:42:05.196375,17
2021-09-24 15:42:05.196381,-2
2021-09-24 15:42:05.196387,-43
2021-09-24 15:42:05.196406,-136
2021-09-24 15:42:05.196412,-323
2021-09-24 15:42:05.196418,-476
2021-09-24 15:42:05.196423,-327
2021-09-24 15:42:05.196429,131
2021-09-24 15:42:05.196435,590
2021-09-24 15:42:05.196440,619
2021-09-24 15:42:05.423119,245
2021-09-24 15:42:05.423141,34
2021-09-24 15:42:05.423149,48
2021-09-24 15:42:05.423157,-34
2021-09-24 15:42:05.423163,-116
2021-09-24 15:42:05.423170,-89
2021-09-24 15:42:05.423178,-92
2021-09-24 15:42:05.423188,-131
2021-09-24 15:42:05.423195,-136
2021-09-24 15:42:05.423202,-133
2021-09-24 15:42:05.423208,-153
2021-09-24 15:42:05.423215,-162
2021-09-24 15:42:05.423222,-167
2021-09-24 15:42:05.423228,-179
2021-09-24 15:42:05.423235,-199
2021-09-24 15:42:05.423241,-216
2021-09-24 15:42:05.423248,-233
2021-09-24 15:42:05.423254,-250
2021-09-24 15:42:05.423261,-274
2021-09-24 15:42:05.423267,-303
2021-09-24 15:42:05.423274,-337
2021-09-24 15:42:05.423280,-371
2021-09-24 15:42:05.423287,-398
2021-09-24 15:42:05.423293,-417
2021-09-24 15:42:05.423300,-442
2021-09-24 15:42:05.423306,-451
2021-09-24 15:42:05.423313,-434
2021-09-24 15:42:05.423320,-405
2021-09-24 15:42:05.423328,-349
2021-09-24 15:42:05.423335,-250
2021-09-24 15:42:05.603096,-140
2021-09-24 15:42:05.603121,-41
2021-09-24 15:42:05.603129,48
2021-09-24 15:42:05.603137,123
2021-09-24 15:42:05.603144,177
2021-09-24 15:42:05.603151,208
2021-09-24 15:42:05.603157,213
2021-09-24 15:42:05.603164,208
2021-09-24 15:42:05.603171,211
2021-09-24 15:42:05.603178,211
2021-09-24 15:42:05.603185,204
2021-09-24 15:42:05.603192,194
2021-09-24 15:42:05.603199,182
2021-09-24 15:42:05.603206,170
2021-09-24 15:42:05.603212,162
2021-09-24 15:42:05.603219,153
2021-09-24 15:42:05.603226,140
2021-09-24 15:42:05.603233,131
2021-09-24 15:42:05.603240,116
2021-09-24 15:42:05.603247,102
2021-09-24 15:42:05.603254,99
2021-09-24 15:42:05.603261,97
2021-09-24 15:42:05.603268,80
2021-09-24 15:42:05.603274,70
2021-09-24 15:42:05.603281,68
2021-09-24 15:42:05.603288,65
2021-09-24 15:42:05.603295,60
2021-09-24 15:42:05.603302,58
2021-09-24 15:42:05.603309,60
2021-09-24 15:42:05.603315,60
2021-09-24 15:42:05.828189,63
2021-09-24 15:42:05.828212,70
2021-09-24 15:42:05.828220,70
2021-09-24 15:42:05.828227,63
2021-09-24 15:42:05.828233,68
2021-09-24 15:42:05.828240,72
2021-09-24 15:42:05.828247,63
2021-09-24 15:42:05.828254,58
2021-09-24 15:42:05.828260,70
2021-09-24 15:42:05.828267,70
2021-09-24 15:42:05.828274,63
2021-09-24 15:42:05.828280,60
2021-09-24 15:42:05.828287,63
2021-09-24 15:42:05.828294,60
2021-09-24 15:42:05.828300,63
2021-09-24 15:42:05.828307,60
2021-09-24 15:42:05.828314,58
2021-09-24 15:42:05.828320,60
2021-09-24 15:42:05.828327,65
2021-09-24 15:42:05.828334,65
2021-09-24 15:42:05.828340,55
2021-09-24 15:42:05.828347,55
2021-09-24 15:42:05.828353,63
2021-09-24 15:42:05.828360,58
2021-09-24 15:42:05.828367,53
2021-09-24 15:42:05.828373,60
2021-09-24 15:42:05.828380,65
2021-09-24 15:42:05.828386,58
2021-09-24 15:42:05.828393,53
2021-09-24 15:42:05.828400,51
2021-09-24 15:42:06.053160,53
2021-09-24 15:42:06.053184,53
2021-09-24 15:42:06.053193,43
2021-09-24 15:42:06.053200,24
2021-09-24 15:42:06.053207,9
2021-09-24 15:42:06.053214,7
2021-09-24 15:42:06.053221,0
2021-09-24 15:42:06.053228,0
2021-09-24 15:42:06.053235,17
2021-09-24 15:42:06.053242,34
2021-09-24 15:42:06.053249,38
2021-09-24 15:42:06.053256,41
2021-09-24 15:42:06.053263,38
2021-09-24 15:42:06.053270,36
2021-09-24 15:42:06.053277,43
2021-09-24 15:42:06.053284,46
2021-09-24 15:42:06.053291,38
2021-09-24 15:42:06.053298,36
2021-09-24 15:42:06.053305,24
2021-09-24 15:42:06.053312,-21
2021-09-24 15:42:06.053319,-126
2021-09-24 15:42:06.053326,-327
2021-09-24 15:42:06.053333,-488
2021-09-24 15:42:06.053340,-327
2021-09-24 15:42:06.053347,153
2021-09-24 15:42:06.053354,617
2021-09-24 15:42:06.053361,617
2021-09-24 15:42:06.053368,221
2021-09-24 15:42:06.053375,21
2021-09-24 15:42:06.053382,38
2021-09-24 15:42:06.278101,-53
2021-09-24 15:42:06.278131,-133
2021-09-24 15:42:06.278143,-102
2021-09-24 15:42:06.278153,-104
2021-09-24 15:42:06.278164,-148
2021-09-24 15:42:06.278174,-148
2021-09-24 15:42:06.278184,-138
2021-09-24 15:42:06.278194,-157
2021-09-24 15:42:06.278204,-170
2021-09-24 15:42:06.278214,-174
2021-09-24 15:42:06.278224,-194
2021-09-24 15:42:06.278234,-221
2021-09-24 15:42:06.278244,-228
2021-09-24 15:42:06.278254,-240
2021-09-24 15:42:06.278264,-269
2021-09-24 15:42:06.278274,-298
2021-09-24 15:42:06.278284,-323
2021-09-24 15:42:06.278294,-347
2021-09-24 15:42:06.278304,-376
2021-09-24 15:42:06.278314,-398
2021-09-24 15:42:06.278324,-422
2021-09-24 15:42:06.278334,-449
2021-09-24 15:42:06.278344,-451
2021-09-24 15:42:06.278354,-437
2021-09-24 15:42:06.278364,-408
2021-09-24 15:42:06.278375,-349
2021-09-24 15:42:06.278384,-257
2021-09-24 15:42:06.278395,-150
2021-09-24 15:42:06.278405,-48
2021-09-24 15:42:06.278414,43
2021-09-24 15:42:06.592527,119
2021-09-24 15:42:06.592558,167
2021-09-24 15:42:06.592570,194
2021-09-24 15:42:06.592581,194
2021-09-24 15:42:06.592591,187
2021-09-24 15:42:06.592601,194
2021-09-24 15:42:06.592611,199
2021-09-24 15:42:06.592621,194
2021-09-24 15:42:06.592631,184
2021-09-24 15:42:06.592641,172
2021-09-24 15:42:06.592652,160
2021-09-24 15:42:06.592662,153
2021-09-24 15:42:06.592672,145
2021-09-24 15:42:06.592682,143
2021-09-24 15:42:06.592692,145
2021-09-24 15:42:06.592702,133
2021-09-24 15:42:06.592712,109
2021-09-24 15:42:06.592722,104
2021-09-24 15:42:06.592732,106
2021-09-24 15:42:06.592743,99
2021-09-24 15:42:06.592753,94
2021-09-24 15:42:06.592763,92
2021-09-24 15:42:06.592773,87
2021-09-24 15:42:06.592783,85
2021-09-24 15:42:06.592793,85
2021-09-24 15:42:06.592803,92
2021-09-24 15:42:06.592813,94
2021-09-24 15:42:06.592824,87
2021-09-24 15:42:06.592834,87
2021-09-24 15:42:06.592844,92
2021-09-24 15:42:06.773169,92
2021-09-24 15:42:06.773191,97
2021-09-24 15:42:06.773199,94
2021-09-24 15:42:06.773206,75
2021-09-24 15:42:06.773213,65
2021-09-24 15:42:06.773219,72
2021-09-24 15:42:06.773226,70
2021-09-24 15:42:06.773232,65
2021-09-24 15:42:06.773239,65
2021-09-24 15:42:06.773246,53
2021-09-24 15:42:06.773252,51
2021-09-24 15:42:06.773259,60
2021-09-24 15:42:06.773265,63
2021-09-24 15:42:06.773272,55
2021-09-24 15:42:06.773279,53
2021-09-24 15:42:06.773285,51
2021-09-24 15:42:06.773292,48
2021-09-24 15:42:06.773298,53
2021-09-24 15:42:06.773305,60
2021-09-24 15:42:06.773312,55
2021-09-24 15:42:06.773318,41
2021-09-24 15:42:06.773325,43
2021-09-24 15:42:06.773331,48
2021-09-24 15:42:06.773338,41
2021-09-24 15:42:06.773345,43
2021-09-24 15:42:06.773351,55
2021-09-24 15:42:06.773358,53
2021-09-24 15:42:06.773365,36
2021-09-24 15:42:06.773371,29
2021-09-24 15:42:06.773378,19
2021-09-24 15:42:07.043278,12
2021-09-24 15:42:07.043310,12
2021-09-24 15:42:07.043322,4
2021-09-24 15:42:07.043333,0
2021-09-24 15:42:07.043344,19
2021-09-24 15:42:07.043354,41
2021-09-24 15:42:07.043364,46
2021-09-24 15:42:07.043374,36
2021-09-24 15:42:07.043384,21
2021-09-24 15:42:07.043394,24
2021-09-24 15:42:07.043404,34
2021-09-24 15:42:07.043414,34
2021-09-24 15:42:07.043424,34
2021-09-24 15:42:07.043434,26
2021-09-24 15:42:07.043444,-7
2021-09-24 15:42:07.043455,-77
2021-09-24 15:42:07.043465,-228
2021-09-24 15:42:07.043475,-456
2021-09-24 15:42:07.043485,-512
2021-09-24 15:42:07.043495,-179
2021-09-24 15:42:07.043505,381
2021-09-24 15:42:07.043515,677
2021-09-24 15:42:07.043525,420
2021-09-24 15:42:07.043535,87
2021-09-24 15:42:07.043546,51
2021-09-24 15:42:07.043556,26
2021-09-24 15:42:07.043566,-85
2021-09-24 15:42:07.043576,-99
2021-09-24 15:42:07.043586,-77
2021-09-24 15:42:07.043596,-104
2021-09-24 15:42:07.266695,-116
2021-09-24 15:42:07.266717,-114
2021-09-24 15:42:07.266725,-136
2021-09-24 15:42:07.266732,-153
2021-09-24 15:42:07.266739,-153
2021-09-24 15:42:07.266745,-160
2021-09-24 15:42:07.266752,-184
2021-09-24 15:42:07.266758,-206
2021-09-24 15:42:07.266765,-238
2021-09-24 15:42:07.266772,-269
2021-09-24 15:42:07.266778,-291
2021-09-24 15:42:07.266785,-308
2021-09-24 15:42:07.266791,-342
2021-09-24 15:42:07.266798,-376
2021-09-24 15:42:07.266804,-408
2021-09-24 15:42:07.266811,-439
2021-09-24 15:42:07.266818,-459
2021-09-24 15:42:07.266824,-461
2021-09-24 15:42:07.266831,-456
2021-09-24 15:42:07.266837,-439
2021-09-24 15:42:07.266844,-403
2021-09-24 15:42:07.266851,-325
2021-09-24 15:42:07.266857,-221
2021-09-24 15:42:07.266864,-111
2021-09-24 15:42:07.266871,-9
2021-09-24 15:42:07.266877,70
2021-09-24 15:42:07.266884,128
2021-09-24 15:42:07.266890,167
2021-09-24 15:42:07.266897,194
2021-09-24 15:42:07.266904,211
2021-09-24 15:42:07.493208,213
2021-09-24 15:42:07.493232,213
2021-09-24 15:42:07.493240,208
2021-09-24 15:42:07.493247,199
2021-09-24 15:42:07.493253,196
2021-09-24 15:42:07.493260,191
2021-09-24 15:42:07.493266,170
2021-09-24 15:42:07.493273,155
2021-09-24 15:42:07.493279,148
2021-09-24 15:42:07.493286,140
2021-09-24 15:42:07.493292,131
2021-09-24 15:42:07.493299,116
2021-09-24 15:42:07.493305,102
2021-09-24 15:42:07.493312,87
2021-09-24 15:42:07.493318,85
2021-09-24 15:42:07.493325,89
2021-09-24 15:42:07.493331,85
2021-09-24 15:42:07.493338,77
2021-09-24 15:42:07.493344,80
2021-09-24 15:42:07.493351,82
2021-09-24 15:42:07.493358,80
2021-09-24 15:42:07.493364,82
2021-09-24 15:42:07.493370,85
2021-09-24 15:42:07.493377,85
2021-09-24 15:42:07.493383,87
2021-09-24 15:42:07.493390,89
2021-09-24 15:42:07.493396,85
2021-09-24 15:42:07.493403,85
2021-09-24 15:42:07.493409,89
2021-09-24 15:42:07.493416,89
2021-09-24 15:42:07.673170,87
2021-09-24 15:42:07.673195,87
2021-09-24 15:42:07.673203,82
2021-09-24 15:42:07.673210,80
2021-09-24 15:42:07.673217,85
2021-09-24 15:42:07.673224,80
2021-09-24 15:42:07.673231,65
2021-09-24 15:42:07.673238,63
2021-09-24 15:42:07.673245,70
2021-09-24 15:42:07.673252,68
2021-09-24 15:42:07.673259,65
2021-09-24 15:42:07.673266,72
2021-09-24 15:42:07.673273,70
2021-09-24 15:42:07.673280,60
2021-09-24 15:42:07.673287,48
2021-09-24 15:42:07.673294,38
2021-09-24 15:42:07.673301,38
2021-09-24 15:42:07.673308,34
2021-09-24 15:42:07.673315,26
2021-09-24 15:42:07.673322,34
2021-09-24 15:42:07.673329,38
2021-09-24 15:42:07.673336,41
2021-09-24 15:42:07.673343,48
2021-09-24 15:42:07.673350,43
2021-09-24 15:42:07.673357,24
2021-09-24 15:42:07.673364,7
2021-09-24 15:42:07.673371,4
2021-09-24 15:42:07.673378,7
2021-09-24 15:42:07.673385,2
2021-09-24 15:42:07.673392,-4
2021-09-24 15:42:07.898109,14
2021-09-24 15:42:07.898134,38
2021-09-24 15:42:07.898143,41
2021-09-24 15:42:07.898150,36
2021-09-24 15:42:07.898156,41
2021-09-24 15:42:07.898163,36
2021-09-24 15:42:07.898170,31
2021-09-24 15:42:07.898177,38
2021-09-24 15:42:07.898184,46
2021-09-24 15:42:07.898191,31
2021-09-24 15:42:07.898198,-2
2021-09-24 15:42:07.898205,-60
2021-09-24 15:42:07.898211,-174
2021-09-24 15:42:07.898218,-376
2021-09-24 15:42:07.898225,-466
2021-09-24 15:42:07.898232,-206
2021-09-24 15:42:07.898239,303
2021-09-24 15:42:07.898246,658
2021-09-24 15:42:07.898253,505
2021-09-24 15:42:07.898260,133
2021-09-24 15:42:07.898267,38
2021-09-24 15:42:07.898273,38
2021-09-24 15:42:07.898280,-80
2021-09-24 15:42:07.898287,-121
2021-09-24 15:42:07.898294,-89
2021-09-24 15:42:07.898301,-106
2021-09-24 15:42:07.898308,-131
2021-09-24 15:42:07.898314,-128
2021-09-24 15:42:07.898321,-136
2021-09-24 15:42:07.898328,-153
2021-09-24 15:42:08.123153,-162
2021-09-24 15:42:08.123178,-170
2021-09-24 15:42:08.123186,-187
2021-09-24 15:42:08.123194,-204
2021-09-24 15:42:08.123200,-223
2021-09-24 15:42:08.123207,-247
2021-09-24 15:42:08.123214,-272
2021-09-24 15:42:08.123221,-291
2021-09-24 15:42:08.123228,-318
2021-09-24 15:42:08.123235,-354
2021-09-24 15:42:08.123242,-395
2021-09-24 15:42:08.123249,-427
2021-09-24 15:42:08.123256,-444
2021-09-24 15:42:08.123263,-451
2021-09-24 15:42:08.123270,-449
2021-09-24 15:42:08.123277,-437
2021-09-24 15:42:08.123284,-408
2021-09-24 15:42:08.123291,-344
2021-09-24 15:42:08.123298,-250
2021-09-24 15:42:08.123305,-145
2021-09-24 15:42:08.123312,-53
2021-09-24 15:42:08.123319,31
2021-09-24 15:42:08.123326,99
2021-09-24 15:42:08.123333,145
2021-09-24 15:42:08.123341,177
2021-09-24 15:42:08.123348,194
2021-09-24 15:42:08.123355,201
2021-09-24 15:42:08.123362,201
2021-09-24 15:42:08.123370,196
2021-09-24 15:42:08.123378,196
2021-09-24 15:42:08.393106,194
2021-09-24 15:42:08.393128,187
2021-09-24 15:42:08.393136,174
2021-09-24 15:42:08.393143,165
2021-09-24 15:42:08.393149,153
2021-09-24 15:42:08.393156,136
2021-09-24 15:42:08.393162,131
2021-09-24 15:42:08.393169,128
2021-09-24 15:42:08.393175,119
2021-09-24 15:42:08.393182,102
2021-09-24 15:42:08.393189,94
2021-09-24 15:42:08.393195,94
2021-09-24 15:42:08.393202,92
2021-09-24 15:42:08.393208,89
2021-09-24 15:42:08.393215,85
2021-09-24 15:42:08.393221,87
2021-09-24 15:42:08.393228,87
2021-09-24 15:42:08.393234,80
2021-09-24 15:42:08.393241,77
2021-09-24 15:42:08.393248,85
2021-09-24 15:42:08.393255,82
2021-09-24 15:42:08.393261,75
2021-09-24 15:42:08.393268,80
2021-09-24 15:42:08.393274,87
2021-09-24 15:42:08.393281,80
2021-09-24 15:42:08.393288,75
2021-09-24 15:42:08.393294,85
2021-09-24 15:42:08.393301,82
2021-09-24 15:42:08.393307,77
2021-09-24 15:42:08.393314,82
2021-09-24 15:42:08.663763,85
2021-09-24 15:42:08.663786,80
2021-09-24 15:42:08.663794,75
2021-09-24 15:42:08.663801,65
2021-09-24 15:42:08.663808,65
2021-09-24 15:42:08.663815,72
2021-09-24 15:42:08.663822,72
2021-09-24 15:42:08.663829,75
2021-09-24 15:42:08.663836,72
2021-09-24 15:42:08.663842,60
2021-09-24 15:42:08.663849,58
2021-09-24 15:42:08.663856,65
2021-09-24 15:42:08.663863,68
2021-09-24 15:42:08.663869,68
2021-09-24 15:42:08.663876,60
2021-09-24 15:42:08.663883,51
2021-09-24 15:42:08.663890,55
2021-09-24 15:42:08.663896,65
2021-09-24 15:42:08.663903,68
2021-09-24 15:42:08.663910,58
2021-09-24 15:42:08.663917,34
2021-09-24 15:42:08.663923,9
2021-09-24 15:42:08.663930,4
2021-09-24 15:42:08.663937,12
2021-09-24 15:42:08.663944,9
2021-09-24 15:42:08.663950,4
2021-09-24 15:42:08.663957,9
2021-09-24 15:42:08.663964,21
2021-09-24 15:42:08.663971,38
2021-09-24 15:42:08.663978,43
2021-09-24 15:42:08.843111,41
2021-09-24 15:42:08.843134,38
2021-09-24 15:42:08.843142,31
2021-09-24 15:42:08.843149,26
2021-09-24 15:42:08.843156,36
2021-09-24 15:42:08.843163,21
2021-09-24 15:42:08.843169,-24
2021-09-24 15:42:08.843176,-72
2021-09-24 15:42:08.843183,-191
2021-09-24 15:42:08.843189,-395
2021-09-24 15:42:08.843196,-415
2021-09-24 15:42:08.843203,-82
2021-09-24 15:42:08.843210,427
2021-09-24 15:42:08.843217,675
2021-09-24 15:42:08.843223,398
2021-09-24 15:42:08.843230,63
2021-09-24 15:42:08.843237,41
2021-09-24 15:42:08.843243,17
2021-09-24 15:42:08.843250,-97
2021-09-24 15:42:08.843257,-109
2021-09-24 15:42:08.843263,-87
2021-09-24 15:42:08.843270,-126
2021-09-24 15:42:08.843276,-145
2021-09-24 15:42:08.843283,-133
2021-09-24 15:42:08.843290,-153
2021-09-24 15:42:08.843296,-184
2021-09-24 15:42:08.843303,-194
2021-09-24 15:42:08.843310,-206
2021-09-24 15:42:08.843316,-230
2021-09-24 15:42:08.843323,-240
2021-09-24 15:42:09.157660,-238
2021-09-24 15:42:09.157682,-259
2021-09-24 15:42:09.157690,-296
2021-09-24 15:42:09.157697,-325
2021-09-24 15:42:09.157704,-342
2021-09-24 15:42:09.157710,-364
2021-09-24 15:42:09.157717,-403
2021-09-24 15:42:09.157723,-442
2021-09-24 15:42:09.157730,-466
2021-09-24 15:42:09.157737,-478
2021-09-24 15:42:09.157743,-468
2021-09-24 15:42:09.157750,-425
2021-09-24 15:42:09.157757,-376
2021-09-24 15:42:09.157763,-313
2021-09-24 15:42:09.157770,-204
2021-09-24 15:42:09.157777,-85
2021-09-24 15:42:09.157783,0
2021-09-24 15:42:09.157790,77
2021-09-24 15:42:09.157797,150
2021-09-24 15:42:09.157803,177
2021-09-24 15:42:09.157810,184
2021-09-24 15:42:09.157817,206
2021-09-24 15:42:09.157823,225
2021-09-24 15:42:09.157830,225
2021-09-24 15:42:09.157836,218
2021-09-24 15:42:09.157859,211
2021-09-24 15:42:09.157866,187
2021-09-24 15:42:09.157872,167
2021-09-24 15:42:09.157879,182
2021-09-24 15:42:09.157886,191
2021-09-24 15:42:09.336205,162
2021-09-24 15:42:09.336226,133
2021-09-24 15:42:09.336234,128
2021-09-24 15:42:09.336240,126
2021-09-24 15:42:09.336247,114
2021-09-24 15:42:09.336253,99
2021-09-24 15:42:09.336260,94
2021-09-24 15:42:09.336266,92
2021-09-24 15:42:09.336272,87
2021-09-24 15:42:09.336279,82
2021-09-24 15:42:09.336285,97
2021-09-24 15:42:09.336292,121
2021-09-24 15:42:09.336298,119
2021-09-24 15:42:09.336305,97
2021-09-24 15:42:09.336311,80
2021-09-24 15:42:09.336318,72
2021-09-24 15:42:09.336324,70
2021-09-24 15:42:09.336330,70
2021-09-24 15:42:09.336337,65
2021-09-24 15:42:09.336343,80
2021-09-24 15:42:09.336350,109
2021-09-24 15:42:09.336356,104
2021-09-24 15:42:09.336363,77
2021-09-24 15:42:09.336369,85
2021-09-24 15:42:09.336376,94
2021-09-24 15:42:09.336382,77
2021-09-24 15:42:09.336388,63
2021-09-24 15:42:09.336395,68
2021-09-24 15:42:09.336401,72
2021-09-24 15:42:09.336408,70
2021-09-24 15:42:09.517902,63
2021-09-24 15:42:09.517922,63
2021-09-24 15:42:09.517929,77
2021-09-24 15:42:09.517936,82
2021-09-24 15:42:09.517943,82
2021-09-24 15:42:09.517950,82
2021-09-24 15:42:09.517956,75
2021-09-24 15:42:09.517963,63
2021-09-24 15:42:09.517990,58
2021-09-24 15:42:09.517997,63
2021-09-24 15:42:09.518004,77
2021-09-24 15:42:09.518010,72
2021-09-24 15:42:09.518017,46
2021-09-24 15:42:09.518024,24
2021-09-24 15:42:09.518030,21
2021-09-24 15:42:09.518037,29
2021-09-24 15:42:09.518044,31
2021-09-24 15:42:09.518050,29
2021-09-24 15:42:09.518057,31
2021-09-24 15:42:09.518064,51
2021-09-24 15:42:09.518070,77
2021-09-24 15:42:09.518077,75
2021-09-24 15:42:09.518084,72
2021-09-24 15:42:09.518090,80
2021-09-24 15:42:09.518097,77
2021-09-24 15:42:09.518104,70
2021-09-24 15:42:09.518110,70
2021-09-24 15:42:09.518117,75
2021-09-24 15:42:09.518124,53
2021-09-24 15:42:09.518130,-19
2021-09-24 15:42:09.787459,-128
2021-09-24 15:42:09.787481,-296
2021-09-24 15:42:09.787489,-371
2021-09-24 15:42:09.787495,-123
2021-09-24 15:42:09.787502,340
2021-09-24 15:42:09.787509,672
2021-09-24 15:42:09.787515,570
2021-09-24 15:42:09.787522,199
2021-09-24 15:42:09.787529,51
2021-09-24 15:42:09.787535,34
2021-09-24 15:42:09.787542,-65
2021-09-24 15:42:09.787548,-109
2021-09-24 15:42:09.787555,-97
2021-09-24 15:42:09.787561,-119
2021-09-24 15:42:09.787568,-136
2021-09-24 15:42:09.787575,-131
2021-09-24 15:42:09.787581,-138
2021-09-24 15:42:09.787588,-160
2021-09-24 15:42:09.787594,-162
2021-09-24 15:42:09.787601,-160
2021-09-24 15:42:09.787607,-177
2021-09-24 15:42:09.787614,-199
2021-09-24 15:42:09.787620,-216
2021-09-24 15:42:09.787627,-230
2021-09-24 15:42:09.787633,-245
2021-09-24 15:42:09.787640,-269
2021-09-24 15:42:09.787647,-298
2021-09-24 15:42:09.787654,-335
2021-09-24 15:42:09.787660,-378
2021-09-24 15:42:09.787667,-412
2021-09-24 15:42:10.013138,-439
2021-09-24 15:42:10.013163,-461
2021-09-24 15:42:10.013172,-456
2021-09-24 15:42:10.013179,-434
2021-09-24 15:42:10.013186,-420
2021-09-24 15:42:10.013193,-366
2021-09-24 15:42:10.013199,-252
2021-09-24 15:42:10.013206,-145
2021-09-24 15:42:10.013213,-55
2021-09-24 15:42:10.013220,58
2021-09-24 15:42:10.013227,145
2021-09-24 15:42:10.013234,172
2021-09-24 15:42:10.013241,189
2021-09-24 15:42:10.013248,216
2021-09-24 15:42:10.013255,228
2021-09-24 15:42:10.013261,213
2021-09-24 15:42:10.013268,196
2021-09-24 15:42:10.013275,191
2021-09-24 15:42:10.013282,177
2021-09-24 15:42:10.013289,165
2021-09-24 15:42:10.013296,189
2021-09-24 15:42:10.013303,216
2021-09-24 15:42:10.013310,194
2021-09-24 15:42:10.013316,155
2021-09-24 15:42:10.013323,150
2021-09-24 15:42:10.013330,153
2021-09-24 15:42:10.013337,140
2021-09-24 15:42:10.013344,131
2021-09-24 15:42:10.013351,131
2021-09-24 15:42:10.013357,111
2021-09-24 15:42:10.193182,94
2021-09-24 15:42:10.193205,104
2021-09-24 15:42:10.193213,109
2021-09-24 15:42:10.193220,102
2021-09-24 15:42:10.193226,104
2021-09-24 15:42:10.193233,119
2021-09-24 15:42:10.193240,111
2021-09-24 15:42:10.193246,97
2021-09-24 15:42:10.193253,109
2021-09-24 15:42:10.193259,104
2021-09-24 15:42:10.193266,70
2021-09-24 15:42:10.193272,63
2021-09-24 15:42:10.193279,89
2021-09-24 15:42:10.193285,97
2021-09-24 15:42:10.193292,68
2021-09-24 15:42:10.193298,63
2021-09-24 15:42:10.193305,72
2021-09-24 15:42:10.193311,60
2021-09-24 15:42:10.193318,46
2021-09-24 15:42:10.193324,48
2021-09-24 15:42:10.193331,51
2021-09-24 15:42:10.193338,55
2021-09-24 15:42:10.193344,75
2021-09-24 15:42:10.193351,85
2021-09-24 15:42:10.193357,70
2021-09-24 15:42:10.193364,68
2021-09-24 15:42:10.193370,77
2021-09-24 15:42:10.193377,68
2021-09-24 15:42:10.193384,43
2021-09-24 15:42:10.193390,34
2021-09-24 15:42:10.507579,46
2021-09-24 15:42:10.507603,87
2021-09-24 15:42:10.507611,102
2021-09-24 15:42:10.507618,46
2021-09-24 15:42:10.507625,-4
2021-09-24 15:42:10.507632,2
2021-09-24 15:42:10.507639,21
2021-09-24 15:42:10.507646,9
2021-09-24 15:42:10.507652,-2
2021-09-24 15:42:10.507659,0
2021-09-24 15:42:10.507666,12
2021-09-24 15:42:10.507673,34
2021-09-24 15:42:10.507680,51
2021-09-24 15:42:10.507687,53
2021-09-24 15:42:10.507693,48
2021-09-24 15:42:10.507700,46
2021-09-24 15:42:10.507707,51
2021-09-24 15:42:10.507714,48
2021-09-24 15:42:10.507721,38
2021-09-24 15:42:10.507728,12
2021-09-24 15:42:10.507734,-48
2021-09-24 15:42:10.507741,-172
2021-09-24 15:42:10.507748,-371
2021-09-24 15:42:10.507755,-415
2021-09-24 15:42:10.507762,-89
2021-09-24 15:42:10.507769,420
2021-09-24 15:42:10.507775,704
2021-09-24 15:42:10.507782,483
2021-09-24 15:42:10.507789,128
2021-09-24 15:42:10.507796,60
2021-09-24 15:42:10.732528,43
2021-09-24 15:42:10.732548,-72
2021-09-24 15:42:10.732555,-102
2021-09-24 15:42:10.732561,-68
2021-09-24 15:42:10.732566,-99
2021-09-24 15:42:10.732572,-140
2021-09-24 15:42:10.732577,-121
2021-09-24 15:42:10.732583,-104
2021-09-24 15:42:10.732588,-143
2021-09-24 15:42:10.732594,-174
2021-09-24 15:42:10.732599,-167
2021-09-24 15:42:10.732618,-170
2021-09-24 15:42:10.732624,-196
2021-09-24 15:42:10.732629,-221
2021-09-24 15:42:10.732635,-233
2021-09-24 15:42:10.732640,-247
2021-09-24 15:42:10.732645,-291
2021-09-24 15:42:10.732650,-340
2021-09-24 15:42:10.732655,-369
2021-09-24 15:42:10.732661,-405
2021-09-24 15:42:10.732666,-456
2021-09-24 15:42:10.732671,-483
2021-09-24 15:42:10.732676,-471
2021-09-24 15:42:10.732681,-459
2021-09-24 15:42:10.732687,-456
2021-09-24 15:42:10.732692,-415
2021-09-24 15:42:10.732697,-323
2021-09-24 15:42:10.732702,-223
2021-09-24 15:42:10.732708,-111
2021-09-24 15:42:10.732713,12
2021-09-24 15:42:10.913191,104
2021-09-24 15:42:10.913214,155
2021-09-24 15:42:10.913222,194
2021-09-24 15:42:10.913229,213
2021-09-24 15:42:10.913235,223
2021-09-24 15:42:10.913242,228
2021-09-24 15:42:10.913249,218
2021-09-24 15:42:10.913255,208
2021-09-24 15:42:10.913262,208
2021-09-24 15:42:10.913268,196
2021-09-24 15:42:10.913275,167
2021-09-24 15:42:10.913282,153
2021-09-24 15:42:10.913288,179
2021-09-24 15:42:10.913295,189
2021-09-24 15:42:10.913301,143
2021-09-24 15:42:10.913308,114
2021-09-24 15:42:10.913314,123
2021-09-24 15:42:10.913321,128
2021-09-24 15:42:10.913327,116
2021-09-24 15:42:10.913334,102
2021-09-24 15:42:10.913340,87
2021-09-24 15:42:10.913347,82
2021-09-24 15:42:10.913354,85
2021-09-24 15:42:10.913360,92
2021-09-24 15:42:10.913367,94
2021-09-24 15:42:10.913373,89
2021-09-24 15:42:10.913380,89
2021-09-24 15:42:10.913386,89
2021-09-24 15:42:10.913393,87
2021-09-24 15:42:10.913399,94
2021-09-24 15:42:11.138222,94
2021-09-24 15:42:11.138253,85
2021-09-24 15:42:11.138265,87
2021-09-24 15:42:11.138275,92
2021-09-24 15:42:11.138285,85
2021-09-24 15:42:11.138295,99
2021-09-24 15:42:11.138305,109
2021-09-24 15:42:11.138315,87
2021-09-24 15:42:11.138325,77
2021-09-24 15:42:11.138335,89
2021-09-24 15:42:11.138345,85
2021-09-24 15:42:11.138355,68
2021-09-24 15:42:11.138365,55
2021-09-24 15:42:11.138375,51
2021-09-24 15:42:11.138385,65
2021-09-24 15:42:11.138395,77
2021-09-24 15:42:11.138405,75
2021-09-24 15:42:11.138414,65
2021-09-24 15:42:11.138424,63
2021-09-24 15:42:11.138434,63
2021-09-24 15:42:11.138444,65
2021-09-24 15:42:11.138454,63
2021-09-24 15:42:11.138464,60
2021-09-24 15:42:11.138474,65
2021-09-24 15:42:11.138484,63
2021-09-24 15:42:11.138494,38
2021-09-24 15:42:11.138504,21
2021-09-24 15:42:11.138514,21
2021-09-24 15:42:11.138523,29
2021-09-24 15:42:11.138533,24
2021-09-24 15:42:11.452438,9
2021-09-24 15:42:11.452462,14
2021-09-24 15:42:11.452469,34
2021-09-24 15:42:11.452476,48
2021-09-24 15:42:11.452483,58
2021-09-24 15:42:11.452489,55
2021-09-24 15:42:11.452496,31
2021-09-24 15:42:11.452502,21
2021-09-24 15:42:11.452509,46
2021-09-24 15:42:11.452515,72
2021-09-24 15:42:11.452522,63
2021-09-24 15:42:11.452529,36
2021-09-24 15:42:11.452535,17
2021-09-24 15:42:11.452541,-41
2021-09-24 15:42:11.452548,-184
2021-09-24 15:42:11.452555,-400
2021-09-24 15:42:11.452561,-478
2021-09-24 15:42:11.452568,-189
2021-09-24 15:42:11.452574,347
2021-09-24 15:42:11.452581,692
2021-09-24 15:42:11.452587,502
2021-09-24 15:42:11.452594,136
2021-09-24 15:42:11.452600,53
2021-09-24 15:42:11.452607,41
2021-09-24 15:42:11.452614,-75
2021-09-24 15:42:11.452620,-106
2021-09-24 15:42:11.452627,-72
2021-09-24 15:42:11.452633,-99
2021-09-24 15:42:11.452640,-126
2021-09-24 15:42:11.452646,-121
2021-09-24 15:42:11.588194,-126
2021-09-24 15:42:11.588218,-150
2021-09-24 15:42:11.588226,-174
2021-09-24 15:42:11.588233,-184
2021-09-24 15:42:11.588239,-184
2021-09-24 15:42:11.588246,-184
2021-09-24 15:42:11.588252,-194
2021-09-24 15:42:11.588259,-223
2021-09-24 15:42:11.588265,-259
2021-09-24 15:42:11.588272,-289
2021-09-24 15:42:11.588278,-323
2021-09-24 15:42:11.588285,-366
2021-09-24 15:42:11.588291,-408
2021-09-24 15:42:11.588298,-454
2021-09-24 15:42:11.588304,-471
2021-09-24 15:42:11.588311,-449
2021-09-24 15:42:11.588317,-442
2021-09-24 15:42:11.588324,-459
2021-09-24 15:42:11.588330,-442
2021-09-24 15:42:11.588337,-349
2021-09-24 15:42:11.588344,-228
2021-09-24 15:42:11.588350,-119
2021-09-24 15:42:11.588357,-17
2021-09-24 15:42:11.588363,68
2021-09-24 15:42:11.588370,133
2021-09-24 15:42:11.588376,191
2021-09-24 15:42:11.588383,228
2021-09-24 15:42:11.588390,238
2021-09-24 15:42:11.588396,233
2021-09-24 15:42:11.588403,211
2021-09-24 15:42:11.813218,179
2021-09-24 15:42:11.813240,194
2021-09-24 15:42:11.813248,228
2021-09-24 15:42:11.813254,208
2021-09-24 15:42:11.813261,170
2021-09-24 15:42:11.813268,162
2021-09-24 15:42:11.813274,153
2021-09-24 15:42:11.813281,126
2021-09-24 15:42:11.813287,116
2021-09-24 15:42:11.813294,119
2021-09-24 15:42:11.813300,114
2021-09-24 15:42:11.813307,104
2021-09-24 15:42:11.813313,97
2021-09-24 15:42:11.813320,92
2021-09-24 15:42:11.813326,87
2021-09-24 15:42:11.813333,85
2021-09-24 15:42:11.813339,82
2021-09-24 15:42:11.813346,75
2021-09-24 15:42:11.813352,70
2021-09-24 15:42:11.813359,77
2021-09-24 15:42:11.813366,82
2021-09-24 15:42:11.813372,77
2021-09-24 15:42:11.813379,80
2021-09-24 15:42:11.813385,85
2021-09-24 15:42:11.813392,85
2021-09-24 15:42:11.813398,82
2021-09-24 15:42:11.813405,87
2021-09-24 15:42:11.813411,89
2021-09-24 15:42:11.813418,87
2021-09-24 15:42:11.813424,87
2021-09-24 15:42:12.038290,92
2021-09-24 15:42:12.038321,89
2021-09-24 15:42:12.038332,85
2021-09-24 15:42:12.038343,87
2021-09-24 15:42:12.038353,80
2021-09-24 15:42:12.038363,68
2021-09-24 15:42:12.038373,70
2021-09-24 15:42:12.038383,72
2021-09-24 15:42:12.038392,63
2021-09-24 15:42:12.038402,60
2021-09-24 15:42:12.038412,63
2021-09-24 15:42:12.038422,65
2021-09-24 15:42:12.038432,68
2021-09-24 15:42:12.038442,82
2021-09-24 15:42:12.038452,89
2021-09-24 15:42:12.038462,70
2021-09-24 15:42:12.038472,48
2021-09-24 15:42:12.038482,31
2021-09-24 15:42:12.038492,12
2021-09-24 15:42:12.038502,7
2021-09-24 15:42:12.038512,26
2021-09-24 15:42:12.038522,31
2021-09-24 15:42:12.038532,14
2021-09-24 15:42:12.038542,29
2021-09-24 15:42:12.038552,65
2021-09-24 15:42:12.038562,80
2021-09-24 15:42:12.038572,68
2021-09-24 15:42:12.038582,48
2021-09-24 15:42:12.038592,36
2021-09-24 15:42:12.038602,41
2021-09-24 15:42:12.308135,65
2021-09-24 15:42:12.308156,77
2021-09-24 15:42:12.308164,58
2021-09-24 15:42:12.308171,12
2021-09-24 15:42:12.308178,-48
2021-09-24 15:42:12.308184,-187
2021-09-24 15:42:12.308191,-420
2021-09-24 15:42:12.308197,-471
2021-09-24 15:42:12.308204,-136
2021-09-24 15:42:12.308210,408
2021-09-24 15:42:12.308217,711
2021-09-24 15:42:12.308223,471
2021-09-24 15:42:12.308230,106
2021-09-24 15:42:12.308236,55
2021-09-24 15:42:12.308243,36
2021-09-24 15:42:12.308249,-94
2021-09-24 15:42:12.308256,-121
2021-09-24 15:42:12.308262,-92
2021-09-24 15:42:12.308269,-119
2021-09-24 15:42:12.308275,-140
2021-09-24 15:42:12.308282,-131
2021-09-24 15:42:12.308288,-145
2021-09-24 15:42:12.308295,-170
2021-09-24 15:42:12.308301,-172
2021-09-24 15:42:12.308308,-172
2021-09-24 15:42:12.308314,-187
2021-09-24 15:42:12.308321,-208
2021-09-24 15:42:12.308327,-233
2021-09-24 15:42:12.308334,-257
2021-09-24 15:42:12.308340,-281
2021-09-24 15:42:12.533237,-303
2021-09-24 15:42:12.533264,-327
2021-09-24 15:42:12.533273,-364
2021-09-24 15:42:12.533284,-408
2021-09-24 15:42:12.533295,-437
2021-09-24 15:42:12.533308,-449
2021-09-24 15:42:12.533320,-461
2021-09-24 15:42:12.533333,-466
2021-09-24 15:42:12.533340,-449
2021-09-24 15:42:12.533347,-410
2021-09-24 15:42:12.533358,-332
2021-09-24 15:42:12.533371,-211
2021-09-24 15:42:12.533449,-87
2021-09-24 15:42:12.533470,14
2021-09-24 15:42:12.533481,97
2021-09-24 15:42:12.533492,157
2021-09-24 15:42:12.533502,199
2021-09-24 15:42:12.533512,223
2021-09-24 15:42:12.533522,233
2021-09-24 15:42:12.533532,240
2021-09-24 15:42:12.533542,238
2021-09-24 15:42:12.533552,233
2021-09-24 15:42:12.533562,233
2021-09-24 15:42:12.533572,225
2021-09-24 15:42:12.533582,206
2021-09-24 15:42:12.533592,194
2021-09-24 15:42:12.533602,191
2021-09-24 15:42:12.533612,170
2021-09-24 15:42:12.533622,143
2021-09-24 15:42:12.533633,140
2021-09-24 15:42:12.802702,136
2021-09-24 15:42:12.802733,126
2021-09-24 15:42:12.802745,114
2021-09-24 15:42:12.802755,104
2021-09-24 15:42:12.802765,102
2021-09-24 15:42:12.802775,99
2021-09-24 15:42:12.802785,94
2021-09-24 15:42:12.802795,87
2021-09-24 15:42:12.802805,72
2021-09-24 15:42:12.802815,68
2021-09-24 15:42:12.802825,72
2021-09-24 15:42:12.802835,68
2021-09-24 15:42:12.802845,70
2021-09-24 15:42:12.802855,72
2021-09-24 15:42:12.802865,60
2021-09-24 15:42:12.802875,60
2021-09-24 15:42:12.802885,72
2021-09-24 15:42:12.802895,70
2021-09-24 15:42:12.802905,68
2021-09-24 15:42:12.802915,65
2021-09-24 15:42:12.802925,65
2021-09-24 15:42:12.802934,65
2021-09-24 15:42:12.802944,70
2021-09-24 15:42:12.802954,75
2021-09-24 15:42:12.802964,77
2021-09-24 15:42:12.802974,75
2021-09-24 15:42:12.802984,65
2021-09-24 15:42:12.802994,58
2021-09-24 15:42:12.803004,60
2021-09-24 15:42:12.803014,65
2021-09-24 15:42:12.983228,65
2021-09-24 15:42:12.983250,63
2021-09-24 15:42:12.983258,65
2021-09-24 15:42:12.983265,70
2021-09-24 15:42:12.983271,70
2021-09-24 15:42:12.983278,60
2021-09-24 15:42:12.983284,41
2021-09-24 15:42:12.983291,26
2021-09-24 15:42:12.983297,17
2021-09-24 15:42:12.983304,12
2021-09-24 15:42:12.983311,26
2021-09-24 15:42:12.983317,53
2021-09-24 15:42:12.983324,58
2021-09-24 15:42:12.983330,43
2021-09-24 15:42:12.983337,38
2021-09-24 15:42:12.983343,48
2021-09-24 15:42:12.983350,53
2021-09-24 15:42:12.983356,48
2021-09-24 15:42:12.983363,46
2021-09-24 15:42:12.983369,43
2021-09-24 15:42:12.983376,31
2021-09-24 15:42:12.983383,-4
2021-09-24 15:42:12.983389,-70
2021-09-24 15:42:12.983396,-211
2021-09-24 15:42:12.983403,-417
2021-09-24 15:42:12.983409,-444
2021-09-24 15:42:12.983416,-104
2021-09-24 15:42:12.983437,434
2021-09-24 15:42:12.983444,687
2021-09-24 15:42:12.983450,393
2021-09-24 15:42:13.253646,72
2021-09-24 15:42:13.253690,63
2021-09-24 15:42:13.253701,26
2021-09-24 15:42:13.253710,-97
2021-09-24 15:42:13.253718,-104
2021-09-24 15:42:13.253726,-77
2021-09-24 15:42:13.253734,-114
2021-09-24 15:42:13.253741,-133
2021-09-24 15:42:13.253754,-131
2021-09-24 15:42:13.253766,-140
2021-09-24 15:42:13.253774,-153
2021-09-24 15:42:13.253781,-165
2021-09-24 15:42:13.253789,-182
2021-09-24 15:42:13.253797,-199
2021-09-24 15:42:13.253805,-213
2021-09-24 15:42:13.253811,-235
2021-09-24 15:42:13.253819,-259
2021-09-24 15:42:13.253827,-289
2021-09-24 15:42:13.253834,-318
2021-09-24 15:42:13.253841,-349
2021-09-24 15:42:13.253849,-381
2021-09-24 15:42:13.253857,-415
2021-09-24 15:42:13.253864,-444
2021-09-24 15:42:13.253873,-466
2021-09-24 15:42:13.253881,-476
2021-09-24 15:42:13.253888,-471
2021-09-24 15:42:13.253896,-446
2021-09-24 15:42:13.253904,-386
2021-09-24 15:42:13.253911,-293
2021-09-24 15:42:13.253919,-182
2021-09-24 15:42:13.476848,-70
2021-09-24 15:42:13.476872,24
2021-09-24 15:42:13.476880,104
2021-09-24 15:42:13.476887,162
2021-09-24 15:42:13.476926,199
2021-09-24 15:42:13.476933,216
2021-09-24 15:42:13.476940,216
2021-09-24 15:42:13.476947,216
2021-09-24 15:42:13.476954,218
2021-09-24 15:42:13.476961,216
2021-09-24 15:42:13.476967,213
2021-09-24 15:42:13.476974,208
2021-09-24 15:42:13.476981,196
2021-09-24 15:42:13.476988,191
2021-09-24 15:42:13.476995,189
2021-09-24 15:42:13.477001,182
2021-09-24 15:42:13.477008,170
2021-09-24 15:42:13.477015,143
2021-09-24 15:42:13.477022,119
2021-09-24 15:42:13.477028,119
2021-09-24 15:42:13.477035,114
2021-09-24 15:42:13.477042,94
2021-09-24 15:42:13.477049,89
2021-09-24 15:42:13.477056,89
2021-09-24 15:42:13.477062,77
2021-09-24 15:42:13.477069,77
2021-09-24 15:42:13.477076,85
2021-09-24 15:42:13.477083,85
2021-09-24 15:42:13.477089,85
2021-09-24 15:42:13.477096,87
2021-09-24 15:42:13.702688,82
2021-09-24 15:42:13.702709,82
2021-09-24 15:42:13.702716,80
2021-09-24 15:42:13.702723,72
2021-09-24 15:42:13.702729,70
2021-09-24 15:42:13.702735,70
2021-09-24 15:42:13.702741,65
2021-09-24 15:42:13.702748,60
2021-09-24 15:42:13.702754,65
2021-09-24 15:42:13.702760,68
2021-09-24 15:42:13.702766,60
2021-09-24 15:42:13.702772,55
2021-09-24 15:42:13.702778,58
2021-09-24 15:42:13.702785,60
2021-09-24 15:42:13.702791,60
2021-09-24 15:42:13.702797,55
2021-09-24 15:42:13.702803,55
2021-09-24 15:42:13.702810,65
2021-09-24 15:42:13.702816,72
2021-09-24 15:42:13.702822,68
2021-09-24 15:42:13.702828,53
2021-09-24 15:42:13.702834,34
2021-09-24 15:42:13.702840,21
2021-09-24 15:42:13.702846,17
2021-09-24 15:42:13.702853,12
2021-09-24 15:42:13.702859,21
2021-09-24 15:42:13.702865,43
2021-09-24 15:42:13.702871,55
2021-09-24 15:42:13.702877,51
2021-09-24 15:42:13.702884,43
2021-09-24 15:42:13.883482,48
2021-09-24 15:42:13.883504,58
2021-09-24 15:42:13.883512,55
2021-09-24 15:42:13.883519,53
2021-09-24 15:42:13.883525,51
2021-09-24 15:42:13.883532,34
2021-09-24 15:42:13.883538,-2
2021-09-24 15:42:13.883545,-60
2021-09-24 15:42:13.883551,-172
2021-09-24 15:42:13.883558,-344
2021-09-24 15:42:13.883564,-366
2021-09-24 15:42:13.883571,-63
2021-09-24 15:42:13.883577,420
2021-09-24 15:42:13.883584,677
2021-09-24 15:42:13.883590,439
2021-09-24 15:42:13.883597,111
2021-09-24 15:42:13.883603,65
2021-09-24 15:42:13.883610,41
2021-09-24 15:42:13.883616,-80
2021-09-24 15:42:13.883623,-104
2021-09-24 15:42:13.883629,-77
2021-09-24 15:42:13.883636,-111
2021-09-24 15:42:13.883642,-131
2021-09-24 15:42:13.883649,-114
2021-09-24 15:42:13.883655,-123
2021-09-24 15:42:13.883662,-143
2021-09-24 15:42:13.883668,-145
2021-09-24 15:42:13.883675,-155
2021-09-24 15:42:13.883681,-170
2021-09-24 15:42:13.883688,-184
2021-09-24 15:42:14.153251,-199
2021-09-24 15:42:14.153274,-216
2021-09-24 15:42:14.153282,-238
2021-09-24 15:42:14.153289,-274
2021-09-24 15:42:14.153295,-310
2021-09-24 15:42:14.153302,-337
2021-09-24 15:42:14.153308,-371
2021-09-24 15:42:14.153315,-412
2021-09-24 15:42:14.153321,-432
2021-09-24 15:42:14.153328,-444
2021-09-24 15:42:14.153334,-449
2021-09-24 15:42:14.153341,-420
2021-09-24 15:42:14.153347,-359
2021-09-24 15:42:14.153353,-272
2021-09-24 15:42:14.153360,-160
2021-09-24 15:42:14.153366,-51
2021-09-24 15:42:14.153373,41
2021-09-24 15:42:14.153379,123
2021-09-24 15:42:14.153386,184
2021-09-24 15:42:14.153392,218
2021-09-24 15:42:14.153399,233
2021-09-24 15:42:14.153406,238
2021-09-24 15:42:14.153412,235
2021-09-24 15:42:14.153418,233
2021-09-24 15:42:14.153425,228
2021-09-24 15:42:14.153431,228
2021-09-24 15:42:14.153438,221
2021-09-24 15:42:14.153444,206
2021-09-24 15:42:14.153451,189
2021-09-24 15:42:14.153457,184
2021-09-24 15:42:14.423355,179
2021-09-24 15:42:14.423377,167
2021-09-24 15:42:14.423385,155
2021-09-24 15:42:14.423392,138
2021-09-24 15:42:14.423399,128
2021-09-24 15:42:14.423406,128
2021-09-24 15:42:14.423413,123
2021-09-24 15:42:14.423420,111
2021-09-24 15:42:14.423426,97
2021-09-24 15:42:14.423433,87
2021-09-24 15:42:14.423440,80
2021-09-24 15:42:14.423447,72
2021-09-24 15:42:14.423454,75
2021-09-24 15:42:14.423461,77
2021-09-24 15:42:14.423467,72
2021-09-24 15:42:14.423474,63
2021-09-24 15:42:14.423481,65
2021-09-24 15:42:14.423488,72
2021-09-24 15:42:14.423494,77
2021-09-24 15:42:14.423501,75
2021-09-24 15:42:14.423508,72
2021-09-24 15:42:14.423515,70
2021-09-24 15:42:14.423521,72
2021-09-24 15:42:14.423528,72
2021-09-24 15:42:14.423535,70
2021-09-24 15:42:14.423542,70
2021-09-24 15:42:14.423548,70
2021-09-24 15:42:14.423555,65
2021-09-24 15:42:14.423562,70
2021-09-24 15:42:14.423569,77
2021-09-24 15:42:14.603260,75
2021-09-24 15:42:14.603285,72
2021-09-24 15:42:14.603293,72
2021-09-24 15:42:14.603300,70
2021-09-24 15:42:14.603307,72
2021-09-24 15:42:14.603314,82
2021-09-24 15:42:14.603320,82
2021-09-24 15:42:14.603327,65
2021-09-24 15:42:14.603334,46
2021-09-24 15:42:14.603341,34
2021-09-24 15:42:14.603348,36
2021-09-24 15:42:14.603355,31
2021-09-24 15:42:14.603362,24
2021-09-24 15:42:14.603369,36
2021-09-24 15:42:14.603375,48
2021-09-24 15:42:14.603382,51
2021-09-24 15:42:14.603389,55
2021-09-24 15:42:14.603396,58
2021-09-24 15:42:14.603403,58
2021-09-24 15:42:14.603409,55
2021-09-24 15:42:14.603416,48
2021-09-24 15:42:14.603423,48
2021-09-24 15:42:14.603430,46
2021-09-24 15:42:14.603437,19
2021-09-24 15:42:14.603444,-31
2021-09-24 15:42:14.603451,-123
2021-09-24 15:42:14.603457,-306
2021-09-24 15:42:14.603464,-422
2021-09-24 15:42:14.603471,-221
2021-09-24 15:42:14.603478,223
2021-09-24 15:42:14.872514,607
2021-09-24 15:42:14.872536,592
2021-09-24 15:42:14.872544,240
2021-09-24 15:42:14.872551,51
2021-09-24 15:42:14.872557,55
2021-09-24 15:42:14.872564,-36
2021-09-24 15:42:14.872570,-116
2021-09-24 15:42:14.872577,-97
2021-09-24 15:42:14.872583,-106
2021-09-24 15:42:14.872589,-140
2021-09-24 15:42:14.872596,-136
2021-09-24 15:42:14.872602,-133
2021-09-24 15:42:14.872609,-155
2021-09-24 15:42:14.872615,-177
2021-09-24 15:42:14.872622,-191
2021-09-24 15:42:14.872629,-201
2021-09-24 15:42:14.872635,-208
2021-09-24 15:42:14.872641,-218
2021-09-24 15:42:14.872648,-233
2021-09-24 15:42:14.872654,-255
2021-09-24 15:42:14.872661,-279
2021-09-24 15:42:14.872668,-308
2021-09-24 15:42:14.872674,-340
2021-09-24 15:42:14.872680,-371
2021-09-24 15:42:14.872687,-403
2021-09-24 15:42:14.872693,-434
2021-09-24 15:42:14.872700,-454
2021-09-24 15:42:14.872706,-459
2021-09-24 15:42:14.872713,-442
2021-09-24 15:42:14.872719,-403
2021-09-24 15:42:15.053257,-330
2021-09-24 15:42:15.053281,-228
2021-09-24 15:42:15.053289,-106
2021-09-24 15:42:15.053296,4
2021-09-24 15:42:15.053302,97
2021-09-24 15:42:15.053309,162
2021-09-24 15:42:15.053315,204
2021-09-24 15:42:15.053322,228
2021-09-24 15:42:15.053328,240
2021-09-24 15:42:15.053334,250
2021-09-24 15:42:15.053341,247
2021-09-24 15:42:15.053347,242
2021-09-24 15:42:15.053354,235
2021-09-24 15:42:15.053360,223
2021-09-24 15:42:15.053367,218
2021-09-24 15:42:15.053373,204
2021-09-24 15:42:15.053380,189
2021-09-24 15:42:15.053386,184
2021-09-24 15:42:15.053393,174
2021-09-24 15:42:15.053399,162
2021-09-24 15:42:15.053406,157
2021-09-24 15:42:15.053412,150
2021-09-24 15:42:15.053419,136
2021-09-24 15:42:15.053425,128
2021-09-24 15:42:15.053432,123
2021-09-24 15:42:15.053438,114
2021-09-24 15:42:15.053444,104
2021-09-24 15:42:15.053451,102
2021-09-24 15:42:15.053457,102
2021-09-24 15:42:15.053464,97
2021-09-24 15:42:15.278086,92
2021-09-24 15:42:15.278108,85
2021-09-24 15:42:15.278116,82
2021-09-24 15:42:15.278123,82
2021-09-24 15:42:15.278130,75
2021-09-24 15:42:15.278137,72
2021-09-24 15:42:15.278144,72
2021-09-24 15:42:15.278151,70
2021-09-24 15:42:15.278157,70
2021-09-24 15:42:15.278164,63
2021-09-24 15:42:15.278171,48
2021-09-24 15:42:15.278178,43
2021-09-24 15:42:15.278184,46
2021-09-24 15:42:15.278191,43
2021-09-24 15:42:15.278198,43
2021-09-24 15:42:15.278205,43
2021-09-24 15:42:15.278212,41
2021-09-24 15:42:15.278219,36
2021-09-24 15:42:15.278226,36
2021-09-24 15:42:15.278232,38
2021-09-24 15:42:15.278239,34
2021-09-24 15:42:15.278246,34
2021-09-24 15:42:15.278253,41
2021-09-24 15:42:15.278260,41
2021-09-24 15:42:15.278267,38
2021-09-24 15:42:15.278273,46
2021-09-24 15:42:15.278280,51
2021-09-24 15:42:15.278287,41
2021-09-24 15:42:15.278294,24
2021-09-24 15:42:15.278301,9
2021-09-24 15:42:15.591883,9
2021-09-24 15:42:15.591907,14
2021-09-24 15:42:15.591915,9
2021-09-24 15:42:15.591952,9
2021-09-24 15:42:15.591959,26
2021-09-24 15:42:15.591965,41
2021-09-24 15:42:15.591972,46
2021-09-24 15:42:15.591978,48
2021-09-24 15:42:15.591985,48
2021-09-24 15:42:15.591991,48
2021-09-24 15:42:15.591998,48
2021-09-24 15:42:15.592004,46
2021-09-24 15:42:15.592011,41
2021-09-24 15:42:15.592017,36
2021-09-24 15:42:15.592024,7
2021-09-24 15:42:15.592030,-55
2021-09-24 15:42:15.592037,-174
2021-09-24 15:42:15.592043,-361
2021-09-24 15:42:15.592050,-400
2021-09-24 15:42:15.592056,-106
2021-09-24 15:42:15.592063,361
2021-09-24 15:42:15.592070,658
2021-09-24 15:42:15.592076,495
2021-09-24 15:42:15.592082,140
2021-09-24 15:42:15.592089,53
2021-09-24 15:42:15.592095,55
2021-09-24 15:42:15.592102,-58
2021-09-24 15:42:15.592108,-99
2021-09-24 15:42:15.592115,-68
2021-09-24 15:42:15.592122,-87
2021-09-24 15:42:15.727982,-111
2021-09-24 15:42:15.728011,-104
2021-09-24 15:42:15.728023,-111
2021-09-24 15:42:15.728033,-138
2021-09-24 15:42:15.728044,-148
2021-09-24 15:42:15.728055,-157
2021-09-24 15:42:15.728066,-170
2021-09-24 15:42:15.728076,-179
2021-09-24 15:42:15.728087,-194
2021-09-24 15:42:15.728097,-213
2021-09-24 15:42:15.728108,-235
2021-09-24 15:42:15.728119,-262
2021-09-24 15:42:15.728129,-289
2021-09-24 15:42:15.728139,-327
2021-09-24 15:42:15.728148,-369
2021-09-24 15:42:15.728158,-410
2021-09-24 15:42:15.728168,-454
2021-09-24 15:42:15.728178,-473
2021-09-24 15:42:15.728188,-461
2021-09-24 15:42:15.728198,-442
2021-09-24 15:42:15.728209,-410
2021-09-24 15:42:15.728219,-344
2021-09-24 15:42:15.728230,-233
2021-09-24 15:42:15.728240,-104
2021-09-24 15:42:15.728251,7
2021-09-24 15:42:15.728261,89
2021-09-24 15:42:15.728272,155
2021-09-24 15:42:15.728282,201
2021-09-24 15:42:15.728293,223
2021-09-24 15:42:15.728304,235
2021-09-24 15:42:15.953271,240
2021-09-24 15:42:15.953295,240
2021-09-24 15:42:15.953303,238
2021-09-24 15:42:15.953310,230
2021-09-24 15:42:15.953316,213
2021-09-24 15:42:15.953323,206
2021-09-24 15:42:15.953329,199
2021-09-24 15:42:15.953336,189
2021-09-24 15:42:15.953342,184
2021-09-24 15:42:15.953349,167
2021-09-24 15:42:15.953355,150
2021-09-24 15:42:15.953362,145
2021-09-24 15:42:15.953368,138
2021-09-24 15:42:15.953375,131
2021-09-24 15:42:15.953381,123
2021-09-24 15:42:15.953388,111
2021-09-24 15:42:15.953394,104
2021-09-24 15:42:15.953401,104
2021-09-24 15:42:15.953407,106
2021-09-24 15:42:15.953414,102
2021-09-24 15:42:15.953420,97
2021-09-24 15:42:15.953427,94
2021-09-24 15:42:15.953433,82
2021-09-24 15:42:15.953440,72
2021-09-24 15:42:15.953446,75
2021-09-24 15:42:15.953453,77
2021-09-24 15:42:15.953460,72
2021-09-24 15:42:15.953466,70
2021-09-24 15:42:15.953472,70
2021-09-24 15:42:15.953479,72
2021-09-24 15:42:16.268160,72
2021-09-24 15:42:16.268182,70
2021-09-24 15:42:16.268190,68
2021-09-24 15:42:16.268197,60
2021-09-24 15:42:16.268204,55
2021-09-24 15:42:16.268210,58
2021-09-24 15:42:16.268216,58
2021-09-24 15:42:16.268223,60
2021-09-24 15:42:16.268229,55
2021-09-24 15:42:16.268236,48
2021-09-24 15:42:16.268242,46
2021-09-24 15:42:16.268249,48
2021-09-24 15:42:16.268255,48
2021-09-24 15:42:16.268262,46
2021-09-24 15:42:16.268268,43
2021-09-24 15:42:16.268275,43
2021-09-24 15:42:16.268281,46
2021-09-24 15:42:16.268288,53
2021-09-24 15:42:16.268294,51
2021-09-24 15:42:16.268300,36
2021-09-24 15:42:16.268307,14
2021-09-24 15:42:16.268313,2
2021-09-24 15:42:16.268320,2
2021-09-24 15:42:16.268327,0
2021-09-24 15:42:16.268333,2
2021-09-24 15:42:16.268340,17
2021-09-24 15:42:16.268346,31
2021-09-24 15:42:16.268353,38
2021-09-24 15:42:16.268359,43
2021-09-24 15:42:16.268366,43
2021-09-24 15:42:16.448225,46
2021-09-24 15:42:16.448249,51
2021-09-24 15:42:16.448257,48
2021-09-24 15:42:16.448264,46
2021-09-24 15:42:16.448271,43
2021-09-24 15:42:16.448278,21
2021-09-24 15:42:16.448285,-29
2021-09-24 15:42:16.448292,-121
2021-09-24 15:42:16.448299,-293
2021-09-24 15:42:16.448306,-403
2021-09-24 15:42:16.448313,-204
2021-09-24 15:42:16.448320,247
2021-09-24 15:42:16.448326,638
2021-09-24 15:42:16.448333,592
2021-09-24 15:42:16.448340,218
2021-09-24 15:42:16.448347,63
2021-09-24 15:42:16.448354,89
2021-09-24 15:42:16.448361,-14
2021-09-24 15:42:16.448368,-99
2021-09-24 15:42:16.448375,-68
2021-09-24 15:42:16.448382,-77
2021-09-24 15:42:16.448389,-114
2021-09-24 15:42:16.448396,-109
2021-09-24 15:42:16.448403,-104
2021-09-24 15:42:16.448410,-121
2021-09-24 15:42:16.448416,-128
2021-09-24 15:42:16.448423,-140
2021-09-24 15:42:16.448430,-162
2021-09-24 15:42:16.448437,-174
2021-09-24 15:42:16.448444,-179
2021-09-24 15:42:16.672970,-201
2021-09-24 15:42:16.672990,-225
2021-09-24 15:42:16.672998,-247
2021-09-24 15:42:16.673004,-276
2021-09-24 15:42:16.673010,-303
2021-09-24 15:42:16.673016,-330
2021-09-24 15:42:16.673023,-359
2021-09-24 15:42:16.673029,-391
2021-09-24 15:42:16.673035,-412
2021-09-24 15:42:16.673041,-410
2021-09-24 15:42:16.673047,-393
2021-09-24 15:42:16.673053,-364
2021-09-24 15:42:16.673060,-298
2021-09-24 15:42:16.673066,-201
2021-09-24 15:42:16.673072,-97
2021-09-24 15:42:16.673078,4
2021-09-24 15:42:16.673084,94
2021-09-24 15:42:16.673091,162
2021-09-24 15:42:16.673097,204
2021-09-24 15:42:16.673103,225
2021-09-24 15:42:16.673109,238
2021-09-24 15:42:16.673115,245
2021-09-24 15:42:16.673121,247
2021-09-24 15:42:16.673127,240
2021-09-24 15:42:16.673134,225
2021-09-24 15:42:16.673140,221
2021-09-24 15:42:16.673146,213
2021-09-24 15:42:16.673152,194
2021-09-24 15:42:16.673158,177
2021-09-24 15:42:16.673164,170
2021-09-24 15:42:16.898269,157
2021-09-24 15:42:16.898292,145
2021-09-24 15:42:16.898300,138
2021-09-24 15:42:16.898307,131
2021-09-24 15:42:16.898313,123
2021-09-24 15:42:16.898320,121
2021-09-24 15:42:16.898326,111
2021-09-24 15:42:16.898333,94
2021-09-24 15:42:16.898339,92
2021-09-24 15:42:16.898346,89
2021-09-24 15:42:16.898352,82
2021-09-24 15:42:16.898359,80
2021-09-24 15:42:16.898365,70
2021-09-24 15:42:16.898372,65
2021-09-24 15:42:16.898378,68
2021-09-24 15:42:16.898385,68
2021-09-24 15:42:16.898391,63
2021-09-24 15:42:16.898398,68
2021-09-24 15:42:16.898404,75
2021-09-24 15:42:16.898410,72
2021-09-24 15:42:16.898417,68
2021-09-24 15:42:16.898423,68
2021-09-24 15:42:16.898430,70
2021-09-24 15:42:16.898436,72
2021-09-24 15:42:16.898442,68
2021-09-24 15:42:16.898449,68
2021-09-24 15:42:16.898455,70
2021-09-24 15:42:16.898462,68
2021-09-24 15:42:16.898468,68
2021-09-24 15:42:16.898492,72
2021-09-24 15:42:17.123261,72
2021-09-24 15:42:17.123284,60
2021-09-24 15:42:17.123292,53
2021-09-24 15:42:17.123299,58
2021-09-24 15:42:17.123306,60
2021-09-24 15:42:17.123312,58
2021-09-24 15:42:17.123319,51
2021-09-24 15:42:17.123325,51
2021-09-24 15:42:17.123331,60
2021-09-24 15:42:17.123338,58
2021-09-24 15:42:17.123344,41
2021-09-24 15:42:17.123351,17
2021-09-24 15:42:17.123357,0
2021-09-24 15:42:17.123364,12
2021-09-24 15:42:17.123370,14
2021-09-24 15:42:17.123377,2
2021-09-24 15:42:17.123383,14
2021-09-24 15:42:17.123390,41
2021-09-24 15:42:17.123396,48
2021-09-24 15:42:17.123402,53
2021-09-24 15:42:17.123409,55
2021-09-24 15:42:17.123415,51
2021-09-24 15:42:17.123422,53
2021-09-24 15:42:17.123428,58
2021-09-24 15:42:17.123435,55
2021-09-24 15:42:17.123441,48
2021-09-24 15:42:17.123448,34
2021-09-24 15:42:17.123454,-9
2021-09-24 15:42:17.123461,-89
2021-09-24 15:42:17.123467,-240
2021-09-24 15:42:17.393223,-381
2021-09-24 15:42:17.393248,-255
2021-09-24 15:42:17.393256,145
2021-09-24 15:42:17.393263,539
2021-09-24 15:42:17.393269,624
2021-09-24 15:42:17.393276,320
2021-09-24 15:42:17.393282,58
2021-09-24 15:42:17.393289,43
2021-09-24 15:42:17.393295,-12
2021-09-24 15:42:17.393302,-102
2021-09-24 15:42:17.393308,-94
2021-09-24 15:42:17.393315,-94
2021-09-24 15:42:17.393321,-126
2021-09-24 15:42:17.393328,-128
2021-09-24 15:42:17.393334,-128
2021-09-24 15:42:17.393341,-143
2021-09-24 15:42:17.393347,-148
2021-09-24 15:42:17.393354,-155
2021-09-24 15:42:17.393360,-165
2021-09-24 15:42:17.393375,-170
2021-09-24 15:42:17.393382,-182
2021-09-24 15:42:17.393389,-204
2021-09-24 15:42:17.393395,-225
2021-09-24 15:42:17.393402,-250
2021-09-24 15:42:17.393409,-279
2021-09-24 15:42:17.393415,-301
2021-09-24 15:42:17.393422,-330
2021-09-24 15:42:17.393428,-369
2021-09-24 15:42:17.393435,-405
2021-09-24 15:42:17.393441,-422
2021-09-24 15:42:17.616867,-432
2021-09-24 15:42:17.616891,-434
2021-09-24 15:42:17.616899,-412
2021-09-24 15:42:17.616906,-357
2021-09-24 15:42:17.616912,-269
2021-09-24 15:42:17.616951,-160
2021-09-24 15:42:17.616957,-48
2021-09-24 15:42:17.616964,51
2021-09-24 15:42:17.616970,128
2021-09-24 15:42:17.616977,174
2021-09-24 15:42:17.616983,204
2021-09-24 15:42:17.616990,216
2021-09-24 15:42:17.616996,225
2021-09-24 15:42:17.617003,235
2021-09-24 15:42:17.617009,230
2021-09-24 15:42:17.617016,218
2021-09-24 15:42:17.617022,213
2021-09-24 15:42:17.617029,206
2021-09-24 15:42:17.617035,199
2021-09-24 15:42:17.617042,194
2021-09-24 15:42:17.617048,191
2021-09-24 15:42:17.617055,179
2021-09-24 15:42:17.617062,165
2021-09-24 15:42:17.617068,157
2021-09-24 15:42:17.617075,153
2021-09-24 15:42:17.617081,143
2021-09-24 15:42:17.617088,133
2021-09-24 15:42:17.617094,116
2021-09-24 15:42:17.617101,102
2021-09-24 15:42:17.617107,99
2021-09-24 15:42:17.843247,99
2021-09-24 15:42:17.843272,94
2021-09-24 15:42:17.843279,87
2021-09-24 15:42:17.843286,82
2021-09-24 15:42:17.843293,77
2021-09-24 15:42:17.843299,75
2021-09-24 15:42:17.843306,77
2021-09-24 15:42:17.843312,72
2021-09-24 15:42:17.843319,60
2021-09-24 15:42:17.843325,48
2021-09-24 15:42:17.843332,43
2021-09-24 15:42:17.843338,46
2021-09-24 15:42:17.843344,48
2021-09-24 15:42:17.843351,48
2021-09-24 15:42:17.843358,48
2021-09-24 15:42:17.843364,48
2021-09-24 15:42:17.843371,46
2021-09-24 15:42:17.843377,46
2021-09-24 15:42:17.843384,51
2021-09-24 15:42:17.843390,53
2021-09-24 15:42:17.843397,55
2021-09-24 15:42:17.843403,51
2021-09-24 15:42:17.843410,41
2021-09-24 15:42:17.843416,46
2021-09-24 15:42:17.843422,55
2021-09-24 15:42:17.843429,55
2021-09-24 15:42:17.843436,51
2021-09-24 15:42:17.843442,41
2021-09-24 15:42:17.843449,43
2021-09-24 15:42:17.843455,51
2021-09-24 15:42:18.158378,51
2021-09-24 15:42:18.158400,46
2021-09-24 15:42:18.158408,43
2021-09-24 15:42:18.158415,41
2021-09-24 15:42:18.158422,41
2021-09-24 15:42:18.158428,43
2021-09-24 15:42:18.158435,34
2021-09-24 15:42:18.158441,14
2021-09-24 15:42:18.158448,2
2021-09-24 15:42:18.158454,0
2021-09-24 15:42:18.158461,-2
2021-09-24 15:42:18.158467,-9
2021-09-24 15:42:18.158474,4
2021-09-24 15:42:18.158480,29
2021-09-24 15:42:18.158487,41
2021-09-24 15:42:18.158493,34
2021-09-24 15:42:18.158500,31
2021-09-24 15:42:18.158506,38
2021-09-24 15:42:18.158512,46
2021-09-24 15:42:18.158519,41
2021-09-24 15:42:18.158525,34
2021-09-24 15:42:18.158531,31
2021-09-24 15:42:18.158538,24
2021-09-24 15:42:18.158544,-17
2021-09-24 15:42:18.158551,-94
2021-09-24 15:42:18.158557,-242
2021-09-24 15:42:18.158563,-410
2021-09-24 15:42:18.158570,-330
2021-09-24 15:42:18.158576,63
2021-09-24 15:42:18.158583,510
2021-09-24 15:42:18.338124,660
2021-09-24 15:42:18.338149,374
2021-09-24 15:42:18.338156,77
2021-09-24 15:42:18.338163,51
2021-09-24 15:42:18.338170,0
2021-09-24 15:42:18.338176,-99
2021-09-24 15:42:18.338183,-92
2021-09-24 15:42:18.338189,-72
2021-09-24 15:42:18.338196,-109
2021-09-24 15:42:18.338202,-126
2021-09-24 15:42:18.338209,-121
2021-09-24 15:42:18.338216,-136
2021-09-24 15:42:18.338222,-150
2021-09-24 15:42:18.338229,-157
2021-09-24 15:42:18.338235,-179
2021-09-24 15:42:18.338242,-201
2021-09-24 15:42:18.338248,-206
2021-09-24 15:42:18.338255,-216
2021-09-24 15:42:18.338261,-235
2021-09-24 15:42:18.338268,-259
2021-09-24 15:42:18.338274,-293
2021-09-24 15:42:18.338281,-323
2021-09-24 15:42:18.338287,-352
2021-09-24 15:42:18.338294,-388
2021-09-24 15:42:18.338300,-417
2021-09-24 15:42:18.338307,-439
2021-09-24 15:42:18.338313,-466
2021-09-24 15:42:18.338320,-471
2021-09-24 15:42:18.338326,-444
2021-09-24 15:42:18.338333,-398
2021-09-24 15:42:18.608311,-318
2021-09-24 15:42:18.608335,-208
2021-09-24 15:42:18.608343,-94
2021-09-24 15:42:18.608350,-2
2021-09-24 15:42:18.608357,80
2021-09-24 15:42:18.608364,145
2021-09-24 15:42:18.608371,191
2021-09-24 15:42:18.608377,206
2021-09-24 15:42:18.608384,206
2021-09-24 15:42:18.608391,208
2021-09-24 15:42:18.608398,216
2021-09-24 15:42:18.608405,216
2021-09-24 15:42:18.608412,196
2021-09-24 15:42:18.608418,182
2021-09-24 15:42:18.608425,177
2021-09-24 15:42:18.608432,162
2021-09-24 15:42:18.608439,150
2021-09-24 15:42:18.608446,150
2021-09-24 15:42:18.608452,143
2021-09-24 15:42:18.608459,126
2021-09-24 15:42:18.608466,111
2021-09-24 15:42:18.608473,106
2021-09-24 15:42:18.608479,102
2021-09-24 15:42:18.608486,97
2021-09-24 15:42:18.608493,97
2021-09-24 15:42:18.608500,92
2021-09-24 15:42:18.608507,85
2021-09-24 15:42:18.608513,82
2021-09-24 15:42:18.608520,82
2021-09-24 15:42:18.608527,82
2021-09-24 15:42:18.743003,80
2021-09-24 15:42:18.743024,77
2021-09-24 15:42:18.743032,80
2021-09-24 15:42:18.743039,82
2021-09-24 15:42:18.743046,85
2021-09-24 15:42:18.743052,89
2021-09-24 15:42:18.743059,89
2021-09-24 15:42:18.743065,89
2021-09-24 15:42:18.743072,89
2021-09-24 15:42:18.743078,87
2021-09-24 15:42:18.743085,85
2021-09-24 15:42:18.743091,85
2021-09-24 15:42:18.743098,85
2021-09-24 15:42:18.743104,75
2021-09-24 15:42:18.743111,72
2021-09-24 15:42:18.743117,75
2021-09-24 15:42:18.743124,65
2021-09-24 15:42:18.743130,60
2021-09-24 15:42:18.743137,70
2021-09-24 15:42:18.743143,58
2021-09-24 15:42:18.743150,43
2021-09-24 15:42:18.743156,46
2021-09-24 15:42:18.743163,53
2021-09-24 15:42:18.743169,51
2021-09-24 15:42:18.743176,43
2021-09-24 15:42:18.743182,41
2021-09-24 15:42:18.743189,41
2021-09-24 15:42:18.743195,41
2021-09-24 15:42:18.743202,43
2021-09-24 15:42:18.743208,46
2021-09-24 15:42:18.968240,43
2021-09-24 15:42:18.968264,41
2021-09-24 15:42:18.968272,43
2021-09-24 15:42:18.968278,43
2021-09-24 15:42:18.968285,48
2021-09-24 15:42:18.968291,51
2021-09-24 15:42:18.968298,34
2021-09-24 15:42:18.968304,14
2021-09-24 15:42:18.968311,4
2021-09-24 15:42:18.968317,7
2021-09-24 15:42:18.968324,12
2021-09-24 15:42:18.968330,0
2021-09-24 15:42:18.968337,-2
2021-09-24 15:42:18.968343,17
2021-09-24 15:42:18.968350,36
2021-09-24 15:42:18.968356,46
2021-09-24 15:42:18.968362,46
2021-09-24 15:42:18.968369,38
2021-09-24 15:42:18.968375,34
2021-09-24 15:42:18.968382,41
2021-09-24 15:42:18.968388,46
2021-09-24 15:42:18.968394,41
2021-09-24 15:42:18.968401,38
2021-09-24 15:42:18.968407,14
2021-09-24 15:42:18.968414,-38
2021-09-24 15:42:18.968420,-148
2021-09-24 15:42:18.968427,-354
2021-09-24 15:42:18.968433,-456
2021-09-24 15:42:18.968440,-204
2021-09-24 15:42:18.968446,293
2021-09-24 15:42:19.238142,660
2021-09-24 15:42:19.238164,548
2021-09-24 15:42:19.238172,174
2021-09-24 15:42:19.238179,58
2021-09-24 15:42:19.238185,65
2021-09-24 15:42:19.238192,-48
2021-09-24 15:42:19.238198,-106
2021-09-24 15:42:19.238205,-70
2021-09-24 15:42:19.238211,-82
2021-09-24 15:42:19.238218,-111
2021-09-24 15:42:19.238225,-109
2021-09-24 15:42:19.238231,-119
2021-09-24 15:42:19.238238,-138
2021-09-24 15:42:19.238244,-140
2021-09-24 15:42:19.238251,-148
2021-09-24 15:42:19.238257,-167
2021-09-24 15:42:19.238264,-179
2021-09-24 15:42:19.238271,-196
2021-09-24 15:42:19.238277,-218
2021-09-24 15:42:19.238283,-242
2021-09-24 15:42:19.238290,-269
2021-09-24 15:42:19.238297,-298
2021-09-24 15:42:19.238303,-330
2021-09-24 15:42:19.238310,-361
2021-09-24 15:42:19.238316,-398
2021-09-24 15:42:19.238323,-429
2021-09-24 15:42:19.238329,-449
2021-09-24 15:42:19.238336,-451
2021-09-24 15:42:19.238342,-442
2021-09-24 15:42:19.238349,-412
2021-09-24 15:42:19.418413,-344
2021-09-24 15:42:19.418436,-247
2021-09-24 15:42:19.418444,-140
2021-09-24 15:42:19.418451,-36
2021-09-24 15:42:19.418458,51
2021-09-24 15:42:19.418465,116
2021-09-24 15:42:19.418471,167
2021-09-24 15:42:19.418478,201
2021-09-24 15:42:19.418484,216
2021-09-24 15:42:19.418490,221
2021-09-24 15:42:19.418497,218
2021-09-24 15:42:19.418503,211
2021-09-24 15:42:19.418510,206
2021-09-24 15:42:19.418516,204
2021-09-24 15:42:19.418523,194
2021-09-24 15:42:19.418529,182
2021-09-24 15:42:19.418536,172
2021-09-24 15:42:19.418542,157
2021-09-24 15:42:19.418549,150
2021-09-24 15:42:19.418555,148
2021-09-24 15:42:19.418561,138
2021-09-24 15:42:19.418568,123
2021-09-24 15:42:19.418574,114
2021-09-24 15:42:19.418581,104
2021-09-24 15:42:19.418587,102
2021-09-24 15:42:19.418594,99
2021-09-24 15:42:19.418600,97
2021-09-24 15:42:19.418607,92
2021-09-24 15:42:19.418613,89
2021-09-24 15:42:19.418620,92
2021-09-24 15:42:19.686831,92
2021-09-24 15:42:19.686852,94
2021-09-24 15:42:19.686860,97
2021-09-24 15:42:19.686867,97
2021-09-24 15:42:19.686873,87
2021-09-24 15:42:19.686880,87
2021-09-24 15:42:19.686887,89
2021-09-24 15:42:19.686893,94
2021-09-24 15:42:19.686900,94
2021-09-24 15:42:19.686907,87
2021-09-24 15:42:19.686913,77
2021-09-24 15:42:19.686920,80
2021-09-24 15:42:19.686926,85
2021-09-24 15:42:19.686933,82
2021-09-24 15:42:19.686939,80
2021-09-24 15:42:19.686946,77
2021-09-24 15:42:19.686953,75
2021-09-24 15:42:19.686959,77
2021-09-24 15:42:19.686966,82
2021-09-24 15:42:19.686972,80
2021-09-24 15:42:19.686979,77
2021-09-24 15:42:19.686986,77
2021-09-24 15:42:19.686992,75
2021-09-24 15:42:19.686999,70
2021-09-24 15:42:19.687005,65
2021-09-24 15:42:19.687012,65
2021-09-24 15:42:19.687019,65
2021-09-24 15:42:19.687025,58
2021-09-24 15:42:19.687032,55
2021-09-24 15:42:19.687038,60
2021-09-24 15:42:19.957797,55
2021-09-24 15:42:19.957829,46
2021-09-24 15:42:19.957841,43
2021-09-24 15:42:19.957852,46
2021-09-24 15:42:19.957862,36
2021-09-24 15:42:19.957872,26
2021-09-24 15:42:19.957882,17
2021-09-24 15:42:19.957892,7
2021-09-24 15:42:19.957934,7
2021-09-24 15:42:19.957945,-2
2021-09-24 15:42:19.957955,-17
2021-09-24 15:42:19.957965,0
2021-09-24 15:42:19.957975,29
2021-09-24 15:42:19.957984,41
2021-09-24 15:42:19.957994,41
2021-09-24 15:42:19.958004,38
2021-09-24 15:42:19.958014,41
2021-09-24 15:42:19.958024,51
2021-09-24 15:42:19.958034,48
2021-09-24 15:42:19.958044,48
2021-09-24 15:42:19.958054,51
2021-09-24 15:42:19.958064,31
2021-09-24 15:42:19.958074,-14
2021-09-24 15:42:19.958084,-77
2021-09-24 15:42:19.958094,-223
2021-09-24 15:42:19.958104,-408
2021-09-24 15:42:19.958114,-354
2021-09-24 15:42:19.958124,38
2021-09-24 15:42:19.958134,514
2021-09-24 15:42:19.958143,680
2021-09-24 15:42:20.138117,376
2021-09-24 15:42:20.138139,82
2021-09-24 15:42:20.138147,63
2021-09-24 15:42:20.138154,7
2021-09-24 15:42:20.138161,-97
2021-09-24 15:42:20.138167,-85
2021-09-24 15:42:20.138174,-63
2021-09-24 15:42:20.138180,-104
2021-09-24 15:42:20.138187,-131
2021-09-24 15:42:20.138193,-133
2021-09-24 15:42:20.138200,-140
2021-09-24 15:42:20.138206,-148
2021-09-24 15:42:20.138212,-155
2021-09-24 15:42:20.138219,-167
2021-09-24 15:42:20.138225,-184
2021-09-24 15:42:20.138232,-204
2021-09-24 15:42:20.138238,-213
2021-09-24 15:42:20.138245,-228
2021-09-24 15:42:20.138251,-250
2021-09-24 15:42:20.138258,-272
2021-09-24 15:42:20.138264,-303
2021-09-24 15:42:20.138271,-342
2021-09-24 15:42:20.138277,-374
2021-09-24 15:42:20.138284,-398
2021-09-24 15:42:20.138290,-425
2021-09-24 15:42:20.138297,-442
2021-09-24 15:42:20.138303,-449
2021-09-24 15:42:20.138310,-444
2021-09-24 15:42:20.138316,-403
2021-09-24 15:42:20.138323,-320
2021-09-24 15:42:20.363316,-216
2021-09-24 15:42:20.363340,-104
2021-09-24 15:42:20.363348,-7
2021-09-24 15:42:20.363354,75
2021-09-24 15:42:20.363361,140
2021-09-24 15:42:20.363367,187
2021-09-24 15:42:20.363374,204
2021-09-24 15:42:20.363380,201
2021-09-24 15:42:20.363387,194
2021-09-24 15:42:20.363393,194
2021-09-24 15:42:20.363400,194
2021-09-24 15:42:20.363406,191
2021-09-24 15:42:20.363413,189
2021-09-24 15:42:20.363419,177
2021-09-24 15:42:20.363426,157
2021-09-24 15:42:20.363432,150
2021-09-24 15:42:20.363439,148
2021-09-24 15:42:20.363445,143
2021-09-24 15:42:20.363452,136
2021-09-24 15:42:20.363458,126
2021-09-24 15:42:20.363465,116
2021-09-24 15:42:20.363471,106
2021-09-24 15:42:20.363478,106
2021-09-24 15:42:20.363484,102
2021-09-24 15:42:20.363491,97
2021-09-24 15:42:20.363497,97
2021-09-24 15:42:20.363504,94
2021-09-24 15:42:20.363510,87
2021-09-24 15:42:20.363516,87
2021-09-24 15:42:20.363523,92
2021-09-24 15:42:20.633330,92
2021-09-24 15:42:20.633354,85
2021-09-24 15:42:20.633362,82
2021-09-24 15:42:20.633369,87
2021-09-24 15:42:20.633376,92
2021-09-24 15:42:20.633383,89
2021-09-24 15:42:20.633390,82
2021-09-24 15:42:20.633396,77
2021-09-24 15:42:20.633403,72
2021-09-24 15:42:20.633410,75
2021-09-24 15:42:20.633417,77
2021-09-24 15:42:20.633424,80
2021-09-24 15:42:20.633431,77
2021-09-24 15:42:20.633437,68
2021-09-24 15:42:20.633444,63
2021-09-24 15:42:20.633451,63
2021-09-24 15:42:20.633458,65
2021-09-24 15:42:20.633465,65
2021-09-24 15:42:20.633471,65
2021-09-24 15:42:20.633478,65
2021-09-24 15:42:20.633485,58
2021-09-24 15:42:20.633492,53
2021-09-24 15:42:20.633499,60
2021-09-24 15:42:20.633506,65
2021-09-24 15:42:20.633512,58
2021-09-24 15:42:20.633519,58
2021-09-24 15:42:20.633526,58
2021-09-24 15:42:20.633533,53
2021-09-24 15:42:20.633540,53
2021-09-24 15:42:20.633547,58
2021-09-24 15:42:20.813219,63
2021-09-24 15:42:20.813240,53
2021-09-24 15:42:20.813248,36
2021-09-24 15:42:20.813255,19
2021-09-24 15:42:20.813261,12
2021-09-24 15:42:20.813268,12
2021-09-24 15:42:20.813274,2
2021-09-24 15:42:20.813280,-17
2021-09-24 15:42:20.813287,-9
2021-09-24 15:42:20.813293,17
2021-09-24 15:42:20.813300,36
2021-09-24 15:42:20.813306,41
2021-09-24 15:42:20.813313,34
2021-09-24 15:42:20.813319,21
2021-09-24 15:42:20.813326,26
2021-09-24 15:42:20.813332,34
2021-09-24 15:42:20.813339,29
2021-09-24 15:42:20.813345,21
2021-09-24 15:42:20.813352,7
2021-09-24 15:42:20.813358,-29
2021-09-24 15:42:20.813365,-87
2021-09-24 15:42:20.813371,-208
2021-09-24 15:42:20.813377,-398
2021-09-24 15:42:20.813384,-429
2021-09-24 15:42:20.813390,-121
2021-09-24 15:42:20.813397,374
2021-09-24 15:42:20.813403,638
2021-09-24 15:42:20.813410,403
2021-09-24 15:42:20.813416,82
2021-09-24 15:42:20.813423,46
2021-09-24 15:42:21.127122,24
2021-09-24 15:42:21.127155,-99
2021-09-24 15:42:21.127163,-123
2021-09-24 15:42:21.127169,-94
2021-09-24 15:42:21.127175,-126
2021-09-24 15:42:21.127181,-155
2021-09-24 15:42:21.127186,-157
2021-09-24 15:42:21.127192,-165
2021-09-24 15:42:21.127198,-177
2021-09-24 15:42:21.127204,-182
2021-09-24 15:42:21.127209,-189
2021-09-24 15:42:21.127215,-206
2021-09-24 15:42:21.127221,-225
2021-09-24 15:42:21.127227,-242
2021-09-24 15:42:21.127233,-259
2021-09-24 15:42:21.127238,-286
2021-09-24 15:42:21.127244,-313
2021-09-24 15:42:21.127250,-342
2021-09-24 15:42:21.127256,-378
2021-09-24 15:42:21.127261,-412
2021-09-24 15:42:21.127267,-437
2021-09-24 15:42:21.127273,-456
2021-09-24 15:42:21.127279,-468
2021-09-24 15:42:21.127285,-466
2021-09-24 15:42:21.127290,-451
2021-09-24 15:42:21.127296,-410
2021-09-24 15:42:21.127302,-335
2021-09-24 15:42:21.127308,-238
2021-09-24 15:42:21.127314,-128
2021-09-24 15:42:21.127320,-29
2021-09-24 15:42:21.307857,55
2021-09-24 15:42:21.307880,123
2021-09-24 15:42:21.307888,170
2021-09-24 15:42:21.307894,191
2021-09-24 15:42:21.307901,204
2021-09-24 15:42:21.307907,206
2021-09-24 15:42:21.307914,204
2021-09-24 15:42:21.307920,196
2021-09-24 15:42:21.307926,187
2021-09-24 15:42:21.307933,177
2021-09-24 15:42:21.307939,165
2021-09-24 15:42:21.307946,153
2021-09-24 15:42:21.307952,150
2021-09-24 15:42:21.307958,150
2021-09-24 15:42:21.307965,138
2021-09-24 15:42:21.307971,126
2021-09-24 15:42:21.307978,119
2021-09-24 15:42:21.307984,106
2021-09-24 15:42:21.307990,97
2021-09-24 15:42:21.307997,92
2021-09-24 15:42:21.308003,85
2021-09-24 15:42:21.308010,80
2021-09-24 15:42:21.308016,77
2021-09-24 15:42:21.308022,77
2021-09-24 15:42:21.308029,77
2021-09-24 15:42:21.308035,80
2021-09-24 15:42:21.308041,82
2021-09-24 15:42:21.308048,82
2021-09-24 15:42:21.308054,77
2021-09-24 15:42:21.308061,82
2021-09-24 15:42:21.532961,89
2021-09-24 15:42:21.532983,85
2021-09-24 15:42:21.532991,85
2021-09-24 15:42:21.532998,87
2021-09-24 15:42:21.533004,87
2021-09-24 15:42:21.533011,87
2021-09-24 15:42:21.533017,89
2021-09-24 15:42:21.533024,87
2021-09-24 15:42:21.533030,75
2021-09-24 15:42:21.533037,70
2021-09-24 15:42:21.533044,68
2021-09-24 15:42:21.533050,65
2021-09-24 15:42:21.533057,65
2021-09-24 15:42:21.533063,70
2021-09-24 15:42:21.533070,70
2021-09-24 15:42:21.533076,60
2021-09-24 15:42:21.533083,51
2021-09-24 15:42:21.533089,51
2021-09-24 15:42:21.533095,53
2021-09-24 15:42:21.533102,55
2021-09-24 15:42:21.533108,60
2021-09-24 15:42:21.533115,55
2021-09-24 15:42:21.533121,55
2021-09-24 15:42:21.533128,58
2021-09-24 15:42:21.533134,46
2021-09-24 15:42:21.533141,29
2021-09-24 15:42:21.533147,21
2021-09-24 15:42:21.533154,24
2021-09-24 15:42:21.533160,19
2021-09-24 15:42:21.533167,19
2021-09-24 15:42:21.758019,34
2021-09-24 15:42:21.758075,55
2021-09-24 15:42:21.758086,65
2021-09-24 15:42:21.758095,58
2021-09-24 15:42:21.758103,46
2021-09-24 15:42:21.758112,53
2021-09-24 15:42:21.758120,60
2021-09-24 15:42:21.758128,55
2021-09-24 15:42:21.758136,55
2021-09-24 15:42:21.758143,53
2021-09-24 15:42:21.758151,14
2021-09-24 15:42:21.758159,-48
2021-09-24 15:42:21.758166,-136
2021-09-24 15:42:21.758175,-291
2021-09-24 15:42:21.758183,-357
2021-09-24 15:42:21.758191,-121
2021-09-24 15:42:21.758199,327
2021-09-24 15:42:21.758208,646
2021-09-24 15:42:21.758216,502
2021-09-24 15:42:21.758225,153
2021-09-24 15:42:21.758233,65
2021-09-24 15:42:21.758241,63
2021-09-24 15:42:21.758248,-58
2021-09-24 15:42:21.758256,-109
2021-09-24 15:42:21.758264,-80
2021-09-24 15:42:21.758273,-104
2021-09-24 15:42:21.758280,-133
2021-09-24 15:42:21.758288,-133
2021-09-24 15:42:21.758296,-138
2021-09-24 15:42:21.758306,-150
2021-09-24 15:42:22.028186,-157
2021-09-24 15:42:22.028208,-162
2021-09-24 15:42:22.028216,-177
2021-09-24 15:42:22.028223,-201
2021-09-24 15:42:22.028229,-211
2021-09-24 15:42:22.028236,-221
2021-09-24 15:42:22.028242,-242
2021-09-24 15:42:22.028249,-264
2021-09-24 15:42:22.028255,-293
2021-09-24 15:42:22.028262,-332
2021-09-24 15:42:22.028268,-364
2021-09-24 15:42:22.028275,-393
2021-09-24 15:42:22.028281,-427
2021-09-24 15:42:22.028288,-444
2021-09-24 15:42:22.028294,-451
2021-09-24 15:42:22.028301,-444
2021-09-24 15:42:22.028307,-405
2021-09-24 15:42:22.028314,-330
2021-09-24 15:42:22.028320,-233
2021-09-24 15:42:22.028327,-121
2021-09-24 15:42:22.028333,-21
2021-09-24 15:42:22.028340,55
2021-09-24 15:42:22.028347,123
2021-09-24 15:42:22.028353,174
2021-09-24 15:42:22.028359,199
2021-09-24 15:42:22.028366,211
2021-09-24 15:42:22.028372,216
2021-09-24 15:42:22.028379,211
2021-09-24 15:42:22.028385,208
2021-09-24 15:42:22.028392,211
2021-09-24 15:42:22.252887,208
2021-09-24 15:42:22.252916,204
2021-09-24 15:42:22.252924,191
2021-09-24 15:42:22.252931,182
2021-09-24 15:42:22.252965,174
2021-09-24 15:42:22.252981,167
2021-09-24 15:42:22.252988,160
2021-09-24 15:42:22.252994,150
2021-09-24 15:42:22.253000,133
2021-09-24 15:42:22.253005,119
2021-09-24 15:42:22.253011,119
2021-09-24 15:42:22.253016,121
2021-09-24 15:42:22.253021,114
2021-09-24 15:42:22.253027,109
2021-09-24 15:42:22.253032,104
2021-09-24 15:42:22.253038,94
2021-09-24 15:42:22.253043,94
2021-09-24 15:42:22.253048,102
2021-09-24 15:42:22.253054,102
2021-09-24 15:42:22.253059,94
2021-09-24 15:42:22.253065,89
2021-09-24 15:42:22.253071,92
2021-09-24 15:42:22.253076,99
2021-09-24 15:42:22.253082,99
2021-09-24 15:42:22.253087,94
2021-09-24 15:42:22.253093,94
2021-09-24 15:42:22.253098,94
2021-09-24 15:42:22.253103,94
2021-09-24 15:42:22.253109,99
2021-09-24 15:42:22.253114,97
2021-09-24 15:42:22.433296,85
2021-09-24 15:42:22.433320,72
2021-09-24 15:42:22.433327,72
2021-09-24 15:42:22.433334,75
2021-09-24 15:42:22.433341,75
2021-09-24 15:42:22.433347,77
2021-09-24 15:42:22.433354,77
2021-09-24 15:42:22.433361,77
2021-09-24 15:42:22.433367,80
2021-09-24 15:42:22.433374,80
2021-09-24 15:42:22.433380,77
2021-09-24 15:42:22.433386,75
2021-09-24 15:42:22.433393,70
2021-09-24 15:42:22.433400,65
2021-09-24 15:42:22.433406,65
2021-09-24 15:42:22.433413,70
2021-09-24 15:42:22.433419,65
2021-09-24 15:42:22.433426,53
2021-09-24 15:42:22.433432,31
2021-09-24 15:42:22.433438,9
2021-09-24 15:42:22.433445,7
2021-09-24 15:42:22.433451,14
2021-09-24 15:42:22.433458,9
2021-09-24 15:42:22.433464,14
2021-09-24 15:42:22.433471,31
2021-09-24 15:42:22.433477,46
2021-09-24 15:42:22.433484,51
2021-09-24 15:42:22.433491,51
2021-09-24 15:42:22.433497,51
2021-09-24 15:42:22.433504,55
2021-09-24 15:42:22.702983,58
2021-09-24 15:42:22.703006,55
2021-09-24 15:42:22.703014,55
2021-09-24 15:42:22.703020,41
2021-09-24 15:42:22.703027,0
2021-09-24 15:42:22.703034,-72
2021-09-24 15:42:22.703040,-218
2021-09-24 15:42:22.703047,-378
2021-09-24 15:42:22.703053,-281
2021-09-24 15:42:22.703060,114
2021-09-24 15:42:22.703066,527
2021-09-24 15:42:22.703073,663
2021-09-24 15:42:22.703080,383
2021-09-24 15:42:22.703086,87
2021-09-24 15:42:22.703093,63
2021-09-24 15:42:22.703099,21
2021-09-24 15:42:22.703105,-82
2021-09-24 15:42:22.703112,-82
2021-09-24 15:42:22.703118,-65
2021-09-24 15:42:22.703125,-104
2021-09-24 15:42:22.703131,-116
2021-09-24 15:42:22.703138,-104
2021-09-24 15:42:22.703144,-116
2021-09-24 15:42:22.703150,-128
2021-09-24 15:42:22.703157,-133
2021-09-24 15:42:22.703163,-148
2021-09-24 15:42:22.703170,-160
2021-09-24 15:42:22.703176,-172
2021-09-24 15:42:22.703183,-189
2021-09-24 15:42:22.703189,-208
2021-09-24 15:42:22.883340,-228
2021-09-24 15:42:22.883364,-250
2021-09-24 15:42:22.883372,-279
2021-09-24 15:42:22.883379,-313
2021-09-24 15:42:22.883385,-344
2021-09-24 15:42:22.883392,-378
2021-09-24 15:42:22.883398,-408
2021-09-24 15:42:22.883405,-422
2021-09-24 15:42:22.883822,-417
2021-09-24 15:42:22.883831,-403
2021-09-24 15:42:22.883838,-366
2021-09-24 15:42:22.883844,-298
2021-09-24 15:42:22.883883,-204
2021-09-24 15:42:22.883889,-92
2021-09-24 15:42:22.883896,12
2021-09-24 15:42:22.883903,85
2021-09-24 15:42:22.883909,140
2021-09-24 15:42:22.883915,187
2021-09-24 15:42:22.883922,204
2021-09-24 15:42:22.883928,208
2021-09-24 15:42:22.883935,213
2021-09-24 15:42:22.883941,206
2021-09-24 15:42:22.883947,201
2021-09-24 15:42:22.883954,196
2021-09-24 15:42:22.883960,191
2021-09-24 15:42:22.883966,189
2021-09-24 15:42:22.883973,184
2021-09-24 15:42:22.883979,174
2021-09-24 15:42:22.883986,170
2021-09-24 15:42:22.883992,162
2021-09-24 15:42:23.108434,153
2021-09-24 15:42:23.108465,145
2021-09-24 15:42:23.108477,138
2021-09-24 15:42:23.108487,128
2021-09-24 15:42:23.108497,121
2021-09-24 15:42:23.108507,114
2021-09-24 15:42:23.108517,106
2021-09-24 15:42:23.108527,104
2021-09-24 15:42:23.108537,104
2021-09-24 15:42:23.108547,97
2021-09-24 15:42:23.108557,92
2021-09-24 15:42:23.108567,89
2021-09-24 15:42:23.108578,87
2021-09-24 15:42:23.108588,89
2021-09-24 15:42:23.108598,92
2021-09-24 15:42:23.108608,89
2021-09-24 15:42:23.108618,89
2021-09-24 15:42:23.108628,89
2021-09-24 15:42:23.108638,89
2021-09-24 15:42:23.108648,87
2021-09-24 15:42:23.108658,87
2021-09-24 15:42:23.108668,87
2021-09-24 15:42:23.108677,82
2021-09-24 15:42:23.108687,80
2021-09-24 15:42:23.108697,80
2021-09-24 15:42:23.108707,80
2021-09-24 15:42:23.108717,80
2021-09-24 15:42:23.108727,77
2021-09-24 15:42:23.108737,75
2021-09-24 15:42:23.108747,75
2021-09-24 15:42:23.377497,72
2021-09-24 15:42:23.377518,72
2021-09-24 15:42:23.377526,72
2021-09-24 15:42:23.377533,72
2021-09-24 15:42:23.377540,63
2021-09-24 15:42:23.377546,55
2021-09-24 15:42:23.377553,58
2021-09-24 15:42:23.377559,63
2021-09-24 15:42:23.377566,60
2021-09-24 15:42:23.377572,55
2021-09-24 15:42:23.377579,51
2021-09-24 15:42:23.377585,41
2021-09-24 15:42:23.377592,38
2021-09-24 15:42:23.377599,41
2021-09-24 15:42:23.377605,31
2021-09-24 15:42:23.377612,4
2021-09-24 15:42:23.377618,-7
2021-09-24 15:42:23.377625,2
2021-09-24 15:42:23.377631,2
2021-09-24 15:42:23.377638,-4
2021-09-24 15:42:23.377645,7
2021-09-24 15:42:23.377651,26
2021-09-24 15:42:23.377658,41
2021-09-24 15:42:23.377664,48
2021-09-24 15:42:23.377671,41
2021-09-24 15:42:23.377677,34
2021-09-24 15:42:23.377684,36
2021-09-24 15:42:23.377690,41
2021-09-24 15:42:23.377697,36
2021-09-24 15:42:23.377703,36
2021-09-24 15:42:23.558359,24
2021-09-24 15:42:23.558383,-24
2021-09-24 15:42:23.558391,-114
2021-09-24 15:42:23.558398,-272
2021-09-24 15:42:23.558405,-412
2021-09-24 15:42:23.558411,-269
2021-09-24 15:42:23.558418,157
2021-09-24 15:42:23.558424,568
2021-09-24 15:42:23.558430,638
2021-09-24 15:42:23.558437,303
2021-09-24 15:42:23.558443,43
2021-09-24 15:42:23.558450,36
2021-09-24 15:42:23.558456,-26
2021-09-24 15:42:23.558463,-114
2021-09-24 15:42:23.558469,-97
2021-09-24 15:42:23.558475,-94
2021-09-24 15:42:23.558482,-128
2021-09-24 15:42:23.558488,-133
2021-09-24 15:42:23.558495,-126
2021-09-24 15:42:23.558501,-138
2021-09-24 15:42:23.558508,-153
2021-09-24 15:42:23.558514,-160
2021-09-24 15:42:23.558520,-170
2021-09-24 15:42:23.558527,-177
2021-09-24 15:42:23.558533,-187
2021-09-24 15:42:23.558540,-211
2021-09-24 15:42:23.558546,-242
2021-09-24 15:42:23.558553,-267
2021-09-24 15:42:23.558559,-289
2021-09-24 15:42:23.558566,-318
2021-09-24 15:42:23.871940,-352
2021-09-24 15:42:23.871965,-381
2021-09-24 15:42:23.871973,-410
2021-09-24 15:42:23.871980,-444
2021-09-24 15:42:23.871987,-459
2021-09-24 15:42:23.871993,-449
2021-09-24 15:42:23.872000,-425
2021-09-24 15:42:23.872007,-381
2021-09-24 15:42:23.872013,-306
2021-09-24 15:42:23.872020,-206
2021-09-24 15:42:23.872026,-97
2021-09-24 15:42:23.872033,2
2021-09-24 15:42:23.872040,80
2021-09-24 15:42:23.872046,136
2021-09-24 15:42:23.872053,172
2021-09-24 15:42:23.872060,189
2021-09-24 15:42:23.872066,194
2021-09-24 15:42:23.872073,194
2021-09-24 15:42:23.872079,187
2021-09-24 15:42:23.872086,187
2021-09-24 15:42:23.872092,179
2021-09-24 15:42:23.872099,170
2021-09-24 15:42:23.872106,170
2021-09-24 15:42:23.872112,165
2021-09-24 15:42:23.872118,150
2021-09-24 15:42:23.872125,145
2021-09-24 15:42:23.872132,140
2021-09-24 15:42:23.872138,128
2021-09-24 15:42:23.872145,116
2021-09-24 15:42:23.872152,109
2021-09-24 15:42:24.052818,102
2021-09-24 15:42:24.052839,94
2021-09-24 15:42:24.052847,92
2021-09-24 15:42:24.052855,85
2021-09-24 15:42:24.052862,80
2021-09-24 15:42:24.052868,82
2021-09-24 15:42:24.052875,85
2021-09-24 15:42:24.052882,80
2021-09-24 15:42:24.052889,72
2021-09-24 15:42:24.052896,68
2021-09-24 15:42:24.052903,70
2021-09-24 15:42:24.052909,75
2021-09-24 15:42:24.052916,80
2021-09-24 15:42:24.052923,77
2021-09-24 15:42:24.052930,68
2021-09-24 15:42:24.052937,60
2021-09-24 15:42:24.052943,65
2021-09-24 15:42:24.052950,65
2021-09-24 15:42:24.052957,68
2021-09-24 15:42:24.052964,70
2021-09-24 15:42:24.052971,65
2021-09-24 15:42:24.052977,60
2021-09-24 15:42:24.052984,65
2021-09-24 15:42:24.052991,68
2021-09-24 15:42:24.052998,68
2021-09-24 15:42:24.053005,70
2021-09-24 15:42:24.053012,68
2021-09-24 15:42:24.053018,63
2021-09-24 15:42:24.053025,60
2021-09-24 15:42:24.053032,63
2021-09-24 15:42:24.323151,63
2021-09-24 15:42:24.323173,55
2021-09-24 15:42:24.323181,43
2021-09-24 15:42:24.323188,41
2021-09-24 15:42:24.323194,48
2021-09-24 15:42:24.323201,53
2021-09-24 15:42:24.323207,48
2021-09-24 15:42:24.323214,36
2021-09-24 15:42:24.323220,31
2021-09-24 15:42:24.323227,36
2021-09-24 15:42:24.323234,43
2021-09-24 15:42:24.323240,41
2021-09-24 15:42:24.323247,36
2021-09-24 15:42:24.323253,21
2021-09-24 15:42:24.323260,0
2021-09-24 15:42:24.323266,-4
2021-09-24 15:42:24.323273,2
2021-09-24 15:42:24.323280,-7
2021-09-24 15:42:24.323286,-9
2021-09-24 15:42:24.323293,12
2021-09-24 15:42:24.323299,34
2021-09-24 15:42:24.323306,34
2021-09-24 15:42:24.323312,19
2021-09-24 15:42:24.323319,12
2021-09-24 15:42:24.323325,19
2021-09-24 15:42:24.323332,24
2021-09-24 15:42:24.323338,21
2021-09-24 15:42:24.323345,21
2021-09-24 15:42:24.323352,19
2021-09-24 15:42:24.323358,-2
2021-09-24 15:42:24.503330,-46
2021-09-24 15:42:24.503355,-138
2021-09-24 15:42:24.503363,-330
2021-09-24 15:42:24.503370,-478
2021-09-24 15:42:24.503377,-313
2021-09-24 15:42:24.503384,148
2021-09-24 15:42:24.503391,568
2021-09-24 15:42:24.503398,536
2021-09-24 15:42:24.503405,167
2021-09-24 15:42:24.503411,12
2021-09-24 15:42:24.503418,46
2021-09-24 15:42:24.503425,-48
2021-09-24 15:42:24.503432,-126
2021-09-24 15:42:24.503439,-94
2021-09-24 15:42:24.503445,-94
2021-09-24 15:42:24.503452,-131
2021-09-24 15:42:24.503459,-131
2021-09-24 15:42:24.503466,-133
2021-09-24 15:42:24.503472,-155
2021-09-24 15:42:24.503479,-170
2021-09-24 15:42:24.503486,-170
2021-09-24 15:42:24.503493,-184
2021-09-24 15:42:24.503500,-204
2021-09-24 15:42:24.503506,-221
2021-09-24 15:42:24.503513,-233
2021-09-24 15:42:24.503520,-252
2021-09-24 15:42:24.503527,-274
2021-09-24 15:42:24.503534,-303
2021-09-24 15:42:24.503540,-337
2021-09-24 15:42:24.503547,-364
2021-09-24 15:42:24.727719,-395
2021-09-24 15:42:24.727739,-422
2021-09-24 15:42:24.727746,-437
2021-09-24 15:42:24.727753,-442
2021-09-24 15:42:24.727760,-439
2021-09-24 15:42:24.727766,-420
2021-09-24 15:42:24.727772,-369
2021-09-24 15:42:24.727778,-289
2021-09-24 15:42:24.727785,-189
2021-09-24 15:42:24.727791,-77
2021-09-24 15:42:24.727797,14
2021-09-24 15:42:24.727804,75
2021-09-24 15:42:24.727810,121
2021-09-24 15:42:24.727816,165
2021-09-24 15:42:24.727823,196
2021-09-24 15:42:24.727829,196
2021-09-24 15:42:24.727835,187
2021-09-24 15:42:24.727841,184
2021-09-24 15:42:24.727848,187
2021-09-24 15:42:24.727854,184
2021-09-24 15:42:24.727860,179
2021-09-24 15:42:24.727867,172
2021-09-24 15:42:24.727873,157
2021-09-24 15:42:24.727879,145
2021-09-24 15:42:24.727886,143
2021-09-24 15:42:24.727892,136
2021-09-24 15:42:24.727898,121
2021-09-24 15:42:24.727905,104
2021-09-24 15:42:24.727911,87
2021-09-24 15:42:24.727917,82
2021-09-24 15:42:24.953384,85
2021-09-24 15:42:24.953407,82
2021-09-24 15:42:24.953415,75
2021-09-24 15:42:24.953440,75
2021-09-24 15:42:24.953447,77
2021-09-24 15:42:24.953453,68
2021-09-24 15:42:24.953460,60
2021-09-24 15:42:24.953466,55
2021-09-24 15:42:24.953473,55
2021-09-24 15:42:24.953479,63
2021-09-24 15:42:24.953486,68
2021-09-24 15:42:24.953493,55
2021-09-24 15:42:24.953499,48
2021-09-24 15:42:24.953506,51
2021-09-24 15:42:24.953512,55
2021-09-24 15:42:24.953519,55
2021-09-24 15:42:24.953525,53
2021-09-24 15:42:24.953531,58
2021-09-24 15:42:24.953538,63
2021-09-24 15:42:24.953544,58
2021-09-24 15:42:24.953551,53
2021-09-24 15:42:24.953557,58
2021-09-24 15:42:24.953564,58
2021-09-24 15:42:24.953570,51
2021-09-24 15:42:24.953577,46
2021-09-24 15:42:24.953584,48
2021-09-24 15:42:24.953590,53
2021-09-24 15:42:24.953597,43
2021-09-24 15:42:24.953603,41
2021-09-24 15:42:24.953610,51
2021-09-24 15:42:25.313860,48
2021-09-24 15:42:25.313919,46
2021-09-24 15:42:25.313946,48
2021-09-24 15:42:25.313964,34
2021-09-24 15:42:25.313983,9
2021-09-24 15:42:25.314002,0
2021-09-24 15:42:25.314019,7
2021-09-24 15:42:25.314033,4
2021-09-24 15:42:25.314041,-4
2021-09-24 15:42:25.314047,0
2021-09-24 15:42:25.314054,21
2021-09-24 15:42:25.314063,31
2021-09-24 15:42:25.314075,24
2021-09-24 15:42:25.314082,26
2021-09-24 15:42:25.314089,34
2021-09-24 15:42:25.314096,29
2021-09-24 15:42:25.314102,26
2021-09-24 15:42:25.314108,29
2021-09-24 15:42:25.314114,24
2021-09-24 15:42:25.314120,-7
2021-09-24 15:42:25.314127,-68
2021-09-24 15:42:25.314133,-145
2021-09-24 15:42:25.314140,-259
2021-09-24 15:42:25.314147,-325
2021-09-24 15:42:25.314153,-119
2021-09-24 15:42:25.314159,320
2021-09-24 15:42:25.314166,634
2021-09-24 15:42:25.314172,497
2021-09-24 15:42:25.314178,143
2021-09-24 15:42:25.314184,34
2021-09-24 15:42:25.402794,48
2021-09-24 15:42:25.402811,-51
2021-09-24 15:42:25.402819,-126
2021-09-24 15:42:25.402825,-111
2021-09-24 15:42:25.402831,-121
2021-09-24 15:42:25.402836,-150
2021-09-24 15:42:25.402842,-153
2021-09-24 15:42:25.402848,-148
2021-09-24 15:42:25.402854,-155
2021-09-24 15:42:25.402860,-165
2021-09-24 15:42:25.402866,-174
2021-09-24 15:42:25.402872,-194
2021-09-24 15:42:25.402878,-213
2021-09-24 15:42:25.402883,-223
2021-09-24 15:42:25.402889,-238
2021-09-24 15:42:25.402895,-262
2021-09-24 15:42:25.402901,-284
2021-09-24 15:42:25.402907,-301
2021-09-24 15:42:25.402913,-323
2021-09-24 15:42:25.402919,-357
2021-09-24 15:42:25.402925,-388
2021-09-24 15:42:25.402931,-412
2021-09-24 15:42:25.402937,-422
2021-09-24 15:42:25.402942,-417
2021-09-24 15:42:25.402948,-400
2021-09-24 15:42:25.402954,-369
2021-09-24 15:42:25.402960,-310
2021-09-24 15:42:25.402966,-230
2021-09-24 15:42:25.402972,-136
2021-09-24 15:42:25.402978,-36
2021-09-24 15:42:25.718294,46
2021-09-24 15:42:25.718316,104
2021-09-24 15:42:25.718324,138
2021-09-24 15:42:25.718331,155
2021-09-24 15:42:25.718338,165
2021-09-24 15:42:25.718344,174
2021-09-24 15:42:25.718351,182
2021-09-24 15:42:25.718357,182
2021-09-24 15:42:25.718364,177
2021-09-24 15:42:25.718370,170
2021-09-24 15:42:25.718377,170
2021-09-24 15:42:25.718383,170
2021-09-24 15:42:25.718390,145
2021-09-24 15:42:25.718397,114
2021-09-24 15:42:25.718403,106
2021-09-24 15:42:25.718410,104
2021-09-24 15:42:25.718416,89
2021-09-24 15:42:25.718423,70
2021-09-24 15:42:25.718429,72
2021-09-24 15:42:25.718436,77
2021-09-24 15:42:25.718442,65
2021-09-24 15:42:25.718449,65
2021-09-24 15:42:25.718456,94
2021-09-24 15:42:25.718462,121
2021-09-24 15:42:25.718469,104
2021-09-24 15:42:25.718475,68
2021-09-24 15:42:25.718482,55
2021-09-24 15:42:25.718488,53
2021-09-24 15:42:25.718495,48
2021-09-24 15:42:25.718501,51
2021-09-24 15:42:25.941922,53
2021-09-24 15:42:25.941944,51
2021-09-24 15:42:25.941952,58
2021-09-24 15:42:25.941958,65
2021-09-24 15:42:25.941965,75
2021-09-24 15:42:25.941971,94
2021-09-24 15:42:25.941978,97
2021-09-24 15:42:25.941984,80
2021-09-24 15:42:25.941991,68
2021-09-24 15:42:25.941997,63
2021-09-24 15:42:25.942004,53
2021-09-24 15:42:25.942010,36
2021-09-24 15:42:25.942016,48
2021-09-24 15:42:25.942023,87
2021-09-24 15:42:25.942030,80
2021-09-24 15:42:25.942036,53
2021-09-24 15:42:25.942043,60
2021-09-24 15:42:25.942049,55
2021-09-24 15:42:25.942056,29
2021-09-24 15:42:25.942062,24
2021-09-24 15:42:25.942068,26
2021-09-24 15:42:25.942075,17
2021-09-24 15:42:25.942081,29
2021-09-24 15:42:25.942088,51
2021-09-24 15:42:25.942094,60
2021-09-24 15:42:25.942101,60
2021-09-24 15:42:25.942107,58
2021-09-24 15:42:25.942114,58
2021-09-24 15:42:25.942120,65
2021-09-24 15:42:25.942126,70
2021-09-24 15:42:26.123381,72
2021-09-24 15:42:26.123404,63
2021-09-24 15:42:26.123412,36
2021-09-24 15:42:26.123419,-2
2021-09-24 15:42:26.123426,-58
2021-09-24 15:42:26.123433,-174
2021-09-24 15:42:26.123439,-306
2021-09-24 15:42:26.123446,-206
2021-09-24 15:42:26.123453,179
2021-09-24 15:42:26.123459,558
2021-09-24 15:42:26.123466,612
2021-09-24 15:42:26.123473,323
2021-09-24 15:42:26.123480,94
2021-09-24 15:42:26.123486,80
2021-09-24 15:42:26.123493,17
2021-09-24 15:42:26.123500,-82
2021-09-24 15:42:26.123506,-87
2021-09-24 15:42:26.123513,-80
2021-09-24 15:42:26.123520,-106
2021-09-24 15:42:26.123526,-114
2021-09-24 15:42:26.123533,-111
2021-09-24 15:42:26.123540,-123
2021-09-24 15:42:26.123547,-131
2021-09-24 15:42:26.123553,-131
2021-09-24 15:42:26.123560,-143
2021-09-24 15:42:26.123567,-155
2021-09-24 15:42:26.123573,-167
2021-09-24 15:42:26.123580,-177
2021-09-24 15:42:26.123587,-191
2021-09-24 15:42:26.123593,-211
2021-09-24 15:42:26.348365,-235
2021-09-24 15:42:26.348389,-259
2021-09-24 15:42:26.348396,-286
2021-09-24 15:42:26.348403,-320
2021-09-24 15:42:26.348410,-344
2021-09-24 15:42:26.348416,-357
2021-09-24 15:42:26.348423,-361
2021-09-24 15:42:26.348430,-369
2021-09-24 15:42:26.348436,-352
2021-09-24 15:42:26.348443,-301
2021-09-24 15:42:26.348449,-225
2021-09-24 15:42:26.348456,-131
2021-09-24 15:42:26.348462,-34
2021-09-24 15:42:26.348469,43
2021-09-24 15:42:26.348476,104
2021-09-24 15:42:26.348482,150
2021-09-24 15:42:26.348489,172
2021-09-24 15:42:26.348495,182
2021-09-24 15:42:26.348502,191
2021-09-24 15:42:26.348508,194
2021-09-24 15:42:26.348515,182
2021-09-24 15:42:26.348521,177
2021-09-24 15:42:26.348527,174
2021-09-24 15:42:26.348534,162
2021-09-24 15:42:26.348540,148
2021-09-24 15:42:26.348547,140
2021-09-24 15:42:26.348553,133
2021-09-24 15:42:26.348560,126
2021-09-24 15:42:26.348566,116
2021-09-24 15:42:26.348573,111
2021-09-24 15:42:26.573458,106
2021-09-24 15:42:26.573481,97
2021-09-24 15:42:26.573489,85
2021-09-24 15:42:26.573496,77
2021-09-24 15:42:26.573503,80
2021-09-24 15:42:26.573510,75
2021-09-24 15:42:26.573517,60
2021-09-24 15:42:26.573523,53
2021-09-24 15:42:26.573530,58
2021-09-24 15:42:26.573537,63
2021-09-24 15:42:26.573544,65
2021-09-24 15:42:26.573551,63
2021-09-24 15:42:26.573557,58
2021-09-24 15:42:26.573564,58
2021-09-24 15:42:26.573571,58
2021-09-24 15:42:26.573578,55
2021-09-24 15:42:26.573585,65
2021-09-24 15:42:26.573591,70
2021-09-24 15:42:26.573598,60
2021-09-24 15:42:26.573605,60
2021-09-24 15:42:26.573612,70
2021-09-24 15:42:26.573619,58
2021-09-24 15:42:26.573625,48
2021-09-24 15:42:26.573632,60
2021-09-24 15:42:26.573639,65
2021-09-24 15:42:26.573646,58
2021-09-24 15:42:26.573652,63
2021-09-24 15:42:26.573659,65
2021-09-24 15:42:26.573666,53
2021-09-24 15:42:26.573673,41
2021-09-24 15:42:26.798268,29
2021-09-24 15:42:26.798289,14
2021-09-24 15:42:26.798297,9
2021-09-24 15:42:26.798304,17
2021-09-24 15:42:26.798310,31
2021-09-24 15:42:26.798317,38
2021-09-24 15:42:26.798323,34
2021-09-24 15:42:26.798330,31
2021-09-24 15:42:26.798336,31
2021-09-24 15:42:26.798343,31
2021-09-24 15:42:26.798349,41
2021-09-24 15:42:26.798356,34
2021-09-24 15:42:26.798362,17
2021-09-24 15:42:26.798369,-4
2021-09-24 15:42:26.798376,-46
2021-09-24 15:42:26.798382,-119
2021-09-24 15:42:26.798389,-252
2021-09-24 15:42:26.798395,-340
2021-09-24 15:42:26.798402,-160
2021-09-24 15:42:26.798408,238
2021-09-24 15:42:26.798415,553
2021-09-24 15:42:26.798422,500
2021-09-24 15:42:26.798428,182
2021-09-24 15:42:26.798435,31
2021-09-24 15:42:26.798441,38
2021-09-24 15:42:26.798448,-43
2021-09-24 15:42:26.798454,-116
2021-09-24 15:42:26.798461,-104
2021-09-24 15:42:26.798467,-109
2021-09-24 15:42:26.798474,-133
2021-09-24 15:42:27.023398,-131
2021-09-24 15:42:27.023421,-126
2021-09-24 15:42:27.023429,-138
2021-09-24 15:42:27.023436,-153
2021-09-24 15:42:27.023442,-162
2021-09-24 15:42:27.023449,-172
2021-09-24 15:42:27.023455,-182
2021-09-24 15:42:27.023462,-191
2021-09-24 15:42:27.023468,-201
2021-09-24 15:42:27.023475,-218
2021-09-24 15:42:27.023482,-250
2021-09-24 15:42:27.023488,-289
2021-09-24 15:42:27.023495,-315
2021-09-24 15:42:27.023501,-335
2021-09-24 15:42:27.023507,-364
2021-09-24 15:42:27.023514,-393
2021-09-24 15:42:27.023520,-408
2021-09-24 15:42:27.023527,-405
2021-09-24 15:42:27.023533,-393
2021-09-24 15:42:27.023540,-361
2021-09-24 15:42:27.023546,-303
2021-09-24 15:42:27.023554,-218
2021-09-24 15:42:27.023564,-109
2021-09-24 15:42:27.023571,-9
2021-09-24 15:42:27.023577,65
2021-09-24 15:42:27.023584,123
2021-09-24 15:42:27.023590,165
2021-09-24 15:42:27.023597,189
2021-09-24 15:42:27.023608,196
2021-09-24 15:42:27.023615,201
2021-09-24 15:42:27.249117,208
2021-09-24 15:42:27.249174,208
2021-09-24 15:42:27.249187,201
2021-09-24 15:42:27.249195,184
2021-09-24 15:42:27.249204,170
2021-09-24 15:42:27.249212,167
2021-09-24 15:42:27.249220,167
2021-09-24 15:42:27.249228,155
2021-09-24 15:42:27.249236,145
2021-09-24 15:42:27.249244,138
2021-09-24 15:42:27.249252,119
2021-09-24 15:42:27.249260,102
2021-09-24 15:42:27.249268,102
2021-09-24 15:42:27.249277,104
2021-09-24 15:42:27.249284,89
2021-09-24 15:42:27.249293,82
2021-09-24 15:42:27.249300,82
2021-09-24 15:42:27.249309,82
2021-09-24 15:42:27.249317,80
2021-09-24 15:42:27.249324,72
2021-09-24 15:42:27.249333,63
2021-09-24 15:42:27.249341,55
2021-09-24 15:42:27.249349,58
2021-09-24 15:42:27.249358,63
2021-09-24 15:42:27.249366,65
2021-09-24 15:42:27.249374,65
2021-09-24 15:42:27.249383,63
2021-09-24 15:42:27.249391,55
2021-09-24 15:42:27.249399,53
2021-09-24 15:42:27.249407,58
2021-09-24 15:42:27.518478,60
2021-09-24 15:42:27.518503,58
2021-09-24 15:42:27.518512,46
2021-09-24 15:42:27.518520,34
2021-09-24 15:42:27.518527,26
2021-09-24 15:42:27.518534,24
2021-09-24 15:42:27.518541,14
2021-09-24 15:42:27.518548,19
2021-09-24 15:42:27.518555,34
2021-09-24 15:42:27.518562,31
2021-09-24 15:42:27.518569,29
2021-09-24 15:42:27.518576,43
2021-09-24 15:42:27.518583,46
2021-09-24 15:42:27.518590,38
2021-09-24 15:42:27.518598,41
2021-09-24 15:42:27.518605,41
2021-09-24 15:42:27.518612,36
2021-09-24 15:42:27.518619,29
2021-09-24 15:42:27.518626,-2
2021-09-24 15:42:27.518633,-53
2021-09-24 15:42:27.518640,-136
2021-09-24 15:42:27.518647,-274
2021-09-24 15:42:27.518654,-308
2021-09-24 15:42:27.518661,-43
2021-09-24 15:42:27.518669,374
2021-09-24 15:42:27.518676,597
2021-09-24 15:42:27.518683,439
2021-09-24 15:42:27.518690,150
2021-09-24 15:42:27.518697,68
2021-09-24 15:42:27.518704,55
2021-09-24 15:42:27.788569,-48
2021-09-24 15:42:27.788613,-99
2021-09-24 15:42:27.788624,-80
2021-09-24 15:42:27.788631,-92
2021-09-24 15:42:27.788639,-114
2021-09-24 15:42:27.788646,-111
2021-09-24 15:42:27.788653,-114
2021-09-24 15:42:27.788660,-121
2021-09-24 15:42:27.788666,-133
2021-09-24 15:42:27.788673,-150
2021-09-24 15:42:27.788680,-160
2021-09-24 15:42:27.788687,-165
2021-09-24 15:42:27.788694,-177
2021-09-24 15:42:27.788700,-194
2021-09-24 15:42:27.788707,-218
2021-09-24 15:42:27.788714,-247
2021-09-24 15:42:27.788721,-272
2021-09-24 15:42:27.788728,-293
2021-09-24 15:42:27.788740,-323
2021-09-24 15:42:27.788750,-352
2021-09-24 15:42:27.788757,-374
2021-09-24 15:42:27.788764,-383
2021-09-24 15:42:27.788771,-378
2021-09-24 15:42:27.788778,-359
2021-09-24 15:42:27.788784,-315
2021-09-24 15:42:27.788791,-238
2021-09-24 15:42:27.788797,-136
2021-09-24 15:42:27.788804,-41
2021-09-24 15:42:27.788811,41
2021-09-24 15:42:27.788818,111
2021-09-24 15:42:28.057024,170
2021-09-24 15:42:28.057046,199
2021-09-24 15:42:28.057054,201
2021-09-24 15:42:28.057061,196
2021-09-24 15:42:28.057067,196
2021-09-24 15:42:28.057074,196
2021-09-24 15:42:28.057080,196
2021-09-24 15:42:28.057087,187
2021-09-24 15:42:28.057093,174
2021-09-24 15:42:28.057100,167
2021-09-24 15:42:28.057106,165
2021-09-24 15:42:28.057113,162
2021-09-24 15:42:28.057119,155
2021-09-24 15:42:28.057126,148
2021-09-24 15:42:28.057132,138
2021-09-24 15:42:28.057139,126
2021-09-24 15:42:28.057145,126
2021-09-24 15:42:28.057152,123
2021-09-24 15:42:28.057158,111
2021-09-24 15:42:28.057165,102
2021-09-24 15:42:28.057171,94
2021-09-24 15:42:28.057178,87
2021-09-24 15:42:28.057185,82
2021-09-24 15:42:28.057191,85
2021-09-24 15:42:28.057198,87
2021-09-24 15:42:28.057204,85
2021-09-24 15:42:28.057211,77
2021-09-24 15:42:28.057217,77
2021-09-24 15:42:28.057224,82
2021-09-24 15:42:28.057230,85
2021-09-24 15:42:28.237697,85
2021-09-24 15:42:28.237720,82
2021-09-24 15:42:28.237730,75
2021-09-24 15:42:28.237739,68
2021-09-24 15:42:28.237746,68
2021-09-24 15:42:28.237753,72
2021-09-24 15:42:28.237761,72
2021-09-24 15:42:28.237768,63
2021-09-24 15:42:28.237776,51
2021-09-24 15:42:28.237782,41
2021-09-24 15:42:28.237789,38
2021-09-24 15:42:28.237796,34
2021-09-24 15:42:28.237804,26
2021-09-24 15:42:28.237811,17
2021-09-24 15:42:28.237818,24
2021-09-24 15:42:28.237825,41
2021-09-24 15:42:28.237832,48
2021-09-24 15:42:28.237839,46
2021-09-24 15:42:28.237845,43
2021-09-24 15:42:28.237852,41
2021-09-24 15:42:28.237860,36
2021-09-24 15:42:28.237867,31
2021-09-24 15:42:28.237873,26
2021-09-24 15:42:28.237880,24
2021-09-24 15:42:28.237886,-7
2021-09-24 15:42:28.237893,-70
2021-09-24 15:42:28.237900,-157
2021-09-24 15:42:28.237908,-301
2021-09-24 15:42:28.237915,-347
2021-09-24 15:42:28.237922,-89
2021-09-24 15:42:28.418487,308
2021-09-24 15:42:28.418510,546
2021-09-24 15:42:28.418518,456
2021-09-24 15:42:28.418525,170
2021-09-24 15:42:28.418531,48
2021-09-24 15:42:28.418538,46
2021-09-24 15:42:28.418544,-55
2021-09-24 15:42:28.418551,-131
2021-09-24 15:42:28.418557,-116
2021-09-24 15:42:28.418564,-123
2021-09-24 15:42:28.418570,-148
2021-09-24 15:42:28.418577,-145
2021-09-24 15:42:28.418583,-150
2021-09-24 15:42:28.418590,-157
2021-09-24 15:42:28.418596,-162
2021-09-24 15:42:28.418602,-170
2021-09-24 15:42:28.418609,-177
2021-09-24 15:42:28.418615,-184
2021-09-24 15:42:28.418622,-199
2021-09-24 15:42:28.418628,-216
2021-09-24 15:42:28.418635,-235
2021-09-24 15:42:28.418641,-252
2021-09-24 15:42:28.418648,-274
2021-09-24 15:42:28.418654,-301
2021-09-24 15:42:28.418660,-335
2021-09-24 15:42:28.418667,-364
2021-09-24 15:42:28.418673,-381
2021-09-24 15:42:28.418680,-393
2021-09-24 15:42:28.418686,-391
2021-09-24 15:42:28.418692,-371
2021-09-24 15:42:28.643373,-335
2021-09-24 15:42:28.643398,-272
2021-09-24 15:42:28.643407,-170
2021-09-24 15:42:28.643414,-63
2021-09-24 15:42:28.643421,24
2021-09-24 15:42:28.643428,92
2021-09-24 15:42:28.643437,145
2021-09-24 15:42:28.643444,177
2021-09-24 15:42:28.643451,189
2021-09-24 15:42:28.643458,196
2021-09-24 15:42:28.643465,199
2021-09-24 15:42:28.643472,196
2021-09-24 15:42:28.643479,187
2021-09-24 15:42:28.643486,184
2021-09-24 15:42:28.643493,184
2021-09-24 15:42:28.643500,179
2021-09-24 15:42:28.643507,174
2021-09-24 15:42:28.643514,167
2021-09-24 15:42:28.643520,160
2021-09-24 15:42:28.643527,150
2021-09-24 15:42:28.643534,145
2021-09-24 15:42:28.643541,138
2021-09-24 15:42:28.643548,133
2021-09-24 15:42:28.643555,123
2021-09-24 15:42:28.643562,116
2021-09-24 15:42:28.643569,119
2021-09-24 15:42:28.643576,114
2021-09-24 15:42:28.643583,106
2021-09-24 15:42:28.643590,102
2021-09-24 15:42:28.643597,97
2021-09-24 15:42:28.868429,92
2021-09-24 15:42:28.868453,92
2021-09-24 15:42:28.868461,89
2021-09-24 15:42:28.868467,87
2021-09-24 15:42:28.868474,89
2021-09-24 15:42:28.868502,77
2021-09-24 15:42:28.868509,72
2021-09-24 15:42:28.868516,82
2021-09-24 15:42:28.868523,87
2021-09-24 15:42:28.868529,80
2021-09-24 15:42:28.868536,65
2021-09-24 15:42:28.868543,58
2021-09-24 15:42:28.868549,63
2021-09-24 15:42:28.868556,63
2021-09-24 15:42:28.868562,53
2021-09-24 15:42:28.868569,55
2021-09-24 15:42:28.868576,65
2021-09-24 15:42:28.868582,60
2021-09-24 15:42:28.868589,51
2021-09-24 15:42:28.868595,58
2021-09-24 15:42:28.868602,53
2021-09-24 15:42:28.868609,34
2021-09-24 15:42:28.868615,24
2021-09-24 15:42:28.868622,24
2021-09-24 15:42:28.868628,41
2021-09-24 15:42:28.868635,58
2021-09-24 15:42:28.868641,60
2021-09-24 15:42:28.868648,55
2021-09-24 15:42:28.868655,53
2021-09-24 15:42:28.868661,53
2021-09-24 15:42:29.093436,55
2021-09-24 15:42:29.093459,55
2021-09-24 15:42:29.093467,53
2021-09-24 15:42:29.093474,38
2021-09-24 15:42:29.093481,-2
2021-09-24 15:42:29.093487,-68
2021-09-24 15:42:29.093493,-160
2021-09-24 15:42:29.093500,-303
2021-09-24 15:42:29.093506,-310
2021-09-24 15:42:29.093513,-26
2021-09-24 15:42:29.093520,344
2021-09-24 15:42:29.093526,539
2021-09-24 15:42:29.093532,405
2021-09-24 15:42:29.093539,119
2021-09-24 15:42:29.093546,31
2021-09-24 15:42:29.093552,21
2021-09-24 15:42:29.093559,-82
2021-09-24 15:42:29.093565,-123
2021-09-24 15:42:29.093572,-97
2021-09-24 15:42:29.093578,-106
2021-09-24 15:42:29.093585,-131
2021-09-24 15:42:29.093591,-131
2021-09-24 15:42:29.093598,-136
2021-09-24 15:42:29.093604,-148
2021-09-24 15:42:29.093611,-145
2021-09-24 15:42:29.093617,-145
2021-09-24 15:42:29.093624,-160
2021-09-24 15:42:29.093630,-172
2021-09-24 15:42:29.093637,-179
2021-09-24 15:42:29.093643,-191
2021-09-24 15:42:29.363446,-206
2021-09-24 15:42:29.363469,-223
2021-09-24 15:42:29.363477,-250
2021-09-24 15:42:29.363484,-284
2021-09-24 15:42:29.363490,-315
2021-09-24 15:42:29.363497,-335
2021-09-24 15:42:29.363503,-349
2021-09-24 15:42:29.363509,-359
2021-09-24 15:42:29.363516,-361
2021-09-24 15:42:29.363522,-354
2021-09-24 15:42:29.363529,-323
2021-09-24 15:42:29.363535,-250
2021-09-24 15:42:29.363541,-153
2021-09-24 15:42:29.363548,-55
2021-09-24 15:42:29.363554,26
2021-09-24 15:42:29.363561,89
2021-09-24 15:42:29.363567,140
2021-09-24 15:42:29.363573,177
2021-09-24 15:42:29.363580,191
2021-09-24 15:42:29.363586,189
2021-09-24 15:42:29.363593,187
2021-09-24 15:42:29.363599,187
2021-09-24 15:42:29.363605,187
2021-09-24 15:42:29.363612,187
2021-09-24 15:42:29.363618,187
2021-09-24 15:42:29.363624,182
2021-09-24 15:42:29.363631,174
2021-09-24 15:42:29.363637,165
2021-09-24 15:42:29.363644,160
2021-09-24 15:42:29.363650,160
2021-09-24 15:42:29.588433,155
2021-09-24 15:42:29.588456,150
2021-09-24 15:42:29.588464,143
2021-09-24 15:42:29.588471,133
2021-09-24 15:42:29.588477,128
2021-09-24 15:42:29.588484,123
2021-09-24 15:42:29.588491,121
2021-09-24 15:42:29.588497,114
2021-09-24 15:42:29.588504,104
2021-09-24 15:42:29.588510,94
2021-09-24 15:42:29.588517,92
2021-09-24 15:42:29.588523,99
2021-09-24 15:42:29.588530,104
2021-09-24 15:42:29.588536,104
2021-09-24 15:42:29.588543,97
2021-09-24 15:42:29.588549,85
2021-09-24 15:42:29.588556,82
2021-09-24 15:42:29.588562,85
2021-09-24 15:42:29.588569,87
2021-09-24 15:42:29.588575,87
2021-09-24 15:42:29.588582,85
2021-09-24 15:42:29.588588,75
2021-09-24 15:42:29.588595,75
2021-09-24 15:42:29.588601,82
2021-09-24 15:42:29.588608,89
2021-09-24 15:42:29.588615,92
2021-09-24 15:42:29.588621,87
2021-09-24 15:42:29.588628,80
2021-09-24 15:42:29.588634,80
2021-09-24 15:42:29.588641,85
2021-09-24 15:42:29.813472,82
2021-09-24 15:42:29.813494,77
2021-09-24 15:42:29.813502,75
2021-09-24 15:42:29.813509,80
2021-09-24 15:42:29.813516,82
2021-09-24 15:42:29.813522,80
2021-09-24 15:42:29.813528,72
2021-09-24 15:42:29.813535,63
2021-09-24 15:42:29.813541,48
2021-09-24 15:42:29.813548,34
2021-09-24 15:42:29.813555,26
2021-09-24 15:42:29.813561,29
2021-09-24 15:42:29.813567,38
2021-09-24 15:42:29.813574,53
2021-09-24 15:42:29.813581,53
2021-09-24 15:42:29.813587,46
2021-09-24 15:42:29.813594,41
2021-09-24 15:42:29.813600,41
2021-09-24 15:42:29.813607,36
2021-09-24 15:42:29.813613,31
2021-09-24 15:42:29.813620,29
2021-09-24 15:42:29.813626,29
2021-09-24 15:42:29.813632,7
2021-09-24 15:42:29.813639,-46
2021-09-24 15:42:29.813645,-136
2021-09-24 15:42:29.813652,-272
2021-09-24 15:42:29.813659,-398
2021-09-24 15:42:29.813665,-264
2021-09-24 15:42:29.813672,140
2021-09-24 15:42:29.813678,480
2021-09-24 15:42:30.082802,563
