Time,ECG
2021-10-14 14:47:00.162188,-49
2021-10-14 14:47:00.162210,-41
2021-10-14 14:47:00.162220,-46
2021-10-14 14:47:00.162229,-51
2021-10-14 14:47:00.162237,-76
2021-10-14 14:47:00.162246,-93
2021-10-14 14:47:00.162255,-88
2021-10-14 14:47:00.162263,-80
2021-10-14 14:47:00.162272,-88
2021-10-14 14:47:00.162280,-107
2021-10-14 14:47:00.162289,-103
2021-10-14 14:47:00.162298,-71
2021-10-14 14:47:00.162306,-66
2021-10-14 14:47:00.162315,-76
2021-10-14 14:47:00.162323,-22
2021-10-14 14:47:00.162332,188
2021-10-14 14:47:00.162340,576
2021-10-14 14:47:00.162349,853
2021-10-14 14:47:00.162358,478
2021-10-14 14:47:00.162366,-385
2021-10-14 14:47:00.162375,-581
2021-10-14 14:47:00.162384,-88
2021-10-14 14:47:00.162392,2
2021-10-14 14:47:00.162401,-164
2021-10-14 14:47:00.162409,-51
2021-10-14 14:47:00.162418,24
2021-10-14 14:47:00.162427,-56
2021-10-14 14:47:00.162435,-56
2021-10-14 14:47:00.162444,7
2021-10-14 14:47:00.162452,14
2021-10-14 14:47:00.387592,12
2021-10-14 14:47:00.387614,39
2021-10-14 14:47:00.387624,49
2021-10-14 14:47:00.387633,44
2021-10-14 14:47:00.387641,63
2021-10-14 14:47:00.387650,98
2021-10-14 14:47:00.387658,125
2021-10-14 14:47:00.387667,152
2021-10-14 14:47:00.387675,176
2021-10-14 14:47:00.387684,218
2021-10-14 14:47:00.387692,274
2021-10-14 14:47:00.387701,314
2021-10-14 14:47:00.387709,328
2021-10-14 14:47:00.387718,338
2021-10-14 14:47:00.387727,316
2021-10-14 14:47:00.387735,250
2021-10-14 14:47:00.387743,198
2021-10-14 14:47:00.387752,186
2021-10-14 14:47:00.387760,142
2021-10-14 14:47:00.387769,41
2021-10-14 14:47:00.387777,-44
2021-10-14 14:47:00.387786,-83
2021-10-14 14:47:00.387794,-100
2021-10-14 14:47:00.387802,-112
2021-10-14 14:47:00.387811,-117
2021-10-14 14:47:00.387819,-125
2021-10-14 14:47:00.387828,-144
2021-10-14 14:47:00.387836,-157
2021-10-14 14:47:00.387844,-154
2021-10-14 14:47:00.387853,-154
2021-10-14 14:47:00.612232,-152
2021-10-14 14:47:00.612254,-144
2021-10-14 14:47:00.612263,-127
2021-10-14 14:47:00.612272,-95
2021-10-14 14:47:00.612281,-76
2021-10-14 14:47:00.612290,-71
2021-10-14 14:47:00.612298,-66
2021-10-14 14:47:00.612306,-73
2021-10-14 14:47:00.612315,-103
2021-10-14 14:47:00.612323,-110
2021-10-14 14:47:00.612332,-98
2021-10-14 14:47:00.612340,-100
2021-10-14 14:47:00.612349,-105
2021-10-14 14:47:00.612357,-112
2021-10-14 14:47:00.612365,-120
2021-10-14 14:47:00.612374,-122
2021-10-14 14:47:00.612382,-127
2021-10-14 14:47:00.612391,-134
2021-10-14 14:47:00.612399,-134
2021-10-14 14:47:00.612408,-130
2021-10-14 14:47:00.612416,-137
2021-10-14 14:47:00.612425,-147
2021-10-14 14:47:00.612433,-152
2021-10-14 14:47:00.612441,-152
2021-10-14 14:47:00.612450,-171
2021-10-14 14:47:00.612458,-193
2021-10-14 14:47:00.612467,-181
2021-10-14 14:47:00.612475,-171
2021-10-14 14:47:00.612483,-181
2021-10-14 14:47:00.612492,-174
2021-10-14 14:47:00.927011,-159
2021-10-14 14:47:00.927033,-161
2021-10-14 14:47:00.927043,-171
2021-10-14 14:47:00.927052,-171
2021-10-14 14:47:00.927060,-154
2021-10-14 14:47:00.927069,-122
2021-10-14 14:47:00.927077,-90
2021-10-14 14:47:00.927085,-78
2021-10-14 14:47:00.927094,-71
2021-10-14 14:47:00.927102,-53
2021-10-14 14:47:00.927111,-46
2021-10-14 14:47:00.927119,-73
2021-10-14 14:47:00.927128,-105
2021-10-14 14:47:00.927136,-112
2021-10-14 14:47:00.927145,-107
2021-10-14 14:47:00.927153,-112
2021-10-14 14:47:00.927161,-110
2021-10-14 14:47:00.927170,-95
2021-10-14 14:47:00.927178,-93
2021-10-14 14:47:00.927187,-39
2021-10-14 14:47:00.927195,186
2021-10-14 14:47:00.927204,554
2021-10-14 14:47:00.927212,792
2021-10-14 14:47:00.927221,444
2021-10-14 14:47:00.927229,-385
2021-10-14 14:47:00.927238,-615
2021-10-14 14:47:00.927246,-98
2021-10-14 14:47:00.927255,68
2021-10-14 14:47:00.927263,-110
2021-10-14 14:47:00.927272,-56
2021-10-14 14:47:01.062198,36
2021-10-14 14:47:01.062220,26
2021-10-14 14:47:01.062229,49
2021-10-14 14:47:01.062238,78
2021-10-14 14:47:01.062247,76
2021-10-14 14:47:01.062255,100
2021-10-14 14:47:01.062264,127
2021-10-14 14:47:01.062272,134
2021-10-14 14:47:01.062281,164
2021-10-14 14:47:01.062289,206
2021-10-14 14:47:01.062298,225
2021-10-14 14:47:01.062306,252
2021-10-14 14:47:01.062315,294
2021-10-14 14:47:01.062323,336
2021-10-14 14:47:01.062332,377
2021-10-14 14:47:01.062341,399
2021-10-14 14:47:01.062349,412
2021-10-14 14:47:01.062358,434
2021-10-14 14:47:01.062366,439
2021-10-14 14:47:01.062375,422
2021-10-14 14:47:01.062383,392
2021-10-14 14:47:01.062392,341
2021-10-14 14:47:01.062400,262
2021-10-14 14:47:01.062409,161
2021-10-14 14:47:01.062417,46
2021-10-14 14:47:01.062426,-46
2021-10-14 14:47:01.062434,-103
2021-10-14 14:47:01.062443,-144
2021-10-14 14:47:01.062451,-179
2021-10-14 14:47:01.062459,-198
2021-10-14 14:47:01.287221,-203
2021-10-14 14:47:01.287242,-206
2021-10-14 14:47:01.287251,-211
2021-10-14 14:47:01.287260,-211
2021-10-14 14:47:01.287269,-198
2021-10-14 14:47:01.287277,-193
2021-10-14 14:47:01.287286,-198
2021-10-14 14:47:01.287294,-179
2021-10-14 14:47:01.287303,-154
2021-10-14 14:47:01.287311,-152
2021-10-14 14:47:01.287320,-149
2021-10-14 14:47:01.287328,-142
2021-10-14 14:47:01.287337,-144
2021-10-14 14:47:01.287345,-144
2021-10-14 14:47:01.287354,-134
2021-10-14 14:47:01.287362,-127
2021-10-14 14:47:01.287371,-117
2021-10-14 14:47:01.287379,-105
2021-10-14 14:47:01.287387,-110
2021-10-14 14:47:01.287396,-117
2021-10-14 14:47:01.287404,-110
2021-10-14 14:47:01.287413,-95
2021-10-14 14:47:01.287421,-90
2021-10-14 14:47:01.287429,-103
2021-10-14 14:47:01.287438,-105
2021-10-14 14:47:01.287446,-83
2021-10-14 14:47:01.287454,-78
2021-10-14 14:47:01.287463,-88
2021-10-14 14:47:01.287471,-100
2021-10-14 14:47:01.287480,-105
2021-10-14 14:47:01.512616,-98
2021-10-14 14:47:01.512639,-93
2021-10-14 14:47:01.512648,-95
2021-10-14 14:47:01.512657,-85
2021-10-14 14:47:01.512666,-76
2021-10-14 14:47:01.512675,-83
2021-10-14 14:47:01.512683,-98
2021-10-14 14:47:01.512692,-88
2021-10-14 14:47:01.512700,-46
2021-10-14 14:47:01.512709,-9
2021-10-14 14:47:01.512717,-12
2021-10-14 14:47:01.512726,-24
2021-10-14 14:47:01.512735,-19
2021-10-14 14:47:01.512743,-17
2021-10-14 14:47:01.512751,-34
2021-10-14 14:47:01.512760,-49
2021-10-14 14:47:01.512769,-44
2021-10-14 14:47:01.512777,-36
2021-10-14 14:47:01.512786,-34
2021-10-14 14:47:01.512794,-36
2021-10-14 14:47:01.512803,-44
2021-10-14 14:47:01.512811,-44
2021-10-14 14:47:01.512820,4
2021-10-14 14:47:01.512828,193
2021-10-14 14:47:01.512836,566
2021-10-14 14:47:01.512845,883
2021-10-14 14:47:01.512853,613
2021-10-14 14:47:01.512862,-201
2021-10-14 14:47:01.512871,-468
2021-10-14 14:47:01.512879,-14
2021-10-14 14:47:01.781269,120
2021-10-14 14:47:01.781291,-53
2021-10-14 14:47:01.781300,9
2021-10-14 14:47:01.781309,71
2021-10-14 14:47:01.781318,9
2021-10-14 14:47:01.781327,22
2021-10-14 14:47:01.781335,71
2021-10-14 14:47:01.781344,63
2021-10-14 14:47:01.781352,68
2021-10-14 14:47:01.781361,98
2021-10-14 14:47:01.781369,112
2021-10-14 14:47:01.781378,125
2021-10-14 14:47:01.781386,152
2021-10-14 14:47:01.781395,179
2021-10-14 14:47:01.781403,211
2021-10-14 14:47:01.781411,242
2021-10-14 14:47:01.781420,272
2021-10-14 14:47:01.781428,314
2021-10-14 14:47:01.781437,353
2021-10-14 14:47:01.781445,370
2021-10-14 14:47:01.781453,380
2021-10-14 14:47:01.781462,390
2021-10-14 14:47:01.781470,387
2021-10-14 14:47:01.781478,358
2021-10-14 14:47:01.781487,304
2021-10-14 14:47:01.781495,228
2021-10-14 14:47:01.781504,125
2021-10-14 14:47:01.781512,22
2021-10-14 14:47:01.781520,-56
2021-10-14 14:47:01.781529,-110
2021-10-14 14:47:02.007244,-142
2021-10-14 14:47:02.007266,-161
2021-10-14 14:47:02.007276,-176
2021-10-14 14:47:02.007284,-193
2021-10-14 14:47:02.007293,-208
2021-10-14 14:47:02.007302,-198
2021-10-14 14:47:02.007310,-184
2021-10-14 14:47:02.007319,-181
2021-10-14 14:47:02.007327,-174
2021-10-14 14:47:02.007336,-164
2021-10-14 14:47:02.007344,-157
2021-10-14 14:47:02.007353,-149
2021-10-14 14:47:02.007361,-139
2021-10-14 14:47:02.007370,-127
2021-10-14 14:47:02.007378,-120
2021-10-14 14:47:02.007387,-117
2021-10-14 14:47:02.007395,-107
2021-10-14 14:47:02.007403,-93
2021-10-14 14:47:02.007412,-90
2021-10-14 14:47:02.007420,-85
2021-10-14 14:47:02.007429,-78
2021-10-14 14:47:02.007437,-80
2021-10-14 14:47:02.007446,-90
2021-10-14 14:47:02.007454,-90
2021-10-14 14:47:02.007463,-93
2021-10-14 14:47:02.007471,-95
2021-10-14 14:47:02.007480,-95
2021-10-14 14:47:02.007488,-100
2021-10-14 14:47:02.007496,-95
2021-10-14 14:47:02.007505,-78
2021-10-14 14:47:02.232254,-76
2021-10-14 14:47:02.232274,-78
2021-10-14 14:47:02.232284,-71
2021-10-14 14:47:02.232292,-71
2021-10-14 14:47:02.232301,-80
2021-10-14 14:47:02.232310,-80
2021-10-14 14:47:02.232318,-71
2021-10-14 14:47:02.232327,-66
2021-10-14 14:47:02.232335,-76
2021-10-14 14:47:02.232344,-83
2021-10-14 14:47:02.232352,-71
2021-10-14 14:47:02.232361,-63
2021-10-14 14:47:02.232369,-68
2021-10-14 14:47:02.232378,-63
2021-10-14 14:47:02.232386,-61
2021-10-14 14:47:02.232394,-39
2021-10-14 14:47:02.232403,0
2021-10-14 14:47:02.232412,9
2021-10-14 14:47:02.232420,0
2021-10-14 14:47:02.232428,0
2021-10-14 14:47:02.232437,-9
2021-10-14 14:47:02.232445,-31
2021-10-14 14:47:02.232454,-31
2021-10-14 14:47:02.232462,-24
2021-10-14 14:47:02.232471,-19
2021-10-14 14:47:02.232479,-12
2021-10-14 14:47:02.232488,-12
2021-10-14 14:47:02.232496,-29
2021-10-14 14:47:02.232504,-31
2021-10-14 14:47:02.232513,22
2021-10-14 14:47:02.592277,213
2021-10-14 14:47:02.592300,574
2021-10-14 14:47:02.592309,883
2021-10-14 14:47:02.592318,630
2021-10-14 14:47:02.592326,-188
2021-10-14 14:47:02.592335,-507
2021-10-14 14:47:02.592344,-66
2021-10-14 14:47:02.592352,71
2021-10-14 14:47:02.592360,-127
2021-10-14 14:47:02.592369,-73
2021-10-14 14:47:02.592377,2
2021-10-14 14:47:02.592386,-51
2021-10-14 14:47:02.592394,-31
2021-10-14 14:47:02.592403,19
2021-10-14 14:47:02.592412,4
2021-10-14 14:47:02.592420,7
2021-10-14 14:47:02.592429,49
2021-10-14 14:47:02.592437,68
2021-10-14 14:47:02.592445,83
2021-10-14 14:47:02.592454,110
2021-10-14 14:47:02.592462,132
2021-10-14 14:47:02.592471,157
2021-10-14 14:47:02.592479,198
2021-10-14 14:47:02.592487,245
2021-10-14 14:47:02.592496,289
2021-10-14 14:47:02.592504,323
2021-10-14 14:47:02.592512,345
2021-10-14 14:47:02.592521,353
2021-10-14 14:47:02.592529,360
2021-10-14 14:47:02.592538,360
2021-10-14 14:47:02.727565,331
2021-10-14 14:47:02.727586,272
2021-10-14 14:47:02.727596,196
2021-10-14 14:47:02.727604,95
2021-10-14 14:47:02.727613,-2
2021-10-14 14:47:02.727622,-71
2021-10-14 14:47:02.727630,-130
2021-10-14 14:47:02.727639,-179
2021-10-14 14:47:02.727647,-208
2021-10-14 14:47:02.727656,-223
2021-10-14 14:47:02.727664,-233
2021-10-14 14:47:02.727673,-223
2021-10-14 14:47:02.727681,-208
2021-10-14 14:47:02.727690,-213
2021-10-14 14:47:02.727698,-218
2021-10-14 14:47:02.727707,-201
2021-10-14 14:47:02.727715,-179
2021-10-14 14:47:02.727724,-174
2021-10-14 14:47:02.727732,-184
2021-10-14 14:47:02.727741,-181
2021-10-14 14:47:02.727749,-169
2021-10-14 14:47:02.727757,-164
2021-10-14 14:47:02.727766,-157
2021-10-14 14:47:02.727774,-152
2021-10-14 14:47:02.727783,-157
2021-10-14 14:47:02.727791,-147
2021-10-14 14:47:02.727799,-134
2021-10-14 14:47:02.727808,-137
2021-10-14 14:47:02.727816,-137
2021-10-14 14:47:02.727825,-132
2021-10-14 14:47:02.997036,-142
2021-10-14 14:47:02.997059,-149
2021-10-14 14:47:02.997068,-144
2021-10-14 14:47:02.997077,-144
2021-10-14 14:47:02.997086,-139
2021-10-14 14:47:02.997094,-125
2021-10-14 14:47:02.997103,-117
2021-10-14 14:47:02.997112,-120
2021-10-14 14:47:02.997120,-122
2021-10-14 14:47:02.997129,-125
2021-10-14 14:47:02.997137,-125
2021-10-14 14:47:02.997146,-125
2021-10-14 14:47:02.997154,-120
2021-10-14 14:47:02.997162,-127
2021-10-14 14:47:02.997171,-139
2021-10-14 14:47:02.997179,-139
2021-10-14 14:47:02.997188,-115
2021-10-14 14:47:02.997196,-78
2021-10-14 14:47:02.997205,-61
2021-10-14 14:47:02.997213,-63
2021-10-14 14:47:02.997221,-63
2021-10-14 14:47:02.997230,-73
2021-10-14 14:47:02.997238,-90
2021-10-14 14:47:02.997247,-98
2021-10-14 14:47:02.997255,-98
2021-10-14 14:47:02.997263,-88
2021-10-14 14:47:02.997272,-83
2021-10-14 14:47:02.997280,-83
2021-10-14 14:47:02.997289,-85
2021-10-14 14:47:02.997297,-88
2021-10-14 14:47:03.132400,-80
2021-10-14 14:47:03.132421,-14
2021-10-14 14:47:03.132430,206
2021-10-14 14:47:03.132439,574
2021-10-14 14:47:03.132448,792
2021-10-14 14:47:03.132456,355
2021-10-14 14:47:03.132465,-480
2021-10-14 14:47:03.132473,-571
2021-10-14 14:47:03.132482,-46
2021-10-14 14:47:03.132490,12
2021-10-14 14:47:03.132499,-147
2021-10-14 14:47:03.132507,-44
2021-10-14 14:47:03.132516,0
2021-10-14 14:47:03.132524,-61
2021-10-14 14:47:03.132533,-24
2021-10-14 14:47:03.132541,24
2021-10-14 14:47:03.132549,19
2021-10-14 14:47:03.132558,26
2021-10-14 14:47:03.132566,53
2021-10-14 14:47:03.132575,78
2021-10-14 14:47:03.132583,100
2021-10-14 14:47:03.132592,130
2021-10-14 14:47:03.132600,166
2021-10-14 14:47:03.132609,203
2021-10-14 14:47:03.132617,240
2021-10-14 14:47:03.132626,287
2021-10-14 14:47:03.132634,336
2021-10-14 14:47:03.132642,377
2021-10-14 14:47:03.132651,404
2021-10-14 14:47:03.132659,422
2021-10-14 14:47:03.447294,424
2021-10-14 14:47:03.447316,409
2021-10-14 14:47:03.447326,372
2021-10-14 14:47:03.447335,301
2021-10-14 14:47:03.447343,198
2021-10-14 14:47:03.447352,83
2021-10-14 14:47:03.447361,-12
2021-10-14 14:47:03.447369,-88
2021-10-14 14:47:03.447378,-149
2021-10-14 14:47:03.447387,-184
2021-10-14 14:47:03.447395,-198
2021-10-14 14:47:03.447404,-215
2021-10-14 14:47:03.447412,-218
2021-10-14 14:47:03.447421,-206
2021-10-14 14:47:03.447430,-211
2021-10-14 14:47:03.447438,-215
2021-10-14 14:47:03.447446,-201
2021-10-14 14:47:03.447455,-186
2021-10-14 14:47:03.447463,-179
2021-10-14 14:47:03.447472,-164
2021-10-14 14:47:03.447480,-157
2021-10-14 14:47:03.447489,-152
2021-10-14 14:47:03.447498,-137
2021-10-14 14:47:03.447506,-130
2021-10-14 14:47:03.447515,-130
2021-10-14 14:47:03.447524,-115
2021-10-14 14:47:03.447532,-107
2021-10-14 14:47:03.447541,-110
2021-10-14 14:47:03.447549,-100
2021-10-14 14:47:03.447558,-93
2021-10-14 14:47:03.582583,-95
2021-10-14 14:47:03.582604,-98
2021-10-14 14:47:03.582613,-95
2021-10-14 14:47:03.582622,-90
2021-10-14 14:47:03.582631,-95
2021-10-14 14:47:03.582640,-105
2021-10-14 14:47:03.582648,-95
2021-10-14 14:47:03.582657,-83
2021-10-14 14:47:03.582666,-80
2021-10-14 14:47:03.582674,-78
2021-10-14 14:47:03.582683,-83
2021-10-14 14:47:03.582691,-100
2021-10-14 14:47:03.582700,-112
2021-10-14 14:47:03.582709,-105
2021-10-14 14:47:03.582717,-83
2021-10-14 14:47:03.582725,-53
2021-10-14 14:47:03.582734,-46
2021-10-14 14:47:03.582742,-58
2021-10-14 14:47:03.582751,-46
2021-10-14 14:47:03.582759,-39
2021-10-14 14:47:03.582767,-71
2021-10-14 14:47:03.582776,-93
2021-10-14 14:47:03.582784,-85
2021-10-14 14:47:03.582792,-68
2021-10-14 14:47:03.582801,-56
2021-10-14 14:47:03.582809,-51
2021-10-14 14:47:03.582818,-49
2021-10-14 14:47:03.582826,-51
2021-10-14 14:47:03.582834,-51
2021-10-14 14:47:03.582843,2
2021-10-14 14:47:03.850942,203
2021-10-14 14:47:03.850964,581
2021-10-14 14:47:03.850974,888
2021-10-14 14:47:03.850983,601
2021-10-14 14:47:03.850992,-208
2021-10-14 14:47:03.851000,-471
2021-10-14 14:47:03.851009,-26
2021-10-14 14:47:03.851017,88
2021-10-14 14:47:03.851026,-98
2021-10-14 14:47:03.851052,-53
2021-10-14 14:47:03.851061,7
2021-10-14 14:47:03.851069,-36
2021-10-14 14:47:03.851078,-12
2021-10-14 14:47:03.851086,34
2021-10-14 14:47:03.851095,22
2021-10-14 14:47:03.851103,22
2021-10-14 14:47:03.851112,58
2021-10-14 14:47:03.851120,83
2021-10-14 14:47:03.851129,93
2021-10-14 14:47:03.851137,117
2021-10-14 14:47:03.851146,159
2021-10-14 14:47:03.851154,191
2021-10-14 14:47:03.851163,230
2021-10-14 14:47:03.851171,287
2021-10-14 14:47:03.851180,333
2021-10-14 14:47:03.851188,360
2021-10-14 14:47:03.851196,382
2021-10-14 14:47:03.851204,395
2021-10-14 14:47:03.851213,402
2021-10-14 14:47:03.851221,402
2021-10-14 14:47:04.077174,377
2021-10-14 14:47:04.077196,321
2021-10-14 14:47:04.077205,225
2021-10-14 14:47:04.077214,107
2021-10-14 14:47:04.077223,17
2021-10-14 14:47:04.077231,-44
2021-10-14 14:47:04.077240,-105
2021-10-14 14:47:04.077248,-144
2021-10-14 14:47:04.077257,-161
2021-10-14 14:47:04.077265,-176
2021-10-14 14:47:04.077274,-181
2021-10-14 14:47:04.077282,-166
2021-10-14 14:47:04.077291,-157
2021-10-14 14:47:04.077299,-157
2021-10-14 14:47:04.077308,-152
2021-10-14 14:47:04.077317,-139
2021-10-14 14:47:04.077325,-134
2021-10-14 14:47:04.077334,-142
2021-10-14 14:47:04.077342,-144
2021-10-14 14:47:04.077351,-130
2021-10-14 14:47:04.077359,-115
2021-10-14 14:47:04.077368,-110
2021-10-14 14:47:04.077376,-103
2021-10-14 14:47:04.077385,-90
2021-10-14 14:47:04.077393,-83
2021-10-14 14:47:04.077402,-80
2021-10-14 14:47:04.077411,-85
2021-10-14 14:47:04.077420,-95
2021-10-14 14:47:04.077428,-83
2021-10-14 14:47:04.077437,-71
2021-10-14 14:47:04.302637,-73
2021-10-14 14:47:04.302658,-73
2021-10-14 14:47:04.302667,-71
2021-10-14 14:47:04.302676,-71
2021-10-14 14:47:04.302685,-68
2021-10-14 14:47:04.302693,-66
2021-10-14 14:47:04.302702,-68
2021-10-14 14:47:04.302710,-71
2021-10-14 14:47:04.302719,-73
2021-10-14 14:47:04.302728,-73
2021-10-14 14:47:04.302736,-78
2021-10-14 14:47:04.302745,-83
2021-10-14 14:47:04.302753,-76
2021-10-14 14:47:04.302762,-49
2021-10-14 14:47:04.302770,-19
2021-10-14 14:47:04.302778,-9
2021-10-14 14:47:04.302787,-17
2021-10-14 14:47:04.302795,-29
2021-10-14 14:47:04.302803,-44
2021-10-14 14:47:04.302811,-51
2021-10-14 14:47:04.302820,-51
2021-10-14 14:47:04.302828,-51
2021-10-14 14:47:04.302836,-53
2021-10-14 14:47:04.302845,-53
2021-10-14 14:47:04.302853,-51
2021-10-14 14:47:04.302862,-56
2021-10-14 14:47:04.302870,-56
2021-10-14 14:47:04.302879,14
2021-10-14 14:47:04.302887,240
2021-10-14 14:47:04.302896,630
2021-10-14 14:47:04.571682,922
2021-10-14 14:47:04.571704,603
2021-10-14 14:47:04.571713,-203
2021-10-14 14:47:04.571722,-414
2021-10-14 14:47:04.571731,22
2021-10-14 14:47:04.571739,88
2021-10-14 14:47:04.571748,-98
2021-10-14 14:47:04.571757,-29
2021-10-14 14:47:04.571765,31
2021-10-14 14:47:04.571774,-17
2021-10-14 14:47:04.571783,4
2021-10-14 14:47:04.571791,46
2021-10-14 14:47:04.571800,31
2021-10-14 14:47:04.571808,26
2021-10-14 14:47:04.571817,51
2021-10-14 14:47:04.571825,68
2021-10-14 14:47:04.571833,90
2021-10-14 14:47:04.571842,120
2021-10-14 14:47:04.571850,147
2021-10-14 14:47:04.571859,179
2021-10-14 14:47:04.571867,220
2021-10-14 14:47:04.571875,260
2021-10-14 14:47:04.571884,287
2021-10-14 14:47:04.571892,321
2021-10-14 14:47:04.571901,355
2021-10-14 14:47:04.571909,365
2021-10-14 14:47:04.571917,360
2021-10-14 14:47:04.571926,355
2021-10-14 14:47:04.571934,328
2021-10-14 14:47:04.571943,269
2021-10-14 14:47:04.752649,186
2021-10-14 14:47:04.752672,88
2021-10-14 14:47:04.752681,2
2021-10-14 14:47:04.752690,-73
2021-10-14 14:47:04.752699,-122
2021-10-14 14:47:04.752707,-144
2021-10-14 14:47:04.752716,-166
2021-10-14 14:47:04.752725,-186
2021-10-14 14:47:04.752733,-176
2021-10-14 14:47:04.752742,-171
2021-10-14 14:47:04.752750,-181
2021-10-14 14:47:04.752759,-179
2021-10-14 14:47:04.752767,-171
2021-10-14 14:47:04.752776,-166
2021-10-14 14:47:04.752784,-157
2021-10-14 14:47:04.752793,-147
2021-10-14 14:47:04.752801,-139
2021-10-14 14:47:04.752810,-132
2021-10-14 14:47:04.752818,-130
2021-10-14 14:47:04.752827,-125
2021-10-14 14:47:04.752835,-115
2021-10-14 14:47:04.752844,-115
2021-10-14 14:47:04.752852,-107
2021-10-14 14:47:04.752861,-98
2021-10-14 14:47:04.752869,-100
2021-10-14 14:47:04.752877,-103
2021-10-14 14:47:04.752886,-103
2021-10-14 14:47:04.752894,-112
2021-10-14 14:47:04.752903,-107
2021-10-14 14:47:04.752911,-93
2021-10-14 14:47:04.977289,-100
2021-10-14 14:47:04.977312,-107
2021-10-14 14:47:04.977322,-103
2021-10-14 14:47:04.977331,-100
2021-10-14 14:47:04.977339,-95
2021-10-14 14:47:04.977348,-93
2021-10-14 14:47:04.977356,-100
2021-10-14 14:47:04.977364,-105
2021-10-14 14:47:04.977373,-100
2021-10-14 14:47:04.977381,-103
2021-10-14 14:47:04.977390,-93
2021-10-14 14:47:04.977398,-56
2021-10-14 14:47:04.977407,-24
2021-10-14 14:47:04.977415,-17
2021-10-14 14:47:04.977423,-17
2021-10-14 14:47:04.977432,-24
2021-10-14 14:47:04.977606,-49
2021-10-14 14:47:04.977617,-71
2021-10-14 14:47:04.977626,-73
2021-10-14 14:47:04.977634,-61
2021-10-14 14:47:04.977642,-46
2021-10-14 14:47:04.977651,-41
2021-10-14 14:47:04.977659,-41
2021-10-14 14:47:04.977667,-44
2021-10-14 14:47:04.977676,-39
2021-10-14 14:47:04.977684,19
2021-10-14 14:47:04.977693,228
2021-10-14 14:47:04.977701,586
2021-10-14 14:47:04.977710,853
2021-10-14 14:47:04.977718,566
2021-10-14 14:47:05.202657,-206
2021-10-14 14:47:05.202680,-461
2021-10-14 14:47:05.202689,-44
2021-10-14 14:47:05.202698,76
2021-10-14 14:47:05.202707,-88
2021-10-14 14:47:05.202715,-39
2021-10-14 14:47:05.202724,22
2021-10-14 14:47:05.202732,-14
2021-10-14 14:47:05.202740,-2
2021-10-14 14:47:05.202749,24
2021-10-14 14:47:05.202757,17
2021-10-14 14:47:05.202766,22
2021-10-14 14:47:05.202774,46
2021-10-14 14:47:05.202783,68
2021-10-14 14:47:05.202791,85
2021-10-14 14:47:05.202800,100
2021-10-14 14:47:05.202808,115
2021-10-14 14:47:05.202816,139
2021-10-14 14:47:05.202825,188
2021-10-14 14:47:05.202833,240
2021-10-14 14:47:05.202842,282
2021-10-14 14:47:05.202850,311
2021-10-14 14:47:05.202858,328
2021-10-14 14:47:05.202866,338
2021-10-14 14:47:05.202875,345
2021-10-14 14:47:05.202883,343
2021-10-14 14:47:05.202892,318
2021-10-14 14:47:05.202900,267
2021-10-14 14:47:05.202908,188
2021-10-14 14:47:05.202917,103
2021-10-14 14:47:05.427667,9
2021-10-14 14:47:05.427690,-85
2021-10-14 14:47:05.427699,-159
2021-10-14 14:47:05.427708,-193
2021-10-14 14:47:05.427717,-211
2021-10-14 14:47:05.427725,-225
2021-10-14 14:47:05.427733,-228
2021-10-14 14:47:05.427742,-223
2021-10-14 14:47:05.427750,-220
2021-10-14 14:47:05.427759,-215
2021-10-14 14:47:05.427767,-203
2021-10-14 14:47:05.427776,-193
2021-10-14 14:47:05.427784,-176
2021-10-14 14:47:05.427792,-154
2021-10-14 14:47:05.427801,-149
2021-10-14 14:47:05.427809,-152
2021-10-14 14:47:05.427818,-149
2021-10-14 14:47:05.427826,-139
2021-10-14 14:47:05.427835,-137
2021-10-14 14:47:05.427843,-132
2021-10-14 14:47:05.427852,-125
2021-10-14 14:47:05.427860,-122
2021-10-14 14:47:05.427869,-122
2021-10-14 14:47:05.427877,-117
2021-10-14 14:47:05.427886,-117
2021-10-14 14:47:05.427894,-115
2021-10-14 14:47:05.427902,-105
2021-10-14 14:47:05.427911,-107
2021-10-14 14:47:05.427919,-117
2021-10-14 14:47:05.427928,-115
2021-10-14 14:47:05.652676,-110
2021-10-14 14:47:05.652697,-115
2021-10-14 14:47:05.652707,-127
2021-10-14 14:47:05.652715,-142
2021-10-14 14:47:05.652724,-144
2021-10-14 14:47:05.652733,-127
2021-10-14 14:47:05.652741,-115
2021-10-14 14:47:05.652750,-127
2021-10-14 14:47:05.652758,-142
2021-10-14 14:47:05.652767,-149
2021-10-14 14:47:05.652775,-142
2021-10-14 14:47:05.652784,-103
2021-10-14 14:47:05.652792,-71
2021-10-14 14:47:05.652801,-71
2021-10-14 14:47:05.652810,-76
2021-10-14 14:47:05.652818,-83
2021-10-14 14:47:05.652827,-107
2021-10-14 14:47:05.652835,-120
2021-10-14 14:47:05.652844,-100
2021-10-14 14:47:05.652852,-83
2021-10-14 14:47:05.652860,-90
2021-10-14 14:47:05.652869,-93
2021-10-14 14:47:05.652877,-78
2021-10-14 14:47:05.652886,-78
2021-10-14 14:47:05.652894,-85
2021-10-14 14:47:05.652903,-12
2021-10-14 14:47:05.652911,240
2021-10-14 14:47:05.652920,625
2021-10-14 14:47:05.652928,821
2021-10-14 14:47:05.652937,363
2021-10-14 14:47:06.056323,-434
2021-10-14 14:47:06.056346,-466
2021-10-14 14:47:06.056355,22
2021-10-14 14:47:06.056364,24
2021-10-14 14:47:06.056373,-137
2021-10-14 14:47:06.056381,-39
2021-10-14 14:47:06.056390,-4
2021-10-14 14:47:06.056399,-58
2021-10-14 14:47:06.056407,-26
2021-10-14 14:47:06.056416,4
2021-10-14 14:47:06.056424,-4
2021-10-14 14:47:06.056433,14
2021-10-14 14:47:06.056441,53
2021-10-14 14:47:06.056450,78
2021-10-14 14:47:06.056459,93
2021-10-14 14:47:06.056467,107
2021-10-14 14:47:06.056476,139
2021-10-14 14:47:06.056484,186
2021-10-14 14:47:06.056492,230
2021-10-14 14:47:06.056501,262
2021-10-14 14:47:06.056509,301
2021-10-14 14:47:06.056518,343
2021-10-14 14:47:06.056526,363
2021-10-14 14:47:06.056535,360
2021-10-14 14:47:06.056543,350
2021-10-14 14:47:06.056552,338
2021-10-14 14:47:06.056560,309
2021-10-14 14:47:06.056569,247
2021-10-14 14:47:06.056577,147
2021-10-14 14:47:06.056586,31
2021-10-14 14:47:06.147366,-53
2021-10-14 14:47:06.147387,-122
2021-10-14 14:47:06.147397,-193
2021-10-14 14:47:06.147406,-240
2021-10-14 14:47:06.147414,-245
2021-10-14 14:47:06.147423,-247
2021-10-14 14:47:06.147432,-260
2021-10-14 14:47:06.147440,-264
2021-10-14 14:47:06.147449,-264
2021-10-14 14:47:06.147458,-262
2021-10-14 14:47:06.147467,-255
2021-10-14 14:47:06.147475,-235
2021-10-14 14:47:06.147483,-223
2021-10-14 14:47:06.147492,-218
2021-10-14 14:47:06.147501,-213
2021-10-14 14:47:06.147509,-206
2021-10-14 14:47:06.147518,-188
2021-10-14 14:47:06.147526,-169
2021-10-14 14:47:06.147535,-157
2021-10-14 14:47:06.147544,-149
2021-10-14 14:47:06.147552,-147
2021-10-14 14:47:06.147561,-149
2021-10-14 14:47:06.147569,-137
2021-10-14 14:47:06.147578,-127
2021-10-14 14:47:06.147586,-132
2021-10-14 14:47:06.147595,-139
2021-10-14 14:47:06.147603,-144
2021-10-14 14:47:06.147612,-149
2021-10-14 14:47:06.147620,-152
2021-10-14 14:47:06.147629,-139
2021-10-14 14:47:06.372319,-127
2021-10-14 14:47:06.372341,-134
2021-10-14 14:47:06.372350,-132
2021-10-14 14:47:06.372359,-117
2021-10-14 14:47:06.372368,-120
2021-10-14 14:47:06.372376,-120
2021-10-14 14:47:06.372385,-103
2021-10-14 14:47:06.372393,-78
2021-10-14 14:47:06.372402,-68
2021-10-14 14:47:06.372410,-80
2021-10-14 14:47:06.372419,-80
2021-10-14 14:47:06.372427,-66
2021-10-14 14:47:06.372435,-73
2021-10-14 14:47:06.372444,-100
2021-10-14 14:47:06.372452,-107
2021-10-14 14:47:06.372461,-90
2021-10-14 14:47:06.372469,-71
2021-10-14 14:47:06.372478,-63
2021-10-14 14:47:06.372486,-58
2021-10-14 14:47:06.372494,-49
2021-10-14 14:47:06.372503,-44
2021-10-14 14:47:06.372511,-22
2021-10-14 14:47:06.372520,100
2021-10-14 14:47:06.372528,414
2021-10-14 14:47:06.372536,790
2021-10-14 14:47:06.372545,782
2021-10-14 14:47:06.372553,93
2021-10-14 14:47:06.372561,-488
2021-10-14 14:47:06.372570,-191
2021-10-14 14:47:06.372579,144
2021-10-14 14:47:06.642704,-9
2021-10-14 14:47:06.642726,-34
2021-10-14 14:47:06.642736,85
2021-10-14 14:47:06.642744,51
2021-10-14 14:47:06.642753,24
2021-10-14 14:47:06.642762,78
2021-10-14 14:47:06.642770,90
2021-10-14 14:47:06.642779,83
2021-10-14 14:47:06.642787,115
2021-10-14 14:47:06.642796,142
2021-10-14 14:47:06.642804,147
2021-10-14 14:47:06.642813,166
2021-10-14 14:47:06.642821,193
2021-10-14 14:47:06.642829,215
2021-10-14 14:47:06.642838,242
2021-10-14 14:47:06.642846,272
2021-10-14 14:47:06.642855,314
2021-10-14 14:47:06.642863,350
2021-10-14 14:47:06.642872,365
2021-10-14 14:47:06.642880,372
2021-10-14 14:47:06.642889,382
2021-10-14 14:47:06.642897,375
2021-10-14 14:47:06.642905,348
2021-10-14 14:47:06.642914,294
2021-10-14 14:47:06.642922,206
2021-10-14 14:47:06.642930,100
2021-10-14 14:47:06.642939,0
2021-10-14 14:47:06.642947,-76
2021-10-14 14:47:06.642956,-132
2021-10-14 14:47:06.642964,-169
2021-10-14 14:47:06.822700,-196
2021-10-14 14:47:06.822723,-215
2021-10-14 14:47:06.822733,-215
2021-10-14 14:47:06.822742,-211
2021-10-14 14:47:06.822750,-206
2021-10-14 14:47:06.822759,-203
2021-10-14 14:47:06.822767,-198
2021-10-14 14:47:06.822776,-184
2021-10-14 14:47:06.822784,-171
2021-10-14 14:47:06.822793,-166
2021-10-14 14:47:06.822801,-154
2021-10-14 14:47:06.822809,-147
2021-10-14 14:47:06.822818,-154
2021-10-14 14:47:06.822826,-159
2021-10-14 14:47:06.822835,-149
2021-10-14 14:47:06.822843,-130
2021-10-14 14:47:06.822852,-117
2021-10-14 14:47:06.822860,-127
2021-10-14 14:47:06.822868,-137
2021-10-14 14:47:06.822877,-127
2021-10-14 14:47:06.822885,-117
2021-10-14 14:47:06.822894,-117
2021-10-14 14:47:06.822902,-110
2021-10-14 14:47:06.822911,-110
2021-10-14 14:47:06.822919,-120
2021-10-14 14:47:06.822927,-117
2021-10-14 14:47:06.822936,-110
2021-10-14 14:47:06.822944,-105
2021-10-14 14:47:06.822953,-100
2021-10-14 14:47:06.822961,-100
2021-10-14 14:47:07.047345,-98
2021-10-14 14:47:07.047368,-88
2021-10-14 14:47:07.047377,-93
2021-10-14 14:47:07.047386,-95
2021-10-14 14:47:07.047395,-61
2021-10-14 14:47:07.047403,-26
2021-10-14 14:47:07.047412,-22
2021-10-14 14:47:07.047420,-22
2021-10-14 14:47:07.047429,-22
2021-10-14 14:47:07.047437,-39
2021-10-14 14:47:07.047446,-63
2021-10-14 14:47:07.047454,-71
2021-10-14 14:47:07.047463,-61
2021-10-14 14:47:07.047471,-53
2021-10-14 14:47:07.047480,-56
2021-10-14 14:47:07.047488,-66
2021-10-14 14:47:07.047496,-68
2021-10-14 14:47:07.047505,-63
2021-10-14 14:47:07.047513,-31
2021-10-14 14:47:07.047522,110
2021-10-14 14:47:07.047530,446
2021-10-14 14:47:07.047539,831
2021-10-14 14:47:07.047547,767
2021-10-14 14:47:07.047555,17
2021-10-14 14:47:07.047564,-505
2021-10-14 14:47:07.047572,-164
2021-10-14 14:47:07.047581,100
2021-10-14 14:47:07.047589,-76
2021-10-14 14:47:07.047598,-80
2021-10-14 14:47:07.047606,19
2021-10-14 14:47:07.272669,-19
2021-10-14 14:47:07.272691,-29
2021-10-14 14:47:07.272701,17
2021-10-14 14:47:07.272709,17
2021-10-14 14:47:07.272718,9
2021-10-14 14:47:07.272727,36
2021-10-14 14:47:07.272735,68
2021-10-14 14:47:07.272744,83
2021-10-14 14:47:07.272752,98
2021-10-14 14:47:07.272761,120
2021-10-14 14:47:07.272770,134
2021-10-14 14:47:07.272778,144
2021-10-14 14:47:07.272787,176
2021-10-14 14:47:07.272795,228
2021-10-14 14:47:07.272803,267
2021-10-14 14:47:07.272812,289
2021-10-14 14:47:07.272820,296
2021-10-14 14:47:07.272829,299
2021-10-14 14:47:07.272837,294
2021-10-14 14:47:07.272846,277
2021-10-14 14:47:07.272854,220
2021-10-14 14:47:07.272863,125
2021-10-14 14:47:07.272871,12
2021-10-14 14:47:07.272879,-83
2021-10-14 14:47:07.272888,-164
2021-10-14 14:47:07.272896,-230
2021-10-14 14:47:07.272905,-269
2021-10-14 14:47:07.272913,-291
2021-10-14 14:47:07.272921,-301
2021-10-14 14:47:07.272930,-299
2021-10-14 14:47:07.497707,-291
2021-10-14 14:47:07.497730,-284
2021-10-14 14:47:07.497740,-284
2021-10-14 14:47:07.497749,-289
2021-10-14 14:47:07.497757,-289
2021-10-14 14:47:07.497766,-284
2021-10-14 14:47:07.497774,-272
2021-10-14 14:47:07.497783,-264
2021-10-14 14:47:07.497791,-264
2021-10-14 14:47:07.497800,-264
2021-10-14 14:47:07.497808,-262
2021-10-14 14:47:07.497817,-260
2021-10-14 14:47:07.497825,-250
2021-10-14 14:47:07.497833,-240
2021-10-14 14:47:07.497842,-240
2021-10-14 14:47:07.497850,-235
2021-10-14 14:47:07.497859,-225
2021-10-14 14:47:07.497867,-223
2021-10-14 14:47:07.497876,-223
2021-10-14 14:47:07.497884,-225
2021-10-14 14:47:07.497892,-225
2021-10-14 14:47:07.497900,-220
2021-10-14 14:47:07.497909,-211
2021-10-14 14:47:07.497917,-211
2021-10-14 14:47:07.497925,-213
2021-10-14 14:47:07.497934,-213
2021-10-14 14:47:07.497942,-223
2021-10-14 14:47:07.497950,-223
2021-10-14 14:47:07.497959,-211
2021-10-14 14:47:07.497967,-203
2021-10-14 14:47:07.767349,-211
2021-10-14 14:47:07.767372,-213
2021-10-14 14:47:07.767382,-211
2021-10-14 14:47:07.767391,-213
2021-10-14 14:47:07.767399,-220
2021-10-14 14:47:07.767408,-213
2021-10-14 14:47:07.767417,-191
2021-10-14 14:47:07.767425,-147
2021-10-14 14:47:07.767433,-117
2021-10-14 14:47:07.767447,-130
2021-10-14 14:47:07.767456,-142
2021-10-14 14:47:07.767499,-130
2021-10-14 14:47:07.767508,-130
2021-10-14 14:47:07.767517,-147
2021-10-14 14:47:07.767525,-154
2021-10-14 14:47:07.767534,-147
2021-10-14 14:47:07.767543,-142
2021-10-14 14:47:07.767551,-134
2021-10-14 14:47:07.767560,-122
2021-10-14 14:47:07.767568,-122
2021-10-14 14:47:07.767577,-120
2021-10-14 14:47:07.767585,-61
2021-10-14 14:47:07.767593,149
2021-10-14 14:47:07.767602,539
2021-10-14 14:47:07.767610,848
2021-10-14 14:47:07.767619,534
2021-10-14 14:47:07.767627,-287
2021-10-14 14:47:07.767636,-507
2021-10-14 14:47:07.767644,-56
2021-10-14 14:47:07.767652,36
2021-10-14 14:47:08.036371,-132
2021-10-14 14:47:08.036393,-58
2021-10-14 14:47:08.036403,-9
2021-10-14 14:47:08.036412,-71
2021-10-14 14:47:08.036420,-41
2021-10-14 14:47:08.036429,9
2021-10-14 14:47:08.036438,7
2021-10-14 14:47:08.036446,17
2021-10-14 14:47:08.036455,34
2021-10-14 14:47:08.036463,41
2021-10-14 14:47:08.036471,71
2021-10-14 14:47:08.036480,115
2021-10-14 14:47:08.036488,142
2021-10-14 14:47:08.036496,174
2021-10-14 14:47:08.036505,198
2021-10-14 14:47:08.036513,220
2021-10-14 14:47:08.036522,264
2021-10-14 14:47:08.036530,311
2021-10-14 14:47:08.036538,341
2021-10-14 14:47:08.036547,348
2021-10-14 14:47:08.036555,343
2021-10-14 14:47:08.036564,326
2021-10-14 14:47:08.036572,296
2021-10-14 14:47:08.036580,245
2021-10-14 14:47:08.036589,169
2021-10-14 14:47:08.036597,76
2021-10-14 14:47:08.036606,-19
2021-10-14 14:47:08.036614,-103
2021-10-14 14:47:08.036622,-154
2021-10-14 14:47:08.036631,-181
2021-10-14 14:47:08.261708,-203
2021-10-14 14:47:08.261729,-225
2021-10-14 14:47:08.261739,-238
2021-10-14 14:47:08.261748,-238
2021-10-14 14:47:08.261757,-228
2021-10-14 14:47:08.261766,-218
2021-10-14 14:47:08.261774,-208
2021-10-14 14:47:08.261783,-191
2021-10-14 14:47:08.261791,-171
2021-10-14 14:47:08.261800,-159
2021-10-14 14:47:08.261808,-154
2021-10-14 14:47:08.261817,-144
2021-10-14 14:47:08.261825,-130
2021-10-14 14:47:08.261834,-127
2021-10-14 14:47:08.261842,-137
2021-10-14 14:47:08.261851,-134
2021-10-14 14:47:08.261859,-115
2021-10-14 14:47:08.261868,-110
2021-10-14 14:47:08.261876,-107
2021-10-14 14:47:08.261884,-95
2021-10-14 14:47:08.261893,-88
2021-10-14 14:47:08.261901,-98
2021-10-14 14:47:08.261910,-95
2021-10-14 14:47:08.261918,-88
2021-10-14 14:47:08.261927,-85
2021-10-14 14:47:08.261935,-90
2021-10-14 14:47:08.261944,-95
2021-10-14 14:47:08.261952,-98
2021-10-14 14:47:08.261961,-85
2021-10-14 14:47:08.261969,-71
2021-10-14 14:47:08.487710,-63
2021-10-14 14:47:08.487732,-61
2021-10-14 14:47:08.487742,-63
2021-10-14 14:47:08.487751,-53
2021-10-14 14:47:08.487760,-36
2021-10-14 14:47:08.487768,-31
2021-10-14 14:47:08.487777,-44
2021-10-14 14:47:08.487785,-53
2021-10-14 14:47:08.487794,-56
2021-10-14 14:47:08.487802,-49
2021-10-14 14:47:08.487811,-41
2021-10-14 14:47:08.487819,-36
2021-10-14 14:47:08.487828,-49
2021-10-14 14:47:08.487836,-46
2021-10-14 14:47:08.487845,-9
2021-10-14 14:47:08.487853,22
2021-10-14 14:47:08.487862,26
2021-10-14 14:47:08.487870,24
2021-10-14 14:47:08.487879,17
2021-10-14 14:47:08.487887,-2
2021-10-14 14:47:08.487896,-17
2021-10-14 14:47:08.487904,-12
2021-10-14 14:47:08.487912,9
2021-10-14 14:47:08.487921,17
2021-10-14 14:47:08.487929,9
2021-10-14 14:47:08.487938,4
2021-10-14 14:47:08.487947,9
2021-10-14 14:47:08.487955,24
2021-10-14 14:47:08.487964,120
2021-10-14 14:47:08.487972,412
2021-10-14 14:47:08.667724,814
2021-10-14 14:47:08.667746,907
2021-10-14 14:47:08.667756,282
2021-10-14 14:47:08.667765,-426
2021-10-14 14:47:08.667773,-242
2021-10-14 14:47:08.667782,181
2021-10-14 14:47:08.667790,71
2021-10-14 14:47:08.667799,-34
2021-10-14 14:47:08.667807,76
2021-10-14 14:47:08.667816,78
2021-10-14 14:47:08.667824,44
2021-10-14 14:47:08.667833,83
2021-10-14 14:47:08.667841,98
2021-10-14 14:47:08.667850,90
2021-10-14 14:47:08.667858,110
2021-10-14 14:47:08.667867,134
2021-10-14 14:47:08.667875,152
2021-10-14 14:47:08.667883,169
2021-10-14 14:47:08.667892,186
2021-10-14 14:47:08.667900,211
2021-10-14 14:47:08.667909,242
2021-10-14 14:47:08.667917,272
2021-10-14 14:47:08.667926,309
2021-10-14 14:47:08.667934,355
2021-10-14 14:47:08.667942,392
2021-10-14 14:47:08.667951,412
2021-10-14 14:47:08.667959,417
2021-10-14 14:47:08.667968,419
2021-10-14 14:47:08.667976,404
2021-10-14 14:47:08.667984,360
2021-10-14 14:47:08.892733,291
2021-10-14 14:47:08.892757,211
2021-10-14 14:47:08.892766,112
2021-10-14 14:47:08.892775,12
2021-10-14 14:47:08.892784,-68
2021-10-14 14:47:08.892793,-137
2021-10-14 14:47:08.892801,-188
2021-10-14 14:47:08.892810,-198
2021-10-14 14:47:08.892818,-188
2021-10-14 14:47:08.892827,-193
2021-10-14 14:47:08.892835,-201
2021-10-14 14:47:08.892844,-201
2021-10-14 14:47:08.892852,-198
2021-10-14 14:47:08.892861,-184
2021-10-14 14:47:08.892869,-159
2021-10-14 14:47:08.892878,-147
2021-10-14 14:47:08.892886,-142
2021-10-14 14:47:08.892894,-134
2021-10-14 14:47:08.892903,-117
2021-10-14 14:47:08.892911,-95
2021-10-14 14:47:08.892919,-90
2021-10-14 14:47:08.892928,-90
2021-10-14 14:47:08.892936,-83
2021-10-14 14:47:08.892945,-85
2021-10-14 14:47:08.892953,-88
2021-10-14 14:47:08.892961,-73
2021-10-14 14:47:08.892970,-61
2021-10-14 14:47:08.892978,-73
2021-10-14 14:47:08.892987,-80
2021-10-14 14:47:08.892995,-76
2021-10-14 14:47:09.252115,-71
2021-10-14 14:47:09.252138,-78
2021-10-14 14:47:09.252148,-85
2021-10-14 14:47:09.252156,-88
2021-10-14 14:47:09.252165,-90
2021-10-14 14:47:09.252174,-98
2021-10-14 14:47:09.252182,-88
2021-10-14 14:47:09.252190,-68
2021-10-14 14:47:09.252199,-66
2021-10-14 14:47:09.252207,-66
2021-10-14 14:47:09.252216,-58
2021-10-14 14:47:09.252224,-73
2021-10-14 14:47:09.252233,-90
2021-10-14 14:47:09.252241,-78
2021-10-14 14:47:09.252250,-61
2021-10-14 14:47:09.252258,-68
2021-10-14 14:47:09.252267,-83
2021-10-14 14:47:09.252275,-71
2021-10-14 14:47:09.252283,-26
2021-10-14 14:47:09.252292,9
2021-10-14 14:47:09.252300,9
2021-10-14 14:47:09.252309,2
2021-10-14 14:47:09.252317,0
2021-10-14 14:47:09.252326,-14
2021-10-14 14:47:09.252334,-26
2021-10-14 14:47:09.252343,-17
2021-10-14 14:47:09.252351,-2
2021-10-14 14:47:09.252359,0
2021-10-14 14:47:09.252368,-4
2021-10-14 14:47:09.252376,-4
2021-10-14 14:47:09.432371,0
2021-10-14 14:47:09.432392,12
2021-10-14 14:47:09.432399,83
2021-10-14 14:47:09.432407,306
2021-10-14 14:47:09.432437,679
2021-10-14 14:47:09.432446,895
2021-10-14 14:47:09.432454,456
2021-10-14 14:47:09.432462,-318
2021-10-14 14:47:09.432471,-358
2021-10-14 14:47:09.432479,103
2021-10-14 14:47:09.432488,105
2021-10-14 14:47:09.432496,-41
2021-10-14 14:47:09.432504,44
2021-10-14 14:47:09.432513,71
2021-10-14 14:47:09.432521,26
2021-10-14 14:47:09.432530,61
2021-10-14 14:47:09.432538,85
2021-10-14 14:47:09.432546,73
2021-10-14 14:47:09.432555,85
2021-10-14 14:47:09.432563,110
2021-10-14 14:47:09.432572,115
2021-10-14 14:47:09.432580,127
2021-10-14 14:47:09.432588,157
2021-10-14 14:47:09.432597,193
2021-10-14 14:47:09.432605,233
2021-10-14 14:47:09.432613,269
2021-10-14 14:47:09.432622,311
2021-10-14 14:47:09.432630,348
2021-10-14 14:47:09.432638,375
2021-10-14 14:47:09.432647,402
2021-10-14 14:47:09.656754,417
2021-10-14 14:47:09.656776,414
2021-10-14 14:47:09.656786,404
2021-10-14 14:47:09.656795,368
2021-10-14 14:47:09.656803,299
2021-10-14 14:47:09.656812,213
2021-10-14 14:47:09.656820,115
2021-10-14 14:47:09.656829,26
2021-10-14 14:47:09.656837,-44
2021-10-14 14:47:09.656845,-110
2021-10-14 14:47:09.656854,-152
2021-10-14 14:47:09.656862,-157
2021-10-14 14:47:09.656870,-161
2021-10-14 14:47:09.656879,-164
2021-10-14 14:47:09.656887,-161
2021-10-14 14:47:09.656896,-159
2021-10-14 14:47:09.656904,-157
2021-10-14 14:47:09.656912,-157
2021-10-14 14:47:09.656921,-152
2021-10-14 14:47:09.656929,-139
2021-10-14 14:47:09.656937,-132
2021-10-14 14:47:09.656946,-134
2021-10-14 14:47:09.656954,-120
2021-10-14 14:47:09.656962,-105
2021-10-14 14:47:09.656971,-98
2021-10-14 14:47:09.656979,-90
2021-10-14 14:47:09.656987,-88
2021-10-14 14:47:09.656996,-98
2021-10-14 14:47:09.657004,-93
2021-10-14 14:47:09.657013,-78
2021-10-14 14:47:09.837672,-78
2021-10-14 14:47:09.837693,-85
2021-10-14 14:47:09.837703,-85
2021-10-14 14:47:09.837712,-85
2021-10-14 14:47:09.837721,-83
2021-10-14 14:47:09.837730,-78
2021-10-14 14:47:09.837738,-78
2021-10-14 14:47:09.837747,-83
2021-10-14 14:47:09.837755,-93
2021-10-14 14:47:09.837764,-93
2021-10-14 14:47:09.837772,-76
2021-10-14 14:47:09.837781,-63
2021-10-14 14:47:09.837789,-61
2021-10-14 14:47:09.837798,-63
2021-10-14 14:47:09.837806,-73
2021-10-14 14:47:09.837815,-80
2021-10-14 14:47:09.837823,-73
2021-10-14 14:47:09.837831,-58
2021-10-14 14:47:09.837840,-58
2021-10-14 14:47:09.837848,-63
2021-10-14 14:47:09.837856,-53
2021-10-14 14:47:09.837865,-22
2021-10-14 14:47:09.837873,7
2021-10-14 14:47:09.837882,17
2021-10-14 14:47:09.837890,17
2021-10-14 14:47:09.837898,7
2021-10-14 14:47:09.837907,-14
2021-10-14 14:47:09.837915,-29
2021-10-14 14:47:09.837924,-24
2021-10-14 14:47:09.837932,-17
2021-10-14 14:47:10.106286,-17
2021-10-14 14:47:10.106307,-9
2021-10-14 14:47:10.106317,-2
2021-10-14 14:47:10.106325,-7
2021-10-14 14:47:10.106334,2
2021-10-14 14:47:10.106343,85
2021-10-14 14:47:10.106351,333
2021-10-14 14:47:10.106360,723
2021-10-14 14:47:10.106368,920
2021-10-14 14:47:10.106377,449
2021-10-14 14:47:10.106385,-326
2021-10-14 14:47:10.106393,-365
2021-10-14 14:47:10.106402,61
2021-10-14 14:47:10.106410,31
2021-10-14 14:47:10.106419,-115
2021-10-14 14:47:10.106427,-19
2021-10-14 14:47:10.106436,2
2021-10-14 14:47:10.106444,-51
2021-10-14 14:47:10.106453,-17
2021-10-14 14:47:10.106462,12
2021-10-14 14:47:10.106470,-2
2021-10-14 14:47:10.106478,24
2021-10-14 14:47:10.106487,58
2021-10-14 14:47:10.106495,53
2021-10-14 14:47:10.106503,61
2021-10-14 14:47:10.106512,95
2021-10-14 14:47:10.106520,122
2021-10-14 14:47:10.106529,154
2021-10-14 14:47:10.106537,208
2021-10-14 14:47:10.106545,255
2021-10-14 14:47:10.331733,294
2021-10-14 14:47:10.331754,328
2021-10-14 14:47:10.331763,353
2021-10-14 14:47:10.331772,365
2021-10-14 14:47:10.331780,368
2021-10-14 14:47:10.331789,363
2021-10-14 14:47:10.331797,336
2021-10-14 14:47:10.331806,274
2021-10-14 14:47:10.331814,186
2021-10-14 14:47:10.331823,95
2021-10-14 14:47:10.331832,24
2021-10-14 14:47:10.331840,-46
2021-10-14 14:47:10.331849,-120
2021-10-14 14:47:10.331857,-164
2021-10-14 14:47:10.331865,-176
2021-10-14 14:47:10.331874,-188
2021-10-14 14:47:10.331882,-196
2021-10-14 14:47:10.331891,-188
2021-10-14 14:47:10.331899,-176
2021-10-14 14:47:10.331908,-174
2021-10-14 14:47:10.331916,-171
2021-10-14 14:47:10.331924,-157
2021-10-14 14:47:10.331933,-134
2021-10-14 14:47:10.331941,-122
2021-10-14 14:47:10.331950,-125
2021-10-14 14:47:10.331958,-117
2021-10-14 14:47:10.331966,-103
2021-10-14 14:47:10.331975,-98
2021-10-14 14:47:10.331983,-93
2021-10-14 14:47:10.331991,-88
2021-10-14 14:47:10.512722,-88
2021-10-14 14:47:10.512744,-90
2021-10-14 14:47:10.512754,-88
2021-10-14 14:47:10.512763,-90
2021-10-14 14:47:10.512771,-95
2021-10-14 14:47:10.512780,-93
2021-10-14 14:47:10.512788,-95
2021-10-14 14:47:10.512796,-100
2021-10-14 14:47:10.512805,-98
2021-10-14 14:47:10.512813,-90
2021-10-14 14:47:10.512822,-85
2021-10-14 14:47:10.512831,-83
2021-10-14 14:47:10.512839,-83
2021-10-14 14:47:10.512848,-83
2021-10-14 14:47:10.512856,-80
2021-10-14 14:47:10.512865,-80
2021-10-14 14:47:10.512873,-78
2021-10-14 14:47:10.512882,-90
2021-10-14 14:47:10.512890,-105
2021-10-14 14:47:10.512898,-93
2021-10-14 14:47:10.512907,-80
2021-10-14 14:47:10.512915,-95
2021-10-14 14:47:10.512924,-100
2021-10-14 14:47:10.512932,-78
2021-10-14 14:47:10.512940,-41
2021-10-14 14:47:10.512948,-12
2021-10-14 14:47:10.512957,-2
2021-10-14 14:47:10.512965,0
2021-10-14 14:47:10.512974,-7
2021-10-14 14:47:10.512982,-31
2021-10-14 14:47:10.737744,-51
2021-10-14 14:47:10.737766,-53
2021-10-14 14:47:10.737775,-51
2021-10-14 14:47:10.737784,-51
2021-10-14 14:47:10.737792,-53
2021-10-14 14:47:10.737800,-63
2021-10-14 14:47:10.737809,-66
2021-10-14 14:47:10.737817,-46
2021-10-14 14:47:10.737826,22
2021-10-14 14:47:10.737834,238
2021-10-14 14:47:10.737842,618
2021-10-14 14:47:10.737851,858
2021-10-14 14:47:10.737859,463
2021-10-14 14:47:10.737868,-333
2021-10-14 14:47:10.737876,-461
2021-10-14 14:47:10.737884,-22
2021-10-14 14:47:10.737893,7
2021-10-14 14:47:10.737901,-147
2021-10-14 14:47:10.737910,-58
2021-10-14 14:47:10.737918,-12
2021-10-14 14:47:10.737926,-63
2021-10-14 14:47:10.737935,-41
2021-10-14 14:47:10.737943,2
2021-10-14 14:47:10.737952,0
2021-10-14 14:47:10.737960,7
2021-10-14 14:47:10.737969,46
2021-10-14 14:47:10.737977,68
2021-10-14 14:47:10.737986,76
2021-10-14 14:47:10.737994,107
2021-10-14 14:47:10.738003,144
2021-10-14 14:47:10.962382,171
2021-10-14 14:47:10.962404,206
2021-10-14 14:47:10.962413,250
2021-10-14 14:47:10.962421,291
2021-10-14 14:47:10.962430,321
2021-10-14 14:47:10.962438,331
2021-10-14 14:47:10.962447,333
2021-10-14 14:47:10.962455,343
2021-10-14 14:47:10.962464,353
2021-10-14 14:47:10.962472,331
2021-10-14 14:47:10.962480,264
2021-10-14 14:47:10.962489,176
2021-10-14 14:47:10.962497,88
2021-10-14 14:47:10.962506,2
2021-10-14 14:47:10.962514,-80
2021-10-14 14:47:10.962522,-144
2021-10-14 14:47:10.962531,-179
2021-10-14 14:47:10.962539,-201
2021-10-14 14:47:10.962548,-215
2021-10-14 14:47:10.962556,-218
2021-10-14 14:47:10.962564,-218
2021-10-14 14:47:10.962573,-215
2021-10-14 14:47:10.962581,-208
2021-10-14 14:47:10.962589,-203
2021-10-14 14:47:10.962597,-191
2021-10-14 14:47:10.962606,-174
2021-10-14 14:47:10.962614,-164
2021-10-14 14:47:10.962622,-157
2021-10-14 14:47:10.962631,-154
2021-10-14 14:47:10.962639,-149
2021-10-14 14:47:11.187790,-130
2021-10-14 14:47:11.187812,-105
2021-10-14 14:47:11.187821,-103
2021-10-14 14:47:11.187830,-117
2021-10-14 14:47:11.187839,-125
2021-10-14 14:47:11.187848,-130
2021-10-14 14:47:11.187856,-137
2021-10-14 14:47:11.187865,-134
2021-10-14 14:47:11.187873,-132
2021-10-14 14:47:11.187881,-139
2021-10-14 14:47:11.187890,-144
2021-10-14 14:47:11.187898,-137
2021-10-14 14:47:11.187906,-127
2021-10-14 14:47:11.187915,-125
2021-10-14 14:47:11.187923,-120
2021-10-14 14:47:11.187932,-112
2021-10-14 14:47:11.187940,-117
2021-10-14 14:47:11.187948,-120
2021-10-14 14:47:11.187957,-110
2021-10-14 14:47:11.187965,-107
2021-10-14 14:47:11.187973,-120
2021-10-14 14:47:11.187982,-112
2021-10-14 14:47:11.187990,-73
2021-10-14 14:47:11.187998,-44
2021-10-14 14:47:11.188007,-44
2021-10-14 14:47:11.188015,-46
2021-10-14 14:47:11.188023,-58
2021-10-14 14:47:11.188032,-83
2021-10-14 14:47:11.188040,-88
2021-10-14 14:47:11.188048,-76
2021-10-14 14:47:11.457764,-68
2021-10-14 14:47:11.457786,-73
2021-10-14 14:47:11.457796,-76
2021-10-14 14:47:11.457804,-73
2021-10-14 14:47:11.457813,-73
2021-10-14 14:47:11.457821,-73
2021-10-14 14:47:11.457830,-26
2021-10-14 14:47:11.457838,159
2021-10-14 14:47:11.457847,515
2021-10-14 14:47:11.457855,787
2021-10-14 14:47:11.457864,483
2021-10-14 14:47:11.457872,-321
2021-10-14 14:47:11.457880,-569
2021-10-14 14:47:11.457889,-93
2021-10-14 14:47:11.457897,51
2021-10-14 14:47:11.457906,-144
2021-10-14 14:47:11.457914,-98
2021-10-14 14:47:11.457923,-14
2021-10-14 14:47:11.457931,-56
2021-10-14 14:47:11.457939,-49
2021-10-14 14:47:11.457947,-7
2021-10-14 14:47:11.457956,-14
2021-10-14 14:47:11.457964,-14
2021-10-14 14:47:11.457972,19
2021-10-14 14:47:11.457981,41
2021-10-14 14:47:11.457989,46
2021-10-14 14:47:11.457998,73
2021-10-14 14:47:11.458006,115
2021-10-14 14:47:11.458014,152
2021-10-14 14:47:11.458023,188
2021-10-14 14:47:11.682765,240
2021-10-14 14:47:11.682788,287
2021-10-14 14:47:11.682797,318
2021-10-14 14:47:11.682806,343
2021-10-14 14:47:11.682815,360
2021-10-14 14:47:11.682824,365
2021-10-14 14:47:11.682832,355
2021-10-14 14:47:11.682841,336
2021-10-14 14:47:11.682850,274
2021-10-14 14:47:11.682858,161
2021-10-14 14:47:11.682867,46
2021-10-14 14:47:11.682875,-51
2021-10-14 14:47:11.682884,-130
2021-10-14 14:47:11.682909,-179
2021-10-14 14:47:11.682918,-223
2021-10-14 14:47:11.682926,-257
2021-10-14 14:47:11.682935,-260
2021-10-14 14:47:11.682943,-252
2021-10-14 14:47:11.682952,-247
2021-10-14 14:47:11.682960,-230
2021-10-14 14:47:11.682969,-220
2021-10-14 14:47:11.682978,-218
2021-10-14 14:47:11.682986,-208
2021-10-14 14:47:11.682994,-198
2021-10-14 14:47:11.683003,-196
2021-10-14 14:47:11.683011,-188
2021-10-14 14:47:11.683020,-176
2021-10-14 14:47:11.683028,-166
2021-10-14 14:47:11.683036,-152
2021-10-14 14:47:11.683045,-137
2021-10-14 14:47:11.907673,-127
2021-10-14 14:47:11.907695,-125
2021-10-14 14:47:11.907705,-132
2021-10-14 14:47:11.907713,-132
2021-10-14 14:47:11.907720,-120
2021-10-14 14:47:11.907727,-112
2021-10-14 14:47:11.907735,-110
2021-10-14 14:47:11.907742,-112
2021-10-14 14:47:11.907750,-125
2021-10-14 14:47:11.907758,-127
2021-10-14 14:47:11.907766,-112
2021-10-14 14:47:11.907774,-100
2021-10-14 14:47:11.907782,-105
2021-10-14 14:47:11.907791,-115
2021-10-14 14:47:11.907799,-125
2021-10-14 14:47:11.907807,-115
2021-10-14 14:47:11.907815,-83
2021-10-14 14:47:11.907824,-44
2021-10-14 14:47:11.907832,-29
2021-10-14 14:47:11.907840,-24
2021-10-14 14:47:11.907848,-24
2021-10-14 14:47:11.907856,-44
2021-10-14 14:47:11.907865,-63
2021-10-14 14:47:11.907873,-58
2021-10-14 14:47:11.907881,-53
2021-10-14 14:47:11.907890,-66
2021-10-14 14:47:11.907898,-71
2021-10-14 14:47:11.907906,-61
2021-10-14 14:47:11.907915,-56
2021-10-14 14:47:11.907923,-51
2021-10-14 14:47:12.176616,-36
2021-10-14 14:47:12.176636,14
2021-10-14 14:47:12.176645,208
2021-10-14 14:47:12.176654,581
2021-10-14 14:47:12.176662,861
2021-10-14 14:47:12.176671,527
2021-10-14 14:47:12.176679,-267
2021-10-14 14:47:12.176688,-451
2021-10-14 14:47:12.176696,12
2021-10-14 14:47:12.176705,100
2021-10-14 14:47:12.176713,-68
2021-10-14 14:47:12.176722,7
2021-10-14 14:47:12.176730,68
2021-10-14 14:47:12.176739,9
2021-10-14 14:47:12.176747,14
2021-10-14 14:47:12.176756,49
2021-10-14 14:47:12.176764,41
2021-10-14 14:47:12.176773,44
2021-10-14 14:47:12.176781,66
2021-10-14 14:47:12.176789,83
2021-10-14 14:47:12.176798,98
2021-10-14 14:47:12.176806,125
2021-10-14 14:47:12.176815,159
2021-10-14 14:47:12.176823,193
2021-10-14 14:47:12.176831,233
2021-10-14 14:47:12.176840,277
2021-10-14 14:47:12.176848,316
2021-10-14 14:47:12.176857,350
2021-10-14 14:47:12.176865,368
2021-10-14 14:47:12.176874,372
2021-10-14 14:47:12.402147,372
2021-10-14 14:47:12.402169,360
2021-10-14 14:47:12.402179,333
2021-10-14 14:47:12.402188,279
2021-10-14 14:47:12.402196,188
2021-10-14 14:47:12.402205,93
2021-10-14 14:47:12.402213,4
2021-10-14 14:47:12.402222,-78
2021-10-14 14:47:12.402230,-139
2021-10-14 14:47:12.402239,-169
2021-10-14 14:47:12.402247,-179
2021-10-14 14:47:12.402256,-184
2021-10-14 14:47:12.402264,-196
2021-10-14 14:47:12.402272,-198
2021-10-14 14:47:12.402281,-188
2021-10-14 14:47:12.402289,-184
2021-10-14 14:47:12.402298,-174
2021-10-14 14:47:12.402306,-161
2021-10-14 14:47:12.402314,-161
2021-10-14 14:47:12.402323,-159
2021-10-14 14:47:12.402331,-139
2021-10-14 14:47:12.402339,-117
2021-10-14 14:47:12.402348,-103
2021-10-14 14:47:12.402356,-100
2021-10-14 14:47:12.402365,-98
2021-10-14 14:47:12.402373,-90
2021-10-14 14:47:12.402381,-88
2021-10-14 14:47:12.402390,-90
2021-10-14 14:47:12.402398,-85
2021-10-14 14:47:12.402406,-73
2021-10-14 14:47:12.582784,-78
2021-10-14 14:47:12.582806,-93
2021-10-14 14:47:12.582816,-90
2021-10-14 14:47:12.582825,-83
2021-10-14 14:47:12.582833,-80
2021-10-14 14:47:12.582842,-88
2021-10-14 14:47:12.582851,-95
2021-10-14 14:47:12.582859,-88
2021-10-14 14:47:12.582867,-76
2021-10-14 14:47:12.582876,-76
2021-10-14 14:47:12.582884,-80
2021-10-14 14:47:12.582893,-80
2021-10-14 14:47:12.582901,-85
2021-10-14 14:47:12.582910,-90
2021-10-14 14:47:12.582918,-73
2021-10-14 14:47:12.582927,-34
2021-10-14 14:47:12.582935,-4
2021-10-14 14:47:12.582944,0
2021-10-14 14:47:12.582952,0
2021-10-14 14:47:12.582961,-2
2021-10-14 14:47:12.582969,-19
2021-10-14 14:47:12.582977,-44
2021-10-14 14:47:12.582986,-58
2021-10-14 14:47:12.582994,-61
2021-10-14 14:47:12.583002,-61
2021-10-14 14:47:12.583011,-56
2021-10-14 14:47:12.583019,-46
2021-10-14 14:47:12.583028,-46
2021-10-14 14:47:12.583036,-36
2021-10-14 14:47:12.583044,36
2021-10-14 14:47:12.852413,269
2021-10-14 14:47:12.852435,669
2021-10-14 14:47:12.852444,925
2021-10-14 14:47:12.852453,512
2021-10-14 14:47:12.852462,-291
2021-10-14 14:47:12.852470,-407
2021-10-14 14:47:12.852479,29
2021-10-14 14:47:12.852487,46
2021-10-14 14:47:12.852496,-107
2021-10-14 14:47:12.852504,-14
2021-10-14 14:47:12.852512,24
2021-10-14 14:47:12.852521,-34
2021-10-14 14:47:12.852529,-9
2021-10-14 14:47:12.852538,29
2021-10-14 14:47:12.852546,26
2021-10-14 14:47:12.852555,39
2021-10-14 14:47:12.852563,66
2021-10-14 14:47:12.852571,83
2021-10-14 14:47:12.852580,105
2021-10-14 14:47:12.852588,137
2021-10-14 14:47:12.852596,166
2021-10-14 14:47:12.852605,186
2021-10-14 14:47:12.852613,208
2021-10-14 14:47:12.852622,240
2021-10-14 14:47:12.852630,272
2021-10-14 14:47:12.852638,304
2021-10-14 14:47:12.852647,331
2021-10-14 14:47:12.852655,321
2021-10-14 14:47:12.852663,311
2021-10-14 14:47:12.852672,318
2021-10-14 14:47:13.032404,294
2021-10-14 14:47:13.032426,230
2021-10-14 14:47:13.032436,147
2021-10-14 14:47:13.032445,39
2021-10-14 14:47:13.032453,-51
2021-10-14 14:47:13.032462,-117
2021-10-14 14:47:13.032471,-184
2021-10-14 14:47:13.032479,-218
2021-10-14 14:47:13.032488,-225
2021-10-14 14:47:13.032496,-235
2021-10-14 14:47:13.032505,-245
2021-10-14 14:47:13.032513,-245
2021-10-14 14:47:13.032522,-233
2021-10-14 14:47:13.032530,-208
2021-10-14 14:47:13.032538,-198
2021-10-14 14:47:13.032547,-213
2021-10-14 14:47:13.032555,-218
2021-10-14 14:47:13.032564,-198
2021-10-14 14:47:13.032572,-179
2021-10-14 14:47:13.032581,-176
2021-10-14 14:47:13.032589,-174
2021-10-14 14:47:13.032598,-166
2021-10-14 14:47:13.032606,-174
2021-10-14 14:47:13.032614,-179
2021-10-14 14:47:13.032623,-161
2021-10-14 14:47:13.032631,-147
2021-10-14 14:47:13.032640,-142
2021-10-14 14:47:13.032648,-144
2021-10-14 14:47:13.032656,-152
2021-10-14 14:47:13.032665,-152
2021-10-14 14:47:13.392392,-149
2021-10-14 14:47:13.392414,-147
2021-10-14 14:47:13.392423,-137
2021-10-14 14:47:13.392432,-142
2021-10-14 14:47:13.392441,-164
2021-10-14 14:47:13.392449,-157
2021-10-14 14:47:13.392458,-137
2021-10-14 14:47:13.392466,-137
2021-10-14 14:47:13.392474,-144
2021-10-14 14:47:13.392483,-147
2021-10-14 14:47:13.392491,-137
2021-10-14 14:47:13.392500,-120
2021-10-14 14:47:13.392508,-122
2021-10-14 14:47:13.392517,-130
2021-10-14 14:47:13.392525,-120
2021-10-14 14:47:13.392533,-90
2021-10-14 14:47:13.392542,-58
2021-10-14 14:47:13.392550,-49
2021-10-14 14:47:13.392558,-44
2021-10-14 14:47:13.392567,-39
2021-10-14 14:47:13.392575,-53
2021-10-14 14:47:13.392583,-71
2021-10-14 14:47:13.392592,-73
2021-10-14 14:47:13.392600,-68
2021-10-14 14:47:13.392608,-61
2021-10-14 14:47:13.392617,-58
2021-10-14 14:47:13.392625,-61
2021-10-14 14:47:13.392633,-63
2021-10-14 14:47:13.392641,-68
2021-10-14 14:47:13.392650,-31
2021-10-14 14:47:13.527774,112
2021-10-14 14:47:13.527796,426
2021-10-14 14:47:13.527805,767
2021-10-14 14:47:13.527814,704
2021-10-14 14:47:13.527823,-7
2021-10-14 14:47:13.527831,-544
2021-10-14 14:47:13.527840,-213
2021-10-14 14:47:13.527848,112
2021-10-14 14:47:13.527857,-53
2021-10-14 14:47:13.527866,-95
2021-10-14 14:47:13.527874,9
2021-10-14 14:47:13.527883,-17
2021-10-14 14:47:13.527891,-36
2021-10-14 14:47:13.527900,12
2021-10-14 14:47:13.527908,22
2021-10-14 14:47:13.527917,14
2021-10-14 14:47:13.527925,39
2021-10-14 14:47:13.527933,66
2021-10-14 14:47:13.527942,76
2021-10-14 14:47:13.527950,98
2021-10-14 14:47:13.527959,122
2021-10-14 14:47:13.527967,137
2021-10-14 14:47:13.527976,164
2021-10-14 14:47:13.527984,211
2021-10-14 14:47:13.527992,257
2021-10-14 14:47:13.528001,291
2021-10-14 14:47:13.528009,296
2021-10-14 14:47:13.528017,294
2021-10-14 14:47:13.528026,309
2021-10-14 14:47:13.528034,314
2021-10-14 14:47:13.797768,289
2021-10-14 14:47:13.797791,247
2021-10-14 14:47:13.797801,161
2021-10-14 14:47:13.797809,44
2021-10-14 14:47:13.797818,-56
2021-10-14 14:47:13.797827,-134
2021-10-14 14:47:13.797835,-198
2021-10-14 14:47:13.797844,-242
2021-10-14 14:47:13.797852,-282
2021-10-14 14:47:13.797860,-316
2021-10-14 14:47:13.797869,-353
2021-10-14 14:47:13.797877,-397
2021-10-14 14:47:13.797886,-397
2021-10-14 14:47:13.797894,-382
2021-10-14 14:47:13.797902,-399
2021-10-14 14:47:13.797911,-397
2021-10-14 14:47:13.797919,-372
2021-10-14 14:47:13.797928,-368
2021-10-14 14:47:13.797936,-358
2021-10-14 14:47:13.797944,-348
2021-10-14 14:47:13.797953,-348
2021-10-14 14:47:13.797961,-343
2021-10-14 14:47:13.797970,-323
2021-10-14 14:47:13.797978,-304
2021-10-14 14:47:13.797986,-301
2021-10-14 14:47:13.797995,-304
2021-10-14 14:47:13.798003,-299
2021-10-14 14:47:13.798011,-291
2021-10-14 14:47:13.798020,-294
2021-10-14 14:47:13.798028,-301
2021-10-14 14:47:13.977408,-299
2021-10-14 14:47:13.977430,-284
2021-10-14 14:47:13.977439,-264
2021-10-14 14:47:13.977448,-252
2021-10-14 14:47:13.977456,-230
2021-10-14 14:47:13.977465,-206
2021-10-14 14:47:13.977473,-201
2021-10-14 14:47:13.977481,-196
2021-10-14 14:47:13.977490,-169
2021-10-14 14:47:13.977498,-144
2021-10-14 14:47:13.977507,-134
2021-10-14 14:47:13.977515,-134
2021-10-14 14:47:13.977524,-142
2021-10-14 14:47:13.977532,-152
2021-10-14 14:47:13.977541,-134
2021-10-14 14:47:13.977550,-90
2021-10-14 14:47:13.977558,-58
2021-10-14 14:47:13.977566,-58
2021-10-14 14:47:13.977575,-63
2021-10-14 14:47:13.977583,-63
2021-10-14 14:47:13.977591,-68
2021-10-14 14:47:13.977600,-83
2021-10-14 14:47:13.977608,-71
2021-10-14 14:47:13.977617,-53
2021-10-14 14:47:13.977625,-58
2021-10-14 14:47:13.977633,-66
2021-10-14 14:47:13.977642,-68
2021-10-14 14:47:13.977650,-68
2021-10-14 14:47:13.977658,-49
2021-10-14 14:47:13.977667,36
2021-10-14 14:47:14.246066,264
2021-10-14 14:47:14.246088,610
2021-10-14 14:47:14.246098,728
2021-10-14 14:47:14.246106,233
2021-10-14 14:47:14.246115,-414
2021-10-14 14:47:14.246123,-321
2021-10-14 14:47:14.246131,63
2021-10-14 14:47:14.246140,-9
2021-10-14 14:47:14.246148,-122
2021-10-14 14:47:14.246156,-22
2021-10-14 14:47:14.246164,-4
2021-10-14 14:47:14.246173,-41
2021-10-14 14:47:14.246181,-12
2021-10-14 14:47:14.246189,12
2021-10-14 14:47:14.246198,14
2021-10-14 14:47:14.246206,39
2021-10-14 14:47:14.246214,71
2021-10-14 14:47:14.246222,95
2021-10-14 14:47:14.246231,115
2021-10-14 14:47:14.246239,142
2021-10-14 14:47:14.246247,176
2021-10-14 14:47:14.246255,206
2021-10-14 14:47:14.246263,240
2021-10-14 14:47:14.246272,289
2021-10-14 14:47:14.246280,328
2021-10-14 14:47:14.246288,348
2021-10-14 14:47:14.246296,368
2021-10-14 14:47:14.246304,392
2021-10-14 14:47:14.246312,402
2021-10-14 14:47:14.246320,387
2021-10-14 14:47:14.427733,343
2021-10-14 14:47:14.427755,269
2021-10-14 14:47:14.427764,166
2021-10-14 14:47:14.427773,53
2021-10-14 14:47:14.427782,-26
2021-10-14 14:47:14.427790,-95
2021-10-14 14:47:14.427798,-164
2021-10-14 14:47:14.427807,-198
2021-10-14 14:47:14.427815,-196
2021-10-14 14:47:14.427823,-193
2021-10-14 14:47:14.427832,-201
2021-10-14 14:47:14.427840,-203
2021-10-14 14:47:14.427848,-206
2021-10-14 14:47:14.427857,-206
2021-10-14 14:47:14.427865,-201
2021-10-14 14:47:14.427874,-196
2021-10-14 14:47:14.427882,-196
2021-10-14 14:47:14.427890,-196
2021-10-14 14:47:14.427899,-188
2021-10-14 14:47:14.427907,-166
2021-10-14 14:47:14.427915,-147
2021-10-14 14:47:14.427923,-152
2021-10-14 14:47:14.427932,-147
2021-10-14 14:47:14.427940,-130
2021-10-14 14:47:14.427948,-125
2021-10-14 14:47:14.427957,-125
2021-10-14 14:47:14.427965,-112
2021-10-14 14:47:14.427973,-100
2021-10-14 14:47:14.427982,-110
2021-10-14 14:47:14.427990,-117
2021-10-14 14:47:14.652794,-110
2021-10-14 14:47:14.652816,-105
2021-10-14 14:47:14.652826,-107
2021-10-14 14:47:14.652834,-105
2021-10-14 14:47:14.652843,-103
2021-10-14 14:47:14.652852,-115
2021-10-14 14:47:14.652860,-120
2021-10-14 14:47:14.652869,-122
2021-10-14 14:47:14.652878,-127
2021-10-14 14:47:14.652886,-130
2021-10-14 14:47:14.652895,-130
2021-10-14 14:47:14.652903,-139
2021-10-14 14:47:14.652911,-130
2021-10-14 14:47:14.652920,-125
2021-10-14 14:47:14.652928,-142
2021-10-14 14:47:14.652937,-149
2021-10-14 14:47:14.652945,-142
2021-10-14 14:47:14.652954,-115
2021-10-14 14:47:14.652962,-85
2021-10-14 14:47:14.652970,-88
2021-10-14 14:47:14.652979,-95
2021-10-14 14:47:14.652987,-85
2021-10-14 14:47:14.652996,-90
2021-10-14 14:47:14.653004,-112
2021-10-14 14:47:14.653013,-117
2021-10-14 14:47:14.653021,-95
2021-10-14 14:47:14.653029,-78
2021-10-14 14:47:14.653038,-71
2021-10-14 14:47:14.653046,-78
2021-10-14 14:47:14.653055,-88
2021-10-14 14:47:14.922777,-73
2021-10-14 14:47:14.922798,-14
2021-10-14 14:47:14.922808,157
2021-10-14 14:47:14.922816,488
2021-10-14 14:47:14.922825,750
2021-10-14 14:47:14.922834,493
2021-10-14 14:47:14.922842,-245
2021-10-14 14:47:14.922850,-532
2021-10-14 14:47:14.922859,-130
2021-10-14 14:47:14.922867,0
2021-10-14 14:47:14.922876,-188
2021-10-14 14:47:14.922884,-117
2021-10-14 14:47:14.922893,9
2021-10-14 14:47:14.922901,2
2021-10-14 14:47:14.922909,31
2021-10-14 14:47:14.922918,78
2021-10-14 14:47:14.922926,68
2021-10-14 14:47:14.922935,78
2021-10-14 14:47:14.922943,127
2021-10-14 14:47:14.922951,161
2021-10-14 14:47:14.922960,171
2021-10-14 14:47:14.922968,181
2021-10-14 14:47:14.922977,213
2021-10-14 14:47:14.922985,252
2021-10-14 14:47:14.922993,309
2021-10-14 14:47:14.923002,390
2021-10-14 14:47:14.923010,451
2021-10-14 14:47:14.923018,471
2021-10-14 14:47:14.923027,488
2021-10-14 14:47:14.923035,507
2021-10-14 14:47:15.102661,498
2021-10-14 14:47:15.102682,483
2021-10-14 14:47:15.102692,471
2021-10-14 14:47:15.102701,422
2021-10-14 14:47:15.102709,326
2021-10-14 14:47:15.102718,220
2021-10-14 14:47:15.102726,132
2021-10-14 14:47:15.102735,58
2021-10-14 14:47:15.102743,2
2021-10-14 14:47:15.102752,-49
2021-10-14 14:47:15.102761,-85
2021-10-14 14:47:15.102769,-95
2021-10-14 14:47:15.102778,-90
2021-10-14 14:47:15.102786,-90
2021-10-14 14:47:15.102795,-90
2021-10-14 14:47:15.102803,-95
2021-10-14 14:47:15.102812,-93
2021-10-14 14:47:15.102820,-80
2021-10-14 14:47:15.102829,-68
2021-10-14 14:47:15.102837,-63
2021-10-14 14:47:15.102846,-66
2021-10-14 14:47:15.102854,-63
2021-10-14 14:47:15.102862,-61
2021-10-14 14:47:15.102871,-61
2021-10-14 14:47:15.102879,-68
2021-10-14 14:47:15.102888,-68
2021-10-14 14:47:15.102896,-53
2021-10-14 14:47:15.102904,-49
2021-10-14 14:47:15.102913,-39
2021-10-14 14:47:15.102921,-26
2021-10-14 14:47:15.507195,-36
2021-10-14 14:47:15.507217,-36
2021-10-14 14:47:15.507226,-19
2021-10-14 14:47:15.507235,-31
2021-10-14 14:47:15.507244,-46
2021-10-14 14:47:15.507252,-39
2021-10-14 14:47:15.507261,-36
2021-10-14 14:47:15.507269,-39
2021-10-14 14:47:15.507278,-31
2021-10-14 14:47:15.507286,-34
2021-10-14 14:47:15.507294,-39
2021-10-14 14:47:15.507303,-34
2021-10-14 14:47:15.507311,-29
2021-10-14 14:47:15.507320,-26
2021-10-14 14:47:15.507328,-22
2021-10-14 14:47:15.507336,-24
2021-10-14 14:47:15.507345,-24
2021-10-14 14:47:15.507353,-7
2021-10-14 14:47:15.507361,-2
2021-10-14 14:47:15.507370,-17
2021-10-14 14:47:15.507378,-34
2021-10-14 14:47:15.507386,-31
2021-10-14 14:47:15.507395,4
2021-10-14 14:47:15.507403,44
2021-10-14 14:47:15.507411,49
2021-10-14 14:47:15.507420,36
2021-10-14 14:47:15.507428,34
2021-10-14 14:47:15.507437,24
2021-10-14 14:47:15.507445,-4
2021-10-14 14:47:15.507453,-19
2021-10-14 14:47:15.597767,-9
2021-10-14 14:47:15.597788,-7
2021-10-14 14:47:15.597797,-2
2021-10-14 14:47:15.597806,7
2021-10-14 14:47:15.597815,9
2021-10-14 14:47:15.597823,9
2021-10-14 14:47:15.597832,56
2021-10-14 14:47:15.597840,198
2021-10-14 14:47:15.597848,502
2021-10-14 14:47:15.597857,861
2021-10-14 14:47:15.597865,836
2021-10-14 14:47:15.597873,144
2021-10-14 14:47:15.597882,-407
2021-10-14 14:47:15.597890,-107
2021-10-14 14:47:15.597899,181
2021-10-14 14:47:15.597924,9
2021-10-14 14:47:15.597933,-19
2021-10-14 14:47:15.597941,88
2021-10-14 14:47:15.597950,63
2021-10-14 14:47:15.597958,39
2021-10-14 14:47:15.597966,66
2021-10-14 14:47:15.597975,66
2021-10-14 14:47:15.597983,66
2021-10-14 14:47:15.597992,85
2021-10-14 14:47:15.598000,103
2021-10-14 14:47:15.598009,122
2021-10-14 14:47:15.598017,134
2021-10-14 14:47:15.598025,139
2021-10-14 14:47:15.598034,159
2021-10-14 14:47:15.598042,181
2021-10-14 14:47:15.822794,223
2021-10-14 14:47:15.822817,279
2021-10-14 14:47:15.822826,321
2021-10-14 14:47:15.822835,343
2021-10-14 14:47:15.822844,355
2021-10-14 14:47:15.822852,363
2021-10-14 14:47:15.822861,368
2021-10-14 14:47:15.822869,350
2021-10-14 14:47:15.822878,304
2021-10-14 14:47:15.822886,240
2021-10-14 14:47:15.822895,164
2021-10-14 14:47:15.822903,76
2021-10-14 14:47:15.822912,-17
2021-10-14 14:47:15.822920,-90
2021-10-14 14:47:15.822929,-134
2021-10-14 14:47:15.822937,-161
2021-10-14 14:47:15.822946,-179
2021-10-14 14:47:15.822954,-181
2021-10-14 14:47:15.822962,-179
2021-10-14 14:47:15.822971,-171
2021-10-14 14:47:15.822979,-157
2021-10-14 14:47:15.822987,-154
2021-10-14 14:47:15.822996,-154
2021-10-14 14:47:15.823005,-144
2021-10-14 14:47:15.823013,-130
2021-10-14 14:47:15.823021,-115
2021-10-14 14:47:15.823030,-105
2021-10-14 14:47:15.823038,-110
2021-10-14 14:47:15.823046,-112
2021-10-14 14:47:15.823055,-112
2021-10-14 14:47:16.047435,-110
2021-10-14 14:47:16.047456,-103
2021-10-14 14:47:16.047465,-105
2021-10-14 14:47:16.047474,-100
2021-10-14 14:47:16.047483,-83
2021-10-14 14:47:16.047492,-78
2021-10-14 14:47:16.047500,-88
2021-10-14 14:47:16.047509,-100
2021-10-14 14:47:16.047517,-105
2021-10-14 14:47:16.047526,-100
2021-10-14 14:47:16.047534,-100
2021-10-14 14:47:16.047542,-105
2021-10-14 14:47:16.047551,-107
2021-10-14 14:47:16.047559,-107
2021-10-14 14:47:16.047568,-103
2021-10-14 14:47:16.047576,-98
2021-10-14 14:47:16.047585,-93
2021-10-14 14:47:16.047593,-93
2021-10-14 14:47:16.047601,-95
2021-10-14 14:47:16.047610,-85
2021-10-14 14:47:16.047618,-71
2021-10-14 14:47:16.047627,-71
2021-10-14 14:47:16.047635,-78
2021-10-14 14:47:16.047643,-80
2021-10-14 14:47:16.047652,-73
2021-10-14 14:47:16.047660,-66
2021-10-14 14:47:16.047669,-71
2021-10-14 14:47:16.047677,-85
2021-10-14 14:47:16.047686,-83
2021-10-14 14:47:16.047694,-58
2021-10-14 14:47:16.316479,-31
2021-10-14 14:47:16.316501,-7
2021-10-14 14:47:16.316511,2
2021-10-14 14:47:16.316519,-7
2021-10-14 14:47:16.316528,-29
2021-10-14 14:47:16.316536,-46
2021-10-14 14:47:16.316545,-63
2021-10-14 14:47:16.316553,-71
2021-10-14 14:47:16.316561,-58
2021-10-14 14:47:16.316569,-53
2021-10-14 14:47:16.316578,-44
2021-10-14 14:47:16.316586,-19
2021-10-14 14:47:16.316594,-31
2021-10-14 14:47:16.316603,-41
2021-10-14 14:47:16.316611,66
2021-10-14 14:47:16.316619,328
2021-10-14 14:47:16.316628,662
2021-10-14 14:47:16.316636,777
2021-10-14 14:47:16.316645,257
2021-10-14 14:47:16.316653,-471
2021-10-14 14:47:16.316662,-392
2021-10-14 14:47:16.316670,66
2021-10-14 14:47:16.316678,14
2021-10-14 14:47:16.316687,-112
2021-10-14 14:47:16.316695,7
2021-10-14 14:47:16.316704,39
2021-10-14 14:47:16.316712,-19
2021-10-14 14:47:16.316720,4
2021-10-14 14:47:16.316729,36
2021-10-14 14:47:16.316737,34
2021-10-14 14:47:16.676229,63
2021-10-14 14:47:16.676251,115
2021-10-14 14:47:16.676261,122
2021-10-14 14:47:16.676269,112
2021-10-14 14:47:16.676278,147
2021-10-14 14:47:16.676286,191
2021-10-14 14:47:16.676295,211
2021-10-14 14:47:16.676303,240
2021-10-14 14:47:16.676312,287
2021-10-14 14:47:16.676320,326
2021-10-14 14:47:16.676329,360
2021-10-14 14:47:16.676337,380
2021-10-14 14:47:16.676346,377
2021-10-14 14:47:16.676354,372
2021-10-14 14:47:16.676363,363
2021-10-14 14:47:16.676371,331
2021-10-14 14:47:16.676378,267
2021-10-14 14:47:16.676387,184
2021-10-14 14:47:16.676395,100
2021-10-14 14:47:16.676403,14
2021-10-14 14:47:16.676412,-68
2021-10-14 14:47:16.676420,-130
2021-10-14 14:47:16.676428,-161
2021-10-14 14:47:16.676437,-171
2021-10-14 14:47:16.676445,-181
2021-10-14 14:47:16.676454,-184
2021-10-14 14:47:16.676462,-176
2021-10-14 14:47:16.676470,-171
2021-10-14 14:47:16.676479,-176
2021-10-14 14:47:16.676487,-181
2021-10-14 14:47:16.767218,-166
2021-10-14 14:47:16.767240,-139
2021-10-14 14:47:16.767249,-127
2021-10-14 14:47:16.767257,-127
2021-10-14 14:47:16.767266,-125
2021-10-14 14:47:16.767274,-122
2021-10-14 14:47:16.767283,-125
2021-10-14 14:47:16.767291,-122
2021-10-14 14:47:16.767299,-125
2021-10-14 14:47:16.767307,-132
2021-10-14 14:47:16.767316,-125
2021-10-14 14:47:16.767324,-117
2021-10-14 14:47:16.767332,-120
2021-10-14 14:47:16.767340,-117
2021-10-14 14:47:16.767357,-110
2021-10-14 14:47:16.767366,-122
2021-10-14 14:47:16.767374,-132
2021-10-14 14:47:16.767383,-125
2021-10-14 14:47:16.767391,-115
2021-10-14 14:47:16.767399,-107
2021-10-14 14:47:16.767408,-105
2021-10-14 14:47:16.767416,-103
2021-10-14 14:47:16.767424,-100
2021-10-14 14:47:16.767433,-105
2021-10-14 14:47:16.767441,-112
2021-10-14 14:47:16.767449,-100
2021-10-14 14:47:16.767458,-83
2021-10-14 14:47:16.767466,-93
2021-10-14 14:47:16.767475,-103
2021-10-14 14:47:16.767483,-93
2021-10-14 14:47:16.992769,-85
2021-10-14 14:47:16.992790,-95
2021-10-14 14:47:16.992799,-95
2021-10-14 14:47:16.992808,-76
2021-10-14 14:47:16.992816,-41
2021-10-14 14:47:16.992825,-14
2021-10-14 14:47:16.992834,-22
2021-10-14 14:47:16.992842,-49
2021-10-14 14:47:16.992850,-51
2021-10-14 14:47:16.992859,-49
2021-10-14 14:47:16.992867,-76
2021-10-14 14:47:16.992876,-85
2021-10-14 14:47:16.992884,-56
2021-10-14 14:47:16.992893,-44
2021-10-14 14:47:16.992901,-58
2021-10-14 14:47:16.992910,-68
2021-10-14 14:47:16.992918,-53
2021-10-14 14:47:16.992927,-14
2021-10-14 14:47:16.992935,115
2021-10-14 14:47:16.992944,417
2021-10-14 14:47:16.992952,755
2021-10-14 14:47:16.992960,687
2021-10-14 14:47:16.992969,-31
2021-10-14 14:47:16.992978,-586
2021-10-14 14:47:16.992986,-242
2021-10-14 14:47:16.992995,125
2021-10-14 14:47:16.993003,-19
2021-10-14 14:47:16.993012,-73
2021-10-14 14:47:16.993020,41
2021-10-14 14:47:16.993028,44
2021-10-14 14:47:17.217921,22
2021-10-14 14:47:17.217963,51
2021-10-14 14:47:17.217972,66
2021-10-14 14:47:17.217981,61
2021-10-14 14:47:17.217990,83
2021-10-14 14:47:17.217998,115
2021-10-14 14:47:17.218007,127
2021-10-14 14:47:17.218015,149
2021-10-14 14:47:17.218023,188
2021-10-14 14:47:17.218032,215
2021-10-14 14:47:17.218040,238
2021-10-14 14:47:17.218049,277
2021-10-14 14:47:17.218057,326
2021-10-14 14:47:17.218066,363
2021-10-14 14:47:17.218075,380
2021-10-14 14:47:17.218083,377
2021-10-14 14:47:17.218092,375
2021-10-14 14:47:17.218100,385
2021-10-14 14:47:17.218109,382
2021-10-14 14:47:17.218117,341
2021-10-14 14:47:17.218126,260
2021-10-14 14:47:17.218134,161
2021-10-14 14:47:17.218143,66
2021-10-14 14:47:17.218151,-22
2021-10-14 14:47:17.218160,-85
2021-10-14 14:47:17.218168,-117
2021-10-14 14:47:17.218177,-144
2021-10-14 14:47:17.218185,-169
2021-10-14 14:47:17.218194,-166
2021-10-14 14:47:17.218202,-149
2021-10-14 14:47:17.532467,-147
2021-10-14 14:47:17.532489,-152
2021-10-14 14:47:17.532498,-147
2021-10-14 14:47:17.532507,-132
2021-10-14 14:47:17.532515,-112
2021-10-14 14:47:17.532524,-107
2021-10-14 14:47:17.532532,-107
2021-10-14 14:47:17.532541,-95
2021-10-14 14:47:17.532549,-98
2021-10-14 14:47:17.532557,-110
2021-10-14 14:47:17.532566,-95
2021-10-14 14:47:17.532574,-80
2021-10-14 14:47:17.532582,-78
2021-10-14 14:47:17.532591,-80
2021-10-14 14:47:17.532599,-103
2021-10-14 14:47:17.532608,-120
2021-10-14 14:47:17.532616,-103
2021-10-14 14:47:17.532625,-105
2021-10-14 14:47:17.532633,-120
2021-10-14 14:47:17.532641,-100
2021-10-14 14:47:17.532649,-85
2021-10-14 14:47:17.532658,-103
2021-10-14 14:47:17.532666,-100
2021-10-14 14:47:17.532674,-78
2021-10-14 14:47:17.532683,-76
2021-10-14 14:47:17.532691,-85
2021-10-14 14:47:17.532699,-90
2021-10-14 14:47:17.532707,-80
2021-10-14 14:47:17.532716,-63
2021-10-14 14:47:17.532724,-56
2021-10-14 14:47:17.712145,-41
2021-10-14 14:47:17.712165,-19
2021-10-14 14:47:17.712175,-24
2021-10-14 14:47:17.712184,-41
2021-10-14 14:47:17.712192,-34
2021-10-14 14:47:17.712201,-29
2021-10-14 14:47:17.712209,-41
2021-10-14 14:47:17.712217,-49
2021-10-14 14:47:17.712225,-29
2021-10-14 14:47:17.712234,4
2021-10-14 14:47:17.712242,34
2021-10-14 14:47:17.712251,51
2021-10-14 14:47:17.712259,51
2021-10-14 14:47:17.712267,36
2021-10-14 14:47:17.712276,19
2021-10-14 14:47:17.712284,2
2021-10-14 14:47:17.712292,-4
2021-10-14 14:47:17.712301,2
2021-10-14 14:47:17.712309,0
2021-10-14 14:47:17.712318,-19
2021-10-14 14:47:17.712326,-29
2021-10-14 14:47:17.712334,-19
2021-10-14 14:47:17.712342,19
2021-10-14 14:47:17.712351,147
2021-10-14 14:47:17.712359,436
2021-10-14 14:47:17.712367,777
2021-10-14 14:47:17.712375,767
2021-10-14 14:47:17.712384,105
2021-10-14 14:47:17.712392,-493
2021-10-14 14:47:17.712400,-223
2021-10-14 14:47:17.892400,137
2021-10-14 14:47:17.892419,0
2021-10-14 14:47:17.892429,-53
2021-10-14 14:47:17.892438,53
2021-10-14 14:47:17.892447,36
2021-10-14 14:47:17.892455,19
2021-10-14 14:47:17.892464,71
2021-10-14 14:47:17.892472,83
2021-10-14 14:47:17.892481,78
2021-10-14 14:47:17.892489,100
2021-10-14 14:47:17.892497,122
2021-10-14 14:47:17.892506,134
2021-10-14 14:47:17.892514,154
2021-10-14 14:47:17.892523,171
2021-10-14 14:47:17.892531,196
2021-10-14 14:47:17.892540,225
2021-10-14 14:47:17.892548,255
2021-10-14 14:47:17.892557,299
2021-10-14 14:47:17.892565,343
2021-10-14 14:47:17.892573,363
2021-10-14 14:47:17.892582,377
2021-10-14 14:47:17.892590,387
2021-10-14 14:47:17.892598,382
2021-10-14 14:47:17.892606,370
2021-10-14 14:47:17.892615,343
2021-10-14 14:47:17.892623,279
2021-10-14 14:47:17.892632,184
2021-10-14 14:47:17.892640,93
2021-10-14 14:47:17.892648,19
2021-10-14 14:47:17.892657,-49
2021-10-14 14:47:18.117749,-103
2021-10-14 14:47:18.117770,-132
2021-10-14 14:47:18.117780,-142
2021-10-14 14:47:18.117788,-154
2021-10-14 14:47:18.117797,-161
2021-10-14 14:47:18.117806,-159
2021-10-14 14:47:18.117814,-161
2021-10-14 14:47:18.117823,-159
2021-10-14 14:47:18.117831,-142
2021-10-14 14:47:18.117840,-130
2021-10-14 14:47:18.117849,-125
2021-10-14 14:47:18.117857,-115
2021-10-14 14:47:18.117866,-115
2021-10-14 14:47:18.117874,-115
2021-10-14 14:47:18.117883,-105
2021-10-14 14:47:18.117891,-100
2021-10-14 14:47:18.117900,-95
2021-10-14 14:47:18.117908,-98
2021-10-14 14:47:18.117917,-103
2021-10-14 14:47:18.117925,-98
2021-10-14 14:47:18.117934,-93
2021-10-14 14:47:18.117943,-100
2021-10-14 14:47:18.117951,-98
2021-10-14 14:47:18.117960,-83
2021-10-14 14:47:18.117968,-88
2021-10-14 14:47:18.117977,-98
2021-10-14 14:47:18.117986,-95
2021-10-14 14:47:18.117994,-88
2021-10-14 14:47:18.118003,-85
2021-10-14 14:47:18.118011,-85
2021-10-14 14:47:18.386420,-88
2021-10-14 14:47:18.386440,-85
2021-10-14 14:47:18.386450,-78
2021-10-14 14:47:18.386458,-78
2021-10-14 14:47:18.386467,-78
2021-10-14 14:47:18.386475,-88
2021-10-14 14:47:18.386484,-103
2021-10-14 14:47:18.386492,-93
2021-10-14 14:47:18.386500,-83
2021-10-14 14:47:18.386509,-83
2021-10-14 14:47:18.386517,-78
2021-10-14 14:47:18.386525,-83
2021-10-14 14:47:18.386533,-115
2021-10-14 14:47:18.386542,-115
2021-10-14 14:47:18.386550,-66
2021-10-14 14:47:18.386558,-29
2021-10-14 14:47:18.386566,-36
2021-10-14 14:47:18.386575,-63
2021-10-14 14:47:18.386583,-83
2021-10-14 14:47:18.386591,-95
2021-10-14 14:47:18.386599,-122
2021-10-14 14:47:18.386607,-149
2021-10-14 14:47:18.386616,-144
2021-10-14 14:47:18.386624,-144
2021-10-14 14:47:18.386632,-166
2021-10-14 14:47:18.386641,-188
2021-10-14 14:47:18.386649,-215
2021-10-14 14:47:18.386657,-225
2021-10-14 14:47:18.386666,-196
2021-10-14 14:47:18.386674,-71
2021-10-14 14:47:18.567482,238
2021-10-14 14:47:18.567505,620
2021-10-14 14:47:18.567514,667
2021-10-14 14:47:18.567523,49
2021-10-14 14:47:18.567531,-576
2021-10-14 14:47:18.567539,-358
2021-10-14 14:47:18.567548,29
2021-10-14 14:47:18.567556,-63
2021-10-14 14:47:18.567565,-130
2021-10-14 14:47:18.567573,-26
2021-10-14 14:47:18.567582,-24
2021-10-14 14:47:18.567590,-53
2021-10-14 14:47:18.567598,-22
2021-10-14 14:47:18.567607,7
2021-10-14 14:47:18.567616,22
2021-10-14 14:47:18.567624,46
2021-10-14 14:47:18.567632,76
2021-10-14 14:47:18.567641,100
2021-10-14 14:47:18.567649,117
2021-10-14 14:47:18.567657,137
2021-10-14 14:47:18.567666,164
2021-10-14 14:47:18.567674,193
2021-10-14 14:47:18.567683,228
2021-10-14 14:47:18.567691,262
2021-10-14 14:47:18.567699,284
2021-10-14 14:47:18.567708,304
2021-10-14 14:47:18.567716,328
2021-10-14 14:47:18.567725,341
2021-10-14 14:47:18.567733,341
2021-10-14 14:47:18.567741,343
2021-10-14 14:47:18.837861,314
2021-10-14 14:47:18.837883,230
2021-10-14 14:47:18.837892,120
2021-10-14 14:47:18.837901,4
2021-10-14 14:47:18.837909,-85
2021-10-14 14:47:18.837918,-134
2021-10-14 14:47:18.837926,-166
2021-10-14 14:47:18.837935,-198
2021-10-14 14:47:18.837943,-238
2021-10-14 14:47:18.837951,-291
2021-10-14 14:47:18.837960,-338
2021-10-14 14:47:18.837968,-333
2021-10-14 14:47:18.837976,-284
2021-10-14 14:47:18.837985,-206
2021-10-14 14:47:18.837993,-127
2021-10-14 14:47:18.838001,-103
2021-10-14 14:47:18.838009,-103
2021-10-14 14:47:18.838018,-83
2021-10-14 14:47:18.838026,-63
2021-10-14 14:47:18.838035,-56
2021-10-14 14:47:18.838043,-49
2021-10-14 14:47:18.838051,-44
2021-10-14 14:47:18.838059,-44
2021-10-14 14:47:18.838068,-51
2021-10-14 14:47:18.838076,-61
2021-10-14 14:47:18.838084,-73
2021-10-14 14:47:18.838093,-85
2021-10-14 14:47:18.838101,-78
2021-10-14 14:47:18.838109,-49
2021-10-14 14:47:18.838117,-41
2021-10-14 14:47:19.062470,-51
2021-10-14 14:47:19.062492,-53
2021-10-14 14:47:19.062502,-58
2021-10-14 14:47:19.062511,-71
2021-10-14 14:47:19.062520,-80
2021-10-14 14:47:19.062528,-73
2021-10-14 14:47:19.062537,-66
2021-10-14 14:47:19.062545,-71
2021-10-14 14:47:19.062554,-53
2021-10-14 14:47:19.062562,-36
2021-10-14 14:47:19.062571,-49
2021-10-14 14:47:19.062579,-56
2021-10-14 14:47:19.062588,-46
2021-10-14 14:47:19.062596,-49
2021-10-14 14:47:19.062605,-71
2021-10-14 14:47:19.062613,-73
2021-10-14 14:47:19.062622,-39
2021-10-14 14:47:19.062630,-17
2021-10-14 14:47:19.062638,-34
2021-10-14 14:47:19.062647,-44
2021-10-14 14:47:19.062655,-31
2021-10-14 14:47:19.062664,-17
2021-10-14 14:47:19.062672,-7
2021-10-14 14:47:19.062681,0
2021-10-14 14:47:19.062689,2
2021-10-14 14:47:19.062697,-9
2021-10-14 14:47:19.062706,-46
2021-10-14 14:47:19.062714,-68
2021-10-14 14:47:19.062722,-56
2021-10-14 14:47:19.062731,-31
2021-10-14 14:47:19.287832,-29
2021-10-14 14:47:19.287853,-41
2021-10-14 14:47:19.287862,-63
2021-10-14 14:47:19.287870,-78
2021-10-14 14:47:19.287879,-61
2021-10-14 14:47:19.287887,34
2021-10-14 14:47:19.287896,279
2021-10-14 14:47:19.287904,625
2021-10-14 14:47:19.287912,736
2021-10-14 14:47:19.287921,238
2021-10-14 14:47:19.287929,-429
2021-10-14 14:47:19.287937,-363
2021-10-14 14:47:19.287945,19
2021-10-14 14:47:19.287954,-36
2021-10-14 14:47:19.287962,-152
2021-10-14 14:47:19.287971,-68
2021-10-14 14:47:19.287979,-49
2021-10-14 14:47:19.287987,-71
2021-10-14 14:47:19.287996,-31
2021-10-14 14:47:19.288005,0
2021-10-14 14:47:19.288013,9
2021-10-14 14:47:19.288021,24
2021-10-14 14:47:19.288030,29
2021-10-14 14:47:19.288038,41
2021-10-14 14:47:19.288046,68
2021-10-14 14:47:19.288055,93
2021-10-14 14:47:19.288063,112
2021-10-14 14:47:19.288071,142
2021-10-14 14:47:19.288079,179
2021-10-14 14:47:19.288088,213
2021-10-14 14:47:19.512857,255
2021-10-14 14:47:19.512879,287
2021-10-14 14:47:19.512888,284
2021-10-14 14:47:19.512897,279
2021-10-14 14:47:19.512905,306
2021-10-14 14:47:19.512914,316
2021-10-14 14:47:19.512922,299
2021-10-14 14:47:19.512931,264
2021-10-14 14:47:19.512939,191
2021-10-14 14:47:19.512947,110
2021-10-14 14:47:19.512956,44
2021-10-14 14:47:19.512964,-29
2021-10-14 14:47:19.512972,-93
2021-10-14 14:47:19.512981,-127
2021-10-14 14:47:19.512989,-154
2021-10-14 14:47:19.512997,-181
2021-10-14 14:47:19.513006,-184
2021-10-14 14:47:19.513031,-161
2021-10-14 14:47:19.513040,-149
2021-10-14 14:47:19.513049,-154
2021-10-14 14:47:19.513057,-152
2021-10-14 14:47:19.513065,-137
2021-10-14 14:47:19.513074,-134
2021-10-14 14:47:19.513083,-139
2021-10-14 14:47:19.513091,-125
2021-10-14 14:47:19.513099,-107
2021-10-14 14:47:19.513107,-100
2021-10-14 14:47:19.513116,-103
2021-10-14 14:47:19.513124,-105
2021-10-14 14:47:19.513133,-98
2021-10-14 14:47:19.737876,-100
2021-10-14 14:47:19.737898,-107
2021-10-14 14:47:19.737908,-105
2021-10-14 14:47:19.737917,-98
2021-10-14 14:47:19.737926,-98
2021-10-14 14:47:19.737934,-107
2021-10-14 14:47:19.737943,-103
2021-10-14 14:47:19.737951,-103
2021-10-14 14:47:19.737960,-115
2021-10-14 14:47:19.737969,-122
2021-10-14 14:47:19.737977,-105
2021-10-14 14:47:19.737986,-93
2021-10-14 14:47:19.737994,-105
2021-10-14 14:47:19.738003,-122
2021-10-14 14:47:19.738012,-112
2021-10-14 14:47:19.738020,-93
2021-10-14 14:47:19.738029,-80
2021-10-14 14:47:19.738037,-71
2021-10-14 14:47:19.738045,-61
2021-10-14 14:47:19.738054,-56
2021-10-14 14:47:19.738062,-41
2021-10-14 14:47:19.738070,-24
2021-10-14 14:47:19.738079,-22
2021-10-14 14:47:19.738087,-36
2021-10-14 14:47:19.738095,-46
2021-10-14 14:47:19.738104,-39
2021-10-14 14:47:19.738119,-14
2021-10-14 14:47:19.738128,7
2021-10-14 14:47:19.738137,14
2021-10-14 14:47:19.738145,22
2021-10-14 14:47:19.962535,19
2021-10-14 14:47:19.962557,-14
2021-10-14 14:47:19.962567,-53
2021-10-14 14:47:19.962576,-68
2021-10-14 14:47:19.962584,-63
2021-10-14 14:47:19.962593,-51
2021-10-14 14:47:19.962601,-56
2021-10-14 14:47:19.962610,-73
2021-10-14 14:47:19.962618,-80
2021-10-14 14:47:19.962627,-73
2021-10-14 14:47:19.962635,-39
2021-10-14 14:47:19.962644,88
2021-10-14 14:47:19.962652,380
2021-10-14 14:47:19.962661,701
2021-10-14 14:47:19.962669,637
2021-10-14 14:47:19.962677,-44
2021-10-14 14:47:19.962686,-593
2021-10-14 14:47:19.962694,-289
2021-10-14 14:47:19.962703,71
2021-10-14 14:47:19.962711,-44
2021-10-14 14:47:19.962720,-78
2021-10-14 14:47:19.962728,14
2021-10-14 14:47:19.962737,-19
2021-10-14 14:47:19.962745,-41
2021-10-14 14:47:19.962754,0
2021-10-14 14:47:19.962762,12
2021-10-14 14:47:19.962770,19
2021-10-14 14:47:19.962779,46
2021-10-14 14:47:19.962787,63
2021-10-14 14:47:19.962795,88
2021-10-14 14:47:20.187825,110
2021-10-14 14:47:20.187846,122
2021-10-14 14:47:20.187856,139
2021-10-14 14:47:20.187864,161
2021-10-14 14:47:20.187873,184
2021-10-14 14:47:20.187881,198
2021-10-14 14:47:20.187890,218
2021-10-14 14:47:20.187898,250
2021-10-14 14:47:20.187907,282
2021-10-14 14:47:20.187915,287
2021-10-14 14:47:20.187924,284
2021-10-14 14:47:20.187932,262
2021-10-14 14:47:20.187940,225
2021-10-14 14:47:20.187949,186
2021-10-14 14:47:20.187957,117
2021-10-14 14:47:20.187966,19
2021-10-14 14:47:20.187974,-53
2021-10-14 14:47:20.187983,-112
2021-10-14 14:47:20.187991,-171
2021-10-14 14:47:20.187999,-208
2021-10-14 14:47:20.188008,-233
2021-10-14 14:47:20.188016,-250
2021-10-14 14:47:20.188025,-245
2021-10-14 14:47:20.188033,-235
2021-10-14 14:47:20.188041,-228
2021-10-14 14:47:20.188050,-220
2021-10-14 14:47:20.188058,-220
2021-10-14 14:47:20.188066,-211
2021-10-14 14:47:20.188075,-188
2021-10-14 14:47:20.188083,-186
2021-10-14 14:47:20.456135,-191
2021-10-14 14:47:20.456157,-176
2021-10-14 14:47:20.456167,-147
2021-10-14 14:47:20.456176,-134
2021-10-14 14:47:20.456184,-149
2021-10-14 14:47:20.456192,-157
2021-10-14 14:47:20.456201,-161
2021-10-14 14:47:20.456209,-152
2021-10-14 14:47:20.456217,-120
2021-10-14 14:47:20.456226,-112
2021-10-14 14:47:20.456234,-137
2021-10-14 14:47:20.456243,-130
2021-10-14 14:47:20.456251,-103
2021-10-14 14:47:20.456259,-100
2021-10-14 14:47:20.456268,-112
2021-10-14 14:47:20.456276,-100
2021-10-14 14:47:20.456284,-88
2021-10-14 14:47:20.456292,-98
2021-10-14 14:47:20.456301,-103
2021-10-14 14:47:20.456309,-85
2021-10-14 14:47:20.456318,-68
2021-10-14 14:47:20.456326,-73
2021-10-14 14:47:20.456334,-78
2021-10-14 14:47:20.456343,-76
2021-10-14 14:47:20.456351,-73
2021-10-14 14:47:20.456359,-53
2021-10-14 14:47:20.456368,-9
2021-10-14 14:47:20.456376,4
2021-10-14 14:47:20.456385,0
2021-10-14 14:47:20.456393,-4
2021-10-14 14:47:20.727343,-26
2021-10-14 14:47:20.727366,-44
2021-10-14 14:47:20.727375,-41
2021-10-14 14:47:20.727384,-49
2021-10-14 14:47:20.727422,-68
2021-10-14 14:47:20.727430,-78
2021-10-14 14:47:20.727439,-68
2021-10-14 14:47:20.727447,-46
2021-10-14 14:47:20.727455,-39
2021-10-14 14:47:20.727464,-41
2021-10-14 14:47:20.727472,41
2021-10-14 14:47:20.727480,323
2021-10-14 14:47:20.727488,679
2021-10-14 14:47:20.727497,689
2021-10-14 14:47:20.727505,39
2021-10-14 14:47:20.727513,-593
2021-10-14 14:47:20.727522,-338
2021-10-14 14:47:20.727530,100
2021-10-14 14:47:20.727538,7
2021-10-14 14:47:20.727547,-53
2021-10-14 14:47:20.727555,63
2021-10-14 14:47:20.727563,39
2021-10-14 14:47:20.727572,-9
2021-10-14 14:47:20.727580,26
2021-10-14 14:47:20.727588,51
2021-10-14 14:47:20.727596,66
2021-10-14 14:47:20.727605,90
2021-10-14 14:47:20.727613,105
2021-10-14 14:47:20.727621,115
2021-10-14 14:47:20.727629,137
2021-10-14 14:47:20.907876,166
2021-10-14 14:47:20.907897,191
2021-10-14 14:47:20.907907,223
2021-10-14 14:47:20.907916,255
2021-10-14 14:47:20.907924,277
2021-10-14 14:47:20.907933,326
2021-10-14 14:47:20.907942,380
2021-10-14 14:47:20.907950,399
2021-10-14 14:47:20.907958,412
2021-10-14 14:47:20.907967,419
2021-10-14 14:47:20.907975,399
2021-10-14 14:47:20.907983,355
2021-10-14 14:47:20.907992,291
2021-10-14 14:47:20.908007,196
2021-10-14 14:47:20.908016,88
2021-10-14 14:47:20.908024,-7
2021-10-14 14:47:20.908033,-78
2021-10-14 14:47:20.908041,-130
2021-10-14 14:47:20.908049,-149
2021-10-14 14:47:20.908058,-149
2021-10-14 14:47:20.908066,-166
2021-10-14 14:47:20.908074,-184
2021-10-14 14:47:20.908083,-171
2021-10-14 14:47:20.908091,-152
2021-10-14 14:47:20.908099,-137
2021-10-14 14:47:20.908107,-125
2021-10-14 14:47:20.908116,-127
2021-10-14 14:47:20.908124,-130
2021-10-14 14:47:20.908132,-105
2021-10-14 14:47:20.908141,-78
2021-10-14 14:47:21.177416,-83
2021-10-14 14:47:21.177435,-83
2021-10-14 14:47:21.177445,-78
2021-10-14 14:47:21.177454,-76
2021-10-14 14:47:21.177462,-68
2021-10-14 14:47:21.177471,-66
2021-10-14 14:47:21.177479,-71
2021-10-14 14:47:21.177488,-71
2021-10-14 14:47:21.177496,-76
2021-10-14 14:47:21.177504,-85
2021-10-14 14:47:21.177513,-78
2021-10-14 14:47:21.177521,-63
2021-10-14 14:47:21.177529,-61
2021-10-14 14:47:21.177538,-66
2021-10-14 14:47:21.177546,-73
2021-10-14 14:47:21.177555,-78
2021-10-14 14:47:21.177563,-71
2021-10-14 14:47:21.177571,-56
2021-10-14 14:47:21.177580,-63
2021-10-14 14:47:21.177588,-80
2021-10-14 14:47:21.177597,-88
2021-10-14 14:47:21.177605,-78
2021-10-14 14:47:21.177613,-34
2021-10-14 14:47:21.177622,9
2021-10-14 14:47:21.177630,12
2021-10-14 14:47:21.177639,0
2021-10-14 14:47:21.177647,-7
2021-10-14 14:47:21.177655,-26
2021-10-14 14:47:21.177664,-44
2021-10-14 14:47:21.177672,-49
2021-10-14 14:47:21.357863,-46
2021-10-14 14:47:21.357883,-44
2021-10-14 14:47:21.357893,-41
2021-10-14 14:47:21.357901,-36
2021-10-14 14:47:21.357910,-34
2021-10-14 14:47:21.357918,-31
2021-10-14 14:47:21.357927,4
2021-10-14 14:47:21.357935,149
2021-10-14 14:47:21.357944,463
2021-10-14 14:47:21.357952,809
2021-10-14 14:47:21.357960,740
2021-10-14 14:47:21.357969,26
2021-10-14 14:47:21.357977,-480
2021-10-14 14:47:21.357985,-134
2021-10-14 14:47:21.357994,139
2021-10-14 14:47:21.358002,-53
2021-10-14 14:47:21.358010,-71
2021-10-14 14:47:21.358019,24
2021-10-14 14:47:21.358027,-17
2021-10-14 14:47:21.358035,-26
2021-10-14 14:47:21.358044,14
2021-10-14 14:47:21.358052,12
2021-10-14 14:47:21.358060,19
2021-10-14 14:47:21.358068,66
2021-10-14 14:47:21.358077,98
2021-10-14 14:47:21.358085,105
2021-10-14 14:47:21.358093,120
2021-10-14 14:47:21.358102,137
2021-10-14 14:47:21.358110,169
2021-10-14 14:47:21.358118,215
2021-10-14 14:47:21.582945,252
2021-10-14 14:47:21.582968,282
2021-10-14 14:47:21.582977,311
2021-10-14 14:47:21.582986,338
2021-10-14 14:47:21.582994,360
2021-10-14 14:47:21.583002,370
2021-10-14 14:47:21.583011,368
2021-10-14 14:47:21.583019,345
2021-10-14 14:47:21.583027,301
2021-10-14 14:47:21.583036,235
2021-10-14 14:47:21.583044,144
2021-10-14 14:47:21.583052,49
2021-10-14 14:47:21.583061,-31
2021-10-14 14:47:21.583069,-93
2021-10-14 14:47:21.583077,-132
2021-10-14 14:47:21.583086,-157
2021-10-14 14:47:21.583094,-164
2021-10-14 14:47:21.583102,-159
2021-10-14 14:47:21.583111,-159
2021-10-14 14:47:21.583119,-164
2021-10-14 14:47:21.583128,-161
2021-10-14 14:47:21.583136,-154
2021-10-14 14:47:21.583144,-139
2021-10-14 14:47:21.583153,-125
2021-10-14 14:47:21.583161,-115
2021-10-14 14:47:21.583169,-107
2021-10-14 14:47:21.583178,-103
2021-10-14 14:47:21.583186,-105
2021-10-14 14:47:21.583194,-95
2021-10-14 14:47:21.583202,-71
2021-10-14 14:47:21.807511,-66
2021-10-14 14:47:21.807533,-76
2021-10-14 14:47:21.807543,-76
2021-10-14 14:47:21.807552,-83
2021-10-14 14:47:21.807560,-93
2021-10-14 14:47:21.807569,-95
2021-10-14 14:47:21.807577,-93
2021-10-14 14:47:21.807586,-95
2021-10-14 14:47:21.807594,-93
2021-10-14 14:47:21.807603,-95
2021-10-14 14:47:21.807611,-98
2021-10-14 14:47:21.807620,-83
2021-10-14 14:47:21.807628,-76
2021-10-14 14:47:21.807637,-80
2021-10-14 14:47:21.807645,-80
2021-10-14 14:47:21.807654,-80
2021-10-14 14:47:21.807662,-80
2021-10-14 14:47:21.807671,-78
2021-10-14 14:47:21.807679,-78
2021-10-14 14:47:21.807688,-73
2021-10-14 14:47:21.807696,-68
2021-10-14 14:47:21.807704,-83
2021-10-14 14:47:21.807713,-95
2021-10-14 14:47:21.807721,-66
2021-10-14 14:47:21.807729,-14
2021-10-14 14:47:21.807738,-2
2021-10-14 14:47:21.807746,-14
2021-10-14 14:47:21.807755,-9
2021-10-14 14:47:21.807926,-9
2021-10-14 14:47:21.807936,-17
2021-10-14 14:47:22.077538,-22
2021-10-14 14:47:22.077560,-22
2021-10-14 14:47:22.077569,-17
2021-10-14 14:47:22.077578,-17
2021-10-14 14:47:22.077587,-17
2021-10-14 14:47:22.077595,-24
2021-10-14 14:47:22.077603,-31
2021-10-14 14:47:22.077612,-2
2021-10-14 14:47:22.077620,134
2021-10-14 14:47:22.077629,449
2021-10-14 14:47:22.077637,821
2021-10-14 14:47:22.077646,814
2021-10-14 14:47:22.077654,142
2021-10-14 14:47:22.077663,-453
2021-10-14 14:47:22.077672,-203
2021-10-14 14:47:22.077680,130
2021-10-14 14:47:22.077689,0
2021-10-14 14:47:22.077697,-46
2021-10-14 14:47:22.077706,56
2021-10-14 14:47:22.077714,31
2021-10-14 14:47:22.077722,-2
2021-10-14 14:47:22.077731,39
2021-10-14 14:47:22.077739,51
2021-10-14 14:47:22.077748,29
2021-10-14 14:47:22.077756,39
2021-10-14 14:47:22.077765,88
2021-10-14 14:47:22.077773,122
2021-10-14 14:47:22.077781,125
2021-10-14 14:47:22.077790,137
2021-10-14 14:47:22.077798,176
2021-10-14 14:47:22.257976,218
2021-10-14 14:47:22.257999,245
2021-10-14 14:47:22.258008,269
2021-10-14 14:47:22.258017,306
2021-10-14 14:47:22.258025,333
2021-10-14 14:47:22.258034,348
2021-10-14 14:47:22.258042,350
2021-10-14 14:47:22.258051,350
2021-10-14 14:47:22.258059,343
2021-10-14 14:47:22.258068,311
2021-10-14 14:47:22.258076,230
2021-10-14 14:47:22.258085,125
2021-10-14 14:47:22.258093,41
2021-10-14 14:47:22.258102,-19
2021-10-14 14:47:22.258110,-90
2021-10-14 14:47:22.258119,-157
2021-10-14 14:47:22.258127,-186
2021-10-14 14:47:22.258136,-196
2021-10-14 14:47:22.258144,-208
2021-10-14 14:47:22.258153,-215
2021-10-14 14:47:22.258161,-213
2021-10-14 14:47:22.258169,-203
2021-10-14 14:47:22.258178,-188
2021-10-14 14:47:22.258186,-181
2021-10-14 14:47:22.258195,-181
2021-10-14 14:47:22.258203,-171
2021-10-14 14:47:22.258212,-159
2021-10-14 14:47:22.258220,-154
2021-10-14 14:47:22.258229,-147
2021-10-14 14:47:22.258237,-137
2021-10-14 14:47:22.571030,-130
2021-10-14 14:47:22.571052,-125
2021-10-14 14:47:22.571062,-127
2021-10-14 14:47:22.571070,-122
2021-10-14 14:47:22.571079,-120
2021-10-14 14:47:22.571088,-127
2021-10-14 14:47:22.571096,-127
2021-10-14 14:47:22.571104,-117
2021-10-14 14:47:22.571113,-117
2021-10-14 14:47:22.571121,-130
2021-10-14 14:47:22.571130,-134
2021-10-14 14:47:22.571138,-122
2021-10-14 14:47:22.571146,-120
2021-10-14 14:47:22.571154,-122
2021-10-14 14:47:22.571163,-110
2021-10-14 14:47:22.571171,-100
2021-10-14 14:47:22.571179,-112
2021-10-14 14:47:22.571188,-110
2021-10-14 14:47:22.571196,-90
2021-10-14 14:47:22.571204,-85
2021-10-14 14:47:22.571213,-93
2021-10-14 14:47:22.571221,-100
2021-10-14 14:47:22.571229,-105
2021-10-14 14:47:22.571238,-90
2021-10-14 14:47:22.571246,-53
2021-10-14 14:47:22.571255,-31
2021-10-14 14:47:22.571263,-29
2021-10-14 14:47:22.571271,-29
2021-10-14 14:47:22.571279,-41
2021-10-14 14:47:22.571288,-61
2021-10-14 14:47:22.752909,-68
2021-10-14 14:47:22.752931,-68
2021-10-14 14:47:22.752940,-73
2021-10-14 14:47:22.752949,-85
2021-10-14 14:47:22.752958,-93
2021-10-14 14:47:22.752966,-85
2021-10-14 14:47:22.752975,-78
2021-10-14 14:47:22.752983,-73
2021-10-14 14:47:22.752992,-19
2021-10-14 14:47:22.753000,159
2021-10-14 14:47:22.753009,500
2021-10-14 14:47:22.753017,807
2021-10-14 14:47:22.753026,598
2021-10-14 14:47:22.753034,-193
2021-10-14 14:47:22.753043,-554
2021-10-14 14:47:22.753051,-110
2021-10-14 14:47:22.753060,85
2021-10-14 14:47:22.753068,-105
2021-10-14 14:47:22.753077,-56
2021-10-14 14:47:22.753085,34
2021-10-14 14:47:22.753094,-26
2021-10-14 14:47:22.753102,-44
2021-10-14 14:47:22.753110,-2
2021-10-14 14:47:22.753126,14
2021-10-14 14:47:22.753134,26
2021-10-14 14:47:22.753143,49
2021-10-14 14:47:22.753151,63
2021-10-14 14:47:22.753160,80
2021-10-14 14:47:22.753168,107
2021-10-14 14:47:22.753177,137
2021-10-14 14:47:22.977565,164
2021-10-14 14:47:22.977588,193
2021-10-14 14:47:22.977598,228
2021-10-14 14:47:22.977607,267
2021-10-14 14:47:22.977616,299
2021-10-14 14:47:22.977624,311
2021-10-14 14:47:22.977633,314
2021-10-14 14:47:22.977641,331
2021-10-14 14:47:22.977650,343
2021-10-14 14:47:22.977658,316
2021-10-14 14:47:22.977666,255
2021-10-14 14:47:22.977675,179
2021-10-14 14:47:22.977683,95
2021-10-14 14:47:22.977692,4
2021-10-14 14:47:22.977700,-85
2021-10-14 14:47:22.977709,-169
2021-10-14 14:47:22.977717,-211
2021-10-14 14:47:22.977725,-230
2021-10-14 14:47:22.977734,-247
2021-10-14 14:47:22.977742,-238
2021-10-14 14:47:22.977750,-225
2021-10-14 14:47:22.977759,-233
2021-10-14 14:47:22.977767,-230
2021-10-14 14:47:22.977776,-203
2021-10-14 14:47:22.977784,-181
2021-10-14 14:47:22.977792,-174
2021-10-14 14:47:22.977801,-164
2021-10-14 14:47:22.977809,-157
2021-10-14 14:47:22.977817,-157
2021-10-14 14:47:22.977826,-159
2021-10-14 14:47:23.202988,-147
2021-10-14 14:47:23.203010,-142
2021-10-14 14:47:23.203020,-147
2021-10-14 14:47:23.203029,-137
2021-10-14 14:47:23.203038,-115
2021-10-14 14:47:23.203046,-112
2021-10-14 14:47:23.203055,-120
2021-10-14 14:47:23.203063,-110
2021-10-14 14:47:23.203071,-115
2021-10-14 14:47:23.203080,-125
2021-10-14 14:47:23.203088,-112
2021-10-14 14:47:23.203097,-107
2021-10-14 14:47:23.203105,-115
2021-10-14 14:47:23.203114,-117
2021-10-14 14:47:23.203123,-112
2021-10-14 14:47:23.203131,-103
2021-10-14 14:47:23.203140,-100
2021-10-14 14:47:23.203148,-100
2021-10-14 14:47:23.203157,-100
2021-10-14 14:47:23.203165,-100
2021-10-14 14:47:23.203174,-95
2021-10-14 14:47:23.203184,-85
2021-10-14 14:47:23.203193,-88
2021-10-14 14:47:23.203202,-98
2021-10-14 14:47:23.203210,-100
2021-10-14 14:47:23.203219,-78
2021-10-14 14:47:23.203227,-36
2021-10-14 14:47:23.203236,-12
2021-10-14 14:47:23.203244,-12
2021-10-14 14:47:23.203252,-14
2021-10-14 14:47:23.472304,-31
2021-10-14 14:47:23.472327,-63
2021-10-14 14:47:23.472336,-71
2021-10-14 14:47:23.472345,-51
2021-10-14 14:47:23.472354,-44
2021-10-14 14:47:23.472362,-39
2021-10-14 14:47:23.472371,-26
2021-10-14 14:47:23.472379,-29
2021-10-14 14:47:23.472387,-53
2021-10-14 14:47:23.472396,-34
2021-10-14 14:47:23.472404,85
2021-10-14 14:47:23.472413,368
2021-10-14 14:47:23.472421,743
2021-10-14 14:47:23.472430,826
2021-10-14 14:47:23.472438,218
2021-10-14 14:47:23.472447,-468
2021-10-14 14:47:23.472455,-289
2021-10-14 14:47:23.472464,125
2021-10-14 14:47:23.472472,26
2021-10-14 14:47:23.472497,-61
2021-10-14 14:47:23.472506,46
2021-10-14 14:47:23.472514,39
2021-10-14 14:47:23.472523,4
2021-10-14 14:47:23.472531,53
2021-10-14 14:47:23.472539,76
2021-10-14 14:47:23.472548,71
2021-10-14 14:47:23.472556,98
2021-10-14 14:47:23.472565,120
2021-10-14 14:47:23.472573,132
2021-10-14 14:47:23.472581,161
2021-10-14 14:47:23.697530,186
2021-10-14 14:47:23.697552,208
2021-10-14 14:47:23.697562,235
2021-10-14 14:47:23.697571,257
2021-10-14 14:47:23.697580,277
2021-10-14 14:47:23.697588,301
2021-10-14 14:47:23.697597,311
2021-10-14 14:47:23.697605,306
2021-10-14 14:47:23.697614,321
2021-10-14 14:47:23.697622,331
2021-10-14 14:47:23.697631,316
2021-10-14 14:47:23.697639,294
2021-10-14 14:47:23.697647,245
2021-10-14 14:47:23.697656,144
2021-10-14 14:47:23.697664,44
2021-10-14 14:47:23.697672,-26
2021-10-14 14:47:23.697681,-90
2021-10-14 14:47:23.697689,-142
2021-10-14 14:47:23.697697,-179
2021-10-14 14:47:23.697705,-206
2021-10-14 14:47:23.697714,-220
2021-10-14 14:47:23.697722,-218
2021-10-14 14:47:23.697730,-206
2021-10-14 14:47:23.697739,-198
2021-10-14 14:47:23.697759,-196
2021-10-14 14:47:23.697768,-184
2021-10-14 14:47:23.697776,-171
2021-10-14 14:47:23.697785,-164
2021-10-14 14:47:23.697793,-159
2021-10-14 14:47:23.697801,-159
2021-10-14 14:47:23.877564,-152
2021-10-14 14:47:23.877585,-134
2021-10-14 14:47:23.877595,-120
2021-10-14 14:47:23.877604,-112
2021-10-14 14:47:23.877612,-115
2021-10-14 14:47:23.877621,-125
2021-10-14 14:47:23.877629,-139
2021-10-14 14:47:23.877638,-142
2021-10-14 14:47:23.877646,-130
2021-10-14 14:47:23.877654,-122
2021-10-14 14:47:23.877663,-120
2021-10-14 14:47:23.877671,-117
2021-10-14 14:47:23.877680,-115
2021-10-14 14:47:23.877688,-110
2021-10-14 14:47:23.877697,-107
2021-10-14 14:47:23.877705,-98
2021-10-14 14:47:23.877714,-83
2021-10-14 14:47:23.877722,-80
2021-10-14 14:47:23.877730,-80
2021-10-14 14:47:23.877739,-71
2021-10-14 14:47:23.877747,-73
2021-10-14 14:47:23.877756,-78
2021-10-14 14:47:23.877764,-71
2021-10-14 14:47:23.877773,-71
2021-10-14 14:47:23.877781,-76
2021-10-14 14:47:23.877789,-68
2021-10-14 14:47:23.877798,-63
2021-10-14 14:47:23.877806,-68
2021-10-14 14:47:23.877814,-68
2021-10-14 14:47:23.877823,-76
2021-10-14 14:47:24.191894,-88
2021-10-14 14:47:24.191916,-85
2021-10-14 14:47:24.191926,-56
2021-10-14 14:47:24.191935,-14
2021-10-14 14:47:24.191944,4
2021-10-14 14:47:24.191952,-2
2021-10-14 14:47:24.191961,-24
2021-10-14 14:47:24.191969,-41
2021-10-14 14:47:24.191978,-49
2021-10-14 14:47:24.191986,-61
2021-10-14 14:47:24.191995,-71
2021-10-14 14:47:24.192003,-80
2021-10-14 14:47:24.192011,-90
2021-10-14 14:47:24.192020,-85
2021-10-14 14:47:24.192028,-66
2021-10-14 14:47:24.192037,-49
2021-10-14 14:47:24.192045,-17
2021-10-14 14:47:24.192054,127
2021-10-14 14:47:24.192062,461
2021-10-14 14:47:24.192071,821
2021-10-14 14:47:24.192079,772
2021-10-14 14:47:24.192088,88
2021-10-14 14:47:24.192097,-449
2021-10-14 14:47:24.192105,-166
2021-10-14 14:47:24.192113,144
2021-10-14 14:47:24.192122,9
2021-10-14 14:47:24.192130,-29
2021-10-14 14:47:24.192139,61
2021-10-14 14:47:24.192147,29
2021-10-14 14:47:24.192156,2
2021-10-14 14:47:24.327471,56
2021-10-14 14:47:24.327492,80
2021-10-14 14:47:24.327501,71
2021-10-14 14:47:24.327510,73
2021-10-14 14:47:24.327518,80
2021-10-14 14:47:24.327527,93
2021-10-14 14:47:24.327535,125
2021-10-14 14:47:24.327544,157
2021-10-14 14:47:24.327552,181
2021-10-14 14:47:24.327560,206
2021-10-14 14:47:24.327569,230
2021-10-14 14:47:24.327577,255
2021-10-14 14:47:24.327586,291
2021-10-14 14:47:24.327594,321
2021-10-14 14:47:24.327603,336
2021-10-14 14:47:24.327611,338
2021-10-14 14:47:24.327619,328
2021-10-14 14:47:24.327628,311
2021-10-14 14:47:24.327636,287
2021-10-14 14:47:24.327644,240
2021-10-14 14:47:24.327653,164
2021-10-14 14:47:24.327661,68
2021-10-14 14:47:24.327669,-19
2021-10-14 14:47:24.327678,-88
2021-10-14 14:47:24.327686,-134
2021-10-14 14:47:24.327694,-171
2021-10-14 14:47:24.327702,-198
2021-10-14 14:47:24.327711,-211
2021-10-14 14:47:24.327719,-211
2021-10-14 14:47:24.327727,-196
2021-10-14 14:47:24.641601,-181
2021-10-14 14:47:24.641623,-174
2021-10-14 14:47:24.641633,-164
2021-10-14 14:47:24.641641,-152
2021-10-14 14:47:24.641650,-147
2021-10-14 14:47:24.641659,-144
2021-10-14 14:47:24.641667,-139
2021-10-14 14:47:24.641676,-127
2021-10-14 14:47:24.641684,-117
2021-10-14 14:47:24.641692,-122
2021-10-14 14:47:24.641701,-137
2021-10-14 14:47:24.641709,-144
2021-10-14 14:47:24.641718,-137
2021-10-14 14:47:24.641726,-130
2021-10-14 14:47:24.641735,-142
2021-10-14 14:47:24.641743,-154
2021-10-14 14:47:24.641752,-139
2021-10-14 14:47:24.641760,-134
2021-10-14 14:47:24.641768,-147
2021-10-14 14:47:24.641777,-137
2021-10-14 14:47:24.641785,-130
2021-10-14 14:47:24.641794,-144
2021-10-14 14:47:24.641802,-142
2021-10-14 14:47:24.641810,-122
2021-10-14 14:47:24.641819,-110
2021-10-14 14:47:24.641827,-105
2021-10-14 14:47:24.641835,-103
2021-10-14 14:47:24.641844,-105
2021-10-14 14:47:24.641852,-107
2021-10-14 14:47:24.641861,-107
2021-10-14 14:47:24.822935,-95
2021-10-14 14:47:24.822958,-73
2021-10-14 14:47:24.822968,-66
2021-10-14 14:47:24.822985,-73
2021-10-14 14:47:24.822994,-68
2021-10-14 14:47:24.823003,-58
2021-10-14 14:47:24.823012,-51
2021-10-14 14:47:24.823020,-51
2021-10-14 14:47:24.823029,-61
2021-10-14 14:47:24.823037,-76
2021-10-14 14:47:24.823046,-63
2021-10-14 14:47:24.823054,-12
2021-10-14 14:47:24.823063,12
2021-10-14 14:47:24.823071,-2
2021-10-14 14:47:24.823080,-14
2021-10-14 14:47:24.823088,-29
2021-10-14 14:47:24.823097,-61
2021-10-14 14:47:24.823105,-71
2021-10-14 14:47:24.823114,-44
2021-10-14 14:47:24.823122,-29
2021-10-14 14:47:24.823131,-41
2021-10-14 14:47:24.823139,-36
2021-10-14 14:47:24.823147,-24
2021-10-14 14:47:24.823156,-34
2021-10-14 14:47:24.823164,-29
2021-10-14 14:47:24.823173,85
2021-10-14 14:47:24.823181,368
2021-10-14 14:47:24.823189,728
2021-10-14 14:47:24.823198,797
2021-10-14 14:47:24.823206,196
2021-10-14 14:47:25.047573,-480
2021-10-14 14:47:25.047596,-304
2021-10-14 14:47:25.047605,95
2021-10-14 14:47:25.047614,-7
2021-10-14 14:47:25.047623,-85
2021-10-14 14:47:25.047632,19
2021-10-14 14:47:25.047640,-2
2021-10-14 14:47:25.047649,-39
2021-10-14 14:47:25.047657,-2
2021-10-14 14:47:25.047665,9
2021-10-14 14:47:25.047673,17
2021-10-14 14:47:25.047682,56
2021-10-14 14:47:25.047690,78
2021-10-14 14:47:25.047698,83
2021-10-14 14:47:25.047707,100
2021-10-14 14:47:25.047715,120
2021-10-14 14:47:25.047723,147
2021-10-14 14:47:25.047732,184
2021-10-14 14:47:25.047740,218
2021-10-14 14:47:25.047748,250
2021-10-14 14:47:25.047757,282
2021-10-14 14:47:25.047765,318
2021-10-14 14:47:25.047773,343
2021-10-14 14:47:25.047782,360
2021-10-14 14:47:25.047790,368
2021-10-14 14:47:25.047799,345
2021-10-14 14:47:25.047807,311
2021-10-14 14:47:25.047815,274
2021-10-14 14:47:25.047824,201
2021-10-14 14:47:25.047832,93
2021-10-14 14:47:25.272872,4
2021-10-14 14:47:25.272894,-56
2021-10-14 14:47:25.272905,-120
2021-10-14 14:47:25.272915,-166
2021-10-14 14:47:25.272924,-188
2021-10-14 14:47:25.272933,-198
2021-10-14 14:47:25.272943,-203
2021-10-14 14:47:25.272952,-206
2021-10-14 14:47:25.272961,-213
2021-10-14 14:47:25.272970,-206
2021-10-14 14:47:25.272979,-184
2021-10-14 14:47:25.272988,-176
2021-10-14 14:47:25.272997,-184
2021-10-14 14:47:25.273006,-166
2021-10-14 14:47:25.273016,-154
2021-10-14 14:47:25.273025,-174
2021-10-14 14:47:25.273034,-179
2021-10-14 14:47:25.273043,-161
2021-10-14 14:47:25.273052,-152
2021-10-14 14:47:25.273061,-154
2021-10-14 14:47:25.273070,-154
2021-10-14 14:47:25.273079,-144
2021-10-14 14:47:25.273088,-127
2021-10-14 14:47:25.273097,-127
2021-10-14 14:47:25.273106,-132
2021-10-14 14:47:25.273115,-127
2021-10-14 14:47:25.273124,-122
2021-10-14 14:47:25.273132,-122
2021-10-14 14:47:25.273141,-117
2021-10-14 14:47:25.273149,-112
2021-10-14 14:47:25.497947,-110
2021-10-14 14:47:25.497969,-103
2021-10-14 14:47:25.497979,-103
2021-10-14 14:47:25.497988,-95
2021-10-14 14:47:25.497996,-85
2021-10-14 14:47:25.498005,-88
2021-10-14 14:47:25.498013,-100
2021-10-14 14:47:25.498022,-105
2021-10-14 14:47:25.498030,-88
2021-10-14 14:47:25.498038,-76
2021-10-14 14:47:25.498047,-88
2021-10-14 14:47:25.498055,-93
2021-10-14 14:47:25.498064,-90
2021-10-14 14:47:25.498072,-100
2021-10-14 14:47:25.498081,-95
2021-10-14 14:47:25.498089,-53
2021-10-14 14:47:25.498097,-9
2021-10-14 14:47:25.498106,-4
2021-10-14 14:47:25.498114,-9
2021-10-14 14:47:25.498122,-19
2021-10-14 14:47:25.498131,-44
2021-10-14 14:47:25.498139,-61
2021-10-14 14:47:25.498147,-46
2021-10-14 14:47:25.498156,-44
2021-10-14 14:47:25.498164,-58
2021-10-14 14:47:25.498172,-53
2021-10-14 14:47:25.498181,-41
2021-10-14 14:47:25.498189,-49
2021-10-14 14:47:25.498197,-41
2021-10-14 14:47:25.498206,14
2021-10-14 14:47:25.722595,186
2021-10-14 14:47:25.722617,525
2021-10-14 14:47:25.722627,807
2021-10-14 14:47:25.722635,549
2021-10-14 14:47:25.722644,-240
2021-10-14 14:47:25.722653,-547
2021-10-14 14:47:25.722661,-88
2021-10-14 14:47:25.722670,98
2021-10-14 14:47:25.722678,-85
2021-10-14 14:47:25.722687,-46
2021-10-14 14:47:25.722695,39
2021-10-14 14:47:25.722703,-12
2021-10-14 14:47:25.722712,-24
2021-10-14 14:47:25.722720,26
2021-10-14 14:47:25.722729,39
2021-10-14 14:47:25.722737,46
2021-10-14 14:47:25.722746,85
2021-10-14 14:47:25.722754,110
2021-10-14 14:47:25.722763,117
2021-10-14 14:47:25.722771,154
2021-10-14 14:47:25.722780,184
2021-10-14 14:47:25.722788,181
2021-10-14 14:47:25.722796,203
2021-10-14 14:47:25.722805,255
2021-10-14 14:47:25.722813,306
2021-10-14 14:47:25.722824,345
2021-10-14 14:47:25.722832,355
2021-10-14 14:47:25.722841,358
2021-10-14 14:47:25.722849,380
2021-10-14 14:47:25.722857,375
2021-10-14 14:47:25.947584,341
2021-10-14 14:47:25.947605,306
2021-10-14 14:47:25.947615,242
2021-10-14 14:47:25.947624,132
2021-10-14 14:47:25.947632,31
2021-10-14 14:47:25.947641,-34
2021-10-14 14:47:25.947650,-85
2021-10-14 14:47:25.947658,-132
2021-10-14 14:47:25.947667,-166
2021-10-14 14:47:25.947675,-181
2021-10-14 14:47:25.947684,-179
2021-10-14 14:47:25.947692,-174
2021-10-14 14:47:25.947700,-181
2021-10-14 14:47:25.947709,-181
2021-10-14 14:47:25.947717,-171
2021-10-14 14:47:25.947726,-161
2021-10-14 14:47:25.947734,-144
2021-10-14 14:47:25.947742,-117
2021-10-14 14:47:25.947751,-110
2021-10-14 14:47:25.947759,-105
2021-10-14 14:47:25.947767,-85
2021-10-14 14:47:25.947776,-78
2021-10-14 14:47:25.947784,-80
2021-10-14 14:47:25.947793,-85
2021-10-14 14:47:25.947801,-83
2021-10-14 14:47:25.947809,-68
2021-10-14 14:47:25.947818,-61
2021-10-14 14:47:25.947826,-61
2021-10-14 14:47:25.947834,-61
2021-10-14 14:47:25.947843,-56
2021-10-14 14:47:26.172809,-39
2021-10-14 14:47:26.172830,-31
2021-10-14 14:47:26.172839,-39
2021-10-14 14:47:26.172848,-41
2021-10-14 14:47:26.172857,-46
2021-10-14 14:47:26.172865,-49
2021-10-14 14:47:26.172874,-46
2021-10-14 14:47:26.172882,-51
2021-10-14 14:47:26.172890,-53
2021-10-14 14:47:26.172899,-49
2021-10-14 14:47:26.172907,-41
2021-10-14 14:47:26.172915,-39
2021-10-14 14:47:26.172924,-41
2021-10-14 14:47:26.172932,-34
2021-10-14 14:47:26.172940,-29
2021-10-14 14:47:26.172949,-46
2021-10-14 14:47:26.172957,-53
2021-10-14 14:47:26.172966,-22
2021-10-14 14:47:26.172974,22
2021-10-14 14:47:26.172982,36
2021-10-14 14:47:26.172991,34
2021-10-14 14:47:26.172999,24
2021-10-14 14:47:26.173008,0
2021-10-14 14:47:26.173016,-26
2021-10-14 14:47:26.173025,-29
2021-10-14 14:47:26.173033,-14
2021-10-14 14:47:26.173041,-26
2021-10-14 14:47:26.173050,-51
2021-10-14 14:47:26.173058,-49
2021-10-14 14:47:26.173066,-46
2021-10-14 14:47:26.397947,-58
2021-10-14 14:47:26.397968,-14
2021-10-14 14:47:26.397978,161
2021-10-14 14:47:26.397987,490
2021-10-14 14:47:26.397995,797
2021-10-14 14:47:26.398004,655
2021-10-14 14:47:26.398012,-73
2021-10-14 14:47:26.398021,-500
2021-10-14 14:47:26.398029,-137
2021-10-14 14:47:26.398038,80
2021-10-14 14:47:26.398046,-103
2021-10-14 14:47:26.398055,-98
2021-10-14 14:47:26.398063,2
2021-10-14 14:47:26.398072,-26
2021-10-14 14:47:26.398080,-34
2021-10-14 14:47:26.398088,7
2021-10-14 14:47:26.398097,17
2021-10-14 14:47:26.398105,24
2021-10-14 14:47:26.398113,46
2021-10-14 14:47:26.398122,66
2021-10-14 14:47:26.398130,90
2021-10-14 14:47:26.398139,117
2021-10-14 14:47:26.398147,139
2021-10-14 14:47:26.398155,161
2021-10-14 14:47:26.398164,193
2021-10-14 14:47:26.398172,245
2021-10-14 14:47:26.398180,296
2021-10-14 14:47:26.398189,321
2021-10-14 14:47:26.398197,341
2021-10-14 14:47:26.398205,368
2021-10-14 14:47:26.712247,377
2021-10-14 14:47:26.712269,368
2021-10-14 14:47:26.712279,350
2021-10-14 14:47:26.712288,304
2021-10-14 14:47:26.712296,225
2021-10-14 14:47:26.712305,132
2021-10-14 14:47:26.712313,41
2021-10-14 14:47:26.712322,-31
2021-10-14 14:47:26.712331,-100
2021-10-14 14:47:26.712339,-159
2021-10-14 14:47:26.712347,-188
2021-10-14 14:47:26.712356,-193
2021-10-14 14:47:26.712364,-196
2021-10-14 14:47:26.712383,-193
2021-10-14 14:47:26.712393,-188
2021-10-14 14:47:26.712401,-188
2021-10-14 14:47:26.712410,-181
2021-10-14 14:47:26.712418,-161
2021-10-14 14:47:26.712427,-149
2021-10-14 14:47:26.712435,-132
2021-10-14 14:47:26.712443,-110
2021-10-14 14:47:26.712452,-107
2021-10-14 14:47:26.712460,-103
2021-10-14 14:47:26.712468,-90
2021-10-14 14:47:26.712477,-90
2021-10-14 14:47:26.712485,-100
2021-10-14 14:47:26.712494,-100
2021-10-14 14:47:26.712502,-93
2021-10-14 14:47:26.712510,-88
2021-10-14 14:47:26.712519,-85
2021-10-14 14:47:26.936979,-90
2021-10-14 14:47:26.937001,-103
2021-10-14 14:47:26.937011,-120
2021-10-14 14:47:26.937019,-120
2021-10-14 14:47:26.937028,-107
2021-10-14 14:47:26.937036,-90
2021-10-14 14:47:26.937045,-90
2021-10-14 14:47:26.937053,-100
2021-10-14 14:47:26.937062,-110
2021-10-14 14:47:26.937070,-112
2021-10-14 14:47:26.937078,-107
2021-10-14 14:47:26.937087,-103
2021-10-14 14:47:26.937095,-98
2021-10-14 14:47:26.937103,-105
2021-10-14 14:47:26.937112,-125
2021-10-14 14:47:26.937120,-120
2021-10-14 14:47:26.937128,-66
2021-10-14 14:47:26.937137,-24
2021-10-14 14:47:26.937145,-31
2021-10-14 14:47:26.937153,-49
2021-10-14 14:47:26.937162,-58
2021-10-14 14:47:26.937170,-78
2021-10-14 14:47:26.937178,-100
2021-10-14 14:47:26.937187,-107
2021-10-14 14:47:26.937195,-103
2021-10-14 14:47:26.937203,-105
2021-10-14 14:47:26.937212,-110
2021-10-14 14:47:26.937220,-110
2021-10-14 14:47:26.937228,-110
2021-10-14 14:47:26.937237,-100
2021-10-14 14:47:27.162470,-39
2021-10-14 14:47:27.162491,142
2021-10-14 14:47:27.162500,478
2021-10-14 14:47:27.162509,772
2021-10-14 14:47:27.162518,552
2021-10-14 14:47:27.162526,-242
2021-10-14 14:47:27.162535,-608
2021-10-14 14:47:27.162543,-164
2021-10-14 14:47:27.162552,49
2021-10-14 14:47:27.162560,-147
2021-10-14 14:47:27.162569,-122
2021-10-14 14:47:27.162577,-31
2021-10-14 14:47:27.162586,-83
2021-10-14 14:47:27.162594,-90
2021-10-14 14:47:27.162602,-31
2021-10-14 14:47:27.162611,-12
2021-10-14 14:47:27.162619,-7
2021-10-14 14:47:27.162627,24
2021-10-14 14:47:27.162636,44
2021-10-14 14:47:27.162644,56
2021-10-14 14:47:27.162653,85
2021-10-14 14:47:27.162661,112
2021-10-14 14:47:27.162670,132
2021-10-14 14:47:27.162678,171
2021-10-14 14:47:27.162686,225
2021-10-14 14:47:27.162694,269
2021-10-14 14:47:27.162703,301
2021-10-14 14:47:27.162711,338
2021-10-14 14:47:27.162720,365
2021-10-14 14:47:27.162728,377
2021-10-14 14:47:27.432619,387
2021-10-14 14:47:27.432640,382
2021-10-14 14:47:27.432650,314
2021-10-14 14:47:27.432659,191
2021-10-14 14:47:27.432667,66
2021-10-14 14:47:27.432676,-31
2021-10-14 14:47:27.432684,-117
2021-10-14 14:47:27.432693,-191
2021-10-14 14:47:27.432702,-238
2021-10-14 14:47:27.432710,-262
2021-10-14 14:47:27.432718,-264
2021-10-14 14:47:27.432727,-255
2021-10-14 14:47:27.432735,-257
2021-10-14 14:47:27.432743,-257
2021-10-14 14:47:27.432752,-242
2021-10-14 14:47:27.432760,-230
2021-10-14 14:47:27.432768,-223
2021-10-14 14:47:27.432777,-206
2021-10-14 14:47:27.432785,-198
2021-10-14 14:47:27.432793,-201
2021-10-14 14:47:27.432802,-203
2021-10-14 14:47:27.432828,-201
2021-10-14 14:47:27.432837,-193
2021-10-14 14:47:27.432845,-184
2021-10-14 14:47:27.432854,-174
2021-10-14 14:47:27.432862,-166
2021-10-14 14:47:27.432870,-164
2021-10-14 14:47:27.432878,-164
2021-10-14 14:47:27.432887,-152
2021-10-14 14:47:27.432895,-139
2021-10-14 14:47:27.567623,-139
2021-10-14 14:47:27.567645,-144
2021-10-14 14:47:27.567655,-149
2021-10-14 14:47:27.567664,-147
2021-10-14 14:47:27.567672,-134
2021-10-14 14:47:27.567681,-132
2021-10-14 14:47:27.567689,-134
2021-10-14 14:47:27.567697,-117
2021-10-14 14:47:27.567706,-107
2021-10-14 14:47:27.567714,-110
2021-10-14 14:47:27.567723,-105
2021-10-14 14:47:27.567732,-107
2021-10-14 14:47:27.567740,-127
2021-10-14 14:47:27.567748,-120
2021-10-14 14:47:27.567757,-78
2021-10-14 14:47:27.567765,-41
2021-10-14 14:47:27.567773,-22
2021-10-14 14:47:27.567782,-17
2021-10-14 14:47:27.567791,-22
2021-10-14 14:47:27.567799,-29
2021-10-14 14:47:27.567808,-46
2021-10-14 14:47:27.567816,-66
2021-10-14 14:47:27.567824,-58
2021-10-14 14:47:27.567833,-34
2021-10-14 14:47:27.567841,-39
2021-10-14 14:47:27.567849,-56
2021-10-14 14:47:27.567857,-58
2021-10-14 14:47:27.567866,-56
2021-10-14 14:47:27.567874,-31
2021-10-14 14:47:27.567882,80
2021-10-14 14:47:27.792939,368
2021-10-14 14:47:27.792961,745
2021-10-14 14:47:27.792971,797
2021-10-14 14:47:27.792979,147
2021-10-14 14:47:27.792988,-522
2021-10-14 14:47:27.792996,-294
2021-10-14 14:47:27.793005,112
2021-10-14 14:47:27.793013,-17
2021-10-14 14:47:27.793021,-105
2021-10-14 14:47:27.793030,4
2021-10-14 14:47:27.793038,-12
2021-10-14 14:47:27.793046,-56
2021-10-14 14:47:27.793055,-7
2021-10-14 14:47:27.793063,7
2021-10-14 14:47:27.793072,-19
2021-10-14 14:47:27.793080,7
2021-10-14 14:47:27.793088,61
2021-10-14 14:47:27.793097,83
2021-10-14 14:47:27.793105,95
2021-10-14 14:47:27.793113,130
2021-10-14 14:47:27.793122,184
2021-10-14 14:47:27.793130,223
2021-10-14 14:47:27.793138,240
2021-10-14 14:47:27.793147,282
2021-10-14 14:47:27.793155,333
2021-10-14 14:47:27.793164,370
2021-10-14 14:47:27.793172,402
2021-10-14 14:47:27.793180,419
2021-10-14 14:47:27.793189,404
2021-10-14 14:47:27.793197,380
2021-10-14 14:47:28.018001,360
2021-10-14 14:47:28.018024,294
2021-10-14 14:47:28.018034,176
2021-10-14 14:47:28.018042,63
2021-10-14 14:47:28.018051,-24
2021-10-14 14:47:28.018060,-105
2021-10-14 14:47:28.018069,-161
2021-10-14 14:47:28.018077,-181
2021-10-14 14:47:28.018086,-188
2021-10-14 14:47:28.018094,-201
2021-10-14 14:47:28.018103,-208
2021-10-14 14:47:28.018112,-198
2021-10-14 14:47:28.018120,-184
2021-10-14 14:47:28.018129,-179
2021-10-14 14:47:28.018137,-176
2021-10-14 14:47:28.018146,-164
2021-10-14 14:47:28.018154,-149
2021-10-14 14:47:28.018163,-137
2021-10-14 14:47:28.018171,-127
2021-10-14 14:47:28.018180,-120
2021-10-14 14:47:28.018188,-110
2021-10-14 14:47:28.018197,-100
2021-10-14 14:47:28.018205,-95
2021-10-14 14:47:28.018214,-98
2021-10-14 14:47:28.018222,-88
2021-10-14 14:47:28.018231,-53
2021-10-14 14:47:28.018239,-39
2021-10-14 14:47:28.018248,-53
2021-10-14 14:47:28.018256,-58
2021-10-14 14:47:28.018265,-53
2021-10-14 14:47:28.242970,-58
2021-10-14 14:47:28.242991,-63
2021-10-14 14:47:28.243001,-61
2021-10-14 14:47:28.243009,-58
2021-10-14 14:47:28.243018,-71
2021-10-14 14:47:28.243027,-80
2021-10-14 14:47:28.243035,-76
2021-10-14 14:47:28.243043,-66
2021-10-14 14:47:28.243052,-63
2021-10-14 14:47:28.243060,-71
2021-10-14 14:47:28.243069,-73
2021-10-14 14:47:28.243077,-76
2021-10-14 14:47:28.243086,-76
2021-10-14 14:47:28.243094,-78
2021-10-14 14:47:28.243102,-83
2021-10-14 14:47:28.243111,-83
2021-10-14 14:47:28.243119,-46
2021-10-14 14:47:28.243127,0
2021-10-14 14:47:28.243136,0
2021-10-14 14:47:28.243144,-29
2021-10-14 14:47:28.243152,-39
2021-10-14 14:47:28.243161,-34
2021-10-14 14:47:28.243169,-41
2021-10-14 14:47:28.243177,-46
2021-10-14 14:47:28.243186,-36
2021-10-14 14:47:28.243194,-34
2021-10-14 14:47:28.243202,-41
2021-10-14 14:47:28.243210,-46
2021-10-14 14:47:28.243219,-46
2021-10-14 14:47:28.243227,-41
2021-10-14 14:47:28.513015,-4
2021-10-14 14:47:28.513037,144
2021-10-14 14:47:28.513046,480
2021-10-14 14:47:28.513055,851
2021-10-14 14:47:28.513064,799
2021-10-14 14:47:28.513072,80
2021-10-14 14:47:28.513081,-473
2021-10-14 14:47:28.513090,-169
2021-10-14 14:47:28.513098,130
2021-10-14 14:47:28.513107,-41
2021-10-14 14:47:28.513115,-68
2021-10-14 14:47:28.513124,39
2021-10-14 14:47:28.513132,4
2021-10-14 14:47:28.513141,-19
2021-10-14 14:47:28.513149,17
2021-10-14 14:47:28.513158,7
2021-10-14 14:47:28.513166,-12
2021-10-14 14:47:28.513175,14
2021-10-14 14:47:28.513183,58
2021-10-14 14:47:28.513192,93
2021-10-14 14:47:28.513200,105
2021-10-14 14:47:28.513209,110
2021-10-14 14:47:28.513217,147
2021-10-14 14:47:28.513226,201
2021-10-14 14:47:28.513234,238
2021-10-14 14:47:28.513243,274
2021-10-14 14:47:28.513251,314
2021-10-14 14:47:28.513269,338
2021-10-14 14:47:28.513278,353
2021-10-14 14:47:28.513286,365
2021-10-14 14:47:28.781252,358
2021-10-14 14:47:28.781274,321
2021-10-14 14:47:28.781283,279
2021-10-14 14:47:28.781292,223
2021-10-14 14:47:28.781300,125
2021-10-14 14:47:28.781309,17
2021-10-14 14:47:28.781317,-63
2021-10-14 14:47:28.781325,-120
2021-10-14 14:47:28.781334,-176
