Time,ECG
2021-10-14 14:54:00.108435,-61
2021-10-14 14:54:00.108458,-63
2021-10-14 14:54:00.108467,-71
2021-10-14 14:54:00.108476,-73
2021-10-14 14:54:00.108485,-63
2021-10-14 14:54:00.108494,-58
2021-10-14 14:54:00.108502,-63
2021-10-14 14:54:00.108511,-71
2021-10-14 14:54:00.108519,-73
2021-10-14 14:54:00.108528,-73
2021-10-14 14:54:00.108537,-63
2021-10-14 14:54:00.108545,-61
2021-10-14 14:54:00.108554,-66
2021-10-14 14:54:00.108562,-63
2021-10-14 14:54:00.108571,-53
2021-10-14 14:54:00.108579,-51
2021-10-14 14:54:00.108589,-53
2021-10-14 14:54:00.108597,-56
2021-10-14 14:54:00.108606,-51
2021-10-14 14:54:00.108614,-17
2021-10-14 14:54:00.108623,19
2021-10-14 14:54:00.108631,22
2021-10-14 14:54:00.108640,12
2021-10-14 14:54:00.108648,9
2021-10-14 14:54:00.108657,7
2021-10-14 14:54:00.108665,-2
2021-10-14 14:54:00.108674,-9
2021-10-14 14:54:00.108682,-7
2021-10-14 14:54:00.108691,2
2021-10-14 14:54:00.108699,2
2021-10-14 14:54:00.333242,0
2021-10-14 14:54:00.333264,0
2021-10-14 14:54:00.333274,4
2021-10-14 14:54:00.333283,66
2021-10-14 14:54:00.333292,279
2021-10-14 14:54:00.333300,667
2021-10-14 14:54:00.333309,988
2021-10-14 14:54:00.333318,716
2021-10-14 14:54:00.333326,-122
2021-10-14 14:54:00.333335,-444
2021-10-14 14:54:00.333343,-22
2021-10-14 14:54:00.333352,98
2021-10-14 14:54:00.333361,-85
2021-10-14 14:54:00.333370,-19
2021-10-14 14:54:00.333378,53
2021-10-14 14:54:00.333387,0
2021-10-14 14:54:00.333403,17
2021-10-14 14:54:00.333412,61
2021-10-14 14:54:00.333421,56
2021-10-14 14:54:00.333429,58
2021-10-14 14:54:00.333438,76
2021-10-14 14:54:00.333446,85
2021-10-14 14:54:00.333454,107
2021-10-14 14:54:00.333463,132
2021-10-14 14:54:00.333471,154
2021-10-14 14:54:00.333480,184
2021-10-14 14:54:00.333488,218
2021-10-14 14:54:00.333497,255
2021-10-14 14:54:00.333505,296
2021-10-14 14:54:00.333513,336
2021-10-14 14:54:00.557864,372
2021-10-14 14:54:00.557886,404
2021-10-14 14:54:00.557895,431
2021-10-14 14:54:00.557904,441
2021-10-14 14:54:00.557912,431
2021-10-14 14:54:00.557921,404
2021-10-14 14:54:00.557929,358
2021-10-14 14:54:00.557938,284
2021-10-14 14:54:00.557946,184
2021-10-14 14:54:00.557955,83
2021-10-14 14:54:00.557963,-4
2021-10-14 14:54:00.557972,-83
2021-10-14 14:54:00.557980,-139
2021-10-14 14:54:00.557989,-166
2021-10-14 14:54:00.557997,-176
2021-10-14 14:54:00.558005,-184
2021-10-14 14:54:00.558014,-186
2021-10-14 14:54:00.558022,-181
2021-10-14 14:54:00.558031,-169
2021-10-14 14:54:00.558039,-164
2021-10-14 14:54:00.558047,-169
2021-10-14 14:54:00.558056,-161
2021-10-14 14:54:00.558064,-154
2021-10-14 14:54:00.558073,-154
2021-10-14 14:54:00.558081,-147
2021-10-14 14:54:00.558090,-132
2021-10-14 14:54:00.558098,-125
2021-10-14 14:54:00.558106,-132
2021-10-14 14:54:00.558115,-137
2021-10-14 14:54:00.558123,-130
2021-10-14 14:54:00.871902,-115
2021-10-14 14:54:00.871923,-112
2021-10-14 14:54:00.871933,-112
2021-10-14 14:54:00.871941,-107
2021-10-14 14:54:00.871950,-112
2021-10-14 14:54:00.871959,-122
2021-10-14 14:54:00.871967,-115
2021-10-14 14:54:00.871975,-100
2021-10-14 14:54:00.871984,-100
2021-10-14 14:54:00.871993,-107
2021-10-14 14:54:00.872001,-112
2021-10-14 14:54:00.872009,-110
2021-10-14 14:54:00.872018,-110
2021-10-14 14:54:00.872026,-107
2021-10-14 14:54:00.872035,-103
2021-10-14 14:54:00.872043,-105
2021-10-14 14:54:00.872052,-105
2021-10-14 14:54:00.872060,-98
2021-10-14 14:54:00.872069,-90
2021-10-14 14:54:00.872077,-88
2021-10-14 14:54:00.872086,-83
2021-10-14 14:54:00.872094,-90
2021-10-14 14:54:00.872103,-88
2021-10-14 14:54:00.872111,-73
2021-10-14 14:54:00.872119,-73
2021-10-14 14:54:00.872128,-85
2021-10-14 14:54:00.872136,-78
2021-10-14 14:54:00.872145,-71
2021-10-14 14:54:00.872153,-76
2021-10-14 14:54:00.872162,-68
2021-10-14 14:54:01.052870,-58
2021-10-14 14:54:01.052892,-53
2021-10-14 14:54:01.052901,-53
2021-10-14 14:54:01.052910,-61
2021-10-14 14:54:01.052919,-61
2021-10-14 14:54:01.052928,-51
2021-10-14 14:54:01.052936,-44
2021-10-14 14:54:01.052945,-39
2021-10-14 14:54:01.052953,-31
2021-10-14 14:54:01.052962,-41
2021-10-14 14:54:01.052970,-49
2021-10-14 14:54:01.052979,-41
2021-10-14 14:54:01.052987,-39
2021-10-14 14:54:01.052996,-31
2021-10-14 14:54:01.053004,0
2021-10-14 14:54:01.053013,17
2021-10-14 14:54:01.053021,14
2021-10-14 14:54:01.053030,12
2021-10-14 14:54:01.053038,7
2021-10-14 14:54:01.053047,7
2021-10-14 14:54:01.053055,-2
2021-10-14 14:54:01.053064,-26
2021-10-14 14:54:01.053073,-22
2021-10-14 14:54:01.053081,-2
2021-10-14 14:54:01.053090,0
2021-10-14 14:54:01.053098,-2
2021-10-14 14:54:01.053106,-4
2021-10-14 14:54:01.053115,2
2021-10-14 14:54:01.053123,76
2021-10-14 14:54:01.053132,311
2021-10-14 14:54:01.278257,709
2021-10-14 14:54:01.278279,991
2021-10-14 14:54:01.278288,623
2021-10-14 14:54:01.278296,-228
2021-10-14 14:54:01.278303,-422
2021-10-14 14:54:01.278311,39
2021-10-14 14:54:01.278318,105
2021-10-14 14:54:01.278326,-66
2021-10-14 14:54:01.278334,2
2021-10-14 14:54:01.278342,49
2021-10-14 14:54:01.278349,2
2021-10-14 14:54:01.278357,29
2021-10-14 14:54:01.278364,63
2021-10-14 14:54:01.278372,58
2021-10-14 14:54:01.278380,58
2021-10-14 14:54:01.278388,71
2021-10-14 14:54:01.278396,90
2021-10-14 14:54:01.278405,117
2021-10-14 14:54:01.278413,134
2021-10-14 14:54:01.278421,147
2021-10-14 14:54:01.278429,176
2021-10-14 14:54:01.278437,206
2021-10-14 14:54:01.278445,230
2021-10-14 14:54:01.278453,274
2021-10-14 14:54:01.278461,323
2021-10-14 14:54:01.278470,355
2021-10-14 14:54:01.278478,375
2021-10-14 14:54:01.278486,385
2021-10-14 14:54:01.278494,390
2021-10-14 14:54:01.278502,375
2021-10-14 14:54:01.503254,333
2021-10-14 14:54:01.503276,289
2021-10-14 14:54:01.503286,225
2021-10-14 14:54:01.503294,117
2021-10-14 14:54:01.503303,7
2021-10-14 14:54:01.503311,-73
2021-10-14 14:54:01.503319,-139
2021-10-14 14:54:01.503328,-196
2021-10-14 14:54:01.503336,-240
2021-10-14 14:54:01.503345,-257
2021-10-14 14:54:01.503353,-250
2021-10-14 14:54:01.503361,-247
2021-10-14 14:54:01.503370,-252
2021-10-14 14:54:01.503378,-250
2021-10-14 14:54:01.503386,-242
2021-10-14 14:54:01.503395,-233
2021-10-14 14:54:01.503403,-223
2021-10-14 14:54:01.503411,-211
2021-10-14 14:54:01.503419,-196
2021-10-14 14:54:01.503427,-188
2021-10-14 14:54:01.503435,-184
2021-10-14 14:54:01.503444,-174
2021-10-14 14:54:01.503452,-164
2021-10-14 14:54:01.503460,-152
2021-10-14 14:54:01.503468,-147
2021-10-14 14:54:01.503477,-147
2021-10-14 14:54:01.503485,-147
2021-10-14 14:54:01.503493,-144
2021-10-14 14:54:01.503501,-134
2021-10-14 14:54:01.503509,-122
2021-10-14 14:54:01.727846,-120
2021-10-14 14:54:01.727867,-117
2021-10-14 14:54:01.727877,-120
2021-10-14 14:54:01.727886,-120
2021-10-14 14:54:01.727894,-112
2021-10-14 14:54:01.727903,-110
2021-10-14 14:54:01.727912,-117
2021-10-14 14:54:01.727920,-120
2021-10-14 14:54:01.727928,-112
2021-10-14 14:54:01.727937,-105
2021-10-14 14:54:01.727946,-105
2021-10-14 14:54:01.727954,-100
2021-10-14 14:54:01.727962,-100
2021-10-14 14:54:01.727971,-110
2021-10-14 14:54:01.727979,-110
2021-10-14 14:54:01.727988,-100
2021-10-14 14:54:01.727996,-90
2021-10-14 14:54:01.728005,-83
2021-10-14 14:54:01.728013,-80
2021-10-14 14:54:01.728021,-80
2021-10-14 14:54:01.728030,-73
2021-10-14 14:54:01.728039,-76
2021-10-14 14:54:01.728047,-80
2021-10-14 14:54:01.728055,-83
2021-10-14 14:54:01.728064,-78
2021-10-14 14:54:01.728072,-71
2021-10-14 14:54:01.728081,-66
2021-10-14 14:54:01.728121,-68
2021-10-14 14:54:01.728136,-66
2021-10-14 14:54:01.728145,-53
2021-10-14 14:54:01.997874,-51
2021-10-14 14:54:01.997896,-66
2021-10-14 14:54:01.997906,-56
2021-10-14 14:54:01.997915,-19
2021-10-14 14:54:01.997923,0
2021-10-14 14:54:01.997932,-12
2021-10-14 14:54:01.997941,-36
2021-10-14 14:54:01.997949,-49
2021-10-14 14:54:01.997958,-58
2021-10-14 14:54:01.997966,-68
2021-10-14 14:54:01.997975,-63
2021-10-14 14:54:01.997983,-49
2021-10-14 14:54:01.997992,-51
2021-10-14 14:54:01.998001,-58
2021-10-14 14:54:01.998009,-61
2021-10-14 14:54:01.998017,-61
2021-10-14 14:54:01.998026,-19
2021-10-14 14:54:01.998035,127
2021-10-14 14:54:01.998043,431
2021-10-14 14:54:01.998052,772
2021-10-14 14:54:01.998062,718
2021-10-14 14:54:01.998070,-2
2021-10-14 14:54:01.998079,-588
2021-10-14 14:54:01.998087,-269
2021-10-14 14:54:01.998095,95
2021-10-14 14:54:01.998104,-39
2021-10-14 14:54:01.998112,-63
2021-10-14 14:54:01.998121,53
2021-10-14 14:54:01.998129,22
2021-10-14 14:54:01.998138,-4
2021-10-14 14:54:02.248268,41
2021-10-14 14:54:02.248291,63
2021-10-14 14:54:02.248301,66
2021-10-14 14:54:02.248309,83
2021-10-14 14:54:02.248316,100
2021-10-14 14:54:02.248324,110
2021-10-14 14:54:02.248332,130
2021-10-14 14:54:02.248340,164
2021-10-14 14:54:02.248348,191
2021-10-14 14:54:02.248440,213
2021-10-14 14:54:02.248461,245
2021-10-14 14:54:02.248471,282
2021-10-14 14:54:02.248480,331
2021-10-14 14:54:02.248489,380
2021-10-14 14:54:02.248498,412
2021-10-14 14:54:02.248506,422
2021-10-14 14:54:02.248515,429
2021-10-14 14:54:02.248523,426
2021-10-14 14:54:02.248532,392
2021-10-14 14:54:02.248540,348
2021-10-14 14:54:02.248548,287
2021-10-14 14:54:02.248557,186
2021-10-14 14:54:02.248565,73
2021-10-14 14:54:02.248574,-29
2021-10-14 14:54:02.248582,-115
2021-10-14 14:54:02.248591,-176
2021-10-14 14:54:02.248631,-220
2021-10-14 14:54:02.248669,-242
2021-10-14 14:54:02.248680,-250
2021-10-14 14:54:02.248688,-252
2021-10-14 14:54:02.402886,-252
2021-10-14 14:54:02.402909,-247
2021-10-14 14:54:02.402920,-238
2021-10-14 14:54:02.402929,-228
2021-10-14 14:54:02.402937,-220
2021-10-14 14:54:02.402946,-220
2021-10-14 14:54:02.402955,-213
2021-10-14 14:54:02.402963,-193
2021-10-14 14:54:02.402972,-179
2021-10-14 14:54:02.402981,-166
2021-10-14 14:54:02.402989,-157
2021-10-14 14:54:02.402998,-159
2021-10-14 14:54:02.403006,-159
2021-10-14 14:54:02.403015,-147
2021-10-14 14:54:02.403024,-137
2021-10-14 14:54:02.403032,-134
2021-10-14 14:54:02.403041,-134
2021-10-14 14:54:02.403049,-134
2021-10-14 14:54:02.403057,-132
2021-10-14 14:54:02.403066,-127
2021-10-14 14:54:02.403073,-125
2021-10-14 14:54:02.403081,-127
2021-10-14 14:54:02.403089,-122
2021-10-14 14:54:02.403097,-112
2021-10-14 14:54:02.403105,-110
2021-10-14 14:54:02.403114,-110
2021-10-14 14:54:02.403123,-103
2021-10-14 14:54:02.403131,-98
2021-10-14 14:54:02.403140,-93
2021-10-14 14:54:02.403149,-88
2021-10-14 14:54:02.628198,-88
2021-10-14 14:54:02.628224,-85
2021-10-14 14:54:02.628233,-78
2021-10-14 14:54:02.628242,-80
2021-10-14 14:54:02.628251,-88
2021-10-14 14:54:02.628259,-76
2021-10-14 14:54:02.628268,-61
2021-10-14 14:54:02.628276,-61
2021-10-14 14:54:02.628284,-61
2021-10-14 14:54:02.628293,-56
2021-10-14 14:54:02.628301,-63
2021-10-14 14:54:02.628310,-68
2021-10-14 14:54:02.628318,-63
2021-10-14 14:54:02.628326,-34
2021-10-14 14:54:02.628335,2
2021-10-14 14:54:02.628343,19
2021-10-14 14:54:02.628352,12
2021-10-14 14:54:02.628360,-2
2021-10-14 14:54:02.628368,2
2021-10-14 14:54:02.628377,0
2021-10-14 14:54:02.628385,-19
2021-10-14 14:54:02.628394,-22
2021-10-14 14:54:02.628402,-7
2021-10-14 14:54:02.628410,-4
2021-10-14 14:54:02.628419,-4
2021-10-14 14:54:02.628427,0
2021-10-14 14:54:02.628435,12
2021-10-14 14:54:02.628444,66
2021-10-14 14:54:02.628452,255
2021-10-14 14:54:02.628461,623
2021-10-14 14:54:02.942019,895
2021-10-14 14:54:02.942039,574
2021-10-14 14:54:02.942048,-230
2021-10-14 14:54:02.942055,-483
2021-10-14 14:54:02.942062,-39
2021-10-14 14:54:02.942070,100
2021-10-14 14:54:02.942077,-51
2021-10-14 14:54:02.942085,19
2021-10-14 14:54:02.942092,80
2021-10-14 14:54:02.942099,17
2021-10-14 14:54:02.942106,29
2021-10-14 14:54:02.942114,78
2021-10-14 14:54:02.942121,80
2021-10-14 14:54:02.942128,90
2021-10-14 14:54:02.942134,117
2021-10-14 14:54:02.942142,127
2021-10-14 14:54:02.942149,142
2021-10-14 14:54:02.942156,159
2021-10-14 14:54:02.942163,169
2021-10-14 14:54:02.942171,196
2021-10-14 14:54:02.942178,242
2021-10-14 14:54:02.942185,277
2021-10-14 14:54:02.942193,309
2021-10-14 14:54:02.942200,353
2021-10-14 14:54:02.942207,395
2021-10-14 14:54:02.942215,429
2021-10-14 14:54:02.942222,451
2021-10-14 14:54:02.942229,451
2021-10-14 14:54:02.942237,431
2021-10-14 14:54:02.942360,412
2021-10-14 14:54:03.123262,372
2021-10-14 14:54:03.123283,291
2021-10-14 14:54:03.123292,171
2021-10-14 14:54:03.123299,51
2021-10-14 14:54:03.123307,-31
2021-10-14 14:54:03.123314,-98
2021-10-14 14:54:03.123322,-159
2021-10-14 14:54:03.123329,-188
2021-10-14 14:54:03.123337,-206
2021-10-14 14:54:03.123344,-223
2021-10-14 14:54:03.123352,-223
2021-10-14 14:54:03.123359,-211
2021-10-14 14:54:03.123367,-201
2021-10-14 14:54:03.123375,-196
2021-10-14 14:54:03.123383,-201
2021-10-14 14:54:03.123392,-206
2021-10-14 14:54:03.123400,-188
2021-10-14 14:54:03.123407,-169
2021-10-14 14:54:03.123414,-159
2021-10-14 14:54:03.123421,-149
2021-10-14 14:54:03.123428,-142
2021-10-14 14:54:03.123436,-130
2021-10-14 14:54:03.123443,-112
2021-10-14 14:54:03.123451,-110
2021-10-14 14:54:03.123458,-103
2021-10-14 14:54:03.123466,-90
2021-10-14 14:54:03.123473,-90
2021-10-14 14:54:03.123481,-98
2021-10-14 14:54:03.123489,-85
2021-10-14 14:54:03.123496,-73
2021-10-14 14:54:03.393344,-76
2021-10-14 14:54:03.393365,-76
2021-10-14 14:54:03.393373,-78
2021-10-14 14:54:03.393381,-83
2021-10-14 14:54:03.393389,-80
2021-10-14 14:54:03.393397,-73
2021-10-14 14:54:03.393405,-73
2021-10-14 14:54:03.393412,-80
2021-10-14 14:54:03.393420,-85
2021-10-14 14:54:03.393442,-90
2021-10-14 14:54:03.393450,-85
2021-10-14 14:54:03.393458,-73
2021-10-14 14:54:03.393466,-61
2021-10-14 14:54:03.393473,-66
2021-10-14 14:54:03.393481,-76
2021-10-14 14:54:03.393489,-80
2021-10-14 14:54:03.393497,-83
2021-10-14 14:54:03.393504,-71
2021-10-14 14:54:03.393512,-36
2021-10-14 14:54:03.393519,-2
2021-10-14 14:54:03.393527,4
2021-10-14 14:54:03.393535,0
2021-10-14 14:54:03.393547,-2
2021-10-14 14:54:03.393555,-17
2021-10-14 14:54:03.393562,-39
2021-10-14 14:54:03.393570,-51
2021-10-14 14:54:03.393578,-51
2021-10-14 14:54:03.393585,-41
2021-10-14 14:54:03.393593,-36
2021-10-14 14:54:03.393601,-34
2021-10-14 14:54:03.617669,-22
2021-10-14 14:54:03.617695,-17
2021-10-14 14:54:03.617705,2
2021-10-14 14:54:03.617713,139
2021-10-14 14:54:03.617721,480
2021-10-14 14:54:03.617729,885
2021-10-14 14:54:03.617742,878
2021-10-14 14:54:03.617755,159
2021-10-14 14:54:03.617763,-468
2021-10-14 14:54:03.617771,-215
2021-10-14 14:54:03.617786,115
2021-10-14 14:54:03.617800,-24
2021-10-14 14:54:03.617813,-58
2021-10-14 14:54:03.617827,49
2021-10-14 14:54:03.617863,19
2021-10-14 14:54:03.617874,-4
2021-10-14 14:54:03.617887,46
2021-10-14 14:54:03.617900,68
2021-10-14 14:54:03.617913,66
2021-10-14 14:54:03.617922,78
2021-10-14 14:54:03.617931,93
2021-10-14 14:54:03.617942,110
2021-10-14 14:54:03.617950,134
2021-10-14 14:54:03.617959,159
2021-10-14 14:54:03.617968,186
2021-10-14 14:54:03.617977,218
2021-10-14 14:54:03.617985,257
2021-10-14 14:54:03.618001,291
2021-10-14 14:54:03.618008,326
2021-10-14 14:54:03.618015,368
2021-10-14 14:54:03.797906,404
2021-10-14 14:54:03.797927,434
2021-10-14 14:54:03.797937,449
2021-10-14 14:54:03.797946,444
2021-10-14 14:54:03.797955,424
2021-10-14 14:54:03.797964,392
2021-10-14 14:54:03.797972,316
2021-10-14 14:54:03.797981,203
2021-10-14 14:54:03.797989,98
2021-10-14 14:54:03.797998,7
2021-10-14 14:54:03.798007,-73
2021-10-14 14:54:03.798015,-132
2021-10-14 14:54:03.798024,-174
2021-10-14 14:54:03.798033,-196
2021-10-14 14:54:03.798041,-188
2021-10-14 14:54:03.798050,-174
2021-10-14 14:54:03.798058,-176
2021-10-14 14:54:03.798067,-174
2021-10-14 14:54:03.798075,-169
2021-10-14 14:54:03.798083,-169
2021-10-14 14:54:03.798092,-171
2021-10-14 14:54:03.798101,-164
2021-10-14 14:54:03.798109,-147
2021-10-14 14:54:03.798117,-134
2021-10-14 14:54:03.798126,-142
2021-10-14 14:54:03.798134,-144
2021-10-14 14:54:03.798143,-137
2021-10-14 14:54:03.798151,-139
2021-10-14 14:54:03.798160,-147
2021-10-14 14:54:03.798168,-149
2021-10-14 14:54:04.024763,-144
2021-10-14 14:54:04.024785,-142
2021-10-14 14:54:04.024793,-137
2021-10-14 14:54:04.024800,-137
2021-10-14 14:54:04.024807,-134
2021-10-14 14:54:04.024814,-130
2021-10-14 14:54:04.024821,-130
2021-10-14 14:54:04.024828,-134
2021-10-14 14:54:04.024835,-130
2021-10-14 14:54:04.024843,-127
2021-10-14 14:54:04.024850,-132
2021-10-14 14:54:04.024857,-139
2021-10-14 14:54:04.024865,-142
2021-10-14 14:54:04.024872,-132
2021-10-14 14:54:04.024879,-122
2021-10-14 14:54:04.024886,-122
2021-10-14 14:54:04.024893,-122
2021-10-14 14:54:04.024900,-115
2021-10-14 14:54:04.024908,-107
2021-10-14 14:54:04.024915,-107
2021-10-14 14:54:04.024922,-110
2021-10-14 14:54:04.024929,-98
2021-10-14 14:54:04.024936,-61
2021-10-14 14:54:04.024944,-31
2021-10-14 14:54:04.024951,-31
2021-10-14 14:54:04.024958,-34
2021-10-14 14:54:04.024965,-31
2021-10-14 14:54:04.024971,-36
2021-10-14 14:54:04.024978,-53
2021-10-14 14:54:04.024985,-61
2021-10-14 14:54:04.248277,-51
2021-10-14 14:54:04.248298,-41
2021-10-14 14:54:04.248308,-36
2021-10-14 14:54:04.248317,-39
2021-10-14 14:54:04.248326,-39
2021-10-14 14:54:04.248334,-39
2021-10-14 14:54:04.248343,24
2021-10-14 14:54:04.248351,255
2021-10-14 14:54:04.248360,655
2021-10-14 14:54:04.248368,949
2021-10-14 14:54:04.248377,615
2021-10-14 14:54:04.248385,-235
2021-10-14 14:54:04.248394,-495
2021-10-14 14:54:04.248402,-46
2021-10-14 14:54:04.248472,63
2021-10-14 14:54:04.248533,-110
2021-10-14 14:54:04.248552,-39
2021-10-14 14:54:04.248561,26
2021-10-14 14:54:04.248570,-22
2021-10-14 14:54:04.248578,-4
2021-10-14 14:54:04.248585,39
2021-10-14 14:54:04.248593,36
2021-10-14 14:54:04.248601,46
2021-10-14 14:54:04.248609,71
2021-10-14 14:54:04.248616,88
2021-10-14 14:54:04.248624,115
2021-10-14 14:54:04.248632,137
2021-10-14 14:54:04.248639,154
2021-10-14 14:54:04.248647,184
2021-10-14 14:54:04.248655,220
2021-10-14 14:54:04.473133,257
2021-10-14 14:54:04.473157,299
2021-10-14 14:54:04.473167,338
2021-10-14 14:54:04.473176,360
2021-10-14 14:54:04.473185,365
2021-10-14 14:54:04.473193,372
2021-10-14 14:54:04.473202,387
2021-10-14 14:54:04.473210,387
2021-10-14 14:54:04.473218,363
2021-10-14 14:54:04.473226,311
2021-10-14 14:54:04.473234,215
2021-10-14 14:54:04.473242,105
2021-10-14 14:54:04.473250,17
2021-10-14 14:54:04.473258,-56
2021-10-14 14:54:04.473266,-130
2021-10-14 14:54:04.473275,-186
2021-10-14 14:54:04.473284,-218
2021-10-14 14:54:04.473292,-225
2021-10-14 14:54:04.473300,-223
2021-10-14 14:54:04.473308,-220
2021-10-14 14:54:04.473317,-215
2021-10-14 14:54:04.473325,-213
2021-10-14 14:54:04.473333,-206
2021-10-14 14:54:04.473341,-186
2021-10-14 14:54:04.473350,-174
2021-10-14 14:54:04.473358,-166
2021-10-14 14:54:04.473366,-157
2021-10-14 14:54:04.473374,-154
2021-10-14 14:54:04.473382,-154
2021-10-14 14:54:04.473391,-137
2021-10-14 14:54:04.743196,-120
2021-10-14 14:54:04.743213,-115
2021-10-14 14:54:04.743218,-117
2021-10-14 14:54:04.743223,-125
2021-10-14 14:54:04.743227,-132
2021-10-14 14:54:04.743232,-125
2021-10-14 14:54:04.743236,-115
2021-10-14 14:54:04.743240,-112
2021-10-14 14:54:04.743245,-107
2021-10-14 14:54:04.743249,-107
2021-10-14 14:54:04.743253,-117
2021-10-14 14:54:04.743257,-120
2021-10-14 14:54:04.743262,-112
2021-10-14 14:54:04.743266,-112
2021-10-14 14:54:04.743271,-117
2021-10-14 14:54:04.743275,-120
2021-10-14 14:54:04.743279,-117
2021-10-14 14:54:04.743284,-120
2021-10-14 14:54:04.743288,-117
2021-10-14 14:54:04.743293,-112
2021-10-14 14:54:04.743297,-120
2021-10-14 14:54:04.743301,-142
2021-10-14 14:54:04.743305,-147
2021-10-14 14:54:04.743310,-112
2021-10-14 14:54:04.743314,-73
2021-10-14 14:54:04.743318,-68
2021-10-14 14:54:04.743323,-80
2021-10-14 14:54:04.743327,-80
2021-10-14 14:54:04.743331,-83
2021-10-14 14:54:04.743335,-100
2021-10-14 14:54:05.011630,-107
2021-10-14 14:54:05.011653,-90
2021-10-14 14:54:05.011663,-90
2021-10-14 14:54:05.011672,-110
2021-10-14 14:54:05.011681,-105
2021-10-14 14:54:05.011689,-90
2021-10-14 14:54:05.011698,-88
2021-10-14 14:54:05.011706,-51
2021-10-14 14:54:05.011715,103
2021-10-14 14:54:05.011723,431
2021-10-14 14:54:05.011732,780
2021-10-14 14:54:05.011740,682
2021-10-14 14:54:05.011749,-85
2021-10-14 14:54:05.011757,-625
2021-10-14 14:54:05.011766,-269
2021-10-14 14:54:05.011774,46
2021-10-14 14:54:05.011783,-103
2021-10-14 14:54:05.011791,-107
2021-10-14 14:54:05.011800,2
2021-10-14 14:54:05.011809,-36
2021-10-14 14:54:05.011817,-56
2021-10-14 14:54:05.011826,-4
2021-10-14 14:54:05.011834,7
2021-10-14 14:54:05.011842,7
2021-10-14 14:54:05.011851,39
2021-10-14 14:54:05.011859,66
2021-10-14 14:54:05.011867,76
2021-10-14 14:54:05.011876,95
2021-10-14 14:54:05.011884,132
2021-10-14 14:54:05.011893,166
2021-10-14 14:54:05.237944,198
2021-10-14 14:54:05.237970,238
2021-10-14 14:54:05.237980,274
2021-10-14 14:54:05.237989,309
2021-10-14 14:54:05.237997,355
2021-10-14 14:54:05.238006,397
2021-10-14 14:54:05.238014,412
2021-10-14 14:54:05.238023,412
2021-10-14 14:54:05.238031,402
2021-10-14 14:54:05.238040,377
2021-10-14 14:54:05.238048,333
2021-10-14 14:54:05.238057,252
2021-10-14 14:54:05.238065,157
2021-10-14 14:54:05.238074,53
2021-10-14 14:54:05.238082,-53
2021-10-14 14:54:05.238091,-142
2021-10-14 14:54:05.238099,-186
2021-10-14 14:54:05.238108,-206
2021-10-14 14:54:05.238116,-225
2021-10-14 14:54:05.238125,-238
2021-10-14 14:54:05.238133,-230
2021-10-14 14:54:05.238142,-230
2021-10-14 14:54:05.238150,-235
2021-10-14 14:54:05.238158,-218
2021-10-14 14:54:05.238167,-203
2021-10-14 14:54:05.238175,-206
2021-10-14 14:54:05.238183,-201
2021-10-14 14:54:05.238192,-184
2021-10-14 14:54:05.238200,-171
2021-10-14 14:54:05.238209,-164
2021-10-14 14:54:05.463339,-149
2021-10-14 14:54:05.463359,-132
2021-10-14 14:54:05.463367,-127
2021-10-14 14:54:05.463373,-125
2021-10-14 14:54:05.463380,-120
2021-10-14 14:54:05.463386,-115
2021-10-14 14:54:05.463393,-112
2021-10-14 14:54:05.463399,-120
2021-10-14 14:54:05.463406,-122
2021-10-14 14:54:05.463412,-117
2021-10-14 14:54:05.463419,-115
2021-10-14 14:54:05.463425,-112
2021-10-14 14:54:05.463431,-103
2021-10-14 14:54:05.463438,-103
2021-10-14 14:54:05.463444,-122
2021-10-14 14:54:05.463450,-132
2021-10-14 14:54:05.463456,-122
2021-10-14 14:54:05.463462,-115
2021-10-14 14:54:05.463469,-107
2021-10-14 14:54:05.463475,-83
2021-10-14 14:54:05.463481,-58
2021-10-14 14:54:05.463488,-58
2021-10-14 14:54:05.463494,-58
2021-10-14 14:54:05.463500,-63
2021-10-14 14:54:05.463506,-90
2021-10-14 14:54:05.463512,-105
2021-10-14 14:54:05.463519,-90
2021-10-14 14:54:05.463525,-78
2021-10-14 14:54:05.463531,-78
2021-10-14 14:54:05.463538,-76
2021-10-14 14:54:05.642854,-73
2021-10-14 14:54:05.642874,-73
2021-10-14 14:54:05.642884,-73
2021-10-14 14:54:05.642892,-53
2021-10-14 14:54:05.642901,58
2021-10-14 14:54:05.642910,358
2021-10-14 14:54:05.642918,726
2021-10-14 14:54:05.642927,748
2021-10-14 14:54:05.642935,110
2021-10-14 14:54:05.642944,-544
2021-10-14 14:54:05.642952,-348
2021-10-14 14:54:05.642961,49
2021-10-14 14:54:05.642969,-41
2021-10-14 14:54:05.642978,-110
2021-10-14 14:54:05.642986,2
2021-10-14 14:54:05.642994,-7
2021-10-14 14:54:05.643003,-39
2021-10-14 14:54:05.643011,12
2021-10-14 14:54:05.643019,31
2021-10-14 14:54:05.643028,17
2021-10-14 14:54:05.643036,49
2021-10-14 14:54:05.643045,78
2021-10-14 14:54:05.643053,88
2021-10-14 14:54:05.643061,112
2021-10-14 14:54:05.643070,144
2021-10-14 14:54:05.643078,161
2021-10-14 14:54:05.643087,186
2021-10-14 14:54:05.643095,230
2021-10-14 14:54:05.643103,277
2021-10-14 14:54:05.643111,316
2021-10-14 14:54:05.867949,353
2021-10-14 14:54:05.867971,382
2021-10-14 14:54:05.867981,402
2021-10-14 14:54:05.867990,412
2021-10-14 14:54:05.867998,417
2021-10-14 14:54:05.868007,397
2021-10-14 14:54:05.868016,341
2021-10-14 14:54:05.868024,260
2021-10-14 14:54:05.868033,164
2021-10-14 14:54:05.868041,56
2021-10-14 14:54:05.868050,-36
2021-10-14 14:54:05.868058,-105
2021-10-14 14:54:05.868067,-164
2021-10-14 14:54:05.868075,-196
2021-10-14 14:54:05.868084,-201
2021-10-14 14:54:05.868092,-203
2021-10-14 14:54:05.868100,-206
2021-10-14 14:54:05.868109,-203
2021-10-14 14:54:05.868117,-196
2021-10-14 14:54:05.868126,-184
2021-10-14 14:54:05.868134,-186
2021-10-14 14:54:05.868142,-181
2021-10-14 14:54:05.868151,-161
2021-10-14 14:54:05.868159,-149
2021-10-14 14:54:05.868167,-149
2021-10-14 14:54:05.868181,-137
2021-10-14 14:54:05.868190,-117
2021-10-14 14:54:05.868199,-115
2021-10-14 14:54:05.868221,-117
2021-10-14 14:54:05.868245,-103
2021-10-14 14:54:06.093626,-95
2021-10-14 14:54:06.093649,-98
2021-10-14 14:54:06.093658,-93
2021-10-14 14:54:06.093666,-78
2021-10-14 14:54:06.093674,-76
2021-10-14 14:54:06.093682,-88
2021-10-14 14:54:06.093690,-88
2021-10-14 14:54:06.093698,-73
2021-10-14 14:54:06.093707,-73
2021-10-14 14:54:06.093715,-78
2021-10-14 14:54:06.093724,-76
2021-10-14 14:54:06.093732,-76
2021-10-14 14:54:06.093740,-80
2021-10-14 14:54:06.093749,-85
2021-10-14 14:54:06.093757,-83
2021-10-14 14:54:06.093766,-61
2021-10-14 14:54:06.093774,-24
2021-10-14 14:54:06.093782,-14
2021-10-14 14:54:06.093791,-12
2021-10-14 14:54:06.093799,4
2021-10-14 14:54:06.093807,-4
2021-10-14 14:54:06.093816,-36
2021-10-14 14:54:06.093824,-41
2021-10-14 14:54:06.093832,-26
2021-10-14 14:54:06.093840,-22
2021-10-14 14:54:06.093849,-22
2021-10-14 14:54:06.093857,-22
2021-10-14 14:54:06.093865,-17
2021-10-14 14:54:06.093885,-12
2021-10-14 14:54:06.093895,-12
2021-10-14 14:54:06.362845,24
2021-10-14 14:54:06.362866,203
2021-10-14 14:54:06.362876,576
2021-10-14 14:54:06.362885,922
2021-10-14 14:54:06.362893,731
2021-10-14 14:54:06.362902,-63
2021-10-14 14:54:06.362910,-463
2021-10-14 14:54:06.362919,-63
2021-10-14 14:54:06.362927,130
2021-10-14 14:54:06.362936,-53
2021-10-14 14:54:06.362944,-26
2021-10-14 14:54:06.362953,56
2021-10-14 14:54:06.362961,12
2021-10-14 14:54:06.362969,19
2021-10-14 14:54:06.362978,61
2021-10-14 14:54:06.362986,56
2021-10-14 14:54:06.362995,61
2021-10-14 14:54:06.363003,90
2021-10-14 14:54:06.363011,95
2021-10-14 14:54:06.363020,103
2021-10-14 14:54:06.363028,142
2021-10-14 14:54:06.363036,166
2021-10-14 14:54:06.363045,174
2021-10-14 14:54:06.363053,206
2021-10-14 14:54:06.363062,250
2021-10-14 14:54:06.363070,274
2021-10-14 14:54:06.363078,294
2021-10-14 14:54:06.363087,326
2021-10-14 14:54:06.363095,355
2021-10-14 14:54:06.363103,370
2021-10-14 14:54:06.588391,377
2021-10-14 14:54:06.588408,377
2021-10-14 14:54:06.588414,345
2021-10-14 14:54:06.588418,277
2021-10-14 14:54:06.588423,184
2021-10-14 14:54:06.588427,95
2021-10-14 14:54:06.588431,14
2021-10-14 14:54:06.588436,-68
2021-10-14 14:54:06.588440,-137
2021-10-14 14:54:06.588445,-179
2021-10-14 14:54:06.588449,-201
2021-10-14 14:54:06.588453,-203
2021-10-14 14:54:06.588458,-196
2021-10-14 14:54:06.588462,-191
2021-10-14 14:54:06.588467,-193
2021-10-14 14:54:06.588471,-193
2021-10-14 14:54:06.588475,-179
2021-10-14 14:54:06.588480,-164
2021-10-14 14:54:06.588484,-157
2021-10-14 14:54:06.588488,-142
2021-10-14 14:54:06.588493,-130
2021-10-14 14:54:06.588497,-130
2021-10-14 14:54:06.588501,-130
2021-10-14 14:54:06.588506,-117
2021-10-14 14:54:06.588510,-100
2021-10-14 14:54:06.588514,-93
2021-10-14 14:54:06.588519,-93
2021-10-14 14:54:06.588523,-93
2021-10-14 14:54:06.588527,-88
2021-10-14 14:54:06.588532,-78
2021-10-14 14:54:06.857960,-73
2021-10-14 14:54:06.857982,-73
2021-10-14 14:54:06.857991,-76
2021-10-14 14:54:06.858000,-76
2021-10-14 14:54:06.858009,-76
2021-10-14 14:54:06.858017,-71
2021-10-14 14:54:06.858025,-71
2021-10-14 14:54:06.858034,-68
2021-10-14 14:54:06.858042,-68
2021-10-14 14:54:06.858050,-73
2021-10-14 14:54:06.858059,-73
2021-10-14 14:54:06.858067,-66
2021-10-14 14:54:06.858076,-61
2021-10-14 14:54:06.858084,-61
2021-10-14 14:54:06.858093,-61
2021-10-14 14:54:06.858101,-63
2021-10-14 14:54:06.858109,-61
2021-10-14 14:54:06.858118,-51
2021-10-14 14:54:06.858126,-41
2021-10-14 14:54:06.858134,-46
2021-10-14 14:54:06.858143,-63
2021-10-14 14:54:06.858151,-58
2021-10-14 14:54:06.858159,-9
2021-10-14 14:54:06.858168,29
2021-10-14 14:54:06.858176,24
2021-10-14 14:54:06.858185,17
2021-10-14 14:54:06.858193,14
2021-10-14 14:54:06.858202,0
2021-10-14 14:54:06.858210,-14
2021-10-14 14:54:06.858218,-14
2021-10-14 14:54:07.126985,-12
2021-10-14 14:54:07.127006,-19
2021-10-14 14:54:07.127016,-29
2021-10-14 14:54:07.127025,-29
2021-10-14 14:54:07.127033,-26
2021-10-14 14:54:07.127042,-19
2021-10-14 14:54:07.127050,39
2021-10-14 14:54:07.127058,247
2021-10-14 14:54:07.127067,633
2021-10-14 14:54:07.127075,949
2021-10-14 14:54:07.127084,674
2021-10-14 14:54:07.127092,-159
2021-10-14 14:54:07.127100,-468
2021-10-14 14:54:07.127109,-36
2021-10-14 14:54:07.127117,85
2021-10-14 14:54:07.127126,-103
2021-10-14 14:54:07.127134,-34
2021-10-14 14:54:07.127142,44
2021-10-14 14:54:07.127151,-7
2021-10-14 14:54:07.127159,2
2021-10-14 14:54:07.127167,34
2021-10-14 14:54:07.127176,26
2021-10-14 14:54:07.127184,39
2021-10-14 14:54:07.127192,66
2021-10-14 14:54:07.127201,73
2021-10-14 14:54:07.127209,83
2021-10-14 14:54:07.127217,105
2021-10-14 14:54:07.127226,125
2021-10-14 14:54:07.127234,149
2021-10-14 14:54:07.127242,188
2021-10-14 14:54:07.308353,225
2021-10-14 14:54:07.308375,255
2021-10-14 14:54:07.308384,291
2021-10-14 14:54:07.308393,326
2021-10-14 14:54:07.308402,348
2021-10-14 14:54:07.308410,370
2021-10-14 14:54:07.308419,387
2021-10-14 14:54:07.308427,380
2021-10-14 14:54:07.308436,348
2021-10-14 14:54:07.308444,301
2021-10-14 14:54:07.308453,242
2021-10-14 14:54:07.308479,149
2021-10-14 14:54:07.308492,49
2021-10-14 14:54:07.308501,-39
2021-10-14 14:54:07.308509,-112
2021-10-14 14:54:07.308518,-157
2021-10-14 14:54:07.308526,-176
2021-10-14 14:54:07.308535,-186
2021-10-14 14:54:07.308543,-196
2021-10-14 14:54:07.308552,-203
2021-10-14 14:54:07.308560,-196
2021-10-14 14:54:07.308568,-181
2021-10-14 14:54:07.308577,-171
2021-10-14 14:54:07.308585,-169
2021-10-14 14:54:07.308594,-161
2021-10-14 14:54:07.308602,-152
2021-10-14 14:54:07.308610,-142
2021-10-14 14:54:07.308619,-132
2021-10-14 14:54:07.308627,-125
2021-10-14 14:54:07.308635,-115
2021-10-14 14:54:07.532972,-110
2021-10-14 14:54:07.532995,-107
2021-10-14 14:54:07.533004,-107
2021-10-14 14:54:07.533013,-107
2021-10-14 14:54:07.533021,-103
2021-10-14 14:54:07.533030,-98
2021-10-14 14:54:07.533038,-105
2021-10-14 14:54:07.533047,-110
2021-10-14 14:54:07.533056,-105
2021-10-14 14:54:07.533064,-107
2021-10-14 14:54:07.533073,-112
2021-10-14 14:54:07.533081,-110
2021-10-14 14:54:07.533090,-112
2021-10-14 14:54:07.533098,-120
2021-10-14 14:54:07.533107,-115
2021-10-14 14:54:07.533115,-110
2021-10-14 14:54:07.533124,-110
2021-10-14 14:54:07.533132,-103
2021-10-14 14:54:07.533140,-98
2021-10-14 14:54:07.533148,-103
2021-10-14 14:54:07.533157,-100
2021-10-14 14:54:07.533165,-98
2021-10-14 14:54:07.533174,-93
2021-10-14 14:54:07.533182,-80
2021-10-14 14:54:07.533190,-76
2021-10-14 14:54:07.533199,-78
2021-10-14 14:54:07.533207,-76
2021-10-14 14:54:07.533216,-68
2021-10-14 14:54:07.533224,-63
2021-10-14 14:54:07.533232,-61
2021-10-14 14:54:07.713330,-66
2021-10-14 14:54:07.713352,-71
2021-10-14 14:54:07.713362,-66
2021-10-14 14:54:07.713371,-49
2021-10-14 14:54:07.713379,-19
2021-10-14 14:54:07.713388,0
2021-10-14 14:54:07.713396,-2
2021-10-14 14:54:07.713405,-9
2021-10-14 14:54:07.713413,-14
2021-10-14 14:54:07.713422,-31
2021-10-14 14:54:07.713430,-44
2021-10-14 14:54:07.713439,-44
2021-10-14 14:54:07.713447,-41
2021-10-14 14:54:07.713456,-44
2021-10-14 14:54:07.713464,-41
2021-10-14 14:54:07.713473,-36
2021-10-14 14:54:07.713481,-41
2021-10-14 14:54:07.713490,-29
2021-10-14 14:54:07.713498,66
2021-10-14 14:54:07.713507,348
2021-10-14 14:54:07.713516,748
2021-10-14 14:54:07.713524,890
2021-10-14 14:54:07.713532,321
2021-10-14 14:54:07.713541,-471
2021-10-14 14:54:07.713550,-407
2021-10-14 14:54:07.713558,53
2021-10-14 14:54:07.713567,7
2021-10-14 14:54:07.713575,-112
2021-10-14 14:54:07.713584,-2
2021-10-14 14:54:07.713592,0
2021-10-14 14:54:07.937951,-58
2021-10-14 14:54:07.937972,-12
2021-10-14 14:54:07.937982,22
2021-10-14 14:54:07.937991,7
2021-10-14 14:54:07.937999,22
2021-10-14 14:54:07.938008,41
2021-10-14 14:54:07.938016,46
2021-10-14 14:54:07.938025,73
2021-10-14 14:54:07.938033,100
2021-10-14 14:54:07.938042,122
2021-10-14 14:54:07.938050,149
2021-10-14 14:54:07.938059,179
2021-10-14 14:54:07.938067,198
2021-10-14 14:54:07.938075,220
2021-10-14 14:54:07.938084,255
2021-10-14 14:54:07.938092,291
2021-10-14 14:54:07.938101,316
2021-10-14 14:54:07.938109,323
2021-10-14 14:54:07.938117,326
2021-10-14 14:54:07.938126,331
2021-10-14 14:54:07.938134,311
2021-10-14 14:54:07.938142,257
2021-10-14 14:54:07.938151,174
2021-10-14 14:54:07.938159,80
2021-10-14 14:54:07.938168,-9
2021-10-14 14:54:07.938176,-90
2021-10-14 14:54:07.938184,-161
2021-10-14 14:54:07.938193,-203
2021-10-14 14:54:07.938201,-215
2021-10-14 14:54:07.938209,-225
2021-10-14 14:54:08.163013,-235
2021-10-14 14:54:08.163035,-228
2021-10-14 14:54:08.163045,-213
2021-10-14 14:54:08.163054,-215
2021-10-14 14:54:08.163062,-215
2021-10-14 14:54:08.163071,-201
2021-10-14 14:54:08.163079,-191
2021-10-14 14:54:08.163088,-186
2021-10-14 14:54:08.163096,-181
2021-10-14 14:54:08.163105,-164
2021-10-14 14:54:08.163113,-164
2021-10-14 14:54:08.163122,-171
2021-10-14 14:54:08.163130,-149
2021-10-14 14:54:08.163139,-127
2021-10-14 14:54:08.163147,-132
2021-10-14 14:54:08.163156,-139
2021-10-14 14:54:08.163165,-137
2021-10-14 14:54:08.163173,-134
2021-10-14 14:54:08.163181,-132
2021-10-14 14:54:08.163190,-130
2021-10-14 14:54:08.163198,-130
2021-10-14 14:54:08.163207,-130
2021-10-14 14:54:08.163215,-127
2021-10-14 14:54:08.163223,-122
2021-10-14 14:54:08.163232,-117
2021-10-14 14:54:08.163240,-115
2021-10-14 14:54:08.163249,-110
2021-10-14 14:54:08.163257,-107
2021-10-14 14:54:08.163265,-107
2021-10-14 14:54:08.163274,-100
2021-10-14 14:54:08.432742,-90
2021-10-14 14:54:08.432763,-93
2021-10-14 14:54:08.432773,-93
2021-10-14 14:54:08.432782,-90
2021-10-14 14:54:08.432790,-95
2021-10-14 14:54:08.432799,-93
2021-10-14 14:54:08.432807,-83
2021-10-14 14:54:08.432816,-80
2021-10-14 14:54:08.432824,-80
2021-10-14 14:54:08.432833,-78
2021-10-14 14:54:08.432841,-73
2021-10-14 14:54:08.432850,-68
2021-10-14 14:54:08.432858,-68
2021-10-14 14:54:08.432867,-71
2021-10-14 14:54:08.432875,-73
2021-10-14 14:54:08.432883,-53
2021-10-14 14:54:08.432892,-19
2021-10-14 14:54:08.432900,0
2021-10-14 14:54:08.432908,-9
2021-10-14 14:54:08.432917,-19
2021-10-14 14:54:08.432925,-19
2021-10-14 14:54:08.432933,-34
2021-10-14 14:54:08.432942,-51
2021-10-14 14:54:08.432950,-51
2021-10-14 14:54:08.432958,-41
2021-10-14 14:54:08.432967,-34
2021-10-14 14:54:08.432975,-34
2021-10-14 14:54:08.432984,-36
2021-10-14 14:54:08.432992,-36
2021-10-14 14:54:08.433000,-14
2021-10-14 14:54:08.747412,93
2021-10-14 14:54:08.747440,363
2021-10-14 14:54:08.747450,726
2021-10-14 14:54:08.747458,802
2021-10-14 14:54:08.747467,188
2021-10-14 14:54:08.747476,-529
2021-10-14 14:54:08.747484,-372
2021-10-14 14:54:08.747493,73
2021-10-14 14:54:08.747501,0
2021-10-14 14:54:08.747510,-103
2021-10-14 14:54:08.747518,9
2021-10-14 14:54:08.747527,14
2021-10-14 14:54:08.747535,-14
2021-10-14 14:54:08.747543,36
2021-10-14 14:54:08.747552,63
2021-10-14 14:54:08.747560,51
2021-10-14 14:54:08.747568,71
2021-10-14 14:54:08.747577,100
2021-10-14 14:54:08.747585,115
2021-10-14 14:54:08.747594,134
2021-10-14 14:54:08.747602,159
2021-10-14 14:54:08.747610,179
2021-10-14 14:54:08.747619,208
2021-10-14 14:54:08.747627,245
2021-10-14 14:54:08.747635,282
2021-10-14 14:54:08.747644,321
2021-10-14 14:54:08.747652,363
2021-10-14 14:54:08.747661,392
2021-10-14 14:54:08.747669,414
2021-10-14 14:54:08.747677,429
2021-10-14 14:54:08.882961,429
2021-10-14 14:54:08.882982,426
2021-10-14 14:54:08.882991,397
2021-10-14 14:54:08.883000,333
2021-10-14 14:54:08.883008,252
2021-10-14 14:54:08.883017,159
2021-10-14 14:54:08.883025,66
2021-10-14 14:54:08.883034,-9
2021-10-14 14:54:08.883042,-73
2021-10-14 14:54:08.883050,-125
2021-10-14 14:54:08.883059,-144
2021-10-14 14:54:08.883067,-147
2021-10-14 14:54:08.883075,-147
2021-10-14 14:54:08.883084,-142
2021-10-14 14:54:08.883092,-139
2021-10-14 14:54:08.883100,-139
2021-10-14 14:54:08.883109,-132
2021-10-14 14:54:08.883117,-122
2021-10-14 14:54:08.883125,-110
2021-10-14 14:54:08.883134,-90
2021-10-14 14:54:08.883142,-88
2021-10-14 14:54:08.883150,-90
2021-10-14 14:54:08.883159,-85
2021-10-14 14:54:08.883167,-93
2021-10-14 14:54:08.883175,-95
2021-10-14 14:54:08.883184,-88
2021-10-14 14:54:08.883192,-85
2021-10-14 14:54:08.883200,-83
2021-10-14 14:54:08.883208,-78
2021-10-14 14:54:08.883217,-73
2021-10-14 14:54:09.151728,-68
2021-10-14 14:54:09.151749,-63
2021-10-14 14:54:09.151759,-66
2021-10-14 14:54:09.151767,-63
2021-10-14 14:54:09.151776,-56
2021-10-14 14:54:09.151784,-58
2021-10-14 14:54:09.151793,-61
2021-10-14 14:54:09.151801,-61
2021-10-14 14:54:09.151809,-68
2021-10-14 14:54:09.151818,-68
2021-10-14 14:54:09.151826,-66
2021-10-14 14:54:09.151834,-58
2021-10-14 14:54:09.151843,-49
2021-10-14 14:54:09.151851,-56
2021-10-14 14:54:09.151859,-61
2021-10-14 14:54:09.151868,-53
2021-10-14 14:54:09.151876,-49
2021-10-14 14:54:09.151884,-49
2021-10-14 14:54:09.151893,-44
2021-10-14 14:54:09.151901,-44
2021-10-14 14:54:09.151909,-53
2021-10-14 14:54:09.151918,-53
2021-10-14 14:54:09.151930,-41
2021-10-14 14:54:09.151939,-41
2021-10-14 14:54:09.151947,-49
2021-10-14 14:54:09.151955,-58
2021-10-14 14:54:09.151964,-63
2021-10-14 14:54:09.151972,-68
2021-10-14 14:54:09.151980,-61
2021-10-14 14:54:09.151989,-26
2021-10-14 14:54:09.333356,0
2021-10-14 14:54:09.333377,-4
2021-10-14 14:54:09.333387,-9
2021-10-14 14:54:09.333395,-4
2021-10-14 14:54:09.333404,-22
2021-10-14 14:54:09.333412,-44
2021-10-14 14:54:09.333421,-46
2021-10-14 14:54:09.333429,-44
2021-10-14 14:54:09.333438,-46
2021-10-14 14:54:09.333447,-44
2021-10-14 14:54:09.333455,-41
2021-10-14 14:54:09.333464,-41
2021-10-14 14:54:09.333472,-39
2021-10-14 14:54:09.333481,41
2021-10-14 14:54:09.333489,321
2021-10-14 14:54:09.333498,736
2021-10-14 14:54:09.333506,934
2021-10-14 14:54:09.333514,461
2021-10-14 14:54:09.333523,-311
2021-10-14 14:54:09.333531,-333
2021-10-14 14:54:09.333540,68
2021-10-14 14:54:09.333549,22
2021-10-14 14:54:09.333557,-103
2021-10-14 14:54:09.333565,0
2021-10-14 14:54:09.333574,22
2021-10-14 14:54:09.333582,-19
2021-10-14 14:54:09.333591,4
2021-10-14 14:54:09.333599,24
2021-10-14 14:54:09.333607,22
2021-10-14 14:54:09.333616,31
2021-10-14 14:54:09.558112,44
2021-10-14 14:54:09.558134,58
2021-10-14 14:54:09.558143,78
2021-10-14 14:54:09.558151,93
2021-10-14 14:54:09.558159,120
2021-10-14 14:54:09.558168,157
2021-10-14 14:54:09.558176,184
2021-10-14 14:54:09.558184,213
2021-10-14 14:54:09.558192,255
2021-10-14 14:54:09.558200,287
2021-10-14 14:54:09.558207,311
2021-10-14 14:54:09.558215,336
2021-10-14 14:54:09.558223,343
2021-10-14 14:54:09.558231,348
2021-10-14 14:54:09.558239,350
2021-10-14 14:54:09.558247,321
2021-10-14 14:54:09.558255,269
2021-10-14 14:54:09.558263,203
2021-10-14 14:54:09.558271,117
2021-10-14 14:54:09.558280,29
2021-10-14 14:54:09.558288,-51
2021-10-14 14:54:09.558296,-110
2021-10-14 14:54:09.558304,-147
2021-10-14 14:54:09.558310,-171
2021-10-14 14:54:09.558317,-181
2021-10-14 14:54:09.558323,-179
2021-10-14 14:54:09.558329,-181
2021-10-14 14:54:09.558335,-191
2021-10-14 14:54:09.558341,-188
2021-10-14 14:54:09.558347,-176
2021-10-14 14:54:09.828347,-164
2021-10-14 14:54:09.828369,-164
2021-10-14 14:54:09.828378,-164
2021-10-14 14:54:09.828387,-152
2021-10-14 14:54:09.828396,-142
2021-10-14 14:54:09.828405,-139
2021-10-14 14:54:09.828413,-137
2021-10-14 14:54:09.828421,-127
2021-10-14 14:54:09.828430,-125
2021-10-14 14:54:09.828439,-134
2021-10-14 14:54:09.828447,-130
2021-10-14 14:54:09.828455,-115
2021-10-14 14:54:09.828464,-117
2021-10-14 14:54:09.828473,-125
2021-10-14 14:54:09.828481,-120
2021-10-14 14:54:09.828490,-117
2021-10-14 14:54:09.828498,-120
2021-10-14 14:54:09.828506,-127
2021-10-14 14:54:09.828515,-127
2021-10-14 14:54:09.828523,-125
2021-10-14 14:54:09.828531,-122
2021-10-14 14:54:09.828540,-127
2021-10-14 14:54:09.828548,-137
2021-10-14 14:54:09.828556,-134
2021-10-14 14:54:09.828564,-130
2021-10-14 14:54:09.828572,-130
2021-10-14 14:54:09.828581,-127
2021-10-14 14:54:09.828589,-125
2021-10-14 14:54:09.828597,-122
2021-10-14 14:54:09.828606,-120
2021-10-14 14:54:10.052378,-125
2021-10-14 14:54:10.052399,-125
2021-10-14 14:54:10.052409,-112
2021-10-14 14:54:10.052418,-110
2021-10-14 14:54:10.052426,-127
2021-10-14 14:54:10.052434,-144
2021-10-14 14:54:10.052443,-137
2021-10-14 14:54:10.052451,-103
2021-10-14 14:54:10.052459,-66
2021-10-14 14:54:10.052468,-49
2021-10-14 14:54:10.052476,-58
2021-10-14 14:54:10.052484,-68
2021-10-14 14:54:10.052493,-66
2021-10-14 14:54:10.052501,-76
2021-10-14 14:54:10.052509,-88
2021-10-14 14:54:10.052517,-83
2021-10-14 14:54:10.052526,-80
2021-10-14 14:54:10.052534,-88
2021-10-14 14:54:10.052542,-80
2021-10-14 14:54:10.052550,-66
2021-10-14 14:54:10.052559,-63
2021-10-14 14:54:10.052567,-49
2021-10-14 14:54:10.052575,49
2021-10-14 14:54:10.052584,318
2021-10-14 14:54:10.052592,691
2021-10-14 14:54:10.052600,812
2021-10-14 14:54:10.052608,242
2021-10-14 14:54:10.052617,-500
2021-10-14 14:54:10.052632,-397
2021-10-14 14:54:10.052641,58
2021-10-14 14:54:10.323358,9
2021-10-14 14:54:10.323379,-93
2021-10-14 14:54:10.323388,9
2021-10-14 14:54:10.323397,7
2021-10-14 14:54:10.323405,-34
2021-10-14 14:54:10.323414,14
2021-10-14 14:54:10.323422,46
2021-10-14 14:54:10.323431,36
2021-10-14 14:54:10.323439,61
2021-10-14 14:54:10.323448,85
2021-10-14 14:54:10.323456,78
2021-10-14 14:54:10.323465,93
2021-10-14 14:54:10.323473,139
2021-10-14 14:54:10.323482,174
2021-10-14 14:54:10.323490,193
2021-10-14 14:54:10.323499,225
2021-10-14 14:54:10.323507,269
2021-10-14 14:54:10.323515,311
2021-10-14 14:54:10.323524,350
2021-10-14 14:54:10.323532,382
2021-10-14 14:54:10.323542,402
2021-10-14 14:54:10.323550,407
2021-10-14 14:54:10.323559,404
2021-10-14 14:54:10.323567,397
2021-10-14 14:54:10.323575,380
2021-10-14 14:54:10.323584,326
2021-10-14 14:54:10.323592,233
2021-10-14 14:54:10.323601,125
2021-10-14 14:54:10.323609,24
2021-10-14 14:54:10.323617,-58
2021-10-14 14:54:10.547767,-120
2021-10-14 14:54:10.547788,-159
2021-10-14 14:54:10.547798,-181
2021-10-14 14:54:10.547806,-191
2021-10-14 14:54:10.547815,-196
2021-10-14 14:54:10.547824,-198
2021-10-14 14:54:10.547832,-188
2021-10-14 14:54:10.547840,-174
2021-10-14 14:54:10.547849,-161
2021-10-14 14:54:10.547857,-174
2021-10-14 14:54:10.547866,-184
2021-10-14 14:54:10.547874,-161
2021-10-14 14:54:10.547882,-139
2021-10-14 14:54:10.547891,-132
2021-10-14 14:54:10.547899,-125
2021-10-14 14:54:10.547907,-125
2021-10-14 14:54:10.547916,-130
2021-10-14 14:54:10.547924,-107
2021-10-14 14:54:10.547932,-83
2021-10-14 14:54:10.547941,-85
2021-10-14 14:54:10.547949,-100
2021-10-14 14:54:10.547957,-107
2021-10-14 14:54:10.547965,-107
2021-10-14 14:54:10.547974,-110
2021-10-14 14:54:10.547982,-107
2021-10-14 14:54:10.547990,-103
2021-10-14 14:54:10.547998,-100
2021-10-14 14:54:10.548007,-105
2021-10-14 14:54:10.548015,-110
2021-10-14 14:54:10.548023,-107
2021-10-14 14:54:10.772996,-100
2021-10-14 14:54:10.773017,-100
2021-10-14 14:54:10.773027,-103
2021-10-14 14:54:10.773036,-103
2021-10-14 14:54:10.773044,-103
2021-10-14 14:54:10.773053,-105
2021-10-14 14:54:10.773061,-105
2021-10-14 14:54:10.773069,-100
2021-10-14 14:54:10.773077,-90
2021-10-14 14:54:10.773086,-76
2021-10-14 14:54:10.773094,-53
2021-10-14 14:54:10.773102,-31
2021-10-14 14:54:10.773110,-19
2021-10-14 14:54:10.773119,-31
2021-10-14 14:54:10.773127,-66
2021-10-14 14:54:10.773136,-78
2021-10-14 14:54:10.773144,-73
2021-10-14 14:54:10.773152,-73
2021-10-14 14:54:10.773161,-71
2021-10-14 14:54:10.773169,-49
2021-10-14 14:54:10.773177,-41
2021-10-14 14:54:10.773185,-61
2021-10-14 14:54:10.773194,-56
2021-10-14 14:54:10.773202,4
2021-10-14 14:54:10.773210,186
2021-10-14 14:54:10.773219,544
2021-10-14 14:54:10.773227,866
2021-10-14 14:54:10.773235,667
2021-10-14 14:54:10.773244,-120
2021-10-14 14:54:10.773252,-549
2021-10-14 14:54:10.953004,-147
2021-10-14 14:54:10.953025,115
2021-10-14 14:54:10.953035,-41
2021-10-14 14:54:10.953043,-24
2021-10-14 14:54:10.953052,73
2021-10-14 14:54:10.953060,34
2021-10-14 14:54:10.953069,36
2021-10-14 14:54:10.953077,95
2021-10-14 14:54:10.953086,95
2021-10-14 14:54:10.953094,90
2021-10-14 14:54:10.953103,120
2021-10-14 14:54:10.953111,134
2021-10-14 14:54:10.953119,149
2021-10-14 14:54:10.953128,176
2021-10-14 14:54:10.953136,188
2021-10-14 14:54:10.953144,201
2021-10-14 14:54:10.953153,225
2021-10-14 14:54:10.953161,255
2021-10-14 14:54:10.953169,299
2021-10-14 14:54:10.953178,345
2021-10-14 14:54:10.953186,368
2021-10-14 14:54:10.953195,390
2021-10-14 14:54:10.953203,419
2021-10-14 14:54:10.953211,429
2021-10-14 14:54:10.953220,417
2021-10-14 14:54:10.953228,392
2021-10-14 14:54:10.953236,348
2021-10-14 14:54:10.953245,274
2021-10-14 14:54:10.953253,174
2021-10-14 14:54:10.953261,80
2021-10-14 14:54:11.266708,4
2021-10-14 14:54:11.266730,-71
2021-10-14 14:54:11.266739,-127
2021-10-14 14:54:11.266748,-139
2021-10-14 14:54:11.266756,-139
2021-10-14 14:54:11.266765,-149
2021-10-14 14:54:11.266773,-161
2021-10-14 14:54:11.266781,-161
2021-10-14 14:54:11.266790,-161
2021-10-14 14:54:11.266798,-159
2021-10-14 14:54:11.266806,-154
2021-10-14 14:54:11.266814,-152
2021-10-14 14:54:11.266823,-142
2021-10-14 14:54:11.266846,-134
2021-10-14 14:54:11.266855,-134
2021-10-14 14:54:11.266863,-122
2021-10-14 14:54:11.266872,-105
2021-10-14 14:54:11.266880,-93
2021-10-14 14:54:11.266888,-88
2021-10-14 14:54:11.266896,-83
2021-10-14 14:54:11.266905,-85
2021-10-14 14:54:11.266913,-88
2021-10-14 14:54:11.266921,-80
2021-10-14 14:54:11.266930,-71
2021-10-14 14:54:11.266938,-68
2021-10-14 14:54:11.266946,-73
2021-10-14 14:54:11.266954,-73
2021-10-14 14:54:11.266962,-68
2021-10-14 14:54:11.266970,-71
2021-10-14 14:54:11.266979,-73
2021-10-14 14:54:11.402971,-68
2021-10-14 14:54:11.402992,-53
2021-10-14 14:54:11.403001,-51
2021-10-14 14:54:11.403010,-66
2021-10-14 14:54:11.403019,-73
2021-10-14 14:54:11.403027,-71
2021-10-14 14:54:11.403036,-71
2021-10-14 14:54:11.403044,-76
2021-10-14 14:54:11.403053,-80
2021-10-14 14:54:11.403061,-68
2021-10-14 14:54:11.403069,-34
2021-10-14 14:54:11.403078,-19
2021-10-14 14:54:11.403086,-39
2021-10-14 14:54:11.403094,-46
2021-10-14 14:54:11.403103,-41
2021-10-14 14:54:11.403111,-63
2021-10-14 14:54:11.403120,-85
2021-10-14 14:54:11.403129,-85
2021-10-14 14:54:11.403137,-85
2021-10-14 14:54:11.403145,-88
2021-10-14 14:54:11.403153,-80
2021-10-14 14:54:11.403162,-80
2021-10-14 14:54:11.403171,-93
2021-10-14 14:54:11.403179,-80
2021-10-14 14:54:11.403187,4
2021-10-14 14:54:11.403195,247
2021-10-14 14:54:11.403204,633
2021-10-14 14:54:11.403212,861
2021-10-14 14:54:11.403221,466
2021-10-14 14:54:11.403229,-350
2021-10-14 14:54:11.628356,-534
2021-10-14 14:54:11.628378,-66
2021-10-14 14:54:11.628387,39
2021-10-14 14:54:11.628396,-107
2021-10-14 14:54:11.628405,-26
2021-10-14 14:54:11.628413,24
2021-10-14 14:54:11.628422,-29
2021-10-14 14:54:11.628430,-4
2021-10-14 14:54:11.628439,39
2021-10-14 14:54:11.628447,31
2021-10-14 14:54:11.628456,44
2021-10-14 14:54:11.628464,68
2021-10-14 14:54:11.628473,73
2021-10-14 14:54:11.628481,93
2021-10-14 14:54:11.628489,127
2021-10-14 14:54:11.628498,147
2021-10-14 14:54:11.628506,169
2021-10-14 14:54:11.628514,206
2021-10-14 14:54:11.628523,242
2021-10-14 14:54:11.628531,277
2021-10-14 14:54:11.628540,311
2021-10-14 14:54:11.628548,338
2021-10-14 14:54:11.628556,365
2021-10-14 14:54:11.628565,385
2021-10-14 14:54:11.628573,385
2021-10-14 14:54:11.628582,370
2021-10-14 14:54:11.628590,348
2021-10-14 14:54:11.628598,309
2021-10-14 14:54:11.628607,238
2021-10-14 14:54:11.628615,142
2021-10-14 14:54:11.853013,46
2021-10-14 14:54:11.853034,-29
2021-10-14 14:54:11.853044,-90
2021-10-14 14:54:11.853052,-137
2021-10-14 14:54:11.853061,-171
2021-10-14 14:54:11.853069,-191
2021-10-14 14:54:11.853078,-184
2021-10-14 14:54:11.853086,-169
2021-10-14 14:54:11.853094,-174
2021-10-14 14:54:11.853103,-179
2021-10-14 14:54:11.853111,-169
2021-10-14 14:54:11.853119,-164
2021-10-14 14:54:11.853128,-157
2021-10-14 14:54:11.853136,-144
2021-10-14 14:54:11.853144,-132
2021-10-14 14:54:11.853153,-122
2021-10-14 14:54:11.853161,-122
2021-10-14 14:54:11.853169,-127
2021-10-14 14:54:11.853178,-120
2021-10-14 14:54:11.853186,-110
2021-10-14 14:54:11.853194,-112
2021-10-14 14:54:11.853203,-117
2021-10-14 14:54:11.853211,-110
2021-10-14 14:54:11.853219,-98
2021-10-14 14:54:11.853228,-95
2021-10-14 14:54:11.853236,-103
2021-10-14 14:54:11.853245,-105
2021-10-14 14:54:11.853253,-115
2021-10-14 14:54:11.853261,-117
2021-10-14 14:54:11.853270,-107
2021-10-14 14:54:12.077979,-103
2021-10-14 14:54:12.077999,-100
2021-10-14 14:54:12.078009,-98
2021-10-14 14:54:12.078017,-98
2021-10-14 14:54:12.078026,-107
2021-10-14 14:54:12.078035,-110
2021-10-14 14:54:12.078043,-103
2021-10-14 14:54:12.078051,-98
2021-10-14 14:54:12.078060,-103
2021-10-14 14:54:12.078068,-88
2021-10-14 14:54:12.078077,-56
2021-10-14 14:54:12.078085,-39
2021-10-14 14:54:12.078094,-34
2021-10-14 14:54:12.078102,-39
2021-10-14 14:54:12.078111,-53
2021-10-14 14:54:12.078119,-68
2021-10-14 14:54:12.078128,-83
2021-10-14 14:54:12.078136,-85
2021-10-14 14:54:12.078144,-78
2021-10-14 14:54:12.078153,-76
2021-10-14 14:54:12.078161,-83
2021-10-14 14:54:12.078170,-90
2021-10-14 14:54:12.078178,-95
2021-10-14 14:54:12.078186,-90
2021-10-14 14:54:12.078195,-29
2021-10-14 14:54:12.078203,186
2021-10-14 14:54:12.078211,569
2021-10-14 14:54:12.078220,851
2021-10-14 14:54:12.078228,547
2021-10-14 14:54:12.078237,-287
2021-10-14 14:54:12.393357,-583
2021-10-14 14:54:12.393378,-122
2021-10-14 14:54:12.393388,39
2021-10-14 14:54:12.393397,-139
2021-10-14 14:54:12.393405,-95
2021-10-14 14:54:12.393414,-12
2021-10-14 14:54:12.393422,-51
2021-10-14 14:54:12.393430,-44
2021-10-14 14:54:12.393439,-4
2021-10-14 14:54:12.393447,-12
2021-10-14 14:54:12.393456,-2
2021-10-14 14:54:12.393464,31
2021-10-14 14:54:12.393472,44
2021-10-14 14:54:12.393481,61
2021-10-14 14:54:12.393489,90
2021-10-14 14:54:12.393498,110
2021-10-14 14:54:12.393506,134
2021-10-14 14:54:12.393515,179
2021-10-14 14:54:12.393523,220
2021-10-14 14:54:12.393531,260
2021-10-14 14:54:12.393539,289
2021-10-14 14:54:12.393547,309
2021-10-14 14:54:12.393555,336
2021-10-14 14:54:12.393563,360
2021-10-14 14:54:12.393570,363
2021-10-14 14:54:12.393577,355
2021-10-14 14:54:12.393585,341
2021-10-14 14:54:12.393592,284
2021-10-14 14:54:12.393600,193
2021-10-14 14:54:12.393608,103
2021-10-14 14:54:12.573371,14
2021-10-14 14:54:12.573393,-68
2021-10-14 14:54:12.573402,-132
2021-10-14 14:54:12.573411,-188
2021-10-14 14:54:12.573420,-225
2021-10-14 14:54:12.573428,-228
2021-10-14 14:54:12.573437,-235
2021-10-14 14:54:12.573446,-240
2021-10-14 14:54:12.573454,-228
2021-10-14 14:54:12.573463,-220
2021-10-14 14:54:12.573471,-213
2021-10-14 14:54:12.573480,-201
2021-10-14 14:54:12.573488,-186
2021-10-14 14:54:12.573497,-176
2021-10-14 14:54:12.573505,-179
2021-10-14 14:54:12.573513,-179
2021-10-14 14:54:12.573522,-166
2021-10-14 14:54:12.573530,-157
2021-10-14 14:54:12.573539,-152
2021-10-14 14:54:12.573547,-144
2021-10-14 14:54:12.573556,-142
2021-10-14 14:54:12.573564,-142
2021-10-14 14:54:12.573578,-137
2021-10-14 14:54:12.573587,-144
2021-10-14 14:54:12.573596,-152
2021-10-14 14:54:12.573604,-142
2021-10-14 14:54:12.573612,-142
2021-10-14 14:54:12.573621,-147
2021-10-14 14:54:12.573629,-132
2021-10-14 14:54:12.573638,-122
2021-10-14 14:54:12.798031,-132
2021-10-14 14:54:12.798052,-137
2021-10-14 14:54:12.798062,-132
2021-10-14 14:54:12.798071,-137
2021-10-14 14:54:12.798079,-137
2021-10-14 14:54:12.798088,-105
2021-10-14 14:54:12.798096,-63
2021-10-14 14:54:12.798104,-51
2021-10-14 14:54:12.798113,-73
2021-10-14 14:54:12.798121,-83
2021-10-14 14:54:12.798130,-80
2021-10-14 14:54:12.798138,-95
2021-10-14 14:54:12.798146,-105
2021-10-14 14:54:12.798155,-93
2021-10-14 14:54:12.798163,-93
2021-10-14 14:54:12.798172,-103
2021-10-14 14:54:12.798180,-95
2021-10-14 14:54:12.798189,-85
2021-10-14 14:54:12.798197,-90
2021-10-14 14:54:12.798205,-85
2021-10-14 14:54:12.798214,-46
2021-10-14 14:54:12.798222,120
2021-10-14 14:54:12.798230,473
2021-10-14 14:54:12.798239,799
2021-10-14 14:54:12.798247,620
2021-10-14 14:54:12.798256,-152
2021-10-14 14:54:12.798264,-579
2021-10-14 14:54:12.798273,-179
2021-10-14 14:54:12.798281,76
2021-10-14 14:54:12.798289,-93
2021-10-14 14:54:13.023395,-78
2021-10-14 14:54:13.023417,19
2021-10-14 14:54:13.023426,-19
2021-10-14 14:54:13.023435,-29
2021-10-14 14:54:13.023444,9
2021-10-14 14:54:13.023452,14
2021-10-14 14:54:13.023461,22
2021-10-14 14:54:13.023469,41
2021-10-14 14:54:13.023478,41
2021-10-14 14:54:13.023486,51
2021-10-14 14:54:13.023495,80
2021-10-14 14:54:13.023503,112
2021-10-14 14:54:13.023522,139
2021-10-14 14:54:13.023531,164
2021-10-14 14:54:13.023539,193
2021-10-14 14:54:13.023548,235
2021-10-14 14:54:13.023559,279
2021-10-14 14:54:13.023568,316
2021-10-14 14:54:13.023576,343
2021-10-14 14:54:13.023584,353
2021-10-14 14:54:13.023593,353
2021-10-14 14:54:13.023601,345
2021-10-14 14:54:13.023610,323
2021-10-14 14:54:13.023618,274
2021-10-14 14:54:13.023626,193
2021-10-14 14:54:13.023635,95
2021-10-14 14:54:13.023643,7
2021-10-14 14:54:13.023651,-80
2021-10-14 14:54:13.023660,-152
2021-10-14 14:54:13.023668,-188
2021-10-14 14:54:13.291729,-208
2021-10-14 14:54:13.291750,-218
2021-10-14 14:54:13.291759,-213
2021-10-14 14:54:13.291767,-206
2021-10-14 14:54:13.291774,-201
2021-10-14 14:54:13.291781,-196
2021-10-14 14:54:13.291788,-196
2021-10-14 14:54:13.291796,-186
2021-10-14 14:54:13.291804,-169
2021-10-14 14:54:13.291812,-157
2021-10-14 14:54:13.291820,-139
2021-10-14 14:54:13.291828,-125
2021-10-14 14:54:13.291836,-125
2021-10-14 14:54:13.291844,-120
2021-10-14 14:54:13.291851,-105
2021-10-14 14:54:13.291859,-98
2021-10-14 14:54:13.291867,-95
2021-10-14 14:54:13.291875,-90
2021-10-14 14:54:13.291882,-93
2021-10-14 14:54:13.291890,-88
2021-10-14 14:54:13.291897,-80
2021-10-14 14:54:13.291904,-78
2021-10-14 14:54:13.291910,-73
2021-10-14 14:54:13.291916,-63
2021-10-14 14:54:13.291922,-68
2021-10-14 14:54:13.291928,-76
2021-10-14 14:54:13.291934,-78
2021-10-14 14:54:13.291940,-76
2021-10-14 14:54:13.291947,-58
2021-10-14 14:54:13.291954,-39
2021-10-14 14:54:13.473378,-29
2021-10-14 14:54:13.473398,-22
2021-10-14 14:54:13.473408,-17
2021-10-14 14:54:13.473417,-26
2021-10-14 14:54:13.473425,-46
2021-10-14 14:54:13.473434,-61
2021-10-14 14:54:13.473442,-63
2021-10-14 14:54:13.473450,-56
2021-10-14 14:54:13.473459,-51
2021-10-14 14:54:13.473467,-53
2021-10-14 14:54:13.473476,-51
2021-10-14 14:54:13.473484,-46
2021-10-14 14:54:13.473492,-51
2021-10-14 14:54:13.473501,-41
2021-10-14 14:54:13.473509,41
2021-10-14 14:54:13.473517,309
2021-10-14 14:54:13.473526,726
2021-10-14 14:54:13.473534,871
2021-10-14 14:54:13.473542,301
2021-10-14 14:54:13.473550,-417
2021-10-14 14:54:13.473559,-318
2021-10-14 14:54:13.473567,78
2021-10-14 14:54:13.473575,4
2021-10-14 14:54:13.473583,-90
2021-10-14 14:54:13.473592,17
2021-10-14 14:54:13.473600,26
2021-10-14 14:54:13.473608,-9
2021-10-14 14:54:13.473616,34
2021-10-14 14:54:13.473625,58
2021-10-14 14:54:13.473633,51
2021-10-14 14:54:13.698506,71
2021-10-14 14:54:13.698522,98
2021-10-14 14:54:13.698527,100
2021-10-14 14:54:13.698532,117
2021-10-14 14:54:13.698537,154
2021-10-14 14:54:13.698541,179
2021-10-14 14:54:13.698546,198
2021-10-14 14:54:13.698550,233
2021-10-14 14:54:13.698555,269
2021-10-14 14:54:13.698559,296
2021-10-14 14:54:13.698563,328
2021-10-14 14:54:13.698567,353
2021-10-14 14:54:13.698572,365
2021-10-14 14:54:13.698576,372
2021-10-14 14:54:13.698581,365
2021-10-14 14:54:13.698585,338
2021-10-14 14:54:13.698590,294
2021-10-14 14:54:13.698594,228
2021-10-14 14:54:13.698598,134
2021-10-14 14:54:13.698603,39
2021-10-14 14:54:13.698607,-41
2021-10-14 14:54:13.698611,-110
2021-10-14 14:54:13.698616,-166
2021-10-14 14:54:13.698620,-191
2021-10-14 14:54:13.698625,-193
2021-10-14 14:54:13.698650,-196
2021-10-14 14:54:13.698656,-198
2021-10-14 14:54:13.698662,-196
2021-10-14 14:54:13.698668,-196
2021-10-14 14:54:13.698674,-188
2021-10-14 14:54:13.923010,-174
2021-10-14 14:54:13.923032,-159
2021-10-14 14:54:13.923041,-149
2021-10-14 14:54:13.923050,-152
2021-10-14 14:54:13.923059,-159
2021-10-14 14:54:13.923067,-149
2021-10-14 14:54:13.923076,-134
2021-10-14 14:54:13.923084,-127
2021-10-14 14:54:13.923093,-122
2021-10-14 14:54:13.923101,-120
2021-10-14 14:54:13.923110,-127
2021-10-14 14:54:13.923119,-130
2021-10-14 14:54:13.923127,-110
2021-10-14 14:54:13.923136,-98
2021-10-14 14:54:13.923144,-103
2021-10-14 14:54:13.923153,-107
2021-10-14 14:54:13.923161,-105
2021-10-14 14:54:13.923169,-100
2021-10-14 14:54:13.923178,-95
2021-10-14 14:54:13.923186,-88
2021-10-14 14:54:13.923195,-90
2021-10-14 14:54:13.923203,-105
2021-10-14 14:54:13.923212,-105
2021-10-14 14:54:13.923220,-93
2021-10-14 14:54:13.923228,-90
2021-10-14 14:54:13.923237,-93
2021-10-14 14:54:13.923245,-90
2021-10-14 14:54:13.923253,-73
2021-10-14 14:54:13.923261,-36
2021-10-14 14:54:13.923270,-9
2021-10-14 14:54:14.283052,-7
2021-10-14 14:54:14.283074,-14
2021-10-14 14:54:14.283083,-17
2021-10-14 14:54:14.283092,-34
2021-10-14 14:54:14.283100,-66
2021-10-14 14:54:14.283109,-71
2021-10-14 14:54:14.283117,-53
2021-10-14 14:54:14.283126,-46
2021-10-14 14:54:14.283134,-49
2021-10-14 14:54:14.283142,-58
2021-10-14 14:54:14.283151,-61
2021-10-14 14:54:14.283159,-46
2021-10-14 14:54:14.283168,14
2021-10-14 14:54:14.283176,208
2021-10-14 14:54:14.283185,576
2021-10-14 14:54:14.283193,925
2021-10-14 14:54:14.283201,745
2021-10-14 14:54:14.283210,-63
2021-10-14 14:54:14.283218,-485
2021-10-14 14:54:14.283226,-80
2021-10-14 14:54:14.283235,117
2021-10-14 14:54:14.283243,-76
2021-10-14 14:54:14.283252,-39
2021-10-14 14:54:14.283261,66
2021-10-14 14:54:14.283269,19
2021-10-14 14:54:14.283277,12
2021-10-14 14:54:14.283286,53
2021-10-14 14:54:14.283294,58
2021-10-14 14:54:14.283302,71
2021-10-14 14:54:14.283311,103
2021-10-14 14:54:14.418385,117
2021-10-14 14:54:14.418406,127
2021-10-14 14:54:14.418415,149
2021-10-14 14:54:14.418424,174
2021-10-14 14:54:14.418432,203
2021-10-14 14:54:14.418441,238
2021-10-14 14:54:14.418449,272
2021-10-14 14:54:14.418458,294
2021-10-14 14:54:14.418466,318
2021-10-14 14:54:14.418474,345
2021-10-14 14:54:14.418483,363
2021-10-14 14:54:14.418491,375
2021-10-14 14:54:14.418500,385
2021-10-14 14:54:14.418508,377
2021-10-14 14:54:14.418516,345
2021-10-14 14:54:14.418525,291
2021-10-14 14:54:14.418533,223
2021-10-14 14:54:14.418542,137
2021-10-14 14:54:14.418550,39
2021-10-14 14:54:14.418558,-39
2021-10-14 14:54:14.418566,-112
2021-10-14 14:54:14.418575,-171
2021-10-14 14:54:14.418583,-188
2021-10-14 14:54:14.418591,-188
2021-10-14 14:54:14.418600,-193
2021-10-14 14:54:14.418608,-201
2021-10-14 14:54:14.418616,-220
2021-10-14 14:54:14.418624,-225
2021-10-14 14:54:14.418633,-201
2021-10-14 14:54:14.418641,-186
2021-10-14 14:54:14.643059,-181
2021-10-14 14:54:14.643079,-169
2021-10-14 14:54:14.643089,-161
2021-10-14 14:54:14.643097,-161
2021-10-14 14:54:14.643106,-157
2021-10-14 14:54:14.643114,-147
2021-10-14 14:54:14.643123,-134
2021-10-14 14:54:14.643131,-130
2021-10-14 14:54:14.643140,-139
2021-10-14 14:54:14.643148,-152
2021-10-14 14:54:14.643157,-149
2021-10-14 14:54:14.643165,-142
2021-10-14 14:54:14.643173,-137
2021-10-14 14:54:14.643182,-137
2021-10-14 14:54:14.643190,-144
2021-10-14 14:54:14.643199,-144
2021-10-14 14:54:14.643207,-134
2021-10-14 14:54:14.643216,-125
2021-10-14 14:54:14.643224,-125
2021-10-14 14:54:14.643233,-125
2021-10-14 14:54:14.643241,-115
2021-10-14 14:54:14.643249,-105
2021-10-14 14:54:14.643258,-105
2021-10-14 14:54:14.643266,-100
2021-10-14 14:54:14.643275,-88
2021-10-14 14:54:14.643283,-95
2021-10-14 14:54:14.643291,-98
2021-10-14 14:54:14.643299,-85
2021-10-14 14:54:14.643308,-85
2021-10-14 14:54:14.643316,-90
2021-10-14 14:54:14.913356,-68
2021-10-14 14:54:14.913376,-34
2021-10-14 14:54:14.913385,-14
2021-10-14 14:54:14.913394,-14
2021-10-14 14:54:14.913403,-19
2021-10-14 14:54:14.913411,-19
2021-10-14 14:54:14.913419,-34
2021-10-14 14:54:14.913428,-53
2021-10-14 14:54:14.913436,-56
2021-10-14 14:54:14.913444,-51
2021-10-14 14:54:14.913453,-53
2021-10-14 14:54:14.913461,-53
2021-10-14 14:54:14.913470,-53
2021-10-14 14:54:14.913478,-61
2021-10-14 14:54:14.913486,-53
2021-10-14 14:54:14.913495,24
2021-10-14 14:54:14.913504,272
2021-10-14 14:54:14.913512,657
2021-10-14 14:54:14.913520,893
2021-10-14 14:54:14.913529,505
2021-10-14 14:54:14.913537,-321
2021-10-14 14:54:14.913545,-488
2021-10-14 14:54:14.913554,-17
2021-10-14 14:54:14.913562,58
2021-10-14 14:54:14.913571,-98
2021-10-14 14:54:14.913579,-9
2021-10-14 14:54:14.913587,36
2021-10-14 14:54:14.913596,-24
2021-10-14 14:54:14.913604,0
2021-10-14 14:54:14.913613,53
2021-10-14 14:54:15.093466,61
2021-10-14 14:54:15.093487,58
2021-10-14 14:54:15.093496,61
2021-10-14 14:54:15.093505,78
2021-10-14 14:54:15.093513,115
2021-10-14 14:54:15.093522,139
2021-10-14 14:54:15.093530,144
2021-10-14 14:54:15.093539,161
2021-10-14 14:54:15.093547,206
2021-10-14 14:54:15.093556,250
2021-10-14 14:54:15.093564,260
2021-10-14 14:54:15.093573,274
2021-10-14 14:54:15.093581,323
2021-10-14 14:54:15.093589,343
2021-10-14 14:54:15.093597,326
2021-10-14 14:54:15.093621,326
2021-10-14 14:54:15.093630,321
2021-10-14 14:54:15.093639,287
2021-10-14 14:54:15.093647,230
2021-10-14 14:54:15.093655,166
2021-10-14 14:54:15.093664,90
2021-10-14 14:54:15.093672,-4
2021-10-14 14:54:15.093680,-95
2021-10-14 14:54:15.093689,-147
2021-10-14 14:54:15.093697,-179
2021-10-14 14:54:15.093706,-218
2021-10-14 14:54:15.093714,-242
2021-10-14 14:54:15.093722,-230
2021-10-14 14:54:15.093731,-213
2021-10-14 14:54:15.093739,-213
2021-10-14 14:54:15.407080,-213
2021-10-14 14:54:15.407101,-206
2021-10-14 14:54:15.407111,-196
2021-10-14 14:54:15.407119,-181
2021-10-14 14:54:15.407128,-164
2021-10-14 14:54:15.407136,-161
2021-10-14 14:54:15.407145,-166
2021-10-14 14:54:15.407153,-157
2021-10-14 14:54:15.407161,-142
2021-10-14 14:54:15.407170,-137
2021-10-14 14:54:15.407178,-139
2021-10-14 14:54:15.407187,-149
2021-10-14 14:54:15.407195,-157
2021-10-14 14:54:15.407203,-142
2021-10-14 14:54:15.407212,-137
2021-10-14 14:54:15.407220,-157
2021-10-14 14:54:15.407228,-169
2021-10-14 14:54:15.407237,-161
2021-10-14 14:54:15.407245,-137
2021-10-14 14:54:15.407253,-120
2021-10-14 14:54:15.407262,-132
2021-10-14 14:54:15.407270,-137
2021-10-14 14:54:15.407278,-117
2021-10-14 14:54:15.407287,-117
2021-10-14 14:54:15.407295,-130
2021-10-14 14:54:15.407303,-122
2021-10-14 14:54:15.407312,-112
2021-10-14 14:54:15.407320,-103
2021-10-14 14:54:15.407328,-95
2021-10-14 14:54:15.407337,-100
2021-10-14 14:54:15.543475,-95
2021-10-14 14:54:15.543496,-85
2021-10-14 14:54:15.543505,-93
2021-10-14 14:54:15.543513,-78
2021-10-14 14:54:15.543521,-31
2021-10-14 14:54:15.543528,-22
2021-10-14 14:54:15.543536,-44
2021-10-14 14:54:15.543544,-58
2021-10-14 14:54:15.543551,-73
2021-10-14 14:54:15.543559,-88
2021-10-14 14:54:15.543567,-95
2021-10-14 14:54:15.543575,-103
2021-10-14 14:54:15.543582,-90
2021-10-14 14:54:15.543590,-68
2021-10-14 14:54:15.543598,-71
2021-10-14 14:54:15.543605,-83
2021-10-14 14:54:15.543613,-66
2021-10-14 14:54:15.543621,-14
2021-10-14 14:54:15.543629,122
2021-10-14 14:54:15.543636,436
2021-10-14 14:54:15.543644,780
2021-10-14 14:54:15.543652,689
2021-10-14 14:54:15.543660,-58
2021-10-14 14:54:15.543668,-598
2021-10-14 14:54:15.543675,-230
2021-10-14 14:54:15.543683,107
2021-10-14 14:54:15.543690,-49
2021-10-14 14:54:15.543698,-68
2021-10-14 14:54:15.543705,44
2021-10-14 14:54:15.543713,14
2021-10-14 14:54:15.768060,-7
2021-10-14 14:54:15.768081,49
2021-10-14 14:54:15.768091,78
2021-10-14 14:54:15.768100,68
2021-10-14 14:54:15.768108,73
2021-10-14 14:54:15.768117,100
2021-10-14 14:54:15.768126,130
2021-10-14 14:54:15.768134,152
2021-10-14 14:54:15.768143,174
2021-10-14 14:54:15.768151,196
2021-10-14 14:54:15.768160,208
2021-10-14 14:54:15.768168,235
2021-10-14 14:54:15.768177,287
2021-10-14 14:54:15.768185,321
2021-10-14 14:54:15.768194,328
2021-10-14 14:54:15.768202,343
2021-10-14 14:54:15.768210,372
2021-10-14 14:54:15.768219,382
2021-10-14 14:54:15.768227,345
2021-10-14 14:54:15.768236,301
2021-10-14 14:54:15.768244,277
2021-10-14 14:54:15.768252,228
2021-10-14 14:54:15.768261,130
2021-10-14 14:54:15.768269,29
2021-10-14 14:54:15.768278,-41
2021-10-14 14:54:15.768286,-103
2021-10-14 14:54:15.768294,-161
2021-10-14 14:54:15.768303,-191
2021-10-14 14:54:15.768311,-196
2021-10-14 14:54:15.768320,-201
2021-10-14 14:54:15.993437,-198
2021-10-14 14:54:15.993458,-186
2021-10-14 14:54:15.993467,-181
2021-10-14 14:54:15.993476,-179
2021-10-14 14:54:15.993484,-179
2021-10-14 14:54:15.993493,-184
2021-10-14 14:54:15.993501,-169
2021-10-14 14:54:15.993510,-132
2021-10-14 14:54:15.993518,-122
2021-10-14 14:54:15.993527,-147
2021-10-14 14:54:15.993535,-144
2021-10-14 14:54:15.993543,-122
2021-10-14 14:54:15.993552,-120
2021-10-14 14:54:15.993560,-132
2021-10-14 14:54:15.993569,-137
2021-10-14 14:54:15.993577,-125
2021-10-14 14:54:15.993585,-117
2021-10-14 14:54:15.993594,-125
2021-10-14 14:54:15.993602,-127
2021-10-14 14:54:15.993610,-125
2021-10-14 14:54:15.993619,-117
2021-10-14 14:54:15.993627,-107
2021-10-14 14:54:15.993643,-110
2021-10-14 14:54:15.993652,-117
2021-10-14 14:54:15.993660,-112
2021-10-14 14:54:15.993668,-93
2021-10-14 14:54:15.993676,-90
2021-10-14 14:54:15.993685,-100
2021-10-14 14:54:15.993693,-93
2021-10-14 14:54:15.993701,-73
2021-10-14 14:54:16.263439,-63
2021-10-14 14:54:16.263460,-61
2021-10-14 14:54:16.263469,-66
2021-10-14 14:54:16.263478,-76
2021-10-14 14:54:16.263487,-76
2021-10-14 14:54:16.263495,-68
2021-10-14 14:54:16.263503,-63
2021-10-14 14:54:16.263512,-53
2021-10-14 14:54:16.263520,-29
2021-10-14 14:54:16.263529,-7
2021-10-14 14:54:16.263537,7
2021-10-14 14:54:16.263546,7
2021-10-14 14:54:16.263554,0
2021-10-14 14:54:16.263563,-14
2021-10-14 14:54:16.263571,-29
2021-10-14 14:54:16.263580,-31
2021-10-14 14:54:16.263588,-24
2021-10-14 14:54:16.263597,-19
2021-10-14 14:54:16.263605,-17
2021-10-14 14:54:16.263613,-9
2021-10-14 14:54:16.263622,-12
2021-10-14 14:54:16.263630,-14
2021-10-14 14:54:16.263639,46
2021-10-14 14:54:16.263647,240
2021-10-14 14:54:16.263655,583
2021-10-14 14:54:16.263664,888
2021-10-14 14:54:16.263672,679
2021-10-14 14:54:16.263680,-110
2021-10-14 14:54:16.263689,-480
2021-10-14 14:54:16.263697,-56
2021-10-14 14:54:16.488071,144
2021-10-14 14:54:16.488093,-34
2021-10-14 14:54:16.488103,-2
2021-10-14 14:54:16.488111,76
2021-10-14 14:54:16.488120,34
2021-10-14 14:54:16.488128,49
2021-10-14 14:54:16.488136,88
2021-10-14 14:54:16.488145,68
2021-10-14 14:54:16.488153,56
2021-10-14 14:54:16.488161,85
2021-10-14 14:54:16.488170,115
2021-10-14 14:54:16.488178,132
2021-10-14 14:54:16.488186,157
2021-10-14 14:54:16.488195,169
2021-10-14 14:54:16.488203,166
2021-10-14 14:54:16.488211,184
2021-10-14 14:54:16.488219,223
2021-10-14 14:54:16.488228,250
2021-10-14 14:54:16.488236,267
2021-10-14 14:54:16.488244,299
2021-10-14 14:54:16.488252,314
2021-10-14 14:54:16.488261,304
2021-10-14 14:54:16.488269,314
2021-10-14 14:54:16.488277,326
2021-10-14 14:54:16.488285,314
2021-10-14 14:54:16.488293,269
2021-10-14 14:54:16.488302,193
2021-10-14 14:54:16.488310,107
2021-10-14 14:54:16.488318,36
2021-10-14 14:54:16.488327,-34
2021-10-14 14:54:16.713452,-95
2021-10-14 14:54:16.713472,-139
2021-10-14 14:54:16.713482,-169
2021-10-14 14:54:16.713490,-179
2021-10-14 14:54:16.713499,-176
2021-10-14 14:54:16.713507,-179
2021-10-14 14:54:16.713515,-179
2021-10-14 14:54:16.713523,-166
2021-10-14 14:54:16.713532,-164
2021-10-14 14:54:16.713540,-164
2021-10-14 14:54:16.713548,-144
2021-10-14 14:54:16.713557,-127
2021-10-14 14:54:16.713565,-127
2021-10-14 14:54:16.713573,-120
2021-10-14 14:54:16.713581,-110
2021-10-14 14:54:16.713590,-115
2021-10-14 14:54:16.713598,-112
2021-10-14 14:54:16.713606,-100
2021-10-14 14:54:16.713614,-98
2021-10-14 14:54:16.713623,-98
2021-10-14 14:54:16.713631,-105
2021-10-14 14:54:16.713639,-107
2021-10-14 14:54:16.713647,-103
2021-10-14 14:54:16.713656,-93
2021-10-14 14:54:16.713664,-90
2021-10-14 14:54:16.713672,-88
2021-10-14 14:54:16.713680,-83
2021-10-14 14:54:16.713689,-93
2021-10-14 14:54:16.713697,-100
2021-10-14 14:54:16.713705,-85
2021-10-14 14:54:16.938082,-80
2021-10-14 14:54:16.938103,-93
2021-10-14 14:54:16.938112,-90
2021-10-14 14:54:16.938121,-76
2021-10-14 14:54:16.938130,-71
2021-10-14 14:54:16.938138,-73
2021-10-14 14:54:16.938147,-73
2021-10-14 14:54:16.938155,-83
2021-10-14 14:54:16.938164,-88
2021-10-14 14:54:16.938172,-73
2021-10-14 14:54:16.938181,-56
2021-10-14 14:54:16.938189,-56
2021-10-14 14:54:16.938205,-71
2021-10-14 14:54:16.938214,-78
2021-10-14 14:54:16.938222,-71
2021-10-14 14:54:16.938231,-71
2021-10-14 14:54:16.938239,-56
2021-10-14 14:54:16.938248,-17
2021-10-14 14:54:16.938256,4
2021-10-14 14:54:16.938265,0
2021-10-14 14:54:16.938273,-4
2021-10-14 14:54:16.938281,-9
2021-10-14 14:54:16.938289,-19
2021-10-14 14:54:16.938297,-31
2021-10-14 14:54:16.938305,-49
2021-10-14 14:54:16.938314,-58
2021-10-14 14:54:16.938322,-36
2021-10-14 14:54:16.938330,-26
2021-10-14 14:54:16.938339,-36
2021-10-14 14:54:16.938347,-41
2021-10-14 14:54:17.163067,-53
2021-10-14 14:54:17.163087,-22
2021-10-14 14:54:17.163097,191
2021-10-14 14:54:17.163106,569
2021-10-14 14:54:17.163114,839
2021-10-14 14:54:17.163123,581
2021-10-14 14:54:17.163131,-206
2021-10-14 14:54:17.163140,-566
2021-10-14 14:54:17.163149,-152
2021-10-14 14:54:17.163157,61
2021-10-14 14:54:17.163166,-98
2021-10-14 14:54:17.163174,-66
2021-10-14 14:54:17.163183,12
2021-10-14 14:54:17.163191,-34
2021-10-14 14:54:17.163199,-36
2021-10-14 14:54:17.163208,7
2021-10-14 14:54:17.163216,22
2021-10-14 14:54:17.163224,24
2021-10-14 14:54:17.163233,41
2021-10-14 14:54:17.163241,76
2021-10-14 14:54:17.163250,98
2021-10-14 14:54:17.163258,107
2021-10-14 14:54:17.163267,130
2021-10-14 14:54:17.163275,152
2021-10-14 14:54:17.163283,171
2021-10-14 14:54:17.163292,218
2021-10-14 14:54:17.163300,267
2021-10-14 14:54:17.163309,282
2021-10-14 14:54:17.163317,291
2021-10-14 14:54:17.163325,311
2021-10-14 14:54:17.432093,333
2021-10-14 14:54:17.432114,341
2021-10-14 14:54:17.432123,326
2021-10-14 14:54:17.432132,306
2021-10-14 14:54:17.432140,279
2021-10-14 14:54:17.432149,215
2021-10-14 14:54:17.432158,132
2021-10-14 14:54:17.432166,56
2021-10-14 14:54:17.432174,-29
2021-10-14 14:54:17.432183,-107
2021-10-14 14:54:17.432191,-154
2021-10-14 14:54:17.432199,-176
2021-10-14 14:54:17.432208,-188
2021-10-14 14:54:17.432216,-198
2021-10-14 14:54:17.432224,-201
2021-10-14 14:54:17.432233,-193
2021-10-14 14:54:17.432241,-198
2021-10-14 14:54:17.432250,-201
2021-10-14 14:54:17.432258,-176
2021-10-14 14:54:17.432267,-152
2021-10-14 14:54:17.432275,-144
2021-10-14 14:54:17.432283,-134
2021-10-14 14:54:17.432292,-134
2021-10-14 14:54:17.432300,-139
2021-10-14 14:54:17.432309,-125
2021-10-14 14:54:17.432317,-107
2021-10-14 14:54:17.432325,-112
2021-10-14 14:54:17.432334,-125
2021-10-14 14:54:17.432342,-117
2021-10-14 14:54:17.432351,-100
2021-10-14 14:54:17.613433,-115
2021-10-14 14:54:17.613453,-139
2021-10-14 14:54:17.613463,-132
2021-10-14 14:54:17.613471,-120
2021-10-14 14:54:17.613480,-132
2021-10-14 14:54:17.613488,-154
2021-10-14 14:54:17.613497,-144
2021-10-14 14:54:17.613505,-130
2021-10-14 14:54:17.613514,-137
2021-10-14 14:54:17.613522,-132
2021-10-14 14:54:17.613530,-117
2021-10-14 14:54:17.613539,-122
2021-10-14 14:54:17.613547,-125
2021-10-14 14:54:17.613556,-107
2021-10-14 14:54:17.613564,-100
2021-10-14 14:54:17.613573,-112
2021-10-14 14:54:17.613581,-110
2021-10-14 14:54:17.613589,-90
2021-10-14 14:54:17.613598,-88
2021-10-14 14:54:17.613606,-95
2021-10-14 14:54:17.613614,-85
2021-10-14 14:54:17.613622,-76
2021-10-14 14:54:17.613631,-53
2021-10-14 14:54:17.613639,-17
2021-10-14 14:54:17.613647,-7
2021-10-14 14:54:17.613656,-17
2021-10-14 14:54:17.613664,-19
2021-10-14 14:54:17.613672,-39
2021-10-14 14:54:17.613681,-63
2021-10-14 14:54:17.613689,-61
2021-10-14 14:54:17.838079,-46
2021-10-14 14:54:17.838100,-39
2021-10-14 14:54:17.838110,-41
2021-10-14 14:54:17.838119,-56
2021-10-14 14:54:17.838127,-71
2021-10-14 14:54:17.838136,-56
2021-10-14 14:54:17.838144,9
2021-10-14 14:54:17.838152,198
2021-10-14 14:54:17.838161,534
2021-10-14 14:54:17.838170,777
2021-10-14 14:54:17.838178,458
2021-10-14 14:54:17.838186,-345
2021-10-14 14:54:17.838194,-574
2021-10-14 14:54:17.838203,-68
2021-10-14 14:54:17.838211,80
2021-10-14 14:54:17.838219,-112
2021-10-14 14:54:17.838228,-51
2021-10-14 14:54:17.838236,34
2021-10-14 14:54:17.838245,-14
2021-10-14 14:54:17.838253,7
2021-10-14 14:54:17.838261,63
2021-10-14 14:54:17.838270,49
2021-10-14 14:54:17.838278,49
2021-10-14 14:54:17.838286,98
2021-10-14 14:54:17.838295,115
2021-10-14 14:54:17.838303,120
2021-10-14 14:54:17.838311,152
2021-10-14 14:54:17.838319,174
2021-10-14 14:54:17.838327,196
2021-10-14 14:54:17.838335,240
2021-10-14 14:54:18.153112,272
2021-10-14 14:54:18.153132,299
2021-10-14 14:54:18.153142,338
2021-10-14 14:54:18.153151,345
2021-10-14 14:54:18.153159,341
2021-10-14 14:54:18.153168,363
2021-10-14 14:54:18.153176,370
2021-10-14 14:54:18.153185,343
2021-10-14 14:54:18.153193,306
2021-10-14 14:54:18.153202,255
2021-10-14 14:54:18.153210,188
2021-10-14 14:54:18.153219,112
2021-10-14 14:54:18.153227,34
2021-10-14 14:54:18.153236,-44
2021-10-14 14:54:18.153244,-110
2021-10-14 14:54:18.153253,-149
2021-10-14 14:54:18.153261,-174
2021-10-14 14:54:18.153269,-184
2021-10-14 14:54:18.153278,-186
2021-10-14 14:54:18.153286,-176
2021-10-14 14:54:18.153295,-174
2021-10-14 14:54:18.153303,-171
2021-10-14 14:54:18.153312,-161
2021-10-14 14:54:18.153320,-147
2021-10-14 14:54:18.153329,-130
2021-10-14 14:54:18.153337,-115
2021-10-14 14:54:18.153346,-112
2021-10-14 14:54:18.153354,-105
2021-10-14 14:54:18.153362,-93
2021-10-14 14:54:18.153371,-83
2021-10-14 14:54:18.333453,-85
2021-10-14 14:54:18.333472,-90
2021-10-14 14:54:18.333481,-90
2021-10-14 14:54:18.333490,-85
2021-10-14 14:54:18.333499,-78
2021-10-14 14:54:18.333507,-76
2021-10-14 14:54:18.333515,-66
2021-10-14 14:54:18.333523,-58
2021-10-14 14:54:18.333532,-68
2021-10-14 14:54:18.333540,-78
2021-10-14 14:54:18.333548,-73
2021-10-14 14:54:18.333557,-68
2021-10-14 14:54:18.333565,-73
2021-10-14 14:54:18.333573,-78
2021-10-14 14:54:18.333582,-80
2021-10-14 14:54:18.333590,-78
2021-10-14 14:54:18.333598,-68
2021-10-14 14:54:18.333607,-61
2021-10-14 14:54:18.333615,-58
2021-10-14 14:54:18.333623,-58
2021-10-14 14:54:18.333632,-58
2021-10-14 14:54:18.333640,-58
2021-10-14 14:54:18.333648,-53
2021-10-14 14:54:18.333657,-46
2021-10-14 14:54:18.333665,-49
2021-10-14 14:54:18.333673,-56
2021-10-14 14:54:18.333682,-51
2021-10-14 14:54:18.333690,-24
2021-10-14 14:54:18.333698,12
2021-10-14 14:54:18.333707,24
2021-10-14 14:54:18.647868,14
2021-10-14 14:54:18.647889,7
2021-10-14 14:54:18.647898,-4
2021-10-14 14:54:18.647907,-26
2021-10-14 14:54:18.647915,-29
2021-10-14 14:54:18.647923,-19
2021-10-14 14:54:18.647932,-26
2021-10-14 14:54:18.647940,-46
2021-10-14 14:54:18.647948,-51
2021-10-14 14:54:18.647957,-49
2021-10-14 14:54:18.647965,-51
2021-10-14 14:54:18.647973,-17
2021-10-14 14:54:18.647982,137
2021-10-14 14:54:18.647990,461
2021-10-14 14:54:18.647998,777
2021-10-14 14:54:18.648007,628
2021-10-14 14:54:18.648015,-120
2021-10-14 14:54:18.648024,-549
2021-10-14 14:54:18.648032,-166
2021-10-14 14:54:18.648040,78
2021-10-14 14:54:18.648049,-80
2021-10-14 14:54:18.648057,-63
2021-10-14 14:54:18.648065,24
2021-10-14 14:54:18.648074,-14
2021-10-14 14:54:18.648082,-14
2021-10-14 14:54:18.648090,34
2021-10-14 14:54:18.648099,41
2021-10-14 14:54:18.648107,36
2021-10-14 14:54:18.648115,66
2021-10-14 14:54:18.648123,98
2021-10-14 14:54:18.827891,110
2021-10-14 14:54:18.827912,127
2021-10-14 14:54:18.827921,161
2021-10-14 14:54:18.827929,188
2021-10-14 14:54:18.827938,203
2021-10-14 14:54:18.827946,230
2021-10-14 14:54:18.827954,267
2021-10-14 14:54:18.827962,289
2021-10-14 14:54:18.827971,309
2021-10-14 14:54:18.827979,341
2021-10-14 14:54:18.827987,363
2021-10-14 14:54:18.827995,363
2021-10-14 14:54:18.828003,343
2021-10-14 14:54:18.828011,311
2021-10-14 14:54:18.828019,269
2021-10-14 14:54:18.828027,211
2021-10-14 14:54:18.828035,142
2021-10-14 14:54:18.828043,63
2021-10-14 14:54:18.828051,-17
2021-10-14 14:54:18.828059,-73
2021-10-14 14:54:18.828067,-110
2021-10-14 14:54:18.828075,-147
2021-10-14 14:54:18.828084,-166
2021-10-14 14:54:18.828092,-164
2021-10-14 14:54:18.828100,-164
2021-10-14 14:54:18.828108,-164
2021-10-14 14:54:18.828116,-159
2021-10-14 14:54:18.828124,-144
2021-10-14 14:54:18.828132,-130
2021-10-14 14:54:18.828140,-127
2021-10-14 14:54:19.053124,-125
2021-10-14 14:54:19.053145,-112
2021-10-14 14:54:19.053154,-98
2021-10-14 14:54:19.053162,-95
2021-10-14 14:54:19.053170,-90
2021-10-14 14:54:19.053178,-88
2021-10-14 14:54:19.053186,-88
2021-10-14 14:54:19.053193,-93
2021-10-14 14:54:19.053200,-93
2021-10-14 14:54:19.053208,-90
2021-10-14 14:54:19.053215,-88
2021-10-14 14:54:19.053223,-90
2021-10-14 14:54:19.053229,-93
2021-10-14 14:54:19.053237,-93
2021-10-14 14:54:19.053249,-90
2021-10-14 14:54:19.053257,-85
2021-10-14 14:54:19.053265,-90
2021-10-14 14:54:19.053288,-105
2021-10-14 14:54:19.053295,-110
2021-10-14 14:54:19.053302,-98
2021-10-14 14:54:19.053310,-93
2021-10-14 14:54:19.053317,-93
2021-10-14 14:54:19.053324,-85
2021-10-14 14:54:19.053331,-76
2021-10-14 14:54:19.053338,-78
2021-10-14 14:54:19.053345,-85
2021-10-14 14:54:19.053353,-80
2021-10-14 14:54:19.053360,-66
2021-10-14 14:54:19.053367,-56
2021-10-14 14:54:19.053375,-56
2021-10-14 14:54:19.233454,-61
2021-10-14 14:54:19.233475,-61
2021-10-14 14:54:19.233485,-68
2021-10-14 14:54:19.233494,-73
2021-10-14 14:54:19.233502,-44
2021-10-14 14:54:19.233511,-4
2021-10-14 14:54:19.233519,-2
2021-10-14 14:54:19.233528,-9
2021-10-14 14:54:19.233536,-22
2021-10-14 14:54:19.233544,-51
2021-10-14 14:54:19.233553,-71
2021-10-14 14:54:19.233561,-66
2021-10-14 14:54:19.233569,-61
2021-10-14 14:54:19.233577,-68
2021-10-14 14:54:19.233586,-68
2021-10-14 14:54:19.233594,-58
2021-10-14 14:54:19.233602,-66
2021-10-14 14:54:19.233610,-80
2021-10-14 14:54:19.233619,-34
2021-10-14 14:54:19.233627,152
2021-10-14 14:54:19.233635,493
2021-10-14 14:54:19.233644,787
2021-10-14 14:54:19.233652,581
2021-10-14 14:54:19.233660,-191
2021-10-14 14:54:19.233668,-564
2021-10-14 14:54:19.233677,-144
2021-10-14 14:54:19.233685,76
2021-10-14 14:54:19.233694,-85
2021-10-14 14:54:19.233702,-51
2021-10-14 14:54:19.233710,24
2021-10-14 14:54:19.502194,-22
2021-10-14 14:54:19.502215,-9
2021-10-14 14:54:19.502225,41
2021-10-14 14:54:19.502234,31
2021-10-14 14:54:19.502242,31
2021-10-14 14:54:19.502251,63
2021-10-14 14:54:19.502259,83
2021-10-14 14:54:19.502267,93
2021-10-14 14:54:19.502276,120
2021-10-14 14:54:19.502284,147
2021-10-14 14:54:19.502292,164
2021-10-14 14:54:19.502301,176
2021-10-14 14:54:19.502309,201
2021-10-14 14:54:19.502317,240
2021-10-14 14:54:19.502326,277
2021-10-14 14:54:19.502334,306
2021-10-14 14:54:19.502342,321
2021-10-14 14:54:19.502351,323
2021-10-14 14:54:19.502359,331
2021-10-14 14:54:19.502368,333
2021-10-14 14:54:19.502376,309
2021-10-14 14:54:19.502385,262
2021-10-14 14:54:19.502393,198
2021-10-14 14:54:19.502401,117
2021-10-14 14:54:19.502410,36
2021-10-14 14:54:19.502418,-29
2021-10-14 14:54:19.502426,-90
2021-10-14 14:54:19.502435,-154
2021-10-14 14:54:19.502443,-188
2021-10-14 14:54:19.502451,-191
2021-10-14 14:54:19.683097,-193
2021-10-14 14:54:19.683119,-201
2021-10-14 14:54:19.683129,-196
2021-10-14 14:54:19.683138,-193
2021-10-14 14:54:19.683147,-196
2021-10-14 14:54:19.683155,-188
2021-10-14 14:54:19.683162,-164
2021-10-14 14:54:19.683170,-142
2021-10-14 14:54:19.683177,-147
2021-10-14 14:54:19.683185,-149
2021-10-14 14:54:19.683194,-144
2021-10-14 14:54:19.683202,-142
2021-10-14 14:54:19.683210,-139
2021-10-14 14:54:19.683218,-132
2021-10-14 14:54:19.683226,-127
2021-10-14 14:54:19.683233,-127
2021-10-14 14:54:19.683241,-130
2021-10-14 14:54:19.683249,-122
2021-10-14 14:54:19.683258,-115
2021-10-14 14:54:19.683267,-120
2021-10-14 14:54:19.683276,-117
2021-10-14 14:54:19.683285,-105
2021-10-14 14:54:19.683295,-107
2021-10-14 14:54:19.683304,-120
2021-10-14 14:54:19.683313,-120
2021-10-14 14:54:19.683322,-107
2021-10-14 14:54:19.683330,-100
2021-10-14 14:54:19.683338,-98
2021-10-14 14:54:19.683346,-98
2021-10-14 14:54:19.683355,-100
2021-10-14 14:54:19.953160,-88
2021-10-14 14:54:19.953182,-73
2021-10-14 14:54:19.953191,-78
2021-10-14 14:54:19.953200,-100
2021-10-14 14:54:19.953209,-112
2021-10-14 14:54:19.953217,-93
2021-10-14 14:54:19.953226,-76
2021-10-14 14:54:19.953234,-53
2021-10-14 14:54:19.953243,-26
2021-10-14 14:54:19.953251,-31
2021-10-14 14:54:19.953260,-41
2021-10-14 14:54:19.953268,-41
2021-10-14 14:54:19.953283,-61
2021-10-14 14:54:19.953292,-80
2021-10-14 14:54:19.953301,-85
2021-10-14 14:54:19.953309,-90
2021-10-14 14:54:19.953318,-98
2021-10-14 14:54:19.953326,-88
2021-10-14 14:54:19.953334,-66
2021-10-14 14:54:19.953343,-71
2021-10-14 14:54:19.953351,-85
2021-10-14 14:54:19.953359,-36
2021-10-14 14:54:19.953368,159
2021-10-14 14:54:19.953376,507
2021-10-14 14:54:19.953384,770
2021-10-14 14:54:19.953393,507
2021-10-14 14:54:19.953401,-301
2021-10-14 14:54:19.953410,-650
2021-10-14 14:54:19.953418,-179
2021-10-14 14:54:19.953426,66
2021-10-14 14:54:20.223501,-95
2021-10-14 14:54:20.223523,-68
2021-10-14 14:54:20.223532,9
2021-10-14 14:54:20.223541,-26
2021-10-14 14:54:20.223549,-22
2021-10-14 14:54:20.223558,17
2021-10-14 14:54:20.223566,31
2021-10-14 14:54:20.223575,53
2021-10-14 14:54:20.223583,68
2021-10-14 14:54:20.223592,71
2021-10-14 14:54:20.223600,95
2021-10-14 14:54:20.223608,130
2021-10-14 14:54:20.223617,161
2021-10-14 14:54:20.223625,184
2021-10-14 14:54:20.223634,201
2021-10-14 14:54:20.223642,230
2021-10-14 14:54:20.223650,274
2021-10-14 14:54:20.223658,314
2021-10-14 14:54:20.223667,336
2021-10-14 14:54:20.223675,353
2021-10-14 14:54:20.223684,368
2021-10-14 14:54:20.223692,372
2021-10-14 14:54:20.223700,368
2021-10-14 14:54:20.223708,348
2021-10-14 14:54:20.223717,306
2021-10-14 14:54:20.223725,240
2021-10-14 14:54:20.223733,142
2021-10-14 14:54:20.223741,36
2021-10-14 14:54:20.223750,-31
2021-10-14 14:54:20.223758,-83
2021-10-14 14:54:20.403110,-134
2021-10-14 14:54:20.403131,-159
2021-10-14 14:54:20.403142,-164
2021-10-14 14:54:20.403151,-176
2021-10-14 14:54:20.403161,-181
2021-10-14 14:54:20.403170,-169
2021-10-14 14:54:20.403179,-147
2021-10-14 14:54:20.403188,-134
2021-10-14 14:54:20.403198,-134
2021-10-14 14:54:20.403207,-132
2021-10-14 14:54:20.403216,-117
2021-10-14 14:54:20.403225,-98
2021-10-14 14:54:20.403233,-100
2021-10-14 14:54:20.403241,-107
2021-10-14 14:54:20.403249,-100
2021-10-14 14:54:20.403257,-88
2021-10-14 14:54:20.403266,-90
2021-10-14 14:54:20.403274,-95
2021-10-14 14:54:20.403282,-88
2021-10-14 14:54:20.403290,-88
2021-10-14 14:54:20.403299,-93
2021-10-14 14:54:20.403307,-93
2021-10-14 14:54:20.403315,-93
2021-10-14 14:54:20.403323,-90
2021-10-14 14:54:20.403331,-80
2021-10-14 14:54:20.403340,-83
2021-10-14 14:54:20.403348,-88
2021-10-14 14:54:20.403356,-78
2021-10-14 14:54:20.403364,-76
2021-10-14 14:54:20.403373,-85
2021-10-14 14:54:20.672780,-83
2021-10-14 14:54:20.672800,-71
2021-10-14 14:54:20.672810,-63
2021-10-14 14:54:20.672818,-76
2021-10-14 14:54:20.672827,-93
2021-10-14 14:54:20.672836,-88
2021-10-14 14:54:20.672844,-68
2021-10-14 14:54:20.672852,-76
2021-10-14 14:54:20.672861,-95
2021-10-14 14:54:20.672869,-98
2021-10-14 14:54:20.672878,-85
2021-10-14 14:54:20.672886,-46
2021-10-14 14:54:20.672895,-4
2021-10-14 14:54:20.672903,0
2021-10-14 14:54:20.672912,-17
2021-10-14 14:54:20.672920,-22
2021-10-14 14:54:20.672929,-24
2021-10-14 14:54:20.672937,-41
2021-10-14 14:54:20.672946,-63
2021-10-14 14:54:20.672954,-56
2021-10-14 14:54:20.672962,-39
2021-10-14 14:54:20.672971,-41
2021-10-14 14:54:20.672979,-46
2021-10-14 14:54:20.672987,-41
2021-10-14 14:54:20.672996,-51
2021-10-14 14:54:20.673004,-31
2021-10-14 14:54:20.673012,117
2021-10-14 14:54:20.673021,441
2021-10-14 14:54:20.673029,792
2021-10-14 14:54:20.673037,743
2021-10-14 14:54:20.897506,31
2021-10-14 14:54:20.897527,-537
2021-10-14 14:54:20.897536,-230
2021-10-14 14:54:20.897545,107
2021-10-14 14:54:20.897553,-34
2021-10-14 14:54:20.897562,-71
2021-10-14 14:54:20.897571,22
2021-10-14 14:54:20.897579,-7
2021-10-14 14:54:20.897587,-17
2021-10-14 14:54:20.897596,31
2021-10-14 14:54:20.897604,46
2021-10-14 14:54:20.897613,53
2021-10-14 14:54:20.897622,66
2021-10-14 14:54:20.897630,68
2021-10-14 14:54:20.897638,90
2021-10-14 14:54:20.897647,127
2021-10-14 14:54:20.897655,147
2021-10-14 14:54:20.897663,164
2021-10-14 14:54:20.897672,193
2021-10-14 14:54:20.897680,223
2021-10-14 14:54:20.897688,255
2021-10-14 14:54:20.897697,296
2021-10-14 14:54:20.897705,328
2021-10-14 14:54:20.897713,343
2021-10-14 14:54:20.897722,355
2021-10-14 14:54:20.897730,368
2021-10-14 14:54:20.897738,355
2021-10-14 14:54:20.897746,333
2021-10-14 14:54:20.897755,306
2021-10-14 14:54:20.897763,252
2021-10-14 14:54:21.123520,166
2021-10-14 14:54:21.123542,85
2021-10-14 14:54:21.123552,17
2021-10-14 14:54:21.123560,-61
2021-10-14 14:54:21.123569,-127
2021-10-14 14:54:21.123577,-154
2021-10-14 14:54:21.123586,-166
2021-10-14 14:54:21.123594,-176
2021-10-14 14:54:21.123602,-179
2021-10-14 14:54:21.123611,-174
2021-10-14 14:54:21.123619,-186
2021-10-14 14:54:21.123628,-196
2021-10-14 14:54:21.123636,-174
2021-10-14 14:54:21.123644,-152
2021-10-14 14:54:21.123653,-159
2021-10-14 14:54:21.123661,-159
2021-10-14 14:54:21.123670,-137
2021-10-14 14:54:21.123678,-130
2021-10-14 14:54:21.123686,-127
2021-10-14 14:54:21.123694,-110
2021-10-14 14:54:21.123703,-110
2021-10-14 14:54:21.123711,-115
2021-10-14 14:54:21.123719,-103
2021-10-14 14:54:21.123728,-95
2021-10-14 14:54:21.123736,-107
2021-10-14 14:54:21.123744,-105
2021-10-14 14:54:21.123753,-85
2021-10-14 14:54:21.123761,-78
2021-10-14 14:54:21.123769,-90
2021-10-14 14:54:21.123778,-95
2021-10-14 14:54:21.303505,-83
2021-10-14 14:54:21.303526,-71
2021-10-14 14:54:21.303535,-73
2021-10-14 14:54:21.303544,-80
2021-10-14 14:54:21.303552,-80
2021-10-14 14:54:21.303560,-78
2021-10-14 14:54:21.303569,-63
2021-10-14 14:54:21.303577,-51
2021-10-14 14:54:21.303585,-56
2021-10-14 14:54:21.303594,-66
2021-10-14 14:54:21.303602,-63
2021-10-14 14:54:21.303611,-63
2021-10-14 14:54:21.303619,-68
2021-10-14 14:54:21.303627,-53
2021-10-14 14:54:21.303636,-41
2021-10-14 14:54:21.303644,-49
2021-10-14 14:54:21.303652,-58
2021-10-14 14:54:21.303661,-71
2021-10-14 14:54:21.303669,-61
2021-10-14 14:54:21.303677,-19
2021-10-14 14:54:21.303686,14
2021-10-14 14:54:21.303694,26
2021-10-14 14:54:21.303702,14
2021-10-14 14:54:21.303711,-7
2021-10-14 14:54:21.303719,-19
2021-10-14 14:54:21.303727,-24
2021-10-14 14:54:21.303736,-36
2021-10-14 14:54:21.303744,-41
2021-10-14 14:54:21.303752,-41
2021-10-14 14:54:21.303760,-44
2021-10-14 14:54:21.616802,-46
2021-10-14 14:54:21.616822,-51
2021-10-14 14:54:21.616832,-53
2021-10-14 14:54:21.616840,-17
2021-10-14 14:54:21.616849,154
2021-10-14 14:54:21.616858,488
2021-10-14 14:54:21.616866,797
2021-10-14 14:54:21.616874,647
2021-10-14 14:54:21.616883,-93
2021-10-14 14:54:21.616891,-561
2021-10-14 14:54:21.616900,-208
2021-10-14 14:54:21.616908,83
2021-10-14 14:54:21.616917,-63
2021-10-14 14:54:21.616925,-85
2021-10-14 14:54:21.616933,7
2021-10-14 14:54:21.616941,-12
2021-10-14 14:54:21.616950,-24
2021-10-14 14:54:21.616958,2
2021-10-14 14:54:21.616967,7
2021-10-14 14:54:21.616975,19
2021-10-14 14:54:21.616983,51
2021-10-14 14:54:21.616992,73
2021-10-14 14:54:21.617000,83
2021-10-14 14:54:21.617008,107
2021-10-14 14:54:21.617017,134
2021-10-14 14:54:21.617025,159
2021-10-14 14:54:21.617033,181
2021-10-14 14:54:21.617042,201
2021-10-14 14:54:21.617050,233
2021-10-14 14:54:21.617058,279
2021-10-14 14:54:21.798124,309
2021-10-14 14:54:21.798145,311
2021-10-14 14:54:21.798154,326
2021-10-14 14:54:21.798163,333
2021-10-14 14:54:21.798172,314
2021-10-14 14:54:21.798180,301
2021-10-14 14:54:21.798188,282
2021-10-14 14:54:21.798197,220
2021-10-14 14:54:21.798205,147
2021-10-14 14:54:21.798214,66
2021-10-14 14:54:21.798222,-14
2021-10-14 14:54:21.798230,-78
2021-10-14 14:54:21.798239,-125
2021-10-14 14:54:21.798247,-152
2021-10-14 14:54:21.798256,-171
2021-10-14 14:54:21.798264,-198
2021-10-14 14:54:21.798273,-206
2021-10-14 14:54:21.798281,-188
2021-10-14 14:54:21.798290,-181
2021-10-14 14:54:21.798298,-179
2021-10-14 14:54:21.798306,-161
2021-10-14 14:54:21.798314,-152
2021-10-14 14:54:21.798323,-144
2021-10-14 14:54:21.798331,-137
2021-10-14 14:54:21.798340,-127
2021-10-14 14:54:21.798348,-110
2021-10-14 14:54:21.798356,-105
2021-10-14 14:54:21.798365,-125
2021-10-14 14:54:21.798373,-130
2021-10-14 14:54:21.798382,-107
2021-10-14 14:54:22.023544,-95
2021-10-14 14:54:22.023565,-98
2021-10-14 14:54:22.023575,-98
2021-10-14 14:54:22.023584,-103
2021-10-14 14:54:22.023592,-110
2021-10-14 14:54:22.023601,-103
2021-10-14 14:54:22.023609,-103
2021-10-14 14:54:22.023617,-105
2021-10-14 14:54:22.023626,-100
2021-10-14 14:54:22.023634,-112
2021-10-14 14:54:22.023643,-122
2021-10-14 14:54:22.023651,-103
2021-10-14 14:54:22.023660,-90
2021-10-14 14:54:22.023668,-112
2021-10-14 14:54:22.023677,-120
2021-10-14 14:54:22.023685,-98
2021-10-14 14:54:22.023694,-90
2021-10-14 14:54:22.023702,-107
2021-10-14 14:54:22.023710,-95
2021-10-14 14:54:22.023719,-76
2021-10-14 14:54:22.023727,-80
2021-10-14 14:54:22.023735,-90
2021-10-14 14:54:22.023744,-103
2021-10-14 14:54:22.023752,-107
2021-10-14 14:54:22.023760,-76
2021-10-14 14:54:22.023769,-41
2021-10-14 14:54:22.023777,-44
2021-10-14 14:54:22.023785,-46
2021-10-14 14:54:22.023793,-41
2021-10-14 14:54:22.023802,-61
2021-10-14 14:54:22.248118,-80
2021-10-14 14:54:22.248139,-73
2021-10-14 14:54:22.248147,-71
2021-10-14 14:54:22.248155,-88
2021-10-14 14:54:22.248163,-88
2021-10-14 14:54:22.248171,-80
2021-10-14 14:54:22.248179,-103
2021-10-14 14:54:22.248186,-107
2021-10-14 14:54:22.248194,-66
2021-10-14 14:54:22.248202,39
2021-10-14 14:54:22.248210,294
2021-10-14 14:54:22.248218,655
2021-10-14 14:54:22.248225,745
2021-10-14 14:54:22.248233,144
2021-10-14 14:54:22.248241,-620
2021-10-14 14:54:22.248249,-498
2021-10-14 14:54:22.248256,22
2021-10-14 14:54:22.248264,-14
2021-10-14 14:54:22.248272,-142
2021-10-14 14:54:22.248279,-7
2021-10-14 14:54:22.248287,17
2021-10-14 14:54:22.248295,-51
2021-10-14 14:54:22.248302,-9
2021-10-14 14:54:22.248310,29
2021-10-14 14:54:22.248318,12
2021-10-14 14:54:22.248325,36
2021-10-14 14:54:22.248333,76
2021-10-14 14:54:22.248341,76
2021-10-14 14:54:22.248349,93
2021-10-14 14:54:22.248356,149
2021-10-14 14:54:22.518532,179
2021-10-14 14:54:22.518553,176
2021-10-14 14:54:22.518562,203
2021-10-14 14:54:22.518571,247
2021-10-14 14:54:22.518579,284
2021-10-14 14:54:22.518588,318
2021-10-14 14:54:22.518596,350
2021-10-14 14:54:22.518604,360
2021-10-14 14:54:22.518613,350
2021-10-14 14:54:22.518621,338
2021-10-14 14:54:22.518630,336
2021-10-14 14:54:22.518638,323
2021-10-14 14:54:22.518646,274
2021-10-14 14:54:22.518654,186
2021-10-14 14:54:22.518663,76
2021-10-14 14:54:22.518671,-24
2021-10-14 14:54:22.518680,-100
2021-10-14 14:54:22.518688,-159
2021-10-14 14:54:22.518696,-201
2021-10-14 14:54:22.518705,-225
2021-10-14 14:54:22.518713,-233
2021-10-14 14:54:22.518721,-206
2021-10-14 14:54:22.518730,-196
2021-10-14 14:54:22.518738,-230
2021-10-14 14:54:22.518746,-218
2021-10-14 14:54:22.518754,-174
2021-10-14 14:54:22.518762,-179
2021-10-14 14:54:22.518771,-196
2021-10-14 14:54:22.518779,-188
2021-10-14 14:54:22.518787,-166
2021-10-14 14:54:22.698486,-159
2021-10-14 14:54:22.698510,-164
2021-10-14 14:54:22.698520,-149
2021-10-14 14:54:22.698528,-134
2021-10-14 14:54:22.698537,-139
2021-10-14 14:54:22.698545,-149
2021-10-14 14:54:22.698553,-142
2021-10-14 14:54:22.698562,-117
2021-10-14 14:54:22.698570,-132
2021-10-14 14:54:22.698579,-152
2021-10-14 14:54:22.698587,-130
2021-10-14 14:54:22.698595,-127
2021-10-14 14:54:22.698604,-132
2021-10-14 14:54:22.698612,-112
2021-10-14 14:54:22.698621,-103
2021-10-14 14:54:22.698629,-117
2021-10-14 14:54:22.698637,-137
2021-10-14 14:54:22.698645,-134
2021-10-14 14:54:22.698654,-120
2021-10-14 14:54:22.698662,-122
2021-10-14 14:54:22.698680,-110
2021-10-14 14:54:22.698690,-98
2021-10-14 14:54:22.698698,-115
2021-10-14 14:54:22.698707,-117
2021-10-14 14:54:22.698715,-88
2021-10-14 14:54:22.698723,-49
2021-10-14 14:54:22.698732,-19
2021-10-14 14:54:22.698740,-19
2021-10-14 14:54:22.698748,-31
2021-10-14 14:54:22.698757,-46
2021-10-14 14:54:22.923156,-51
2021-10-14 14:54:22.923178,-53
2021-10-14 14:54:22.923187,-68
2021-10-14 14:54:22.923196,-61
2021-10-14 14:54:22.923205,-31
2021-10-14 14:54:22.923213,-46
2021-10-14 14:54:22.923222,-83
2021-10-14 14:54:22.923230,-71
2021-10-14 14:54:22.923238,-24
2021-10-14 14:54:22.923247,44
2021-10-14 14:54:22.923255,245
2021-10-14 14:54:22.923263,618
2021-10-14 14:54:22.923271,809
2021-10-14 14:54:22.923280,304
2021-10-14 14:54:22.923288,-490
2021-10-14 14:54:22.923296,-476
2021-10-14 14:54:22.923305,31
2021-10-14 14:54:22.923313,26
2021-10-14 14:54:22.923321,-117
2021-10-14 14:54:22.923344,-9
2021-10-14 14:54:22.923353,-4
2021-10-14 14:54:22.923362,-53
2021-10-14 14:54:22.923370,26
2021-10-14 14:54:22.923378,61
2021-10-14 14:54:22.923387,24
2021-10-14 14:54:22.923395,51
2021-10-14 14:54:22.923403,98
2021-10-14 14:54:22.923412,110
2021-10-14 14:54:22.923420,115
2021-10-14 14:54:22.923428,130
2021-10-14 14:54:23.148533,169
2021-10-14 14:54:23.148554,215
2021-10-14 14:54:23.148564,255
2021-10-14 14:54:23.148573,274
2021-10-14 14:54:23.148581,272
2021-10-14 14:54:23.148590,284
2021-10-14 14:54:23.148598,328
2021-10-14 14:54:23.148607,350
2021-10-14 14:54:23.148615,355
2021-10-14 14:54:23.148624,380
2021-10-14 14:54:23.148632,372
2021-10-14 14:54:23.148641,314
2021-10-14 14:54:23.148649,247
2021-10-14 14:54:23.148657,161
2021-10-14 14:54:23.148666,66
2021-10-14 14:54:23.148674,7
2021-10-14 14:54:23.148683,-66
2021-10-14 14:54:23.148691,-149
2021-10-14 14:54:23.148700,-164
2021-10-14 14:54:23.148708,-157
2021-10-14 14:54:23.148716,-198
2021-10-14 14:54:23.148725,-223
2021-10-14 14:54:23.148733,-203
2021-10-14 14:54:23.148741,-193
2021-10-14 14:54:23.148749,-198
2021-10-14 14:54:23.148758,-184
2021-10-14 14:54:23.148766,-157
2021-10-14 14:54:23.148774,-137
2021-10-14 14:54:23.148783,-144
2021-10-14 14:54:23.148791,-152
2021-10-14 14:54:23.462922,-120
2021-10-14 14:54:23.462944,-90
2021-10-14 14:54:23.462954,-100
2021-10-14 14:54:23.462962,-105
2021-10-14 14:54:23.462971,-90
2021-10-14 14:54:23.462980,-95
2021-10-14 14:54:23.462988,-112
2021-10-14 14:54:23.462996,-85
2021-10-14 14:54:23.463005,-58
2021-10-14 14:54:23.463013,-95
2021-10-14 14:54:23.463022,-127
2021-10-14 14:54:23.463030,-100
2021-10-14 14:54:23.463038,-73
2021-10-14 14:54:23.463047,-93
2021-10-14 14:54:23.463056,-93
2021-10-14 14:54:23.463064,-61
2021-10-14 14:54:23.463073,-56
2021-10-14 14:54:23.463081,-93
2021-10-14 14:54:23.463089,-98
2021-10-14 14:54:23.463098,-53
2021-10-14 14:54:23.463106,-56
2021-10-14 14:54:23.463115,-85
2021-10-14 14:54:23.463123,-61
2021-10-14 14:54:23.463132,-39
2021-10-14 14:54:23.463140,-36
2021-10-14 14:54:23.463149,-4
2021-10-14 14:54:23.463157,4
2021-10-14 14:54:23.463165,-19
2021-10-14 14:54:23.463174,-26
2021-10-14 14:54:23.463182,-26
2021-10-14 14:54:23.687197,-36
2021-10-14 14:54:23.687218,-31
2021-10-14 14:54:23.687228,-9
2021-10-14 14:54:23.687237,-24
2021-10-14 14:54:23.687245,-61
2021-10-14 14:54:23.687253,-58
2021-10-14 14:54:23.687261,-41
2021-10-14 14:54:23.687270,-26
2021-10-14 14:54:23.687278,66
2021-10-14 14:54:23.687286,311
2021-10-14 14:54:23.687295,662
2021-10-14 14:54:23.687303,844
2021-10-14 14:54:23.687311,382
2021-10-14 14:54:23.687320,-414
2021-10-14 14:54:23.687356,-466
2021-10-14 14:54:23.687366,2
2021-10-14 14:54:23.687375,29
2021-10-14 14:54:23.687383,-80
2021-10-14 14:54:23.687391,17
2021-10-14 14:54:23.687400,14
2021-10-14 14:54:23.687408,-36
2021-10-14 14:54:23.687415,19
2021-10-14 14:54:23.687424,46
2021-10-14 14:54:23.687450,29
2021-10-14 14:54:23.687459,63
2021-10-14 14:54:23.687468,100
2021-10-14 14:54:23.687476,83
2021-10-14 14:54:23.687484,90
2021-10-14 14:54:23.687493,144
2021-10-14 14:54:23.687501,166
2021-10-14 14:54:23.868182,186
2021-10-14 14:54:23.868203,242
2021-10-14 14:54:23.868213,252
2021-10-14 14:54:23.868221,245
2021-10-14 14:54:23.868230,316
2021-10-14 14:54:23.868238,372
2021-10-14 14:54:23.868247,353
2021-10-14 14:54:23.868255,350
2021-10-14 14:54:23.868263,372
2021-10-14 14:54:23.868272,348
2021-10-14 14:54:23.868280,304
2021-10-14 14:54:23.868288,257
2021-10-14 14:54:23.868297,188
2021-10-14 14:54:23.868305,90
2021-10-14 14:54:23.868313,-14
2021-10-14 14:54:23.868322,-78
2021-10-14 14:54:23.868330,-105
2021-10-14 14:54:23.868338,-134
2021-10-14 14:54:23.868347,-166
2021-10-14 14:54:23.868355,-179
2021-10-14 14:54:23.868364,-174
2021-10-14 14:54:23.868372,-161
2021-10-14 14:54:23.868381,-174
2021-10-14 14:54:23.868389,-179
2021-10-14 14:54:23.868398,-147
2021-10-14 14:54:23.868406,-134
2021-10-14 14:54:23.868414,-144
2021-10-14 14:54:23.868422,-132
2021-10-14 14:54:23.868431,-122
2021-10-14 14:54:23.868439,-125
2021-10-14 14:54:24.093541,-107
2021-10-14 14:54:24.093563,-105
2021-10-14 14:54:24.093572,-115
2021-10-14 14:54:24.093581,-90
2021-10-14 14:54:24.093590,-71
2021-10-14 14:54:24.093598,-78
2021-10-14 14:54:24.093606,-93
2021-10-14 14:54:24.093615,-105
2021-10-14 14:54:24.093623,-103
2021-10-14 14:54:24.093631,-93
2021-10-14 14:54:24.093640,-93
2021-10-14 14:54:24.093648,-95
2021-10-14 14:54:24.093657,-88
2021-10-14 14:54:24.093665,-83
2021-10-14 14:54:24.093673,-98
2021-10-14 14:54:24.093682,-112
2021-10-14 14:54:24.093690,-112
2021-10-14 14:54:24.093699,-112
2021-10-14 14:54:24.093707,-110
2021-10-14 14:54:24.093715,-90
2021-10-14 14:54:24.093724,-71
2021-10-14 14:54:24.093732,-80
2021-10-14 14:54:24.093740,-95
2021-10-14 14:54:24.093749,-80
2021-10-14 14:54:24.093757,-78
2021-10-14 14:54:24.093765,-85
2021-10-14 14:54:24.093774,-49
2021-10-14 14:54:24.093782,0
2021-10-14 14:54:24.093791,2
2021-10-14 14:54:24.093799,-26
2021-10-14 14:54:24.318564,-41
2021-10-14 14:54:24.318585,-44
2021-10-14 14:54:24.318595,-58
2021-10-14 14:54:24.318604,-61
2021-10-14 14:54:24.318612,-49
2021-10-14 14:54:24.318620,-46
2021-10-14 14:54:24.318629,-46
2021-10-14 14:54:24.318637,-51
2021-10-14 14:54:24.318646,-61
2021-10-14 14:54:24.318654,-51
2021-10-14 14:54:24.318662,0
2021-10-14 14:54:24.318671,164
2021-10-14 14:54:24.318679,502
2021-10-14 14:54:24.318688,814
2021-10-14 14:54:24.318696,608
2021-10-14 14:54:24.318705,-184
2021-10-14 14:54:24.318713,-606
2021-10-14 14:54:24.318721,-196
2021-10-14 14:54:24.318730,83
2021-10-14 14:54:24.318738,-68
2021-10-14 14:54:24.318747,-93
2021-10-14 14:54:24.318755,-9
2021-10-14 14:54:24.318763,-7
2021-10-14 14:54:24.318771,0
2021-10-14 14:54:24.318780,29
2021-10-14 14:54:24.318788,36
2021-10-14 14:54:24.318797,17
2021-10-14 14:54:24.318805,36
2021-10-14 14:54:24.318813,100
2021-10-14 14:54:24.318822,103
2021-10-14 14:54:24.543529,76
2021-10-14 14:54:24.543549,122
2021-10-14 14:54:24.543558,179
2021-10-14 14:54:24.543567,201
2021-10-14 14:54:24.543576,238
2021-10-14 14:54:24.543584,277
2021-10-14 14:54:24.543592,269
2021-10-14 14:54:24.543601,267
2021-10-14 14:54:24.543609,331
2021-10-14 14:54:24.543617,365
2021-10-14 14:54:24.543626,331
2021-10-14 14:54:24.543634,336
2021-10-14 14:54:24.543643,350
2021-10-14 14:54:24.543651,289
2021-10-14 14:54:24.543659,186
2021-10-14 14:54:24.543667,93
2021-10-14 14:54:24.543676,31
2021-10-14 14:54:24.543684,-31
2021-10-14 14:54:24.543693,-117
2021-10-14 14:54:24.543701,-169
2021-10-14 14:54:24.543709,-198
2021-10-14 14:54:24.543717,-218
2021-10-14 14:54:24.543726,-230
2021-10-14 14:54:24.543734,-267
2021-10-14 14:54:24.543742,-245
2021-10-14 14:54:24.543751,-166
2021-10-14 14:54:24.543759,-174
2021-10-14 14:54:24.543767,-218
2021-10-14 14:54:24.543775,-179
2021-10-14 14:54:24.543783,-157
2021-10-14 14:54:24.813351,-203
2021-10-14 14:54:24.813371,-176
2021-10-14 14:54:24.813380,-132
2021-10-14 14:54:24.813388,-193
2021-10-14 14:54:24.813396,-191
2021-10-14 14:54:24.813403,-100
2021-10-14 14:54:24.813411,-125
2021-10-14 14:54:24.813418,-201
2021-10-14 14:54:24.813426,-174
2021-10-14 14:54:24.813434,-125
2021-10-14 14:54:24.813442,-161
2021-10-14 14:54:24.813449,-174
2021-10-14 14:54:24.813457,-122
2021-10-14 14:54:24.813465,-132
2021-10-14 14:54:24.813472,-166
2021-10-14 14:54:24.813480,-134
2021-10-14 14:54:24.813488,-130
2021-10-14 14:54:24.813496,-161
2021-10-14 14:54:24.813503,-152
2021-10-14 14:54:24.813511,-125
2021-10-14 14:54:24.813518,-90
2021-10-14 14:54:24.813526,-122
2021-10-14 14:54:24.813534,-191
2021-10-14 14:54:24.813542,-117
2021-10-14 14:54:24.813549,-53
2021-10-14 14:54:24.813557,-142
2021-10-14 14:54:24.813565,-174
2021-10-14 14:54:24.813572,-98
2021-10-14 14:54:24.813580,-73
2021-10-14 14:54:24.813588,-73
2021-10-14 14:54:24.993551,-34
2021-10-14 14:54:24.993572,-41
2021-10-14 14:54:24.993583,-80
2021-10-14 14:54:24.993591,-68
2021-10-14 14:54:24.993600,-66
2021-10-14 14:54:24.993608,-107
2021-10-14 14:54:24.993617,-112
2021-10-14 14:54:24.993625,-93
2021-10-14 14:54:24.993633,-73
2021-10-14 14:54:24.993642,-53
2021-10-14 14:54:24.993650,-71
2021-10-14 14:54:24.993659,-115
2021-10-14 14:54:24.993667,-66
2021-10-14 14:54:24.993676,125
2021-10-14 14:54:24.993684,436
2021-10-14 14:54:24.993692,745
2021-10-14 14:54:24.993701,633
2021-10-14 14:54:24.993709,-169
2021-10-14 14:54:24.993718,-758
2021-10-14 14:54:24.993726,-348
2021-10-14 14:54:24.993734,80
2021-10-14 14:54:24.993743,-63
2021-10-14 14:54:24.993751,-125
2021-10-14 14:54:24.993760,-12
2021-10-14 14:54:24.993768,-14
2021-10-14 14:54:24.993776,-36
2021-10-14 14:54:24.993785,0
2021-10-14 14:54:24.993793,12
2021-10-14 14:54:24.993801,7
2021-10-14 14:54:24.993810,7
2021-10-14 14:54:25.352604,26
2021-10-14 14:54:25.352624,83
2021-10-14 14:54:25.352634,105
2021-10-14 14:54:25.352643,105
2021-10-14 14:54:25.352652,139
2021-10-14 14:54:25.352660,186
2021-10-14 14:54:25.352669,220
2021-10-14 14:54:25.352677,242
2021-10-14 14:54:25.352686,272
2021-10-14 14:54:25.352694,333
2021-10-14 14:54:25.352703,355
2021-10-14 14:54:25.352712,333
2021-10-14 14:54:25.352720,345
2021-10-14 14:54:25.352729,375
2021-10-14 14:54:25.352737,353
2021-10-14 14:54:25.352745,284
2021-10-14 14:54:25.352882,211
2021-10-14 14:54:25.352896,139
2021-10-14 14:54:25.352905,26
2021-10-14 14:54:25.352913,-78
2021-10-14 14:54:25.352922,-112
2021-10-14 14:54:25.352931,-157
2021-10-14 14:54:25.352939,-242
2021-10-14 14:54:25.352948,-262
2021-10-14 14:54:25.352956,-213
2021-10-14 14:54:25.352964,-201
2021-10-14 14:54:25.352973,-225
2021-10-14 14:54:25.352981,-223
2021-10-14 14:54:25.352990,-198
2021-10-14 14:54:25.352998,-179
2021-10-14 14:54:25.488377,-171
2021-10-14 14:54:25.488409,-164
2021-10-14 14:54:25.488418,-147
2021-10-14 14:54:25.488427,-134
2021-10-14 14:54:25.488435,-132
2021-10-14 14:54:25.488444,-122
2021-10-14 14:54:25.488452,-98
2021-10-14 14:54:25.488461,-88
2021-10-14 14:54:25.488469,-90
2021-10-14 14:54:25.488477,-68
2021-10-14 14:54:25.488486,-53
2021-10-14 14:54:25.488494,-80
2021-10-14 14:54:25.488503,-78
2021-10-14 14:54:25.488511,-49
2021-10-14 14:54:25.488519,-66
2021-10-14 14:54:25.488528,-98
2021-10-14 14:54:25.488536,-73
2021-10-14 14:54:25.488545,-31
2021-10-14 14:54:25.488553,-41
2021-10-14 14:54:25.488561,-63
2021-10-14 14:54:25.488570,-58
2021-10-14 14:54:25.488578,-49
2021-10-14 14:54:25.488587,-44
2021-10-14 14:54:25.488595,-58
2021-10-14 14:54:25.488603,-76
2021-10-14 14:54:25.488612,-68
2021-10-14 14:54:25.488656,-56
2021-10-14 14:54:25.488665,-34
2021-10-14 14:54:25.488674,14
2021-10-14 14:54:25.488682,24
2021-10-14 14:54:25.847310,-2
2021-10-14 14:54:25.847333,14
2021-10-14 14:54:25.847342,9
2021-10-14 14:54:25.847350,-58
2021-10-14 14:54:25.847358,-53
2021-10-14 14:54:25.847366,9
2021-10-14 14:54:25.847373,-26
2021-10-14 14:54:25.847381,-66
2021-10-14 14:54:25.847388,-9
2021-10-14 14:54:25.847396,4
2021-10-14 14:54:25.847404,-51
2021-10-14 14:54:25.847411,-49
2021-10-14 14:54:25.847419,83
2021-10-14 14:54:25.847427,372
2021-10-14 14:54:25.847435,736
2021-10-14 14:54:25.847442,885
2021-10-14 14:54:25.847450,385
2021-10-14 14:54:25.847458,-434
2021-10-14 14:54:25.847466,-436
2021-10-14 14:54:25.847473,88
2021-10-14 14:54:25.847481,76
2021-10-14 14:54:25.847489,-110
2021-10-14 14:54:25.847496,-2
2021-10-14 14:54:25.847504,66
2021-10-14 14:54:25.847512,29
2021-10-14 14:54:25.847519,44
2021-10-14 14:54:25.847527,76
2021-10-14 14:54:25.847535,98
2021-10-14 14:54:25.847547,122
2021-10-14 14:54:25.847555,130
2021-10-14 14:54:25.983238,120
2021-10-14 14:54:25.983260,139
2021-10-14 14:54:25.983269,171
2021-10-14 14:54:25.983278,161
2021-10-14 14:54:25.983287,169
2021-10-14 14:54:25.983295,250
2021-10-14 14:54:25.983304,311
2021-10-14 14:54:25.983312,331
2021-10-14 14:54:25.983321,385
2021-10-14 14:54:25.983329,404
2021-10-14 14:54:25.983337,368
2021-10-14 14:54:25.983346,392
2021-10-14 14:54:25.983354,446
2021-10-14 14:54:25.983363,399
2021-10-14 14:54:25.983371,323
2021-10-14 14:54:25.983380,294
2021-10-14 14:54:25.983388,203
2021-10-14 14:54:25.983397,51
2021-10-14 14:54:25.983405,-12
2021-10-14 14:54:25.983414,-31
2021-10-14 14:54:25.983422,-120
2021-10-14 14:54:25.983431,-186
2021-10-14 14:54:25.983439,-193
2021-10-14 14:54:25.983448,-206
2021-10-14 14:54:25.983456,-218
2021-10-14 14:54:25.983464,-201
2021-10-14 14:54:25.983473,-191
2021-10-14 14:54:25.983481,-215
2021-10-14 14:54:25.983489,-198
2021-10-14 14:54:25.983498,-154
2021-10-14 14:54:26.163568,-186
2021-10-14 14:54:26.163589,-206
2021-10-14 14:54:26.163599,-147
2021-10-14 14:54:26.163608,-122
2021-10-14 14:54:26.163616,-142
2021-10-14 14:54:26.163625,-122
2021-10-14 14:54:26.163633,-105
2021-10-14 14:54:26.163642,-117
2021-10-14 14:54:26.163650,-130
2021-10-14 14:54:26.163659,-147
2021-10-14 14:54:26.163667,-107
2021-10-14 14:54:26.163675,-61
2021-10-14 14:54:26.163684,-115
2021-10-14 14:54:26.163692,-149
2021-10-14 14:54:26.163700,-100
2021-10-14 14:54:26.163709,-115
2021-10-14 14:54:26.163717,-166
2021-10-14 14:54:26.163726,-117
2021-10-14 14:54:26.163734,-93
2021-10-14 14:54:26.163743,-161
2021-10-14 14:54:26.163751,-159
2021-10-14 14:54:26.163759,-107
2021-10-14 14:54:26.163768,-115
2021-10-14 14:54:26.163776,-132
2021-10-14 14:54:26.163785,-125
2021-10-14 14:54:26.163793,-110
2021-10-14 14:54:26.163801,-103
2021-10-14 14:54:26.163810,-125
2021-10-14 14:54:26.163818,-132
2021-10-14 14:54:26.163827,-78
2021-10-14 14:54:26.388644,-34
2021-10-14 14:54:26.388669,-36
2021-10-14 14:54:26.388679,-34
2021-10-14 14:54:26.388688,-22
2021-10-14 14:54:26.388697,-24
2021-10-14 14:54:26.388705,-71
2021-10-14 14:54:26.388714,-120
2021-10-14 14:54:26.388722,-78
2021-10-14 14:54:26.388731,-22
2021-10-14 14:54:26.388739,-53
2021-10-14 14:54:26.388748,-80
2021-10-14 14:54:26.388756,-44
2021-10-14 14:54:26.388765,-41
2021-10-14 14:54:26.388773,-80
2021-10-14 14:54:26.388782,-34
2021-10-14 14:54:26.388790,235
2021-10-14 14:54:26.388798,652
2021-10-14 14:54:26.388807,880
2021-10-14 14:54:26.388815,493
2021-10-14 14:54:26.388824,-350
2021-10-14 14:54:26.388832,-598
2021-10-14 14:54:26.388841,-95
2021-10-14 14:54:26.388849,88
2021-10-14 14:54:26.388857,-80
2021-10-14 14:54:26.388866,-36
2021-10-14 14:54:26.388874,51
2021-10-14 14:54:26.388883,2
2021-10-14 14:54:26.388891,-4
2021-10-14 14:54:26.388899,58
2021-10-14 14:54:26.388907,78
2021-10-14 14:54:26.613619,78
2021-10-14 14:54:26.613640,95
2021-10-14 14:54:26.613650,93
2021-10-14 14:54:26.613659,100
2021-10-14 14:54:26.613667,144
2021-10-14 14:54:26.613676,166
2021-10-14 14:54:26.613684,169
2021-10-14 14:54:26.613693,215
2021-10-14 14:54:26.613701,274
2021-10-14 14:54:26.613710,289
2021-10-14 14:54:26.613718,309
2021-10-14 14:54:26.613727,370
2021-10-14 14:54:26.613735,392
2021-10-14 14:54:26.613743,358
2021-10-14 14:54:26.613752,353
2021-10-14 14:54:26.613760,368
2021-10-14 14:54:26.613769,345
2021-10-14 14:54:26.613777,296
2021-10-14 14:54:26.613785,228
2021-10-14 14:54:26.613794,130
2021-10-14 14:54:26.613802,19
2021-10-14 14:54:26.613811,-66
2021-10-14 14:54:26.613819,-130
2021-10-14 14:54:26.613827,-191
2021-10-14 14:54:26.613835,-213
2021-10-14 14:54:26.613844,-203
2021-10-14 14:54:26.613852,-208
2021-10-14 14:54:26.613861,-203
2021-10-14 14:54:26.613869,-186
2021-10-14 14:54:26.613877,-186
2021-10-14 14:54:26.838231,-181
2021-10-14 14:54:26.838252,-166
2021-10-14 14:54:26.838262,-176
2021-10-14 14:54:26.838271,-176
2021-10-14 14:54:26.838279,-154
2021-10-14 14:54:26.838287,-152
2021-10-14 14:54:26.838296,-152
2021-10-14 14:54:26.838304,-117
2021-10-14 14:54:26.838313,-105
2021-10-14 14:54:26.838321,-130
2021-10-14 14:54:26.838330,-130
2021-10-14 14:54:26.838338,-112
2021-10-14 14:54:26.838346,-134
2021-10-14 14:54:26.838355,-139
2021-10-14 14:54:26.838363,-95
2021-10-14 14:54:26.838372,-83
2021-10-14 14:54:26.838381,-125
2021-10-14 14:54:26.838389,-125
2021-10-14 14:54:26.838397,-90
2021-10-14 14:54:26.838406,-98
2021-10-14 14:54:26.838414,-125
2021-10-14 14:54:26.838437,-115
2021-10-14 14:54:26.838446,-93
2021-10-14 14:54:26.838454,-98
2021-10-14 14:54:26.838463,-103
2021-10-14 14:54:26.838471,-93
2021-10-14 14:54:26.838480,-93
2021-10-14 14:54:26.838488,-93
2021-10-14 14:54:26.838497,-73
2021-10-14 14:54:26.838505,-73
2021-10-14 14:54:27.063623,-85
2021-10-14 14:54:27.063644,-78
2021-10-14 14:54:27.063653,-58
2021-10-14 14:54:27.063662,-36
2021-10-14 14:54:27.063671,-41
2021-10-14 14:54:27.063679,-36
2021-10-14 14:54:27.063688,-2
2021-10-14 14:54:27.063696,-12
2021-10-14 14:54:27.063704,-44
2021-10-14 14:54:27.063713,-44
2021-10-14 14:54:27.063721,-53
2021-10-14 14:54:27.063730,-73
2021-10-14 14:54:27.063738,-71
2021-10-14 14:54:27.063746,-46
2021-10-14 14:54:27.063755,-29
2021-10-14 14:54:27.063763,-41
2021-10-14 14:54:27.063772,-46
2021-10-14 14:54:27.063780,19
2021-10-14 14:54:27.063788,220
2021-10-14 14:54:27.063797,569
2021-10-14 14:54:27.063805,841
2021-10-14 14:54:27.063814,596
2021-10-14 14:54:27.063822,-242
2021-10-14 14:54:27.063830,-674
2021-10-14 14:54:27.063839,-220
2021-10-14 14:54:27.063847,68
2021-10-14 14:54:27.063855,-80
2021-10-14 14:54:27.063864,-53
2021-10-14 14:54:27.063872,34
2021-10-14 14:54:27.063881,-17
2021-10-14 14:54:27.288682,-22
2021-10-14 14:54:27.288703,36
2021-10-14 14:54:27.288713,31
2021-10-14 14:54:27.288721,12
2021-10-14 14:54:27.288730,44
2021-10-14 14:54:27.288738,85
2021-10-14 14:54:27.288746,90
2021-10-14 14:54:27.288755,103
2021-10-14 14:54:27.288763,142
2021-10-14 14:54:27.288771,159
2021-10-14 14:54:27.288780,166
2021-10-14 14:54:27.288788,225
2021-10-14 14:54:27.288796,291
2021-10-14 14:54:27.288804,316
2021-10-14 14:54:27.288812,333
2021-10-14 14:54:27.288821,353
2021-10-14 14:54:27.288829,368
2021-10-14 14:54:27.288837,375
2021-10-14 14:54:27.288845,375
2021-10-14 14:54:27.288853,377
2021-10-14 14:54:27.288862,331
2021-10-14 14:54:27.288870,235
2021-10-14 14:54:27.288878,125
2021-10-14 14:54:27.288886,17
2021-10-14 14:54:27.288895,-68
2021-10-14 14:54:27.288903,-132
2021-10-14 14:54:27.288911,-198
2021-10-14 14:54:27.288919,-250
2021-10-14 14:54:27.288927,-255
2021-10-14 14:54:27.288936,-240
2021-10-14 14:54:27.558601,-238
2021-10-14 14:54:27.558623,-245
2021-10-14 14:54:27.558632,-240
2021-10-14 14:54:27.558641,-225
2021-10-14 14:54:27.558649,-225
2021-10-14 14:54:27.558658,-233
2021-10-14 14:54:27.558666,-208
2021-10-14 14:54:27.558674,-174
2021-10-14 14:54:27.558683,-179
2021-10-14 14:54:27.558691,-198
2021-10-14 14:54:27.558699,-171
2021-10-14 14:54:27.558708,-142
2021-10-14 14:54:27.558716,-154
2021-10-14 14:54:27.558724,-157
2021-10-14 14:54:27.558733,-142
2021-10-14 14:54:27.558741,-147
2021-10-14 14:54:27.558749,-147
2021-10-14 14:54:27.558758,-125
2021-10-14 14:54:27.558766,-120
2021-10-14 14:54:27.558774,-130
2021-10-14 14:54:27.558783,-125
2021-10-14 14:54:27.558791,-122
2021-10-14 14:54:27.558799,-127
2021-10-14 14:54:27.558808,-120
2021-10-14 14:54:27.558821,-117
2021-10-14 14:54:27.558830,-137
2021-10-14 14:54:27.558839,-130
2021-10-14 14:54:27.558847,-115
2021-10-14 14:54:27.558856,-132
2021-10-14 14:54:27.558864,-134
2021-10-14 14:54:27.827320,-115
2021-10-14 14:54:27.827342,-120
2021-10-14 14:54:27.827351,-132
2021-10-14 14:54:27.827360,-115
2021-10-14 14:54:27.827369,-80
2021-10-14 14:54:27.827377,-49
2021-10-14 14:54:27.827386,-31
2021-10-14 14:54:27.827394,-36
2021-10-14 14:54:27.827403,-58
2021-10-14 14:54:27.827411,-78
2021-10-14 14:54:27.827420,-76
2021-10-14 14:54:27.827428,-63
2021-10-14 14:54:27.827436,-71
2021-10-14 14:54:27.827445,-88
2021-10-14 14:54:27.827453,-76
2021-10-14 14:54:27.827462,-58
2021-10-14 14:54:27.827470,-49
2021-10-14 14:54:27.827478,-39
2021-10-14 14:54:27.827487,-9
2021-10-14 14:54:27.827495,117
2021-10-14 14:54:27.827504,414
2021-10-14 14:54:27.827512,772
2021-10-14 14:54:27.827521,782
2021-10-14 14:54:27.827529,78
2021-10-14 14:54:27.827537,-591
2021-10-14 14:54:27.827546,-311
2021-10-14 14:54:27.827554,110
2021-10-14 14:54:27.827562,-9
2021-10-14 14:54:27.827571,-63
2021-10-14 14:54:27.827579,58
2021-10-14 14:54:28.008202,41
2021-10-14 14:54:28.008224,2
2021-10-14 14:54:28.008234,31
2021-10-14 14:54:28.008242,44
2021-10-14 14:54:28.008251,51
2021-10-14 14:54:28.008259,76
2021-10-14 14:54:28.008268,98
2021-10-14 14:54:28.008276,120
2021-10-14 14:54:28.008285,130
2021-10-14 14:54:28.008293,142
2021-10-14 14:54:28.008302,184
2021-10-14 14:54:28.008310,218
2021-10-14 14:54:28.008319,240
2021-10-14 14:54:28.008328,282
2021-10-14 14:54:28.008336,331
2021-10-14 14:54:28.008344,355
2021-10-14 14:54:28.008353,377
2021-10-14 14:54:28.008361,414
2021-10-14 14:54:28.008370,436
2021-10-14 14:54:28.008378,424
2021-10-14 14:54:28.008386,395
2021-10-14 14:54:28.008395,348
2021-10-14 14:54:28.008403,287
2021-10-14 14:54:28.008412,191
2021-10-14 14:54:28.008420,63
2021-10-14 14:54:28.008429,-31
2021-10-14 14:54:28.008437,-83
2021-10-14 14:54:28.008446,-149
2021-10-14 14:54:28.008454,-201
2021-10-14 14:54:28.008462,-198
2021-10-14 14:54:28.233591,-191
2021-10-14 14:54:28.233612,-208
2021-10-14 14:54:28.233622,-225
2021-10-14 14:54:28.233630,-215
2021-10-14 14:54:28.233639,-203
2021-10-14 14:54:28.233647,-211
2021-10-14 14:54:28.233656,-208
2021-10-14 14:54:28.233664,-186
2021-10-14 14:54:28.233673,-164
2021-10-14 14:54:28.233681,-157
2021-10-14 14:54:28.233690,-139
2021-10-14 14:54:28.233698,-122
2021-10-14 14:54:28.233707,-125
2021-10-14 14:54:28.233715,-132
2021-10-14 14:54:28.233723,-125
2021-10-14 14:54:28.233732,-103
2021-10-14 14:54:28.233740,-93
2021-10-14 14:54:28.233749,-100
2021-10-14 14:54:28.233757,-95
2021-10-14 14:54:28.233765,-83
2021-10-14 14:54:28.233774,-80
2021-10-14 14:54:28.233782,-78
2021-10-14 14:54:28.233790,-73
2021-10-14 14:54:28.233799,-73
2021-10-14 14:54:28.233807,-76
2021-10-14 14:54:28.233815,-66
2021-10-14 14:54:28.233824,-66
2021-10-14 14:54:28.233832,-78
2021-10-14 14:54:28.233840,-61
2021-10-14 14:54:28.233849,-36
2021-10-14 14:54:28.503521,-44
2021-10-14 14:54:28.503540,-53
2021-10-14 14:54:28.503550,-51
2021-10-14 14:54:28.503558,-56
2021-10-14 14:54:28.503567,-58
2021-10-14 14:54:28.503575,-31
2021-10-14 14:54:28.503584,0
2021-10-14 14:54:28.503593,2
2021-10-14 14:54:28.503601,-7
2021-10-14 14:54:28.503609,-7
2021-10-14 14:54:28.503618,-12
2021-10-14 14:54:28.503626,-24
2021-10-14 14:54:28.503635,-34
2021-10-14 14:54:28.503643,-34
2021-10-14 14:54:28.503651,-29
2021-10-14 14:54:28.503659,-24
2021-10-14 14:54:28.503668,-9
2021-10-14 14:54:28.503676,-7
2021-10-14 14:54:28.503684,-29
2021-10-14 14:54:28.503693,-14
2021-10-14 14:54:28.503701,120
2021-10-14 14:54:28.503709,404
2021-10-14 14:54:28.503718,790
2021-10-14 14:54:28.503726,939
2021-10-14 14:54:28.503734,390
2021-10-14 14:54:28.503743,-387
2021-10-14 14:54:28.503751,-333
2021-10-14 14:54:28.503759,112
2021-10-14 14:54:28.503768,51
2021-10-14 14:54:28.503776,-76
2021-10-14 14:54:28.683177,51
2021-10-14 14:54:28.683197,76
2021-10-14 14:54:28.683206,17
2021-10-14 14:54:28.683215,53
2021-10-14 14:54:28.683224,85
2021-10-14 14:54:28.683232,63
2021-10-14 14:54:28.683240,66
2021-10-14 14:54:28.683249,88
2021-10-14 14:54:28.683257,100
2021-10-14 14:54:28.683266,115
