Time,ECG
2021-10-14 15:21:00.174499,-90
2021-10-14 15:21:00.174521,-83
2021-10-14 15:21:00.174530,-85
2021-10-14 15:21:00.174539,-93
2021-10-14 15:21:00.174548,-76
2021-10-14 15:21:00.174556,-58
2021-10-14 15:21:00.174564,-58
2021-10-14 15:21:00.174573,-53
2021-10-14 15:21:00.174581,-58
2021-10-14 15:21:00.174590,-71
2021-10-14 15:21:00.174598,-66
2021-10-14 15:21:00.174607,-51
2021-10-14 15:21:00.174615,-46
2021-10-14 15:21:00.174623,-56
2021-10-14 15:21:00.174632,-66
2021-10-14 15:21:00.174640,-58
2021-10-14 15:21:00.174649,-51
2021-10-14 15:21:00.174657,-58
2021-10-14 15:21:00.174666,-58
2021-10-14 15:21:00.174674,-31
2021-10-14 15:21:00.174683,-4
2021-10-14 15:21:00.174691,9
2021-10-14 15:21:00.174699,14
2021-10-14 15:21:00.174708,14
2021-10-14 15:21:00.174716,7
2021-10-14 15:21:00.174724,-9
2021-10-14 15:21:00.174733,-24
2021-10-14 15:21:00.174741,-24
2021-10-14 15:21:00.174749,-19
2021-10-14 15:21:00.174758,-9
2021-10-14 15:21:00.399217,-2
2021-10-14 15:21:00.399239,-2
2021-10-14 15:21:00.399249,-12
2021-10-14 15:21:00.399257,-4
2021-10-14 15:21:00.399266,98
2021-10-14 15:21:00.399274,392
2021-10-14 15:21:00.399283,814
2021-10-14 15:21:00.399292,976
2021-10-14 15:21:00.399300,426
2021-10-14 15:21:00.399309,-321
2021-10-14 15:21:00.399317,-257
2021-10-14 15:21:00.399326,132
2021-10-14 15:21:00.399334,51
2021-10-14 15:21:00.399343,-66
2021-10-14 15:21:00.399351,26
2021-10-14 15:21:00.399360,34
2021-10-14 15:21:00.399368,-4
2021-10-14 15:21:00.399377,34
2021-10-14 15:21:00.399385,63
2021-10-14 15:21:00.399394,58
2021-10-14 15:21:00.399402,73
2021-10-14 15:21:00.399411,93
2021-10-14 15:21:00.399419,103
2021-10-14 15:21:00.399428,132
2021-10-14 15:21:00.399436,166
2021-10-14 15:21:00.399445,181
2021-10-14 15:21:00.399453,198
2021-10-14 15:21:00.399461,235
2021-10-14 15:21:00.399470,272
2021-10-14 15:21:00.399478,304
2021-10-14 15:21:00.624620,331
2021-10-14 15:21:00.624641,360
2021-10-14 15:21:00.624651,382
2021-10-14 15:21:00.624660,387
2021-10-14 15:21:00.624669,382
2021-10-14 15:21:00.624678,387
2021-10-14 15:21:00.624686,377
2021-10-14 15:21:00.624695,328
2021-10-14 15:21:00.624703,240
2021-10-14 15:21:00.624712,139
2021-10-14 15:21:00.624721,44
2021-10-14 15:21:00.624730,-39
2021-10-14 15:21:00.624738,-127
2021-10-14 15:21:00.624747,-201
2021-10-14 15:21:00.624755,-238
2021-10-14 15:21:00.624764,-262
2021-10-14 15:21:00.624772,-277
2021-10-14 15:21:00.624781,-274
2021-10-14 15:21:00.624789,-262
2021-10-14 15:21:00.624798,-260
2021-10-14 15:21:00.624807,-260
2021-10-14 15:21:00.624815,-245
2021-10-14 15:21:00.624824,-223
2021-10-14 15:21:00.624832,-215
2021-10-14 15:21:00.624840,-213
2021-10-14 15:21:00.624849,-201
2021-10-14 15:21:00.624858,-188
2021-10-14 15:21:00.624866,-188
2021-10-14 15:21:00.624875,-181
2021-10-14 15:21:00.624883,-166
2021-10-14 15:21:00.849217,-159
2021-10-14 15:21:00.849239,-154
2021-10-14 15:21:00.849249,-152
2021-10-14 15:21:00.849258,-149
2021-10-14 15:21:00.849266,-142
2021-10-14 15:21:00.849275,-142
2021-10-14 15:21:00.849283,-154
2021-10-14 15:21:00.849292,-159
2021-10-14 15:21:00.849301,-147
2021-10-14 15:21:00.849309,-142
2021-10-14 15:21:00.849318,-149
2021-10-14 15:21:00.849326,-152
2021-10-14 15:21:00.849335,-147
2021-10-14 15:21:00.849343,-134
2021-10-14 15:21:00.849352,-130
2021-10-14 15:21:00.849360,-125
2021-10-14 15:21:00.849369,-115
2021-10-14 15:21:00.849377,-107
2021-10-14 15:21:00.849385,-110
2021-10-14 15:21:00.849394,-105
2021-10-14 15:21:00.849402,-93
2021-10-14 15:21:00.849410,-93
2021-10-14 15:21:00.849419,-90
2021-10-14 15:21:00.849427,-78
2021-10-14 15:21:00.849435,-76
2021-10-14 15:21:00.849444,-76
2021-10-14 15:21:00.849452,-71
2021-10-14 15:21:00.849460,-73
2021-10-14 15:21:00.849469,-80
2021-10-14 15:21:00.849477,-78
2021-10-14 15:21:01.117935,-56
2021-10-14 15:21:01.117962,-24
2021-10-14 15:21:01.117972,-2
2021-10-14 15:21:01.117981,7
2021-10-14 15:21:01.117989,9
2021-10-14 15:21:01.117998,-12
2021-10-14 15:21:01.118006,-44
2021-10-14 15:21:01.118015,-51
2021-10-14 15:21:01.118023,-44
2021-10-14 15:21:01.118032,-44
2021-10-14 15:21:01.118041,-51
2021-10-14 15:21:01.118049,-58
2021-10-14 15:21:01.118058,-51
2021-10-14 15:21:01.118066,-46
2021-10-14 15:21:01.118075,-26
2021-10-14 15:21:01.118083,78
2021-10-14 15:21:01.118092,350
2021-10-14 15:21:01.118100,723
2021-10-14 15:21:01.118109,839
2021-10-14 15:21:01.118117,257
2021-10-14 15:21:01.118125,-478
2021-10-14 15:21:01.118134,-333
2021-10-14 15:21:01.118142,117
2021-10-14 15:21:01.118151,19
2021-10-14 15:21:01.118159,-93
2021-10-14 15:21:01.118168,26
2021-10-14 15:21:01.118176,29
2021-10-14 15:21:01.118184,-19
2021-10-14 15:21:01.118193,29
2021-10-14 15:21:01.118201,66
2021-10-14 15:21:01.343992,58
2021-10-14 15:21:01.344014,76
2021-10-14 15:21:01.344024,105
2021-10-14 15:21:01.344033,122
2021-10-14 15:21:01.344041,134
2021-10-14 15:21:01.344050,144
2021-10-14 15:21:01.344058,171
2021-10-14 15:21:01.344067,218
2021-10-14 15:21:01.344075,257
2021-10-14 15:21:01.344084,274
2021-10-14 15:21:01.344092,284
2021-10-14 15:21:01.344101,311
2021-10-14 15:21:01.344109,358
2021-10-14 15:21:01.344118,392
2021-10-14 15:21:01.344127,404
2021-10-14 15:21:01.344135,409
2021-10-14 15:21:01.344143,404
2021-10-14 15:21:01.344152,375
2021-10-14 15:21:01.344160,331
2021-10-14 15:21:01.344169,255
2021-10-14 15:21:01.344177,147
2021-10-14 15:21:01.344185,36
2021-10-14 15:21:01.344194,-58
2021-10-14 15:21:01.344202,-139
2021-10-14 15:21:01.344211,-186
2021-10-14 15:21:01.344220,-208
2021-10-14 15:21:01.344228,-228
2021-10-14 15:21:01.344236,-242
2021-10-14 15:21:01.344245,-233
2021-10-14 15:21:01.344253,-218
2021-10-14 15:21:01.524249,-211
2021-10-14 15:21:01.524270,-201
2021-10-14 15:21:01.524280,-188
2021-10-14 15:21:01.524288,-188
2021-10-14 15:21:01.524297,-184
2021-10-14 15:21:01.524305,-166
2021-10-14 15:21:01.524314,-161
2021-10-14 15:21:01.524323,-154
2021-10-14 15:21:01.524331,-144
2021-10-14 15:21:01.524340,-147
2021-10-14 15:21:01.524348,-157
2021-10-14 15:21:01.524357,-149
2021-10-14 15:21:01.524365,-142
2021-10-14 15:21:01.524374,-144
2021-10-14 15:21:01.524382,-149
2021-10-14 15:21:01.524390,-157
2021-10-14 15:21:01.524399,-159
2021-10-14 15:21:01.524407,-149
2021-10-14 15:21:01.524416,-139
2021-10-14 15:21:01.524424,-137
2021-10-14 15:21:01.524433,-137
2021-10-14 15:21:01.524441,-137
2021-10-14 15:21:01.524450,-134
2021-10-14 15:21:01.524458,-125
2021-10-14 15:21:01.524467,-117
2021-10-14 15:21:01.524475,-117
2021-10-14 15:21:01.524483,-127
2021-10-14 15:21:01.524492,-132
2021-10-14 15:21:01.524501,-125
2021-10-14 15:21:01.524509,-115
2021-10-14 15:21:01.794263,-105
2021-10-14 15:21:01.794284,-103
2021-10-14 15:21:01.794293,-112
2021-10-14 15:21:01.794302,-125
2021-10-14 15:21:01.794311,-112
2021-10-14 15:21:01.794319,-66
2021-10-14 15:21:01.794328,-34
2021-10-14 15:21:01.794336,-31
2021-10-14 15:21:01.794345,-34
2021-10-14 15:21:01.794353,-46
2021-10-14 15:21:01.794362,-61
2021-10-14 15:21:01.794370,-66
2021-10-14 15:21:01.794379,-68
2021-10-14 15:21:01.794387,-68
2021-10-14 15:21:01.794396,-66
2021-10-14 15:21:01.794404,-58
2021-10-14 15:21:01.794414,-53
2021-10-14 15:21:01.794422,-56
2021-10-14 15:21:01.794430,-51
2021-10-14 15:21:01.794439,-2
2021-10-14 15:21:01.794448,181
2021-10-14 15:21:01.794456,559
2021-10-14 15:21:01.794464,912
2021-10-14 15:21:01.794473,699
2021-10-14 15:21:01.794481,-100
2021-10-14 15:21:01.794490,-431
2021-10-14 15:21:01.794498,-12
2021-10-14 15:21:01.794507,127
2021-10-14 15:21:01.794515,-58
2021-10-14 15:21:01.794524,-9
2021-10-14 15:21:02.063632,61
2021-10-14 15:21:02.063654,7
2021-10-14 15:21:02.063663,19
2021-10-14 15:21:02.063672,66
2021-10-14 15:21:02.063681,63
2021-10-14 15:21:02.063689,73
2021-10-14 15:21:02.063697,112
2021-10-14 15:21:02.063706,127
2021-10-14 15:21:02.063714,130
2021-10-14 15:21:02.063723,152
2021-10-14 15:21:02.063731,186
2021-10-14 15:21:02.063740,208
2021-10-14 15:21:02.063748,235
2021-10-14 15:21:02.063756,269
2021-10-14 15:21:02.063765,294
2021-10-14 15:21:02.063773,316
2021-10-14 15:21:02.063782,348
2021-10-14 15:21:02.063790,380
2021-10-14 15:21:02.063798,402
2021-10-14 15:21:02.063806,412
2021-10-14 15:21:02.063815,412
2021-10-14 15:21:02.063823,399
2021-10-14 15:21:02.063831,363
2021-10-14 15:21:02.063840,287
2021-10-14 15:21:02.063848,181
2021-10-14 15:21:02.063856,76
2021-10-14 15:21:02.063865,-17
2021-10-14 15:21:02.063873,-100
2021-10-14 15:21:02.063881,-154
2021-10-14 15:21:02.063890,-176
2021-10-14 15:21:02.262204,-196
2021-10-14 15:21:02.262229,-220
2021-10-14 15:21:02.262239,-225
2021-10-14 15:21:02.262247,-215
2021-10-14 15:21:02.262254,-203
2021-10-14 15:21:02.262261,-191
2021-10-14 15:21:02.262268,-186
2021-10-14 15:21:02.262276,-191
2021-10-14 15:21:02.262283,-188
2021-10-14 15:21:02.262325,-169
2021-10-14 15:21:02.262361,-149
2021-10-14 15:21:02.262371,-139
2021-10-14 15:21:02.262378,-130
2021-10-14 15:21:02.262385,-127
2021-10-14 15:21:02.262392,-134
2021-10-14 15:21:02.262400,-122
2021-10-14 15:21:02.262408,-105
2021-10-14 15:21:02.262416,-110
2021-10-14 15:21:02.262424,-122
2021-10-14 15:21:02.262431,-115
2021-10-14 15:21:02.262439,-105
2021-10-14 15:21:02.262447,-105
2021-10-14 15:21:02.262456,-103
2021-10-14 15:21:02.262464,-90
2021-10-14 15:21:02.262472,-88
2021-10-14 15:21:02.262480,-90
2021-10-14 15:21:02.262488,-83
2021-10-14 15:21:02.262496,-78
2021-10-14 15:21:02.262504,-88
2021-10-14 15:21:02.262511,-88
2021-10-14 15:21:02.514640,-73
2021-10-14 15:21:02.514661,-73
2021-10-14 15:21:02.514671,-85
2021-10-14 15:21:02.514680,-85
2021-10-14 15:21:02.514688,-78
2021-10-14 15:21:02.514697,-78
2021-10-14 15:21:02.514705,-95
2021-10-14 15:21:02.514714,-100
2021-10-14 15:21:02.514722,-85
2021-10-14 15:21:02.514730,-78
2021-10-14 15:21:02.514739,-85
2021-10-14 15:21:02.514748,-83
2021-10-14 15:21:02.514756,-93
2021-10-14 15:21:02.514765,-105
2021-10-14 15:21:02.514773,-71
2021-10-14 15:21:02.514782,-19
2021-10-14 15:21:02.514790,-17
2021-10-14 15:21:02.514799,-22
2021-10-14 15:21:02.514807,-9
2021-10-14 15:21:02.514816,-22
2021-10-14 15:21:02.514825,-58
2021-10-14 15:21:02.514833,-63
2021-10-14 15:21:02.514842,-41
2021-10-14 15:21:02.514850,-34
2021-10-14 15:21:02.514859,-36
2021-10-14 15:21:02.514867,-31
2021-10-14 15:21:02.514876,-29
2021-10-14 15:21:02.514884,-39
2021-10-14 15:21:02.514893,0
2021-10-14 15:21:02.514901,171
2021-10-14 15:21:02.694607,522
2021-10-14 15:21:02.694628,910
2021-10-14 15:21:02.694637,868
2021-10-14 15:21:02.694646,125
2021-10-14 15:21:02.694654,-417
2021-10-14 15:21:02.694663,-95
2021-10-14 15:21:02.694671,152
2021-10-14 15:21:02.694680,-44
2021-10-14 15:21:02.694688,-58
2021-10-14 15:21:02.694697,51
2021-10-14 15:21:02.694705,24
2021-10-14 15:21:02.694713,2
2021-10-14 15:21:02.694722,26
2021-10-14 15:21:02.694730,36
2021-10-14 15:21:02.694739,51
2021-10-14 15:21:02.694747,73
2021-10-14 15:21:02.694755,85
2021-10-14 15:21:02.694764,103
2021-10-14 15:21:02.694772,122
2021-10-14 15:21:02.694781,147
2021-10-14 15:21:02.694789,179
2021-10-14 15:21:02.694797,201
2021-10-14 15:21:02.694806,218
2021-10-14 15:21:02.694814,247
2021-10-14 15:21:02.694822,284
2021-10-14 15:21:02.694831,314
2021-10-14 15:21:02.694839,345
2021-10-14 15:21:02.694847,372
2021-10-14 15:21:02.694856,377
2021-10-14 15:21:02.694864,380
2021-10-14 15:21:02.919270,377
2021-10-14 15:21:02.919292,350
2021-10-14 15:21:02.919302,296
2021-10-14 15:21:02.919311,220
2021-10-14 15:21:02.919319,117
2021-10-14 15:21:02.919328,9
2021-10-14 15:21:02.919336,-73
2021-10-14 15:21:02.919345,-125
2021-10-14 15:21:02.919353,-169
2021-10-14 15:21:02.919362,-206
2021-10-14 15:21:02.919370,-215
2021-10-14 15:21:02.919379,-225
2021-10-14 15:21:02.919387,-228
2021-10-14 15:21:02.919395,-206
2021-10-14 15:21:02.919404,-196
2021-10-14 15:21:02.919412,-203
2021-10-14 15:21:02.919421,-196
2021-10-14 15:21:02.919429,-176
2021-10-14 15:21:02.919438,-161
2021-10-14 15:21:02.919446,-149
2021-10-14 15:21:02.919454,-142
2021-10-14 15:21:02.919463,-139
2021-10-14 15:21:02.919471,-134
2021-10-14 15:21:02.919479,-127
2021-10-14 15:21:02.919488,-127
2021-10-14 15:21:02.919496,-122
2021-10-14 15:21:02.919505,-120
2021-10-14 15:21:02.919513,-125
2021-10-14 15:21:02.919521,-117
2021-10-14 15:21:02.919530,-103
2021-10-14 15:21:03.188144,-100
2021-10-14 15:21:03.188165,-98
2021-10-14 15:21:03.188175,-95
2021-10-14 15:21:03.188184,-95
2021-10-14 15:21:03.188193,-107
2021-10-14 15:21:03.188201,-115
2021-10-14 15:21:03.188209,-110
2021-10-14 15:21:03.188218,-103
2021-10-14 15:21:03.188227,-105
2021-10-14 15:21:03.188235,-100
2021-10-14 15:21:03.188244,-98
2021-10-14 15:21:03.188252,-105
2021-10-14 15:21:03.188261,-112
2021-10-14 15:21:03.188270,-125
2021-10-14 15:21:03.188278,-134
2021-10-14 15:21:03.188286,-130
2021-10-14 15:21:03.188295,-120
2021-10-14 15:21:03.188303,-120
2021-10-14 15:21:03.188312,-120
2021-10-14 15:21:03.188320,-122
2021-10-14 15:21:03.188329,-130
2021-10-14 15:21:03.188337,-132
2021-10-14 15:21:03.188346,-117
2021-10-14 15:21:03.188354,-76
2021-10-14 15:21:03.188362,-46
2021-10-14 15:21:03.188371,-49
2021-10-14 15:21:03.188379,-58
2021-10-14 15:21:03.188388,-63
2021-10-14 15:21:03.188396,-76
2021-10-14 15:21:03.188404,-95
2021-10-14 15:21:03.414656,-90
2021-10-14 15:21:03.414678,-73
2021-10-14 15:21:03.414688,-71
2021-10-14 15:21:03.414697,-71
2021-10-14 15:21:03.414705,-71
2021-10-14 15:21:03.414713,-78
2021-10-14 15:21:03.414722,-76
2021-10-14 15:21:03.414730,-14
2021-10-14 15:21:03.414739,203
2021-10-14 15:21:03.414747,579
2021-10-14 15:21:03.414756,856
2021-10-14 15:21:03.414764,544
2021-10-14 15:21:03.414773,-269
2021-10-14 15:21:03.414781,-502
2021-10-14 15:21:03.414789,-22
2021-10-14 15:21:03.414798,93
2021-10-14 15:21:03.414806,-100
2021-10-14 15:21:03.414815,-34
2021-10-14 15:21:03.414823,39
2021-10-14 15:21:03.414831,-9
2021-10-14 15:21:03.414840,4
2021-10-14 15:21:03.414848,49
2021-10-14 15:21:03.414857,46
2021-10-14 15:21:03.414865,49
2021-10-14 15:21:03.414873,80
2021-10-14 15:21:03.414882,112
2021-10-14 15:21:03.414890,132
2021-10-14 15:21:03.414898,142
2021-10-14 15:21:03.414907,164
2021-10-14 15:21:03.414915,196
2021-10-14 15:21:03.639629,228
2021-10-14 15:21:03.639650,260
2021-10-14 15:21:03.639660,296
2021-10-14 15:21:03.639685,318
2021-10-14 15:21:03.639694,338
2021-10-14 15:21:03.639703,375
2021-10-14 15:21:03.639711,409
2021-10-14 15:21:03.639720,424
2021-10-14 15:21:03.639728,414
2021-10-14 15:21:03.639737,390
2021-10-14 15:21:03.639745,358
2021-10-14 15:21:03.639754,289
2021-10-14 15:21:03.639762,181
2021-10-14 15:21:03.639771,68
2021-10-14 15:21:03.639780,-31
2021-10-14 15:21:03.639788,-120
2021-10-14 15:21:03.639796,-186
2021-10-14 15:21:03.639805,-220
2021-10-14 15:21:03.639813,-242
2021-10-14 15:21:03.639822,-255
2021-10-14 15:21:03.639830,-260
2021-10-14 15:21:03.639838,-260
2021-10-14 15:21:03.639846,-240
2021-10-14 15:21:03.639855,-220
2021-10-14 15:21:03.639863,-215
2021-10-14 15:21:03.639872,-208
2021-10-14 15:21:03.639880,-191
2021-10-14 15:21:03.639888,-184
2021-10-14 15:21:03.639897,-181
2021-10-14 15:21:03.639905,-171
2021-10-14 15:21:03.864273,-161
2021-10-14 15:21:03.864295,-147
2021-10-14 15:21:03.864305,-142
2021-10-14 15:21:03.864314,-147
2021-10-14 15:21:03.864322,-139
2021-10-14 15:21:03.864331,-125
2021-10-14 15:21:03.864340,-122
2021-10-14 15:21:03.864348,-120
2021-10-14 15:21:03.864357,-120
2021-10-14 15:21:03.864365,-127
2021-10-14 15:21:03.864373,-120
2021-10-14 15:21:03.864382,-107
2021-10-14 15:21:03.864390,-110
2021-10-14 15:21:03.864398,-115
2021-10-14 15:21:03.864407,-117
2021-10-14 15:21:03.864415,-115
2021-10-14 15:21:03.864423,-110
2021-10-14 15:21:03.864431,-103
2021-10-14 15:21:03.864440,-93
2021-10-14 15:21:03.864448,-85
2021-10-14 15:21:03.864457,-85
2021-10-14 15:21:03.864465,-95
2021-10-14 15:21:03.864473,-90
2021-10-14 15:21:03.864481,-76
2021-10-14 15:21:03.864490,-68
2021-10-14 15:21:03.864498,-76
2021-10-14 15:21:03.864507,-100
2021-10-14 15:21:03.864515,-112
2021-10-14 15:21:03.864523,-95
2021-10-14 15:21:03.864532,-61
2021-10-14 15:21:04.178651,-31
2021-10-14 15:21:04.178672,-19
2021-10-14 15:21:04.178682,-26
2021-10-14 15:21:04.178691,-41
2021-10-14 15:21:04.178700,-49
2021-10-14 15:21:04.178708,-58
2021-10-14 15:21:04.178717,-66
2021-10-14 15:21:04.178725,-68
2021-10-14 15:21:04.178734,-73
2021-10-14 15:21:04.178742,-68
2021-10-14 15:21:04.178751,-63
2021-10-14 15:21:04.178759,-63
2021-10-14 15:21:04.178768,-56
2021-10-14 15:21:04.178776,-17
2021-10-14 15:21:04.178785,147
2021-10-14 15:21:04.178793,510
2021-10-14 15:21:04.178801,875
2021-10-14 15:21:04.178810,723
2021-10-14 15:21:04.178818,-71
2021-10-14 15:21:04.178827,-488
2021-10-14 15:21:04.178835,-71
2021-10-14 15:21:04.178843,134
2021-10-14 15:21:04.178852,-73
2021-10-14 15:21:04.178860,-56
2021-10-14 15:21:04.178869,31
2021-10-14 15:21:04.178877,-12
2021-10-14 15:21:04.178886,-12
2021-10-14 15:21:04.178894,36
2021-10-14 15:21:04.178902,44
2021-10-14 15:21:04.178911,53
2021-10-14 15:21:04.403655,83
2021-10-14 15:21:04.403677,100
2021-10-14 15:21:04.403687,110
2021-10-14 15:21:04.403696,134
2021-10-14 15:21:04.403705,157
2021-10-14 15:21:04.403713,176
2021-10-14 15:21:04.403722,206
2021-10-14 15:21:04.403731,240
2021-10-14 15:21:04.403739,277
2021-10-14 15:21:04.403748,309
2021-10-14 15:21:04.403756,341
2021-10-14 15:21:04.403765,375
2021-10-14 15:21:04.403773,399
2021-10-14 15:21:04.403782,407
2021-10-14 15:21:04.403791,414
2021-10-14 15:21:04.403799,404
2021-10-14 15:21:04.403808,358
2021-10-14 15:21:04.403817,284
2021-10-14 15:21:04.403825,186
2021-10-14 15:21:04.403834,68
2021-10-14 15:21:04.403842,-29
2021-10-14 15:21:04.403851,-100
2021-10-14 15:21:04.403859,-159
2021-10-14 15:21:04.403868,-196
2021-10-14 15:21:04.403876,-213
2021-10-14 15:21:04.403885,-220
2021-10-14 15:21:04.403893,-218
2021-10-14 15:21:04.403902,-208
2021-10-14 15:21:04.403910,-201
2021-10-14 15:21:04.403919,-198
2021-10-14 15:21:04.539619,-188
2021-10-14 15:21:04.539641,-171
2021-10-14 15:21:04.539650,-161
2021-10-14 15:21:04.539659,-159
2021-10-14 15:21:04.539668,-149
2021-10-14 15:21:04.539676,-134
2021-10-14 15:21:04.539685,-127
2021-10-14 15:21:04.539693,-122
2021-10-14 15:21:04.539702,-115
2021-10-14 15:21:04.539710,-110
2021-10-14 15:21:04.539719,-100
2021-10-14 15:21:04.539727,-90
2021-10-14 15:21:04.539736,-90
2021-10-14 15:21:04.539744,-93
2021-10-14 15:21:04.539753,-90
2021-10-14 15:21:04.539761,-88
2021-10-14 15:21:04.539770,-90
2021-10-14 15:21:04.539778,-93
2021-10-14 15:21:04.539786,-95
2021-10-14 15:21:04.539795,-88
2021-10-14 15:21:04.539803,-80
2021-10-14 15:21:04.539812,-76
2021-10-14 15:21:04.539820,-73
2021-10-14 15:21:04.539828,-76
2021-10-14 15:21:04.539837,-78
2021-10-14 15:21:04.539845,-66
2021-10-14 15:21:04.539854,-56
2021-10-14 15:21:04.539862,-53
2021-10-14 15:21:04.539871,-63
2021-10-14 15:21:04.539879,-73
2021-10-14 15:21:04.809349,-76
2021-10-14 15:21:04.809371,-68
2021-10-14 15:21:04.809380,-71
2021-10-14 15:21:04.809389,-73
2021-10-14 15:21:04.809398,-66
2021-10-14 15:21:04.809407,-63
2021-10-14 15:21:04.809415,-66
2021-10-14 15:21:04.809424,-66
2021-10-14 15:21:04.809432,-76
2021-10-14 15:21:04.809441,-88
2021-10-14 15:21:04.809449,-100
2021-10-14 15:21:04.809458,-115
2021-10-14 15:21:04.809466,-110
2021-10-14 15:21:04.809475,-71
2021-10-14 15:21:04.809483,-31
2021-10-14 15:21:04.809492,-24
2021-10-14 15:21:04.809500,-29
2021-10-14 15:21:04.809509,-34
2021-10-14 15:21:04.809517,-39
2021-10-14 15:21:04.809525,-46
2021-10-14 15:21:04.809534,-58
2021-10-14 15:21:04.809543,-53
2021-10-14 15:21:04.809551,-41
2021-10-14 15:21:04.809560,-44
2021-10-14 15:21:04.809569,-44
2021-10-14 15:21:04.809577,-31
2021-10-14 15:21:04.809586,-29
2021-10-14 15:21:04.809594,-17
2021-10-14 15:21:04.809605,100
2021-10-14 15:21:04.809619,426
2021-10-14 15:21:05.034288,858
2021-10-14 15:21:05.034316,949
2021-10-14 15:21:05.034325,296
2021-10-14 15:21:05.034334,-375
2021-10-14 15:21:05.034343,-176
2021-10-14 15:21:05.034351,139
2021-10-14 15:21:05.034360,-14
2021-10-14 15:21:05.034368,-66
2021-10-14 15:21:05.034377,46
2021-10-14 15:21:05.034385,19
2021-10-14 15:21:05.034394,-19
2021-10-14 15:21:05.034402,26
2021-10-14 15:21:05.034411,53
2021-10-14 15:21:05.034419,53
2021-10-14 15:21:05.034428,73
2021-10-14 15:21:05.034436,93
2021-10-14 15:21:05.034445,103
2021-10-14 15:21:05.034453,120
2021-10-14 15:21:05.034461,147
2021-10-14 15:21:05.034470,174
2021-10-14 15:21:05.034478,201
2021-10-14 15:21:05.034486,230
2021-10-14 15:21:05.034495,257
2021-10-14 15:21:05.034503,287
2021-10-14 15:21:05.034512,323
2021-10-14 15:21:05.034520,355
2021-10-14 15:21:05.034528,382
2021-10-14 15:21:05.034536,392
2021-10-14 15:21:05.034545,392
2021-10-14 15:21:05.034553,395
2021-10-14 15:21:05.347946,377
2021-10-14 15:21:05.347967,328
2021-10-14 15:21:05.347977,252
2021-10-14 15:21:05.347986,161
2021-10-14 15:21:05.347994,58
2021-10-14 15:21:05.348003,-36
2021-10-14 15:21:05.348011,-110
2021-10-14 15:21:05.348020,-157
2021-10-14 15:21:05.348028,-186
2021-10-14 15:21:05.348037,-206
2021-10-14 15:21:05.348045,-213
2021-10-14 15:21:05.348053,-211
2021-10-14 15:21:05.348062,-213
2021-10-14 15:21:05.348070,-211
2021-10-14 15:21:05.348079,-198
2021-10-14 15:21:05.348087,-191
2021-10-14 15:21:05.348095,-196
2021-10-14 15:21:05.348104,-186
2021-10-14 15:21:05.348112,-166
2021-10-14 15:21:05.348121,-154
2021-10-14 15:21:05.348129,-152
2021-10-14 15:21:05.348137,-152
2021-10-14 15:21:05.348146,-142
2021-10-14 15:21:05.348155,-127
2021-10-14 15:21:05.348163,-122
2021-10-14 15:21:05.348171,-117
2021-10-14 15:21:05.348179,-112
2021-10-14 15:21:05.348188,-115
2021-10-14 15:21:05.348196,-112
2021-10-14 15:21:05.348205,-110
2021-10-14 15:21:05.484268,-107
2021-10-14 15:21:05.484290,-103
2021-10-14 15:21:05.484300,-100
2021-10-14 15:21:05.484309,-115
2021-10-14 15:21:05.484317,-120
2021-10-14 15:21:05.484326,-105
2021-10-14 15:21:05.484334,-95
2021-10-14 15:21:05.484343,-98
2021-10-14 15:21:05.484351,-103
2021-10-14 15:21:05.484360,-107
2021-10-14 15:21:05.484368,-110
2021-10-14 15:21:05.484377,-103
2021-10-14 15:21:05.484385,-98
2021-10-14 15:21:05.484394,-98
2021-10-14 15:21:05.484402,-110
2021-10-14 15:21:05.484410,-130
2021-10-14 15:21:05.484419,-134
2021-10-14 15:21:05.484427,-122
2021-10-14 15:21:05.484435,-115
2021-10-14 15:21:05.484444,-115
2021-10-14 15:21:05.484452,-107
2021-10-14 15:21:05.484461,-100
2021-10-14 15:21:05.484469,-98
2021-10-14 15:21:05.484478,-98
2021-10-14 15:21:05.484486,-88
2021-10-14 15:21:05.484494,-76
2021-10-14 15:21:05.484503,-80
2021-10-14 15:21:05.484511,-83
2021-10-14 15:21:05.484520,-71
2021-10-14 15:21:05.484528,-56
2021-10-14 15:21:05.754643,-61
2021-10-14 15:21:05.754665,-68
2021-10-14 15:21:05.754674,-78
2021-10-14 15:21:05.754683,-83
2021-10-14 15:21:05.754692,-58
2021-10-14 15:21:05.754700,-14
2021-10-14 15:21:05.754708,2
2021-10-14 15:21:05.754717,-2
2021-10-14 15:21:05.754725,-9
2021-10-14 15:21:05.754734,-19
2021-10-14 15:21:05.754742,-39
2021-10-14 15:21:05.754751,-58
2021-10-14 15:21:05.754759,-61
2021-10-14 15:21:05.754768,-49
2021-10-14 15:21:05.754776,-53
2021-10-14 15:21:05.754784,-68
2021-10-14 15:21:05.754793,-68
2021-10-14 15:21:05.754801,-66
2021-10-14 15:21:05.754809,-46
2021-10-14 15:21:05.754817,73
2021-10-14 15:21:05.754826,370
2021-10-14 15:21:05.754834,753
2021-10-14 15:21:05.754843,826
2021-10-14 15:21:05.754851,206
2021-10-14 15:21:05.754859,-468
2021-10-14 15:21:05.754868,-262
2021-10-14 15:21:05.754876,134
2021-10-14 15:21:05.754884,7
2021-10-14 15:21:05.754893,-78
2021-10-14 15:21:05.754901,36
2021-10-14 15:21:05.934272,26
2021-10-14 15:21:05.934294,-9
2021-10-14 15:21:05.934304,39
2021-10-14 15:21:05.934313,58
2021-10-14 15:21:05.934321,51
2021-10-14 15:21:05.934330,76
2021-10-14 15:21:05.934338,110
2021-10-14 15:21:05.934347,120
2021-10-14 15:21:05.934355,127
2021-10-14 15:21:05.934363,149
2021-10-14 15:21:05.934372,179
2021-10-14 15:21:05.934380,208
2021-10-14 15:21:05.934389,230
2021-10-14 15:21:05.934397,257
2021-10-14 15:21:05.934406,289
2021-10-14 15:21:05.934414,326
2021-10-14 15:21:05.934422,363
2021-10-14 15:21:05.934430,387
2021-10-14 15:21:05.934439,392
2021-10-14 15:21:05.934447,387
2021-10-14 15:21:05.934456,382
2021-10-14 15:21:05.934464,368
2021-10-14 15:21:05.934472,328
2021-10-14 15:21:05.934480,255
2021-10-14 15:21:05.934489,154
2021-10-14 15:21:05.934497,51
2021-10-14 15:21:05.934505,-44
2021-10-14 15:21:05.934514,-120
2021-10-14 15:21:05.934522,-171
2021-10-14 15:21:05.934531,-206
2021-10-14 15:21:06.203640,-228
2021-10-14 15:21:06.203662,-233
2021-10-14 15:21:06.203671,-230
2021-10-14 15:21:06.203680,-228
2021-10-14 15:21:06.203689,-215
2021-10-14 15:21:06.203697,-196
2021-10-14 15:21:06.203706,-198
2021-10-14 15:21:06.203714,-201
2021-10-14 15:21:06.203723,-184
2021-10-14 15:21:06.203731,-169
2021-10-14 15:21:06.203740,-159
2021-10-14 15:21:06.203748,-149
2021-10-14 15:21:06.203756,-149
2021-10-14 15:21:06.203765,-159
2021-10-14 15:21:06.203773,-149
2021-10-14 15:21:06.203781,-137
2021-10-14 15:21:06.203789,-147
2021-10-14 15:21:06.203798,-157
2021-10-14 15:21:06.203806,-149
2021-10-14 15:21:06.203815,-144
2021-10-14 15:21:06.203823,-149
2021-10-14 15:21:06.203831,-157
2021-10-14 15:21:06.203840,-157
2021-10-14 15:21:06.203848,-159
2021-10-14 15:21:06.203857,-166
2021-10-14 15:21:06.203865,-164
2021-10-14 15:21:06.203873,-157
2021-10-14 15:21:06.203882,-159
2021-10-14 15:21:06.203890,-152
2021-10-14 15:21:06.203898,-132
2021-10-14 15:21:06.384673,-132
2021-10-14 15:21:06.384694,-134
2021-10-14 15:21:06.384704,-120
2021-10-14 15:21:06.384712,-107
2021-10-14 15:21:06.384721,-112
2021-10-14 15:21:06.384729,-115
2021-10-14 15:21:06.384738,-115
2021-10-14 15:21:06.384746,-105
2021-10-14 15:21:06.384754,-95
2021-10-14 15:21:06.384763,-95
2021-10-14 15:21:06.384771,-90
2021-10-14 15:21:06.384780,-78
2021-10-14 15:21:06.384788,-80
2021-10-14 15:21:06.384796,-88
2021-10-14 15:21:06.384805,-88
2021-10-14 15:21:06.384813,-93
2021-10-14 15:21:06.384821,-93
2021-10-14 15:21:06.384830,-68
2021-10-14 15:21:06.384838,-31
2021-10-14 15:21:06.384846,-12
2021-10-14 15:21:06.384855,-7
2021-10-14 15:21:06.384863,-7
2021-10-14 15:21:06.384871,-14
2021-10-14 15:21:06.384879,-34
2021-10-14 15:21:06.384888,-51
2021-10-14 15:21:06.384896,-44
2021-10-14 15:21:06.384904,-29
2021-10-14 15:21:06.384913,-26
2021-10-14 15:21:06.384921,-26
2021-10-14 15:21:06.384929,-24
2021-10-14 15:21:06.653695,-26
2021-10-14 15:21:06.653716,-9
2021-10-14 15:21:06.653726,71
2021-10-14 15:21:06.653735,311
2021-10-14 15:21:06.653743,709
2021-10-14 15:21:06.653752,925
2021-10-14 15:21:06.653761,449
2021-10-14 15:21:06.653769,-326
2021-10-14 15:21:06.653778,-318
2021-10-14 15:21:06.653786,130
2021-10-14 15:21:06.653795,85
2021-10-14 15:21:06.653803,-71
2021-10-14 15:21:06.653812,24
2021-10-14 15:21:06.653820,61
2021-10-14 15:21:06.653829,17
2021-10-14 15:21:06.653837,44
2021-10-14 15:21:06.653846,73
2021-10-14 15:21:06.653854,71
2021-10-14 15:21:06.653862,88
2021-10-14 15:21:06.653871,120
2021-10-14 15:21:06.653879,134
2021-10-14 15:21:06.653888,147
2021-10-14 15:21:06.653896,161
2021-10-14 15:21:06.653904,174
2021-10-14 15:21:06.653913,198
2021-10-14 15:21:06.653921,228
2021-10-14 15:21:06.653929,260
2021-10-14 15:21:06.653938,296
2021-10-14 15:21:06.653946,331
2021-10-14 15:21:06.653955,360
2021-10-14 15:21:06.878678,390
2021-10-14 15:21:06.878699,417
2021-10-14 15:21:06.878709,422
2021-10-14 15:21:06.878717,409
2021-10-14 15:21:06.878726,392
2021-10-14 15:21:06.878734,348
2021-10-14 15:21:06.878743,272
2021-10-14 15:21:06.878751,174
2021-10-14 15:21:06.878760,73
2021-10-14 15:21:06.878769,-24
2021-10-14 15:21:06.878777,-105
2021-10-14 15:21:06.878786,-159
2021-10-14 15:21:06.878794,-191
2021-10-14 15:21:06.878803,-201
2021-10-14 15:21:06.878811,-208
2021-10-14 15:21:06.878820,-213
2021-10-14 15:21:06.878829,-211
2021-10-14 15:21:06.878837,-196
2021-10-14 15:21:06.878846,-181
2021-10-14 15:21:06.878854,-174
2021-10-14 15:21:06.878863,-164
2021-10-14 15:21:06.878871,-159
2021-10-14 15:21:06.878880,-152
2021-10-14 15:21:06.878888,-130
2021-10-14 15:21:06.878896,-120
2021-10-14 15:21:06.878905,-132
2021-10-14 15:21:06.878913,-137
2021-10-14 15:21:06.878922,-127
2021-10-14 15:21:06.878960,-120
2021-10-14 15:21:06.878969,-112
2021-10-14 15:21:07.059672,-112
2021-10-14 15:21:07.059692,-117
2021-10-14 15:21:07.059702,-120
2021-10-14 15:21:07.059710,-120
2021-10-14 15:21:07.059719,-122
2021-10-14 15:21:07.059727,-122
2021-10-14 15:21:07.059736,-115
2021-10-14 15:21:07.059744,-105
2021-10-14 15:21:07.059753,-107
2021-10-14 15:21:07.059761,-120
2021-10-14 15:21:07.059769,-120
2021-10-14 15:21:07.059778,-110
2021-10-14 15:21:07.059786,-100
2021-10-14 15:21:07.059795,-93
2021-10-14 15:21:07.059803,-88
2021-10-14 15:21:07.059811,-90
2021-10-14 15:21:07.059820,-93
2021-10-14 15:21:07.059828,-83
2021-10-14 15:21:07.059837,-73
2021-10-14 15:21:07.059845,-71
2021-10-14 15:21:07.059853,-68
2021-10-14 15:21:07.059862,-66
2021-10-14 15:21:07.059870,-66
2021-10-14 15:21:07.059878,-56
2021-10-14 15:21:07.059887,-46
2021-10-14 15:21:07.059895,-44
2021-10-14 15:21:07.059904,-36
2021-10-14 15:21:07.059912,-31
2021-10-14 15:21:07.059920,-39
2021-10-14 15:21:07.059928,-56
2021-10-14 15:21:07.372950,-63
2021-10-14 15:21:07.372972,-49
2021-10-14 15:21:07.372981,-19
2021-10-14 15:21:07.372990,4
2021-10-14 15:21:07.372998,9
2021-10-14 15:21:07.373007,12
2021-10-14 15:21:07.373016,17
2021-10-14 15:21:07.373024,9
2021-10-14 15:21:07.373033,-4
2021-10-14 15:21:07.373041,-24
2021-10-14 15:21:07.373050,-26
2021-10-14 15:21:07.373058,-7
2021-10-14 15:21:07.373067,0
2021-10-14 15:21:07.373075,-7
2021-10-14 15:21:07.373084,-7
2021-10-14 15:21:07.373092,-12
2021-10-14 15:21:07.373101,4
2021-10-14 15:21:07.373109,132
2021-10-14 15:21:07.373118,451
2021-10-14 15:21:07.373126,875
2021-10-14 15:21:07.373134,978
2021-10-14 15:21:07.373148,353
2021-10-14 15:21:07.373157,-326
2021-10-14 15:21:07.373165,-157
2021-10-14 15:21:07.373174,176
2021-10-14 15:21:07.373182,34
2021-10-14 15:21:07.373191,-39
2021-10-14 15:21:07.373199,58
2021-10-14 15:21:07.373208,46
2021-10-14 15:21:07.373216,29
2021-10-14 15:21:07.599082,73
2021-10-14 15:21:07.599105,78
2021-10-14 15:21:07.599115,68
2021-10-14 15:21:07.599123,93
2021-10-14 15:21:07.599132,117
2021-10-14 15:21:07.599152,127
2021-10-14 15:21:07.599161,149
2021-10-14 15:21:07.599169,181
2021-10-14 15:21:07.599178,193
2021-10-14 15:21:07.599186,201
2021-10-14 15:21:07.599194,233
2021-10-14 15:21:07.599203,272
2021-10-14 15:21:07.599211,304
2021-10-14 15:21:07.599220,336
2021-10-14 15:21:07.599228,363
2021-10-14 15:21:07.599236,368
2021-10-14 15:21:07.599245,370
2021-10-14 15:21:07.599253,380
2021-10-14 15:21:07.599261,387
2021-10-14 15:21:07.599269,372
2021-10-14 15:21:07.599278,328
2021-10-14 15:21:07.599286,255
2021-10-14 15:21:07.599295,164
2021-10-14 15:21:07.599303,66
2021-10-14 15:21:07.599311,-24
2021-10-14 15:21:07.599319,-95
2021-10-14 15:21:07.599328,-144
2021-10-14 15:21:07.599336,-174
2021-10-14 15:21:07.599345,-186
2021-10-14 15:21:07.599353,-193
2021-10-14 15:21:07.779323,-201
2021-10-14 15:21:07.779344,-198
2021-10-14 15:21:07.779354,-193
2021-10-14 15:21:07.779363,-198
2021-10-14 15:21:07.779372,-206
2021-10-14 15:21:07.779381,-206
2021-10-14 15:21:07.779390,-198
2021-10-14 15:21:07.779398,-196
2021-10-14 15:21:07.779407,-196
2021-10-14 15:21:07.779415,-186
2021-10-14 15:21:07.779424,-176
2021-10-14 15:21:07.779433,-179
2021-10-14 15:21:07.779441,-174
2021-10-14 15:21:07.779450,-164
2021-10-14 15:21:07.779459,-164
2021-10-14 15:21:07.779467,-161
2021-10-14 15:21:07.779476,-149
2021-10-14 15:21:07.779484,-149
2021-10-14 15:21:07.779493,-157
2021-10-14 15:21:07.779501,-154
2021-10-14 15:21:07.779510,-147
2021-10-14 15:21:07.779518,-144
2021-10-14 15:21:07.779527,-139
2021-10-14 15:21:07.779535,-130
2021-10-14 15:21:07.779544,-125
2021-10-14 15:21:07.779552,-125
2021-10-14 15:21:07.779561,-125
2021-10-14 15:21:07.779569,-122
2021-10-14 15:21:07.779578,-107
2021-10-14 15:21:07.779586,-95
2021-10-14 15:21:08.049335,-100
2021-10-14 15:21:08.049357,-98
2021-10-14 15:21:08.049367,-88
2021-10-14 15:21:08.049375,-93
2021-10-14 15:21:08.049384,-95
2021-10-14 15:21:08.049392,-83
2021-10-14 15:21:08.049400,-80
2021-10-14 15:21:08.049407,-95
2021-10-14 15:21:08.049415,-105
2021-10-14 15:21:08.049423,-95
2021-10-14 15:21:08.049432,-93
2021-10-14 15:21:08.049440,-90
2021-10-14 15:21:08.049448,-68
2021-10-14 15:21:08.049456,-31
2021-10-14 15:21:08.049464,-14
2021-10-14 15:21:08.049472,-19
2021-10-14 15:21:08.049479,-17
2021-10-14 15:21:08.049487,-19
2021-10-14 15:21:08.049495,-39
2021-10-14 15:21:08.049502,-51
2021-10-14 15:21:08.049509,-44
2021-10-14 15:21:08.049517,-44
2021-10-14 15:21:08.049525,-46
2021-10-14 15:21:08.049532,-34
2021-10-14 15:21:08.049540,-22
2021-10-14 15:21:08.049548,-26
2021-10-14 15:21:08.049556,-9
2021-10-14 15:21:08.049563,103
2021-10-14 15:21:08.049571,397
2021-10-14 15:21:08.049579,787
2021-10-14 15:21:08.229624,868
2021-10-14 15:21:08.229645,240
2021-10-14 15:21:08.229655,-466
2021-10-14 15:21:08.229664,-282
2021-10-14 15:21:08.229673,152
2021-10-14 15:21:08.229681,46
2021-10-14 15:21:08.229690,-66
2021-10-14 15:21:08.229698,44
2021-10-14 15:21:08.229707,51
2021-10-14 15:21:08.229716,7
2021-10-14 15:21:08.229724,39
2021-10-14 15:21:08.229733,61
2021-10-14 15:21:08.229742,53
2021-10-14 15:21:08.229750,58
2021-10-14 15:21:08.229759,85
2021-10-14 15:21:08.229767,110
2021-10-14 15:21:08.229776,125
2021-10-14 15:21:08.229784,139
2021-10-14 15:21:08.229793,164
2021-10-14 15:21:08.229801,196
2021-10-14 15:21:08.229810,230
2021-10-14 15:21:08.229818,269
2021-10-14 15:21:08.229827,311
2021-10-14 15:21:08.229835,345
2021-10-14 15:21:08.229843,372
2021-10-14 15:21:08.229852,402
2021-10-14 15:21:08.229860,417
2021-10-14 15:21:08.229869,414
2021-10-14 15:21:08.229877,412
2021-10-14 15:21:08.229886,395
2021-10-14 15:21:08.499690,341
2021-10-14 15:21:08.499712,250
2021-10-14 15:21:08.499721,144
2021-10-14 15:21:08.499730,41
2021-10-14 15:21:08.499738,-46
2021-10-14 15:21:08.499747,-127
2021-10-14 15:21:08.499755,-191
2021-10-14 15:21:08.499764,-220
2021-10-14 15:21:08.499772,-235
2021-10-14 15:21:08.499781,-247
2021-10-14 15:21:08.499789,-240
2021-10-14 15:21:08.499798,-230
2021-10-14 15:21:08.499806,-230
2021-10-14 15:21:08.499815,-220
2021-10-14 15:21:08.499823,-213
2021-10-14 15:21:08.499832,-213
2021-10-14 15:21:08.499840,-196
2021-10-14 15:21:08.499849,-171
2021-10-14 15:21:08.499857,-166
2021-10-14 15:21:08.499866,-166
2021-10-14 15:21:08.499874,-161
2021-10-14 15:21:08.499882,-154
2021-10-14 15:21:08.499891,-144
2021-10-14 15:21:08.499899,-142
2021-10-14 15:21:08.499908,-142
2021-10-14 15:21:08.499916,-137
2021-10-14 15:21:08.499925,-137
2021-10-14 15:21:08.499933,-134
2021-10-14 15:21:08.499941,-125
2021-10-14 15:21:08.499950,-127
2021-10-14 15:21:08.723714,-130
2021-10-14 15:21:08.723735,-117
2021-10-14 15:21:08.723744,-110
2021-10-14 15:21:08.723753,-115
2021-10-14 15:21:08.723761,-117
2021-10-14 15:21:08.723770,-122
2021-10-14 15:21:08.723779,-120
2021-10-14 15:21:08.723787,-107
2021-10-14 15:21:08.723795,-100
2021-10-14 15:21:08.723804,-98
2021-10-14 15:21:08.723812,-95
2021-10-14 15:21:08.723821,-98
2021-10-14 15:21:08.723829,-95
2021-10-14 15:21:08.723838,-83
2021-10-14 15:21:08.723846,-80
2021-10-14 15:21:08.723854,-95
2021-10-14 15:21:08.723863,-115
2021-10-14 15:21:08.723871,-117
2021-10-14 15:21:08.723880,-85
2021-10-14 15:21:08.723888,-46
2021-10-14 15:21:08.723897,-29
2021-10-14 15:21:08.723905,-29
2021-10-14 15:21:08.723913,-31
2021-10-14 15:21:08.723922,-36
2021-10-14 15:21:08.723930,-49
2021-10-14 15:21:08.723939,-53
2021-10-14 15:21:08.723947,-49
2021-10-14 15:21:08.723956,-41
2021-10-14 15:21:08.723964,-39
2021-10-14 15:21:08.723973,-29
2021-10-14 15:21:08.904316,-24
2021-10-14 15:21:08.904337,-29
2021-10-14 15:21:08.904347,-7
2021-10-14 15:21:08.904355,117
2021-10-14 15:21:08.904364,422
2021-10-14 15:21:08.904373,817
2021-10-14 15:21:08.904381,878
2021-10-14 15:21:08.904390,233
2021-10-14 15:21:08.904398,-412
2021-10-14 15:21:08.904407,-186
2021-10-14 15:21:08.904415,152
2021-10-14 15:21:08.904424,-7
2021-10-14 15:21:08.904432,-66
2021-10-14 15:21:08.904441,44
2021-10-14 15:21:08.904449,14
2021-10-14 15:21:08.904458,-17
2021-10-14 15:21:08.904466,34
2021-10-14 15:21:08.904474,56
2021-10-14 15:21:08.904483,58
2021-10-14 15:21:08.904491,83
2021-10-14 15:21:08.904500,105
2021-10-14 15:21:08.904508,117
2021-10-14 15:21:08.904517,137
2021-10-14 15:21:08.904525,164
2021-10-14 15:21:08.904534,196
2021-10-14 15:21:08.904542,228
2021-10-14 15:21:08.904551,260
2021-10-14 15:21:08.904559,287
2021-10-14 15:21:08.904568,318
2021-10-14 15:21:08.904576,358
2021-10-14 15:21:09.174692,387
2021-10-14 15:21:09.174714,404
2021-10-14 15:21:09.174723,422
2021-10-14 15:21:09.174732,422
2021-10-14 15:21:09.174740,399
2021-10-14 15:21:09.174749,372
2021-10-14 15:21:09.174757,326
2021-10-14 15:21:09.174766,240
2021-10-14 15:21:09.174774,134
2021-10-14 15:21:09.174783,26
2021-10-14 15:21:09.174791,-61
2021-10-14 15:21:09.174799,-115
2021-10-14 15:21:09.174808,-154
2021-10-14 15:21:09.174816,-184
2021-10-14 15:21:09.174824,-193
2021-10-14 15:21:09.174833,-201
2021-10-14 15:21:09.174841,-206
2021-10-14 15:21:09.174850,-198
2021-10-14 15:21:09.174858,-184
2021-10-14 15:21:09.174867,-174
2021-10-14 15:21:09.174875,-171
2021-10-14 15:21:09.174884,-179
2021-10-14 15:21:09.174892,-166
2021-10-14 15:21:09.174900,-144
2021-10-14 15:21:09.174909,-132
2021-10-14 15:21:09.174917,-134
2021-10-14 15:21:09.174925,-127
2021-10-14 15:21:09.174933,-110
2021-10-14 15:21:09.174942,-100
2021-10-14 15:21:09.174950,-103
2021-10-14 15:21:09.533001,-100
2021-10-14 15:21:09.533022,-85
2021-10-14 15:21:09.533032,-80
2021-10-14 15:21:09.533041,-80
2021-10-14 15:21:09.533049,-73
2021-10-14 15:21:09.533058,-71
2021-10-14 15:21:09.533066,-83
2021-10-14 15:21:09.533075,-85
2021-10-14 15:21:09.533084,-88
2021-10-14 15:21:09.533092,-103
2021-10-14 15:21:09.533101,-98
2021-10-14 15:21:09.533109,-85
2021-10-14 15:21:09.533118,-88
2021-10-14 15:21:09.533126,-95
2021-10-14 15:21:09.533135,-103
2021-10-14 15:21:09.533143,-112
2021-10-14 15:21:09.533152,-110
2021-10-14 15:21:09.533160,-107
2021-10-14 15:21:09.533169,-105
2021-10-14 15:21:09.533177,-98
2021-10-14 15:21:09.533186,-95
2021-10-14 15:21:09.533194,-93
2021-10-14 15:21:09.533203,-93
2021-10-14 15:21:09.533211,-100
2021-10-14 15:21:09.533219,-98
2021-10-14 15:21:09.533228,-76
2021-10-14 15:21:09.533236,-49
2021-10-14 15:21:09.533245,-24
2021-10-14 15:21:09.533254,-7
2021-10-14 15:21:09.533262,-7
2021-10-14 15:21:09.624640,-12
2021-10-14 15:21:09.624660,-24
2021-10-14 15:21:09.624669,-41
2021-10-14 15:21:09.624678,-49
2021-10-14 15:21:09.624686,-39
2021-10-14 15:21:09.624695,-26
2021-10-14 15:21:09.624704,-29
2021-10-14 15:21:09.624712,-31
2021-10-14 15:21:09.624721,-34
2021-10-14 15:21:09.624730,-39
2021-10-14 15:21:09.624738,-4
2021-10-14 15:21:09.624747,169
2021-10-14 15:21:09.624755,532
2021-10-14 15:21:09.624764,910
2021-10-14 15:21:09.624772,821
2021-10-14 15:21:09.624781,68
2021-10-14 15:21:09.624790,-419
2021-10-14 15:21:09.624798,-78
2021-10-14 15:21:09.624807,137
2021-10-14 15:21:09.624815,-61
2021-10-14 15:21:09.624824,-63
2021-10-14 15:21:09.624832,34
2021-10-14 15:21:09.624841,-4
2021-10-14 15:21:09.624849,-19
2021-10-14 15:21:09.624857,29
2021-10-14 15:21:09.624866,39
2021-10-14 15:21:09.624874,26
2021-10-14 15:21:09.624883,44
2021-10-14 15:21:09.624891,73
2021-10-14 15:21:09.624899,95
2021-10-14 15:21:09.938746,115
2021-10-14 15:21:09.938768,137
2021-10-14 15:21:09.938778,161
2021-10-14 15:21:09.938786,193
2021-10-14 15:21:09.938795,230
2021-10-14 15:21:09.938804,260
2021-10-14 15:21:09.938812,287
2021-10-14 15:21:09.938820,309
2021-10-14 15:21:09.938829,328
2021-10-14 15:21:09.938837,345
2021-10-14 15:21:09.938846,363
2021-10-14 15:21:09.938854,370
2021-10-14 15:21:09.938863,358
2021-10-14 15:21:09.938872,328
2021-10-14 15:21:09.938880,277
2021-10-14 15:21:09.938889,193
2021-10-14 15:21:09.938897,93
2021-10-14 15:21:09.938906,2
2021-10-14 15:21:09.938914,-78
2021-10-14 15:21:09.938923,-142
2021-10-14 15:21:09.938931,-184
2021-10-14 15:21:09.938940,-213
2021-10-14 15:21:09.938948,-228
2021-10-14 15:21:09.938956,-225
2021-10-14 15:21:09.938965,-218
2021-10-14 15:21:09.938973,-208
2021-10-14 15:21:09.938982,-196
2021-10-14 15:21:09.938990,-188
2021-10-14 15:21:09.938999,-179
2021-10-14 15:21:09.939007,-169
2021-10-14 15:21:10.119487,-166
2021-10-14 15:21:10.119508,-157
2021-10-14 15:21:10.119518,-147
2021-10-14 15:21:10.119527,-142
2021-10-14 15:21:10.119535,-130
2021-10-14 15:21:10.119544,-115
2021-10-14 15:21:10.119552,-115
2021-10-14 15:21:10.119561,-122
2021-10-14 15:21:10.119569,-122
2021-10-14 15:21:10.119578,-107
2021-10-14 15:21:10.119586,-100
2021-10-14 15:21:10.119595,-103
2021-10-14 15:21:10.119603,-107
2021-10-14 15:21:10.119612,-112
2021-10-14 15:21:10.119620,-110
2021-10-14 15:21:10.119629,-110
2021-10-14 15:21:10.119637,-112
2021-10-14 15:21:10.119645,-107
2021-10-14 15:21:10.119654,-107
2021-10-14 15:21:10.119662,-112
2021-10-14 15:21:10.119671,-112
2021-10-14 15:21:10.119679,-107
2021-10-14 15:21:10.119688,-100
2021-10-14 15:21:10.119696,-100
2021-10-14 15:21:10.119705,-110
2021-10-14 15:21:10.119713,-115
2021-10-14 15:21:10.119722,-117
2021-10-14 15:21:10.119730,-122
2021-10-14 15:21:10.119738,-125
2021-10-14 15:21:10.119747,-127
2021-10-14 15:21:10.299718,-137
2021-10-14 15:21:10.299739,-134
2021-10-14 15:21:10.299749,-115
2021-10-14 15:21:10.299758,-80
2021-10-14 15:21:10.299766,-58
2021-10-14 15:21:10.299776,-66
2021-10-14 15:21:10.299785,-80
2021-10-14 15:21:10.299793,-85
2021-10-14 15:21:10.299801,-85
2021-10-14 15:21:10.299810,-93
2021-10-14 15:21:10.299818,-95
2021-10-14 15:21:10.299827,-100
2021-10-14 15:21:10.299835,-98
2021-10-14 15:21:10.299844,-85
2021-10-14 15:21:10.299852,-80
2021-10-14 15:21:10.299861,-83
2021-10-14 15:21:10.299869,-46
2021-10-14 15:21:10.299877,98
2021-10-14 15:21:10.299886,417
2021-10-14 15:21:10.299894,775
2021-10-14 15:21:10.299903,716
2021-10-14 15:21:10.299911,-19
2021-10-14 15:21:10.299919,-564
2021-10-14 15:21:10.299928,-191
2021-10-14 15:21:10.299936,132
2021-10-14 15:21:10.299945,-66
2021-10-14 15:21:10.299953,-100
2021-10-14 15:21:10.299961,22
2021-10-14 15:21:10.299970,-7
2021-10-14 15:21:10.299978,-24
2021-10-14 15:21:10.524342,29
2021-10-14 15:21:10.524361,44
2021-10-14 15:21:10.524369,46
2021-10-14 15:21:10.524376,71
2021-10-14 15:21:10.524382,88
2021-10-14 15:21:10.524389,100
2021-10-14 15:21:10.524396,120
2021-10-14 15:21:10.524402,147
2021-10-14 15:21:10.524409,179
2021-10-14 15:21:10.524415,213
2021-10-14 15:21:10.524422,240
2021-10-14 15:21:10.524429,264
2021-10-14 15:21:10.524435,304
2021-10-14 15:21:10.524442,350
2021-10-14 15:21:10.524448,372
2021-10-14 15:21:10.524455,387
2021-10-14 15:21:10.524461,404
2021-10-14 15:21:10.524468,412
2021-10-14 15:21:10.524475,402
2021-10-14 15:21:10.524481,370
2021-10-14 15:21:10.524488,309
2021-10-14 15:21:10.524495,213
2021-10-14 15:21:10.524502,95
2021-10-14 15:21:10.524508,-7
2021-10-14 15:21:10.524515,-76
2021-10-14 15:21:10.524522,-134
2021-10-14 15:21:10.524528,-193
2021-10-14 15:21:10.524535,-235
2021-10-14 15:21:10.524541,-242
2021-10-14 15:21:10.524548,-233
2021-10-14 15:21:10.794704,-223
2021-10-14 15:21:10.794725,-211
2021-10-14 15:21:10.794735,-201
2021-10-14 15:21:10.794744,-203
2021-10-14 15:21:10.794752,-208
2021-10-14 15:21:10.794761,-191
2021-10-14 15:21:10.794769,-174
2021-10-14 15:21:10.794778,-176
2021-10-14 15:21:10.794786,-179
2021-10-14 15:21:10.794795,-164
2021-10-14 15:21:10.794803,-154
2021-10-14 15:21:10.794812,-159
2021-10-14 15:21:10.794820,-147
2021-10-14 15:21:10.794829,-132
2021-10-14 15:21:10.794837,-134
2021-10-14 15:21:10.794845,-130
2021-10-14 15:21:10.794854,-122
2021-10-14 15:21:10.794862,-122
2021-10-14 15:21:10.794871,-115
2021-10-14 15:21:10.794879,-103
2021-10-14 15:21:10.794888,-107
2021-10-14 15:21:10.794896,-110
2021-10-14 15:21:10.794904,-95
2021-10-14 15:21:10.794913,-88
2021-10-14 15:21:10.794921,-93
2021-10-14 15:21:10.794929,-93
2021-10-14 15:21:10.794938,-80
2021-10-14 15:21:10.794946,-78
2021-10-14 15:21:10.794954,-80
2021-10-14 15:21:10.794963,-73
2021-10-14 15:21:11.019348,-76
2021-10-14 15:21:11.019369,-78
2021-10-14 15:21:11.019378,-78
2021-10-14 15:21:11.019387,-93
2021-10-14 15:21:11.019396,-85
2021-10-14 15:21:11.019405,-41
2021-10-14 15:21:11.019413,-12
2021-10-14 15:21:11.019421,-14
2021-10-14 15:21:11.019430,-26
2021-10-14 15:21:11.019438,-46
2021-10-14 15:21:11.019447,-68
2021-10-14 15:21:11.019455,-76
2021-10-14 15:21:11.019464,-68
2021-10-14 15:21:11.019472,-63
2021-10-14 15:21:11.019480,-71
2021-10-14 15:21:11.019489,-78
2021-10-14 15:21:11.019497,-78
2021-10-14 15:21:11.019506,-76
2021-10-14 15:21:11.019514,-58
2021-10-14 15:21:11.019523,26
2021-10-14 15:21:11.019531,264
2021-10-14 15:21:11.019540,652
2021-10-14 15:21:11.019548,875
2021-10-14 15:21:11.019557,434
2021-10-14 15:21:11.019565,-338
2021-10-14 15:21:11.019573,-350
2021-10-14 15:21:11.019582,98
2021-10-14 15:21:11.019590,61
2021-10-14 15:21:11.019599,-93
2021-10-14 15:21:11.019608,4
2021-10-14 15:21:11.244665,34
2021-10-14 15:21:11.244685,-17
2021-10-14 15:21:11.244694,7
2021-10-14 15:21:11.244703,41
2021-10-14 15:21:11.244712,39
2021-10-14 15:21:11.244720,58
2021-10-14 15:21:11.244729,90
2021-10-14 15:21:11.244737,107
2021-10-14 15:21:11.244746,127
2021-10-14 15:21:11.244754,149
2021-10-14 15:21:11.244762,169
2021-10-14 15:21:11.244771,198
2021-10-14 15:21:11.244779,230
2021-10-14 15:21:11.244787,252
2021-10-14 15:21:11.244796,274
2021-10-14 15:21:11.244804,299
2021-10-14 15:21:11.244813,323
2021-10-14 15:21:11.244821,353
2021-10-14 15:21:11.244830,377
2021-10-14 15:21:11.244838,382
2021-10-14 15:21:11.244846,375
2021-10-14 15:21:11.244855,355
2021-10-14 15:21:11.244863,309
2021-10-14 15:21:11.244871,225
2021-10-14 15:21:11.244879,127
2021-10-14 15:21:11.244888,36
2021-10-14 15:21:11.244897,-49
2021-10-14 15:21:11.244905,-130
2021-10-14 15:21:11.244914,-174
2021-10-14 15:21:11.244922,-193
2021-10-14 15:21:11.558448,-201
2021-10-14 15:21:11.558470,-203
2021-10-14 15:21:11.558480,-206
2021-10-14 15:21:11.558488,-203
2021-10-14 15:21:11.558497,-193
2021-10-14 15:21:11.558506,-181
2021-10-14 15:21:11.558514,-171
2021-10-14 15:21:11.558534,-164
2021-10-14 15:21:11.558543,-157
2021-10-14 15:21:11.558552,-152
2021-10-14 15:21:11.558560,-152
2021-10-14 15:21:11.558568,-142
2021-10-14 15:21:11.558577,-122
2021-10-14 15:21:11.558585,-112
2021-10-14 15:21:11.558594,-117
2021-10-14 15:21:11.558602,-115
2021-10-14 15:21:11.558611,-100
2021-10-14 15:21:11.558619,-98
2021-10-14 15:21:11.558627,-90
2021-10-14 15:21:11.558636,-80
2021-10-14 15:21:11.558644,-83
2021-10-14 15:21:11.558653,-83
2021-10-14 15:21:11.558661,-83
2021-10-14 15:21:11.558670,-83
2021-10-14 15:21:11.558678,-76
2021-10-14 15:21:11.558687,-71
2021-10-14 15:21:11.558695,-71
2021-10-14 15:21:11.558702,-63
2021-10-14 15:21:11.558709,-56
2021-10-14 15:21:11.558717,-53
2021-10-14 15:21:11.739796,-49
2021-10-14 15:21:11.739817,-41
2021-10-14 15:21:11.739826,-46
2021-10-14 15:21:11.739835,-51
2021-10-14 15:21:11.739844,-41
2021-10-14 15:21:11.739852,-36
2021-10-14 15:21:11.739861,-44
2021-10-14 15:21:11.739869,-66
2021-10-14 15:21:11.739877,-88
2021-10-14 15:21:11.739886,-71
2021-10-14 15:21:11.739894,-22
2021-10-14 15:21:11.739903,14
2021-10-14 15:21:11.739911,19
2021-10-14 15:21:11.739919,4
2021-10-14 15:21:11.739928,-12
2021-10-14 15:21:11.739936,-26
2021-10-14 15:21:11.739944,-36
2021-10-14 15:21:11.739953,-36
2021-10-14 15:21:11.739961,-34
2021-10-14 15:21:11.739969,-46
2021-10-14 15:21:11.739978,-61
2021-10-14 15:21:11.739986,-56
2021-10-14 15:21:11.739994,-63
2021-10-14 15:21:11.740003,-71
2021-10-14 15:21:11.740011,-29
2021-10-14 15:21:11.740019,137
2021-10-14 15:21:11.740028,490
2021-10-14 15:21:11.740036,883
2021-10-14 15:21:11.740044,804
2021-10-14 15:21:11.740053,53
2021-10-14 15:21:11.919402,-431
2021-10-14 15:21:11.919422,-93
2021-10-14 15:21:11.919432,127
2021-10-14 15:21:11.919441,-61
2021-10-14 15:21:11.919449,-58
2021-10-14 15:21:11.919458,34
2021-10-14 15:21:11.919467,-7
2021-10-14 15:21:11.919475,-22
2021-10-14 15:21:11.919484,22
2021-10-14 15:21:11.919492,31
2021-10-14 15:21:11.919501,41
2021-10-14 15:21:11.919509,71
2021-10-14 15:21:11.919518,88
2021-10-14 15:21:11.919526,95
2021-10-14 15:21:11.919534,120
2021-10-14 15:21:11.919543,147
2021-10-14 15:21:11.919551,164
2021-10-14 15:21:11.919560,186
2021-10-14 15:21:11.919568,220
2021-10-14 15:21:11.919576,252
2021-10-14 15:21:11.919585,282
2021-10-14 15:21:11.919593,311
2021-10-14 15:21:11.919602,345
2021-10-14 15:21:11.919610,363
2021-10-14 15:21:11.919618,365
2021-10-14 15:21:11.919627,370
2021-10-14 15:21:11.919635,370
2021-10-14 15:21:11.919643,336
2021-10-14 15:21:11.919652,279
2021-10-14 15:21:11.919660,206
2021-10-14 15:21:12.189736,107
2021-10-14 15:21:12.189757,7
2021-10-14 15:21:12.189766,-71
2021-10-14 15:21:12.189775,-130
2021-10-14 15:21:12.189784,-169
2021-10-14 15:21:12.189792,-196
2021-10-14 15:21:12.189801,-215
2021-10-14 15:21:12.189810,-208
2021-10-14 15:21:12.189818,-193
2021-10-14 15:21:12.189827,-201
2021-10-14 15:21:12.189835,-208
2021-10-14 15:21:12.189843,-191
2021-10-14 15:21:12.189852,-181
2021-10-14 15:21:12.189860,-179
2021-10-14 15:21:12.189868,-166
2021-10-14 15:21:12.189877,-159
2021-10-14 15:21:12.189885,-152
2021-10-14 15:21:12.189893,-139
2021-10-14 15:21:12.189902,-134
2021-10-14 15:21:12.189910,-132
2021-10-14 15:21:12.189918,-125
2021-10-14 15:21:12.189927,-120
2021-10-14 15:21:12.189935,-112
2021-10-14 15:21:12.189943,-107
2021-10-14 15:21:12.189951,-117
2021-10-14 15:21:12.189960,-125
2021-10-14 15:21:12.189968,-117
2021-10-14 15:21:12.189976,-107
2021-10-14 15:21:12.189985,-107
2021-10-14 15:21:12.189993,-107
2021-10-14 15:21:12.369760,-105
2021-10-14 15:21:12.369781,-105
2021-10-14 15:21:12.369790,-100
2021-10-14 15:21:12.369799,-88
2021-10-14 15:21:12.369807,-95
2021-10-14 15:21:12.369816,-110
2021-10-14 15:21:12.369825,-98
2021-10-14 15:21:12.369833,-78
2021-10-14 15:21:12.369842,-76
2021-10-14 15:21:12.369850,-80
2021-10-14 15:21:12.369858,-73
2021-10-14 15:21:12.369867,-71
2021-10-14 15:21:12.369875,-76
2021-10-14 15:21:12.369884,-76
2021-10-14 15:21:12.369892,-78
2021-10-14 15:21:12.369900,-78
2021-10-14 15:21:12.369909,-53
2021-10-14 15:21:12.369917,-26
2021-10-14 15:21:12.369925,-17
2021-10-14 15:21:12.369934,-14
2021-10-14 15:21:12.369942,-19
2021-10-14 15:21:12.369951,-41
2021-10-14 15:21:12.369959,-61
2021-10-14 15:21:12.369967,-56
2021-10-14 15:21:12.369976,-46
2021-10-14 15:21:12.369984,-58
2021-10-14 15:21:12.369992,-66
2021-10-14 15:21:12.370001,-53
2021-10-14 15:21:12.370009,-56
2021-10-14 15:21:12.370017,-71
2021-10-14 15:21:12.594749,-36
2021-10-14 15:21:12.594769,120
2021-10-14 15:21:12.594778,451
2021-10-14 15:21:12.594787,807
2021-10-14 15:21:12.594795,721
2021-10-14 15:21:12.594803,-31
2021-10-14 15:21:12.594811,-556
2021-10-14 15:21:12.594820,-179
2021-10-14 15:21:12.594828,130
2021-10-14 15:21:12.594836,-56
2021-10-14 15:21:12.594844,-83
2021-10-14 15:21:12.594852,19
2021-10-14 15:21:12.594860,-14
2021-10-14 15:21:12.594868,-36
2021-10-14 15:21:12.594877,4
2021-10-14 15:21:12.594885,17
2021-10-14 15:21:12.594893,19
2021-10-14 15:21:12.594901,41
2021-10-14 15:21:12.594910,71
2021-10-14 15:21:12.594918,95
2021-10-14 15:21:12.594926,117
2021-10-14 15:21:12.594934,147
2021-10-14 15:21:12.594942,176
2021-10-14 15:21:12.594950,206
2021-10-14 15:21:12.594958,235
2021-10-14 15:21:12.594966,269
2021-10-14 15:21:12.594975,304
2021-10-14 15:21:12.594983,341
2021-10-14 15:21:12.594991,370
2021-10-14 15:21:12.594999,385
2021-10-14 15:21:12.863785,382
2021-10-14 15:21:12.863806,380
2021-10-14 15:21:12.863815,377
2021-10-14 15:21:12.863824,343
2021-10-14 15:21:12.863833,267
2021-10-14 15:21:12.863842,169
2021-10-14 15:21:12.863850,68
2021-10-14 15:21:12.863859,-29
2021-10-14 15:21:12.863867,-115
2021-10-14 15:21:12.863876,-184
2021-10-14 15:21:12.863884,-225
2021-10-14 15:21:12.863893,-240
2021-10-14 15:21:12.863902,-242
2021-10-14 15:21:12.863910,-240
2021-10-14 15:21:12.863919,-242
2021-10-14 15:21:12.863927,-245
2021-10-14 15:21:12.863936,-238
2021-10-14 15:21:12.863944,-215
2021-10-14 15:21:12.863953,-203
2021-10-14 15:21:12.863961,-193
2021-10-14 15:21:12.863969,-181
2021-10-14 15:21:12.863978,-176
2021-10-14 15:21:12.863986,-166
2021-10-14 15:21:12.863994,-147
2021-10-14 15:21:12.864003,-132
2021-10-14 15:21:12.864011,-127
2021-10-14 15:21:12.864019,-122
2021-10-14 15:21:12.864028,-125
2021-10-14 15:21:12.864036,-125
2021-10-14 15:21:12.864045,-107
2021-10-14 15:21:13.178771,-100
2021-10-14 15:21:13.178793,-103
2021-10-14 15:21:13.178801,-103
2021-10-14 15:21:13.178808,-110
2021-10-14 15:21:13.178814,-112
2021-10-14 15:21:13.178820,-98
2021-10-14 15:21:13.178827,-90
2021-10-14 15:21:13.178833,-95
2021-10-14 15:21:13.178839,-95
2021-10-14 15:21:13.178846,-93
2021-10-14 15:21:13.178852,-88
2021-10-14 15:21:13.178858,-78
2021-10-14 15:21:13.178864,-71
2021-10-14 15:21:13.178870,-66
2021-10-14 15:21:13.178876,-63
2021-10-14 15:21:13.178883,-63
2021-10-14 15:21:13.178889,-61
2021-10-14 15:21:13.178895,-53
2021-10-14 15:21:13.178901,-68
2021-10-14 15:21:13.178908,-80
2021-10-14 15:21:13.178914,-71
2021-10-14 15:21:13.178920,-49
2021-10-14 15:21:13.178927,-17
2021-10-14 15:21:13.178933,7
2021-10-14 15:21:13.178940,12
2021-10-14 15:21:13.178946,9
2021-10-14 15:21:13.178952,-7
2021-10-14 15:21:13.178958,-31
2021-10-14 15:21:13.178964,-41
2021-10-14 15:21:13.178971,-34
2021-10-14 15:21:13.314750,-29
2021-10-14 15:21:13.314771,-29
2021-10-14 15:21:13.314781,-26
2021-10-14 15:21:13.314790,-31
2021-10-14 15:21:13.314799,-41
2021-10-14 15:21:13.314807,-29
2021-10-14 15:21:13.314816,63
2021-10-14 15:21:13.314824,353
2021-10-14 15:21:13.314833,755
2021-10-14 15:21:13.314841,829
2021-10-14 15:21:13.314849,188
2021-10-14 15:21:13.314858,-471
2021-10-14 15:21:13.314866,-250
2021-10-14 15:21:13.314875,117
2021-10-14 15:21:13.314883,-41
2021-10-14 15:21:13.314892,-122
2021-10-14 15:21:13.314900,0
2021-10-14 15:21:13.314909,-7
2021-10-14 15:21:13.314917,-36
2021-10-14 15:21:13.314926,9
2021-10-14 15:21:13.314934,22
2021-10-14 15:21:13.314943,22
2021-10-14 15:21:13.314951,56
2021-10-14 15:21:13.314960,80
2021-10-14 15:21:13.314968,93
2021-10-14 15:21:13.314977,112
2021-10-14 15:21:13.314985,142
2021-10-14 15:21:13.314994,171
2021-10-14 15:21:13.315002,201
2021-10-14 15:21:13.315010,228
2021-10-14 15:21:13.673050,262
2021-10-14 15:21:13.673071,304
2021-10-14 15:21:13.673081,336
2021-10-14 15:21:13.673089,365
2021-10-14 15:21:13.673098,395
2021-10-14 15:21:13.673106,412
2021-10-14 15:21:13.673115,412
2021-10-14 15:21:13.673123,399
2021-10-14 15:21:13.673132,370
2021-10-14 15:21:13.673140,309
2021-10-14 15:21:13.673149,218
2021-10-14 15:21:13.673157,107
2021-10-14 15:21:13.673165,0
2021-10-14 15:21:13.673174,-88
2021-10-14 15:21:13.673182,-157
2021-10-14 15:21:13.673191,-196
2021-10-14 15:21:13.673199,-211
2021-10-14 15:21:13.673207,-215
2021-10-14 15:21:13.673216,-215
2021-10-14 15:21:13.673224,-208
2021-10-14 15:21:13.673233,-198
2021-10-14 15:21:13.673241,-201
2021-10-14 15:21:13.673250,-198
2021-10-14 15:21:13.673258,-184
2021-10-14 15:21:13.673266,-174
2021-10-14 15:21:13.673274,-169
2021-10-14 15:21:13.673283,-157
2021-10-14 15:21:13.673291,-144
2021-10-14 15:21:13.673299,-139
2021-10-14 15:21:13.673308,-134
2021-10-14 15:21:13.764338,-122
2021-10-14 15:21:13.764357,-107
2021-10-14 15:21:13.764367,-95
2021-10-14 15:21:13.764376,-98
2021-10-14 15:21:13.764384,-98
2021-10-14 15:21:13.764393,-83
2021-10-14 15:21:13.764401,-80
2021-10-14 15:21:13.764410,-93
2021-10-14 15:21:13.764418,-90
2021-10-14 15:21:13.764426,-80
2021-10-14 15:21:13.764435,-80
2021-10-14 15:21:13.764443,-80
2021-10-14 15:21:13.764452,-88
2021-10-14 15:21:13.764460,-103
2021-10-14 15:21:13.764468,-95
2021-10-14 15:21:13.764477,-80
2021-10-14 15:21:13.764485,-73
2021-10-14 15:21:13.764494,-76
2021-10-14 15:21:13.764502,-80
2021-10-14 15:21:13.764511,-83
2021-10-14 15:21:13.764520,-71
2021-10-14 15:21:13.764528,-63
2021-10-14 15:21:13.764536,-63
2021-10-14 15:21:13.764545,-56
2021-10-14 15:21:13.764553,-49
2021-10-14 15:21:13.764562,-46
2021-10-14 15:21:13.764570,-44
2021-10-14 15:21:13.764579,-44
2021-10-14 15:21:13.764588,-41
2021-10-14 15:21:13.764596,-41
2021-10-14 15:21:13.989759,-46
2021-10-14 15:21:13.989780,-49
2021-10-14 15:21:13.989790,-41
2021-10-14 15:21:13.989799,-22
2021-10-14 15:21:13.989807,4
2021-10-14 15:21:13.989815,17
2021-10-14 15:21:13.989824,9
2021-10-14 15:21:13.989832,7
2021-10-14 15:21:13.989841,2
2021-10-14 15:21:13.989849,-17
2021-10-14 15:21:13.989857,-36
2021-10-14 15:21:13.989866,-39
2021-10-14 15:21:13.989874,-41
2021-10-14 15:21:13.989883,-44
2021-10-14 15:21:13.989891,-49
2021-10-14 15:21:13.989899,-51
2021-10-14 15:21:13.989908,-46
2021-10-14 15:21:13.989916,-36
2021-10-14 15:21:13.989924,44
2021-10-14 15:21:13.989933,316
2021-10-14 15:21:13.989941,750
2021-10-14 15:21:13.989949,978
2021-10-14 15:21:13.989958,493
2021-10-14 15:21:13.989966,-291
2021-10-14 15:21:13.989975,-299
2021-10-14 15:21:13.989983,107
2021-10-14 15:21:13.989991,41
2021-10-14 15:21:13.990000,-100
2021-10-14 15:21:13.990008,0
2021-10-14 15:21:13.990016,17
2021-10-14 15:21:14.214767,-31
2021-10-14 15:21:14.214788,7
2021-10-14 15:21:14.214798,41
2021-10-14 15:21:14.214806,39
2021-10-14 15:21:14.214815,53
2021-10-14 15:21:14.214823,73
2021-10-14 15:21:14.214832,83
2021-10-14 15:21:14.214840,110
2021-10-14 15:21:14.214848,137
2021-10-14 15:21:14.214857,159
2021-10-14 15:21:14.214865,186
2021-10-14 15:21:14.214873,206
2021-10-14 15:21:14.214882,215
2021-10-14 15:21:14.214890,257
2021-10-14 15:21:14.214899,309
2021-10-14 15:21:14.214907,336
2021-10-14 15:21:14.214915,350
2021-10-14 15:21:14.214924,368
2021-10-14 15:21:14.214932,372
2021-10-14 15:21:14.214940,360
2021-10-14 15:21:14.214949,345
2021-10-14 15:21:14.214957,311
2021-10-14 15:21:14.214966,238
2021-10-14 15:21:14.214974,137
2021-10-14 15:21:14.214982,41
2021-10-14 15:21:14.214990,-41
2021-10-14 15:21:14.214999,-117
2021-10-14 15:21:14.215007,-174
2021-10-14 15:21:14.215016,-211
2021-10-14 15:21:14.215024,-230
2021-10-14 15:21:14.439395,-230
2021-10-14 15:21:14.439422,-223
2021-10-14 15:21:14.439432,-213
2021-10-14 15:21:14.439441,-206
2021-10-14 15:21:14.439449,-208
2021-10-14 15:21:14.439458,-213
2021-10-14 15:21:14.439466,-203
2021-10-14 15:21:14.439475,-186
2021-10-14 15:21:14.439483,-174
2021-10-14 15:21:14.439491,-166
2021-10-14 15:21:14.439500,-164
2021-10-14 15:21:14.439508,-164
2021-10-14 15:21:14.439517,-157
2021-10-14 15:21:14.439525,-142
2021-10-14 15:21:14.439534,-127
2021-10-14 15:21:14.439542,-120
2021-10-14 15:21:14.439551,-120
2021-10-14 15:21:14.439559,-117
2021-10-14 15:21:14.439568,-112
2021-10-14 15:21:14.439576,-105
2021-10-14 15:21:14.439584,-105
2021-10-14 15:21:14.439593,-112
2021-10-14 15:21:14.439601,-115
2021-10-14 15:21:14.439610,-107
2021-10-14 15:21:14.439618,-98
2021-10-14 15:21:14.439627,-90
2021-10-14 15:21:14.439635,-90
2021-10-14 15:21:14.439644,-85
2021-10-14 15:21:14.439652,-80
2021-10-14 15:21:14.439660,-83
2021-10-14 15:21:14.709145,-90
2021-10-14 15:21:14.709166,-90
2021-10-14 15:21:14.709175,-85
2021-10-14 15:21:14.709184,-83
2021-10-14 15:21:14.709192,-85
2021-10-14 15:21:14.709201,-78
2021-10-14 15:21:14.709209,-76
2021-10-14 15:21:14.709218,-88
2021-10-14 15:21:14.709226,-93
2021-10-14 15:21:14.709235,-85
2021-10-14 15:21:14.709243,-80
2021-10-14 15:21:14.709252,-85
2021-10-14 15:21:14.709260,-95
2021-10-14 15:21:14.709269,-90
2021-10-14 15:21:14.709277,-88
2021-10-14 15:21:14.709286,-95
2021-10-14 15:21:14.709294,-93
2021-10-14 15:21:14.709303,-83
2021-10-14 15:21:14.709311,-85
2021-10-14 15:21:14.709319,-83
2021-10-14 15:21:14.709328,-78
2021-10-14 15:21:14.709336,-80
2021-10-14 15:21:14.709345,-85
2021-10-14 15:21:14.709353,-80
2021-10-14 15:21:14.709361,-76
2021-10-14 15:21:14.709370,-56
2021-10-14 15:21:14.709378,-31
2021-10-14 15:21:14.709386,-31
2021-10-14 15:21:14.709395,-44
2021-10-14 15:21:14.709403,-49
2021-10-14 15:21:14.934511,-53
2021-10-14 15:21:14.934533,-58
2021-10-14 15:21:14.934542,-66
2021-10-14 15:21:14.934551,-73
2021-10-14 15:21:14.934559,-68
2021-10-14 15:21:14.934567,-53
2021-10-14 15:21:14.934576,-49
2021-10-14 15:21:14.934584,-46
2021-10-14 15:21:14.934593,-34
2021-10-14 15:21:14.934601,63
2021-10-14 15:21:14.934610,341
2021-10-14 15:21:14.934618,721
2021-10-14 15:21:14.934627,807
2021-10-14 15:21:14.934635,198
2021-10-14 15:21:14.934644,-490
2021-10-14 15:21:14.934652,-299
2021-10-14 15:21:14.934660,127
2021-10-14 15:21:14.934669,17
2021-10-14 15:21:14.934677,-78
2021-10-14 15:21:14.934686,34
2021-10-14 15:21:14.934694,22
2021-10-14 15:21:14.934702,-14
2021-10-14 15:21:14.934710,44
2021-10-14 15:21:14.934719,73
2021-10-14 15:21:14.934727,63
2021-10-14 15:21:14.934735,83
2021-10-14 15:21:14.934743,105
2021-10-14 15:21:14.934752,115
2021-10-14 15:21:14.934760,137
2021-10-14 15:21:14.934768,169
2021-10-14 15:21:15.159822,196
2021-10-14 15:21:15.159842,220
2021-10-14 15:21:15.159851,250
2021-10-14 15:21:15.159859,282
2021-10-14 15:21:15.159867,311
2021-10-14 15:21:15.159874,345
2021-10-14 15:21:15.159882,385
2021-10-14 15:21:15.159890,404
2021-10-14 15:21:15.159897,404
2021-10-14 15:21:15.159905,404
2021-10-14 15:21:15.159913,412
2021-10-14 15:21:15.159920,404
2021-10-14 15:21:15.159928,355
2021-10-14 15:21:15.159936,267
2021-10-14 15:21:15.159943,154
2021-10-14 15:21:15.159951,46
2021-10-14 15:21:15.159959,-44
2021-10-14 15:21:15.159967,-115
2021-10-14 15:21:15.159974,-166
2021-10-14 15:21:15.159982,-198
2021-10-14 15:21:15.159990,-225
2021-10-14 15:21:15.159997,-235
2021-10-14 15:21:15.160005,-228
2021-10-14 15:21:15.160012,-220
2021-10-14 15:21:15.160020,-213
2021-10-14 15:21:15.160028,-193
2021-10-14 15:21:15.160035,-184
2021-10-14 15:21:15.160043,-179
2021-10-14 15:21:15.160051,-161
2021-10-14 15:21:15.160058,-159
2021-10-14 15:21:15.429804,-164
2021-10-14 15:21:15.429825,-154
2021-10-14 15:21:15.429835,-144
2021-10-14 15:21:15.429844,-134
2021-10-14 15:21:15.429869,-117
2021-10-14 15:21:15.429879,-112
2021-10-14 15:21:15.429887,-122
2021-10-14 15:21:15.429896,-127
2021-10-14 15:21:15.429905,-132
2021-10-14 15:21:15.429921,-127
2021-10-14 15:21:15.429930,-115
2021-10-14 15:21:15.429938,-112
2021-10-14 15:21:15.429947,-117
2021-10-14 15:21:15.429955,-130
2021-10-14 15:21:15.429964,-132
2021-10-14 15:21:15.429973,-125
2021-10-14 15:21:15.429981,-120
2021-10-14 15:21:15.429990,-122
2021-10-14 15:21:15.429998,-130
2021-10-14 15:21:15.430007,-127
2021-10-14 15:21:15.430015,-122
2021-10-14 15:21:15.430024,-122
2021-10-14 15:21:15.430032,-112
2021-10-14 15:21:15.430041,-100
2021-10-14 15:21:15.430049,-103
2021-10-14 15:21:15.430058,-110
2021-10-14 15:21:15.430066,-103
2021-10-14 15:21:15.430075,-98
2021-10-14 15:21:15.430083,-93
2021-10-14 15:21:15.430091,-85
2021-10-14 15:21:15.698096,-78
2021-10-14 15:21:15.698118,-78
2021-10-14 15:21:15.698128,-78
2021-10-14 15:21:15.698136,-68
2021-10-14 15:21:15.698145,-56
2021-10-14 15:21:15.698153,-56
2021-10-14 15:21:15.698162,-66
2021-10-14 15:21:15.698170,-78
2021-10-14 15:21:15.698179,-78
2021-10-14 15:21:15.698188,-53
2021-10-14 15:21:15.698196,-14
2021-10-14 15:21:15.698205,4
2021-10-14 15:21:15.698213,-4
2021-10-14 15:21:15.698222,-14
2021-10-14 15:21:15.698230,-22
2021-10-14 15:21:15.698239,-31
2021-10-14 15:21:15.698247,-31
2021-10-14 15:21:15.698255,-19
2021-10-14 15:21:15.698264,-17
2021-10-14 15:21:15.698272,-31
2021-10-14 15:21:15.698280,-31
2021-10-14 15:21:15.698289,-24
2021-10-14 15:21:15.698297,-19
2021-10-14 15:21:15.698306,19
2021-10-14 15:21:15.698314,186
2021-10-14 15:21:15.698322,552
2021-10-14 15:21:15.698331,925
2021-10-14 15:21:15.698339,785
2021-10-14 15:21:15.698348,7
2021-10-14 15:21:15.698356,-409
2021-10-14 15:21:15.879784,-19
2021-10-14 15:21:15.879806,164
2021-10-14 15:21:15.879815,-36
2021-10-14 15:21:15.879824,-7
2021-10-14 15:21:15.879833,83
2021-10-14 15:21:15.879841,26
2021-10-14 15:21:15.879850,12
2021-10-14 15:21:15.879858,66
2021-10-14 15:21:15.879867,80
2021-10-14 15:21:15.879875,71
2021-10-14 15:21:15.879884,80
2021-10-14 15:21:15.879892,98
2021-10-14 15:21:15.879901,110
2021-10-14 15:21:15.879909,130
2021-10-14 15:21:15.879918,161
2021-10-14 15:21:15.879926,191
2021-10-14 15:21:15.879935,223
2021-10-14 15:21:15.879943,255
2021-10-14 15:21:15.879951,274
2021-10-14 15:21:15.879960,301
2021-10-14 15:21:15.879968,345
2021-10-14 15:21:15.879977,382
2021-10-14 15:21:15.879985,399
2021-10-14 15:21:15.879993,407
2021-10-14 15:21:15.880002,407
2021-10-14 15:21:15.880010,399
2021-10-14 15:21:15.880019,375
2021-10-14 15:21:15.880027,321
2021-10-14 15:21:15.880035,235
2021-10-14 15:21:15.880044,134
2021-10-14 15:21:16.104414,34
2021-10-14 15:21:16.104435,-46
2021-10-14 15:21:16.104445,-107
2021-10-14 15:21:16.104454,-157
2021-10-14 15:21:16.104462,-191
2021-10-14 15:21:16.104471,-201
2021-10-14 15:21:16.104480,-203
2021-10-14 15:21:16.104488,-196
2021-10-14 15:21:16.104497,-186
2021-10-14 15:21:16.104506,-188
2021-10-14 15:21:16.104514,-179
2021-10-14 15:21:16.104523,-154
2021-10-14 15:21:16.104531,-142
2021-10-14 15:21:16.104540,-147
2021-10-14 15:21:16.104548,-142
2021-10-14 15:21:16.104557,-125
2021-10-14 15:21:16.104566,-122
2021-10-14 15:21:16.104574,-134
2021-10-14 15:21:16.104583,-132
2021-10-14 15:21:16.104591,-115
2021-10-14 15:21:16.104599,-107
2021-10-14 15:21:16.104608,-98
2021-10-14 15:21:16.104616,-93
2021-10-14 15:21:16.104625,-103
2021-10-14 15:21:16.104633,-107
2021-10-14 15:21:16.104642,-103
2021-10-14 15:21:16.104650,-98
2021-10-14 15:21:16.104658,-105
2021-10-14 15:21:16.104667,-107
2021-10-14 15:21:16.104675,-107
2021-10-14 15:21:16.284515,-110
2021-10-14 15:21:16.284537,-105
2021-10-14 15:21:16.284546,-98
2021-10-14 15:21:16.284555,-100
2021-10-14 15:21:16.284564,-112
2021-10-14 15:21:16.284572,-110
2021-10-14 15:21:16.284580,-95
2021-10-14 15:21:16.284589,-85
2021-10-14 15:21:16.284597,-83
2021-10-14 15:21:16.284605,-80
2021-10-14 15:21:16.284614,-78
2021-10-14 15:21:16.284622,-85
2021-10-14 15:21:16.284630,-90
2021-10-14 15:21:16.284639,-88
2021-10-14 15:21:16.284647,-85
2021-10-14 15:21:16.284656,-88
2021-10-14 15:21:16.284664,-93
2021-10-14 15:21:16.284673,-98
2021-10-14 15:21:16.284681,-93
2021-10-14 15:21:16.284689,-83
2021-10-14 15:21:16.284698,-80
2021-10-14 15:21:16.284706,-85
2021-10-14 15:21:16.284715,-88
2021-10-14 15:21:16.284723,-85
2021-10-14 15:21:16.284731,-63
2021-10-14 15:21:16.284740,-24
2021-10-14 15:21:16.284748,0
2021-10-14 15:21:16.284757,-4
2021-10-14 15:21:16.284765,-14
2021-10-14 15:21:16.284785,-19
2021-10-14 15:21:16.509774,-22
2021-10-14 15:21:16.509798,-31
2021-10-14 15:21:16.509807,-31
2021-10-14 15:21:16.509816,-31
2021-10-14 15:21:16.509825,-41
2021-10-14 15:21:16.509833,-39
2021-10-14 15:21:16.509842,-26
2021-10-14 15:21:16.509851,-29
2021-10-14 15:21:16.509859,-22
2021-10-14 15:21:16.509867,80
2021-10-14 15:21:16.509876,368
2021-10-14 15:21:16.509884,782
2021-10-14 15:21:16.509893,927
2021-10-14 15:21:16.509901,350
2021-10-14 15:21:16.509910,-390
2021-10-14 15:21:16.509918,-279
2021-10-14 15:21:16.509926,125
2021-10-14 15:21:16.509935,24
2021-10-14 15:21:16.509943,-88
2021-10-14 15:21:16.509952,14
2021-10-14 15:21:16.509960,26
2021-10-14 15:21:16.509968,-14
2021-10-14 15:21:16.509977,17
2021-10-14 15:21:16.509985,51
2021-10-14 15:21:16.509993,61
2021-10-14 15:21:16.510002,85
2021-10-14 15:21:16.510010,105
2021-10-14 15:21:16.510018,112
2021-10-14 15:21:16.510027,132
2021-10-14 15:21:16.510035,166
2021-10-14 15:21:16.779425,188
2021-10-14 15:21:16.779445,208
2021-10-14 15:21:16.779454,238
2021-10-14 15:21:16.779463,262
2021-10-14 15:21:16.779471,289
2021-10-14 15:21:16.779480,321
2021-10-14 15:21:16.779489,363
2021-10-14 15:21:16.779497,395
2021-10-14 15:21:16.779505,407
2021-10-14 15:21:16.779514,407
2021-10-14 15:21:16.779522,404
2021-10-14 15:21:16.779531,387
2021-10-14 15:21:16.779539,338
2021-10-14 15:21:16.779547,269
2021-10-14 15:21:16.779556,179
2021-10-14 15:21:16.779564,63
2021-10-14 15:21:16.779572,-41
2021-10-14 15:21:16.779581,-130
2021-10-14 15:21:16.779589,-193
2021-10-14 15:21:16.779598,-233
2021-10-14 15:21:16.779606,-252
2021-10-14 15:21:16.779615,-255
2021-10-14 15:21:16.779623,-252
2021-10-14 15:21:16.779631,-252
2021-10-14 15:21:16.779640,-250
2021-10-14 15:21:16.779648,-235
2021-10-14 15:21:16.779656,-218
2021-10-14 15:21:16.779665,-215
2021-10-14 15:21:16.779673,-218
2021-10-14 15:21:16.779681,-213
2021-10-14 15:21:17.004434,-201
2021-10-14 15:21:17.004456,-193
2021-10-14 15:21:17.004466,-191
2021-10-14 15:21:17.004474,-188
2021-10-14 15:21:17.004483,-179
2021-10-14 15:21:17.004492,-169
2021-10-14 15:21:17.004500,-157
2021-10-14 15:21:17.004509,-157
2021-10-14 15:21:17.004517,-169
2021-10-14 15:21:17.004526,-169
2021-10-14 15:21:17.004534,-157
2021-10-14 15:21:17.004543,-147
2021-10-14 15:21:17.004551,-142
2021-10-14 15:21:17.004560,-139
2021-10-14 15:21:17.004568,-154
2021-10-14 15:21:17.004577,-166
2021-10-14 15:21:17.004585,-149
2021-10-14 15:21:17.004594,-134
2021-10-14 15:21:17.004603,-132
2021-10-14 15:21:17.004611,-125
2021-10-14 15:21:17.004620,-125
2021-10-14 15:21:17.004628,-132
2021-10-14 15:21:17.004637,-125
2021-10-14 15:21:17.004645,-112
2021-10-14 15:21:17.004653,-107
2021-10-14 15:21:17.004662,-110
2021-10-14 15:21:17.004670,-105
2021-10-14 15:21:17.004679,-98
2021-10-14 15:21:17.004687,-100
2021-10-14 15:21:17.004695,-103
2021-10-14 15:21:17.229822,-100
2021-10-14 15:21:17.229844,-83
2021-10-14 15:21:17.229853,-44
2021-10-14 15:21:17.229862,-14
2021-10-14 15:21:17.229871,-14
2021-10-14 15:21:17.229879,-19
2021-10-14 15:21:17.229888,-22
2021-10-14 15:21:17.229896,-44
2021-10-14 15:21:17.229905,-71
2021-10-14 15:21:17.229913,-63
2021-10-14 15:21:17.229921,-44
2021-10-14 15:21:17.229930,-44
2021-10-14 15:21:17.229938,-41
2021-10-14 15:21:17.229947,-41
2021-10-14 15:21:17.229955,-51
2021-10-14 15:21:17.229963,-34
2021-10-14 15:21:17.229972,61
2021-10-14 15:21:17.229980,314
2021-10-14 15:21:17.229989,691
2021-10-14 15:21:17.229997,844
2021-10-14 15:21:17.230006,321
2021-10-14 15:21:17.230014,-429
2021-10-14 15:21:17.230023,-372
2021-10-14 15:21:17.230031,76
2021-10-14 15:21:17.230040,31
2021-10-14 15:21:17.230048,-95
2021-10-14 15:21:17.230056,14
2021-10-14 15:21:17.230065,34
2021-10-14 15:21:17.230073,-9
2021-10-14 15:21:17.230082,34
2021-10-14 15:21:17.454801,71
2021-10-14 15:21:17.454822,56
2021-10-14 15:21:17.454832,66
2021-10-14 15:21:17.454841,98
2021-10-14 15:21:17.454849,120
2021-10-14 15:21:17.454858,137
2021-10-14 15:21:17.454866,157
2021-10-14 15:21:17.454875,174
2021-10-14 15:21:17.454883,201
2021-10-14 15:21:17.454892,238
2021-10-14 15:21:17.454900,269
2021-10-14 15:21:17.454908,299
2021-10-14 15:21:17.454917,331
2021-10-14 15:21:17.454925,358
2021-10-14 15:21:17.454934,385
2021-10-14 15:21:17.454942,402
2021-10-14 15:21:17.454951,402
2021-10-14 15:21:17.454959,397
2021-10-14 15:21:17.454967,380
2021-10-14 15:21:17.454976,328
2021-10-14 15:21:17.454984,242
2021-10-14 15:21:17.454993,139
2021-10-14 15:21:17.455001,34
2021-10-14 15:21:17.455010,-61
2021-10-14 15:21:17.455018,-137
2021-10-14 15:21:17.455026,-196
2021-10-14 15:21:17.455035,-240
2021-10-14 15:21:17.455043,-257
2021-10-14 15:21:17.455052,-255
2021-10-14 15:21:17.455060,-252
2021-10-14 15:21:17.724130,-252
2021-10-14 15:21:17.724150,-242
2021-10-14 15:21:17.724156,-230
2021-10-14 15:21:17.724160,-223
2021-10-14 15:21:17.724165,-213
2021-10-14 15:21:17.724169,-203
2021-10-14 15:21:17.724174,-206
2021-10-14 15:21:17.724178,-208
2021-10-14 15:21:17.724183,-196
2021-10-14 15:21:17.724187,-186
2021-10-14 15:21:17.724191,-186
2021-10-14 15:21:17.724196,-191
2021-10-14 15:21:17.724200,-193
2021-10-14 15:21:17.724204,-193
2021-10-14 15:21:17.724209,-186
2021-10-14 15:21:17.724213,-179
2021-10-14 15:21:17.724217,-169
2021-10-14 15:21:17.724222,-171
2021-10-14 15:21:17.724226,-176
2021-10-14 15:21:17.724231,-176
2021-10-14 15:21:17.724254,-174
2021-10-14 15:21:17.724263,-176
2021-10-14 15:21:17.724270,-181
2021-10-14 15:21:17.724277,-179
2021-10-14 15:21:17.724285,-166
2021-10-14 15:21:17.724293,-154
2021-10-14 15:21:17.724300,-154
2021-10-14 15:21:17.724307,-161
2021-10-14 15:21:17.724315,-166
2021-10-14 15:21:17.724323,-169
2021-10-14 15:21:17.904445,-166
2021-10-14 15:21:17.904466,-149
2021-10-14 15:21:17.904476,-139
2021-10-14 15:21:17.904484,-144
2021-10-14 15:21:17.904493,-149
2021-10-14 15:21:17.904502,-157
2021-10-14 15:21:17.904510,-139
2021-10-14 15:21:17.904518,-88
2021-10-14 15:21:17.904527,-61
2021-10-14 15:21:17.904535,-76
2021-10-14 15:21:17.904544,-83
2021-10-14 15:21:17.904552,-78
2021-10-14 15:21:17.904560,-90
2021-10-14 15:21:17.904569,-105
2021-10-14 15:21:17.904577,-93
2021-10-14 15:21:17.904586,-73
2021-10-14 15:21:17.904594,-76
2021-10-14 15:21:17.904603,-98
2021-10-14 15:21:17.904611,-103
2021-10-14 15:21:17.904619,-83
2021-10-14 15:21:17.904628,-63
2021-10-14 15:21:17.904636,12
2021-10-14 15:21:17.904644,277
2021-10-14 15:21:17.904653,709
2021-10-14 15:21:17.904661,927
2021-10-14 15:21:17.904669,429
2021-10-14 15:21:17.904678,-336
2021-10-14 15:21:17.904686,-316
2021-10-14 15:21:17.904694,83
2021-10-14 15:21:17.904702,12
2021-10-14 15:21:18.174461,-105
2021-10-14 15:21:18.174482,0
2021-10-14 15:21:18.174492,2
2021-10-14 15:21:18.174501,-46
2021-10-14 15:21:18.174509,0
2021-10-14 15:21:18.174518,24
2021-10-14 15:21:18.174526,14
2021-10-14 15:21:18.174534,44
2021-10-14 15:21:18.174543,76
2021-10-14 15:21:18.174551,78
2021-10-14 15:21:18.174559,90
2021-10-14 15:21:18.174568,115
2021-10-14 15:21:18.174576,142
2021-10-14 15:21:18.174585,171
2021-10-14 15:21:18.174593,201
2021-10-14 15:21:18.174601,235
2021-10-14 15:21:18.174610,274
2021-10-14 15:21:18.174618,299
2021-10-14 15:21:18.174627,318
2021-10-14 15:21:18.174635,350
2021-10-14 15:21:18.174643,375
2021-10-14 15:21:18.174652,375
2021-10-14 15:21:18.174660,365
2021-10-14 15:21:18.174668,353
2021-10-14 15:21:18.174677,321
2021-10-14 15:21:18.174685,247
2021-10-14 15:21:18.174693,152
2021-10-14 15:21:18.174702,51
2021-10-14 15:21:18.174711,-39
2021-10-14 15:21:18.174719,-105
2021-10-14 15:21:18.399851,-149
2021-10-14 15:21:18.399873,-188
2021-10-14 15:21:18.399883,-218
2021-10-14 15:21:18.399892,-233
2021-10-14 15:21:18.399900,-238
2021-10-14 15:21:18.399909,-233
2021-10-14 15:21:18.399917,-218
2021-10-14 15:21:18.399926,-201
2021-10-14 15:21:18.399935,-193
2021-10-14 15:21:18.399943,-196
2021-10-14 15:21:18.399952,-196
2021-10-14 15:21:18.399960,-181
2021-10-14 15:21:18.399969,-161
2021-10-14 15:21:18.399977,-149
2021-10-14 15:21:18.399986,-142
2021-10-14 15:21:18.399994,-147
2021-10-14 15:21:18.400003,-154
2021-10-14 15:21:18.400011,-142
2021-10-14 15:21:18.400020,-132
2021-10-14 15:21:18.400028,-130
2021-10-14 15:21:18.400037,-125
2021-10-14 15:21:18.400046,-122
2021-10-14 15:21:18.400054,-122
2021-10-14 15:21:18.400063,-110
2021-10-14 15:21:18.400071,-105
2021-10-14 15:21:18.400080,-112
2021-10-14 15:21:18.400089,-110
2021-10-14 15:21:18.400097,-105
2021-10-14 15:21:18.400106,-105
2021-10-14 15:21:18.400114,-103
2021-10-14 15:21:18.624829,-98
2021-10-14 15:21:18.624851,-103
2021-10-14 15:21:18.624860,-110
2021-10-14 15:21:18.624867,-120
2021-10-14 15:21:18.624874,-127
2021-10-14 15:21:18.624881,-122
2021-10-14 15:21:18.624890,-110
2021-10-14 15:21:18.624897,-107
2021-10-14 15:21:18.624904,-107
2021-10-14 15:21:18.624912,-110
2021-10-14 15:21:18.624919,-110
2021-10-14 15:21:18.624927,-105
2021-10-14 15:21:18.624935,-105
2021-10-14 15:21:18.624942,-105
2021-10-14 15:21:18.624949,-115
2021-10-14 15:21:18.624957,-127
2021-10-14 15:21:18.624964,-100
2021-10-14 15:21:18.624970,-53
2021-10-14 15:21:18.624977,-39
2021-10-14 15:21:18.624984,-39
2021-10-14 15:21:18.624991,-36
2021-10-14 15:21:18.624998,-49
2021-10-14 15:21:18.625005,-61
2021-10-14 15:21:18.625012,-68
2021-10-14 15:21:18.625020,-63
2021-10-14 15:21:18.625028,-49
2021-10-14 15:21:18.625035,-46
2021-10-14 15:21:18.625043,-56
2021-10-14 15:21:18.625050,-56
2021-10-14 15:21:18.625058,-46
2021-10-14 15:21:18.849463,-12
2021-10-14 15:21:18.849484,137
2021-10-14 15:21:18.849493,458
2021-10-14 15:21:18.849502,826
2021-10-14 15:21:18.849510,809
2021-10-14 15:21:18.849519,93
2021-10-14 15:21:18.849528,-498
2021-10-14 15:21:18.849536,-186
2021-10-14 15:21:18.849544,132
2021-10-14 15:21:18.849553,-63
2021-10-14 15:21:18.849561,-117
2021-10-14 15:21:18.849570,7
2021-10-14 15:21:18.849578,-12
2021-10-14 15:21:18.849586,-44
2021-10-14 15:21:18.849595,2
2021-10-14 15:21:18.849603,24
2021-10-14 15:21:18.849612,19
2021-10-14 15:21:18.849620,31
2021-10-14 15:21:18.849628,61
2021-10-14 15:21:18.849637,88
2021-10-14 15:21:18.849645,105
2021-10-14 15:21:18.849653,122
2021-10-14 15:21:18.849661,154
2021-10-14 15:21:18.849670,186
2021-10-14 15:21:18.849678,213
2021-10-14 15:21:18.849686,247
2021-10-14 15:21:18.849694,279
2021-10-14 15:21:18.849703,309
2021-10-14 15:21:18.849711,333
2021-10-14 15:21:18.849720,355
2021-10-14 15:21:19.119446,375
2021-10-14 15:21:19.119467,382
2021-10-14 15:21:19.119476,365
2021-10-14 15:21:19.119485,343
2021-10-14 15:21:19.119494,314
2021-10-14 15:21:19.119502,250
2021-10-14 15:21:19.119510,149
2021-10-14 15:21:19.119519,36
2021-10-14 15:21:19.119527,-61
2021-10-14 15:21:19.119536,-130
2021-10-14 15:21:19.119544,-174
2021-10-14 15:21:19.119553,-203
2021-10-14 15:21:19.119561,-218
2021-10-14 15:21:19.119569,-225
2021-10-14 15:21:19.119578,-235
2021-10-14 15:21:19.119586,-235
2021-10-14 15:21:19.119595,-223
2021-10-14 15:21:19.119603,-203
2021-10-14 15:21:19.119611,-188
2021-10-14 15:21:19.119620,-181
2021-10-14 15:21:19.119628,-181
2021-10-14 15:21:19.119636,-176
2021-10-14 15:21:19.119645,-152
2021-10-14 15:21:19.119653,-127
2021-10-14 15:21:19.119661,-125
2021-10-14 15:21:19.119670,-130
2021-10-14 15:21:19.119678,-125
2021-10-14 15:21:19.119687,-117
2021-10-14 15:21:19.119695,-107
2021-10-14 15:21:19.119703,-103
2021-10-14 15:21:19.299903,-110
2021-10-14 15:21:19.299924,-115
2021-10-14 15:21:19.299934,-107
2021-10-14 15:21:19.299943,-100
2021-10-14 15:21:19.299952,-100
2021-10-14 15:21:19.299960,-98
2021-10-14 15:21:19.299967,-88
2021-10-14 15:21:19.299974,-85
2021-10-14 15:21:19.299981,-95
2021-10-14 15:21:19.299989,-100
2021-10-14 15:21:19.299997,-93
2021-10-14 15:21:19.300018,-93
2021-10-14 15:21:19.300025,-98
2021-10-14 15:21:19.300034,-103
2021-10-14 15:21:19.300042,-112
2021-10-14 15:21:19.300050,-122
2021-10-14 15:21:19.300058,-125
2021-10-14 15:21:19.300067,-130
2021-10-14 15:21:19.300075,-147
2021-10-14 15:21:19.300084,-149
2021-10-14 15:21:19.300092,-112
2021-10-14 15:21:19.300100,-73
2021-10-14 15:21:19.300108,-66
2021-10-14 15:21:19.300116,-66
2021-10-14 15:21:19.300123,-73
2021-10-14 15:21:19.300131,-90
2021-10-14 15:21:19.300139,-100
2021-10-14 15:21:19.300146,-95
2021-10-14 15:21:19.300154,-90
2021-10-14 15:21:19.300161,-88
2021-10-14 15:21:19.524552,-78
2021-10-14 15:21:19.524574,-68
2021-10-14 15:21:19.524583,-71
2021-10-14 15:21:19.524591,-66
2021-10-14 15:21:19.524598,-4
2021-10-14 15:21:19.524606,181
2021-10-14 15:21:19.524614,520
2021-10-14 15:21:19.524622,802
2021-10-14 15:21:19.524630,547
2021-10-14 15:21:19.524639,-238
2021-10-14 15:21:19.524648,-520
2021-10-14 15:21:19.524656,-58
2021-10-14 15:21:19.524664,88
2021-10-14 15:21:19.524673,-103
2021-10-14 15:21:19.524682,-41
2021-10-14 15:21:19.524690,41
2021-10-14 15:21:19.524699,-14
2021-10-14 15:21:19.524708,-2
2021-10-14 15:21:19.524716,53
2021-10-14 15:21:19.524725,53
2021-10-14 15:21:19.524733,56
2021-10-14 15:21:19.524742,90
2021-10-14 15:21:19.524750,117
2021-10-14 15:21:19.524759,130
2021-10-14 15:21:19.524767,154
2021-10-14 15:21:19.524776,188
2021-10-14 15:21:19.524784,215
2021-10-14 15:21:19.524793,233
2021-10-14 15:21:19.524801,269
2021-10-14 15:21:19.524809,316
2021-10-14 15:21:19.793321,338
2021-10-14 15:21:19.793343,363
2021-10-14 15:21:19.793353,404
2021-10-14 15:21:19.793362,424
2021-10-14 15:21:19.793372,417
2021-10-14 15:21:19.793381,402
2021-10-14 15:21:19.793390,390
2021-10-14 15:21:19.793398,365
2021-10-14 15:21:19.793407,309
2021-10-14 15:21:19.793415,218
2021-10-14 15:21:19.793424,110
2021-10-14 15:21:19.793432,7
2021-10-14 15:21:19.793441,-78
2021-10-14 15:21:19.793450,-139
2021-10-14 15:21:19.793458,-176
2021-10-14 15:21:19.793466,-196
2021-10-14 15:21:19.793475,-203
2021-10-14 15:21:19.793483,-208
2021-10-14 15:21:19.793492,-206
2021-10-14 15:21:19.793500,-196
2021-10-14 15:21:19.793509,-181
2021-10-14 15:21:19.793517,-181
2021-10-14 15:21:19.793526,-184
2021-10-14 15:21:19.793534,-169
2021-10-14 15:21:19.793542,-152
2021-10-14 15:21:19.793551,-144
2021-10-14 15:21:19.793559,-132
2021-10-14 15:21:19.793568,-120
2021-10-14 15:21:19.793576,-122
2021-10-14 15:21:19.793585,-117
2021-10-14 15:21:19.974836,-100
2021-10-14 15:21:19.974856,-90
2021-10-14 15:21:19.974865,-95
2021-10-14 15:21:19.974874,-93
2021-10-14 15:21:19.974882,-88
2021-10-14 15:21:19.974891,-93
2021-10-14 15:21:19.974900,-93
2021-10-14 15:21:19.974908,-88
2021-10-14 15:21:19.974916,-88
2021-10-14 15:21:19.974925,-83
2021-10-14 15:21:19.974933,-80
2021-10-14 15:21:19.974942,-85
2021-10-14 15:21:19.974950,-83
2021-10-14 15:21:19.974958,-73
2021-10-14 15:21:19.974967,-78
2021-10-14 15:21:19.974975,-83
2021-10-14 15:21:19.974983,-78
2021-10-14 15:21:19.974992,-71
2021-10-14 15:21:19.975000,-73
2021-10-14 15:21:19.975008,-71
2021-10-14 15:21:19.975017,-73
2021-10-14 15:21:19.975025,-68
2021-10-14 15:21:19.975033,-39
2021-10-14 15:21:19.975042,-2
2021-10-14 15:21:19.975050,12
2021-10-14 15:21:19.975059,12
2021-10-14 15:21:19.975067,4
2021-10-14 15:21:19.975075,-12
2021-10-14 15:21:19.975084,-24
2021-10-14 15:21:19.975092,-24
2021-10-14 15:21:20.199929,-26
2021-10-14 15:21:20.199952,-26
2021-10-14 15:21:20.199962,-26
2021-10-14 15:21:20.199971,-31
2021-10-14 15:21:20.199980,-49
2021-10-14 15:21:20.199989,-63
2021-10-14 15:21:20.199996,-26
2021-10-14 15:21:20.200004,117
2021-10-14 15:21:20.200012,439
2021-10-14 15:21:20.200020,841
2021-10-14 15:21:20.200027,851
2021-10-14 15:21:20.200035,142
2021-10-14 15:21:20.200042,-439
2021-10-14 15:21:20.200048,-144
2021-10-14 15:21:20.200055,142
2021-10-14 15:21:20.200062,-41
2021-10-14 15:21:20.200068,-73
2021-10-14 15:21:20.200075,31
2021-10-14 15:21:20.200083,0
2021-10-14 15:21:20.200090,-12
2021-10-14 15:21:20.200097,39
2021-10-14 15:21:20.200104,36
2021-10-14 15:21:20.200111,39
2021-10-14 15:21:20.200119,85
2021-10-14 15:21:20.200154,105
2021-10-14 15:21:20.200165,105
2021-10-14 15:21:20.200173,132
2021-10-14 15:21:20.200180,157
2021-10-14 15:21:20.200187,166
2021-10-14 15:21:20.200194,193
2021-10-14 15:21:20.469860,228
2021-10-14 15:21:20.469881,260
2021-10-14 15:21:20.469890,291
2021-10-14 15:21:20.469899,311
2021-10-14 15:21:20.469908,326
2021-10-14 15:21:20.469916,345
2021-10-14 15:21:20.469925,358
2021-10-14 15:21:20.469933,360
2021-10-14 15:21:20.469942,350
2021-10-14 15:21:20.469950,326
2021-10-14 15:21:20.469959,279
2021-10-14 15:21:20.469967,211
2021-10-14 15:21:20.469975,120
2021-10-14 15:21:20.469984,36
2021-10-14 15:21:20.469992,-39
2021-10-14 15:21:20.470001,-112
2021-10-14 15:21:20.470009,-159
2021-10-14 15:21:20.470017,-174
2021-10-14 15:21:20.470026,-176
2021-10-14 15:21:20.470034,-184
2021-10-14 15:21:20.470043,-196
2021-10-14 15:21:20.470051,-193
2021-10-14 15:21:20.470059,-176
2021-10-14 15:21:20.470067,-157
2021-10-14 15:21:20.470076,-152
2021-10-14 15:21:20.470084,-142
2021-10-14 15:21:20.470093,-127
2021-10-14 15:21:20.470101,-122
2021-10-14 15:21:20.470110,-120
2021-10-14 15:21:20.470118,-105
2021-10-14 15:21:20.694859,-93
2021-10-14 15:21:20.694880,-90
2021-10-14 15:21:20.694889,-95
2021-10-14 15:21:20.694898,-93
2021-10-14 15:21:20.694907,-80
2021-10-14 15:21:20.694915,-73
2021-10-14 15:21:20.694923,-71
2021-10-14 15:21:20.694932,-68
2021-10-14 15:21:20.694940,-76
2021-10-14 15:21:20.694949,-85
2021-10-14 15:21:20.694957,-80
2021-10-14 15:21:20.694965,-71
2021-10-14 15:21:20.694974,-68
2021-10-14 15:21:20.694982,-63
2021-10-14 15:21:20.694990,-66
2021-10-14 15:21:20.694999,-76
2021-10-14 15:21:20.695007,-76
2021-10-14 15:21:20.695016,-63
2021-10-14 15:21:20.695024,-56
2021-10-14 15:21:20.695032,-51
2021-10-14 15:21:20.695040,-49
2021-10-14 15:21:20.695049,-49
2021-10-14 15:21:20.695057,-51
2021-10-14 15:21:20.695065,-58
2021-10-14 15:21:20.695074,-63
2021-10-14 15:21:20.695082,-58
2021-10-14 15:21:20.695090,-46
2021-10-14 15:21:20.695099,-17
2021-10-14 15:21:20.695107,14
2021-10-14 15:21:20.695115,17
2021-10-14 15:21:20.919489,9
2021-10-14 15:21:20.919520,4
2021-10-14 15:21:20.919530,-19
2021-10-14 15:21:20.919539,-56
2021-10-14 15:21:20.919548,-61
2021-10-14 15:21:20.919556,-41
2021-10-14 15:21:20.919565,-39
2021-10-14 15:21:20.919573,-53
2021-10-14 15:21:20.919582,-63
2021-10-14 15:21:20.919590,-66
2021-10-14 15:21:20.919598,-63
2021-10-14 15:21:20.919607,-9
2021-10-14 15:21:20.919616,203
2021-10-14 15:21:20.919624,593
2021-10-14 15:21:20.919633,883
2021-10-14 15:21:20.919641,559
2021-10-14 15:21:20.919649,-247
2021-10-14 15:21:20.919658,-463
2021-10-14 15:21:20.919666,-22
2021-10-14 15:21:20.919675,56
2021-10-14 15:21:20.919683,-120
2021-10-14 15:21:20.919692,-49
2021-10-14 15:21:20.919700,9
2021-10-14 15:21:20.919709,-46
2021-10-14 15:21:20.919717,-24
2021-10-14 15:21:20.919725,24
2021-10-14 15:21:20.919734,14
2021-10-14 15:21:20.919742,19
2021-10-14 15:21:20.919751,51
2021-10-14 15:21:20.919759,68
2021-10-14 15:21:21.144871,83
2021-10-14 15:21:21.144891,110
2021-10-14 15:21:21.144899,137
2021-10-14 15:21:21.144906,157
2021-10-14 15:21:21.144912,188
2021-10-14 15:21:21.144920,225
2021-10-14 15:21:21.144928,250
2021-10-14 15:21:21.144936,267
2021-10-14 15:21:21.144944,289
2021-10-14 15:21:21.144951,314
2021-10-14 15:21:21.144958,333
2021-10-14 15:21:21.144964,348
2021-10-14 15:21:21.144970,345
2021-10-14 15:21:21.144977,323
2021-10-14 15:21:21.144984,284
2021-10-14 15:21:21.144990,230
2021-10-14 15:21:21.144997,157
2021-10-14 15:21:21.145003,68
2021-10-14 15:21:21.145011,-22
2021-10-14 15:21:21.145018,-95
2021-10-14 15:21:21.145024,-149
2021-10-14 15:21:21.145030,-186
2021-10-14 15:21:21.145037,-206
2021-10-14 15:21:21.145044,-208
2021-10-14 15:21:21.145050,-208
2021-10-14 15:21:21.145057,-208
2021-10-14 15:21:21.145063,-206
2021-10-14 15:21:21.145070,-201
2021-10-14 15:21:21.145076,-191
2021-10-14 15:21:21.145083,-179
2021-10-14 15:21:21.369478,-171
2021-10-14 15:21:21.369499,-159
2021-10-14 15:21:21.369509,-139
2021-10-14 15:21:21.369518,-132
2021-10-14 15:21:21.369526,-130
2021-10-14 15:21:21.369535,-127
2021-10-14 15:21:21.369543,-130
2021-10-14 15:21:21.369552,-134
2021-10-14 15:21:21.369561,-127
2021-10-14 15:21:21.369569,-132
2021-10-14 15:21:21.369578,-142
2021-10-14 15:21:21.369586,-139
2021-10-14 15:21:21.369595,-137
2021-10-14 15:21:21.369603,-142
2021-10-14 15:21:21.369612,-139
2021-10-14 15:21:21.369620,-132
2021-10-14 15:21:21.369628,-127
2021-10-14 15:21:21.369637,-127
2021-10-14 15:21:21.369645,-122
2021-10-14 15:21:21.369654,-112
2021-10-14 15:21:21.369662,-107
2021-10-14 15:21:21.369671,-110
2021-10-14 15:21:21.369679,-105
2021-10-14 15:21:21.369688,-100
2021-10-14 15:21:21.369696,-107
2021-10-14 15:21:21.369705,-112
2021-10-14 15:21:21.369713,-105
2021-10-14 15:21:21.369722,-90
2021-10-14 15:21:21.369730,-58
2021-10-14 15:21:21.369739,-26
2021-10-14 15:21:21.594500,-26
2021-10-14 15:21:21.594524,-36
2021-10-14 15:21:21.594533,-41
2021-10-14 15:21:21.594542,-51
2021-10-14 15:21:21.594551,-63
2021-10-14 15:21:21.594559,-66
2021-10-14 15:21:21.594568,-61
2021-10-14 15:21:21.594577,-56
2021-10-14 15:21:21.594586,-56
2021-10-14 15:21:21.594594,-63
2021-10-14 15:21:21.594603,-68
2021-10-14 15:21:21.594611,-61
2021-10-14 15:21:21.594620,2
2021-10-14 15:21:21.594628,240
2021-10-14 15:21:21.594637,620
2021-10-14 15:21:21.594645,807
2021-10-14 15:21:21.594654,345
2021-10-14 15:21:21.594662,-431
2021-10-14 15:21:21.594670,-453
2021-10-14 15:21:21.594679,39
2021-10-14 15:21:21.594687,51
2021-10-14 15:21:21.594696,-107
2021-10-14 15:21:21.594704,-14
2021-10-14 15:21:21.594712,17
2021-10-14 15:21:21.594721,-34
2021-10-14 15:21:21.594729,2
2021-10-14 15:21:21.594738,44
2021-10-14 15:21:21.594746,39
2021-10-14 15:21:21.594755,58
2021-10-14 15:21:21.594763,88
2021-10-14 15:21:21.863176,98
2021-10-14 15:21:21.863198,117
2021-10-14 15:21:21.863208,144
2021-10-14 15:21:21.863217,166
2021-10-14 15:21:21.863225,186
2021-10-14 15:21:21.863234,213
2021-10-14 15:21:21.863242,242
2021-10-14 15:21:21.863250,269
2021-10-14 15:21:21.863258,306
2021-10-14 15:21:21.863267,341
2021-10-14 15:21:21.863275,353
2021-10-14 15:21:21.863283,348
2021-10-14 15:21:21.863292,353
2021-10-14 15:21:21.863300,353
2021-10-14 15:21:21.863308,326
2021-10-14 15:21:21.863317,277
2021-10-14 15:21:21.863325,211
2021-10-14 15:21:21.863334,120
2021-10-14 15:21:21.863342,24
2021-10-14 15:21:21.863351,-53
2021-10-14 15:21:21.863359,-122
2021-10-14 15:21:21.863367,-179
2021-10-14 15:21:21.863376,-206
2021-10-14 15:21:21.863384,-211
2021-10-14 15:21:21.863392,-213
2021-10-14 15:21:21.863400,-218
2021-10-14 15:21:21.863409,-215
2021-10-14 15:21:21.863417,-203
2021-10-14 15:21:21.863425,-188
2021-10-14 15:21:21.863434,-176
2021-10-14 15:21:22.089491,-164
2021-10-14 15:21:22.089512,-157
2021-10-14 15:21:22.089522,-159
2021-10-14 15:21:22.089531,-154
2021-10-14 15:21:22.089539,-139
2021-10-14 15:21:22.089548,-137
2021-10-14 15:21:22.089557,-137
2021-10-14 15:21:22.089565,-127
2021-10-14 15:21:22.089574,-112
2021-10-14 15:21:22.089583,-112
2021-10-14 15:21:22.089591,-120
2021-10-14 15:21:22.089600,-122
2021-10-14 15:21:22.089608,-110
2021-10-14 15:21:22.089617,-103
2021-10-14 15:21:22.089625,-100
2021-10-14 15:21:22.089634,-105
2021-10-14 15:21:22.089642,-105
2021-10-14 15:21:22.089651,-100
2021-10-14 15:21:22.089659,-93
2021-10-14 15:21:22.089667,-83
2021-10-14 15:21:22.089676,-76
2021-10-14 15:21:22.089684,-80
2021-10-14 15:21:22.089693,-83
2021-10-14 15:21:22.089701,-71
2021-10-14 15:21:22.089710,-58
2021-10-14 15:21:22.089718,-58
2021-10-14 15:21:22.089726,-71
2021-10-14 15:21:22.089735,-78
2021-10-14 15:21:22.089743,-61
2021-10-14 15:21:22.089752,-14
2021-10-14 15:21:22.314857,19
2021-10-14 15:21:22.314878,19
2021-10-14 15:21:22.314888,9
2021-10-14 15:21:22.314897,-4
2021-10-14 15:21:22.314905,-24
2021-10-14 15:21:22.314914,-29
2021-10-14 15:21:22.314923,-17
2021-10-14 15:21:22.314931,-7
2021-10-14 15:21:22.314939,-14
2021-10-14 15:21:22.314948,-29
2021-10-14 15:21:22.314956,-29
2021-10-14 15:21:22.314964,-24
2021-10-14 15:21:22.314973,-17
2021-10-14 15:21:22.314981,44
2021-10-14 15:21:22.314990,255
2021-10-14 15:21:22.314998,642
2021-10-14 15:21:22.315007,944
2021-10-14 15:21:22.315015,623
2021-10-14 15:21:22.315032,-191
2021-10-14 15:21:22.315069,-387
2021-10-14 15:21:22.315089,39
2021-10-14 15:21:22.315100,73
2021-10-14 15:21:22.315108,-105
2021-10-14 15:21:22.315117,-26
2021-10-14 15:21:22.315144,24
2021-10-14 15:21:22.315161,-29
2021-10-14 15:21:22.315170,-9
2021-10-14 15:21:22.315179,17
2021-10-14 15:21:22.315187,17
2021-10-14 15:21:22.315196,39
2021-10-14 15:21:22.584889,63
2021-10-14 15:21:22.584910,78
2021-10-14 15:21:22.584920,95
2021-10-14 15:21:22.584928,110
2021-10-14 15:21:22.584937,132
2021-10-14 15:21:22.584945,164
2021-10-14 15:21:22.584954,186
2021-10-14 15:21:22.584962,208
2021-10-14 15:21:22.584970,235
2021-10-14 15:21:22.584979,255
2021-10-14 15:21:22.584987,279
2021-10-14 15:21:22.584995,311
2021-10-14 15:21:22.585004,326
2021-10-14 15:21:22.585012,328
2021-10-14 15:21:22.585021,311
2021-10-14 15:21:22.585029,282
2021-10-14 15:21:22.585038,260
2021-10-14 15:21:22.585046,220
2021-10-14 15:21:22.585054,139
2021-10-14 15:21:22.585063,46
2021-10-14 15:21:22.585071,-36
2021-10-14 15:21:22.585080,-107
2021-10-14 15:21:22.585088,-154
2021-10-14 15:21:22.585096,-184
2021-10-14 15:21:22.585105,-198
2021-10-14 15:21:22.585113,-206
2021-10-14 15:21:22.585122,-203
2021-10-14 15:21:22.585130,-201
2021-10-14 15:21:22.585138,-196
2021-10-14 15:21:22.585147,-174
2021-10-14 15:21:22.809512,-149
2021-10-14 15:21:22.809533,-144
2021-10-14 15:21:22.809543,-147
2021-10-14 15:21:22.809552,-142
2021-10-14 15:21:22.809561,-127
2021-10-14 15:21:22.809569,-115
2021-10-14 15:21:22.809577,-105
2021-10-14 15:21:22.809586,-105
2021-10-14 15:21:22.809594,-110
2021-10-14 15:21:22.809603,-105
2021-10-14 15:21:22.809611,-95
2021-10-14 15:21:22.809620,-88
2021-10-14 15:21:22.809628,-83
2021-10-14 15:21:22.809636,-90
2021-10-14 15:21:22.809645,-100
2021-10-14 15:21:22.809653,-100
2021-10-14 15:21:22.809661,-88
2021-10-14 15:21:22.809670,-78
2021-10-14 15:21:22.809678,-80
2021-10-14 15:21:22.809687,-88
2021-10-14 15:21:22.809695,-90
2021-10-14 15:21:22.809703,-88
2021-10-14 15:21:22.809711,-73
2021-10-14 15:21:22.809720,-68
2021-10-14 15:21:22.809728,-73
2021-10-14 15:21:22.809736,-83
2021-10-14 15:21:22.809745,-90
2021-10-14 15:21:22.809753,-88
2021-10-14 15:21:22.809761,-76
2021-10-14 15:21:22.809770,-66
2021-10-14 15:21:22.989883,-63
2021-10-14 15:21:22.989910,-61
2021-10-14 15:21:22.989919,-58
2021-10-14 15:21:22.989928,-63
2021-10-14 15:21:22.989936,-68
2021-10-14 15:21:22.989945,-56
2021-10-14 15:21:22.989953,-19
2021-10-14 15:21:22.989962,22
2021-10-14 15:21:22.989970,22
2021-10-14 15:21:22.989979,2
2021-10-14 15:21:22.989987,-4
2021-10-14 15:21:22.989996,-7
2021-10-14 15:21:22.990004,-29
2021-10-14 15:21:22.990012,-49
2021-10-14 15:21:22.990021,-41
2021-10-14 15:21:22.990029,-26
2021-10-14 15:21:22.990038,-24
2021-10-14 15:21:22.990046,-19
2021-10-14 15:21:22.990055,-24
2021-10-14 15:21:22.990063,-41
2021-10-14 15:21:22.990072,-7
2021-10-14 15:21:22.990080,166
2021-10-14 15:21:22.990089,517
2021-10-14 15:21:22.990097,883
2021-10-14 15:21:22.990105,792
2021-10-14 15:21:22.990114,44
2021-10-14 15:21:22.990122,-434
2021-10-14 15:21:22.990131,-95
2021-10-14 15:21:22.990139,115
2021-10-14 15:21:22.990147,-73
2021-10-14 15:21:23.214884,-71
2021-10-14 15:21:23.214904,14
2021-10-14 15:21:23.214914,-24
2021-10-14 15:21:23.214923,-26
2021-10-14 15:21:23.214931,22
2021-10-14 15:21:23.214940,24
2021-10-14 15:21:23.214948,17
2021-10-14 15:21:23.214956,41
2021-10-14 15:21:23.214965,68
2021-10-14 15:21:23.214973,78
2021-10-14 15:21:23.214982,90
2021-10-14 15:21:23.214990,107
2021-10-14 15:21:23.214999,117
2021-10-14 15:21:23.215020,134
2021-10-14 15:21:23.215029,171
2021-10-14 15:21:23.215104,203
2021-10-14 15:21:23.215116,228
2021-10-14 15:21:23.215139,252
2021-10-14 15:21:23.215150,279
2021-10-14 15:21:23.215157,301
2021-10-14 15:21:23.215165,309
2021-10-14 15:21:23.215173,301
2021-10-14 15:21:23.215181,294
2021-10-14 15:21:23.215189,282
2021-10-14 15:21:23.215197,240
2021-10-14 15:21:23.215206,166
2021-10-14 15:21:23.215214,83
2021-10-14 15:21:23.215222,2
2021-10-14 15:21:23.215231,-68
2021-10-14 15:21:23.215239,-127
2021-10-14 15:21:23.439504,-176
2021-10-14 15:21:23.439526,-211
2021-10-14 15:21:23.439535,-220
2021-10-14 15:21:23.439544,-225
2021-10-14 15:21:23.439553,-220
2021-10-14 15:21:23.439561,-213
2021-10-14 15:21:23.439570,-213
2021-10-14 15:21:23.439578,-206
2021-10-14 15:21:23.439587,-193
2021-10-14 15:21:23.439595,-181
2021-10-14 15:21:23.439603,-171
2021-10-14 15:21:23.439612,-174
2021-10-14 15:21:23.439620,-179
2021-10-14 15:21:23.439628,-164
2021-10-14 15:21:23.439637,-152
2021-10-14 15:21:23.439645,-154
2021-10-14 15:21:23.439653,-147
2021-10-14 15:21:23.439662,-139
2021-10-14 15:21:23.439670,-132
2021-10-14 15:21:23.439678,-122
2021-10-14 15:21:23.439687,-125
2021-10-14 15:21:23.439695,-134
2021-10-14 15:21:23.439703,-134
2021-10-14 15:21:23.439712,-130
2021-10-14 15:21:23.439720,-127
2021-10-14 15:21:23.439729,-117
2021-10-14 15:21:23.439737,-110
2021-10-14 15:21:23.439745,-107
2021-10-14 15:21:23.439754,-103
2021-10-14 15:21:23.439762,-93
2021-10-14 15:21:23.664536,-85
2021-10-14 15:21:23.664557,-85
2021-10-14 15:21:23.664567,-85
2021-10-14 15:21:23.664576,-80
2021-10-14 15:21:23.664584,-76
2021-10-14 15:21:23.664593,-78
2021-10-14 15:21:23.664601,-78
2021-10-14 15:21:23.664609,-78
2021-10-14 15:21:23.664618,-76
2021-10-14 15:21:23.664627,-68
2021-10-14 15:21:23.664635,-71
2021-10-14 15:21:23.664643,-85
2021-10-14 15:21:23.664652,-90
2021-10-14 15:21:23.664660,-68
2021-10-14 15:21:23.664668,-29
2021-10-14 15:21:23.664677,-2
2021-10-14 15:21:23.664685,-19
2021-10-14 15:21:23.664694,-36
2021-10-14 15:21:23.664702,-26
2021-10-14 15:21:23.664710,-26
2021-10-14 15:21:23.664719,-41
2021-10-14 15:21:23.664727,-41
2021-10-14 15:21:23.664735,-39
2021-10-14 15:21:23.664744,-41
2021-10-14 15:21:23.664752,-39
2021-10-14 15:21:23.664760,-39
2021-10-14 15:21:23.664769,-46
2021-10-14 15:21:23.664777,-41
2021-10-14 15:21:23.664786,22
2021-10-14 15:21:23.664794,242
2021-10-14 15:21:23.933200,610
2021-10-14 15:21:23.933224,846
2021-10-14 15:21:23.933235,471
2021-10-14 15:21:23.933244,-333
2021-10-14 15:21:23.933253,-480
2021-10-14 15:21:23.933262,-7
2021-10-14 15:21:23.933269,49
2021-10-14 15:21:23.933277,-134
2021-10-14 15:21:23.933284,-49
2021-10-14 15:21:23.933292,4
2021-10-14 15:21:23.933300,-58
2021-10-14 15:21:23.933308,-31
2021-10-14 15:21:23.933315,19
2021-10-14 15:21:23.933321,19
2021-10-14 15:21:23.933328,29
2021-10-14 15:21:23.933335,56
2021-10-14 15:21:23.933342,66
2021-10-14 15:21:23.933349,83
2021-10-14 15:21:23.933356,115
2021-10-14 15:21:23.933363,142
2021-10-14 15:21:23.933370,161
2021-10-14 15:21:23.933378,184
2021-10-14 15:21:23.933385,215
2021-10-14 15:21:23.933393,242
2021-10-14 15:21:23.933432,264
2021-10-14 15:21:23.933439,301
2021-10-14 15:21:23.933446,338
2021-10-14 15:21:23.933454,348
2021-10-14 15:21:23.933462,336
2021-10-14 15:21:23.933468,338
2021-10-14 15:21:24.114851,336
2021-10-14 15:21:24.114871,304
2021-10-14 15:21:24.114881,247
2021-10-14 15:21:24.114890,161
2021-10-14 15:21:24.114898,61
2021-10-14 15:21:24.114907,-17
2021-10-14 15:21:24.114915,-80
2021-10-14 15:21:24.114923,-139
2021-10-14 15:21:24.114932,-181
2021-10-14 15:21:24.114940,-208
2021-10-14 15:21:24.114949,-225
2021-10-14 15:21:24.114957,-220
2021-10-14 15:21:24.114966,-208
2021-10-14 15:21:24.114974,-198
2021-10-14 15:21:24.114983,-186
2021-10-14 15:21:24.114991,-179
2021-10-14 15:21:24.114999,-169
2021-10-14 15:21:24.115047,-152
2021-10-14 15:21:24.115056,-134
2021-10-14 15:21:24.115062,-130
2021-10-14 15:21:24.115068,-137
2021-10-14 15:21:24.115074,-137
2021-10-14 15:21:24.115080,-120
2021-10-14 15:21:24.115086,-110
2021-10-14 15:21:24.115092,-110
2021-10-14 15:21:24.115098,-103
2021-10-14 15:21:24.115104,-98
2021-10-14 15:21:24.115109,-100
2021-10-14 15:21:24.115116,-100
2021-10-14 15:21:24.115123,-88
2021-10-14 15:21:24.384895,-80
2021-10-14 15:21:24.384917,-83
2021-10-14 15:21:24.384926,-90
2021-10-14 15:21:24.384935,-100
2021-10-14 15:21:24.384944,-95
2021-10-14 15:21:24.384952,-83
2021-10-14 15:21:24.384961,-83
2021-10-14 15:21:24.384969,-83
2021-10-14 15:21:24.384978,-76
2021-10-14 15:21:24.384986,-76
2021-10-14 15:21:24.384995,-83
2021-10-14 15:21:24.385003,-93
2021-10-14 15:21:24.385011,-90
2021-10-14 15:21:24.385020,-78
2021-10-14 15:21:24.385028,-76
2021-10-14 15:21:24.385037,-76
2021-10-14 15:21:24.385045,-63
2021-10-14 15:21:24.385054,-58
2021-10-14 15:21:24.385062,-66
2021-10-14 15:21:24.385071,-66
2021-10-14 15:21:24.385079,-63
2021-10-14 15:21:24.385087,-61
2021-10-14 15:21:24.385096,-34
2021-10-14 15:21:24.385104,-7
2021-10-14 15:21:24.385112,7
2021-10-14 15:21:24.385121,7
2021-10-14 15:21:24.385129,0
2021-10-14 15:21:24.385138,-19
2021-10-14 15:21:24.385146,-34
2021-10-14 15:21:24.385154,-29
2021-10-14 15:21:24.653921,-24
2021-10-14 15:21:24.653941,-24
2021-10-14 15:21:24.653950,-24
2021-10-14 15:21:24.653959,-29
2021-10-14 15:21:24.653967,-29
2021-10-14 15:21:24.653976,-17
2021-10-14 15:21:24.653984,44
2021-10-14 15:21:24.653993,260
2021-10-14 15:21:24.654001,650
2021-10-14 15:21:24.654009,912
2021-10-14 15:21:24.654018,507
2021-10-14 15:21:24.654026,-282
2021-10-14 15:21:24.654034,-350
2021-10-14 15:21:24.654043,80
2021-10-14 15:21:24.654053,51
2021-10-14 15:21:24.654062,-107
2021-10-14 15:21:24.654070,-9
2021-10-14 15:21:24.654078,26
2021-10-14 15:21:24.654087,-24
2021-10-14 15:21:24.654096,7
2021-10-14 15:21:24.654104,46
2021-10-14 15:21:24.654112,41
2021-10-14 15:21:24.654121,53
2021-10-14 15:21:24.654129,83
2021-10-14 15:21:24.654137,95
2021-10-14 15:21:24.654145,110
2021-10-14 15:21:24.654170,132
2021-10-14 15:21:24.654179,152
2021-10-14 15:21:24.654187,179
2021-10-14 15:21:24.654196,211
2021-10-14 15:21:24.834453,235
2021-10-14 15:21:24.834472,262
2021-10-14 15:21:24.834481,289
2021-10-14 15:21:24.834490,311
2021-10-14 15:21:24.834499,333
2021-10-14 15:21:24.834508,350
2021-10-14 15:21:24.834516,348
2021-10-14 15:21:24.834525,326
2021-10-14 15:21:24.834533,306
2021-10-14 15:21:24.834542,289
2021-10-14 15:21:24.834551,242
2021-10-14 15:21:24.834559,157
2021-10-14 15:21:24.834567,68
2021-10-14 15:21:24.834576,-12
2021-10-14 15:21:24.834584,-80
2021-10-14 15:21:24.834593,-137
2021-10-14 15:21:24.834602,-181
2021-10-14 15:21:24.834610,-203
2021-10-14 15:21:24.834619,-206
2021-10-14 15:21:24.834627,-206
2021-10-14 15:21:24.834636,-203
2021-10-14 15:21:24.834644,-191
2021-10-14 15:21:24.834653,-176
2021-10-14 15:21:24.834661,-169
2021-10-14 15:21:24.834669,-164
2021-10-14 15:21:24.834678,-154
2021-10-14 15:21:24.834687,-147
2021-10-14 15:21:24.834695,-144
2021-10-14 15:21:24.834703,-132
2021-10-14 15:21:24.834712,-122
2021-10-14 15:21:25.059896,-122
2021-10-14 15:21:25.059916,-112
2021-10-14 15:21:25.059926,-100
2021-10-14 15:21:25.059935,-100
2021-10-14 15:21:25.059943,-98
2021-10-14 15:21:25.059952,-93
2021-10-14 15:21:25.059960,-93
2021-10-14 15:21:25.059969,-98
2021-10-14 15:21:25.059977,-90
2021-10-14 15:21:25.059986,-88
2021-10-14 15:21:25.059994,-90
2021-10-14 15:21:25.060002,-85
2021-10-14 15:21:25.060011,-88
2021-10-14 15:21:25.060019,-93
2021-10-14 15:21:25.060027,-85
2021-10-14 15:21:25.060036,-80
2021-10-14 15:21:25.060044,-78
2021-10-14 15:21:25.060053,-71
2021-10-14 15:21:25.060061,-66
2021-10-14 15:21:25.060070,-63
2021-10-14 15:21:25.060078,-58
2021-10-14 15:21:25.060086,-58
2021-10-14 15:21:25.060095,-51
2021-10-14 15:21:25.060103,-39
2021-10-14 15:21:25.060112,-41
2021-10-14 15:21:25.060120,-44
2021-10-14 15:21:25.060128,-41
2021-10-14 15:21:25.060136,-46
2021-10-14 15:21:25.060145,-56
2021-10-14 15:21:25.060153,-63
2021-10-14 15:21:25.284473,-58
2021-10-14 15:21:25.284492,-31
2021-10-14 15:21:25.284502,0
2021-10-14 15:21:25.284511,7
2021-10-14 15:21:25.284519,4
2021-10-14 15:21:25.284528,-4
2021-10-14 15:21:25.284537,-36
2021-10-14 15:21:25.284545,-66
2021-10-14 15:21:25.284554,-71
2021-10-14 15:21:25.284562,-58
2021-10-14 15:21:25.284571,-51
2021-10-14 15:21:25.284579,-61
2021-10-14 15:21:25.284588,-71
2021-10-14 15:21:25.284596,-68
2021-10-14 15:21:25.284605,-63
2021-10-14 15:21:25.284613,-19
2021-10-14 15:21:25.284622,176
2021-10-14 15:21:25.284630,552
2021-10-14 15:21:25.284639,873
2021-10-14 15:21:25.284647,650
2021-10-14 15:21:25.284656,-147
2021-10-14 15:21:25.284665,-488
2021-10-14 15:21:25.284673,-68
2021-10-14 15:21:25.284682,88
2021-10-14 15:21:25.284690,-95
2021-10-14 15:21:25.284699,-49
2021-10-14 15:21:25.284708,24
2021-10-14 15:21:25.284716,-29
2021-10-14 15:21:25.284725,-19
2021-10-14 15:21:25.284733,31
2021-10-14 15:21:25.554309,29
2021-10-14 15:21:25.554331,31
2021-10-14 15:21:25.554341,66
2021-10-14 15:21:25.554351,80
2021-10-14 15:21:25.554361,88
2021-10-14 15:21:25.554370,110
2021-10-14 15:21:25.554379,134
2021-10-14 15:21:25.554389,157
2021-10-14 15:21:25.554398,184
2021-10-14 15:21:25.554407,215
2021-10-14 15:21:25.554416,238
2021-10-14 15:21:25.554426,257
2021-10-14 15:21:25.554435,284
2021-10-14 15:21:25.554444,309
2021-10-14 15:21:25.554453,321
2021-10-14 15:21:25.554462,333
2021-10-14 15:21:25.554471,336
2021-10-14 15:21:25.554480,314
2021-10-14 15:21:25.554489,287
2021-10-14 15:21:25.554498,252
2021-10-14 15:21:25.554507,179
2021-10-14 15:21:25.554516,83
2021-10-14 15:21:25.554526,2
2021-10-14 15:21:25.554535,-56
2021-10-14 15:21:25.554545,-115
2021-10-14 15:21:25.554554,-169
2021-10-14 15:21:25.554563,-196
2021-10-14 15:21:25.554572,-201
2021-10-14 15:21:25.554581,-198
2021-10-14 15:21:25.554590,-201
2021-10-14 15:21:25.779918,-196
2021-10-14 15:21:25.779940,-184
2021-10-14 15:21:25.779949,-179
2021-10-14 15:21:25.779958,-179
2021-10-14 15:21:25.779966,-179
2021-10-14 15:21:25.779975,-166
2021-10-14 15:21:25.779983,-152
2021-10-14 15:21:25.779992,-142
2021-10-14 15:21:25.780000,-134
2021-10-14 15:21:25.780009,-132
2021-10-14 15:21:25.780017,-137
2021-10-14 15:21:25.780025,-134
2021-10-14 15:21:25.780033,-127
2021-10-14 15:21:25.780042,-125
2021-10-14 15:21:25.780050,-125
2021-10-14 15:21:25.780059,-127
2021-10-14 15:21:25.780067,-122
2021-10-14 15:21:25.780075,-112
2021-10-14 15:21:25.780083,-112
2021-10-14 15:21:25.780092,-110
2021-10-14 15:21:25.780100,-100
2021-10-14 15:21:25.780108,-98
2021-10-14 15:21:25.780117,-105
2021-10-14 15:21:25.780125,-95
2021-10-14 15:21:25.780133,-85
2021-10-14 15:21:25.780141,-90
2021-10-14 15:21:25.780150,-90
2021-10-14 15:21:25.780158,-90
2021-10-14 15:21:25.780166,-103
2021-10-14 15:21:25.780175,-100
2021-10-14 15:21:26.093578,-90
2021-10-14 15:21:26.093599,-88
2021-10-14 15:21:26.093609,-90
2021-10-14 15:21:26.093618,-88
2021-10-14 15:21:26.093627,-93
2021-10-14 15:21:26.093635,-98
2021-10-14 15:21:26.093643,-83
2021-10-14 15:21:26.093652,-41
2021-10-14 15:21:26.093661,-17
2021-10-14 15:21:26.093669,-31
2021-10-14 15:21:26.093677,-44
2021-10-14 15:21:26.093686,-51
2021-10-14 15:21:26.093694,-80
2021-10-14 15:21:26.093703,-90
2021-10-14 15:21:26.093711,-68
2021-10-14 15:21:26.093720,-68
2021-10-14 15:21:26.093728,-90
2021-10-14 15:21:26.093736,-78
2021-10-14 15:21:26.093745,-46
2021-10-14 15:21:26.093753,-34
2021-10-14 15:21:26.093762,-14
2021-10-14 15:21:26.093770,85
2021-10-14 15:21:26.093778,348
2021-10-14 15:21:26.093787,709
2021-10-14 15:21:26.093795,814
2021-10-14 15:21:26.093803,267
2021-10-14 15:21:26.093812,-434
2021-10-14 15:21:26.093820,-318
2021-10-14 15:21:26.093828,134
2021-10-14 15:21:26.093837,88
2021-10-14 15:21:26.274894,-12
2021-10-14 15:21:26.274915,95
2021-10-14 15:21:26.274924,93
2021-10-14 15:21:26.274933,36
2021-10-14 15:21:26.274941,78
2021-10-14 15:21:26.274950,112
2021-10-14 15:21:26.274958,95
2021-10-14 15:21:26.274966,103
2021-10-14 15:21:26.274975,120
2021-10-14 15:21:26.274983,107
2021-10-14 15:21:26.274992,100
2021-10-14 15:21:26.275000,134
2021-10-14 15:21:26.275008,169
2021-10-14 15:21:26.275017,184
2021-10-14 15:21:26.275025,203
2021-10-14 15:21:26.275034,228
2021-10-14 15:21:26.275042,255
2021-10-14 15:21:26.275050,316
2021-10-14 15:21:26.275059,392
2021-10-14 15:21:26.275067,419
2021-10-14 15:21:26.275075,385
2021-10-14 15:21:26.275084,355
2021-10-14 15:21:26.275092,350
2021-10-14 15:21:26.275100,328
2021-10-14 15:21:26.275108,279
2021-10-14 15:21:26.275117,215
2021-10-14 15:21:26.275125,125
2021-10-14 15:21:26.275133,19
2021-10-14 15:21:26.275142,-63
2021-10-14 15:21:26.275150,-122
2021-10-14 15:21:26.499521,-164
2021-10-14 15:21:26.499541,-186
2021-10-14 15:21:26.499551,-203
2021-10-14 15:21:26.499560,-218
2021-10-14 15:21:26.499568,-230
2021-10-14 15:21:26.499577,-228
2021-10-14 15:21:26.499585,-211
2021-10-14 15:21:26.499594,-193
2021-10-14 15:21:26.499602,-184
2021-10-14 15:21:26.499611,-179
2021-10-14 15:21:26.499619,-164
2021-10-14 15:21:26.499628,-152
2021-10-14 15:21:26.499636,-142
2021-10-14 15:21:26.499644,-137
2021-10-14 15:21:26.499653,-139
2021-10-14 15:21:26.499661,-137
2021-10-14 15:21:26.499670,-127
2021-10-14 15:21:26.499678,-115
2021-10-14 15:21:26.499687,-107
2021-10-14 15:21:26.499695,-100
2021-10-14 15:21:26.499703,-93
2021-10-14 15:21:26.499712,-63
2021-10-14 15:21:26.499720,-22
2021-10-14 15:21:26.499729,-36
2021-10-14 15:21:26.499737,-78
2021-10-14 15:21:26.499745,-73
2021-10-14 15:21:26.499754,-49
2021-10-14 15:21:26.499762,-41
2021-10-14 15:21:26.499770,-36
2021-10-14 15:21:26.499778,-41
2021-10-14 15:21:26.769323,-39
2021-10-14 15:21:26.769345,-26
2021-10-14 15:21:26.769354,-24
2021-10-14 15:21:26.769363,-26
2021-10-14 15:21:26.769372,-19
2021-10-14 15:21:26.769380,-31
2021-10-14 15:21:26.769389,-71
2021-10-14 15:21:26.769397,-98
2021-10-14 15:21:26.769405,-93
2021-10-14 15:21:26.769413,-58
2021-10-14 15:21:26.769422,-34
2021-10-14 15:21:26.769430,-31
2021-10-14 15:21:26.769439,-31
2021-10-14 15:21:26.769447,-39
2021-10-14 15:21:26.769456,-68
2021-10-14 15:21:26.769464,-85
2021-10-14 15:21:26.769472,-80
2021-10-14 15:21:26.769480,-76
2021-10-14 15:21:26.769489,-83
2021-10-14 15:21:26.769497,-93
2021-10-14 15:21:26.769505,-93
2021-10-14 15:21:26.769514,-88
2021-10-14 15:21:26.769522,-78
2021-10-14 15:21:26.769530,-7
2021-10-14 15:21:26.769539,228
2021-10-14 15:21:26.769547,630
2021-10-14 15:21:26.769556,878
2021-10-14 15:21:26.769564,466
2021-10-14 15:21:26.769572,-299
2021-10-14 15:21:26.769581,-350
2021-10-14 15:21:26.904536,73
2021-10-14 15:21:26.904557,49
2021-10-14 15:21:26.904566,-103
2021-10-14 15:21:26.904575,-4
2021-10-14 15:21:26.904583,34
2021-10-14 15:21:26.904592,-17
2021-10-14 15:21:26.904601,0
2021-10-14 15:21:26.904609,34
2021-10-14 15:21:26.904618,39
2021-10-14 15:21:26.904626,41
2021-10-14 15:21:26.904635,49
2021-10-14 15:21:26.904643,73
2021-10-14 15:21:26.904651,112
2021-10-14 15:21:26.904660,142
2021-10-14 15:21:26.904668,159
2021-10-14 15:21:26.904677,179
2021-10-14 15:21:26.904685,223
2021-10-14 15:21:26.904693,264
2021-10-14 15:21:26.904702,274
2021-10-14 15:21:26.904710,279
2021-10-14 15:21:26.904719,304
2021-10-14 15:21:26.904728,331
2021-10-14 15:21:26.904736,355
2021-10-14 15:21:26.904744,375
2021-10-14 15:21:26.904753,358
2021-10-14 15:21:26.904761,314
2021-10-14 15:21:26.904769,279
2021-10-14 15:21:26.904778,225
2021-10-14 15:21:26.904786,137
2021-10-14 15:21:26.904795,39
2021-10-14 15:21:27.219583,-44
2021-10-14 15:21:27.219605,-98
2021-10-14 15:21:27.219614,-117
2021-10-14 15:21:27.219623,-125
2021-10-14 15:21:27.219632,-137
2021-10-14 15:21:27.219640,-166
2021-10-14 15:21:27.219649,-191
2021-10-14 15:21:27.219657,-188
2021-10-14 15:21:27.219666,-184
2021-10-14 15:21:27.219674,-186
2021-10-14 15:21:27.219683,-174
2021-10-14 15:21:27.219691,-166
2021-10-14 15:21:27.219699,-166
2021-10-14 15:21:27.219708,-164
2021-10-14 15:21:27.219716,-157
2021-10-14 15:21:27.219742,-152
2021-10-14 15:21:27.219751,-139
2021-10-14 15:21:27.219759,-130
2021-10-14 15:21:27.219768,-127
2021-10-14 15:21:27.219776,-115
2021-10-14 15:21:27.219784,-105
2021-10-14 15:21:27.219793,-105
2021-10-14 15:21:27.219801,-100
2021-10-14 15:21:27.219810,-90
2021-10-14 15:21:27.219818,-98
2021-10-14 15:21:27.219826,-107
2021-10-14 15:21:27.219835,-100
2021-10-14 15:21:27.219844,-88
2021-10-14 15:21:27.219852,-83
2021-10-14 15:21:27.219860,-83
2021-10-14 15:21:27.354932,-83
2021-10-14 15:21:27.354954,-78
2021-10-14 15:21:27.354964,-71
2021-10-14 15:21:27.354974,-68
2021-10-14 15:21:27.354984,-63
2021-10-14 15:21:27.354993,-68
2021-10-14 15:21:27.355002,-76
2021-10-14 15:21:27.355011,-61
2021-10-14 15:21:27.355021,-46
2021-10-14 15:21:27.355029,-68
2021-10-14 15:21:27.355038,-95
2021-10-14 15:21:27.355048,-95
2021-10-14 15:21:27.355057,-61
2021-10-14 15:21:27.355066,-14
2021-10-14 15:21:27.355075,2
2021-10-14 15:21:27.355084,-14
2021-10-14 15:21:27.355093,-39
2021-10-14 15:21:27.355102,-56
2021-10-14 15:21:27.355112,-68
2021-10-14 15:21:27.355121,-76
2021-10-14 15:21:27.355130,-76
2021-10-14 15:21:27.355139,-80
2021-10-14 15:21:27.355148,-93
2021-10-14 15:21:27.355157,-93
2021-10-14 15:21:27.355166,-85
2021-10-14 15:21:27.355176,-78
2021-10-14 15:21:27.355184,-71
2021-10-14 15:21:27.355194,44
2021-10-14 15:21:27.355203,363
2021-10-14 15:21:27.355212,748
2021-10-14 15:21:27.579950,799
2021-10-14 15:21:27.579970,159
2021-10-14 15:21:27.579980,-510
2021-10-14 15:21:27.579989,-294
2021-10-14 15:21:27.579997,83
2021-10-14 15:21:27.580006,-61
2021-10-14 15:21:27.580014,-134
2021-10-14 15:21:27.580023,-22
2021-10-14 15:21:27.580031,-34
2021-10-14 15:21:27.580039,-58
2021-10-14 15:21:27.580048,-19
2021-10-14 15:21:27.580056,-4
2021-10-14 15:21:27.580065,2
2021-10-14 15:21:27.580073,31
2021-10-14 15:21:27.580082,56
2021-10-14 15:21:27.580090,76
2021-10-14 15:21:27.580099,100
2021-10-14 15:21:27.580107,130
2021-10-14 15:21:27.580115,152
2021-10-14 15:21:27.580124,164
2021-10-14 15:21:27.580132,186
2021-10-14 15:21:27.580140,225
2021-10-14 15:21:27.580149,262
2021-10-14 15:21:27.580157,294
2021-10-14 15:21:27.580165,323
2021-10-14 15:21:27.580174,341
2021-10-14 15:21:27.580182,348
2021-10-14 15:21:27.580191,348
2021-10-14 15:21:27.580199,341
2021-10-14 15:21:27.580207,323
2021-10-14 15:21:27.804563,287
2021-10-14 15:21:27.804584,211
2021-10-14 15:21:27.804593,107
2021-10-14 15:21:27.804602,-2
2021-10-14 15:21:27.804611,-88
2021-10-14 15:21:27.804619,-149
2021-10-14 15:21:27.804628,-201
2021-10-14 15:21:27.804636,-228
2021-10-14 15:21:27.804645,-230
2021-10-14 15:21:27.804653,-240
2021-10-14 15:21:27.804662,-245
2021-10-14 15:21:27.804670,-230
2021-10-14 15:21:27.804679,-218
2021-10-14 15:21:27.804687,-208
2021-10-14 15:21:27.804696,-193
2021-10-14 15:21:27.804704,-188
2021-10-14 15:21:27.804713,-184
2021-10-14 15:21:27.804721,-161
2021-10-14 15:21:27.804730,-144
2021-10-14 15:21:27.804738,-139
2021-10-14 15:21:27.804747,-142
2021-10-14 15:21:27.804755,-144
2021-10-14 15:21:27.804764,-142
2021-10-14 15:21:27.804772,-139
2021-10-14 15:21:27.804781,-144
2021-10-14 15:21:27.804789,-147
2021-10-14 15:21:27.804797,-139
2021-10-14 15:21:27.804806,-134
2021-10-14 15:21:27.804814,-134
2021-10-14 15:21:27.804823,-127
2021-10-14 15:21:28.118423,-112
2021-10-14 15:21:28.118443,-112
2021-10-14 15:21:28.118453,-115
2021-10-14 15:21:28.118461,-120
2021-10-14 15:21:28.118469,-130
2021-10-14 15:21:28.118476,-122
2021-10-14 15:21:28.118484,-107
2021-10-14 15:21:28.118491,-105
2021-10-14 15:21:28.118499,-115
2021-10-14 15:21:28.118507,-132
2021-10-14 15:21:28.118515,-125
2021-10-14 15:21:28.118523,-93
2021-10-14 15:21:28.118531,-56
2021-10-14 15:21:28.118540,-34
2021-10-14 15:21:28.118548,-36
2021-10-14 15:21:28.118556,-49
2021-10-14 15:21:28.118564,-56
2021-10-14 15:21:28.118571,-63
2021-10-14 15:21:28.118579,-63
2021-10-14 15:21:28.118587,-61
2021-10-14 15:21:28.118594,-61
2021-10-14 15:21:28.118602,-61
2021-10-14 15:21:28.118611,-66
2021-10-14 15:21:28.118618,-78
2021-10-14 15:21:28.118627,-80
2021-10-14 15:21:28.118635,-58
2021-10-14 15:21:28.118643,7
2021-10-14 15:21:28.118651,203
2021-10-14 15:21:28.118659,549
2021-10-14 15:21:28.118667,758
2021-10-14 15:21:28.344336,363
2021-10-14 15:21:28.344357,-387
2021-10-14 15:21:28.344365,-480
2021-10-14 15:21:28.344373,-7
2021-10-14 15:21:28.344381,63
2021-10-14 15:21:28.344389,-93
2021-10-14 15:21:28.344397,-26
2021-10-14 15:21:28.344404,14
2021-10-14 15:21:28.344412,-31
2021-10-14 15:21:28.344419,-12
2021-10-14 15:21:28.344427,12
2021-10-14 15:21:28.344435,12
2021-10-14 15:21:28.344443,51
2021-10-14 15:21:28.344450,88
2021-10-14 15:21:28.344458,83
2021-10-14 15:21:28.344466,90
2021-10-14 15:21:28.344474,125
2021-10-14 15:21:28.344481,164
2021-10-14 15:21:28.344488,193
2021-10-14 15:21:28.344495,208
2021-10-14 15:21:28.344503,225
2021-10-14 15:21:28.344510,269
2021-10-14 15:21:28.344521,323
2021-10-14 15:21:28.344532,348
2021-10-14 15:21:28.344544,370
2021-10-14 15:21:28.344554,382
2021-10-14 15:21:28.344566,363
2021-10-14 15:21:28.344576,341
2021-10-14 15:21:28.344585,326
2021-10-14 15:21:28.344592,289
2021-10-14 15:21:28.569593,206
2021-10-14 15:21:28.569614,85
2021-10-14 15:21:28.569624,-22
2021-10-14 15:21:28.569632,-100
2021-10-14 15:21:28.569641,-164
2021-10-14 15:21:28.569649,-206
2021-10-14 15:21:28.569658,-220
2021-10-14 15:21:28.569666,-235
2021-10-14 15:21:28.569675,-257
2021-10-14 15:21:28.569683,-262
2021-10-14 15:21:28.569692,-250
2021-10-14 15:21:28.569700,-233
2021-10-14 15:21:28.569709,-218
2021-10-14 15:21:28.569717,-215
2021-10-14 15:21:28.569725,-213
2021-10-14 15:21:28.569733,-196
2021-10-14 15:21:28.569742,-176
2021-10-14 15:21:28.569750,-164
2021-10-14 15:21:28.569758,-149
2021-10-14 15:21:28.569767,-127
2021-10-14 15:21:28.569775,-122
2021-10-14 15:21:28.569783,-127
2021-10-14 15:21:28.569792,-120
2021-10-14 15:21:28.569800,-110
2021-10-14 15:21:28.569809,-107
2021-10-14 15:21:28.569817,-107
2021-10-14 15:21:28.569825,-112
2021-10-14 15:21:28.569834,-107
2021-10-14 15:21:28.569842,-95
2021-10-14 15:21:28.569850,-93
2021-10-14 15:21:28.749611,-100
2021-10-14 15:21:28.749633,-105
2021-10-14 15:21:28.749642,-107
2021-10-14 15:21:28.749651,-103
2021-10-14 15:21:28.749659,-98
2021-10-14 15:21:28.749668,-98
