Time,ECG
2021-09-27 11:20:30.187774,-85
2021-09-27 11:20:30.187806,-114
2021-09-27 11:20:30.187818,-36
2021-09-27 11:20:30.187828,-26
2021-09-27 11:20:30.187838,-44
2021-09-27 11:20:30.187848,-9
2021-09-27 11:20:30.187857,22
2021-09-27 11:20:30.187867,34
2021-09-27 11:20:30.187877,53
2021-09-27 11:20:30.187886,66
2021-09-27 11:20:30.187896,75
2021-09-27 11:20:30.187906,107
2021-09-27 11:20:30.187915,149
2021-09-27 11:20:30.187925,183
2021-09-27 11:20:30.187935,220
2021-09-27 11:20:30.187944,259
2021-09-27 11:20:30.187954,300
2021-09-27 11:20:30.187964,364
2021-09-27 11:20:30.187973,430
2021-09-27 11:20:30.187983,481
2021-09-27 11:20:30.187993,528
2021-09-27 11:20:30.188002,577
2021-09-27 11:20:30.188012,613
2021-09-27 11:20:30.188021,643
2021-09-27 11:20:30.188031,643
2021-09-27 11:20:30.188041,586
2021-09-27 11:20:30.188051,476
2021-09-27 11:20:30.188060,317
2021-09-27 11:20:30.188070,124
2021-09-27 11:20:30.188080,-46
2021-09-27 11:20:30.412706,-176
2021-09-27 11:20:30.412729,-273
2021-09-27 11:20:30.412737,-342
2021-09-27 11:20:30.412743,-379
2021-09-27 11:20:30.412750,-391
2021-09-27 11:20:30.412756,-396
2021-09-27 11:20:30.412762,-398
2021-09-27 11:20:30.412768,-398
2021-09-27 11:20:30.412775,-391
2021-09-27 11:20:30.412781,-383
2021-09-27 11:20:30.412787,-369
2021-09-27 11:20:30.412793,-344
2021-09-27 11:20:30.412800,-317
2021-09-27 11:20:30.412806,-303
2021-09-27 11:20:30.412812,-295
2021-09-27 11:20:30.412818,-283
2021-09-27 11:20:30.412824,-266
2021-09-27 11:20:30.412831,-246
2021-09-27 11:20:30.412837,-234
2021-09-27 11:20:30.412843,-224
2021-09-27 11:20:30.412849,-217
2021-09-27 11:20:30.412856,-215
2021-09-27 11:20:30.412862,-207
2021-09-27 11:20:30.412868,-198
2021-09-27 11:20:30.412874,-188
2021-09-27 11:20:30.412880,-178
2021-09-27 11:20:30.412887,-178
2021-09-27 11:20:30.412893,-183
2021-09-27 11:20:30.412899,-171
2021-09-27 11:20:30.412905,-156
2021-09-27 11:20:30.637615,-149
2021-09-27 11:20:30.637647,-144
2021-09-27 11:20:30.637659,-141
2021-09-27 11:20:30.637669,-139
2021-09-27 11:20:30.637678,-141
2021-09-27 11:20:30.637688,-144
2021-09-27 11:20:30.637698,-139
2021-09-27 11:20:30.637707,-127
2021-09-27 11:20:30.637717,-129
2021-09-27 11:20:30.637726,-134
2021-09-27 11:20:30.637736,-124
2021-09-27 11:20:30.637746,-114
2021-09-27 11:20:30.637755,-110
2021-09-27 11:20:30.637765,-112
2021-09-27 11:20:30.637774,-114
2021-09-27 11:20:30.637784,-114
2021-09-27 11:20:30.637793,-114
2021-09-27 11:20:30.637803,-105
2021-09-27 11:20:30.637813,-88
2021-09-27 11:20:30.637822,-70
2021-09-27 11:20:30.637832,-58
2021-09-27 11:20:30.637841,-56
2021-09-27 11:20:30.637851,-58
2021-09-27 11:20:30.637861,-51
2021-09-27 11:20:30.637870,-53
2021-09-27 11:20:30.637880,-75
2021-09-27 11:20:30.637890,-90
2021-09-27 11:20:30.637899,-85
2021-09-27 11:20:30.637909,-73
2021-09-27 11:20:30.637919,-70
2021-09-27 11:20:30.862731,-70
2021-09-27 11:20:30.862754,-70
2021-09-27 11:20:30.862761,-78
2021-09-27 11:20:30.862768,-124
2021-09-27 11:20:30.862774,-220
2021-09-27 11:20:30.862780,-124
2021-09-27 11:20:30.862787,545
2021-09-27 11:20:30.862793,1645
2021-09-27 11:20:30.862799,2465
2021-09-27 11:20:30.862806,1978
2021-09-27 11:20:30.862812,41
2021-09-27 11:20:30.862818,-1154
2021-09-27 11:20:30.862824,-535
2021-09-27 11:20:30.862831,-75
2021-09-27 11:20:30.862837,-337
2021-09-27 11:20:30.862843,-264
2021-09-27 11:20:30.862849,-53
2021-09-27 11:20:30.862856,-100
2021-09-27 11:20:30.862862,-114
2021-09-27 11:20:30.862868,-48
2021-09-27 11:20:30.862874,-53
2021-09-27 11:20:30.862881,-56
2021-09-27 11:20:30.862887,-14
2021-09-27 11:20:30.862893,4
2021-09-27 11:20:30.862899,12
2021-09-27 11:20:30.862906,41
2021-09-27 11:20:30.862912,70
2021-09-27 11:20:30.862918,90
2021-09-27 11:20:30.862924,117
2021-09-27 11:20:30.862931,154
2021-09-27 11:20:31.087662,190
2021-09-27 11:20:31.087704,224
2021-09-27 11:20:31.087716,264
2021-09-27 11:20:31.087726,313
2021-09-27 11:20:31.087736,361
2021-09-27 11:20:31.087745,423
2021-09-27 11:20:31.087755,479
2021-09-27 11:20:31.087765,520
2021-09-27 11:20:31.087774,560
2021-09-27 11:20:31.087784,596
2021-09-27 11:20:31.087793,628
2021-09-27 11:20:31.087803,630
2021-09-27 11:20:31.087812,586
2021-09-27 11:20:31.087822,489
2021-09-27 11:20:31.087832,342
2021-09-27 11:20:31.087842,154
2021-09-27 11:20:31.087852,-24
2021-09-27 11:20:31.087862,-161
2021-09-27 11:20:31.087871,-261
2021-09-27 11:20:31.087881,-335
2021-09-27 11:20:31.087891,-381
2021-09-27 11:20:31.087900,-398
2021-09-27 11:20:31.087910,-393
2021-09-27 11:20:31.087920,-383
2021-09-27 11:20:31.087929,-379
2021-09-27 11:20:31.087939,-371
2021-09-27 11:20:31.087949,-359
2021-09-27 11:20:31.087959,-337
2021-09-27 11:20:31.087968,-315
2021-09-27 11:20:31.087978,-295
2021-09-27 11:20:31.312770,-283
2021-09-27 11:20:31.312803,-273
2021-09-27 11:20:31.312815,-261
2021-09-27 11:20:31.312825,-246
2021-09-27 11:20:31.312835,-224
2021-09-27 11:20:31.312845,-212
2021-09-27 11:20:31.312871,-217
2021-09-27 11:20:31.312881,-212
2021-09-27 11:20:31.312891,-195
2021-09-27 11:20:31.312901,-185
2021-09-27 11:20:31.312911,-185
2021-09-27 11:20:31.312920,-193
2021-09-27 11:20:31.312943,-195
2021-09-27 11:20:31.312949,-188
2021-09-27 11:20:31.312956,-178
2021-09-27 11:20:31.312962,-173
2021-09-27 11:20:31.312968,-163
2021-09-27 11:20:31.312974,-168
2021-09-27 11:20:31.312981,-173
2021-09-27 11:20:31.312987,-158
2021-09-27 11:20:31.313050,-149
2021-09-27 11:20:31.313066,-151
2021-09-27 11:20:31.313073,-139
2021-09-27 11:20:31.313079,-129
2021-09-27 11:20:31.313085,-134
2021-09-27 11:20:31.313092,-134
2021-09-27 11:20:31.313098,-127
2021-09-27 11:20:31.313104,-114
2021-09-27 11:20:31.313110,-112
2021-09-27 11:20:31.313116,-114
2021-09-27 11:20:31.537631,-107
2021-09-27 11:20:31.537663,-95
2021-09-27 11:20:31.537675,-90
2021-09-27 11:20:31.537685,-90
2021-09-27 11:20:31.537695,-85
2021-09-27 11:20:31.537705,-85
2021-09-27 11:20:31.537714,-100
2021-09-27 11:20:31.537724,-100
2021-09-27 11:20:31.537734,-73
2021-09-27 11:20:31.537743,-48
2021-09-27 11:20:31.537753,-48
2021-09-27 11:20:31.537763,-58
2021-09-27 11:20:31.537772,-53
2021-09-27 11:20:31.537782,-51
2021-09-27 11:20:31.537791,-63
2021-09-27 11:20:31.537801,-80
2021-09-27 11:20:31.537810,-97
2021-09-27 11:20:31.537820,-102
2021-09-27 11:20:31.537830,-90
2021-09-27 11:20:31.537839,-78
2021-09-27 11:20:31.537849,-78
2021-09-27 11:20:31.537859,-80
2021-09-27 11:20:31.537868,-75
2021-09-27 11:20:31.537878,-88
2021-09-27 11:20:31.537887,-166
2021-09-27 11:20:31.537897,-224
2021-09-27 11:20:31.537907,97
2021-09-27 11:20:31.537916,1014
2021-09-27 11:20:31.537926,2117
2021-09-27 11:20:31.537936,2509
2021-09-27 11:20:31.762707,1220
2021-09-27 11:20:31.762730,-733
2021-09-27 11:20:31.762737,-978
2021-09-27 11:20:31.762744,-163
2021-09-27 11:20:31.762750,-151
2021-09-27 11:20:31.762756,-339
2021-09-27 11:20:31.762762,-119
2021-09-27 11:20:31.762769,-36
2021-09-27 11:20:31.762775,-119
2021-09-27 11:20:31.762781,-78
2021-09-27 11:20:31.762787,-31
2021-09-27 11:20:31.762793,-44
2021-09-27 11:20:31.762800,-26
2021-09-27 11:20:31.762806,4
2021-09-27 11:20:31.762812,22
2021-09-27 11:20:31.762818,39
2021-09-27 11:20:31.762824,56
2021-09-27 11:20:31.762831,78
2021-09-27 11:20:31.762837,110
2021-09-27 11:20:31.762843,146
2021-09-27 11:20:31.762849,178
2021-09-27 11:20:31.762856,205
2021-09-27 11:20:31.762862,239
2021-09-27 11:20:31.762868,278
2021-09-27 11:20:31.762874,322
2021-09-27 11:20:31.762881,383
2021-09-27 11:20:31.762887,442
2021-09-27 11:20:31.762893,491
2021-09-27 11:20:31.762899,540
2021-09-27 11:20:31.762905,591
2021-09-27 11:20:32.030989,633
2021-09-27 11:20:32.031014,650
2021-09-27 11:20:32.031022,635
2021-09-27 11:20:32.031028,574
2021-09-27 11:20:32.031035,454
2021-09-27 11:20:32.031041,278
2021-09-27 11:20:32.031047,90
2021-09-27 11:20:32.031054,-68
2021-09-27 11:20:32.031060,-193
2021-09-27 11:20:32.031066,-293
2021-09-27 11:20:32.031073,-364
2021-09-27 11:20:32.031079,-393
2021-09-27 11:20:32.031085,-393
2021-09-27 11:20:32.031091,-391
2021-09-27 11:20:32.031098,-393
2021-09-27 11:20:32.031104,-393
2021-09-27 11:20:32.031110,-383
2021-09-27 11:20:32.031116,-366
2021-09-27 11:20:32.031123,-349
2021-09-27 11:20:32.031129,-325
2021-09-27 11:20:32.031135,-300
2021-09-27 11:20:32.031141,-293
2021-09-27 11:20:32.031148,-281
2021-09-27 11:20:32.031154,-254
2021-09-27 11:20:32.031160,-244
2021-09-27 11:20:32.031166,-232
2021-09-27 11:20:32.031173,-210
2021-09-27 11:20:32.031179,-212
2021-09-27 11:20:32.031185,-217
2021-09-27 11:20:32.031191,-195
2021-09-27 11:20:32.257750,-176
2021-09-27 11:20:32.257782,-176
2021-09-27 11:20:32.257794,-180
2021-09-27 11:20:32.257804,-180
2021-09-27 11:20:32.257814,-173
2021-09-27 11:20:32.257824,-163
2021-09-27 11:20:32.257834,-161
2021-09-27 11:20:32.257843,-154
2021-09-27 11:20:32.257853,-146
2021-09-27 11:20:32.257863,-156
2021-09-27 11:20:32.257873,-154
2021-09-27 11:20:32.257882,-139
2021-09-27 11:20:32.257892,-134
2021-09-27 11:20:32.257939,-132
2021-09-27 11:20:32.257950,-122
2021-09-27 11:20:32.257972,-119
2021-09-27 11:20:32.257982,-117
2021-09-27 11:20:32.257992,-107
2021-09-27 11:20:32.258002,-95
2021-09-27 11:20:32.258011,-100
2021-09-27 11:20:32.258021,-110
2021-09-27 11:20:32.258031,-105
2021-09-27 11:20:32.258040,-92
2021-09-27 11:20:32.258050,-85
2021-09-27 11:20:32.258060,-80
2021-09-27 11:20:32.258069,-75
2021-09-27 11:20:32.258079,-88
2021-09-27 11:20:32.258089,-100
2021-09-27 11:20:32.258099,-90
2021-09-27 11:20:32.258108,-75
2021-09-27 11:20:32.527791,-68
2021-09-27 11:20:32.527814,-56
2021-09-27 11:20:32.527821,-53
2021-09-27 11:20:32.527828,-58
2021-09-27 11:20:32.527834,-66
2021-09-27 11:20:32.527841,-68
2021-09-27 11:20:32.527847,-80
2021-09-27 11:20:32.527853,-95
2021-09-27 11:20:32.527859,-97
2021-09-27 11:20:32.527866,-92
2021-09-27 11:20:32.527872,-83
2021-09-27 11:20:32.527878,-66
2021-09-27 11:20:32.527884,-56
2021-09-27 11:20:32.527891,-75
2021-09-27 11:20:32.527897,-151
2021-09-27 11:20:32.527903,-244
2021-09-27 11:20:32.527910,-53
2021-09-27 11:20:32.527916,718
2021-09-27 11:20:32.527922,1836
2021-09-27 11:20:32.527929,2521
2021-09-27 11:20:32.527935,1706
2021-09-27 11:20:32.527941,-330
2021-09-27 11:20:32.527947,-1159
2021-09-27 11:20:32.527954,-369
2021-09-27 11:20:32.527960,-66
2021-09-27 11:20:32.527966,-339
2021-09-27 11:20:32.527972,-207
2021-09-27 11:20:32.527979,-39
2021-09-27 11:20:32.527985,-110
2021-09-27 11:20:32.527991,-100
2021-09-27 11:20:32.707790,-24
2021-09-27 11:20:32.707822,-24
2021-09-27 11:20:32.707834,-24
2021-09-27 11:20:32.707844,9
2021-09-27 11:20:32.707854,36
2021-09-27 11:20:32.707864,61
2021-09-27 11:20:32.707874,83
2021-09-27 11:20:32.707884,95
2021-09-27 11:20:32.707894,110
2021-09-27 11:20:32.707931,146
2021-09-27 11:20:32.707941,183
2021-09-27 11:20:32.707951,217
2021-09-27 11:20:32.707961,256
2021-09-27 11:20:32.707971,291
2021-09-27 11:20:32.707980,332
2021-09-27 11:20:32.707990,396
2021-09-27 11:20:32.707999,464
2021-09-27 11:20:32.708009,523
2021-09-27 11:20:32.708019,579
2021-09-27 11:20:32.708028,621
2021-09-27 11:20:32.708038,645
2021-09-27 11:20:32.708048,660
2021-09-27 11:20:32.708057,665
2021-09-27 11:20:32.708067,621
2021-09-27 11:20:32.708076,503
2021-09-27 11:20:32.708086,337
2021-09-27 11:20:32.708096,149
2021-09-27 11:20:32.708105,-24
2021-09-27 11:20:32.708115,-154
2021-09-27 11:20:32.708125,-251
2021-09-27 11:20:32.977096,-325
2021-09-27 11:20:32.977119,-369
2021-09-27 11:20:32.977127,-391
2021-09-27 11:20:32.977134,-393
2021-09-27 11:20:32.977140,-391
2021-09-27 11:20:32.977146,-393
2021-09-27 11:20:32.977152,-386
2021-09-27 11:20:32.977158,-366
2021-09-27 11:20:32.977164,-344
2021-09-27 11:20:32.977171,-325
2021-09-27 11:20:32.977177,-310
2021-09-27 11:20:32.977183,-293
2021-09-27 11:20:32.977189,-283
2021-09-27 11:20:32.977195,-278
2021-09-27 11:20:32.977202,-254
2021-09-27 11:20:32.977208,-229
2021-09-27 11:20:32.977214,-224
2021-09-27 11:20:32.977220,-217
2021-09-27 11:20:32.977226,-200
2021-09-27 11:20:32.977232,-193
2021-09-27 11:20:32.977239,-190
2021-09-27 11:20:32.977245,-178
2021-09-27 11:20:32.977251,-168
2021-09-27 11:20:32.977257,-171
2021-09-27 11:20:32.977264,-173
2021-09-27 11:20:32.977270,-163
2021-09-27 11:20:32.977276,-156
2021-09-27 11:20:32.977282,-154
2021-09-27 11:20:32.977289,-149
2021-09-27 11:20:32.977295,-146
2021-09-27 11:20:33.157627,-141
2021-09-27 11:20:33.157660,-132
2021-09-27 11:20:33.157671,-122
2021-09-27 11:20:33.157681,-122
2021-09-27 11:20:33.157691,-124
2021-09-27 11:20:33.157701,-122
2021-09-27 11:20:33.157710,-122
2021-09-27 11:20:33.157720,-117
2021-09-27 11:20:33.157729,-110
2021-09-27 11:20:33.157739,-107
2021-09-27 11:20:33.157749,-100
2021-09-27 11:20:33.157758,-97
2021-09-27 11:20:33.157768,-110
2021-09-27 11:20:33.157777,-107
2021-09-27 11:20:33.157787,-95
2021-09-27 11:20:33.157797,-95
2021-09-27 11:20:33.157806,-90
2021-09-27 11:20:33.157816,-88
2021-09-27 11:20:33.157826,-92
2021-09-27 11:20:33.157835,-83
2021-09-27 11:20:33.157845,-63
2021-09-27 11:20:33.157854,-51
2021-09-27 11:20:33.157864,-44
2021-09-27 11:20:33.157873,-44
2021-09-27 11:20:33.157883,-46
2021-09-27 11:20:33.157893,-39
2021-09-27 11:20:33.157902,-39
2021-09-27 11:20:33.157912,-53
2021-09-27 11:20:33.157922,-73
2021-09-27 11:20:33.157931,-92
2021-09-27 11:20:33.382774,-100
2021-09-27 11:20:33.382807,-90
2021-09-27 11:20:33.382819,-78
2021-09-27 11:20:33.382829,-70
2021-09-27 11:20:33.382839,-68
2021-09-27 11:20:33.382849,-80
2021-09-27 11:20:33.382859,-119
2021-09-27 11:20:33.382869,-210
2021-09-27 11:20:33.382878,-190
2021-09-27 11:20:33.382888,332
2021-09-27 11:20:33.382898,1379
2021-09-27 11:20:33.382907,2347
2021-09-27 11:20:33.382917,2237
2021-09-27 11:20:33.382927,486
2021-09-27 11:20:33.382937,-1093
2021-09-27 11:20:33.382947,-738
2021-09-27 11:20:33.382957,-70
2021-09-27 11:20:33.382966,-264
2021-09-27 11:20:33.382976,-298
2021-09-27 11:20:33.382986,-58
2021-09-27 11:20:33.382995,-68
2021-09-27 11:20:33.383005,-117
2021-09-27 11:20:33.383015,-41
2021-09-27 11:20:33.383024,-19
2021-09-27 11:20:33.383034,-34
2021-09-27 11:20:33.383044,9
2021-09-27 11:20:33.383054,46
2021-09-27 11:20:33.383063,46
2021-09-27 11:20:33.383073,63
2021-09-27 11:20:33.383083,92
2021-09-27 11:20:33.607699,112
2021-09-27 11:20:33.607721,139
2021-09-27 11:20:33.607729,176
2021-09-27 11:20:33.607735,212
2021-09-27 11:20:33.607742,242
2021-09-27 11:20:33.607748,273
2021-09-27 11:20:33.607754,320
2021-09-27 11:20:33.607761,381
2021-09-27 11:20:33.607767,437
2021-09-27 11:20:33.607773,493
2021-09-27 11:20:33.607780,547
2021-09-27 11:20:33.607786,589
2021-09-27 11:20:33.607792,633
2021-09-27 11:20:33.607798,677
2021-09-27 11:20:33.607805,687
2021-09-27 11:20:33.607811,652
2021-09-27 11:20:33.607817,567
2021-09-27 11:20:33.607824,423
2021-09-27 11:20:33.607830,244
2021-09-27 11:20:33.607836,66
2021-09-27 11:20:33.607842,-100
2021-09-27 11:20:33.607849,-229
2021-09-27 11:20:33.607855,-308
2021-09-27 11:20:33.607861,-344
2021-09-27 11:20:33.607868,-361
2021-09-27 11:20:33.607874,-376
2021-09-27 11:20:33.607880,-381
2021-09-27 11:20:33.607887,-376
2021-09-27 11:20:33.607893,-371
2021-09-27 11:20:33.607899,-357
2021-09-27 11:20:33.877762,-337
2021-09-27 11:20:33.877794,-320
2021-09-27 11:20:33.877806,-308
2021-09-27 11:20:33.877816,-298
2021-09-27 11:20:33.877826,-278
2021-09-27 11:20:33.877836,-264
2021-09-27 11:20:33.877845,-251
2021-09-27 11:20:33.877855,-232
2021-09-27 11:20:33.877864,-215
2021-09-27 11:20:33.877874,-217
2021-09-27 11:20:33.877884,-215
2021-09-27 11:20:33.877893,-198
2021-09-27 11:20:33.877903,-188
2021-09-27 11:20:33.877913,-185
2021-09-27 11:20:33.877922,-178
2021-09-27 11:20:33.877932,-176
2021-09-27 11:20:33.877941,-190
2021-09-27 11:20:33.877951,-195
2021-09-27 11:20:33.877960,-185
2021-09-27 11:20:33.877970,-173
2021-09-27 11:20:33.877979,-166
2021-09-27 11:20:33.877989,-158
2021-09-27 11:20:33.877998,-163
2021-09-27 11:20:33.878008,-166
2021-09-27 11:20:33.878018,-154
2021-09-27 11:20:33.878027,-139
2021-09-27 11:20:33.878037,-136
2021-09-27 11:20:33.878047,-136
2021-09-27 11:20:33.878056,-127
2021-09-27 11:20:33.878066,-114
2021-09-27 11:20:34.146262,-114
2021-09-27 11:20:34.146293,-112
2021-09-27 11:20:34.146305,-102
2021-09-27 11:20:34.146315,-105
2021-09-27 11:20:34.146325,-105
2021-09-27 11:20:34.146334,-97
2021-09-27 11:20:34.146344,-92
2021-09-27 11:20:34.146354,-95
2021-09-27 11:20:34.146363,-97
2021-09-27 11:20:34.146373,-105
2021-09-27 11:20:34.146382,-107
2021-09-27 11:20:34.146392,-102
2021-09-27 11:20:34.146402,-97
2021-09-27 11:20:34.146411,-95
2021-09-27 11:20:34.146421,-102
2021-09-27 11:20:34.146431,-112
2021-09-27 11:20:34.146441,-95
2021-09-27 11:20:34.146450,-68
2021-09-27 11:20:34.146460,-61
2021-09-27 11:20:34.146470,-56
2021-09-27 11:20:34.146479,-53
2021-09-27 11:20:34.146489,-58
2021-09-27 11:20:34.146499,-56
2021-09-27 11:20:34.146508,-63
2021-09-27 11:20:34.146518,-83
2021-09-27 11:20:34.146542,-83
2021-09-27 11:20:34.146553,-70
2021-09-27 11:20:34.146562,-75
2021-09-27 11:20:34.146572,-73
2021-09-27 11:20:34.146582,-58
2021-09-27 11:20:34.372621,-56
2021-09-27 11:20:34.372654,-80
2021-09-27 11:20:34.372665,-166
2021-09-27 11:20:34.372676,-198
2021-09-27 11:20:34.372686,200
2021-09-27 11:20:34.372695,1176
2021-09-27 11:20:34.372705,2237
2021-09-27 11:20:34.372715,2445
2021-09-27 11:20:34.372724,948
2021-09-27 11:20:34.372734,-907
2021-09-27 11:20:34.372744,-897
2021-09-27 11:20:34.372754,-100
2021-09-27 11:20:34.372763,-173
2021-09-27 11:20:34.372773,-317
2021-09-27 11:20:34.372782,-90
2021-09-27 11:20:34.372792,-48
2021-09-27 11:20:34.372802,-114
2021-09-27 11:20:34.372812,-48
2021-09-27 11:20:34.372821,0
2021-09-27 11:20:34.372831,-14
2021-09-27 11:20:34.372841,4
2021-09-27 11:20:34.372850,19
2021-09-27 11:20:34.372860,24
2021-09-27 11:20:34.372870,56
2021-09-27 11:20:34.372879,90
2021-09-27 11:20:34.372889,105
2021-09-27 11:20:34.372899,124
2021-09-27 11:20:34.372908,161
2021-09-27 11:20:34.372918,195
2021-09-27 11:20:34.372928,229
2021-09-27 11:20:34.597206,283
2021-09-27 11:20:34.597239,335
2021-09-27 11:20:34.597250,374
2021-09-27 11:20:34.597261,423
2021-09-27 11:20:34.597271,486
2021-09-27 11:20:34.597280,550
2021-09-27 11:20:34.597290,604
2021-09-27 11:20:34.597299,650
2021-09-27 11:20:34.597309,679
2021-09-27 11:20:34.597318,689
2021-09-27 11:20:34.597328,677
2021-09-27 11:20:34.597338,621
2021-09-27 11:20:34.597347,491
2021-09-27 11:20:34.597357,291
2021-09-27 11:20:34.597366,90
2021-09-27 11:20:34.597376,-68
2021-09-27 11:20:34.597386,-193
2021-09-27 11:20:34.597396,-288
2021-09-27 11:20:34.597405,-342
2021-09-27 11:20:34.597415,-379
2021-09-27 11:20:34.597424,-401
2021-09-27 11:20:34.597434,-396
2021-09-27 11:20:34.597443,-383
2021-09-27 11:20:34.597453,-376
2021-09-27 11:20:34.597462,-369
2021-09-27 11:20:34.597472,-354
2021-09-27 11:20:34.597481,-339
2021-09-27 11:20:34.597491,-322
2021-09-27 11:20:34.597500,-298
2021-09-27 11:20:34.597510,-273
2021-09-27 11:20:34.867046,-256
2021-09-27 11:20:34.867078,-246
2021-09-27 11:20:34.867090,-232
2021-09-27 11:20:34.867099,-215
2021-09-27 11:20:34.867109,-207
2021-09-27 11:20:34.867119,-205
2021-09-27 11:20:34.867128,-193
2021-09-27 11:20:34.867137,-188
2021-09-27 11:20:34.867147,-190
2021-09-27 11:20:34.867157,-183
2021-09-27 11:20:34.867166,-173
2021-09-27 11:20:34.867176,-171
2021-09-27 11:20:34.867185,-173
2021-09-27 11:20:34.867195,-168
2021-09-27 11:20:34.867204,-163
2021-09-27 11:20:34.867214,-166
2021-09-27 11:20:34.867223,-156
2021-09-27 11:20:34.867233,-141
2021-09-27 11:20:34.867242,-144
2021-09-27 11:20:34.867252,-146
2021-09-27 11:20:34.867261,-136
2021-09-27 11:20:34.867271,-129
2021-09-27 11:20:34.867280,-122
2021-09-27 11:20:34.867289,-119
2021-09-27 11:20:34.867299,-124
2021-09-27 11:20:34.867309,-119
2021-09-27 11:20:34.867318,-122
2021-09-27 11:20:34.867328,-136
2021-09-27 11:20:34.867337,-134
2021-09-27 11:20:34.867347,-114
2021-09-27 11:20:35.002122,-114
2021-09-27 11:20:35.002142,-117
2021-09-27 11:20:35.002150,-114
2021-09-27 11:20:35.002156,-112
2021-09-27 11:20:35.002163,-107
2021-09-27 11:20:35.002169,-100
2021-09-27 11:20:35.002175,-97
2021-09-27 11:20:35.002181,-105
2021-09-27 11:20:35.002188,-102
2021-09-27 11:20:35.002194,-92
2021-09-27 11:20:35.002200,-88
2021-09-27 11:20:35.002206,-92
2021-09-27 11:20:35.002213,-92
2021-09-27 11:20:35.002219,-75
2021-09-27 11:20:35.002225,-61
2021-09-27 11:20:35.002231,-53
2021-09-27 11:20:35.002238,-44
2021-09-27 11:20:35.002244,-41
2021-09-27 11:20:35.002250,-56
2021-09-27 11:20:35.002256,-63
2021-09-27 11:20:35.002263,-63
2021-09-27 11:20:35.002269,-83
2021-09-27 11:20:35.002275,-92
2021-09-27 11:20:35.002281,-80
2021-09-27 11:20:35.002288,-70
2021-09-27 11:20:35.002294,-66
2021-09-27 11:20:35.002300,-63
2021-09-27 11:20:35.002307,-66
2021-09-27 11:20:35.002313,-83
2021-09-27 11:20:35.002319,-158
2021-09-27 11:20:35.227800,-202
2021-09-27 11:20:35.227833,158
2021-09-27 11:20:35.227845,1112
2021-09-27 11:20:35.227855,2200
2021-09-27 11:20:35.227865,2482
2021-09-27 11:20:35.227874,1063
2021-09-27 11:20:35.227884,-838
2021-09-27 11:20:35.227894,-931
2021-09-27 11:20:35.227904,-119
2021-09-27 11:20:35.227913,-156
2021-09-27 11:20:35.227923,-313
2021-09-27 11:20:35.227933,-88
2021-09-27 11:20:35.227943,-36
2021-09-27 11:20:35.227952,-117
2021-09-27 11:20:35.227962,-61
2021-09-27 11:20:35.227971,-12
2021-09-27 11:20:35.227981,-24
2021-09-27 11:20:35.227991,-9
2021-09-27 11:20:35.228000,22
2021-09-27 11:20:35.228010,44
2021-09-27 11:20:35.228020,68
2021-09-27 11:20:35.228029,90
2021-09-27 11:20:35.228039,112
2021-09-27 11:20:35.228048,134
2021-09-27 11:20:35.228058,161
2021-09-27 11:20:35.228068,198
2021-09-27 11:20:35.228078,237
2021-09-27 11:20:35.228087,281
2021-09-27 11:20:35.228097,332
2021-09-27 11:20:35.228106,374
2021-09-27 11:20:35.497462,425
2021-09-27 11:20:35.497484,496
2021-09-27 11:20:35.497493,547
2021-09-27 11:20:35.497500,579
2021-09-27 11:20:35.497506,628
2021-09-27 11:20:35.497513,662
2021-09-27 11:20:35.497519,667
2021-09-27 11:20:35.497526,662
2021-09-27 11:20:35.497532,611
2021-09-27 11:20:35.497539,479
2021-09-27 11:20:35.497546,293
2021-09-27 11:20:35.497552,92
2021-09-27 11:20:35.497559,-78
2021-09-27 11:20:35.497565,-202
2021-09-27 11:20:35.497572,-298
2021-09-27 11:20:35.497579,-364
2021-09-27 11:20:35.497585,-401
2021-09-27 11:20:35.497592,-415
2021-09-27 11:20:35.497598,-418
2021-09-27 11:20:35.497605,-408
2021-09-27 11:20:35.497612,-401
2021-09-27 11:20:35.497618,-396
2021-09-27 11:20:35.497625,-381
2021-09-27 11:20:35.497631,-364
2021-09-27 11:20:35.497638,-352
2021-09-27 11:20:35.497645,-322
2021-09-27 11:20:35.497651,-298
2021-09-27 11:20:35.497658,-300
2021-09-27 11:20:35.497664,-295
2021-09-27 11:20:35.497671,-264
2021-09-27 11:20:35.677266,-242
2021-09-27 11:20:35.677287,-237
2021-09-27 11:20:35.677295,-224
2021-09-27 11:20:35.677302,-212
2021-09-27 11:20:35.677308,-217
2021-09-27 11:20:35.677315,-215
2021-09-27 11:20:35.677322,-198
2021-09-27 11:20:35.677328,-190
2021-09-27 11:20:35.677335,-185
2021-09-27 11:20:35.677341,-180
2021-09-27 11:20:35.677348,-185
2021-09-27 11:20:35.677355,-183
2021-09-27 11:20:35.677361,-168
2021-09-27 11:20:35.677368,-163
2021-09-27 11:20:35.677374,-168
2021-09-27 11:20:35.677381,-173
2021-09-27 11:20:35.677388,-173
2021-09-27 11:20:35.677394,-176
2021-09-27 11:20:35.677401,-180
2021-09-27 11:20:35.677408,-180
2021-09-27 11:20:35.677414,-166
2021-09-27 11:20:35.677421,-158
2021-09-27 11:20:35.677427,-158
2021-09-27 11:20:35.677434,-154
2021-09-27 11:20:35.677441,-144
2021-09-27 11:20:35.677447,-139
2021-09-27 11:20:35.677454,-134
2021-09-27 11:20:35.677460,-124
2021-09-27 11:20:35.677467,-124
2021-09-27 11:20:35.677473,-124
2021-09-27 11:20:35.992373,-110
2021-09-27 11:20:35.992400,-105
2021-09-27 11:20:35.992408,-114
2021-09-27 11:20:35.992446,-117
2021-09-27 11:20:35.992453,-110
2021-09-27 11:20:35.992459,-100
2021-09-27 11:20:35.992465,-90
2021-09-27 11:20:35.992471,-88
2021-09-27 11:20:35.992477,-100
2021-09-27 11:20:35.992483,-119
2021-09-27 11:20:35.992490,-119
2021-09-27 11:20:35.992496,-105
2021-09-27 11:20:35.992502,-102
2021-09-27 11:20:35.992508,-95
2021-09-27 11:20:35.992514,-73
2021-09-27 11:20:35.992520,-56
2021-09-27 11:20:35.992527,-56
2021-09-27 11:20:35.992533,-56
2021-09-27 11:20:35.992539,-51
2021-09-27 11:20:35.992545,-46
2021-09-27 11:20:35.992551,-58
2021-09-27 11:20:35.992557,-83
2021-09-27 11:20:35.992564,-95
2021-09-27 11:20:35.992570,-88
2021-09-27 11:20:35.992576,-78
2021-09-27 11:20:35.992582,-66
2021-09-27 11:20:35.992588,-61
2021-09-27 11:20:35.992594,-66
2021-09-27 11:20:35.992601,-68
2021-09-27 11:20:35.992607,-97
2021-09-27 11:20:36.261449,-188
2021-09-27 11:20:36.261481,-156
2021-09-27 11:20:36.261493,371
2021-09-27 11:20:36.261503,1401
2021-09-27 11:20:36.261513,2377
2021-09-27 11:20:36.261523,2301
2021-09-27 11:20:36.261533,552
2021-09-27 11:20:36.261543,-1049
2021-09-27 11:20:36.261553,-701
2021-09-27 11:20:36.261562,-36
2021-09-27 11:20:36.261572,-237
2021-09-27 11:20:36.261582,-271
2021-09-27 11:20:36.261592,-31
2021-09-27 11:20:36.261601,-48
2021-09-27 11:20:36.261611,-110
2021-09-27 11:20:36.261621,-36
2021-09-27 11:20:36.261631,-2
2021-09-27 11:20:36.261641,-9
2021-09-27 11:20:36.261650,24
2021-09-27 11:20:36.261660,46
2021-09-27 11:20:36.261670,44
2021-09-27 11:20:36.261680,56
2021-09-27 11:20:36.261689,88
2021-09-27 11:20:36.261699,117
2021-09-27 11:20:36.261709,149
2021-09-27 11:20:36.261718,173
2021-09-27 11:20:36.261728,195
2021-09-27 11:20:36.261738,234
2021-09-27 11:20:36.261748,278
2021-09-27 11:20:36.261758,330
2021-09-27 11:20:36.397662,388
2021-09-27 11:20:36.397686,442
2021-09-27 11:20:36.397693,496
2021-09-27 11:20:36.397700,560
2021-09-27 11:20:36.397706,623
2021-09-27 11:20:36.397712,672
2021-09-27 11:20:36.397719,699
2021-09-27 11:20:36.397725,701
2021-09-27 11:20:36.397731,674
2021-09-27 11:20:36.397737,596
2021-09-27 11:20:36.397743,459
2021-09-27 11:20:36.397750,281
2021-09-27 11:20:36.397756,95
2021-09-27 11:20:36.397762,-78
2021-09-27 11:20:36.397768,-220
2021-09-27 11:20:36.397775,-320
2021-09-27 11:20:36.397781,-371
2021-09-27 11:20:36.397787,-398
2021-09-27 11:20:36.397793,-420
2021-09-27 11:20:36.397800,-427
2021-09-27 11:20:36.397806,-423
2021-09-27 11:20:36.397812,-408
2021-09-27 11:20:36.397818,-393
2021-09-27 11:20:36.397825,-381
2021-09-27 11:20:36.397831,-371
2021-09-27 11:20:36.397837,-359
2021-09-27 11:20:36.397844,-342
2021-09-27 11:20:36.397850,-322
2021-09-27 11:20:36.397856,-305
2021-09-27 11:20:36.397862,-286
2021-09-27 11:20:36.622813,-261
2021-09-27 11:20:36.622846,-244
2021-09-27 11:20:36.622857,-234
2021-09-27 11:20:36.622867,-224
2021-09-27 11:20:36.622876,-217
2021-09-27 11:20:36.622886,-210
2021-09-27 11:20:36.622895,-202
2021-09-27 11:20:36.622905,-207
2021-09-27 11:20:36.622915,-220
2021-09-27 11:20:36.622924,-222
2021-09-27 11:20:36.622934,-212
2021-09-27 11:20:36.622970,-198
2021-09-27 11:20:36.622980,-190
2021-09-27 11:20:36.622990,-202
2021-09-27 11:20:36.623000,-207
2021-09-27 11:20:36.623009,-188
2021-09-27 11:20:36.623019,-178
2021-09-27 11:20:36.623029,-178
2021-09-27 11:20:36.623038,-168
2021-09-27 11:20:36.623048,-154
2021-09-27 11:20:36.623057,-158
2021-09-27 11:20:36.623067,-166
2021-09-27 11:20:36.623076,-156
2021-09-27 11:20:36.623086,-139
2021-09-27 11:20:36.623095,-136
2021-09-27 11:20:36.623105,-141
2021-09-27 11:20:36.623115,-139
2021-09-27 11:20:36.623124,-136
2021-09-27 11:20:36.623134,-127
2021-09-27 11:20:36.623143,-114
2021-09-27 11:20:36.892115,-114
2021-09-27 11:20:36.892139,-112
2021-09-27 11:20:36.892147,-105
2021-09-27 11:20:36.892154,-105
2021-09-27 11:20:36.892160,-107
2021-09-27 11:20:36.892166,-97
2021-09-27 11:20:36.892173,-90
2021-09-27 11:20:36.892179,-92
2021-09-27 11:20:36.892217,-88
2021-09-27 11:20:36.892224,-88
2021-09-27 11:20:36.892230,-92
2021-09-27 11:20:36.892236,-83
2021-09-27 11:20:36.892242,-70
2021-09-27 11:20:36.892248,-75
2021-09-27 11:20:36.892255,-85
2021-09-27 11:20:36.892261,-75
2021-09-27 11:20:36.892268,-53
2021-09-27 11:20:36.892274,-36
2021-09-27 11:20:36.892280,-36
2021-09-27 11:20:36.892286,-41
2021-09-27 11:20:36.892292,-46
2021-09-27 11:20:36.892299,-53
2021-09-27 11:20:36.892305,-53
2021-09-27 11:20:36.892311,-61
2021-09-27 11:20:36.892317,-78
2021-09-27 11:20:36.892323,-83
2021-09-27 11:20:36.892330,-73
2021-09-27 11:20:36.892336,-68
2021-09-27 11:20:36.892342,-70
2021-09-27 11:20:36.892348,-61
2021-09-27 11:20:37.072620,-53
2021-09-27 11:20:37.072643,-83
2021-09-27 11:20:37.072650,-176
2021-09-27 11:20:37.072657,-212
2021-09-27 11:20:37.072663,188
2021-09-27 11:20:37.072670,1168
2021-09-27 11:20:37.072677,2232
2021-09-27 11:20:37.072683,2460
2021-09-27 11:20:37.072689,1005
2021-09-27 11:20:37.072695,-853
2021-09-27 11:20:37.072702,-892
2021-09-27 11:20:37.072708,-102
2021-09-27 11:20:37.072714,-163
2021-09-27 11:20:37.072721,-313
2021-09-27 11:20:37.072727,-85
2021-09-27 11:20:37.072733,-36
2021-09-27 11:20:37.072739,-107
2021-09-27 11:20:37.072746,-51
2021-09-27 11:20:37.072752,-4
2021-09-27 11:20:37.072758,-9
2021-09-27 11:20:37.072764,12
2021-09-27 11:20:37.072771,34
2021-09-27 11:20:37.072777,41
2021-09-27 11:20:37.072783,70
2021-09-27 11:20:37.072789,102
2021-09-27 11:20:37.072796,117
2021-09-27 11:20:37.072802,139
2021-09-27 11:20:37.072808,176
2021-09-27 11:20:37.072815,210
2021-09-27 11:20:37.072821,242
2021-09-27 11:20:37.297717,278
2021-09-27 11:20:37.297740,327
2021-09-27 11:20:37.297748,376
2021-09-27 11:20:37.297755,430
2021-09-27 11:20:37.297761,491
2021-09-27 11:20:37.297768,550
2021-09-27 11:20:37.297774,601
2021-09-27 11:20:37.297780,643
2021-09-27 11:20:37.297786,674
2021-09-27 11:20:37.297793,704
2021-09-27 11:20:37.297799,696
2021-09-27 11:20:37.297805,626
2021-09-27 11:20:37.297812,496
2021-09-27 11:20:37.297818,320
2021-09-27 11:20:37.297824,129
2021-09-27 11:20:37.297831,-51
2021-09-27 11:20:37.297837,-190
2021-09-27 11:20:37.297843,-283
2021-09-27 11:20:37.297850,-349
2021-09-27 11:20:37.297856,-393
2021-09-27 11:20:37.297862,-405
2021-09-27 11:20:37.297869,-413
2021-09-27 11:20:37.297875,-415
2021-09-27 11:20:37.297881,-401
2021-09-27 11:20:37.297887,-381
2021-09-27 11:20:37.297893,-371
2021-09-27 11:20:37.297900,-371
2021-09-27 11:20:37.297906,-364
2021-09-27 11:20:37.297912,-352
2021-09-27 11:20:37.297919,-337
2021-09-27 11:20:37.612717,-317
2021-09-27 11:20:37.612741,-310
2021-09-27 11:20:37.612749,-300
2021-09-27 11:20:37.612756,-283
2021-09-27 11:20:37.612762,-276
2021-09-27 11:20:37.612768,-269
2021-09-27 11:20:37.612775,-249
2021-09-27 11:20:37.612781,-239
2021-09-27 11:20:37.612787,-227
2021-09-27 11:20:37.612793,-212
2021-09-27 11:20:37.612800,-222
2021-09-27 11:20:37.612806,-229
2021-09-27 11:20:37.612812,-215
2021-09-27 11:20:37.612819,-205
2021-09-27 11:20:37.612825,-198
2021-09-27 11:20:37.612831,-193
2021-09-27 11:20:37.612837,-198
2021-09-27 11:20:37.612844,-190
2021-09-27 11:20:37.612850,-173
2021-09-27 11:20:37.612856,-168
2021-09-27 11:20:37.612863,-171
2021-09-27 11:20:37.612869,-163
2021-09-27 11:20:37.612875,-154
2021-09-27 11:20:37.612882,-149
2021-09-27 11:20:37.612888,-141
2021-09-27 11:20:37.612895,-134
2021-09-27 11:20:37.612901,-129
2021-09-27 11:20:37.612907,-127
2021-09-27 11:20:37.612914,-127
2021-09-27 11:20:37.612920,-122
2021-09-27 11:20:37.747745,-112
2021-09-27 11:20:37.747768,-100
2021-09-27 11:20:37.747776,-95
2021-09-27 11:20:37.747782,-97
2021-09-27 11:20:37.747788,-97
2021-09-27 11:20:37.747795,-97
2021-09-27 11:20:37.747801,-92
2021-09-27 11:20:37.747807,-85
2021-09-27 11:20:37.747813,-80
2021-09-27 11:20:37.747820,-78
2021-09-27 11:20:37.747826,-78
2021-09-27 11:20:37.747832,-78
2021-09-27 11:20:37.747838,-73
2021-09-27 11:20:37.747845,-63
2021-09-27 11:20:37.747851,-66
2021-09-27 11:20:37.747857,-66
2021-09-27 11:20:37.747863,-61
2021-09-27 11:20:37.747869,-61
2021-09-27 11:20:37.747875,-61
2021-09-27 11:20:37.747882,-44
2021-09-27 11:20:37.747888,-26
2021-09-27 11:20:37.747894,-26
2021-09-27 11:20:37.747901,-34
2021-09-27 11:20:37.747907,-29
2021-09-27 11:20:37.747913,-22
2021-09-27 11:20:37.747919,-19
2021-09-27 11:20:37.747926,-26
2021-09-27 11:20:37.747932,-51
2021-09-27 11:20:37.747938,-58
2021-09-27 11:20:37.747944,-41
2021-09-27 11:20:38.062052,-44
2021-09-27 11:20:38.062073,-61
2021-09-27 11:20:38.062081,-66
2021-09-27 11:20:38.062087,-66
2021-09-27 11:20:38.062093,-75
2021-09-27 11:20:38.062100,-132
2021-09-27 11:20:38.062106,-217
2021-09-27 11:20:38.062112,-53
2021-09-27 11:20:38.062119,694
2021-09-27 11:20:38.062125,1802
2021-09-27 11:20:38.062131,2518
2021-09-27 11:20:38.062137,1814
2021-09-27 11:20:38.062144,-173
2021-09-27 11:20:38.062150,-1122
2021-09-27 11:20:38.062156,-388
2021-09-27 11:20:38.062163,-36
2021-09-27 11:20:38.062169,-308
2021-09-27 11:20:38.062175,-190
2021-09-27 11:20:38.062182,-9
2021-09-27 11:20:38.062188,-88
2021-09-27 11:20:38.062194,-95
2021-09-27 11:20:38.062201,-9
2021-09-27 11:20:38.062207,0
2021-09-27 11:20:38.062213,-2
2021-09-27 11:20:38.062220,31
2021-09-27 11:20:38.062226,53
2021-09-27 11:20:38.062232,66
2021-09-27 11:20:38.062239,90
2021-09-27 11:20:38.062245,112
2021-09-27 11:20:38.062251,139
2021-09-27 11:20:38.286481,166
2021-09-27 11:20:38.286514,185
2021-09-27 11:20:38.286526,222
2021-09-27 11:20:38.286536,264
2021-09-27 11:20:38.286546,300
2021-09-27 11:20:38.286555,357
2021-09-27 11:20:38.286565,413
2021-09-27 11:20:38.286574,469
2021-09-27 11:20:38.286584,533
2021-09-27 11:20:38.286593,584
2021-09-27 11:20:38.286603,635
2021-09-27 11:20:38.286612,689
2021-09-27 11:20:38.286622,721
2021-09-27 11:20:38.286631,718
2021-09-27 11:20:38.286641,672
2021-09-27 11:20:38.286650,577
2021-09-27 11:20:38.286660,427
2021-09-27 11:20:38.286669,239
2021-09-27 11:20:38.286679,51
2021-09-27 11:20:38.286688,-110
2021-09-27 11:20:38.286698,-242
2021-09-27 11:20:38.286708,-332
2021-09-27 11:20:38.286717,-381
2021-09-27 11:20:38.286727,-401
2021-09-27 11:20:38.286736,-408
2021-09-27 11:20:38.286746,-420
2021-09-27 11:20:38.286755,-427
2021-09-27 11:20:38.286765,-415
2021-09-27 11:20:38.286774,-393
2021-09-27 11:20:38.286784,-379
2021-09-27 11:20:38.512710,-366
2021-09-27 11:20:38.512732,-347
2021-09-27 11:20:38.512740,-332
2021-09-27 11:20:38.512746,-317
2021-09-27 11:20:38.512752,-293
2021-09-27 11:20:38.512759,-271
2021-09-27 11:20:38.512765,-271
2021-09-27 11:20:38.512771,-276
2021-09-27 11:20:38.512778,-266
2021-09-27 11:20:38.512784,-244
2021-09-27 11:20:38.512790,-234
2021-09-27 11:20:38.512797,-237
2021-09-27 11:20:38.512803,-234
2021-09-27 11:20:38.512809,-229
2021-09-27 11:20:38.512815,-227
2021-09-27 11:20:38.512822,-217
2021-09-27 11:20:38.512828,-210
2021-09-27 11:20:38.512834,-200
2021-09-27 11:20:38.512840,-195
2021-09-27 11:20:38.512847,-193
2021-09-27 11:20:38.512853,-180
2021-09-27 11:20:38.512859,-171
2021-09-27 11:20:38.512866,-173
2021-09-27 11:20:38.512872,-168
2021-09-27 11:20:38.512878,-156
2021-09-27 11:20:38.512884,-154
2021-09-27 11:20:38.512890,-151
2021-09-27 11:20:38.512897,-146
2021-09-27 11:20:38.512903,-136
2021-09-27 11:20:38.512909,-129
2021-09-27 11:20:38.827792,-124
2021-09-27 11:20:38.827820,-124
2021-09-27 11:20:38.827834,-124
2021-09-27 11:20:38.827844,-114
2021-09-27 11:20:38.827851,-102
2021-09-27 11:20:38.827858,-102
2021-09-27 11:20:38.827866,-107
2021-09-27 11:20:38.827877,-114
2021-09-27 11:20:38.827883,-110
2021-09-27 11:20:38.827894,-97
2021-09-27 11:20:38.827904,-90
2021-09-27 11:20:38.827911,-83
2021-09-27 11:20:38.827921,-78
2021-09-27 11:20:38.827929,-75
2021-09-27 11:20:38.827935,-70
2021-09-27 11:20:38.827942,-75
2021-09-27 11:20:38.827948,-75
2021-09-27 11:20:38.827954,-66
2021-09-27 11:20:38.827961,-68
2021-09-27 11:20:38.827967,-70
2021-09-27 11:20:38.827974,-51
2021-09-27 11:20:38.827980,-36
2021-09-27 11:20:38.827986,-34
2021-09-27 11:20:38.827993,-19
2021-09-27 11:20:38.827999,-7
2021-09-27 11:20:38.828006,-19
2021-09-27 11:20:38.828012,-24
2021-09-27 11:20:38.828018,-31
2021-09-27 11:20:38.828025,-56
2021-09-27 11:20:38.828031,-66
2021-09-27 11:20:38.917625,-51
2021-09-27 11:20:38.917657,-53
2021-09-27 11:20:38.917668,-56
2021-09-27 11:20:38.917678,-46
2021-09-27 11:20:38.917688,-36
2021-09-27 11:20:38.917698,-58
2021-09-27 11:20:38.917707,-146
2021-09-27 11:20:38.917717,-195
2021-09-27 11:20:38.917726,163
2021-09-27 11:20:38.917736,1083
2021-09-27 11:20:38.917746,2137
2021-09-27 11:20:38.917756,2487
2021-09-27 11:20:38.917765,1183
2021-09-27 11:20:38.917775,-755
2021-09-27 11:20:38.917785,-961
2021-09-27 11:20:38.917794,-151
2021-09-27 11:20:38.917804,-161
2021-09-27 11:20:38.917814,-332
2021-09-27 11:20:38.917823,-105
2021-09-27 11:20:38.917833,-53
2021-09-27 11:20:38.917842,-141
2021-09-27 11:20:38.917852,-78
2021-09-27 11:20:38.917862,-19
2021-09-27 11:20:38.917872,-44
2021-09-27 11:20:38.917881,-24
2021-09-27 11:20:38.917891,19
2021-09-27 11:20:38.917901,31
2021-09-27 11:20:38.917910,48
2021-09-27 11:20:38.917920,73
2021-09-27 11:20:38.917930,80
2021-09-27 11:20:39.142668,102
2021-09-27 11:20:39.142700,156
2021-09-27 11:20:39.142711,193
2021-09-27 11:20:39.142721,222
2021-09-27 11:20:39.142731,276
2021-09-27 11:20:39.142741,320
2021-09-27 11:20:39.142750,359
2021-09-27 11:20:39.142760,425
2021-09-27 11:20:39.142770,493
2021-09-27 11:20:39.142779,540
2021-09-27 11:20:39.142789,596
2021-09-27 11:20:39.142799,674
2021-09-27 11:20:39.142808,709
2021-09-27 11:20:39.142818,694
2021-09-27 11:20:39.142828,689
2021-09-27 11:20:39.142837,660
2021-09-27 11:20:39.142847,530
2021-09-27 11:20:39.142856,335
2021-09-27 11:20:39.142866,136
2021-09-27 11:20:39.142876,-31
2021-09-27 11:20:39.142886,-168
2021-09-27 11:20:39.142895,-273
2021-09-27 11:20:39.142905,-361
2021-09-27 11:20:39.142915,-423
2021-09-27 11:20:39.142924,-427
2021-09-27 11:20:39.142934,-410
2021-09-27 11:20:39.142944,-427
2021-09-27 11:20:39.142954,-440
2021-09-27 11:20:39.142963,-420
2021-09-27 11:20:39.142973,-388
2021-09-27 11:20:39.366988,-357
2021-09-27 11:20:39.367008,-335
2021-09-27 11:20:39.367016,-337
2021-09-27 11:20:39.367022,-342
2021-09-27 11:20:39.367029,-320
2021-09-27 11:20:39.367035,-295
2021-09-27 11:20:39.367041,-276
2021-09-27 11:20:39.367048,-256
2021-09-27 11:20:39.367054,-242
2021-09-27 11:20:39.367060,-220
2021-09-27 11:20:39.367067,-212
2021-09-27 11:20:39.367073,-227
2021-09-27 11:20:39.367079,-222
2021-09-27 11:20:39.367086,-180
2021-09-27 11:20:39.367092,-163
2021-09-27 11:20:39.367098,-183
2021-09-27 11:20:39.367105,-210
2021-09-27 11:20:39.367111,-207
2021-09-27 11:20:39.367117,-183
2021-09-27 11:20:39.367124,-183
2021-09-27 11:20:39.367130,-193
2021-09-27 11:20:39.367136,-180
2021-09-27 11:20:39.367143,-168
2021-09-27 11:20:39.367149,-173
2021-09-27 11:20:39.367156,-178
2021-09-27 11:20:39.367162,-161
2021-09-27 11:20:39.367168,-151
2021-09-27 11:20:39.367175,-149
2021-09-27 11:20:39.367181,-136
2021-09-27 11:20:39.367187,-132
2021-09-27 11:20:39.592710,-122
2021-09-27 11:20:39.592732,-107
2021-09-27 11:20:39.592740,-107
2021-09-27 11:20:39.592746,-112
2021-09-27 11:20:39.592753,-117
2021-09-27 11:20:39.592759,-117
2021-09-27 11:20:39.592765,-110
2021-09-27 11:20:39.592772,-102
2021-09-27 11:20:39.592778,-110
2021-09-27 11:20:39.592784,-119
2021-09-27 11:20:39.592790,-105
2021-09-27 11:20:39.592796,-75
2021-09-27 11:20:39.592802,-70
2021-09-27 11:20:39.592809,-78
2021-09-27 11:20:39.592815,-58
2021-09-27 11:20:39.592821,-44
2021-09-27 11:20:39.592827,-48
2021-09-27 11:20:39.592833,-44
2021-09-27 11:20:39.592840,-29
2021-09-27 11:20:39.592846,-29
2021-09-27 11:20:39.592852,-39
2021-09-27 11:20:39.592858,-56
2021-09-27 11:20:39.592865,-73
2021-09-27 11:20:39.592871,-75
2021-09-27 11:20:39.592877,-68
2021-09-27 11:20:39.592883,-63
2021-09-27 11:20:39.592889,-63
2021-09-27 11:20:39.592896,-70
2021-09-27 11:20:39.592902,-53
2021-09-27 11:20:39.592908,-31
2021-09-27 11:20:39.862067,-75
2021-09-27 11:20:39.862084,-198
2021-09-27 11:20:39.862090,-193
2021-09-27 11:20:39.862095,303
2021-09-27 11:20:39.862100,1303
2021-09-27 11:20:39.862105,2279
2021-09-27 11:20:39.862110,2288
2021-09-27 11:20:39.862115,652
2021-09-27 11:20:39.862120,-985
2021-09-27 11:20:39.862125,-716
2021-09-27 11:20:39.862130,-22
2021-09-27 11:20:39.862135,-202
2021-09-27 11:20:39.862140,-278
2021-09-27 11:20:39.862145,-66
2021-09-27 11:20:39.862150,-80
2021-09-27 11:20:39.862155,-139
2021-09-27 11:20:39.862160,-63
2021-09-27 11:20:39.862165,-31
2021-09-27 11:20:39.862170,-44
2021-09-27 11:20:39.862175,-12
2021-09-27 11:20:39.862180,12
2021-09-27 11:20:39.862185,19
2021-09-27 11:20:39.862190,46
2021-09-27 11:20:39.862195,78
2021-09-27 11:20:39.862200,66
2021-09-27 11:20:39.862205,46
2021-09-27 11:20:39.862210,92
2021-09-27 11:20:39.862215,166
2021-09-27 11:20:39.862225,205
2021-09-27 11:20:39.862231,237
2021-09-27 11:20:40.087031,286
2021-09-27 11:20:40.087052,337
2021-09-27 11:20:40.087060,398
2021-09-27 11:20:40.087066,459
2021-09-27 11:20:40.087073,508
2021-09-27 11:20:40.087079,562
2021-09-27 11:20:40.087086,604
2021-09-27 11:20:40.087092,635
2021-09-27 11:20:40.087098,667
2021-09-27 11:20:40.087104,652
2021-09-27 11:20:40.087111,574
2021-09-27 11:20:40.087117,442
2021-09-27 11:20:40.087123,259
2021-09-27 11:20:40.087130,63
2021-09-27 11:20:40.087136,-114
2021-09-27 11:20:40.087142,-244
2021-09-27 11:20:40.087149,-332
2021-09-27 11:20:40.087155,-398
2021-09-27 11:20:40.087162,-413
2021-09-27 11:20:40.087168,-405
2021-09-27 11:20:40.087174,-430
2021-09-27 11:20:40.087181,-445
2021-09-27 11:20:40.087187,-420
2021-09-27 11:20:40.087194,-405
2021-09-27 11:20:40.087200,-403
2021-09-27 11:20:40.087206,-396
2021-09-27 11:20:40.087212,-386
2021-09-27 11:20:40.087219,-364
2021-09-27 11:20:40.087225,-344
2021-09-27 11:20:40.087231,-352
2021-09-27 11:20:40.356348,-332
2021-09-27 11:20:40.356380,-281
2021-09-27 11:20:40.356392,-278
2021-09-27 11:20:40.356402,-293
2021-09-27 11:20:40.356412,-256
2021-09-27 11:20:40.356422,-229
2021-09-27 11:20:40.356432,-246
2021-09-27 11:20:40.356441,-246
2021-09-27 11:20:40.356451,-220
2021-09-27 11:20:40.356461,-202
2021-09-27 11:20:40.356470,-205
2021-09-27 11:20:40.356480,-210
2021-09-27 11:20:40.356490,-180
2021-09-27 11:20:40.356499,-176
2021-09-27 11:20:40.356509,-205
2021-09-27 11:20:40.356519,-198
2021-09-27 11:20:40.356529,-168
2021-09-27 11:20:40.356539,-168
2021-09-27 11:20:40.356548,-171
2021-09-27 11:20:40.356558,-178
2021-09-27 11:20:40.356568,-188
2021-09-27 11:20:40.356577,-158
2021-09-27 11:20:40.356587,-132
2021-09-27 11:20:40.356597,-149
2021-09-27 11:20:40.356606,-151
2021-09-27 11:20:40.356616,-119
2021-09-27 11:20:40.356626,-119
2021-09-27 11:20:40.356635,-146
2021-09-27 11:20:40.356645,-154
2021-09-27 11:20:40.356655,-141
2021-09-27 11:20:40.537780,-139
2021-09-27 11:20:40.537813,-144
2021-09-27 11:20:40.537824,-132
2021-09-27 11:20:40.537834,-105
2021-09-27 11:20:40.537844,-88
2021-09-27 11:20:40.537854,-90
2021-09-27 11:20:40.537864,-105
2021-09-27 11:20:40.537873,-119
2021-09-27 11:20:40.537883,-117
2021-09-27 11:20:40.537893,-85
2021-09-27 11:20:40.537903,-44
2021-09-27 11:20:40.537912,-36
2021-09-27 11:20:40.537922,-48
2021-09-27 11:20:40.537959,-73
2021-09-27 11:20:40.537969,-95
2021-09-27 11:20:40.537979,-83
2021-09-27 11:20:40.537989,-80
2021-09-27 11:20:40.537998,-112
2021-09-27 11:20:40.538008,-134
2021-09-27 11:20:40.538018,-100
2021-09-27 11:20:40.538027,-73
2021-09-27 11:20:40.538037,-83
2021-09-27 11:20:40.538047,-66
2021-09-27 11:20:40.538056,-73
2021-09-27 11:20:40.538066,-183
2021-09-27 11:20:40.538076,-224
2021-09-27 11:20:40.538086,171
2021-09-27 11:20:40.538096,1088
2021-09-27 11:20:40.538106,2090
2021-09-27 11:20:40.538115,2364
2021-09-27 11:20:40.807672,1022
2021-09-27 11:20:40.807695,-831
2021-09-27 11:20:40.807702,-929
2021-09-27 11:20:40.807709,-139
2021-09-27 11:20:40.807715,-178
2021-09-27 11:20:40.807722,-310
2021-09-27 11:20:40.807728,-75
2021-09-27 11:20:40.807735,-53
2021-09-27 11:20:40.807741,-151
2021-09-27 11:20:40.807747,-58
2021-09-27 11:20:40.807753,12
2021-09-27 11:20:40.807760,-41
2021-09-27 11:20:40.807766,-46
2021-09-27 11:20:40.807772,4
2021-09-27 11:20:40.807779,17
2021-09-27 11:20:40.807785,26
2021-09-27 11:20:40.807791,85
2021-09-27 11:20:40.807797,139
2021-09-27 11:20:40.807804,139
2021-09-27 11:20:40.807810,132
2021-09-27 11:20:40.807816,161
2021-09-27 11:20:40.807822,212
2021-09-27 11:20:40.807829,264
2021-09-27 11:20:40.807835,303
2021-09-27 11:20:40.807841,347
2021-09-27 11:20:40.807847,423
2021-09-27 11:20:40.807854,506
2021-09-27 11:20:40.807860,572
2021-09-27 11:20:40.807866,628
2021-09-27 11:20:40.807872,662
2021-09-27 11:20:40.987747,689
2021-09-27 11:20:40.987770,736
2021-09-27 11:20:40.987778,709
2021-09-27 11:20:40.987785,594
2021-09-27 11:20:40.987791,471
2021-09-27 11:20:40.987798,293
2021-09-27 11:20:40.987804,66
2021-09-27 11:20:40.987811,-70
2021-09-27 11:20:40.987817,-158
2021-09-27 11:20:40.987823,-291
2021-09-27 11:20:40.987830,-393
2021-09-27 11:20:40.987836,-435
2021-09-27 11:20:40.987842,-462
2021-09-27 11:20:40.987848,-464
2021-09-27 11:20:40.987855,-440
2021-09-27 11:20:40.987861,-423
2021-09-27 11:20:40.987867,-425
2021-09-27 11:20:40.987873,-420
2021-09-27 11:20:40.987880,-403
2021-09-27 11:20:40.987886,-371
2021-09-27 11:20:40.987892,-344
2021-09-27 11:20:40.987898,-339
2021-09-27 11:20:40.987905,-330
2021-09-27 11:20:40.987911,-303
2021-09-27 11:20:40.987917,-283
2021-09-27 11:20:40.987933,-288
2021-09-27 11:20:40.987940,-293
2021-09-27 11:20:40.987946,-273
2021-09-27 11:20:40.987952,-237
2021-09-27 11:20:40.987959,-222
2021-09-27 11:20:41.257951,-242
2021-09-27 11:20:41.257984,-254
2021-09-27 11:20:41.257996,-232
2021-09-27 11:20:41.258006,-217
2021-09-27 11:20:41.258015,-232
2021-09-27 11:20:41.258025,-229
2021-09-27 11:20:41.258035,-212
2021-09-27 11:20:41.258045,-215
2021-09-27 11:20:41.258054,-212
2021-09-27 11:20:41.258064,-202
2021-09-27 11:20:41.258073,-200
2021-09-27 11:20:41.258083,-180
2021-09-27 11:20:41.258092,-171
2021-09-27 11:20:41.258102,-185
2021-09-27 11:20:41.258112,-178
2021-09-27 11:20:41.258121,-161
2021-09-27 11:20:41.258131,-168
2021-09-27 11:20:41.258141,-166
2021-09-27 11:20:41.258150,-151
2021-09-27 11:20:41.258160,-149
2021-09-27 11:20:41.258169,-146
2021-09-27 11:20:41.258179,-122
2021-09-27 11:20:41.258189,-105
2021-09-27 11:20:41.258198,-114
2021-09-27 11:20:41.258208,-110
2021-09-27 11:20:41.258218,-102
2021-09-27 11:20:41.258227,-122
2021-09-27 11:20:41.258237,-124
2021-09-27 11:20:41.258247,-80
2021-09-27 11:20:41.258288,-53
2021-09-27 11:20:41.437768,-61
2021-09-27 11:20:41.437791,-56
2021-09-27 11:20:41.437798,-44
2021-09-27 11:20:41.437805,-63
2021-09-27 11:20:41.437811,-80
2021-09-27 11:20:41.437817,-83
2021-09-27 11:20:41.437823,-105
2021-09-27 11:20:41.437830,-114
2021-09-27 11:20:41.437836,-95
2021-09-27 11:20:41.437842,-85
2021-09-27 11:20:41.437849,-95
2021-09-27 11:20:41.437855,-95
2021-09-27 11:20:41.437861,-85
2021-09-27 11:20:41.437868,-97
2021-09-27 11:20:41.437874,-176
2021-09-27 11:20:41.437880,-200
2021-09-27 11:20:41.437887,180
2021-09-27 11:20:41.437893,1080
2021-09-27 11:20:41.437900,2076
2021-09-27 11:20:41.437906,2367
2021-09-27 11:20:41.437912,1046
2021-09-27 11:20:41.437919,-826
2021-09-27 11:20:41.437925,-939
2021-09-27 11:20:41.437931,-127
2021-09-27 11:20:41.437938,-166
2021-09-27 11:20:41.437944,-322
2021-09-27 11:20:41.437950,-66
2021-09-27 11:20:41.437956,-24
2021-09-27 11:20:41.437963,-158
2021-09-27 11:20:41.437969,-102
2021-09-27 11:20:41.752820,-7
2021-09-27 11:20:41.752852,-7
2021-09-27 11:20:41.752864,-9
2021-09-27 11:20:41.752874,19
2021-09-27 11:20:41.752884,53
2021-09-27 11:20:41.752893,58
2021-09-27 11:20:41.752903,46
2021-09-27 11:20:41.752912,70
2021-09-27 11:20:41.752922,119
2021-09-27 11:20:41.752932,136
2021-09-27 11:20:41.752941,163
2021-09-27 11:20:41.752951,224
2021-09-27 11:20:41.752961,271
2021-09-27 11:20:41.752970,303
2021-09-27 11:20:41.752980,359
2021-09-27 11:20:41.752990,430
2021-09-27 11:20:41.752999,503
2021-09-27 11:20:41.753009,572
2021-09-27 11:20:41.753018,599
2021-09-27 11:20:41.753028,618
2021-09-27 11:20:41.753038,670
2021-09-27 11:20:41.753047,709
2021-09-27 11:20:41.753057,701
2021-09-27 11:20:41.753067,640
2021-09-27 11:20:41.753076,511
2021-09-27 11:20:41.753086,339
2021-09-27 11:20:41.753095,154
2021-09-27 11:20:41.753105,-44
2021-09-27 11:20:41.753115,-205
2021-09-27 11:20:41.753124,-254
2021-09-27 11:20:41.932203,-286
2021-09-27 11:20:41.932225,-371
2021-09-27 11:20:41.932233,-388
2021-09-27 11:20:41.932239,-361
2021-09-27 11:20:41.932245,-418
2021-09-27 11:20:41.932252,-449
2021-09-27 11:20:41.932258,-381
2021-09-27 11:20:41.932264,-337
2021-09-27 11:20:41.932270,-337
2021-09-27 11:20:41.932277,-325
2021-09-27 11:20:41.932289,-327
2021-09-27 11:20:41.932296,-298
2021-09-27 11:20:41.932303,-224
2021-09-27 11:20:41.932309,-242
2021-09-27 11:20:41.932315,-310
2021-09-27 11:20:41.932321,-310
2021-09-27 11:20:41.932327,-293
2021-09-27 11:20:41.932334,-271
2021-09-27 11:20:41.932340,-239
2021-09-27 11:20:41.932346,-205
2021-09-27 11:20:41.932352,-180
2021-09-27 11:20:41.932358,-220
2021-09-27 11:20:41.932365,-254
2021-09-27 11:20:41.932371,-217
2021-09-27 11:20:41.932377,-195
2021-09-27 11:20:41.932383,-217
2021-09-27 11:20:41.932389,-215
2021-09-27 11:20:41.932396,-193
2021-09-27 11:20:41.932402,-180
2021-09-27 11:20:41.932408,-178
2021-09-27 11:20:42.247386,-171
2021-09-27 11:20:42.247410,-171
2021-09-27 11:20:42.247418,-178
2021-09-27 11:20:42.247424,-183
2021-09-27 11:20:42.247431,-178
2021-09-27 11:20:42.247437,-161
2021-09-27 11:20:42.247443,-151
2021-09-27 11:20:42.247450,-163
2021-09-27 11:20:42.247456,-151
2021-09-27 11:20:42.247462,-114
2021-09-27 11:20:42.247468,-119
2021-09-27 11:20:42.247475,-141
2021-09-27 11:20:42.247481,-129
2021-09-27 11:20:42.247487,-139
2021-09-27 11:20:42.247493,-173
2021-09-27 11:20:42.247500,-136
2021-09-27 11:20:42.247506,-95
2021-09-27 11:20:42.247512,-114
2021-09-27 11:20:42.247519,-97
2021-09-27 11:20:42.247525,-29
2021-09-27 11:20:42.247531,-36
2021-09-27 11:20:42.247537,-127
2021-09-27 11:20:42.247544,-139
2021-09-27 11:20:42.247550,-56
2021-09-27 11:20:42.247556,-58
2021-09-27 11:20:42.247562,-141
2021-09-27 11:20:42.247569,-141
2021-09-27 11:20:42.247575,-75
2021-09-27 11:20:42.247581,-68
2021-09-27 11:20:42.247588,-100
2021-09-27 11:20:42.471396,-85
2021-09-27 11:20:42.471421,-97
2021-09-27 11:20:42.471428,-185
2021-09-27 11:20:42.471435,2
2021-09-27 11:20:42.471441,811
2021-09-27 11:20:42.471448,1848
2021-09-27 11:20:42.471454,2377
2021-09-27 11:20:42.471460,1584
2021-09-27 11:20:42.471466,-349
2021-09-27 11:20:42.471473,-1171
2021-09-27 11:20:42.471479,-401
2021-09-27 11:20:42.471485,-75
2021-09-27 11:20:42.471491,-266
2021-09-27 11:20:42.471498,-132
2021-09-27 11:20:42.471504,-78
2021-09-27 11:20:42.471510,-151
2021-09-27 11:20:42.471516,-66
2021-09-27 11:20:42.471522,4
2021-09-27 11:20:42.471529,-12
2021-09-27 11:20:42.471535,12
2021-09-27 11:20:42.471541,46
2021-09-27 11:20:42.471547,58
2021-09-27 11:20:42.471553,75
2021-09-27 11:20:42.471560,63
2021-09-27 11:20:42.471566,39
2021-09-27 11:20:42.471572,75
2021-09-27 11:20:42.471578,139
2021-09-27 11:20:42.471584,178
2021-09-27 11:20:42.471590,220
2021-09-27 11:20:42.471597,303
2021-09-27 11:20:42.607673,357
2021-09-27 11:20:42.607695,327
2021-09-27 11:20:42.607703,352
2021-09-27 11:20:42.607709,486
2021-09-27 11:20:42.607716,574
2021-09-27 11:20:42.607722,589
2021-09-27 11:20:42.607728,640
2021-09-27 11:20:42.607735,689
2021-09-27 11:20:42.607741,687
2021-09-27 11:20:42.607747,689
2021-09-27 11:20:42.607753,660
2021-09-27 11:20:42.607760,530
2021-09-27 11:20:42.607766,347
2021-09-27 11:20:42.607772,161
2021-09-27 11:20:42.607779,-14
2021-09-27 11:20:42.607785,-163
2021-09-27 11:20:42.607792,-246
2021-09-27 11:20:42.607798,-303
2021-09-27 11:20:42.607804,-396
2021-09-27 11:20:42.607811,-457
2021-09-27 11:20:42.607817,-415
2021-09-27 11:20:42.607823,-388
2021-09-27 11:20:42.607829,-430
2021-09-27 11:20:42.607836,-440
2021-09-27 11:20:42.607842,-393
2021-09-27 11:20:42.607848,-366
2021-09-27 11:20:42.607854,-359
2021-09-27 11:20:42.607861,-335
2021-09-27 11:20:42.607867,-317
2021-09-27 11:20:42.607873,-308
2021-09-27 11:20:42.877796,-288
2021-09-27 11:20:42.877828,-259
2021-09-27 11:20:42.877840,-237
2021-09-27 11:20:42.877850,-224
2021-09-27 11:20:42.877859,-215
2021-09-27 11:20:42.877869,-227
2021-09-27 11:20:42.877878,-246
2021-09-27 11:20:42.877888,-224
2021-09-27 11:20:42.877897,-195
2021-09-27 11:20:42.877907,-200
2021-09-27 11:20:42.877917,-207
2021-09-27 11:20:42.877926,-205
2021-09-27 11:20:42.877936,-200
2021-09-27 11:20:42.877945,-190
2021-09-27 11:20:42.877955,-176
2021-09-27 11:20:42.877964,-176
2021-09-27 11:20:42.877974,-190
2021-09-27 11:20:42.877984,-190
2021-09-27 11:20:42.877993,-178
2021-09-27 11:20:42.878003,-180
2021-09-27 11:20:42.878012,-178
2021-09-27 11:20:42.878022,-168
2021-09-27 11:20:42.878031,-171
2021-09-27 11:20:42.878041,-171
2021-09-27 11:20:42.878050,-151
2021-09-27 11:20:42.878060,-129
2021-09-27 11:20:42.878069,-134
2021-09-27 11:20:42.878079,-168
2021-09-27 11:20:42.878088,-178
2021-09-27 11:20:42.878098,-151
2021-09-27 11:20:43.057651,-144
2021-09-27 11:20:43.057683,-144
2021-09-27 11:20:43.057695,-129
2021-09-27 11:20:43.057705,-122
2021-09-27 11:20:43.057715,-124
2021-09-27 11:20:43.057725,-134
2021-09-27 11:20:43.057734,-136
2021-09-27 11:20:43.057744,-136
2021-09-27 11:20:43.057754,-127
2021-09-27 11:20:43.057764,-114
2021-09-27 11:20:43.057773,-124
2021-09-27 11:20:43.057783,-134
2021-09-27 11:20:43.057792,-127
2021-09-27 11:20:43.057802,-110
2021-09-27 11:20:43.057811,-97
2021-09-27 11:20:43.057821,-134
2021-09-27 11:20:43.057831,-200
2021-09-27 11:20:43.057841,-36
2021-09-27 11:20:43.057850,626
2021-09-27 11:20:43.057860,1592
2021-09-27 11:20:43.057870,2247
2021-09-27 11:20:43.057879,1633
2021-09-27 11:20:43.057889,-254
2021-09-27 11:20:43.057899,-1222
2021-09-27 11:20:43.057908,-530
2021-09-27 11:20:43.057918,-161
2021-09-27 11:20:43.057928,-364
2021-09-27 11:20:43.057937,-198
2021-09-27 11:20:43.057947,-26
2021-09-27 11:20:43.057957,-90
2021-09-27 11:20:43.282790,-70
2021-09-27 11:20:43.282823,0
2021-09-27 11:20:43.282835,0
2021-09-27 11:20:43.282845,9
2021-09-27 11:20:43.282855,34
2021-09-27 11:20:43.282865,24
2021-09-27 11:20:43.282874,41
2021-09-27 11:20:43.282884,105
2021-09-27 11:20:43.282894,132
2021-09-27 11:20:43.282903,122
2021-09-27 11:20:43.282913,144
2021-09-27 11:20:43.282923,188
2021-09-27 11:20:43.282932,224
2021-09-27 11:20:43.282942,264
2021-09-27 11:20:43.282951,315
2021-09-27 11:20:43.282961,366
2021-09-27 11:20:43.282971,403
2021-09-27 11:20:43.282980,457
2021-09-27 11:20:43.282990,535
2021-09-27 11:20:43.282999,608
2021-09-27 11:20:43.283009,667
2021-09-27 11:20:43.283018,701
2021-09-27 11:20:43.283028,714
2021-09-27 11:20:43.283037,711
2021-09-27 11:20:43.283047,660
2021-09-27 11:20:43.283057,528
2021-09-27 11:20:43.283067,344
2021-09-27 11:20:43.283076,158
2021-09-27 11:20:43.283086,-19
2021-09-27 11:20:43.283096,-166
2021-09-27 11:20:43.552630,-254
2021-09-27 11:20:43.552652,-313
2021-09-27 11:20:43.552659,-379
2021-09-27 11:20:43.552666,-425
2021-09-27 11:20:43.552672,-415
2021-09-27 11:20:43.552678,-405
2021-09-27 11:20:43.552685,-418
2021-09-27 11:20:43.552691,-401
2021-09-27 11:20:43.552697,-369
2021-09-27 11:20:43.552704,-359
2021-09-27 11:20:43.552710,-347
2021-09-27 11:20:43.552716,-317
2021-09-27 11:20:43.552722,-300
2021-09-27 11:20:43.552728,-283
2021-09-27 11:20:43.552735,-249
2021-09-27 11:20:43.552741,-239
2021-09-27 11:20:43.552747,-237
2021-09-27 11:20:43.552754,-227
2021-09-27 11:20:43.552760,-234
2021-09-27 11:20:43.552766,-210
2021-09-27 11:20:43.552772,-168
2021-09-27 11:20:43.552779,-178
2021-09-27 11:20:43.552785,-185
2021-09-27 11:20:43.552791,-156
2021-09-27 11:20:43.552797,-146
2021-09-27 11:20:43.552803,-161
2021-09-27 11:20:43.552810,-163
2021-09-27 11:20:43.552816,-151
2021-09-27 11:20:43.552822,-149
2021-09-27 11:20:43.552829,-163
2021-09-27 11:20:43.778177,-173
2021-09-27 11:20:43.778199,-146
2021-09-27 11:20:43.778206,-124
2021-09-27 11:20:43.778213,-136
2021-09-27 11:20:43.778219,-136
2021-09-27 11:20:43.778226,-110
2021-09-27 11:20:43.778232,-97
2021-09-27 11:20:43.778238,-134
2021-09-27 11:20:43.778245,-151
2021-09-27 11:20:43.778251,-97
2021-09-27 11:20:43.778257,-85
2021-09-27 11:20:43.778264,-102
2021-09-27 11:20:43.778270,-58
2021-09-27 11:20:43.778276,-66
2021-09-27 11:20:43.778283,-117
2021-09-27 11:20:43.778307,-92
2021-09-27 11:20:43.778314,-48
2021-09-27 11:20:43.778321,-80
2021-09-27 11:20:43.778327,-112
2021-09-27 11:20:43.778333,-88
2021-09-27 11:20:43.778340,-97
2021-09-27 11:20:43.778346,-110
2021-09-27 11:20:43.778353,-61
2021-09-27 11:20:43.778359,-63
2021-09-27 11:20:43.778368,-119
2021-09-27 11:20:43.778375,-144
2021-09-27 11:20:43.778382,-227
2021-09-27 11:20:43.778388,-234
2021-09-27 11:20:43.778394,249
2021-09-27 11:20:43.778401,1215
2021-09-27 11:20:44.002666,2191
2021-09-27 11:20:44.002698,2350
2021-09-27 11:20:44.002710,853
2021-09-27 11:20:44.002720,-921
2021-09-27 11:20:44.002729,-851
2021-09-27 11:20:44.002739,-166
2021-09-27 11:20:44.002749,-320
2021-09-27 11:20:44.002758,-388
2021-09-27 11:20:44.002768,-129
2021-09-27 11:20:44.002778,-95
2021-09-27 11:20:44.002787,-139
2021-09-27 11:20:44.002797,-78
2021-09-27 11:20:44.002807,-39
2021-09-27 11:20:44.002816,-31
2021-09-27 11:20:44.002826,-19
2021-09-27 11:20:44.002835,-26
2021-09-27 11:20:44.002845,4
2021-09-27 11:20:44.002854,83
2021-09-27 11:20:44.002864,53
2021-09-27 11:20:44.002873,12
2021-09-27 11:20:44.002883,100
2021-09-27 11:20:44.002893,158
2021-09-27 11:20:44.002902,166
2021-09-27 11:20:44.002912,234
2021-09-27 11:20:44.002921,303
2021-09-27 11:20:44.002931,337
2021-09-27 11:20:44.002941,403
2021-09-27 11:20:44.002950,442
2021-09-27 11:20:44.002960,435
2021-09-27 11:20:44.002970,518
2021-09-27 11:20:44.272779,643
2021-09-27 11:20:44.272812,677
2021-09-27 11:20:44.272823,679
2021-09-27 11:20:44.272834,733
2021-09-27 11:20:44.272843,733
2021-09-27 11:20:44.272853,596
2021-09-27 11:20:44.272863,427
2021-09-27 11:20:44.272873,278
2021-09-27 11:20:44.272882,80
2021-09-27 11:20:44.272892,-124
2021-09-27 11:20:44.272902,-244
2021-09-27 11:20:44.272911,-313
2021-09-27 11:20:44.272921,-364
2021-09-27 11:20:44.272931,-393
2021-09-27 11:20:44.272940,-418
2021-09-27 11:20:44.272950,-452
2021-09-27 11:20:44.272960,-445
2021-09-27 11:20:44.272970,-388
2021-09-27 11:20:44.272979,-357
2021-09-27 11:20:44.272989,-357
2021-09-27 11:20:44.272999,-349
2021-09-27 11:20:44.273008,-339
2021-09-27 11:20:44.273018,-325
2021-09-27 11:20:44.273028,-310
2021-09-27 11:20:44.273037,-300
2021-09-27 11:20:44.273047,-281
2021-09-27 11:20:44.273057,-237
2021-09-27 11:20:44.273067,-207
2021-09-27 11:20:44.273077,-220
2021-09-27 11:20:44.273086,-212
2021-09-27 11:20:44.541366,-183
2021-09-27 11:20:44.541398,-151
2021-09-27 11:20:44.541409,-166
2021-09-27 11:20:44.541419,-249
2021-09-27 11:20:44.541429,-246
2021-09-27 11:20:44.541438,-168
2021-09-27 11:20:44.541448,-163
2021-09-27 11:20:44.541457,-193
2021-09-27 11:20:44.541467,-154
2021-09-27 11:20:44.541476,-88
2021-09-27 11:20:44.541486,-85
2021-09-27 11:20:44.541495,-161
2021-09-27 11:20:44.541505,-193
2021-09-27 11:20:44.541515,-136
2021-09-27 11:20:44.541524,-124
2021-09-27 11:20:44.541561,-163
2021-09-27 11:20:44.541571,-151
2021-09-27 11:20:44.541581,-95
2021-09-27 11:20:44.541590,-63
2021-09-27 11:20:44.541600,-92
2021-09-27 11:20:44.541609,-141
2021-09-27 11:20:44.541619,-134
2021-09-27 11:20:44.541629,-83
2021-09-27 11:20:44.541638,-68
2021-09-27 11:20:44.541648,-95
2021-09-27 11:20:44.541657,-124
2021-09-27 11:20:44.541667,-139
2021-09-27 11:20:44.541677,-122
2021-09-27 11:20:44.541686,-102
2021-09-27 11:20:44.541696,-122
2021-09-27 11:20:44.677738,-122
2021-09-27 11:20:44.677761,-70
2021-09-27 11:20:44.677769,-75
2021-09-27 11:20:44.677775,-198
2021-09-27 11:20:44.677781,-271
2021-09-27 11:20:44.677788,73
2021-09-27 11:20:44.677794,948
2021-09-27 11:20:44.677800,1988
2021-09-27 11:20:44.677806,2450
2021-09-27 11:20:44.677813,1318
2021-09-27 11:20:44.677819,-660
2021-09-27 11:20:44.677825,-1061
2021-09-27 11:20:44.677831,-254
2021-09-27 11:20:44.677838,-141
2021-09-27 11:20:44.677844,-339
2021-09-27 11:20:44.677850,-202
2021-09-27 11:20:44.677856,-117
2021-09-27 11:20:44.677862,-161
2021-09-27 11:20:44.677868,-112
2021-09-27 11:20:44.677875,-41
2021-09-27 11:20:44.677881,-46
2021-09-27 11:20:44.677887,-26
2021-09-27 11:20:44.677893,14
2021-09-27 11:20:44.677899,9
2021-09-27 11:20:44.677906,-4
2021-09-27 11:20:44.677912,19
2021-09-27 11:20:44.677918,73
2021-09-27 11:20:44.677924,90
2021-09-27 11:20:44.677931,107
2021-09-27 11:20:44.677937,166
2021-09-27 11:20:44.902750,232
2021-09-27 11:20:44.902772,291
2021-09-27 11:20:44.902780,344
2021-09-27 11:20:44.902787,369
2021-09-27 11:20:44.902793,393
2021-09-27 11:20:44.902799,471
2021-09-27 11:20:44.902806,567
2021-09-27 11:20:44.902812,596
2021-09-27 11:20:44.902818,613
2021-09-27 11:20:44.902824,679
2021-09-27 11:20:44.902831,728
2021-09-27 11:20:44.902837,692
2021-09-27 11:20:44.902843,601
2021-09-27 11:20:44.902850,437
2021-09-27 11:20:44.902856,200
2021-09-27 11:20:44.902873,22
2021-09-27 11:20:44.902880,-95
2021-09-27 11:20:44.902886,-246
2021-09-27 11:20:44.902892,-366
2021-09-27 11:20:44.902898,-408
2021-09-27 11:20:44.902905,-445
2021-09-27 11:20:44.902911,-469
2021-09-27 11:20:44.902917,-447
2021-09-27 11:20:44.902923,-418
2021-09-27 11:20:44.902930,-398
2021-09-27 11:20:44.902936,-361
2021-09-27 11:20:44.902942,-344
2021-09-27 11:20:44.902948,-369
2021-09-27 11:20:44.902954,-374
2021-09-27 11:20:44.902961,-322
2021-09-27 11:20:45.127687,-291
2021-09-27 11:20:45.127723,-330
2021-09-27 11:20:45.127730,-313
2021-09-27 11:20:45.127737,-202
2021-09-27 11:20:45.127743,-193
2021-09-27 11:20:45.127750,-276
2021-09-27 11:20:45.127756,-237
2021-09-27 11:20:45.127762,-180
2021-09-27 11:20:45.127769,-237
2021-09-27 11:20:45.127775,-242
2021-09-27 11:20:45.127781,-195
2021-09-27 11:20:45.127787,-210
2021-09-27 11:20:45.127794,-217
2021-09-27 11:20:45.127800,-171
2021-09-27 11:20:45.127806,-151
2021-09-27 11:20:45.127812,-195
2021-09-27 11:20:45.127819,-188
2021-09-27 11:20:45.127825,-129
2021-09-27 11:20:45.127831,-154
2021-09-27 11:20:45.127837,-180
2021-09-27 11:20:45.127844,-132
2021-09-27 11:20:45.127850,-122
2021-09-27 11:20:45.127856,-156
2021-09-27 11:20:45.127862,-163
2021-09-27 11:20:45.127869,-154
2021-09-27 11:20:45.127875,-154
2021-09-27 11:20:45.127881,-139
2021-09-27 11:20:45.127887,-90
2021-09-27 11:20:45.127894,-44
2021-09-27 11:20:45.127900,-53
2021-09-27 11:20:45.352712,-97
2021-09-27 11:20:45.352744,-92
2021-09-27 11:20:45.352756,-78
2021-09-27 11:20:45.352766,-117
2021-09-27 11:20:45.352775,-124
2021-09-27 11:20:45.352785,-88
2021-09-27 11:20:45.352795,-75
2021-09-27 11:20:45.352805,-97
2021-09-27 11:20:45.352814,-95
2021-09-27 11:20:45.352824,-53
2021-09-27 11:20:45.352834,-70
2021-09-27 11:20:45.352843,-132
2021-09-27 11:20:45.352853,-190
2021-09-27 11:20:45.352863,-224
2021-09-27 11:20:45.352872,44
2021-09-27 11:20:45.352882,865
2021-09-27 11:20:45.352892,1956
2021-09-27 11:20:45.352901,2543
2021-09-27 11:20:45.352911,1506
2021-09-27 11:20:45.352921,-574
2021-09-27 11:20:45.352930,-1134
2021-09-27 11:20:45.352940,-271
2021-09-27 11:20:45.352950,-112
2021-09-27 11:20:45.352959,-374
2021-09-27 11:20:45.352969,-183
2021-09-27 11:20:45.352978,-46
2021-09-27 11:20:45.352988,-141
2021-09-27 11:20:45.352998,-134
2021-09-27 11:20:45.353007,-41
2021-09-27 11:20:45.353017,-22
2021-09-27 11:20:45.622635,-26
2021-09-27 11:20:45.622668,-14
2021-09-27 11:20:45.622680,7
2021-09-27 11:20:45.622690,36
2021-09-27 11:20:45.622700,36
2021-09-27 11:20:45.622710,31
2021-09-27 11:20:45.622720,107
2021-09-27 11:20:45.622729,183
2021-09-27 11:20:45.622739,141
2021-09-27 11:20:45.622749,136
2021-09-27 11:20:45.622759,244
2021-09-27 11:20:45.622769,283
2021-09-27 11:20:45.622778,283
2021-09-27 11:20:45.622788,381
2021-09-27 11:20:45.622798,464
2021-09-27 11:20:45.622807,491
2021-09-27 11:20:45.622817,577
2021-09-27 11:20:45.622827,662
2021-09-27 11:20:45.622836,670
2021-09-27 11:20:45.622846,670
2021-09-27 11:20:45.622856,662
2021-09-27 11:20:45.622866,591
2021-09-27 11:20:45.622875,474
2021-09-27 11:20:45.622885,278
2021-09-27 11:20:45.622895,44
2021-09-27 11:20:45.622905,-132
2021-09-27 11:20:45.622915,-273
2021-09-27 11:20:45.622925,-386
2021-09-27 11:20:45.622934,-415
2021-09-27 11:20:45.622944,-408
2021-09-27 11:20:45.847724,-425
2021-09-27 11:20:45.847747,-440
2021-09-27 11:20:45.847754,-413
2021-09-27 11:20:45.847760,-388
2021-09-27 11:20:45.847767,-388
2021-09-27 11:20:45.847773,-381
2021-09-27 11:20:45.847779,-361
2021-09-27 11:20:45.847785,-352
2021-09-27 11:20:45.847792,-332
2021-09-27 11:20:45.847798,-293
2021-09-27 11:20:45.847804,-288
2021-09-27 11:20:45.847810,-327
2021-09-27 11:20:45.847816,-298
2021-09-27 11:20:45.847823,-242
2021-09-27 11:20:45.847829,-256
2021-09-27 11:20:45.847835,-254
2021-09-27 11:20:45.847841,-220
2021-09-27 11:20:45.847847,-220
2021-09-27 11:20:45.847853,-234
2021-09-27 11:20:45.847860,-234
2021-09-27 11:20:45.847866,-207
2021-09-27 11:20:45.847872,-183
2021-09-27 11:20:45.847878,-190
2021-09-27 11:20:45.847884,-185
2021-09-27 11:20:45.847890,-154
2021-09-27 11:20:45.847897,-139
2021-09-27 11:20:45.847903,-132
2021-09-27 11:20:45.847909,-134
2021-09-27 11:20:45.847915,-161
2021-09-27 11:20:45.847921,-151
2021-09-27 11:20:46.072663,-119
2021-09-27 11:20:46.072696,-146
2021-09-27 11:20:46.072707,-176
2021-09-27 11:20:46.072717,-132
2021-09-27 11:20:46.072727,-110
2021-09-27 11:20:46.072737,-146
2021-09-27 11:20:46.072747,-154
2021-09-27 11:20:46.072756,-97
2021-09-27 11:20:46.072766,-70
2021-09-27 11:20:46.072776,-110
2021-09-27 11:20:46.072785,-114
2021-09-27 11:20:46.072795,-48
2021-09-27 11:20:46.072804,-36
2021-09-27 11:20:46.072814,-129
2021-09-27 11:20:46.072824,-180
2021-09-27 11:20:46.072833,-122
2021-09-27 11:20:46.072843,-83
2021-09-27 11:20:46.072853,-119
2021-09-27 11:20:46.072863,-134
2021-09-27 11:20:46.072872,-110
2021-09-27 11:20:46.072882,-102
2021-09-27 11:20:46.072892,-127
2021-09-27 11:20:46.072901,-198
2021-09-27 11:20:46.072911,-237
2021-09-27 11:20:46.072921,90
2021-09-27 11:20:46.072931,948
2021-09-27 11:20:46.072940,1993
2021-09-27 11:20:46.072950,2518
2021-09-27 11:20:46.072960,1494
2021-09-27 11:20:46.072970,-525
2021-09-27 11:20:46.297783,-1107
2021-09-27 11:20:46.297816,-327
2021-09-27 11:20:46.297828,-163
2021-09-27 11:20:46.297838,-354
2021-09-27 11:20:46.297847,-156
2021-09-27 11:20:46.297857,-51
2021-09-27 11:20:46.297867,-146
2021-09-27 11:20:46.297876,-107
2021-09-27 11:20:46.297886,-26
2021-09-27 11:20:46.297896,-46
2021-09-27 11:20:46.297905,-24
2021-09-27 11:20:46.297915,34
2021-09-27 11:20:46.297925,9
2021-09-27 11:20:46.297935,-12
2021-09-27 11:20:46.297944,51
2021-09-27 11:20:46.297954,110
2021-09-27 11:20:46.297964,112
2021-09-27 11:20:46.297973,129
2021-09-27 11:20:46.297983,190
2021-09-27 11:20:46.297992,217
2021-09-27 11:20:46.298002,237
2021-09-27 11:20:46.298012,332
2021-09-27 11:20:46.298021,398
2021-09-27 11:20:46.298031,408
2021-09-27 11:20:46.298041,471
2021-09-27 11:20:46.298050,555
2021-09-27 11:20:46.298060,594
2021-09-27 11:20:46.298069,643
2021-09-27 11:20:46.298079,689
2021-09-27 11:20:46.298089,689
2021-09-27 11:20:46.566343,699
2021-09-27 11:20:46.566366,645
2021-09-27 11:20:46.566374,437
2021-09-27 11:20:46.566380,220
2021-09-27 11:20:46.566387,58
2021-09-27 11:20:46.566393,-129
2021-09-27 11:20:46.566400,-293
2021-09-27 11:20:46.566406,-376
2021-09-27 11:20:46.566412,-425
2021-09-27 11:20:46.566418,-459
2021-09-27 11:20:46.566425,-469
2021-09-27 11:20:46.566431,-469
2021-09-27 11:20:46.566437,-469
2021-09-27 11:20:46.566443,-437
2021-09-27 11:20:46.566450,-391
2021-09-27 11:20:46.566456,-393
2021-09-27 11:20:46.566462,-413
2021-09-27 11:20:46.566468,-381
2021-09-27 11:20:46.566475,-349
2021-09-27 11:20:46.566481,-359
2021-09-27 11:20:46.566487,-354
2021-09-27 11:20:46.566493,-295
2021-09-27 11:20:46.566500,-278
2021-09-27 11:20:46.566506,-337
2021-09-27 11:20:46.566512,-313
2021-09-27 11:20:46.566519,-229
2021-09-27 11:20:46.566525,-229
2021-09-27 11:20:46.566531,-242
2021-09-27 11:20:46.566537,-220
2021-09-27 11:20:46.566544,-234
2021-09-27 11:20:46.747712,-246
2021-09-27 11:20:46.747735,-207
2021-09-27 11:20:46.747743,-180
2021-09-27 11:20:46.747749,-183
2021-09-27 11:20:46.747755,-176
2021-09-27 11:20:46.747762,-193
2021-09-27 11:20:46.747768,-210
2021-09-27 11:20:46.747774,-190
2021-09-27 11:20:46.747780,-171
2021-09-27 11:20:46.747787,-166
2021-09-27 11:20:46.747793,-166
2021-09-27 11:20:46.747799,-173
2021-09-27 11:20:46.747805,-173
2021-09-27 11:20:46.747812,-132
2021-09-27 11:20:46.747818,-105
2021-09-27 11:20:46.747824,-132
2021-09-27 11:20:46.747830,-141
2021-09-27 11:20:46.747837,-117
2021-09-27 11:20:46.747843,-127
2021-09-27 11:20:46.747849,-144
2021-09-27 11:20:46.747855,-127
2021-09-27 11:20:46.747861,-127
2021-09-27 11:20:46.747867,-139
2021-09-27 11:20:46.747874,-134
2021-09-27 11:20:46.747880,-119
2021-09-27 11:20:46.747896,-124
2021-09-27 11:20:46.747903,-144
2021-09-27 11:20:46.747909,-154
2021-09-27 11:20:46.747915,-185
2021-09-27 11:20:46.747921,-195
2021-09-27 11:20:46.972747,156
2021-09-27 11:20:46.972772,1080
2021-09-27 11:20:46.972780,2152
2021-09-27 11:20:46.972786,2460
2021-09-27 11:20:46.972793,1068
2021-09-27 11:20:46.972799,-912
2021-09-27 11:20:46.972805,-1058
2021-09-27 11:20:46.972812,-185
2021-09-27 11:20:46.972818,-188
2021-09-27 11:20:46.972824,-391
2021-09-27 11:20:46.972830,-180
2021-09-27 11:20:46.972837,-70
2021-09-27 11:20:46.972843,-122
2021-09-27 11:20:46.972849,-97
2021-09-27 11:20:46.972855,-44
2021-09-27 11:20:46.972861,-58
2021-09-27 11:20:46.972868,-53
2021-09-27 11:20:46.972874,-2
2021-09-27 11:20:46.972880,2
2021-09-27 11:20:46.972886,4
2021-09-27 11:20:46.972893,70
2021-09-27 11:20:46.972899,110
2021-09-27 11:20:46.972905,97
2021-09-27 11:20:46.972911,132
2021-09-27 11:20:46.972918,210
2021-09-27 11:20:46.972924,244
2021-09-27 11:20:46.972930,266
2021-09-27 11:20:46.972937,325
2021-09-27 11:20:46.972943,393
2021-09-27 11:20:46.972949,471
2021-09-27 11:20:47.286833,535
2021-09-27 11:20:47.286855,577
2021-09-27 11:20:47.286862,648
2021-09-27 11:20:47.286869,709
2021-09-27 11:20:47.286875,721
2021-09-27 11:20:47.286881,726
2021-09-27 11:20:47.286888,684
2021-09-27 11:20:47.286894,557
2021-09-27 11:20:47.286900,354
2021-09-27 11:20:47.286907,112
2021-09-27 11:20:47.286913,-66
2021-09-27 11:20:47.286919,-178
2021-09-27 11:20:47.286926,-288
2021-09-27 11:20:47.286932,-376
2021-09-27 11:20:47.286938,-410
2021-09-27 11:20:47.286945,-425
2021-09-27 11:20:47.286951,-449
2021-09-27 11:20:47.286957,-467
2021-09-27 11:20:47.286964,-435
2021-09-27 11:20:47.286970,-393
2021-09-27 11:20:47.286976,-401
2021-09-27 11:20:47.286983,-410
2021-09-27 11:20:47.286989,-376
2021-09-27 11:20:47.286995,-347
2021-09-27 11:20:47.287002,-339
2021-09-27 11:20:47.287008,-322
2021-09-27 11:20:47.287014,-286
2021-09-27 11:20:47.287021,-283
2021-09-27 11:20:47.287027,-286
2021-09-27 11:20:47.287033,-246
2021-09-27 11:20:47.467760,-229
2021-09-27 11:20:47.467783,-246
2021-09-27 11:20:47.467790,-229
2021-09-27 11:20:47.467797,-215
2021-09-27 11:20:47.467803,-217
2021-09-27 11:20:47.467809,-188
2021-09-27 11:20:47.467816,-180
2021-09-27 11:20:47.467822,-210
2021-09-27 11:20:47.467828,-212
2021-09-27 11:20:47.467834,-185
2021-09-27 11:20:47.467841,-168
2021-09-27 11:20:47.467847,-163
2021-09-27 11:20:47.467853,-156
2021-09-27 11:20:47.467859,-149
2021-09-27 11:20:47.467866,-129
2021-09-27 11:20:47.467872,-124
2021-09-27 11:20:47.467878,-151
2021-09-27 11:20:47.467884,-173
2021-09-27 11:20:47.467891,-158
2021-09-27 11:20:47.467897,-129
2021-09-27 11:20:47.467903,-127
2021-09-27 11:20:47.467909,-136
2021-09-27 11:20:47.467916,-114
2021-09-27 11:20:47.467922,-75
2021-09-27 11:20:47.467928,-66
2021-09-27 11:20:47.467934,-80
2021-09-27 11:20:47.467940,-114
2021-09-27 11:20:47.467947,-149
2021-09-27 11:20:47.467953,-134
2021-09-27 11:20:47.467959,-110
2021-09-27 11:20:47.692742,-107
2021-09-27 11:20:47.692765,-110
2021-09-27 11:20:47.692773,-100
2021-09-27 11:20:47.692779,-61
2021-09-27 11:20:47.692786,-44
2021-09-27 11:20:47.692792,-139
2021-09-27 11:20:47.692799,-266
2021-09-27 11:20:47.692805,-127
2021-09-27 11:20:47.692811,572
2021-09-27 11:20:47.692818,1650
2021-09-27 11:20:47.692824,2443
2021-09-27 11:20:47.692831,1993
2021-09-27 11:20:47.692837,100
2021-09-27 11:20:47.692843,-1166
2021-09-27 11:20:47.692850,-589
2021-09-27 11:20:47.692856,-39
2021-09-27 11:20:47.692862,-264
2021-09-27 11:20:47.692868,-244
2021-09-27 11:20:47.692884,-36
2021-09-27 11:20:47.692892,-73
2021-09-27 11:20:47.692898,-127
2021-09-27 11:20:47.692905,-58
2021-09-27 11:20:47.692911,-14
2021-09-27 11:20:47.692917,-24
2021-09-27 11:20:47.692923,-4
2021-09-27 11:20:47.692930,36
2021-09-27 11:20:47.692936,56
2021-09-27 11:20:47.692942,78
2021-09-27 11:20:47.692949,95
2021-09-27 11:20:47.692955,90
2021-09-27 11:20:47.917822,122
2021-09-27 11:20:47.917854,183
2021-09-27 11:20:47.917866,212
2021-09-27 11:20:47.917876,232
2021-09-27 11:20:47.917886,269
2021-09-27 11:20:47.917895,335
2021-09-27 11:20:47.917905,423
2021-09-27 11:20:47.917915,486
2021-09-27 11:20:47.917924,540
2021-09-27 11:20:47.917934,611
2021-09-27 11:20:47.917944,650
2021-09-27 11:20:47.917953,650
2021-09-27 11:20:47.917963,679
2021-09-27 11:20:47.917972,694
2021-09-27 11:20:47.917982,621
2021-09-27 11:20:47.917991,486
2021-09-27 11:20:47.918001,308
2021-09-27 11:20:47.918011,90
2021-09-27 11:20:47.918020,-122
2021-09-27 11:20:47.918030,-242
2021-09-27 11:20:47.918040,-286
2021-09-27 11:20:47.918049,-393
2021-09-27 11:20:47.918059,-469
2021-09-27 11:20:47.918068,-423
2021-09-27 11:20:47.918078,-410
2021-09-27 11:20:47.918088,-437
2021-09-27 11:20:47.918098,-401
2021-09-27 11:20:47.918107,-388
2021-09-27 11:20:47.918117,-415
2021-09-27 11:20:47.918127,-398
2021-09-27 11:20:48.142675,-366
2021-09-27 11:20:48.142707,-349
2021-09-27 11:20:48.142719,-315
2021-09-27 11:20:48.142729,-288
2021-09-27 11:20:48.142740,-283
2021-09-27 11:20:48.142749,-269
2021-09-27 11:20:48.142759,-259
2021-09-27 11:20:48.142769,-286
2021-09-27 11:20:48.142779,-303
2021-09-27 11:20:48.142788,-256
2021-09-27 11:20:48.142798,-222
2021-09-27 11:20:48.142807,-232
2021-09-27 11:20:48.142817,-224
2021-09-27 11:20:48.142827,-210
2021-09-27 11:20:48.142836,-195
2021-09-27 11:20:48.142846,-180
2021-09-27 11:20:48.142856,-185
2021-09-27 11:20:48.142865,-183
2021-09-27 11:20:48.142875,-168
2021-09-27 11:20:48.142885,-166
2021-09-27 11:20:48.142894,-183
2021-09-27 11:20:48.142904,-183
2021-09-27 11:20:48.142914,-122
2021-09-27 11:20:48.142923,-110
2021-09-27 11:20:48.142933,-161
2021-09-27 11:20:48.142943,-136
2021-09-27 11:20:48.142952,-95
2021-09-27 11:20:48.142962,-134
2021-09-27 11:20:48.142972,-129
2021-09-27 11:20:48.142982,-102
2021-09-27 11:20:48.412756,-146
2021-09-27 11:20:48.412779,-168
2021-09-27 11:20:48.412786,-105
2021-09-27 11:20:48.412793,-61
2021-09-27 11:20:48.412799,-73
2021-09-27 11:20:48.412805,-53
2021-09-27 11:20:48.412812,-29
2021-09-27 11:20:48.412818,-70
2021-09-27 11:20:48.412824,-110
2021-09-27 11:20:48.412830,-114
2021-09-27 11:20:48.412837,-124
2021-09-27 11:20:48.412843,-114
2021-09-27 11:20:48.412849,-97
2021-09-27 11:20:48.412855,-90
2021-09-27 11:20:48.412862,-83
2021-09-27 11:20:48.412868,-75
2021-09-27 11:20:48.412874,-70
2021-09-27 11:20:48.412900,-117
2021-09-27 11:20:48.412907,-215
2021-09-27 11:20:48.412914,-171
2021-09-27 11:20:48.412920,376
2021-09-27 11:20:48.412926,1413
2021-09-27 11:20:48.412933,2367
2021-09-27 11:20:48.412939,2284
2021-09-27 11:20:48.412945,542
2021-09-27 11:20:48.412951,-1090
2021-09-27 11:20:48.412958,-748
2021-09-27 11:20:48.412964,-63
2021-09-27 11:20:48.412970,-254
2021-09-27 11:20:48.412976,-266
2021-09-27 11:20:48.636402,-29
2021-09-27 11:20:48.636459,-78
2021-09-27 11:20:48.636467,-134
2021-09-27 11:20:48.636473,-17
2021-09-27 11:20:48.636480,9
2021-09-27 11:20:48.636486,-70
2021-09-27 11:20:48.636492,-51
2021-09-27 11:20:48.636499,31
2021-09-27 11:20:48.636505,44
2021-09-27 11:20:48.636511,29
2021-09-27 11:20:48.636518,75
2021-09-27 11:20:48.636524,134
2021-09-27 11:20:48.636530,139
2021-09-27 11:20:48.636536,178
2021-09-27 11:20:48.636543,237
2021-09-27 11:20:48.636549,224
2021-09-27 11:20:48.636555,220
2021-09-27 11:20:48.636561,313
2021-09-27 11:20:48.636568,415
2021-09-27 11:20:48.636574,469
2021-09-27 11:20:48.636580,511
2021-09-27 11:20:48.636586,574
2021-09-27 11:20:48.636593,660
2021-09-27 11:20:48.636599,714
2021-09-27 11:20:48.636606,704
2021-09-27 11:20:48.636612,701
2021-09-27 11:20:48.636618,674
2021-09-27 11:20:48.636625,518
2021-09-27 11:20:48.636631,308
2021-09-27 11:20:48.636637,136
2021-09-27 11:20:48.862670,-34
2021-09-27 11:20:48.862702,-185
2021-09-27 11:20:48.862713,-300
2021-09-27 11:20:48.862723,-376
2021-09-27 11:20:48.862733,-415
2021-09-27 11:20:48.862743,-445
2021-09-27 11:20:48.862753,-452
2021-09-27 11:20:48.862762,-413
2021-09-27 11:20:48.862772,-374
2021-09-27 11:20:48.862781,-391
2021-09-27 11:20:48.862791,-430
2021-09-27 11:20:48.862801,-420
2021-09-27 11:20:48.862811,-376
2021-09-27 11:20:48.862820,-349
2021-09-27 11:20:48.862830,-327
2021-09-27 11:20:48.862839,-310
2021-09-27 11:20:48.862849,-313
2021-09-27 11:20:48.862858,-283
2021-09-27 11:20:48.862868,-237
2021-09-27 11:20:48.862878,-237
2021-09-27 11:20:48.862887,-242
2021-09-27 11:20:48.862897,-207
2021-09-27 11:20:48.862906,-198
2021-09-27 11:20:48.862916,-210
2021-09-27 11:20:48.862925,-198
2021-09-27 11:20:48.862935,-190
2021-09-27 11:20:48.862945,-215
2021-09-27 11:20:48.862954,-198
2021-09-27 11:20:48.862964,-139
2021-09-27 11:20:48.862974,-141
2021-09-27 11:20:49.042839,-161
2021-09-27 11:20:49.042871,-134
2021-09-27 11:20:49.042882,-102
2021-09-27 11:20:49.042892,-112
2021-09-27 11:20:49.042902,-146
2021-09-27 11:20:49.042912,-136
2021-09-27 11:20:49.042921,-92
2021-09-27 11:20:49.042931,-117
2021-09-27 11:20:49.042941,-163
2021-09-27 11:20:49.042950,-144
2021-09-27 11:20:49.042960,-129
2021-09-27 11:20:49.042970,-119
2021-09-27 11:20:49.042979,-73
2021-09-27 11:20:49.042989,-56
2021-09-27 11:20:49.042999,-85
2021-09-27 11:20:49.043008,-97
2021-09-27 11:20:49.043018,-100
2021-09-27 11:20:49.043027,-127
2021-09-27 11:20:49.043037,-114
2021-09-27 11:20:49.043047,-61
2021-09-27 11:20:49.043056,-36
2021-09-27 11:20:49.043066,-36
2021-09-27 11:20:49.043076,-44
2021-09-27 11:20:49.043085,-53
2021-09-27 11:20:49.043095,-39
2021-09-27 11:20:49.043105,-22
2021-09-27 11:20:49.043115,-75
2021-09-27 11:20:49.043125,-107
2021-09-27 11:20:49.043134,-53
2021-09-27 11:20:49.043144,-31
2021-09-27 11:20:49.312720,-56
2021-09-27 11:20:49.312742,-61
2021-09-27 11:20:49.312750,-36
2021-09-27 11:20:49.312757,-26
2021-09-27 11:20:49.312763,-48
2021-09-27 11:20:49.312770,-92
2021-09-27 11:20:49.312776,-163
2021-09-27 11:20:49.312782,-36
2021-09-27 11:20:49.312789,594
2021-09-27 11:20:49.312795,1547
2021-09-27 11:20:49.312801,2286
2021-09-27 11:20:49.312808,1919
2021-09-27 11:20:49.312814,110
2021-09-27 11:20:49.312820,-1088
2021-09-27 11:20:49.312827,-515
2021-09-27 11:20:49.312833,-85
2021-09-27 11:20:49.312840,-322
2021-09-27 11:20:49.312846,-217
2021-09-27 11:20:49.312853,-39
2021-09-27 11:20:49.312859,-107
2021-09-27 11:20:49.312865,-85
2021-09-27 11:20:49.312872,4
2021-09-27 11:20:49.312878,-26
2021-09-27 11:20:49.312884,-41
2021-09-27 11:20:49.312891,0
2021-09-27 11:20:49.312897,4
2021-09-27 11:20:49.312904,26
2021-09-27 11:20:49.312910,56
2021-09-27 11:20:49.312916,56
2021-09-27 11:20:49.312923,100
2021-09-27 11:20:49.537796,151
2021-09-27 11:20:49.537828,158
2021-09-27 11:20:49.537839,183
2021-09-27 11:20:49.537849,224
2021-09-27 11:20:49.537859,246
2021-09-27 11:20:49.537868,288
2021-09-27 11:20:49.537878,344
2021-09-27 11:20:49.537887,408
2021-09-27 11:20:49.537897,447
2021-09-27 11:20:49.537906,459
2021-09-27 11:20:49.537916,508
2021-09-27 11:20:49.537925,574
2021-09-27 11:20:49.537935,594
2021-09-27 11:20:49.537944,557
2021-09-27 11:20:49.537954,491
2021-09-27 11:20:49.537964,401
2021-09-27 11:20:49.537973,249
2021-09-27 11:20:49.537983,75
2021-09-27 11:20:49.537992,-53
2021-09-27 11:20:49.538002,-161
2021-09-27 11:20:49.538012,-269
2021-09-27 11:20:49.538021,-330
2021-09-27 11:20:49.538031,-352
2021-09-27 11:20:49.538040,-388
2021-09-27 11:20:49.538049,-415
2021-09-27 11:20:49.538059,-401
2021-09-27 11:20:49.538068,-403
2021-09-27 11:20:49.538078,-408
2021-09-27 11:20:49.538087,-354
2021-09-27 11:20:49.538097,-317
2021-09-27 11:20:49.807227,-339
2021-09-27 11:20:49.807260,-317
2021-09-27 11:20:49.807272,-249
2021-09-27 11:20:49.807282,-239
2021-09-27 11:20:49.807292,-232
2021-09-27 11:20:49.807301,-198
2021-09-27 11:20:49.807311,-190
2021-09-27 11:20:49.807320,-190
2021-09-27 11:20:49.807330,-193
2021-09-27 11:20:49.807339,-176
2021-09-27 11:20:49.807349,-149
2021-09-27 11:20:49.807359,-151
2021-09-27 11:20:49.807368,-158
2021-09-27 11:20:49.807377,-156
2021-09-27 11:20:49.807387,-154
2021-09-27 11:20:49.807396,-144
2021-09-27 11:20:49.807406,-136
2021-09-27 11:20:49.807415,-161
2021-09-27 11:20:49.807425,-168
2021-09-27 11:20:49.807434,-124
2021-09-27 11:20:49.807444,-119
2021-09-27 11:20:49.807453,-141
2021-09-27 11:20:49.807463,-127
2021-09-27 11:20:49.807472,-107
2021-09-27 11:20:49.807482,-105
2021-09-27 11:20:49.807491,-102
2021-09-27 11:20:49.807501,-102
2021-09-27 11:20:49.807510,-105
2021-09-27 11:20:49.807520,-66
2021-09-27 11:20:49.807529,-29
2021-09-27 11:20:50.077108,-63
2021-09-27 11:20:50.077132,-97
2021-09-27 11:20:50.077140,-75
2021-09-27 11:20:50.077147,-58
2021-09-27 11:20:50.077153,-41
2021-09-27 11:20:50.077160,-4
2021-09-27 11:20:50.077198,2
2021-09-27 11:20:50.077204,-19
2021-09-27 11:20:50.077211,-24
2021-09-27 11:20:50.077217,-26
2021-09-27 11:20:50.077223,-61
2021-09-27 11:20:50.077229,-80
2021-09-27 11:20:50.077236,-44
2021-09-27 11:20:50.077242,-36
2021-09-27 11:20:50.077248,-75
2021-09-27 11:20:50.077254,-63
2021-09-27 11:20:50.077261,-31
2021-09-27 11:20:50.077267,-58
2021-09-27 11:20:50.077273,-90
2021-09-27 11:20:50.077279,-97
2021-09-27 11:20:50.077285,-151
2021-09-27 11:20:50.077292,-92
2021-09-27 11:20:50.077298,405
2021-09-27 11:20:50.077304,1281
2021-09-27 11:20:50.077311,2044
2021-09-27 11:20:50.077317,1934
2021-09-27 11:20:50.077323,420
2021-09-27 11:20:50.077329,-997
2021-09-27 11:20:50.077336,-711
2021-09-27 11:20:50.077342,-136
2021-09-27 11:20:50.212385,-281
2021-09-27 11:20:50.212409,-244
2021-09-27 11:20:50.212417,-26
2021-09-27 11:20:50.212423,-51
2021-09-27 11:20:50.212430,-61
2021-09-27 11:20:50.212436,46
2021-09-27 11:20:50.212443,46
2021-09-27 11:20:50.212449,-24
2021-09-27 11:20:50.212455,-2
2021-09-27 11:20:50.212461,51
2021-09-27 11:20:50.212468,68
2021-09-27 11:20:50.212474,105
2021-09-27 11:20:50.212480,141
2021-09-27 11:20:50.212487,154
2021-09-27 11:20:50.212493,144
2021-09-27 11:20:50.212499,146
2021-09-27 11:20:50.212505,217
2021-09-27 11:20:50.212512,283
2021-09-27 11:20:50.212518,281
2021-09-27 11:20:50.212524,300
2021-09-27 11:20:50.212531,357
2021-09-27 11:20:50.212537,405
2021-09-27 11:20:50.212543,474
2021-09-27 11:20:50.212549,535
2021-09-27 11:20:50.212555,547
2021-09-27 11:20:50.212562,572
2021-09-27 11:20:50.212568,613
2021-09-27 11:20:50.212574,652
2021-09-27 11:20:50.212581,635
2021-09-27 11:20:50.212587,476
2021-09-27 11:20:50.482750,281
2021-09-27 11:20:50.482774,139
2021-09-27 11:20:50.482782,-4
2021-09-27 11:20:50.482789,-149
2021-09-27 11:20:50.482795,-281
2021-09-27 11:20:50.482801,-376
2021-09-27 11:20:50.482807,-403
2021-09-27 11:20:50.482814,-396
2021-09-27 11:20:50.482820,-418
2021-09-27 11:20:50.482826,-440
2021-09-27 11:20:50.482833,-432
2021-09-27 11:20:50.482839,-442
2021-09-27 11:20:50.482845,-430
2021-09-27 11:20:50.482851,-342
2021-09-27 11:20:50.482858,-308
2021-09-27 11:20:50.482864,-332
2021-09-27 11:20:50.482870,-310
2021-09-27 11:20:50.482877,-291
2021-09-27 11:20:50.482883,-286
2021-09-27 11:20:50.482889,-273
2021-09-27 11:20:50.482895,-264
2021-09-27 11:20:50.482902,-246
2021-09-27 11:20:50.482908,-239
2021-09-27 11:20:50.482914,-237
2021-09-27 11:20:50.482921,-227
2021-09-27 11:20:50.482927,-222
2021-09-27 11:20:50.482933,-224
2021-09-27 11:20:50.482939,-244
2021-09-27 11:20:50.482946,-220
2021-09-27 11:20:50.482952,-171
2021-09-27 11:20:50.841640,-205
2021-09-27 11:20:50.841674,-224
2021-09-27 11:20:50.841686,-163
2021-09-27 11:20:50.841697,-154
2021-09-27 11:20:50.841706,-185
2021-09-27 11:20:50.841716,-176
2021-09-27 11:20:50.841759,-190
2021-09-27 11:20:50.841768,-217
2021-09-27 11:20:50.841778,-144
2021-09-27 11:20:50.841788,-92
2021-09-27 11:20:50.841798,-144
2021-09-27 11:20:50.841807,-149
2021-09-27 11:20:50.841817,-127
2021-09-27 11:20:50.841827,-136
2021-09-27 11:20:50.841836,-117
2021-09-27 11:20:50.841860,-85
2021-09-27 11:20:50.841870,-100
2021-09-27 11:20:50.841880,-110
2021-09-27 11:20:50.841890,-92
2021-09-27 11:20:50.841899,-80
2021-09-27 11:20:50.841909,-73
2021-09-27 11:20:50.841919,-73
2021-09-27 11:20:50.841928,-61
2021-09-27 11:20:50.841938,-48
2021-09-27 11:20:50.841948,-100
2021-09-27 11:20:50.841957,-124
2021-09-27 11:20:50.841967,-63
2021-09-27 11:20:50.841977,-61
2021-09-27 11:20:50.841986,-129
2021-09-27 11:20:50.841996,-112
2021-09-27 11:20:50.977173,-63
2021-09-27 11:20:50.977196,-97
2021-09-27 11:20:50.977203,-107
2021-09-27 11:20:50.977210,-114
2021-09-27 11:20:50.977216,-210
2021-09-27 11:20:50.977223,-31
2021-09-27 11:20:50.977229,787
2021-09-27 11:20:50.977235,1875
2021-09-27 11:20:50.977242,2467
2021-09-27 11:20:50.977248,1614
2021-09-27 11:20:50.977254,-386
2021-09-27 11:20:50.977260,-1142
2021-09-27 11:20:50.977267,-349
2021-09-27 11:20:50.977273,-95
2021-09-27 11:20:50.977279,-342
2021-09-27 11:20:50.977285,-185
2021-09-27 11:20:50.977292,-31
2021-09-27 11:20:50.977298,-90
2021-09-27 11:20:50.977304,-90
2021-09-27 11:20:50.977310,-51
2021-09-27 11:20:50.977317,-48
2021-09-27 11:20:50.977323,-36
2021-09-27 11:20:50.977329,-2
2021-09-27 11:20:50.977335,24
2021-09-27 11:20:50.977342,46
2021-09-27 11:20:50.977348,66
2021-09-27 11:20:50.977354,70
2021-09-27 11:20:50.977361,85
2021-09-27 11:20:50.977367,114
2021-09-27 11:20:50.977373,149
2021-09-27 11:20:51.157825,200
2021-09-27 11:20:51.157856,246
2021-09-27 11:20:51.157868,278
2021-09-27 11:20:51.157878,332
2021-09-27 11:20:51.157888,386
2021-09-27 11:20:51.157918,447
2021-09-27 11:20:51.157928,540
2021-09-27 11:20:51.157938,618
2021-09-27 11:20:51.157947,626
2021-09-27 11:20:51.157957,630
2021-09-27 11:20:51.157967,694
2021-09-27 11:20:51.157976,696
2021-09-27 11:20:51.157986,577
2021-09-27 11:20:51.157996,459
2021-09-27 11:20:51.158005,320
2021-09-27 11:20:51.158015,85
2021-09-27 11:20:51.158025,-119
2021-09-27 11:20:51.158035,-224
2021-09-27 11:20:51.158045,-288
2021-09-27 11:20:51.158055,-342
2021-09-27 11:20:51.158064,-410
2021-09-27 11:20:51.158074,-449
2021-09-27 11:20:51.158083,-415
2021-09-27 11:20:51.158093,-393
2021-09-27 11:20:51.158103,-391
2021-09-27 11:20:51.158112,-391
2021-09-27 11:20:51.158122,-396
2021-09-27 11:20:51.158132,-376
2021-09-27 11:20:51.158142,-335
2021-09-27 11:20:51.158151,-308
2021-09-27 11:20:51.382766,-310
2021-09-27 11:20:51.382788,-286
2021-09-27 11:20:51.382796,-244
2021-09-27 11:20:51.382803,-259
2021-09-27 11:20:51.382809,-246
2021-09-27 11:20:51.382816,-215
2021-09-27 11:20:51.382822,-244
2021-09-27 11:20:51.382828,-234
2021-09-27 11:20:51.382834,-205
2021-09-27 11:20:51.382841,-246
2021-09-27 11:20:51.382847,-259
2021-09-27 11:20:51.382853,-227
2021-09-27 11:20:51.382859,-212
2021-09-27 11:20:51.382866,-151
2021-09-27 11:20:51.382872,-119
2021-09-27 11:20:51.382878,-195
2021-09-27 11:20:51.382884,-220
2021-09-27 11:20:51.382891,-156
2021-09-27 11:20:51.382897,-168
2021-09-27 11:20:51.382903,-217
2021-09-27 11:20:51.382909,-183
2021-09-27 11:20:51.382915,-146
2021-09-27 11:20:51.382922,-156
2021-09-27 11:20:51.382928,-124
2021-09-27 11:20:51.382934,-90
2021-09-27 11:20:51.382941,-136
2021-09-27 11:20:51.382947,-144
2021-09-27 11:20:51.382953,-95
2021-09-27 11:20:51.382959,-129
2021-09-27 11:20:51.382966,-173
2021-09-27 11:20:51.607748,-134
2021-09-27 11:20:51.607771,-88
2021-09-27 11:20:51.607779,-105
2021-09-27 11:20:51.607786,-117
2021-09-27 11:20:51.607792,-80
2021-09-27 11:20:51.607798,-48
2021-09-27 11:20:51.607805,-39
2021-09-27 11:20:51.607811,-100
2021-09-27 11:20:51.607817,-207
2021-09-27 11:20:51.607823,-227
2021-09-27 11:20:51.607830,-168
2021-09-27 11:20:51.607836,-124
2021-09-27 11:20:51.607842,-92
2021-09-27 11:20:51.607848,-88
2021-09-27 11:20:51.607855,-112
2021-09-27 11:20:51.607861,-112
2021-09-27 11:20:51.607867,-124
2021-09-27 11:20:51.607873,-222
2021-09-27 11:20:51.607880,-269
2021-09-27 11:20:51.607886,129
2021-09-27 11:20:51.607892,1063
2021-09-27 11:20:51.607898,2120
2021-09-27 11:20:51.607905,2504
2021-09-27 11:20:51.607911,1217
2021-09-27 11:20:51.607917,-789
2021-09-27 11:20:51.607923,-1071
2021-09-27 11:20:51.607929,-244
2021-09-27 11:20:51.607936,-202
2021-09-27 11:20:51.607942,-361
2021-09-27 11:20:51.607948,-129
2021-09-27 11:20:51.832751,-44
2021-09-27 11:20:51.832776,-119
2021-09-27 11:20:51.832783,-97
2021-09-27 11:20:51.832790,-63
2021-09-27 11:20:51.832796,-39
2021-09-27 11:20:51.832803,-4
2021-09-27 11:20:51.832809,-14
2021-09-27 11:20:51.832815,-4
2021-09-27 11:20:51.832821,41
2021-09-27 11:20:51.832828,68
2021-09-27 11:20:51.832834,92
2021-09-27 11:20:51.832840,124
2021-09-27 11:20:51.832846,134
2021-09-27 11:20:51.832853,154
2021-09-27 11:20:51.832859,220
2021-09-27 11:20:51.832865,273
2021-09-27 11:20:51.832872,286
2021-09-27 11:20:51.832878,354
2021-09-27 11:20:51.832884,474
2021-09-27 11:20:51.832890,530
2021-09-27 11:20:51.832896,545
2021-09-27 11:20:51.832903,599
2021-09-27 11:20:51.832909,670
2021-09-27 11:20:51.832915,709
2021-09-27 11:20:51.832921,716
2021-09-27 11:20:51.832928,682
2021-09-27 11:20:51.832934,604
2021-09-27 11:20:51.832940,464
2021-09-27 11:20:51.832946,281
2021-09-27 11:20:51.832952,80
2021-09-27 11:20:52.102672,-127
2021-09-27 11:20:52.102705,-271
2021-09-27 11:20:52.102717,-339
2021-09-27 11:20:52.102728,-405
2021-09-27 11:20:52.102737,-425
2021-09-27 11:20:52.102747,-405
2021-09-27 11:20:52.102757,-425
2021-09-27 11:20:52.102766,-425
2021-09-27 11:20:52.102776,-388
2021-09-27 11:20:52.102785,-364
2021-09-27 11:20:52.102795,-361
2021-09-27 11:20:52.102805,-388
2021-09-27 11:20:52.102814,-398
2021-09-27 11:20:52.102824,-354
2021-09-27 11:20:52.102834,-332
2021-09-27 11:20:52.102843,-327
2021-09-27 11:20:52.102853,-266
2021-09-27 11:20:52.102863,-215
2021-09-27 11:20:52.102872,-246
2021-09-27 11:20:52.102882,-298
2021-09-27 11:20:52.102892,-266
2021-09-27 11:20:52.102901,-200
2021-09-27 11:20:52.102911,-188
2021-09-27 11:20:52.102921,-198
2021-09-27 11:20:52.102930,-202
2021-09-27 11:20:52.102940,-190
2021-09-27 11:20:52.102950,-178
2021-09-27 11:20:52.102959,-178
2021-09-27 11:20:52.102969,-173
2021-09-27 11:20:52.102979,-154
2021-09-27 11:20:52.282843,-127
2021-09-27 11:20:52.282875,-122
2021-09-27 11:20:52.282887,-163
2021-09-27 11:20:52.282897,-183
2021-09-27 11:20:52.282907,-139
2021-09-27 11:20:52.282917,-117
2021-09-27 11:20:52.282927,-141
2021-09-27 11:20:52.282936,-139
2021-09-27 11:20:52.282946,-107
2021-09-27 11:20:52.282955,-92
2021-09-27 11:20:52.282965,-90
2021-09-27 11:20:52.282975,-110
2021-09-27 11:20:52.282984,-122
2021-09-27 11:20:52.282994,-97
2021-09-27 11:20:52.283003,-100
2021-09-27 11:20:52.283013,-122
2021-09-27 11:20:52.283022,-88
2021-09-27 11:20:52.283032,-56
2021-09-27 11:20:52.283041,-68
2021-09-27 11:20:52.283079,-68
2021-09-27 11:20:52.283090,-66
2021-09-27 11:20:52.283099,-80
2021-09-27 11:20:52.283109,-90
2021-09-27 11:20:52.283119,-100
2021-09-27 11:20:52.283129,-105
2021-09-27 11:20:52.283138,-90
2021-09-27 11:20:52.283148,-73
2021-09-27 11:20:52.283158,-78
2021-09-27 11:20:52.283167,-83
2021-09-27 11:20:52.283177,-97
2021-09-27 11:20:52.552754,-132
2021-09-27 11:20:52.552778,-178
2021-09-27 11:20:52.552785,-151
2021-09-27 11:20:52.552792,308
2021-09-27 11:20:52.552798,1340
2021-09-27 11:20:52.552805,2367
2021-09-27 11:20:52.552811,2369
2021-09-27 11:20:52.552818,694
2021-09-27 11:20:52.552824,-1022
2021-09-27 11:20:52.552830,-824
2021-09-27 11:20:52.552836,-132
2021-09-27 11:20:52.552843,-291
2021-09-27 11:20:52.552849,-344
2021-09-27 11:20:52.552855,-100
2021-09-27 11:20:52.552862,-102
2021-09-27 11:20:52.552868,-168
2021-09-27 11:20:52.552874,-90
2021-09-27 11:20:52.552881,-34
2021-09-27 11:20:52.552887,-22
2021-09-27 11:20:52.552902,2
2021-09-27 11:20:52.552909,-24
2021-09-27 11:20:52.552915,-19
2021-09-27 11:20:52.552922,61
2021-09-27 11:20:52.552928,83
2021-09-27 11:20:52.552934,85
2021-09-27 11:20:52.552943,124
2021-09-27 11:20:52.552950,146
2021-09-27 11:20:52.552957,183
2021-09-27 11:20:52.552963,234
2021-09-27 11:20:52.552969,283
2021-09-27 11:20:52.776457,352
2021-09-27 11:20:52.776483,403
2021-09-27 11:20:52.776492,445
2021-09-27 11:20:52.776501,535
2021-09-27 11:20:52.776511,608
2021-09-27 11:20:52.776518,618
2021-09-27 11:20:52.776529,655
2021-09-27 11:20:52.776538,718
2021-09-27 11:20:52.776545,743
2021-09-27 11:20:52.776556,689
2021-09-27 11:20:52.776563,567
2021-09-27 11:20:52.776569,415
2021-09-27 11:20:52.776575,222
2021-09-27 11:20:52.776582,2
2021-09-27 11:20:52.776588,-166
2021-09-27 11:20:52.776594,-286
2021-09-27 11:20:52.776601,-364
2021-09-27 11:20:52.776607,-376
2021-09-27 11:20:52.776613,-379
2021-09-27 11:20:52.776620,-405
2021-09-27 11:20:52.776626,-396
2021-09-27 11:20:52.776632,-369
2021-09-27 11:20:52.776638,-383
2021-09-27 11:20:52.776645,-401
2021-09-27 11:20:52.776651,-376
2021-09-27 11:20:52.776657,-335
2021-09-27 11:20:52.776664,-317
2021-09-27 11:20:52.776670,-325
2021-09-27 11:20:52.776676,-313
2021-09-27 11:20:52.776682,-269
2021-09-27 11:20:53.002847,-220
2021-09-27 11:20:53.002880,-215
2021-09-27 11:20:53.002891,-254
2021-09-27 11:20:53.002901,-256
2021-09-27 11:20:53.002911,-232
2021-09-27 11:20:53.002921,-220
2021-09-27 11:20:53.002930,-188
2021-09-27 11:20:53.002940,-176
2021-09-27 11:20:53.002949,-200
2021-09-27 11:20:53.002959,-188
2021-09-27 11:20:53.002968,-161
2021-09-27 11:20:53.002978,-188
2021-09-27 11:20:53.002988,-220
2021-09-27 11:20:53.002997,-178
2021-09-27 11:20:53.003007,-134
2021-09-27 11:20:53.003031,-166
2021-09-27 11:20:53.003042,-190
2021-09-27 11:20:53.003051,-163
2021-09-27 11:20:53.003061,-146
2021-09-27 11:20:53.003071,-158
2021-09-27 11:20:53.003081,-166
2021-09-27 11:20:53.003090,-149
2021-09-27 11:20:53.003100,-124
2021-09-27 11:20:53.003110,-129
2021-09-27 11:20:53.003119,-141
2021-09-27 11:20:53.003129,-117
2021-09-27 11:20:53.003139,-102
2021-09-27 11:20:53.003148,-132
2021-09-27 11:20:53.003158,-158
2021-09-27 11:20:53.003168,-151
2021-09-27 11:20:53.227033,-105
2021-09-27 11:20:53.227052,-44
2021-09-27 11:20:53.227060,-39
2021-09-27 11:20:53.227066,-63
2021-09-27 11:20:53.227073,-53
2021-09-27 11:20:53.227079,-78
2021-09-27 11:20:53.227086,-127
2021-09-27 11:20:53.227092,-97
2021-09-27 11:20:53.227098,-78
2021-09-27 11:20:53.227105,-136
2021-09-27 11:20:53.227111,-139
2021-09-27 11:20:53.227117,-75
2021-09-27 11:20:53.227124,-46
2021-09-27 11:20:53.227130,-63
2021-09-27 11:20:53.227136,-114
2021-09-27 11:20:53.227143,-168
2021-09-27 11:20:53.227149,-217
2021-09-27 11:20:53.227155,-190
2021-09-27 11:20:53.227162,298
2021-09-27 11:20:53.227168,1318
2021-09-27 11:20:53.227174,2288
2021-09-27 11:20:53.227181,2303
2021-09-27 11:20:53.227187,682
2021-09-27 11:20:53.227193,-1031
2021-09-27 11:20:53.227200,-846
2021-09-27 11:20:53.227206,-114
2021-09-27 11:20:53.227212,-232
2021-09-27 11:20:53.227219,-339
2021-09-27 11:20:53.227225,-141
2021-09-27 11:20:53.227231,-83
2021-09-27 11:20:53.497226,-92
2021-09-27 11:20:53.497252,-36
2021-09-27 11:20:53.497261,-17
2021-09-27 11:20:53.497272,-39
2021-09-27 11:20:53.497279,-4
2021-09-27 11:20:53.497289,70
2021-09-27 11:20:53.497300,75
2021-09-27 11:20:53.497307,22
2021-09-27 11:20:53.497315,29
2021-09-27 11:20:53.497325,119
2021-09-27 11:20:53.497331,185
2021-09-27 11:20:53.497338,188
2021-09-27 11:20:53.497344,205
2021-09-27 11:20:53.497350,249
2021-09-27 11:20:53.497357,276
2021-09-27 11:20:53.497363,322
2021-09-27 11:20:53.497369,413
2021-09-27 11:20:53.497376,493
2021-09-27 11:20:53.497382,533
2021-09-27 11:20:53.497388,552
2021-09-27 11:20:53.497394,601
2021-09-27 11:20:53.497401,689
2021-09-27 11:20:53.497407,745
2021-09-27 11:20:53.497413,728
2021-09-27 11:20:53.497420,682
2021-09-27 11:20:53.497435,599
2021-09-27 11:20:53.497443,410
2021-09-27 11:20:53.497449,185
2021-09-27 11:20:53.497455,14
2021-09-27 11:20:53.497462,-158
2021-09-27 11:20:53.677160,-322
2021-09-27 11:20:53.677181,-354
2021-09-27 11:20:53.677189,-381
2021-09-27 11:20:53.677195,-454
2021-09-27 11:20:53.677201,-437
2021-09-27 11:20:53.677208,-396
2021-09-27 11:20:53.677214,-423
2021-09-27 11:20:53.677220,-420
2021-09-27 11:20:53.677226,-361
2021-09-27 11:20:53.677232,-361
2021-09-27 11:20:53.677239,-418
2021-09-27 11:20:53.677245,-388
2021-09-27 11:20:53.677251,-315
2021-09-27 11:20:53.677257,-303
2021-09-27 11:20:53.677264,-303
2021-09-27 11:20:53.677270,-298
2021-09-27 11:20:53.677276,-295
2021-09-27 11:20:53.677282,-269
2021-09-27 11:20:53.677288,-237
2021-09-27 11:20:53.677295,-224
2021-09-27 11:20:53.677301,-224
2021-09-27 11:20:53.677307,-220
2021-09-27 11:20:53.677313,-212
2021-09-27 11:20:53.677319,-195
2021-09-27 11:20:53.677326,-183
2021-09-27 11:20:53.677332,-195
2021-09-27 11:20:53.677338,-195
2021-09-27 11:20:53.677344,-171
2021-09-27 11:20:53.677351,-154
2021-09-27 11:20:53.677357,-166
2021-09-27 11:20:53.902782,-171
2021-09-27 11:20:53.902805,-151
2021-09-27 11:20:53.902812,-158
2021-09-27 11:20:53.902819,-198
2021-09-27 11:20:53.902825,-180
2021-09-27 11:20:53.902831,-107
2021-09-27 11:20:53.902838,-105
2021-09-27 11:20:53.902844,-136
2021-09-27 11:20:53.902850,-107
2021-09-27 11:20:53.902856,-97
2021-09-27 11:20:53.902863,-132
2021-09-27 11:20:53.902869,-136
2021-09-27 11:20:53.902875,-119
2021-09-27 11:20:53.902882,-80
2021-09-27 11:20:53.902888,-44
2021-09-27 11:20:53.902894,-88
2021-09-27 11:20:53.902900,-129
2021-09-27 11:20:53.902907,-73
2021-09-27 11:20:53.902913,-51
2021-09-27 11:20:53.902919,-95
2021-09-27 11:20:53.902925,-124
2021-09-27 11:20:53.902932,-129
2021-09-27 11:20:53.902938,-102
2021-09-27 11:20:53.902944,-75
2021-09-27 11:20:53.902951,-100
2021-09-27 11:20:53.902957,-132
2021-09-27 11:20:53.902963,-92
2021-09-27 11:20:53.902969,-73
2021-09-27 11:20:53.902976,-193
2021-09-27 11:20:53.902982,-259
2021-09-27 11:20:54.127831,171
2021-09-27 11:20:54.127865,1164
2021-09-27 11:20:54.127877,2213
2021-09-27 11:20:54.127887,2425
2021-09-27 11:20:54.127897,987
2021-09-27 11:20:54.127907,-863
2021-09-27 11:20:54.127916,-978
2021-09-27 11:20:54.127926,-229
2021-09-27 11:20:54.127936,-227
2021-09-27 11:20:54.127945,-337
2021-09-27 11:20:54.127955,-129
2021-09-27 11:20:54.127964,-63
2021-09-27 11:20:54.127974,-85
2021-09-27 11:20:54.127984,-78
2021-09-27 11:20:54.127993,-107
2021-09-27 11:20:54.128003,-70
2021-09-27 11:20:54.128013,-4
2021-09-27 11:20:54.128022,-24
2021-09-27 11:20:54.128032,-44
2021-09-27 11:20:54.128041,22
2021-09-27 11:20:54.128051,97
2021-09-27 11:20:54.128061,107
2021-09-27 11:20:54.128070,119
2021-09-27 11:20:54.128080,146
2021-09-27 11:20:54.128089,151
2021-09-27 11:20:54.128099,190
2021-09-27 11:20:54.128109,256
2021-09-27 11:20:54.128118,310
2021-09-27 11:20:54.128128,369
2021-09-27 11:20:54.128138,432
2021-09-27 11:20:54.352803,496
2021-09-27 11:20:54.352835,560
2021-09-27 11:20:54.352846,650
2021-09-27 11:20:54.352856,684
2021-09-27 11:20:54.352866,665
2021-09-27 11:20:54.352876,701
2021-09-27 11:20:54.352885,694
2021-09-27 11:20:54.352895,577
2021-09-27 11:20:54.352905,401
2021-09-27 11:20:54.352915,185
2021-09-27 11:20:54.352924,17
2021-09-27 11:20:54.352934,-97
2021-09-27 11:20:54.352944,-232
2021-09-27 11:20:54.352953,-352
2021-09-27 11:20:54.352963,-398
2021-09-27 11:20:54.352973,-413
2021-09-27 11:20:54.352982,-457
2021-09-27 11:20:54.352992,-469
2021-09-27 11:20:54.353001,-408
2021-09-27 11:20:54.353011,-344
2021-09-27 11:20:54.353021,-339
2021-09-27 11:20:54.353030,-374
2021-09-27 11:20:54.353040,-361
2021-09-27 11:20:54.353050,-327
2021-09-27 11:20:54.353059,-339
2021-09-27 11:20:54.353069,-332
2021-09-27 11:20:54.353079,-298
2021-09-27 11:20:54.353088,-278
2021-09-27 11:20:54.353098,-239
2021-09-27 11:20:54.353108,-222
2021-09-27 11:20:54.577684,-266
2021-09-27 11:20:54.577717,-266
2021-09-27 11:20:54.577728,-185
2021-09-27 11:20:54.577738,-176
2021-09-27 11:20:54.577748,-266
2021-09-27 11:20:54.577772,-276
2021-09-27 11:20:54.577783,-180
2021-09-27 11:20:54.577793,-136
2021-09-27 11:20:54.577802,-190
2021-09-27 11:20:54.577812,-205
2021-09-27 11:20:54.577822,-151
2021-09-27 11:20:54.577831,-176
2021-09-27 11:20:54.577841,-234
2021-09-27 11:20:54.577851,-185
2021-09-27 11:20:54.577860,-122
2021-09-27 11:20:54.577870,-173
2021-09-27 11:20:54.577879,-227
2021-09-27 11:20:54.577889,-158
2021-09-27 11:20:54.577899,-90
2021-09-27 11:20:54.577924,-117
2021-09-27 11:20:54.577934,-112
2021-09-27 11:20:54.577944,-112
2021-09-27 11:20:54.577954,-168
2021-09-27 11:20:54.577963,-151
2021-09-27 11:20:54.577973,-68
2021-09-27 11:20:54.577982,-34
2021-09-27 11:20:54.577992,-83
2021-09-27 11:20:54.578002,-117
2021-09-27 11:20:54.578011,-105
2021-09-27 11:20:54.578021,-95
2021-09-27 11:20:54.846423,-70
2021-09-27 11:20:54.846448,-34
2021-09-27 11:20:54.846456,-39
2021-09-27 11:20:54.846463,-78
2021-09-27 11:20:54.846469,-119
2021-09-27 11:20:54.846475,-154
2021-09-27 11:20:54.846513,-129
2021-09-27 11:20:54.846520,-83
2021-09-27 11:20:54.846526,-114
2021-09-27 11:20:54.846533,-134
2021-09-27 11:20:54.846539,-92
2021-09-27 11:20:54.846545,-136
2021-09-27 11:20:54.846552,-193
2021-09-27 11:20:54.846558,158
2021-09-27 11:20:54.846564,1120
2021-09-27 11:20:54.846571,2161
2021-09-27 11:20:54.846577,2394
2021-09-27 11:20:54.846583,1019
2021-09-27 11:20:54.846589,-858
2021-09-27 11:20:54.846596,-987
2021-09-27 11:20:54.846602,-190
2021-09-27 11:20:54.846608,-193
2021-09-27 11:20:54.846615,-322
2021-09-27 11:20:54.846621,-92
2021-09-27 11:20:54.846627,-41
2021-09-27 11:20:54.846634,-119
2021-09-27 11:20:54.846640,-19
2021-09-27 11:20:54.846646,31
2021-09-27 11:20:54.846653,-73
2021-09-27 11:20:54.846659,-66
2021-09-27 11:20:55.072774,36
2021-09-27 11:20:55.072799,39
2021-09-27 11:20:55.072807,31
2021-09-27 11:20:55.072813,78
2021-09-27 11:20:55.072819,88
2021-09-27 11:20:55.072826,110
2021-09-27 11:20:55.072832,183
2021-09-27 11:20:55.072838,212
2021-09-27 11:20:55.072844,234
2021-09-27 11:20:55.072851,293
2021-09-27 11:20:55.072857,313
2021-09-27 11:20:55.072863,347
2021-09-27 11:20:55.072870,457
2021-09-27 11:20:55.072876,552
2021-09-27 11:20:55.072882,564
2021-09-27 11:20:55.072888,591
2021-09-27 11:20:55.072895,670
2021-09-27 11:20:55.072901,684
2021-09-27 11:20:55.072907,660
2021-09-27 11:20:55.072913,645
2021-09-27 11:20:55.072920,584
2021-09-27 11:20:55.072926,430
2021-09-27 11:20:55.072932,210
2021-09-27 11:20:55.072939,7
2021-09-27 11:20:55.072945,-146
2021-09-27 11:20:55.072951,-269
2021-09-27 11:20:55.072958,-364
2021-09-27 11:20:55.072964,-425
2021-09-27 11:20:55.072970,-418
2021-09-27 11:20:55.072977,-410
2021-09-27 11:20:55.387165,-415
2021-09-27 11:20:55.387219,-381
2021-09-27 11:20:55.387227,-383
2021-09-27 11:20:55.387234,-425
2021-09-27 11:20:55.387240,-388
2021-09-27 11:20:55.387246,-332
2021-09-27 11:20:55.387253,-349
2021-09-27 11:20:55.387259,-332
2021-09-27 11:20:55.387265,-293
2021-09-27 11:20:55.387272,-315
2021-09-27 11:20:55.387278,-283
2021-09-27 11:20:55.387284,-193
2021-09-27 11:20:55.387291,-173
2021-09-27 11:20:55.387297,-222
2021-09-27 11:20:55.387303,-278
2021-09-27 11:20:55.387310,-271
2021-09-27 11:20:55.387316,-188
2021-09-27 11:20:55.387323,-151
2021-09-27 11:20:55.387329,-190
2021-09-27 11:20:55.387335,-205
2021-09-27 11:20:55.387342,-180
2021-09-27 11:20:55.387348,-161
2021-09-27 11:20:55.387354,-158
2021-09-27 11:20:55.387360,-178
2021-09-27 11:20:55.387367,-166
2021-09-27 11:20:55.387373,-114
2021-09-27 11:20:55.387380,-139
2021-09-27 11:20:55.387386,-168
2021-09-27 11:20:55.387392,-112
2021-09-27 11:20:55.387399,-95
2021-09-27 11:20:55.522725,-144
2021-09-27 11:20:55.522750,-139
2021-09-27 11:20:55.522757,-114
2021-09-27 11:20:55.522764,-144
2021-09-27 11:20:55.522770,-129
2021-09-27 11:20:55.522777,-68
2021-09-27 11:20:55.522783,-78
2021-09-27 11:20:55.522789,-85
2021-09-27 11:20:55.522796,-53
2021-09-27 11:20:55.522802,-78
2021-09-27 11:20:55.522808,-110
2021-09-27 11:20:55.522815,-66
2021-09-27 11:20:55.522821,-29
2021-09-27 11:20:55.522827,-78
2021-09-27 11:20:55.522833,-100
2021-09-27 11:20:55.522839,-58
2021-09-27 11:20:55.522846,-66
2021-09-27 11:20:55.522852,-92
2021-09-27 11:20:55.522858,-75
2021-09-27 11:20:55.522864,-58
2021-09-27 11:20:55.522871,-100
2021-09-27 11:20:55.522877,-158
2021-09-27 11:20:55.522883,-139
2021-09-27 11:20:55.522889,-70
2021-09-27 11:20:55.522896,-90
2021-09-27 11:20:55.522902,-232
2021-09-27 11:20:55.522908,-215
2021-09-27 11:20:55.522915,315
2021-09-27 11:20:55.522921,1320
2021-09-27 11:20:55.522927,2320
2021-09-27 11:20:55.792448,2357
2021-09-27 11:20:55.792475,701
2021-09-27 11:20:55.792486,-1046
2021-09-27 11:20:55.792497,-885
2021-09-27 11:20:55.792507,-119
2021-09-27 11:20:55.792517,-212
2021-09-27 11:20:55.792528,-313
2021-09-27 11:20:55.792537,-100
2021-09-27 11:20:55.792547,-63
2021-09-27 11:20:55.792557,-117
2021-09-27 11:20:55.792567,-80
2021-09-27 11:20:55.792577,-14
2021-09-27 11:20:55.792587,-29
2021-09-27 11:20:55.792597,-97
2021-09-27 11:20:55.792607,-46
2021-09-27 11:20:55.792617,46
2021-09-27 11:20:55.792627,44
2021-09-27 11:20:55.792637,75
2021-09-27 11:20:55.792647,124
2021-09-27 11:20:55.792657,97
2021-09-27 11:20:55.792668,129
2021-09-27 11:20:55.792678,217
2021-09-27 11:20:55.792688,229
2021-09-27 11:20:55.792699,227
2021-09-27 11:20:55.792731,303
2021-09-27 11:20:55.792757,408
2021-09-27 11:20:55.792767,447
2021-09-27 11:20:55.792774,489
2021-09-27 11:20:55.792780,601
2021-09-27 11:20:55.792786,662
2021-09-27 11:20:56.016756,643
2021-09-27 11:20:56.016778,682
2021-09-27 11:20:56.016786,733
2021-09-27 11:20:56.016793,670
2021-09-27 11:20:56.016799,540
2021-09-27 11:20:56.016806,401
2021-09-27 11:20:56.016812,210
2021-09-27 11:20:56.016818,9
2021-09-27 11:20:56.016824,-149
2021-09-27 11:20:56.016831,-266
2021-09-27 11:20:56.016837,-310
2021-09-27 11:20:56.016843,-357
2021-09-27 11:20:56.016850,-449
2021-09-27 11:20:56.016856,-435
2021-09-27 11:20:56.016862,-369
2021-09-27 11:20:56.016868,-413
2021-09-27 11:20:56.016875,-440
2021-09-27 11:20:56.016881,-383
2021-09-27 11:20:56.016887,-357
2021-09-27 11:20:56.016893,-342
2021-09-27 11:20:56.016900,-315
2021-09-27 11:20:56.016906,-308
2021-09-27 11:20:56.016912,-283
2021-09-27 11:20:56.016919,-256
2021-09-27 11:20:56.016925,-259
2021-09-27 11:20:56.016931,-256
2021-09-27 11:20:56.016938,-278
2021-09-27 11:20:56.016944,-313
2021-09-27 11:20:56.016950,-251
2021-09-27 11:20:56.016957,-180
2021-09-27 11:20:56.242739,-205
2021-09-27 11:20:56.242771,-207
2021-09-27 11:20:56.242782,-163
2021-09-27 11:20:56.242792,-136
2021-09-27 11:20:56.242801,-166
2021-09-27 11:20:56.242811,-251
2021-09-27 11:20:56.242821,-273
2021-09-27 11:20:56.242830,-195
2021-09-27 11:20:56.242840,-171
2021-09-27 11:20:56.242849,-195
2021-09-27 11:20:56.242859,-151
2021-09-27 11:20:56.242869,-139
2021-09-27 11:20:56.242878,-190
2021-09-27 11:20:56.242888,-193
2021-09-27 11:20:56.242898,-136
2021-09-27 11:20:56.242908,-112
2021-09-27 11:20:56.242917,-176
2021-09-27 11:20:56.242927,-200
2021-09-27 11:20:56.242936,-124
2021-09-27 11:20:56.242946,-70
2021-09-27 11:20:56.242955,-105
2021-09-27 11:20:56.242993,-144
2021-09-27 11:20:56.243003,-124
2021-09-27 11:20:56.243013,-97
2021-09-27 11:20:56.243022,-85
2021-09-27 11:20:56.243032,-83
2021-09-27 11:20:56.243042,-102
2021-09-27 11:20:56.243051,-95
2021-09-27 11:20:56.243061,-63
2021-09-27 11:20:56.243102,-63
2021-09-27 11:20:56.422772,-51
2021-09-27 11:20:56.422804,-41
2021-09-27 11:20:56.422815,-83
2021-09-27 11:20:56.422825,-114
2021-09-27 11:20:56.422835,-114
2021-09-27 11:20:56.422845,-122
2021-09-27 11:20:56.422855,-119
2021-09-27 11:20:56.422865,-102
2021-09-27 11:20:56.422874,-68
2021-09-27 11:20:56.422884,-53
2021-09-27 11:20:56.422894,-134
2021-09-27 11:20:56.422904,-256
2021-09-27 11:20:56.422913,-41
2021-09-27 11:20:56.422923,807
2021-09-27 11:20:56.422933,1887
2021-09-27 11:20:56.422957,2462
2021-09-27 11:20:56.422968,1609
2021-09-27 11:20:56.422978,-418
2021-09-27 11:20:56.422987,-1215
2021-09-27 11:20:56.422997,-413
2021-09-27 11:20:56.423007,-132
2021-09-27 11:20:56.423017,-381
2021-09-27 11:20:56.423026,-195
2021-09-27 11:20:56.423036,-22
2021-09-27 11:20:56.423046,-107
2021-09-27 11:20:56.423056,-97
2021-09-27 11:20:56.423065,-9
2021-09-27 11:20:56.423075,-9
2021-09-27 11:20:56.423085,-7
2021-09-27 11:20:56.423094,-7
2021-09-27 11:20:56.647626,-29
2021-09-27 11:20:56.647649,19
2021-09-27 11:20:56.647657,83
2021-09-27 11:20:56.647664,83
2021-09-27 11:20:56.647670,95
2021-09-27 11:20:56.647676,136
2021-09-27 11:20:56.647683,163
2021-09-27 11:20:56.647689,202
2021-09-27 11:20:56.647695,237
2021-09-27 11:20:56.647701,278
2021-09-27 11:20:56.647708,361
2021-09-27 11:20:56.647714,420
2021-09-27 11:20:56.647720,437
2021-09-27 11:20:56.647727,491
2021-09-27 11:20:56.647733,582
2021-09-27 11:20:56.647740,652
2021-09-27 11:20:56.647746,701
2021-09-27 11:20:56.647752,706
2021-09-27 11:20:56.647758,657
2021-09-27 11:20:56.647765,579
2021-09-27 11:20:56.647771,440
2021-09-27 11:20:56.647778,256
2021-09-27 11:20:56.647784,95
2021-09-27 11:20:56.647790,-105
2021-09-27 11:20:56.647797,-286
2021-09-27 11:20:56.647803,-335
2021-09-27 11:20:56.647809,-361
2021-09-27 11:20:56.647816,-410
2021-09-27 11:20:56.647822,-410
2021-09-27 11:20:56.647828,-403
2021-09-27 11:20:56.961791,-408
2021-09-27 11:20:56.961816,-379
2021-09-27 11:20:56.961823,-374
2021-09-27 11:20:56.961830,-403
2021-09-27 11:20:56.961836,-386
2021-09-27 11:20:56.961843,-339
2021-09-27 11:20:56.961849,-327
2021-09-27 11:20:56.961855,-317
2021-09-27 11:20:56.961861,-298
2021-09-27 11:20:56.961867,-283
2021-09-27 11:20:56.961874,-266
2021-09-27 11:20:56.961880,-242
2021-09-27 11:20:56.961886,-217
2021-09-27 11:20:56.961893,-183
2021-09-27 11:20:56.961899,-198
2021-09-27 11:20:56.961905,-269
2021-09-27 11:20:56.961911,-254
2021-09-27 11:20:56.961917,-163
2021-09-27 11:20:56.961924,-151
2021-09-27 11:20:56.961930,-193
2021-09-27 11:20:56.961936,-173
2021-09-27 11:20:56.961942,-139
2021-09-27 11:20:56.961948,-149
2021-09-27 11:20:56.961955,-163
2021-09-27 11:20:56.961961,-163
2021-09-27 11:20:56.961967,-176
2021-09-27 11:20:56.961973,-156
2021-09-27 11:20:56.961980,-107
2021-09-27 11:20:56.961986,-100
2021-09-27 11:20:56.961992,-110
2021-09-27 11:20:57.142680,-129
2021-09-27 11:20:57.142712,-158
2021-09-27 11:20:57.142724,-122
2021-09-27 11:20:57.142734,-73
2021-09-27 11:20:57.142744,-110
2021-09-27 11:20:57.142754,-119
2021-09-27 11:20:57.142763,-80
2021-09-27 11:20:57.142773,-107
2021-09-27 11:20:57.142783,-156
2021-09-27 11:20:57.142792,-117
2021-09-27 11:20:57.142802,-63
2021-09-27 11:20:57.142812,-63
2021-09-27 11:20:57.142821,-56
2021-09-27 11:20:57.142831,-34
2021-09-27 11:20:57.142841,-48
2021-09-27 11:20:57.142851,-110
2021-09-27 11:20:57.142861,-144
2021-09-27 11:20:57.142870,-119
2021-09-27 11:20:57.142880,-102
2021-09-27 11:20:57.142890,-132
2021-09-27 11:20:57.142900,-158
2021-09-27 11:20:57.142909,-119
2021-09-27 11:20:57.142919,-58
2021-09-27 11:20:57.142929,-73
2021-09-27 11:20:57.142939,-188
2021-09-27 11:20:57.142949,-259
2021-09-27 11:20:57.142959,53
2021-09-27 11:20:57.142968,931
2021-09-27 11:20:57.142978,2015
2021-09-27 11:20:57.142988,2440
2021-09-27 11:20:57.412785,1274
2021-09-27 11:20:57.412808,-648
2021-09-27 11:20:57.412815,-1041
2021-09-27 11:20:57.412822,-224
2021-09-27 11:20:57.412828,-88
2021-09-27 11:20:57.412834,-293
2021-09-27 11:20:57.412841,-129
2021-09-27 11:20:57.412847,-58
2021-09-27 11:20:57.412853,-146
2021-09-27 11:20:57.412860,-97
2021-09-27 11:20:57.412866,-19
2021-09-27 11:20:57.412872,-12
2021-09-27 11:20:57.412879,7
2021-09-27 11:20:57.412885,19
2021-09-27 11:20:57.412891,7
2021-09-27 11:20:57.412897,-7
2021-09-27 11:20:57.412904,19
2021-09-27 11:20:57.412910,100
2021-09-27 11:20:57.412916,122
2021-09-27 11:20:57.412923,100
2021-09-27 11:20:57.412929,134
2021-09-27 11:20:57.412935,205
2021-09-27 11:20:57.412942,273
2021-09-27 11:20:57.412948,313
2021-09-27 11:20:57.412954,335
2021-09-27 11:20:57.412961,423
2021-09-27 11:20:57.412967,513
2021-09-27 11:20:57.412973,515
2021-09-27 11:20:57.412979,545
2021-09-27 11:20:57.412986,623
2021-09-27 11:20:57.592738,684
2021-09-27 11:20:57.592761,709
2021-09-27 11:20:57.592768,660
2021-09-27 11:20:57.592775,538
2021-09-27 11:20:57.592781,405
2021-09-27 11:20:57.592787,256
2021-09-27 11:20:57.592794,56
2021-09-27 11:20:57.592800,-129
2021-09-27 11:20:57.592806,-229
2021-09-27 11:20:57.592813,-300
2021-09-27 11:20:57.592819,-364
2021-09-27 11:20:57.592825,-379
2021-09-27 11:20:57.592831,-354
2021-09-27 11:20:57.592838,-374
2021-09-27 11:20:57.592844,-423
2021-09-27 11:20:57.592850,-398
2021-09-27 11:20:57.592857,-335
2021-09-27 11:20:57.592863,-320
2021-09-27 11:20:57.592869,-342
2021-09-27 11:20:57.592875,-342
2021-09-27 11:20:57.592882,-300
2021-09-27 11:20:57.592888,-288
2021-09-27 11:20:57.592894,-305
2021-09-27 11:20:57.592901,-286
2021-09-27 11:20:57.592907,-242
2021-09-27 11:20:57.592913,-215
2021-09-27 11:20:57.592919,-220
2021-09-27 11:20:57.592926,-224
2021-09-27 11:20:57.592932,-202
2021-09-27 11:20:57.592938,-215
2021-09-27 11:20:57.817748,-246
2021-09-27 11:20:57.817770,-193
2021-09-27 11:20:57.817778,-129
2021-09-27 11:20:57.817785,-156
2021-09-27 11:20:57.817791,-180
2021-09-27 11:20:57.817797,-149
2021-09-27 11:20:57.817803,-129
2021-09-27 11:20:57.817810,-144
2021-09-27 11:20:57.817816,-161
2021-09-27 11:20:57.817822,-173
2021-09-27 11:20:57.817829,-134
2021-09-27 11:20:57.817835,-100
2021-09-27 11:20:57.817841,-149
2021-09-27 11:20:57.817847,-166
2021-09-27 11:20:57.817853,-112
2021-09-27 11:20:57.817860,-80
2021-09-27 11:20:57.817866,-75
2021-09-27 11:20:57.817872,-92
2021-09-27 11:20:57.817879,-129
2021-09-27 11:20:57.817885,-119
2021-09-27 11:20:57.817891,-90
2021-09-27 11:20:57.817897,-95
2021-09-27 11:20:57.817904,-97
2021-09-27 11:20:57.817910,-78
2021-09-27 11:20:57.817916,-78
2021-09-27 11:20:57.817922,-75
2021-09-27 11:20:57.817928,-34
2021-09-27 11:20:57.817935,-7
2021-09-27 11:20:57.817941,-56
2021-09-27 11:20:57.817947,-112
2021-09-27 11:20:58.042851,-80
2021-09-27 11:20:58.042884,-39
2021-09-27 11:20:58.042895,-46
2021-09-27 11:20:58.042906,-53
2021-09-27 11:20:58.042915,-63
2021-09-27 11:20:58.042925,-100
2021-09-27 11:20:58.042935,-119
2021-09-27 11:20:58.042945,-78
2021-09-27 11:20:58.042954,-53
2021-09-27 11:20:58.042964,-92
2021-09-27 11:20:58.042973,-156
2021-09-27 11:20:58.042983,-210
2021-09-27 11:20:58.042992,-53
2021-09-27 11:20:58.043002,611
2021-09-27 11:20:58.043012,1692
2021-09-27 11:20:58.043021,2472
2021-09-27 11:20:58.043031,1890
2021-09-27 11:20:58.043040,-24
2021-09-27 11:20:58.043050,-1122
2021-09-27 11:20:58.043059,-535
2021-09-27 11:20:58.043069,-114
2021-09-27 11:20:58.043079,-320
2021-09-27 11:20:58.043088,-244
2021-09-27 11:20:58.043098,-80
2021-09-27 11:20:58.043107,-129
2021-09-27 11:20:58.043117,-117
2021-09-27 11:20:58.043126,-46
2021-09-27 11:20:58.043136,-56
2021-09-27 11:20:58.043146,-58
2021-09-27 11:20:58.043155,-4
2021-09-27 11:20:58.267382,41
2021-09-27 11:20:58.267408,70
2021-09-27 11:20:58.267417,68
2021-09-27 11:20:58.267425,53
2021-09-27 11:20:58.267433,80
2021-09-27 11:20:58.267440,127
2021-09-27 11:20:58.267448,161
2021-09-27 11:20:58.267455,202
2021-09-27 11:20:58.267463,246
2021-09-27 11:20:58.267470,303
2021-09-27 11:20:58.267477,371
2021-09-27 11:20:58.267485,401
2021-09-27 11:20:58.267492,435
2021-09-27 11:20:58.267498,547
2021-09-27 11:20:58.267505,623
2021-09-27 11:20:58.267511,626
2021-09-27 11:20:58.267518,672
2021-09-27 11:20:58.267525,721
2021-09-27 11:20:58.267532,704
2021-09-27 11:20:58.267539,640
2021-09-27 11:20:58.267546,520
2021-09-27 11:20:58.267553,320
2021-09-27 11:20:58.267560,107
2021-09-27 11:20:58.267567,-51
2021-09-27 11:20:58.267575,-183
2021-09-27 11:20:58.267593,-300
2021-09-27 11:20:58.267601,-366
2021-09-27 11:20:58.267608,-366
2021-09-27 11:20:58.267614,-376
2021-09-27 11:20:58.267621,-437
2021-09-27 11:20:58.537167,-442
2021-09-27 11:20:58.537189,-391
2021-09-27 11:20:58.537197,-388
2021-09-27 11:20:58.537204,-396
2021-09-27 11:20:58.537210,-364
2021-09-27 11:20:58.537216,-327
2021-09-27 11:20:58.537222,-298
2021-09-27 11:20:58.537229,-259
2021-09-27 11:20:58.537235,-276
2021-09-27 11:20:58.537241,-330
2021-09-27 11:20:58.537247,-315
2021-09-27 11:20:58.537253,-261
2021-09-27 11:20:58.537260,-237
2021-09-27 11:20:58.537266,-215
2021-09-27 11:20:58.537272,-188
2021-09-27 11:20:58.537278,-183
2021-09-27 11:20:58.537285,-202
2021-09-27 11:20:58.537291,-207
2021-09-27 11:20:58.537297,-180
2021-09-27 11:20:58.537303,-185
2021-09-27 11:20:58.537309,-200
2021-09-27 11:20:58.537316,-173
2021-09-27 11:20:58.537322,-156
2021-09-27 11:20:58.537328,-166
2021-09-27 11:20:58.537334,-146
2021-09-27 11:20:58.537341,-132
2021-09-27 11:20:58.537347,-136
2021-09-27 11:20:58.537353,-139
2021-09-27 11:20:58.537359,-166
2021-09-27 11:20:58.537366,-180
2021-09-27 11:20:58.762734,-168
2021-09-27 11:20:58.762789,-161
2021-09-27 11:20:58.762796,-127
2021-09-27 11:20:58.762803,-100
2021-09-27 11:20:58.762809,-100
2021-09-27 11:20:58.762816,-66
2021-09-27 11:20:58.762822,-75
2021-09-27 11:20:58.762828,-158
2021-09-27 11:20:58.762834,-166
2021-09-27 11:20:58.762841,-100
2021-09-27 11:20:58.762847,-88
2021-09-27 11:20:58.762853,-107
2021-09-27 11:20:58.762859,-97
2021-09-27 11:20:58.762866,-75
2021-09-27 11:20:58.762872,-56
2021-09-27 11:20:58.762878,-53
2021-09-27 11:20:58.762885,-70
2021-09-27 11:20:58.762891,-88
2021-09-27 11:20:58.762897,-83
2021-09-27 11:20:58.762903,-75
2021-09-27 11:20:58.762910,-95
2021-09-27 11:20:58.762916,-95
2021-09-27 11:20:58.762922,-83
2021-09-27 11:20:58.762928,-95
2021-09-27 11:20:58.762934,-92
2021-09-27 11:20:58.762941,-92
2021-09-27 11:20:58.762947,-151
2021-09-27 11:20:58.762953,-190
2021-09-27 11:20:58.762959,119
2021-09-27 11:20:58.762966,1017
2021-09-27 11:20:59.031679,2100
2021-09-27 11:20:59.031702,2501
2021-09-27 11:20:59.031709,1281
2021-09-27 11:20:59.031716,-714
2021-09-27 11:20:59.031722,-1088
2021-09-27 11:20:59.031728,-244
2021-09-27 11:20:59.031735,-136
2021-09-27 11:20:59.031741,-322
2021-09-27 11:20:59.031747,-122
2021-09-27 11:20:59.031753,-63
2021-09-27 11:20:59.031760,-144
2021-09-27 11:20:59.031766,-78
2021-09-27 11:20:59.031772,-22
2021-09-27 11:20:59.031778,-22
2021-09-27 11:20:59.031784,4
2021-09-27 11:20:59.031791,7
2021-09-27 11:20:59.031797,9
2021-09-27 11:20:59.031803,58
2021-09-27 11:20:59.031809,114
2021-09-27 11:20:59.031816,117
2021-09-27 11:20:59.031822,110
2021-09-27 11:20:59.031828,178
2021-09-27 11:20:59.031834,242
2021-09-27 11:20:59.031841,224
2021-09-27 11:20:59.031847,246
2021-09-27 11:20:59.031853,317
2021-09-27 11:20:59.031859,371
2021-09-27 11:20:59.031866,452
2021-09-27 11:20:59.031872,540
2021-09-27 11:20:59.031878,586
2021-09-27 11:20:59.212768,616
2021-09-27 11:20:59.212799,655
2021-09-27 11:20:59.212811,696
2021-09-27 11:20:59.212821,714
2021-09-27 11:20:59.212831,679
2021-09-27 11:20:59.212840,579
2021-09-27 11:20:59.212850,408
2021-09-27 11:20:59.212860,205
2021-09-27 11:20:59.212870,22
2021-09-27 11:20:59.212879,-132
2021-09-27 11:20:59.212889,-259
2021-09-27 11:20:59.212899,-335
2021-09-27 11:20:59.212908,-369
2021-09-27 11:20:59.212918,-410
2021-09-27 11:20:59.212928,-437
2021-09-27 11:20:59.212937,-432
2021-09-27 11:20:59.212947,-420
2021-09-27 11:20:59.212957,-388
2021-09-27 11:20:59.212967,-359
2021-09-27 11:20:59.212976,-361
2021-09-27 11:20:59.212986,-349
2021-09-27 11:20:59.212996,-313
2021-09-27 11:20:59.213005,-303
2021-09-27 11:20:59.213015,-305
2021-09-27 11:20:59.213024,-288
2021-09-27 11:20:59.213034,-278
2021-09-27 11:20:59.213044,-256
2021-09-27 11:20:59.213053,-224
2021-09-27 11:20:59.213063,-222
