Time,ECG
2021-10-21 15:39:30.117609,-34
2021-10-21 15:39:30.117631,-36
2021-10-21 15:39:30.117641,-43
2021-10-21 15:39:30.117649,-90
2021-10-21 15:39:30.117658,-145
2021-10-21 15:39:30.117666,-38
2021-10-21 15:39:30.117675,411
2021-10-21 15:39:30.117683,1116
2021-10-21 15:39:30.117691,1428
2021-10-21 15:39:30.117700,737
2021-10-21 15:39:30.117708,-141
2021-10-21 15:39:30.117717,-175
2021-10-21 15:39:30.117725,21
2021-10-21 15:39:30.117743,-128
2021-10-21 15:39:30.117752,-194
2021-10-21 15:39:30.117760,-107
2021-10-21 15:39:30.117769,-109
2021-10-21 15:39:30.117777,-126
2021-10-21 15:39:30.117785,-92
2021-10-21 15:39:30.117794,-87
2021-10-21 15:39:30.117802,-97
2021-10-21 15:39:30.117810,-77
2021-10-21 15:39:30.117818,-55
2021-10-21 15:39:30.117827,-51
2021-10-21 15:39:30.117835,-41
2021-10-21 15:39:30.117843,-21
2021-10-21 15:39:30.117851,-9
2021-10-21 15:39:30.117860,-4
2021-10-21 15:39:30.117868,4
2021-10-21 15:39:30.117876,14
2021-10-21 15:39:30.297675,14
2021-10-21 15:39:30.297697,21
2021-10-21 15:39:30.297706,19
2021-10-21 15:39:30.297715,2
2021-10-21 15:39:30.297723,7
2021-10-21 15:39:30.297731,14
2021-10-21 15:39:30.297740,9
2021-10-21 15:39:30.297748,12
2021-10-21 15:39:30.297756,12
2021-10-21 15:39:30.297765,0
2021-10-21 15:39:30.297773,-12
2021-10-21 15:39:30.297782,-29
2021-10-21 15:39:30.297790,-43
2021-10-21 15:39:30.297798,-41
2021-10-21 15:39:30.297807,-51
2021-10-21 15:39:30.297815,-75
2021-10-21 15:39:30.297823,-82
2021-10-21 15:39:30.297831,-85
2021-10-21 15:39:30.297840,-87
2021-10-21 15:39:30.297848,-77
2021-10-21 15:39:30.297856,-65
2021-10-21 15:39:30.297865,-70
2021-10-21 15:39:30.297873,-75
2021-10-21 15:39:30.297881,-68
2021-10-21 15:39:30.297890,-60
2021-10-21 15:39:30.297898,-60
2021-10-21 15:39:30.297906,-63
2021-10-21 15:39:30.297915,-60
2021-10-21 15:39:30.297923,-58
2021-10-21 15:39:30.297931,-68
2021-10-21 15:39:30.522560,-68
2021-10-21 15:39:30.522582,-55
2021-10-21 15:39:30.522591,-51
2021-10-21 15:39:30.522606,-55
2021-10-21 15:39:30.522615,-63
2021-10-21 15:39:30.522623,-72
2021-10-21 15:39:30.522631,-70
2021-10-21 15:39:30.522639,-60
2021-10-21 15:39:30.522648,-60
2021-10-21 15:39:30.522656,-60
2021-10-21 15:39:30.522664,-63
2021-10-21 15:39:30.522673,-72
2021-10-21 15:39:30.522681,-65
2021-10-21 15:39:30.522689,-55
2021-10-21 15:39:30.522697,-58
2021-10-21 15:39:30.522705,-60
2021-10-21 15:39:30.522714,-55
2021-10-21 15:39:30.522722,-53
2021-10-21 15:39:30.522730,-48
2021-10-21 15:39:30.522738,-31
2021-10-21 15:39:30.522747,-26
2021-10-21 15:39:30.522755,-29
2021-10-21 15:39:30.522763,-31
2021-10-21 15:39:30.522771,-38
2021-10-21 15:39:30.522779,-46
2021-10-21 15:39:30.522788,-38
2021-10-21 15:39:30.522796,-14
2021-10-21 15:39:30.522804,4
2021-10-21 15:39:30.522812,0
2021-10-21 15:39:30.522821,-9
2021-10-21 15:39:30.836252,0
2021-10-21 15:39:30.836275,2
2021-10-21 15:39:30.836284,-14
2021-10-21 15:39:30.836293,-29
2021-10-21 15:39:30.836302,-36
2021-10-21 15:39:30.836310,-36
2021-10-21 15:39:30.836319,-26
2021-10-21 15:39:30.836327,-26
2021-10-21 15:39:30.836336,-46
2021-10-21 15:39:30.836344,-63
2021-10-21 15:39:30.836352,-60
2021-10-21 15:39:30.836361,-63
2021-10-21 15:39:30.836369,-102
2021-10-21 15:39:30.836377,-153
2021-10-21 15:39:30.836386,-60
2021-10-21 15:39:30.836400,355
2021-10-21 15:39:30.836409,1026
2021-10-21 15:39:30.836418,1335
2021-10-21 15:39:30.836426,671
2021-10-21 15:39:30.836434,-199
2021-10-21 15:39:30.836442,-209
2021-10-21 15:39:30.836451,43
2021-10-21 15:39:30.836459,-92
2021-10-21 15:39:30.836471,-163
2021-10-21 15:39:30.836479,-65
2021-10-21 15:39:30.836488,-75
2021-10-21 15:39:30.836496,-114
2021-10-21 15:39:30.836504,-77
2021-10-21 15:39:30.836513,-58
2021-10-21 15:39:30.836521,-60
2021-10-21 15:39:31.017619,-34
2021-10-21 15:39:31.017641,-14
2021-10-21 15:39:31.017651,-14
2021-10-21 15:39:31.017660,-12
2021-10-21 15:39:31.017668,0
2021-10-21 15:39:31.017677,19
2021-10-21 15:39:31.017685,34
2021-10-21 15:39:31.017693,41
2021-10-21 15:39:31.017702,46
2021-10-21 15:39:31.017710,46
2021-10-21 15:39:31.017719,51
2021-10-21 15:39:31.017727,63
2021-10-21 15:39:31.017735,70
2021-10-21 15:39:31.017744,70
2021-10-21 15:39:31.017752,63
2021-10-21 15:39:31.017760,41
2021-10-21 15:39:31.017769,29
2021-10-21 15:39:31.017777,34
2021-10-21 15:39:31.017785,31
2021-10-21 15:39:31.017794,17
2021-10-21 15:39:31.017802,-2
2021-10-21 15:39:31.017810,-26
2021-10-21 15:39:31.017819,-41
2021-10-21 15:39:31.017827,-43
2021-10-21 15:39:31.017835,-51
2021-10-21 15:39:31.017843,-58
2021-10-21 15:39:31.017852,-55
2021-10-21 15:39:31.017860,-63
2021-10-21 15:39:31.017868,-72
2021-10-21 15:39:31.017876,-63
2021-10-21 15:39:31.287612,-48
2021-10-21 15:39:31.287633,-46
2021-10-21 15:39:31.287642,-58
2021-10-21 15:39:31.287650,-65
2021-10-21 15:39:31.287659,-58
2021-10-21 15:39:31.287667,-58
2021-10-21 15:39:31.287675,-58
2021-10-21 15:39:31.287683,-51
2021-10-21 15:39:31.287692,-58
2021-10-21 15:39:31.287700,-75
2021-10-21 15:39:31.287708,-65
2021-10-21 15:39:31.287716,-53
2021-10-21 15:39:31.287724,-55
2021-10-21 15:39:31.287733,-77
2021-10-21 15:39:31.287741,-102
2021-10-21 15:39:31.287749,-111
2021-10-21 15:39:31.287758,-99
2021-10-21 15:39:31.287766,-87
2021-10-21 15:39:31.287774,-85
2021-10-21 15:39:31.287782,-82
2021-10-21 15:39:31.287790,-87
2021-10-21 15:39:31.287799,-90
2021-10-21 15:39:31.287807,-82
2021-10-21 15:39:31.287815,-72
2021-10-21 15:39:31.287823,-68
2021-10-21 15:39:31.287832,-63
2021-10-21 15:39:31.287840,-65
2021-10-21 15:39:31.287848,-65
2021-10-21 15:39:31.287856,-58
2021-10-21 15:39:31.287864,-60
2021-10-21 15:39:31.467639,-68
2021-10-21 15:39:31.467660,-60
2021-10-21 15:39:31.467684,-41
2021-10-21 15:39:31.467693,-29
2021-10-21 15:39:31.467701,-29
2021-10-21 15:39:31.467709,-26
2021-10-21 15:39:31.467718,-21
2021-10-21 15:39:31.467726,-31
2021-10-21 15:39:31.467734,-48
2021-10-21 15:39:31.467742,-51
2021-10-21 15:39:31.467972,-43
2021-10-21 15:39:31.467982,-34
2021-10-21 15:39:31.467991,-31
2021-10-21 15:39:31.467999,-41
2021-10-21 15:39:31.468007,-55
2021-10-21 15:39:31.468016,-51
2021-10-21 15:39:31.468024,-43
2021-10-21 15:39:31.468033,-65
2021-10-21 15:39:31.468041,-126
2021-10-21 15:39:31.468049,-163
2021-10-21 15:39:31.468058,26
2021-10-21 15:39:31.468066,622
2021-10-21 15:39:31.468074,1352
2021-10-21 15:39:31.468082,1369
2021-10-21 15:39:31.468091,418
2021-10-21 15:39:31.468099,-279
2021-10-21 15:39:31.468107,-107
2021-10-21 15:39:31.468115,7
2021-10-21 15:39:31.468124,-180
2021-10-21 15:39:31.468132,-170
2021-10-21 15:39:31.692603,-85
2021-10-21 15:39:31.692624,-124
2021-10-21 15:39:31.692634,-138
2021-10-21 15:39:31.692649,-99
2021-10-21 15:39:31.692658,-87
2021-10-21 15:39:31.692666,-80
2021-10-21 15:39:31.692675,-65
2021-10-21 15:39:31.692683,-68
2021-10-21 15:39:31.692692,-70
2021-10-21 15:39:31.692700,-51
2021-10-21 15:39:31.692709,-34
2021-10-21 15:39:31.692717,-24
2021-10-21 15:39:31.692725,-19
2021-10-21 15:39:31.692734,-21
2021-10-21 15:39:31.692742,-17
2021-10-21 15:39:31.692750,-4
2021-10-21 15:39:31.692758,4
2021-10-21 15:39:31.692767,14
2021-10-21 15:39:31.692775,14
2021-10-21 15:39:31.692784,0
2021-10-21 15:39:31.692792,-14
2021-10-21 15:39:31.692800,-14
2021-10-21 15:39:31.692808,-12
2021-10-21 15:39:31.692819,-17
2021-10-21 15:39:31.692828,-26
2021-10-21 15:39:31.692836,-36
2021-10-21 15:39:31.692845,-48
2021-10-21 15:39:31.692853,-55
2021-10-21 15:39:31.692861,-65
2021-10-21 15:39:31.692870,-77
2021-10-21 15:39:31.962591,-87
2021-10-21 15:39:31.962613,-90
2021-10-21 15:39:31.962623,-90
2021-10-21 15:39:31.962631,-92
2021-10-21 15:39:31.962640,-99
2021-10-21 15:39:31.962648,-94
2021-10-21 15:39:31.962656,-92
2021-10-21 15:39:31.962664,-97
2021-10-21 15:39:31.962673,-87
2021-10-21 15:39:31.962681,-85
2021-10-21 15:39:31.962689,-90
2021-10-21 15:39:31.962698,-90
2021-10-21 15:39:31.962706,-99
2021-10-21 15:39:31.962714,-109
2021-10-21 15:39:31.962723,-99
2021-10-21 15:39:31.962731,-92
2021-10-21 15:39:31.962739,-92
2021-10-21 15:39:31.962747,-87
2021-10-21 15:39:31.962756,-87
2021-10-21 15:39:31.962764,-87
2021-10-21 15:39:31.962772,-85
2021-10-21 15:39:31.962781,-82
2021-10-21 15:39:31.962789,-82
2021-10-21 15:39:31.962803,-80
2021-10-21 15:39:31.962812,-80
2021-10-21 15:39:31.962820,-77
2021-10-21 15:39:31.962829,-72
2021-10-21 15:39:31.962837,-72
2021-10-21 15:39:31.962845,-70
2021-10-21 15:39:31.962854,-65
2021-10-21 15:39:32.142658,-68
2021-10-21 15:39:32.142680,-60
2021-10-21 15:39:32.142690,-55
2021-10-21 15:39:32.142698,-55
2021-10-21 15:39:32.142707,-53
2021-10-21 15:39:32.142715,-51
2021-10-21 15:39:32.142724,-60
2021-10-21 15:39:32.142732,-63
2021-10-21 15:39:32.142741,-51
2021-10-21 15:39:32.142749,-34
2021-10-21 15:39:32.142757,-17
2021-10-21 15:39:32.142765,-19
2021-10-21 15:39:32.142774,-38
2021-10-21 15:39:32.142782,-34
2021-10-21 15:39:32.142790,-26
2021-10-21 15:39:32.142798,-41
2021-10-21 15:39:32.142807,-51
2021-10-21 15:39:32.142815,-51
2021-10-21 15:39:32.142823,-58
2021-10-21 15:39:32.142832,-53
2021-10-21 15:39:32.142840,-41
2021-10-21 15:39:32.142848,-43
2021-10-21 15:39:32.142856,-43
2021-10-21 15:39:32.142864,-41
2021-10-21 15:39:32.142873,-70
2021-10-21 15:39:32.142881,-141
2021-10-21 15:39:32.142889,-199
2021-10-21 15:39:32.142897,-72
2021-10-21 15:39:32.142906,428
2021-10-21 15:39:32.142914,1211
2021-10-21 15:39:32.457026,1564
2021-10-21 15:39:32.457049,824
2021-10-21 15:39:32.457059,-138
2021-10-21 15:39:32.457068,-199
2021-10-21 15:39:32.457076,7
2021-10-21 15:39:32.457085,-163
2021-10-21 15:39:32.457093,-240
2021-10-21 15:39:32.457101,-141
2021-10-21 15:39:32.457110,-158
2021-10-21 15:39:32.457118,-192
2021-10-21 15:39:32.457127,-150
2021-10-21 15:39:32.457135,-143
2021-10-21 15:39:32.457143,-148
2021-10-21 15:39:32.457152,-114
2021-10-21 15:39:32.457161,-97
2021-10-21 15:39:32.457169,-99
2021-10-21 15:39:32.457178,-87
2021-10-21 15:39:32.457186,-72
2021-10-21 15:39:32.457195,-60
2021-10-21 15:39:32.457203,-46
2021-10-21 15:39:32.457212,-31
2021-10-21 15:39:32.457220,-26
2021-10-21 15:39:32.457228,-21
2021-10-21 15:39:32.457236,-12
2021-10-21 15:39:32.457245,0
2021-10-21 15:39:32.457254,9
2021-10-21 15:39:32.457262,12
2021-10-21 15:39:32.457270,9
2021-10-21 15:39:32.457279,7
2021-10-21 15:39:32.457287,9
2021-10-21 15:39:32.592651,12
2021-10-21 15:39:32.592673,9
2021-10-21 15:39:32.592682,-7
2021-10-21 15:39:32.592691,-31
2021-10-21 15:39:32.592699,-51
2021-10-21 15:39:32.592708,-58
2021-10-21 15:39:32.592716,-58
2021-10-21 15:39:32.592725,-60
2021-10-21 15:39:32.592733,-68
2021-10-21 15:39:32.592741,-85
2021-10-21 15:39:32.592749,-97
2021-10-21 15:39:32.592758,-87
2021-10-21 15:39:32.592766,-72
2021-10-21 15:39:32.592774,-68
2021-10-21 15:39:32.592783,-65
2021-10-21 15:39:32.592791,-75
2021-10-21 15:39:32.592799,-90
2021-10-21 15:39:32.592807,-80
2021-10-21 15:39:32.592816,-58
2021-10-21 15:39:32.592824,-55
2021-10-21 15:39:32.592832,-65
2021-10-21 15:39:32.592841,-77
2021-10-21 15:39:32.592849,-82
2021-10-21 15:39:32.592857,-85
2021-10-21 15:39:32.592866,-82
2021-10-21 15:39:32.592874,-75
2021-10-21 15:39:32.592882,-75
2021-10-21 15:39:32.592890,-80
2021-10-21 15:39:32.592899,-82
2021-10-21 15:39:32.592907,-82
2021-10-21 15:39:32.951285,-94
2021-10-21 15:39:32.951308,-107
2021-10-21 15:39:32.951317,-99
2021-10-21 15:39:32.951332,-109
2021-10-21 15:39:32.951341,-121
2021-10-21 15:39:32.951349,-107
2021-10-21 15:39:32.951358,-92
2021-10-21 15:39:32.951366,-92
2021-10-21 15:39:32.951374,-92
2021-10-21 15:39:32.951382,-102
2021-10-21 15:39:32.951391,-107
2021-10-21 15:39:32.951399,-97
2021-10-21 15:39:32.951407,-99
2021-10-21 15:39:32.951415,-104
2021-10-21 15:39:32.951424,-97
2021-10-21 15:39:32.951432,-90
2021-10-21 15:39:32.951441,-70
2021-10-21 15:39:32.951449,-46
2021-10-21 15:39:32.951457,-43
2021-10-21 15:39:32.951465,-46
2021-10-21 15:39:32.951473,-46
2021-10-21 15:39:32.951482,-55
2021-10-21 15:39:32.951490,-65
2021-10-21 15:39:32.951498,-58
2021-10-21 15:39:32.951506,-48
2021-10-21 15:39:32.951514,-48
2021-10-21 15:39:32.951522,-48
2021-10-21 15:39:32.951530,-48
2021-10-21 15:39:32.951539,-46
2021-10-21 15:39:32.951547,-38
2021-10-21 15:39:33.087642,-36
2021-10-21 15:39:33.087665,-58
2021-10-21 15:39:33.087674,-128
2021-10-21 15:39:33.087683,-165
2021-10-21 15:39:33.087691,58
2021-10-21 15:39:33.087700,686
2021-10-21 15:39:33.087708,1416
2021-10-21 15:39:33.087717,1394
2021-10-21 15:39:33.087725,416
2021-10-21 15:39:33.087733,-265
2021-10-21 15:39:33.087742,-90
2021-10-21 15:39:33.087750,7
2021-10-21 15:39:33.087759,-180
2021-10-21 15:39:33.087767,-175
2021-10-21 15:39:33.087775,-107
2021-10-21 15:39:33.087784,-148
2021-10-21 15:39:33.087792,-141
2021-10-21 15:39:33.087800,-90
2021-10-21 15:39:33.087809,-85
2021-10-21 15:39:33.087817,-87
2021-10-21 15:39:33.087825,-80
2021-10-21 15:39:33.087833,-82
2021-10-21 15:39:33.087842,-68
2021-10-21 15:39:33.087857,-46
2021-10-21 15:39:33.087865,-34
2021-10-21 15:39:33.087874,-26
2021-10-21 15:39:33.087882,-21
2021-10-21 15:39:33.087890,-14
2021-10-21 15:39:33.087898,-2
2021-10-21 15:39:33.087907,9
2021-10-21 15:39:33.357659,19
2021-10-21 15:39:33.357682,24
2021-10-21 15:39:33.357691,21
2021-10-21 15:39:33.357700,17
2021-10-21 15:39:33.357709,17
2021-10-21 15:39:33.357717,4
2021-10-21 15:39:33.357725,-17
2021-10-21 15:39:33.357734,-26
2021-10-21 15:39:33.357742,-38
2021-10-21 15:39:33.357750,-60
2021-10-21 15:39:33.357759,-60
2021-10-21 15:39:33.357767,-60
2021-10-21 15:39:33.357775,-65
2021-10-21 15:39:33.357783,-80
2021-10-21 15:39:33.357792,-99
2021-10-21 15:39:33.357800,-107
2021-10-21 15:39:33.357808,-109
2021-10-21 15:39:33.357817,-107
2021-10-21 15:39:33.357825,-97
2021-10-21 15:39:33.357833,-92
2021-10-21 15:39:33.357841,-97
2021-10-21 15:39:33.357850,-90
2021-10-21 15:39:33.357858,-77
2021-10-21 15:39:33.357866,-68
2021-10-21 15:39:33.357874,-63
2021-10-21 15:39:33.357883,-60
2021-10-21 15:39:33.357891,-58
2021-10-21 15:39:33.357900,-55
2021-10-21 15:39:33.357908,-48
2021-10-21 15:39:33.357916,-41
2021-10-21 15:39:33.537665,-48
2021-10-21 15:39:33.537688,-58
2021-10-21 15:39:33.537698,-63
2021-10-21 15:39:33.537707,-70
2021-10-21 15:39:33.537715,-75
2021-10-21 15:39:33.537724,-68
2021-10-21 15:39:33.537732,-68
2021-10-21 15:39:33.537741,-85
2021-10-21 15:39:33.537749,-92
2021-10-21 15:39:33.537757,-82
2021-10-21 15:39:33.537766,-77
2021-10-21 15:39:33.537774,-75
2021-10-21 15:39:33.537782,-70
2021-10-21 15:39:33.537797,-70
2021-10-21 15:39:33.537806,-70
2021-10-21 15:39:33.537814,-65
2021-10-21 15:39:33.537823,-60
2021-10-21 15:39:33.537831,-58
2021-10-21 15:39:33.537839,-70
2021-10-21 15:39:33.537847,-87
2021-10-21 15:39:33.537855,-82
2021-10-21 15:39:33.537864,-72
2021-10-21 15:39:33.537872,-75
2021-10-21 15:39:33.537880,-70
2021-10-21 15:39:33.537888,-58
2021-10-21 15:39:33.537897,-43
2021-10-21 15:39:33.537905,-24
2021-10-21 15:39:33.537913,-14
2021-10-21 15:39:33.537921,-24
2021-10-21 15:39:33.537930,-24
2021-10-21 15:39:33.807023,-21
2021-10-21 15:39:33.807045,-36
2021-10-21 15:39:33.807054,-41
2021-10-21 15:39:33.807063,-34
2021-10-21 15:39:33.807071,-31
2021-10-21 15:39:33.807080,-29
2021-10-21 15:39:33.807088,-36
2021-10-21 15:39:33.807097,-43
2021-10-21 15:39:33.807105,-38
2021-10-21 15:39:33.807113,-31
2021-10-21 15:39:33.807125,-48
2021-10-21 15:39:33.807134,-116
2021-10-21 15:39:33.807142,-199
2021-10-21 15:39:33.807150,-92
2021-10-21 15:39:33.807158,382
2021-10-21 15:39:33.807166,1112
2021-10-21 15:39:33.807175,1445
2021-10-21 15:39:33.807183,766
2021-10-21 15:39:33.807191,-141
2021-10-21 15:39:33.807199,-204
2021-10-21 15:39:33.807208,2
2021-10-21 15:39:33.807216,-148
2021-10-21 15:39:33.807224,-218
2021-10-21 15:39:33.807232,-121
2021-10-21 15:39:33.807241,-131
2021-10-21 15:39:33.807249,-153
2021-10-21 15:39:33.807257,-107
2021-10-21 15:39:33.807265,-90
2021-10-21 15:39:33.807274,-92
2021-10-21 15:39:33.807282,-72
2021-10-21 15:39:33.987653,-60
2021-10-21 15:39:33.987674,-53
2021-10-21 15:39:33.987684,-38
2021-10-21 15:39:33.987700,-26
2021-10-21 15:39:33.987709,-17
2021-10-21 15:39:33.987718,-7
2021-10-21 15:39:33.987726,-2
2021-10-21 15:39:33.987734,7
2021-10-21 15:39:33.987743,14
2021-10-21 15:39:33.987751,17
2021-10-21 15:39:33.987759,21
2021-10-21 15:39:33.987768,21
2021-10-21 15:39:33.987776,9
2021-10-21 15:39:33.987784,14
2021-10-21 15:39:33.987792,24
2021-10-21 15:39:33.987800,17
2021-10-21 15:39:33.987808,9
2021-10-21 15:39:33.987817,4
2021-10-21 15:39:33.987825,-7
2021-10-21 15:39:33.987833,-17
2021-10-21 15:39:33.987842,-24
2021-10-21 15:39:33.987850,-36
2021-10-21 15:39:33.987858,-53
2021-10-21 15:39:33.987867,-68
2021-10-21 15:39:33.987875,-68
2021-10-21 15:39:33.987883,-60
2021-10-21 15:39:33.987891,-58
2021-10-21 15:39:33.987899,-58
2021-10-21 15:39:33.987907,-55
2021-10-21 15:39:33.987916,-60
2021-10-21 15:39:34.212520,-55
2021-10-21 15:39:34.212541,-41
2021-10-21 15:39:34.212550,-36
2021-10-21 15:39:34.212559,-38
2021-10-21 15:39:34.212567,-36
2021-10-21 15:39:34.212576,-41
2021-10-21 15:39:34.212584,-43
2021-10-21 15:39:34.212593,-36
2021-10-21 15:39:34.212601,-31
2021-10-21 15:39:34.212609,-41
2021-10-21 15:39:34.212617,-55
2021-10-21 15:39:34.212625,-68
2021-10-21 15:39:34.212634,-70
2021-10-21 15:39:34.212642,-68
2021-10-21 15:39:34.212650,-68
2021-10-21 15:39:34.212659,-68
2021-10-21 15:39:34.212667,-70
2021-10-21 15:39:34.212675,-85
2021-10-21 15:39:34.212684,-97
2021-10-21 15:39:34.212692,-87
2021-10-21 15:39:34.212700,-75
2021-10-21 15:39:34.212709,-80
2021-10-21 15:39:34.212717,-80
2021-10-21 15:39:34.212725,-75
2021-10-21 15:39:34.212733,-77
2021-10-21 15:39:34.212742,-82
2021-10-21 15:39:34.212750,-77
2021-10-21 15:39:34.212758,-75
2021-10-21 15:39:34.212767,-72
2021-10-21 15:39:34.212775,-65
2021-10-21 15:39:34.437682,-58
2021-10-21 15:39:34.437702,-55
2021-10-21 15:39:34.437712,-53
2021-10-21 15:39:34.437721,-41
2021-10-21 15:39:34.437729,-29
2021-10-21 15:39:34.437738,-26
2021-10-21 15:39:34.437746,-31
2021-10-21 15:39:34.437755,-29
2021-10-21 15:39:34.437763,-26
2021-10-21 15:39:34.437771,-38
2021-10-21 15:39:34.437779,-55
2021-10-21 15:39:34.437787,-55
2021-10-21 15:39:34.437796,-46
2021-10-21 15:39:34.437804,-41
2021-10-21 15:39:34.437812,-36
2021-10-21 15:39:34.437820,-38
2021-10-21 15:39:34.437829,-38
2021-10-21 15:39:34.437837,-31
2021-10-21 15:39:34.437845,-29
2021-10-21 15:39:34.437853,-68
2021-10-21 15:39:34.437861,-126
2021-10-21 15:39:34.437870,-70
2021-10-21 15:39:34.437878,309
2021-10-21 15:39:34.437886,985
2021-10-21 15:39:34.437895,1379
2021-10-21 15:39:34.437903,802
2021-10-21 15:39:34.437911,-126
2021-10-21 15:39:34.437919,-245
2021-10-21 15:39:34.437928,21
2021-10-21 15:39:34.437936,-72
2021-10-21 15:39:34.752635,-167
2021-10-21 15:39:34.752656,-72
2021-10-21 15:39:34.752666,-63
2021-10-21 15:39:34.752675,-111
2021-10-21 15:39:34.752683,-87
2021-10-21 15:39:34.752692,-53
2021-10-21 15:39:34.752700,-51
2021-10-21 15:39:34.752708,-36
2021-10-21 15:39:34.752717,-19
2021-10-21 15:39:34.752725,-26
2021-10-21 15:39:34.752734,-29
2021-10-21 15:39:34.752742,-2
2021-10-21 15:39:34.752756,17
2021-10-21 15:39:34.752768,24
2021-10-21 15:39:34.752777,29
2021-10-21 15:39:34.752785,36
2021-10-21 15:39:34.752793,43
2021-10-21 15:39:34.752802,55
2021-10-21 15:39:34.752810,60
2021-10-21 15:39:34.752818,63
2021-10-21 15:39:34.752827,68
2021-10-21 15:39:34.752835,60
2021-10-21 15:39:34.752843,48
2021-10-21 15:39:34.752851,34
2021-10-21 15:39:34.752860,17
2021-10-21 15:39:34.752868,14
2021-10-21 15:39:34.752876,2
2021-10-21 15:39:34.752885,-21
2021-10-21 15:39:34.752893,-38
2021-10-21 15:39:34.752901,-48
2021-10-21 15:39:35.021328,-53
2021-10-21 15:39:35.021351,-55
2021-10-21 15:39:35.021361,-68
2021-10-21 15:39:35.021369,-87
2021-10-21 15:39:35.021378,-90
2021-10-21 15:39:35.021386,-77
2021-10-21 15:39:35.021395,-70
2021-10-21 15:39:35.021403,-65
2021-10-21 15:39:35.021411,-65
2021-10-21 15:39:35.021420,-68
2021-10-21 15:39:35.021428,-63
2021-10-21 15:39:35.021436,-48
2021-10-21 15:39:35.021445,-38
2021-10-21 15:39:35.021453,-36
2021-10-21 15:39:35.021461,-51
2021-10-21 15:39:35.021470,-68
2021-10-21 15:39:35.021478,-63
2021-10-21 15:39:35.021486,-55
2021-10-21 15:39:35.021494,-68
2021-10-21 15:39:35.021502,-77
2021-10-21 15:39:35.021511,-85
2021-10-21 15:39:35.021519,-92
2021-10-21 15:39:35.021527,-87
2021-10-21 15:39:35.021535,-77
2021-10-21 15:39:35.021544,-75
2021-10-21 15:39:35.021552,-77
2021-10-21 15:39:35.021560,-82
2021-10-21 15:39:35.021568,-85
2021-10-21 15:39:35.021577,-75
2021-10-21 15:39:35.021585,-68
2021-10-21 15:39:35.157636,-80
2021-10-21 15:39:35.157658,-87
2021-10-21 15:39:35.157667,-82
2021-10-21 15:39:35.157682,-77
2021-10-21 15:39:35.157692,-75
2021-10-21 15:39:35.157700,-68
2021-10-21 15:39:35.157708,-58
2021-10-21 15:39:35.157717,-48
2021-10-21 15:39:35.157725,-38
2021-10-21 15:39:35.157734,-29
2021-10-21 15:39:35.157742,-31
2021-10-21 15:39:35.157750,-34
2021-10-21 15:39:35.157759,-31
2021-10-21 15:39:35.157767,-46
2021-10-21 15:39:35.157775,-68
2021-10-21 15:39:35.157784,-63
2021-10-21 15:39:35.157792,-48
2021-10-21 15:39:35.157800,-46
2021-10-21 15:39:35.157808,-46
2021-10-21 15:39:35.157817,-48
2021-10-21 15:39:35.157825,-60
2021-10-21 15:39:35.157833,-60
2021-10-21 15:39:35.157842,-58
2021-10-21 15:39:35.157850,-94
2021-10-21 15:39:35.157858,-160
2021-10-21 15:39:35.157866,-104
2021-10-21 15:39:35.157875,284
2021-10-21 15:39:35.157883,1002
2021-10-21 15:39:35.157891,1459
2021-10-21 15:39:35.157899,893
2021-10-21 15:39:35.472724,-104
2021-10-21 15:39:35.472747,-279
2021-10-21 15:39:35.472756,-24
2021-10-21 15:39:35.472765,-131
2021-10-21 15:39:35.472783,-240
2021-10-21 15:39:35.472792,-141
2021-10-21 15:39:35.472800,-128
2021-10-21 15:39:35.472808,-177
2021-10-21 15:39:35.472817,-150
2021-10-21 15:39:35.472825,-119
2021-10-21 15:39:35.472833,-114
2021-10-21 15:39:35.472841,-97
2021-10-21 15:39:35.472849,-82
2021-10-21 15:39:35.472861,-85
2021-10-21 15:39:35.472869,-77
2021-10-21 15:39:35.472878,-60
2021-10-21 15:39:35.472886,-43
2021-10-21 15:39:35.472894,-31
2021-10-21 15:39:35.472902,-21
2021-10-21 15:39:35.472911,-14
2021-10-21 15:39:35.472919,-7
2021-10-21 15:39:35.472927,0
2021-10-21 15:39:35.472935,9
2021-10-21 15:39:35.472944,19
2021-10-21 15:39:35.472952,19
2021-10-21 15:39:35.472960,12
2021-10-21 15:39:35.472969,12
2021-10-21 15:39:35.472977,9
2021-10-21 15:39:35.472986,4
2021-10-21 15:39:35.472994,2
2021-10-21 15:39:35.652687,-7
2021-10-21 15:39:35.652709,-24
2021-10-21 15:39:35.652718,-36
2021-10-21 15:39:35.652727,-43
2021-10-21 15:39:35.652735,-55
2021-10-21 15:39:35.652744,-75
2021-10-21 15:39:35.652752,-90
2021-10-21 15:39:35.652760,-94
2021-10-21 15:39:35.652769,-90
2021-10-21 15:39:35.652777,-82
2021-10-21 15:39:35.652785,-75
2021-10-21 15:39:35.652793,-72
2021-10-21 15:39:35.652802,-82
2021-10-21 15:39:35.652810,-82
2021-10-21 15:39:35.652819,-68
2021-10-21 15:39:35.652827,-63
2021-10-21 15:39:35.652835,-58
2021-10-21 15:39:35.652843,-51
2021-10-21 15:39:35.652852,-48
2021-10-21 15:39:35.652868,-46
2021-10-21 15:39:35.652877,-38
2021-10-21 15:39:35.652885,-38
2021-10-21 15:39:35.652893,-43
2021-10-21 15:39:35.652902,-53
2021-10-21 15:39:35.652910,-68
2021-10-21 15:39:35.652918,-77
2021-10-21 15:39:35.652926,-80
2021-10-21 15:39:35.652934,-80
2021-10-21 15:39:35.652943,-80
2021-10-21 15:39:35.652951,-77
2021-10-21 15:39:35.832667,-80
2021-10-21 15:39:35.832689,-77
2021-10-21 15:39:35.832699,-72
2021-10-21 15:39:35.832707,-82
2021-10-21 15:39:35.832716,-99
2021-10-21 15:39:35.832724,-102
2021-10-21 15:39:35.832733,-94
2021-10-21 15:39:35.832741,-102
2021-10-21 15:39:35.832750,-99
2021-10-21 15:39:35.832758,-90
2021-10-21 15:39:35.832766,-87
2021-10-21 15:39:35.832774,-97
2021-10-21 15:39:35.832783,-104
2021-10-21 15:39:35.832797,-90
2021-10-21 15:39:35.832806,-63
2021-10-21 15:39:35.832814,-48
2021-10-21 15:39:35.832823,-48
2021-10-21 15:39:35.832831,-60
2021-10-21 15:39:35.832839,-68
2021-10-21 15:39:35.832847,-63
2021-10-21 15:39:35.832856,-65
2021-10-21 15:39:35.832864,-70
2021-10-21 15:39:35.832872,-65
2021-10-21 15:39:35.832880,-60
2021-10-21 15:39:35.832889,-60
2021-10-21 15:39:35.832897,-51
2021-10-21 15:39:35.832905,-46
2021-10-21 15:39:35.832913,-46
2021-10-21 15:39:35.832922,-46
2021-10-21 15:39:35.832930,-65
2021-10-21 15:39:36.102680,-126
2021-10-21 15:39:36.102703,-170
2021-10-21 15:39:36.102712,-17
2021-10-21 15:39:36.102721,535
2021-10-21 15:39:36.102729,1330
2021-10-21 15:39:36.102738,1564
2021-10-21 15:39:36.102746,698
2021-10-21 15:39:36.102754,-199
2021-10-21 15:39:36.102763,-170
2021-10-21 15:39:36.102771,-4
2021-10-21 15:39:36.102779,-192
2021-10-21 15:39:36.102788,-245
2021-10-21 15:39:36.102796,-148
2021-10-21 15:39:36.102804,-155
2021-10-21 15:39:36.102813,-170
2021-10-21 15:39:36.102821,-131
2021-10-21 15:39:36.102829,-116
2021-10-21 15:39:36.102838,-119
2021-10-21 15:39:36.102846,-97
2021-10-21 15:39:36.102855,-77
2021-10-21 15:39:36.102863,-70
2021-10-21 15:39:36.102871,-65
2021-10-21 15:39:36.102880,-51
2021-10-21 15:39:36.102888,-41
2021-10-21 15:39:36.102896,-29
2021-10-21 15:39:36.102905,-14
2021-10-21 15:39:36.102913,-7
2021-10-21 15:39:36.102921,-2
2021-10-21 15:39:36.102930,4
2021-10-21 15:39:36.102938,14
2021-10-21 15:39:36.282721,21
2021-10-21 15:39:36.282762,26
2021-10-21 15:39:36.282772,26
2021-10-21 15:39:36.282780,19
2021-10-21 15:39:36.282789,2
2021-10-21 15:39:36.282798,-9
2021-10-21 15:39:36.282806,-7
2021-10-21 15:39:36.282814,-9
2021-10-21 15:39:36.282823,-24
2021-10-21 15:39:36.282831,-46
2021-10-21 15:39:36.282840,-72
2021-10-21 15:39:36.282848,-92
2021-10-21 15:39:36.282856,-92
2021-10-21 15:39:36.282865,-82
2021-10-21 15:39:36.282873,-85
2021-10-21 15:39:36.282882,-92
2021-10-21 15:39:36.282890,-97
2021-10-21 15:39:36.282899,-92
2021-10-21 15:39:36.282907,-82
2021-10-21 15:39:36.282916,-80
2021-10-21 15:39:36.282924,-75
2021-10-21 15:39:36.282932,-72
2021-10-21 15:39:36.282941,-72
2021-10-21 15:39:36.282949,-65
2021-10-21 15:39:36.282957,-51
2021-10-21 15:39:36.282966,-48
2021-10-21 15:39:36.282974,-48
2021-10-21 15:39:36.282982,-51
2021-10-21 15:39:36.282991,-55
2021-10-21 15:39:36.282999,-58
2021-10-21 15:39:36.642103,-55
2021-10-21 15:39:36.642125,-55
2021-10-21 15:39:36.642135,-68
2021-10-21 15:39:36.642143,-87
2021-10-21 15:39:36.642152,-92
2021-10-21 15:39:36.642160,-85
2021-10-21 15:39:36.642168,-77
2021-10-21 15:39:36.642177,-75
2021-10-21 15:39:36.642185,-77
2021-10-21 15:39:36.642193,-90
2021-10-21 15:39:36.642201,-97
2021-10-21 15:39:36.642210,-87
2021-10-21 15:39:36.642218,-82
2021-10-21 15:39:36.642227,-94
2021-10-21 15:39:36.642235,-94
2021-10-21 15:39:36.642243,-92
2021-10-21 15:39:36.642251,-94
2021-10-21 15:39:36.642259,-85
2021-10-21 15:39:36.642267,-68
2021-10-21 15:39:36.642276,-46
2021-10-21 15:39:36.642284,-31
2021-10-21 15:39:36.642292,-38
2021-10-21 15:39:36.642300,-46
2021-10-21 15:39:36.642316,-34
2021-10-21 15:39:36.642325,-34
2021-10-21 15:39:36.642335,-46
2021-10-21 15:39:36.642344,-48
2021-10-21 15:39:36.642352,-46
2021-10-21 15:39:36.642361,-46
2021-10-21 15:39:36.642369,-38
2021-10-21 15:39:36.777739,-31
2021-10-21 15:39:36.777761,-29
2021-10-21 15:39:36.777770,-29
2021-10-21 15:39:36.777777,-36
2021-10-21 15:39:36.777784,-58
2021-10-21 15:39:36.777792,-114
2021-10-21 15:39:36.777799,-150
2021-10-21 15:39:36.777807,41
2021-10-21 15:39:36.777815,637
2021-10-21 15:39:36.777822,1379
2021-10-21 15:39:36.777830,1442
2021-10-21 15:39:36.777838,513
2021-10-21 15:39:36.777845,-228
2021-10-21 15:39:36.777853,-94
2021-10-21 15:39:36.777860,17
2021-10-21 15:39:36.777867,-192
2021-10-21 15:39:36.777875,-218
2021-10-21 15:39:36.777882,-136
2021-10-21 15:39:36.777890,-153
2021-10-21 15:39:36.777897,-155
2021-10-21 15:39:36.777905,-124
2021-10-21 15:39:36.777913,-121
2021-10-21 15:39:36.777920,-114
2021-10-21 15:39:36.777927,-87
2021-10-21 15:39:36.777934,-72
2021-10-21 15:39:36.777942,-68
2021-10-21 15:39:36.777950,-60
2021-10-21 15:39:36.777957,-55
2021-10-21 15:39:36.777964,-38
2021-10-21 15:39:36.777972,-21
2021-10-21 15:39:37.091366,-12
2021-10-21 15:39:37.091388,-4
2021-10-21 15:39:37.091397,-2
2021-10-21 15:39:37.091406,2
2021-10-21 15:39:37.091415,14
2021-10-21 15:39:37.091423,24
2021-10-21 15:39:37.091432,26
2021-10-21 15:39:37.091440,19
2021-10-21 15:39:37.091449,0
2021-10-21 15:39:37.091457,-12
2021-10-21 15:39:37.091465,-7
2021-10-21 15:39:37.091474,-9
2021-10-21 15:39:37.091482,-24
2021-10-21 15:39:37.091497,-43
2021-10-21 15:39:37.091505,-68
2021-10-21 15:39:37.091514,-80
2021-10-21 15:39:37.091522,-82
2021-10-21 15:39:37.091530,-94
2021-10-21 15:39:37.091538,-97
2021-10-21 15:39:37.091546,-90
2021-10-21 15:39:37.091555,-92
2021-10-21 15:39:37.091563,-90
2021-10-21 15:39:37.091571,-72
2021-10-21 15:39:37.091579,-63
2021-10-21 15:39:37.091587,-55
2021-10-21 15:39:37.091596,-53
2021-10-21 15:39:37.091604,-51
2021-10-21 15:39:37.091612,-53
2021-10-21 15:39:37.091620,-55
2021-10-21 15:39:37.091628,-46
2021-10-21 15:39:37.227573,-41
2021-10-21 15:39:37.227594,-43
2021-10-21 15:39:37.227604,-46
2021-10-21 15:39:37.227613,-43
2021-10-21 15:39:37.227621,-38
2021-10-21 15:39:37.227629,-34
2021-10-21 15:39:37.227638,-34
2021-10-21 15:39:37.227646,-46
2021-10-21 15:39:37.227655,-63
2021-10-21 15:39:37.227663,-65
2021-10-21 15:39:37.227671,-63
2021-10-21 15:39:37.227680,-68
2021-10-21 15:39:37.227688,-80
2021-10-21 15:39:37.227696,-92
2021-10-21 15:39:37.227704,-94
2021-10-21 15:39:37.227713,-90
2021-10-21 15:39:37.227721,-80
2021-10-21 15:39:37.227729,-77
2021-10-21 15:39:37.227738,-80
2021-10-21 15:39:37.227746,-85
2021-10-21 15:39:37.227754,-90
2021-10-21 15:39:37.227762,-102
2021-10-21 15:39:37.227771,-111
2021-10-21 15:39:37.227779,-99
2021-10-21 15:39:37.227787,-92
2021-10-21 15:39:37.227796,-92
2021-10-21 15:39:37.227804,-72
2021-10-21 15:39:37.227812,-46
2021-10-21 15:39:37.227820,-41
2021-10-21 15:39:37.227829,-43
2021-10-21 15:39:37.452720,-43
2021-10-21 15:39:37.452741,-51
2021-10-21 15:39:37.452751,-60
2021-10-21 15:39:37.452767,-63
2021-10-21 15:39:37.452776,-55
2021-10-21 15:39:37.452784,-51
2021-10-21 15:39:37.452793,-58
2021-10-21 15:39:37.452801,-65
2021-10-21 15:39:37.452809,-58
2021-10-21 15:39:37.452817,-51
2021-10-21 15:39:37.452826,-51
2021-10-21 15:39:37.452834,-60
2021-10-21 15:39:37.452842,-119
2021-10-21 15:39:37.452850,-187
2021-10-21 15:39:37.452858,-87
2021-10-21 15:39:37.452866,374
2021-10-21 15:39:37.452875,1126
2021-10-21 15:39:37.452883,1491
2021-10-21 15:39:37.452891,802
2021-10-21 15:39:37.452899,-128
2021-10-21 15:39:37.452907,-199
2021-10-21 15:39:37.452915,4
2021-10-21 15:39:37.452924,-138
2021-10-21 15:39:37.452932,-209
2021-10-21 15:39:37.452940,-121
2021-10-21 15:39:37.452948,-124
2021-10-21 15:39:37.452956,-148
2021-10-21 15:39:37.452964,-109
2021-10-21 15:39:37.452972,-85
2021-10-21 15:39:37.452981,-82
2021-10-21 15:39:37.677716,-70
2021-10-21 15:39:37.677738,-55
2021-10-21 15:39:37.677747,-46
2021-10-21 15:39:37.677756,-36
2021-10-21 15:39:37.677764,-26
2021-10-21 15:39:37.677773,-19
2021-10-21 15:39:37.677781,-21
2021-10-21 15:39:37.677789,-12
2021-10-21 15:39:37.677798,2
2021-10-21 15:39:37.677806,9
2021-10-21 15:39:37.677814,17
2021-10-21 15:39:37.677823,17
2021-10-21 15:39:37.677831,12
2021-10-21 15:39:37.677839,19
2021-10-21 15:39:37.677848,24
2021-10-21 15:39:37.677856,17
2021-10-21 15:39:37.677865,17
2021-10-21 15:39:37.677873,12
2021-10-21 15:39:37.677881,2
2021-10-21 15:39:37.677890,-4
2021-10-21 15:39:37.677898,-14
2021-10-21 15:39:37.677906,-26
2021-10-21 15:39:37.677915,-38
2021-10-21 15:39:37.677928,-51
2021-10-21 15:39:37.677937,-60
2021-10-21 15:39:37.677945,-63
2021-10-21 15:39:37.677954,-77
2021-10-21 15:39:37.677962,-94
2021-10-21 15:39:37.677970,-80
2021-10-21 15:39:37.677978,-60
2021-10-21 15:39:37.947723,-60
2021-10-21 15:39:37.947745,-51
2021-10-21 15:39:37.947755,-41
2021-10-21 15:39:37.947763,-38
2021-10-21 15:39:37.947772,-38
2021-10-21 15:39:37.947781,-51
2021-10-21 15:39:37.947789,-63
2021-10-21 15:39:37.947797,-55
2021-10-21 15:39:37.947806,-46
2021-10-21 15:39:37.947814,-46
2021-10-21 15:39:37.947823,-48
2021-10-21 15:39:37.947831,-58
2021-10-21 15:39:37.947840,-60
2021-10-21 15:39:37.947848,-48
2021-10-21 15:39:37.947856,-46
2021-10-21 15:39:37.947865,-48
2021-10-21 15:39:37.947873,-48
2021-10-21 15:39:37.947881,-55
2021-10-21 15:39:37.947889,-63
2021-10-21 15:39:37.947897,-65
2021-10-21 15:39:37.947906,-75
2021-10-21 15:39:37.947914,-77
2021-10-21 15:39:37.947922,-72
2021-10-21 15:39:37.947931,-70
2021-10-21 15:39:37.947939,-65
2021-10-21 15:39:37.947947,-70
2021-10-21 15:39:37.947955,-82
2021-10-21 15:39:37.947964,-77
2021-10-21 15:39:37.947972,-65
2021-10-21 15:39:37.947980,-68
2021-10-21 15:39:38.172712,-65
2021-10-21 15:39:38.172734,-55
2021-10-21 15:39:38.172743,-51
2021-10-21 15:39:38.172752,-53
2021-10-21 15:39:38.172760,-53
2021-10-21 15:39:38.172769,-36
2021-10-21 15:39:38.172777,-14
2021-10-21 15:39:38.172785,-4
2021-10-21 15:39:38.172794,-14
2021-10-21 15:39:38.172802,-21
2021-10-21 15:39:38.172811,-26
2021-10-21 15:39:38.172819,-36
2021-10-21 15:39:38.172827,-31
2021-10-21 15:39:38.172843,-21
2021-10-21 15:39:38.172852,-21
2021-10-21 15:39:38.172860,-29
2021-10-21 15:39:38.172868,-38
2021-10-21 15:39:38.172877,-38
2021-10-21 15:39:38.172885,-24
2021-10-21 15:39:38.172893,-21
2021-10-21 15:39:38.172902,-34
2021-10-21 15:39:38.172910,-75
2021-10-21 15:39:38.172918,-133
2021-10-21 15:39:38.172927,-63
2021-10-21 15:39:38.172935,333
2021-10-21 15:39:38.172943,1014
2021-10-21 15:39:38.172951,1391
2021-10-21 15:39:38.172959,788
2021-10-21 15:39:38.172968,-138
2021-10-21 15:39:38.172976,-228
2021-10-21 15:39:38.397752,41
2021-10-21 15:39:38.397773,-77
2021-10-21 15:39:38.397783,-201
2021-10-21 15:39:38.397791,-133
2021-10-21 15:39:38.397800,-128
2021-10-21 15:39:38.397808,-148
2021-10-21 15:39:38.397816,-107
2021-10-21 15:39:38.397824,-82
2021-10-21 15:39:38.397833,-80
2021-10-21 15:39:38.397841,-68
2021-10-21 15:39:38.397849,-51
2021-10-21 15:39:38.397857,-31
2021-10-21 15:39:38.397866,-17
2021-10-21 15:39:38.397874,-2
2021-10-21 15:39:38.397883,0
2021-10-21 15:39:38.397891,-9
2021-10-21 15:39:38.397899,-2
2021-10-21 15:39:38.397907,21
2021-10-21 15:39:38.397916,31
2021-10-21 15:39:38.397924,38
2021-10-21 15:39:38.397932,51
2021-10-21 15:39:38.397940,43
2021-10-21 15:39:38.397949,38
2021-10-21 15:39:38.397957,48
2021-10-21 15:39:38.397965,53
2021-10-21 15:39:38.397974,46
2021-10-21 15:39:38.397982,36
2021-10-21 15:39:38.397990,21
2021-10-21 15:39:38.397998,4
2021-10-21 15:39:38.398006,-12
2021-10-21 15:39:38.757131,-24
2021-10-21 15:39:38.757153,-31
2021-10-21 15:39:38.757162,-43
2021-10-21 15:39:38.757171,-63
2021-10-21 15:39:38.757179,-68
2021-10-21 15:39:38.757187,-58
2021-10-21 15:39:38.757195,-53
2021-10-21 15:39:38.757203,-51
2021-10-21 15:39:38.757211,-55
2021-10-21 15:39:38.757254,-70
2021-10-21 15:39:38.757263,-72
2021-10-21 15:39:38.757271,-60
2021-10-21 15:39:38.757279,-51
2021-10-21 15:39:38.757287,-48
2021-10-21 15:39:38.757295,-51
2021-10-21 15:39:38.757302,-63
2021-10-21 15:39:38.757310,-55
2021-10-21 15:39:38.757318,-38
2021-10-21 15:39:38.757326,-31
2021-10-21 15:39:38.757334,-34
2021-10-21 15:39:38.757342,-41
2021-10-21 15:39:38.757350,-58
2021-10-21 15:39:38.757358,-58
2021-10-21 15:39:38.757366,-53
2021-10-21 15:39:38.757374,-60
2021-10-21 15:39:38.757381,-60
2021-10-21 15:39:38.757389,-63
2021-10-21 15:39:38.757398,-72
2021-10-21 15:39:38.757406,-70
2021-10-21 15:39:38.757414,-60
2021-10-21 15:39:38.847658,-63
2021-10-21 15:39:38.847678,-72
2021-10-21 15:39:38.847688,-82
2021-10-21 15:39:38.847696,-85
2021-10-21 15:39:38.847705,-75
2021-10-21 15:39:38.847713,-65
2021-10-21 15:39:38.847721,-58
2021-10-21 15:39:38.847730,-60
2021-10-21 15:39:38.847738,-77
2021-10-21 15:39:38.847746,-94
2021-10-21 15:39:38.847754,-77
2021-10-21 15:39:38.847762,-58
2021-10-21 15:39:38.847771,-43
2021-10-21 15:39:38.847779,-34
2021-10-21 15:39:38.847787,-46
2021-10-21 15:39:38.847795,-55
2021-10-21 15:39:38.847803,-43
2021-10-21 15:39:38.847812,-41
2021-10-21 15:39:38.847820,-53
2021-10-21 15:39:38.847828,-55
2021-10-21 15:39:38.847836,-58
2021-10-21 15:39:38.847844,-58
2021-10-21 15:39:38.847853,-48
2021-10-21 15:39:38.847877,-43
2021-10-21 15:39:38.847886,-38
2021-10-21 15:39:38.847894,-41
2021-10-21 15:39:38.847903,-53
2021-10-21 15:39:38.847911,-80
2021-10-21 15:39:38.847919,-138
2021-10-21 15:39:38.847927,-145
2021-10-21 15:39:39.161387,109
2021-10-21 15:39:39.161409,749
2021-10-21 15:39:39.161419,1406
2021-10-21 15:39:39.161427,1219
2021-10-21 15:39:39.161436,199
2021-10-21 15:39:39.161444,-321
2021-10-21 15:39:39.161452,-65
2021-10-21 15:39:39.161460,-34
2021-10-21 15:39:39.161469,-228
2021-10-21 15:39:39.161477,-180
2021-10-21 15:39:39.161486,-107
2021-10-21 15:39:39.161494,-143
2021-10-21 15:39:39.161502,-136
2021-10-21 15:39:39.161511,-109
2021-10-21 15:39:39.161519,-114
2021-10-21 15:39:39.161527,-102
2021-10-21 15:39:39.161535,-75
2021-10-21 15:39:39.161544,-65
2021-10-21 15:39:39.161552,-58
2021-10-21 15:39:39.161560,-48
2021-10-21 15:39:39.161569,-38
2021-10-21 15:39:39.161577,-26
2021-10-21 15:39:39.161585,-12
2021-10-21 15:39:39.161594,0
2021-10-21 15:39:39.161602,7
2021-10-21 15:39:39.161610,14
2021-10-21 15:39:39.161618,17
2021-10-21 15:39:39.161626,19
2021-10-21 15:39:39.161635,26
2021-10-21 15:39:39.161643,31
2021-10-21 15:39:39.342783,26
2021-10-21 15:39:39.342805,19
2021-10-21 15:39:39.342815,14
2021-10-21 15:39:39.342823,7
2021-10-21 15:39:39.342832,-7
2021-10-21 15:39:39.342841,-29
2021-10-21 15:39:39.342858,-58
2021-10-21 15:39:39.342867,-75
2021-10-21 15:39:39.342875,-77
2021-10-21 15:39:39.342883,-85
2021-10-21 15:39:39.342892,-90
2021-10-21 15:39:39.342900,-82
2021-10-21 15:39:39.342908,-80
2021-10-21 15:39:39.342916,-94
2021-10-21 15:39:39.342925,-104
2021-10-21 15:39:39.342933,-94
2021-10-21 15:39:39.342941,-87
2021-10-21 15:39:39.342950,-94
2021-10-21 15:39:39.342958,-99
2021-10-21 15:39:39.342966,-97
2021-10-21 15:39:39.342974,-90
2021-10-21 15:39:39.342983,-82
2021-10-21 15:39:39.342991,-75
2021-10-21 15:39:39.342999,-68
2021-10-21 15:39:39.343007,-68
2021-10-21 15:39:39.343016,-63
2021-10-21 15:39:39.343024,-58
2021-10-21 15:39:39.343032,-65
2021-10-21 15:39:39.343040,-72
2021-10-21 15:39:39.343049,-70
2021-10-21 15:39:39.612126,-80
2021-10-21 15:39:39.612148,-90
2021-10-21 15:39:39.612158,-82
2021-10-21 15:39:39.612166,-82
2021-10-21 15:39:39.612175,-87
2021-10-21 15:39:39.612183,-90
2021-10-21 15:39:39.612192,-102
2021-10-21 15:39:39.612200,-111
2021-10-21 15:39:39.612208,-111
2021-10-21 15:39:39.612217,-107
2021-10-21 15:39:39.612225,-102
2021-10-21 15:39:39.612233,-102
2021-10-21 15:39:39.612242,-104
2021-10-21 15:39:39.612250,-94
2021-10-21 15:39:39.612259,-85
2021-10-21 15:39:39.612267,-85
2021-10-21 15:39:39.612281,-82
2021-10-21 15:39:39.612290,-85
2021-10-21 15:39:39.612299,-94
2021-10-21 15:39:39.612307,-87
2021-10-21 15:39:39.612315,-77
2021-10-21 15:39:39.612324,-75
2021-10-21 15:39:39.612332,-58
2021-10-21 15:39:39.612340,-34
2021-10-21 15:39:39.612349,-34
2021-10-21 15:39:39.612357,-36
2021-10-21 15:39:39.612365,-31
2021-10-21 15:39:39.612374,-36
2021-10-21 15:39:39.612382,-46
2021-10-21 15:39:39.612390,-51
2021-10-21 15:39:39.792723,-46
2021-10-21 15:39:39.792745,-38
2021-10-21 15:39:39.792755,-38
2021-10-21 15:39:39.792770,-38
2021-10-21 15:39:39.792779,-38
2021-10-21 15:39:39.792788,-38
2021-10-21 15:39:39.792796,-38
2021-10-21 15:39:39.792804,-48
2021-10-21 15:39:39.792813,-109
2021-10-21 15:39:39.792821,-180
2021-10-21 15:39:39.792829,-46
2021-10-21 15:39:39.792838,501
2021-10-21 15:39:39.792846,1306
2021-10-21 15:39:39.792855,1581
2021-10-21 15:39:39.792863,749
2021-10-21 15:39:39.792871,-189
2021-10-21 15:39:39.792880,-182
2021-10-21 15:39:39.792888,12
2021-10-21 15:39:39.792896,-175
2021-10-21 15:39:39.792905,-250
2021-10-21 15:39:39.792913,-155
2021-10-21 15:39:39.792921,-158
2021-10-21 15:39:39.792929,-182
2021-10-21 15:39:39.792938,-145
2021-10-21 15:39:39.792946,-121
2021-10-21 15:39:39.792954,-119
2021-10-21 15:39:39.792962,-99
2021-10-21 15:39:39.792971,-87
2021-10-21 15:39:39.792979,-87
2021-10-21 15:39:39.792987,-75
2021-10-21 15:39:39.972738,-55
2021-10-21 15:39:39.972760,-41
2021-10-21 15:39:39.972769,-31
2021-10-21 15:39:39.972778,-29
2021-10-21 15:39:39.972786,-31
2021-10-21 15:39:39.972795,-29
2021-10-21 15:39:39.972803,-14
2021-10-21 15:39:39.972812,0
2021-10-21 15:39:39.972820,4
2021-10-21 15:39:39.972828,4
2021-10-21 15:39:39.972837,7
2021-10-21 15:39:39.972845,0
2021-10-21 15:39:39.972853,-7
2021-10-21 15:39:39.972862,-7
2021-10-21 15:39:39.972870,-7
2021-10-21 15:39:39.972879,-26
2021-10-21 15:39:39.972887,-55
2021-10-21 15:39:39.972895,-68
2021-10-21 15:39:39.972904,-63
2021-10-21 15:39:39.972912,-65
2021-10-21 15:39:39.972920,-80
2021-10-21 15:39:39.972929,-97
2021-10-21 15:39:39.972937,-107
2021-10-21 15:39:39.972952,-97
2021-10-21 15:39:39.972961,-85
2021-10-21 15:39:39.972969,-77
2021-10-21 15:39:39.972977,-75
2021-10-21 15:39:39.972986,-70
2021-10-21 15:39:39.972994,-68
2021-10-21 15:39:39.973002,-60
2021-10-21 15:39:40.197735,-48
2021-10-21 15:39:40.197756,-48
2021-10-21 15:39:40.197765,-55
2021-10-21 15:39:40.197774,-70
2021-10-21 15:39:40.197783,-85
2021-10-21 15:39:40.197791,-85
2021-10-21 15:39:40.197800,-77
2021-10-21 15:39:40.197808,-72
2021-10-21 15:39:40.197816,-72
2021-10-21 15:39:40.197825,-87
2021-10-21 15:39:40.197833,-94
2021-10-21 15:39:40.197841,-85
2021-10-21 15:39:40.197849,-80
2021-10-21 15:39:40.197858,-90
2021-10-21 15:39:40.197866,-99
2021-10-21 15:39:40.197874,-99
2021-10-21 15:39:40.197882,-94
2021-10-21 15:39:40.197890,-87
2021-10-21 15:39:40.197899,-80
2021-10-21 15:39:40.197907,-75
2021-10-21 15:39:40.197915,-75
2021-10-21 15:39:40.197923,-77
2021-10-21 15:39:40.197931,-75
2021-10-21 15:39:40.197939,-68
2021-10-21 15:39:40.197948,-72
2021-10-21 15:39:40.197956,-87
2021-10-21 15:39:40.197964,-87
2021-10-21 15:39:40.197972,-80
2021-10-21 15:39:40.197980,-77
2021-10-21 15:39:40.197989,-70
2021-10-21 15:39:40.467795,-60
2021-10-21 15:39:40.467816,-55
2021-10-21 15:39:40.467826,-60
2021-10-21 15:39:40.467835,-75
2021-10-21 15:39:40.467844,-72
2021-10-21 15:39:40.467852,-63
2021-10-21 15:39:40.467861,-55
2021-10-21 15:39:40.467869,-51
2021-10-21 15:39:40.467877,-41
2021-10-21 15:39:40.467886,-36
2021-10-21 15:39:40.467894,-29
2021-10-21 15:39:40.467902,-24
2021-10-21 15:39:40.467910,-21
2021-10-21 15:39:40.467919,-19
2021-10-21 15:39:40.467927,-29
2021-10-21 15:39:40.467935,-48
2021-10-21 15:39:40.467944,-51
2021-10-21 15:39:40.467952,-38
2021-10-21 15:39:40.467961,-34
2021-10-21 15:39:40.467969,-34
2021-10-21 15:39:40.467977,-34
2021-10-21 15:39:40.467985,-36
2021-10-21 15:39:40.467994,-31
2021-10-21 15:39:40.468002,-34
2021-10-21 15:39:40.468010,-85
2021-10-21 15:39:40.468019,-150
2021-10-21 15:39:40.468027,-82
2021-10-21 15:39:40.468035,352
2021-10-21 15:39:40.468044,1138
2021-10-21 15:39:40.468052,1613
2021-10-21 15:39:40.692775,1012
2021-10-21 15:39:40.692797,-12
2021-10-21 15:39:40.692807,-206
2021-10-21 15:39:40.692816,29
2021-10-21 15:39:40.692825,-85
2021-10-21 15:39:40.692833,-197
2021-10-21 15:39:40.692842,-109
2021-10-21 15:39:40.692850,-102
2021-10-21 15:39:40.692859,-150
2021-10-21 15:39:40.692867,-126
2021-10-21 15:39:40.692876,-90
2021-10-21 15:39:40.692884,-90
2021-10-21 15:39:40.692893,-77
2021-10-21 15:39:40.692901,-63
2021-10-21 15:39:40.692909,-72
2021-10-21 15:39:40.692918,-70
2021-10-21 15:39:40.692926,-48
2021-10-21 15:39:40.692935,-43
2021-10-21 15:39:40.692943,-46
2021-10-21 15:39:40.692951,-34
2021-10-21 15:39:40.692960,-24
2021-10-21 15:39:40.692968,-21
2021-10-21 15:39:40.692976,-7
2021-10-21 15:39:40.692985,7
2021-10-21 15:39:40.692993,14
2021-10-21 15:39:40.693001,12
2021-10-21 15:39:40.693010,9
2021-10-21 15:39:40.693018,7
2021-10-21 15:39:40.693027,0
2021-10-21 15:39:40.693035,-17
2021-10-21 15:39:40.917747,-41
2021-10-21 15:39:40.917769,-58
2021-10-21 15:39:40.917779,-68
2021-10-21 15:39:40.917794,-80
2021-10-21 15:39:40.917803,-85
2021-10-21 15:39:40.917811,-82
2021-10-21 15:39:40.917820,-90
2021-10-21 15:39:40.917828,-109
2021-10-21 15:39:40.917836,-121
2021-10-21 15:39:40.917845,-124
2021-10-21 15:39:40.917853,-121
2021-10-21 15:39:40.917861,-116
2021-10-21 15:39:40.917869,-116
2021-10-21 15:39:40.917878,-131
2021-10-21 15:39:40.917886,-131
2021-10-21 15:39:40.917894,-116
2021-10-21 15:39:40.917903,-107
2021-10-21 15:39:40.917911,-99
2021-10-21 15:39:40.917919,-92
2021-10-21 15:39:40.917927,-97
2021-10-21 15:39:40.917936,-104
2021-10-21 15:39:40.917944,-97
2021-10-21 15:39:40.917952,-85
2021-10-21 15:39:40.917960,-82
2021-10-21 15:39:40.917969,-82
2021-10-21 15:39:40.917977,-80
2021-10-21 15:39:40.917985,-75
2021-10-21 15:39:40.917994,-72
2021-10-21 15:39:40.918002,-68
2021-10-21 15:39:40.918010,-63
2021-10-21 15:39:41.276454,-63
2021-10-21 15:39:41.276477,-65
2021-10-21 15:39:41.276486,-63
2021-10-21 15:39:41.276495,-58
2021-10-21 15:39:41.276504,-55
2021-10-21 15:39:41.276512,-51
2021-10-21 15:39:41.276522,-58
2021-10-21 15:39:41.276532,-68
2021-10-21 15:39:41.276542,-60
2021-10-21 15:39:41.276551,-53
2021-10-21 15:39:41.276560,-53
2021-10-21 15:39:41.276570,-48
2021-10-21 15:39:41.276580,-51
2021-10-21 15:39:41.276591,-60
2021-10-21 15:39:41.276604,-53
2021-10-21 15:39:41.276617,-46
2021-10-21 15:39:41.276630,-43
2021-10-21 15:39:41.276644,-36
2021-10-21 15:39:41.276658,-34
2021-10-21 15:39:41.276666,-36
2021-10-21 15:39:41.276674,-31
2021-10-21 15:39:41.276682,-36
2021-10-21 15:39:41.276692,-46
2021-10-21 15:39:41.276704,-41
2021-10-21 15:39:41.276715,-38
2021-10-21 15:39:41.276729,-38
2021-10-21 15:39:41.276741,-29
2021-10-21 15:39:41.276752,-12
2021-10-21 15:39:41.276766,7
2021-10-21 15:39:41.276780,9
2021-10-21 15:39:41.367753,0
2021-10-21 15:39:41.367775,0
2021-10-21 15:39:41.367785,-2
2021-10-21 15:39:41.367794,-14
2021-10-21 15:39:41.367802,-17
2021-10-21 15:39:41.367810,-17
2021-10-21 15:39:41.367818,-31
2021-10-21 15:39:41.367826,-38
2021-10-21 15:39:41.367834,-26
2021-10-21 15:39:41.367843,-21
2021-10-21 15:39:41.367851,-26
2021-10-21 15:39:41.367859,-29
2021-10-21 15:39:41.367867,-60
2021-10-21 15:39:41.367875,-124
2021-10-21 15:39:41.367884,-155
2021-10-21 15:39:41.367892,24
2021-10-21 15:39:41.367900,615
2021-10-21 15:39:41.367908,1377
2021-10-21 15:39:41.367917,1462
2021-10-21 15:39:41.367925,547
2021-10-21 15:39:41.367933,-216
2021-10-21 15:39:41.367941,-116
2021-10-21 15:39:41.367950,12
2021-10-21 15:39:41.367958,-172
2021-10-21 15:39:41.367966,-199
2021-10-21 15:39:41.367974,-114
2021-10-21 15:39:41.367982,-133
2021-10-21 15:39:41.367991,-143
2021-10-21 15:39:41.367999,-102
2021-10-21 15:39:41.368007,-94
2021-10-21 15:39:41.592771,-94
2021-10-21 15:39:41.592793,-72
2021-10-21 15:39:41.592803,-55
2021-10-21 15:39:41.592812,-55
2021-10-21 15:39:41.592820,-48
2021-10-21 15:39:41.592829,-46
2021-10-21 15:39:41.592837,-46
2021-10-21 15:39:41.592846,-36
2021-10-21 15:39:41.592854,-31
2021-10-21 15:39:41.592862,-29
2021-10-21 15:39:41.592871,-21
2021-10-21 15:39:41.592879,-26
2021-10-21 15:39:41.592888,-24
2021-10-21 15:39:41.592902,-9
2021-10-21 15:39:41.592911,-7
2021-10-21 15:39:41.592919,-9
2021-10-21 15:39:41.592927,-12
2021-10-21 15:39:41.592935,-17
2021-10-21 15:39:41.592944,-26
2021-10-21 15:39:41.592952,-36
2021-10-21 15:39:41.592960,-48
2021-10-21 15:39:41.592969,-68
2021-10-21 15:39:41.592977,-87
2021-10-21 15:39:41.592985,-92
2021-10-21 15:39:41.592993,-94
2021-10-21 15:39:41.593001,-109
2021-10-21 15:39:41.593010,-126
2021-10-21 15:39:41.593018,-126
2021-10-21 15:39:41.593026,-121
2021-10-21 15:39:41.593035,-119
2021-10-21 15:39:41.817750,-109
2021-10-21 15:39:41.817771,-92
2021-10-21 15:39:41.817781,-90
2021-10-21 15:39:41.817790,-92
2021-10-21 15:39:41.817798,-94
2021-10-21 15:39:41.817807,-97
2021-10-21 15:39:41.817815,-85
2021-10-21 15:39:41.817824,-70
2021-10-21 15:39:41.817833,-70
2021-10-21 15:39:41.817841,-72
2021-10-21 15:39:41.817849,-82
2021-10-21 15:39:41.817858,-102
2021-10-21 15:39:41.817866,-107
2021-10-21 15:39:41.817874,-92
2021-10-21 15:39:41.817883,-82
2021-10-21 15:39:41.817891,-85
2021-10-21 15:39:41.817899,-85
2021-10-21 15:39:41.817908,-77
2021-10-21 15:39:41.817916,-72
2021-10-21 15:39:41.817924,-68
2021-10-21 15:39:41.817932,-68
2021-10-21 15:39:41.817940,-68
2021-10-21 15:39:41.817949,-68
2021-10-21 15:39:41.817957,-63
2021-10-21 15:39:41.817965,-53
2021-10-21 15:39:41.817973,-48
2021-10-21 15:39:41.817982,-46
2021-10-21 15:39:41.817990,-51
2021-10-21 15:39:41.817998,-55
2021-10-21 15:39:41.818006,-51
2021-10-21 15:39:42.087158,-43
2021-10-21 15:39:42.087180,-41
2021-10-21 15:39:42.087189,-36
2021-10-21 15:39:42.087205,-43
2021-10-21 15:39:42.087214,-53
2021-10-21 15:39:42.087223,-46
2021-10-21 15:39:42.087231,-31
2021-10-21 15:39:42.087240,-29
2021-10-21 15:39:42.087248,-29
2021-10-21 15:39:42.087257,-38
2021-10-21 15:39:42.087265,-46
2021-10-21 15:39:42.087274,-36
2021-10-21 15:39:42.087282,-14
2021-10-21 15:39:42.087291,2
2021-10-21 15:39:42.087299,7
2021-10-21 15:39:42.087308,-4
2021-10-21 15:39:42.087316,-7
2021-10-21 15:39:42.087325,0
2021-10-21 15:39:42.087333,-7
2021-10-21 15:39:42.087341,-12
2021-10-21 15:39:42.087350,-7
2021-10-21 15:39:42.087358,-12
2021-10-21 15:39:42.087366,-17
2021-10-21 15:39:42.087375,-7
2021-10-21 15:39:42.087383,0
2021-10-21 15:39:42.087391,2
2021-10-21 15:39:42.087400,2
2021-10-21 15:39:42.087408,-17
2021-10-21 15:39:42.087417,-70
2021-10-21 15:39:42.087425,-119
2021-10-21 15:39:42.312821,7
2021-10-21 15:39:42.312843,503
2021-10-21 15:39:42.312852,1228
2021-10-21 15:39:42.312861,1430
2021-10-21 15:39:42.312870,632
2021-10-21 15:39:42.312878,-187
2021-10-21 15:39:42.312887,-136
2021-10-21 15:39:42.312896,46
2021-10-21 15:39:42.312904,-121
2021-10-21 15:39:42.312912,-177
2021-10-21 15:39:42.312920,-90
2021-10-21 15:39:42.312929,-92
2021-10-21 15:39:42.312937,-107
2021-10-21 15:39:42.312946,-75
2021-10-21 15:39:42.312954,-80
2021-10-21 15:39:42.312962,-97
2021-10-21 15:39:42.312971,-75
2021-10-21 15:39:42.312979,-70
2021-10-21 15:39:42.312988,-80
2021-10-21 15:39:42.312996,-58
2021-10-21 15:39:42.313004,-43
2021-10-21 15:39:42.313012,-43
2021-10-21 15:39:42.313021,-29
2021-10-21 15:39:42.313029,-12
2021-10-21 15:39:42.313038,-7
2021-10-21 15:39:42.313046,-7
2021-10-21 15:39:42.313054,-4
2021-10-21 15:39:42.313063,-7
2021-10-21 15:39:42.313071,-7
2021-10-21 15:39:42.313079,0
2021-10-21 15:39:42.582152,4
2021-10-21 15:39:42.582174,-9
2021-10-21 15:39:42.582183,-29
2021-10-21 15:39:42.582192,-38
2021-10-21 15:39:42.582200,-36
2021-10-21 15:39:42.582208,-46
2021-10-21 15:39:42.582216,-65
2021-10-21 15:39:42.582225,-72
2021-10-21 15:39:42.582233,-94
2021-10-21 15:39:42.582241,-116
2021-10-21 15:39:42.582249,-111
2021-10-21 15:39:42.582258,-104
2021-10-21 15:39:42.582272,-109
2021-10-21 15:39:42.582281,-107
2021-10-21 15:39:42.582289,-111
2021-10-21 15:39:42.582297,-116
2021-10-21 15:39:42.582306,-99
2021-10-21 15:39:42.582314,-80
2021-10-21 15:39:42.582322,-72
2021-10-21 15:39:42.582330,-70
2021-10-21 15:39:42.582338,-68
2021-10-21 15:39:42.582346,-63
2021-10-21 15:39:42.582354,-55
2021-10-21 15:39:42.582363,-43
2021-10-21 15:39:42.582371,-36
2021-10-21 15:39:42.582379,-34
2021-10-21 15:39:42.582387,-34
2021-10-21 15:39:42.582395,-34
2021-10-21 15:39:42.582403,-31
2021-10-21 15:39:42.582411,-26
2021-10-21 15:39:42.762779,-19
2021-10-21 15:39:42.762801,-19
2021-10-21 15:39:42.762810,-29
2021-10-21 15:39:42.762819,-34
2021-10-21 15:39:42.762827,-38
2021-10-21 15:39:42.762836,-36
2021-10-21 15:39:42.762844,-31
2021-10-21 15:39:42.762852,-41
2021-10-21 15:39:42.762860,-53
2021-10-21 15:39:42.762869,-46
2021-10-21 15:39:42.762877,-36
2021-10-21 15:39:42.762885,-31
2021-10-21 15:39:42.762894,-29
2021-10-21 15:39:42.762908,-38
2021-10-21 15:39:42.762916,-46
2021-10-21 15:39:42.762925,-38
2021-10-21 15:39:42.762933,-24
2021-10-21 15:39:42.762941,-21
2021-10-21 15:39:42.762950,-24
2021-10-21 15:39:42.762958,-24
2021-10-21 15:39:42.762967,-12
2021-10-21 15:39:42.762975,7
2021-10-21 15:39:42.762983,-2
2021-10-21 15:39:42.762992,-24
2021-10-21 15:39:42.763000,-21
2021-10-21 15:39:42.763008,-19
2021-10-21 15:39:42.763016,-34
2021-10-21 15:39:42.763025,-36
2021-10-21 15:39:42.763033,-29
2021-10-21 15:39:42.763041,-26
2021-10-21 15:39:42.987773,-24
2021-10-21 15:39:42.987795,-26
2021-10-21 15:39:42.987804,-24
2021-10-21 15:39:42.987813,-21
2021-10-21 15:39:42.987822,-17
2021-10-21 15:39:42.987830,-31
2021-10-21 15:39:42.987838,-99
2021-10-21 15:39:42.987847,-170
2021-10-21 15:39:42.987855,-55
2021-10-21 15:39:42.987863,413
2021-10-21 15:39:42.987872,1114
2021-10-21 15:39:42.987880,1369
2021-10-21 15:39:42.987888,615
2021-10-21 15:39:42.987897,-255
2021-10-21 15:39:42.987905,-209
2021-10-21 15:39:42.987913,36
2021-10-21 15:39:42.987921,-124
2021-10-21 15:39:42.987930,-182
2021-10-21 15:39:42.987938,-82
2021-10-21 15:39:42.987946,-97
2021-10-21 15:39:42.987955,-116
2021-10-21 15:39:42.987963,-75
2021-10-21 15:39:42.987971,-58
2021-10-21 15:39:42.987979,-60
2021-10-21 15:39:42.987987,-51
2021-10-21 15:39:42.987996,-43
2021-10-21 15:39:42.988004,-34
2021-10-21 15:39:42.988012,-19
2021-10-21 15:39:42.988021,-7
2021-10-21 15:39:42.988029,0
2021-10-21 15:39:43.256312,9
2021-10-21 15:39:43.256334,19
2021-10-21 15:39:43.256343,29
2021-10-21 15:39:43.256352,38
2021-10-21 15:39:43.256361,43
2021-10-21 15:39:43.256369,31
2021-10-21 15:39:43.256378,14
2021-10-21 15:39:43.256386,9
2021-10-21 15:39:43.256404,2
2021-10-21 15:39:43.256413,-12
2021-10-21 15:39:43.256422,-12
2021-10-21 15:39:43.256430,-19
2021-10-21 15:39:43.256438,-48
2021-10-21 15:39:43.256447,-65
2021-10-21 15:39:43.256455,-75
2021-10-21 15:39:43.256464,-94
2021-10-21 15:39:43.256472,-102
2021-10-21 15:39:43.256480,-107
2021-10-21 15:39:43.256489,-119
2021-10-21 15:39:43.256497,-121
2021-10-21 15:39:43.256505,-119
2021-10-21 15:39:43.256513,-116
2021-10-21 15:39:43.256521,-111
2021-10-21 15:39:43.256530,-102
2021-10-21 15:39:43.256538,-94
2021-10-21 15:39:43.256546,-90
2021-10-21 15:39:43.256555,-80
2021-10-21 15:39:43.256563,-75
2021-10-21 15:39:43.256571,-85
2021-10-21 15:39:43.256579,-99
2021-10-21 15:39:43.482809,-94
2021-10-21 15:39:43.482830,-77
2021-10-21 15:39:43.482840,-70
2021-10-21 15:39:43.482849,-72
2021-10-21 15:39:43.482857,-68
2021-10-21 15:39:43.482865,-72
2021-10-21 15:39:43.482874,-77
2021-10-21 15:39:43.482882,-68
2021-10-21 15:39:43.482890,-63
2021-10-21 15:39:43.482898,-75
2021-10-21 15:39:43.482907,-90
2021-10-21 15:39:43.482915,-102
2021-10-21 15:39:43.482923,-99
2021-10-21 15:39:43.482932,-85
2021-10-21 15:39:43.482940,-82
2021-10-21 15:39:43.482948,-85
2021-10-21 15:39:43.482956,-80
2021-10-21 15:39:43.482965,-75
2021-10-21 15:39:43.482973,-75
2021-10-21 15:39:43.482987,-68
2021-10-21 15:39:43.482997,-58
2021-10-21 15:39:43.483005,-55
2021-10-21 15:39:43.483013,-58
2021-10-21 15:39:43.483025,-58
2021-10-21 15:39:43.483033,-55
2021-10-21 15:39:43.483042,-48
2021-10-21 15:39:43.483050,-46
2021-10-21 15:39:43.483058,-41
2021-10-21 15:39:43.483066,-24
2021-10-21 15:39:43.483075,-7
2021-10-21 15:39:43.707806,-2
2021-10-21 15:39:43.707829,-7
2021-10-21 15:39:43.707839,-7
2021-10-21 15:39:43.707847,-12
2021-10-21 15:39:43.707856,-29
2021-10-21 15:39:43.707864,-36
2021-10-21 15:39:43.707873,-29
2021-10-21 15:39:43.707881,-24
2021-10-21 15:39:43.707889,-24
2021-10-21 15:39:43.707898,-26
2021-10-21 15:39:43.707906,-38
2021-10-21 15:39:43.707914,-48
2021-10-21 15:39:43.707923,-53
2021-10-21 15:39:43.707931,-68
2021-10-21 15:39:43.707939,-121
2021-10-21 15:39:43.707947,-177
2021-10-21 15:39:43.707956,-36
2021-10-21 15:39:43.707964,513
2021-10-21 15:39:43.707972,1309
2021-10-21 15:39:43.707981,1535
2021-10-21 15:39:43.707989,669
2021-10-21 15:39:43.707997,-223
2021-10-21 15:39:43.708006,-177
2021-10-21 15:39:43.708014,9
2021-10-21 15:39:43.708022,-163
2021-10-21 15:39:43.708031,-209
2021-10-21 15:39:43.708039,-114
2021-10-21 15:39:43.708047,-136
2021-10-21 15:39:43.708055,-155
2021-10-21 15:39:43.708063,-109
2021-10-21 15:39:43.887875,-92
2021-10-21 15:39:43.887898,-94
2021-10-21 15:39:43.887907,-75
2021-10-21 15:39:43.887915,-70
2021-10-21 15:39:43.887924,-85
2021-10-21 15:39:43.887932,-77
2021-10-21 15:39:43.887940,-53
2021-10-21 15:39:43.887949,-43
2021-10-21 15:39:43.887957,-38
2021-10-21 15:39:43.887965,-38
2021-10-21 15:39:43.887973,-51
2021-10-21 15:39:43.887982,-48
2021-10-21 15:39:43.887990,-29
2021-10-21 15:39:43.888007,-26
2021-10-21 15:39:43.888016,-38
2021-10-21 15:39:43.888024,-51
2021-10-21 15:39:43.888032,-53
2021-10-21 15:39:43.888040,-48
2021-10-21 15:39:43.888049,-41
2021-10-21 15:39:43.888057,-43
2021-10-21 15:39:43.888065,-51
2021-10-21 15:39:43.888074,-72
2021-10-21 15:39:43.888082,-94
2021-10-21 15:39:43.888090,-99
2021-10-21 15:39:43.888099,-109
2021-10-21 15:39:43.888107,-124
2021-10-21 15:39:43.888115,-133
2021-10-21 15:39:43.888123,-143
2021-10-21 15:39:43.888131,-143
2021-10-21 15:39:43.888140,-131
2021-10-21 15:39:44.157812,-121
2021-10-21 15:39:44.157834,-114
2021-10-21 15:39:44.157844,-114
2021-10-21 15:39:44.157852,-126
2021-10-21 15:39:44.157861,-124
2021-10-21 15:39:44.157869,-102
2021-10-21 15:39:44.157878,-92
2021-10-21 15:39:44.157886,-87
2021-10-21 15:39:44.157895,-87
2021-10-21 15:39:44.157903,-99
2021-10-21 15:39:44.157911,-97
2021-10-21 15:39:44.157920,-80
2021-10-21 15:39:44.157928,-75
2021-10-21 15:39:44.157936,-72
2021-10-21 15:39:44.157945,-72
2021-10-21 15:39:44.157953,-82
2021-10-21 15:39:44.157961,-90
2021-10-21 15:39:44.157970,-82
2021-10-21 15:39:44.157978,-75
2021-10-21 15:39:44.157986,-75
2021-10-21 15:39:44.157995,-77
2021-10-21 15:39:44.158003,-80
2021-10-21 15:39:44.158011,-72
2021-10-21 15:39:44.158020,-63
2021-10-21 15:39:44.158028,-58
2021-10-21 15:39:44.158036,-55
2021-10-21 15:39:44.158045,-55
2021-10-21 15:39:44.158053,-60
2021-10-21 15:39:44.158061,-55
2021-10-21 15:39:44.158069,-43
2021-10-21 15:39:44.382834,-36
2021-10-21 15:39:44.382857,-38
2021-10-21 15:39:44.382866,-38
2021-10-21 15:39:44.382875,-41
2021-10-21 15:39:44.382884,-34
2021-10-21 15:39:44.382892,-26
2021-10-21 15:39:44.382900,-29
2021-10-21 15:39:44.382908,-31
2021-10-21 15:39:44.382917,-36
2021-10-21 15:39:44.382925,-41
2021-10-21 15:39:44.382933,-38
2021-10-21 15:39:44.382942,-34
2021-10-21 15:39:44.382950,-29
2021-10-21 15:39:44.382959,-31
2021-10-21 15:39:44.382967,-53
2021-10-21 15:39:44.382975,-70
2021-10-21 15:39:44.382984,-58
2021-10-21 15:39:44.382992,-51
2021-10-21 15:39:44.383000,-63
2021-10-21 15:39:44.383009,-68
2021-10-21 15:39:44.383017,-63
2021-10-21 15:39:44.383025,-63
2021-10-21 15:39:44.383033,-55
2021-10-21 15:39:44.383041,-53
2021-10-21 15:39:44.383050,-90
2021-10-21 15:39:44.383066,-163
2021-10-21 15:39:44.383075,-143
2021-10-21 15:39:44.383084,204
2021-10-21 15:39:44.383092,946
2021-10-21 15:39:44.383100,1574
2021-10-21 15:39:44.652786,1221
2021-10-21 15:39:44.652808,153
2021-10-21 15:39:44.652817,-262
2021-10-21 15:39:44.652826,-17
2021-10-21 15:39:44.652835,-48
2021-10-21 15:39:44.652843,-209
2021-10-21 15:39:44.652851,-145
2021-10-21 15:39:44.652860,-114
2021-10-21 15:39:44.652868,-165
2021-10-21 15:39:44.652876,-141
2021-10-21 15:39:44.652885,-94
2021-10-21 15:39:44.652893,-97
2021-10-21 15:39:44.652901,-92
2021-10-21 15:39:44.652910,-80
2021-10-21 15:39:44.652918,-85
2021-10-21 15:39:44.652927,-75
2021-10-21 15:39:44.652935,-51
2021-10-21 15:39:44.652943,-38
2021-10-21 15:39:44.652952,-26
2021-10-21 15:39:44.652960,-19
2021-10-21 15:39:44.652969,-21
2021-10-21 15:39:44.652977,-21
2021-10-21 15:39:44.652985,-7
2021-10-21 15:39:44.653000,7
2021-10-21 15:39:44.653009,9
2021-10-21 15:39:44.653017,12
2021-10-21 15:39:44.653026,14
2021-10-21 15:39:44.653034,14
2021-10-21 15:39:44.653042,9
2021-10-21 15:39:44.653051,2
2021-10-21 15:39:44.877191,-9
2021-10-21 15:39:44.877214,-19
2021-10-21 15:39:44.877223,-31
2021-10-21 15:39:44.877232,-48
2021-10-21 15:39:44.877241,-53
2021-10-21 15:39:44.877249,-55
2021-10-21 15:39:44.877257,-72
2021-10-21 15:39:44.877266,-94
2021-10-21 15:39:44.877274,-97
2021-10-21 15:39:44.877282,-92
2021-10-21 15:39:44.877290,-99
2021-10-21 15:39:44.877298,-99
2021-10-21 15:39:44.877306,-99
2021-10-21 15:39:44.877315,-109
2021-10-21 15:39:44.877323,-111
2021-10-21 15:39:44.877331,-116
2021-10-21 15:39:44.877339,-128
2021-10-21 15:39:44.877347,-119
2021-10-21 15:39:44.877356,-114
2021-10-21 15:39:44.877364,-121
2021-10-21 15:39:44.877372,-114
2021-10-21 15:39:44.877380,-109
2021-10-21 15:39:44.877388,-116
2021-10-21 15:39:44.877396,-119
2021-10-21 15:39:44.877405,-111
2021-10-21 15:39:44.877413,-104
2021-10-21 15:39:44.877421,-102
2021-10-21 15:39:44.877429,-97
2021-10-21 15:39:44.877437,-92
2021-10-21 15:39:44.877446,-90
2021-10-21 15:39:45.057754,-90
2021-10-21 15:39:45.057776,-87
2021-10-21 15:39:45.057786,-80
2021-10-21 15:39:45.057795,-80
2021-10-21 15:39:45.057803,-77
2021-10-21 15:39:45.057812,-75
2021-10-21 15:39:45.057820,-85
2021-10-21 15:39:45.057828,-85
2021-10-21 15:39:45.057837,-72
2021-10-21 15:39:45.057845,-70
2021-10-21 15:39:45.057853,-68
2021-10-21 15:39:45.057861,-63
2021-10-21 15:39:45.057870,-65
2021-10-21 15:39:45.057885,-60
2021-10-21 15:39:45.057893,-51
2021-10-21 15:39:45.057902,-48
2021-10-21 15:39:45.057910,-48
2021-10-21 15:39:45.057918,-48
2021-10-21 15:39:45.057927,-51
2021-10-21 15:39:45.057935,-38
2021-10-21 15:39:45.057943,-14
2021-10-21 15:39:45.057952,0
2021-10-21 15:39:45.057960,-2
2021-10-21 15:39:45.057968,-4
2021-10-21 15:39:45.057976,-9
2021-10-21 15:39:45.057985,-24
2021-10-21 15:39:45.057993,-29
2021-10-21 15:39:45.058001,-26
2021-10-21 15:39:45.058009,-24
2021-10-21 15:39:45.058017,-26
2021-10-21 15:39:45.326550,-26
2021-10-21 15:39:45.326572,-17
2021-10-21 15:39:45.326581,-17
2021-10-21 15:39:45.326590,-19
2021-10-21 15:39:45.326598,-21
2021-10-21 15:39:45.326607,-58
2021-10-21 15:39:45.326615,-133
2021-10-21 15:39:45.326623,-145
2021-10-21 15:39:45.326632,102
2021-10-21 15:39:45.326642,737
2021-10-21 15:39:45.326651,1450
2021-10-21 15:39:45.326659,1374
2021-10-21 15:39:45.326667,374
2021-10-21 15:39:45.326676,-253
2021-10-21 15:39:45.326684,-58
2021-10-21 15:39:45.326692,2
2021-10-21 15:39:45.326701,-187
2021-10-21 15:39:45.326709,-165
2021-10-21 15:39:45.326718,-94
2021-10-21 15:39:45.326726,-124
2021-10-21 15:39:45.326734,-121
2021-10-21 15:39:45.326743,-99
2021-10-21 15:39:45.326751,-116
2021-10-21 15:39:45.326759,-114
2021-10-21 15:39:45.326768,-80
2021-10-21 15:39:45.326776,-72
2021-10-21 15:39:45.326784,-80
2021-10-21 15:39:45.326793,-72
2021-10-21 15:39:45.326801,-58
2021-10-21 15:39:45.326809,-46
2021-10-21 15:39:45.507804,-34
2021-10-21 15:39:45.507826,-19
2021-10-21 15:39:45.507836,-9
2021-10-21 15:39:45.507859,-7
2021-10-21 15:39:45.507867,-7
2021-10-21 15:39:45.507876,-9
2021-10-21 15:39:45.507884,-2
2021-10-21 15:39:45.507892,9
2021-10-21 15:39:45.507901,9
2021-10-21 15:39:45.507909,2
2021-10-21 15:39:45.507918,-12
2021-10-21 15:39:45.507926,-24
2021-10-21 15:39:45.507934,-24
2021-10-21 15:39:45.507942,-26
2021-10-21 15:39:45.507951,-51
2021-10-21 15:39:45.507959,-72
2021-10-21 15:39:45.507967,-80
2021-10-21 15:39:45.507975,-82
2021-10-21 15:39:45.507983,-87
2021-10-21 15:39:45.507991,-87
2021-10-21 15:39:45.507999,-85
2021-10-21 15:39:45.508008,-87
2021-10-21 15:39:45.508016,-87
2021-10-21 15:39:45.508024,-75
2021-10-21 15:39:45.508032,-65
2021-10-21 15:39:45.508040,-68
2021-10-21 15:39:45.508048,-70
2021-10-21 15:39:45.508057,-72
2021-10-21 15:39:45.508065,-80
2021-10-21 15:39:45.508073,-87
2021-10-21 15:39:45.732814,-75
2021-10-21 15:39:45.732836,-65
2021-10-21 15:39:45.732846,-70
2021-10-21 15:39:45.732855,-80
2021-10-21 15:39:45.732863,-90
2021-10-21 15:39:45.732872,-85
2021-10-21 15:39:45.732880,-75
2021-10-21 15:39:45.732889,-68
2021-10-21 15:39:45.732897,-70
2021-10-21 15:39:45.732906,-80
2021-10-21 15:39:45.732914,-90
2021-10-21 15:39:45.732923,-82
2021-10-21 15:39:45.732931,-70
2021-10-21 15:39:45.732940,-70
2021-10-21 15:39:45.732948,-70
2021-10-21 15:39:45.732956,-72
2021-10-21 15:39:45.732964,-72
2021-10-21 15:39:45.732973,-63
2021-10-21 15:39:45.732981,-53
2021-10-21 15:39:45.732990,-51
2021-10-21 15:39:45.732998,-51
2021-10-21 15:39:45.733006,-53
2021-10-21 15:39:45.733015,-53
2021-10-21 15:39:45.733029,-43
2021-10-21 15:39:45.733038,-36
2021-10-21 15:39:45.733046,-34
2021-10-21 15:39:45.733055,-46
2021-10-21 15:39:45.733063,-65
2021-10-21 15:39:45.733071,-65
2021-10-21 15:39:45.733080,-51
2021-10-21 15:39:46.047817,-55
2021-10-21 15:39:46.047839,-68
2021-10-21 15:39:46.047848,-65
2021-10-21 15:39:46.047857,-68
2021-10-21 15:39:46.047866,-58
2021-10-21 15:39:46.047874,-26
2021-10-21 15:39:46.047882,-19
2021-10-21 15:39:46.047890,-31
2021-10-21 15:39:46.047899,-34
2021-10-21 15:39:46.047907,-51
2021-10-21 15:39:46.047915,-68
2021-10-21 15:39:46.047924,-55
2021-10-21 15:39:46.047932,-43
2021-10-21 15:39:46.047940,-43
2021-10-21 15:39:46.047948,-46
2021-10-21 15:39:46.047956,-46
2021-10-21 15:39:46.047965,-41
2021-10-21 15:39:46.047973,-34
2021-10-21 15:39:46.047981,-31
2021-10-21 15:39:46.047989,-53
2021-10-21 15:39:46.047997,-119
2021-10-21 15:39:46.048005,-153
2021-10-21 15:39:46.048013,60
2021-10-21 15:39:46.048022,681
2021-10-21 15:39:46.048030,1406
2021-10-21 15:39:46.048038,1391
2021-10-21 15:39:46.048046,435
2021-10-21 15:39:46.048054,-240
2021-10-21 15:39:46.048063,-72
2021-10-21 15:39:46.048071,24
2021-10-21 15:39:46.272112,-160
2021-10-21 15:39:46.272134,-155
2021-10-21 15:39:46.272143,-90
2021-10-21 15:39:46.272152,-133
2021-10-21 15:39:46.272161,-128
2021-10-21 15:39:46.272169,-77
2021-10-21 15:39:46.272178,-72
2021-10-21 15:39:46.272186,-75
2021-10-21 15:39:46.272194,-58
2021-10-21 15:39:46.272203,-48
2021-10-21 15:39:46.272211,-41
2021-10-21 15:39:46.272219,-24
2021-10-21 15:39:46.272228,-12
2021-10-21 15:39:46.272236,-7
2021-10-21 15:39:46.272244,-14
2021-10-21 15:39:46.272252,-14
2021-10-21 15:39:46.272260,2
2021-10-21 15:39:46.272269,17
2021-10-21 15:39:46.272277,19
2021-10-21 15:39:46.272285,19
2021-10-21 15:39:46.272293,9
2021-10-21 15:39:46.272302,2
2021-10-21 15:39:46.272310,2
2021-10-21 15:39:46.272318,0
2021-10-21 15:39:46.272327,-2
2021-10-21 15:39:46.272335,-7
2021-10-21 15:39:46.272343,-19
2021-10-21 15:39:46.272352,-29
2021-10-21 15:39:46.272360,-34
2021-10-21 15:39:46.272368,-38
2021-10-21 15:39:46.497818,-46
2021-10-21 15:39:46.497840,-63
2021-10-21 15:39:46.497849,-92
2021-10-21 15:39:46.497858,-114
2021-10-21 15:39:46.497866,-121
2021-10-21 15:39:46.497874,-126
2021-10-21 15:39:46.497883,-131
2021-10-21 15:39:46.497891,-136
2021-10-21 15:39:46.497900,-141
2021-10-21 15:39:46.497908,-131
2021-10-21 15:39:46.497916,-114
2021-10-21 15:39:46.497924,-107
2021-10-21 15:39:46.497933,-102
2021-10-21 15:39:46.497941,-102
2021-10-21 15:39:46.497949,-104
2021-10-21 15:39:46.497957,-99
2021-10-21 15:39:46.497966,-90
2021-10-21 15:39:46.497974,-82
2021-10-21 15:39:46.497982,-80
2021-10-21 15:39:46.497990,-82
2021-10-21 15:39:46.497999,-85
2021-10-21 15:39:46.498007,-80
2021-10-21 15:39:46.498015,-72
2021-10-21 15:39:46.498023,-68
2021-10-21 15:39:46.498031,-65
2021-10-21 15:39:46.498040,-68
2021-10-21 15:39:46.498048,-68
2021-10-21 15:39:46.498056,-65
2021-10-21 15:39:46.498065,-58
2021-10-21 15:39:46.498073,-53
2021-10-21 15:39:46.677807,-51
2021-10-21 15:39:46.677829,-53
2021-10-21 15:39:46.677838,-53
2021-10-21 15:39:46.677853,-51
2021-10-21 15:39:46.677862,-43
2021-10-21 15:39:46.677871,-38
2021-10-21 15:39:46.677879,-43
2021-10-21 15:39:46.677887,-48
2021-10-21 15:39:46.677895,-43
2021-10-21 15:39:46.677904,-38
2021-10-21 15:39:46.677912,-34
2021-10-21 15:39:46.677920,-26
2021-10-21 15:39:46.677928,-31
2021-10-21 15:39:46.677937,-43
2021-10-21 15:39:46.677945,-41
2021-10-21 15:39:46.677953,-34
2021-10-21 15:39:46.677961,-34
2021-10-21 15:39:46.677969,-31
2021-10-21 15:39:46.677978,-26
2021-10-21 15:39:46.677986,-17
2021-10-21 15:39:46.677994,0
2021-10-21 15:39:46.678003,-2
2021-10-21 15:39:46.678011,-7
2021-10-21 15:39:46.678019,-4
2021-10-21 15:39:46.678027,-12
2021-10-21 15:39:46.678035,-24
2021-10-21 15:39:46.678043,-19
2021-10-21 15:39:46.678051,-14
2021-10-21 15:39:46.678060,-14
2021-10-21 15:39:46.678068,-12
2021-10-21 15:39:46.902821,-12
2021-10-21 15:39:46.902843,-12
2021-10-21 15:39:46.902853,-7
2021-10-21 15:39:46.902861,-14
2021-10-21 15:39:46.902870,-48
2021-10-21 15:39:46.902878,-121
2021-10-21 15:39:46.902887,-131
2021-10-21 15:39:46.902895,148
2021-10-21 15:39:46.902903,815
2021-10-21 15:39:46.902912,1425
2021-10-21 15:39:46.902920,1129
2021-10-21 15:39:46.902928,124
2021-10-21 15:39:46.902937,-294
2021-10-21 15:39:46.902945,-55
2021-10-21 15:39:46.902954,-65
2021-10-21 15:39:46.902962,-226
2021-10-21 15:39:46.902970,-170
2021-10-21 15:39:46.902979,-119
2021-10-21 15:39:46.902987,-158
2021-10-21 15:39:46.902995,-138
2021-10-21 15:39:46.903004,-102
2021-10-21 15:39:46.903012,-104
2021-10-21 15:39:46.903020,-94
2021-10-21 15:39:46.903036,-72
2021-10-21 15:39:46.903044,-65
2021-10-21 15:39:46.903053,-55
2021-10-21 15:39:46.903061,-36
2021-10-21 15:39:46.903069,-29
2021-10-21 15:39:46.903078,-21
2021-10-21 15:39:46.903086,-14
2021-10-21 15:39:47.127819,-14
2021-10-21 15:39:47.127840,-12
2021-10-21 15:39:47.127850,-2
2021-10-21 15:39:47.127858,2
2021-10-21 15:39:47.127867,2
2021-10-21 15:39:47.127876,-2
2021-10-21 15:39:47.127884,-9
2021-10-21 15:39:47.127892,-7
2021-10-21 15:39:47.127901,-2
2021-10-21 15:39:47.127909,-12
2021-10-21 15:39:47.127927,-31
2021-10-21 15:39:47.127936,-60
2021-10-21 15:39:47.127944,-82
2021-10-21 15:39:47.127952,-82
2021-10-21 15:39:47.127961,-94
2021-10-21 15:39:47.127969,-114
2021-10-21 15:39:47.127977,-114
2021-10-21 15:39:47.127986,-116
2021-10-21 15:39:47.127994,-121
2021-10-21 15:39:47.128002,-116
2021-10-21 15:39:47.128010,-111
2021-10-21 15:39:47.128019,-109
2021-10-21 15:39:47.128027,-102
2021-10-21 15:39:47.128035,-97
2021-10-21 15:39:47.128043,-87
2021-10-21 15:39:47.128052,-75
2021-10-21 15:39:47.128060,-70
2021-10-21 15:39:47.128068,-68
2021-10-21 15:39:47.128076,-65
2021-10-21 15:39:47.128084,-58
2021-10-21 15:39:47.396475,-53
2021-10-21 15:39:47.396498,-48
2021-10-21 15:39:47.396507,-43
2021-10-21 15:39:47.396516,-46
2021-10-21 15:39:47.396525,-53
2021-10-21 15:39:47.396533,-58
2021-10-21 15:39:47.396541,-51
2021-10-21 15:39:47.396550,-41
2021-10-21 15:39:47.396558,-41
2021-10-21 15:39:47.396566,-48
2021-10-21 15:39:47.396575,-58
2021-10-21 15:39:47.396583,-63
2021-10-21 15:39:47.396591,-63
2021-10-21 15:39:47.396599,-80
2021-10-21 15:39:47.396608,-92
2021-10-21 15:39:47.396616,-80
2021-10-21 15:39:47.396633,-77
2021-10-21 15:39:47.396642,-75
2021-10-21 15:39:47.396651,-63
2021-10-21 15:39:47.396659,-53
2021-10-21 15:39:47.396668,-53
2021-10-21 15:39:47.396676,-53
2021-10-21 15:39:47.396684,-53
2021-10-21 15:39:47.396693,-46
2021-10-21 15:39:47.396701,-36
2021-10-21 15:39:47.396709,-29
2021-10-21 15:39:47.396717,-29
2021-10-21 15:39:47.396726,-31
2021-10-21 15:39:47.396734,-29
2021-10-21 15:39:47.396742,-21
2021-10-21 15:39:47.622911,-12
2021-10-21 15:39:47.622933,-9
2021-10-21 15:39:47.622943,-14
2021-10-21 15:39:47.622952,-19
2021-10-21 15:39:47.622960,-14
2021-10-21 15:39:47.622968,7
2021-10-21 15:39:47.622977,19
2021-10-21 15:39:47.622985,12
2021-10-21 15:39:47.622994,9
2021-10-21 15:39:47.623002,-2
2021-10-21 15:39:47.623011,-29
2021-10-21 15:39:47.623019,-26
2021-10-21 15:39:47.623027,-9
2021-10-21 15:39:47.623036,-12
2021-10-21 15:39:47.623044,-21
2021-10-21 15:39:47.623052,-31
2021-10-21 15:39:47.623061,-31
2021-10-21 15:39:47.623069,-21
2021-10-21 15:39:47.623077,-17
2021-10-21 15:39:47.623086,-26
2021-10-21 15:39:47.623094,-75
2021-10-21 15:39:47.623102,-131
2021-10-21 15:39:47.623110,-12
2021-10-21 15:39:47.623119,472
2021-10-21 15:39:47.623127,1180
2021-10-21 15:39:47.623136,1408
2021-10-21 15:39:47.623144,656
2021-10-21 15:39:47.623152,-170
2021-10-21 15:39:47.623160,-143
2021-10-21 15:39:47.623169,53
2021-10-21 15:39:47.847828,-94
2021-10-21 15:39:47.847850,-145
2021-10-21 15:39:47.847860,-68
2021-10-21 15:39:47.847875,-94
2021-10-21 15:39:47.847884,-111
2021-10-21 15:39:47.847893,-63
2021-10-21 15:39:47.847901,-48
2021-10-21 15:39:47.847909,-51
2021-10-21 15:39:47.847918,-36
2021-10-21 15:39:47.847926,-38
2021-10-21 15:39:47.847935,-48
2021-10-21 15:39:47.847943,-36
2021-10-21 15:39:47.847951,-14
2021-10-21 15:39:47.847960,0
2021-10-21 15:39:47.847968,-4
2021-10-21 15:39:47.847976,-17
2021-10-21 15:39:47.847985,-14
2021-10-21 15:39:47.847993,-7
2021-10-21 15:39:47.848001,-9
2021-10-21 15:39:47.848009,-21
2021-10-21 15:39:47.848017,-29
2021-10-21 15:39:47.848026,-31
2021-10-21 15:39:47.848034,-34
2021-10-21 15:39:47.848042,-34
2021-10-21 15:39:47.848050,-34
2021-10-21 15:39:47.848058,-46
2021-10-21 15:39:47.848067,-58
2021-10-21 15:39:47.848075,-70
2021-10-21 15:39:47.848083,-75
2021-10-21 15:39:47.848091,-82
2021-10-21 15:39:48.072856,-92
2021-10-21 15:39:48.072878,-97
2021-10-21 15:39:48.072888,-104
2021-10-21 15:39:48.072897,-119
2021-10-21 15:39:48.072905,-119
2021-10-21 15:39:48.072913,-107
2021-10-21 15:39:48.072922,-97
2021-10-21 15:39:48.072930,-90
2021-10-21 15:39:48.072938,-99
2021-10-21 15:39:48.072947,-109
2021-10-21 15:39:48.072955,-92
2021-10-21 15:39:48.072963,-75
2021-10-21 15:39:48.072971,-72
2021-10-21 15:39:48.072980,-68
2021-10-21 15:39:48.072988,-72
2021-10-21 15:39:48.072996,-82
2021-10-21 15:39:48.073004,-68
2021-10-21 15:39:48.073013,-53
2021-10-21 15:39:48.073021,-60
2021-10-21 15:39:48.073029,-65
2021-10-21 15:39:48.073037,-68
2021-10-21 15:39:48.073046,-70
2021-10-21 15:39:48.073054,-63
2021-10-21 15:39:48.073069,-51
2021-10-21 15:39:48.073077,-46
2021-10-21 15:39:48.073086,-51
2021-10-21 15:39:48.073094,-51
2021-10-21 15:39:48.073102,-48
2021-10-21 15:39:48.073111,-43
2021-10-21 15:39:48.073119,-36
2021-10-21 15:39:48.298247,-34
2021-10-21 15:39:48.298268,-38
2021-10-21 15:39:48.298278,-36
2021-10-21 15:39:48.298286,-34
2021-10-21 15:39:48.298295,-31
2021-10-21 15:39:48.298303,-24
2021-10-21 15:39:48.298312,-17
2021-10-21 15:39:48.298320,-19
2021-10-21 15:39:48.298328,-34
2021-10-21 15:39:48.298336,-34
2021-10-21 15:39:48.298345,-24
2021-10-21 15:39:48.298353,-14
2021-10-21 15:39:48.298361,-14
2021-10-21 15:39:48.298370,-26
2021-10-21 15:39:48.298378,-26
2021-10-21 15:39:48.298388,0
2021-10-21 15:39:48.298397,17
2021-10-21 15:39:48.298406,9
2021-10-21 15:39:48.298414,9
2021-10-21 15:39:48.298423,9
2021-10-21 15:39:48.298431,-17
2021-10-21 15:39:48.298439,-38
2021-10-21 15:39:48.298447,-31
2021-10-21 15:39:48.298455,-26
2021-10-21 15:39:48.298471,-48
2021-10-21 15:39:48.298481,-58
2021-10-21 15:39:48.298489,-43
2021-10-21 15:39:48.298497,-38
2021-10-21 15:39:48.298505,-41
2021-10-21 15:39:48.298513,-36
2021-10-21 15:39:48.522873,-60
2021-10-21 15:39:48.522895,-128
2021-10-21 15:39:48.522904,-102
2021-10-21 15:39:48.522913,221
2021-10-21 15:39:48.522921,878
2021-10-21 15:39:48.522930,1396
2021-10-21 15:39:48.522938,985
2021-10-21 15:39:48.522947,-19
2021-10-21 15:39:48.522955,-304
2021-10-21 15:39:48.522963,2
2021-10-21 15:39:48.522972,-38
2021-10-21 15:39:48.522980,-182
2021-10-21 15:39:48.522989,-104
2021-10-21 15:39:48.523004,-82
2021-10-21 15:39:48.523013,-126
2021-10-21 15:39:48.523021,-92
2021-10-21 15:39:48.523030,-55
2021-10-21 15:39:48.523038,-60
2021-10-21 15:39:48.523046,-51
2021-10-21 15:39:48.523055,-34
2021-10-21 15:39:48.523063,-24
2021-10-21 15:39:48.523071,-17
2021-10-21 15:39:48.523079,-19
2021-10-21 15:39:48.523088,-24
2021-10-21 15:39:48.523096,-19
2021-10-21 15:39:48.523104,-4
2021-10-21 15:39:48.523112,7
2021-10-21 15:39:48.523120,14
2021-10-21 15:39:48.523128,24
2021-10-21 15:39:48.523137,36
2021-10-21 15:39:48.837244,38
2021-10-21 15:39:48.837264,41
2021-10-21 15:39:48.837274,41
2021-10-21 15:39:48.837282,21
2021-10-21 15:39:48.837291,12
2021-10-21 15:39:48.837299,2
2021-10-21 15:39:48.837307,-24
2021-10-21 15:39:48.837316,-46
2021-10-21 15:39:48.837324,-51
2021-10-21 15:39:48.837333,-65
2021-10-21 15:39:48.837341,-80
2021-10-21 15:39:48.837349,-90
2021-10-21 15:39:48.837357,-114
2021-10-21 15:39:48.837366,-128
2021-10-21 15:39:48.837374,-121
2021-10-21 15:39:48.837383,-119
2021-10-21 15:39:48.837391,-116
2021-10-21 15:39:48.837399,-109
2021-10-21 15:39:48.837408,-107
2021-10-21 15:39:48.837416,-102
2021-10-21 15:39:48.837424,-92
2021-10-21 15:39:48.837433,-85
2021-10-21 15:39:48.837441,-77
2021-10-21 15:39:48.837449,-65
2021-10-21 15:39:48.837458,-63
2021-10-21 15:39:48.837466,-70
2021-10-21 15:39:48.837474,-70
2021-10-21 15:39:48.837483,-60
2021-10-21 15:39:48.837491,-53
2021-10-21 15:39:48.837499,-58
2021-10-21 15:39:48.972867,-70
2021-10-21 15:39:48.972889,-72
2021-10-21 15:39:48.972898,-60
2021-10-21 15:39:48.972913,-63
2021-10-21 15:39:48.972922,-68
2021-10-21 15:39:48.972931,-75
2021-10-21 15:39:48.972939,-82
2021-10-21 15:39:48.972947,-75
2021-10-21 15:39:48.972956,-65
2021-10-21 15:39:48.972964,-68
2021-10-21 15:39:48.972972,-68
2021-10-21 15:39:48.972981,-63
2021-10-21 15:39:48.972989,-58
2021-10-21 15:39:48.972997,-53
2021-10-21 15:39:48.973005,-48
2021-10-21 15:39:48.973014,-46
2021-10-21 15:39:48.973022,-46
2021-10-21 15:39:48.973030,-48
2021-10-21 15:39:48.973039,-46
2021-10-21 15:39:48.973047,-38
2021-10-21 15:39:48.973055,-38
2021-10-21 15:39:48.973063,-38
2021-10-21 15:39:48.973072,-31
2021-10-21 15:39:48.973080,-21
2021-10-21 15:39:48.973088,-4
2021-10-21 15:39:48.973096,7
2021-10-21 15:39:48.973105,-4
2021-10-21 15:39:48.973113,-21
2021-10-21 15:39:48.973121,-29
2021-10-21 15:39:48.973129,-36
2021-10-21 15:39:49.197885,-38
2021-10-21 15:39:49.197909,-29
2021-10-21 15:39:49.197918,-29
2021-10-21 15:39:49.197927,-34
2021-10-21 15:39:49.197935,-38
2021-10-21 15:39:49.197944,-46
2021-10-21 15:39:49.197952,-41
2021-10-21 15:39:49.197960,-29
2021-10-21 15:39:49.197968,-48
2021-10-21 15:39:49.197977,-109
2021-10-21 15:39:49.197985,-170
2021-10-21 15:39:49.197993,-46
2021-10-21 15:39:49.198001,476
2021-10-21 15:39:49.198010,1265
2021-10-21 15:39:49.198018,1552
2021-10-21 15:39:49.198026,744
2021-10-21 15:39:49.198035,-189
2021-10-21 15:39:49.198043,-187
2021-10-21 15:39:49.198051,26
2021-10-21 15:39:49.198060,-136
2021-10-21 15:39:49.198068,-199
2021-10-21 15:39:49.198076,-107
2021-10-21 15:39:49.198084,-119
2021-10-21 15:39:49.198100,-141
2021-10-21 15:39:49.198109,-94
2021-10-21 15:39:49.198117,-75
2021-10-21 15:39:49.198126,-82
2021-10-21 15:39:49.198134,-65
2021-10-21 15:39:49.198142,-53
2021-10-21 15:39:49.198151,-55
2021-10-21 15:39:49.466456,-48
2021-10-21 15:39:49.466476,-29
2021-10-21 15:39:49.466485,-19
2021-10-21 15:39:49.466494,-24
2021-10-21 15:39:49.466503,-34
2021-10-21 15:39:49.466511,-43
2021-10-21 15:39:49.466520,-51
2021-10-21 15:39:49.466528,-41
2021-10-21 15:39:49.466536,-26
2021-10-21 15:39:49.466545,-38
2021-10-21 15:39:49.466553,-46
2021-10-21 15:39:49.466562,-34
2021-10-21 15:39:49.466570,-26
2021-10-21 15:39:49.466578,-31
2021-10-21 15:39:49.466586,-34
2021-10-21 15:39:49.466595,-41
2021-10-21 15:39:49.466603,-58
2021-10-21 15:39:49.466612,-77
2021-10-21 15:39:49.466620,-87
2021-10-21 15:39:49.466628,-94
2021-10-21 15:39:49.466637,-114
2021-10-21 15:39:49.466645,-133
2021-10-21 15:39:49.466653,-133
2021-10-21 15:39:49.466661,-124
2021-10-21 15:39:49.466670,-119
2021-10-21 15:39:49.466678,-116
2021-10-21 15:39:49.466686,-109
2021-10-21 15:39:49.466695,-111
2021-10-21 15:39:49.466703,-107
2021-10-21 15:39:49.466712,-92
2021-10-21 15:39:49.692857,-87
2021-10-21 15:39:49.692878,-92
2021-10-21 15:39:49.692888,-97
2021-10-21 15:39:49.692897,-102
2021-10-21 15:39:49.692906,-104
2021-10-21 15:39:49.692914,-92
2021-10-21 15:39:49.692923,-80
2021-10-21 15:39:49.692931,-77
2021-10-21 15:39:49.692939,-80
2021-10-21 15:39:49.692947,-92
2021-10-21 15:39:49.692956,-92
2021-10-21 15:39:49.692964,-77
2021-10-21 15:39:49.692972,-72
2021-10-21 15:39:49.692987,-72
2021-10-21 15:39:49.692995,-70
2021-10-21 15:39:49.693004,-75
2021-10-21 15:39:49.693012,-72
2021-10-21 15:39:49.693021,-63
2021-10-21 15:39:49.693029,-55
2021-10-21 15:39:49.693037,-51
2021-10-21 15:39:49.693046,-55
2021-10-21 15:39:49.693054,-63
2021-10-21 15:39:49.693062,-58
2021-10-21 15:39:49.693071,-46
2021-10-21 15:39:49.693079,-41
2021-10-21 15:39:49.693087,-36
2021-10-21 15:39:49.693096,-36
2021-10-21 15:39:49.693104,-41
2021-10-21 15:39:49.693112,-36
2021-10-21 15:39:49.693120,-24
2021-10-21 15:39:49.917865,-24
2021-10-21 15:39:49.917887,-24
2021-10-21 15:39:49.917897,-24
2021-10-21 15:39:49.917906,-34
2021-10-21 15:39:49.917914,-26
2021-10-21 15:39:49.917923,2
2021-10-21 15:39:49.917931,14
2021-10-21 15:39:49.917940,2
2021-10-21 15:39:49.917948,-14
2021-10-21 15:39:49.917956,-26
2021-10-21 15:39:49.917965,-29
2021-10-21 15:39:49.917973,-38
2021-10-21 15:39:49.917981,-55
2021-10-21 15:39:49.917990,-58
2021-10-21 15:39:49.917998,-63
2021-10-21 15:39:49.918006,-70
2021-10-21 15:39:49.918015,-63
2021-10-21 15:39:49.918023,-48
2021-10-21 15:39:49.918031,-43
2021-10-21 15:39:49.918040,-55
2021-10-21 15:39:49.918048,-111
2021-10-21 15:39:49.918056,-184
2021-10-21 15:39:49.918064,-99
2021-10-21 15:39:49.918073,362
2021-10-21 15:39:49.918081,1160
2021-10-21 15:39:49.918090,1644
2021-10-21 15:39:49.918098,1029
2021-10-21 15:39:49.918106,-29
2021-10-21 15:39:49.918114,-233
2021-10-21 15:39:49.918123,17
2021-10-21 15:39:50.187866,-97
2021-10-21 15:39:50.187886,-218
2021-10-21 15:39:50.187895,-136
2021-10-21 15:39:50.187910,-121
2021-10-21 15:39:50.187919,-155
2021-10-21 15:39:50.187928,-128
2021-10-21 15:39:50.187936,-107
2021-10-21 15:39:50.187944,-119
2021-10-21 15:39:50.187952,-116
2021-10-21 15:39:50.187961,-99
2021-10-21 15:39:50.187969,-82
2021-10-21 15:39:50.187977,-68
2021-10-21 15:39:50.187985,-58
2021-10-21 15:39:50.187994,-58
2021-10-21 15:39:50.188002,-58
2021-10-21 15:39:50.188010,-46
2021-10-21 15:39:50.188019,-26
2021-10-21 15:39:50.188027,-14
2021-10-21 15:39:50.188035,-7
2021-10-21 15:39:50.188043,-2
2021-10-21 15:39:50.188051,-4
2021-10-21 15:39:50.188059,-7
2021-10-21 15:39:50.188068,-4
2021-10-21 15:39:50.188076,2
2021-10-21 15:39:50.188084,2
2021-10-21 15:39:50.188092,-4
2021-10-21 15:39:50.188100,-14
2021-10-21 15:39:50.188109,-19
2021-10-21 15:39:50.188117,-29
2021-10-21 15:39:50.188125,-38
2021-10-21 15:39:50.367949,-51
2021-10-21 15:39:50.367970,-65
2021-10-21 15:39:50.367980,-85
2021-10-21 15:39:50.367989,-97
2021-10-21 15:39:50.367998,-102
2021-10-21 15:39:50.368006,-104
2021-10-21 15:39:50.368015,-107
2021-10-21 15:39:50.368023,-109
2021-10-21 15:39:50.368032,-109
2021-10-21 15:39:50.368040,-99
2021-10-21 15:39:50.368048,-87
2021-10-21 15:39:50.368057,-80
2021-10-21 15:39:50.368065,-82
2021-10-21 15:39:50.368074,-92
2021-10-21 15:39:50.368082,-90
2021-10-21 15:39:50.368091,-77
2021-10-21 15:39:50.368099,-80
2021-10-21 15:39:50.368107,-94
2021-10-21 15:39:50.368116,-111
2021-10-21 15:39:50.368124,-114
2021-10-21 15:39:50.368132,-104
2021-10-21 15:39:50.368140,-99
2021-10-21 15:39:50.368149,-94
2021-10-21 15:39:50.368157,-85
2021-10-21 15:39:50.368165,-85
2021-10-21 15:39:50.368174,-85
2021-10-21 15:39:50.368182,-80
2021-10-21 15:39:50.368190,-77
2021-10-21 15:39:50.368199,-75
2021-10-21 15:39:50.368207,-68
2021-10-21 15:39:50.637881,-68
2021-10-21 15:39:50.637903,-68
2021-10-21 15:39:50.637913,-63
2021-10-21 15:39:50.637921,-60
2021-10-21 15:39:50.637930,-55
2021-10-21 15:39:50.637938,-51
2021-10-21 15:39:50.637947,-60
2021-10-21 15:39:50.637955,-68
2021-10-21 15:39:50.637963,-60
2021-10-21 15:39:50.637971,-65
2021-10-21 15:39:50.637980,-72
2021-10-21 15:39:50.637988,-63
2021-10-21 15:39:50.637996,-68
2021-10-21 15:39:50.638004,-72
2021-10-21 15:39:50.638013,-63
2021-10-21 15:39:50.638021,-60
2021-10-21 15:39:50.638029,-55
2021-10-21 15:39:50.638038,-41
2021-10-21 15:39:50.638046,-21
2021-10-21 15:39:50.638054,-9
2021-10-21 15:39:50.638063,-12
2021-10-21 15:39:50.638071,-14
2021-10-21 15:39:50.638080,-9
2021-10-21 15:39:50.638088,-19
2021-10-21 15:39:50.638096,-29
2021-10-21 15:39:50.638104,-24
2021-10-21 15:39:50.638113,-17
2021-10-21 15:39:50.638121,-19
2021-10-21 15:39:50.638129,-17
2021-10-21 15:39:50.638137,-14
2021-10-21 15:39:50.817856,-14
2021-10-21 15:39:50.817878,-9
2021-10-21 15:39:50.817887,-12
2021-10-21 15:39:50.817896,-55
2021-10-21 15:39:50.817905,-128
2021-10-21 15:39:50.817913,-104
2021-10-21 15:39:50.817922,250
2021-10-21 15:39:50.817930,1009
2021-10-21 15:39:50.817938,1613
2021-10-21 15:39:50.817947,1187
2021-10-21 15:39:50.817955,119
2021-10-21 15:39:50.817963,-243
2021-10-21 15:39:50.817972,-4
2021-10-21 15:39:50.817986,-55
2021-10-21 15:39:50.817995,-206
2021-10-21 15:39:50.818003,-138
2021-10-21 15:39:50.818012,-109
2021-10-21 15:39:50.818020,-155
2021-10-21 15:39:50.818029,-136
2021-10-21 15:39:50.818037,-92
2021-10-21 15:39:50.818045,-90
2021-10-21 15:39:50.818053,-87
2021-10-21 15:39:50.818062,-77
2021-10-21 15:39:50.818070,-82
2021-10-21 15:39:50.818078,-77
2021-10-21 15:39:50.818087,-51
2021-10-21 15:39:50.818095,-38
2021-10-21 15:39:50.818103,-36
2021-10-21 15:39:50.818112,-24
2021-10-21 15:39:50.818120,-14
2021-10-21 15:39:51.042883,-7
2021-10-21 15:39:51.042906,7
2021-10-21 15:39:51.042915,17
2021-10-21 15:39:51.042924,19
2021-10-21 15:39:51.042933,14
2021-10-21 15:39:51.042941,4
2021-10-21 15:39:51.042950,0
2021-10-21 15:39:51.042958,-2
2021-10-21 15:39:51.042966,-7
2021-10-21 15:39:51.042975,-14
2021-10-21 15:39:51.042983,-31
2021-10-21 15:39:51.042992,-51
2021-10-21 15:39:51.043013,-60
2021-10-21 15:39:51.043021,-72
2021-10-21 15:39:51.043030,-92
2021-10-21 15:39:51.043038,-102
2021-10-21 15:39:51.043046,-107
2021-10-21 15:39:51.043055,-116
2021-10-21 15:39:51.043063,-121
2021-10-21 15:39:51.043071,-114
2021-10-21 15:39:51.043080,-119
2021-10-21 15:39:51.043088,-124
2021-10-21 15:39:51.043096,-114
2021-10-21 15:39:51.043104,-104
2021-10-21 15:39:51.043113,-94
2021-10-21 15:39:51.043121,-87
2021-10-21 15:39:51.043129,-82
2021-10-21 15:39:51.043137,-82
2021-10-21 15:39:51.043146,-82
2021-10-21 15:39:51.043154,-75
2021-10-21 15:39:51.267759,-65
2021-10-21 15:39:51.267780,-60
2021-10-21 15:39:51.267790,-60
2021-10-21 15:39:51.267799,-70
2021-10-21 15:39:51.267807,-80
2021-10-21 15:39:51.267816,-77
2021-10-21 15:39:51.267824,-65
2021-10-21 15:39:51.267833,-60
2021-10-21 15:39:51.267841,-60
2021-10-21 15:39:51.267849,-68
2021-10-21 15:39:51.267857,-77
2021-10-21 15:39:51.267865,-72
2021-10-21 15:39:51.267874,-60
2021-10-21 15:39:51.267882,-55
2021-10-21 15:39:51.267891,-60
2021-10-21 15:39:51.267899,-70
2021-10-21 15:39:51.267907,-72
2021-10-21 15:39:51.267916,-60
2021-10-21 15:39:51.267924,-51
2021-10-21 15:39:51.267932,-51
2021-10-21 15:39:51.267940,-48
2021-10-21 15:39:51.267949,-48
2021-10-21 15:39:51.267957,-48
2021-10-21 15:39:51.267965,-38
2021-10-21 15:39:51.267973,-29
2021-10-21 15:39:51.267982,-26
2021-10-21 15:39:51.267990,-24
2021-10-21 15:39:51.267998,-26
2021-10-21 15:39:51.268006,-36
2021-10-21 15:39:51.268015,-51
2021-10-21 15:39:51.581524,-55
2021-10-21 15:39:51.581546,-41
2021-10-21 15:39:51.581556,-31
2021-10-21 15:39:51.581564,-31
2021-10-21 15:39:51.581573,-29
2021-10-21 15:39:51.581581,-21
2021-10-21 15:39:51.581589,-19
2021-10-21 15:39:51.581598,-21
2021-10-21 15:39:51.581606,-34
2021-10-21 15:39:51.581614,-53
2021-10-21 15:39:51.581622,-53
2021-10-21 15:39:51.581630,-38
2021-10-21 15:39:51.581638,-36
2021-10-21 15:39:51.581646,-34
2021-10-21 15:39:51.581655,-31
2021-10-21 15:39:51.581663,-36
2021-10-21 15:39:51.581671,-36
2021-10-21 15:39:51.581679,-46
2021-10-21 15:39:51.581687,-97
2021-10-21 15:39:51.581696,-158
2021-10-21 15:39:51.581704,-85
2021-10-21 15:39:51.581712,338
2021-10-21 15:39:51.581720,1102
2021-10-21 15:39:51.581735,1569
2021-10-21 15:39:51.581744,975
2021-10-21 15:39:51.581752,-24
2021-10-21 15:39:51.581760,-209
2021-10-21 15:39:51.581768,19
2021-10-21 15:39:51.581777,-87
2021-10-21 15:39:51.581785,-194
2021-10-21 15:39:51.762895,-109
2021-10-21 15:39:51.762917,-94
2021-10-21 15:39:51.762927,-128
2021-10-21 15:39:51.762935,-102
2021-10-21 15:39:51.762944,-75
2021-10-21 15:39:51.762952,-77
2021-10-21 15:39:51.762961,-63
2021-10-21 15:39:51.762969,-43
2021-10-21 15:39:51.762977,-51
2021-10-21 15:39:51.762985,-55
2021-10-21 15:39:51.762994,-36
2021-10-21 15:39:51.763002,-17
2021-10-21 15:39:51.763010,-7
2021-10-21 15:39:51.763018,0
2021-10-21 15:39:51.763027,-4
2021-10-21 15:39:51.763035,-9
2021-10-21 15:39:51.763043,2
2021-10-21 15:39:51.763052,9
2021-10-21 15:39:51.763060,9
2021-10-21 15:39:51.763068,4
2021-10-21 15:39:51.763077,-7
2021-10-21 15:39:51.763085,-14
2021-10-21 15:39:51.763093,-4
2021-10-21 15:39:51.763101,-2
2021-10-21 15:39:51.763109,-7
2021-10-21 15:39:51.763118,-14
2021-10-21 15:39:51.763126,-31
2021-10-21 15:39:51.763134,-55
2021-10-21 15:39:51.763142,-70
2021-10-21 15:39:51.763151,-80
2021-10-21 15:39:51.987907,-87
2021-10-21 15:39:51.987929,-102
2021-10-21 15:39:51.987939,-111
2021-10-21 15:39:51.987948,-109
2021-10-21 15:39:51.987956,-114
2021-10-21 15:39:51.987965,-128
2021-10-21 15:39:51.987973,-121
2021-10-21 15:39:51.987981,-114
2021-10-21 15:39:51.987990,-121
2021-10-21 15:39:51.987998,-116
2021-10-21 15:39:51.988006,-99
2021-10-21 15:39:51.988015,-92
2021-10-21 15:39:51.988023,-90
2021-10-21 15:39:51.988039,-90
2021-10-21 15:39:51.988048,-94
2021-10-21 15:39:51.988056,-92
2021-10-21 15:39:51.988065,-82
2021-10-21 15:39:51.988073,-72
2021-10-21 15:39:51.988082,-68
2021-10-21 15:39:51.988090,-65
2021-10-21 15:39:51.988098,-72
2021-10-21 15:39:51.988107,-82
2021-10-21 15:39:51.988115,-80
2021-10-21 15:39:51.988123,-72
2021-10-21 15:39:51.988131,-70
2021-10-21 15:39:51.988139,-70
2021-10-21 15:39:51.988148,-68
2021-10-21 15:39:51.988156,-65
2021-10-21 15:39:51.988164,-58
2021-10-21 15:39:51.988172,-48
2021-10-21 15:39:52.212898,-46
2021-10-21 15:39:52.212920,-46
2021-10-21 15:39:52.212929,-46
2021-10-21 15:39:52.212938,-43
2021-10-21 15:39:52.212947,-36
2021-10-21 15:39:52.212955,-29
2021-10-21 15:39:52.212963,-29
2021-10-21 15:39:52.212972,-38
2021-10-21 15:39:52.212980,-43
2021-10-21 15:39:52.212988,-31
2021-10-21 15:39:52.212997,-26
2021-10-21 15:39:52.213005,-26
2021-10-21 15:39:52.213013,-21
2021-10-21 15:39:52.213022,-12
2021-10-21 15:39:52.213030,0
2021-10-21 15:39:52.213038,0
2021-10-21 15:39:52.213047,0
2021-10-21 15:39:52.213055,2
2021-10-21 15:39:52.213063,-7
2021-10-21 15:39:52.213072,-19
2021-10-21 15:39:52.213080,-14
2021-10-21 15:39:52.213088,-9
2021-10-21 15:39:52.213096,-12
2021-10-21 15:39:52.213110,-19
2021-10-21 15:39:52.213120,-29
2021-10-21 15:39:52.213128,-24
2021-10-21 15:39:52.213136,-14
2021-10-21 15:39:52.213144,-17
2021-10-21 15:39:52.213153,-34
2021-10-21 15:39:52.213161,-85
2021-10-21 15:39:52.437950,-114
2021-10-21 15:39:52.437971,68
2021-10-21 15:39:52.437981,630
2021-10-21 15:39:52.437990,1309
2021-10-21 15:39:52.437998,1321
2021-10-21 15:39:52.438007,411
2021-10-21 15:39:52.438015,-272
2021-10-21 15:39:52.438024,-99
2021-10-21 15:39:52.438032,41
2021-10-21 15:39:52.438040,-136
2021-10-21 15:39:52.438049,-145
2021-10-21 15:39:52.438057,-90
2021-10-21 15:39:52.438065,-143
2021-10-21 15:39:52.438074,-143
2021-10-21 15:39:52.438082,-90
2021-10-21 15:39:52.438091,-85
2021-10-21 15:39:52.438099,-80
2021-10-21 15:39:52.438107,-53
2021-10-21 15:39:52.438116,-41
2021-10-21 15:39:52.438124,-31
2021-10-21 15:39:52.438132,-17
2021-10-21 15:39:52.438141,-4
2021-10-21 15:39:52.438149,7
2021-10-21 15:39:52.438157,19
2021-10-21 15:39:52.438166,26
2021-10-21 15:39:52.438174,24
2021-10-21 15:39:52.438182,17
2021-10-21 15:39:52.438191,26
2021-10-21 15:39:52.438199,48
2021-10-21 15:39:52.438207,53
2021-10-21 15:39:52.752920,48
2021-10-21 15:39:52.752943,51
2021-10-21 15:39:52.752953,51
2021-10-21 15:39:52.752961,41
2021-10-21 15:39:52.752970,34
2021-10-21 15:39:52.752978,9
2021-10-21 15:39:52.752987,-26
2021-10-21 15:39:52.752995,-43
2021-10-21 15:39:52.753003,-55
2021-10-21 15:39:52.753012,-85
2021-10-21 15:39:52.753020,-109
2021-10-21 15:39:52.753028,-121
2021-10-21 15:39:52.753036,-128
2021-10-21 15:39:52.753045,-121
2021-10-21 15:39:52.753053,-114
2021-10-21 15:39:52.753061,-114
2021-10-21 15:39:52.753069,-109
2021-10-21 15:39:52.753077,-99
2021-10-21 15:39:52.753086,-92
2021-10-21 15:39:52.753094,-80
2021-10-21 15:39:52.753102,-72
2021-10-21 15:39:52.753110,-75
2021-10-21 15:39:52.753119,-70
2021-10-21 15:39:52.753133,-63
2021-10-21 15:39:52.753142,-58
2021-10-21 15:39:52.753151,-48
2021-10-21 15:39:52.753159,-43
2021-10-21 15:39:52.753167,-53
2021-10-21 15:39:52.753175,-65
2021-10-21 15:39:52.753184,-63
2021-10-21 15:39:52.887879,-51
2021-10-21 15:39:52.887901,-46
2021-10-21 15:39:52.887911,-51
2021-10-21 15:39:52.887919,-53
2021-10-21 15:39:52.887928,-48
2021-10-21 15:39:52.887936,-48
2021-10-21 15:39:52.887945,-41
2021-10-21 15:39:52.887953,-34
2021-10-21 15:39:52.887962,-38
2021-10-21 15:39:52.887970,-43
2021-10-21 15:39:52.887978,-43
2021-10-21 15:39:52.887986,-51
2021-10-21 15:39:52.887995,-51
2021-10-21 15:39:52.888003,-38
2021-10-21 15:39:52.888011,-36
2021-10-21 15:39:52.888019,-38
2021-10-21 15:39:52.888027,-41
2021-10-21 15:39:52.888036,-51
2021-10-21 15:39:52.888044,-53
2021-10-21 15:39:52.888052,-43
2021-10-21 15:39:52.888060,-38
2021-10-21 15:39:52.888068,-38
2021-10-21 15:39:52.888077,-29
2021-10-21 15:39:52.888085,-17
2021-10-21 15:39:52.888093,-17
2021-10-21 15:39:52.888101,-19
2021-10-21 15:39:52.888110,-17
2021-10-21 15:39:52.888118,-24
2021-10-21 15:39:52.888126,-36
2021-10-21 15:39:52.888135,-46
2021-10-21 15:39:53.112927,-51
2021-10-21 15:39:53.112950,-46
2021-10-21 15:39:53.112959,-36
2021-10-21 15:39:53.112968,-43
2021-10-21 15:39:53.112976,-60
2021-10-21 15:39:53.112985,-55
2021-10-21 15:39:53.112993,-41
2021-10-21 15:39:53.113002,-65
2021-10-21 15:39:53.113010,-136
2021-10-21 15:39:53.113019,-145
2021-10-21 15:39:53.113027,109
2021-10-21 15:39:53.113035,766
2021-10-21 15:39:53.113044,1438
2021-10-21 15:39:53.113060,1236
2021-10-21 15:39:53.113069,199
2021-10-21 15:39:53.113077,-318
2021-10-21 15:39:53.113085,-58
2021-10-21 15:39:53.113094,-17
2021-10-21 15:39:53.113102,-197
2021-10-21 15:39:53.113110,-145
2021-10-21 15:39:53.113119,-87
2021-10-21 15:39:53.113127,-136
2021-10-21 15:39:53.113135,-124
2021-10-21 15:39:53.113143,-80
2021-10-21 15:39:53.113152,-75
2021-10-21 15:39:53.113160,-68
2021-10-21 15:39:53.113169,-48
2021-10-21 15:39:53.113177,-46
2021-10-21 15:39:53.113185,-38
2021-10-21 15:39:53.113197,-21
2021-10-21 15:39:53.382992,-7
2021-10-21 15:39:53.383014,-9
2021-10-21 15:39:53.383023,-14
2021-10-21 15:39:53.383032,-21
2021-10-21 15:39:53.383041,-17
2021-10-21 15:39:53.383050,2
2021-10-21 15:39:53.383059,9
2021-10-21 15:39:53.383067,4
2021-10-21 15:39:53.383075,4
2021-10-21 15:39:53.383084,-4
2021-10-21 15:39:53.383092,-12
2021-10-21 15:39:53.383101,-2
2021-10-21 15:39:53.383109,0
2021-10-21 15:39:53.383117,-9
2021-10-21 15:39:53.383126,-24
2021-10-21 15:39:53.383134,-46
2021-10-21 15:39:53.383143,-60
2021-10-21 15:39:53.383151,-72
2021-10-21 15:39:53.383160,-87
2021-10-21 15:39:53.383168,-99
2021-10-21 15:39:53.383176,-114
2021-10-21 15:39:53.383185,-138
2021-10-21 15:39:53.383193,-155
2021-10-21 15:39:53.383201,-155
2021-10-21 15:39:53.383209,-143
2021-10-21 15:39:53.383217,-131
2021-10-21 15:39:53.383226,-128
2021-10-21 15:39:53.383234,-128
2021-10-21 15:39:53.383242,-119
2021-10-21 15:39:53.383250,-104
2021-10-21 15:39:53.651641,-94
2021-10-21 15:39:53.651664,-87
2021-10-21 15:39:53.651673,-85
2021-10-21 15:39:53.651688,-92
2021-10-21 15:39:53.651697,-94
2021-10-21 15:39:53.651706,-85
2021-10-21 15:39:53.651714,-72
2021-10-21 15:39:53.651722,-70
2021-10-21 15:39:53.651731,-82
2021-10-21 15:39:53.651739,-94
2021-10-21 15:39:53.651748,-90
2021-10-21 15:39:53.651756,-77
2021-10-21 15:39:53.651764,-72
2021-10-21 15:39:53.651773,-75
2021-10-21 15:39:53.651781,-82
2021-10-21 15:39:53.651790,-94
2021-10-21 15:39:53.651798,-87
2021-10-21 15:39:53.651807,-72
2021-10-21 15:39:53.651815,-70
2021-10-21 15:39:53.651823,-68
2021-10-21 15:39:53.651832,-70
2021-10-21 15:39:53.651840,-72
2021-10-21 15:39:53.651849,-63
2021-10-21 15:39:53.651857,-55
2021-10-21 15:39:53.651865,-48
2021-10-21 15:39:53.651874,-46
2021-10-21 15:39:53.651882,-48
2021-10-21 15:39:53.651890,-48
2021-10-21 15:39:53.651899,-43
2021-10-21 15:39:53.651907,-43
2021-10-21 15:39:53.878115,-34
2021-10-21 15:39:53.878135,-17
2021-10-21 15:39:53.878145,0
2021-10-21 15:39:53.878154,-2
2021-10-21 15:39:53.878163,-7
2021-10-21 15:39:53.878171,-9
2021-10-21 15:39:53.878179,-24
2021-10-21 15:39:53.878187,-46
2021-10-21 15:39:53.878196,-55
2021-10-21 15:39:53.878204,-53
2021-10-21 15:39:53.878212,-43
2021-10-21 15:39:53.878272,-38
2021-10-21 15:39:53.878283,-34
2021-10-21 15:39:53.878291,-38
2021-10-21 15:39:53.878299,-55
2021-10-21 15:39:53.878306,-53
2021-10-21 15:39:53.878313,-55
2021-10-21 15:39:53.878320,-109
2021-10-21 15:39:53.878326,-167
2021-10-21 15:39:53.878333,-58
2021-10-21 15:39:53.878340,437
2021-10-21 15:39:53.878346,1255
2021-10-21 15:39:53.878353,1654
2021-10-21 15:39:53.878366,922
2021-10-21 15:39:53.878372,-97
2021-10-21 15:39:53.878379,-204
2021-10-21 15:39:53.878385,21
2021-10-21 15:39:53.878392,-131
2021-10-21 15:39:53.878398,-238
2021-10-21 15:39:53.878405,-155
2021-10-21 15:39:54.057929,-150
2021-10-21 15:39:54.057953,-177
2021-10-21 15:39:54.057963,-145
2021-10-21 15:39:54.057971,-121
2021-10-21 15:39:54.057980,-116
2021-10-21 15:39:54.057988,-97
2021-10-21 15:39:54.057996,-77
2021-10-21 15:39:54.058004,-77
2021-10-21 15:39:54.058013,-77
2021-10-21 15:39:54.058021,-65
2021-10-21 15:39:54.058029,-51
2021-10-21 15:39:54.058038,-38
2021-10-21 15:39:54.058046,-34
2021-10-21 15:39:54.058055,-34
2021-10-21 15:39:54.058063,-29
2021-10-21 15:39:54.058071,-14
2021-10-21 15:39:54.058080,-2
2021-10-21 15:39:54.058088,7
2021-10-21 15:39:54.058096,4
2021-10-21 15:39:54.058105,-9
2021-10-21 15:39:54.058113,-19
2021-10-21 15:39:54.058122,-14
2021-10-21 15:39:54.058130,-14
2021-10-21 15:39:54.058138,-17
2021-10-21 15:39:54.058146,-29
2021-10-21 15:39:54.058155,-46
2021-10-21 15:39:54.058163,-60
2021-10-21 15:39:54.058171,-68
2021-10-21 15:39:54.058180,-75
2021-10-21 15:39:54.058188,-82
2021-10-21 15:39:54.328054,-94
2021-10-21 15:39:54.328076,-109
2021-10-21 15:39:54.328086,-109
2021-10-21 15:39:54.328094,-109
2021-10-21 15:39:54.328103,-114
2021-10-21 15:39:54.328111,-104
2021-10-21 15:39:54.328119,-107
2021-10-21 15:39:54.328128,-114
2021-10-21 15:39:54.328136,-102
2021-10-21 15:39:54.328144,-99
2021-10-21 15:39:54.328152,-109
2021-10-21 15:39:54.328160,-109
2021-10-21 15:39:54.328168,-107
2021-10-21 15:39:54.328176,-109
2021-10-21 15:39:54.328185,-102
2021-10-21 15:39:54.328193,-94
2021-10-21 15:39:54.328201,-92
2021-10-21 15:39:54.328210,-87
2021-10-21 15:39:54.328218,-85
2021-10-21 15:39:54.328226,-82
2021-10-21 15:39:54.328234,-75
2021-10-21 15:39:54.328242,-72
2021-10-21 15:39:54.328251,-72
2021-10-21 15:39:54.328259,-70
2021-10-21 15:39:54.328267,-70
2021-10-21 15:39:54.328275,-65
2021-10-21 15:39:54.328283,-60
2021-10-21 15:39:54.328291,-60
2021-10-21 15:39:54.328299,-58
2021-10-21 15:39:54.328307,-55
2021-10-21 15:39:54.507907,-53
2021-10-21 15:39:54.507929,-48
2021-10-21 15:39:54.507939,-46
2021-10-21 15:39:54.507947,-46
2021-10-21 15:39:54.507956,-60
2021-10-21 15:39:54.507964,-82
2021-10-21 15:39:54.507973,-90
2021-10-21 15:39:54.507981,-72
2021-10-21 15:39:54.507989,-63
2021-10-21 15:39:54.507998,-65
2021-10-21 15:39:54.508006,-63
2021-10-21 15:39:54.508015,-63
2021-10-21 15:39:54.508023,-68
2021-10-21 15:39:54.508031,-58
2021-10-21 15:39:54.508039,-26
2021-10-21 15:39:54.508048,-17
2021-10-21 15:39:54.508057,-29
2021-10-21 15:39:54.508065,-41
2021-10-21 15:39:54.508073,-43
2021-10-21 15:39:54.508082,-41
2021-10-21 15:39:54.508090,-46
2021-10-21 15:39:54.508098,-48
2021-10-21 15:39:54.508107,-43
2021-10-21 15:39:54.508115,-41
2021-10-21 15:39:54.508123,-41
2021-10-21 15:39:54.508132,-34
2021-10-21 15:39:54.508140,-29
2021-10-21 15:39:54.508148,-29
2021-10-21 15:39:54.508157,-34
2021-10-21 15:39:54.508165,-70
2021-10-21 15:39:54.822958,-141
2021-10-21 15:39:54.822981,-124
2021-10-21 15:39:54.822990,206
2021-10-21 15:39:54.823008,941
2021-10-21 15:39:54.823017,1618
2021-10-21 15:39:54.823025,1316
2021-10-21 15:39:54.823033,221
2021-10-21 15:39:54.823041,-262
2021-10-21 15:39:54.823049,-26
2021-10-21 15:39:54.823058,-41
2021-10-21 15:39:54.823066,-226
2021-10-21 15:39:54.823074,-180
2021-10-21 15:39:54.823082,-124
2021-10-21 15:39:54.823090,-160
2021-10-21 15:39:54.823098,-155
2021-10-21 15:39:54.823107,-124
2021-10-21 15:39:54.823115,-121
2021-10-21 15:39:54.823123,-114
2021-10-21 15:39:54.823132,-92
2021-10-21 15:39:54.823140,-77
2021-10-21 15:39:54.823148,-70
2021-10-21 15:39:54.823156,-60
2021-10-21 15:39:54.823164,-51
2021-10-21 15:39:54.823173,-41
2021-10-21 15:39:54.823181,-26
2021-10-21 15:39:54.823189,-9
2021-10-21 15:39:54.823197,0
2021-10-21 15:39:54.823206,4
2021-10-21 15:39:54.823214,12
2021-10-21 15:39:54.823222,19
2021-10-21 15:39:54.957934,29
2021-10-21 15:39:54.957956,36
2021-10-21 15:39:54.957965,34
2021-10-21 15:39:54.957974,24
2021-10-21 15:39:54.957982,0
2021-10-21 15:39:54.957991,-19
2021-10-21 15:39:54.957999,-19
2021-10-21 15:39:54.958008,-26
2021-10-21 15:39:54.958016,-43
2021-10-21 15:39:54.958024,-60
2021-10-21 15:39:54.958032,-80
2021-10-21 15:39:54.958040,-104
2021-10-21 15:39:54.958049,-109
2021-10-21 15:39:54.958057,-99
2021-10-21 15:39:54.958083,-102
2021-10-21 15:39:54.958092,-114
2021-10-21 15:39:54.958100,-121
2021-10-21 15:39:54.958108,-116
2021-10-21 15:39:54.958116,-111
2021-10-21 15:39:54.958125,-109
2021-10-21 15:39:54.958133,-104
2021-10-21 15:39:54.958141,-107
2021-10-21 15:39:54.958149,-114
2021-10-21 15:39:54.958162,-107
2021-10-21 15:39:54.958170,-90
2021-10-21 15:39:54.958178,-85
2021-10-21 15:39:54.958186,-85
2021-10-21 15:39:54.958195,-87
2021-10-21 15:39:54.958203,-87
2021-10-21 15:39:54.958211,-77
2021-10-21 15:39:55.227961,-70
2021-10-21 15:39:55.227983,-68
2021-10-21 15:39:55.227993,-65
2021-10-21 15:39:55.228001,-80
2021-10-21 15:39:55.228010,-92
2021-10-21 15:39:55.228018,-80
2021-10-21 15:39:55.228026,-70
2021-10-21 15:39:55.228035,-70
2021-10-21 15:39:55.228043,-70
2021-10-21 15:39:55.228051,-82
2021-10-21 15:39:55.228059,-90
2021-10-21 15:39:55.228067,-77
2021-10-21 15:39:55.228075,-65
2021-10-21 15:39:55.228084,-65
2021-10-21 15:39:55.228092,-65
2021-10-21 15:39:55.228106,-65
2021-10-21 15:39:55.228115,-65
2021-10-21 15:39:55.228123,-60
2021-10-21 15:39:55.228131,-63
2021-10-21 15:39:55.228140,-65
2021-10-21 15:39:55.228148,-58
2021-10-21 15:39:55.228156,-60
2021-10-21 15:39:55.228164,-58
2021-10-21 15:39:55.228172,-43
2021-10-21 15:39:55.228180,-41
2021-10-21 15:39:55.228188,-41
2021-10-21 15:39:55.228197,-38
2021-10-21 15:39:55.228205,-36
2021-10-21 15:39:55.228213,-14
2021-10-21 15:39:55.228221,7
2021-10-21 15:39:55.497333,7
2021-10-21 15:39:55.497354,0
2021-10-21 15:39:55.497364,-2
2021-10-21 15:39:55.497373,-17
2021-10-21 15:39:55.497382,-26
2021-10-21 15:39:55.497390,-17
2021-10-21 15:39:55.497399,-9
2021-10-21 15:39:55.497407,-12
2021-10-21 15:39:55.497415,-24
2021-10-21 15:39:55.497424,-36
2021-10-21 15:39:55.497432,-31
2021-10-21 15:39:55.497440,-17
2021-10-21 15:39:55.497449,-19
2021-10-21 15:39:55.497457,-53
2021-10-21 15:39:55.497465,-133
2021-10-21 15:39:55.497473,-163
2021-10-21 15:39:55.497482,90
2021-10-21 15:39:55.497490,754
2021-10-21 15:39:55.497499,1472
2021-10-21 15:39:55.497507,1348
2021-10-21 15:39:55.497515,316
2021-10-21 15:39:55.497524,-294
2021-10-21 15:39:55.497532,-85
2021-10-21 15:39:55.497540,-24
2021-10-21 15:39:55.497549,-211
2021-10-21 15:39:55.497557,-184
2021-10-21 15:39:55.497565,-121
2021-10-21 15:39:55.497573,-160
2021-10-21 15:39:55.497582,-145
2021-10-21 15:39:55.497590,-99
2021-10-21 15:39:55.721563,-97
2021-10-21 15:39:55.721585,-94
2021-10-21 15:39:55.721595,-77
2021-10-21 15:39:55.721603,-72
2021-10-21 15:39:55.721612,-60
2021-10-21 15:39:55.721620,-41
2021-10-21 15:39:55.721629,-29
2021-10-21 15:39:55.721637,-29
2021-10-21 15:39:55.721645,-34
2021-10-21 15:39:55.721653,-26
2021-10-21 15:39:55.721662,-7
2021-10-21 15:39:55.721670,7
2021-10-21 15:39:55.721678,14
2021-10-21 15:39:55.721687,12
2021-10-21 15:39:55.721695,0
2021-10-21 15:39:55.721704,-7
2021-10-21 15:39:55.721712,-4
2021-10-21 15:39:55.721720,2
2021-10-21 15:39:55.721728,0
2021-10-21 15:39:55.721737,-9
2021-10-21 15:39:55.721745,-24
2021-10-21 15:39:55.721753,-38
2021-10-21 15:39:55.721761,-58
2021-10-21 15:39:55.721770,-70
2021-10-21 15:39:55.721778,-75
2021-10-21 15:39:55.721786,-87
2021-10-21 15:39:55.721794,-111
2021-10-21 15:39:55.721802,-119
2021-10-21 15:39:55.721811,-114
2021-10-21 15:39:55.721819,-119
2021-10-21 15:39:55.992348,-119
2021-10-21 15:39:55.992370,-109
2021-10-21 15:39:55.992379,-107
2021-10-21 15:39:55.992394,-102
2021-10-21 15:39:55.992403,-90
2021-10-21 15:39:55.992412,-80
2021-10-21 15:39:55.992420,-80
2021-10-21 15:39:55.992429,-90
2021-10-21 15:39:55.992437,-92
2021-10-21 15:39:55.992445,-82
2021-10-21 15:39:55.992453,-75
2021-10-21 15:39:55.992462,-68
2021-10-21 15:39:55.992470,-70
2021-10-21 15:39:55.992479,-80
2021-10-21 15:39:55.992487,-82
2021-10-21 15:39:55.992496,-75
2021-10-21 15:39:55.992504,-70
2021-10-21 15:39:55.992512,-65
2021-10-21 15:39:55.992521,-63
2021-10-21 15:39:55.992529,-63
2021-10-21 15:39:55.992537,-65
2021-10-21 15:39:55.992546,-70
2021-10-21 15:39:55.992554,-87
2021-10-21 15:39:55.992562,-97
2021-10-21 15:39:55.992571,-97
2021-10-21 15:39:55.992579,-102
2021-10-21 15:39:55.992587,-94
2021-10-21 15:39:55.992595,-85
2021-10-21 15:39:55.992604,-80
2021-10-21 15:39:55.992612,-72
2021-10-21 15:39:56.127937,-70
2021-10-21 15:39:56.127958,-68
2021-10-21 15:39:56.127968,-60
2021-10-21 15:39:56.127977,-58
2021-10-21 15:39:56.127985,-53
2021-10-21 15:39:56.127993,-46
2021-10-21 15:39:56.128002,-55
2021-10-21 15:39:56.128010,-65
2021-10-21 15:39:56.128018,-58
2021-10-21 15:39:56.128027,-48
2021-10-21 15:39:56.128035,-36
2021-10-21 15:39:56.128043,-17
2021-10-21 15:39:56.128052,-17
2021-10-21 15:39:56.128060,-29
2021-10-21 15:39:56.128068,-26
2021-10-21 15:39:56.128076,-21
2021-10-21 15:39:56.128085,-31
2021-10-21 15:39:56.128093,-36
2021-10-21 15:39:56.128101,-34
2021-10-21 15:39:56.128109,-29
2021-10-21 15:39:56.128118,-24
2021-10-21 15:39:56.128126,-24
2021-10-21 15:39:56.128134,-19
2021-10-21 15:39:56.128149,-19
2021-10-21 15:39:56.128169,-24
2021-10-21 15:39:56.128179,-31
2021-10-21 15:39:56.128187,-75
2021-10-21 15:39:56.128195,-155
2021-10-21 15:39:56.128204,-128
2021-10-21 15:39:56.128212,204
2021-10-21 15:39:56.352989,907
2021-10-21 15:39:56.353011,1506
2021-10-21 15:39:56.353020,1155
2021-10-21 15:39:56.353029,128
2021-10-21 15:39:56.353037,-248
2021-10-21 15:39:56.353046,-4
2021-10-21 15:39:56.353054,-53
2021-10-21 15:39:56.353063,-206
2021-10-21 15:39:56.353071,-136
2021-10-21 15:39:56.353079,-99
2021-10-21 15:39:56.353088,-141
2021-10-21 15:39:56.353096,-124
2021-10-21 15:39:56.353105,-99
2021-10-21 15:39:56.353113,-97
2021-10-21 15:39:56.353121,-82
2021-10-21 15:39:56.353130,-65
2021-10-21 15:39:56.353138,-60
2021-10-21 15:39:56.353146,-51
2021-10-21 15:39:56.353155,-36
2021-10-21 15:39:56.353163,-24
2021-10-21 15:39:56.353172,-14
2021-10-21 15:39:56.353180,-4
2021-10-21 15:39:56.353189,4
2021-10-21 15:39:56.353197,9
2021-10-21 15:39:56.353205,7
2021-10-21 15:39:56.353214,12
2021-10-21 15:39:56.353222,21
2021-10-21 15:39:56.353230,14
2021-10-21 15:39:56.353239,-4
2021-10-21 15:39:56.353247,-14
2021-10-21 15:39:56.577975,-9
2021-10-21 15:39:56.577997,-4
2021-10-21 15:39:56.578007,-12
2021-10-21 15:39:56.578016,-24
2021-10-21 15:39:56.578024,-41
2021-10-21 15:39:56.578032,-72
2021-10-21 15:39:56.578041,-87
2021-10-21 15:39:56.578049,-87
2021-10-21 15:39:56.578057,-104
2021-10-21 15:39:56.578065,-121
2021-10-21 15:39:56.578074,-126
2021-10-21 15:39:56.578082,-133
2021-10-21 15:39:56.578090,-128
2021-10-21 15:39:56.578107,-114
2021-10-21 15:39:56.578116,-107
2021-10-21 15:39:56.578124,-104
2021-10-21 15:39:56.578133,-99
2021-10-21 15:39:56.578141,-92
2021-10-21 15:39:56.578149,-85
2021-10-21 15:39:56.578158,-75
2021-10-21 15:39:56.578166,-70
2021-10-21 15:39:56.578174,-70
2021-10-21 15:39:56.578183,-68
2021-10-21 15:39:56.578191,-63
2021-10-21 15:39:56.578199,-55
2021-10-21 15:39:56.578207,-48
2021-10-21 15:39:56.578215,-46
2021-10-21 15:39:56.578224,-46
2021-10-21 15:39:56.578232,-48
2021-10-21 15:39:56.578240,-48
2021-10-21 15:39:56.892410,-53
2021-10-21 15:39:56.892431,-58
2021-10-21 15:39:56.892441,-53
2021-10-21 15:39:56.892450,-55
2021-10-21 15:39:56.892458,-72
2021-10-21 15:39:56.892467,-72
2021-10-21 15:39:56.892475,-58
2021-10-21 15:39:56.892484,-53
2021-10-21 15:39:56.892492,-53
2021-10-21 15:39:56.892500,-58
2021-10-21 15:39:56.892509,-65
2021-10-21 15:39:56.892517,-65
2021-10-21 15:39:56.892525,-53
2021-10-21 15:39:56.892534,-43
2021-10-21 15:39:56.892542,-43
2021-10-21 15:39:56.892550,-43
2021-10-21 15:39:56.892558,-41
2021-10-21 15:39:56.892567,-36
2021-10-21 15:39:56.892575,-29
2021-10-21 15:39:56.892583,-29
2021-10-21 15:39:56.892592,-26
2021-10-21 15:39:56.892600,-19
2021-10-21 15:39:56.892608,-4
2021-10-21 15:39:56.892617,14
2021-10-21 15:39:56.892625,14
2021-10-21 15:39:56.892633,9
2021-10-21 15:39:56.892641,9
2021-10-21 15:39:56.892650,-2
2021-10-21 15:39:56.892658,-17
2021-10-21 15:39:56.892666,-9
2021-10-21 15:39:57.072959,-2
2021-10-21 15:39:57.072982,-7
2021-10-21 15:39:57.072991,-21
2021-10-21 15:39:57.073006,-46
2021-10-21 15:39:57.073015,-53
2021-10-21 15:39:57.073023,-38
2021-10-21 15:39:57.073031,-34
2021-10-21 15:39:57.073040,-63
2021-10-21 15:39:57.073048,-133
2021-10-21 15:39:57.073056,-143
2021-10-21 15:39:57.073065,131
2021-10-21 15:39:57.073073,790
2021-10-21 15:39:57.073081,1440
2021-10-21 15:39:57.073090,1243
2021-10-21 15:39:57.073098,243
2021-10-21 15:39:57.073106,-272
2021-10-21 15:39:57.073115,-48
2021-10-21 15:39:57.073123,-17
2021-10-21 15:39:57.073131,-187
2021-10-21 15:39:57.073140,-145
2021-10-21 15:39:57.073148,-92
2021-10-21 15:39:57.073156,-138
2021-10-21 15:39:57.073164,-124
2021-10-21 15:39:57.073173,-77
2021-10-21 15:39:57.073181,-75
2021-10-21 15:39:57.073189,-68
2021-10-21 15:39:57.073197,-53
2021-10-21 15:39:57.073206,-48
2021-10-21 15:39:57.073214,-41
2021-10-21 15:39:57.073222,-19
2021-10-21 15:39:57.343033,-7
2021-10-21 15:39:57.343055,2
2021-10-21 15:39:57.343065,9
2021-10-21 15:39:57.343074,0
2021-10-21 15:39:57.343083,-12
2021-10-21 15:39:57.343091,-4
2021-10-21 15:39:57.343100,9
2021-10-21 15:39:57.343108,14
2021-10-21 15:39:57.343116,4
2021-10-21 15:39:57.343125,-7
2021-10-21 15:39:57.343133,-2
2021-10-21 15:39:57.343141,7
2021-10-21 15:39:57.343150,4
2021-10-21 15:39:57.343158,-4
2021-10-21 15:39:57.343166,-26
2021-10-21 15:39:57.343175,-55
2021-10-21 15:39:57.343183,-65
2021-10-21 15:39:57.343192,-72
2021-10-21 15:39:57.343200,-87
2021-10-21 15:39:57.343208,-97
2021-10-21 15:39:57.343217,-107
2021-10-21 15:39:57.343225,-119
2021-10-21 15:39:57.343233,-114
2021-10-21 15:39:57.343242,-99
2021-10-21 15:39:57.343250,-90
2021-10-21 15:39:57.343259,-87
2021-10-21 15:39:57.343267,-87
2021-10-21 15:39:57.343275,-82
2021-10-21 15:39:57.343284,-72
2021-10-21 15:39:57.343292,-60
2021-10-21 15:39:57.567380,-55
2021-10-21 15:39:57.567402,-51
2021-10-21 15:39:57.567412,-53
2021-10-21 15:39:57.567420,-55
2021-10-21 15:39:57.567429,-46
2021-10-21 15:39:57.567437,-38
2021-10-21 15:39:57.567445,-46
2021-10-21 15:39:57.567453,-55
2021-10-21 15:39:57.567462,-68
2021-10-21 15:39:57.567470,-82
2021-10-21 15:39:57.567478,-72
2021-10-21 15:39:57.567487,-53
2021-10-21 15:39:57.567495,-53
2021-10-21 15:39:57.567504,-63
2021-10-21 15:39:57.567512,-77
2021-10-21 15:39:57.567520,-77
2021-10-21 15:39:57.567528,-60
2021-10-21 15:39:57.567537,-51
2021-10-21 15:39:57.567545,-53
2021-10-21 15:39:57.567553,-58
2021-10-21 15:39:57.567561,-63
2021-10-21 15:39:57.567570,-65
2021-10-21 15:39:57.567578,-55
2021-10-21 15:39:57.567586,-43
2021-10-21 15:39:57.567594,-38
2021-10-21 15:39:57.567602,-38
2021-10-21 15:39:57.567610,-38
2021-10-21 15:39:57.567619,-36
2021-10-21 15:39:57.567627,-31
2021-10-21 15:39:57.567635,-26
2021-10-21 15:39:57.792265,-24
2021-10-21 15:39:57.792287,-26
2021-10-21 15:39:57.792296,-26
2021-10-21 15:39:57.792305,-19
2021-10-21 15:39:57.792314,0
2021-10-21 15:39:57.792322,24
2021-10-21 15:39:57.792330,19
2021-10-21 15:39:57.792339,-2
2021-10-21 15:39:57.792347,-14
2021-10-21 15:39:57.792355,-21
2021-10-21 15:39:57.792364,-31
2021-10-21 15:39:57.792372,-31
2021-10-21 15:39:57.792380,-29
2021-10-21 15:39:57.792397,-36
2021-10-21 15:39:57.792405,-41
2021-10-21 15:39:57.792414,-34
2021-10-21 15:39:57.792422,-29
2021-10-21 15:39:57.792430,-26
2021-10-21 15:39:57.792438,-24
2021-10-21 15:39:57.792447,-38
2021-10-21 15:39:57.792455,-87
2021-10-21 15:39:57.792463,-126
2021-10-21 15:39:57.792471,9
2021-10-21 15:39:57.792479,501
2021-10-21 15:39:57.792487,1182
2021-10-21 15:39:57.792495,1335
2021-10-21 15:39:57.792503,535
2021-10-21 15:39:57.792512,-231
2021-10-21 15:39:57.792520,-128
2021-10-21 15:39:57.792528,55
2021-10-21 15:39:58.018016,-111
2021-10-21 15:39:58.018040,-143
2021-10-21 15:39:58.018050,-60
2021-10-21 15:39:58.018059,-85
2021-10-21 15:39:58.018067,-94
2021-10-21 15:39:58.018076,-48
2021-10-21 15:39:58.018084,-46
2021-10-21 15:39:58.018092,-55
2021-10-21 15:39:58.018101,-34
2021-10-21 15:39:58.018109,-17
2021-10-21 15:39:58.018118,-21
2021-10-21 15:39:58.018126,-24
2021-10-21 15:39:58.018134,-24
2021-10-21 15:39:58.018143,-19
2021-10-21 15:39:58.018151,-17
2021-10-21 15:39:58.018159,-26
2021-10-21 15:39:58.018168,-26
2021-10-21 15:39:58.018176,-17
2021-10-21 15:39:58.018184,-17
2021-10-21 15:39:58.018192,-12
2021-10-21 15:39:58.018201,0
2021-10-21 15:39:58.018210,-2
2021-10-21 15:39:58.018218,0
2021-10-21 15:39:58.018226,2
2021-10-21 15:39:58.018235,-2
2021-10-21 15:39:58.018243,-9
2021-10-21 15:39:58.018251,-19
2021-10-21 15:39:58.018260,-36
2021-10-21 15:39:58.018268,-53
2021-10-21 15:39:58.018276,-63
2021-10-21 15:39:58.197962,-85
2021-10-21 15:39:58.197984,-97
2021-10-21 15:39:58.197994,-99
2021-10-21 15:39:58.198009,-109
2021-10-21 15:39:58.198018,-114
2021-10-21 15:39:58.198027,-116
2021-10-21 15:39:58.198035,-124
2021-10-21 15:39:58.198044,-116
2021-10-21 15:39:58.198052,-102
2021-10-21 15:39:58.198060,-99
2021-10-21 15:39:58.198072,-90
2021-10-21 15:39:58.198080,-80
2021-10-21 15:39:58.198089,-82
2021-10-21 15:39:58.198097,-85
2021-10-21 15:39:58.198105,-75
2021-10-21 15:39:58.198114,-68
2021-10-21 15:39:58.198122,-70
2021-10-21 15:39:58.198130,-75
2021-10-21 15:39:58.198139,-75
2021-10-21 15:39:58.198147,-63
2021-10-21 15:39:58.198155,-58
2021-10-21 15:39:58.198163,-63
2021-10-21 15:39:58.198172,-60
2021-10-21 15:39:58.198180,-58
2021-10-21 15:39:58.198188,-60
2021-10-21 15:39:58.198196,-55
2021-10-21 15:39:58.198205,-51
2021-10-21 15:39:58.198213,-53
2021-10-21 15:39:58.198221,-51
2021-10-21 15:39:58.198229,-48
2021-10-21 15:39:58.423003,-51
2021-10-21 15:39:58.423026,-38
2021-10-21 15:39:58.423035,-31
2021-10-21 15:39:58.423044,-38
2021-10-21 15:39:58.423052,-43
2021-10-21 15:39:58.423061,-48
2021-10-21 15:39:58.423069,-48
2021-10-21 15:39:58.423077,-38
2021-10-21 15:39:58.423085,-38
2021-10-21 15:39:58.423094,-41
2021-10-21 15:39:58.423102,-41
2021-10-21 15:39:58.423110,-41
2021-10-21 15:39:58.423118,-21
2021-10-21 15:39:58.423127,0
2021-10-21 15:39:58.423136,-14
2021-10-21 15:39:58.423144,-36
2021-10-21 15:39:58.423152,-31
2021-10-21 15:39:58.423160,-34
2021-10-21 15:39:58.423169,-46
2021-10-21 15:39:58.423177,-43
2021-10-21 15:39:58.423185,-58
2021-10-21 15:39:58.423194,-72
2021-10-21 15:39:58.423202,-65
2021-10-21 15:39:58.423210,-58
2021-10-21 15:39:58.423219,-53
2021-10-21 15:39:58.423227,-41
2021-10-21 15:39:58.423235,-43
2021-10-21 15:39:58.423243,-82
2021-10-21 15:39:58.423269,-148
2021-10-21 15:39:58.423278,-121
2021-10-21 15:39:58.647991,204
2021-10-21 15:39:58.648012,875
2021-10-21 15:39:58.648022,1430
2021-10-21 15:39:58.648031,1060
2021-10-21 15:39:58.648039,41
2021-10-21 15:39:58.648047,-306
2021-10-21 15:39:58.648056,-17
2021-10-21 15:39:58.648064,-38
2021-10-21 15:39:58.648072,-197
2021-10-21 15:39:58.648081,-136
2021-10-21 15:39:58.648089,-107
2021-10-21 15:39:58.648097,-150
2021-10-21 15:39:58.648106,-119
2021-10-21 15:39:58.648114,-82
2021-10-21 15:39:58.648122,-90
2021-10-21 15:39:58.648131,-77
2021-10-21 15:39:58.648139,-63
2021-10-21 15:39:58.648147,-65
2021-10-21 15:39:58.648156,-51
2021-10-21 15:39:58.648164,-24
2021-10-21 15:39:58.648172,-17
2021-10-21 15:39:58.648180,-21
2021-10-21 15:39:58.648189,-12
2021-10-21 15:39:58.648197,2
2021-10-21 15:39:58.648205,9
2021-10-21 15:39:58.648214,21
2021-10-21 15:39:58.648222,31
2021-10-21 15:39:58.648230,26
2021-10-21 15:39:58.648239,21
2021-10-21 15:39:58.648247,24
2021-10-21 15:39:58.918005,21
2021-10-21 15:39:58.918028,14
2021-10-21 15:39:58.918038,7
2021-10-21 15:39:58.918047,-9
2021-10-21 15:39:58.918055,-36
2021-10-21 15:39:58.918063,-46
2021-10-21 15:39:58.918072,-48
2021-10-21 15:39:58.918080,-58
2021-10-21 15:39:58.918088,-70
2021-10-21 15:39:58.918096,-92
2021-10-21 15:39:58.918105,-111
2021-10-21 15:39:58.918113,-114
2021-10-21 15:39:58.918121,-111
2021-10-21 15:39:58.918137,-111
2021-10-21 15:39:58.918146,-116
2021-10-21 15:39:58.918155,-121
2021-10-21 15:39:58.918175,-114
2021-10-21 15:39:58.918184,-104
2021-10-21 15:39:58.918192,-107
2021-10-21 15:39:58.918200,-111
2021-10-21 15:39:58.918209,-107
2021-10-21 15:39:58.918217,-104
2021-10-21 15:39:58.918225,-104
2021-10-21 15:39:58.918233,-94
2021-10-21 15:39:58.918241,-82
2021-10-21 15:39:58.918249,-90
2021-10-21 15:39:58.918258,-109
2021-10-21 15:39:58.918266,-114
2021-10-21 15:39:58.918274,-102
2021-10-21 15:39:58.918282,-94
2021-10-21 15:39:59.142924,-94
2021-10-21 15:39:59.142945,-90
2021-10-21 15:39:59.142954,-87
2021-10-21 15:39:59.142963,-92
2021-10-21 15:39:59.142971,-90
2021-10-21 15:39:59.142980,-80
2021-10-21 15:39:59.142988,-77
2021-10-21 15:39:59.142996,-72
2021-10-21 15:39:59.143005,-80
2021-10-21 15:39:59.143013,-94
2021-10-21 15:39:59.143021,-87
2021-10-21 15:39:59.143030,-70
2021-10-21 15:39:59.143038,-68
2021-10-21 15:39:59.143046,-63
2021-10-21 15:39:59.143054,-68
2021-10-21 15:39:59.143063,-82
2021-10-21 15:39:59.143071,-77
2021-10-21 15:39:59.143086,-63
2021-10-21 15:39:59.143095,-60
2021-10-21 15:39:59.143103,-53
2021-10-21 15:39:59.143112,-38
2021-10-21 15:39:59.143120,-31
2021-10-21 15:39:59.143128,-31
2021-10-21 15:39:59.143136,-29
2021-10-21 15:39:59.143145,-24
2021-10-21 15:39:59.143153,-29
2021-10-21 15:39:59.143161,-46
2021-10-21 15:39:59.143169,-48
2021-10-21 15:39:59.143178,-38
2021-10-21 15:39:59.143186,-34
2021-10-21 15:39:59.368073,-31
2021-10-21 15:39:59.368097,-29
2021-10-21 15:39:59.368106,-31
2021-10-21 15:39:59.368115,-34
2021-10-21 15:39:59.368124,-29
2021-10-21 15:39:59.368132,-41
2021-10-21 15:39:59.368141,-99
2021-10-21 15:39:59.368149,-145
2021-10-21 15:39:59.368157,19
2021-10-21 15:39:59.368166,581
2021-10-21 15:39:59.368174,1348
2021-10-21 15:39:59.368182,1489
2021-10-21 15:39:59.368191,586
2021-10-21 15:39:59.368199,-231
2021-10-21 15:39:59.368207,-143
2021-10-21 15:39:59.368215,7
2021-10-21 15:39:59.368224,-172
2021-10-21 15:39:59.368232,-194
2021-10-21 15:39:59.368240,-107
2021-10-21 15:39:59.368248,-131
2021-10-21 15:39:59.368257,-145
2021-10-21 15:39:59.368265,-107
2021-10-21 15:39:59.368274,-99
2021-10-21 15:39:59.368282,-107
2021-10-21 15:39:59.368291,-87
2021-10-21 15:39:59.368299,-72
2021-10-21 15:39:59.368307,-70
2021-10-21 15:39:59.368315,-63
2021-10-21 15:39:59.368324,-43
2021-10-21 15:39:59.368332,-29
2021-10-21 15:39:59.593003,-21
2021-10-21 15:39:59.593024,-19
2021-10-21 15:39:59.593034,-29
2021-10-21 15:39:59.593042,-31
2021-10-21 15:39:59.593051,-14
2021-10-21 15:39:59.593059,-2
2021-10-21 15:39:59.593068,-4
2021-10-21 15:39:59.593076,-12
2021-10-21 15:39:59.593084,-19
2021-10-21 15:39:59.593093,-17
2021-10-21 15:39:59.593101,-12
2021-10-21 15:39:59.593109,-12
2021-10-21 15:39:59.593117,-24
2021-10-21 15:39:59.593125,-48
2021-10-21 15:39:59.593134,-68
2021-10-21 15:39:59.593142,-72
2021-10-21 15:39:59.593150,-75
2021-10-21 15:39:59.593158,-80
2021-10-21 15:39:59.593167,-90
2021-10-21 15:39:59.593175,-97
2021-10-21 15:39:59.593183,-97
2021-10-21 15:39:59.593191,-94
2021-10-21 15:39:59.593200,-90
2021-10-21 15:39:59.593214,-82
2021-10-21 15:39:59.593223,-90
2021-10-21 15:39:59.593231,-99
2021-10-21 15:39:59.593240,-97
2021-10-21 15:39:59.593248,-97
2021-10-21 15:39:59.593256,-92
2021-10-21 15:39:59.593264,-85
