Time,ECG
2021-10-21 15:51:00.246465,-36
2021-10-21 15:51:00.246488,-41
2021-10-21 15:51:00.246497,-34
2021-10-21 15:51:00.246506,-26
2021-10-21 15:51:00.246514,-12
2021-10-21 15:51:00.246522,-4
2021-10-21 15:51:00.246531,-12
2021-10-21 15:51:00.246539,-12
2021-10-21 15:51:00.246548,-12
2021-10-21 15:51:00.246556,-24
2021-10-21 15:51:00.246564,-38
2021-10-21 15:51:00.246573,-53
2021-10-21 15:51:00.246581,-58
2021-10-21 15:51:00.246589,-53
2021-10-21 15:51:00.246598,-60
2021-10-21 15:51:00.246606,-70
2021-10-21 15:51:00.246614,-68
2021-10-21 15:51:00.246622,-63
2021-10-21 15:51:00.246631,-80
2021-10-21 15:51:00.246639,-141
2021-10-21 15:51:00.246647,-201
2021-10-21 15:51:00.246655,-48
2021-10-21 15:51:00.246667,537
2021-10-21 15:51:00.246675,1348
2021-10-21 15:51:00.246683,1491
2021-10-21 15:51:00.246691,547
2021-10-21 15:51:00.246700,-270
2021-10-21 15:51:00.246708,-138
2021-10-21 15:51:00.246716,7
2021-10-21 15:51:00.246724,-194
2021-10-21 15:51:00.336354,-206
2021-10-21 15:51:00.336373,-107
2021-10-21 15:51:00.336383,-138
2021-10-21 15:51:00.336391,-153
2021-10-21 15:51:00.336400,-116
2021-10-21 15:51:00.336408,-114
2021-10-21 15:51:00.336417,-109
2021-10-21 15:51:00.336425,-85
2021-10-21 15:51:00.336433,-72
2021-10-21 15:51:00.336442,-70
2021-10-21 15:51:00.336450,-60
2021-10-21 15:51:00.336458,-46
2021-10-21 15:51:00.336467,-31
2021-10-21 15:51:00.336475,-21
2021-10-21 15:51:00.336483,-12
2021-10-21 15:51:00.336491,-9
2021-10-21 15:51:00.336500,-17
2021-10-21 15:51:00.336508,-21
2021-10-21 15:51:00.336516,-12
2021-10-21 15:51:00.336524,-4
2021-10-21 15:51:00.336533,-7
2021-10-21 15:51:00.336541,-12
2021-10-21 15:51:00.336549,-21
2021-10-21 15:51:00.336557,-34
2021-10-21 15:51:00.336565,-36
2021-10-21 15:51:00.336574,-38
2021-10-21 15:51:00.336582,-51
2021-10-21 15:51:00.336590,-72
2021-10-21 15:51:00.336598,-87
2021-10-21 15:51:00.336607,-90
2021-10-21 15:51:00.651904,-85
2021-10-21 15:51:00.651926,-85
2021-10-21 15:51:00.651936,-87
2021-10-21 15:51:00.651944,-94
2021-10-21 15:51:00.651953,-97
2021-10-21 15:51:00.651961,-82
2021-10-21 15:51:00.651970,-70
2021-10-21 15:51:00.651978,-68
2021-10-21 15:51:00.651986,-60
2021-10-21 15:51:00.651995,-63
2021-10-21 15:51:00.652003,-68
2021-10-21 15:51:00.652011,-60
2021-10-21 15:51:00.652020,-48
2021-10-21 15:51:00.652028,-41
2021-10-21 15:51:00.652037,-41
2021-10-21 15:51:00.652045,-43
2021-10-21 15:51:00.652053,-41
2021-10-21 15:51:00.652062,-31
2021-10-21 15:51:00.652070,-26
2021-10-21 15:51:00.652079,-29
2021-10-21 15:51:00.652087,-26
2021-10-21 15:51:00.652095,-31
2021-10-21 15:51:00.652104,-31
2021-10-21 15:51:00.652112,-26
2021-10-21 15:51:00.652120,-29
2021-10-21 15:51:00.652129,-38
2021-10-21 15:51:00.652137,-36
2021-10-21 15:51:00.652146,-34
2021-10-21 15:51:00.652154,-34
2021-10-21 15:51:00.652162,-29
2021-10-21 15:51:00.831454,-24
2021-10-21 15:51:00.831477,-29
2021-10-21 15:51:00.831487,-41
2021-10-21 15:51:00.831496,-43
2021-10-21 15:51:00.831504,-26
2021-10-21 15:51:00.831513,2
2021-10-21 15:51:00.831521,14
2021-10-21 15:51:00.831530,4
2021-10-21 15:51:00.831538,-4
2021-10-21 15:51:00.831546,-17
2021-10-21 15:51:00.831555,-26
2021-10-21 15:51:00.831563,-24
2021-10-21 15:51:00.831571,-24
2021-10-21 15:51:00.831580,-34
2021-10-21 15:51:00.831588,-48
2021-10-21 15:51:00.831596,-68
2021-10-21 15:51:00.831605,-70
2021-10-21 15:51:00.831613,-58
2021-10-21 15:51:00.831621,-58
2021-10-21 15:51:00.831630,-90
2021-10-21 15:51:00.831638,-180
2021-10-21 15:51:00.831646,-236
2021-10-21 15:51:00.831655,4
2021-10-21 15:51:00.831663,705
2021-10-21 15:51:00.831672,1496
2021-10-21 15:51:00.831680,1416
2021-10-21 15:51:00.831689,340
2021-10-21 15:51:00.831697,-321
2021-10-21 15:51:00.831705,-109
2021-10-21 15:51:00.831714,-46
2021-10-21 15:51:01.056461,-250
2021-10-21 15:51:01.056482,-218
2021-10-21 15:51:01.056492,-145
2021-10-21 15:51:01.056501,-189
2021-10-21 15:51:01.056509,-177
2021-10-21 15:51:01.056520,-124
2021-10-21 15:51:01.056529,-119
2021-10-21 15:51:01.056537,-119
2021-10-21 15:51:01.056546,-109
2021-10-21 15:51:01.056554,-104
2021-10-21 15:51:01.056562,-87
2021-10-21 15:51:01.056570,-65
2021-10-21 15:51:01.056579,-53
2021-10-21 15:51:01.056587,-48
2021-10-21 15:51:01.056595,-51
2021-10-21 15:51:01.056604,-48
2021-10-21 15:51:01.056612,-31
2021-10-21 15:51:01.056620,-17
2021-10-21 15:51:01.056628,-7
2021-10-21 15:51:01.056636,-7
2021-10-21 15:51:01.056645,-12
2021-10-21 15:51:01.056653,-14
2021-10-21 15:51:01.056661,-12
2021-10-21 15:51:01.056669,-12
2021-10-21 15:51:01.056677,-14
2021-10-21 15:51:01.056686,-24
2021-10-21 15:51:01.056694,-38
2021-10-21 15:51:01.056702,-51
2021-10-21 15:51:01.056710,-60
2021-10-21 15:51:01.056718,-72
2021-10-21 15:51:01.281447,-77
2021-10-21 15:51:01.281470,-80
2021-10-21 15:51:01.281479,-85
2021-10-21 15:51:01.281488,-87
2021-10-21 15:51:01.281497,-77
2021-10-21 15:51:01.281505,-63
2021-10-21 15:51:01.281514,-60
2021-10-21 15:51:01.281522,-65
2021-10-21 15:51:01.281531,-65
2021-10-21 15:51:01.281539,-55
2021-10-21 15:51:01.281548,-46
2021-10-21 15:51:01.281556,-38
2021-10-21 15:51:01.281564,-38
2021-10-21 15:51:01.281573,-46
2021-10-21 15:51:01.281581,-51
2021-10-21 15:51:01.281590,-46
2021-10-21 15:51:01.281598,-38
2021-10-21 15:51:01.281606,-34
2021-10-21 15:51:01.281615,-31
2021-10-21 15:51:01.281623,-31
2021-10-21 15:51:01.281631,-31
2021-10-21 15:51:01.281640,-29
2021-10-21 15:51:01.281648,-24
2021-10-21 15:51:01.281656,-19
2021-10-21 15:51:01.281665,-19
2021-10-21 15:51:01.281673,-21
2021-10-21 15:51:01.281681,-21
2021-10-21 15:51:01.281690,-31
2021-10-21 15:51:01.281698,-46
2021-10-21 15:51:01.281706,-43
2021-10-21 15:51:01.506472,-36
2021-10-21 15:51:01.506495,-43
2021-10-21 15:51:01.506505,-48
2021-10-21 15:51:01.506513,-48
2021-10-21 15:51:01.506522,-53
2021-10-21 15:51:01.506530,-43
2021-10-21 15:51:01.506538,-24
2021-10-21 15:51:01.506547,-19
2021-10-21 15:51:01.506555,-24
2021-10-21 15:51:01.506563,-24
2021-10-21 15:51:01.506572,-21
2021-10-21 15:51:01.506580,-29
2021-10-21 15:51:01.506588,-48
2021-10-21 15:51:01.506597,-58
2021-10-21 15:51:01.506605,-53
2021-10-21 15:51:01.506613,-58
2021-10-21 15:51:01.506621,-60
2021-10-21 15:51:01.506630,-63
2021-10-21 15:51:01.506638,-70
2021-10-21 15:51:01.506646,-70
2021-10-21 15:51:01.506654,-75
2021-10-21 15:51:01.506663,-128
2021-10-21 15:51:01.506671,-197
2021-10-21 15:51:01.506679,-102
2021-10-21 15:51:01.506688,360
2021-10-21 15:51:01.506696,1141
2021-10-21 15:51:01.506705,1523
2021-10-21 15:51:01.506713,815
2021-10-21 15:51:01.506721,-126
2021-10-21 15:51:01.506730,-177
2021-10-21 15:51:01.820170,29
2021-10-21 15:51:01.820193,-136
2021-10-21 15:51:01.820202,-216
2021-10-21 15:51:01.820211,-133
2021-10-21 15:51:01.820220,-143
2021-10-21 15:51:01.820228,-167
2021-10-21 15:51:01.820237,-136
2021-10-21 15:51:01.820245,-119
2021-10-21 15:51:01.820253,-114
2021-10-21 15:51:01.820262,-94
2021-10-21 15:51:01.820270,-80
2021-10-21 15:51:01.820278,-75
2021-10-21 15:51:01.820287,-72
2021-10-21 15:51:01.820295,-55
2021-10-21 15:51:01.820304,-38
2021-10-21 15:51:01.820312,-31
2021-10-21 15:51:01.820320,-24
2021-10-21 15:51:01.820329,-12
2021-10-21 15:51:01.820337,-4
2021-10-21 15:51:01.820347,2
2021-10-21 15:51:01.820356,7
2021-10-21 15:51:01.820364,7
2021-10-21 15:51:01.820373,7
2021-10-21 15:51:01.820381,4
2021-10-21 15:51:01.820389,-2
2021-10-21 15:51:01.820398,-4
2021-10-21 15:51:01.820406,-7
2021-10-21 15:51:01.820415,-21
2021-10-21 15:51:01.820423,-36
2021-10-21 15:51:01.820431,-43
2021-10-21 15:51:02.000850,-48
2021-10-21 15:51:02.000876,-53
2021-10-21 15:51:02.000886,-60
2021-10-21 15:51:02.000895,-80
2021-10-21 15:51:02.000903,-102
2021-10-21 15:51:02.000912,-104
2021-10-21 15:51:02.000920,-90
2021-10-21 15:51:02.000929,-75
2021-10-21 15:51:02.000937,-70
2021-10-21 15:51:02.000945,-65
2021-10-21 15:51:02.000954,-65
2021-10-21 15:51:02.000962,-70
2021-10-21 15:51:02.000971,-68
2021-10-21 15:51:02.000979,-53
2021-10-21 15:51:02.000988,-48
2021-10-21 15:51:02.000996,-48
2021-10-21 15:51:02.001004,-51
2021-10-21 15:51:02.001013,-58
2021-10-21 15:51:02.001021,-55
2021-10-21 15:51:02.001029,-41
2021-10-21 15:51:02.001038,-38
2021-10-21 15:51:02.001046,-43
2021-10-21 15:51:02.001054,-38
2021-10-21 15:51:02.001063,-36
2021-10-21 15:51:02.001071,-34
2021-10-21 15:51:02.001079,-26
2021-10-21 15:51:02.001088,-24
2021-10-21 15:51:02.001096,-26
2021-10-21 15:51:02.001104,-29
2021-10-21 15:51:02.001113,-29
2021-10-21 15:51:02.226493,-24
2021-10-21 15:51:02.226515,-17
2021-10-21 15:51:02.226524,-14
2021-10-21 15:51:02.226533,-17
2021-10-21 15:51:02.226541,-19
2021-10-21 15:51:02.226550,-21
2021-10-21 15:51:02.226558,-31
2021-10-21 15:51:02.226566,-43
2021-10-21 15:51:02.226575,-46
2021-10-21 15:51:02.226583,-46
2021-10-21 15:51:02.226591,-53
2021-10-21 15:51:02.226600,-48
2021-10-21 15:51:02.226608,-17
2021-10-21 15:51:02.226617,2
2021-10-21 15:51:02.226625,-9
2021-10-21 15:51:02.226634,-19
2021-10-21 15:51:02.226642,-24
2021-10-21 15:51:02.226650,-46
2021-10-21 15:51:02.226659,-55
2021-10-21 15:51:02.226667,-48
2021-10-21 15:51:02.226675,-55
2021-10-21 15:51:02.226684,-68
2021-10-21 15:51:02.226692,-65
2021-10-21 15:51:02.226700,-58
2021-10-21 15:51:02.226709,-53
2021-10-21 15:51:02.226717,-53
2021-10-21 15:51:02.226725,-72
2021-10-21 15:51:02.226733,-143
2021-10-21 15:51:02.226742,-180
2021-10-21 15:51:02.226750,24
2021-10-21 15:51:02.451516,622
2021-10-21 15:51:02.451539,1340
2021-10-21 15:51:02.451549,1323
2021-10-21 15:51:02.451558,379
2021-10-21 15:51:02.451566,-250
2021-10-21 15:51:02.451575,-72
2021-10-21 15:51:02.451583,2
2021-10-21 15:51:02.451591,-180
2021-10-21 15:51:02.451600,-170
2021-10-21 15:51:02.451608,-116
2021-10-21 15:51:02.451616,-163
2021-10-21 15:51:02.451625,-150
2021-10-21 15:51:02.451633,-102
2021-10-21 15:51:02.451642,-97
2021-10-21 15:51:02.451650,-97
2021-10-21 15:51:02.451658,-85
2021-10-21 15:51:02.451667,-82
2021-10-21 15:51:02.451675,-65
2021-10-21 15:51:02.451683,-43
2021-10-21 15:51:02.451692,-31
2021-10-21 15:51:02.451700,-24
2021-10-21 15:51:02.451708,-19
2021-10-21 15:51:02.451717,-12
2021-10-21 15:51:02.451725,0
2021-10-21 15:51:02.451733,12
2021-10-21 15:51:02.451741,14
2021-10-21 15:51:02.451750,12
2021-10-21 15:51:02.451758,4
2021-10-21 15:51:02.451766,2
2021-10-21 15:51:02.451775,4
2021-10-21 15:51:02.766602,4
2021-10-21 15:51:02.766624,2
2021-10-21 15:51:02.766634,-7
2021-10-21 15:51:02.766643,-29
2021-10-21 15:51:02.766651,-43
2021-10-21 15:51:02.766660,-38
2021-10-21 15:51:02.766668,-41
2021-10-21 15:51:02.766677,-48
2021-10-21 15:51:02.766685,-58
2021-10-21 15:51:02.766693,-68
2021-10-21 15:51:02.766702,-70
2021-10-21 15:51:02.766710,-70
2021-10-21 15:51:02.766718,-65
2021-10-21 15:51:02.766727,-53
2021-10-21 15:51:02.766735,-55
2021-10-21 15:51:02.766743,-65
2021-10-21 15:51:02.766751,-58
2021-10-21 15:51:02.766760,-41
2021-10-21 15:51:02.766768,-36
2021-10-21 15:51:02.766777,-34
2021-10-21 15:51:02.766785,-31
2021-10-21 15:51:02.766793,-31
2021-10-21 15:51:02.766802,-29
2021-10-21 15:51:02.766810,-19
2021-10-21 15:51:02.766819,-14
2021-10-21 15:51:02.766827,-14
2021-10-21 15:51:02.766836,-17
2021-10-21 15:51:02.766844,-21
2021-10-21 15:51:02.766853,-19
2021-10-21 15:51:02.766861,-12
2021-10-21 15:51:02.901490,-9
2021-10-21 15:51:02.901513,-9
2021-10-21 15:51:02.901522,-12
2021-10-21 15:51:02.901531,-17
2021-10-21 15:51:02.901540,-12
2021-10-21 15:51:02.901548,-9
2021-10-21 15:51:02.901557,-17
2021-10-21 15:51:02.901565,-21
2021-10-21 15:51:02.901573,-24
2021-10-21 15:51:02.901582,-29
2021-10-21 15:51:02.901590,-24
2021-10-21 15:51:02.901602,-17
2021-10-21 15:51:02.901610,-21
2021-10-21 15:51:02.901619,-34
2021-10-21 15:51:02.901627,-43
2021-10-21 15:51:02.901635,-41
2021-10-21 15:51:02.901643,-21
2021-10-21 15:51:02.901652,-12
2021-10-21 15:51:02.901660,-24
2021-10-21 15:51:02.901668,-36
2021-10-21 15:51:02.901677,-51
2021-10-21 15:51:02.901685,-70
2021-10-21 15:51:02.901693,-68
2021-10-21 15:51:02.901702,-60
2021-10-21 15:51:02.901710,-58
2021-10-21 15:51:02.901718,-65
2021-10-21 15:51:02.901727,-75
2021-10-21 15:51:02.901735,-72
2021-10-21 15:51:02.901743,-60
2021-10-21 15:51:02.901752,-60
2021-10-21 15:51:03.126503,-87
2021-10-21 15:51:03.126525,-153
2021-10-21 15:51:03.126535,-167
2021-10-21 15:51:03.126544,77
2021-10-21 15:51:03.126552,708
2021-10-21 15:51:03.126561,1355
2021-10-21 15:51:03.126569,1180
2021-10-21 15:51:03.126578,216
2021-10-21 15:51:03.126586,-257
2021-10-21 15:51:03.126594,-41
2021-10-21 15:51:03.126603,-26
2021-10-21 15:51:03.126611,-189
2021-10-21 15:51:03.126619,-150
2021-10-21 15:51:03.126628,-109
2021-10-21 15:51:03.126636,-158
2021-10-21 15:51:03.126644,-148
2021-10-21 15:51:03.126653,-111
2021-10-21 15:51:03.126661,-104
2021-10-21 15:51:03.126669,-94
2021-10-21 15:51:03.126678,-77
2021-10-21 15:51:03.126686,-68
2021-10-21 15:51:03.126694,-55
2021-10-21 15:51:03.126703,-38
2021-10-21 15:51:03.126711,-24
2021-10-21 15:51:03.126719,-14
2021-10-21 15:51:03.126727,-7
2021-10-21 15:51:03.126736,-2
2021-10-21 15:51:03.126744,4
2021-10-21 15:51:03.126752,12
2021-10-21 15:51:03.126760,17
2021-10-21 15:51:03.351497,17
2021-10-21 15:51:03.351521,12
2021-10-21 15:51:03.351530,7
2021-10-21 15:51:03.351538,2
2021-10-21 15:51:03.351547,0
2021-10-21 15:51:03.351555,0
2021-10-21 15:51:03.351564,-9
2021-10-21 15:51:03.351572,-31
2021-10-21 15:51:03.351581,-38
2021-10-21 15:51:03.351589,-38
2021-10-21 15:51:03.351597,-48
2021-10-21 15:51:03.351605,-55
2021-10-21 15:51:03.351614,-70
2021-10-21 15:51:03.351622,-82
2021-10-21 15:51:03.351630,-77
2021-10-21 15:51:03.351638,-70
2021-10-21 15:51:03.351647,-68
2021-10-21 15:51:03.351655,-68
2021-10-21 15:51:03.351664,-70
2021-10-21 15:51:03.351672,-65
2021-10-21 15:51:03.351681,-68
2021-10-21 15:51:03.351689,-82
2021-10-21 15:51:03.351697,-75
2021-10-21 15:51:03.351706,-63
2021-10-21 15:51:03.351714,-63
2021-10-21 15:51:03.351722,-58
2021-10-21 15:51:03.351731,-48
2021-10-21 15:51:03.351739,-46
2021-10-21 15:51:03.351747,-43
2021-10-21 15:51:03.351755,-36
2021-10-21 15:51:03.576502,-36
2021-10-21 15:51:03.576524,-36
2021-10-21 15:51:03.576534,-31
2021-10-21 15:51:03.576543,-31
2021-10-21 15:51:03.576551,-34
2021-10-21 15:51:03.576560,-43
2021-10-21 15:51:03.576568,-60
2021-10-21 15:51:03.576577,-58
2021-10-21 15:51:03.576585,-46
2021-10-21 15:51:03.576593,-48
2021-10-21 15:51:03.576602,-46
2021-10-21 15:51:03.576610,-46
2021-10-21 15:51:03.576618,-55
2021-10-21 15:51:03.576627,-53
2021-10-21 15:51:03.576635,-43
2021-10-21 15:51:03.576643,-51
2021-10-21 15:51:03.576652,-58
2021-10-21 15:51:03.576660,-55
2021-10-21 15:51:03.576669,-46
2021-10-21 15:51:03.576677,-36
2021-10-21 15:51:03.576685,-38
2021-10-21 15:51:03.576693,-43
2021-10-21 15:51:03.576702,-43
2021-10-21 15:51:03.576710,-48
2021-10-21 15:51:03.576718,-63
2021-10-21 15:51:03.576727,-60
2021-10-21 15:51:03.576735,-53
2021-10-21 15:51:03.576743,-53
2021-10-21 15:51:03.576752,-53
2021-10-21 15:51:03.576760,-48
2021-10-21 15:51:03.845119,-48
2021-10-21 15:51:03.845142,-43
2021-10-21 15:51:03.845152,-43
2021-10-21 15:51:03.845160,-82
2021-10-21 15:51:03.845169,-153
2021-10-21 15:51:03.845178,-128
2021-10-21 15:51:03.845186,204
2021-10-21 15:51:03.845195,893
2021-10-21 15:51:03.845203,1408
2021-10-21 15:51:03.845211,963
2021-10-21 15:51:03.845219,17
2021-10-21 15:51:03.845227,-216
2021-10-21 15:51:03.845236,12
2021-10-21 15:51:03.845244,-68
2021-10-21 15:51:03.845252,-187
2021-10-21 15:51:03.845261,-119
2021-10-21 15:51:03.845269,-102
2021-10-21 15:51:03.845277,-133
2021-10-21 15:51:03.845285,-102
2021-10-21 15:51:03.845294,-70
2021-10-21 15:51:03.845302,-75
2021-10-21 15:51:03.845310,-75
2021-10-21 15:51:03.845318,-65
2021-10-21 15:51:03.845327,-53
2021-10-21 15:51:03.845335,-38
2021-10-21 15:51:03.845343,-36
2021-10-21 15:51:03.845351,-46
2021-10-21 15:51:03.845360,-38
2021-10-21 15:51:03.845368,-19
2021-10-21 15:51:03.845376,-17
2021-10-21 15:51:04.026585,-9
2021-10-21 15:51:04.026608,0
2021-10-21 15:51:04.026617,0
2021-10-21 15:51:04.026626,-4
2021-10-21 15:51:04.026635,-14
2021-10-21 15:51:04.026643,-26
2021-10-21 15:51:04.026652,-24
2021-10-21 15:51:04.026660,-17
2021-10-21 15:51:04.026674,-19
2021-10-21 15:51:04.026683,-31
2021-10-21 15:51:04.026691,-48
2021-10-21 15:51:04.026699,-63
2021-10-21 15:51:04.026707,-63
2021-10-21 15:51:04.026716,-60
2021-10-21 15:51:04.026724,-75
2021-10-21 15:51:04.026732,-85
2021-10-21 15:51:04.026741,-85
2021-10-21 15:51:04.026749,-80
2021-10-21 15:51:04.026757,-70
2021-10-21 15:51:04.026765,-58
2021-10-21 15:51:04.026774,-53
2021-10-21 15:51:04.026782,-51
2021-10-21 15:51:04.026790,-51
2021-10-21 15:51:04.026799,-53
2021-10-21 15:51:04.026807,-51
2021-10-21 15:51:04.026815,-41
2021-10-21 15:51:04.026824,-34
2021-10-21 15:51:04.026832,-38
2021-10-21 15:51:04.026840,-38
2021-10-21 15:51:04.026848,-29
2021-10-21 15:51:04.251513,-24
2021-10-21 15:51:04.251534,-19
2021-10-21 15:51:04.251544,-17
2021-10-21 15:51:04.251553,-26
2021-10-21 15:51:04.251561,-38
2021-10-21 15:51:04.251570,-38
2021-10-21 15:51:04.251578,-36
2021-10-21 15:51:04.251586,-41
2021-10-21 15:51:04.251594,-38
2021-10-21 15:51:04.251603,-46
2021-10-21 15:51:04.251611,-58
2021-10-21 15:51:04.251619,-51
2021-10-21 15:51:04.251628,-38
2021-10-21 15:51:04.251636,-36
2021-10-21 15:51:04.251644,-36
2021-10-21 15:51:04.251653,-38
2021-10-21 15:51:04.251661,-43
2021-10-21 15:51:04.251669,-48
2021-10-21 15:51:04.251677,-48
2021-10-21 15:51:04.251686,-41
2021-10-21 15:51:04.251694,-31
2021-10-21 15:51:04.251702,-19
2021-10-21 15:51:04.251710,-17
2021-10-21 15:51:04.251718,-21
2021-10-21 15:51:04.251727,-21
2021-10-21 15:51:04.251735,-36
2021-10-21 15:51:04.251743,-60
2021-10-21 15:51:04.251751,-63
2021-10-21 15:51:04.251760,-58
2021-10-21 15:51:04.251768,-51
2021-10-21 15:51:04.521504,-46
2021-10-21 15:51:04.521526,-53
2021-10-21 15:51:04.521535,-77
2021-10-21 15:51:04.521544,-94
2021-10-21 15:51:04.521552,-97
2021-10-21 15:51:04.521561,-128
2021-10-21 15:51:04.521569,-184
2021-10-21 15:51:04.521577,-102
2021-10-21 15:51:04.521586,311
2021-10-21 15:51:04.521594,1004
2021-10-21 15:51:04.521602,1357
2021-10-21 15:51:04.521611,734
2021-10-21 15:51:04.521619,-121
2021-10-21 15:51:04.521627,-172
2021-10-21 15:51:04.521636,19
2021-10-21 15:51:04.521644,-126
2021-10-21 15:51:04.521652,-197
2021-10-21 15:51:04.521661,-109
2021-10-21 15:51:04.521669,-109
2021-10-21 15:51:04.521677,-128
2021-10-21 15:51:04.521685,-94
2021-10-21 15:51:04.521694,-82
2021-10-21 15:51:04.521702,-82
2021-10-21 15:51:04.521710,-58
2021-10-21 15:51:04.521718,-38
2021-10-21 15:51:04.521726,-31
2021-10-21 15:51:04.521735,-19
2021-10-21 15:51:04.521743,-17
2021-10-21 15:51:04.521751,-14
2021-10-21 15:51:04.521759,0
2021-10-21 15:51:04.836504,14
2021-10-21 15:51:04.836526,19
2021-10-21 15:51:04.836536,19
2021-10-21 15:51:04.836545,19
2021-10-21 15:51:04.836553,21
2021-10-21 15:51:04.836562,24
2021-10-21 15:51:04.836570,24
2021-10-21 15:51:04.836579,17
2021-10-21 15:51:04.836587,0
2021-10-21 15:51:04.836596,-12
2021-10-21 15:51:04.836604,-4
2021-10-21 15:51:04.836612,-4
2021-10-21 15:51:04.836621,-14
2021-10-21 15:51:04.836629,-26
2021-10-21 15:51:04.836638,-46
2021-10-21 15:51:04.836646,-65
2021-10-21 15:51:04.836655,-68
2021-10-21 15:51:04.836663,-65
2021-10-21 15:51:04.836672,-68
2021-10-21 15:51:04.836680,-63
2021-10-21 15:51:04.836688,-60
2021-10-21 15:51:04.836697,-58
2021-10-21 15:51:04.836705,-48
2021-10-21 15:51:04.836713,-38
2021-10-21 15:51:04.836722,-29
2021-10-21 15:51:04.836731,-26
2021-10-21 15:51:04.836739,-29
2021-10-21 15:51:04.836747,-26
2021-10-21 15:51:04.836756,-21
2021-10-21 15:51:04.836765,-26
2021-10-21 15:51:04.971488,-31
2021-10-21 15:51:04.971509,-26
2021-10-21 15:51:04.971518,-24
2021-10-21 15:51:04.971527,-29
2021-10-21 15:51:04.971535,-26
2021-10-21 15:51:04.971544,-17
2021-10-21 15:51:04.971553,-17
2021-10-21 15:51:04.971561,-31
2021-10-21 15:51:04.971569,-55
2021-10-21 15:51:04.971578,-60
2021-10-21 15:51:04.971586,-46
2021-10-21 15:51:04.971594,-46
2021-10-21 15:51:04.971602,-48
2021-10-21 15:51:04.971611,-43
2021-10-21 15:51:04.971619,-41
2021-10-21 15:51:04.971627,-43
2021-10-21 15:51:04.971636,-41
2021-10-21 15:51:04.971644,-31
2021-10-21 15:51:04.971653,-34
2021-10-21 15:51:04.971661,-36
2021-10-21 15:51:04.971669,-29
2021-10-21 15:51:04.971678,-31
2021-10-21 15:51:04.971686,-41
2021-10-21 15:51:04.971694,-38
2021-10-21 15:51:04.971703,-51
2021-10-21 15:51:04.971711,-75
2021-10-21 15:51:04.971720,-77
2021-10-21 15:51:04.971728,-68
2021-10-21 15:51:04.971736,-63
2021-10-21 15:51:04.971745,-60
2021-10-21 15:51:05.196534,-55
2021-10-21 15:51:05.196556,-60
2021-10-21 15:51:05.196566,-70
2021-10-21 15:51:05.196575,-80
2021-10-21 15:51:05.196584,-121
2021-10-21 15:51:05.196592,-165
2021-10-21 15:51:05.196601,-41
2021-10-21 15:51:05.196609,418
2021-10-21 15:51:05.196618,1092
2021-10-21 15:51:05.196626,1279
2021-10-21 15:51:05.196635,532
2021-10-21 15:51:05.196643,-206
2021-10-21 15:51:05.196652,-145
2021-10-21 15:51:05.196660,-2
2021-10-21 15:51:05.196669,-158
2021-10-21 15:51:05.196677,-184
2021-10-21 15:51:05.196686,-109
2021-10-21 15:51:05.196694,-126
2021-10-21 15:51:05.196702,-133
2021-10-21 15:51:05.196711,-94
2021-10-21 15:51:05.196719,-80
2021-10-21 15:51:05.196727,-80
2021-10-21 15:51:05.196735,-58
2021-10-21 15:51:05.196752,-41
2021-10-21 15:51:05.196761,-38
2021-10-21 15:51:05.196770,-26
2021-10-21 15:51:05.196778,-9
2021-10-21 15:51:05.196787,0
2021-10-21 15:51:05.196795,7
2021-10-21 15:51:05.196803,19
2021-10-21 15:51:05.466523,24
2021-10-21 15:51:05.466545,29
2021-10-21 15:51:05.466554,36
2021-10-21 15:51:05.466563,26
2021-10-21 15:51:05.466572,9
2021-10-21 15:51:05.466580,4
2021-10-21 15:51:05.466589,-2
2021-10-21 15:51:05.466597,-12
2021-10-21 15:51:05.466606,-9
2021-10-21 15:51:05.466614,-9
2021-10-21 15:51:05.466623,-17
2021-10-21 15:51:05.466631,-31
2021-10-21 15:51:05.466639,-51
2021-10-21 15:51:05.466648,-68
2021-10-21 15:51:05.466656,-92
2021-10-21 15:51:05.466665,-119
2021-10-21 15:51:05.466673,-116
2021-10-21 15:51:05.466681,-104
2021-10-21 15:51:05.466690,-102
2021-10-21 15:51:05.466698,-94
2021-10-21 15:51:05.466707,-80
2021-10-21 15:51:05.466715,-75
2021-10-21 15:51:05.466723,-70
2021-10-21 15:51:05.466731,-63
2021-10-21 15:51:05.466740,-58
2021-10-21 15:51:05.466748,-48
2021-10-21 15:51:05.466756,-41
2021-10-21 15:51:05.466764,-43
2021-10-21 15:51:05.466773,-36
2021-10-21 15:51:05.466781,-26
2021-10-21 15:51:05.646612,-24
2021-10-21 15:51:05.646656,-24
2021-10-21 15:51:05.646666,-19
2021-10-21 15:51:05.646675,-21
2021-10-21 15:51:05.646684,-24
2021-10-21 15:51:05.646692,-21
2021-10-21 15:51:05.646701,-29
2021-10-21 15:51:05.646709,-31
2021-10-21 15:51:05.646718,-21
2021-10-21 15:51:05.646726,-19
2021-10-21 15:51:05.646734,-24
2021-10-21 15:51:05.646743,-21
2021-10-21 15:51:05.646751,-14
2021-10-21 15:51:05.646759,-4
2021-10-21 15:51:05.646768,-4
2021-10-21 15:51:05.646776,-9
2021-10-21 15:51:05.646784,-26
2021-10-21 15:51:05.646793,-51
2021-10-21 15:51:05.646801,-48
2021-10-21 15:51:05.646809,-31
2021-10-21 15:51:05.646818,-34
2021-10-21 15:51:05.646826,-38
2021-10-21 15:51:05.646834,-29
2021-10-21 15:51:05.646842,-29
2021-10-21 15:51:05.646851,-38
2021-10-21 15:51:05.646859,-43
2021-10-21 15:51:05.646867,-63
2021-10-21 15:51:05.646876,-128
2021-10-21 15:51:05.646884,-160
2021-10-21 15:51:05.646892,48
2021-10-21 15:51:05.960156,625
2021-10-21 15:51:05.960179,1270
2021-10-21 15:51:05.960189,1172
2021-10-21 15:51:05.960198,221
2021-10-21 15:51:05.960206,-335
2021-10-21 15:51:05.960215,-90
2021-10-21 15:51:05.960223,-7
2021-10-21 15:51:05.960231,-189
2021-10-21 15:51:05.960240,-167
2021-10-21 15:51:05.960248,-99
2021-10-21 15:51:05.960256,-143
2021-10-21 15:51:05.960265,-148
2021-10-21 15:51:05.960273,-99
2021-10-21 15:51:05.960282,-82
2021-10-21 15:51:05.960290,-77
2021-10-21 15:51:05.960298,-65
2021-10-21 15:51:05.960306,-55
2021-10-21 15:51:05.960314,-41
2021-10-21 15:51:05.960323,-24
2021-10-21 15:51:05.960331,-21
2021-10-21 15:51:05.960339,-29
2021-10-21 15:51:05.960347,-24
2021-10-21 15:51:05.960355,-9
2021-10-21 15:51:05.960363,-7
2021-10-21 15:51:05.960371,2
2021-10-21 15:51:05.960380,14
2021-10-21 15:51:05.960388,14
2021-10-21 15:51:05.960396,2
2021-10-21 15:51:05.960405,-4
2021-10-21 15:51:05.960413,-2
2021-10-21 15:51:06.096521,0
2021-10-21 15:51:06.096542,0
2021-10-21 15:51:06.096552,-9
2021-10-21 15:51:06.096561,-31
2021-10-21 15:51:06.096569,-58
2021-10-21 15:51:06.096577,-65
2021-10-21 15:51:06.096586,-65
2021-10-21 15:51:06.096594,-75
2021-10-21 15:51:06.096602,-87
2021-10-21 15:51:06.096610,-94
2021-10-21 15:51:06.096619,-97
2021-10-21 15:51:06.096627,-90
2021-10-21 15:51:06.096635,-72
2021-10-21 15:51:06.096644,-60
2021-10-21 15:51:06.096652,-60
2021-10-21 15:51:06.096660,-68
2021-10-21 15:51:06.096668,-70
2021-10-21 15:51:06.096677,-58
2021-10-21 15:51:06.096685,-43
2021-10-21 15:51:06.096693,-36
2021-10-21 15:51:06.096702,-31
2021-10-21 15:51:06.096710,-31
2021-10-21 15:51:06.096718,-26
2021-10-21 15:51:06.096726,-14
2021-10-21 15:51:06.096735,-9
2021-10-21 15:51:06.096743,-9
2021-10-21 15:51:06.096751,-9
2021-10-21 15:51:06.096759,-12
2021-10-21 15:51:06.096768,-14
2021-10-21 15:51:06.096776,-12
2021-10-21 15:51:06.411529,-9
2021-10-21 15:51:06.411551,-9
2021-10-21 15:51:06.411561,-7
2021-10-21 15:51:06.411570,-9
2021-10-21 15:51:06.411579,0
2021-10-21 15:51:06.411588,19
2021-10-21 15:51:06.411596,19
2021-10-21 15:51:06.411605,7
2021-10-21 15:51:06.411613,-2
2021-10-21 15:51:06.411622,-21
2021-10-21 15:51:06.411630,-29
2021-10-21 15:51:06.411639,-24
2021-10-21 15:51:06.411647,-26
2021-10-21 15:51:06.411656,-29
2021-10-21 15:51:06.411664,-24
2021-10-21 15:51:06.411673,-26
2021-10-21 15:51:06.411681,-31
2021-10-21 15:51:06.411689,-43
2021-10-21 15:51:06.411698,-99
2021-10-21 15:51:06.411706,-160
2021-10-21 15:51:06.411715,-55
2021-10-21 15:51:06.411723,423
2021-10-21 15:51:06.411732,1206
2021-10-21 15:51:06.411740,1557
2021-10-21 15:51:06.411748,788
2021-10-21 15:51:06.411757,-175
2021-10-21 15:51:06.411765,-192
2021-10-21 15:51:06.411774,24
2021-10-21 15:51:06.411782,-163
2021-10-21 15:51:06.411790,-236
2021-10-21 15:51:06.591477,-133
2021-10-21 15:51:06.591498,-153
2021-10-21 15:51:06.591508,-187
2021-10-21 15:51:06.591517,-145
2021-10-21 15:51:06.591525,-126
2021-10-21 15:51:06.591533,-126
2021-10-21 15:51:06.591542,-104
2021-10-21 15:51:06.591550,-90
2021-10-21 15:51:06.591558,-99
2021-10-21 15:51:06.591567,-99
2021-10-21 15:51:06.591575,-77
2021-10-21 15:51:06.591583,-58
2021-10-21 15:51:06.591591,-53
2021-10-21 15:51:06.591600,-51
2021-10-21 15:51:06.591608,-53
2021-10-21 15:51:06.591617,-51
2021-10-21 15:51:06.591625,-38
2021-10-21 15:51:06.591633,-31
2021-10-21 15:51:06.591642,-29
2021-10-21 15:51:06.591650,-31
2021-10-21 15:51:06.591658,-46
2021-10-21 15:51:06.591666,-55
2021-10-21 15:51:06.591675,-51
2021-10-21 15:51:06.591683,-51
2021-10-21 15:51:06.591691,-60
2021-10-21 15:51:06.591700,-70
2021-10-21 15:51:06.591708,-80
2021-10-21 15:51:06.591716,-87
2021-10-21 15:51:06.591724,-90
2021-10-21 15:51:06.591738,-92
2021-10-21 15:51:06.860888,-92
2021-10-21 15:51:06.860910,-90
2021-10-21 15:51:06.860920,-90
2021-10-21 15:51:06.860929,-82
2021-10-21 15:51:06.860938,-70
2021-10-21 15:51:06.860946,-60
2021-10-21 15:51:06.860955,-53
2021-10-21 15:51:06.860963,-53
2021-10-21 15:51:06.860971,-58
2021-10-21 15:51:06.860979,-55
2021-10-21 15:51:06.860987,-43
2021-10-21 15:51:06.860996,-36
2021-10-21 15:51:06.861004,-36
2021-10-21 15:51:06.861012,-43
2021-10-21 15:51:06.861021,-51
2021-10-21 15:51:06.861029,-53
2021-10-21 15:51:06.861037,-55
2021-10-21 15:51:06.861046,-51
2021-10-21 15:51:06.861054,-48
2021-10-21 15:51:06.861062,-53
2021-10-21 15:51:06.861070,-53
2021-10-21 15:51:06.861079,-51
2021-10-21 15:51:06.861087,-38
2021-10-21 15:51:06.861096,-19
2021-10-21 15:51:06.861104,-2
2021-10-21 15:51:06.861112,0
2021-10-21 15:51:06.861121,-7
2021-10-21 15:51:06.861129,-12
2021-10-21 15:51:06.861137,-19
2021-10-21 15:51:06.861146,-34
2021-10-21 15:51:07.041571,-53
2021-10-21 15:51:07.041594,-55
2021-10-21 15:51:07.041604,-46
2021-10-21 15:51:07.041613,-38
2021-10-21 15:51:07.041621,-38
2021-10-21 15:51:07.041630,-29
2021-10-21 15:51:07.041638,-31
2021-10-21 15:51:07.041647,-58
2021-10-21 15:51:07.041655,-111
2021-10-21 15:51:07.041663,-148
2021-10-21 15:51:07.041672,-7
2021-10-21 15:51:07.041680,508
2021-10-21 15:51:07.041688,1255
2021-10-21 15:51:07.041697,1476
2021-10-21 15:51:07.041705,669
2021-10-21 15:51:07.041713,-155
2021-10-21 15:51:07.041721,-119
2021-10-21 15:51:07.041730,21
2021-10-21 15:51:07.041738,-167
2021-10-21 15:51:07.041746,-221
2021-10-21 15:51:07.041754,-138
2021-10-21 15:51:07.041763,-155
2021-10-21 15:51:07.041771,-165
2021-10-21 15:51:07.041779,-119
2021-10-21 15:51:07.041787,-107
2021-10-21 15:51:07.041796,-109
2021-10-21 15:51:07.041804,-87
2021-10-21 15:51:07.041812,-72
2021-10-21 15:51:07.041820,-63
2021-10-21 15:51:07.041829,-48
2021-10-21 15:51:07.311558,-41
2021-10-21 15:51:07.311580,-43
2021-10-21 15:51:07.311590,-38
2021-10-21 15:51:07.311598,-36
2021-10-21 15:51:07.311607,-34
2021-10-21 15:51:07.311615,-29
2021-10-21 15:51:07.311624,-36
2021-10-21 15:51:07.311632,-46
2021-10-21 15:51:07.311641,-41
2021-10-21 15:51:07.311649,-43
2021-10-21 15:51:07.311657,-51
2021-10-21 15:51:07.311666,-55
2021-10-21 15:51:07.311674,-70
2021-10-21 15:51:07.311683,-80
2021-10-21 15:51:07.311691,-82
2021-10-21 15:51:07.311700,-90
2021-10-21 15:51:07.311708,-97
2021-10-21 15:51:07.311716,-99
2021-10-21 15:51:07.311725,-107
2021-10-21 15:51:07.311733,-116
2021-10-21 15:51:07.311741,-124
2021-10-21 15:51:07.311750,-126
2021-10-21 15:51:07.311758,-111
2021-10-21 15:51:07.311767,-99
2021-10-21 15:51:07.311775,-94
2021-10-21 15:51:07.311783,-85
2021-10-21 15:51:07.311792,-75
2021-10-21 15:51:07.311800,-70
2021-10-21 15:51:07.311808,-63
2021-10-21 15:51:07.311817,-58
2021-10-21 15:51:07.491539,-58
2021-10-21 15:51:07.491561,-48
2021-10-21 15:51:07.491571,-41
2021-10-21 15:51:07.491579,-43
2021-10-21 15:51:07.491588,-43
2021-10-21 15:51:07.491596,-46
2021-10-21 15:51:07.491605,-60
2021-10-21 15:51:07.491613,-55
2021-10-21 15:51:07.491621,-46
2021-10-21 15:51:07.491630,-48
2021-10-21 15:51:07.491638,-55
2021-10-21 15:51:07.491647,-58
2021-10-21 15:51:07.491655,-60
2021-10-21 15:51:07.491663,-38
2021-10-21 15:51:07.491672,-14
2021-10-21 15:51:07.491680,-12
2021-10-21 15:51:07.491688,-19
2021-10-21 15:51:07.491697,-31
2021-10-21 15:51:07.491705,-43
2021-10-21 15:51:07.491714,-43
2021-10-21 15:51:07.491722,-41
2021-10-21 15:51:07.491730,-46
2021-10-21 15:51:07.491738,-55
2021-10-21 15:51:07.491747,-53
2021-10-21 15:51:07.491755,-46
2021-10-21 15:51:07.491763,-38
2021-10-21 15:51:07.491772,-34
2021-10-21 15:51:07.491780,-43
2021-10-21 15:51:07.491789,-92
2021-10-21 15:51:07.491797,-155
2021-10-21 15:51:07.761570,-63
2021-10-21 15:51:07.761593,384
2021-10-21 15:51:07.761603,1112
2021-10-21 15:51:07.761612,1469
2021-10-21 15:51:07.761621,815
2021-10-21 15:51:07.761629,-80
2021-10-21 15:51:07.761638,-145
2021-10-21 15:51:07.761646,53
2021-10-21 15:51:07.761655,-94
2021-10-21 15:51:07.761663,-175
2021-10-21 15:51:07.761672,-102
2021-10-21 15:51:07.761680,-111
2021-10-21 15:51:07.761688,-128
2021-10-21 15:51:07.761697,-85
2021-10-21 15:51:07.761705,-68
2021-10-21 15:51:07.761714,-72
2021-10-21 15:51:07.761722,-55
2021-10-21 15:51:07.761731,-38
2021-10-21 15:51:07.761739,-26
2021-10-21 15:51:07.761748,-9
2021-10-21 15:51:07.761756,0
2021-10-21 15:51:07.761765,-4
2021-10-21 15:51:07.761773,-9
2021-10-21 15:51:07.761781,-7
2021-10-21 15:51:07.761790,-4
2021-10-21 15:51:07.761798,-4
2021-10-21 15:51:07.761806,0
2021-10-21 15:51:07.761815,0
2021-10-21 15:51:07.761823,-7
2021-10-21 15:51:07.761832,-7
2021-10-21 15:51:07.985190,-4
2021-10-21 15:51:07.985213,-9
2021-10-21 15:51:07.985223,-24
2021-10-21 15:51:07.985231,-46
2021-10-21 15:51:07.985240,-70
2021-10-21 15:51:07.985248,-85
2021-10-21 15:51:07.985256,-90
2021-10-21 15:51:07.985265,-92
2021-10-21 15:51:07.985273,-99
2021-10-21 15:51:07.985282,-109
2021-10-21 15:51:07.985290,-124
2021-10-21 15:51:07.985298,-136
2021-10-21 15:51:07.985307,-128
2021-10-21 15:51:07.985315,-109
2021-10-21 15:51:07.985324,-104
2021-10-21 15:51:07.985332,-111
2021-10-21 15:51:07.985341,-111
2021-10-21 15:51:07.985349,-102
2021-10-21 15:51:07.985357,-90
2021-10-21 15:51:07.985366,-82
2021-10-21 15:51:07.985374,-77
2021-10-21 15:51:07.985382,-80
2021-10-21 15:51:07.985391,-77
2021-10-21 15:51:07.985399,-68
2021-10-21 15:51:07.985407,-58
2021-10-21 15:51:07.985416,-60
2021-10-21 15:51:07.985424,-68
2021-10-21 15:51:07.985432,-77
2021-10-21 15:51:07.985441,-70
2021-10-21 15:51:07.985449,-60
2021-10-21 15:51:08.211562,-58
2021-10-21 15:51:08.211583,-55
2021-10-21 15:51:08.211593,-58
2021-10-21 15:51:08.211601,-72
2021-10-21 15:51:08.211610,-68
2021-10-21 15:51:08.211619,-36
2021-10-21 15:51:08.211627,-12
2021-10-21 15:51:08.211635,-12
2021-10-21 15:51:08.211644,-24
2021-10-21 15:51:08.211652,-43
2021-10-21 15:51:08.211661,-53
2021-10-21 15:51:08.211669,-46
2021-10-21 15:51:08.211678,-41
2021-10-21 15:51:08.211686,-46
2021-10-21 15:51:08.211694,-43
2021-10-21 15:51:08.211703,-38
2021-10-21 15:51:08.211711,-34
2021-10-21 15:51:08.211719,-26
2021-10-21 15:51:08.211727,-26
2021-10-21 15:51:08.211736,-41
2021-10-21 15:51:08.211744,-92
2021-10-21 15:51:08.211752,-136
2021-10-21 15:51:08.211761,29
2021-10-21 15:51:08.211769,564
2021-10-21 15:51:08.211778,1253
2021-10-21 15:51:08.211786,1350
2021-10-21 15:51:08.211794,515
2021-10-21 15:51:08.211803,-189
2021-10-21 15:51:08.211814,-80
2021-10-21 15:51:08.211823,34
2021-10-21 15:51:08.480932,-143
2021-10-21 15:51:08.480952,-150
2021-10-21 15:51:08.480962,-68
2021-10-21 15:51:08.480970,-99
2021-10-21 15:51:08.480979,-109
2021-10-21 15:51:08.480987,-60
2021-10-21 15:51:08.480996,-46
2021-10-21 15:51:08.481004,-48
2021-10-21 15:51:08.481013,-38
2021-10-21 15:51:08.481021,-36
2021-10-21 15:51:08.481029,-26
2021-10-21 15:51:08.481038,-4
2021-10-21 15:51:08.481046,12
2021-10-21 15:51:08.481054,19
2021-10-21 15:51:08.481062,17
2021-10-21 15:51:08.481070,7
2021-10-21 15:51:08.481079,2
2021-10-21 15:51:08.481087,0
2021-10-21 15:51:08.481095,9
2021-10-21 15:51:08.481103,12
2021-10-21 15:51:08.481112,-2
2021-10-21 15:51:08.481120,-14
2021-10-21 15:51:08.481128,-12
2021-10-21 15:51:08.481136,-9
2021-10-21 15:51:08.481144,-17
2021-10-21 15:51:08.481153,-21
2021-10-21 15:51:08.481161,-36
2021-10-21 15:51:08.481169,-51
2021-10-21 15:51:08.481178,-60
2021-10-21 15:51:08.481186,-72
2021-10-21 15:51:08.661623,-97
2021-10-21 15:51:08.661646,-114
2021-10-21 15:51:08.661655,-109
2021-10-21 15:51:08.661664,-102
2021-10-21 15:51:08.661672,-94
2021-10-21 15:51:08.661680,-94
2021-10-21 15:51:08.661689,-94
2021-10-21 15:51:08.661697,-80
2021-10-21 15:51:08.661705,-85
2021-10-21 15:51:08.661714,-87
2021-10-21 15:51:08.661722,-65
2021-10-21 15:51:08.661731,-51
2021-10-21 15:51:08.661739,-43
2021-10-21 15:51:08.661747,-41
2021-10-21 15:51:08.661755,-46
2021-10-21 15:51:08.661764,-41
2021-10-21 15:51:08.661772,-31
2021-10-21 15:51:08.661780,-24
2021-10-21 15:51:08.661789,-21
2021-10-21 15:51:08.661797,-26
2021-10-21 15:51:08.661806,-26
2021-10-21 15:51:08.661814,-14
2021-10-21 15:51:08.661822,-7
2021-10-21 15:51:08.661831,-4
2021-10-21 15:51:08.661839,-2
2021-10-21 15:51:08.661847,2
2021-10-21 15:51:08.661856,17
2021-10-21 15:51:08.661864,34
2021-10-21 15:51:08.661872,36
2021-10-21 15:51:08.661881,31
2021-10-21 15:51:08.886625,29
2021-10-21 15:51:08.886648,19
2021-10-21 15:51:08.886658,0
2021-10-21 15:51:08.886666,-7
2021-10-21 15:51:08.886675,0
2021-10-21 15:51:08.886683,7
2021-10-21 15:51:08.886692,0
2021-10-21 15:51:08.886700,-7
2021-10-21 15:51:08.886709,-14
2021-10-21 15:51:08.886717,-14
2021-10-21 15:51:08.886725,-24
2021-10-21 15:51:08.886734,-80
2021-10-21 15:51:08.886742,-131
2021-10-21 15:51:08.886750,19
2021-10-21 15:51:08.886759,540
2021-10-21 15:51:08.886767,1228
2021-10-21 15:51:08.886775,1313
2021-10-21 15:51:08.886784,479
2021-10-21 15:51:08.886792,-192
2021-10-21 15:51:08.886800,-60
2021-10-21 15:51:08.886809,53
2021-10-21 15:51:08.886817,-126
2021-10-21 15:51:08.886825,-155
2021-10-21 15:51:08.886833,-87
2021-10-21 15:51:08.886841,-107
2021-10-21 15:51:08.886850,-111
2021-10-21 15:51:08.886858,-75
2021-10-21 15:51:08.886866,-65
2021-10-21 15:51:08.886874,-60
2021-10-21 15:51:08.886883,-38
2021-10-21 15:51:09.156579,-26
2021-10-21 15:51:09.156602,-21
2021-10-21 15:51:09.156612,-2
2021-10-21 15:51:09.156621,2
2021-10-21 15:51:09.156629,0
2021-10-21 15:51:09.156638,-2
2021-10-21 15:51:09.156647,-4
2021-10-21 15:51:09.156655,-4
2021-10-21 15:51:09.156664,2
2021-10-21 15:51:09.156672,4
2021-10-21 15:51:09.156681,2
2021-10-21 15:51:09.156689,-2
2021-10-21 15:51:09.156698,-21
2021-10-21 15:51:09.156706,-36
2021-10-21 15:51:09.156714,-36
2021-10-21 15:51:09.156723,-36
2021-10-21 15:51:09.156731,-41
2021-10-21 15:51:09.156740,-46
2021-10-21 15:51:09.156748,-58
2021-10-21 15:51:09.156756,-63
2021-10-21 15:51:09.156765,-68
2021-10-21 15:51:09.156773,-82
2021-10-21 15:51:09.156782,-87
2021-10-21 15:51:09.156790,-90
2021-10-21 15:51:09.156798,-97
2021-10-21 15:51:09.156806,-94
2021-10-21 15:51:09.156815,-87
2021-10-21 15:51:09.156823,-90
2021-10-21 15:51:09.156832,-87
2021-10-21 15:51:09.156840,-80
2021-10-21 15:51:09.336562,-77
2021-10-21 15:51:09.336584,-72
2021-10-21 15:51:09.336594,-65
2021-10-21 15:51:09.336602,-68
2021-10-21 15:51:09.336611,-63
2021-10-21 15:51:09.336619,-58
2021-10-21 15:51:09.336628,-63
2021-10-21 15:51:09.336636,-68
2021-10-21 15:51:09.336644,-60
2021-10-21 15:51:09.336652,-58
2021-10-21 15:51:09.336661,-60
2021-10-21 15:51:09.336669,-68
2021-10-21 15:51:09.336677,-75
2021-10-21 15:51:09.336685,-72
2021-10-21 15:51:09.336694,-70
2021-10-21 15:51:09.336702,-68
2021-10-21 15:51:09.336710,-55
2021-10-21 15:51:09.336719,-41
2021-10-21 15:51:09.336727,-38
2021-10-21 15:51:09.336735,-36
2021-10-21 15:51:09.336744,-38
2021-10-21 15:51:09.336752,-48
2021-10-21 15:51:09.336760,-58
2021-10-21 15:51:09.336768,-58
2021-10-21 15:51:09.336777,-55
2021-10-21 15:51:09.336785,-46
2021-10-21 15:51:09.336793,-41
2021-10-21 15:51:09.336801,-48
2021-10-21 15:51:09.336809,-63
2021-10-21 15:51:09.336817,-72
2021-10-21 15:51:09.606521,-75
2021-10-21 15:51:09.606542,-111
2021-10-21 15:51:09.606551,-172
2021-10-21 15:51:09.606560,-72
2021-10-21 15:51:09.606569,394
2021-10-21 15:51:09.606578,1143
2021-10-21 15:51:09.606586,1481
2021-10-21 15:51:09.606595,778
2021-10-21 15:51:09.606603,-126
2021-10-21 15:51:09.606612,-182
2021-10-21 15:51:09.606620,-2
2021-10-21 15:51:09.606628,-165
2021-10-21 15:51:09.606637,-231
2021-10-21 15:51:09.606647,-136
2021-10-21 15:51:09.606656,-143
2021-10-21 15:51:09.606664,-165
2021-10-21 15:51:09.606673,-124
2021-10-21 15:51:09.606681,-102
2021-10-21 15:51:09.606690,-99
2021-10-21 15:51:09.606698,-75
2021-10-21 15:51:09.606706,-58
2021-10-21 15:51:09.606715,-53
2021-10-21 15:51:09.606723,-43
2021-10-21 15:51:09.606731,-29
2021-10-21 15:51:09.606740,-14
2021-10-21 15:51:09.606748,-2
2021-10-21 15:51:09.606757,9
2021-10-21 15:51:09.606765,12
2021-10-21 15:51:09.606774,12
2021-10-21 15:51:09.606782,17
2021-10-21 15:51:09.831567,24
2021-10-21 15:51:09.831589,24
2021-10-21 15:51:09.831598,19
2021-10-21 15:51:09.831607,4
2021-10-21 15:51:09.831616,-21
2021-10-21 15:51:09.831624,-36
2021-10-21 15:51:09.831632,-36
2021-10-21 15:51:09.831641,-41
2021-10-21 15:51:09.831649,-58
2021-10-21 15:51:09.831658,-65
2021-10-21 15:51:09.831666,-77
2021-10-21 15:51:09.831674,-90
2021-10-21 15:51:09.831683,-90
2021-10-21 15:51:09.831691,-82
2021-10-21 15:51:09.831699,-87
2021-10-21 15:51:09.831708,-97
2021-10-21 15:51:09.831716,-104
2021-10-21 15:51:09.831724,-97
2021-10-21 15:51:09.831733,-90
2021-10-21 15:51:09.831741,-92
2021-10-21 15:51:09.831749,-87
2021-10-21 15:51:09.831757,-85
2021-10-21 15:51:09.831766,-85
2021-10-21 15:51:09.831774,-80
2021-10-21 15:51:09.831782,-72
2021-10-21 15:51:09.831791,-68
2021-10-21 15:51:09.831799,-68
2021-10-21 15:51:09.831807,-72
2021-10-21 15:51:09.831816,-70
2021-10-21 15:51:09.831824,-60
2021-10-21 15:51:10.145886,-55
2021-10-21 15:51:10.145907,-55
2021-10-21 15:51:10.145917,-58
2021-10-21 15:51:10.145925,-75
2021-10-21 15:51:10.145934,-90
2021-10-21 15:51:10.145942,-77
2021-10-21 15:51:10.145950,-48
2021-10-21 15:51:10.145958,-26
2021-10-21 15:51:10.145967,-29
2021-10-21 15:51:10.145975,-51
2021-10-21 15:51:10.145984,-58
2021-10-21 15:51:10.145992,-55
2021-10-21 15:51:10.146000,-68
2021-10-21 15:51:10.146008,-77
2021-10-21 15:51:10.146016,-77
2021-10-21 15:51:10.146025,-82
2021-10-21 15:51:10.146033,-82
2021-10-21 15:51:10.146041,-70
2021-10-21 15:51:10.146049,-60
2021-10-21 15:51:10.146057,-53
2021-10-21 15:51:10.146066,-65
2021-10-21 15:51:10.146074,-128
2021-10-21 15:51:10.146082,-180
2021-10-21 15:51:10.146097,-38
2021-10-21 15:51:10.146106,467
2021-10-21 15:51:10.146114,1204
2021-10-21 15:51:10.146122,1423
2021-10-21 15:51:10.146131,639
2021-10-21 15:51:10.146139,-148
2021-10-21 15:51:10.146147,-99
2021-10-21 15:51:10.281613,41
2021-10-21 15:51:10.281635,-128
2021-10-21 15:51:10.281644,-167
2021-10-21 15:51:10.281653,-92
2021-10-21 15:51:10.281661,-107
2021-10-21 15:51:10.281670,-111
2021-10-21 15:51:10.281678,-72
2021-10-21 15:51:10.281686,-60
2021-10-21 15:51:10.281695,-70
2021-10-21 15:51:10.281703,-65
2021-10-21 15:51:10.281711,-48
2021-10-21 15:51:10.281720,-31
2021-10-21 15:51:10.281728,-19
2021-10-21 15:51:10.281736,-7
2021-10-21 15:51:10.281745,-7
2021-10-21 15:51:10.281753,-9
2021-10-21 15:51:10.281762,2
2021-10-21 15:51:10.281770,19
2021-10-21 15:51:10.281778,26
2021-10-21 15:51:10.281787,19
2021-10-21 15:51:10.281795,4
2021-10-21 15:51:10.281803,-4
2021-10-21 15:51:10.281812,-2
2021-10-21 15:51:10.281820,0
2021-10-21 15:51:10.281829,-14
2021-10-21 15:51:10.281837,-31
2021-10-21 15:51:10.281845,-43
2021-10-21 15:51:10.281853,-55
2021-10-21 15:51:10.281862,-60
2021-10-21 15:51:10.281870,-68
2021-10-21 15:51:10.596515,-70
2021-10-21 15:51:10.596535,-77
2021-10-21 15:51:10.596544,-92
2021-10-21 15:51:10.596553,-97
2021-10-21 15:51:10.596562,-87
2021-10-21 15:51:10.596570,-82
2021-10-21 15:51:10.596579,-77
2021-10-21 15:51:10.596587,-82
2021-10-21 15:51:10.596595,-104
2021-10-21 15:51:10.596604,-121
2021-10-21 15:51:10.596612,-119
2021-10-21 15:51:10.596620,-109
2021-10-21 15:51:10.596629,-102
2021-10-21 15:51:10.596637,-107
2021-10-21 15:51:10.596646,-114
2021-10-21 15:51:10.596654,-109
2021-10-21 15:51:10.596662,-107
2021-10-21 15:51:10.596671,-114
2021-10-21 15:51:10.596679,-107
2021-10-21 15:51:10.596687,-94
2021-10-21 15:51:10.596696,-97
2021-10-21 15:51:10.596704,-99
2021-10-21 15:51:10.596712,-90
2021-10-21 15:51:10.596720,-82
2021-10-21 15:51:10.596729,-82
2021-10-21 15:51:10.596737,-82
2021-10-21 15:51:10.596745,-80
2021-10-21 15:51:10.596754,-75
2021-10-21 15:51:10.596762,-60
2021-10-21 15:51:10.596770,-34
2021-10-21 15:51:10.731607,-17
2021-10-21 15:51:10.731630,-24
2021-10-21 15:51:10.731639,-34
2021-10-21 15:51:10.731648,-41
2021-10-21 15:51:10.731657,-41
2021-10-21 15:51:10.731665,-41
2021-10-21 15:51:10.731673,-43
2021-10-21 15:51:10.731682,-46
2021-10-21 15:51:10.731690,-41
2021-10-21 15:51:10.731698,-36
2021-10-21 15:51:10.731707,-34
2021-10-21 15:51:10.731715,-29
2021-10-21 15:51:10.731723,-34
2021-10-21 15:51:10.731732,-77
2021-10-21 15:51:10.731740,-141
2021-10-21 15:51:10.731748,-107
2021-10-21 15:51:10.731757,214
2021-10-21 15:51:10.731765,858
2021-10-21 15:51:10.731773,1350
2021-10-21 15:51:10.731781,936
2021-10-21 15:51:10.731790,9
2021-10-21 15:51:10.731798,-231
2021-10-21 15:51:10.731806,24
2021-10-21 15:51:10.731815,-31
2021-10-21 15:51:10.731823,-170
2021-10-21 15:51:10.731832,-111
2021-10-21 15:51:10.731840,-82
2021-10-21 15:51:10.731848,-107
2021-10-21 15:51:10.731856,-85
2021-10-21 15:51:10.731864,-55
2021-10-21 15:51:10.956604,-58
2021-10-21 15:51:10.956626,-46
2021-10-21 15:51:10.956636,-24
2021-10-21 15:51:10.956644,-17
2021-10-21 15:51:10.956653,-7
2021-10-21 15:51:10.956661,7
2021-10-21 15:51:10.956669,7
2021-10-21 15:51:10.956678,7
2021-10-21 15:51:10.956686,24
2021-10-21 15:51:10.956694,31
2021-10-21 15:51:10.956702,26
2021-10-21 15:51:10.956711,31
2021-10-21 15:51:10.956719,21
2021-10-21 15:51:10.956727,7
2021-10-21 15:51:10.956736,-4
2021-10-21 15:51:10.956744,-26
2021-10-21 15:51:10.956752,-38
2021-10-21 15:51:10.956760,-26
2021-10-21 15:51:10.956769,-31
2021-10-21 15:51:10.956777,-46
2021-10-21 15:51:10.956785,-58
2021-10-21 15:51:10.956793,-72
2021-10-21 15:51:10.956801,-85
2021-10-21 15:51:10.956810,-90
2021-10-21 15:51:10.956818,-102
2021-10-21 15:51:10.956826,-111
2021-10-21 15:51:10.956835,-111
2021-10-21 15:51:10.956843,-109
2021-10-21 15:51:10.956851,-114
2021-10-21 15:51:10.956860,-116
2021-10-21 15:51:11.181597,-107
2021-10-21 15:51:11.181620,-92
2021-10-21 15:51:11.181629,-87
2021-10-21 15:51:11.181638,-82
2021-10-21 15:51:11.181646,-72
2021-10-21 15:51:11.181655,-77
2021-10-21 15:51:11.181663,-87
2021-10-21 15:51:11.181672,-77
2021-10-21 15:51:11.181680,-60
2021-10-21 15:51:11.181688,-58
2021-10-21 15:51:11.181697,-65
2021-10-21 15:51:11.181705,-75
2021-10-21 15:51:11.181713,-80
2021-10-21 15:51:11.181721,-63
2021-10-21 15:51:11.181730,-53
2021-10-21 15:51:11.181738,-58
2021-10-21 15:51:11.181747,-55
2021-10-21 15:51:11.181755,-55
2021-10-21 15:51:11.181763,-60
2021-10-21 15:51:11.181772,-55
2021-10-21 15:51:11.181780,-43
2021-10-21 15:51:11.181788,-43
2021-10-21 15:51:11.181796,-36
2021-10-21 15:51:11.181805,-19
2021-10-21 15:51:11.181813,-14
2021-10-21 15:51:11.181821,-14
2021-10-21 15:51:11.181829,-17
2021-10-21 15:51:11.181837,-26
2021-10-21 15:51:11.181846,-31
2021-10-21 15:51:11.181854,-29
2021-10-21 15:51:11.452033,-24
2021-10-21 15:51:11.452054,-19
2021-10-21 15:51:11.452063,-14
2021-10-21 15:51:11.452072,-12
2021-10-21 15:51:11.452080,-14
2021-10-21 15:51:11.452089,-24
2021-10-21 15:51:11.452097,-46
2021-10-21 15:51:11.452105,-97
2021-10-21 15:51:11.452113,-124
2021-10-21 15:51:11.452122,53
2021-10-21 15:51:11.452130,598
2021-10-21 15:51:11.452138,1275
2021-10-21 15:51:11.452146,1282
2021-10-21 15:51:11.452154,372
2021-10-21 15:51:11.452162,-272
2021-10-21 15:51:11.452171,-75
2021-10-21 15:51:11.452179,36
2021-10-21 15:51:11.452187,-150
2021-10-21 15:51:11.452196,-141
2021-10-21 15:51:11.452204,-58
2021-10-21 15:51:11.452212,-94
2021-10-21 15:51:11.452221,-119
2021-10-21 15:51:11.452229,-87
2021-10-21 15:51:11.452237,-72
2021-10-21 15:51:11.452245,-70
2021-10-21 15:51:11.452253,-68
2021-10-21 15:51:11.452262,-58
2021-10-21 15:51:11.452270,-43
2021-10-21 15:51:11.452278,-29
2021-10-21 15:51:11.452286,-17
2021-10-21 15:51:11.631659,-7
2021-10-21 15:51:11.631682,9
2021-10-21 15:51:11.631691,21
2021-10-21 15:51:11.631700,12
2021-10-21 15:51:11.631709,0
2021-10-21 15:51:11.631717,-2
2021-10-21 15:51:11.631725,-2
2021-10-21 15:51:11.631734,-9
2021-10-21 15:51:11.631742,-19
2021-10-21 15:51:11.631752,-29
2021-10-21 15:51:11.631760,-34
2021-10-21 15:51:11.631768,-29
2021-10-21 15:51:11.631776,-24
2021-10-21 15:51:11.631785,-31
2021-10-21 15:51:11.631793,-43
2021-10-21 15:51:11.631801,-60
2021-10-21 15:51:11.631810,-82
2021-10-21 15:51:11.631818,-97
2021-10-21 15:51:11.631827,-104
2021-10-21 15:51:11.631835,-107
2021-10-21 15:51:11.631843,-109
2021-10-21 15:51:11.631852,-111
2021-10-21 15:51:11.631860,-107
2021-10-21 15:51:11.631868,-97
2021-10-21 15:51:11.631876,-90
2021-10-21 15:51:11.631885,-85
2021-10-21 15:51:11.631893,-85
2021-10-21 15:51:11.631901,-97
2021-10-21 15:51:11.631910,-99
2021-10-21 15:51:11.631918,-85
2021-10-21 15:51:11.901590,-72
2021-10-21 15:51:11.901611,-65
2021-10-21 15:51:11.901620,-60
2021-10-21 15:51:11.901629,-72
2021-10-21 15:51:11.901638,-90
2021-10-21 15:51:11.901646,-82
2021-10-21 15:51:11.901655,-72
2021-10-21 15:51:11.901663,-70
2021-10-21 15:51:11.901671,-70
2021-10-21 15:51:11.901679,-75
2021-10-21 15:51:11.901688,-85
2021-10-21 15:51:11.901696,-77
2021-10-21 15:51:11.901704,-68
2021-10-21 15:51:11.901712,-68
2021-10-21 15:51:11.901720,-70
2021-10-21 15:51:11.901728,-65
2021-10-21 15:51:11.901737,-46
2021-10-21 15:51:11.901745,-24
2021-10-21 15:51:11.901753,-19
2021-10-21 15:51:11.901761,-19
2021-10-21 15:51:11.901770,-14
2021-10-21 15:51:11.901778,-26
2021-10-21 15:51:11.901786,-38
2021-10-21 15:51:11.901795,-36
2021-10-21 15:51:11.901803,-31
2021-10-21 15:51:11.901811,-34
2021-10-21 15:51:11.901820,-48
2021-10-21 15:51:11.901828,-65
2021-10-21 15:51:11.901836,-60
2021-10-21 15:51:11.901844,-53
2021-10-21 15:51:12.170916,-63
2021-10-21 15:51:12.170938,-109
2021-10-21 15:51:12.170947,-184
2021-10-21 15:51:12.170956,-114
2021-10-21 15:51:12.170964,347
2021-10-21 15:51:12.170973,1141
2021-10-21 15:51:12.170981,1562
2021-10-21 15:51:12.170989,883
2021-10-21 15:51:12.170998,-109
2021-10-21 15:51:12.171006,-204
2021-10-21 15:51:12.171014,34
2021-10-21 15:51:12.171022,-114
2021-10-21 15:51:12.171030,-209
2021-10-21 15:51:12.171039,-114
2021-10-21 15:51:12.171047,-128
2021-10-21 15:51:12.171055,-172
2021-10-21 15:51:12.171063,-119
2021-10-21 15:51:12.171075,-80
2021-10-21 15:51:12.171083,-90
2021-10-21 15:51:12.171092,-80
2021-10-21 15:51:12.171100,-63
2021-10-21 15:51:12.171108,-60
2021-10-21 15:51:12.171117,-48
2021-10-21 15:51:12.171125,-31
2021-10-21 15:51:12.171133,-17
2021-10-21 15:51:12.171141,-7
2021-10-21 15:51:12.171149,-7
2021-10-21 15:51:12.171157,-12
2021-10-21 15:51:12.171165,-9
2021-10-21 15:51:12.171173,-2
2021-10-21 15:51:12.351583,0
2021-10-21 15:51:12.351604,-14
2021-10-21 15:51:12.351614,-29
2021-10-21 15:51:12.351623,-29
2021-10-21 15:51:12.351631,-21
2021-10-21 15:51:12.351639,-21
2021-10-21 15:51:12.351648,-26
2021-10-21 15:51:12.351656,-51
2021-10-21 15:51:12.351664,-85
2021-10-21 15:51:12.351673,-97
2021-10-21 15:51:12.351681,-97
2021-10-21 15:51:12.351689,-109
2021-10-21 15:51:12.351698,-119
2021-10-21 15:51:12.351706,-121
2021-10-21 15:51:12.351714,-133
2021-10-21 15:51:12.351722,-136
2021-10-21 15:51:12.351730,-116
2021-10-21 15:51:12.351739,-102
2021-10-21 15:51:12.351747,-99
2021-10-21 15:51:12.351755,-102
2021-10-21 15:51:12.351764,-99
2021-10-21 15:51:12.351772,-90
2021-10-21 15:51:12.351780,-77
2021-10-21 15:51:12.351788,-70
2021-10-21 15:51:12.351797,-65
2021-10-21 15:51:12.351805,-68
2021-10-21 15:51:12.351813,-70
2021-10-21 15:51:12.351822,-60
2021-10-21 15:51:12.351830,-51
2021-10-21 15:51:12.351838,-43
2021-10-21 15:51:12.576497,-43
2021-10-21 15:51:12.576518,-48
2021-10-21 15:51:12.576528,-68
2021-10-21 15:51:12.576537,-87
2021-10-21 15:51:12.576545,-85
2021-10-21 15:51:12.576554,-70
2021-10-21 15:51:12.576562,-75
2021-10-21 15:51:12.576570,-90
2021-10-21 15:51:12.576579,-85
2021-10-21 15:51:12.576587,-55
2021-10-21 15:51:12.576595,-29
2021-10-21 15:51:12.576604,-21
2021-10-21 15:51:12.576612,-29
2021-10-21 15:51:12.576620,-41
2021-10-21 15:51:12.576628,-53
2021-10-21 15:51:12.576637,-53
2021-10-21 15:51:12.576645,-48
2021-10-21 15:51:12.576653,-41
2021-10-21 15:51:12.576662,-36
2021-10-21 15:51:12.576670,-34
2021-10-21 15:51:12.576678,-34
2021-10-21 15:51:12.576687,-31
2021-10-21 15:51:12.576695,-24
2021-10-21 15:51:12.576703,-29
2021-10-21 15:51:12.576711,-85
2021-10-21 15:51:12.576719,-145
2021-10-21 15:51:12.576728,-24
2021-10-21 15:51:12.576736,469
2021-10-21 15:51:12.576745,1228
2021-10-21 15:51:12.576753,1520
2021-10-21 15:51:12.801537,749
2021-10-21 15:51:12.801559,-131
2021-10-21 15:51:12.801568,-111
2021-10-21 15:51:12.801577,70
2021-10-21 15:51:12.801586,-111
2021-10-21 15:51:12.801594,-172
2021-10-21 15:51:12.801602,-92
2021-10-21 15:51:12.801611,-109
2021-10-21 15:51:12.801619,-124
2021-10-21 15:51:12.801628,-80
2021-10-21 15:51:12.801636,-65
2021-10-21 15:51:12.801644,-65
2021-10-21 15:51:12.801653,-55
2021-10-21 15:51:12.801661,-48
2021-10-21 15:51:12.801669,-36
2021-10-21 15:51:12.801678,-21
2021-10-21 15:51:12.801686,-9
2021-10-21 15:51:12.801694,-7
2021-10-21 15:51:12.801702,-14
2021-10-21 15:51:12.801710,-2
2021-10-21 15:51:12.801719,17
2021-10-21 15:51:12.801727,21
2021-10-21 15:51:12.801735,17
2021-10-21 15:51:12.801743,19
2021-10-21 15:51:12.801752,17
2021-10-21 15:51:12.801760,12
2021-10-21 15:51:12.801768,9
2021-10-21 15:51:12.801776,2
2021-10-21 15:51:12.801785,-4
2021-10-21 15:51:12.801793,-19
2021-10-21 15:51:13.026618,-36
2021-10-21 15:51:13.026641,-53
2021-10-21 15:51:13.026650,-65
2021-10-21 15:51:13.026659,-72
2021-10-21 15:51:13.026668,-80
2021-10-21 15:51:13.026676,-94
2021-10-21 15:51:13.026684,-111
2021-10-21 15:51:13.026693,-119
2021-10-21 15:51:13.026701,-124
2021-10-21 15:51:13.026710,-131
2021-10-21 15:51:13.026718,-121
2021-10-21 15:51:13.026727,-114
2021-10-21 15:51:13.026735,-119
2021-10-21 15:51:13.026744,-107
2021-10-21 15:51:13.026752,-94
2021-10-21 15:51:13.026760,-94
2021-10-21 15:51:13.026769,-87
2021-10-21 15:51:13.026777,-77
2021-10-21 15:51:13.026786,-77
2021-10-21 15:51:13.026794,-72
2021-10-21 15:51:13.026802,-63
2021-10-21 15:51:13.026810,-60
2021-10-21 15:51:13.026819,-58
2021-10-21 15:51:13.026827,-55
2021-10-21 15:51:13.026835,-51
2021-10-21 15:51:13.026843,-46
2021-10-21 15:51:13.026852,-43
2021-10-21 15:51:13.026860,-43
2021-10-21 15:51:13.026868,-41
2021-10-21 15:51:13.026876,-38
2021-10-21 15:51:13.296605,-36
2021-10-21 15:51:13.296627,-26
2021-10-21 15:51:13.296636,-24
2021-10-21 15:51:13.296644,-26
2021-10-21 15:51:13.296653,-34
2021-10-21 15:51:13.296661,-43
2021-10-21 15:51:13.296670,-41
2021-10-21 15:51:13.296678,-19
2021-10-21 15:51:13.296686,2
2021-10-21 15:51:13.296695,0
2021-10-21 15:51:13.296703,-12
2021-10-21 15:51:13.296711,-21
2021-10-21 15:51:13.296719,-26
2021-10-21 15:51:13.296727,-26
2021-10-21 15:51:13.296736,-29
2021-10-21 15:51:13.296744,-29
2021-10-21 15:51:13.296752,-26
2021-10-21 15:51:13.296760,-26
2021-10-21 15:51:13.296768,-21
2021-10-21 15:51:13.296777,-14
2021-10-21 15:51:13.296785,-12
2021-10-21 15:51:13.296793,-14
2021-10-21 15:51:13.296802,-43
2021-10-21 15:51:13.296810,-111
2021-10-21 15:51:13.296818,-126
2021-10-21 15:51:13.296826,126
2021-10-21 15:51:13.296834,768
2021-10-21 15:51:13.296843,1445
2021-10-21 15:51:13.296851,1299
2021-10-21 15:51:13.296859,318
2021-10-21 15:51:13.476628,-194
2021-10-21 15:51:13.476650,21
2021-10-21 15:51:13.476659,34
2021-10-21 15:51:13.476668,-153
2021-10-21 15:51:13.476676,-126
2021-10-21 15:51:13.476685,-77
2021-10-21 15:51:13.476693,-107
2021-10-21 15:51:13.476701,-97
2021-10-21 15:51:13.476709,-68
2021-10-21 15:51:13.476718,-70
2021-10-21 15:51:13.476726,-63
2021-10-21 15:51:13.476734,-53
2021-10-21 15:51:13.476742,-48
2021-10-21 15:51:13.476751,-36
2021-10-21 15:51:13.476759,-38
2021-10-21 15:51:13.476767,-55
2021-10-21 15:51:13.476775,-55
2021-10-21 15:51:13.476783,-41
2021-10-21 15:51:13.476792,-34
2021-10-21 15:51:13.476800,-34
2021-10-21 15:51:13.476808,-34
2021-10-21 15:51:13.476816,-43
2021-10-21 15:51:13.476824,-51
2021-10-21 15:51:13.476833,-48
2021-10-21 15:51:13.476841,-48
2021-10-21 15:51:13.476849,-53
2021-10-21 15:51:13.476857,-53
2021-10-21 15:51:13.476865,-55
2021-10-21 15:51:13.476873,-60
2021-10-21 15:51:13.476881,-58
2021-10-21 15:51:13.791631,-60
2021-10-21 15:51:13.791652,-65
2021-10-21 15:51:13.791661,-72
2021-10-21 15:51:13.791670,-94
2021-10-21 15:51:13.791679,-109
2021-10-21 15:51:13.791687,-102
2021-10-21 15:51:13.791695,-92
2021-10-21 15:51:13.791704,-85
2021-10-21 15:51:13.791712,-77
2021-10-21 15:51:13.791720,-82
2021-10-21 15:51:13.791728,-87
2021-10-21 15:51:13.791737,-72
2021-10-21 15:51:13.791745,-65
2021-10-21 15:51:13.791753,-72
2021-10-21 15:51:13.791762,-77
2021-10-21 15:51:13.791770,-72
2021-10-21 15:51:13.791778,-68
2021-10-21 15:51:13.791787,-55
2021-10-21 15:51:13.791795,-46
2021-10-21 15:51:13.791803,-43
2021-10-21 15:51:13.791812,-43
2021-10-21 15:51:13.791820,-43
2021-10-21 15:51:13.791828,-38
2021-10-21 15:51:13.791836,-31
2021-10-21 15:51:13.791845,-29
2021-10-21 15:51:13.791853,-26
2021-10-21 15:51:13.791861,-24
2021-10-21 15:51:13.791870,-29
2021-10-21 15:51:13.791878,-24
2021-10-21 15:51:13.791886,-14
2021-10-21 15:51:13.971651,-12
2021-10-21 15:51:13.971672,-12
2021-10-21 15:51:13.971681,-14
2021-10-21 15:51:13.971690,-17
2021-10-21 15:51:13.971698,-12
2021-10-21 15:51:13.971707,-7
2021-10-21 15:51:13.971715,-4
2021-10-21 15:51:13.971723,9
2021-10-21 15:51:13.971732,24
2021-10-21 15:51:13.971740,17
2021-10-21 15:51:13.971748,17
2021-10-21 15:51:13.971756,24
2021-10-21 15:51:13.971765,17
2021-10-21 15:51:13.971773,4
2021-10-21 15:51:13.971781,0
2021-10-21 15:51:13.971790,-9
2021-10-21 15:51:13.971798,-17
2021-10-21 15:51:13.971806,-4
2021-10-21 15:51:13.971814,2
2021-10-21 15:51:13.971823,-9
2021-10-21 15:51:13.971831,-41
2021-10-21 15:51:13.971839,-60
2021-10-21 15:51:13.971847,-82
2021-10-21 15:51:13.971855,-141
2021-10-21 15:51:13.971863,-102
2021-10-21 15:51:13.971872,253
2021-10-21 15:51:13.971880,934
2021-10-21 15:51:13.971888,1430
2021-10-21 15:51:13.971896,995
2021-10-21 15:51:13.971904,51
2021-10-21 15:51:14.285916,-194
2021-10-21 15:51:14.285938,24
2021-10-21 15:51:14.285948,-68
2021-10-21 15:51:14.285957,-194
2021-10-21 15:51:14.285965,-119
2021-10-21 15:51:14.285974,-90
2021-10-21 15:51:14.285982,-121
2021-10-21 15:51:14.285990,-99
2021-10-21 15:51:14.285998,-90
2021-10-21 15:51:14.286007,-97
2021-10-21 15:51:14.286015,-80
2021-10-21 15:51:14.286023,-63
2021-10-21 15:51:14.286031,-63
2021-10-21 15:51:14.286039,-60
2021-10-21 15:51:14.286047,-68
2021-10-21 15:51:14.286055,-63
2021-10-21 15:51:14.286064,-46
2021-10-21 15:51:14.286072,-46
2021-10-21 15:51:14.286080,-48
2021-10-21 15:51:14.286088,-43
2021-10-21 15:51:14.286096,-48
2021-10-21 15:51:14.286104,-53
2021-10-21 15:51:14.286113,-43
2021-10-21 15:51:14.286121,-36
2021-10-21 15:51:14.286129,-43
2021-10-21 15:51:14.286137,-48
2021-10-21 15:51:14.286145,-51
2021-10-21 15:51:14.286154,-51
2021-10-21 15:51:14.286162,-46
2021-10-21 15:51:14.286170,-46
2021-10-21 15:51:14.421618,-55
2021-10-21 15:51:14.421640,-70
2021-10-21 15:51:14.421649,-77
2021-10-21 15:51:14.421658,-85
2021-10-21 15:51:14.421666,-87
2021-10-21 15:51:14.421675,-77
2021-10-21 15:51:14.421683,-70
2021-10-21 15:51:14.421691,-70
2021-10-21 15:51:14.421700,-72
2021-10-21 15:51:14.421708,-63
2021-10-21 15:51:14.421716,-48
2021-10-21 15:51:14.421725,-38
2021-10-21 15:51:14.421733,-46
2021-10-21 15:51:14.421741,-53
2021-10-21 15:51:14.421753,-51
2021-10-21 15:51:14.421761,-41
2021-10-21 15:51:14.421769,-36
2021-10-21 15:51:14.421778,-31
2021-10-21 15:51:14.421786,-26
2021-10-21 15:51:14.421794,-26
2021-10-21 15:51:14.421802,-34
2021-10-21 15:51:14.421810,-36
2021-10-21 15:51:14.421819,-26
2021-10-21 15:51:14.421827,-19
2021-10-21 15:51:14.421835,-21
2021-10-21 15:51:14.421843,-36
2021-10-21 15:51:14.421852,-53
2021-10-21 15:51:14.421860,-60
2021-10-21 15:51:14.421868,-51
2021-10-21 15:51:14.421877,-41
2021-10-21 15:51:14.646640,-43
2021-10-21 15:51:14.646660,-46
2021-10-21 15:51:14.646670,-43
2021-10-21 15:51:14.646678,-38
2021-10-21 15:51:14.646687,-21
2021-10-21 15:51:14.646695,2
2021-10-21 15:51:14.646703,7
2021-10-21 15:51:14.646711,-4
2021-10-21 15:51:14.646719,-7
2021-10-21 15:51:14.646728,-12
2021-10-21 15:51:14.646736,-24
2021-10-21 15:51:14.646744,-21
2021-10-21 15:51:14.646752,-24
2021-10-21 15:51:14.646761,-29
2021-10-21 15:51:14.646769,-24
2021-10-21 15:51:14.646777,-19
2021-10-21 15:51:14.646785,-19
2021-10-21 15:51:14.646794,-14
2021-10-21 15:51:14.646802,-19
2021-10-21 15:51:14.646810,-46
2021-10-21 15:51:14.646818,-102
2021-10-21 15:51:14.646826,-109
2021-10-21 15:51:14.646835,148
2021-10-21 15:51:14.646843,756
2021-10-21 15:51:14.646851,1309
2021-10-21 15:51:14.646859,1034
2021-10-21 15:51:14.646868,114
2021-10-21 15:51:14.646876,-243
2021-10-21 15:51:14.646884,0
2021-10-21 15:51:14.646893,-19
2021-10-21 15:51:14.871643,-172
2021-10-21 15:51:14.871665,-119
2021-10-21 15:51:14.871675,-72
2021-10-21 15:51:14.871684,-102
2021-10-21 15:51:14.871692,-92
2021-10-21 15:51:14.871700,-70
2021-10-21 15:51:14.871709,-75
2021-10-21 15:51:14.871717,-77
2021-10-21 15:51:14.871725,-65
2021-10-21 15:51:14.871733,-51
2021-10-21 15:51:14.871741,-43
2021-10-21 15:51:14.871749,-36
2021-10-21 15:51:14.871757,-36
2021-10-21 15:51:14.871765,-29
2021-10-21 15:51:14.871774,-19
2021-10-21 15:51:14.871782,-14
2021-10-21 15:51:14.871790,-12
2021-10-21 15:51:14.871798,-12
2021-10-21 15:51:14.871806,-12
2021-10-21 15:51:14.871814,-7
2021-10-21 15:51:14.871822,-9
2021-10-21 15:51:14.871830,-14
2021-10-21 15:51:14.871839,-12
2021-10-21 15:51:14.871847,-12
2021-10-21 15:51:14.871855,-19
2021-10-21 15:51:14.871863,-21
2021-10-21 15:51:14.871871,-26
2021-10-21 15:51:14.871879,-34
2021-10-21 15:51:14.871887,-43
2021-10-21 15:51:14.871895,-63
2021-10-21 15:51:15.096633,-77
2021-10-21 15:51:15.096655,-82
2021-10-21 15:51:15.096665,-97
2021-10-21 15:51:15.096673,-107
2021-10-21 15:51:15.096682,-97
2021-10-21 15:51:15.096690,-94
2021-10-21 15:51:15.096698,-97
2021-10-21 15:51:15.096706,-82
2021-10-21 15:51:15.096715,-77
2021-10-21 15:51:15.096723,-77
2021-10-21 15:51:15.096731,-72
2021-10-21 15:51:15.096739,-75
2021-10-21 15:51:15.096748,-75
2021-10-21 15:51:15.096756,-65
2021-10-21 15:51:15.096764,-53
2021-10-21 15:51:15.096773,-48
2021-10-21 15:51:15.096781,-53
2021-10-21 15:51:15.096789,-51
2021-10-21 15:51:15.096797,-41
2021-10-21 15:51:15.096805,-36
2021-10-21 15:51:15.096813,-36
2021-10-21 15:51:15.096822,-38
2021-10-21 15:51:15.096830,-41
2021-10-21 15:51:15.096838,-41
2021-10-21 15:51:15.096846,-41
2021-10-21 15:51:15.096854,-46
2021-10-21 15:51:15.096863,-53
2021-10-21 15:51:15.096871,-51
2021-10-21 15:51:15.096879,-43
2021-10-21 15:51:15.096888,-24
2021-10-21 15:51:15.411017,-4
2021-10-21 15:51:15.411039,0
2021-10-21 15:51:15.411048,0
2021-10-21 15:51:15.411057,-4
2021-10-21 15:51:15.411065,-29
2021-10-21 15:51:15.411074,-48
2021-10-21 15:51:15.411082,-36
2021-10-21 15:51:15.411091,-21
2021-10-21 15:51:15.411099,-26
2021-10-21 15:51:15.411107,-38
2021-10-21 15:51:15.411116,-51
2021-10-21 15:51:15.411124,-46
2021-10-21 15:51:15.411132,-36
2021-10-21 15:51:15.411141,-48
2021-10-21 15:51:15.411149,-102
2021-10-21 15:51:15.411157,-136
2021-10-21 15:51:15.411165,38
2021-10-21 15:51:15.411174,574
2021-10-21 15:51:15.411182,1265
2021-10-21 15:51:15.411190,1350
2021-10-21 15:51:15.411198,501
2021-10-21 15:51:15.411207,-184
2021-10-21 15:51:15.411215,-77
2021-10-21 15:51:15.411223,9
2021-10-21 15:51:15.411231,-163
2021-10-21 15:51:15.411240,-165
2021-10-21 15:51:15.411248,-97
2021-10-21 15:51:15.411256,-136
2021-10-21 15:51:15.411264,-150
2021-10-21 15:51:15.411272,-111
2021-10-21 15:51:15.591511,-104
2021-10-21 15:51:15.591533,-109
2021-10-21 15:51:15.591542,-97
2021-10-21 15:51:15.591551,-90
2021-10-21 15:51:15.591559,-87
2021-10-21 15:51:15.591568,-70
2021-10-21 15:51:15.591576,-58
2021-10-21 15:51:15.591585,-65
2021-10-21 15:51:15.591593,-72
2021-10-21 15:51:15.591601,-72
2021-10-21 15:51:15.591609,-72
2021-10-21 15:51:15.591618,-65
2021-10-21 15:51:15.591626,-48
2021-10-21 15:51:15.591634,-38
2021-10-21 15:51:15.591642,-46
2021-10-21 15:51:15.591651,-60
2021-10-21 15:51:15.591659,-68
2021-10-21 15:51:15.591667,-60
2021-10-21 15:51:15.591675,-58
2021-10-21 15:51:15.591684,-63
2021-10-21 15:51:15.591692,-75
2021-10-21 15:51:15.591700,-92
2021-10-21 15:51:15.591708,-94
2021-10-21 15:51:15.591717,-90
2021-10-21 15:51:15.591725,-94
2021-10-21 15:51:15.591733,-99
2021-10-21 15:51:15.591741,-99
2021-10-21 15:51:15.591749,-99
2021-10-21 15:51:15.591758,-97
2021-10-21 15:51:15.591766,-92
2021-10-21 15:51:15.816679,-90
2021-10-21 15:51:15.816702,-80
2021-10-21 15:51:15.816712,-72
2021-10-21 15:51:15.816720,-77
2021-10-21 15:51:15.816729,-70
2021-10-21 15:51:15.816738,-51
2021-10-21 15:51:15.816746,-46
2021-10-21 15:51:15.816755,-43
2021-10-21 15:51:15.816763,-41
2021-10-21 15:51:15.816771,-53
2021-10-21 15:51:15.816780,-53
2021-10-21 15:51:15.816788,-36
2021-10-21 15:51:15.816797,-36
2021-10-21 15:51:15.816805,-36
2021-10-21 15:51:15.816813,-38
2021-10-21 15:51:15.816822,-53
2021-10-21 15:51:15.816830,-53
2021-10-21 15:51:15.816839,-43
2021-10-21 15:51:15.816847,-41
2021-10-21 15:51:15.816855,-36
2021-10-21 15:51:15.816864,-21
2021-10-21 15:51:15.816872,-4
2021-10-21 15:51:15.816880,4
2021-10-21 15:51:15.816889,7
2021-10-21 15:51:15.816897,4
2021-10-21 15:51:15.816905,-4
2021-10-21 15:51:15.816914,-19
2021-10-21 15:51:15.816922,-26
2021-10-21 15:51:15.816930,-19
2021-10-21 15:51:15.816939,-4
2021-10-21 15:51:16.041674,-4
2021-10-21 15:51:16.041697,-17
2021-10-21 15:51:16.041706,-29
2021-10-21 15:51:16.041715,-31
2021-10-21 15:51:16.041724,-31
2021-10-21 15:51:16.041732,-77
2021-10-21 15:51:16.041740,-124
2021-10-21 15:51:16.041749,9
2021-10-21 15:51:16.041757,472
2021-10-21 15:51:16.041765,1131
2021-10-21 15:51:16.041773,1311
2021-10-21 15:51:16.041781,564
2021-10-21 15:51:16.041790,-177
2021-10-21 15:51:16.041798,-136
2021-10-21 15:51:16.041806,-14
2021-10-21 15:51:16.041814,-175
2021-10-21 15:51:16.041823,-192
2021-10-21 15:51:16.041831,-107
2021-10-21 15:51:16.041839,-126
2021-10-21 15:51:16.041847,-138
2021-10-21 15:51:16.041856,-104
2021-10-21 15:51:16.041864,-104
2021-10-21 15:51:16.041872,-107
2021-10-21 15:51:16.041880,-77
2021-10-21 15:51:16.041888,-70
2021-10-21 15:51:16.041897,-75
2021-10-21 15:51:16.041905,-63
2021-10-21 15:51:16.041913,-46
2021-10-21 15:51:16.041921,-38
2021-10-21 15:51:16.041929,-29
2021-10-21 15:51:16.310326,-14
2021-10-21 15:51:16.310348,-4
2021-10-21 15:51:16.310358,-9
2021-10-21 15:51:16.310367,-24
2021-10-21 15:51:16.310375,-34
2021-10-21 15:51:16.310383,-21
2021-10-21 15:51:16.310392,-14
2021-10-21 15:51:16.310400,-36
2021-10-21 15:51:16.310408,-58
2021-10-21 15:51:16.310416,-53
2021-10-21 15:51:16.310425,-41
2021-10-21 15:51:16.310433,-53
2021-10-21 15:51:16.310441,-75
2021-10-21 15:51:16.310449,-90
2021-10-21 15:51:16.310458,-97
2021-10-21 15:51:16.310466,-109
2021-10-21 15:51:16.310474,-114
2021-10-21 15:51:16.310482,-109
2021-10-21 15:51:16.310491,-99
2021-10-21 15:51:16.310499,-92
2021-10-21 15:51:16.310507,-87
2021-10-21 15:51:16.310515,-80
2021-10-21 15:51:16.310524,-70
2021-10-21 15:51:16.310532,-60
2021-10-21 15:51:16.310540,-53
2021-10-21 15:51:16.310548,-46
2021-10-21 15:51:16.310557,-43
2021-10-21 15:51:16.310565,-38
2021-10-21 15:51:16.310573,-26
2021-10-21 15:51:16.310582,-17
2021-10-21 15:51:16.491649,-17
2021-10-21 15:51:16.491670,-19
2021-10-21 15:51:16.491679,-24
2021-10-21 15:51:16.491688,-24
2021-10-21 15:51:16.491697,-14
2021-10-21 15:51:16.491705,-17
2021-10-21 15:51:16.491713,-41
2021-10-21 15:51:16.491722,-53
2021-10-21 15:51:16.491730,-51
2021-10-21 15:51:16.491739,-43
2021-10-21 15:51:16.491747,-19
2021-10-21 15:51:16.491756,7
2021-10-21 15:51:16.491764,0
2021-10-21 15:51:16.491773,-17
2021-10-21 15:51:16.491781,-17
2021-10-21 15:51:16.491790,-24
2021-10-21 15:51:16.491798,-29
2021-10-21 15:51:16.491806,-24
2021-10-21 15:51:16.491815,-24
2021-10-21 15:51:16.491823,-34
2021-10-21 15:51:16.491832,-48
2021-10-21 15:51:16.491840,-51
2021-10-21 15:51:16.491848,-41
2021-10-21 15:51:16.491857,-34
2021-10-21 15:51:16.491865,-48
2021-10-21 15:51:16.491873,-104
2021-10-21 15:51:16.491881,-145
2021-10-21 15:51:16.491890,29
2021-10-21 15:51:16.491898,576
2021-10-21 15:51:16.491907,1243
2021-10-21 15:51:16.716726,1248
2021-10-21 15:51:16.716749,360
2021-10-21 15:51:16.716758,-245
2021-10-21 15:51:16.716767,-46
2021-10-21 15:51:16.716776,51
2021-10-21 15:51:16.716784,-131
2021-10-21 15:51:16.716793,-133
2021-10-21 15:51:16.716801,-72
2021-10-21 15:51:16.716809,-116
2021-10-21 15:51:16.716819,-124
2021-10-21 15:51:16.716827,-82
2021-10-21 15:51:16.716836,-80
2021-10-21 15:51:16.716844,-92
2021-10-21 15:51:16.716852,-68
2021-10-21 15:51:16.716860,-48
2021-10-21 15:51:16.716869,-43
2021-10-21 15:51:16.716877,-29
2021-10-21 15:51:16.716885,-14
2021-10-21 15:51:16.716894,-9
2021-10-21 15:51:16.716902,-4
2021-10-21 15:51:16.716910,-7
2021-10-21 15:51:16.716918,-12
2021-10-21 15:51:16.716927,-17
2021-10-21 15:51:16.716935,-26
2021-10-21 15:51:16.716943,-29
2021-10-21 15:51:16.716952,-31
2021-10-21 15:51:16.716960,-38
2021-10-21 15:51:16.716968,-43
2021-10-21 15:51:16.716976,-43
2021-10-21 15:51:16.716985,-46
2021-10-21 15:51:16.941700,-51
2021-10-21 15:51:16.941722,-53
2021-10-21 15:51:16.941732,-55
2021-10-21 15:51:16.941740,-65
2021-10-21 15:51:16.941749,-85
2021-10-21 15:51:16.941757,-107
2021-10-21 15:51:16.941766,-111
2021-10-21 15:51:16.941774,-102
2021-10-21 15:51:16.941783,-99
2021-10-21 15:51:16.941791,-102
2021-10-21 15:51:16.941800,-107
2021-10-21 15:51:16.941808,-109
2021-10-21 15:51:16.941817,-99
2021-10-21 15:51:16.941825,-87
2021-10-21 15:51:16.941834,-87
2021-10-21 15:51:16.941842,-87
2021-10-21 15:51:16.941850,-77
2021-10-21 15:51:16.941858,-75
2021-10-21 15:51:16.941867,-70
2021-10-21 15:51:16.941878,-55
2021-10-21 15:51:16.941886,-51
2021-10-21 15:51:16.941895,-53
2021-10-21 15:51:16.941903,-53
2021-10-21 15:51:16.941912,-43
2021-10-21 15:51:16.941920,-38
2021-10-21 15:51:16.941928,-53
2021-10-21 15:51:16.941937,-72
2021-10-21 15:51:16.941945,-72
2021-10-21 15:51:16.941953,-65
2021-10-21 15:51:16.941961,-58
2021-10-21 15:51:17.166685,-34
2021-10-21 15:51:17.166706,-7
2021-10-21 15:51:17.166716,-7
2021-10-21 15:51:17.166725,-24
2021-10-21 15:51:17.166733,-36
2021-10-21 15:51:17.166741,-48
2021-10-21 15:51:17.166750,-48
2021-10-21 15:51:17.166758,-36
2021-10-21 15:51:17.166767,-34
2021-10-21 15:51:17.166775,-38
2021-10-21 15:51:17.166784,-38
2021-10-21 15:51:17.166792,-38
2021-10-21 15:51:17.166800,-43
2021-10-21 15:51:17.166809,-41
2021-10-21 15:51:17.166817,-55
2021-10-21 15:51:17.166825,-119
2021-10-21 15:51:17.166834,-160
2021-10-21 15:51:17.166842,21
2021-10-21 15:51:17.166850,579
2021-10-21 15:51:17.166859,1309
2021-10-21 15:51:17.166867,1413
2021-10-21 15:51:17.166875,528
2021-10-21 15:51:17.166884,-199
2021-10-21 15:51:17.166892,-63
2021-10-21 15:51:17.166900,53
2021-10-21 15:51:17.166909,-145
2021-10-21 15:51:17.166917,-155
2021-10-21 15:51:17.166925,-65
2021-10-21 15:51:17.166934,-97
2021-10-21 15:51:17.166942,-111
2021-10-21 15:51:17.391677,-63
2021-10-21 15:51:17.391700,-46
2021-10-21 15:51:17.391710,-53
2021-10-21 15:51:17.391718,-51
2021-10-21 15:51:17.391727,-43
2021-10-21 15:51:17.391735,-31
2021-10-21 15:51:17.391743,-14
2021-10-21 15:51:17.391752,-7
2021-10-21 15:51:17.391760,-12
2021-10-21 15:51:17.391768,-24
2021-10-21 15:51:17.391777,-31
2021-10-21 15:51:17.391785,-17
2021-10-21 15:51:17.391793,-7
2021-10-21 15:51:17.391801,-17
2021-10-21 15:51:17.391809,-34
2021-10-21 15:51:17.391818,-43
2021-10-21 15:51:17.391826,-46
2021-10-21 15:51:17.391834,-41
2021-10-21 15:51:17.391842,-38
2021-10-21 15:51:17.391850,-43
2021-10-21 15:51:17.391858,-53
2021-10-21 15:51:17.391867,-70
2021-10-21 15:51:17.391875,-85
2021-10-21 15:51:17.391883,-92
2021-10-21 15:51:17.391891,-94
2021-10-21 15:51:17.391899,-99
2021-10-21 15:51:17.391907,-104
2021-10-21 15:51:17.391916,-107
2021-10-21 15:51:17.391924,-107
2021-10-21 15:51:17.391932,-97
2021-10-21 15:51:17.706746,-85
2021-10-21 15:51:17.706768,-87
2021-10-21 15:51:17.706778,-109
2021-10-21 15:51:17.706786,-116
2021-10-21 15:51:17.706795,-102
2021-10-21 15:51:17.706804,-92
2021-10-21 15:51:17.706812,-94
2021-10-21 15:51:17.706820,-85
2021-10-21 15:51:17.706829,-77
2021-10-21 15:51:17.706837,-87
2021-10-21 15:51:17.706845,-85
2021-10-21 15:51:17.706854,-72
2021-10-21 15:51:17.706862,-65
2021-10-21 15:51:17.706870,-63
2021-10-21 15:51:17.706878,-65
2021-10-21 15:51:17.706887,-75
2021-10-21 15:51:17.706895,-80
2021-10-21 15:51:17.706904,-70
2021-10-21 15:51:17.706912,-72
2021-10-21 15:51:17.706920,-72
2021-10-21 15:51:17.706928,-51
2021-10-21 15:51:17.706936,-34
2021-10-21 15:51:17.706945,-26
2021-10-21 15:51:17.706953,-14
2021-10-21 15:51:17.706961,-14
2021-10-21 15:51:17.706970,-26
2021-10-21 15:51:17.707007,-46
2021-10-21 15:51:17.707016,-58
2021-10-21 15:51:17.707024,-38
2021-10-21 15:51:17.707032,-19
2021-10-21 15:51:17.976671,-21
2021-10-21 15:51:17.976692,-26
2021-10-21 15:51:17.976701,-21
2021-10-21 15:51:17.976710,-26
2021-10-21 15:51:17.976718,-36
2021-10-21 15:51:17.976727,-70
2021-10-21 15:51:17.976735,-124
2021-10-21 15:51:17.976744,-63
2021-10-21 15:51:17.976752,343
2021-10-21 15:51:17.976760,1104
2021-10-21 15:51:17.976769,1593
2021-10-21 15:51:17.976777,1026
2021-10-21 15:51:17.976785,51
2021-10-21 15:51:17.976794,-141
2021-10-21 15:51:17.976802,36
2021-10-21 15:51:17.976810,-102
2021-10-21 15:51:17.976819,-194
2021-10-21 15:51:17.976827,-109
2021-10-21 15:51:17.976835,-109
2021-10-21 15:51:17.976843,-148
2021-10-21 15:51:17.976852,-126
2021-10-21 15:51:17.976860,-104
2021-10-21 15:51:17.976868,-94
2021-10-21 15:51:17.976876,-77
2021-10-21 15:51:17.976885,-60
2021-10-21 15:51:17.976893,-51
2021-10-21 15:51:17.976901,-51
2021-10-21 15:51:17.976910,-38
2021-10-21 15:51:17.976918,-24
2021-10-21 15:51:17.976926,-19
2021-10-21 15:51:18.156686,-9
2021-10-21 15:51:18.156708,-2
2021-10-21 15:51:18.156718,-7
2021-10-21 15:51:18.156726,-14
2021-10-21 15:51:18.156735,-9
2021-10-21 15:51:18.156743,-9
2021-10-21 15:51:18.156752,-24
2021-10-21 15:51:18.156760,-43
2021-10-21 15:51:18.156768,-58
2021-10-21 15:51:18.156776,-63
2021-10-21 15:51:18.156785,-60
2021-10-21 15:51:18.156793,-60
2021-10-21 15:51:18.156800,-70
2021-10-21 15:51:18.156809,-85
2021-10-21 15:51:18.156817,-94
2021-10-21 15:51:18.156825,-94
2021-10-21 15:51:18.156833,-99
2021-10-21 15:51:18.156841,-104
2021-10-21 15:51:18.156850,-104
2021-10-21 15:51:18.156858,-107
2021-10-21 15:51:18.156865,-119
2021-10-21 15:51:18.156874,-124
2021-10-21 15:51:18.156882,-111
2021-10-21 15:51:18.156890,-97
2021-10-21 15:51:18.156898,-90
2021-10-21 15:51:18.156906,-102
2021-10-21 15:51:18.156915,-107
2021-10-21 15:51:18.156923,-94
2021-10-21 15:51:18.156931,-82
2021-10-21 15:51:18.156939,-77
2021-10-21 15:51:18.380953,-77
2021-10-21 15:51:18.380975,-80
2021-10-21 15:51:18.380984,-70
2021-10-21 15:51:18.380993,-63
2021-10-21 15:51:18.381001,-65
2021-10-21 15:51:18.381010,-60
2021-10-21 15:51:18.381018,-55
2021-10-21 15:51:18.381027,-58
2021-10-21 15:51:18.381035,-53
2021-10-21 15:51:18.381043,-51
2021-10-21 15:51:18.381051,-53
2021-10-21 15:51:18.381060,-36
2021-10-21 15:51:18.381068,-17
2021-10-21 15:51:18.381076,-19
2021-10-21 15:51:18.381084,-29
2021-10-21 15:51:18.381093,-24
2021-10-21 15:51:18.381101,-26
2021-10-21 15:51:18.381109,-34
2021-10-21 15:51:18.381117,-43
2021-10-21 15:51:18.381126,-48
2021-10-21 15:51:18.381134,-46
2021-10-21 15:51:18.381142,-41
2021-10-21 15:51:18.381151,-43
2021-10-21 15:51:18.381159,-48
2021-10-21 15:51:18.381167,-53
2021-10-21 15:51:18.381175,-55
2021-10-21 15:51:18.381184,-94
2021-10-21 15:51:18.381192,-145
2021-10-21 15:51:18.381200,-38
2021-10-21 15:51:18.381208,416
2021-10-21 15:51:18.561742,1097
2021-10-21 15:51:18.561764,1343
2021-10-21 15:51:18.561773,656
2021-10-21 15:51:18.561782,-119
2021-10-21 15:51:18.561791,-111
2021-10-21 15:51:18.561800,46
2021-10-21 15:51:18.561808,-104
2021-10-21 15:51:18.561817,-150
2021-10-21 15:51:18.561825,-70
2021-10-21 15:51:18.561834,-80
2021-10-21 15:51:18.561842,-97
2021-10-21 15:51:18.561850,-68
2021-10-21 15:51:18.561859,-68
2021-10-21 15:51:18.561867,-77
2021-10-21 15:51:18.561876,-72
2021-10-21 15:51:18.561884,-60
2021-10-21 15:51:18.561893,-46
2021-10-21 15:51:18.561901,-34
2021-10-21 15:51:18.561910,-31
2021-10-21 15:51:18.561918,-19
2021-10-21 15:51:18.561927,-7
2021-10-21 15:51:18.561935,-4
2021-10-21 15:51:18.561944,0
2021-10-21 15:51:18.561953,2
2021-10-21 15:51:18.561961,-9
2021-10-21 15:51:18.561969,-9
2021-10-21 15:51:18.561977,0
2021-10-21 15:51:18.561986,-9
2021-10-21 15:51:18.561994,-19
2021-10-21 15:51:18.562002,-17
2021-10-21 15:51:18.831692,-14
2021-10-21 15:51:18.831714,-17
2021-10-21 15:51:18.831724,-24
2021-10-21 15:51:18.831733,-36
2021-10-21 15:51:18.831741,-53
2021-10-21 15:51:18.831750,-70
2021-10-21 15:51:18.831758,-87
2021-10-21 15:51:18.831767,-87
2021-10-21 15:51:18.831775,-85
2021-10-21 15:51:18.831783,-85
2021-10-21 15:51:18.831792,-82
2021-10-21 15:51:18.831800,-92
2021-10-21 15:51:18.831808,-94
2021-10-21 15:51:18.831816,-77
2021-10-21 15:51:18.831825,-77
2021-10-21 15:51:18.831833,-90
2021-10-21 15:51:18.831842,-82
2021-10-21 15:51:18.831850,-72
2021-10-21 15:51:18.831858,-70
2021-10-21 15:51:18.831867,-68
2021-10-21 15:51:18.831875,-65
2021-10-21 15:51:18.831883,-68
2021-10-21 15:51:18.831892,-65
2021-10-21 15:51:18.831900,-60
2021-10-21 15:51:18.831908,-58
2021-10-21 15:51:18.831917,-55
2021-10-21 15:51:18.831925,-63
2021-10-21 15:51:18.831934,-80
2021-10-21 15:51:18.831942,-77
2021-10-21 15:51:18.831950,-65
2021-10-21 15:51:19.011722,-51
2021-10-21 15:51:19.011745,-29
2021-10-21 15:51:19.011754,-19
2021-10-21 15:51:19.011763,-26
2021-10-21 15:51:19.011771,-43
2021-10-21 15:51:19.011779,-58
2021-10-21 15:51:19.011787,-60
2021-10-21 15:51:19.011796,-53
2021-10-21 15:51:19.011804,-48
2021-10-21 15:51:19.011812,-46
2021-10-21 15:51:19.011820,-43
2021-10-21 15:51:19.011828,-43
2021-10-21 15:51:19.011837,-38
2021-10-21 15:51:19.011845,-24
2021-10-21 15:51:19.011853,-31
2021-10-21 15:51:19.011861,-85
2021-10-21 15:51:19.011869,-160
2021-10-21 15:51:19.011878,-99
2021-10-21 15:51:19.011886,299
2021-10-21 15:51:19.011894,961
2021-10-21 15:51:19.011903,1262
2021-10-21 15:51:19.011911,618
2021-10-21 15:51:19.011919,-216
2021-10-21 15:51:19.011927,-211
2021-10-21 15:51:19.011935,41
2021-10-21 15:51:19.011944,-92
2021-10-21 15:51:19.011952,-172
2021-10-21 15:51:19.011960,-92
2021-10-21 15:51:19.011968,-102
2021-10-21 15:51:19.011977,-124
2021-10-21 15:51:19.281083,-80
2021-10-21 15:51:19.281105,-58
2021-10-21 15:51:19.281114,-63
2021-10-21 15:51:19.281123,-53
2021-10-21 15:51:19.281132,-48
2021-10-21 15:51:19.281140,-41
2021-10-21 15:51:19.281148,-26
2021-10-21 15:51:19.281156,-12
2021-10-21 15:51:19.281165,2
2021-10-21 15:51:19.281173,2
2021-10-21 15:51:19.281181,-7
2021-10-21 15:51:19.281190,2
2021-10-21 15:51:19.281198,9
2021-10-21 15:51:19.281206,2
2021-10-21 15:51:19.281214,-2
2021-10-21 15:51:19.281223,-4
2021-10-21 15:51:19.281231,-12
2021-10-21 15:51:19.281239,-12
2021-10-21 15:51:19.281247,-4
2021-10-21 15:51:19.281256,0
2021-10-21 15:51:19.281264,-7
2021-10-21 15:51:19.281272,-29
2021-10-21 15:51:19.281280,-43
2021-10-21 15:51:19.281288,-46
2021-10-21 15:51:19.281296,-58
2021-10-21 15:51:19.281305,-75
2021-10-21 15:51:19.281313,-80
2021-10-21 15:51:19.281321,-82
2021-10-21 15:51:19.281329,-85
2021-10-21 15:51:19.281338,-80
2021-10-21 15:51:19.506722,-80
2021-10-21 15:51:19.506744,-85
2021-10-21 15:51:19.506754,-92
2021-10-21 15:51:19.506763,-104
2021-10-21 15:51:19.506771,-104
2021-10-21 15:51:19.506779,-97
2021-10-21 15:51:19.506788,-97
2021-10-21 15:51:19.506796,-92
2021-10-21 15:51:19.506804,-87
2021-10-21 15:51:19.506813,-92
2021-10-21 15:51:19.506821,-87
2021-10-21 15:51:19.506830,-75
2021-10-21 15:51:19.506838,-72
2021-10-21 15:51:19.506847,-72
2021-10-21 15:51:19.506855,-75
2021-10-21 15:51:19.506863,-82
2021-10-21 15:51:19.506872,-82
2021-10-21 15:51:19.506880,-75
2021-10-21 15:51:19.506888,-75
2021-10-21 15:51:19.506897,-70
2021-10-21 15:51:19.506905,-63
2021-10-21 15:51:19.506913,-53
2021-10-21 15:51:19.506921,-38
2021-10-21 15:51:19.506929,-38
2021-10-21 15:51:19.506937,-60
2021-10-21 15:51:19.506946,-77
2021-10-21 15:51:19.506954,-80
2021-10-21 15:51:19.506962,-82
2021-10-21 15:51:19.506971,-80
2021-10-21 15:51:19.506979,-68
2021-10-21 15:51:19.731851,-63
2021-10-21 15:51:19.731874,-63
2021-10-21 15:51:19.731883,-68
2021-10-21 15:51:19.731892,-70
2021-10-21 15:51:19.731901,-77
2021-10-21 15:51:19.731909,-124
2021-10-21 15:51:19.731918,-184
2021-10-21 15:51:19.731926,-77
2021-10-21 15:51:19.731935,394
2021-10-21 15:51:19.731943,1129
2021-10-21 15:51:19.731952,1413
2021-10-21 15:51:19.731989,649
2021-10-21 15:51:19.731998,-214
2021-10-21 15:51:19.732006,-163
2021-10-21 15:51:19.732015,26
2021-10-21 15:51:19.732023,-165
2021-10-21 15:51:19.732031,-214
2021-10-21 15:51:19.732040,-109
2021-10-21 15:51:19.732048,-124
2021-10-21 15:51:19.732056,-143
2021-10-21 15:51:19.732065,-104
2021-10-21 15:51:19.732073,-94
2021-10-21 15:51:19.732082,-90
2021-10-21 15:51:19.732090,-63
2021-10-21 15:51:19.732098,-51
2021-10-21 15:51:19.732107,-51
2021-10-21 15:51:19.732115,-46
2021-10-21 15:51:19.732123,-36
2021-10-21 15:51:19.732132,-21
2021-10-21 15:51:19.732140,-7
2021-10-21 15:51:20.046109,0
2021-10-21 15:51:20.046131,2
2021-10-21 15:51:20.046141,2
2021-10-21 15:51:20.046149,0
2021-10-21 15:51:20.046158,-12
2021-10-21 15:51:20.046170,-19
2021-10-21 15:51:20.046178,-19
2021-10-21 15:51:20.046187,-29
2021-10-21 15:51:20.046195,-46
2021-10-21 15:51:20.046203,-41
2021-10-21 15:51:20.046212,-41
2021-10-21 15:51:20.046220,-63
2021-10-21 15:51:20.046228,-82
2021-10-21 15:51:20.046237,-90
2021-10-21 15:51:20.046245,-102
2021-10-21 15:51:20.046253,-111
2021-10-21 15:51:20.046262,-107
2021-10-21 15:51:20.046270,-99
2021-10-21 15:51:20.046278,-99
2021-10-21 15:51:20.046286,-97
2021-10-21 15:51:20.046295,-87
2021-10-21 15:51:20.046303,-87
2021-10-21 15:51:20.046311,-87
2021-10-21 15:51:20.046319,-85
2021-10-21 15:51:20.046327,-82
2021-10-21 15:51:20.046336,-85
2021-10-21 15:51:20.046344,-87
2021-10-21 15:51:20.046352,-80
2021-10-21 15:51:20.046360,-72
2021-10-21 15:51:20.046369,-68
2021-10-21 15:51:20.181739,-82
2021-10-21 15:51:20.181761,-104
2021-10-21 15:51:20.181771,-99
2021-10-21 15:51:20.181780,-85
2021-10-21 15:51:20.181788,-87
2021-10-21 15:51:20.181796,-87
2021-10-21 15:51:20.181805,-90
2021-10-21 15:51:20.181813,-94
2021-10-21 15:51:20.181821,-90
2021-10-21 15:51:20.181830,-77
2021-10-21 15:51:20.181838,-60
2021-10-21 15:51:20.181846,-41
2021-10-21 15:51:20.181855,-43
2021-10-21 15:51:20.181863,-55
2021-10-21 15:51:20.181871,-58
2021-10-21 15:51:20.181879,-58
2021-10-21 15:51:20.181887,-60
2021-10-21 15:51:20.181896,-53
2021-10-21 15:51:20.181904,-51
2021-10-21 15:51:20.181912,-63
2021-10-21 15:51:20.181920,-60
2021-10-21 15:51:20.181928,-46
2021-10-21 15:51:20.181936,-41
2021-10-21 15:51:20.181944,-41
2021-10-21 15:51:20.181983,-53
2021-10-21 15:51:20.181991,-109
2021-10-21 15:51:20.181999,-167
2021-10-21 15:51:20.182008,-43
2021-10-21 15:51:20.182016,455
2021-10-21 15:51:20.182024,1206
2021-10-21 15:51:20.495370,1455
2021-10-21 15:51:20.495393,647
2021-10-21 15:51:20.495403,-199
2021-10-21 15:51:20.495412,-116
2021-10-21 15:51:20.495421,75
2021-10-21 15:51:20.495429,-124
2021-10-21 15:51:20.495437,-180
2021-10-21 15:51:20.495446,-85
2021-10-21 15:51:20.495454,-109
2021-10-21 15:51:20.495462,-138
2021-10-21 15:51:20.495471,-92
2021-10-21 15:51:20.495479,-80
2021-10-21 15:51:20.495488,-97
2021-10-21 15:51:20.495496,-75
2021-10-21 15:51:20.495504,-48
2021-10-21 15:51:20.495513,-48
2021-10-21 15:51:20.495521,-43
2021-10-21 15:51:20.495529,-26
2021-10-21 15:51:20.495538,-19
2021-10-21 15:51:20.495546,-9
2021-10-21 15:51:20.495554,2
2021-10-21 15:51:20.495563,2
2021-10-21 15:51:20.495571,2
2021-10-21 15:51:20.495579,7
2021-10-21 15:51:20.495587,7
2021-10-21 15:51:20.495595,7
2021-10-21 15:51:20.495604,2
2021-10-21 15:51:20.495612,-2
2021-10-21 15:51:20.495620,-7
2021-10-21 15:51:20.495629,-9
2021-10-21 15:51:20.631699,-14
2021-10-21 15:51:20.631722,-24
2021-10-21 15:51:20.631731,-36
2021-10-21 15:51:20.631740,-43
2021-10-21 15:51:20.631748,-48
2021-10-21 15:51:20.631757,-60
2021-10-21 15:51:20.631765,-82
2021-10-21 15:51:20.631773,-85
2021-10-21 15:51:20.631781,-72
2021-10-21 15:51:20.631790,-70
2021-10-21 15:51:20.631798,-77
2021-10-21 15:51:20.631806,-92
2021-10-21 15:51:20.631814,-94
2021-10-21 15:51:20.631822,-87
2021-10-21 15:51:20.631831,-85
2021-10-21 15:51:20.631839,-92
2021-10-21 15:51:20.631847,-97
2021-10-21 15:51:20.631855,-99
2021-10-21 15:51:20.631864,-99
2021-10-21 15:51:20.631872,-85
2021-10-21 15:51:20.631880,-80
2021-10-21 15:51:20.631888,-80
2021-10-21 15:51:20.631897,-77
2021-10-21 15:51:20.631905,-75
2021-10-21 15:51:20.631913,-70
2021-10-21 15:51:20.631922,-63
2021-10-21 15:51:20.631930,-63
2021-10-21 15:51:20.631938,-63
2021-10-21 15:51:20.631946,-63
2021-10-21 15:51:20.631954,-65
2021-10-21 15:51:20.856770,-58
2021-10-21 15:51:20.856791,-48
2021-10-21 15:51:20.856800,-38
2021-10-21 15:51:20.856809,-29
2021-10-21 15:51:20.856817,-29
2021-10-21 15:51:20.856825,-36
2021-10-21 15:51:20.856834,-29
2021-10-21 15:51:20.856842,-24
2021-10-21 15:51:20.856850,-38
2021-10-21 15:51:20.856859,-48
2021-10-21 15:51:20.856867,-48
2021-10-21 15:51:20.856875,-55
2021-10-21 15:51:20.856883,-60
2021-10-21 15:51:20.856892,-58
2021-10-21 15:51:20.856900,-53
2021-10-21 15:51:20.856908,-51
2021-10-21 15:51:20.856917,-55
2021-10-21 15:51:20.856925,-87
2021-10-21 15:51:20.856933,-148
2021-10-21 15:51:20.856941,-141
2021-10-21 15:51:20.856950,145
2021-10-21 15:51:20.856958,820
2021-10-21 15:51:20.856966,1442
2021-10-21 15:51:20.856974,1119
2021-10-21 15:51:20.856983,99
2021-10-21 15:51:20.856991,-243
2021-10-21 15:51:20.857029,34
2021-10-21 15:51:20.857038,-24
2021-10-21 15:51:20.857046,-197
2021-10-21 15:51:20.857054,-121
2021-10-21 15:51:21.081830,-72
2021-10-21 15:51:21.081851,-111
2021-10-21 15:51:21.081859,-90
2021-10-21 15:51:21.081865,-63
2021-10-21 15:51:21.081872,-75
2021-10-21 15:51:21.081878,-70
2021-10-21 15:51:21.081885,-48
2021-10-21 15:51:21.081891,-38
2021-10-21 15:51:21.081898,-34
2021-10-21 15:51:21.081904,-36
2021-10-21 15:51:21.081910,-46
2021-10-21 15:51:21.081917,-51
2021-10-21 15:51:21.081923,-43
2021-10-21 15:51:21.081929,-36
2021-10-21 15:51:21.081936,-38
2021-10-21 15:51:21.081942,-48
2021-10-21 15:51:21.081948,-51
2021-10-21 15:51:21.081955,-43
2021-10-21 15:51:21.081962,-41
2021-10-21 15:51:21.081968,-48
2021-10-21 15:51:21.081974,-53
2021-10-21 15:51:21.081981,-58
2021-10-21 15:51:21.081987,-58
2021-10-21 15:51:21.081994,-53
2021-10-21 15:51:21.082000,-51
2021-10-21 15:51:21.082007,-55
2021-10-21 15:51:21.082013,-60
2021-10-21 15:51:21.082019,-72
2021-10-21 15:51:21.082025,-82
2021-10-21 15:51:21.082031,-80
2021-10-21 15:51:21.351741,-70
2021-10-21 15:51:21.351763,-63
2021-10-21 15:51:21.351773,-70
2021-10-21 15:51:21.351782,-92
2021-10-21 15:51:21.351791,-92
2021-10-21 15:51:21.351799,-80
2021-10-21 15:51:21.351807,-75
2021-10-21 15:51:21.351816,-72
2021-10-21 15:51:21.351824,-75
2021-10-21 15:51:21.351832,-85
2021-10-21 15:51:21.351841,-85
2021-10-21 15:51:21.351849,-72
2021-10-21 15:51:21.351858,-68
2021-10-21 15:51:21.351866,-63
2021-10-21 15:51:21.351874,-58
2021-10-21 15:51:21.351882,-65
2021-10-21 15:51:21.351891,-70
2021-10-21 15:51:21.351899,-68
2021-10-21 15:51:21.351907,-60
2021-10-21 15:51:21.351916,-55
2021-10-21 15:51:21.351924,-60
2021-10-21 15:51:21.351933,-63
2021-10-21 15:51:21.351941,-53
2021-10-21 15:51:21.351949,-46
2021-10-21 15:51:21.351957,-43
2021-10-21 15:51:21.351965,-41
2021-10-21 15:51:21.351974,-43
2021-10-21 15:51:21.351982,-43
2021-10-21 15:51:21.351990,-26
2021-10-21 15:51:21.351999,-2
2021-10-21 15:51:21.576721,9
2021-10-21 15:51:21.576742,9
2021-10-21 15:51:21.576752,2
2021-10-21 15:51:21.576761,-7
2021-10-21 15:51:21.576769,-12
2021-10-21 15:51:21.576778,-12
2021-10-21 15:51:21.576786,-9
2021-10-21 15:51:21.576794,-9
2021-10-21 15:51:21.576802,-21
2021-10-21 15:51:21.576810,-29
2021-10-21 15:51:21.576819,-19
2021-10-21 15:51:21.576827,-9
2021-10-21 15:51:21.576835,-12
2021-10-21 15:51:21.576844,-43
2021-10-21 15:51:21.576852,-116
2021-10-21 15:51:21.576860,-128
2021-10-21 15:51:21.576869,133
2021-10-21 15:51:21.576877,764
2021-10-21 15:51:21.576885,1350
2021-10-21 15:51:21.576894,1039
2021-10-21 15:51:21.576902,58
2021-10-21 15:51:21.576910,-267
2021-10-21 15:51:21.576918,9
2021-10-21 15:51:21.576927,-34
2021-10-21 15:51:21.576935,-187
2021-10-21 15:51:21.576943,-114
2021-10-21 15:51:21.576951,-90
2021-10-21 15:51:21.576960,-133
2021-10-21 15:51:21.576968,-97
2021-10-21 15:51:21.576976,-58
2021-10-21 15:51:21.801727,-63
2021-10-21 15:51:21.801749,-53
2021-10-21 15:51:21.801759,-36
2021-10-21 15:51:21.801767,-38
2021-10-21 15:51:21.801776,-29
2021-10-21 15:51:21.801785,-17
2021-10-21 15:51:21.801793,-9
2021-10-21 15:51:21.801801,-12
2021-10-21 15:51:21.801810,-21
2021-10-21 15:51:21.801818,-19
2021-10-21 15:51:21.801827,-7
2021-10-21 15:51:21.801835,-9
2021-10-21 15:51:21.801843,-24
2021-10-21 15:51:21.801852,-41
2021-10-21 15:51:21.801860,-53
2021-10-21 15:51:21.801869,-55
2021-10-21 15:51:21.801877,-51
2021-10-21 15:51:21.801885,-43
2021-10-21 15:51:21.801894,-34
2021-10-21 15:51:21.801902,-29
2021-10-21 15:51:21.801911,-38
2021-10-21 15:51:21.801919,-55
2021-10-21 15:51:21.801928,-60
2021-10-21 15:51:21.801936,-70
2021-10-21 15:51:21.801944,-90
2021-10-21 15:51:21.801953,-97
2021-10-21 15:51:21.801961,-97
2021-10-21 15:51:21.801969,-102
2021-10-21 15:51:21.801978,-94
2021-10-21 15:51:21.801986,-82
2021-10-21 15:51:22.071695,-75
2021-10-21 15:51:22.071716,-72
2021-10-21 15:51:22.071726,-72
2021-10-21 15:51:22.071735,-72
2021-10-21 15:51:22.071743,-68
2021-10-21 15:51:22.071752,-55
2021-10-21 15:51:22.071760,-55
2021-10-21 15:51:22.071768,-70
2021-10-21 15:51:22.071777,-65
2021-10-21 15:51:22.071785,-48
2021-10-21 15:51:22.071793,-51
2021-10-21 15:51:22.071802,-48
2021-10-21 15:51:22.071810,-51
2021-10-21 15:51:22.071818,-60
2021-10-21 15:51:22.071827,-53
2021-10-21 15:51:22.071835,-41
2021-10-21 15:51:22.071843,-41
2021-10-21 15:51:22.071852,-41
2021-10-21 15:51:22.071860,-36
2021-10-21 15:51:22.071868,-34
2021-10-21 15:51:22.071876,-36
2021-10-21 15:51:22.071885,-48
2021-10-21 15:51:22.071893,-72
2021-10-21 15:51:22.071901,-82
2021-10-21 15:51:22.071909,-68
2021-10-21 15:51:22.071918,-43
2021-10-21 15:51:22.071926,-29
2021-10-21 15:51:22.071934,-19
2021-10-21 15:51:22.071942,-17
2021-10-21 15:51:22.071951,-17
2021-10-21 15:51:22.251781,-26
2021-10-21 15:51:22.251804,-34
2021-10-21 15:51:22.251813,-31
2021-10-21 15:51:22.251822,-29
2021-10-21 15:51:22.251830,-24
2021-10-21 15:51:22.251839,-21
2021-10-21 15:51:22.251847,-31
2021-10-21 15:51:22.251855,-36
2021-10-21 15:51:22.251864,-26
2021-10-21 15:51:22.251872,-26
2021-10-21 15:51:22.251880,-65
2021-10-21 15:51:22.251888,-121
2021-10-21 15:51:22.251897,-58
2021-10-21 15:51:22.251905,306
2021-10-21 15:51:22.251913,946
2021-10-21 15:51:22.251922,1309
2021-10-21 15:51:22.251930,737
2021-10-21 15:51:22.251938,-116
2021-10-21 15:51:22.251947,-167
2021-10-21 15:51:22.251955,72
2021-10-21 15:51:22.251963,-58
2021-10-21 15:51:22.251972,-148
2021-10-21 15:51:22.251980,-60
2021-10-21 15:51:22.251988,-58
2021-10-21 15:51:22.251996,-97
2021-10-21 15:51:22.252005,-68
2021-10-21 15:51:22.252013,-38
2021-10-21 15:51:22.252021,-38
2021-10-21 15:51:22.252060,-34
2021-10-21 15:51:22.252068,-24
2021-10-21 15:51:22.520371,-19
2021-10-21 15:51:22.520392,-17
2021-10-21 15:51:22.520402,-17
2021-10-21 15:51:22.520411,-14
2021-10-21 15:51:22.520419,-7
2021-10-21 15:51:22.520427,-14
2021-10-21 15:51:22.520436,-26
2021-10-21 15:51:22.520444,-21
2021-10-21 15:51:22.520452,-9
2021-10-21 15:51:22.520461,-12
2021-10-21 15:51:22.520469,-24
2021-10-21 15:51:22.520477,-36
2021-10-21 15:51:22.520486,-46
2021-10-21 15:51:22.520494,-43
2021-10-21 15:51:22.520502,-34
2021-10-21 15:51:22.520510,-36
2021-10-21 15:51:22.520519,-41
2021-10-21 15:51:22.520527,-48
2021-10-21 15:51:22.520535,-58
2021-10-21 15:51:22.520544,-65
2021-10-21 15:51:22.520552,-75
2021-10-21 15:51:22.520560,-87
2021-10-21 15:51:22.520568,-90
2021-10-21 15:51:22.520577,-85
2021-10-21 15:51:22.520585,-80
2021-10-21 15:51:22.520594,-75
2021-10-21 15:51:22.520602,-80
2021-10-21 15:51:22.520610,-92
2021-10-21 15:51:22.520618,-92
2021-10-21 15:51:22.520626,-80
2021-10-21 15:51:22.701790,-70
2021-10-21 15:51:22.701811,-68
2021-10-21 15:51:22.701821,-63
2021-10-21 15:51:22.701830,-63
2021-10-21 15:51:22.701838,-63
2021-10-21 15:51:22.701846,-65
2021-10-21 15:51:22.701855,-65
2021-10-21 15:51:22.701863,-58
2021-10-21 15:51:22.701871,-48
2021-10-21 15:51:22.701880,-51
2021-10-21 15:51:22.701888,-60
2021-10-21 15:51:22.701896,-63
2021-10-21 15:51:22.701904,-51
2021-10-21 15:51:22.701912,-46
2021-10-21 15:51:22.701921,-48
2021-10-21 15:51:22.701929,-46
2021-10-21 15:51:22.701937,-43
2021-10-21 15:51:22.701946,-43
2021-10-21 15:51:22.701954,-38
2021-10-21 15:51:22.701962,-31
2021-10-21 15:51:22.701970,-24
2021-10-21 15:51:22.701979,-12
2021-10-21 15:51:22.701987,2
2021-10-21 15:51:22.701995,7
2021-10-21 15:51:22.702004,12
2021-10-21 15:51:22.702042,7
2021-10-21 15:51:22.702050,-4
2021-10-21 15:51:22.702058,-14
2021-10-21 15:51:22.702066,-14
2021-10-21 15:51:22.702075,-17
2021-10-21 15:51:22.926729,-14
2021-10-21 15:51:22.926751,-7
2021-10-21 15:51:22.926761,-7
2021-10-21 15:51:22.926769,-17
2021-10-21 15:51:22.926778,-26
2021-10-21 15:51:22.926786,-46
2021-10-21 15:51:22.926794,-92
2021-10-21 15:51:22.926803,-82
2021-10-21 15:51:22.926811,160
2021-10-21 15:51:22.926820,712
2021-10-21 15:51:22.926828,1216
2021-10-21 15:51:22.926836,944
2021-10-21 15:51:22.926845,68
2021-10-21 15:51:22.926853,-231
2021-10-21 15:51:22.926861,31
2021-10-21 15:51:22.926869,4
2021-10-21 15:51:22.926878,-145
2021-10-21 15:51:22.926886,-85
2021-10-21 15:51:22.926895,-43
2021-10-21 15:51:22.926903,-80
2021-10-21 15:51:22.926911,-65
2021-10-21 15:51:22.926919,-46
2021-10-21 15:51:22.926928,-55
2021-10-21 15:51:22.926936,-43
2021-10-21 15:51:22.926944,-24
2021-10-21 15:51:22.926953,-19
2021-10-21 15:51:22.926961,-17
2021-10-21 15:51:22.926969,-14
2021-10-21 15:51:22.926978,-9
2021-10-21 15:51:22.926986,-2
2021-10-21 15:51:23.197262,2
2021-10-21 15:51:23.197285,-14
2021-10-21 15:51:23.197295,-46
2021-10-21 15:51:23.197303,-77
2021-10-21 15:51:23.197312,-85
2021-10-21 15:51:23.197320,-77
2021-10-21 15:51:23.197329,-77
2021-10-21 15:51:23.197337,-72
2021-10-21 15:51:23.197395,-68
2021-10-21 15:51:23.197405,-68
2021-10-21 15:51:23.197413,-60
2021-10-21 15:51:23.197422,-51
2021-10-21 15:51:23.197430,-58
2021-10-21 15:51:23.197439,-68
2021-10-21 15:51:23.197447,-82
2021-10-21 15:51:23.197455,-102
2021-10-21 15:51:23.197463,-109
2021-10-21 15:51:23.197472,-99
2021-10-21 15:51:23.197480,-97
2021-10-21 15:51:23.197488,-90
2021-10-21 15:51:23.197497,-87
2021-10-21 15:51:23.197505,-87
2021-10-21 15:51:23.197513,-82
2021-10-21 15:51:23.197522,-68
2021-10-21 15:51:23.197530,-58
2021-10-21 15:51:23.197538,-53
2021-10-21 15:51:23.197546,-53
2021-10-21 15:51:23.197554,-51
2021-10-21 15:51:23.197563,-46
2021-10-21 15:51:23.197571,-38
2021-10-21 15:51:23.466754,-29
2021-10-21 15:51:23.466776,-24
2021-10-21 15:51:23.466786,-29
2021-10-21 15:51:23.466795,-41
2021-10-21 15:51:23.466803,-38
2021-10-21 15:51:23.466812,-26
2021-10-21 15:51:23.466820,-24
2021-10-21 15:51:23.466829,-24
2021-10-21 15:51:23.466837,-31
2021-10-21 15:51:23.466845,-38
2021-10-21 15:51:23.466853,-36
2021-10-21 15:51:23.466862,-29
2021-10-21 15:51:23.466870,-29
2021-10-21 15:51:23.466878,-26
2021-10-21 15:51:23.466887,-38
2021-10-21 15:51:23.466895,-43
2021-10-21 15:51:23.466903,-24
2021-10-21 15:51:23.466911,2
2021-10-21 15:51:23.466919,12
2021-10-21 15:51:23.466927,12
2021-10-21 15:51:23.466936,7
2021-10-21 15:51:23.466944,0
2021-10-21 15:51:23.466952,-7
2021-10-21 15:51:23.466960,-9
2021-10-21 15:51:23.466968,-2
2021-10-21 15:51:23.466976,-2
2021-10-21 15:51:23.466985,-7
2021-10-21 15:51:23.466993,-7
2021-10-21 15:51:23.467001,0
2021-10-21 15:51:23.467010,4
2021-10-21 15:51:23.691787,0
2021-10-21 15:51:23.691808,-31
2021-10-21 15:51:23.691818,-85
2021-10-21 15:51:23.691827,-24
2021-10-21 15:51:23.691835,328
2021-10-21 15:51:23.691844,922
2021-10-21 15:51:23.691852,1231
2021-10-21 15:51:23.691861,654
2021-10-21 15:51:23.691869,-158
2021-10-21 15:51:23.691877,-167
2021-10-21 15:51:23.691886,72
2021-10-21 15:51:23.691894,-70
2021-10-21 15:51:23.691902,-160
2021-10-21 15:51:23.691911,-80
2021-10-21 15:51:23.691919,-92
2021-10-21 15:51:23.691927,-124
2021-10-21 15:51:23.691936,-85
2021-10-21 15:51:23.691944,-60
2021-10-21 15:51:23.691952,-65
2021-10-21 15:51:23.691961,-63
2021-10-21 15:51:23.691969,-58
2021-10-21 15:51:23.691978,-53
2021-10-21 15:51:23.691986,-46
2021-10-21 15:51:23.691994,-43
2021-10-21 15:51:23.692003,-41
2021-10-21 15:51:23.692011,-43
2021-10-21 15:51:23.692019,-48
2021-10-21 15:51:23.692028,-46
2021-10-21 15:51:23.692036,-41
2021-10-21 15:51:23.692074,-36
2021-10-21 15:51:23.916738,-36
2021-10-21 15:51:23.916759,-41
2021-10-21 15:51:23.916769,-36
2021-10-21 15:51:23.916777,-26
2021-10-21 15:51:23.916785,-17
2021-10-21 15:51:23.916794,-4
2021-10-21 15:51:23.916802,2
2021-10-21 15:51:23.916811,-9
2021-10-21 15:51:23.916819,-29
2021-10-21 15:51:23.916827,-43
2021-10-21 15:51:23.916835,-53
2021-10-21 15:51:23.916844,-63
2021-10-21 15:51:23.916852,-80
2021-10-21 15:51:23.916860,-92
2021-10-21 15:51:23.916868,-90
2021-10-21 15:51:23.916877,-80
2021-10-21 15:51:23.916885,-72
2021-10-21 15:51:23.916893,-68
2021-10-21 15:51:23.916902,-70
2021-10-21 15:51:23.916910,-77
2021-10-21 15:51:23.916918,-68
2021-10-21 15:51:23.916926,-60
2021-10-21 15:51:23.916934,-58
2021-10-21 15:51:23.916943,-53
2021-10-21 15:51:23.916951,-48
2021-10-21 15:51:23.916959,-46
2021-10-21 15:51:23.916967,-41
2021-10-21 15:51:23.916975,-36
2021-10-21 15:51:23.916984,-31
2021-10-21 15:51:23.916992,-26
2021-10-21 15:51:24.141769,-26
2021-10-21 15:51:24.141791,-26
2021-10-21 15:51:24.141800,-26
2021-10-21 15:51:24.141809,-26
2021-10-21 15:51:24.141817,-19
2021-10-21 15:51:24.141825,-17
2021-10-21 15:51:24.141834,-31
2021-10-21 15:51:24.141842,-41
2021-10-21 15:51:24.141850,-38
2021-10-21 15:51:24.141858,-41
2021-10-21 15:51:24.141866,-36
2021-10-21 15:51:24.141874,-12
2021-10-21 15:51:24.141882,-7
2021-10-21 15:51:24.141890,-29
2021-10-21 15:51:24.141899,-41
2021-10-21 15:51:24.141907,-41
2021-10-21 15:51:24.141915,-46
2021-10-21 15:51:24.141923,-55
2021-10-21 15:51:24.141931,-60
2021-10-21 15:51:24.141939,-53
2021-10-21 15:51:24.141948,-43
2021-10-21 15:51:24.141956,-43
2021-10-21 15:51:24.141964,-43
2021-10-21 15:51:24.141972,-36
2021-10-21 15:51:24.141980,-46
2021-10-21 15:51:24.141988,-82
2021-10-21 15:51:24.141996,-116
2021-10-21 15:51:24.142005,-2
2021-10-21 15:51:24.142013,401
2021-10-21 15:51:24.142021,973
2021-10-21 15:51:24.321757,1124
2021-10-21 15:51:24.321779,464
2021-10-21 15:51:24.321788,-182
2021-10-21 15:51:24.321797,-92
2021-10-21 15:51:24.321806,55
2021-10-21 15:51:24.321814,-104
2021-10-21 15:51:24.321822,-145
2021-10-21 15:51:24.321830,-70
2021-10-21 15:51:24.321839,-85
2021-10-21 15:51:24.321847,-102
2021-10-21 15:51:24.321855,-68
2021-10-21 15:51:24.321863,-58
2021-10-21 15:51:24.321872,-63
2021-10-21 15:51:24.321880,-41
2021-10-21 15:51:24.321888,-29
2021-10-21 15:51:24.321896,-36
2021-10-21 15:51:24.321905,-34
2021-10-21 15:51:24.321913,-34
2021-10-21 15:51:24.321921,-41
2021-10-21 15:51:24.321929,-29
2021-10-21 15:51:24.321937,-19
2021-10-21 15:51:24.321946,-24
2021-10-21 15:51:24.321954,-26
2021-10-21 15:51:24.321962,-24
2021-10-21 15:51:24.321970,-21
2021-10-21 15:51:24.321978,-14
2021-10-21 15:51:24.321986,-7
2021-10-21 15:51:24.321995,-2
2021-10-21 15:51:24.322003,7
2021-10-21 15:51:24.322011,14
2021-10-21 15:51:24.590405,14
2021-10-21 15:51:24.590428,7
2021-10-21 15:51:24.590437,-12
2021-10-21 15:51:24.590446,-36
2021-10-21 15:51:24.590455,-63
2021-10-21 15:51:24.590464,-87
2021-10-21 15:51:24.590472,-92
2021-10-21 15:51:24.590481,-82
2021-10-21 15:51:24.590489,-80
2021-10-21 15:51:24.590497,-82
2021-10-21 15:51:24.590506,-85
2021-10-21 15:51:24.590514,-87
2021-10-21 15:51:24.590522,-82
2021-10-21 15:51:24.590530,-82
2021-10-21 15:51:24.590539,-85
2021-10-21 15:51:24.590547,-75
2021-10-21 15:51:24.590555,-70
2021-10-21 15:51:24.590563,-68
2021-10-21 15:51:24.590571,-58
2021-10-21 15:51:24.590580,-65
2021-10-21 15:51:24.590588,-80
2021-10-21 15:51:24.590597,-75
2021-10-21 15:51:24.590605,-63
2021-10-21 15:51:24.590613,-63
2021-10-21 15:51:24.590621,-55
2021-10-21 15:51:24.590629,-43
2021-10-21 15:51:24.590638,-41
2021-10-21 15:51:24.590646,-41
2021-10-21 15:51:24.590654,-43
2021-10-21 15:51:24.590662,-41
2021-10-21 15:51:24.816796,-31
2021-10-21 15:51:24.816819,-17
2021-10-21 15:51:24.816828,0
2021-10-21 15:51:24.816837,12
2021-10-21 15:51:24.816845,7
2021-10-21 15:51:24.816854,2
2021-10-21 15:51:24.816862,2
2021-10-21 15:51:24.816871,-4
2021-10-21 15:51:24.816879,-14
2021-10-21 15:51:24.816887,-19
2021-10-21 15:51:24.816896,-29
2021-10-21 15:51:24.816904,-29
2021-10-21 15:51:24.816912,-14
2021-10-21 15:51:24.816920,-9
2021-10-21 15:51:24.816929,-12
2021-10-21 15:51:24.816937,-19
2021-10-21 15:51:24.816945,-48
2021-10-21 15:51:24.816954,-99
2021-10-21 15:51:24.816962,-90
2021-10-21 15:51:24.816970,150
2021-10-21 15:51:24.816978,688
2021-10-21 15:51:24.816987,1182
2021-10-21 15:51:24.816995,956
2021-10-21 15:51:24.817003,143
2021-10-21 15:51:24.817012,-177
2021-10-21 15:51:24.817020,41
2021-10-21 15:51:24.817029,26
2021-10-21 15:51:24.817037,-116
2021-10-21 15:51:24.817045,-75
2021-10-21 15:51:24.817054,-38
2021-10-21 15:51:25.041765,-80
2021-10-21 15:51:25.041788,-68
2021-10-21 15:51:25.041797,-34
2021-10-21 15:51:25.041806,-43
2021-10-21 15:51:25.041815,-41
2021-10-21 15:51:25.041824,-17
2021-10-21 15:51:25.041832,-4
2021-10-21 15:51:25.041841,2
2021-10-21 15:51:25.041849,7
2021-10-21 15:51:25.041858,-2
2021-10-21 15:51:25.041866,-7
2021-10-21 15:51:25.041874,0
2021-10-21 15:51:25.041883,2
2021-10-21 15:51:25.041891,-2
2021-10-21 15:51:25.041899,-17
2021-10-21 15:51:25.041908,-31
2021-10-21 15:51:25.041916,-31
2021-10-21 15:51:25.041924,-34
2021-10-21 15:51:25.041933,-34
2021-10-21 15:51:25.041941,-19
2021-10-21 15:51:25.041950,-12
2021-10-21 15:51:25.041958,-17
2021-10-21 15:51:25.041966,-24
2021-10-21 15:51:25.041975,-34
2021-10-21 15:51:25.041983,-55
2021-10-21 15:51:25.041992,-85
2021-10-21 15:51:25.042000,-121
2021-10-21 15:51:25.042008,-138
2021-10-21 15:51:25.042017,-131
2021-10-21 15:51:25.042025,-121
2021-10-21 15:51:25.266799,-116
2021-10-21 15:51:25.266821,-107
2021-10-21 15:51:25.266831,-104
2021-10-21 15:51:25.266839,-109
2021-10-21 15:51:25.266848,-99
2021-10-21 15:51:25.266856,-82
2021-10-21 15:51:25.266864,-77
2021-10-21 15:51:25.266873,-75
2021-10-21 15:51:25.266881,-80
2021-10-21 15:51:25.266889,-87
2021-10-21 15:51:25.266897,-77
2021-10-21 15:51:25.266906,-63
2021-10-21 15:51:25.266914,-60
2021-10-21 15:51:25.266923,-58
2021-10-21 15:51:25.266931,-65
2021-10-21 15:51:25.266939,-77
2021-10-21 15:51:25.266948,-70
2021-10-21 15:51:25.266956,-60
2021-10-21 15:51:25.266964,-58
2021-10-21 15:51:25.266972,-60
2021-10-21 15:51:25.266981,-55
2021-10-21 15:51:25.266989,-38
2021-10-21 15:51:25.266997,-21
2021-10-21 15:51:25.267006,-21
2021-10-21 15:51:25.267014,-29
2021-10-21 15:51:25.267023,-38
2021-10-21 15:51:25.267031,-48
2021-10-21 15:51:25.267039,-51
2021-10-21 15:51:25.267048,-43
2021-10-21 15:51:25.267056,-36
2021-10-21 15:51:25.491799,-31
2021-10-21 15:51:25.491821,-31
2021-10-21 15:51:25.491830,-31
2021-10-21 15:51:25.491839,-31
2021-10-21 15:51:25.491847,-46
2021-10-21 15:51:25.491855,-104
2021-10-21 15:51:25.491864,-136
2021-10-21 15:51:25.491872,43
2021-10-21 15:51:25.491880,552
2021-10-21 15:51:25.491888,1131
2021-10-21 15:51:25.491897,1080
2021-10-21 15:51:25.491905,289
2021-10-21 15:51:25.491914,-182
2021-10-21 15:51:25.491922,-14
2021-10-21 15:51:25.491930,17
2021-10-21 15:51:25.491938,-136
2021-10-21 15:51:25.491947,-111
2021-10-21 15:51:25.491955,-58
2021-10-21 15:51:25.491963,-90
2021-10-21 15:51:25.491971,-82
2021-10-21 15:51:25.491980,-53
2021-10-21 15:51:25.491988,-60
2021-10-21 15:51:25.491996,-60
2021-10-21 15:51:25.492004,-34
2021-10-21 15:51:25.492012,-19
2021-10-21 15:51:25.492021,-21
2021-10-21 15:51:25.492029,-19
2021-10-21 15:51:25.492037,-17
2021-10-21 15:51:25.492045,-7
2021-10-21 15:51:25.492054,4
2021-10-21 15:51:25.716864,4
2021-10-21 15:51:25.716902,-9
2021-10-21 15:51:25.716912,-17
2021-10-21 15:51:25.716921,-12
2021-10-21 15:51:25.716929,-7
2021-10-21 15:51:25.716938,-7
2021-10-21 15:51:25.716947,-14
2021-10-21 15:51:25.716955,-26
2021-10-21 15:51:25.716963,-31
2021-10-21 15:51:25.716972,-24
2021-10-21 15:51:25.716980,-34
2021-10-21 15:51:25.716988,-58
2021-10-21 15:51:25.716997,-82
2021-10-21 15:51:25.717005,-102
2021-10-21 15:51:25.717013,-119
2021-10-21 15:51:25.717022,-128
2021-10-21 15:51:25.717030,-131
2021-10-21 15:51:25.717045,-124
2021-10-21 15:51:25.717084,-121
2021-10-21 15:51:25.717092,-116
2021-10-21 15:51:25.717100,-102
2021-10-21 15:51:25.717108,-94
2021-10-21 15:51:25.717117,-92
2021-10-21 15:51:25.717125,-92
2021-10-21 15:51:25.717133,-99
2021-10-21 15:51:25.717142,-94
2021-10-21 15:51:25.717150,-85
2021-10-21 15:51:25.717158,-80
2021-10-21 15:51:25.717166,-70
2021-10-21 15:51:25.717175,-58
2021-10-21 15:51:25.941789,-60
2021-10-21 15:51:25.941811,-63
2021-10-21 15:51:25.941820,-55
2021-10-21 15:51:25.941829,-53
2021-10-21 15:51:25.941837,-51
2021-10-21 15:51:25.941846,-43
2021-10-21 15:51:25.941854,-51
2021-10-21 15:51:25.941863,-41
2021-10-21 15:51:25.941871,-17
2021-10-21 15:51:25.941879,-17
2021-10-21 15:51:25.941888,-26
2021-10-21 15:51:25.941896,-26
2021-10-21 15:51:25.941904,-38
2021-10-21 15:51:25.941913,-53
2021-10-21 15:51:25.941921,-53
2021-10-21 15:51:25.941929,-51
2021-10-21 15:51:25.941937,-38
2021-10-21 15:51:25.941945,-26
2021-10-21 15:51:25.941954,-34
2021-10-21 15:51:25.941962,-31
2021-10-21 15:51:25.941970,-26
2021-10-21 15:51:25.941978,-53
2021-10-21 15:51:25.941987,-124
2021-10-21 15:51:25.941995,-121
2021-10-21 15:51:25.942004,153
2021-10-21 15:51:25.942012,756
2021-10-21 15:51:25.942020,1226
2021-10-21 15:51:25.942028,846
2021-10-21 15:51:25.942037,-14
2021-10-21 15:51:25.942045,-226
2021-10-21 15:51:26.166751,36
2021-10-21 15:51:26.166772,-4
2021-10-21 15:51:26.166782,-128
2021-10-21 15:51:26.166791,-68
2021-10-21 15:51:26.166799,-46
2021-10-21 15:51:26.166807,-85
2021-10-21 15:51:26.166816,-77
2021-10-21 15:51:26.166824,-63
2021-10-21 15:51:26.166832,-63
2021-10-21 15:51:26.166840,-46
2021-10-21 15:51:26.166849,-26
2021-10-21 15:51:26.166857,-26
2021-10-21 15:51:26.166866,-21
2021-10-21 15:51:26.166874,-2
2021-10-21 15:51:26.166882,7
2021-10-21 15:51:26.166890,14
2021-10-21 15:51:26.166899,26
2021-10-21 15:51:26.166907,29
2021-10-21 15:51:26.166915,31
2021-10-21 15:51:26.166923,41
2021-10-21 15:51:26.166932,38
2021-10-21 15:51:26.166940,26
2021-10-21 15:51:26.166949,26
2021-10-21 15:51:26.166957,31
2021-10-21 15:51:26.166965,34
2021-10-21 15:51:26.166973,38
2021-10-21 15:51:26.166982,31
2021-10-21 15:51:26.166990,7
2021-10-21 15:51:26.166998,-21
2021-10-21 15:51:26.167007,-38
2021-10-21 15:51:26.391764,-53
2021-10-21 15:51:26.391785,-70
2021-10-21 15:51:26.391795,-85
2021-10-21 15:51:26.391804,-94
2021-10-21 15:51:26.391812,-99
2021-10-21 15:51:26.391820,-114
2021-10-21 15:51:26.391829,-119
2021-10-21 15:51:26.391837,-107
2021-10-21 15:51:26.391846,-92
2021-10-21 15:51:26.391854,-90
2021-10-21 15:51:26.391862,-92
2021-10-21 15:51:26.391871,-97
2021-10-21 15:51:26.391879,-92
2021-10-21 15:51:26.391887,-77
2021-10-21 15:51:26.391895,-70
2021-10-21 15:51:26.391904,-68
2021-10-21 15:51:26.391912,-70
2021-10-21 15:51:26.391920,-70
2021-10-21 15:51:26.391929,-63
2021-10-21 15:51:26.391938,-51
2021-10-21 15:51:26.391946,-48
2021-10-21 15:51:26.391954,-46
2021-10-21 15:51:26.391962,-29
2021-10-21 15:51:26.391971,-14
2021-10-21 15:51:26.391979,-14
2021-10-21 15:51:26.391987,-19
2021-10-21 15:51:26.391995,-24
2021-10-21 15:51:26.392003,-34
2021-10-21 15:51:26.392012,-41
2021-10-21 15:51:26.392020,-48
2021-10-21 15:51:26.660319,-53
2021-10-21 15:51:26.660340,-43
2021-10-21 15:51:26.660350,-36
2021-10-21 15:51:26.660358,-48
2021-10-21 15:51:26.660367,-55
2021-10-21 15:51:26.660375,-53
2021-10-21 15:51:26.660384,-77
2021-10-21 15:51:26.660392,-150
2021-10-21 15:51:26.660400,-165
2021-10-21 15:51:26.660408,97
2021-10-21 15:51:26.660417,722
2021-10-21 15:51:26.660425,1296
2021-10-21 15:51:26.660433,997
2021-10-21 15:51:26.660442,31
2021-10-21 15:51:26.660450,-301
2021-10-21 15:51:26.660458,-14
2021-10-21 15:51:26.660467,-38
2021-10-21 15:51:26.660475,-189
2021-10-21 15:51:26.660483,-116
2021-10-21 15:51:26.660491,-77
2021-10-21 15:51:26.660499,-116
2021-10-21 15:51:26.660508,-92
2021-10-21 15:51:26.660516,-58
2021-10-21 15:51:26.660524,-55
2021-10-21 15:51:26.660533,-43
2021-10-21 15:51:26.660541,-21
2021-10-21 15:51:26.660549,-14
2021-10-21 15:51:26.660558,-12
2021-10-21 15:51:26.660566,2
2021-10-21 15:51:26.660574,21
2021-10-21 15:51:26.886856,34
2021-10-21 15:51:26.886878,34
2021-10-21 15:51:26.886887,24
2021-10-21 15:51:26.886896,7
2021-10-21 15:51:26.886961,0
2021-10-21 15:51:26.886971,7
2021-10-21 15:51:26.886979,9
2021-10-21 15:51:26.887017,4
2021-10-21 15:51:26.887025,-2
2021-10-21 15:51:26.887033,-17
2021-10-21 15:51:26.887042,-24
2021-10-21 15:51:26.887050,-19
2021-10-21 15:51:26.887058,-21
2021-10-21 15:51:26.887066,-31
2021-10-21 15:51:26.887074,-41
2021-10-21 15:51:26.887083,-53
2021-10-21 15:51:26.887091,-65
2021-10-21 15:51:26.887099,-77
2021-10-21 15:51:26.887107,-82
2021-10-21 15:51:26.887115,-77
2021-10-21 15:51:26.887123,-75
2021-10-21 15:51:26.887132,-77
2021-10-21 15:51:26.887140,-80
2021-10-21 15:51:26.887148,-72
2021-10-21 15:51:26.887156,-48
2021-10-21 15:51:26.887164,-38
2021-10-21 15:51:26.887172,-46
2021-10-21 15:51:26.887180,-46
2021-10-21 15:51:26.887188,-41
2021-10-21 15:51:26.887196,-38
2021-10-21 15:51:27.111822,-31
2021-10-21 15:51:27.111845,-36
2021-10-21 15:51:27.111854,-51
2021-10-21 15:51:27.111863,-65
2021-10-21 15:51:27.111871,-72
2021-10-21 15:51:27.111880,-65
2021-10-21 15:51:27.111888,-48
2021-10-21 15:51:27.111897,-34
2021-10-21 15:51:27.111905,-34
2021-10-21 15:51:27.111913,-51
2021-10-21 15:51:27.111921,-51
2021-10-21 15:51:27.111929,-41
2021-10-21 15:51:27.111938,-46
2021-10-21 15:51:27.111946,-55
2021-10-21 15:51:27.111954,-65
2021-10-21 15:51:27.111963,-72
2021-10-21 15:51:27.111971,-60
2021-10-21 15:51:27.111979,-53
2021-10-21 15:51:27.111988,-72
2021-10-21 15:51:27.111996,-80
2021-10-21 15:51:27.112004,-65
2021-10-21 15:51:27.112012,-77
2021-10-21 15:51:27.112021,-131
2021-10-21 15:51:27.112029,-201
2021-10-21 15:51:27.112037,-119
2021-10-21 15:51:27.112046,340
2021-10-21 15:51:27.112054,1126
2021-10-21 15:51:27.112062,1554
2021-10-21 15:51:27.112070,902
2021-10-21 15:51:27.112079,-70
2021-10-21 15:51:27.426213,-170
2021-10-21 15:51:27.426235,51
2021-10-21 15:51:27.426245,-111
2021-10-21 15:51:27.426253,-209
2021-10-21 15:51:27.426262,-107
2021-10-21 15:51:27.426270,-109
2021-10-21 15:51:27.426278,-148
2021-10-21 15:51:27.426287,-109
2021-10-21 15:51:27.426295,-99
2021-10-21 15:51:27.426303,-114
2021-10-21 15:51:27.426311,-85
2021-10-21 15:51:27.426320,-60
2021-10-21 15:51:27.426328,-60
2021-10-21 15:51:27.426336,-41
2021-10-21 15:51:27.426344,-29
2021-10-21 15:51:27.426353,-38
2021-10-21 15:51:27.426361,-36
2021-10-21 15:51:27.426369,-14
2021-10-21 15:51:27.426377,9
2021-10-21 15:51:27.426386,9
2021-10-21 15:51:27.426394,4
2021-10-21 15:51:27.426402,12
2021-10-21 15:51:27.426411,14
2021-10-21 15:51:27.426419,14
2021-10-21 15:51:27.426427,19
2021-10-21 15:51:27.426435,2
2021-10-21 15:51:27.426444,-24
2021-10-21 15:51:27.426452,-19
2021-10-21 15:51:27.426461,-14
2021-10-21 15:51:27.426469,-34
2021-10-21 15:51:27.561779,-43
2021-10-21 15:51:27.561801,-41
2021-10-21 15:51:27.561811,-43
2021-10-21 15:51:27.561819,-46
2021-10-21 15:51:27.561828,-51
2021-10-21 15:51:27.561836,-46
2021-10-21 15:51:27.561844,-34
2021-10-21 15:51:27.561853,-29
2021-10-21 15:51:27.561861,-36
2021-10-21 15:51:27.561870,-36
2021-10-21 15:51:27.561878,-31
2021-10-21 15:51:27.561886,-29
2021-10-21 15:51:27.561895,-26
2021-10-21 15:51:27.561903,-17
2021-10-21 15:51:27.561912,-19
2021-10-21 15:51:27.561920,-29
2021-10-21 15:51:27.561928,-26
2021-10-21 15:51:27.561937,-17
2021-10-21 15:51:27.561945,-24
2021-10-21 15:51:27.561953,-36
2021-10-21 15:51:27.561962,-31
2021-10-21 15:51:27.561970,-26
2021-10-21 15:51:27.561978,-43
2021-10-21 15:51:27.561987,-63
2021-10-21 15:51:27.561995,-70
2021-10-21 15:51:27.562003,-75
2021-10-21 15:51:27.562011,-53
2021-10-21 15:51:27.562019,-26
2021-10-21 15:51:27.562028,-41
2021-10-21 15:51:27.562036,-63
2021-10-21 15:51:27.831797,-58
2021-10-21 15:51:27.831819,-55
2021-10-21 15:51:27.831829,-60
2021-10-21 15:51:27.831838,-65
2021-10-21 15:51:27.831846,-53
2021-10-21 15:51:27.831855,-38
2021-10-21 15:51:27.831863,-41
2021-10-21 15:51:27.831871,-46
2021-10-21 15:51:27.831880,-48
2021-10-21 15:51:27.831888,-77
2021-10-21 15:51:27.831896,-150
2021-10-21 15:51:27.831905,-187
2021-10-21 15:51:27.831913,9
2021-10-21 15:51:27.831922,593
2021-10-21 15:51:27.831930,1338
2021-10-21 15:51:27.831938,1433
2021-10-21 15:51:27.831946,554
2021-10-21 15:51:27.831955,-165
2021-10-21 15:51:27.831963,-82
2021-10-21 15:51:27.831971,-2
2021-10-21 15:51:27.831980,-172
2021-10-21 15:51:27.831988,-180
2021-10-21 15:51:27.831996,-114
2021-10-21 15:51:27.832005,-143
2021-10-21 15:51:27.832013,-145
2021-10-21 15:51:27.832021,-102
2021-10-21 15:51:27.832029,-85
2021-10-21 15:51:27.832038,-82
2021-10-21 15:51:27.832046,-68
2021-10-21 15:51:27.832054,-53
2021-10-21 15:51:28.011827,-46
2021-10-21 15:51:28.011850,-36
2021-10-21 15:51:28.011860,-21
2021-10-21 15:51:28.011868,-9
2021-10-21 15:51:28.011877,-2
2021-10-21 15:51:28.011886,-7
2021-10-21 15:51:28.011894,-17
2021-10-21 15:51:28.011902,-12
2021-10-21 15:51:28.011911,-2
2021-10-21 15:51:28.011919,-4
2021-10-21 15:51:28.011927,-4
2021-10-21 15:51:28.011936,-7
2021-10-21 15:51:28.011944,-17
2021-10-21 15:51:28.011952,-21
2021-10-21 15:51:28.011961,-24
2021-10-21 15:51:28.011969,-36
2021-10-21 15:51:28.011977,-43
2021-10-21 15:51:28.011986,-60
2021-10-21 15:51:28.011994,-82
2021-10-21 15:51:28.012002,-82
2021-10-21 15:51:28.012010,-82
2021-10-21 15:51:28.012018,-85
2021-10-21 15:51:28.012026,-85
2021-10-21 15:51:28.012035,-85
2021-10-21 15:51:28.012043,-77
2021-10-21 15:51:28.012051,-65
2021-10-21 15:51:28.012059,-58
2021-10-21 15:51:28.012068,-53
2021-10-21 15:51:28.012076,-53
2021-10-21 15:51:28.012084,-60
2021-10-21 15:51:28.236803,-58
2021-10-21 15:51:28.236824,-46
2021-10-21 15:51:28.236834,-48
2021-10-21 15:51:28.236843,-60
2021-10-21 15:51:28.236851,-63
2021-10-21 15:51:28.236859,-63
2021-10-21 15:51:28.236868,-68
2021-10-21 15:51:28.236876,-58
2021-10-21 15:51:28.236884,-48
2021-10-21 15:51:28.236893,-51
2021-10-21 15:51:28.236901,-58
2021-10-21 15:51:28.236909,-68
2021-10-21 15:51:28.236917,-68
2021-10-21 15:51:28.236926,-65
2021-10-21 15:51:28.236934,-70
2021-10-21 15:51:28.236942,-58
2021-10-21 15:51:28.236950,-46
2021-10-21 15:51:28.236958,-58
2021-10-21 15:51:28.236966,-65
2021-10-21 15:51:28.236974,-65
2021-10-21 15:51:28.236983,-75
2021-10-21 15:51:28.236991,-80
2021-10-21 15:51:28.236999,-80
2021-10-21 15:51:28.237007,-80
2021-10-21 15:51:28.237015,-70
2021-10-21 15:51:28.237024,-60
2021-10-21 15:51:28.237032,-60
2021-10-21 15:51:28.237040,-63
2021-10-21 15:51:28.237048,-72
2021-10-21 15:51:28.237056,-124
2021-10-21 15:51:28.506817,-189
2021-10-21 15:51:28.506839,-99
2021-10-21 15:51:28.506848,343
2021-10-21 15:51:28.506857,1063
2021-10-21 15:51:28.506866,1401
2021-10-21 15:51:28.506874,732
2021-10-21 15:51:28.506883,-133
2021-10-21 15:51:28.506891,-170
2021-10-21 15:51:28.506899,26
2021-10-21 15:51:28.506908,-131
2021-10-21 15:51:28.506916,-214
2021-10-21 15:51:28.506925,-126
2021-10-21 15:51:28.506933,-121
2021-10-21 15:51:28.506941,-138
2021-10-21 15:51:28.506949,-107
2021-10-21 15:51:28.506957,-94
2021-10-21 15:51:28.506966,-102
2021-10-21 15:51:28.506974,-82
2021-10-21 15:51:28.506982,-58
2021-10-21 15:51:28.506991,-48
2021-10-21 15:51:28.506999,-41
2021-10-21 15:51:28.507007,-31
2021-10-21 15:51:28.507015,-21
2021-10-21 15:51:28.507024,-9
2021-10-21 15:51:28.507032,4
2021-10-21 15:51:28.507040,14
2021-10-21 15:51:28.507049,17
2021-10-21 15:51:28.507057,17
2021-10-21 15:51:28.507065,9
2021-10-21 15:51:28.507073,12
2021-10-21 15:51:28.820518,14
2021-10-21 15:51:28.820541,14
2021-10-21 15:51:28.820550,9
2021-10-21 15:51:28.820559,-2
2021-10-21 15:51:28.820568,-29
2021-10-21 15:51:28.820576,-53
2021-10-21 15:51:28.820585,-55
2021-10-21 15:51:28.820593,-55
2021-10-21 15:51:28.820602,-72
2021-10-21 15:51:28.820610,-94
2021-10-21 15:51:28.820618,-97
2021-10-21 15:51:28.820627,-82
2021-10-21 15:51:28.820635,-75
2021-10-21 15:51:28.820643,-75
2021-10-21 15:51:28.820652,-72
2021-10-21 15:51:28.820660,-82
2021-10-21 15:51:28.820669,-82
2021-10-21 15:51:28.820677,-65
2021-10-21 15:51:28.820685,-60
2021-10-21 15:51:28.820694,-58
2021-10-21 15:51:28.820702,-51
2021-10-21 15:51:28.820711,-58
2021-10-21 15:51:28.820719,-65
2021-10-21 15:51:28.820727,-48
2021-10-21 15:51:28.820735,-38
2021-10-21 15:51:28.820744,-38
2021-10-21 15:51:28.820752,-36
2021-10-21 15:51:28.820760,-41
2021-10-21 15:51:28.820768,-43
2021-10-21 15:51:28.820777,-38
2021-10-21 15:51:28.956748,-31
2021-10-21 15:51:28.956768,-29
2021-10-21 15:51:28.956778,-41
2021-10-21 15:51:28.956787,-58
2021-10-21 15:51:28.956795,-60
2021-10-21 15:51:28.956804,-58
2021-10-21 15:51:28.956812,-58
2021-10-21 15:51:28.956820,-58
2021-10-21 15:51:28.956828,-65
2021-10-21 15:51:28.956837,-80
2021-10-21 15:51:28.956845,-80
2021-10-21 15:51:28.956853,-72
2021-10-21 15:51:28.956861,-63
2021-10-21 15:51:28.956869,-43
2021-10-21 15:51:28.956878,-34
2021-10-21 15:51:28.956886,-51
2021-10-21 15:51:28.956894,-53
2021-10-21 15:51:28.956902,-41
2021-10-21 15:51:28.956911,-48
2021-10-21 15:51:28.956919,-63
2021-10-21 15:51:28.956927,-68
2021-10-21 15:51:28.956935,-68
2021-10-21 15:51:28.956944,-65
2021-10-21 15:51:28.956952,-55
2021-10-21 15:51:28.956960,-48
2021-10-21 15:51:28.956968,-43
2021-10-21 15:51:28.956976,-46
2021-10-21 15:51:28.956984,-68
2021-10-21 15:51:28.956993,-126
2021-10-21 15:51:28.957001,-167
2021-10-21 15:51:29.181822,-2
2021-10-21 15:51:29.181845,552
2021-10-21 15:51:29.181854,1301
2021-10-21 15:51:29.181863,1433
2021-10-21 15:51:29.181872,571
2021-10-21 15:51:29.181881,-167
2021-10-21 15:51:29.181889,-80
2021-10-21 15:51:29.181898,21
2021-10-21 15:51:29.181906,-172
2021-10-21 15:51:29.181914,-204
2021-10-21 15:51:29.181923,-138
2021-10-21 15:51:29.181931,-160
2021-10-21 15:51:29.181939,-158
2021-10-21 15:51:29.181947,-124
2021-10-21 15:51:29.181955,-131
2021-10-21 15:51:29.181964,-131
2021-10-21 15:51:29.181972,-102
2021-10-21 15:51:29.181980,-80
2021-10-21 15:51:29.181988,-68
2021-10-21 15:51:29.181996,-55
2021-10-21 15:51:29.182004,-48
2021-10-21 15:51:29.182013,-46
2021-10-21 15:51:29.182021,-43
2021-10-21 15:51:29.182029,-34
2021-10-21 15:51:29.182037,-21
2021-10-21 15:51:29.182046,-19
2021-10-21 15:51:29.182054,-21
2021-10-21 15:51:29.182062,-17
2021-10-21 15:51:29.182070,-7
2021-10-21 15:51:29.182078,-7
2021-10-21 15:51:29.406859,-9
2021-10-21 15:51:29.406882,-17
2021-10-21 15:51:29.406892,-21
2021-10-21 15:51:29.406900,-29
2021-10-21 15:51:29.406909,-38
2021-10-21 15:51:29.406918,-48
2021-10-21 15:51:29.406926,-63
2021-10-21 15:51:29.406935,-85
2021-10-21 15:51:29.406943,-107
2021-10-21 15:51:29.406951,-111
2021-10-21 15:51:29.406959,-104
2021-10-21 15:51:29.406968,-97
2021-10-21 15:51:29.406976,-94
2021-10-21 15:51:29.406985,-99
2021-10-21 15:51:29.406993,-97
2021-10-21 15:51:29.407001,-87
2021-10-21 15:51:29.407010,-82
2021-10-21 15:51:29.407018,-77
2021-10-21 15:51:29.407026,-75
2021-10-21 15:51:29.407034,-77
2021-10-21 15:51:29.407042,-80
2021-10-21 15:51:29.407051,-85
2021-10-21 15:51:29.407059,-85
2021-10-21 15:51:29.407067,-80
2021-10-21 15:51:29.407075,-87
2021-10-21 15:51:29.407084,-94
2021-10-21 15:51:29.407092,-87
2021-10-21 15:51:29.407100,-82
2021-10-21 15:51:29.407108,-82
2021-10-21 15:51:29.407117,-75
2021-10-21 15:51:29.631831,-70
2021-10-21 15:51:29.631853,-75
2021-10-21 15:51:29.631863,-75
2021-10-21 15:51:29.631871,-70
2021-10-21 15:51:29.631880,-65
2021-10-21 15:51:29.631888,-60
2021-10-21 15:51:29.631896,-68
2021-10-21 15:51:29.631905,-77
2021-10-21 15:51:29.631913,-70
2021-10-21 15:51:29.631921,-58
2021-10-21 15:51:29.631930,-36
2021-10-21 15:51:29.631938,-17
2021-10-21 15:51:29.631947,-26
2021-10-21 15:51:29.631955,-41
2021-10-21 15:51:29.631963,-46
2021-10-21 15:51:29.631972,-68
2021-10-21 15:51:29.631980,-85
2021-10-21 15:51:29.631988,-70
2021-10-21 15:51:29.631996,-63
2021-10-21 15:51:29.632013,-68
2021-10-21 15:51:29.632022,-58
2021-10-21 15:51:29.632030,-55
2021-10-21 15:51:29.632039,-51
2021-10-21 15:51:29.632047,-43
2021-10-21 15:51:29.632055,-72
2021-10-21 15:51:29.632063,-141
2021-10-21 15:51:29.632071,-141
2021-10-21 15:51:29.632080,124
2021-10-21 15:51:29.632088,764
2021-10-21 15:51:29.632096,1374
2021-10-21 15:51:29.856842,1092
2021-10-21 15:51:29.856864,87
2021-10-21 15:51:29.856874,-299
