Time,ECG
2021-10-21 16:08:30.200036,-55
2021-10-21 16:08:30.200055,-48
2021-10-21 16:08:30.200064,-46
2021-10-21 16:08:30.200073,-41
2021-10-21 16:08:30.200082,-7
2021-10-21 16:08:30.200090,14
2021-10-21 16:08:30.200098,2
2021-10-21 16:08:30.200107,-7
2021-10-21 16:08:30.200115,-21
2021-10-21 16:08:30.200123,-38
2021-10-21 16:08:30.200132,-29
2021-10-21 16:08:30.200140,-14
2021-10-21 16:08:30.200148,-17
2021-10-21 16:08:30.200156,-19
2021-10-21 16:08:30.200165,-19
2021-10-21 16:08:30.200173,-12
2021-10-21 16:08:30.200181,4
2021-10-21 16:08:30.200189,12
2021-10-21 16:08:30.200198,-17
2021-10-21 16:08:30.200206,-104
2021-10-21 16:08:30.200214,-160
2021-10-21 16:08:30.200222,63
2021-10-21 16:08:30.200230,756
2021-10-21 16:08:30.200239,1608
2021-10-21 16:08:30.200247,1625
2021-10-21 16:08:30.200255,530
2021-10-21 16:08:30.200263,-233
2021-10-21 16:08:30.200272,-4
2021-10-21 16:08:30.200280,82
2021-10-21 16:08:30.200288,-175
2021-10-21 16:08:30.425095,-150
2021-10-21 16:08:30.425115,-29
2021-10-21 16:08:30.425124,-97
2021-10-21 16:08:30.425133,-141
2021-10-21 16:08:30.425141,-77
2021-10-21 16:08:30.425149,-53
2021-10-21 16:08:30.425158,-77
2021-10-21 16:08:30.425166,-72
2021-10-21 16:08:30.425174,-65
2021-10-21 16:08:30.425182,-82
2021-10-21 16:08:30.425191,-77
2021-10-21 16:08:30.425199,-43
2021-10-21 16:08:30.425207,-34
2021-10-21 16:08:30.425215,-58
2021-10-21 16:08:30.425224,-48
2021-10-21 16:08:30.425232,-4
2021-10-21 16:08:30.425240,17
2021-10-21 16:08:30.425248,14
2021-10-21 16:08:30.425257,19
2021-10-21 16:08:30.425265,26
2021-10-21 16:08:30.425273,29
2021-10-21 16:08:30.425281,21
2021-10-21 16:08:30.425289,7
2021-10-21 16:08:30.425298,-2
2021-10-21 16:08:30.425306,-21
2021-10-21 16:08:30.425314,-46
2021-10-21 16:08:30.425323,-60
2021-10-21 16:08:30.425331,-97
2021-10-21 16:08:30.425339,-148
2021-10-21 16:08:30.425347,-143
2021-10-21 16:08:30.695064,-128
2021-10-21 16:08:30.695083,-145
2021-10-21 16:08:30.695093,-163
2021-10-21 16:08:30.695102,-153
2021-10-21 16:08:30.695110,-124
2021-10-21 16:08:30.695119,-121
2021-10-21 16:08:30.695127,-141
2021-10-21 16:08:30.695136,-124
2021-10-21 16:08:30.695144,-104
2021-10-21 16:08:30.695152,-128
2021-10-21 16:08:30.695161,-104
2021-10-21 16:08:30.695169,-60
2021-10-21 16:08:30.695177,-82
2021-10-21 16:08:30.695186,-104
2021-10-21 16:08:30.695194,-97
2021-10-21 16:08:30.695202,-94
2021-10-21 16:08:30.695211,-65
2021-10-21 16:08:30.695219,-24
2021-10-21 16:08:30.695227,-46
2021-10-21 16:08:30.695236,-65
2021-10-21 16:08:30.695244,-48
2021-10-21 16:08:30.695252,-53
2021-10-21 16:08:30.695261,-51
2021-10-21 16:08:30.695269,-29
2021-10-21 16:08:30.695277,-24
2021-10-21 16:08:30.695285,-17
2021-10-21 16:08:30.695294,-9
2021-10-21 16:08:30.695302,-26
2021-10-21 16:08:30.695310,-24
2021-10-21 16:08:30.695319,2
2021-10-21 16:08:30.875055,-7
2021-10-21 16:08:30.875073,-36
2021-10-21 16:08:30.875083,-38
2021-10-21 16:08:30.875091,-26
2021-10-21 16:08:30.875100,-19
2021-10-21 16:08:30.875108,-14
2021-10-21 16:08:30.875117,-26
2021-10-21 16:08:30.875125,-31
2021-10-21 16:08:30.875133,-26
2021-10-21 16:08:30.875142,-75
2021-10-21 16:08:30.875150,-187
2021-10-21 16:08:30.875158,-160
2021-10-21 16:08:30.875167,267
2021-10-21 16:08:30.875175,1138
2021-10-21 16:08:30.875184,1849
2021-10-21 16:08:30.875192,1403
2021-10-21 16:08:30.875200,218
2021-10-21 16:08:30.875209,-182
2021-10-21 16:08:30.875217,51
2021-10-21 16:08:30.875225,-53
2021-10-21 16:08:30.875234,-218
2021-10-21 16:08:30.875242,-136
2021-10-21 16:08:30.875251,-107
2021-10-21 16:08:30.875259,-153
2021-10-21 16:08:30.875267,-133
2021-10-21 16:08:30.875275,-102
2021-10-21 16:08:30.875284,-85
2021-10-21 16:08:30.875292,-77
2021-10-21 16:08:30.875300,-85
2021-10-21 16:08:30.875308,-107
2021-10-21 16:08:31.145210,-116
2021-10-21 16:08:31.145231,-85
2021-10-21 16:08:31.145241,-34
2021-10-21 16:08:31.145249,-24
2021-10-21 16:08:31.145258,-51
2021-10-21 16:08:31.145266,-48
2021-10-21 16:08:31.145275,-29
2021-10-21 16:08:31.145283,-2
2021-10-21 16:08:31.145292,36
2021-10-21 16:08:31.145300,48
2021-10-21 16:08:31.145308,14
2021-10-21 16:08:31.145316,-12
2021-10-21 16:08:31.145325,9
2021-10-21 16:08:31.145333,29
2021-10-21 16:08:31.145341,-4
2021-10-21 16:08:31.145350,-55
2021-10-21 16:08:31.145358,-75
2021-10-21 16:08:31.145366,-77
2021-10-21 16:08:31.145375,-111
2021-10-21 16:08:31.145383,-158
2021-10-21 16:08:31.145391,-165
2021-10-21 16:08:31.145399,-172
2021-10-21 16:08:31.145408,-167
2021-10-21 16:08:31.145416,-138
2021-10-21 16:08:31.145424,-133
2021-10-21 16:08:31.145432,-138
2021-10-21 16:08:31.145441,-128
2021-10-21 16:08:31.145449,-121
2021-10-21 16:08:31.145478,-121
2021-10-21 16:08:31.145487,-128
2021-10-21 16:08:31.325088,-114
2021-10-21 16:08:31.325107,-77
2021-10-21 16:08:31.325116,-70
2021-10-21 16:08:31.325125,-102
2021-10-21 16:08:31.325134,-109
2021-10-21 16:08:31.325142,-75
2021-10-21 16:08:31.325150,-55
2021-10-21 16:08:31.325159,-55
2021-10-21 16:08:31.325167,-63
2021-10-21 16:08:31.325175,-85
2021-10-21 16:08:31.325184,-92
2021-10-21 16:08:31.325192,-63
2021-10-21 16:08:31.325200,-46
2021-10-21 16:08:31.325208,-60
2021-10-21 16:08:31.325217,-43
2021-10-21 16:08:31.325225,-4
2021-10-21 16:08:31.325233,-31
2021-10-21 16:08:31.325242,-85
2021-10-21 16:08:31.325250,-85
2021-10-21 16:08:31.325258,-75
2021-10-21 16:08:31.325266,-72
2021-10-21 16:08:31.325274,-70
2021-10-21 16:08:31.325283,-97
2021-10-21 16:08:31.325291,-97
2021-10-21 16:08:31.325299,-43
2021-10-21 16:08:31.325307,-31
2021-10-21 16:08:31.325316,-58
2021-10-21 16:08:31.325324,-58
2021-10-21 16:08:31.325332,-80
2021-10-21 16:08:31.325340,-163
2021-10-21 16:08:31.638914,-187
2021-10-21 16:08:31.638935,58
2021-10-21 16:08:31.638981,715
2021-10-21 16:08:31.638989,1491
2021-10-21 16:08:31.638998,1481
2021-10-21 16:08:31.639006,484
2021-10-21 16:08:31.639048,-221
2021-10-21 16:08:31.639055,-70
2021-10-21 16:08:31.639064,19
2021-10-21 16:08:31.639072,-170
2021-10-21 16:08:31.639113,-172
2021-10-21 16:08:31.639121,-107
2021-10-21 16:08:31.639129,-141
2021-10-21 16:08:31.639138,-133
2021-10-21 16:08:31.639180,-87
2021-10-21 16:08:31.639188,-102
2021-10-21 16:08:31.639196,-85
2021-10-21 16:08:31.639204,-41
2021-10-21 16:08:31.639245,-36
2021-10-21 16:08:31.639253,-21
2021-10-21 16:08:31.639261,12
2021-10-21 16:08:31.639269,2
2021-10-21 16:08:31.639310,-9
2021-10-21 16:08:31.639319,12
2021-10-21 16:08:31.639327,51
2021-10-21 16:08:31.639335,72
2021-10-21 16:08:31.639344,60
2021-10-21 16:08:31.639386,72
2021-10-21 16:08:31.639395,107
2021-10-21 16:08:31.639405,107
2021-10-21 16:08:31.865077,102
2021-10-21 16:08:31.865096,136
2021-10-21 16:08:31.865106,138
2021-10-21 16:08:31.865115,75
2021-10-21 16:08:31.865124,29
2021-10-21 16:08:31.865132,24
2021-10-21 16:08:31.865141,0
2021-10-21 16:08:31.865149,-58
2021-10-21 16:08:31.865158,-121
2021-10-21 16:08:31.865166,-158
2021-10-21 16:08:31.865174,-145
2021-10-21 16:08:31.865183,-150
2021-10-21 16:08:31.865191,-170
2021-10-21 16:08:31.865199,-141
2021-10-21 16:08:31.865208,-121
2021-10-21 16:08:31.865216,-148
2021-10-21 16:08:31.865224,-131
2021-10-21 16:08:31.865232,-102
2021-10-21 16:08:31.865241,-124
2021-10-21 16:08:31.865249,-133
2021-10-21 16:08:31.865257,-116
2021-10-21 16:08:31.865265,-97
2021-10-21 16:08:31.865273,-85
2021-10-21 16:08:31.865282,-109
2021-10-21 16:08:31.865290,-124
2021-10-21 16:08:31.865298,-97
2021-10-21 16:08:31.865306,-107
2021-10-21 16:08:31.865315,-121
2021-10-21 16:08:31.865323,-87
2021-10-21 16:08:31.865331,-92
2021-10-21 16:08:32.045071,-128
2021-10-21 16:08:32.045089,-107
2021-10-21 16:08:32.045099,-80
2021-10-21 16:08:32.045108,-109
2021-10-21 16:08:32.045117,-99
2021-10-21 16:08:32.045125,-51
2021-10-21 16:08:32.045133,-46
2021-10-21 16:08:32.045142,-75
2021-10-21 16:08:32.045150,-87
2021-10-21 16:08:32.045158,-58
2021-10-21 16:08:32.045167,-36
2021-10-21 16:08:32.045175,-55
2021-10-21 16:08:32.045183,-38
2021-10-21 16:08:32.045192,-24
2021-10-21 16:08:32.045200,-70
2021-10-21 16:08:32.045208,-82
2021-10-21 16:08:32.045217,-48
2021-10-21 16:08:32.045225,-46
2021-10-21 16:08:32.045233,-65
2021-10-21 16:08:32.045242,-68
2021-10-21 16:08:32.045250,-51
2021-10-21 16:08:32.045258,-41
2021-10-21 16:08:32.045266,-51
2021-10-21 16:08:32.045274,-46
2021-10-21 16:08:32.045283,-72
2021-10-21 16:08:32.045291,-160
2021-10-21 16:08:32.045299,-102
2021-10-21 16:08:32.045307,369
2021-10-21 16:08:32.045316,1228
2021-10-21 16:08:32.045324,1737
2021-10-21 16:08:32.270090,1080
2021-10-21 16:08:32.270108,29
2021-10-21 16:08:32.270118,-133
2021-10-21 16:08:32.270127,92
2021-10-21 16:08:32.270135,-58
2021-10-21 16:08:32.270144,-189
2021-10-21 16:08:32.270152,-102
2021-10-21 16:08:32.270161,-97
2021-10-21 16:08:32.270169,-153
2021-10-21 16:08:32.270178,-111
2021-10-21 16:08:32.270186,-58
2021-10-21 16:08:32.270195,-72
2021-10-21 16:08:32.270203,-92
2021-10-21 16:08:32.270211,-85
2021-10-21 16:08:32.270220,-82
2021-10-21 16:08:32.270228,-63
2021-10-21 16:08:32.270236,-26
2021-10-21 16:08:32.270244,-17
2021-10-21 16:08:32.270253,-12
2021-10-21 16:08:32.270261,12
2021-10-21 16:08:32.270270,43
2021-10-21 16:08:32.270278,51
2021-10-21 16:08:32.270286,38
2021-10-21 16:08:32.270295,53
2021-10-21 16:08:32.270303,82
2021-10-21 16:08:32.270311,80
2021-10-21 16:08:32.270320,80
2021-10-21 16:08:32.270328,90
2021-10-21 16:08:32.270336,63
2021-10-21 16:08:32.270345,26
2021-10-21 16:08:32.495582,17
2021-10-21 16:08:32.495629,-9
2021-10-21 16:08:32.495639,-65
2021-10-21 16:08:32.495648,-97
2021-10-21 16:08:32.495656,-119
2021-10-21 16:08:32.495665,-153
2021-10-21 16:08:32.495674,-175
2021-10-21 16:08:32.495682,-175
2021-10-21 16:08:32.495690,-165
2021-10-21 16:08:32.495699,-160
2021-10-21 16:08:32.495707,-153
2021-10-21 16:08:32.495715,-133
2021-10-21 16:08:32.495723,-136
2021-10-21 16:08:32.495732,-150
2021-10-21 16:08:32.495741,-141
2021-10-21 16:08:32.495749,-119
2021-10-21 16:08:32.495757,-124
2021-10-21 16:08:32.495765,-141
2021-10-21 16:08:32.495774,-141
2021-10-21 16:08:32.495782,-119
2021-10-21 16:08:32.495790,-94
2021-10-21 16:08:32.495798,-94
2021-10-21 16:08:32.495807,-107
2021-10-21 16:08:32.495815,-102
2021-10-21 16:08:32.495823,-85
2021-10-21 16:08:32.495831,-85
2021-10-21 16:08:32.495840,-85
2021-10-21 16:08:32.495848,-72
2021-10-21 16:08:32.495857,-77
2021-10-21 16:08:32.495865,-82
2021-10-21 16:08:32.720153,-60
2021-10-21 16:08:32.720172,-48
2021-10-21 16:08:32.720181,-58
2021-10-21 16:08:32.720190,-43
2021-10-21 16:08:32.720199,-31
2021-10-21 16:08:32.720207,-51
2021-10-21 16:08:32.720215,-51
2021-10-21 16:08:32.720224,-48
2021-10-21 16:08:32.720232,-53
2021-10-21 16:08:32.720240,-21
2021-10-21 16:08:32.720248,4
2021-10-21 16:08:32.720257,-4
2021-10-21 16:08:32.720265,0
2021-10-21 16:08:32.720273,12
2021-10-21 16:08:32.720282,9
2021-10-21 16:08:32.720290,-4
2021-10-21 16:08:32.720298,-29
2021-10-21 16:08:32.720307,-43
2021-10-21 16:08:32.720315,-24
2021-10-21 16:08:32.720335,2
2021-10-21 16:08:32.720343,-17
2021-10-21 16:08:32.720351,-26
2021-10-21 16:08:32.720360,2
2021-10-21 16:08:32.720368,7
2021-10-21 16:08:32.720376,-14
2021-10-21 16:08:32.720384,-21
2021-10-21 16:08:32.720393,-53
2021-10-21 16:08:32.720401,-116
2021-10-21 16:08:32.720409,-65
2021-10-21 16:08:32.720417,345
2021-10-21 16:08:32.945081,1155
2021-10-21 16:08:32.945100,1661
2021-10-21 16:08:32.945110,1026
2021-10-21 16:08:32.945118,-7
2021-10-21 16:08:32.945127,-150
2021-10-21 16:08:32.945136,77
2021-10-21 16:08:32.945144,-82
2021-10-21 16:08:32.945152,-192
2021-10-21 16:08:32.945161,-87
2021-10-21 16:08:32.945169,-75
2021-10-21 16:08:32.945178,-121
2021-10-21 16:08:32.945186,-99
2021-10-21 16:08:32.945195,-75
2021-10-21 16:08:32.945203,-94
2021-10-21 16:08:32.945211,-97
2021-10-21 16:08:32.945219,-68
2021-10-21 16:08:32.945228,-43
2021-10-21 16:08:32.945236,-41
2021-10-21 16:08:32.945244,-41
2021-10-21 16:08:32.945252,-24
2021-10-21 16:08:32.945261,7
2021-10-21 16:08:32.945269,21
2021-10-21 16:08:32.945277,17
2021-10-21 16:08:32.945286,34
2021-10-21 16:08:32.945294,53
2021-10-21 16:08:32.945302,60
2021-10-21 16:08:32.945310,68
2021-10-21 16:08:32.945319,58
2021-10-21 16:08:32.945327,46
2021-10-21 16:08:32.945335,77
2021-10-21 16:08:33.260098,97
2021-10-21 16:08:33.260118,51
2021-10-21 16:08:33.260127,12
2021-10-21 16:08:33.260136,-17
2021-10-21 16:08:33.260145,-77
2021-10-21 16:08:33.260153,-111
2021-10-21 16:08:33.260161,-109
2021-10-21 16:08:33.260170,-111
2021-10-21 16:08:33.260178,-114
2021-10-21 16:08:33.260186,-121
2021-10-21 16:08:33.260194,-143
2021-10-21 16:08:33.260203,-141
2021-10-21 16:08:33.260211,-121
2021-10-21 16:08:33.260219,-126
2021-10-21 16:08:33.260227,-116
2021-10-21 16:08:33.260236,-68
2021-10-21 16:08:33.260244,-55
2021-10-21 16:08:33.260252,-80
2021-10-21 16:08:33.260260,-72
2021-10-21 16:08:33.260269,-65
2021-10-21 16:08:33.260277,-85
2021-10-21 16:08:33.260285,-82
2021-10-21 16:08:33.260293,-72
2021-10-21 16:08:33.260301,-85
2021-10-21 16:08:33.260310,-72
2021-10-21 16:08:33.260318,-41
2021-10-21 16:08:33.260326,-34
2021-10-21 16:08:33.260334,-43
2021-10-21 16:08:33.260342,-48
2021-10-21 16:08:33.260350,-60
2021-10-21 16:08:33.440086,-60
2021-10-21 16:08:33.440105,-36
2021-10-21 16:08:33.440115,-24
2021-10-21 16:08:33.440123,-43
2021-10-21 16:08:33.440132,-51
2021-10-21 16:08:33.440141,-43
2021-10-21 16:08:33.440149,-48
2021-10-21 16:08:33.440157,-36
2021-10-21 16:08:33.440166,-14
2021-10-21 16:08:33.440174,-31
2021-10-21 16:08:33.440182,-63
2021-10-21 16:08:33.440191,-60
2021-10-21 16:08:33.440199,-34
2021-10-21 16:08:33.440207,-21
2021-10-21 16:08:33.440216,-17
2021-10-21 16:08:33.440224,-7
2021-10-21 16:08:33.440232,4
2021-10-21 16:08:33.440241,17
2021-10-21 16:08:33.440249,29
2021-10-21 16:08:33.440257,21
2021-10-21 16:08:33.440265,-14
2021-10-21 16:08:33.440274,-34
2021-10-21 16:08:33.440282,-17
2021-10-21 16:08:33.440290,-12
2021-10-21 16:08:33.440298,-14
2021-10-21 16:08:33.440306,4
2021-10-21 16:08:33.440315,7
2021-10-21 16:08:33.440323,-4
2021-10-21 16:08:33.440331,-2
2021-10-21 16:08:33.440340,-2
2021-10-21 16:08:33.708922,-77
2021-10-21 16:08:33.708945,-172
2021-10-21 16:08:33.708955,-38
2021-10-21 16:08:33.708964,520
2021-10-21 16:08:33.708972,1335
2021-10-21 16:08:33.708981,1661
2021-10-21 16:08:33.708989,910
2021-10-21 16:08:33.708998,-34
2021-10-21 16:08:33.709006,-111
2021-10-21 16:08:33.709014,63
2021-10-21 16:08:33.709023,-80
2021-10-21 16:08:33.709031,-150
2021-10-21 16:08:33.709039,-77
2021-10-21 16:08:33.709048,-94
2021-10-21 16:08:33.709056,-138
2021-10-21 16:08:33.709064,-111
2021-10-21 16:08:33.709073,-92
2021-10-21 16:08:33.709081,-85
2021-10-21 16:08:33.709090,-60
2021-10-21 16:08:33.709098,-60
2021-10-21 16:08:33.709106,-68
2021-10-21 16:08:33.709115,-48
2021-10-21 16:08:33.709123,-36
2021-10-21 16:08:33.709131,-51
2021-10-21 16:08:33.709139,-51
2021-10-21 16:08:33.709148,-4
2021-10-21 16:08:33.709156,36
2021-10-21 16:08:33.709165,43
2021-10-21 16:08:33.709173,55
2021-10-21 16:08:33.709181,75
2021-10-21 16:08:33.890271,65
2021-10-21 16:08:33.890293,53
2021-10-21 16:08:33.890303,55
2021-10-21 16:08:33.890311,63
2021-10-21 16:08:33.890320,72
2021-10-21 16:08:33.890329,58
2021-10-21 16:08:33.890337,29
2021-10-21 16:08:33.890345,-4
2021-10-21 16:08:33.890354,-38
2021-10-21 16:08:33.890362,-68
2021-10-21 16:08:33.890370,-92
2021-10-21 16:08:33.890379,-90
2021-10-21 16:08:33.890387,-82
2021-10-21 16:08:33.890395,-99
2021-10-21 16:08:33.890404,-114
2021-10-21 16:08:33.890412,-116
2021-10-21 16:08:33.890420,-121
2021-10-21 16:08:33.890428,-121
2021-10-21 16:08:33.890437,-102
2021-10-21 16:08:33.890445,-94
2021-10-21 16:08:33.890453,-92
2021-10-21 16:08:33.890462,-85
2021-10-21 16:08:33.890470,-77
2021-10-21 16:08:33.890478,-70
2021-10-21 16:08:33.890486,-53
2021-10-21 16:08:33.890494,-38
2021-10-21 16:08:33.890503,-46
2021-10-21 16:08:33.890511,-53
2021-10-21 16:08:33.890519,-48
2021-10-21 16:08:33.890527,-41
2021-10-21 16:08:34.115256,-31
2021-10-21 16:08:34.115279,-31
2021-10-21 16:08:34.115288,-31
2021-10-21 16:08:34.115297,-29
2021-10-21 16:08:34.115306,-48
2021-10-21 16:08:34.115314,-43
2021-10-21 16:08:34.115322,-19
2021-10-21 16:08:34.115331,-34
2021-10-21 16:08:34.115339,-58
2021-10-21 16:08:34.115348,-38
2021-10-21 16:08:34.115356,-19
2021-10-21 16:08:34.115364,-19
2021-10-21 16:08:34.115373,-26
2021-10-21 16:08:34.115381,-36
2021-10-21 16:08:34.115390,-36
2021-10-21 16:08:34.115398,-34
2021-10-21 16:08:34.115406,-24
2021-10-21 16:08:34.115415,-12
2021-10-21 16:08:34.115423,2
2021-10-21 16:08:34.115431,17
2021-10-21 16:08:34.115439,12
2021-10-21 16:08:34.115447,12
2021-10-21 16:08:34.115456,12
2021-10-21 16:08:34.115464,-2
2021-10-21 16:08:34.115472,2
2021-10-21 16:08:34.115481,12
2021-10-21 16:08:34.115489,-12
2021-10-21 16:08:34.115497,-31
2021-10-21 16:08:34.115505,-34
2021-10-21 16:08:34.115514,-46
2021-10-21 16:08:34.340268,-43
2021-10-21 16:08:34.340291,-4
2021-10-21 16:08:34.340300,2
2021-10-21 16:08:34.340309,-75
2021-10-21 16:08:34.340317,-170
2021-10-21 16:08:34.340326,-124
2021-10-21 16:08:34.340335,238
2021-10-21 16:08:34.340343,1002
2021-10-21 16:08:34.340351,1676
2021-10-21 16:08:34.340360,1321
2021-10-21 16:08:34.340368,233
2021-10-21 16:08:34.340376,-187
2021-10-21 16:08:34.340385,12
2021-10-21 16:08:34.340393,-70
2021-10-21 16:08:34.340401,-245
2021-10-21 16:08:34.340410,-170
2021-10-21 16:08:34.340418,-111
2021-10-21 16:08:34.340426,-148
2021-10-21 16:08:34.340435,-133
2021-10-21 16:08:34.340443,-111
2021-10-21 16:08:34.340451,-119
2021-10-21 16:08:34.340460,-104
2021-10-21 16:08:34.340468,-104
2021-10-21 16:08:34.340476,-104
2021-10-21 16:08:34.340485,-60
2021-10-21 16:08:34.340493,-48
2021-10-21 16:08:34.340501,-65
2021-10-21 16:08:34.340509,-55
2021-10-21 16:08:34.340518,-41
2021-10-21 16:08:34.340526,-14
2021-10-21 16:08:34.565261,29
2021-10-21 16:08:34.565284,24
2021-10-21 16:08:34.565293,14
2021-10-21 16:08:34.565302,68
2021-10-21 16:08:34.565311,102
2021-10-21 16:08:34.565320,63
2021-10-21 16:08:34.565328,43
2021-10-21 16:08:34.565337,65
2021-10-21 16:08:34.565345,55
2021-10-21 16:08:34.565354,24
2021-10-21 16:08:34.565362,0
2021-10-21 16:08:34.565371,-48
2021-10-21 16:08:34.565379,-97
2021-10-21 16:08:34.565388,-99
2021-10-21 16:08:34.565396,-121
2021-10-21 16:08:34.565405,-148
2021-10-21 16:08:34.565413,-128
2021-10-21 16:08:34.565422,-114
2021-10-21 16:08:34.565430,-119
2021-10-21 16:08:34.565438,-109
2021-10-21 16:08:34.565447,-104
2021-10-21 16:08:34.565455,-116
2021-10-21 16:08:34.565464,-111
2021-10-21 16:08:34.565472,-97
2021-10-21 16:08:34.565480,-94
2021-10-21 16:08:34.565489,-87
2021-10-21 16:08:34.565497,-70
2021-10-21 16:08:34.565505,-63
2021-10-21 16:08:34.565514,-58
2021-10-21 16:08:34.565522,-53
2021-10-21 16:08:34.880269,-46
2021-10-21 16:08:34.880291,-34
2021-10-21 16:08:34.880300,-34
2021-10-21 16:08:34.880309,-53
2021-10-21 16:08:34.880318,-63
2021-10-21 16:08:34.880330,-55
2021-10-21 16:08:34.880339,-46
2021-10-21 16:08:34.880347,-58
2021-10-21 16:08:34.880355,-68
2021-10-21 16:08:34.880364,-46
2021-10-21 16:08:34.880372,-41
2021-10-21 16:08:34.880380,-72
2021-10-21 16:08:34.880389,-65
2021-10-21 16:08:34.880397,-21
2021-10-21 16:08:34.880406,-31
2021-10-21 16:08:34.880414,-72
2021-10-21 16:08:34.880423,-60
2021-10-21 16:08:34.880431,-38
2021-10-21 16:08:34.880440,-48
2021-10-21 16:08:34.880448,-48
2021-10-21 16:08:34.880456,-36
2021-10-21 16:08:34.880464,-43
2021-10-21 16:08:34.880473,-46
2021-10-21 16:08:34.880481,-21
2021-10-21 16:08:34.880490,4
2021-10-21 16:08:34.880498,7
2021-10-21 16:08:34.880506,-17
2021-10-21 16:08:34.880515,-24
2021-10-21 16:08:34.880523,-38
2021-10-21 16:08:34.880531,-80
2021-10-21 16:08:35.015258,-75
2021-10-21 16:08:35.015280,-38
2021-10-21 16:08:35.015290,-38
2021-10-21 16:08:35.015298,-60
2021-10-21 16:08:35.015307,-70
2021-10-21 16:08:35.015316,-68
2021-10-21 16:08:35.015324,-63
2021-10-21 16:08:35.015333,-63
2021-10-21 16:08:35.015341,-82
2021-10-21 16:08:35.015350,-170
2021-10-21 16:08:35.015358,-214
2021-10-21 16:08:35.015367,29
2021-10-21 16:08:35.015375,649
2021-10-21 16:08:35.015384,1360
2021-10-21 16:08:35.015392,1384
2021-10-21 16:08:35.015401,479
2021-10-21 16:08:35.015409,-209
2021-10-21 16:08:35.015418,-82
2021-10-21 16:08:35.015426,19
2021-10-21 16:08:35.015435,-150
2021-10-21 16:08:35.015443,-165
2021-10-21 16:08:35.015451,-102
2021-10-21 16:08:35.015460,-136
2021-10-21 16:08:35.015468,-155
2021-10-21 16:08:35.015476,-124
2021-10-21 16:08:35.015484,-92
2021-10-21 16:08:35.015493,-70
2021-10-21 16:08:35.015501,-55
2021-10-21 16:08:35.015509,-53
2021-10-21 16:08:35.015518,-48
2021-10-21 16:08:35.330147,-19
2021-10-21 16:08:35.330166,14
2021-10-21 16:08:35.330176,2
2021-10-21 16:08:35.330185,-14
2021-10-21 16:08:35.330193,14
2021-10-21 16:08:35.330202,41
2021-10-21 16:08:35.330210,43
2021-10-21 16:08:35.330218,60
2021-10-21 16:08:35.330227,68
2021-10-21 16:08:35.330235,53
2021-10-21 16:08:35.330243,48
2021-10-21 16:08:35.330252,65
2021-10-21 16:08:35.330260,68
2021-10-21 16:08:35.330268,55
2021-10-21 16:08:35.330277,41
2021-10-21 16:08:35.330285,17
2021-10-21 16:08:35.330293,-19
2021-10-21 16:08:35.330301,-43
2021-10-21 16:08:35.330310,-51
2021-10-21 16:08:35.330318,-72
2021-10-21 16:08:35.330326,-114
2021-10-21 16:08:35.330335,-136
2021-10-21 16:08:35.330343,-111
2021-10-21 16:08:35.330351,-80
2021-10-21 16:08:35.330359,-77
2021-10-21 16:08:35.330368,-82
2021-10-21 16:08:35.330376,-80
2021-10-21 16:08:35.330384,-63
2021-10-21 16:08:35.330393,-53
2021-10-21 16:08:35.330401,-53
2021-10-21 16:08:35.510118,-36
2021-10-21 16:08:35.510137,-14
2021-10-21 16:08:35.510146,-34
2021-10-21 16:08:35.510154,-55
2021-10-21 16:08:35.510163,-58
2021-10-21 16:08:35.510171,-63
2021-10-21 16:08:35.510179,-63
2021-10-21 16:08:35.510188,-51
2021-10-21 16:08:35.510196,-46
2021-10-21 16:08:35.510204,-51
2021-10-21 16:08:35.510212,-53
2021-10-21 16:08:35.510221,-58
2021-10-21 16:08:35.510229,-55
2021-10-21 16:08:35.510237,-48
2021-10-21 16:08:35.510245,-60
2021-10-21 16:08:35.510253,-65
2021-10-21 16:08:35.510262,-51
2021-10-21 16:08:35.510270,-48
2021-10-21 16:08:35.510278,-58
2021-10-21 16:08:35.510286,-51
2021-10-21 16:08:35.510295,-55
2021-10-21 16:08:35.510303,-77
2021-10-21 16:08:35.510311,-75
2021-10-21 16:08:35.510319,-68
2021-10-21 16:08:35.510327,-58
2021-10-21 16:08:35.510336,-38
2021-10-21 16:08:35.510344,-38
2021-10-21 16:08:35.510352,-60
2021-10-21 16:08:35.510360,-58
2021-10-21 16:08:35.510368,-19
2021-10-21 16:08:35.823776,7
2021-10-21 16:08:35.823796,0
2021-10-21 16:08:35.823806,-17
2021-10-21 16:08:35.823815,-31
2021-10-21 16:08:35.823823,-31
2021-10-21 16:08:35.823832,7
2021-10-21 16:08:35.823840,17
2021-10-21 16:08:35.823848,-26
2021-10-21 16:08:35.823857,-53
2021-10-21 16:08:35.823865,-34
2021-10-21 16:08:35.823874,-19
2021-10-21 16:08:35.823882,-21
2021-10-21 16:08:35.823891,-19
2021-10-21 16:08:35.823899,-41
2021-10-21 16:08:35.823907,-80
2021-10-21 16:08:35.823916,-119
2021-10-21 16:08:35.823924,-180
2021-10-21 16:08:35.823932,-133
2021-10-21 16:08:35.823941,316
2021-10-21 16:08:35.823949,1146
2021-10-21 16:08:35.823958,1630
2021-10-21 16:08:35.823966,1034
2021-10-21 16:08:35.823974,55
2021-10-21 16:08:35.823983,-145
2021-10-21 16:08:35.823991,29
2021-10-21 16:08:35.823999,-94
2021-10-21 16:08:35.824007,-214
2021-10-21 16:08:35.824015,-150
2021-10-21 16:08:35.824023,-124
2021-10-21 16:08:35.824032,-145
2021-10-21 16:08:36.004529,-126
2021-10-21 16:08:36.004548,-97
2021-10-21 16:08:36.004557,-94
2021-10-21 16:08:36.004566,-92
2021-10-21 16:08:36.004575,-70
2021-10-21 16:08:36.004583,-48
2021-10-21 16:08:36.004591,-43
2021-10-21 16:08:36.004599,-43
2021-10-21 16:08:36.004608,-43
2021-10-21 16:08:36.004616,-48
2021-10-21 16:08:36.004624,-43
2021-10-21 16:08:36.004633,-12
2021-10-21 16:08:36.004641,21
2021-10-21 16:08:36.004649,19
2021-10-21 16:08:36.004658,12
2021-10-21 16:08:36.004666,48
2021-10-21 16:08:36.004674,70
2021-10-21 16:08:36.004682,55
2021-10-21 16:08:36.004690,43
2021-10-21 16:08:36.004699,48
2021-10-21 16:08:36.004707,53
2021-10-21 16:08:36.004715,29
2021-10-21 16:08:36.004724,-21
2021-10-21 16:08:36.004732,-58
2021-10-21 16:08:36.004740,-60
2021-10-21 16:08:36.004749,-60
2021-10-21 16:08:36.004757,-92
2021-10-21 16:08:36.004765,-114
2021-10-21 16:08:36.004773,-90
2021-10-21 16:08:36.004782,-70
2021-10-21 16:08:36.185135,-87
2021-10-21 16:08:36.185154,-107
2021-10-21 16:08:36.185163,-94
2021-10-21 16:08:36.185172,-63
2021-10-21 16:08:36.185180,-48
2021-10-21 16:08:36.185188,-43
2021-10-21 16:08:36.185197,-51
2021-10-21 16:08:36.185205,-72
2021-10-21 16:08:36.185213,-65
2021-10-21 16:08:36.185221,-51
2021-10-21 16:08:36.185230,-46
2021-10-21 16:08:36.185238,-36
2021-10-21 16:08:36.185246,-38
2021-10-21 16:08:36.185254,-48
2021-10-21 16:08:36.185262,-38
2021-10-21 16:08:36.185270,-46
2021-10-21 16:08:36.185279,-65
2021-10-21 16:08:36.185287,-60
2021-10-21 16:08:36.185295,-48
2021-10-21 16:08:36.185303,-55
2021-10-21 16:08:36.185312,-63
2021-10-21 16:08:36.185320,-53
2021-10-21 16:08:36.185328,-41
2021-10-21 16:08:36.185336,-38
2021-10-21 16:08:36.185345,-51
2021-10-21 16:08:36.185353,-68
2021-10-21 16:08:36.185361,-82
2021-10-21 16:08:36.185369,-75
2021-10-21 16:08:36.185378,-51
2021-10-21 16:08:36.185386,-46
2021-10-21 16:08:36.454532,-75
2021-10-21 16:08:36.454551,-80
2021-10-21 16:08:36.454561,-55
2021-10-21 16:08:36.454570,-31
2021-10-21 16:08:36.454578,-9
2021-10-21 16:08:36.454587,-12
2021-10-21 16:08:36.454595,-36
2021-10-21 16:08:36.454603,-43
2021-10-21 16:08:36.454612,-36
2021-10-21 16:08:36.454620,-43
2021-10-21 16:08:36.454629,-65
2021-10-21 16:08:36.454637,-58
2021-10-21 16:08:36.454645,-24
2021-10-21 16:08:36.454654,-21
2021-10-21 16:08:36.454662,-53
2021-10-21 16:08:36.454670,-90
2021-10-21 16:08:36.454679,-90
2021-10-21 16:08:36.454687,-60
2021-10-21 16:08:36.454695,-82
2021-10-21 16:08:36.454703,-163
2021-10-21 16:08:36.454712,-194
2021-10-21 16:08:36.454720,-21
2021-10-21 16:08:36.454728,518
2021-10-21 16:08:36.454737,1321
2021-10-21 16:08:36.454745,1608
2021-10-21 16:08:36.454753,805
2021-10-21 16:08:36.454762,-90
2021-10-21 16:08:36.454770,-104
2021-10-21 16:08:36.454778,43
2021-10-21 16:08:36.454787,-148
2021-10-21 16:08:36.635145,-204
2021-10-21 16:08:36.635164,-102
2021-10-21 16:08:36.635173,-124
2021-10-21 16:08:36.635182,-167
2021-10-21 16:08:36.635191,-121
2021-10-21 16:08:36.635200,-94
2021-10-21 16:08:36.635208,-107
2021-10-21 16:08:36.635216,-85
2021-10-21 16:08:36.635225,-60
2021-10-21 16:08:36.635233,-53
2021-10-21 16:08:36.635241,-53
2021-10-21 16:08:36.635250,-55
2021-10-21 16:08:36.635258,-43
2021-10-21 16:08:36.635267,-12
2021-10-21 16:08:36.635275,12
2021-10-21 16:08:36.635283,9
2021-10-21 16:08:36.635292,24
2021-10-21 16:08:36.635300,60
2021-10-21 16:08:36.635308,65
2021-10-21 16:08:36.635317,41
2021-10-21 16:08:36.635325,43
2021-10-21 16:08:36.635345,77
2021-10-21 16:08:36.635354,92
2021-10-21 16:08:36.635362,70
2021-10-21 16:08:36.635371,46
2021-10-21 16:08:36.635379,12
2021-10-21 16:08:36.635387,-26
2021-10-21 16:08:36.635396,-43
2021-10-21 16:08:36.635404,-70
2021-10-21 16:08:36.635412,-109
2021-10-21 16:08:36.904540,-124
2021-10-21 16:08:36.904559,-121
2021-10-21 16:08:36.904569,-111
2021-10-21 16:08:36.904577,-102
2021-10-21 16:08:36.904586,-119
2021-10-21 16:08:36.904594,-145
2021-10-21 16:08:36.904603,-131
2021-10-21 16:08:36.904611,-107
2021-10-21 16:08:36.904619,-102
2021-10-21 16:08:36.904628,-109
2021-10-21 16:08:36.904636,-111
2021-10-21 16:08:36.904644,-85
2021-10-21 16:08:36.904653,-46
2021-10-21 16:08:36.904661,-46
2021-10-21 16:08:36.904669,-77
2021-10-21 16:08:36.904678,-87
2021-10-21 16:08:36.904686,-82
2021-10-21 16:08:36.904694,-77
2021-10-21 16:08:36.904702,-72
2021-10-21 16:08:36.904710,-68
2021-10-21 16:08:36.904719,-70
2021-10-21 16:08:36.904727,-97
2021-10-21 16:08:36.904735,-104
2021-10-21 16:08:36.904743,-77
2021-10-21 16:08:36.904751,-72
2021-10-21 16:08:36.904759,-82
2021-10-21 16:08:36.904767,-82
2021-10-21 16:08:36.904776,-85
2021-10-21 16:08:36.904784,-85
2021-10-21 16:08:36.904792,-97
2021-10-21 16:08:37.130154,-109
2021-10-21 16:08:37.130172,-92
2021-10-21 16:08:37.130182,-80
2021-10-21 16:08:37.130191,-90
2021-10-21 16:08:37.130199,-87
2021-10-21 16:08:37.130207,-58
2021-10-21 16:08:37.130216,-41
2021-10-21 16:08:37.130224,-51
2021-10-21 16:08:37.130232,-38
2021-10-21 16:08:37.130241,-31
2021-10-21 16:08:37.130249,-80
2021-10-21 16:08:37.130257,-102
2021-10-21 16:08:37.130266,-68
2021-10-21 16:08:37.130274,-55
2021-10-21 16:08:37.130283,-55
2021-10-21 16:08:37.130291,-46
2021-10-21 16:08:37.130299,-55
2021-10-21 16:08:37.130307,-58
2021-10-21 16:08:37.130315,-31
2021-10-21 16:08:37.130324,-36
2021-10-21 16:08:37.130332,-124
2021-10-21 16:08:37.130340,-194
2021-10-21 16:08:37.130349,-55
2021-10-21 16:08:37.130357,455
2021-10-21 16:08:37.130365,1204
2021-10-21 16:08:37.130373,1442
2021-10-21 16:08:37.130382,647
2021-10-21 16:08:37.130390,-165
2021-10-21 16:08:37.130398,-90
2021-10-21 16:08:37.130406,82
2021-10-21 16:08:37.355157,-97
2021-10-21 16:08:37.355176,-136
2021-10-21 16:08:37.355185,-55
2021-10-21 16:08:37.355194,-85
2021-10-21 16:08:37.355202,-104
2021-10-21 16:08:37.355211,-68
2021-10-21 16:08:37.355219,-53
2021-10-21 16:08:37.355227,-53
2021-10-21 16:08:37.355236,-24
2021-10-21 16:08:37.355244,4
2021-10-21 16:08:37.355252,-2
2021-10-21 16:08:37.355261,-7
2021-10-21 16:08:37.355269,29
2021-10-21 16:08:37.355278,58
2021-10-21 16:08:37.355286,48
2021-10-21 16:08:37.355294,43
2021-10-21 16:08:37.355302,70
2021-10-21 16:08:37.355311,90
2021-10-21 16:08:37.355319,104
2021-10-21 16:08:37.355327,128
2021-10-21 16:08:37.355335,128
2021-10-21 16:08:37.355344,111
2021-10-21 16:08:37.355352,124
2021-10-21 16:08:37.355360,145
2021-10-21 16:08:37.355368,133
2021-10-21 16:08:37.355376,92
2021-10-21 16:08:37.355385,48
2021-10-21 16:08:37.355393,7
2021-10-21 16:08:37.355401,-34
2021-10-21 16:08:37.355409,-68
2021-10-21 16:08:37.580152,-80
2021-10-21 16:08:37.580171,-77
2021-10-21 16:08:37.580180,-92
2021-10-21 16:08:37.580189,-116
2021-10-21 16:08:37.580198,-116
2021-10-21 16:08:37.580206,-94
2021-10-21 16:08:37.580214,-82
2021-10-21 16:08:37.580223,-68
2021-10-21 16:08:37.580231,-65
2021-10-21 16:08:37.580239,-77
2021-10-21 16:08:37.580248,-75
2021-10-21 16:08:37.580256,-60
2021-10-21 16:08:37.580264,-55
2021-10-21 16:08:37.580272,-63
2021-10-21 16:08:37.580281,-70
2021-10-21 16:08:37.580289,-60
2021-10-21 16:08:37.580297,-46
2021-10-21 16:08:37.580305,-36
2021-10-21 16:08:37.580314,-29
2021-10-21 16:08:37.580322,-34
2021-10-21 16:08:37.580330,-63
2021-10-21 16:08:37.580338,-75
2021-10-21 16:08:37.580347,-38
2021-10-21 16:08:37.580355,-19
2021-10-21 16:08:37.580363,-55
2021-10-21 16:08:37.580372,-58
2021-10-21 16:08:37.580380,-29
2021-10-21 16:08:37.580388,-48
2021-10-21 16:08:37.580396,-75
2021-10-21 16:08:37.580405,-70
2021-10-21 16:08:37.848795,-63
2021-10-21 16:08:37.848814,-60
2021-10-21 16:08:37.848824,-63
2021-10-21 16:08:37.848833,-72
2021-10-21 16:08:37.848841,-70
2021-10-21 16:08:37.848850,-55
2021-10-21 16:08:37.848858,-31
2021-10-21 16:08:37.848867,-34
2021-10-21 16:08:37.848875,-60
2021-10-21 16:08:37.848884,-51
2021-10-21 16:08:37.848892,-34
2021-10-21 16:08:37.848901,-58
2021-10-21 16:08:37.848909,-77
2021-10-21 16:08:37.848918,-53
2021-10-21 16:08:37.848926,-41
2021-10-21 16:08:37.848934,-53
2021-10-21 16:08:37.848943,-46
2021-10-21 16:08:37.848951,-36
2021-10-21 16:08:37.848959,-36
2021-10-21 16:08:37.848967,-43
2021-10-21 16:08:37.848976,-72
2021-10-21 16:08:37.848984,-138
2021-10-21 16:08:37.848992,-167
2021-10-21 16:08:37.849001,17
2021-10-21 16:08:37.849009,586
2021-10-21 16:08:37.849017,1379
2021-10-21 16:08:37.849026,1567
2021-10-21 16:08:37.849034,686
2021-10-21 16:08:37.849042,-133
2021-10-21 16:08:37.849050,-60
2021-10-21 16:08:38.075188,53
2021-10-21 16:08:38.075208,-150
2021-10-21 16:08:38.075217,-189
2021-10-21 16:08:38.075226,-128
2021-10-21 16:08:38.075235,-158
2021-10-21 16:08:38.075243,-155
2021-10-21 16:08:38.075251,-102
2021-10-21 16:08:38.075260,-102
2021-10-21 16:08:38.075268,-107
2021-10-21 16:08:38.075276,-70
2021-10-21 16:08:38.075284,-63
2021-10-21 16:08:38.075293,-72
2021-10-21 16:08:38.075301,-51
2021-10-21 16:08:38.075309,-21
2021-10-21 16:08:38.075317,-7
2021-10-21 16:08:38.075325,-7
2021-10-21 16:08:38.075334,-2
2021-10-21 16:08:38.075342,31
2021-10-21 16:08:38.075350,43
2021-10-21 16:08:38.075359,46
2021-10-21 16:08:38.075367,75
2021-10-21 16:08:38.075375,85
2021-10-21 16:08:38.075383,94
2021-10-21 16:08:38.075391,124
2021-10-21 16:08:38.075400,114
2021-10-21 16:08:38.075408,87
2021-10-21 16:08:38.075416,72
2021-10-21 16:08:38.075424,38
2021-10-21 16:08:38.075432,-2
2021-10-21 16:08:38.075441,-29
2021-10-21 16:08:38.255227,-43
2021-10-21 16:08:38.255245,-53
2021-10-21 16:08:38.255264,-80
2021-10-21 16:08:38.255275,-102
2021-10-21 16:08:38.255283,-92
2021-10-21 16:08:38.255292,-72
2021-10-21 16:08:38.255300,-85
2021-10-21 16:08:38.255309,-99
2021-10-21 16:08:38.255317,-82
2021-10-21 16:08:38.255326,-63
2021-10-21 16:08:38.255335,-70
2021-10-21 16:08:38.255343,-70
2021-10-21 16:08:38.255355,-46
2021-10-21 16:08:38.255364,-29
2021-10-21 16:08:38.255372,-29
2021-10-21 16:08:38.255380,-31
2021-10-21 16:08:38.255389,-26
2021-10-21 16:08:38.255397,-19
2021-10-21 16:08:38.255405,-38
2021-10-21 16:08:38.255414,-55
2021-10-21 16:08:38.255422,-41
2021-10-21 16:08:38.255430,-31
2021-10-21 16:08:38.255439,-34
2021-10-21 16:08:38.255447,-29
2021-10-21 16:08:38.255455,-17
2021-10-21 16:08:38.255464,-24
2021-10-21 16:08:38.255472,-38
2021-10-21 16:08:38.255480,-46
2021-10-21 16:08:38.255489,-38
2021-10-21 16:08:38.255497,-31
2021-10-21 16:08:38.525112,-31
2021-10-21 16:08:38.525130,-38
2021-10-21 16:08:38.525140,-43
2021-10-21 16:08:38.525148,-24
2021-10-21 16:08:38.525157,4
2021-10-21 16:08:38.525165,-17
2021-10-21 16:08:38.525174,-48
2021-10-21 16:08:38.525182,-41
2021-10-21 16:08:38.525190,-58
2021-10-21 16:08:38.525199,-85
2021-10-21 16:08:38.525207,-82
2021-10-21 16:08:38.525215,-92
2021-10-21 16:08:38.525224,-102
2021-10-21 16:08:38.525232,-85
2021-10-21 16:08:38.525240,-72
2021-10-21 16:08:38.525248,-53
2021-10-21 16:08:38.525257,-38
2021-10-21 16:08:38.525265,-80
2021-10-21 16:08:38.525273,-148
2021-10-21 16:08:38.525282,-182
2021-10-21 16:08:38.525290,-68
2021-10-21 16:08:38.525299,418
2021-10-21 16:08:38.525307,1265
2021-10-21 16:08:38.525315,1710
2021-10-21 16:08:38.525323,978
2021-10-21 16:08:38.525332,-60
2021-10-21 16:08:38.525340,-150
2021-10-21 16:08:38.525348,75
2021-10-21 16:08:38.525357,-90
2021-10-21 16:08:38.525365,-182
2021-10-21 16:08:38.794547,-80
2021-10-21 16:08:38.794566,-90
2021-10-21 16:08:38.794575,-128
2021-10-21 16:08:38.794584,-77
2021-10-21 16:08:38.794592,-43
2021-10-21 16:08:38.794601,-60
2021-10-21 16:08:38.794609,-63
2021-10-21 16:08:38.794617,-31
2021-10-21 16:08:38.794626,2
2021-10-21 16:08:38.794634,7
2021-10-21 16:08:38.794642,-2
2021-10-21 16:08:38.794650,0
2021-10-21 16:08:38.794659,29
2021-10-21 16:08:38.794667,58
2021-10-21 16:08:38.794675,70
2021-10-21 16:08:38.794684,82
2021-10-21 16:08:38.794692,109
2021-10-21 16:08:38.794700,114
2021-10-21 16:08:38.794708,109
2021-10-21 16:08:38.794717,138
2021-10-21 16:08:38.794725,160
2021-10-21 16:08:38.794733,136
2021-10-21 16:08:38.794741,102
2021-10-21 16:08:38.794749,97
2021-10-21 16:08:38.794757,92
2021-10-21 16:08:38.794765,43
2021-10-21 16:08:38.794774,-26
2021-10-21 16:08:38.794782,-58
2021-10-21 16:08:38.794790,-60
2021-10-21 16:08:38.794798,-77
2021-10-21 16:08:39.020180,-94
2021-10-21 16:08:39.020199,-87
2021-10-21 16:08:39.020209,-68
2021-10-21 16:08:39.020217,-70
2021-10-21 16:08:39.020226,-94
2021-10-21 16:08:39.020234,-85
2021-10-21 16:08:39.020243,-51
2021-10-21 16:08:39.020251,-60
2021-10-21 16:08:39.020259,-72
2021-10-21 16:08:39.020268,-63
2021-10-21 16:08:39.020276,-70
2021-10-21 16:08:39.020284,-65
2021-10-21 16:08:39.020293,-46
2021-10-21 16:08:39.020301,-51
2021-10-21 16:08:39.020309,-68
2021-10-21 16:08:39.020318,-65
2021-10-21 16:08:39.020326,-48
2021-10-21 16:08:39.020334,-46
2021-10-21 16:08:39.020342,-53
2021-10-21 16:08:39.020351,-43
2021-10-21 16:08:39.020359,-41
2021-10-21 16:08:39.020368,-53
2021-10-21 16:08:39.020376,-48
2021-10-21 16:08:39.020384,-24
2021-10-21 16:08:39.020393,-29
2021-10-21 16:08:39.020401,-46
2021-10-21 16:08:39.020409,-43
2021-10-21 16:08:39.020418,-34
2021-10-21 16:08:39.020426,-21
2021-10-21 16:08:39.020434,7
2021-10-21 16:08:39.200177,14
2021-10-21 16:08:39.200196,4
2021-10-21 16:08:39.200205,0
2021-10-21 16:08:39.200214,-21
2021-10-21 16:08:39.200222,-38
2021-10-21 16:08:39.200231,-31
2021-10-21 16:08:39.200239,-21
2021-10-21 16:08:39.200247,-12
2021-10-21 16:08:39.200256,-14
2021-10-21 16:08:39.200264,-41
2021-10-21 16:08:39.200272,-38
2021-10-21 16:08:39.200280,-9
2021-10-21 16:08:39.200289,-14
2021-10-21 16:08:39.200297,-77
2021-10-21 16:08:39.200306,-167
2021-10-21 16:08:39.200314,-145
2021-10-21 16:08:39.200323,267
2021-10-21 16:08:39.200331,1126
2021-10-21 16:08:39.200339,1803
2021-10-21 16:08:39.200348,1345
2021-10-21 16:08:39.200356,175
2021-10-21 16:08:39.200365,-223
2021-10-21 16:08:39.200373,29
2021-10-21 16:08:39.200381,-48
2021-10-21 16:08:39.200390,-214
2021-10-21 16:08:39.200398,-133
2021-10-21 16:08:39.200406,-116
2021-10-21 16:08:39.200415,-165
2021-10-21 16:08:39.200423,-111
2021-10-21 16:08:39.200431,-72
2021-10-21 16:08:39.514551,-104
2021-10-21 16:08:39.514569,-92
2021-10-21 16:08:39.514579,-46
2021-10-21 16:08:39.514587,-48
2021-10-21 16:08:39.514596,-60
2021-10-21 16:08:39.514604,-36
2021-10-21 16:08:39.514612,-4
2021-10-21 16:08:39.514621,7
2021-10-21 16:08:39.514629,4
2021-10-21 16:08:39.514637,2
2021-10-21 16:08:39.514646,19
2021-10-21 16:08:39.514654,46
2021-10-21 16:08:39.514662,55
2021-10-21 16:08:39.514671,68
2021-10-21 16:08:39.514679,77
2021-10-21 16:08:39.514687,68
2021-10-21 16:08:39.514695,63
2021-10-21 16:08:39.514704,68
2021-10-21 16:08:39.514712,58
2021-10-21 16:08:39.514720,17
2021-10-21 16:08:39.514729,-43
2021-10-21 16:08:39.514737,-75
2021-10-21 16:08:39.514745,-77
2021-10-21 16:08:39.514754,-97
2021-10-21 16:08:39.514762,-124
2021-10-21 16:08:39.514771,-131
2021-10-21 16:08:39.514779,-133
2021-10-21 16:08:39.514787,-131
2021-10-21 16:08:39.514796,-111
2021-10-21 16:08:39.514804,-104
2021-10-21 16:08:39.650172,-107
2021-10-21 16:08:39.650190,-99
2021-10-21 16:08:39.650200,-99
2021-10-21 16:08:39.650209,-109
2021-10-21 16:08:39.650218,-90
2021-10-21 16:08:39.650226,-55
2021-10-21 16:08:39.650235,-55
2021-10-21 16:08:39.650243,-77
2021-10-21 16:08:39.650251,-80
2021-10-21 16:08:39.650260,-68
2021-10-21 16:08:39.650268,-60
2021-10-21 16:08:39.650277,-72
2021-10-21 16:08:39.650285,-72
2021-10-21 16:08:39.650293,-68
2021-10-21 16:08:39.650302,-77
2021-10-21 16:08:39.650310,-63
2021-10-21 16:08:39.650318,-38
2021-10-21 16:08:39.650326,-53
2021-10-21 16:08:39.650334,-72
2021-10-21 16:08:39.650343,-82
2021-10-21 16:08:39.650351,-87
2021-10-21 16:08:39.650359,-82
2021-10-21 16:08:39.650368,-82
2021-10-21 16:08:39.650376,-75
2021-10-21 16:08:39.650384,-43
2021-10-21 16:08:39.650392,-34
2021-10-21 16:08:39.650400,-41
2021-10-21 16:08:39.650408,-46
2021-10-21 16:08:39.650417,-53
2021-10-21 16:08:39.650425,-60
2021-10-21 16:08:39.963839,-58
2021-10-21 16:08:39.963858,-55
2021-10-21 16:08:39.963868,-58
2021-10-21 16:08:39.963876,-63
2021-10-21 16:08:39.963885,-58
2021-10-21 16:08:39.963894,-46
2021-10-21 16:08:39.963902,-63
2021-10-21 16:08:39.963910,-82
2021-10-21 16:08:39.963919,-87
2021-10-21 16:08:39.963927,-143
2021-10-21 16:08:39.963936,-221
2021-10-21 16:08:39.963944,-138
2021-10-21 16:08:39.963952,323
2021-10-21 16:08:39.963961,1158
2021-10-21 16:08:39.963969,1705
2021-10-21 16:08:39.963977,1112
2021-10-21 16:08:39.963986,-9
2021-10-21 16:08:39.963994,-257
2021-10-21 16:08:39.964002,-7
2021-10-21 16:08:39.964011,-158
2021-10-21 16:08:39.964019,-316
2021-10-21 16:08:39.964027,-223
2021-10-21 16:08:39.964036,-197
2021-10-21 16:08:39.964044,-228
2021-10-21 16:08:39.964052,-199
2021-10-21 16:08:39.964060,-189
2021-10-21 16:08:39.964069,-197
2021-10-21 16:08:39.964077,-177
2021-10-21 16:08:39.964085,-167
2021-10-21 16:08:39.964093,-160
2021-10-21 16:08:40.144565,-138
2021-10-21 16:08:40.144584,-128
2021-10-21 16:08:40.144593,-119
2021-10-21 16:08:40.144602,-87
2021-10-21 16:08:40.144610,-63
2021-10-21 16:08:40.144618,-65
2021-10-21 16:08:40.144627,-63
2021-10-21 16:08:40.144635,-38
2021-10-21 16:08:40.144643,-19
2021-10-21 16:08:40.144651,-9
2021-10-21 16:08:40.144660,2
2021-10-21 16:08:40.144668,12
2021-10-21 16:08:40.144676,7
2021-10-21 16:08:40.144685,12
2021-10-21 16:08:40.144693,-2
2021-10-21 16:08:40.144701,-48
2021-10-21 16:08:40.144710,-70
2021-10-21 16:08:40.144718,-94
2021-10-21 16:08:40.144726,-145
2021-10-21 16:08:40.144735,-160
2021-10-21 16:08:40.144743,-145
2021-10-21 16:08:40.144751,-158
2021-10-21 16:08:40.144765,-170
2021-10-21 16:08:40.144773,-163
2021-10-21 16:08:40.144782,-155
2021-10-21 16:08:40.144790,-148
2021-10-21 16:08:40.144798,-148
2021-10-21 16:08:40.144807,-131
2021-10-21 16:08:40.144815,-107
2021-10-21 16:08:40.144823,-107
2021-10-21 16:08:40.325216,-116
2021-10-21 16:08:40.325234,-94
2021-10-21 16:08:40.325245,-68
2021-10-21 16:08:40.325254,-65
2021-10-21 16:08:40.325264,-72
2021-10-21 16:08:40.325273,-87
2021-10-21 16:08:40.325282,-90
2021-10-21 16:08:40.325291,-68
2021-10-21 16:08:40.325300,-58
2021-10-21 16:08:40.325309,-68
2021-10-21 16:08:40.325318,-70
2021-10-21 16:08:40.325327,-55
2021-10-21 16:08:40.325336,-46
2021-10-21 16:08:40.325345,-48
2021-10-21 16:08:40.325354,-53
2021-10-21 16:08:40.325363,-63
2021-10-21 16:08:40.325372,-63
2021-10-21 16:08:40.325381,-55
2021-10-21 16:08:40.325390,-63
2021-10-21 16:08:40.325399,-63
2021-10-21 16:08:40.325408,-48
2021-10-21 16:08:40.325417,-51
2021-10-21 16:08:40.325426,-51
2021-10-21 16:08:40.325435,-24
2021-10-21 16:08:40.325444,-4
2021-10-21 16:08:40.325453,-9
2021-10-21 16:08:40.325462,-12
2021-10-21 16:08:40.325471,-14
2021-10-21 16:08:40.325480,-19
2021-10-21 16:08:40.325489,-26
2021-10-21 16:08:40.550300,-43
2021-10-21 16:08:40.550321,-58
2021-10-21 16:08:40.550331,-41
2021-10-21 16:08:40.550340,-17
2021-10-21 16:08:40.550349,-31
2021-10-21 16:08:40.550357,-63
2021-10-21 16:08:40.550366,-63
2021-10-21 16:08:40.550374,-77
2021-10-21 16:08:40.550383,-148
2021-10-21 16:08:40.550391,-194
2021-10-21 16:08:40.550400,-14
2021-10-21 16:08:40.550408,583
2021-10-21 16:08:40.550416,1401
2021-10-21 16:08:40.550425,1564
2021-10-21 16:08:40.550434,674
2021-10-21 16:08:40.550442,-141
2021-10-21 16:08:40.550451,-94
2021-10-21 16:08:40.550459,17
2021-10-21 16:08:40.550468,-172
2021-10-21 16:08:40.550476,-201
2021-10-21 16:08:40.550484,-126
2021-10-21 16:08:40.550493,-170
2021-10-21 16:08:40.550501,-184
2021-10-21 16:08:40.550522,-126
2021-10-21 16:08:40.550531,-119
2021-10-21 16:08:40.550539,-141
2021-10-21 16:08:40.550547,-121
2021-10-21 16:08:40.550556,-97
2021-10-21 16:08:40.550564,-87
2021-10-21 16:08:40.550572,-63
2021-10-21 16:08:40.775216,-41
2021-10-21 16:08:40.775236,-38
2021-10-21 16:08:40.775245,-17
2021-10-21 16:08:40.775254,17
2021-10-21 16:08:40.775263,7
2021-10-21 16:08:40.775271,-17
2021-10-21 16:08:40.775279,7
2021-10-21 16:08:40.775288,51
2021-10-21 16:08:40.775296,58
2021-10-21 16:08:40.775304,53
2021-10-21 16:08:40.775312,58
2021-10-21 16:08:40.775321,55
2021-10-21 16:08:40.775329,41
2021-10-21 16:08:40.775337,21
2021-10-21 16:08:40.775345,2
2021-10-21 16:08:40.775353,-21
2021-10-21 16:08:40.775362,-51
2021-10-21 16:08:40.775370,-58
2021-10-21 16:08:40.775378,-68
2021-10-21 16:08:40.775387,-94
2021-10-21 16:08:40.775395,-102
2021-10-21 16:08:40.775403,-90
2021-10-21 16:08:40.775411,-90
2021-10-21 16:08:40.775420,-97
2021-10-21 16:08:40.775428,-94
2021-10-21 16:08:40.775436,-85
2021-10-21 16:08:40.775444,-75
2021-10-21 16:08:40.775452,-63
2021-10-21 16:08:40.775461,-53
2021-10-21 16:08:40.775469,-43
2021-10-21 16:08:41.045211,-36
2021-10-21 16:08:41.045229,-38
2021-10-21 16:08:41.045239,-46
2021-10-21 16:08:41.045248,-46
2021-10-21 16:08:41.045256,-43
2021-10-21 16:08:41.045265,-36
2021-10-21 16:08:41.045273,-48
2021-10-21 16:08:41.045282,-70
2021-10-21 16:08:41.045290,-60
2021-10-21 16:08:41.045298,-36
2021-10-21 16:08:41.045307,-46
2021-10-21 16:08:41.045315,-55
2021-10-21 16:08:41.045324,-36
2021-10-21 16:08:41.045332,-34
2021-10-21 16:08:41.045340,-46
2021-10-21 16:08:41.045349,-43
2021-10-21 16:08:41.045357,-38
2021-10-21 16:08:41.045365,-41
2021-10-21 16:08:41.045373,-29
2021-10-21 16:08:41.045382,-14
2021-10-21 16:08:41.045390,-12
2021-10-21 16:08:41.045398,0
2021-10-21 16:08:41.045407,21
2021-10-21 16:08:41.045422,31
2021-10-21 16:08:41.045431,31
2021-10-21 16:08:41.045439,12
2021-10-21 16:08:41.045447,-19
2021-10-21 16:08:41.045456,-29
2021-10-21 16:08:41.045464,-19
2021-10-21 16:08:41.045473,0
2021-10-21 16:08:41.270215,9
2021-10-21 16:08:41.270234,7
2021-10-21 16:08:41.270244,7
2021-10-21 16:08:41.270253,4
2021-10-21 16:08:41.270261,0
2021-10-21 16:08:41.270270,-12
2021-10-21 16:08:41.270279,-70
2021-10-21 16:08:41.270287,-119
2021-10-21 16:08:41.270295,53
2021-10-21 16:08:41.270304,659
2021-10-21 16:08:41.270312,1438
2021-10-21 16:08:41.270320,1494
2021-10-21 16:08:41.270328,576
2021-10-21 16:08:41.270337,-107
2021-10-21 16:08:41.270345,-9
2021-10-21 16:08:41.270353,41
2021-10-21 16:08:41.270362,-133
2021-10-21 16:08:41.270370,-131
2021-10-21 16:08:41.270378,-77
2021-10-21 16:08:41.270386,-109
2021-10-21 16:08:41.270395,-114
2021-10-21 16:08:41.270403,-92
2021-10-21 16:08:41.270411,-90
2021-10-21 16:08:41.270419,-70
2021-10-21 16:08:41.270428,-53
2021-10-21 16:08:41.270436,-48
2021-10-21 16:08:41.270444,-38
2021-10-21 16:08:41.270452,-26
2021-10-21 16:08:41.270460,-24
2021-10-21 16:08:41.270469,-24
2021-10-21 16:08:41.540214,-4
2021-10-21 16:08:41.540233,14
2021-10-21 16:08:41.540243,29
2021-10-21 16:08:41.540252,48
2021-10-21 16:08:41.540260,48
2021-10-21 16:08:41.540269,41
2021-10-21 16:08:41.540277,46
2021-10-21 16:08:41.540285,55
2021-10-21 16:08:41.540294,55
2021-10-21 16:08:41.540302,48
2021-10-21 16:08:41.540310,43
2021-10-21 16:08:41.540319,34
2021-10-21 16:08:41.540327,-17
2021-10-21 16:08:41.540336,-72
2021-10-21 16:08:41.540344,-90
2021-10-21 16:08:41.540352,-119
2021-10-21 16:08:41.540361,-141
2021-10-21 16:08:41.540369,-109
2021-10-21 16:08:41.540377,-102
2021-10-21 16:08:41.540386,-128
2021-10-21 16:08:41.540394,-124
2021-10-21 16:08:41.540402,-114
2021-10-21 16:08:41.540411,-104
2021-10-21 16:08:41.540419,-90
2021-10-21 16:08:41.540427,-75
2021-10-21 16:08:41.540436,-58
2021-10-21 16:08:41.540444,-68
2021-10-21 16:08:41.540452,-85
2021-10-21 16:08:41.540461,-63
2021-10-21 16:08:41.540469,-26
2021-10-21 16:08:41.720213,-41
2021-10-21 16:08:41.720232,-85
2021-10-21 16:08:41.720242,-75
2021-10-21 16:08:41.720251,-34
2021-10-21 16:08:41.720259,-26
2021-10-21 16:08:41.720267,-43
2021-10-21 16:08:41.720276,-36
2021-10-21 16:08:41.720284,-19
2021-10-21 16:08:41.720293,-29
2021-10-21 16:08:41.720301,-46
2021-10-21 16:08:41.720310,-24
2021-10-21 16:08:41.720318,-2
2021-10-21 16:08:41.720326,-29
2021-10-21 16:08:41.720335,-65
2021-10-21 16:08:41.720343,-48
2021-10-21 16:08:41.720351,-2
2021-10-21 16:08:41.720360,7
2021-10-21 16:08:41.720368,4
2021-10-21 16:08:41.720377,29
2021-10-21 16:08:41.720385,36
2021-10-21 16:08:41.720393,4
2021-10-21 16:08:41.720402,-19
2021-10-21 16:08:41.720410,-4
2021-10-21 16:08:41.720418,0
2021-10-21 16:08:41.720427,-14
2021-10-21 16:08:41.720435,0
2021-10-21 16:08:41.720443,24
2021-10-21 16:08:41.720452,17
2021-10-21 16:08:41.720460,-2
2021-10-21 16:08:41.720468,-14
2021-10-21 16:08:41.988857,-12
2021-10-21 16:08:41.988875,-31
2021-10-21 16:08:41.988885,-111
2021-10-21 16:08:41.988893,-92
2021-10-21 16:08:41.988902,296
2021-10-21 16:08:41.988910,1053
2021-10-21 16:08:41.988919,1557
2021-10-21 16:08:41.988927,1041
2021-10-21 16:08:41.988936,87
2021-10-21 16:08:41.988944,-128
2021-10-21 16:08:41.988952,55
2021-10-21 16:08:41.988961,-60
2021-10-21 16:08:41.988969,-172
2021-10-21 16:08:41.988977,-94
2021-10-21 16:08:41.988986,-82
2021-10-21 16:08:41.988994,-126
2021-10-21 16:08:41.989002,-111
2021-10-21 16:08:41.989010,-97
2021-10-21 16:08:41.989019,-114
2021-10-21 16:08:41.989027,-116
2021-10-21 16:08:41.989035,-102
2021-10-21 16:08:41.989043,-70
2021-10-21 16:08:41.989052,-41
2021-10-21 16:08:41.989060,-48
2021-10-21 16:08:41.989068,-60
2021-10-21 16:08:41.989076,-36
2021-10-21 16:08:41.989084,-7
2021-10-21 16:08:41.989093,-2
2021-10-21 16:08:41.989101,0
2021-10-21 16:08:41.989109,7
2021-10-21 16:08:42.214629,29
2021-10-21 16:08:42.214648,46
2021-10-21 16:08:42.214658,36
2021-10-21 16:08:42.214667,34
2021-10-21 16:08:42.214676,48
2021-10-21 16:08:42.214684,29
2021-10-21 16:08:42.214693,-12
2021-10-21 16:08:42.214701,-31
2021-10-21 16:08:42.214709,-46
2021-10-21 16:08:42.214718,-53
2021-10-21 16:08:42.214726,-68
2021-10-21 16:08:42.214735,-119
2021-10-21 16:08:42.214743,-143
2021-10-21 16:08:42.214751,-116
2021-10-21 16:08:42.214760,-109
2021-10-21 16:08:42.214768,-131
2021-10-21 16:08:42.214776,-128
2021-10-21 16:08:42.214785,-99
2021-10-21 16:08:42.214793,-82
2021-10-21 16:08:42.214801,-77
2021-10-21 16:08:42.214810,-65
2021-10-21 16:08:42.214818,-58
2021-10-21 16:08:42.214826,-70
2021-10-21 16:08:42.214835,-82
2021-10-21 16:08:42.214843,-51
2021-10-21 16:08:42.214851,-34
2021-10-21 16:08:42.214860,-70
2021-10-21 16:08:42.214868,-68
2021-10-21 16:08:42.214876,-31
2021-10-21 16:08:42.214885,-43
2021-10-21 16:08:42.395199,-48
2021-10-21 16:08:42.395217,-7
2021-10-21 16:08:42.395227,-4
2021-10-21 16:08:42.395235,-41
2021-10-21 16:08:42.395244,-38
2021-10-21 16:08:42.395252,-29
2021-10-21 16:08:42.395260,-60
2021-10-21 16:08:42.395268,-68
2021-10-21 16:08:42.395277,-38
2021-10-21 16:08:42.395285,-38
2021-10-21 16:08:42.395293,-51
2021-10-21 16:08:42.395301,-38
2021-10-21 16:08:42.395309,-17
2021-10-21 16:08:42.395318,12
2021-10-21 16:08:42.395326,14
2021-10-21 16:08:42.395334,-19
2021-10-21 16:08:42.395342,-41
2021-10-21 16:08:42.395350,-34
2021-10-21 16:08:42.395359,-19
2021-10-21 16:08:42.395367,-19
2021-10-21 16:08:42.395375,-19
2021-10-21 16:08:42.395384,-9
2021-10-21 16:08:42.395392,-12
2021-10-21 16:08:42.395400,-21
2021-10-21 16:08:42.395408,-12
2021-10-21 16:08:42.395416,-24
2021-10-21 16:08:42.395425,-109
2021-10-21 16:08:42.395433,-150
2021-10-21 16:08:42.395441,60
2021-10-21 16:08:42.395449,625
2021-10-21 16:08:42.665215,1304
2021-10-21 16:08:42.665234,1340
2021-10-21 16:08:42.665244,493
2021-10-21 16:08:42.665253,-138
2021-10-21 16:08:42.665261,-31
2021-10-21 16:08:42.665270,9
2021-10-21 16:08:42.665278,-160
2021-10-21 16:08:42.665286,-126
2021-10-21 16:08:42.665295,-72
2021-10-21 16:08:42.665303,-150
2021-10-21 16:08:42.665311,-163
2021-10-21 16:08:42.665320,-107
2021-10-21 16:08:42.665328,-104
2021-10-21 16:08:42.665336,-116
2021-10-21 16:08:42.665345,-102
2021-10-21 16:08:42.665353,-94
2021-10-21 16:08:42.665362,-87
2021-10-21 16:08:42.665370,-55
2021-10-21 16:08:42.665378,-29
2021-10-21 16:08:42.665387,-24
2021-10-21 16:08:42.665395,-12
2021-10-21 16:08:42.665404,-4
2021-10-21 16:08:42.665412,-17
2021-10-21 16:08:42.665420,7
2021-10-21 16:08:42.665429,34
2021-10-21 16:08:42.665437,26
2021-10-21 16:08:42.665445,19
2021-10-21 16:08:42.665454,26
2021-10-21 16:08:42.665462,36
2021-10-21 16:08:42.665470,46
2021-10-21 16:08:42.890236,34
2021-10-21 16:08:42.890255,12
2021-10-21 16:08:42.890265,-7
2021-10-21 16:08:42.890273,-36
2021-10-21 16:08:42.890282,-68
2021-10-21 16:08:42.890290,-77
2021-10-21 16:08:42.890298,-85
2021-10-21 16:08:42.890307,-92
2021-10-21 16:08:42.890315,-97
2021-10-21 16:08:42.890323,-116
2021-10-21 16:08:42.890331,-104
2021-10-21 16:08:42.890340,-75
2021-10-21 16:08:42.890348,-80
2021-10-21 16:08:42.890356,-82
2021-10-21 16:08:42.890365,-68
2021-10-21 16:08:42.890373,-80
2021-10-21 16:08:42.890381,-90
2021-10-21 16:08:42.890389,-72
2021-10-21 16:08:42.890397,-80
2021-10-21 16:08:42.890406,-70
2021-10-21 16:08:42.890414,-29
2021-10-21 16:08:42.890422,-36
2021-10-21 16:08:42.890430,-63
2021-10-21 16:08:42.890439,-43
2021-10-21 16:08:42.890447,-21
2021-10-21 16:08:42.890455,-31
2021-10-21 16:08:42.890464,-41
2021-10-21 16:08:42.890472,-48
2021-10-21 16:08:42.890480,-63
2021-10-21 16:08:42.890488,-63
2021-10-21 16:08:43.204603,-51
2021-10-21 16:08:43.204621,-43
2021-10-21 16:08:43.204631,-46
2021-10-21 16:08:43.204639,-34
2021-10-21 16:08:43.204648,-9
2021-10-21 16:08:43.204656,0
2021-10-21 16:08:43.204665,4
2021-10-21 16:08:43.204673,4
2021-10-21 16:08:43.204682,-19
2021-10-21 16:08:43.204690,-48
2021-10-21 16:08:43.204699,-51
2021-10-21 16:08:43.204707,-38
2021-10-21 16:08:43.204716,-46
2021-10-21 16:08:43.204724,-41
2021-10-21 16:08:43.204732,-29
2021-10-21 16:08:43.204741,-43
2021-10-21 16:08:43.204749,-51
2021-10-21 16:08:43.204757,-36
2021-10-21 16:08:43.204766,-77
2021-10-21 16:08:43.204774,-138
2021-10-21 16:08:43.204782,-38
2021-10-21 16:08:43.204791,420
2021-10-21 16:08:43.204799,1163
2021-10-21 16:08:43.204807,1496
2021-10-21 16:08:43.204816,829
2021-10-21 16:08:43.204824,-17
2021-10-21 16:08:43.204832,-80
2021-10-21 16:08:43.204841,63
2021-10-21 16:08:43.204849,-97
2021-10-21 16:08:43.204858,-155
2021-10-21 16:08:43.385232,-60
2021-10-21 16:08:43.385251,-72
2021-10-21 16:08:43.385260,-121
2021-10-21 16:08:43.385269,-94
2021-10-21 16:08:43.385278,-63
2021-10-21 16:08:43.385286,-60
2021-10-21 16:08:43.385295,-53
2021-10-21 16:08:43.385303,-41
2021-10-21 16:08:43.385311,-36
2021-10-21 16:08:43.385319,-46
2021-10-21 16:08:43.385328,-38
2021-10-21 16:08:43.385336,-4
2021-10-21 16:08:43.385344,17
2021-10-21 16:08:43.385353,21
2021-10-21 16:08:43.385361,26
2021-10-21 16:08:43.385369,14
2021-10-21 16:08:43.385377,19
2021-10-21 16:08:43.385385,60
2021-10-21 16:08:43.385394,70
2021-10-21 16:08:43.385402,38
2021-10-21 16:08:43.385410,34
2021-10-21 16:08:43.385418,58
2021-10-21 16:08:43.385426,55
2021-10-21 16:08:43.385435,19
2021-10-21 16:08:43.385443,-4
2021-10-21 16:08:43.385451,-19
2021-10-21 16:08:43.385459,-43
2021-10-21 16:08:43.385467,-70
2021-10-21 16:08:43.385476,-82
2021-10-21 16:08:43.385484,-87
2021-10-21 16:08:43.565212,-90
2021-10-21 16:08:43.565231,-90
2021-10-21 16:08:43.565241,-80
2021-10-21 16:08:43.565249,-87
2021-10-21 16:08:43.565258,-94
2021-10-21 16:08:43.565266,-85
2021-10-21 16:08:43.565275,-85
2021-10-21 16:08:43.565283,-82
2021-10-21 16:08:43.565291,-51
2021-10-21 16:08:43.565300,-46
2021-10-21 16:08:43.565308,-72
2021-10-21 16:08:43.565316,-65
2021-10-21 16:08:43.565325,-46
2021-10-21 16:08:43.565333,-53
2021-10-21 16:08:43.565341,-55
2021-10-21 16:08:43.565350,-41
2021-10-21 16:08:43.565358,-31
2021-10-21 16:08:43.565367,-38
2021-10-21 16:08:43.565375,-53
2021-10-21 16:08:43.565383,-58
2021-10-21 16:08:43.565391,-48
2021-10-21 16:08:43.565400,-29
2021-10-21 16:08:43.565408,-9
2021-10-21 16:08:43.565416,-4
2021-10-21 16:08:43.565425,-4
2021-10-21 16:08:43.565433,0
2021-10-21 16:08:43.565441,-17
2021-10-21 16:08:43.565450,-26
2021-10-21 16:08:43.565458,-9
2021-10-21 16:08:43.565466,-2
2021-10-21 16:08:43.834614,-9
2021-10-21 16:08:43.834633,0
2021-10-21 16:08:43.834643,7
2021-10-21 16:08:43.834651,-2
2021-10-21 16:08:43.834660,0
2021-10-21 16:08:43.834668,9
2021-10-21 16:08:43.834676,-48
2021-10-21 16:08:43.834685,-153
2021-10-21 16:08:43.834693,-114
2021-10-21 16:08:43.834701,287
2021-10-21 16:08:43.834709,1051
2021-10-21 16:08:43.834718,1596
2021-10-21 16:08:43.834726,1063
2021-10-21 16:08:43.834734,-2
2021-10-21 16:08:43.834743,-189
2021-10-21 16:08:43.834751,119
2021-10-21 16:08:43.834759,-12
2021-10-21 16:08:43.834767,-163
2021-10-21 16:08:43.834776,-65
2021-10-21 16:08:43.834784,-63
2021-10-21 16:08:43.834792,-121
2021-10-21 16:08:43.834801,-92
2021-10-21 16:08:43.834809,-53
2021-10-21 16:08:43.834817,-46
2021-10-21 16:08:43.834825,-53
2021-10-21 16:08:43.834834,-60
2021-10-21 16:08:43.834842,-51
2021-10-21 16:08:43.834850,-21
2021-10-21 16:08:43.834858,4
2021-10-21 16:08:43.834866,24
2021-10-21 16:08:44.058920,36
2021-10-21 16:08:44.058938,41
2021-10-21 16:08:44.058947,46
2021-10-21 16:08:44.058956,82
2021-10-21 16:08:44.058965,111
2021-10-21 16:08:44.058973,77
2021-10-21 16:08:44.058982,53
2021-10-21 16:08:44.058990,75
2021-10-21 16:08:44.058998,77
2021-10-21 16:08:44.059007,48
2021-10-21 16:08:44.059015,31
2021-10-21 16:08:44.059024,4
2021-10-21 16:08:44.059032,-53
2021-10-21 16:08:44.059041,-87
2021-10-21 16:08:44.059049,-90
2021-10-21 16:08:44.059057,-109
2021-10-21 16:08:44.059065,-131
2021-10-21 16:08:44.059074,-143
2021-10-21 16:08:44.059082,-145
2021-10-21 16:08:44.059090,-148
2021-10-21 16:08:44.059104,-155
2021-10-21 16:08:44.059113,-148
2021-10-21 16:08:44.059122,-136
2021-10-21 16:08:44.059130,-133
2021-10-21 16:08:44.059138,-141
2021-10-21 16:08:44.059146,-114
2021-10-21 16:08:44.059155,-85
2021-10-21 16:08:44.059163,-99
2021-10-21 16:08:44.059172,-94
2021-10-21 16:08:44.059180,-68
2021-10-21 16:08:44.240251,-70
2021-10-21 16:08:44.240270,-65
2021-10-21 16:08:44.240280,-53
2021-10-21 16:08:44.240289,-58
2021-10-21 16:08:44.240298,-53
2021-10-21 16:08:44.240306,-60
2021-10-21 16:08:44.240315,-75
2021-10-21 16:08:44.240323,-63
2021-10-21 16:08:44.240332,-41
2021-10-21 16:08:44.240340,-26
2021-10-21 16:08:44.240349,-38
2021-10-21 16:08:44.240357,-58
2021-10-21 16:08:44.240365,-43
2021-10-21 16:08:44.240374,-34
2021-10-21 16:08:44.240382,-41
2021-10-21 16:08:44.240391,-53
2021-10-21 16:08:44.240399,-77
2021-10-21 16:08:44.240407,-80
2021-10-21 16:08:44.240416,-43
2021-10-21 16:08:44.240424,-21
2021-10-21 16:08:44.240433,-48
2021-10-21 16:08:44.240441,-58
2021-10-21 16:08:44.240449,-29
2021-10-21 16:08:44.240458,-58
2021-10-21 16:08:44.240466,-167
2021-10-21 16:08:44.240474,-197
2021-10-21 16:08:44.240483,114
2021-10-21 16:08:44.240491,907
2021-10-21 16:08:44.240500,1732
2021-10-21 16:08:44.240508,1567
2021-10-21 16:08:44.465240,423
2021-10-21 16:08:44.465259,-228
2021-10-21 16:08:44.465269,-26
2021-10-21 16:08:44.465277,17
2021-10-21 16:08:44.465286,-180
2021-10-21 16:08:44.465294,-175
2021-10-21 16:08:44.465303,-116
2021-10-21 16:08:44.465311,-133
2021-10-21 16:08:44.465319,-141
2021-10-21 16:08:44.465327,-121
2021-10-21 16:08:44.465335,-97
2021-10-21 16:08:44.465344,-82
2021-10-21 16:08:44.465352,-77
2021-10-21 16:08:44.465360,-65
2021-10-21 16:08:44.465368,-55
2021-10-21 16:08:44.465377,-58
2021-10-21 16:08:44.465385,-58
2021-10-21 16:08:44.465393,-34
2021-10-21 16:08:44.465401,-14
2021-10-21 16:08:44.465409,-12
2021-10-21 16:08:44.465418,-4
2021-10-21 16:08:44.465426,12
2021-10-21 16:08:44.465434,24
2021-10-21 16:08:44.465442,26
2021-10-21 16:08:44.465451,19
2021-10-21 16:08:44.465470,19
2021-10-21 16:08:44.465479,36
2021-10-21 16:08:44.465487,34
2021-10-21 16:08:44.465495,-2
2021-10-21 16:08:44.465503,-29
2021-10-21 16:08:44.735345,-46
2021-10-21 16:08:44.735367,-75
2021-10-21 16:08:44.735377,-102
2021-10-21 16:08:44.735386,-119
2021-10-21 16:08:44.735394,-150
2021-10-21 16:08:44.735403,-165
2021-10-21 16:08:44.735411,-160
2021-10-21 16:08:44.735420,-163
2021-10-21 16:08:44.735428,-163
2021-10-21 16:08:44.735436,-167
2021-10-21 16:08:44.735445,-172
2021-10-21 16:08:44.735453,-150
2021-10-21 16:08:44.735461,-121
2021-10-21 16:08:44.735470,-121
2021-10-21 16:08:44.735478,-138
2021-10-21 16:08:44.735486,-136
2021-10-21 16:08:44.735495,-114
2021-10-21 16:08:44.735503,-94
2021-10-21 16:08:44.735511,-92
2021-10-21 16:08:44.735519,-99
2021-10-21 16:08:44.735528,-90
2021-10-21 16:08:44.735536,-77
2021-10-21 16:08:44.735544,-82
2021-10-21 16:08:44.735553,-80
2021-10-21 16:08:44.735561,-60
2021-10-21 16:08:44.735569,-43
2021-10-21 16:08:44.735578,-46
2021-10-21 16:08:44.735586,-51
2021-10-21 16:08:44.735598,-48
2021-10-21 16:08:44.735607,-46
2021-10-21 16:08:44.960387,-36
2021-10-21 16:08:44.960409,-36
2021-10-21 16:08:44.960419,-51
2021-10-21 16:08:44.960428,-55
2021-10-21 16:08:44.960437,-53
2021-10-21 16:08:44.960445,-51
2021-10-21 16:08:44.960453,-46
2021-10-21 16:08:44.960462,-38
2021-10-21 16:08:44.960470,-29
2021-10-21 16:08:44.960478,-38
2021-10-21 16:08:44.960487,-63
2021-10-21 16:08:44.960495,-126
2021-10-21 16:08:44.960504,-214
2021-10-21 16:08:44.960512,-92
2021-10-21 16:08:44.960521,496
2021-10-21 16:08:44.960529,1382
2021-10-21 16:08:44.960538,1737
2021-10-21 16:08:44.960546,907
2021-10-21 16:08:44.960554,-114
2021-10-21 16:08:44.960563,-143
2021-10-21 16:08:44.960571,80
2021-10-21 16:08:44.960579,-116
2021-10-21 16:08:44.960588,-211
2021-10-21 16:08:44.960596,-126
2021-10-21 16:08:44.960604,-143
2021-10-21 16:08:44.960612,-172
2021-10-21 16:08:44.960621,-145
2021-10-21 16:08:44.960629,-124
2021-10-21 16:08:44.960637,-102
2021-10-21 16:08:44.960646,-90
2021-10-21 16:08:45.185301,-92
2021-10-21 16:08:45.185321,-82
2021-10-21 16:08:45.185330,-75
2021-10-21 16:08:45.185339,-72
2021-10-21 16:08:45.185347,-43
2021-10-21 16:08:45.185356,-9
2021-10-21 16:08:45.185364,-4
2021-10-21 16:08:45.185373,7
2021-10-21 16:08:45.185381,14
2021-10-21 16:08:45.185389,-9
2021-10-21 16:08:45.185398,-12
2021-10-21 16:08:45.185406,38
2021-10-21 16:08:45.185415,75
2021-10-21 16:08:45.185423,58
2021-10-21 16:08:45.185431,26
2021-10-21 16:08:45.185440,19
2021-10-21 16:08:45.185448,0
2021-10-21 16:08:45.185456,-29
2021-10-21 16:08:45.185465,-55
2021-10-21 16:08:45.185473,-104
2021-10-21 16:08:45.185481,-145
2021-10-21 16:08:45.185489,-121
2021-10-21 16:08:45.185497,-94
2021-10-21 16:08:45.185506,-119
2021-10-21 16:08:45.185514,-143
2021-10-21 16:08:45.185522,-131
2021-10-21 16:08:45.185530,-111
2021-10-21 16:08:45.185539,-107
2021-10-21 16:08:45.185547,-111
2021-10-21 16:08:45.185555,-109
2021-10-21 16:08:45.545295,-104
2021-10-21 16:08:45.545313,-124
2021-10-21 16:08:45.545323,-138
2021-10-21 16:08:45.545332,-124
2021-10-21 16:08:45.545340,-92
2021-10-21 16:08:45.545348,-68
2021-10-21 16:08:45.545357,-85
2021-10-21 16:08:45.545365,-133
2021-10-21 16:08:45.545374,-138
2021-10-21 16:08:45.545382,-114
2021-10-21 16:08:45.545390,-92
2021-10-21 16:08:45.545399,-77
2021-10-21 16:08:45.545407,-87
2021-10-21 16:08:45.545415,-107
2021-10-21 16:08:45.545424,-97
2021-10-21 16:08:45.545432,-90
2021-10-21 16:08:45.545441,-94
2021-10-21 16:08:45.545449,-77
2021-10-21 16:08:45.545457,-46
2021-10-21 16:08:45.545466,-51
2021-10-21 16:08:45.545474,-60
2021-10-21 16:08:45.545482,-31
2021-10-21 16:08:45.545491,-38
2021-10-21 16:08:45.545499,-72
2021-10-21 16:08:45.545507,-75
2021-10-21 16:08:45.545515,-75
2021-10-21 16:08:45.545523,-58
2021-10-21 16:08:45.545532,-26
2021-10-21 16:08:45.545540,-58
2021-10-21 16:08:45.545549,-116
2021-10-21 16:08:45.680245,-77
2021-10-21 16:08:45.680263,-31
2021-10-21 16:08:45.680273,-116
2021-10-21 16:08:45.680281,-233
2021-10-21 16:08:45.680290,-189
2021-10-21 16:08:45.680298,187
2021-10-21 16:08:45.680307,966
2021-10-21 16:08:45.680316,1674
2021-10-21 16:08:45.680324,1357
2021-10-21 16:08:45.680332,223
2021-10-21 16:08:45.680341,-238
2021-10-21 16:08:45.680349,9
2021-10-21 16:08:45.680358,-58
2021-10-21 16:08:45.680366,-253
2021-10-21 16:08:45.680375,-180
2021-10-21 16:08:45.680383,-133
2021-10-21 16:08:45.680391,-172
2021-10-21 16:08:45.680400,-145
2021-10-21 16:08:45.680408,-128
2021-10-21 16:08:45.680417,-136
2021-10-21 16:08:45.680425,-107
2021-10-21 16:08:45.680433,-72
2021-10-21 16:08:45.680442,-80
2021-10-21 16:08:45.680450,-82
2021-10-21 16:08:45.680458,-63
2021-10-21 16:08:45.680467,-60
2021-10-21 16:08:45.680475,-48
2021-10-21 16:08:45.680484,2
2021-10-21 16:08:45.680492,36
2021-10-21 16:08:45.680500,38
2021-10-21 16:08:45.905290,51
2021-10-21 16:08:45.905310,38
2021-10-21 16:08:45.905320,0
2021-10-21 16:08:45.905329,12
2021-10-21 16:08:45.905337,43
2021-10-21 16:08:45.905346,7
2021-10-21 16:08:45.905354,-31
2021-10-21 16:08:45.905363,-2
2021-10-21 16:08:45.905371,17
2021-10-21 16:08:45.905380,-14
2021-10-21 16:08:45.905388,-46
2021-10-21 16:08:45.905397,-85
2021-10-21 16:08:45.905405,-131
2021-10-21 16:08:45.905414,-136
2021-10-21 16:08:45.905422,-114
2021-10-21 16:08:45.905430,-126
2021-10-21 16:08:45.905438,-153
2021-10-21 16:08:45.905447,-145
2021-10-21 16:08:45.905455,-111
2021-10-21 16:08:45.905463,-102
2021-10-21 16:08:45.905472,-104
2021-10-21 16:08:45.905480,-92
2021-10-21 16:08:45.905489,-87
2021-10-21 16:08:45.905497,-99
2021-10-21 16:08:45.905505,-90
2021-10-21 16:08:45.905513,-72
2021-10-21 16:08:45.905522,-92
2021-10-21 16:08:45.905530,-121
2021-10-21 16:08:45.905538,-104
2021-10-21 16:08:45.905547,-85
2021-10-21 16:08:46.128921,-90
2021-10-21 16:08:46.128939,-87
2021-10-21 16:08:46.128948,-75
2021-10-21 16:08:46.128957,-75
2021-10-21 16:08:46.128966,-85
2021-10-21 16:08:46.128974,-99
2021-10-21 16:08:46.128982,-102
2021-10-21 16:08:46.128991,-87
2021-10-21 16:08:46.128999,-82
2021-10-21 16:08:46.129007,-94
2021-10-21 16:08:46.129015,-111
2021-10-21 16:08:46.129023,-124
2021-10-21 16:08:46.129032,-111
2021-10-21 16:08:46.129040,-92
2021-10-21 16:08:46.129048,-72
2021-10-21 16:08:46.129056,-48
2021-10-21 16:08:46.129065,-46
2021-10-21 16:08:46.129073,-63
2021-10-21 16:08:46.129081,-55
2021-10-21 16:08:46.129090,-48
2021-10-21 16:08:46.129098,-68
2021-10-21 16:08:46.129106,-75
2021-10-21 16:08:46.129114,-53
2021-10-21 16:08:46.129123,-41
2021-10-21 16:08:46.129131,-48
2021-10-21 16:08:46.129139,-41
2021-10-21 16:08:46.129147,-34
2021-10-21 16:08:46.129156,-55
2021-10-21 16:08:46.129164,-107
2021-10-21 16:08:46.129172,-167
2021-10-21 16:08:46.399742,-102
2021-10-21 16:08:46.399761,379
2021-10-21 16:08:46.399770,1270
2021-10-21 16:08:46.399779,1739
2021-10-21 16:08:46.399788,1009
2021-10-21 16:08:46.399796,4
2021-10-21 16:08:46.399805,-87
2021-10-21 16:08:46.399813,92
2021-10-21 16:08:46.399822,-107
2021-10-21 16:08:46.399830,-218
2021-10-21 16:08:46.399838,-138
2021-10-21 16:08:46.399847,-138
2021-10-21 16:08:46.399855,-160
2021-10-21 16:08:46.399863,-114
2021-10-21 16:08:46.399871,-87
2021-10-21 16:08:46.399880,-94
2021-10-21 16:08:46.399888,-85
2021-10-21 16:08:46.399896,-68
2021-10-21 16:08:46.399905,-55
2021-10-21 16:08:46.399913,-31
2021-10-21 16:08:46.399921,-17
2021-10-21 16:08:46.399930,-26
2021-10-21 16:08:46.399938,-9
2021-10-21 16:08:46.399946,34
2021-10-21 16:08:46.399954,48
2021-10-21 16:08:46.399962,41
2021-10-21 16:08:46.399971,51
2021-10-21 16:08:46.399979,58
2021-10-21 16:08:46.399987,63
2021-10-21 16:08:46.399995,80
2021-10-21 16:08:46.580245,90
2021-10-21 16:08:46.580264,85
2021-10-21 16:08:46.580274,80
2021-10-21 16:08:46.580282,51
2021-10-21 16:08:46.580291,21
2021-10-21 16:08:46.580300,14
2021-10-21 16:08:46.580308,-9
2021-10-21 16:08:46.580316,-51
2021-10-21 16:08:46.580325,-75
2021-10-21 16:08:46.580333,-92
2021-10-21 16:08:46.580342,-119
2021-10-21 16:08:46.580350,-133
2021-10-21 16:08:46.580358,-107
2021-10-21 16:08:46.580367,-77
2021-10-21 16:08:46.580375,-90
2021-10-21 16:08:46.580383,-111
2021-10-21 16:08:46.580392,-109
2021-10-21 16:08:46.580400,-99
2021-10-21 16:08:46.580408,-99
2021-10-21 16:08:46.580417,-90
2021-10-21 16:08:46.580425,-80
2021-10-21 16:08:46.580433,-85
2021-10-21 16:08:46.580442,-80
2021-10-21 16:08:46.580450,-68
2021-10-21 16:08:46.580458,-51
2021-10-21 16:08:46.580467,-41
2021-10-21 16:08:46.580475,-51
2021-10-21 16:08:46.580483,-63
2021-10-21 16:08:46.580491,-65
2021-10-21 16:08:46.580500,-60
2021-10-21 16:08:46.850355,-43
2021-10-21 16:08:46.850373,-29
2021-10-21 16:08:46.850383,-29
2021-10-21 16:08:46.850392,-43
2021-10-21 16:08:46.850400,-51
2021-10-21 16:08:46.850409,-38
2021-10-21 16:08:46.850417,-24
2021-10-21 16:08:46.850426,-7
2021-10-21 16:08:46.850434,-12
2021-10-21 16:08:46.850443,-36
2021-10-21 16:08:46.850451,-34
2021-10-21 16:08:46.850460,-14
2021-10-21 16:08:46.850468,-26
2021-10-21 16:08:46.850477,-55
2021-10-21 16:08:46.850485,-53
2021-10-21 16:08:46.850493,-36
2021-10-21 16:08:46.850502,-41
2021-10-21 16:08:46.850510,-46
2021-10-21 16:08:46.850519,-19
2021-10-21 16:08:46.850527,-9
2021-10-21 16:08:46.850535,-26
2021-10-21 16:08:46.850543,-58
2021-10-21 16:08:46.850552,-121
2021-10-21 16:08:46.850560,-180
2021-10-21 16:08:46.850569,-43
2021-10-21 16:08:46.850577,523
2021-10-21 16:08:46.850586,1350
2021-10-21 16:08:46.850594,1564
2021-10-21 16:08:46.850602,681
2021-10-21 16:08:46.850611,-158
2021-10-21 16:08:47.030261,-65
2021-10-21 16:08:47.030280,90
2021-10-21 16:08:47.030289,-107
2021-10-21 16:08:47.030298,-136
2021-10-21 16:08:47.030307,-43
2021-10-21 16:08:47.030315,-77
2021-10-21 16:08:47.030324,-87
2021-10-21 16:08:47.030332,-36
2021-10-21 16:08:47.030340,-43
2021-10-21 16:08:47.030349,-68
2021-10-21 16:08:47.030357,-43
2021-10-21 16:08:47.030365,-7
2021-10-21 16:08:47.030374,0
2021-10-21 16:08:47.030382,2
2021-10-21 16:08:47.030391,4
2021-10-21 16:08:47.030399,7
2021-10-21 16:08:47.030407,24
2021-10-21 16:08:47.030416,34
2021-10-21 16:08:47.030424,36
2021-10-21 16:08:47.030432,48
2021-10-21 16:08:47.030441,48
2021-10-21 16:08:47.030449,31
2021-10-21 16:08:47.030463,31
2021-10-21 16:08:47.030471,38
2021-10-21 16:08:47.030480,43
2021-10-21 16:08:47.030488,46
2021-10-21 16:08:47.030496,36
2021-10-21 16:08:47.030505,14
2021-10-21 16:08:47.030513,-12
2021-10-21 16:08:47.030521,-41
2021-10-21 16:08:47.255269,-80
2021-10-21 16:08:47.255288,-102
2021-10-21 16:08:47.255297,-85
2021-10-21 16:08:47.255306,-80
2021-10-21 16:08:47.255314,-94
2021-10-21 16:08:47.255323,-97
2021-10-21 16:08:47.255331,-102
2021-10-21 16:08:47.255339,-114
2021-10-21 16:08:47.255347,-109
2021-10-21 16:08:47.255356,-104
2021-10-21 16:08:47.255364,-111
2021-10-21 16:08:47.255372,-102
2021-10-21 16:08:47.255381,-92
2021-10-21 16:08:47.255389,-107
2021-10-21 16:08:47.255397,-92
2021-10-21 16:08:47.255406,-55
2021-10-21 16:08:47.255414,-58
2021-10-21 16:08:47.255422,-87
2021-10-21 16:08:47.255430,-85
2021-10-21 16:08:47.255439,-60
2021-10-21 16:08:47.255447,-68
2021-10-21 16:08:47.255455,-80
2021-10-21 16:08:47.255463,-55
2021-10-21 16:08:47.255472,-43
2021-10-21 16:08:47.255480,-63
2021-10-21 16:08:47.255488,-58
2021-10-21 16:08:47.255497,-48
2021-10-21 16:08:47.255505,-60
2021-10-21 16:08:47.255513,-65
2021-10-21 16:08:47.255522,-48
2021-10-21 16:08:47.480286,-14
2021-10-21 16:08:47.480305,2
2021-10-21 16:08:47.480314,-34
2021-10-21 16:08:47.480323,-63
2021-10-21 16:08:47.480332,-51
2021-10-21 16:08:47.480340,-29
2021-10-21 16:08:47.480349,-19
2021-10-21 16:08:47.480357,-43
2021-10-21 16:08:47.480365,-60
2021-10-21 16:08:47.480373,-31
2021-10-21 16:08:47.480382,-17
2021-10-21 16:08:47.480390,-46
2021-10-21 16:08:47.480398,-68
2021-10-21 16:08:47.480406,-53
2021-10-21 16:08:47.480415,-53
2021-10-21 16:08:47.480423,-136
2021-10-21 16:08:47.480431,-182
2021-10-21 16:08:47.480439,63
2021-10-21 16:08:47.480448,708
2021-10-21 16:08:47.480456,1403
2021-10-21 16:08:47.480464,1277
2021-10-21 16:08:47.480472,279
2021-10-21 16:08:47.480481,-255
2021-10-21 16:08:47.480489,-51
2021-10-21 16:08:47.480497,-46
2021-10-21 16:08:47.480505,-199
2021-10-21 16:08:47.480513,-126
2021-10-21 16:08:47.480522,-70
2021-10-21 16:08:47.480530,-131
2021-10-21 16:08:47.480538,-141
2021-10-21 16:08:47.705279,-102
2021-10-21 16:08:47.705298,-85
2021-10-21 16:08:47.705307,-70
2021-10-21 16:08:47.705316,-46
2021-10-21 16:08:47.705325,-63
2021-10-21 16:08:47.705333,-114
2021-10-21 16:08:47.705342,-85
2021-10-21 16:08:47.705350,2
2021-10-21 16:08:47.705358,-2
2021-10-21 16:08:47.705366,-34
2021-10-21 16:08:47.705375,17
2021-10-21 16:08:47.705383,17
2021-10-21 16:08:47.705391,-26
2021-10-21 16:08:47.705400,7
2021-10-21 16:08:47.705408,19
2021-10-21 16:08:47.705416,-14
2021-10-21 16:08:47.705425,-7
2021-10-21 16:08:47.705433,0
2021-10-21 16:08:47.705441,-14
2021-10-21 16:08:47.705450,-12
2021-10-21 16:08:47.705458,-29
2021-10-21 16:08:47.705466,-72
2021-10-21 16:08:47.705475,-77
2021-10-21 16:08:47.705483,-90
2021-10-21 16:08:47.705491,-141
2021-10-21 16:08:47.705499,-167
2021-10-21 16:08:47.705508,-153
2021-10-21 16:08:47.705516,-141
2021-10-21 16:08:47.705524,-141
2021-10-21 16:08:47.705532,-136
2021-10-21 16:08:47.930289,-124
2021-10-21 16:08:47.930307,-128
2021-10-21 16:08:47.930317,-136
2021-10-21 16:08:47.930325,-102
2021-10-21 16:08:47.930334,-82
2021-10-21 16:08:47.930342,-141
2021-10-21 16:08:47.930350,-158
2021-10-21 16:08:47.930358,-82
2021-10-21 16:08:47.930367,-63
2021-10-21 16:08:47.930375,-99
2021-10-21 16:08:47.930383,-80
2021-10-21 16:08:47.930391,-70
2021-10-21 16:08:47.930399,-92
2021-10-21 16:08:47.930407,-77
2021-10-21 16:08:47.930415,-82
2021-10-21 16:08:47.930424,-102
2021-10-21 16:08:47.930432,-70
2021-10-21 16:08:47.930440,-48
2021-10-21 16:08:47.930453,-68
2021-10-21 16:08:47.930462,-70
2021-10-21 16:08:47.930470,-58
2021-10-21 16:08:47.930478,-38
2021-10-21 16:08:47.930487,-36
2021-10-21 16:08:47.930495,-58
2021-10-21 16:08:47.930503,-36
2021-10-21 16:08:47.930511,-2
2021-10-21 16:08:47.930519,-14
2021-10-21 16:08:47.930528,-24
2021-10-21 16:08:47.930536,-46
2021-10-21 16:08:47.930544,-60
2021-10-21 16:08:48.198946,-12
2021-10-21 16:08:48.198964,-9
2021-10-21 16:08:48.198974,-63
2021-10-21 16:08:48.198983,-43
2021-10-21 16:08:48.198991,-4
2021-10-21 16:08:48.198999,-24
2021-10-21 16:08:48.199008,-24
2021-10-21 16:08:48.199016,-9
2021-10-21 16:08:48.199024,-38
2021-10-21 16:08:48.199033,-104
2021-10-21 16:08:48.199041,-170
2021-10-21 16:08:48.199050,-104
2021-10-21 16:08:48.199058,328
2021-10-21 16:08:48.199066,1155
2021-10-21 16:08:48.199075,1717
2021-10-21 16:08:48.199083,1163
2021-10-21 16:08:48.199091,94
2021-10-21 16:08:48.199099,-153
2021-10-21 16:08:48.199108,72
2021-10-21 16:08:48.199116,-60
2021-10-21 16:08:48.199124,-197
2021-10-21 16:08:48.199133,-102
2021-10-21 16:08:48.199141,-92
2021-10-21 16:08:48.199149,-148
2021-10-21 16:08:48.199157,-109
2021-10-21 16:08:48.199166,-72
2021-10-21 16:08:48.199174,-94
2021-10-21 16:08:48.199182,-104
2021-10-21 16:08:48.199190,-92
2021-10-21 16:08:48.199198,-82
2021-10-21 16:08:48.470300,-63
2021-10-21 16:08:48.470319,-31
2021-10-21 16:08:48.470329,-26
2021-10-21 16:08:48.470337,-38
2021-10-21 16:08:48.470346,-38
2021-10-21 16:08:48.470354,-26
2021-10-21 16:08:48.470362,-9
2021-10-21 16:08:48.470371,4
2021-10-21 16:08:48.470379,4
2021-10-21 16:08:48.470387,-14
2021-10-21 16:08:48.470395,-21
2021-10-21 16:08:48.470404,-7
2021-10-21 16:08:48.470412,-4
2021-10-21 16:08:48.470420,-17
2021-10-21 16:08:48.470428,-26
2021-10-21 16:08:48.470437,-48
2021-10-21 16:08:48.470445,-77
2021-10-21 16:08:48.470453,-92
2021-10-21 16:08:48.470462,-94
2021-10-21 16:08:48.470470,-92
2021-10-21 16:08:48.470478,-114
2021-10-21 16:08:48.470486,-143
2021-10-21 16:08:48.470494,-136
2021-10-21 16:08:48.470503,-124
2021-10-21 16:08:48.470511,-124
2021-10-21 16:08:48.470519,-119
2021-10-21 16:08:48.470528,-114
2021-10-21 16:08:48.470547,-116
2021-10-21 16:08:48.470555,-104
2021-10-21 16:08:48.470563,-87
2021-10-21 16:08:48.650293,-80
2021-10-21 16:08:48.650310,-75
2021-10-21 16:08:48.650320,-72
2021-10-21 16:08:48.650329,-80
2021-10-21 16:08:48.650338,-99
2021-10-21 16:08:48.650346,-109
2021-10-21 16:08:48.650354,-90
2021-10-21 16:08:48.650363,-68
2021-10-21 16:08:48.650371,-70
2021-10-21 16:08:48.650379,-75
2021-10-21 16:08:48.650388,-63
2021-10-21 16:08:48.650396,-70
2021-10-21 16:08:48.650404,-82
2021-10-21 16:08:48.650413,-75
2021-10-21 16:08:48.650421,-75
2021-10-21 16:08:48.650429,-90
2021-10-21 16:08:48.650438,-80
2021-10-21 16:08:48.650446,-48
2021-10-21 16:08:48.650455,-29
2021-10-21 16:08:48.650463,-26
2021-10-21 16:08:48.650471,-34
2021-10-21 16:08:48.650480,-48
2021-10-21 16:08:48.650488,-55
2021-10-21 16:08:48.650496,-53
2021-10-21 16:08:48.650505,-43
2021-10-21 16:08:48.650513,-34
2021-10-21 16:08:48.650521,-53
2021-10-21 16:08:48.650529,-60
2021-10-21 16:08:48.650538,-43
2021-10-21 16:08:48.650546,-48
2021-10-21 16:08:48.875294,-65
2021-10-21 16:08:48.875313,-65
2021-10-21 16:08:48.875323,-104
2021-10-21 16:08:48.875331,-187
2021-10-21 16:08:48.875340,-153
2021-10-21 16:08:48.875348,211
2021-10-21 16:08:48.875357,961
2021-10-21 16:08:48.875365,1605
2021-10-21 16:08:48.875373,1240
2021-10-21 16:08:48.875382,163
2021-10-21 16:08:48.875390,-221
2021-10-21 16:08:48.875399,4
2021-10-21 16:08:48.875407,-58
2021-10-21 16:08:48.875415,-206
2021-10-21 16:08:48.875424,-145
2021-10-21 16:08:48.875432,-116
2021-10-21 16:08:48.875440,-150
2021-10-21 16:08:48.875448,-141
2021-10-21 16:08:48.875456,-131
2021-10-21 16:08:48.875465,-136
2021-10-21 16:08:48.875473,-126
2021-10-21 16:08:48.875481,-111
2021-10-21 16:08:48.875490,-92
2021-10-21 16:08:48.875498,-65
2021-10-21 16:08:48.875506,-53
2021-10-21 16:08:48.875514,-58
2021-10-21 16:08:48.875523,-53
2021-10-21 16:08:48.875531,-31
2021-10-21 16:08:48.875539,-12
2021-10-21 16:08:48.875547,-7
2021-10-21 16:08:49.100312,-4
2021-10-21 16:08:49.100331,-4
2021-10-21 16:08:49.100340,-7
2021-10-21 16:08:49.100349,-2
2021-10-21 16:08:49.100357,2
2021-10-21 16:08:49.100366,4
2021-10-21 16:08:49.100374,0
2021-10-21 16:08:49.100383,-17
2021-10-21 16:08:49.100391,-55
2021-10-21 16:08:49.100399,-102
2021-10-21 16:08:49.100408,-128
2021-10-21 16:08:49.100416,-136
2021-10-21 16:08:49.100425,-145
2021-10-21 16:08:49.100433,-155
2021-10-21 16:08:49.100441,-165
2021-10-21 16:08:49.100449,-163
2021-10-21 16:08:49.100458,-155
2021-10-21 16:08:49.100466,-148
2021-10-21 16:08:49.100474,-138
2021-10-21 16:08:49.100483,-128
2021-10-21 16:08:49.100491,-114
2021-10-21 16:08:49.100499,-102
2021-10-21 16:08:49.100508,-94
2021-10-21 16:08:49.100516,-90
2021-10-21 16:08:49.100524,-77
2021-10-21 16:08:49.100533,-72
2021-10-21 16:08:49.100541,-72
2021-10-21 16:08:49.100549,-70
2021-10-21 16:08:49.100558,-60
2021-10-21 16:08:49.100566,-53
2021-10-21 16:08:49.370322,-51
2021-10-21 16:08:49.370340,-43
2021-10-21 16:08:49.370350,-43
2021-10-21 16:08:49.370359,-60
2021-10-21 16:08:49.370367,-68
2021-10-21 16:08:49.370376,-53
2021-10-21 16:08:49.370384,-58
2021-10-21 16:08:49.370393,-75
2021-10-21 16:08:49.370401,-65
2021-10-21 16:08:49.370409,-58
2021-10-21 16:08:49.370418,-63
2021-10-21 16:08:49.370426,-48
2021-10-21 16:08:49.370434,-29
2021-10-21 16:08:49.370443,-29
2021-10-21 16:08:49.370451,-34
2021-10-21 16:08:49.370459,-29
2021-10-21 16:08:49.370468,-34
2021-10-21 16:08:49.370476,-41
2021-10-21 16:08:49.370484,-43
2021-10-21 16:08:49.370492,-46
2021-10-21 16:08:49.370501,-38
2021-10-21 16:08:49.370509,-29
2021-10-21 16:08:49.370517,-29
2021-10-21 16:08:49.370525,-29
2021-10-21 16:08:49.370533,-21
2021-10-21 16:08:49.370542,-31
2021-10-21 16:08:49.370550,-80
2021-10-21 16:08:49.370558,-155
2021-10-21 16:08:49.370566,-114
2021-10-21 16:08:49.370575,270
2021-10-21 16:08:49.595298,1031
2021-10-21 16:08:49.595317,1591
2021-10-21 16:08:49.595327,1077
2021-10-21 16:08:49.595335,14
2021-10-21 16:08:49.595344,-211
2021-10-21 16:08:49.595352,72
2021-10-21 16:08:49.595360,-34
2021-10-21 16:08:49.595368,-160
2021-10-21 16:08:49.595377,-65
2021-10-21 16:08:49.595385,-58
2021-10-21 16:08:49.595393,-99
2021-10-21 16:08:49.595402,-63
2021-10-21 16:08:49.595410,-51
2021-10-21 16:08:49.595418,-68
2021-10-21 16:08:49.595426,-58
2021-10-21 16:08:49.595435,-68
2021-10-21 16:08:49.595443,-80
2021-10-21 16:08:49.595451,-58
2021-10-21 16:08:49.595459,-53
2021-10-21 16:08:49.595468,-55
2021-10-21 16:08:49.595476,-29
2021-10-21 16:08:49.595484,-2
2021-10-21 16:08:49.595492,9
2021-10-21 16:08:49.595501,12
2021-10-21 16:08:49.595509,9
2021-10-21 16:08:49.595517,12
2021-10-21 16:08:49.595525,19
2021-10-21 16:08:49.595534,21
2021-10-21 16:08:49.595542,12
2021-10-21 16:08:49.595550,-2
2021-10-21 16:08:49.775299,0
2021-10-21 16:08:49.775317,0
2021-10-21 16:08:49.775327,-29
2021-10-21 16:08:49.775335,-65
2021-10-21 16:08:49.775344,-85
2021-10-21 16:08:49.775352,-107
2021-10-21 16:08:49.775360,-133
2021-10-21 16:08:49.775368,-148
2021-10-21 16:08:49.775376,-163
2021-10-21 16:08:49.775385,-170
2021-10-21 16:08:49.775393,-160
2021-10-21 16:08:49.775401,-148
2021-10-21 16:08:49.775410,-145
2021-10-21 16:08:49.775418,-138
2021-10-21 16:08:49.775426,-128
2021-10-21 16:08:49.775434,-119
2021-10-21 16:08:49.775443,-116
2021-10-21 16:08:49.775451,-116
2021-10-21 16:08:49.775459,-109
2021-10-21 16:08:49.775468,-92
2021-10-21 16:08:49.775476,-80
2021-10-21 16:08:49.775484,-77
2021-10-21 16:08:49.775492,-75
2021-10-21 16:08:49.775500,-68
2021-10-21 16:08:49.775509,-70
2021-10-21 16:08:49.775517,-72
2021-10-21 16:08:49.775525,-60
2021-10-21 16:08:49.775533,-43
2021-10-21 16:08:49.775541,-51
2021-10-21 16:08:49.775550,-65
2021-10-21 16:08:50.000331,-60
2021-10-21 16:08:50.000349,-51
2021-10-21 16:08:50.000359,-51
2021-10-21 16:08:50.000368,-51
2021-10-21 16:08:50.000376,-51
2021-10-21 16:08:50.000385,-51
2021-10-21 16:08:50.000393,-31
2021-10-21 16:08:50.000402,-9
2021-10-21 16:08:50.000410,-12
2021-10-21 16:08:50.000418,-29
2021-10-21 16:08:50.000427,-53
2021-10-21 16:08:50.000435,-68
2021-10-21 16:08:50.000444,-65
2021-10-21 16:08:50.000452,-55
2021-10-21 16:08:50.000460,-63
2021-10-21 16:08:50.000469,-72
2021-10-21 16:08:50.000477,-53
2021-10-21 16:08:50.000485,-36
2021-10-21 16:08:50.000494,-38
2021-10-21 16:08:50.000502,-34
2021-10-21 16:08:50.000510,-41
2021-10-21 16:08:50.000518,-114
2021-10-21 16:08:50.000527,-206
2021-10-21 16:08:50.000535,-136
2021-10-21 16:08:50.000543,313
2021-10-21 16:08:50.000551,1121
2021-10-21 16:08:50.000560,1610
2021-10-21 16:08:50.000568,980
2021-10-21 16:08:50.000576,-41
2021-10-21 16:08:50.000584,-187
2021-10-21 16:08:50.268992,68
2021-10-21 16:08:50.269012,-43
2021-10-21 16:08:50.269022,-150
2021-10-21 16:08:50.269030,-85
2021-10-21 16:08:50.269039,-97
2021-10-21 16:08:50.269048,-133
2021-10-21 16:08:50.269056,-87
2021-10-21 16:08:50.269064,-55
2021-10-21 16:08:50.269073,-77
2021-10-21 16:08:50.269081,-94
2021-10-21 16:08:50.269089,-80
2021-10-21 16:08:50.269098,-75
2021-10-21 16:08:50.269106,-80
2021-10-21 16:08:50.269114,-65
2021-10-21 16:08:50.269123,-51
2021-10-21 16:08:50.269131,-46
2021-10-21 16:08:50.269160,-31
2021-10-21 16:08:50.269169,-14
2021-10-21 16:08:50.269177,-14
2021-10-21 16:08:50.269185,-19
2021-10-21 16:08:50.269194,-19
2021-10-21 16:08:50.269202,-12
2021-10-21 16:08:50.269210,-14
2021-10-21 16:08:50.269218,-21
2021-10-21 16:08:50.269227,-12
2021-10-21 16:08:50.269235,-4
2021-10-21 16:08:50.269243,-19
2021-10-21 16:08:50.269251,-46
2021-10-21 16:08:50.269259,-68
2021-10-21 16:08:50.269267,-92
2021-10-21 16:08:50.495311,-104
2021-10-21 16:08:50.495330,-111
2021-10-21 16:08:50.495339,-133
2021-10-21 16:08:50.495348,-158
2021-10-21 16:08:50.495357,-163
2021-10-21 16:08:50.495365,-150
2021-10-21 16:08:50.495373,-136
2021-10-21 16:08:50.495382,-126
2021-10-21 16:08:50.495390,-133
2021-10-21 16:08:50.495398,-136
2021-10-21 16:08:50.495407,-114
2021-10-21 16:08:50.495415,-97
2021-10-21 16:08:50.495423,-94
2021-10-21 16:08:50.495432,-94
2021-10-21 16:08:50.495440,-92
2021-10-21 16:08:50.495448,-92
2021-10-21 16:08:50.495457,-85
2021-10-21 16:08:50.495465,-72
2021-10-21 16:08:50.495473,-68
2021-10-21 16:08:50.495481,-63
2021-10-21 16:08:50.495490,-60
2021-10-21 16:08:50.495498,-77
2021-10-21 16:08:50.495506,-75
2021-10-21 16:08:50.495514,-43
2021-10-21 16:08:50.495523,-26
2021-10-21 16:08:50.495531,-41
2021-10-21 16:08:50.495539,-58
2021-10-21 16:08:50.495547,-58
2021-10-21 16:08:50.495555,-53
2021-10-21 16:08:50.495563,-63
2021-10-21 16:08:50.720309,-60
2021-10-21 16:08:50.720328,-38
2021-10-21 16:08:50.720338,-21
2021-10-21 16:08:50.720347,-14
2021-10-21 16:08:50.720355,-12
2021-10-21 16:08:50.720363,-2
2021-10-21 16:08:50.720372,-4
2021-10-21 16:08:50.720380,-24
2021-10-21 16:08:50.720388,-46
2021-10-21 16:08:50.720396,-48
2021-10-21 16:08:50.720405,-26
2021-10-21 16:08:50.720413,-19
2021-10-21 16:08:50.720421,-24
2021-10-21 16:08:50.720430,-19
2021-10-21 16:08:50.720438,-29
2021-10-21 16:08:50.720446,-51
2021-10-21 16:08:50.720454,-68
2021-10-21 16:08:50.720462,-116
2021-10-21 16:08:50.720471,-163
2021-10-21 16:08:50.720479,-9
2021-10-21 16:08:50.720487,552
2021-10-21 16:08:50.720495,1377
2021-10-21 16:08:50.720504,1601
2021-10-21 16:08:50.720512,700
2021-10-21 16:08:50.720520,-163
2021-10-21 16:08:50.720528,-97
2021-10-21 16:08:50.720537,55
2021-10-21 16:08:50.720545,-124
2021-10-21 16:08:50.720553,-167
2021-10-21 16:08:50.720562,-82
2021-10-21 16:08:50.945311,-92
2021-10-21 16:08:50.945329,-124
2021-10-21 16:08:50.945339,-119
2021-10-21 16:08:50.945347,-116
2021-10-21 16:08:50.945356,-104
2021-10-21 16:08:50.945364,-87
2021-10-21 16:08:50.945372,-75
2021-10-21 16:08:50.945381,-53
2021-10-21 16:08:50.945389,-38
2021-10-21 16:08:50.945397,-29
2021-10-21 16:08:50.945406,-19
2021-10-21 16:08:50.945414,-21
2021-10-21 16:08:50.945428,-17
2021-10-21 16:08:50.945437,-14
2021-10-21 16:08:50.945445,-14
2021-10-21 16:08:50.945453,-14
2021-10-21 16:08:50.945461,-2
2021-10-21 16:08:50.945470,14
2021-10-21 16:08:50.945478,-12
2021-10-21 16:08:50.945486,-36
2021-10-21 16:08:50.945494,-7
2021-10-21 16:08:50.945503,14
2021-10-21 16:08:50.945511,-12
2021-10-21 16:08:50.945519,-46
2021-10-21 16:08:50.945528,-72
2021-10-21 16:08:50.945536,-97
2021-10-21 16:08:50.945544,-114
2021-10-21 16:08:50.945552,-131
2021-10-21 16:08:50.945560,-143
2021-10-21 16:08:50.945569,-143
2021-10-21 16:08:51.170356,-136
2021-10-21 16:08:51.170375,-128
2021-10-21 16:08:51.170384,-131
2021-10-21 16:08:51.170393,-145
2021-10-21 16:08:51.170401,-136
2021-10-21 16:08:51.170410,-119
2021-10-21 16:08:51.170418,-124
2021-10-21 16:08:51.170426,-136
2021-10-21 16:08:51.170435,-121
2021-10-21 16:08:51.170443,-92
2021-10-21 16:08:51.170451,-87
2021-10-21 16:08:51.170459,-94
2021-10-21 16:08:51.170467,-90
2021-10-21 16:08:51.170476,-82
2021-10-21 16:08:51.170484,-77
2021-10-21 16:08:51.170492,-77
2021-10-21 16:08:51.170500,-70
2021-10-21 16:08:51.170509,-58
2021-10-21 16:08:51.170517,-68
2021-10-21 16:08:51.170525,-77
2021-10-21 16:08:51.170533,-72
2021-10-21 16:08:51.170541,-68
2021-10-21 16:08:51.170550,-70
2021-10-21 16:08:51.170558,-65
2021-10-21 16:08:51.170566,-60
2021-10-21 16:08:51.170574,-53
2021-10-21 16:08:51.170582,-46
2021-10-21 16:08:51.170590,-46
2021-10-21 16:08:51.170598,-36
2021-10-21 16:08:51.170607,-12
2021-10-21 16:08:51.395326,2
2021-10-21 16:08:51.395345,-4
2021-10-21 16:08:51.395354,-9
2021-10-21 16:08:51.395363,-4
2021-10-21 16:08:51.395371,-4
2021-10-21 16:08:51.395380,-17
2021-10-21 16:08:51.395388,-24
2021-10-21 16:08:51.395397,-17
2021-10-21 16:08:51.395405,-19
2021-10-21 16:08:51.395413,-24
2021-10-21 16:08:51.395422,-9
2021-10-21 16:08:51.395430,-7
2021-10-21 16:08:51.395438,-21
2021-10-21 16:08:51.395447,-43
2021-10-21 16:08:51.395455,-97
2021-10-21 16:08:51.395463,-155
2021-10-21 16:08:51.395471,-24
2021-10-21 16:08:51.395480,513
2021-10-21 16:08:51.395488,1328
2021-10-21 16:08:51.395496,1613
2021-10-21 16:08:51.395505,795
2021-10-21 16:08:51.395513,-97
2021-10-21 16:08:51.395521,-94
2021-10-21 16:08:51.395529,60
2021-10-21 16:08:51.395538,-107
2021-10-21 16:08:51.395546,-158
2021-10-21 16:08:51.395555,-97
2021-10-21 16:08:51.395563,-124
2021-10-21 16:08:51.395571,-131
2021-10-21 16:08:51.395580,-87
2021-10-21 16:08:51.620388,-85
2021-10-21 16:08:51.620410,-90
2021-10-21 16:08:51.620419,-63
2021-10-21 16:08:51.620428,-46
2021-10-21 16:08:51.620437,-43
2021-10-21 16:08:51.620445,-46
2021-10-21 16:08:51.620453,-53
2021-10-21 16:08:51.620462,-63
2021-10-21 16:08:51.620470,-63
2021-10-21 16:08:51.620479,-55
2021-10-21 16:08:51.620487,-43
2021-10-21 16:08:51.620495,-31
2021-10-21 16:08:51.620504,-26
2021-10-21 16:08:51.620512,-24
2021-10-21 16:08:51.620520,-14
2021-10-21 16:08:51.620529,-17
2021-10-21 16:08:51.620537,-29
2021-10-21 16:08:51.620546,-24
2021-10-21 16:08:51.620554,-9
2021-10-21 16:08:51.620563,-19
2021-10-21 16:08:51.620571,-53
2021-10-21 16:08:51.620579,-82
2021-10-21 16:08:51.620588,-92
2021-10-21 16:08:51.620596,-99
2021-10-21 16:08:51.620604,-126
2021-10-21 16:08:51.620613,-138
2021-10-21 16:08:51.620621,-124
2021-10-21 16:08:51.620629,-119
2021-10-21 16:08:51.620638,-131
2021-10-21 16:08:51.620646,-124
2021-10-21 16:08:51.889734,-114
2021-10-21 16:08:51.889753,-107
2021-10-21 16:08:51.889763,-85
2021-10-21 16:08:51.889772,-75
2021-10-21 16:08:51.889780,-85
2021-10-21 16:08:51.889788,-92
2021-10-21 16:08:51.889797,-77
2021-10-21 16:08:51.889805,-65
2021-10-21 16:08:51.889813,-58
2021-10-21 16:08:51.889821,-55
2021-10-21 16:08:51.889830,-65
2021-10-21 16:08:51.889838,-70
2021-10-21 16:08:51.889846,-55
2021-10-21 16:08:51.889854,-48
2021-10-21 16:08:51.889863,-51
2021-10-21 16:08:51.889871,-53
2021-10-21 16:08:51.889879,-51
2021-10-21 16:08:51.889888,-41
2021-10-21 16:08:51.889896,-36
2021-10-21 16:08:51.889904,-41
2021-10-21 16:08:51.889912,-34
2021-10-21 16:08:51.889921,-31
2021-10-21 16:08:51.889929,-36
2021-10-21 16:08:51.889937,-38
2021-10-21 16:08:51.889945,-38
2021-10-21 16:08:51.889954,-31
2021-10-21 16:08:51.889962,-31
2021-10-21 16:08:51.889970,-21
2021-10-21 16:08:51.889978,2
2021-10-21 16:08:51.889986,4
2021-10-21 16:08:52.070364,-4
2021-10-21 16:08:52.070383,2
2021-10-21 16:08:52.070392,4
2021-10-21 16:08:52.070401,-14
2021-10-21 16:08:52.070409,-34
2021-10-21 16:08:52.070418,-29
2021-10-21 16:08:52.070426,-17
2021-10-21 16:08:52.070435,-14
2021-10-21 16:08:52.070443,-17
2021-10-21 16:08:52.070452,-26
2021-10-21 16:08:52.070460,-38
2021-10-21 16:08:52.070469,-31
2021-10-21 16:08:52.070477,-68
2021-10-21 16:08:52.070486,-160
2021-10-21 16:08:52.070494,-141
2021-10-21 16:08:52.070502,223
2021-10-21 16:08:52.070511,992
2021-10-21 16:08:52.070519,1630
2021-10-21 16:08:52.070527,1228
2021-10-21 16:08:52.070536,150
2021-10-21 16:08:52.070544,-209
2021-10-21 16:08:52.070552,17
2021-10-21 16:08:52.070561,-63
2021-10-21 16:08:52.070569,-214
2021-10-21 16:08:52.070577,-141
2021-10-21 16:08:52.070585,-99
2021-10-21 16:08:52.070593,-128
2021-10-21 16:08:52.070602,-111
2021-10-21 16:08:52.070610,-104
2021-10-21 16:08:52.070618,-114
2021-10-21 16:08:52.429073,-104
2021-10-21 16:08:52.429093,-90
2021-10-21 16:08:52.429103,-92
2021-10-21 16:08:52.429112,-99
2021-10-21 16:08:52.429120,-85
2021-10-21 16:08:52.429129,-60
2021-10-21 16:08:52.429137,-55
2021-10-21 16:08:52.429145,-38
2021-10-21 16:08:52.429154,-17
2021-10-21 16:08:52.429162,-26
2021-10-21 16:08:52.429171,-29
2021-10-21 16:08:52.429179,2
2021-10-21 16:08:52.429188,21
2021-10-21 16:08:52.429196,14
2021-10-21 16:08:52.429204,14
2021-10-21 16:08:52.429213,17
2021-10-21 16:08:52.429221,7
2021-10-21 16:08:52.429229,0
2021-10-21 16:08:52.429238,-14
2021-10-21 16:08:52.429246,-38
2021-10-21 16:08:52.429255,-63
2021-10-21 16:08:52.429263,-85
2021-10-21 16:08:52.429271,-94
2021-10-21 16:08:52.429279,-102
2021-10-21 16:08:52.429288,-107
2021-10-21 16:08:52.429296,-107
2021-10-21 16:08:52.429304,-107
2021-10-21 16:08:52.429312,-107
2021-10-21 16:08:52.429321,-87
2021-10-21 16:08:52.429340,-72
2021-10-21 16:08:52.565307,-82
2021-10-21 16:08:52.565326,-92
2021-10-21 16:08:52.565336,-85
2021-10-21 16:08:52.565345,-77
2021-10-21 16:08:52.565353,-70
2021-10-21 16:08:52.565362,-55
2021-10-21 16:08:52.565370,-46
2021-10-21 16:08:52.565378,-51
2021-10-21 16:08:52.565387,-46
2021-10-21 16:08:52.565395,-34
2021-10-21 16:08:52.565404,-29
2021-10-21 16:08:52.565412,-34
2021-10-21 16:08:52.565420,-29
2021-10-21 16:08:52.565429,-26
2021-10-21 16:08:52.565437,-43
2021-10-21 16:08:52.565445,-46
2021-10-21 16:08:52.565454,-29
2021-10-21 16:08:52.565462,-24
2021-10-21 16:08:52.565470,-41
2021-10-21 16:08:52.565479,-63
2021-10-21 16:08:52.565487,-75
2021-10-21 16:08:52.565495,-70
2021-10-21 16:08:52.565503,-63
2021-10-21 16:08:52.565512,-58
2021-10-21 16:08:52.565520,-55
2021-10-21 16:08:52.565528,-53
2021-10-21 16:08:52.565537,-34
2021-10-21 16:08:52.565545,-9
2021-10-21 16:08:52.565553,-7
2021-10-21 16:08:52.565562,-7
2021-10-21 16:08:52.790350,7
2021-10-21 16:08:52.790367,0
2021-10-21 16:08:52.790377,-31
2021-10-21 16:08:52.790386,-46
2021-10-21 16:08:52.790394,-31
2021-10-21 16:08:52.790403,-14
2021-10-21 16:08:52.790411,-19
2021-10-21 16:08:52.790420,-29
2021-10-21 16:08:52.790428,-29
2021-10-21 16:08:52.790436,-21
2021-10-21 16:08:52.790445,-29
2021-10-21 16:08:52.790453,-75
2021-10-21 16:08:52.790462,-163
2021-10-21 16:08:52.790470,-148
2021-10-21 16:08:52.790479,214
2021-10-21 16:08:52.790487,985
2021-10-21 16:08:52.790495,1627
2021-10-21 16:08:52.790504,1223
2021-10-21 16:08:52.790512,128
2021-10-21 16:08:52.790521,-228
2021-10-21 16:08:52.790529,41
2021-10-21 16:08:52.790537,-21
2021-10-21 16:08:52.790546,-197
2021-10-21 16:08:52.790559,-131
2021-10-21 16:08:52.790568,-87
2021-10-21 16:08:52.790577,-128
2021-10-21 16:08:52.790585,-128
2021-10-21 16:08:52.790593,-114
2021-10-21 16:08:52.790602,-107
2021-10-21 16:08:52.790610,-80
2021-10-21 16:08:53.060370,-60
2021-10-21 16:08:53.060389,-58
2021-10-21 16:08:53.060399,-53
2021-10-21 16:08:53.060408,-48
2021-10-21 16:08:53.060416,-53
2021-10-21 16:08:53.060424,-46
2021-10-21 16:08:53.060433,-31
2021-10-21 16:08:53.060441,-24
2021-10-21 16:08:53.060450,-12
2021-10-21 16:08:53.060458,9
2021-10-21 16:08:53.060466,19
2021-10-21 16:08:53.060475,19
2021-10-21 16:08:53.060483,14
2021-10-21 16:08:53.060491,9
2021-10-21 16:08:53.060499,7
2021-10-21 16:08:53.060508,2
2021-10-21 16:08:53.060516,-12
2021-10-21 16:08:53.060524,-29
2021-10-21 16:08:53.060532,-51
2021-10-21 16:08:53.060541,-68
2021-10-21 16:08:53.060549,-72
2021-10-21 16:08:53.060557,-82
2021-10-21 16:08:53.060566,-97
2021-10-21 16:08:53.060574,-102
2021-10-21 16:08:53.060582,-114
2021-10-21 16:08:53.060591,-124
2021-10-21 16:08:53.060599,-109
2021-10-21 16:08:53.060607,-107
2021-10-21 16:08:53.060615,-121
2021-10-21 16:08:53.060624,-99
2021-10-21 16:08:53.240333,-75
2021-10-21 16:08:53.240351,-75
2021-10-21 16:08:53.240361,-55
2021-10-21 16:08:53.240370,-38
2021-10-21 16:08:53.240378,-43
2021-10-21 16:08:53.240387,-43
2021-10-21 16:08:53.240395,-48
2021-10-21 16:08:53.240404,-51
2021-10-21 16:08:53.240412,-36
2021-10-21 16:08:53.240421,-31
2021-10-21 16:08:53.240429,-38
2021-10-21 16:08:53.240437,-38
2021-10-21 16:08:53.240446,-46
2021-10-21 16:08:53.240454,-46
2021-10-21 16:08:53.240463,-34
2021-10-21 16:08:53.240471,-29
2021-10-21 16:08:53.240479,-31
2021-10-21 16:08:53.240487,-41
2021-10-21 16:08:53.240496,-51
2021-10-21 16:08:53.240504,-41
2021-10-21 16:08:53.240512,-31
2021-10-21 16:08:53.240521,-36
2021-10-21 16:08:53.240529,-36
2021-10-21 16:08:53.240537,-26
2021-10-21 16:08:53.240545,-21
2021-10-21 16:08:53.240554,-19
2021-10-21 16:08:53.240562,-21
2021-10-21 16:08:53.240570,-19
2021-10-21 16:08:53.240579,0
2021-10-21 16:08:53.240587,17
2021-10-21 16:08:53.554675,19
2021-10-21 16:08:53.554693,24
2021-10-21 16:08:53.554703,19
2021-10-21 16:08:53.554711,-2
2021-10-21 16:08:53.554720,-14
2021-10-21 16:08:53.554728,-7
2021-10-21 16:08:53.554737,-4
2021-10-21 16:08:53.554745,-14
2021-10-21 16:08:53.554754,-29
2021-10-21 16:08:53.554762,-29
2021-10-21 16:08:53.554770,-21
2021-10-21 16:08:53.554779,-36
2021-10-21 16:08:53.554787,-72
2021-10-21 16:08:53.554795,-128
2021-10-21 16:08:53.554803,-167
2021-10-21 16:08:53.554811,14
2021-10-21 16:08:53.554820,637
2021-10-21 16:08:53.554828,1476
2021-10-21 16:08:53.554836,1603
2021-10-21 16:08:53.554845,615
2021-10-21 16:08:53.554853,-218
2021-10-21 16:08:53.554861,-90
2021-10-21 16:08:53.554869,38
2021-10-21 16:08:53.554877,-170
2021-10-21 16:08:53.554886,-182
2021-10-21 16:08:53.554894,-99
2021-10-21 16:08:53.554902,-138
2021-10-21 16:08:53.554910,-145
2021-10-21 16:08:53.554919,-102
2021-10-21 16:08:53.554927,-102
2021-10-21 16:08:53.690377,-119
2021-10-21 16:08:53.690396,-97
2021-10-21 16:08:53.690405,-72
2021-10-21 16:08:53.690414,-68
2021-10-21 16:08:53.690422,-65
2021-10-21 16:08:53.690430,-53
2021-10-21 16:08:53.690439,-34
2021-10-21 16:08:53.690447,-21
2021-10-21 16:08:53.690456,-12
2021-10-21 16:08:53.690464,-7
2021-10-21 16:08:53.690472,4
2021-10-21 16:08:53.690481,26
2021-10-21 16:08:53.690489,38
2021-10-21 16:08:53.690497,38
2021-10-21 16:08:53.690505,43
2021-10-21 16:08:53.690514,46
2021-10-21 16:08:53.690522,43
2021-10-21 16:08:53.690530,26
2021-10-21 16:08:53.690538,-2
2021-10-21 16:08:53.690546,-26
2021-10-21 16:08:53.690555,-43
2021-10-21 16:08:53.690563,-68
2021-10-21 16:08:53.690571,-97
2021-10-21 16:08:53.690579,-116
2021-10-21 16:08:53.690587,-116
2021-10-21 16:08:53.690596,-109
2021-10-21 16:08:53.690604,-109
2021-10-21 16:08:53.690612,-116
2021-10-21 16:08:53.690620,-114
2021-10-21 16:08:53.690628,-99
2021-10-21 16:08:53.915370,-85
2021-10-21 16:08:53.915389,-82
2021-10-21 16:08:53.915399,-82
2021-10-21 16:08:53.915408,-82
2021-10-21 16:08:53.915416,-77
2021-10-21 16:08:53.915425,-53
2021-10-21 16:08:53.915433,-36
2021-10-21 16:08:53.915442,-41
2021-10-21 16:08:53.915450,-51
2021-10-21 16:08:53.915459,-58
2021-10-21 16:08:53.915467,-63
2021-10-21 16:08:53.915475,-60
2021-10-21 16:08:53.915483,-51
2021-10-21 16:08:53.915492,-51
2021-10-21 16:08:53.915500,-55
2021-10-21 16:08:53.915508,-55
2021-10-21 16:08:53.915516,-55
2021-10-21 16:08:53.915525,-51
2021-10-21 16:08:53.915533,-38
2021-10-21 16:08:53.915541,-41
2021-10-21 16:08:53.915550,-38
2021-10-21 16:08:53.915558,-29
2021-10-21 16:08:53.915571,-36
2021-10-21 16:08:53.915580,-43
2021-10-21 16:08:53.915588,-29
2021-10-21 16:08:53.915596,-2
2021-10-21 16:08:53.915604,14
2021-10-21 16:08:53.915613,7
2021-10-21 16:08:53.915621,-2
2021-10-21 16:08:53.915629,21
2021-10-21 16:08:54.185823,24
2021-10-21 16:08:54.185893,-2
2021-10-21 16:08:54.185899,-21
2021-10-21 16:08:54.185954,-34
2021-10-21 16:08:54.185959,-38
2021-10-21 16:08:54.185963,-41
2021-10-21 16:08:54.185968,-51
2021-10-21 16:08:54.185972,-38
2021-10-21 16:08:54.186027,-41
2021-10-21 16:08:54.186032,-85
2021-10-21 16:08:54.186036,-107
2021-10-21 16:08:54.186040,-138
2021-10-21 16:08:54.186045,-167
2021-10-21 16:08:54.186100,70
2021-10-21 16:08:54.186105,793
2021-10-21 16:08:54.186109,1571
2021-10-21 16:08:54.186113,1433
2021-10-21 16:08:54.186117,364
2021-10-21 16:08:54.186171,-240
2021-10-21 16:08:54.186176,-43
2021-10-21 16:08:54.186180,-21
2021-10-21 16:08:54.186185,-216
2021-10-21 16:08:54.186189,-180
2021-10-21 16:08:54.186236,-114
2021-10-21 16:08:54.186240,-143
2021-10-21 16:08:54.186245,-128
2021-10-21 16:08:54.186249,-109
2021-10-21 16:08:54.186253,-126
2021-10-21 16:08:54.186301,-111
2021-10-21 16:08:54.186306,-85
2021-10-21 16:08:54.454073,-85
2021-10-21 16:08:54.454094,-68
2021-10-21 16:08:54.454104,-43
2021-10-21 16:08:54.454112,-55
2021-10-21 16:08:54.454121,-60
2021-10-21 16:08:54.454129,-36
2021-10-21 16:08:54.454138,-14
2021-10-21 16:08:54.454146,-9
2021-10-21 16:08:54.454154,-26
2021-10-21 16:08:54.454163,-38
2021-10-21 16:08:54.454171,-21
2021-10-21 16:08:54.454179,9
2021-10-21 16:08:54.454188,24
2021-10-21 16:08:54.454196,12
2021-10-21 16:08:54.454204,-14
2021-10-21 16:08:54.454213,-26
2021-10-21 16:08:54.454221,-41
2021-10-21 16:08:54.454229,-75
2021-10-21 16:08:54.454237,-90
2021-10-21 16:08:54.454246,-65
2021-10-21 16:08:54.454254,-60
2021-10-21 16:08:54.454262,-85
2021-10-21 16:08:54.454271,-94
2021-10-21 16:08:54.454279,-85
2021-10-21 16:08:54.454287,-80
2021-10-21 16:08:54.454295,-72
2021-10-21 16:08:54.454304,-70
2021-10-21 16:08:54.454312,-80
2021-10-21 16:08:54.454320,-68
2021-10-21 16:08:54.454328,-38
2021-10-21 16:08:54.635351,-34
2021-10-21 16:08:54.635370,-55
2021-10-21 16:08:54.635380,-68
2021-10-21 16:08:54.635389,-68
2021-10-21 16:08:54.635397,-51
2021-10-21 16:08:54.635406,-31
2021-10-21 16:08:54.635414,-31
2021-10-21 16:08:54.635423,-24
2021-10-21 16:08:54.635431,-41
2021-10-21 16:08:54.635439,-82
2021-10-21 16:08:54.635448,-87
2021-10-21 16:08:54.635456,-70
2021-10-21 16:08:54.635464,-46
2021-10-21 16:08:54.635473,-43
2021-10-21 16:08:54.635481,-114
2021-10-21 16:08:54.635489,-138
2021-10-21 16:08:54.635498,-36
2021-10-21 16:08:54.635506,36
2021-10-21 16:08:54.635514,-17
2021-10-21 16:08:54.635523,-60
2021-10-21 16:08:54.635531,-43
2021-10-21 16:08:54.635539,-34
2021-10-21 16:08:54.635547,-38
2021-10-21 16:08:54.635556,-24
2021-10-21 16:08:54.635564,4
2021-10-21 16:08:54.635572,12
2021-10-21 16:08:54.635580,-2
2021-10-21 16:08:54.635589,-12
2021-10-21 16:08:54.635597,-21
2021-10-21 16:08:54.635605,-34
2021-10-21 16:08:54.860377,-26
2021-10-21 16:08:54.860396,-21
2021-10-21 16:08:54.860406,-58
2021-10-21 16:08:54.860414,-102
2021-10-21 16:08:54.860423,-80
2021-10-21 16:08:54.860431,-41
2021-10-21 16:08:54.860439,-63
2021-10-21 16:08:54.860448,-70
2021-10-21 16:08:54.860456,-63
2021-10-21 16:08:54.860464,-111
2021-10-21 16:08:54.860472,-114
2021-10-21 16:08:54.860481,68
2021-10-21 16:08:54.860489,554
2021-10-21 16:08:54.860497,1270
2021-10-21 16:08:54.860505,1467
2021-10-21 16:08:54.860514,676
2021-10-21 16:08:54.860522,-97
2021-10-21 16:08:54.860530,-94
2021-10-21 16:08:54.860539,-12
2021-10-21 16:08:54.860547,-172
2021-10-21 16:08:54.860555,-192
2021-10-21 16:08:54.860563,-148
2021-10-21 16:08:54.860572,-201
2021-10-21 16:08:54.860580,-199
2021-10-21 16:08:54.860588,-141
2021-10-21 16:08:54.860597,-128
2021-10-21 16:08:54.860605,-131
2021-10-21 16:08:54.860613,-126
2021-10-21 16:08:54.860622,-128
2021-10-21 16:08:54.860630,-111
2021-10-21 16:08:55.085509,-77
2021-10-21 16:08:55.085531,-60
2021-10-21 16:08:55.085540,-60
2021-10-21 16:08:55.085549,-58
2021-10-21 16:08:55.085558,-29
2021-10-21 16:08:55.085566,-14
2021-10-21 16:08:55.085574,-41
2021-10-21 16:08:55.085583,-43
2021-10-21 16:08:55.085591,21
2021-10-21 16:08:55.085599,77
2021-10-21 16:08:55.085608,58
2021-10-21 16:08:55.085616,21
2021-10-21 16:08:55.085624,24
2021-10-21 16:08:55.085632,46
2021-10-21 16:08:55.085641,31
2021-10-21 16:08:55.085649,-14
2021-10-21 16:08:55.085657,-43
2021-10-21 16:08:55.085665,-68
2021-10-21 16:08:55.085673,-99
2021-10-21 16:08:55.085681,-114
2021-10-21 16:08:55.085689,-111
2021-10-21 16:08:55.085698,-111
2021-10-21 16:08:55.085706,-126
2021-10-21 16:08:55.085714,-143
2021-10-21 16:08:55.085722,-150
2021-10-21 16:08:55.085730,-136
2021-10-21 16:08:55.085738,-99
2021-10-21 16:08:55.085746,-77
2021-10-21 16:08:55.085755,-92
2021-10-21 16:08:55.085763,-99
2021-10-21 16:08:55.310435,-87
2021-10-21 16:08:55.310455,-87
2021-10-21 16:08:55.310465,-65
2021-10-21 16:08:55.310474,-43
2021-10-21 16:08:55.310482,-70
2021-10-21 16:08:55.310491,-87
2021-10-21 16:08:55.310499,-58
2021-10-21 16:08:55.310507,-46
2021-10-21 16:08:55.310516,-63
2021-10-21 16:08:55.310524,-43
2021-10-21 16:08:55.310532,-2
2021-10-21 16:08:55.310541,-9
2021-10-21 16:08:55.310549,-36
2021-10-21 16:08:55.310557,-36
2021-10-21 16:08:55.310566,-24
2021-10-21 16:08:55.310574,-24
2021-10-21 16:08:55.310583,-36
2021-10-21 16:08:55.310591,-29
2021-10-21 16:08:55.310599,21
2021-10-21 16:08:55.310607,46
2021-10-21 16:08:55.310616,0
2021-10-21 16:08:55.310624,-26
2021-10-21 16:08:55.310632,-17
2021-10-21 16:08:55.310641,-21
2021-10-21 16:08:55.310649,-29
2021-10-21 16:08:55.310657,-24
2021-10-21 16:08:55.310665,-19
2021-10-21 16:08:55.310674,-29
2021-10-21 16:08:55.310682,-55
2021-10-21 16:08:55.310690,-94
2021-10-21 16:08:55.535420,-72
2021-10-21 16:08:55.535440,-19
2021-10-21 16:08:55.535449,-53
2021-10-21 16:08:55.535458,-68
2021-10-21 16:08:55.535466,92
2021-10-21 16:08:55.535475,484
2021-10-21 16:08:55.535483,1082
2021-10-21 16:08:55.535492,1275
2021-10-21 16:08:55.535500,593
2021-10-21 16:08:55.535508,-68
2021-10-21 16:08:55.535517,-60
2021-10-21 16:08:55.535525,-12
2021-10-21 16:08:55.535534,-141
2021-10-21 16:08:55.535542,-143
2021-10-21 16:08:55.535550,-116
2021-10-21 16:08:55.535559,-163
2021-10-21 16:08:55.535567,-160
2021-10-21 16:08:55.535575,-119
2021-10-21 16:08:55.535584,-121
2021-10-21 16:08:55.535592,-121
2021-10-21 16:08:55.535600,-80
2021-10-21 16:08:55.535609,-85
2021-10-21 16:08:55.535617,-124
2021-10-21 16:08:55.535625,-107
2021-10-21 16:08:55.535634,-65
2021-10-21 16:08:55.535642,-58
2021-10-21 16:08:55.535650,-60
2021-10-21 16:08:55.535659,-46
2021-10-21 16:08:55.535667,-34
2021-10-21 16:08:55.535675,-41
2021-10-21 16:08:55.760443,-48
2021-10-21 16:08:55.760462,-21
2021-10-21 16:08:55.760472,31
2021-10-21 16:08:55.760481,63
2021-10-21 16:08:55.760490,29
2021-10-21 16:08:55.760498,-12
2021-10-21 16:08:55.760507,29
2021-10-21 16:08:55.760515,60
2021-10-21 16:08:55.760523,19
2021-10-21 16:08:55.760532,-21
2021-10-21 16:08:55.760540,-41
2021-10-21 16:08:55.760548,-55
2021-10-21 16:08:55.760556,-70
2021-10-21 16:08:55.760574,-90
2021-10-21 16:08:55.760583,-97
2021-10-21 16:08:55.760592,-90
2021-10-21 16:08:55.760600,-92
2021-10-21 16:08:55.760608,-102
2021-10-21 16:08:55.760617,-82
2021-10-21 16:08:55.760625,-48
2021-10-21 16:08:55.760633,-48
2021-10-21 16:08:55.760642,-80
2021-10-21 16:08:55.760650,-97
2021-10-21 16:08:55.760658,-72
2021-10-21 16:08:55.760666,-38
2021-10-21 16:08:55.760675,-53
2021-10-21 16:08:55.760683,-70
2021-10-21 16:08:55.760691,-26
2021-10-21 16:08:55.760700,-17
2021-10-21 16:08:55.760708,-43
2021-10-21 16:08:56.030399,-21
2021-10-21 16:08:56.030418,-12
2021-10-21 16:08:56.030428,-51
2021-10-21 16:08:56.030437,-36
2021-10-21 16:08:56.030445,-12
2021-10-21 16:08:56.030454,-51
2021-10-21 16:08:56.030462,-53
2021-10-21 16:08:56.030470,-9
2021-10-21 16:08:56.030479,-4
2021-10-21 16:08:56.030487,-12
2021-10-21 16:08:56.030496,-2
2021-10-21 16:08:56.030504,-9
2021-10-21 16:08:56.030512,-36
2021-10-21 16:08:56.030521,-43
2021-10-21 16:08:56.030529,-26
2021-10-21 16:08:56.030537,-14
2021-10-21 16:08:56.030546,-21
2021-10-21 16:08:56.030554,-29
2021-10-21 16:08:56.030562,-38
2021-10-21 16:08:56.030571,-46
2021-10-21 16:08:56.030579,-38
2021-10-21 16:08:56.030587,-4
2021-10-21 16:08:56.030596,12
2021-10-21 16:08:56.030604,-31
2021-10-21 16:08:56.030612,-43
2021-10-21 16:08:56.030620,60
2021-10-21 16:08:56.030629,355
2021-10-21 16:08:56.030637,871
2021-10-21 16:08:56.030645,1194
2021-10-21 16:08:56.030654,785
2021-10-21 16:08:56.300408,104
2021-10-21 16:08:56.300427,-36
2021-10-21 16:08:56.300437,58
2021-10-21 16:08:56.300446,-55
2021-10-21 16:08:56.300454,-128
2021-10-21 16:08:56.300463,-80
2021-10-21 16:08:56.300471,-75
2021-10-21 16:08:56.300480,-85
2021-10-21 16:08:56.300488,-77
2021-10-21 16:08:56.300496,-97
2021-10-21 16:08:56.300505,-94
2021-10-21 16:08:56.300513,-51
2021-10-21 16:08:56.300521,-34
2021-10-21 16:08:56.300530,-46
2021-10-21 16:08:56.300538,-41
2021-10-21 16:08:56.300546,-34
2021-10-21 16:08:56.300555,-34
2021-10-21 16:08:56.300563,-24
2021-10-21 16:08:56.300571,-4
2021-10-21 16:08:56.300580,19
2021-10-21 16:08:56.300588,26
2021-10-21 16:08:56.300596,14
2021-10-21 16:08:56.300605,24
2021-10-21 16:08:56.300613,51
2021-10-21 16:08:56.300621,65
2021-10-21 16:08:56.300630,72
2021-10-21 16:08:56.300638,77
2021-10-21 16:08:56.300646,75
2021-10-21 16:08:56.300654,68
2021-10-21 16:08:56.300663,60
2021-10-21 16:08:56.524073,36
2021-10-21 16:08:56.524103,7
2021-10-21 16:08:56.524113,-17
2021-10-21 16:08:56.524122,-38
2021-10-21 16:08:56.524130,-51
2021-10-21 16:08:56.524139,-51
2021-10-21 16:08:56.524147,-51
2021-10-21 16:08:56.524155,-58
2021-10-21 16:08:56.524164,-68
2021-10-21 16:08:56.524172,-58
2021-10-21 16:08:56.524180,-26
2021-10-21 16:08:56.524188,-17
2021-10-21 16:08:56.524197,-21
2021-10-21 16:08:56.524205,-26
2021-10-21 16:08:56.524213,-36
2021-10-21 16:08:56.524221,-43
2021-10-21 16:08:56.524229,-36
2021-10-21 16:08:56.524238,-29
2021-10-21 16:08:56.524246,-29
2021-10-21 16:08:56.524254,-24
2021-10-21 16:08:56.524262,-14
2021-10-21 16:08:56.524271,-9
2021-10-21 16:08:56.524279,-12
2021-10-21 16:08:56.524287,-7
2021-10-21 16:08:56.524295,2
2021-10-21 16:08:56.524303,14
2021-10-21 16:08:56.524312,36
2021-10-21 16:08:56.524320,53
2021-10-21 16:08:56.524328,48
2021-10-21 16:08:56.524336,38
2021-10-21 16:08:56.750394,29
2021-10-21 16:08:56.750413,21
2021-10-21 16:08:56.750423,24
2021-10-21 16:08:56.750431,7
2021-10-21 16:08:56.750440,-21
2021-10-21 16:08:56.750448,-24
2021-10-21 16:08:56.750457,-19
2021-10-21 16:08:56.750465,-29
2021-10-21 16:08:56.750473,-31
2021-10-21 16:08:56.750482,-14
2021-10-21 16:08:56.750490,-17
2021-10-21 16:08:56.750498,-53
2021-10-21 16:08:56.750506,-60
2021-10-21 16:08:56.750514,114
2021-10-21 16:08:56.750522,603
2021-10-21 16:08:56.750531,1167
2021-10-21 16:08:56.750539,1143
2021-10-21 16:08:56.750547,420
2021-10-21 16:08:56.750555,-60
2021-10-21 16:08:56.750563,31
2021-10-21 16:08:56.750572,55
2021-10-21 16:08:56.750580,-68
2021-10-21 16:08:56.750588,-60
2021-10-21 16:08:56.750596,-26
2021-10-21 16:08:56.750605,-53
2021-10-21 16:08:56.750613,-43
2021-10-21 16:08:56.750621,12
2021-10-21 16:08:56.750629,24
2021-10-21 16:08:56.750637,7
2021-10-21 16:08:56.750646,19
2021-10-21 16:08:56.930403,36
2021-10-21 16:08:56.930422,17
2021-10-21 16:08:56.930432,14
2021-10-21 16:08:56.930440,43
2021-10-21 16:08:56.930448,60
2021-10-21 16:08:56.930457,48
2021-10-21 16:08:56.930465,29
2021-10-21 16:08:56.930473,34
2021-10-21 16:08:56.930482,53
2021-10-21 16:08:56.930490,60
2021-10-21 16:08:56.930499,51
2021-10-21 16:08:56.930507,43
2021-10-21 16:08:56.930515,31
2021-10-21 16:08:56.930524,21
2021-10-21 16:08:56.930532,26
2021-10-21 16:08:56.930541,26
2021-10-21 16:08:56.930549,12
2021-10-21 16:08:56.930557,-12
2021-10-21 16:08:56.930565,-34
2021-10-21 16:08:56.930574,-43
2021-10-21 16:08:56.930582,-51
2021-10-21 16:08:56.930591,-65
2021-10-21 16:08:56.930599,-72
2021-10-21 16:08:56.930607,-68
2021-10-21 16:08:56.930615,-68
2021-10-21 16:08:56.930624,-60
2021-10-21 16:08:56.930632,-48
2021-10-21 16:08:56.930640,-41
2021-10-21 16:08:56.930649,-31
2021-10-21 16:08:56.930657,-24
2021-10-21 16:08:57.200432,-31
2021-10-21 16:08:57.200450,-31
2021-10-21 16:08:57.200460,-21
2021-10-21 16:08:57.200468,-17
2021-10-21 16:08:57.200477,-17
2021-10-21 16:08:57.200485,-21
2021-10-21 16:08:57.200494,-26
2021-10-21 16:08:57.200502,-31
2021-10-21 16:08:57.200511,-51
2021-10-21 16:08:57.200519,-77
2021-10-21 16:08:57.200527,-80
2021-10-21 16:08:57.200536,-60
2021-10-21 16:08:57.200544,-36
2021-10-21 16:08:57.200552,-21
2021-10-21 16:08:57.200561,-21
2021-10-21 16:08:57.200569,-29
2021-10-21 16:08:57.200577,-34
2021-10-21 16:08:57.200585,-43
2021-10-21 16:08:57.200594,-41
2021-10-21 16:08:57.200602,-24
2021-10-21 16:08:57.200610,-26
2021-10-21 16:08:57.200618,-36
2021-10-21 16:08:57.200627,-36
2021-10-21 16:08:57.200635,-36
2021-10-21 16:08:57.200643,-41
2021-10-21 16:08:57.200651,-43
2021-10-21 16:08:57.200660,-90
2021-10-21 16:08:57.200668,-143
2021-10-21 16:08:57.200676,-14
2021-10-21 16:08:57.200684,501
2021-10-21 16:08:57.380417,1289
2021-10-21 16:08:57.380436,1576
2021-10-21 16:08:57.380445,810
2021-10-21 16:08:57.380454,-36
2021-10-21 16:08:57.380462,-60
2021-10-21 16:08:57.380471,58
2021-10-21 16:08:57.380479,-114
2021-10-21 16:08:57.380487,-153
2021-10-21 16:08:57.380496,-77
2021-10-21 16:08:57.380504,-104
2021-10-21 16:08:57.380512,-121
2021-10-21 16:08:57.380520,-85
2021-10-21 16:08:57.380528,-77
2021-10-21 16:08:57.380537,-77
2021-10-21 16:08:57.380545,-53
2021-10-21 16:08:57.380553,-43
2021-10-21 16:08:57.380561,-46
2021-10-21 16:08:57.380569,-38
2021-10-21 16:08:57.380578,-19
2021-10-21 16:08:57.380586,-2
2021-10-21 16:08:57.380594,7
2021-10-21 16:08:57.380603,19
2021-10-21 16:08:57.380611,29
2021-10-21 16:08:57.380619,31
2021-10-21 16:08:57.380627,38
2021-10-21 16:08:57.380636,55
2021-10-21 16:08:57.380644,60
2021-10-21 16:08:57.380652,48
2021-10-21 16:08:57.380660,36
2021-10-21 16:08:57.380668,38
2021-10-21 16:08:57.605381,43
2021-10-21 16:08:57.605400,31
2021-10-21 16:08:57.605409,7
2021-10-21 16:08:57.605418,-9
2021-10-21 16:08:57.605427,-31
2021-10-21 16:08:57.605435,-63
2021-10-21 16:08:57.605444,-68
2021-10-21 16:08:57.605452,-60
2021-10-21 16:08:57.605460,-68
2021-10-21 16:08:57.605468,-90
2021-10-21 16:08:57.605477,-104
2021-10-21 16:08:57.605485,-92
2021-10-21 16:08:57.605493,-80
2021-10-21 16:08:57.605502,-92
2021-10-21 16:08:57.605510,-99
2021-10-21 16:08:57.605518,-92
2021-10-21 16:08:57.605526,-92
2021-10-21 16:08:57.605535,-97
2021-10-21 16:08:57.605543,-92
2021-10-21 16:08:57.605551,-68
2021-10-21 16:08:57.605559,-51
2021-10-21 16:08:57.605568,-55
2021-10-21 16:08:57.605576,-60
2021-10-21 16:08:57.605584,-48
2021-10-21 16:08:57.605592,-29
2021-10-21 16:08:57.605600,-17
2021-10-21 16:08:57.605609,-4
2021-10-21 16:08:57.605617,4
2021-10-21 16:08:57.605625,-2
2021-10-21 16:08:57.605634,-9
2021-10-21 16:08:57.875424,-4
2021-10-21 16:08:57.875443,2
2021-10-21 16:08:57.875452,0
2021-10-21 16:08:57.875461,-9
2021-10-21 16:08:57.875470,-12
2021-10-21 16:08:57.875478,2
2021-10-21 16:08:57.875487,17
2021-10-21 16:08:57.875495,19
2021-10-21 16:08:57.875504,17
2021-10-21 16:08:57.875512,-14
2021-10-21 16:08:57.875520,-80
2021-10-21 16:08:57.875529,-99
2021-10-21 16:08:57.875537,107
2021-10-21 16:08:57.875546,693
2021-10-21 16:08:57.875554,1418
2021-10-21 16:08:57.875563,1435
2021-10-21 16:08:57.875571,520
2021-10-21 16:08:57.875579,-116
2021-10-21 16:08:57.875587,38
2021-10-21 16:08:57.875596,107
2021-10-21 16:08:57.875604,-70
2021-10-21 16:08:57.875612,-60
2021-10-21 16:08:57.875621,2
2021-10-21 16:08:57.875629,-34
2021-10-21 16:08:57.875638,-34
2021-10-21 16:08:57.875646,14
2021-10-21 16:08:57.875654,19
2021-10-21 16:08:57.875662,7
2021-10-21 16:08:57.875671,26
2021-10-21 16:08:57.875679,53
2021-10-21 16:08:58.100431,70
2021-10-21 16:08:58.100450,85
2021-10-21 16:08:58.100460,87
2021-10-21 16:08:58.100469,87
2021-10-21 16:08:58.100477,99
2021-10-21 16:08:58.100486,116
2021-10-21 16:08:58.100495,131
2021-10-21 16:08:58.100503,143
2021-10-21 16:08:58.100511,138
2021-10-21 16:08:58.100520,124
2021-10-21 16:08:58.100528,121
2021-10-21 16:08:58.100536,131
2021-10-21 16:08:58.100545,131
2021-10-21 16:08:58.100553,121
2021-10-21 16:08:58.100561,97
2021-10-21 16:08:58.100569,65
2021-10-21 16:08:58.100578,51
2021-10-21 16:08:58.100586,34
2021-10-21 16:08:58.100594,14
2021-10-21 16:08:58.100602,-2
2021-10-21 16:08:58.100611,-34
2021-10-21 16:08:58.100619,-51
2021-10-21 16:08:58.100627,-41
2021-10-21 16:08:58.100636,-31
2021-10-21 16:08:58.100644,-26
2021-10-21 16:08:58.100652,-24
2021-10-21 16:08:58.100660,-24
2021-10-21 16:08:58.100669,-21
2021-10-21 16:08:58.100677,-12
2021-10-21 16:08:58.100686,0
2021-10-21 16:08:58.370461,4
2021-10-21 16:08:58.370479,4
2021-10-21 16:08:58.370489,7
2021-10-21 16:08:58.370498,4
2021-10-21 16:08:58.370506,7
2021-10-21 16:08:58.370515,21
2021-10-21 16:08:58.370523,19
2021-10-21 16:08:58.370532,2
2021-10-21 16:08:58.370540,-4
2021-10-21 16:08:58.370549,4
2021-10-21 16:08:58.370557,21
2021-10-21 16:08:58.370566,24
2021-10-21 16:08:58.370574,12
2021-10-21 16:08:58.370582,-4
2021-10-21 16:08:58.370591,-19
2021-10-21 16:08:58.370599,-19
2021-10-21 16:08:58.370607,-12
2021-10-21 16:08:58.370616,-7
2021-10-21 16:08:58.370624,-7
2021-10-21 16:08:58.370632,-7
2021-10-21 16:08:58.370640,-4
2021-10-21 16:08:58.370649,0
2021-10-21 16:08:58.370657,-7
2021-10-21 16:08:58.370666,-29
2021-10-21 16:08:58.370674,-80
2021-10-21 16:08:58.370682,-92
2021-10-21 16:08:58.370690,163
2021-10-21 16:08:58.370698,841
2021-10-21 16:08:58.370707,1571
2021-10-21 16:08:58.370715,1435
2021-10-21 16:08:58.594007,442
2021-10-21 16:08:58.594025,-94
2021-10-21 16:08:58.594035,75
2021-10-21 16:08:58.594044,72
2021-10-21 16:08:58.594052,-94
2021-10-21 16:08:58.594061,-55
2021-10-21 16:08:58.594069,7
2021-10-21 16:08:58.594078,-24
2021-10-21 16:08:58.594086,-24
2021-10-21 16:08:58.594095,0
2021-10-21 16:08:58.594103,0
2021-10-21 16:08:58.594111,12
2021-10-21 16:08:58.594119,36
2021-10-21 16:08:58.594128,41
2021-10-21 16:08:58.594136,53
2021-10-21 16:08:58.594145,75
2021-10-21 16:08:58.594153,85
2021-10-21 16:08:58.594161,87
2021-10-21 16:08:58.594169,97
2021-10-21 16:08:58.594178,111
2021-10-21 16:08:58.594186,119
2021-10-21 16:08:58.594194,116
2021-10-21 16:08:58.594203,124
2021-10-21 16:08:58.594211,138
2021-10-21 16:08:58.594219,143
2021-10-21 16:08:58.594227,128
2021-10-21 16:08:58.594235,109
2021-10-21 16:08:58.594244,99
2021-10-21 16:08:58.594252,94
2021-10-21 16:08:58.594260,82
2021-10-21 16:08:58.775429,65
2021-10-21 16:08:58.775447,53
2021-10-21 16:08:58.775457,46
2021-10-21 16:08:58.775466,38
2021-10-21 16:08:58.775475,36
2021-10-21 16:08:58.775483,34
2021-10-21 16:08:58.775492,24
2021-10-21 16:08:58.775500,17
2021-10-21 16:08:58.775508,17
2021-10-21 16:08:58.775517,19
2021-10-21 16:08:58.775525,34
2021-10-21 16:08:58.775533,58
2021-10-21 16:08:58.775542,65
2021-10-21 16:08:58.775550,63
2021-10-21 16:08:58.775558,65
2021-10-21 16:08:58.775567,75
2021-10-21 16:08:58.775575,80
2021-10-21 16:08:58.775583,77
2021-10-21 16:08:58.775591,75
2021-10-21 16:08:58.775600,87
2021-10-21 16:08:58.775608,102
2021-10-21 16:08:58.775616,99
2021-10-21 16:08:58.775625,102
2021-10-21 16:08:58.775633,119
2021-10-21 16:08:58.775641,119
2021-10-21 16:08:58.775649,107
2021-10-21 16:08:58.775658,107
2021-10-21 16:08:58.775666,104
2021-10-21 16:08:58.775674,97
2021-10-21 16:08:58.775682,92
2021-10-21 16:08:59.045431,94
2021-10-21 16:08:59.045450,102
2021-10-21 16:08:59.045460,97
2021-10-21 16:08:59.045468,87
2021-10-21 16:08:59.045477,90
2021-10-21 16:08:59.045485,90
2021-10-21 16:08:59.045494,75
2021-10-21 16:08:59.045502,55
2021-10-21 16:08:59.045510,2
2021-10-21 16:08:59.045519,-53
2021-10-21 16:08:59.045527,102
2021-10-21 16:08:59.045535,664
2021-10-21 16:08:59.045544,1462
2021-10-21 16:08:59.045552,1676
2021-10-21 16:08:59.045560,812
2021-10-21 16:08:59.045568,-24
2021-10-21 16:08:59.045577,34
2021-10-21 16:08:59.045585,182
2021-10-21 16:08:59.045594,-2
2021-10-21 16:08:59.045602,-38
2021-10-21 16:08:59.045611,43
2021-10-21 16:08:59.045619,19
2021-10-21 16:08:59.045627,2
2021-10-21 16:08:59.045635,46
2021-10-21 16:08:59.045643,60
2021-10-21 16:08:59.045652,46
2021-10-21 16:08:59.045660,46
2021-10-21 16:08:59.045668,72
2021-10-21 16:08:59.045677,104
2021-10-21 16:08:59.045685,119
2021-10-21 16:08:59.225514,121
2021-10-21 16:08:59.225532,126
2021-10-21 16:08:59.225542,121
2021-10-21 16:08:59.225550,121
2021-10-21 16:08:59.225559,133
2021-10-21 16:08:59.225568,141
2021-10-21 16:08:59.225576,145
2021-10-21 16:08:59.225584,158
2021-10-21 16:08:59.225593,160
2021-10-21 16:08:59.225601,153
2021-10-21 16:08:59.225609,148
2021-10-21 16:08:59.225618,138
2021-10-21 16:08:59.225626,126
2021-10-21 16:08:59.225635,126
2021-10-21 16:08:59.225643,116
2021-10-21 16:08:59.225651,94
2021-10-21 16:08:59.225659,75
2021-10-21 16:08:59.225668,63
2021-10-21 16:08:59.225676,60
2021-10-21 16:08:59.225684,60
2021-10-21 16:08:59.225692,58
2021-10-21 16:08:59.225700,65
2021-10-21 16:08:59.225709,92
2021-10-21 16:08:59.225717,97
2021-10-21 16:08:59.225725,85
2021-10-21 16:08:59.225734,92
2021-10-21 16:08:59.225742,111
2021-10-21 16:08:59.225750,107
2021-10-21 16:08:59.225759,94
2021-10-21 16:08:59.225767,104
2021-10-21 16:08:59.450433,114
2021-10-21 16:08:59.450452,111
2021-10-21 16:08:59.450461,116
2021-10-21 16:08:59.450470,116
2021-10-21 16:08:59.450478,99
2021-10-21 16:08:59.450487,92
2021-10-21 16:08:59.450495,109
2021-10-21 16:08:59.450504,114
2021-10-21 16:08:59.450512,102
2021-10-21 16:08:59.450520,99
2021-10-21 16:08:59.450528,102
2021-10-21 16:08:59.450537,111
2021-10-21 16:08:59.450545,124
2021-10-21 16:08:59.450553,126
2021-10-21 16:08:59.450562,111
2021-10-21 16:08:59.450570,97
2021-10-21 16:08:59.450578,92
2021-10-21 16:08:59.450586,97
2021-10-21 16:08:59.450594,104
2021-10-21 16:08:59.450603,109
2021-10-21 16:08:59.450611,109
2021-10-21 16:08:59.450619,107
2021-10-21 16:08:59.450627,104
2021-10-21 16:08:59.450635,94
2021-10-21 16:08:59.450643,53
2021-10-21 16:08:59.450651,-21
2021-10-21 16:08:59.450660,-36
2021-10-21 16:08:59.450668,233
2021-10-21 16:08:59.450676,958
2021-10-21 16:08:59.450684,1754
2021-10-21 16:08:59.720430,1635
2021-10-21 16:08:59.720448,571
2021-10-21 16:08:59.720458,-53
2021-10-21 16:08:59.720467,104
2021-10-21 16:08:59.720476,114
2021-10-21 16:08:59.720484,-75
2021-10-21 16:08:59.720493,-65
2021-10-21 16:08:59.720501,-19
2021-10-21 16:08:59.720509,-58
2021-10-21 16:08:59.720518,-58
2021-10-21 16:08:59.720526,-34
2021-10-21 16:08:59.720534,-24
2021-10-21 16:08:59.720542,-9
2021-10-21 16:08:59.720551,9
2021-10-21 16:08:59.720559,24
2021-10-21 16:08:59.720567,24
2021-10-21 16:08:59.720575,29
2021-10-21 16:08:59.720583,48
2021-10-21 16:08:59.720592,63
2021-10-21 16:08:59.720600,70
2021-10-21 16:08:59.720608,80
2021-10-21 16:08:59.720616,85
2021-10-21 16:08:59.720625,92
2021-10-21 16:08:59.720633,109
2021-10-21 16:08:59.720641,119
2021-10-21 16:08:59.720649,119
2021-10-21 16:08:59.720657,109
2021-10-21 16:08:59.720665,99
2021-10-21 16:08:59.720674,99
2021-10-21 16:08:59.720682,97
2021-10-21 16:08:59.945440,77
2021-10-21 16:08:59.945459,55
2021-10-21 16:08:59.945468,38
2021-10-21 16:08:59.945477,17
2021-10-21 16:08:59.945485,-2
