Time,ECG
2021-10-21 16:14:20.168422,-94
2021-10-21 16:14:20.168443,-80
2021-10-21 16:14:20.168452,-80
2021-10-21 16:14:20.168461,-72
2021-10-21 16:14:20.168470,-58
2021-10-21 16:14:20.168478,-38
2021-10-21 16:14:20.168487,-26
2021-10-21 16:14:20.168495,-21
2021-10-21 16:14:20.168503,-21
2021-10-21 16:14:20.168512,-24
2021-10-21 16:14:20.168520,-12
2021-10-21 16:14:20.168529,0
2021-10-21 16:14:20.168537,2
2021-10-21 16:14:20.168545,0
2021-10-21 16:14:20.168554,-12
2021-10-21 16:14:20.168562,-21
2021-10-21 16:14:20.168570,-14
2021-10-21 16:14:20.168579,-21
2021-10-21 16:14:20.168587,-48
2021-10-21 16:14:20.168595,-65
2021-10-21 16:14:20.168603,-75
2021-10-21 16:14:20.168612,-94
2021-10-21 16:14:20.168620,-114
2021-10-21 16:14:20.168628,-111
2021-10-21 16:14:20.168636,-111
2021-10-21 16:14:20.168645,-119
2021-10-21 16:14:20.168653,-119
2021-10-21 16:14:20.168661,-107
2021-10-21 16:14:20.168669,-97
2021-10-21 16:14:20.168678,-82
2021-10-21 16:14:20.304578,-75
2021-10-21 16:14:20.304597,-72
2021-10-21 16:14:20.304606,-70
2021-10-21 16:14:20.304615,-60
2021-10-21 16:14:20.304623,-51
2021-10-21 16:14:20.304631,-48
2021-10-21 16:14:20.304640,-43
2021-10-21 16:14:20.304648,-36
2021-10-21 16:14:20.304656,-34
2021-10-21 16:14:20.304664,-36
2021-10-21 16:14:20.304673,-31
2021-10-21 16:14:20.304681,-19
2021-10-21 16:14:20.304689,-17
2021-10-21 16:14:20.304698,-34
2021-10-21 16:14:20.304706,-46
2021-10-21 16:14:20.304714,-41
2021-10-21 16:14:20.304722,-36
2021-10-21 16:14:20.304730,-29
2021-10-21 16:14:20.304739,0
2021-10-21 16:14:20.304747,19
2021-10-21 16:14:20.304755,12
2021-10-21 16:14:20.304763,2
2021-10-21 16:14:20.304771,4
2021-10-21 16:14:20.304780,0
2021-10-21 16:14:20.304788,-4
2021-10-21 16:14:20.304796,-2
2021-10-21 16:14:20.304804,-12
2021-10-21 16:14:20.304812,-21
2021-10-21 16:14:20.304821,-14
2021-10-21 16:14:20.304829,-4
2021-10-21 16:14:20.482972,-4
2021-10-21 16:14:20.482990,-9
2021-10-21 16:14:20.482999,-26
2021-10-21 16:14:20.483008,-92
2021-10-21 16:14:20.483017,-158
2021-10-21 16:14:20.483025,-31
2021-10-21 16:14:20.483034,457
2021-10-21 16:14:20.483042,1165
2021-10-21 16:14:20.483050,1382
2021-10-21 16:14:20.483059,635
2021-10-21 16:14:20.483067,-128
2021-10-21 16:14:20.483075,-82
2021-10-21 16:14:20.483083,68
2021-10-21 16:14:20.483092,-94
2021-10-21 16:14:20.483100,-136
2021-10-21 16:14:20.483108,-63
2021-10-21 16:14:20.483117,-85
2021-10-21 16:14:20.483125,-97
2021-10-21 16:14:20.483133,-53
2021-10-21 16:14:20.483142,-43
2021-10-21 16:14:20.483150,-43
2021-10-21 16:14:20.483158,-29
2021-10-21 16:14:20.483166,-26
2021-10-21 16:14:20.483175,-21
2021-10-21 16:14:20.483183,-7
2021-10-21 16:14:20.483191,-2
2021-10-21 16:14:20.483200,2
2021-10-21 16:14:20.483208,9
2021-10-21 16:14:20.483217,21
2021-10-21 16:14:20.483225,29
2021-10-21 16:14:20.573302,26
2021-10-21 16:14:20.573320,36
2021-10-21 16:14:20.573329,46
2021-10-21 16:14:20.573338,41
2021-10-21 16:14:20.573346,43
2021-10-21 16:14:20.573355,48
2021-10-21 16:14:20.573363,38
2021-10-21 16:14:20.573371,26
2021-10-21 16:14:20.573380,9
2021-10-21 16:14:20.573388,-14
2021-10-21 16:14:20.573396,-36
2021-10-21 16:14:20.573404,-55
2021-10-21 16:14:20.573413,-80
2021-10-21 16:14:20.573421,-99
2021-10-21 16:14:20.573429,-102
2021-10-21 16:14:20.573437,-104
2021-10-21 16:14:20.573446,-109
2021-10-21 16:14:20.573454,-111
2021-10-21 16:14:20.573462,-109
2021-10-21 16:14:20.573470,-104
2021-10-21 16:14:20.573479,-92
2021-10-21 16:14:20.573487,-90
2021-10-21 16:14:20.573495,-82
2021-10-21 16:14:20.573503,-68
2021-10-21 16:14:20.573512,-72
2021-10-21 16:14:20.573520,-75
2021-10-21 16:14:20.573528,-63
2021-10-21 16:14:20.573539,-55
2021-10-21 16:14:20.573547,-55
2021-10-21 16:14:20.573555,-46
2021-10-21 16:14:20.708939,-41
2021-10-21 16:14:20.708958,-53
2021-10-21 16:14:20.708967,-55
2021-10-21 16:14:20.708976,-53
2021-10-21 16:14:20.708984,-58
2021-10-21 16:14:20.708992,-58
2021-10-21 16:14:20.709001,-51
2021-10-21 16:14:20.709009,-31
2021-10-21 16:14:20.709017,-21
2021-10-21 16:14:20.709025,-38
2021-10-21 16:14:20.709034,-63
2021-10-21 16:14:20.709042,-75
2021-10-21 16:14:20.709050,-82
2021-10-21 16:14:20.709058,-77
2021-10-21 16:14:20.709066,-75
2021-10-21 16:14:20.709074,-72
2021-10-21 16:14:20.709083,-65
2021-10-21 16:14:20.709091,-58
2021-10-21 16:14:20.709099,-58
2021-10-21 16:14:20.709107,-53
2021-10-21 16:14:20.709115,-48
2021-10-21 16:14:20.709123,-63
2021-10-21 16:14:20.709131,-121
2021-10-21 16:14:20.709140,-184
2021-10-21 16:14:20.709148,-63
2021-10-21 16:14:20.709156,442
2021-10-21 16:14:20.709165,1206
2021-10-21 16:14:20.709173,1464
2021-10-21 16:14:20.709181,686
2021-10-21 16:14:20.709189,-136
2021-10-21 16:14:20.934653,-107
2021-10-21 16:14:20.934671,51
2021-10-21 16:14:20.934681,-119
2021-10-21 16:14:20.934689,-175
2021-10-21 16:14:20.934698,-111
2021-10-21 16:14:20.934706,-141
2021-10-21 16:14:20.934715,-153
2021-10-21 16:14:20.934723,-102
2021-10-21 16:14:20.934731,-85
2021-10-21 16:14:20.934740,-97
2021-10-21 16:14:20.934748,-92
2021-10-21 16:14:20.934756,-87
2021-10-21 16:14:20.934765,-75
2021-10-21 16:14:20.934773,-55
2021-10-21 16:14:20.934781,-41
2021-10-21 16:14:20.934790,-31
2021-10-21 16:14:20.934798,-19
2021-10-21 16:14:20.934806,-7
2021-10-21 16:14:20.934814,12
2021-10-21 16:14:20.934823,24
2021-10-21 16:14:20.934831,24
2021-10-21 16:14:20.934839,24
2021-10-21 16:14:20.934847,17
2021-10-21 16:14:20.934855,4
2021-10-21 16:14:20.934864,0
2021-10-21 16:14:20.934872,-4
2021-10-21 16:14:20.934880,-17
2021-10-21 16:14:20.934888,-41
2021-10-21 16:14:20.934897,-72
2021-10-21 16:14:20.934905,-94
2021-10-21 16:14:21.249573,-104
2021-10-21 16:14:21.249592,-116
2021-10-21 16:14:21.249601,-131
2021-10-21 16:14:21.249610,-133
2021-10-21 16:14:21.249618,-136
2021-10-21 16:14:21.249627,-145
2021-10-21 16:14:21.249635,-138
2021-10-21 16:14:21.249643,-121
2021-10-21 16:14:21.249652,-116
2021-10-21 16:14:21.249660,-111
2021-10-21 16:14:21.249668,-99
2021-10-21 16:14:21.249677,-87
2021-10-21 16:14:21.249685,-77
2021-10-21 16:14:21.249693,-75
2021-10-21 16:14:21.249701,-82
2021-10-21 16:14:21.249709,-102
2021-10-21 16:14:21.249717,-102
2021-10-21 16:14:21.249725,-80
2021-10-21 16:14:21.249734,-72
2021-10-21 16:14:21.249742,-82
2021-10-21 16:14:21.249750,-85
2021-10-21 16:14:21.249758,-80
2021-10-21 16:14:21.249766,-77
2021-10-21 16:14:21.249774,-72
2021-10-21 16:14:21.249783,-63
2021-10-21 16:14:21.249791,-60
2021-10-21 16:14:21.249799,-55
2021-10-21 16:14:21.249807,-46
2021-10-21 16:14:21.249815,-36
2021-10-21 16:14:21.249823,-26
2021-10-21 16:14:21.609570,-26
2021-10-21 16:14:21.609588,-36
2021-10-21 16:14:21.609597,-46
2021-10-21 16:14:21.609606,-51
2021-10-21 16:14:21.609614,-46
2021-10-21 16:14:21.609622,-36
2021-10-21 16:14:21.609630,-36
2021-10-21 16:14:21.609639,-43
2021-10-21 16:14:21.609647,-46
2021-10-21 16:14:21.609655,-41
2021-10-21 16:14:21.609663,-31
2021-10-21 16:14:21.609672,-29
2021-10-21 16:14:21.609680,-68
2021-10-21 16:14:21.609688,-153
2021-10-21 16:14:21.609696,-150
2021-10-21 16:14:21.609705,153
2021-10-21 16:14:21.609713,866
2021-10-21 16:14:21.609721,1569
2021-10-21 16:14:21.609730,1352
2021-10-21 16:14:21.609738,340
2021-10-21 16:14:21.609746,-148
2021-10-21 16:14:21.609755,19
2021-10-21 16:14:21.609763,-9
2021-10-21 16:14:21.609771,-160
2021-10-21 16:14:21.609779,-114
2021-10-21 16:14:21.609788,-77
2021-10-21 16:14:21.609796,-119
2021-10-21 16:14:21.609804,-104
2021-10-21 16:14:21.609813,-65
2021-10-21 16:14:21.609821,-60
2021-10-21 16:14:21.879573,-48
2021-10-21 16:14:21.879591,-26
2021-10-21 16:14:21.879601,-26
2021-10-21 16:14:21.879609,-24
2021-10-21 16:14:21.879618,-2
2021-10-21 16:14:21.879626,12
2021-10-21 16:14:21.879634,17
2021-10-21 16:14:21.879643,29
2021-10-21 16:14:21.879651,31
2021-10-21 16:14:21.879659,24
2021-10-21 16:14:21.879667,34
2021-10-21 16:14:21.879675,46
2021-10-21 16:14:21.879683,46
2021-10-21 16:14:21.879692,48
2021-10-21 16:14:21.879700,43
2021-10-21 16:14:21.879708,34
2021-10-21 16:14:21.879717,34
2021-10-21 16:14:21.879725,31
2021-10-21 16:14:21.879733,12
2021-10-21 16:14:21.879741,-19
2021-10-21 16:14:21.879750,-60
2021-10-21 16:14:21.879758,-99
2021-10-21 16:14:21.879766,-116
2021-10-21 16:14:21.879774,-119
2021-10-21 16:14:21.879782,-121
2021-10-21 16:14:21.879791,-126
2021-10-21 16:14:21.879799,-136
2021-10-21 16:14:21.879807,-133
2021-10-21 16:14:21.879815,-116
2021-10-21 16:14:21.879823,-109
2021-10-21 16:14:22.014586,-104
2021-10-21 16:14:22.014604,-92
2021-10-21 16:14:22.014614,-87
2021-10-21 16:14:22.014623,-87
2021-10-21 16:14:22.014631,-77
2021-10-21 16:14:22.014640,-63
2021-10-21 16:14:22.014648,-53
2021-10-21 16:14:22.014657,-53
2021-10-21 16:14:22.014665,-58
2021-10-21 16:14:22.014674,-60
2021-10-21 16:14:22.014682,-58
2021-10-21 16:14:22.014691,-58
2021-10-21 16:14:22.014699,-58
2021-10-21 16:14:22.014707,-65
2021-10-21 16:14:22.014716,-80
2021-10-21 16:14:22.014724,-85
2021-10-21 16:14:22.014733,-77
2021-10-21 16:14:22.014741,-65
2021-10-21 16:14:22.014749,-43
2021-10-21 16:14:22.014758,-24
2021-10-21 16:14:22.014766,-24
2021-10-21 16:14:22.014775,-31
2021-10-21 16:14:22.014783,-34
2021-10-21 16:14:22.014791,-41
2021-10-21 16:14:22.014800,-51
2021-10-21 16:14:22.014808,-58
2021-10-21 16:14:22.014816,-63
2021-10-21 16:14:22.014825,-55
2021-10-21 16:14:22.014833,-48
2021-10-21 16:14:22.014841,-46
2021-10-21 16:14:22.149593,-41
2021-10-21 16:14:22.149612,-34
2021-10-21 16:14:22.149621,-46
2021-10-21 16:14:22.149630,-94
2021-10-21 16:14:22.149638,-155
2021-10-21 16:14:22.149646,-102
2021-10-21 16:14:22.149655,272
2021-10-21 16:14:22.149663,1026
2021-10-21 16:14:22.149671,1584
2021-10-21 16:14:22.149679,1133
2021-10-21 16:14:22.149688,165
2021-10-21 16:14:22.149696,-119
2021-10-21 16:14:22.149704,48
2021-10-21 16:14:22.149724,-48
2021-10-21 16:14:22.149733,-165
2021-10-21 16:14:22.149741,-104
2021-10-21 16:14:22.149749,-92
2021-10-21 16:14:22.149758,-121
2021-10-21 16:14:22.149766,-99
2021-10-21 16:14:22.149774,-77
2021-10-21 16:14:22.149782,-70
2021-10-21 16:14:22.149790,-60
2021-10-21 16:14:22.149798,-43
2021-10-21 16:14:22.149806,-21
2021-10-21 16:14:22.149815,-24
2021-10-21 16:14:22.149823,-31
2021-10-21 16:14:22.149831,-26
2021-10-21 16:14:22.149839,-29
2021-10-21 16:14:22.149847,-19
2021-10-21 16:14:22.149855,7
2021-10-21 16:14:22.328270,12
2021-10-21 16:14:22.328289,4
2021-10-21 16:14:22.328299,17
2021-10-21 16:14:22.328307,26
2021-10-21 16:14:22.328316,14
2021-10-21 16:14:22.328324,7
2021-10-21 16:14:22.328332,0
2021-10-21 16:14:22.328341,-9
2021-10-21 16:14:22.328349,-19
2021-10-21 16:14:22.328357,-41
2021-10-21 16:14:22.328365,-72
2021-10-21 16:14:22.328373,-90
2021-10-21 16:14:22.328382,-104
2021-10-21 16:14:22.328390,-119
2021-10-21 16:14:22.328398,-126
2021-10-21 16:14:22.328406,-143
2021-10-21 16:14:22.328414,-155
2021-10-21 16:14:22.328423,-150
2021-10-21 16:14:22.328431,-155
2021-10-21 16:14:22.328439,-158
2021-10-21 16:14:22.328447,-141
2021-10-21 16:14:22.328461,-133
2021-10-21 16:14:22.328470,-128
2021-10-21 16:14:22.328478,-121
2021-10-21 16:14:22.328486,-128
2021-10-21 16:14:22.328495,-131
2021-10-21 16:14:22.328503,-114
2021-10-21 16:14:22.328511,-109
2021-10-21 16:14:22.328519,-109
2021-10-21 16:14:22.328527,-102
2021-10-21 16:14:22.464510,-94
2021-10-21 16:14:22.464528,-87
2021-10-21 16:14:22.464537,-80
2021-10-21 16:14:22.464546,-80
2021-10-21 16:14:22.464555,-77
2021-10-21 16:14:22.464563,-85
2021-10-21 16:14:22.464571,-92
2021-10-21 16:14:22.464580,-85
2021-10-21 16:14:22.464588,-80
2021-10-21 16:14:22.464596,-77
2021-10-21 16:14:22.464605,-53
2021-10-21 16:14:22.464613,-34
2021-10-21 16:14:22.464621,-48
2021-10-21 16:14:22.464630,-55
2021-10-21 16:14:22.464638,-51
2021-10-21 16:14:22.464646,-58
2021-10-21 16:14:22.464654,-65
2021-10-21 16:14:22.464662,-68
2021-10-21 16:14:22.464670,-65
2021-10-21 16:14:22.464679,-51
2021-10-21 16:14:22.464687,-41
2021-10-21 16:14:22.464695,-43
2021-10-21 16:14:22.464703,-48
2021-10-21 16:14:22.464712,-58
2021-10-21 16:14:22.464720,-68
2021-10-21 16:14:22.464728,-94
2021-10-21 16:14:22.464736,-158
2021-10-21 16:14:22.464745,-143
2021-10-21 16:14:22.464753,182
2021-10-21 16:14:22.464761,902
2021-10-21 16:14:22.644599,1508
2021-10-21 16:14:22.644617,1155
2021-10-21 16:14:22.644627,180
2021-10-21 16:14:22.644635,-170
2021-10-21 16:14:22.644644,9
2021-10-21 16:14:22.644652,-63
2021-10-21 16:14:22.644660,-197
2021-10-21 16:14:22.644668,-141
2021-10-21 16:14:22.644676,-119
2021-10-21 16:14:22.644685,-155
2021-10-21 16:14:22.644693,-126
2021-10-21 16:14:22.644701,-99
2021-10-21 16:14:22.644709,-97
2021-10-21 16:14:22.644718,-75
2021-10-21 16:14:22.644726,-53
2021-10-21 16:14:22.644734,-58
2021-10-21 16:14:22.644742,-48
2021-10-21 16:14:22.644750,-31
2021-10-21 16:14:22.644758,-24
2021-10-21 16:14:22.644767,-21
2021-10-21 16:14:22.644775,-9
2021-10-21 16:14:22.644783,4
2021-10-21 16:14:22.644791,7
2021-10-21 16:14:22.644799,9
2021-10-21 16:14:22.644808,21
2021-10-21 16:14:22.644816,36
2021-10-21 16:14:22.644824,46
2021-10-21 16:14:22.644832,48
2021-10-21 16:14:22.644840,38
2021-10-21 16:14:22.644848,24
2021-10-21 16:14:22.869586,14
2021-10-21 16:14:22.869604,4
2021-10-21 16:14:22.869614,-21
2021-10-21 16:14:22.869622,-60
2021-10-21 16:14:22.869631,-87
2021-10-21 16:14:22.869639,-92
2021-10-21 16:14:22.869647,-92
2021-10-21 16:14:22.869655,-90
2021-10-21 16:14:22.869664,-97
2021-10-21 16:14:22.869672,-114
2021-10-21 16:14:22.869680,-119
2021-10-21 16:14:22.869688,-109
2021-10-21 16:14:22.869697,-99
2021-10-21 16:14:22.869705,-87
2021-10-21 16:14:22.869713,-82
2021-10-21 16:14:22.869721,-90
2021-10-21 16:14:22.869730,-92
2021-10-21 16:14:22.869738,-80
2021-10-21 16:14:22.869746,-72
2021-10-21 16:14:22.869754,-68
2021-10-21 16:14:22.869763,-60
2021-10-21 16:14:22.869771,-72
2021-10-21 16:14:22.869779,-85
2021-10-21 16:14:22.869787,-75
2021-10-21 16:14:22.869795,-68
2021-10-21 16:14:22.869803,-70
2021-10-21 16:14:22.869812,-65
2021-10-21 16:14:22.869820,-63
2021-10-21 16:14:22.869828,-60
2021-10-21 16:14:22.869837,-63
2021-10-21 16:14:23.139599,-68
2021-10-21 16:14:23.139617,-65
2021-10-21 16:14:23.139627,-53
2021-10-21 16:14:23.139636,-48
2021-10-21 16:14:23.139644,-41
2021-10-21 16:14:23.139653,-19
2021-10-21 16:14:23.139661,-9
2021-10-21 16:14:23.139670,-24
2021-10-21 16:14:23.139679,-51
2021-10-21 16:14:23.139687,-80
2021-10-21 16:14:23.139695,-87
2021-10-21 16:14:23.139704,-72
2021-10-21 16:14:23.139712,-63
2021-10-21 16:14:23.139720,-60
2021-10-21 16:14:23.139729,-53
2021-10-21 16:14:23.139737,-51
2021-10-21 16:14:23.139746,-53
2021-10-21 16:14:23.139754,-53
2021-10-21 16:14:23.139762,-55
2021-10-21 16:14:23.139770,-90
2021-10-21 16:14:23.139779,-150
2021-10-21 16:14:23.139787,-119
2021-10-21 16:14:23.139795,238
2021-10-21 16:14:23.139804,953
2021-10-21 16:14:23.139812,1464
2021-10-21 16:14:23.139821,1029
2021-10-21 16:14:23.139829,128
2021-10-21 16:14:23.139837,-126
2021-10-21 16:14:23.139846,31
2021-10-21 16:14:23.139854,-58
2021-10-21 16:14:23.455096,-160
2021-10-21 16:14:23.455115,-102
2021-10-21 16:14:23.455124,-97
2021-10-21 16:14:23.455133,-128
2021-10-21 16:14:23.455142,-94
2021-10-21 16:14:23.455150,-65
2021-10-21 16:14:23.455158,-58
2021-10-21 16:14:23.455167,-36
2021-10-21 16:14:23.455175,-38
2021-10-21 16:14:23.455183,-48
2021-10-21 16:14:23.455191,-24
2021-10-21 16:14:23.455199,-2
2021-10-21 16:14:23.455208,4
2021-10-21 16:14:23.455216,19
2021-10-21 16:14:23.455224,17
2021-10-21 16:14:23.455233,9
2021-10-21 16:14:23.455241,24
2021-10-21 16:14:23.455249,43
2021-10-21 16:14:23.455257,46
2021-10-21 16:14:23.455265,41
2021-10-21 16:14:23.455274,41
2021-10-21 16:14:23.455282,43
2021-10-21 16:14:23.455290,43
2021-10-21 16:14:23.455298,48
2021-10-21 16:14:23.455306,36
2021-10-21 16:14:23.455314,0
2021-10-21 16:14:23.455322,-34
2021-10-21 16:14:23.455331,-48
2021-10-21 16:14:23.455339,-63
2021-10-21 16:14:23.455347,-82
2021-10-21 16:14:23.589604,-90
2021-10-21 16:14:23.589622,-102
2021-10-21 16:14:23.589632,-114
2021-10-21 16:14:23.589641,-116
2021-10-21 16:14:23.589649,-102
2021-10-21 16:14:23.589658,-90
2021-10-21 16:14:23.589666,-87
2021-10-21 16:14:23.589674,-87
2021-10-21 16:14:23.589683,-90
2021-10-21 16:14:23.589691,-99
2021-10-21 16:14:23.589699,-94
2021-10-21 16:14:23.589708,-77
2021-10-21 16:14:23.589716,-72
2021-10-21 16:14:23.589724,-82
2021-10-21 16:14:23.589732,-97
2021-10-21 16:14:23.589741,-97
2021-10-21 16:14:23.589749,-82
2021-10-21 16:14:23.589757,-77
2021-10-21 16:14:23.589766,-80
2021-10-21 16:14:23.589774,-72
2021-10-21 16:14:23.589782,-68
2021-10-21 16:14:23.589791,-70
2021-10-21 16:14:23.589799,-65
2021-10-21 16:14:23.589808,-53
2021-10-21 16:14:23.589816,-55
2021-10-21 16:14:23.589825,-65
2021-10-21 16:14:23.589833,-70
2021-10-21 16:14:23.589841,-77
2021-10-21 16:14:23.589849,-85
2021-10-21 16:14:23.589858,-77
2021-10-21 16:14:23.814603,-53
2021-10-21 16:14:23.814622,-31
2021-10-21 16:14:23.814631,-29
2021-10-21 16:14:23.814640,-29
2021-10-21 16:14:23.814648,-21
2021-10-21 16:14:23.814657,-24
2021-10-21 16:14:23.814665,-38
2021-10-21 16:14:23.814673,-53
2021-10-21 16:14:23.814681,-60
2021-10-21 16:14:23.814690,-53
2021-10-21 16:14:23.814698,-38
2021-10-21 16:14:23.814706,-36
2021-10-21 16:14:23.814715,-41
2021-10-21 16:14:23.814723,-46
2021-10-21 16:14:23.814731,-48
2021-10-21 16:14:23.814739,-60
2021-10-21 16:14:23.814748,-109
2021-10-21 16:14:23.814756,-143
2021-10-21 16:14:23.814764,21
2021-10-21 16:14:23.814773,549
2021-10-21 16:14:23.814781,1243
2021-10-21 16:14:23.814789,1333
2021-10-21 16:14:23.814798,552
2021-10-21 16:14:23.814806,-68
2021-10-21 16:14:23.814814,-4
2021-10-21 16:14:23.814823,43
2021-10-21 16:14:23.814831,-111
2021-10-21 16:14:23.814839,-124
2021-10-21 16:14:23.814847,-72
2021-10-21 16:14:23.814855,-99
2021-10-21 16:14:24.039605,-109
2021-10-21 16:14:24.039624,-82
2021-10-21 16:14:24.039633,-72
2021-10-21 16:14:24.039642,-63
2021-10-21 16:14:24.039650,-41
2021-10-21 16:14:24.039659,-34
2021-10-21 16:14:24.039667,-38
2021-10-21 16:14:24.039676,-36
2021-10-21 16:14:24.039684,-26
2021-10-21 16:14:24.039692,-21
2021-10-21 16:14:24.039701,-12
2021-10-21 16:14:24.039709,2
2021-10-21 16:14:24.039718,2
2021-10-21 16:14:24.039726,2
2021-10-21 16:14:24.039734,14
2021-10-21 16:14:24.039742,17
2021-10-21 16:14:24.039751,17
2021-10-21 16:14:24.039759,29
2021-10-21 16:14:24.039767,29
2021-10-21 16:14:24.039775,0
2021-10-21 16:14:24.039784,-31
2021-10-21 16:14:24.039792,-46
2021-10-21 16:14:24.039800,-60
2021-10-21 16:14:24.039808,-90
2021-10-21 16:14:24.039816,-114
2021-10-21 16:14:24.039825,-126
2021-10-21 16:14:24.039833,-133
2021-10-21 16:14:24.039841,-143
2021-10-21 16:14:24.039849,-138
2021-10-21 16:14:24.039857,-131
2021-10-21 16:14:24.353895,-131
2021-10-21 16:14:24.353913,-133
2021-10-21 16:14:24.353922,-133
2021-10-21 16:14:24.353931,-126
2021-10-21 16:14:24.353939,-116
2021-10-21 16:14:24.353947,-116
2021-10-21 16:14:24.353956,-116
2021-10-21 16:14:24.353964,-109
2021-10-21 16:14:24.353972,-102
2021-10-21 16:14:24.353980,-97
2021-10-21 16:14:24.353989,-92
2021-10-21 16:14:24.353997,-99
2021-10-21 16:14:24.354005,-104
2021-10-21 16:14:24.354013,-92
2021-10-21 16:14:24.354022,-82
2021-10-21 16:14:24.354030,-82
2021-10-21 16:14:24.354038,-80
2021-10-21 16:14:24.354046,-70
2021-10-21 16:14:24.354055,-68
2021-10-21 16:14:24.354063,-68
2021-10-21 16:14:24.354071,-63
2021-10-21 16:14:24.354079,-55
2021-10-21 16:14:24.354087,-48
2021-10-21 16:14:24.354095,-51
2021-10-21 16:14:24.354103,-53
2021-10-21 16:14:24.354111,-46
2021-10-21 16:14:24.354120,-41
2021-10-21 16:14:24.354128,-26
2021-10-21 16:14:24.354136,-4
2021-10-21 16:14:24.354144,4
2021-10-21 16:14:24.489546,2
2021-10-21 16:14:24.489563,4
2021-10-21 16:14:24.489573,-2
2021-10-21 16:14:24.489582,-21
2021-10-21 16:14:24.489590,-34
2021-10-21 16:14:24.489599,-31
2021-10-21 16:14:24.489607,-29
2021-10-21 16:14:24.489615,-21
2021-10-21 16:14:24.489623,-19
2021-10-21 16:14:24.489632,-21
2021-10-21 16:14:24.489640,-24
2021-10-21 16:14:24.489648,-36
2021-10-21 16:14:24.489656,-72
2021-10-21 16:14:24.489664,-128
2021-10-21 16:14:24.489673,-128
2021-10-21 16:14:24.489681,133
2021-10-21 16:14:24.489689,785
2021-10-21 16:14:24.489697,1401
2021-10-21 16:14:24.489706,1155
2021-10-21 16:14:24.489714,250
2021-10-21 16:14:24.489722,-126
2021-10-21 16:14:24.489730,46
2021-10-21 16:14:24.489738,2
2021-10-21 16:14:24.489746,-145
2021-10-21 16:14:24.489755,-107
2021-10-21 16:14:24.489763,-85
2021-10-21 16:14:24.489771,-131
2021-10-21 16:14:24.489779,-119
2021-10-21 16:14:24.489787,-90
2021-10-21 16:14:24.489796,-102
2021-10-21 16:14:24.714620,-90
2021-10-21 16:14:24.714639,-60
2021-10-21 16:14:24.714648,-48
2021-10-21 16:14:24.714657,-46
2021-10-21 16:14:24.714665,-46
2021-10-21 16:14:24.714674,-43
2021-10-21 16:14:24.714682,-36
2021-10-21 16:14:24.714690,-19
2021-10-21 16:14:24.714698,-4
2021-10-21 16:14:24.714706,-4
2021-10-21 16:14:24.714715,-9
2021-10-21 16:14:24.714723,-9
2021-10-21 16:14:24.714731,-4
2021-10-21 16:14:24.714739,-4
2021-10-21 16:14:24.714748,-7
2021-10-21 16:14:24.714756,-9
2021-10-21 16:14:24.714764,-19
2021-10-21 16:14:24.714772,-29
2021-10-21 16:14:24.714780,-43
2021-10-21 16:14:24.714789,-63
2021-10-21 16:14:24.714797,-80
2021-10-21 16:14:24.714805,-99
2021-10-21 16:14:24.714813,-121
2021-10-21 16:14:24.714821,-128
2021-10-21 16:14:24.714829,-121
2021-10-21 16:14:24.714837,-121
2021-10-21 16:14:24.714845,-121
2021-10-21 16:14:24.714853,-116
2021-10-21 16:14:24.714861,-111
2021-10-21 16:14:24.714870,-102
2021-10-21 16:14:25.029750,-90
2021-10-21 16:14:25.029770,-77
2021-10-21 16:14:25.029777,-63
2021-10-21 16:14:25.029784,-68
2021-10-21 16:14:25.029790,-82
2021-10-21 16:14:25.029797,-75
2021-10-21 16:14:25.029803,-58
2021-10-21 16:14:25.029809,-58
2021-10-21 16:14:25.029816,-68
2021-10-21 16:14:25.029822,-72
2021-10-21 16:14:25.029828,-75
2021-10-21 16:14:25.029835,-72
2021-10-21 16:14:25.029841,-65
2021-10-21 16:14:25.029848,-60
2021-10-21 16:14:25.029854,-53
2021-10-21 16:14:25.029861,-53
2021-10-21 16:14:25.029868,-55
2021-10-21 16:14:25.029876,-48
2021-10-21 16:14:25.029883,-43
2021-10-21 16:14:25.029891,-43
2021-10-21 16:14:25.029899,-46
2021-10-21 16:14:25.029908,-41
2021-10-21 16:14:25.029916,-21
2021-10-21 16:14:25.029924,2
2021-10-21 16:14:25.029933,7
2021-10-21 16:14:25.029941,2
2021-10-21 16:14:25.029949,-2
2021-10-21 16:14:25.029957,-14
2021-10-21 16:14:25.029966,-19
2021-10-21 16:14:25.029974,-4
2021-10-21 16:14:25.209617,-2
2021-10-21 16:14:25.209636,-24
2021-10-21 16:14:25.209645,-43
2021-10-21 16:14:25.209654,-46
2021-10-21 16:14:25.209662,-41
2021-10-21 16:14:25.209671,-31
2021-10-21 16:14:25.209679,-34
2021-10-21 16:14:25.209687,-82
2021-10-21 16:14:25.209696,-153
2021-10-21 16:14:25.209704,-99
2021-10-21 16:14:25.209712,296
2021-10-21 16:14:25.209726,1017
2021-10-21 16:14:25.209735,1421
2021-10-21 16:14:25.209743,827
2021-10-21 16:14:25.209751,-48
2021-10-21 16:14:25.209760,-126
2021-10-21 16:14:25.209768,77
2021-10-21 16:14:25.209776,-51
2021-10-21 16:14:25.209784,-128
2021-10-21 16:14:25.209793,-63
2021-10-21 16:14:25.209801,-87
2021-10-21 16:14:25.209809,-121
2021-10-21 16:14:25.209817,-82
2021-10-21 16:14:25.209826,-58
2021-10-21 16:14:25.209834,-60
2021-10-21 16:14:25.209842,-43
2021-10-21 16:14:25.209851,-31
2021-10-21 16:14:25.209859,-24
2021-10-21 16:14:25.209867,-7
2021-10-21 16:14:25.209875,9
2021-10-21 16:14:25.479562,24
2021-10-21 16:14:25.479581,26
2021-10-21 16:14:25.479590,21
2021-10-21 16:14:25.479599,21
2021-10-21 16:14:25.479607,36
2021-10-21 16:14:25.479615,51
2021-10-21 16:14:25.479624,58
2021-10-21 16:14:25.479632,55
2021-10-21 16:14:25.479640,43
2021-10-21 16:14:25.479648,29
2021-10-21 16:14:25.479657,31
2021-10-21 16:14:25.479665,26
2021-10-21 16:14:25.479673,-2
2021-10-21 16:14:25.479681,-38
2021-10-21 16:14:25.479689,-75
2021-10-21 16:14:25.479698,-104
2021-10-21 16:14:25.479706,-114
2021-10-21 16:14:25.479714,-124
2021-10-21 16:14:25.479722,-131
2021-10-21 16:14:25.479731,-133
2021-10-21 16:14:25.479739,-136
2021-10-21 16:14:25.479747,-136
2021-10-21 16:14:25.479755,-124
2021-10-21 16:14:25.479763,-107
2021-10-21 16:14:25.479771,-97
2021-10-21 16:14:25.479779,-92
2021-10-21 16:14:25.479788,-90
2021-10-21 16:14:25.479796,-80
2021-10-21 16:14:25.479804,-70
2021-10-21 16:14:25.479812,-60
2021-10-21 16:14:25.659658,-53
2021-10-21 16:14:25.659676,-46
2021-10-21 16:14:25.659686,-46
2021-10-21 16:14:25.659695,-43
2021-10-21 16:14:25.659703,-34
2021-10-21 16:14:25.659712,-31
2021-10-21 16:14:25.659720,-46
2021-10-21 16:14:25.659729,-70
2021-10-21 16:14:25.659737,-80
2021-10-21 16:14:25.659745,-65
2021-10-21 16:14:25.659754,-60
2021-10-21 16:14:25.659762,-63
2021-10-21 16:14:25.659770,-58
2021-10-21 16:14:25.659779,-55
2021-10-21 16:14:25.659787,-63
2021-10-21 16:14:25.659795,-53
2021-10-21 16:14:25.659804,-21
2021-10-21 16:14:25.659812,-7
2021-10-21 16:14:25.659820,-19
2021-10-21 16:14:25.659828,-34
2021-10-21 16:14:25.659837,-41
2021-10-21 16:14:25.659845,-43
2021-10-21 16:14:25.659853,-43
2021-10-21 16:14:25.659861,-36
2021-10-21 16:14:25.659870,-31
2021-10-21 16:14:25.659878,-31
2021-10-21 16:14:25.659886,-26
2021-10-21 16:14:25.659894,-26
2021-10-21 16:14:25.659903,-24
2021-10-21 16:14:25.659911,-17
2021-10-21 16:14:25.974647,-31
2021-10-21 16:14:25.974665,-99
2021-10-21 16:14:25.974674,-160
2021-10-21 16:14:25.974682,-29
2021-10-21 16:14:25.974691,496
2021-10-21 16:14:25.974699,1284
2021-10-21 16:14:25.974707,1525
2021-10-21 16:14:25.974715,710
2021-10-21 16:14:25.974724,-114
2021-10-21 16:14:25.974732,-72
2021-10-21 16:14:25.974740,70
2021-10-21 16:14:25.974748,-104
2021-10-21 16:14:25.974757,-158
2021-10-21 16:14:25.974765,-92
2021-10-21 16:14:25.974773,-114
2021-10-21 16:14:25.974792,-133
2021-10-21 16:14:25.974801,-107
2021-10-21 16:14:25.974809,-92
2021-10-21 16:14:25.974817,-94
2021-10-21 16:14:25.974825,-82
2021-10-21 16:14:25.974833,-63
2021-10-21 16:14:25.974841,-51
2021-10-21 16:14:25.974849,-43
2021-10-21 16:14:25.974858,-29
2021-10-21 16:14:25.974866,-19
2021-10-21 16:14:25.974874,-14
2021-10-21 16:14:25.974882,-7
2021-10-21 16:14:25.974890,4
2021-10-21 16:14:25.974898,19
2021-10-21 16:14:25.974906,34
2021-10-21 16:14:26.154625,38
2021-10-21 16:14:26.154644,38
2021-10-21 16:14:26.154653,43
2021-10-21 16:14:26.154662,46
2021-10-21 16:14:26.154671,36
2021-10-21 16:14:26.154679,21
2021-10-21 16:14:26.154687,-7
2021-10-21 16:14:26.154696,-38
2021-10-21 16:14:26.154704,-68
2021-10-21 16:14:26.154712,-87
2021-10-21 16:14:26.154721,-99
2021-10-21 16:14:26.154729,-114
2021-10-21 16:14:26.154737,-136
2021-10-21 16:14:26.154746,-148
2021-10-21 16:14:26.154754,-138
2021-10-21 16:14:26.154762,-131
2021-10-21 16:14:26.154770,-131
2021-10-21 16:14:26.154779,-119
2021-10-21 16:14:26.154787,-109
2021-10-21 16:14:26.154795,-107
2021-10-21 16:14:26.154803,-97
2021-10-21 16:14:26.154812,-87
2021-10-21 16:14:26.154820,-80
2021-10-21 16:14:26.154828,-77
2021-10-21 16:14:26.154836,-82
2021-10-21 16:14:26.154845,-75
2021-10-21 16:14:26.154853,-60
2021-10-21 16:14:26.154861,-55
2021-10-21 16:14:26.154869,-53
2021-10-21 16:14:26.154877,-53
2021-10-21 16:14:26.468290,-51
2021-10-21 16:14:26.468308,-38
2021-10-21 16:14:26.468318,-31
2021-10-21 16:14:26.468327,-34
2021-10-21 16:14:26.468335,-36
2021-10-21 16:14:26.468344,-34
2021-10-21 16:14:26.468352,-31
2021-10-21 16:14:26.468360,-21
2021-10-21 16:14:26.468369,-19
2021-10-21 16:14:26.468377,-26
2021-10-21 16:14:26.468385,-31
2021-10-21 16:14:26.468393,-38
2021-10-21 16:14:26.468402,-43
2021-10-21 16:14:26.468410,-29
2021-10-21 16:14:26.468418,-7
2021-10-21 16:14:26.468427,7
2021-10-21 16:14:26.468435,7
2021-10-21 16:14:26.468443,-2
2021-10-21 16:14:26.468452,-4
2021-10-21 16:14:26.468460,-12
2021-10-21 16:14:26.468468,-29
2021-10-21 16:14:26.468476,-31
2021-10-21 16:14:26.468485,-26
2021-10-21 16:14:26.468493,-29
2021-10-21 16:14:26.468501,-26
2021-10-21 16:14:26.468509,-19
2021-10-21 16:14:26.468518,-17
2021-10-21 16:14:26.468526,-12
2021-10-21 16:14:26.468534,-17
2021-10-21 16:14:26.468542,-51
2021-10-21 16:14:26.559634,-121
2021-10-21 16:14:26.559652,-138
2021-10-21 16:14:26.559661,116
2021-10-21 16:14:26.559670,810
2021-10-21 16:14:26.559678,1591
2021-10-21 16:14:26.559687,1501
2021-10-21 16:14:26.559695,464
2021-10-21 16:14:26.559703,-160
2021-10-21 16:14:26.559712,-7
2021-10-21 16:14:26.559720,12
2021-10-21 16:14:26.559729,-177
2021-10-21 16:14:26.559737,-163
2021-10-21 16:14:26.559745,-102
2021-10-21 16:14:26.559754,-133
2021-10-21 16:14:26.559762,-133
2021-10-21 16:14:26.559770,-102
2021-10-21 16:14:26.559779,-104
2021-10-21 16:14:26.559787,-116
2021-10-21 16:14:26.559795,-114
2021-10-21 16:14:26.559803,-109
2021-10-21 16:14:26.559812,-97
2021-10-21 16:14:26.559820,-85
2021-10-21 16:14:26.559828,-82
2021-10-21 16:14:26.559836,-75
2021-10-21 16:14:26.559845,-48
2021-10-21 16:14:26.559853,-26
2021-10-21 16:14:26.559861,-19
2021-10-21 16:14:26.559869,-12
2021-10-21 16:14:26.559877,2
2021-10-21 16:14:26.559886,14
2021-10-21 16:14:26.829037,24
2021-10-21 16:14:26.829056,36
2021-10-21 16:14:26.829065,34
2021-10-21 16:14:26.829074,17
2021-10-21 16:14:26.829083,-4
2021-10-21 16:14:26.829091,-21
2021-10-21 16:14:26.829099,-46
2021-10-21 16:14:26.829108,-72
2021-10-21 16:14:26.829116,-90
2021-10-21 16:14:26.829125,-114
2021-10-21 16:14:26.829133,-141
2021-10-21 16:14:26.829141,-141
2021-10-21 16:14:26.829150,-128
2021-10-21 16:14:26.829158,-128
2021-10-21 16:14:26.829166,-124
2021-10-21 16:14:26.829175,-119
2021-10-21 16:14:26.829183,-116
2021-10-21 16:14:26.829191,-104
2021-10-21 16:14:26.829199,-85
2021-10-21 16:14:26.829208,-75
2021-10-21 16:14:26.829216,-75
2021-10-21 16:14:26.829224,-68
2021-10-21 16:14:26.829232,-58
2021-10-21 16:14:26.829240,-58
2021-10-21 16:14:26.829249,-63
2021-10-21 16:14:26.829257,-55
2021-10-21 16:14:26.829265,-48
2021-10-21 16:14:26.829273,-53
2021-10-21 16:14:26.829282,-51
2021-10-21 16:14:26.829290,-36
2021-10-21 16:14:27.054640,-31
2021-10-21 16:14:27.054658,-34
2021-10-21 16:14:27.054667,-31
2021-10-21 16:14:27.054676,-43
2021-10-21 16:14:27.054684,-51
2021-10-21 16:14:27.054693,-34
2021-10-21 16:14:27.054701,-24
2021-10-21 16:14:27.054710,-34
2021-10-21 16:14:27.054718,-41
2021-10-21 16:14:27.054726,-43
2021-10-21 16:14:27.054735,-38
2021-10-21 16:14:27.054743,-29
2021-10-21 16:14:27.054751,-19
2021-10-21 16:14:27.054760,-19
2021-10-21 16:14:27.054768,-24
2021-10-21 16:14:27.054776,-26
2021-10-21 16:14:27.054784,-19
2021-10-21 16:14:27.054793,-17
2021-10-21 16:14:27.054801,-17
2021-10-21 16:14:27.054809,0
2021-10-21 16:14:27.054818,19
2021-10-21 16:14:27.054826,14
2021-10-21 16:14:27.054835,4
2021-10-21 16:14:27.054843,-2
2021-10-21 16:14:27.054856,-9
2021-10-21 16:14:27.054865,-14
2021-10-21 16:14:27.054873,-29
2021-10-21 16:14:27.054882,-34
2021-10-21 16:14:27.054890,-21
2021-10-21 16:14:27.054898,-19
2021-10-21 16:14:27.279673,-21
2021-10-21 16:14:27.279691,-17
2021-10-21 16:14:27.279701,-21
2021-10-21 16:14:27.279709,-31
2021-10-21 16:14:27.279718,-31
2021-10-21 16:14:27.279726,-60
2021-10-21 16:14:27.279734,-136
2021-10-21 16:14:27.279742,-153
2021-10-21 16:14:27.279750,111
2021-10-21 16:14:27.279758,810
2021-10-21 16:14:27.279767,1579
2021-10-21 16:14:27.279775,1457
2021-10-21 16:14:27.279783,428
2021-10-21 16:14:27.279791,-170
2021-10-21 16:14:27.279799,-31
2021-10-21 16:14:27.279807,-31
2021-10-21 16:14:27.279815,-209
2021-10-21 16:14:27.279823,-182
2021-10-21 16:14:27.279831,-124
2021-10-21 16:14:27.279840,-158
2021-10-21 16:14:27.279848,-160
2021-10-21 16:14:27.279856,-128
2021-10-21 16:14:27.279864,-121
2021-10-21 16:14:27.279872,-111
2021-10-21 16:14:27.279880,-87
2021-10-21 16:14:27.279888,-75
2021-10-21 16:14:27.279896,-75
2021-10-21 16:14:27.279904,-65
2021-10-21 16:14:27.279912,-55
2021-10-21 16:14:27.279921,-43
2021-10-21 16:14:27.504598,-26
2021-10-21 16:14:27.504616,-14
2021-10-21 16:14:27.504625,-9
2021-10-21 16:14:27.504634,2
2021-10-21 16:14:27.504642,21
2021-10-21 16:14:27.504651,34
2021-10-21 16:14:27.504659,34
2021-10-21 16:14:27.504667,31
2021-10-21 16:14:27.504675,29
2021-10-21 16:14:27.504684,21
2021-10-21 16:14:27.504692,17
2021-10-21 16:14:27.504700,2
2021-10-21 16:14:27.504708,-19
2021-10-21 16:14:27.504716,-55
2021-10-21 16:14:27.504725,-85
2021-10-21 16:14:27.504733,-99
2021-10-21 16:14:27.504741,-107
2021-10-21 16:14:27.504749,-107
2021-10-21 16:14:27.504757,-107
2021-10-21 16:14:27.504766,-109
2021-10-21 16:14:27.504774,-109
2021-10-21 16:14:27.504782,-102
2021-10-21 16:14:27.504790,-92
2021-10-21 16:14:27.504798,-77
2021-10-21 16:14:27.504807,-68
2021-10-21 16:14:27.504815,-63
2021-10-21 16:14:27.504823,-58
2021-10-21 16:14:27.504831,-55
2021-10-21 16:14:27.504839,-55
2021-10-21 16:14:27.504847,-63
2021-10-21 16:14:27.774058,-77
2021-10-21 16:14:27.774076,-75
2021-10-21 16:14:27.774086,-60
2021-10-21 16:14:27.774094,-55
2021-10-21 16:14:27.774103,-53
2021-10-21 16:14:27.774111,-48
2021-10-21 16:14:27.774119,-51
2021-10-21 16:14:27.774128,-60
2021-10-21 16:14:27.774136,-60
2021-10-21 16:14:27.774144,-51
2021-10-21 16:14:27.774153,-43
2021-10-21 16:14:27.774161,-46
2021-10-21 16:14:27.774169,-53
2021-10-21 16:14:27.774178,-55
2021-10-21 16:14:27.774186,-51
2021-10-21 16:14:27.774194,-38
2021-10-21 16:14:27.774202,-38
2021-10-21 16:14:27.774210,-38
2021-10-21 16:14:27.774218,-34
2021-10-21 16:14:27.774227,-31
2021-10-21 16:14:27.774235,-29
2021-10-21 16:14:27.774243,-31
2021-10-21 16:14:27.774251,-26
2021-10-21 16:14:27.774260,-17
2021-10-21 16:14:27.774268,-9
2021-10-21 16:14:27.774276,4
2021-10-21 16:14:27.774284,21
2021-10-21 16:14:27.774292,21
2021-10-21 16:14:27.774300,14
2021-10-21 16:14:27.774309,7
2021-10-21 16:14:27.999676,-7
2021-10-21 16:14:27.999695,-19
2021-10-21 16:14:27.999704,-24
2021-10-21 16:14:27.999713,-31
2021-10-21 16:14:27.999721,-34
2021-10-21 16:14:27.999730,-26
2021-10-21 16:14:27.999738,-31
2021-10-21 16:14:27.999747,-41
2021-10-21 16:14:27.999755,-43
2021-10-21 16:14:27.999763,-51
2021-10-21 16:14:27.999772,-90
2021-10-21 16:14:27.999780,-167
2021-10-21 16:14:27.999788,-170
2021-10-21 16:14:27.999796,150
2021-10-21 16:14:27.999805,907
2021-10-21 16:14:27.999813,1591
2021-10-21 16:14:27.999821,1299
2021-10-21 16:14:27.999830,272
2021-10-21 16:14:27.999838,-189
2021-10-21 16:14:27.999846,-19
2021-10-21 16:14:27.999854,-53
2021-10-21 16:14:27.999863,-209
2021-10-21 16:14:27.999871,-170
2021-10-21 16:14:27.999879,-131
2021-10-21 16:14:27.999888,-160
2021-10-21 16:14:27.999896,-143
2021-10-21 16:14:27.999904,-114
2021-10-21 16:14:27.999912,-114
2021-10-21 16:14:27.999920,-99
2021-10-21 16:14:27.999929,-80
2021-10-21 16:14:28.224045,-75
2021-10-21 16:14:28.224064,-60
2021-10-21 16:14:28.224074,-43
2021-10-21 16:14:28.224082,-36
2021-10-21 16:14:28.224090,-36
2021-10-21 16:14:28.224098,-41
2021-10-21 16:14:28.224107,-34
2021-10-21 16:14:28.224115,-7
2021-10-21 16:14:28.224123,4
2021-10-21 16:14:28.224131,7
2021-10-21 16:14:28.224140,14
2021-10-21 16:14:28.224148,14
2021-10-21 16:14:28.224156,9
2021-10-21 16:14:28.224164,19
2021-10-21 16:14:28.224173,17
2021-10-21 16:14:28.224181,2
2021-10-21 16:14:28.224189,-14
2021-10-21 16:14:28.224197,-43
2021-10-21 16:14:28.224205,-70
2021-10-21 16:14:28.224214,-77
2021-10-21 16:14:28.224222,-92
2021-10-21 16:14:28.224235,-107
2021-10-21 16:14:28.224244,-109
2021-10-21 16:14:28.224252,-114
2021-10-21 16:14:28.224260,-111
2021-10-21 16:14:28.224268,-99
2021-10-21 16:14:28.224277,-94
2021-10-21 16:14:28.224285,-90
2021-10-21 16:14:28.224293,-80
2021-10-21 16:14:28.224301,-72
2021-10-21 16:14:28.448302,-63
2021-10-21 16:14:28.448320,-48
2021-10-21 16:14:28.448329,-43
2021-10-21 16:14:28.448338,-38
2021-10-21 16:14:28.448346,-43
2021-10-21 16:14:28.448355,-55
2021-10-21 16:14:28.448363,-60
2021-10-21 16:14:28.448371,-51
2021-10-21 16:14:28.448379,-46
2021-10-21 16:14:28.448388,-46
2021-10-21 16:14:28.448396,-53
2021-10-21 16:14:28.448405,-55
2021-10-21 16:14:28.448413,-46
2021-10-21 16:14:28.448421,-38
2021-10-21 16:14:28.448429,-38
2021-10-21 16:14:28.448437,-36
2021-10-21 16:14:28.448446,-38
2021-10-21 16:14:28.448454,-41
2021-10-21 16:14:28.448462,-34
2021-10-21 16:14:28.448470,-26
2021-10-21 16:14:28.448478,-26
2021-10-21 16:14:28.448487,-29
2021-10-21 16:14:28.448495,-26
2021-10-21 16:14:28.448503,-31
2021-10-21 16:14:28.448512,-34
2021-10-21 16:14:28.448520,-29
2021-10-21 16:14:28.448528,-29
2021-10-21 16:14:28.448536,-31
2021-10-21 16:14:28.448544,-29
2021-10-21 16:14:28.448553,-14
2021-10-21 16:14:28.674681,4
2021-10-21 16:14:28.674698,19
2021-10-21 16:14:28.674708,21
2021-10-21 16:14:28.674717,2
2021-10-21 16:14:28.674725,-17
2021-10-21 16:14:28.674734,-26
2021-10-21 16:14:28.674742,-36
2021-10-21 16:14:28.674750,-41
2021-10-21 16:14:28.674759,-51
2021-10-21 16:14:28.674767,-72
2021-10-21 16:14:28.674775,-90
2021-10-21 16:14:28.674784,-97
2021-10-21 16:14:28.674792,-99
2021-10-21 16:14:28.674801,-94
2021-10-21 16:14:28.674809,-94
2021-10-21 16:14:28.674817,-124
2021-10-21 16:14:28.674825,-194
2021-10-21 16:14:28.674834,-209
2021-10-21 16:14:28.674842,51
2021-10-21 16:14:28.674850,725
2021-10-21 16:14:28.674858,1459
2021-10-21 16:14:28.674867,1357
2021-10-21 16:14:28.674875,394
2021-10-21 16:14:28.674883,-170
2021-10-21 16:14:28.674891,-24
2021-10-21 16:14:28.674900,-12
2021-10-21 16:14:28.674908,-184
2021-10-21 16:14:28.674916,-170
2021-10-21 16:14:28.674925,-116
2021-10-21 16:14:28.674933,-143
2021-10-21 16:14:28.899668,-131
2021-10-21 16:14:28.899687,-97
2021-10-21 16:14:28.899696,-102
2021-10-21 16:14:28.899705,-104
2021-10-21 16:14:28.899713,-85
2021-10-21 16:14:28.899722,-68
2021-10-21 16:14:28.899730,-53
2021-10-21 16:14:28.899738,-36
2021-10-21 16:14:28.899747,-26
2021-10-21 16:14:28.899755,-24
2021-10-21 16:14:28.899763,-19
2021-10-21 16:14:28.899772,-4
2021-10-21 16:14:28.899780,9
2021-10-21 16:14:28.899788,21
2021-10-21 16:14:28.899797,24
2021-10-21 16:14:28.899805,24
2021-10-21 16:14:28.899813,31
2021-10-21 16:14:28.899821,36
2021-10-21 16:14:28.899830,36
2021-10-21 16:14:28.899838,41
2021-10-21 16:14:28.899846,31
2021-10-21 16:14:28.899855,2
2021-10-21 16:14:28.899863,-17
2021-10-21 16:14:28.899871,-36
2021-10-21 16:14:28.899879,-55
2021-10-21 16:14:28.899887,-68
2021-10-21 16:14:28.899896,-80
2021-10-21 16:14:28.899904,-94
2021-10-21 16:14:28.899912,-92
2021-10-21 16:14:28.899920,-82
2021-10-21 16:14:29.169683,-80
2021-10-21 16:14:29.169701,-77
2021-10-21 16:14:29.169711,-68
2021-10-21 16:14:29.169719,-65
2021-10-21 16:14:29.169728,-58
2021-10-21 16:14:29.169736,-46
2021-10-21 16:14:29.169744,-38
2021-10-21 16:14:29.169753,-38
2021-10-21 16:14:29.169761,-41
2021-10-21 16:14:29.169769,-48
2021-10-21 16:14:29.169777,-38
2021-10-21 16:14:29.169786,-29
2021-10-21 16:14:29.169794,-38
2021-10-21 16:14:29.169802,-46
2021-10-21 16:14:29.169811,-53
2021-10-21 16:14:29.169819,-58
2021-10-21 16:14:29.169827,-63
2021-10-21 16:14:29.169835,-75
2021-10-21 16:14:29.169843,-80
2021-10-21 16:14:29.169852,-75
2021-10-21 16:14:29.169860,-72
2021-10-21 16:14:29.169868,-77
2021-10-21 16:14:29.169876,-72
2021-10-21 16:14:29.169885,-65
2021-10-21 16:14:29.169893,-63
2021-10-21 16:14:29.169901,-55
2021-10-21 16:14:29.169909,-55
2021-10-21 16:14:29.169918,-63
2021-10-21 16:14:29.169926,-63
2021-10-21 16:14:29.169934,-60
2021-10-21 16:14:29.349681,-55
2021-10-21 16:14:29.349699,-63
2021-10-21 16:14:29.349709,-72
2021-10-21 16:14:29.349717,-70
2021-10-21 16:14:29.349725,-65
2021-10-21 16:14:29.349733,-58
2021-10-21 16:14:29.349742,-55
2021-10-21 16:14:29.349750,-65
2021-10-21 16:14:29.349758,-70
2021-10-21 16:14:29.349766,-48
2021-10-21 16:14:29.349774,-21
2021-10-21 16:14:29.349783,-21
2021-10-21 16:14:29.349791,-26
2021-10-21 16:14:29.349799,-19
2021-10-21 16:14:29.349807,-26
2021-10-21 16:14:29.349815,-53
2021-10-21 16:14:29.349823,-55
2021-10-21 16:14:29.349831,-38
2021-10-21 16:14:29.349839,-38
2021-10-21 16:14:29.349848,-51
2021-10-21 16:14:29.349856,-51
2021-10-21 16:14:29.349864,-46
2021-10-21 16:14:29.349872,-46
2021-10-21 16:14:29.349880,-38
2021-10-21 16:14:29.349888,-51
2021-10-21 16:14:29.349896,-119
2021-10-21 16:14:29.349904,-165
2021-10-21 16:14:29.349913,2
2021-10-21 16:14:29.349921,554
2021-10-21 16:14:29.349929,1289
2021-10-21 16:14:29.574684,1401
2021-10-21 16:14:29.574702,571
2021-10-21 16:14:29.574712,-116
2021-10-21 16:14:29.574721,-31
2021-10-21 16:14:29.574729,53
2021-10-21 16:14:29.574738,-109
2021-10-21 16:14:29.574746,-126
2021-10-21 16:14:29.574755,-77
2021-10-21 16:14:29.574763,-104
2021-10-21 16:14:29.574772,-102
2021-10-21 16:14:29.574780,-72
2021-10-21 16:14:29.574788,-65
2021-10-21 16:14:29.574797,-63
2021-10-21 16:14:29.574805,-51
2021-10-21 16:14:29.574813,-41
2021-10-21 16:14:29.574822,-29
2021-10-21 16:14:29.574830,-21
2021-10-21 16:14:29.574838,-19
2021-10-21 16:14:29.574847,-14
2021-10-21 16:14:29.574855,7
2021-10-21 16:14:29.574863,29
2021-10-21 16:14:29.574872,29
2021-10-21 16:14:29.574880,19
2021-10-21 16:14:29.574888,19
2021-10-21 16:14:29.574897,31
2021-10-21 16:14:29.574905,41
2021-10-21 16:14:29.574913,38
2021-10-21 16:14:29.574922,38
2021-10-21 16:14:29.574930,43
2021-10-21 16:14:29.574938,41
2021-10-21 16:14:29.799683,29
2021-10-21 16:14:29.799701,12
2021-10-21 16:14:29.799711,-14
2021-10-21 16:14:29.799720,-41
2021-10-21 16:14:29.799729,-53
2021-10-21 16:14:29.799737,-60
2021-10-21 16:14:29.799745,-85
2021-10-21 16:14:29.799754,-94
2021-10-21 16:14:29.799762,-92
2021-10-21 16:14:29.799771,-87
2021-10-21 16:14:29.799779,-72
2021-10-21 16:14:29.799787,-68
2021-10-21 16:14:29.799796,-80
2021-10-21 16:14:29.799804,-77
2021-10-21 16:14:29.799812,-60
2021-10-21 16:14:29.799820,-60
2021-10-21 16:14:29.799829,-65
2021-10-21 16:14:29.799848,-58
2021-10-21 16:14:29.799857,-53
2021-10-21 16:14:29.799865,-65
2021-10-21 16:14:29.799873,-63
2021-10-21 16:14:29.799881,-46
2021-10-21 16:14:29.799889,-43
2021-10-21 16:14:29.799897,-48
2021-10-21 16:14:29.799906,-46
2021-10-21 16:14:29.799914,-46
2021-10-21 16:14:29.799922,-43
2021-10-21 16:14:29.799930,-48
2021-10-21 16:14:29.799939,-53
2021-10-21 16:14:29.799947,-55
2021-10-21 16:14:30.069148,-60
2021-10-21 16:14:30.069168,-58
2021-10-21 16:14:30.069177,-58
2021-10-21 16:14:30.069186,-65
2021-10-21 16:14:30.069194,-63
2021-10-21 16:14:30.069202,-60
2021-10-21 16:14:30.069211,-70
2021-10-21 16:14:30.069219,-68
2021-10-21 16:14:30.069227,-53
2021-10-21 16:14:30.069235,-53
2021-10-21 16:14:30.069244,-58
2021-10-21 16:14:30.069252,-63
2021-10-21 16:14:30.069260,-68
2021-10-21 16:14:30.069269,-63
2021-10-21 16:14:30.069277,-55
2021-10-21 16:14:30.069285,-41
2021-10-21 16:14:30.069293,-17
2021-10-21 16:14:30.069301,-9
2021-10-21 16:14:30.069309,-19
2021-10-21 16:14:30.069317,-14
2021-10-21 16:14:30.069326,-19
2021-10-21 16:14:30.069334,-43
2021-10-21 16:14:30.069342,-48
2021-10-21 16:14:30.069350,-38
2021-10-21 16:14:30.069358,-36
2021-10-21 16:14:30.069366,-29
2021-10-21 16:14:30.069374,-29
2021-10-21 16:14:30.069382,-29
2021-10-21 16:14:30.069390,-43
2021-10-21 16:14:30.069399,-60
2021-10-21 16:14:30.249679,-63
2021-10-21 16:14:30.249698,-104
2021-10-21 16:14:30.249707,-165
2021-10-21 16:14:30.249716,-48
2021-10-21 16:14:30.249724,442
2021-10-21 16:14:30.249733,1160
2021-10-21 16:14:30.249741,1394
2021-10-21 16:14:30.249749,654
2021-10-21 16:14:30.249758,-121
2021-10-21 16:14:30.249766,-87
2021-10-21 16:14:30.249774,55
2021-10-21 16:14:30.249782,-111
2021-10-21 16:14:30.249791,-148
2021-10-21 16:14:30.249799,-68
2021-10-21 16:14:30.249807,-90
2021-10-21 16:14:30.249816,-109
2021-10-21 16:14:30.249824,-77
2021-10-21 16:14:30.249832,-65
2021-10-21 16:14:30.249840,-60
2021-10-21 16:14:30.249848,-36
2021-10-21 16:14:30.249857,-17
2021-10-21 16:14:30.249865,-9
2021-10-21 16:14:30.249873,-2
2021-10-21 16:14:30.249882,2
2021-10-21 16:14:30.249890,19
2021-10-21 16:14:30.249898,31
2021-10-21 16:14:30.249906,41
2021-10-21 16:14:30.249915,48
2021-10-21 16:14:30.249923,55
2021-10-21 16:14:30.249931,65
2021-10-21 16:14:30.653339,80
2021-10-21 16:14:30.653357,90
2021-10-21 16:14:30.653367,90
2021-10-21 16:14:30.653375,85
2021-10-21 16:14:30.653384,70
2021-10-21 16:14:30.653392,55
2021-10-21 16:14:30.653400,46
2021-10-21 16:14:30.653409,29
2021-10-21 16:14:30.653417,0
2021-10-21 16:14:30.653426,-34
2021-10-21 16:14:30.653434,-63
2021-10-21 16:14:30.653443,-75
2021-10-21 16:14:30.653451,-80
2021-10-21 16:14:30.653459,-85
2021-10-21 16:14:30.653468,-85
2021-10-21 16:14:30.653476,-82
2021-10-21 16:14:30.653484,-82
2021-10-21 16:14:30.653493,-72
2021-10-21 16:14:30.653501,-63
2021-10-21 16:14:30.653509,-58
2021-10-21 16:14:30.653518,-55
2021-10-21 16:14:30.653526,-58
2021-10-21 16:14:30.653534,-63
2021-10-21 16:14:30.653542,-55
2021-10-21 16:14:30.653551,-46
2021-10-21 16:14:30.653559,-55
2021-10-21 16:14:30.653567,-60
2021-10-21 16:14:30.653576,-48
2021-10-21 16:14:30.653584,-43
2021-10-21 16:14:30.653592,-48
2021-10-21 16:14:30.744649,-41
2021-10-21 16:14:30.744667,-34
2021-10-21 16:14:30.744676,-38
2021-10-21 16:14:30.744685,-55
2021-10-21 16:14:30.744693,-72
2021-10-21 16:14:30.744702,-82
2021-10-21 16:14:30.744710,-85
2021-10-21 16:14:30.744719,-80
2021-10-21 16:14:30.744727,-77
2021-10-21 16:14:30.744735,-82
2021-10-21 16:14:30.744744,-77
2021-10-21 16:14:30.744752,-65
2021-10-21 16:14:30.744761,-60
2021-10-21 16:14:30.744769,-63
2021-10-21 16:14:30.744777,-65
2021-10-21 16:14:30.744785,-75
2021-10-21 16:14:30.744794,-75
2021-10-21 16:14:30.744802,-68
2021-10-21 16:14:30.744810,-60
2021-10-21 16:14:30.744818,-55
2021-10-21 16:14:30.744826,-48
2021-10-21 16:14:30.744835,-41
2021-10-21 16:14:30.744843,-36
2021-10-21 16:14:30.744852,-34
2021-10-21 16:14:30.744860,-26
2021-10-21 16:14:30.744868,-21
2021-10-21 16:14:30.744876,-36
2021-10-21 16:14:30.744885,-48
2021-10-21 16:14:30.744893,-46
2021-10-21 16:14:30.744901,-46
2021-10-21 16:14:30.969745,-46
2021-10-21 16:14:30.969764,-34
2021-10-21 16:14:30.969773,-31
2021-10-21 16:14:30.969782,-41
2021-10-21 16:14:30.969790,-41
2021-10-21 16:14:30.969799,-53
2021-10-21 16:14:30.969807,-107
2021-10-21 16:14:30.969815,-153
2021-10-21 16:14:30.969823,-9
2021-10-21 16:14:30.969831,523
2021-10-21 16:14:30.969840,1279
2021-10-21 16:14:30.969848,1459
2021-10-21 16:14:30.969856,635
2021-10-21 16:14:30.969865,-128
2021-10-21 16:14:30.969873,-72
2021-10-21 16:14:30.969881,38
2021-10-21 16:14:30.969889,-131
2021-10-21 16:14:30.969897,-153
2021-10-21 16:14:30.969905,-80
2021-10-21 16:14:30.969918,-102
2021-10-21 16:14:30.969928,-119
2021-10-21 16:14:30.969936,-82
2021-10-21 16:14:30.969944,-68
2021-10-21 16:14:30.969952,-65
2021-10-21 16:14:30.969960,-46
2021-10-21 16:14:30.969968,-24
2021-10-21 16:14:30.969976,-24
2021-10-21 16:14:30.969985,-19
2021-10-21 16:14:30.969993,-7
2021-10-21 16:14:30.970001,0
2021-10-21 16:14:31.194792,12
2021-10-21 16:14:31.194812,31
2021-10-21 16:14:31.194822,38
2021-10-21 16:14:31.194831,43
2021-10-21 16:14:31.194839,55
2021-10-21 16:14:31.194847,68
2021-10-21 16:14:31.194856,72
2021-10-21 16:14:31.194864,63
2021-10-21 16:14:31.194872,48
2021-10-21 16:14:31.194880,34
2021-10-21 16:14:31.194889,21
2021-10-21 16:14:31.194897,17
2021-10-21 16:14:31.194905,0
2021-10-21 16:14:31.194914,-46
2021-10-21 16:14:31.194922,-85
2021-10-21 16:14:31.194930,-97
2021-10-21 16:14:31.194938,-99
2021-10-21 16:14:31.194947,-111
2021-10-21 16:14:31.194955,-116
2021-10-21 16:14:31.194963,-114
2021-10-21 16:14:31.194972,-116
2021-10-21 16:14:31.194980,-111
2021-10-21 16:14:31.194988,-104
2021-10-21 16:14:31.194996,-92
2021-10-21 16:14:31.195004,-72
2021-10-21 16:14:31.195013,-70
2021-10-21 16:14:31.195021,-80
2021-10-21 16:14:31.195029,-80
2021-10-21 16:14:31.195037,-63
2021-10-21 16:14:31.195046,-58
2021-10-21 16:14:31.419870,-60
2021-10-21 16:14:31.419890,-63
2021-10-21 16:14:31.419899,-55
2021-10-21 16:14:31.419908,-51
2021-10-21 16:14:31.419917,-48
2021-10-21 16:14:31.419925,-46
2021-10-21 16:14:31.419933,-48
2021-10-21 16:14:31.419941,-60
2021-10-21 16:14:31.419949,-70
2021-10-21 16:14:31.419957,-70
2021-10-21 16:14:31.419966,-75
2021-10-21 16:14:31.419974,-80
2021-10-21 16:14:31.419982,-82
2021-10-21 16:14:31.419990,-87
2021-10-21 16:14:31.419998,-92
2021-10-21 16:14:31.420007,-90
2021-10-21 16:14:31.420015,-82
2021-10-21 16:14:31.420023,-75
2021-10-21 16:14:31.420031,-72
2021-10-21 16:14:31.420040,-68
2021-10-21 16:14:31.420048,-63
2021-10-21 16:14:31.420056,-58
2021-10-21 16:14:31.420064,-58
2021-10-21 16:14:31.420072,-53
2021-10-21 16:14:31.420081,-53
2021-10-21 16:14:31.420089,-55
2021-10-21 16:14:31.420097,-43
2021-10-21 16:14:31.420105,-17
2021-10-21 16:14:31.420114,-7
2021-10-21 16:14:31.420122,-12
2021-10-21 16:14:31.734825,-12
2021-10-21 16:14:31.734844,-12
2021-10-21 16:14:31.734854,-29
2021-10-21 16:14:31.734863,-43
2021-10-21 16:14:31.734871,-38
2021-10-21 16:14:31.734880,-38
2021-10-21 16:14:31.734888,-48
2021-10-21 16:14:31.734896,-51
2021-10-21 16:14:31.734904,-38
2021-10-21 16:14:31.734913,-36
2021-10-21 16:14:31.734921,-43
2021-10-21 16:14:31.734929,-53
2021-10-21 16:14:31.734938,-104
2021-10-21 16:14:31.734946,-172
2021-10-21 16:14:31.734954,-90
2021-10-21 16:14:31.734963,352
2021-10-21 16:14:31.734971,1129
2021-10-21 16:14:31.734979,1559
2021-10-21 16:14:31.734987,917
2021-10-21 16:14:31.734995,-29
2021-10-21 16:14:31.735003,-145
2021-10-21 16:14:31.735012,36
2021-10-21 16:14:31.735020,-104
2021-10-21 16:14:31.735028,-189
2021-10-21 16:14:31.735037,-111
2021-10-21 16:14:31.735045,-114
2021-10-21 16:14:31.735053,-141
2021-10-21 16:14:31.735061,-111
2021-10-21 16:14:31.735069,-85
2021-10-21 16:14:31.735078,-80
2021-10-21 16:14:31.869712,-70
2021-10-21 16:14:31.869731,-55
2021-10-21 16:14:31.869741,-43
2021-10-21 16:14:31.869749,-31
2021-10-21 16:14:31.869758,-19
2021-10-21 16:14:31.869766,-12
2021-10-21 16:14:31.869775,-2
2021-10-21 16:14:31.869783,12
2021-10-21 16:14:31.869791,24
2021-10-21 16:14:31.869800,41
2021-10-21 16:14:31.869808,53
2021-10-21 16:14:31.869816,58
2021-10-21 16:14:31.869825,70
2021-10-21 16:14:31.869833,75
2021-10-21 16:14:31.869841,70
2021-10-21 16:14:31.869849,68
2021-10-21 16:14:31.869858,65
2021-10-21 16:14:31.869866,46
2021-10-21 16:14:31.869874,17
2021-10-21 16:14:31.869882,-2
2021-10-21 16:14:31.869891,-29
2021-10-21 16:14:31.869899,-53
2021-10-21 16:14:31.869908,-70
2021-10-21 16:14:31.869916,-87
2021-10-21 16:14:31.869924,-104
2021-10-21 16:14:31.869932,-97
2021-10-21 16:14:31.869940,-92
2021-10-21 16:14:31.869949,-92
2021-10-21 16:14:31.869957,-87
2021-10-21 16:14:31.869965,-82
2021-10-21 16:14:32.094711,-75
2021-10-21 16:14:32.094730,-68
2021-10-21 16:14:32.094740,-70
2021-10-21 16:14:32.094748,-68
2021-10-21 16:14:32.094757,-68
2021-10-21 16:14:32.094765,-75
2021-10-21 16:14:32.094774,-72
2021-10-21 16:14:32.094782,-68
2021-10-21 16:14:32.094791,-72
2021-10-21 16:14:32.094799,-70
2021-10-21 16:14:32.094808,-70
2021-10-21 16:14:32.094816,-77
2021-10-21 16:14:32.094824,-72
2021-10-21 16:14:32.094833,-68
2021-10-21 16:14:32.094841,-77
2021-10-21 16:14:32.094849,-90
2021-10-21 16:14:32.094857,-92
2021-10-21 16:14:32.094866,-87
2021-10-21 16:14:32.094874,-82
2021-10-21 16:14:32.094882,-80
2021-10-21 16:14:32.094890,-92
2021-10-21 16:14:32.094899,-111
2021-10-21 16:14:32.094907,-107
2021-10-21 16:14:32.094915,-97
2021-10-21 16:14:32.094923,-90
2021-10-21 16:14:32.094932,-82
2021-10-21 16:14:32.094940,-75
2021-10-21 16:14:32.094948,-85
2021-10-21 16:14:32.094957,-90
2021-10-21 16:14:32.094965,-77
2021-10-21 16:14:32.319754,-63
2021-10-21 16:14:32.319772,-43
2021-10-21 16:14:32.319781,-21
2021-10-21 16:14:32.319790,-26
2021-10-21 16:14:32.319798,-48
2021-10-21 16:14:32.319807,-51
2021-10-21 16:14:32.319815,-41
2021-10-21 16:14:32.319823,-41
2021-10-21 16:14:32.319832,-46
2021-10-21 16:14:32.319840,-63
2021-10-21 16:14:32.319848,-80
2021-10-21 16:14:32.319856,-68
2021-10-21 16:14:32.319865,-53
2021-10-21 16:14:32.319873,-55
2021-10-21 16:14:32.319881,-51
2021-10-21 16:14:32.319889,-51
2021-10-21 16:14:32.319898,-82
2021-10-21 16:14:32.319906,-145
2021-10-21 16:14:32.319914,-163
2021-10-21 16:14:32.319922,55
2021-10-21 16:14:32.319930,669
2021-10-21 16:14:32.319939,1425
2021-10-21 16:14:32.319947,1462
2021-10-21 16:14:32.319955,540
2021-10-21 16:14:32.319963,-138
2021-10-21 16:14:32.319972,-26
2021-10-21 16:14:32.319980,34
2021-10-21 16:14:32.319988,-148
2021-10-21 16:14:32.319996,-150
2021-10-21 16:14:32.320004,-82
2021-10-21 16:14:32.633425,-104
2021-10-21 16:14:32.633445,-104
2021-10-21 16:14:32.633454,-75
2021-10-21 16:14:32.633462,-85
2021-10-21 16:14:32.633470,-87
2021-10-21 16:14:32.633479,-53
2021-10-21 16:14:32.633487,-34
2021-10-21 16:14:32.633495,-34
2021-10-21 16:14:32.633503,-24
2021-10-21 16:14:32.633511,-19
2021-10-21 16:14:32.633519,-12
2021-10-21 16:14:32.633527,0
2021-10-21 16:14:32.633536,4
2021-10-21 16:14:32.633544,19
2021-10-21 16:14:32.633552,38
2021-10-21 16:14:32.633560,46
2021-10-21 16:14:32.633568,53
2021-10-21 16:14:32.633576,70
2021-10-21 16:14:32.633584,77
2021-10-21 16:14:32.633592,80
2021-10-21 16:14:32.633600,77
2021-10-21 16:14:32.633608,60
2021-10-21 16:14:32.633617,41
2021-10-21 16:14:32.633625,26
2021-10-21 16:14:32.633633,0
2021-10-21 16:14:32.633641,-41
2021-10-21 16:14:32.633649,-80
2021-10-21 16:14:32.633657,-102
2021-10-21 16:14:32.633665,-107
2021-10-21 16:14:32.633673,-109
2021-10-21 16:14:32.814721,-102
2021-10-21 16:14:32.814739,-92
2021-10-21 16:14:32.814749,-97
2021-10-21 16:14:32.814758,-99
2021-10-21 16:14:32.814766,-87
2021-10-21 16:14:32.814775,-70
2021-10-21 16:14:32.814783,-55
2021-10-21 16:14:32.814791,-46
2021-10-21 16:14:32.814800,-58
2021-10-21 16:14:32.814808,-75
2021-10-21 16:14:32.814816,-63
2021-10-21 16:14:32.814824,-51
2021-10-21 16:14:32.814833,-58
2021-10-21 16:14:32.814841,-68
2021-10-21 16:14:32.814849,-77
2021-10-21 16:14:32.814858,-85
2021-10-21 16:14:32.814866,-77
2021-10-21 16:14:32.814874,-63
2021-10-21 16:14:32.814882,-63
2021-10-21 16:14:32.814891,-65
2021-10-21 16:14:32.814899,-63
2021-10-21 16:14:32.814907,-68
2021-10-21 16:14:32.814916,-75
2021-10-21 16:14:32.814924,-72
2021-10-21 16:14:32.814932,-70
2021-10-21 16:14:32.814940,-72
2021-10-21 16:14:32.814948,-80
2021-10-21 16:14:32.814957,-82
2021-10-21 16:14:32.814965,-75
2021-10-21 16:14:32.814973,-65
2021-10-21 16:14:33.039718,-63
2021-10-21 16:14:33.039737,-60
2021-10-21 16:14:33.039746,-58
2021-10-21 16:14:33.039755,-58
2021-10-21 16:14:33.039764,-53
2021-10-21 16:14:33.039773,-51
2021-10-21 16:14:33.039781,-51
2021-10-21 16:14:33.039789,-38
2021-10-21 16:14:33.039798,-19
2021-10-21 16:14:33.039807,-14
2021-10-21 16:14:33.039815,-19
2021-10-21 16:14:33.039823,-17
2021-10-21 16:14:33.039832,-17
2021-10-21 16:14:33.039840,-31
2021-10-21 16:14:33.039849,-48
2021-10-21 16:14:33.039857,-55
2021-10-21 16:14:33.039866,-53
2021-10-21 16:14:33.039874,-46
2021-10-21 16:14:33.039882,-36
2021-10-21 16:14:33.039891,-36
2021-10-21 16:14:33.039899,-41
2021-10-21 16:14:33.039907,-34
2021-10-21 16:14:33.039916,-38
2021-10-21 16:14:33.039924,-90
2021-10-21 16:14:33.039932,-155
2021-10-21 16:14:33.039941,-72
2021-10-21 16:14:33.039949,367
2021-10-21 16:14:33.039957,1146
2021-10-21 16:14:33.039966,1627
2021-10-21 16:14:33.039974,1046
2021-10-21 16:14:33.264820,58
2021-10-21 16:14:33.264838,-136
2021-10-21 16:14:33.264848,51
2021-10-21 16:14:33.264857,-75
2021-10-21 16:14:33.264865,-175
2021-10-21 16:14:33.264874,-99
2021-10-21 16:14:33.264882,-97
2021-10-21 16:14:33.264891,-138
2021-10-21 16:14:33.264899,-116
2021-10-21 16:14:33.264907,-90
2021-10-21 16:14:33.264915,-80
2021-10-21 16:14:33.264923,-65
2021-10-21 16:14:33.264931,-55
2021-10-21 16:14:33.264940,-55
2021-10-21 16:14:33.264948,-46
2021-10-21 16:14:33.264956,-31
2021-10-21 16:14:33.264964,-14
2021-10-21 16:14:33.264973,-4
2021-10-21 16:14:33.264981,-7
2021-10-21 16:14:33.264989,2
2021-10-21 16:14:33.264997,26
2021-10-21 16:14:33.265006,38
2021-10-21 16:14:33.265014,43
2021-10-21 16:14:33.265022,60
2021-10-21 16:14:33.265030,65
2021-10-21 16:14:33.265039,58
2021-10-21 16:14:33.265047,55
2021-10-21 16:14:33.265055,55
2021-10-21 16:14:33.265063,48
2021-10-21 16:14:33.265071,29
2021-10-21 16:14:33.534046,0
2021-10-21 16:14:33.534064,-26
2021-10-21 16:14:33.534074,-48
2021-10-21 16:14:33.534082,-72
2021-10-21 16:14:33.534090,-80
2021-10-21 16:14:33.534099,-80
2021-10-21 16:14:33.534107,-90
2021-10-21 16:14:33.534115,-92
2021-10-21 16:14:33.534124,-80
2021-10-21 16:14:33.534132,-77
2021-10-21 16:14:33.534140,-80
2021-10-21 16:14:33.534148,-70
2021-10-21 16:14:33.534157,-70
2021-10-21 16:14:33.534165,-70
2021-10-21 16:14:33.534173,-63
2021-10-21 16:14:33.534181,-55
2021-10-21 16:14:33.534190,-53
2021-10-21 16:14:33.534198,-55
2021-10-21 16:14:33.534206,-60
2021-10-21 16:14:33.534214,-63
2021-10-21 16:14:33.534222,-72
2021-10-21 16:14:33.534231,-70
2021-10-21 16:14:33.534239,-58
2021-10-21 16:14:33.534247,-51
2021-10-21 16:14:33.534255,-53
2021-10-21 16:14:33.534264,-48
2021-10-21 16:14:33.534272,-43
2021-10-21 16:14:33.534280,-53
2021-10-21 16:14:33.534288,-68
2021-10-21 16:14:33.534297,-65
2021-10-21 16:14:33.714834,-68
2021-10-21 16:14:33.714853,-77
2021-10-21 16:14:33.714863,-77
2021-10-21 16:14:33.714871,-77
2021-10-21 16:14:33.714880,-75
2021-10-21 16:14:33.714888,-70
2021-10-21 16:14:33.714896,-82
2021-10-21 16:14:33.714905,-102
2021-10-21 16:14:33.714913,-104
2021-10-21 16:14:33.714922,-90
2021-10-21 16:14:33.714930,-65
2021-10-21 16:14:33.714938,-53
2021-10-21 16:14:33.714946,-63
2021-10-21 16:14:33.714955,-65
2021-10-21 16:14:33.714963,-55
2021-10-21 16:14:33.714971,-63
2021-10-21 16:14:33.714980,-72
2021-10-21 16:14:33.714988,-72
2021-10-21 16:14:33.714996,-75
2021-10-21 16:14:33.715016,-72
2021-10-21 16:14:33.715025,-63
2021-10-21 16:14:33.715033,-68
2021-10-21 16:14:33.715042,-72
2021-10-21 16:14:33.715050,-63
2021-10-21 16:14:33.715058,-65
2021-10-21 16:14:33.715066,-97
2021-10-21 16:14:33.715074,-158
2021-10-21 16:14:33.715083,-175
2021-10-21 16:14:33.715091,51
2021-10-21 16:14:33.715099,688
2021-10-21 16:14:33.939747,1464
2021-10-21 16:14:33.939766,1494
2021-10-21 16:14:33.939775,547
2021-10-21 16:14:33.939784,-145
2021-10-21 16:14:33.939793,-43
2021-10-21 16:14:33.939801,2
2021-10-21 16:14:33.939809,-175
2021-10-21 16:14:33.939817,-160
2021-10-21 16:14:33.939826,-102
2021-10-21 16:14:33.939834,-141
2021-10-21 16:14:33.939842,-141
2021-10-21 16:14:33.939851,-111
2021-10-21 16:14:33.939859,-111
2021-10-21 16:14:33.939867,-97
2021-10-21 16:14:33.939875,-75
2021-10-21 16:14:33.939884,-72
2021-10-21 16:14:33.939892,-55
2021-10-21 16:14:33.939900,-34
2021-10-21 16:14:33.939909,-24
2021-10-21 16:14:33.939917,-9
2021-10-21 16:14:33.939926,7
2021-10-21 16:14:33.939939,21
2021-10-21 16:14:33.939948,46
2021-10-21 16:14:33.939956,63
2021-10-21 16:14:33.939964,65
2021-10-21 16:14:33.939973,80
2021-10-21 16:14:33.939981,102
2021-10-21 16:14:33.939989,99
2021-10-21 16:14:33.939997,97
2021-10-21 16:14:33.940005,107
2021-10-21 16:14:34.209125,102
2021-10-21 16:14:34.209144,72
2021-10-21 16:14:34.209153,31
2021-10-21 16:14:34.209162,-9
2021-10-21 16:14:34.209171,-43
2021-10-21 16:14:34.209179,-68
2021-10-21 16:14:34.209187,-75
2021-10-21 16:14:34.209196,-80
2021-10-21 16:14:34.209204,-87
2021-10-21 16:14:34.209212,-94
2021-10-21 16:14:34.209220,-104
2021-10-21 16:14:34.209229,-104
2021-10-21 16:14:34.209237,-97
2021-10-21 16:14:34.209245,-97
2021-10-21 16:14:34.209254,-97
2021-10-21 16:14:34.209262,-90
2021-10-21 16:14:34.209270,-82
2021-10-21 16:14:34.209278,-77
2021-10-21 16:14:34.209286,-65
2021-10-21 16:14:34.209295,-48
2021-10-21 16:14:34.209303,-46
2021-10-21 16:14:34.209311,-63
2021-10-21 16:14:34.209319,-68
2021-10-21 16:14:34.209328,-53
2021-10-21 16:14:34.209336,-46
2021-10-21 16:14:34.209344,-58
2021-10-21 16:14:34.209352,-63
2021-10-21 16:14:34.209361,-51
2021-10-21 16:14:34.209369,-51
2021-10-21 16:14:34.209377,-58
2021-10-21 16:14:34.434745,-48
2021-10-21 16:14:34.434763,-34
2021-10-21 16:14:34.434773,-38
2021-10-21 16:14:34.434781,-60
2021-10-21 16:14:34.434790,-70
2021-10-21 16:14:34.434798,-65
2021-10-21 16:14:34.434806,-65
2021-10-21 16:14:34.434814,-70
2021-10-21 16:14:34.434823,-70
2021-10-21 16:14:34.434831,-77
2021-10-21 16:14:34.434839,-80
2021-10-21 16:14:34.434847,-63
2021-10-21 16:14:34.434856,-31
2021-10-21 16:14:34.434864,-12
2021-10-21 16:14:34.434872,-24
2021-10-21 16:14:34.434880,-36
2021-10-21 16:14:34.434888,-31
2021-10-21 16:14:34.434897,-34
2021-10-21 16:14:34.434905,-41
2021-10-21 16:14:34.434913,-36
2021-10-21 16:14:34.434921,-29
2021-10-21 16:14:34.434929,-31
2021-10-21 16:14:34.434937,-29
2021-10-21 16:14:34.434946,-24
2021-10-21 16:14:34.434954,-19
2021-10-21 16:14:34.434962,-12
2021-10-21 16:14:34.434970,-17
2021-10-21 16:14:34.434978,-65
2021-10-21 16:14:34.434986,-160
2021-10-21 16:14:34.434995,-143
2021-10-21 16:14:34.703434,236
2021-10-21 16:14:34.703453,1031
2021-10-21 16:14:34.703462,1661
2021-10-21 16:14:34.703471,1221
2021-10-21 16:14:34.703480,138
2021-10-21 16:14:34.703488,-182
2021-10-21 16:14:34.703497,77
2021-10-21 16:14:34.703505,-2
2021-10-21 16:14:34.703513,-170
2021-10-21 16:14:34.703522,-116
2021-10-21 16:14:34.703530,-92
2021-10-21 16:14:34.703538,-124
2021-10-21 16:14:34.703546,-85
2021-10-21 16:14:34.703555,-55
2021-10-21 16:14:34.703563,-77
2021-10-21 16:14:34.703571,-80
2021-10-21 16:14:34.703579,-51
2021-10-21 16:14:34.703588,-29
2021-10-21 16:14:34.703596,-29
2021-10-21 16:14:34.703605,-31
2021-10-21 16:14:34.703613,-29
2021-10-21 16:14:34.703621,-14
2021-10-21 16:14:34.703629,4
2021-10-21 16:14:34.703637,21
2021-10-21 16:14:34.703646,41
2021-10-21 16:14:34.703654,60
2021-10-21 16:14:34.703662,70
2021-10-21 16:14:34.703671,68
2021-10-21 16:14:34.703679,80
2021-10-21 16:14:34.703687,87
2021-10-21 16:14:34.929901,80
2021-10-21 16:14:34.929922,70
2021-10-21 16:14:34.929932,53
2021-10-21 16:14:34.929940,19
2021-10-21 16:14:34.929949,-21
2021-10-21 16:14:34.929957,-48
2021-10-21 16:14:34.929966,-65
2021-10-21 16:14:34.929974,-82
2021-10-21 16:14:34.929983,-111
2021-10-21 16:14:34.929991,-128
2021-10-21 16:14:34.929999,-124
2021-10-21 16:14:34.930008,-119
2021-10-21 16:14:34.930016,-116
2021-10-21 16:14:34.930024,-109
2021-10-21 16:14:34.930033,-111
2021-10-21 16:14:34.930041,-107
2021-10-21 16:14:34.930049,-97
2021-10-21 16:14:34.930058,-87
2021-10-21 16:14:34.930075,-80
2021-10-21 16:14:34.930084,-75
2021-10-21 16:14:34.930092,-70
2021-10-21 16:14:34.930101,-63
2021-10-21 16:14:34.930109,-58
2021-10-21 16:14:34.930117,-48
2021-10-21 16:14:34.930126,-41
2021-10-21 16:14:34.930134,-41
2021-10-21 16:14:34.930142,-36
2021-10-21 16:14:34.930150,-38
2021-10-21 16:14:34.930159,-48
2021-10-21 16:14:34.930167,-48
2021-10-21 16:14:35.109846,-38
2021-10-21 16:14:35.109866,-43
2021-10-21 16:14:35.109876,-55
2021-10-21 16:14:35.109884,-48
2021-10-21 16:14:35.109893,-41
2021-10-21 16:14:35.109901,-46
2021-10-21 16:14:35.109909,-48
2021-10-21 16:14:35.109918,-53
2021-10-21 16:14:35.109926,-60
2021-10-21 16:14:35.109934,-68
2021-10-21 16:14:35.109942,-72
2021-10-21 16:14:35.109951,-70
2021-10-21 16:14:35.109959,-63
2021-10-21 16:14:35.109967,-41
2021-10-21 16:14:35.109976,-29
2021-10-21 16:14:35.109984,-38
2021-10-21 16:14:35.109992,-38
2021-10-21 16:14:35.110000,-34
2021-10-21 16:14:35.110009,-48
2021-10-21 16:14:35.110017,-68
2021-10-21 16:14:35.110025,-65
2021-10-21 16:14:35.110034,-58
2021-10-21 16:14:35.110042,-53
2021-10-21 16:14:35.110050,-48
2021-10-21 16:14:35.110058,-51
2021-10-21 16:14:35.110066,-65
2021-10-21 16:14:35.110074,-72
2021-10-21 16:14:35.110082,-75
2021-10-21 16:14:35.110091,-119
2021-10-21 16:14:35.110098,-197
2021-10-21 16:14:35.379763,-148
2021-10-21 16:14:35.379782,270
2021-10-21 16:14:35.379791,1104
2021-10-21 16:14:35.379800,1734
2021-10-21 16:14:35.379809,1238
2021-10-21 16:14:35.379817,119
2021-10-21 16:14:35.379825,-218
2021-10-21 16:14:35.379834,4
2021-10-21 16:14:35.379842,-85
2021-10-21 16:14:35.379850,-231
2021-10-21 16:14:35.379859,-160
2021-10-21 16:14:35.379867,-131
2021-10-21 16:14:35.379875,-177
2021-10-21 16:14:35.379883,-160
2021-10-21 16:14:35.379892,-128
2021-10-21 16:14:35.379900,-124
2021-10-21 16:14:35.379908,-109
2021-10-21 16:14:35.379917,-87
2021-10-21 16:14:35.379925,-80
2021-10-21 16:14:35.379933,-65
2021-10-21 16:14:35.379941,-43
2021-10-21 16:14:35.379950,-36
2021-10-21 16:14:35.379958,-24
2021-10-21 16:14:35.379966,-4
2021-10-21 16:14:35.379974,9
2021-10-21 16:14:35.379983,26
2021-10-21 16:14:35.379991,51
2021-10-21 16:14:35.379999,65
2021-10-21 16:14:35.380007,80
2021-10-21 16:14:35.380016,90
2021-10-21 16:14:35.559730,90
2021-10-21 16:14:35.559748,94
2021-10-21 16:14:35.559757,92
2021-10-21 16:14:35.559765,68
2021-10-21 16:14:35.559774,41
2021-10-21 16:14:35.559783,7
2021-10-21 16:14:35.559791,-36
2021-10-21 16:14:35.559800,-68
2021-10-21 16:14:35.559808,-80
2021-10-21 16:14:35.559816,-92
2021-10-21 16:14:35.559825,-107
2021-10-21 16:14:35.559833,-111
2021-10-21 16:14:35.559841,-116
2021-10-21 16:14:35.559850,-116
2021-10-21 16:14:35.559858,-102
2021-10-21 16:14:35.559866,-94
2021-10-21 16:14:35.559875,-90
2021-10-21 16:14:35.559883,-85
2021-10-21 16:14:35.559891,-85
2021-10-21 16:14:35.559900,-80
2021-10-21 16:14:35.559908,-65
2021-10-21 16:14:35.559916,-63
2021-10-21 16:14:35.559924,-60
2021-10-21 16:14:35.559933,-53
2021-10-21 16:14:35.559941,-48
2021-10-21 16:14:35.559950,-41
2021-10-21 16:14:35.559958,-38
2021-10-21 16:14:35.559966,-38
2021-10-21 16:14:35.559975,-31
2021-10-21 16:14:35.559983,-31
2021-10-21 16:14:35.830365,-43
2021-10-21 16:14:35.830385,-55
2021-10-21 16:14:35.830394,-60
2021-10-21 16:14:35.830403,-63
2021-10-21 16:14:35.830411,-68
2021-10-21 16:14:35.830420,-75
2021-10-21 16:14:35.830428,-77
2021-10-21 16:14:35.830436,-70
2021-10-21 16:14:35.830445,-80
2021-10-21 16:14:35.830453,-90
2021-10-21 16:14:35.830461,-85
2021-10-21 16:14:35.830470,-82
2021-10-21 16:14:35.830478,-82
2021-10-21 16:14:35.830486,-75
2021-10-21 16:14:35.830495,-77
2021-10-21 16:14:35.830503,-90
2021-10-21 16:14:35.830511,-94
2021-10-21 16:14:35.830520,-92
2021-10-21 16:14:35.830528,-90
2021-10-21 16:14:35.830536,-82
2021-10-21 16:14:35.830545,-63
2021-10-21 16:14:35.830553,-36
2021-10-21 16:14:35.830561,-34
2021-10-21 16:14:35.830570,-53
2021-10-21 16:14:35.830578,-55
2021-10-21 16:14:35.830586,-41
2021-10-21 16:14:35.830595,-48
2021-10-21 16:14:35.830603,-63
2021-10-21 16:14:35.830611,-53
2021-10-21 16:14:35.830620,-53
2021-10-21 16:14:36.009764,-53
2021-10-21 16:14:36.009783,-38
2021-10-21 16:14:36.009792,-36
2021-10-21 16:14:36.009801,-48
2021-10-21 16:14:36.009809,-60
2021-10-21 16:14:36.009818,-77
2021-10-21 16:14:36.009826,-131
2021-10-21 16:14:36.009834,-187
2021-10-21 16:14:36.009843,-77
2021-10-21 16:14:36.009851,433
2021-10-21 16:14:36.009859,1294
2021-10-21 16:14:36.009867,1742
2021-10-21 16:14:36.009876,1012
2021-10-21 16:14:36.009884,-34
2021-10-21 16:14:36.009892,-155
2021-10-21 16:14:36.009901,51
2021-10-21 16:14:36.009909,-121
2021-10-21 16:14:36.009917,-223
2021-10-21 16:14:36.009926,-131
2021-10-21 16:14:36.009934,-131
2021-10-21 16:14:36.009942,-165
2021-10-21 16:14:36.009951,-131
2021-10-21 16:14:36.009959,-109
2021-10-21 16:14:36.009967,-111
2021-10-21 16:14:36.009975,-90
2021-10-21 16:14:36.009984,-68
2021-10-21 16:14:36.009992,-55
2021-10-21 16:14:36.010000,-38
2021-10-21 16:14:36.010009,-26
2021-10-21 16:14:36.010017,-17
2021-10-21 16:14:36.234899,2
2021-10-21 16:14:36.234920,17
2021-10-21 16:14:36.234929,29
2021-10-21 16:14:36.234937,38
2021-10-21 16:14:36.234946,43
2021-10-21 16:14:36.234954,55
2021-10-21 16:14:36.234962,63
2021-10-21 16:14:36.234970,60
2021-10-21 16:14:36.234979,65
2021-10-21 16:14:36.234987,63
2021-10-21 16:14:36.234995,51
2021-10-21 16:14:36.235003,36
2021-10-21 16:14:36.235012,2
2021-10-21 16:14:36.235020,-41
2021-10-21 16:14:36.235028,-72
2021-10-21 16:14:36.235035,-97
2021-10-21 16:14:36.235043,-119
2021-10-21 16:14:36.235051,-126
2021-10-21 16:14:36.235059,-128
2021-10-21 16:14:36.235068,-126
2021-10-21 16:14:36.235076,-126
2021-10-21 16:14:36.235084,-131
2021-10-21 16:14:36.235092,-128
2021-10-21 16:14:36.235101,-109
2021-10-21 16:14:36.235109,-94
2021-10-21 16:14:36.235117,-85
2021-10-21 16:14:36.235125,-77
2021-10-21 16:14:36.235133,-77
2021-10-21 16:14:36.235142,-70
2021-10-21 16:14:36.235150,-55
2021-10-21 16:14:36.504914,-51
2021-10-21 16:14:36.504934,-43
2021-10-21 16:14:36.504943,-43
2021-10-21 16:14:36.504952,-58
2021-10-21 16:14:36.504960,-65
2021-10-21 16:14:36.504969,-48
2021-10-21 16:14:36.504977,-36
2021-10-21 16:14:36.504985,-34
2021-10-21 16:14:36.504993,-41
2021-10-21 16:14:36.505002,-60
2021-10-21 16:14:36.505010,-63
2021-10-21 16:14:36.505018,-53
2021-10-21 16:14:36.505027,-51
2021-10-21 16:14:36.505035,-55
2021-10-21 16:14:36.505043,-60
2021-10-21 16:14:36.505052,-68
2021-10-21 16:14:36.505060,-68
2021-10-21 16:14:36.505068,-55
2021-10-21 16:14:36.505076,-48
2021-10-21 16:14:36.505085,-51
2021-10-21 16:14:36.505093,-63
2021-10-21 16:14:36.505101,-65
2021-10-21 16:14:36.505109,-60
2021-10-21 16:14:36.505117,-65
2021-10-21 16:14:36.505126,-63
2021-10-21 16:14:36.505134,-55
2021-10-21 16:14:36.505142,-60
2021-10-21 16:14:36.505150,-70
2021-10-21 16:14:36.505158,-65
2021-10-21 16:14:36.505166,-48
2021-10-21 16:14:36.818496,-19
2021-10-21 16:14:36.818516,-2
2021-10-21 16:14:36.818525,-14
2021-10-21 16:14:36.818534,-26
2021-10-21 16:14:36.818543,-24
2021-10-21 16:14:36.818551,-24
2021-10-21 16:14:36.818559,-26
2021-10-21 16:14:36.818568,-31
2021-10-21 16:14:36.818576,-46
2021-10-21 16:14:36.818585,-51
2021-10-21 16:14:36.818593,-36
2021-10-21 16:14:36.818601,-36
2021-10-21 16:14:36.818609,-55
2021-10-21 16:14:36.818618,-68
2021-10-21 16:14:36.818626,-72
2021-10-21 16:14:36.818634,-116
2021-10-21 16:14:36.818643,-209
2021-10-21 16:14:36.818651,-201
2021-10-21 16:14:36.818659,155
2021-10-21 16:14:36.818668,939
2021-10-21 16:14:36.818676,1664
2021-10-21 16:14:36.818684,1379
2021-10-21 16:14:36.818693,262
2021-10-21 16:14:36.818701,-236
2021-10-21 16:14:36.818709,-2
2021-10-21 16:14:36.818717,-24
2021-10-21 16:14:36.818726,-214
2021-10-21 16:14:36.818734,-163
2021-10-21 16:14:36.818742,-104
2021-10-21 16:14:36.818750,-143
2021-10-21 16:14:36.954778,-138
2021-10-21 16:14:36.954796,-104
2021-10-21 16:14:36.954806,-109
2021-10-21 16:14:36.954815,-102
2021-10-21 16:14:36.954823,-68
2021-10-21 16:14:36.954832,-48
2021-10-21 16:14:36.954840,-41
2021-10-21 16:14:36.954848,-41
2021-10-21 16:14:36.954857,-41
2021-10-21 16:14:36.954865,-24
2021-10-21 16:14:36.954879,0
2021-10-21 16:14:36.954888,17
2021-10-21 16:14:36.954896,21
2021-10-21 16:14:36.954904,31
2021-10-21 16:14:36.954913,46
2021-10-21 16:14:36.954921,60
2021-10-21 16:14:36.954929,72
2021-10-21 16:14:36.954937,80
2021-10-21 16:14:36.954946,72
2021-10-21 16:14:36.954954,58
2021-10-21 16:14:36.954962,43
2021-10-21 16:14:36.954970,24
2021-10-21 16:14:36.954979,-7
2021-10-21 16:14:36.954987,-36
2021-10-21 16:14:36.954995,-58
2021-10-21 16:14:36.955003,-80
2021-10-21 16:14:36.955011,-102
2021-10-21 16:14:36.955020,-116
2021-10-21 16:14:36.955028,-114
2021-10-21 16:14:36.955036,-109
2021-10-21 16:14:37.179787,-109
2021-10-21 16:14:37.179806,-109
2021-10-21 16:14:37.179816,-102
2021-10-21 16:14:37.179824,-94
2021-10-21 16:14:37.179833,-82
2021-10-21 16:14:37.179841,-70
2021-10-21 16:14:37.179850,-70
2021-10-21 16:14:37.179858,-75
2021-10-21 16:14:37.179866,-68
2021-10-21 16:14:37.179874,-60
2021-10-21 16:14:37.179883,-55
2021-10-21 16:14:37.179891,-60
2021-10-21 16:14:37.179899,-75
2021-10-21 16:14:37.179908,-75
2021-10-21 16:14:37.179916,-60
2021-10-21 16:14:37.179924,-58
2021-10-21 16:14:37.179933,-65
2021-10-21 16:14:37.179941,-80
2021-10-21 16:14:37.179949,-90
2021-10-21 16:14:37.179957,-80
2021-10-21 16:14:37.179966,-82
2021-10-21 16:14:37.179974,-99
2021-10-21 16:14:37.179982,-97
2021-10-21 16:14:37.179990,-90
2021-10-21 16:14:37.179999,-97
2021-10-21 16:14:37.180007,-97
2021-10-21 16:14:37.180015,-97
2021-10-21 16:14:37.180023,-102
2021-10-21 16:14:37.180032,-92
2021-10-21 16:14:37.180040,-82
2021-10-21 16:14:37.404805,-85
2021-10-21 16:14:37.404823,-82
2021-10-21 16:14:37.404832,-75
2021-10-21 16:14:37.404841,-70
2021-10-21 16:14:37.404850,-63
2021-10-21 16:14:37.404858,-65
2021-10-21 16:14:37.404867,-75
2021-10-21 16:14:37.404875,-70
2021-10-21 16:14:37.404883,-55
2021-10-21 16:14:37.404891,-58
2021-10-21 16:14:37.404899,-60
2021-10-21 16:14:37.404908,-60
2021-10-21 16:14:37.404916,-65
2021-10-21 16:14:37.404924,-53
2021-10-21 16:14:37.404932,-17
2021-10-21 16:14:37.404940,0
2021-10-21 16:14:37.404948,-19
2021-10-21 16:14:37.404957,-31
2021-10-21 16:14:37.404965,-26
2021-10-21 16:14:37.404973,-29
2021-10-21 16:14:37.404981,-34
2021-10-21 16:14:37.404990,-26
2021-10-21 16:14:37.404998,-29
2021-10-21 16:14:37.405006,-46
2021-10-21 16:14:37.405014,-48
2021-10-21 16:14:37.405022,-31
2021-10-21 16:14:37.405030,-24
2021-10-21 16:14:37.405039,-26
2021-10-21 16:14:37.405047,-29
2021-10-21 16:14:37.405055,-65
2021-10-21 16:14:37.674214,-148
2021-10-21 16:14:37.674233,-150
2021-10-21 16:14:37.674242,167
2021-10-21 16:14:37.674251,931
2021-10-21 16:14:37.674260,1725
2021-10-21 16:14:37.674268,1545
2021-10-21 16:14:37.674276,406
2021-10-21 16:14:37.674284,-201
2021-10-21 16:14:37.674293,17
2021-10-21 16:14:37.674301,21
2021-10-21 16:14:37.674309,-192
2021-10-21 16:14:37.674317,-163
2021-10-21 16:14:37.674326,-102
2021-10-21 16:14:37.674334,-145
2021-10-21 16:14:37.674342,-138
2021-10-21 16:14:37.674351,-94
2021-10-21 16:14:37.674359,-97
2021-10-21 16:14:37.674367,-94
2021-10-21 16:14:37.674376,-63
2021-10-21 16:14:37.674384,-43
2021-10-21 16:14:37.674392,-41
2021-10-21 16:14:37.674413,-34
2021-10-21 16:14:37.674422,-21
2021-10-21 16:14:37.674430,-17
2021-10-21 16:14:37.674438,-19
2021-10-21 16:14:37.674446,-7
2021-10-21 16:14:37.674455,12
2021-10-21 16:14:37.674463,24
2021-10-21 16:14:37.674471,34
2021-10-21 16:14:37.674533,51
2021-10-21 16:14:37.854771,68
2021-10-21 16:14:37.854790,77
2021-10-21 16:14:37.854799,85
2021-10-21 16:14:37.854808,85
2021-10-21 16:14:37.854817,65
2021-10-21 16:14:37.854825,36
2021-10-21 16:14:37.854833,7
2021-10-21 16:14:37.854841,-19
2021-10-21 16:14:37.854850,-38
2021-10-21 16:14:37.854858,-65
2021-10-21 16:14:37.854866,-104
2021-10-21 16:14:37.854881,-128
2021-10-21 16:14:37.854889,-119
2021-10-21 16:14:37.854898,-116
2021-10-21 16:14:37.854906,-128
2021-10-21 16:14:37.854914,-131
2021-10-21 16:14:37.854922,-119
2021-10-21 16:14:37.854931,-111
2021-10-21 16:14:37.854939,-104
2021-10-21 16:14:37.854947,-94
2021-10-21 16:14:37.854955,-90
2021-10-21 16:14:37.854963,-87
2021-10-21 16:14:37.854972,-75
2021-10-21 16:14:37.854980,-68
2021-10-21 16:14:37.854988,-70
2021-10-21 16:14:37.854996,-80
2021-10-21 16:14:37.855004,-87
2021-10-21 16:14:37.855013,-97
2021-10-21 16:14:37.855021,-97
2021-10-21 16:14:37.855029,-87
2021-10-21 16:14:38.079796,-82
2021-10-21 16:14:38.079815,-82
2021-10-21 16:14:38.079824,-77
2021-10-21 16:14:38.079833,-85
2021-10-21 16:14:38.079842,-99
2021-10-21 16:14:38.079850,-92
2021-10-21 16:14:38.079858,-75
2021-10-21 16:14:38.079867,-72
2021-10-21 16:14:38.079875,-72
2021-10-21 16:14:38.079884,-82
2021-10-21 16:14:38.079892,-87
2021-10-21 16:14:38.079900,-80
2021-10-21 16:14:38.079909,-70
2021-10-21 16:14:38.079917,-68
2021-10-21 16:14:38.079925,-65
2021-10-21 16:14:38.079933,-63
2021-10-21 16:14:38.079942,-60
2021-10-21 16:14:38.079950,-53
2021-10-21 16:14:38.079958,-41
2021-10-21 16:14:38.079967,-34
2021-10-21 16:14:38.079975,-36
2021-10-21 16:14:38.079983,-38
2021-10-21 16:14:38.079992,-36
2021-10-21 16:14:38.080000,-24
2021-10-21 16:14:38.080008,-17
2021-10-21 16:14:38.080016,-14
2021-10-21 16:14:38.080024,-19
2021-10-21 16:14:38.080033,-29
2021-10-21 16:14:38.080041,-34
2021-10-21 16:14:38.080049,-31
2021-10-21 16:14:38.349797,-9
2021-10-21 16:14:38.349815,12
2021-10-21 16:14:38.349824,-2
2021-10-21 16:14:38.349833,-24
2021-10-21 16:14:38.349841,-19
2021-10-21 16:14:38.349850,-14
2021-10-21 16:14:38.349858,-21
2021-10-21 16:14:38.349866,-21
2021-10-21 16:14:38.349874,-21
2021-10-21 16:14:38.349882,-36
2021-10-21 16:14:38.349891,-34
2021-10-21 16:14:38.349899,-19
2021-10-21 16:14:38.349907,-14
2021-10-21 16:14:38.349915,-12
2021-10-21 16:14:38.349923,-17
2021-10-21 16:14:38.349932,-48
2021-10-21 16:14:38.349940,-114
2021-10-21 16:14:38.349948,-153
2021-10-21 16:14:38.349957,58
2021-10-21 16:14:38.349965,729
2021-10-21 16:14:38.349973,1601
2021-10-21 16:14:38.349981,1730
2021-10-21 16:14:38.349990,729
2021-10-21 16:14:38.349998,-119
2021-10-21 16:14:38.350006,-29
2021-10-21 16:14:38.350014,82
2021-10-21 16:14:38.350023,-131
2021-10-21 16:14:38.350031,-160
2021-10-21 16:14:38.350039,-77
2021-10-21 16:14:38.350047,-109
2021-10-21 16:14:38.574760,-128
2021-10-21 16:14:38.574778,-92
2021-10-21 16:14:38.574788,-82
2021-10-21 16:14:38.574796,-92
2021-10-21 16:14:38.574805,-72
2021-10-21 16:14:38.574813,-48
2021-10-21 16:14:38.574821,-43
2021-10-21 16:14:38.574830,-31
2021-10-21 16:14:38.574838,-26
2021-10-21 16:14:38.574846,-26
2021-10-21 16:14:38.574855,-9
2021-10-21 16:14:38.574863,12
2021-10-21 16:14:38.574871,34
2021-10-21 16:14:38.574880,48
2021-10-21 16:14:38.574888,38
2021-10-21 16:14:38.574896,31
2021-10-21 16:14:38.574904,46
2021-10-21 16:14:38.574913,65
2021-10-21 16:14:38.574921,70
2021-10-21 16:14:38.574929,68
2021-10-21 16:14:38.574938,63
2021-10-21 16:14:38.574946,48
2021-10-21 16:14:38.574954,24
2021-10-21 16:14:38.574962,-2
2021-10-21 16:14:38.574971,-31
2021-10-21 16:14:38.574979,-68
2021-10-21 16:14:38.574987,-104
2021-10-21 16:14:38.574996,-126
2021-10-21 16:14:38.575004,-136
2021-10-21 16:14:38.575012,-136
2021-10-21 16:14:38.843456,-126
2021-10-21 16:14:38.843474,-126
2021-10-21 16:14:38.843482,-133
2021-10-21 16:14:38.843490,-131
2021-10-21 16:14:38.843498,-136
2021-10-21 16:14:38.843507,-143
2021-10-21 16:14:38.843515,-131
2021-10-21 16:14:38.843523,-128
2021-10-21 16:14:38.843532,-136
2021-10-21 16:14:38.843540,-128
2021-10-21 16:14:38.843548,-111
2021-10-21 16:14:38.843557,-102
2021-10-21 16:14:38.843565,-99
2021-10-21 16:14:38.843573,-97
2021-10-21 16:14:38.843582,-99
2021-10-21 16:14:38.843590,-102
2021-10-21 16:14:38.843598,-92
2021-10-21 16:14:38.843607,-80
2021-10-21 16:14:38.843615,-77
2021-10-21 16:14:38.843623,-75
2021-10-21 16:14:38.843631,-80
2021-10-21 16:14:38.843639,-75
2021-10-21 16:14:38.843648,-65
2021-10-21 16:14:38.843656,-60
2021-10-21 16:14:38.843664,-53
2021-10-21 16:14:38.843672,-48
2021-10-21 16:14:38.843681,-51
2021-10-21 16:14:38.843689,-51
2021-10-21 16:14:38.843697,-48
2021-10-21 16:14:38.843705,-41
2021-10-21 16:14:39.069814,-31
2021-10-21 16:14:39.069833,-29
2021-10-21 16:14:39.069842,-34
2021-10-21 16:14:39.069851,-31
2021-10-21 16:14:39.069860,-26
2021-10-21 16:14:39.069868,-36
2021-10-21 16:14:39.069876,-46
2021-10-21 16:14:39.069885,-43
2021-10-21 16:14:39.069893,-38
2021-10-21 16:14:39.069902,-38
2021-10-21 16:14:39.069910,-38
2021-10-21 16:14:39.069919,-31
2021-10-21 16:14:39.069927,-29
2021-10-21 16:14:39.069935,-24
2021-10-21 16:14:39.069944,-4
2021-10-21 16:14:39.069952,0
2021-10-21 16:14:39.069961,-12
2021-10-21 16:14:39.069969,-7
2021-10-21 16:14:39.069978,2
2021-10-21 16:14:39.069986,-4
2021-10-21 16:14:39.069994,-14
2021-10-21 16:14:39.070003,-17
2021-10-21 16:14:39.070011,-14
2021-10-21 16:14:39.070019,-4
2021-10-21 16:14:39.070028,-2
2021-10-21 16:14:39.070036,-9
2021-10-21 16:14:39.070044,-4
2021-10-21 16:14:39.070052,-4
2021-10-21 16:14:39.070061,-26
2021-10-21 16:14:39.070069,-92
2021-10-21 16:14:39.339192,-148
2021-10-21 16:14:39.339210,4
2021-10-21 16:14:39.339220,591
2021-10-21 16:14:39.339228,1462
2021-10-21 16:14:39.339236,1749
2021-10-21 16:14:39.339245,861
2021-10-21 16:14:39.339253,-92
2021-10-21 16:14:39.339261,-77
2021-10-21 16:14:39.339270,92
2021-10-21 16:14:39.339278,-116
2021-10-21 16:14:39.339286,-194
2021-10-21 16:14:39.339294,-114
2021-10-21 16:14:39.339302,-141
2021-10-21 16:14:39.339311,-163
2021-10-21 16:14:39.339319,-116
2021-10-21 16:14:39.339327,-97
2021-10-21 16:14:39.339335,-99
2021-10-21 16:14:39.339344,-92
2021-10-21 16:14:39.339352,-90
2021-10-21 16:14:39.339360,-72
2021-10-21 16:14:39.339368,-46
2021-10-21 16:14:39.339377,-43
2021-10-21 16:14:39.339385,-46
2021-10-21 16:14:39.339393,-29
2021-10-21 16:14:39.339401,-12
2021-10-21 16:14:39.339410,-2
2021-10-21 16:14:39.339418,17
2021-10-21 16:14:39.339426,34
2021-10-21 16:14:39.339434,48
2021-10-21 16:14:39.339443,58
2021-10-21 16:14:39.564737,65
2021-10-21 16:14:39.564755,70
2021-10-21 16:14:39.564765,68
2021-10-21 16:14:39.564773,55
2021-10-21 16:14:39.564782,41
2021-10-21 16:14:39.564790,14
2021-10-21 16:14:39.564799,-29
2021-10-21 16:14:39.564807,-65
2021-10-21 16:14:39.564816,-99
2021-10-21 16:14:39.564824,-136
2021-10-21 16:14:39.564832,-155
2021-10-21 16:14:39.564841,-160
2021-10-21 16:14:39.564849,-170
2021-10-21 16:14:39.564857,-165
2021-10-21 16:14:39.564865,-155
2021-10-21 16:14:39.564874,-153
2021-10-21 16:14:39.564882,-143
2021-10-21 16:14:39.564891,-133
2021-10-21 16:14:39.564899,-126
2021-10-21 16:14:39.564907,-116
2021-10-21 16:14:39.564915,-109
2021-10-21 16:14:39.564924,-109
2021-10-21 16:14:39.564932,-102
2021-10-21 16:14:39.564940,-90
2021-10-21 16:14:39.564948,-90
2021-10-21 16:14:39.564957,-87
2021-10-21 16:14:39.564965,-72
2021-10-21 16:14:39.564973,-65
2021-10-21 16:14:39.564982,-63
2021-10-21 16:14:39.564990,-63
2021-10-21 16:14:39.699806,-60
2021-10-21 16:14:39.699825,-51
2021-10-21 16:14:39.699834,-43
2021-10-21 16:14:39.699843,-46
2021-10-21 16:14:39.699852,-55
2021-10-21 16:14:39.699860,-58
2021-10-21 16:14:39.699868,-55
2021-10-21 16:14:39.699877,-58
2021-10-21 16:14:39.699885,-51
2021-10-21 16:14:39.699893,-41
2021-10-21 16:14:39.699902,-46
2021-10-21 16:14:39.699910,-60
2021-10-21 16:14:39.699918,-55
2021-10-21 16:14:39.699927,-43
2021-10-21 16:14:39.699935,-36
2021-10-21 16:14:39.699943,-36
2021-10-21 16:14:39.699952,-53
2021-10-21 16:14:39.699960,-63
2021-10-21 16:14:39.699968,-46
2021-10-21 16:14:39.699977,-43
2021-10-21 16:14:39.699985,-53
2021-10-21 16:14:39.699999,-48
2021-10-21 16:14:39.700008,-41
2021-10-21 16:14:39.700017,-34
2021-10-21 16:14:39.700025,-17
2021-10-21 16:14:39.700033,-17
2021-10-21 16:14:39.700042,-26
2021-10-21 16:14:39.700050,-31
2021-10-21 16:14:39.700059,-29
2021-10-21 16:14:39.700067,-29
2021-10-21 16:14:39.924988,-31
2021-10-21 16:14:39.925006,-29
2021-10-21 16:14:39.925015,-29
2021-10-21 16:14:39.925024,-41
2021-10-21 16:14:39.925033,-53
2021-10-21 16:14:39.925041,-48
2021-10-21 16:14:39.925049,-31
2021-10-21 16:14:39.925057,-41
2021-10-21 16:14:39.925066,-107
2021-10-21 16:14:39.925074,-175
2021-10-21 16:14:39.925082,-53
2021-10-21 16:14:39.925090,493
2021-10-21 16:14:39.925098,1365
2021-10-21 16:14:39.925107,1732
2021-10-21 16:14:39.925115,931
2021-10-21 16:14:39.925123,-70
2021-10-21 16:14:39.925131,-150
2021-10-21 16:14:39.925140,41
2021-10-21 16:14:39.925148,-116
2021-10-21 16:14:39.925156,-199
2021-10-21 16:14:39.925165,-121
2021-10-21 16:14:39.925173,-133
2021-10-21 16:14:39.925181,-153
2021-10-21 16:14:39.925189,-114
2021-10-21 16:14:39.925197,-87
2021-10-21 16:14:39.925206,-85
2021-10-21 16:14:39.925214,-82
2021-10-21 16:14:39.925222,-77
2021-10-21 16:14:39.925230,-60
2021-10-21 16:14:39.925239,-41
2021-10-21 16:14:40.239233,-29
2021-10-21 16:14:40.239252,-26
2021-10-21 16:14:40.239261,-24
2021-10-21 16:14:40.239270,-14
2021-10-21 16:14:40.239279,2
2021-10-21 16:14:40.239287,21
2021-10-21 16:14:40.239296,29
2021-10-21 16:14:40.239304,36
2021-10-21 16:14:40.239312,48
2021-10-21 16:14:40.239321,51
2021-10-21 16:14:40.239329,51
2021-10-21 16:14:40.239337,55
2021-10-21 16:14:40.239345,46
2021-10-21 16:14:40.239354,24
2021-10-21 16:14:40.239362,-9
2021-10-21 16:14:40.239371,-51
2021-10-21 16:14:40.239379,-85
2021-10-21 16:14:40.239387,-104
2021-10-21 16:14:40.239396,-121
2021-10-21 16:14:40.239404,-143
2021-10-21 16:14:40.239412,-155
2021-10-21 16:14:40.239421,-163
2021-10-21 16:14:40.239429,-177
2021-10-21 16:14:40.239437,-175
2021-10-21 16:14:40.239445,-163
2021-10-21 16:14:40.239454,-160
2021-10-21 16:14:40.239462,-158
2021-10-21 16:14:40.239470,-145
2021-10-21 16:14:40.239479,-124
2021-10-21 16:14:40.239487,-109
2021-10-21 16:14:40.419883,-104
2021-10-21 16:14:40.419904,-102
2021-10-21 16:14:40.419913,-99
2021-10-21 16:14:40.419922,-99
2021-10-21 16:14:40.419930,-90
2021-10-21 16:14:40.419939,-75
2021-10-21 16:14:40.419947,-75
2021-10-21 16:14:40.419955,-77
2021-10-21 16:14:40.419963,-82
2021-10-21 16:14:40.419972,-82
2021-10-21 16:14:40.419980,-72
2021-10-21 16:14:40.419988,-65
2021-10-21 16:14:40.419997,-63
2021-10-21 16:14:40.420005,-58
2021-10-21 16:14:40.420013,-63
2021-10-21 16:14:40.420021,-72
2021-10-21 16:14:40.420030,-75
2021-10-21 16:14:40.420038,-75
2021-10-21 16:14:40.420046,-72
2021-10-21 16:14:40.420054,-70
2021-10-21 16:14:40.420063,-68
2021-10-21 16:14:40.420071,-72
2021-10-21 16:14:40.420079,-68
2021-10-21 16:14:40.420087,-53
2021-10-21 16:14:40.420095,-48
2021-10-21 16:14:40.420104,-48
2021-10-21 16:14:40.420112,-31
2021-10-21 16:14:40.420120,-9
2021-10-21 16:14:40.420128,-4
2021-10-21 16:14:40.420137,-12
2021-10-21 16:14:40.644879,-9
2021-10-21 16:14:40.644898,-9
2021-10-21 16:14:40.644908,-21
2021-10-21 16:14:40.644917,-31
2021-10-21 16:14:40.644925,-26
2021-10-21 16:14:40.644933,-14
2021-10-21 16:14:40.644942,-12
2021-10-21 16:14:40.644950,-24
2021-10-21 16:14:40.644959,-36
2021-10-21 16:14:40.644967,-36
2021-10-21 16:14:40.644975,-34
2021-10-21 16:14:40.644984,-51
2021-10-21 16:14:40.644992,-114
2021-10-21 16:14:40.645001,-153
2021-10-21 16:14:40.645009,65
2021-10-21 16:14:40.645018,737
2021-10-21 16:14:40.645026,1559
2021-10-21 16:14:40.645034,1591
2021-10-21 16:14:40.645042,598
2021-10-21 16:14:40.645051,-160
2021-10-21 16:14:40.645059,-58
2021-10-21 16:14:40.645067,29
2021-10-21 16:14:40.645076,-155
2021-10-21 16:14:40.645084,-165
2021-10-21 16:14:40.645092,-94
2021-10-21 16:14:40.645101,-131
2021-10-21 16:14:40.645109,-138
2021-10-21 16:14:40.645118,-114
2021-10-21 16:14:40.645126,-126
2021-10-21 16:14:40.645135,-116
2021-10-21 16:14:40.913472,-85
2021-10-21 16:14:40.913491,-77
2021-10-21 16:14:40.913500,-72
2021-10-21 16:14:40.913509,-55
2021-10-21 16:14:40.913517,-43
2021-10-21 16:14:40.913526,-31
2021-10-21 16:14:40.913534,-21
2021-10-21 16:14:40.913542,-14
2021-10-21 16:14:40.913550,2
2021-10-21 16:14:40.913559,21
2021-10-21 16:14:40.913567,34
2021-10-21 16:14:40.913575,46
2021-10-21 16:14:40.913584,53
2021-10-21 16:14:40.913592,51
2021-10-21 16:14:40.913600,55
2021-10-21 16:14:40.913608,55
2021-10-21 16:14:40.913617,41
2021-10-21 16:14:40.913625,21
2021-10-21 16:14:40.913633,0
2021-10-21 16:14:40.913641,-31
2021-10-21 16:14:40.913650,-72
2021-10-21 16:14:40.913658,-111
2021-10-21 16:14:40.913666,-128
2021-10-21 16:14:40.913675,-136
2021-10-21 16:14:40.913683,-150
2021-10-21 16:14:40.913691,-153
2021-10-21 16:14:40.913699,-148
2021-10-21 16:14:40.913707,-148
2021-10-21 16:14:40.913716,-141
2021-10-21 16:14:40.913724,-138
2021-10-21 16:14:41.094835,-143
2021-10-21 16:14:41.094854,-131
2021-10-21 16:14:41.094863,-116
2021-10-21 16:14:41.094872,-114
2021-10-21 16:14:41.094880,-107
2021-10-21 16:14:41.094888,-97
2021-10-21 16:14:41.094896,-109
2021-10-21 16:14:41.094905,-121
2021-10-21 16:14:41.094913,-104
2021-10-21 16:14:41.094921,-87
2021-10-21 16:14:41.094929,-87
2021-10-21 16:14:41.094938,-94
2021-10-21 16:14:41.094946,-99
2021-10-21 16:14:41.094954,-92
2021-10-21 16:14:41.094962,-77
2021-10-21 16:14:41.094970,-72
2021-10-21 16:14:41.094978,-75
2021-10-21 16:14:41.094987,-77
2021-10-21 16:14:41.094995,-75
2021-10-21 16:14:41.095003,-65
2021-10-21 16:14:41.095011,-58
2021-10-21 16:14:41.095019,-60
2021-10-21 16:14:41.095028,-68
2021-10-21 16:14:41.095036,-77
2021-10-21 16:14:41.095044,-75
2021-10-21 16:14:41.095052,-63
2021-10-21 16:14:41.095060,-55
2021-10-21 16:14:41.095069,-36
2021-10-21 16:14:41.095077,-12
2021-10-21 16:14:41.095085,-7
2021-10-21 16:14:41.319830,-14
2021-10-21 16:14:41.319848,-17
2021-10-21 16:14:41.319858,-31
2021-10-21 16:14:41.319866,-58
2021-10-21 16:14:41.319875,-65
2021-10-21 16:14:41.319883,-63
2021-10-21 16:14:41.319892,-65
2021-10-21 16:14:41.319900,-60
2021-10-21 16:14:41.319908,-48
2021-10-21 16:14:41.319917,-46
2021-10-21 16:14:41.319925,-51
2021-10-21 16:14:41.319934,-55
2021-10-21 16:14:41.319942,-80
2021-10-21 16:14:41.319950,-136
2021-10-21 16:14:41.319959,-175
2021-10-21 16:14:41.319967,-7
2021-10-21 16:14:41.319975,576
2021-10-21 16:14:41.319984,1372
2021-10-21 16:14:41.319992,1540
2021-10-21 16:14:41.320000,693
2021-10-21 16:14:41.320008,-94
2021-10-21 16:14:41.320017,-63
2021-10-21 16:14:41.320025,43
2021-10-21 16:14:41.320033,-126
2021-10-21 16:14:41.320042,-163
2021-10-21 16:14:41.320050,-104
2021-10-21 16:14:41.320058,-136
2021-10-21 16:14:41.320067,-136
2021-10-21 16:14:41.320075,-92
2021-10-21 16:14:41.320083,-94
2021-10-21 16:14:41.544897,-97
2021-10-21 16:14:41.544917,-58
2021-10-21 16:14:41.544926,-36
2021-10-21 16:14:41.544935,-38
2021-10-21 16:14:41.544943,-38
2021-10-21 16:14:41.544952,-31
2021-10-21 16:14:41.544960,-17
2021-10-21 16:14:41.544969,2
2021-10-21 16:14:41.544977,9
2021-10-21 16:14:41.544985,19
2021-10-21 16:14:41.544993,26
2021-10-21 16:14:41.545002,26
2021-10-21 16:14:41.545010,36
2021-10-21 16:14:41.545018,53
2021-10-21 16:14:41.545026,60
2021-10-21 16:14:41.545034,53
2021-10-21 16:14:41.545043,46
2021-10-21 16:14:41.545051,41
2021-10-21 16:14:41.545059,31
2021-10-21 16:14:41.545067,17
2021-10-21 16:14:41.545076,-14
2021-10-21 16:14:41.545084,-46
2021-10-21 16:14:41.545092,-63
2021-10-21 16:14:41.545108,-72
2021-10-21 16:14:41.545116,-85
2021-10-21 16:14:41.545125,-94
2021-10-21 16:14:41.545133,-97
2021-10-21 16:14:41.545141,-107
2021-10-21 16:14:41.545149,-116
2021-10-21 16:14:41.545158,-102
2021-10-21 16:14:41.814235,-90
2021-10-21 16:14:41.814255,-90
2021-10-21 16:14:41.814264,-87
2021-10-21 16:14:41.814273,-82
2021-10-21 16:14:41.814282,-92
2021-10-21 16:14:41.814290,-94
2021-10-21 16:14:41.814298,-77
2021-10-21 16:14:41.814306,-72
2021-10-21 16:14:41.814315,-85
2021-10-21 16:14:41.814323,-102
2021-10-21 16:14:41.814331,-114
2021-10-21 16:14:41.814339,-111
2021-10-21 16:14:41.814347,-102
2021-10-21 16:14:41.814356,-104
2021-10-21 16:14:41.814364,-109
2021-10-21 16:14:41.814372,-111
2021-10-21 16:14:41.814380,-119
2021-10-21 16:14:41.814389,-121
2021-10-21 16:14:41.814397,-111
2021-10-21 16:14:41.814405,-92
2021-10-21 16:14:41.814413,-85
2021-10-21 16:14:41.814422,-85
2021-10-21 16:14:41.814430,-82
2021-10-21 16:14:41.814438,-80
2021-10-21 16:14:41.814446,-72
2021-10-21 16:14:41.814454,-51
2021-10-21 16:14:41.814462,-24
2021-10-21 16:14:41.814470,-14
2021-10-21 16:14:41.814479,-17
2021-10-21 16:14:41.814487,-29
2021-10-21 16:14:42.084849,-41
2021-10-21 16:14:42.084868,-51
2021-10-21 16:14:42.084878,-53
2021-10-21 16:14:42.084887,-55
2021-10-21 16:14:42.084895,-58
2021-10-21 16:14:42.084904,-48
2021-10-21 16:14:42.084912,-34
2021-10-21 16:14:42.084920,-34
2021-10-21 16:14:42.084928,-48
2021-10-21 16:14:42.084937,-68
2021-10-21 16:14:42.084945,-85
2021-10-21 16:14:42.084953,-128
2021-10-21 16:14:42.084962,-158
2021-10-21 16:14:42.084970,19
2021-10-21 16:14:42.084978,569
2021-10-21 16:14:42.084987,1279
2021-10-21 16:14:42.084995,1389
2021-10-21 16:14:42.085003,569
2021-10-21 16:14:42.085011,-121
2021-10-21 16:14:42.085019,-43
2021-10-21 16:14:42.085027,36
2021-10-21 16:14:42.085036,-141
2021-10-21 16:14:42.085044,-155
2021-10-21 16:14:42.085052,-85
2021-10-21 16:14:42.085060,-111
2021-10-21 16:14:42.085068,-121
2021-10-21 16:14:42.085077,-90
2021-10-21 16:14:42.085085,-82
2021-10-21 16:14:42.085093,-72
2021-10-21 16:14:42.085101,-48
2021-10-21 16:14:42.264823,-43
2021-10-21 16:14:42.264841,-41
2021-10-21 16:14:42.264850,-31
2021-10-21 16:14:42.264859,-29
2021-10-21 16:14:42.264868,-19
2021-10-21 16:14:42.264876,-4
2021-10-21 16:14:42.264884,7
2021-10-21 16:14:42.264893,9
2021-10-21 16:14:42.264901,9
2021-10-21 16:14:42.264910,14
2021-10-21 16:14:42.264918,34
2021-10-21 16:14:42.264926,46
2021-10-21 16:14:42.264935,43
2021-10-21 16:14:42.264943,51
2021-10-21 16:14:42.264952,48
2021-10-21 16:14:42.264960,19
2021-10-21 16:14:42.264968,-2
2021-10-21 16:14:42.264977,-9
2021-10-21 16:14:42.264985,-24
2021-10-21 16:14:42.264993,-55
2021-10-21 16:14:42.265002,-90
2021-10-21 16:14:42.265010,-109
2021-10-21 16:14:42.265018,-104
2021-10-21 16:14:42.265027,-102
2021-10-21 16:14:42.265035,-104
2021-10-21 16:14:42.265043,-102
2021-10-21 16:14:42.265051,-97
2021-10-21 16:14:42.265060,-85
2021-10-21 16:14:42.265068,-70
2021-10-21 16:14:42.265076,-63
2021-10-21 16:14:42.489872,-55
2021-10-21 16:14:42.489891,-53
2021-10-21 16:14:42.489900,-51
2021-10-21 16:14:42.489909,-55
2021-10-21 16:14:42.489918,-63
2021-10-21 16:14:42.489926,-48
2021-10-21 16:14:42.489934,-34
2021-10-21 16:14:42.489942,-43
2021-10-21 16:14:42.489951,-55
2021-10-21 16:14:42.489959,-48
2021-10-21 16:14:42.489967,-43
2021-10-21 16:14:42.489976,-46
2021-10-21 16:14:42.489984,-41
2021-10-21 16:14:42.489992,-43
2021-10-21 16:14:42.490000,-55
2021-10-21 16:14:42.490008,-65
2021-10-21 16:14:42.490016,-65
2021-10-21 16:14:42.490025,-60
2021-10-21 16:14:42.490033,-53
2021-10-21 16:14:42.490041,-51
2021-10-21 16:14:42.490049,-29
2021-10-21 16:14:42.490057,0
2021-10-21 16:14:42.490065,-4
2021-10-21 16:14:42.490074,-19
2021-10-21 16:14:42.490082,-17
2021-10-21 16:14:42.490090,-29
2021-10-21 16:14:42.490098,-48
2021-10-21 16:14:42.490106,-55
2021-10-21 16:14:42.490114,-53
2021-10-21 16:14:42.490122,-55
2021-10-21 16:14:42.804871,-58
2021-10-21 16:14:42.804890,-60
2021-10-21 16:14:42.804900,-60
2021-10-21 16:14:42.804909,-51
2021-10-21 16:14:42.804917,-55
2021-10-21 16:14:42.804926,-107
2021-10-21 16:14:42.804934,-170
2021-10-21 16:14:42.804942,-109
2021-10-21 16:14:42.804950,260
2021-10-21 16:14:42.804959,946
2021-10-21 16:14:42.804967,1379
2021-10-21 16:14:42.804975,885
2021-10-21 16:14:42.804984,31
2021-10-21 16:14:42.804992,-153
2021-10-21 16:14:42.805000,0
2021-10-21 16:14:42.805009,-97
2021-10-21 16:14:42.805017,-182
2021-10-21 16:14:42.805025,-131
2021-10-21 16:14:42.805034,-131
2021-10-21 16:14:42.805042,-153
2021-10-21 16:14:42.805050,-133
2021-10-21 16:14:42.805058,-131
2021-10-21 16:14:42.805067,-138
2021-10-21 16:14:42.805075,-114
2021-10-21 16:14:42.805083,-90
2021-10-21 16:14:42.805092,-82
2021-10-21 16:14:42.805100,-70
2021-10-21 16:14:42.805108,-48
2021-10-21 16:14:42.805116,-31
2021-10-21 16:14:42.805125,-19
2021-10-21 16:14:42.983480,-14
2021-10-21 16:14:42.983498,-7
2021-10-21 16:14:42.983507,12
2021-10-21 16:14:42.983516,24
2021-10-21 16:14:42.983524,31
2021-10-21 16:14:42.983532,41
2021-10-21 16:14:42.983541,43
2021-10-21 16:14:42.983549,43
2021-10-21 16:14:42.983557,41
2021-10-21 16:14:42.983565,36
2021-10-21 16:14:42.983573,29
2021-10-21 16:14:42.983582,9
2021-10-21 16:14:42.983590,-14
2021-10-21 16:14:42.983598,-38
2021-10-21 16:14:42.983606,-60
2021-10-21 16:14:42.983615,-77
2021-10-21 16:14:42.983623,-87
2021-10-21 16:14:42.983631,-92
2021-10-21 16:14:42.983639,-102
2021-10-21 16:14:42.983648,-104
2021-10-21 16:14:42.983656,-90
2021-10-21 16:14:42.983664,-80
2021-10-21 16:14:42.983672,-77
2021-10-21 16:14:42.983681,-75
2021-10-21 16:14:42.983689,-75
2021-10-21 16:14:42.983697,-68
2021-10-21 16:14:42.983706,-60
2021-10-21 16:14:42.983714,-63
2021-10-21 16:14:42.983722,-55
2021-10-21 16:14:42.983730,-41
2021-10-21 16:14:43.209849,-43
2021-10-21 16:14:43.209867,-41
2021-10-21 16:14:43.209877,-36
2021-10-21 16:14:43.209885,-34
2021-10-21 16:14:43.209894,-34
2021-10-21 16:14:43.209902,-46
2021-10-21 16:14:43.209910,-53
2021-10-21 16:14:43.209919,-41
2021-10-21 16:14:43.209927,-41
2021-10-21 16:14:43.209935,-63
2021-10-21 16:14:43.209944,-68
2021-10-21 16:14:43.209952,-55
2021-10-21 16:14:43.209960,-48
2021-10-21 16:14:43.209968,-24
2021-10-21 16:14:43.209976,-12
2021-10-21 16:14:43.209984,-24
2021-10-21 16:14:43.209992,-26
2021-10-21 16:14:43.210001,-34
2021-10-21 16:14:43.210009,-46
2021-10-21 16:14:43.210017,-38
2021-10-21 16:14:43.210025,-26
2021-10-21 16:14:43.210033,-31
2021-10-21 16:14:43.210041,-36
2021-10-21 16:14:43.210049,-36
2021-10-21 16:14:43.210057,-38
2021-10-21 16:14:43.210066,-38
2021-10-21 16:14:43.210074,-43
2021-10-21 16:14:43.210082,-82
2021-10-21 16:14:43.210090,-150
2021-10-21 16:14:43.210098,-153
2021-10-21 16:14:43.389931,107
2021-10-21 16:14:43.389950,744
2021-10-21 16:14:43.389959,1396
2021-10-21 16:14:43.389968,1228
2021-10-21 16:14:43.389976,274
2021-10-21 16:14:43.389985,-216
2021-10-21 16:14:43.389993,-31
2021-10-21 16:14:43.390001,-24
2021-10-21 16:14:43.390010,-189
2021-10-21 16:14:43.390018,-163
2021-10-21 16:14:43.390026,-119
2021-10-21 16:14:43.390034,-158
2021-10-21 16:14:43.390043,-155
2021-10-21 16:14:43.390051,-119
2021-10-21 16:14:43.390059,-111
2021-10-21 16:14:43.390068,-107
2021-10-21 16:14:43.390076,-99
2021-10-21 16:14:43.390084,-94
2021-10-21 16:14:43.390092,-72
2021-10-21 16:14:43.390101,-43
2021-10-21 16:14:43.390109,-36
2021-10-21 16:14:43.390117,-31
2021-10-21 16:14:43.390126,-17
2021-10-21 16:14:43.390134,-2
2021-10-21 16:14:43.390142,9
2021-10-21 16:14:43.390150,24
2021-10-21 16:14:43.390159,43
2021-10-21 16:14:43.390167,46
2021-10-21 16:14:43.390175,43
2021-10-21 16:14:43.390183,43
2021-10-21 16:14:43.749248,51
2021-10-21 16:14:43.749266,53
2021-10-21 16:14:43.749275,43
2021-10-21 16:14:43.749283,19
2021-10-21 16:14:43.749292,-17
2021-10-21 16:14:43.749300,-46
2021-10-21 16:14:43.749309,-58
2021-10-21 16:14:43.749317,-70
2021-10-21 16:14:43.749325,-85
2021-10-21 16:14:43.749334,-107
2021-10-21 16:14:43.749342,-119
2021-10-21 16:14:43.749350,-114
2021-10-21 16:14:43.749359,-107
2021-10-21 16:14:43.749367,-94
2021-10-21 16:14:43.749375,-87
2021-10-21 16:14:43.749383,-94
2021-10-21 16:14:43.749392,-94
2021-10-21 16:14:43.749400,-68
2021-10-21 16:14:43.749408,-48
2021-10-21 16:14:43.749417,-53
2021-10-21 16:14:43.749425,-53
2021-10-21 16:14:43.749433,-48
2021-10-21 16:14:43.749442,-51
2021-10-21 16:14:43.749450,-43
2021-10-21 16:14:43.749458,-29
2021-10-21 16:14:43.749466,-26
2021-10-21 16:14:43.749475,-31
2021-10-21 16:14:43.749483,-38
2021-10-21 16:14:43.749491,-34
2021-10-21 16:14:43.749499,-21
2021-10-21 16:14:43.884865,-24
2021-10-21 16:14:43.884884,-14
2021-10-21 16:14:43.884893,2
2021-10-21 16:14:43.884902,-9
2021-10-21 16:14:43.884910,-24
2021-10-21 16:14:43.884918,-17
2021-10-21 16:14:43.884927,-19
2021-10-21 16:14:43.884935,-29
2021-10-21 16:14:43.884943,-36
2021-10-21 16:14:43.884952,-43
2021-10-21 16:14:43.884960,-38
2021-10-21 16:14:43.884968,-21
2021-10-21 16:14:43.884977,-19
2021-10-21 16:14:43.884985,-17
2021-10-21 16:14:43.884993,-9
2021-10-21 16:14:43.885001,-26
2021-10-21 16:14:43.885010,-68
2021-10-21 16:14:43.885018,-126
2021-10-21 16:14:43.885026,-138
2021-10-21 16:14:43.885035,109
2021-10-21 16:14:43.885043,764
2021-10-21 16:14:43.885051,1421
2021-10-21 16:14:43.885059,1202
2021-10-21 16:14:43.885067,194
2021-10-21 16:14:43.885076,-248
2021-10-21 16:14:43.885084,46
2021-10-21 16:14:43.885092,55
2021-10-21 16:14:43.885100,-143
2021-10-21 16:14:43.885109,-87
2021-10-21 16:14:43.885117,-31
2021-10-21 16:14:44.199875,-80
2021-10-21 16:14:44.199894,-65
2021-10-21 16:14:44.199904,-29
2021-10-21 16:14:44.199912,-38
2021-10-21 16:14:44.199921,-34
2021-10-21 16:14:44.199929,-4
2021-10-21 16:14:44.199937,9
2021-10-21 16:14:44.199946,12
2021-10-21 16:14:44.199954,7
2021-10-21 16:14:44.199962,4
2021-10-21 16:14:44.199971,24
2021-10-21 16:14:44.199979,36
2021-10-21 16:14:44.199988,26
2021-10-21 16:14:44.199996,26
2021-10-21 16:14:44.200004,29
2021-10-21 16:14:44.200013,24
2021-10-21 16:14:44.200021,31
2021-10-21 16:14:44.200029,29
2021-10-21 16:14:44.200038,9
2021-10-21 16:14:44.200046,4
2021-10-21 16:14:44.200054,4
2021-10-21 16:14:44.200062,-12
2021-10-21 16:14:44.200071,-31
2021-10-21 16:14:44.200079,-46
2021-10-21 16:14:44.200087,-68
2021-10-21 16:14:44.200096,-94
2021-10-21 16:14:44.200104,-114
2021-10-21 16:14:44.200112,-126
2021-10-21 16:14:44.200120,-128
2021-10-21 16:14:44.200128,-124
2021-10-21 16:14:44.334861,-119
2021-10-21 16:14:44.334880,-116
2021-10-21 16:14:44.334889,-116
2021-10-21 16:14:44.334897,-111
2021-10-21 16:14:44.334906,-94
2021-10-21 16:14:44.334914,-87
2021-10-21 16:14:44.334922,-80
2021-10-21 16:14:44.334930,-72
2021-10-21 16:14:44.334938,-87
2021-10-21 16:14:44.334947,-97
2021-10-21 16:14:44.334955,-77
2021-10-21 16:14:44.334963,-60
2021-10-21 16:14:44.334971,-51
2021-10-21 16:14:44.334979,-58
2021-10-21 16:14:44.334987,-80
2021-10-21 16:14:44.334995,-85
2021-10-21 16:14:44.335003,-70
2021-10-21 16:14:44.335012,-70
2021-10-21 16:14:44.335020,-63
2021-10-21 16:14:44.335028,-48
2021-10-21 16:14:44.335036,-51
2021-10-21 16:14:44.335044,-51
2021-10-21 16:14:44.335052,-29
2021-10-21 16:14:44.335061,-21
2021-10-21 16:14:44.335069,-36
2021-10-21 16:14:44.335077,-48
2021-10-21 16:14:44.335085,-51
2021-10-21 16:14:44.335093,-48
2021-10-21 16:14:44.335101,-46
2021-10-21 16:14:44.335110,-41
2021-10-21 16:14:44.559897,-34
2021-10-21 16:14:44.559916,-31
2021-10-21 16:14:44.559925,-38
2021-10-21 16:14:44.559934,-36
2021-10-21 16:14:44.559942,-46
2021-10-21 16:14:44.559950,-104
2021-10-21 16:14:44.559959,-187
2021-10-21 16:14:44.559967,-102
2021-10-21 16:14:44.559976,416
2021-10-21 16:14:44.559984,1306
2021-10-21 16:14:44.559992,1793
2021-10-21 16:14:44.560001,1094
2021-10-21 16:14:44.560009,12
2021-10-21 16:14:44.560017,-163
2021-10-21 16:14:44.560025,63
2021-10-21 16:14:44.560034,-92
2021-10-21 16:14:44.560042,-211
2021-10-21 16:14:44.560050,-119
2021-10-21 16:14:44.560058,-111
2021-10-21 16:14:44.560066,-145
2021-10-21 16:14:44.560075,-111
2021-10-21 16:14:44.560083,-97
2021-10-21 16:14:44.560091,-109
2021-10-21 16:14:44.560099,-85
2021-10-21 16:14:44.560107,-58
2021-10-21 16:14:44.560115,-63
2021-10-21 16:14:44.560123,-58
2021-10-21 16:14:44.560132,-38
2021-10-21 16:14:44.560140,-29
2021-10-21 16:14:44.560148,-24
2021-10-21 16:14:44.829374,-14
2021-10-21 16:14:44.829393,-9
2021-10-21 16:14:44.829403,-2
2021-10-21 16:14:44.829411,14
2021-10-21 16:14:44.829420,38
2021-10-21 16:14:44.829428,38
2021-10-21 16:14:44.829437,24
2021-10-21 16:14:44.829445,21
2021-10-21 16:14:44.829454,19
2021-10-21 16:14:44.829462,9
2021-10-21 16:14:44.829471,-4
2021-10-21 16:14:44.829479,-29
2021-10-21 16:14:44.829488,-70
2021-10-21 16:14:44.829496,-116
2021-10-21 16:14:44.829504,-150
2021-10-21 16:14:44.829513,-177
2021-10-21 16:14:44.829521,-177
2021-10-21 16:14:44.829529,-163
2021-10-21 16:14:44.829538,-167
2021-10-21 16:14:44.829546,-172
2021-10-21 16:14:44.829554,-160
2021-10-21 16:14:44.829563,-150
2021-10-21 16:14:44.829571,-141
2021-10-21 16:14:44.829580,-131
2021-10-21 16:14:44.829588,-131
2021-10-21 16:14:44.829596,-121
2021-10-21 16:14:44.829604,-107
2021-10-21 16:14:44.829613,-102
2021-10-21 16:14:44.829621,-97
2021-10-21 16:14:44.829629,-90
2021-10-21 16:14:45.143670,-90
2021-10-21 16:14:45.143691,-82
2021-10-21 16:14:45.143701,-80
2021-10-21 16:14:45.143709,-82
2021-10-21 16:14:45.143716,-82
2021-10-21 16:14:45.143724,-80
2021-10-21 16:14:45.143731,-82
2021-10-21 16:14:45.143740,-60
2021-10-21 16:14:45.143748,-36
2021-10-21 16:14:45.143756,-38
2021-10-21 16:14:45.143764,-41
2021-10-21 16:14:45.143772,-38
2021-10-21 16:14:45.143780,-46
2021-10-21 16:14:45.143788,-51
2021-10-21 16:14:45.143795,-53
2021-10-21 16:14:45.143803,-55
2021-10-21 16:14:45.143812,-51
2021-10-21 16:14:45.143820,-51
2021-10-21 16:14:45.143828,-53
2021-10-21 16:14:45.143836,-38
2021-10-21 16:14:45.143845,-31
2021-10-21 16:14:45.143853,-38
2021-10-21 16:14:45.143861,-75
2021-10-21 16:14:45.143869,-153
2021-10-21 16:14:45.143877,-128
2021-10-21 16:14:45.143885,253
2021-10-21 16:14:45.143894,1048
2021-10-21 16:14:45.143902,1727
2021-10-21 16:14:45.143910,1355
2021-10-21 16:14:45.143919,233
2021-10-21 16:14:45.234906,-199
2021-10-21 16:14:45.234924,41
2021-10-21 16:14:45.234934,-17
2021-10-21 16:14:45.234942,-204
2021-10-21 16:14:45.234951,-143
2021-10-21 16:14:45.234959,-94
2021-10-21 16:14:45.234967,-131
2021-10-21 16:14:45.234976,-109
2021-10-21 16:14:45.234984,-75
2021-10-21 16:14:45.234992,-80
2021-10-21 16:14:45.235001,-77
2021-10-21 16:14:45.235009,-65
2021-10-21 16:14:45.235017,-55
2021-10-21 16:14:45.235026,-41
2021-10-21 16:14:45.235034,-24
2021-10-21 16:14:45.235042,-17
2021-10-21 16:14:45.235050,-9
2021-10-21 16:14:45.235059,7
2021-10-21 16:14:45.235067,19
2021-10-21 16:14:45.235075,31
2021-10-21 16:14:45.235083,34
2021-10-21 16:14:45.235092,26
2021-10-21 16:14:45.235100,17
2021-10-21 16:14:45.235108,21
2021-10-21 16:14:45.235116,31
2021-10-21 16:14:45.235125,29
2021-10-21 16:14:45.235133,14
2021-10-21 16:14:45.235141,-7
2021-10-21 16:14:45.235149,-38
2021-10-21 16:14:45.235157,-65
2021-10-21 16:14:45.459906,-82
2021-10-21 16:14:45.459925,-97
2021-10-21 16:14:45.459935,-114
2021-10-21 16:14:45.459943,-133
2021-10-21 16:14:45.459952,-153
2021-10-21 16:14:45.459960,-150
2021-10-21 16:14:45.459968,-133
2021-10-21 16:14:45.459977,-131
2021-10-21 16:14:45.459985,-136
2021-10-21 16:14:45.459993,-131
2021-10-21 16:14:45.460002,-138
2021-10-21 16:14:45.460010,-148
2021-10-21 16:14:45.460018,-136
2021-10-21 16:14:45.460026,-114
2021-10-21 16:14:45.460034,-107
2021-10-21 16:14:45.460043,-109
2021-10-21 16:14:45.460051,-107
2021-10-21 16:14:45.460059,-104
2021-10-21 16:14:45.460068,-99
2021-10-21 16:14:45.460076,-90
2021-10-21 16:14:45.460084,-87
2021-10-21 16:14:45.460092,-94
2021-10-21 16:14:45.460101,-92
2021-10-21 16:14:45.460109,-85
2021-10-21 16:14:45.460117,-82
2021-10-21 16:14:45.460133,-82
2021-10-21 16:14:45.460141,-65
2021-10-21 16:14:45.460150,-43
2021-10-21 16:14:45.460158,-36
2021-10-21 16:14:45.460166,-43
2021-10-21 16:14:45.729887,-51
2021-10-21 16:14:45.729906,-51
2021-10-21 16:14:45.729915,-63
2021-10-21 16:14:45.729924,-82
2021-10-21 16:14:45.729932,-85
2021-10-21 16:14:45.729941,-70
2021-10-21 16:14:45.729949,-60
2021-10-21 16:14:45.729957,-60
2021-10-21 16:14:45.729966,-63
2021-10-21 16:14:45.729974,-65
2021-10-21 16:14:45.729982,-65
2021-10-21 16:14:45.729990,-75
2021-10-21 16:14:45.729999,-131
2021-10-21 16:14:45.730007,-180
2021-10-21 16:14:45.730015,-29
2021-10-21 16:14:45.730023,525
2021-10-21 16:14:45.730032,1343
2021-10-21 16:14:45.730040,1603
2021-10-21 16:14:45.730049,778
2021-10-21 16:14:45.730057,-82
2021-10-21 16:14:45.730065,-72
2021-10-21 16:14:45.730074,53
2021-10-21 16:14:45.730082,-124
2021-10-21 16:14:45.730090,-158
2021-10-21 16:14:45.730098,-87
2021-10-21 16:14:45.730106,-121
2021-10-21 16:14:45.730115,-150
2021-10-21 16:14:45.730123,-114
2021-10-21 16:14:45.730131,-97
2021-10-21 16:14:45.730139,-90
2021-10-21 16:14:45.999282,-65
2021-10-21 16:14:45.999300,-53
2021-10-21 16:14:45.999310,-58
2021-10-21 16:14:45.999319,-53
2021-10-21 16:14:45.999327,-34
2021-10-21 16:14:45.999335,-17
2021-10-21 16:14:45.999344,-4
2021-10-21 16:14:45.999352,12
2021-10-21 16:14:45.999360,17
2021-10-21 16:14:45.999369,7
2021-10-21 16:14:45.999377,12
2021-10-21 16:14:45.999385,31
2021-10-21 16:14:45.999394,38
2021-10-21 16:14:45.999402,41
2021-10-21 16:14:45.999410,31
2021-10-21 16:14:45.999418,12
2021-10-21 16:14:45.999426,9
2021-10-21 16:14:45.999434,12
2021-10-21 16:14:45.999443,-9
2021-10-21 16:14:45.999451,-38
2021-10-21 16:14:45.999459,-65
2021-10-21 16:14:45.999467,-92
2021-10-21 16:14:45.999475,-102
2021-10-21 16:14:45.999483,-99
2021-10-21 16:14:45.999495,-104
2021-10-21 16:14:45.999504,-107
2021-10-21 16:14:45.999512,-99
2021-10-21 16:14:45.999520,-94
2021-10-21 16:14:45.999528,-85
2021-10-21 16:14:45.999536,-72
2021-10-21 16:14:46.179902,-65
2021-10-21 16:14:46.179920,-60
2021-10-21 16:14:46.179930,-65
2021-10-21 16:14:46.179938,-72
2021-10-21 16:14:46.179947,-80
2021-10-21 16:14:46.179955,-87
2021-10-21 16:14:46.179963,-85
2021-10-21 16:14:46.179972,-80
2021-10-21 16:14:46.179980,-90
2021-10-21 16:14:46.179988,-94
2021-10-21 16:14:46.179997,-87
2021-10-21 16:14:46.180005,-85
2021-10-21 16:14:46.180013,-82
2021-10-21 16:14:46.180022,-77
2021-10-21 16:14:46.180030,-85
2021-10-21 16:14:46.180038,-92
2021-10-21 16:14:46.180046,-90
2021-10-21 16:14:46.180055,-87
2021-10-21 16:14:46.180063,-70
2021-10-21 16:14:46.180071,-48
2021-10-21 16:14:46.180079,-41
2021-10-21 16:14:46.180087,-41
2021-10-21 16:14:46.180095,-36
2021-10-21 16:14:46.180104,-41
2021-10-21 16:14:46.180112,-51
2021-10-21 16:14:46.180120,-53
2021-10-21 16:14:46.180128,-53
2021-10-21 16:14:46.180136,-55
2021-10-21 16:14:46.180144,-51
2021-10-21 16:14:46.180152,-46
2021-10-21 16:14:46.404912,-38
2021-10-21 16:14:46.404931,-41
2021-10-21 16:14:46.404940,-55
2021-10-21 16:14:46.404949,-72
2021-10-21 16:14:46.404957,-111
2021-10-21 16:14:46.404966,-175
2021-10-21 16:14:46.404974,-107
2021-10-21 16:14:46.404982,328
2021-10-21 16:14:46.404991,1124
2021-10-21 16:14:46.404999,1601
2021-10-21 16:14:46.405007,1000
2021-10-21 16:14:46.405016,26
2021-10-21 16:14:46.405024,-145
2021-10-21 16:14:46.405032,29
2021-10-21 16:14:46.405041,-111
2021-10-21 16:14:46.405049,-206
2021-10-21 16:14:46.405057,-126
2021-10-21 16:14:46.405065,-126
2021-10-21 16:14:46.405074,-155
2021-10-21 16:14:46.405082,-119
2021-10-21 16:14:46.405090,-97
2021-10-21 16:14:46.405099,-94
2021-10-21 16:14:46.405107,-72
2021-10-21 16:14:46.405115,-55
2021-10-21 16:14:46.405123,-48
2021-10-21 16:14:46.405132,-36
2021-10-21 16:14:46.405140,-21
2021-10-21 16:14:46.405148,-14
2021-10-21 16:14:46.405156,-4
2021-10-21 16:14:46.405165,14
2021-10-21 16:14:46.629906,29
2021-10-21 16:14:46.629925,36
2021-10-21 16:14:46.629935,43
2021-10-21 16:14:46.629944,51
2021-10-21 16:14:46.629952,55
2021-10-21 16:14:46.629960,60
2021-10-21 16:14:46.629969,53
2021-10-21 16:14:46.629977,36
2021-10-21 16:14:46.629985,24
2021-10-21 16:14:46.629993,7
2021-10-21 16:14:46.630002,-9
2021-10-21 16:14:46.630010,-29
2021-10-21 16:14:46.630018,-58
2021-10-21 16:14:46.630026,-90
2021-10-21 16:14:46.630035,-104
2021-10-21 16:14:46.630043,-111
2021-10-21 16:14:46.630051,-114
2021-10-21 16:14:46.630059,-107
2021-10-21 16:14:46.630067,-104
2021-10-21 16:14:46.630076,-99
2021-10-21 16:14:46.630084,-85
2021-10-21 16:14:46.630092,-75
2021-10-21 16:14:46.630100,-70
2021-10-21 16:14:46.630108,-68
2021-10-21 16:14:46.630116,-72
2021-10-21 16:14:46.630125,-72
2021-10-21 16:14:46.630133,-68
2021-10-21 16:14:46.630141,-72
2021-10-21 16:14:46.630149,-77
2021-10-21 16:14:46.630158,-72
2021-10-21 16:14:46.899302,-70
2021-10-21 16:14:46.899322,-68
2021-10-21 16:14:46.899331,-55
2021-10-21 16:14:46.899340,-53
2021-10-21 16:14:46.899349,-58
2021-10-21 16:14:46.899357,-63
2021-10-21 16:14:46.899366,-77
2021-10-21 16:14:46.899374,-97
2021-10-21 16:14:46.899382,-94
2021-10-21 16:14:46.899391,-87
2021-10-21 16:14:46.899399,-99
2021-10-21 16:14:46.899408,-114
2021-10-21 16:14:46.899416,-111
2021-10-21 16:14:46.899425,-104
2021-10-21 16:14:46.899433,-85
2021-10-21 16:14:46.899442,-58
2021-10-21 16:14:46.899450,-41
2021-10-21 16:14:46.899458,-51
2021-10-21 16:14:46.899467,-58
2021-10-21 16:14:46.899475,-48
2021-10-21 16:14:46.899483,-53
2021-10-21 16:14:46.899492,-65
2021-10-21 16:14:46.899500,-63
2021-10-21 16:14:46.899508,-55
2021-10-21 16:14:46.899516,-51
2021-10-21 16:14:46.899525,-38
2021-10-21 16:14:46.899533,-34
2021-10-21 16:14:46.899541,-36
2021-10-21 16:14:46.899549,-34
2021-10-21 16:14:46.899558,-51
2021-10-21 16:14:47.123555,-114
2021-10-21 16:14:47.123574,-153
2021-10-21 16:14:47.123583,12
2021-10-21 16:14:47.123592,571
2021-10-21 16:14:47.123600,1352
2021-10-21 16:14:47.123608,1501
2021-10-21 16:14:47.123617,627
2021-10-21 16:14:47.123625,-121
2021-10-21 16:14:47.123633,-36
2021-10-21 16:14:47.123642,60
2021-10-21 16:14:47.123650,-128
2021-10-21 16:14:47.123658,-165
2021-10-21 16:14:47.123666,-111
2021-10-21 16:14:47.123675,-133
2021-10-21 16:14:47.123683,-128
2021-10-21 16:14:47.123691,-94
2021-10-21 16:14:47.123699,-92
2021-10-21 16:14:47.123707,-87
2021-10-21 16:14:47.123716,-65
2021-10-21 16:14:47.123724,-53
2021-10-21 16:14:47.123732,-43
2021-10-21 16:14:47.123741,-21
2021-10-21 16:14:47.123749,-12
2021-10-21 16:14:47.123757,-9
2021-10-21 16:14:47.123765,9
2021-10-21 16:14:47.123774,34
2021-10-21 16:14:47.123782,38
2021-10-21 16:14:47.123790,46
2021-10-21 16:14:47.123798,58
2021-10-21 16:14:47.123807,65
2021-10-21 16:14:47.304959,70
2021-10-21 16:14:47.304978,72
2021-10-21 16:14:47.304987,65
2021-10-21 16:14:47.304996,53
2021-10-21 16:14:47.305005,31
2021-10-21 16:14:47.305013,14
2021-10-21 16:14:47.305021,2
2021-10-21 16:14:47.305030,-19
2021-10-21 16:14:47.305038,-46
2021-10-21 16:14:47.305046,-68
2021-10-21 16:14:47.305055,-99
2021-10-21 16:14:47.305063,-121
2021-10-21 16:14:47.305071,-126
2021-10-21 16:14:47.305079,-138
2021-10-21 16:14:47.305088,-148
2021-10-21 16:14:47.305096,-150
2021-10-21 16:14:47.305104,-155
2021-10-21 16:14:47.305112,-150
2021-10-21 16:14:47.305120,-128
2021-10-21 16:14:47.305129,-116
2021-10-21 16:14:47.305137,-124
2021-10-21 16:14:47.305145,-119
2021-10-21 16:14:47.305153,-104
2021-10-21 16:14:47.305161,-94
2021-10-21 16:14:47.305170,-87
2021-10-21 16:14:47.305178,-80
2021-10-21 16:14:47.305186,-75
2021-10-21 16:14:47.305194,-75
2021-10-21 16:14:47.305203,-75
2021-10-21 16:14:47.305211,-72
2021-10-21 16:14:47.575487,-60
2021-10-21 16:14:47.575506,-51
2021-10-21 16:14:47.575516,-53
2021-10-21 16:14:47.575524,-65
2021-10-21 16:14:47.575533,-72
2021-10-21 16:14:47.575541,-60
2021-10-21 16:14:47.575549,-48
2021-10-21 16:14:47.575557,-48
2021-10-21 16:14:47.575566,-53
2021-10-21 16:14:47.575574,-55
2021-10-21 16:14:47.575582,-46
2021-10-21 16:14:47.575590,-19
2021-10-21 16:14:47.575599,-12
2021-10-21 16:14:47.575607,-14
2021-10-21 16:14:47.575615,-7
2021-10-21 16:14:47.575623,-14
2021-10-21 16:14:47.575632,-36
2021-10-21 16:14:47.575640,-41
2021-10-21 16:14:47.575648,-31
2021-10-21 16:14:47.575656,-29
2021-10-21 16:14:47.575664,-26
2021-10-21 16:14:47.575673,-21
2021-10-21 16:14:47.575681,-14
2021-10-21 16:14:47.575689,-12
2021-10-21 16:14:47.575697,-19
2021-10-21 16:14:47.575706,-55
2021-10-21 16:14:47.575713,-133
2021-10-21 16:14:47.575721,-138
2021-10-21 16:14:47.575730,170
2021-10-21 16:14:47.575738,885
2021-10-21 16:14:47.799911,1525
2021-10-21 16:14:47.799929,1185
2021-10-21 16:14:47.799939,145
2021-10-21 16:14:47.799947,-206
2021-10-21 16:14:47.799956,68
2021-10-21 16:14:47.799964,21
2021-10-21 16:14:47.799972,-136
2021-10-21 16:14:47.799981,-60
2021-10-21 16:14:47.799989,-31
2021-10-21 16:14:47.799997,-97
2021-10-21 16:14:47.800005,-80
2021-10-21 16:14:47.800014,-34
2021-10-21 16:14:47.800022,-36
2021-10-21 16:14:47.800030,-29
2021-10-21 16:14:47.800038,-9
2021-10-21 16:14:47.800046,-14
2021-10-21 16:14:47.800055,-7
2021-10-21 16:14:47.800063,19
2021-10-21 16:14:47.800071,21
2021-10-21 16:14:47.800079,9
2021-10-21 16:14:47.800087,14
2021-10-21 16:14:47.800096,24
2021-10-21 16:14:47.800104,31
2021-10-21 16:14:47.800112,51
2021-10-21 16:14:47.800120,60
2021-10-21 16:14:47.800129,55
2021-10-21 16:14:47.800137,53
2021-10-21 16:14:47.800145,55
2021-10-21 16:14:47.800153,58
2021-10-21 16:14:47.800161,55
2021-10-21 16:14:48.024949,41
2021-10-21 16:14:48.024968,12
2021-10-21 16:14:48.024977,-29
2021-10-21 16:14:48.024986,-63
2021-10-21 16:14:48.024994,-77
2021-10-21 16:14:48.025003,-97
2021-10-21 16:14:48.025011,-116
2021-10-21 16:14:48.025019,-126
2021-10-21 16:14:48.025028,-143
2021-10-21 16:14:48.025036,-155
2021-10-21 16:14:48.025044,-141
2021-10-21 16:14:48.025053,-116
2021-10-21 16:14:48.025061,-111
2021-10-21 16:14:48.025069,-121
2021-10-21 16:14:48.025078,-124
2021-10-21 16:14:48.025086,-109
2021-10-21 16:14:48.025094,-97
2021-10-21 16:14:48.025103,-97
2021-10-21 16:14:48.025111,-90
2021-10-21 16:14:48.025119,-80
2021-10-21 16:14:48.025128,-85
2021-10-21 16:14:48.025136,-87
2021-10-21 16:14:48.025144,-75
2021-10-21 16:14:48.025152,-65
2021-10-21 16:14:48.025160,-65
2021-10-21 16:14:48.025169,-68
2021-10-21 16:14:48.025177,-68
2021-10-21 16:14:48.025185,-65
2021-10-21 16:14:48.025193,-58
2021-10-21 16:14:48.025202,-55
2021-10-21 16:14:48.249924,-55
2021-10-21 16:14:48.249942,-53
2021-10-21 16:14:48.249952,-53
2021-10-21 16:14:48.249960,-53
2021-10-21 16:14:48.249969,-51
2021-10-21 16:14:48.249978,-43
2021-10-21 16:14:48.249986,-34
2021-10-21 16:14:48.249994,-26
2021-10-21 16:14:48.250003,-26
2021-10-21 16:14:48.250011,-19
2021-10-21 16:14:48.250020,-12
2021-10-21 16:14:48.250028,-19
2021-10-21 16:14:48.250036,-31
2021-10-21 16:14:48.250045,-41
2021-10-21 16:14:48.250053,-48
2021-10-21 16:14:48.250061,-41
2021-10-21 16:14:48.250069,-29
2021-10-21 16:14:48.250078,-19
2021-10-21 16:14:48.250086,-19
2021-10-21 16:14:48.250094,-21
2021-10-21 16:14:48.250103,-31
2021-10-21 16:14:48.250111,-72
2021-10-21 16:14:48.250119,-158
2021-10-21 16:14:48.250127,-192
2021-10-21 16:14:48.250136,72
2021-10-21 16:14:48.250144,820
2021-10-21 16:14:48.250152,1649
2021-10-21 16:14:48.250161,1532
2021-10-21 16:14:48.250169,423
2021-10-21 16:14:48.250177,-216
2021-10-21 16:14:48.474958,-9
2021-10-21 16:14:48.474977,17
2021-10-21 16:14:48.474986,-189
2021-10-21 16:14:48.474995,-163
2021-10-21 16:14:48.475003,-94
2021-10-21 16:14:48.475011,-136
2021-10-21 16:14:48.475019,-138
2021-10-21 16:14:48.475028,-107
2021-10-21 16:14:48.475036,-109
2021-10-21 16:14:48.475044,-111
2021-10-21 16:14:48.475052,-87
2021-10-21 16:14:48.475060,-72
2021-10-21 16:14:48.475069,-77
2021-10-21 16:14:48.475077,-75
2021-10-21 16:14:48.475085,-58
2021-10-21 16:14:48.475093,-41
2021-10-21 16:14:48.475101,-24
2021-10-21 16:14:48.475110,-9
2021-10-21 16:14:48.475118,-2
2021-10-21 16:14:48.475126,2
2021-10-21 16:14:48.475134,4
2021-10-21 16:14:48.475142,4
2021-10-21 16:14:48.475150,9
2021-10-21 16:14:48.475158,14
2021-10-21 16:14:48.475166,9
2021-10-21 16:14:48.475174,-2
2021-10-21 16:14:48.475182,-9
2021-10-21 16:14:48.475191,-26
2021-10-21 16:14:48.475199,-55
2021-10-21 16:14:48.475207,-85
2021-10-21 16:14:48.699925,-109
2021-10-21 16:14:48.699943,-116
2021-10-21 16:14:48.699952,-116
2021-10-21 16:14:48.699961,-131
2021-10-21 16:14:48.699970,-141
2021-10-21 16:14:48.699978,-136
2021-10-21 16:14:48.699986,-138
2021-10-21 16:14:48.699995,-141
2021-10-21 16:14:48.700003,-124
2021-10-21 16:14:48.700011,-116
2021-10-21 16:14:48.700020,-111
2021-10-21 16:14:48.700028,-104
2021-10-21 16:14:48.700037,-102
2021-10-21 16:14:48.700045,-97
2021-10-21 16:14:48.700053,-87
2021-10-21 16:14:48.700062,-82
2021-10-21 16:14:48.700070,-72
2021-10-21 16:14:48.700079,-65
2021-10-21 16:14:48.700087,-70
2021-10-21 16:14:48.700095,-65
2021-10-21 16:14:48.700104,-46
2021-10-21 16:14:48.700112,-41
2021-10-21 16:14:48.700120,-43
2021-10-21 16:14:48.700128,-41
2021-10-21 16:14:48.700137,-41
2021-10-21 16:14:48.700145,-38
2021-10-21 16:14:48.700153,-36
2021-10-21 16:14:48.700162,-46
2021-10-21 16:14:48.700170,-53
2021-10-21 16:14:48.700178,-58
2021-10-21 16:14:48.969931,-60
2021-10-21 16:14:48.969950,-55
2021-10-21 16:14:48.969959,-53
2021-10-21 16:14:48.969968,-60
2021-10-21 16:14:48.969976,-60
2021-10-21 16:14:48.969984,-55
2021-10-21 16:14:48.969993,-43
2021-10-21 16:14:48.970001,-14
2021-10-21 16:14:48.970009,0
2021-10-21 16:14:48.970018,-9
2021-10-21 16:14:48.970026,-17
2021-10-21 16:14:48.970034,-29
2021-10-21 16:14:48.970043,-43
2021-10-21 16:14:48.970051,-36
2021-10-21 16:14:48.970059,-29
2021-10-21 16:14:48.970068,-34
2021-10-21 16:14:48.970076,-29
2021-10-21 16:14:48.970084,-21
2021-10-21 16:14:48.970092,-19
2021-10-21 16:14:48.970101,-9
2021-10-21 16:14:48.970109,-12
2021-10-21 16:14:48.970117,-60
2021-10-21 16:14:48.970125,-150
2021-10-21 16:14:48.970133,-165
2021-10-21 16:14:48.970142,148
2021-10-21 16:14:48.970150,944
2021-10-21 16:14:48.970158,1754
2021-10-21 16:14:48.970167,1552
2021-10-21 16:14:48.970175,403
2021-10-21 16:14:48.970183,-204
2021-10-21 16:14:49.238595,4
2021-10-21 16:14:49.238613,14
2021-10-21 16:14:49.238622,-180
2021-10-21 16:14:49.238631,-150
2021-10-21 16:14:49.238639,-102
2021-10-21 16:14:49.238647,-150
2021-10-21 16:14:49.238655,-138
2021-10-21 16:14:49.238664,-94
2021-10-21 16:14:49.238672,-99
2021-10-21 16:14:49.238680,-107
2021-10-21 16:14:49.238688,-97
2021-10-21 16:14:49.238697,-94
2021-10-21 16:14:49.238705,-94
2021-10-21 16:14:49.238713,-77
2021-10-21 16:14:49.238721,-60
2021-10-21 16:14:49.238730,-55
2021-10-21 16:14:49.238738,-53
2021-10-21 16:14:49.238746,-38
2021-10-21 16:14:49.238754,-24
2021-10-21 16:14:49.238763,-12
2021-10-21 16:14:49.238771,0
2021-10-21 16:14:49.238779,7
2021-10-21 16:14:49.238788,9
2021-10-21 16:14:49.238796,21
2021-10-21 16:14:49.238804,26
2021-10-21 16:14:49.238812,24
2021-10-21 16:14:49.238820,19
2021-10-21 16:14:49.238828,-2
2021-10-21 16:14:49.238836,-36
2021-10-21 16:14:49.238845,-60
