Time,ECG
2021-09-22 19:45:15.109252,374
2021-09-22 19:45:15.109273,396
2021-09-22 19:45:15.109281,403
2021-09-22 19:45:15.109287,389
2021-09-22 19:45:15.109293,360
2021-09-22 19:45:15.109298,328
2021-09-22 19:45:15.109304,272
2021-09-22 19:45:15.109310,184
2021-09-22 19:45:15.109316,85
2021-09-22 19:45:15.109322,-14
2021-09-22 19:45:15.109328,-102
2021-09-22 19:45:15.109334,-160
2021-09-22 19:45:15.109340,-201
2021-09-22 19:45:15.109346,-226
2021-09-22 19:45:15.109352,-236
2021-09-22 19:45:15.109358,-240
2021-09-22 19:45:15.109363,-240
2021-09-22 19:45:15.109369,-223
2021-09-22 19:45:15.109375,-201
2021-09-22 19:45:15.109381,-189
2021-09-22 19:45:15.109387,-177
2021-09-22 19:45:15.109392,-163
2021-09-22 19:45:15.109398,-150
2021-09-22 19:45:15.109404,-133
2021-09-22 19:45:15.109410,-121
2021-09-22 19:45:15.109416,-114
2021-09-22 19:45:15.109422,-109
2021-09-22 19:45:15.109427,-104
2021-09-22 19:45:15.109433,-99
2021-09-22 19:45:15.109439,-94
2021-09-22 19:45:15.334220,-92
2021-09-22 19:45:15.334239,-90
2021-09-22 19:45:15.334247,-97
2021-09-22 19:45:15.334253,-109
2021-09-22 19:45:15.334259,-114
2021-09-22 19:45:15.334265,-116
2021-09-22 19:45:15.334271,-119
2021-09-22 19:45:15.334278,-114
2021-09-22 19:45:15.334284,-121
2021-09-22 19:45:15.334290,-128
2021-09-22 19:45:15.334296,-121
2021-09-22 19:45:15.334302,-109
2021-09-22 19:45:15.334308,-107
2021-09-22 19:45:15.334313,-107
2021-09-22 19:45:15.334319,-114
2021-09-22 19:45:15.334325,-124
2021-09-22 19:45:15.334331,-116
2021-09-22 19:45:15.334337,-97
2021-09-22 19:45:15.334343,-87
2021-09-22 19:45:15.334349,-82
2021-09-22 19:45:15.334355,-72
2021-09-22 19:45:15.334361,-68
2021-09-22 19:45:15.334367,-68
2021-09-22 19:45:15.334372,-80
2021-09-22 19:45:15.334378,-92
2021-09-22 19:45:15.334384,-92
2021-09-22 19:45:15.334390,-90
2021-09-22 19:45:15.334396,-92
2021-09-22 19:45:15.334402,-92
2021-09-22 19:45:15.334407,-85
2021-09-22 19:45:15.647838,-80
2021-09-22 19:45:15.647859,-80
2021-09-22 19:45:15.647866,-70
2021-09-22 19:45:15.647873,-24
2021-09-22 19:45:15.647879,80
2021-09-22 19:45:15.647885,294
2021-09-22 19:45:15.647891,532
2021-09-22 19:45:15.647897,469
2021-09-22 19:45:15.647902,41
2021-09-22 19:45:15.647908,-476
2021-09-22 19:45:15.647914,-754
2021-09-22 19:45:15.647920,-498
2021-09-22 19:45:15.647927,-119
2021-09-22 19:45:15.647933,-77
2021-09-22 19:45:15.647938,-68
2021-09-22 19:45:15.647944,43
2021-09-22 19:45:15.647950,63
2021-09-22 19:45:15.647956,46
2021-09-22 19:45:15.647962,85
2021-09-22 19:45:15.647968,107
2021-09-22 19:45:15.647974,102
2021-09-22 19:45:15.647979,114
2021-09-22 19:45:15.647985,138
2021-09-22 19:45:15.647991,153
2021-09-22 19:45:15.647997,165
2021-09-22 19:45:15.648002,180
2021-09-22 19:45:15.648008,197
2021-09-22 19:45:15.648015,216
2021-09-22 19:45:15.648021,240
2021-09-22 19:45:15.648027,270
2021-09-22 19:45:15.784333,299
2021-09-22 19:45:15.784354,330
2021-09-22 19:45:15.784361,355
2021-09-22 19:45:15.784368,377
2021-09-22 19:45:15.784374,396
2021-09-22 19:45:15.784380,406
2021-09-22 19:45:15.784386,401
2021-09-22 19:45:15.784392,379
2021-09-22 19:45:15.784398,338
2021-09-22 19:45:15.784404,282
2021-09-22 19:45:15.784410,201
2021-09-22 19:45:15.784416,92
2021-09-22 19:45:15.784422,-17
2021-09-22 19:45:15.784428,-99
2021-09-22 19:45:15.784434,-165
2021-09-22 19:45:15.784440,-216
2021-09-22 19:45:15.784446,-240
2021-09-22 19:45:15.784452,-248
2021-09-22 19:45:15.784458,-255
2021-09-22 19:45:15.784464,-260
2021-09-22 19:45:15.784470,-250
2021-09-22 19:45:15.784476,-228
2021-09-22 19:45:15.784482,-211
2021-09-22 19:45:15.784487,-199
2021-09-22 19:45:15.784493,-182
2021-09-22 19:45:15.784499,-172
2021-09-22 19:45:15.784505,-163
2021-09-22 19:45:15.784511,-148
2021-09-22 19:45:15.784546,-138
2021-09-22 19:45:15.784552,-131
2021-09-22 19:45:16.009205,-126
2021-09-22 19:45:16.009224,-124
2021-09-22 19:45:16.009232,-121
2021-09-22 19:45:16.009238,-119
2021-09-22 19:45:16.009244,-114
2021-09-22 19:45:16.009250,-109
2021-09-22 19:45:16.009256,-114
2021-09-22 19:45:16.009262,-121
2021-09-22 19:45:16.009268,-128
2021-09-22 19:45:16.009274,-126
2021-09-22 19:45:16.009280,-119
2021-09-22 19:45:16.009286,-119
2021-09-22 19:45:16.009292,-121
2021-09-22 19:45:16.009298,-121
2021-09-22 19:45:16.009304,-121
2021-09-22 19:45:16.009310,-124
2021-09-22 19:45:16.009316,-119
2021-09-22 19:45:16.009322,-111
2021-09-22 19:45:16.009328,-114
2021-09-22 19:45:16.009334,-121
2021-09-22 19:45:16.009339,-126
2021-09-22 19:45:16.009345,-126
2021-09-22 19:45:16.009351,-119
2021-09-22 19:45:16.009357,-102
2021-09-22 19:45:16.009363,-90
2021-09-22 19:45:16.009369,-82
2021-09-22 19:45:16.009374,-65
2021-09-22 19:45:16.009380,-53
2021-09-22 19:45:16.009386,-60
2021-09-22 19:45:16.009392,-77
2021-09-22 19:45:16.234174,-87
2021-09-22 19:45:16.234195,-85
2021-09-22 19:45:16.234202,-80
2021-09-22 19:45:16.234208,-77
2021-09-22 19:45:16.234214,-75
2021-09-22 19:45:16.234220,-72
2021-09-22 19:45:16.234226,-77
2021-09-22 19:45:16.234232,-75
2021-09-22 19:45:16.234238,-51
2021-09-22 19:45:16.234244,9
2021-09-22 19:45:16.234250,136
2021-09-22 19:45:16.234256,377
2021-09-22 19:45:16.234262,549
2021-09-22 19:45:16.234268,343
2021-09-22 19:45:16.234274,-155
2021-09-22 19:45:16.234280,-620
2021-09-22 19:45:16.234286,-705
2021-09-22 19:45:16.234292,-347
2021-09-22 19:45:16.234298,-82
2021-09-22 19:45:16.234304,-80
2021-09-22 19:45:16.234309,-7
2021-09-22 19:45:16.234315,82
2021-09-22 19:45:16.234321,68
2021-09-22 19:45:16.234328,70
2021-09-22 19:45:16.234333,107
2021-09-22 19:45:16.234339,116
2021-09-22 19:45:16.234345,119
2021-09-22 19:45:16.234351,138
2021-09-22 19:45:16.234357,153
2021-09-22 19:45:16.234363,163
2021-09-22 19:45:16.459269,177
2021-09-22 19:45:16.459290,194
2021-09-22 19:45:16.459297,211
2021-09-22 19:45:16.459304,231
2021-09-22 19:45:16.459310,253
2021-09-22 19:45:16.459316,272
2021-09-22 19:45:16.459322,291
2021-09-22 19:45:16.459328,326
2021-09-22 19:45:16.459334,355
2021-09-22 19:45:16.459340,374
2021-09-22 19:45:16.459346,386
2021-09-22 19:45:16.459352,384
2021-09-22 19:45:16.459358,369
2021-09-22 19:45:16.459364,350
2021-09-22 19:45:16.459369,318
2021-09-22 19:45:16.459375,260
2021-09-22 19:45:16.459381,175
2021-09-22 19:45:16.459387,72
2021-09-22 19:45:16.459392,-19
2021-09-22 19:45:16.459398,-97
2021-09-22 19:45:16.459404,-158
2021-09-22 19:45:16.459410,-194
2021-09-22 19:45:16.459416,-211
2021-09-22 19:45:16.459421,-223
2021-09-22 19:45:16.459427,-226
2021-09-22 19:45:16.459433,-211
2021-09-22 19:45:16.459439,-194
2021-09-22 19:45:16.459444,-182
2021-09-22 19:45:16.459450,-170
2021-09-22 19:45:16.459456,-155
2021-09-22 19:45:16.729301,-141
2021-09-22 19:45:16.729340,-128
2021-09-22 19:45:16.729348,-116
2021-09-22 19:45:16.729354,-109
2021-09-22 19:45:16.729360,-107
2021-09-22 19:45:16.729367,-111
2021-09-22 19:45:16.729373,-111
2021-09-22 19:45:16.729378,-107
2021-09-22 19:45:16.729384,-104
2021-09-22 19:45:16.729390,-104
2021-09-22 19:45:16.729396,-109
2021-09-22 19:45:16.729402,-116
2021-09-22 19:45:16.729408,-111
2021-09-22 19:45:16.729413,-104
2021-09-22 19:45:16.729420,-104
2021-09-22 19:45:16.729425,-104
2021-09-22 19:45:16.729431,-104
2021-09-22 19:45:16.729437,-107
2021-09-22 19:45:16.729443,-107
2021-09-22 19:45:16.729479,-109
2021-09-22 19:45:16.729485,-114
2021-09-22 19:45:16.729491,-119
2021-09-22 19:45:16.729497,-124
2021-09-22 19:45:16.729502,-126
2021-09-22 19:45:16.729508,-121
2021-09-22 19:45:16.729514,-114
2021-09-22 19:45:16.729520,-109
2021-09-22 19:45:16.729526,-109
2021-09-22 19:45:16.729532,-111
2021-09-22 19:45:16.729538,-109
2021-09-22 19:45:16.954168,-102
2021-09-22 19:45:16.954189,-90
2021-09-22 19:45:16.954196,-70
2021-09-22 19:45:16.954202,-58
2021-09-22 19:45:16.954208,-58
2021-09-22 19:45:16.954214,-46
2021-09-22 19:45:16.954220,-34
2021-09-22 19:45:16.954226,-48
2021-09-22 19:45:16.954232,-65
2021-09-22 19:45:16.954238,-70
2021-09-22 19:45:16.954243,-70
2021-09-22 19:45:16.954249,-63
2021-09-22 19:45:16.954255,-53
2021-09-22 19:45:16.954261,-46
2021-09-22 19:45:16.954266,-46
2021-09-22 19:45:16.954272,-48
2021-09-22 19:45:16.954278,-43
2021-09-22 19:45:16.954283,0
2021-09-22 19:45:16.954289,90
2021-09-22 19:45:16.954295,267
2021-09-22 19:45:16.954301,510
2021-09-22 19:45:16.954306,510
2021-09-22 19:45:16.954312,119
2021-09-22 19:45:16.954317,-406
2021-09-22 19:45:16.954323,-700
2021-09-22 19:45:16.954329,-493
2021-09-22 19:45:16.954335,-124
2021-09-22 19:45:16.954341,-46
2021-09-22 19:45:16.954346,-31
2021-09-22 19:45:16.954352,92
2021-09-22 19:45:17.179271,126
2021-09-22 19:45:17.179293,99
2021-09-22 19:45:17.179300,126
2021-09-22 19:45:17.179306,148
2021-09-22 19:45:17.179312,143
2021-09-22 19:45:17.179318,160
2021-09-22 19:45:17.179324,182
2021-09-22 19:45:17.179330,189
2021-09-22 19:45:17.179336,197
2021-09-22 19:45:17.179341,204
2021-09-22 19:45:17.179347,216
2021-09-22 19:45:17.179353,240
2021-09-22 19:45:17.179359,267
2021-09-22 19:45:17.179364,291
2021-09-22 19:45:17.179370,309
2021-09-22 19:45:17.179376,326
2021-09-22 19:45:17.179382,352
2021-09-22 19:45:17.179388,382
2021-09-22 19:45:17.179394,401
2021-09-22 19:45:17.179400,406
2021-09-22 19:45:17.179405,396
2021-09-22 19:45:17.179411,374
2021-09-22 19:45:17.179417,352
2021-09-22 19:45:17.179423,313
2021-09-22 19:45:17.179429,240
2021-09-22 19:45:17.179435,143
2021-09-22 19:45:17.179440,41
2021-09-22 19:45:17.179446,-46
2021-09-22 19:45:17.179452,-119
2021-09-22 19:45:17.179458,-170
2021-09-22 19:45:17.404282,-197
2021-09-22 19:45:17.404302,-216
2021-09-22 19:45:17.404310,-228
2021-09-22 19:45:17.404316,-231
2021-09-22 19:45:17.404322,-221
2021-09-22 19:45:17.404328,-209
2021-09-22 19:45:17.404334,-194
2021-09-22 19:45:17.404340,-177
2021-09-22 19:45:17.404345,-170
2021-09-22 19:45:17.404351,-165
2021-09-22 19:45:17.404357,-148
2021-09-22 19:45:17.404363,-133
2021-09-22 19:45:17.404369,-126
2021-09-22 19:45:17.404375,-124
2021-09-22 19:45:17.404381,-124
2021-09-22 19:45:17.404386,-128
2021-09-22 19:45:17.404392,-124
2021-09-22 19:45:17.404398,-124
2021-09-22 19:45:17.404404,-126
2021-09-22 19:45:17.404409,-124
2021-09-22 19:45:17.404415,-124
2021-09-22 19:45:17.404421,-131
2021-09-22 19:45:17.404427,-131
2021-09-22 19:45:17.404433,-121
2021-09-22 19:45:17.404438,-116
2021-09-22 19:45:17.404444,-116
2021-09-22 19:45:17.404450,-116
2021-09-22 19:45:17.404456,-119
2021-09-22 19:45:17.404462,-121
2021-09-22 19:45:17.404468,-114
2021-09-22 19:45:17.673037,-104
2021-09-22 19:45:17.673058,-102
2021-09-22 19:45:17.673065,-102
2021-09-22 19:45:17.673071,-97
2021-09-22 19:45:17.673077,-87
2021-09-22 19:45:17.673083,-82
2021-09-22 19:45:17.673089,-87
2021-09-22 19:45:17.673095,-97
2021-09-22 19:45:17.673101,-99
2021-09-22 19:45:17.673107,-85
2021-09-22 19:45:17.673112,-55
2021-09-22 19:45:17.673118,-38
2021-09-22 19:45:17.673124,-36
2021-09-22 19:45:17.673130,-34
2021-09-22 19:45:17.673135,-38
2021-09-22 19:45:17.673141,-55
2021-09-22 19:45:17.673147,-65
2021-09-22 19:45:17.673153,-65
2021-09-22 19:45:17.673159,-60
2021-09-22 19:45:17.673165,-60
2021-09-22 19:45:17.673170,-60
2021-09-22 19:45:17.673176,-60
2021-09-22 19:45:17.673182,-53
2021-09-22 19:45:17.673187,-46
2021-09-22 19:45:17.673193,-34
2021-09-22 19:45:17.673199,2
2021-09-22 19:45:17.673204,80
2021-09-22 19:45:17.673210,243
2021-09-22 19:45:17.673216,479
2021-09-22 19:45:17.673222,503
2021-09-22 19:45:17.898594,124
2021-09-22 19:45:17.898615,-411
2021-09-22 19:45:17.898622,-722
2021-09-22 19:45:17.898629,-547
2021-09-22 19:45:17.898635,-177
2021-09-22 19:45:17.898641,-65
2021-09-22 19:45:17.898647,-51
2021-09-22 19:45:17.898653,58
2021-09-22 19:45:17.898658,99
2021-09-22 19:45:17.898664,75
2021-09-22 19:45:17.898670,102
2021-09-22 19:45:17.898676,133
2021-09-22 19:45:17.898682,128
2021-09-22 19:45:17.898688,128
2021-09-22 19:45:17.898694,145
2021-09-22 19:45:17.898700,160
2021-09-22 19:45:17.898706,172
2021-09-22 19:45:17.898712,189
2021-09-22 19:45:17.898718,201
2021-09-22 19:45:17.898723,221
2021-09-22 19:45:17.898729,245
2021-09-22 19:45:17.898736,267
2021-09-22 19:45:17.898742,289
2021-09-22 19:45:17.898747,316
2021-09-22 19:45:17.898753,345
2021-09-22 19:45:17.898759,369
2021-09-22 19:45:17.898765,386
2021-09-22 19:45:17.898771,391
2021-09-22 19:45:17.898777,389
2021-09-22 19:45:17.898786,379
2021-09-22 19:45:18.079248,350
2021-09-22 19:45:18.079268,299
2021-09-22 19:45:18.079276,221
2021-09-22 19:45:18.079282,124
2021-09-22 19:45:18.079288,29
2021-09-22 19:45:18.079294,-58
2021-09-22 19:45:18.079300,-128
2021-09-22 19:45:18.079306,-180
2021-09-22 19:45:18.079312,-209
2021-09-22 19:45:18.079318,-226
2021-09-22 19:45:18.079324,-231
2021-09-22 19:45:18.079330,-231
2021-09-22 19:45:18.079336,-228
2021-09-22 19:45:18.079341,-218
2021-09-22 19:45:18.079347,-201
2021-09-22 19:45:18.079353,-192
2021-09-22 19:45:18.079359,-182
2021-09-22 19:45:18.079365,-170
2021-09-22 19:45:18.079370,-165
2021-09-22 19:45:18.079376,-158
2021-09-22 19:45:18.079382,-145
2021-09-22 19:45:18.079388,-141
2021-09-22 19:45:18.079394,-133
2021-09-22 19:45:18.079399,-126
2021-09-22 19:45:18.079405,-126
2021-09-22 19:45:18.079411,-124
2021-09-22 19:45:18.079417,-119
2021-09-22 19:45:18.079423,-119
2021-09-22 19:45:18.079429,-116
2021-09-22 19:45:18.079434,-114
2021-09-22 19:45:18.349270,-116
2021-09-22 19:45:18.349291,-114
2021-09-22 19:45:18.349298,-111
2021-09-22 19:45:18.349304,-114
2021-09-22 19:45:18.349311,-119
2021-09-22 19:45:18.349317,-119
2021-09-22 19:45:18.349323,-119
2021-09-22 19:45:18.349329,-114
2021-09-22 19:45:18.349335,-114
2021-09-22 19:45:18.349340,-124
2021-09-22 19:45:18.349346,-119
2021-09-22 19:45:18.349352,-114
2021-09-22 19:45:18.349358,-116
2021-09-22 19:45:18.349364,-109
2021-09-22 19:45:18.349370,-99
2021-09-22 19:45:18.349376,-99
2021-09-22 19:45:18.349382,-94
2021-09-22 19:45:18.349388,-92
2021-09-22 19:45:18.349393,-94
2021-09-22 19:45:18.349399,-92
2021-09-22 19:45:18.349405,-77
2021-09-22 19:45:18.349411,-58
2021-09-22 19:45:18.349416,-36
2021-09-22 19:45:18.349422,-31
2021-09-22 19:45:18.349428,-36
2021-09-22 19:45:18.349434,-21
2021-09-22 19:45:18.349439,-21
2021-09-22 19:45:18.349445,-41
2021-09-22 19:45:18.349451,-55
2021-09-22 19:45:18.349457,-60
2021-09-22 19:45:18.529220,-58
2021-09-22 19:45:18.529241,-51
2021-09-22 19:45:18.529248,-48
2021-09-22 19:45:18.529254,-51
2021-09-22 19:45:18.529261,-48
2021-09-22 19:45:18.529267,-43
2021-09-22 19:45:18.529273,-31
2021-09-22 19:45:18.529279,14
2021-09-22 19:45:18.529285,121
2021-09-22 19:45:18.529291,328
2021-09-22 19:45:18.529297,535
2021-09-22 19:45:18.529303,408
2021-09-22 19:45:18.529309,-48
2021-09-22 19:45:18.529315,-525
2021-09-22 19:45:18.529321,-708
2021-09-22 19:45:18.529326,-413
2021-09-22 19:45:18.529332,-82
2021-09-22 19:45:18.529338,-55
2021-09-22 19:45:18.529344,-9
2021-09-22 19:45:18.529350,107
2021-09-22 19:45:18.529356,109
2021-09-22 19:45:18.529362,90
2021-09-22 19:45:18.529367,126
2021-09-22 19:45:18.529373,141
2021-09-22 19:45:18.529379,141
2021-09-22 19:45:18.529385,158
2021-09-22 19:45:18.529391,175
2021-09-22 19:45:18.529396,177
2021-09-22 19:45:18.529402,187
2021-09-22 19:45:18.529408,204
2021-09-22 19:45:18.799307,221
2021-09-22 19:45:18.799328,238
2021-09-22 19:45:18.799336,257
2021-09-22 19:45:18.799342,277
2021-09-22 19:45:18.799348,296
2021-09-22 19:45:18.799354,321
2021-09-22 19:45:18.799360,347
2021-09-22 19:45:18.799366,364
2021-09-22 19:45:18.799376,374
2021-09-22 19:45:18.799382,374
2021-09-22 19:45:18.799388,364
2021-09-22 19:45:18.799394,345
2021-09-22 19:45:18.799400,318
2021-09-22 19:45:18.799406,262
2021-09-22 19:45:18.799411,175
2021-09-22 19:45:18.799417,72
2021-09-22 19:45:18.799423,-24
2021-09-22 19:45:18.799429,-107
2021-09-22 19:45:18.799437,-170
2021-09-22 19:45:18.799442,-216
2021-09-22 19:45:18.799452,-248
2021-09-22 19:45:18.799460,-267
2021-09-22 19:45:18.799466,-274
2021-09-22 19:45:18.799472,-265
2021-09-22 19:45:18.799507,-250
2021-09-22 19:45:18.799513,-236
2021-09-22 19:45:18.799519,-221
2021-09-22 19:45:18.799525,-209
2021-09-22 19:45:18.799531,-197
2021-09-22 19:45:18.799536,-180
2021-09-22 19:45:19.024255,-163
2021-09-22 19:45:19.024275,-153
2021-09-22 19:45:19.024282,-145
2021-09-22 19:45:19.024288,-143
2021-09-22 19:45:19.024294,-141
2021-09-22 19:45:19.024300,-131
2021-09-22 19:45:19.024306,-124
2021-09-22 19:45:19.024312,-119
2021-09-22 19:45:19.024318,-116
2021-09-22 19:45:19.024324,-121
2021-09-22 19:45:19.024330,-126
2021-09-22 19:45:19.024336,-124
2021-09-22 19:45:19.024342,-116
2021-09-22 19:45:19.024348,-111
2021-09-22 19:45:19.024354,-114
2021-09-22 19:45:19.024360,-121
2021-09-22 19:45:19.024365,-121
2021-09-22 19:45:19.024371,-111
2021-09-22 19:45:19.024377,-104
2021-09-22 19:45:19.024383,-102
2021-09-22 19:45:19.024388,-99
2021-09-22 19:45:19.024394,-99
2021-09-22 19:45:19.024400,-97
2021-09-22 19:45:19.024405,-87
2021-09-22 19:45:19.024411,-82
2021-09-22 19:45:19.024417,-80
2021-09-22 19:45:19.024422,-77
2021-09-22 19:45:19.024429,-77
2021-09-22 19:45:19.024434,-75
2021-09-22 19:45:19.024440,-70
2021-09-22 19:45:19.294276,-65
2021-09-22 19:45:19.294297,-58
2021-09-22 19:45:19.294304,-60
2021-09-22 19:45:19.294311,-70
2021-09-22 19:45:19.294317,-70
2021-09-22 19:45:19.294323,-55
2021-09-22 19:45:19.294329,-36
2021-09-22 19:45:19.294335,-14
2021-09-22 19:45:19.294341,-12
2021-09-22 19:45:19.294347,-24
2021-09-22 19:45:19.294353,-9
2021-09-22 19:45:19.294359,-7
2021-09-22 19:45:19.294365,-38
2021-09-22 19:45:19.294370,-58
2021-09-22 19:45:19.294376,-58
2021-09-22 19:45:19.294382,-60
2021-09-22 19:45:19.294388,-58
2021-09-22 19:45:19.294393,-51
2021-09-22 19:45:19.294399,-51
2021-09-22 19:45:19.294405,-58
2021-09-22 19:45:19.294411,-63
2021-09-22 19:45:19.294416,-51
2021-09-22 19:45:19.294422,-12
2021-09-22 19:45:19.294428,77
2021-09-22 19:45:19.294434,267
2021-09-22 19:45:19.294440,515
2021-09-22 19:45:19.294445,491
2021-09-22 19:45:19.294451,80
2021-09-22 19:45:19.294457,-430
2021-09-22 19:45:19.294463,-705
2021-09-22 19:45:19.519229,-491
2021-09-22 19:45:19.519249,-116
2021-09-22 19:45:19.519256,-34
2021-09-22 19:45:19.519263,-24
2021-09-22 19:45:19.519269,90
2021-09-22 19:45:19.519275,121
2021-09-22 19:45:19.519281,97
2021-09-22 19:45:19.519287,121
2021-09-22 19:45:19.519293,136
2021-09-22 19:45:19.519299,126
2021-09-22 19:45:19.519305,138
2021-09-22 19:45:19.519311,158
2021-09-22 19:45:19.519317,167
2021-09-22 19:45:19.519323,172
2021-09-22 19:45:19.519329,184
2021-09-22 19:45:19.519334,197
2021-09-22 19:45:19.519340,214
2021-09-22 19:45:19.519346,238
2021-09-22 19:45:19.519352,262
2021-09-22 19:45:19.519358,279
2021-09-22 19:45:19.519364,294
2021-09-22 19:45:19.519370,313
2021-09-22 19:45:19.519376,335
2021-09-22 19:45:19.519381,350
2021-09-22 19:45:19.519387,360
2021-09-22 19:45:19.519393,355
2021-09-22 19:45:19.519398,338
2021-09-22 19:45:19.519404,311
2021-09-22 19:45:19.519410,270
2021-09-22 19:45:19.519416,204
2021-09-22 19:45:19.788057,114
2021-09-22 19:45:19.788079,17
2021-09-22 19:45:19.788087,-70
2021-09-22 19:45:19.788093,-136
2021-09-22 19:45:19.788100,-182
2021-09-22 19:45:19.788106,-216
2021-09-22 19:45:19.788112,-233
2021-09-22 19:45:19.788118,-238
2021-09-22 19:45:19.788124,-236
2021-09-22 19:45:19.788130,-228
2021-09-22 19:45:19.788136,-214
2021-09-22 19:45:19.788142,-199
2021-09-22 19:45:19.788148,-189
2021-09-22 19:45:19.788153,-180
2021-09-22 19:45:19.788159,-170
2021-09-22 19:45:19.788165,-160
2021-09-22 19:45:19.788171,-153
2021-09-22 19:45:19.788177,-143
2021-09-22 19:45:19.788183,-136
2021-09-22 19:45:19.788189,-136
2021-09-22 19:45:19.788195,-133
2021-09-22 19:45:19.788201,-126
2021-09-22 19:45:19.788206,-124
2021-09-22 19:45:19.788212,-119
2021-09-22 19:45:19.788218,-116
2021-09-22 19:45:19.788224,-124
2021-09-22 19:45:19.788230,-133
2021-09-22 19:45:19.788236,-128
2021-09-22 19:45:19.788241,-116
2021-09-22 19:45:19.788247,-116
2021-09-22 19:45:19.924138,-119
2021-09-22 19:45:19.924153,-114
2021-09-22 19:45:19.924160,-109
2021-09-22 19:45:19.924166,-107
2021-09-22 19:45:19.924172,-102
2021-09-22 19:45:19.924178,-94
2021-09-22 19:45:19.924184,-99
2021-09-22 19:45:19.924190,-99
2021-09-22 19:45:19.924197,-92
2021-09-22 19:45:19.924202,-85
2021-09-22 19:45:19.924208,-80
2021-09-22 19:45:19.924214,-77
2021-09-22 19:45:19.924220,-80
2021-09-22 19:45:19.924226,-80
2021-09-22 19:45:19.924231,-77
2021-09-22 19:45:19.924237,-77
2021-09-22 19:45:19.924243,-75
2021-09-22 19:45:19.924249,-68
2021-09-22 19:45:19.924255,-68
2021-09-22 19:45:19.924261,-75
2021-09-22 19:45:19.924266,-75
2021-09-22 19:45:19.924272,-63
2021-09-22 19:45:19.924278,-46
2021-09-22 19:45:19.924283,-21
2021-09-22 19:45:19.924289,-14
2021-09-22 19:45:19.924295,-14
2021-09-22 19:45:19.924301,-7
2021-09-22 19:45:19.924308,-9
2021-09-22 19:45:19.924314,-29
2021-09-22 19:45:19.924320,-36
2021-09-22 19:45:20.149254,-34
2021-09-22 19:45:20.149275,-31
2021-09-22 19:45:20.149282,-31
2021-09-22 19:45:20.149289,-34
2021-09-22 19:45:20.149295,-29
2021-09-22 19:45:20.149301,-29
2021-09-22 19:45:20.149307,-36
2021-09-22 19:45:20.149313,-24
2021-09-22 19:45:20.149319,19
2021-09-22 19:45:20.149325,104
2021-09-22 19:45:20.149331,287
2021-09-22 19:45:20.149337,525
2021-09-22 19:45:20.149343,510
2021-09-22 19:45:20.149349,109
2021-09-22 19:45:20.149355,-411
2021-09-22 19:45:20.149361,-686
2021-09-22 19:45:20.149367,-457
2021-09-22 19:45:20.149373,-97
2021-09-22 19:45:20.149379,-34
2021-09-22 19:45:20.149384,-14
2021-09-22 19:45:20.149391,92
2021-09-22 19:45:20.149396,109
2021-09-22 19:45:20.149402,90
2021-09-22 19:45:20.149408,119
2021-09-22 19:45:20.149414,138
2021-09-22 19:45:20.149419,141
2021-09-22 19:45:20.149425,153
2021-09-22 19:45:20.149431,158
2021-09-22 19:45:20.149437,155
2021-09-22 19:45:20.149442,170
2021-09-22 19:45:20.374293,187
2021-09-22 19:45:20.374314,197
2021-09-22 19:45:20.374321,206
2021-09-22 19:45:20.374327,228
2021-09-22 19:45:20.374334,253
2021-09-22 19:45:20.374339,267
2021-09-22 19:45:20.374345,289
2021-09-22 19:45:20.374351,323
2021-09-22 19:45:20.374357,357
2021-09-22 19:45:20.374363,374
2021-09-22 19:45:20.374369,374
2021-09-22 19:45:20.374375,367
2021-09-22 19:45:20.374380,355
2021-09-22 19:45:20.374386,333
2021-09-22 19:45:20.374392,287
2021-09-22 19:45:20.374398,216
2021-09-22 19:45:20.374404,131
2021-09-22 19:45:20.374410,38
2021-09-22 19:45:20.374416,-38
2021-09-22 19:45:20.374422,-99
2021-09-22 19:45:20.374427,-155
2021-09-22 19:45:20.374433,-194
2021-09-22 19:45:20.374439,-214
2021-09-22 19:45:20.374445,-223
2021-09-22 19:45:20.374450,-216
2021-09-22 19:45:20.374456,-197
2021-09-22 19:45:20.374462,-180
2021-09-22 19:45:20.374468,-172
2021-09-22 19:45:20.374473,-160
2021-09-22 19:45:20.374479,-141
2021-09-22 19:45:20.599207,-128
2021-09-22 19:45:20.599226,-114
2021-09-22 19:45:20.599233,-99
2021-09-22 19:45:20.599239,-92
2021-09-22 19:45:20.599246,-92
2021-09-22 19:45:20.599251,-90
2021-09-22 19:45:20.599257,-85
2021-09-22 19:45:20.599263,-77
2021-09-22 19:45:20.599269,-72
2021-09-22 19:45:20.599275,-77
2021-09-22 19:45:20.599281,-85
2021-09-22 19:45:20.599287,-82
2021-09-22 19:45:20.599292,-72
2021-09-22 19:45:20.599298,-68
2021-09-22 19:45:20.599304,-65
2021-09-22 19:45:20.599310,-72
2021-09-22 19:45:20.599316,-72
2021-09-22 19:45:20.599322,-65
2021-09-22 19:45:20.599327,-60
2021-09-22 19:45:20.599333,-53
2021-09-22 19:45:20.599339,-46
2021-09-22 19:45:20.599345,-43
2021-09-22 19:45:20.599351,-38
2021-09-22 19:45:20.599356,-41
2021-09-22 19:45:20.599362,-46
2021-09-22 19:45:20.599368,-43
2021-09-22 19:45:20.599374,-38
2021-09-22 19:45:20.599379,-36
2021-09-22 19:45:20.599385,-34
2021-09-22 19:45:20.599391,-29
2021-09-22 19:45:20.824359,-19
2021-09-22 19:45:20.824380,-9
2021-09-22 19:45:20.824388,4
2021-09-22 19:45:20.824394,7
2021-09-22 19:45:20.824400,0
2021-09-22 19:45:20.824406,4
2021-09-22 19:45:20.824412,7
2021-09-22 19:45:20.824418,-7
2021-09-22 19:45:20.824424,-24
2021-09-22 19:45:20.824430,-38
2021-09-22 19:45:20.824436,-43
2021-09-22 19:45:20.824442,-36
2021-09-22 19:45:20.824448,-29
2021-09-22 19:45:20.824454,-24
2021-09-22 19:45:20.824460,-19
2021-09-22 19:45:20.824467,-21
2021-09-22 19:45:20.824473,-21
2021-09-22 19:45:20.824508,21
2021-09-22 19:45:20.824513,107
2021-09-22 19:45:20.824519,209
2021-09-22 19:45:20.824525,350
2021-09-22 19:45:20.824531,399
2021-09-22 19:45:20.824537,131
2021-09-22 19:45:20.824543,-338
2021-09-22 19:45:20.824548,-683
2021-09-22 19:45:20.824554,-627
2021-09-22 19:45:20.824560,-253
2021-09-22 19:45:20.824566,-41
2021-09-22 19:45:20.824572,-29
2021-09-22 19:45:20.824578,68
2021-09-22 19:45:21.139333,158
2021-09-22 19:45:21.139354,150
2021-09-22 19:45:21.139361,148
2021-09-22 19:45:21.139367,163
2021-09-22 19:45:21.139373,158
2021-09-22 19:45:21.139379,165
2021-09-22 19:45:21.139385,175
2021-09-22 19:45:21.139391,177
2021-09-22 19:45:21.139397,187
2021-09-22 19:45:21.139403,197
2021-09-22 19:45:21.139409,204
2021-09-22 19:45:21.139415,223
2021-09-22 19:45:21.139421,250
2021-09-22 19:45:21.139426,272
2021-09-22 19:45:21.139432,284
2021-09-22 19:45:21.139438,316
2021-09-22 19:45:21.139444,355
2021-09-22 19:45:21.139450,379
2021-09-22 19:45:21.139456,399
2021-09-22 19:45:21.139462,413
2021-09-22 19:45:21.139467,403
2021-09-22 19:45:21.139473,386
2021-09-22 19:45:21.139479,374
2021-09-22 19:45:21.139485,338
2021-09-22 19:45:21.139490,267
2021-09-22 19:45:21.139496,182
2021-09-22 19:45:21.139502,87
2021-09-22 19:45:21.139508,0
2021-09-22 19:45:21.139514,-72
2021-09-22 19:45:21.139519,-128
2021-09-22 19:45:21.319227,-160
2021-09-22 19:45:21.319248,-175
2021-09-22 19:45:21.319255,-184
2021-09-22 19:45:21.319262,-189
2021-09-22 19:45:21.319268,-182
2021-09-22 19:45:21.319274,-170
2021-09-22 19:45:21.319280,-158
2021-09-22 19:45:21.319286,-145
2021-09-22 19:45:21.319292,-145
2021-09-22 19:45:21.319297,-138
2021-09-22 19:45:21.319303,-119
2021-09-22 19:45:21.319309,-116
2021-09-22 19:45:21.319315,-126
2021-09-22 19:45:21.319321,-116
2021-09-22 19:45:21.319327,-107
2021-09-22 19:45:21.319332,-109
2021-09-22 19:45:21.319338,-102
2021-09-22 19:45:21.319344,-94
2021-09-22 19:45:21.319350,-92
2021-09-22 19:45:21.319355,-94
2021-09-22 19:45:21.319361,-104
2021-09-22 19:45:21.319367,-109
2021-09-22 19:45:21.319372,-102
2021-09-22 19:45:21.319378,-92
2021-09-22 19:45:21.319384,-90
2021-09-22 19:45:21.319389,-87
2021-09-22 19:45:21.319395,-90
2021-09-22 19:45:21.319402,-87
2021-09-22 19:45:21.319408,-82
2021-09-22 19:45:21.319413,-82
2021-09-22 19:45:21.544270,-85
2021-09-22 19:45:21.544290,-85
2021-09-22 19:45:21.544297,-85
2021-09-22 19:45:21.544304,-85
2021-09-22 19:45:21.544310,-77
2021-09-22 19:45:21.544316,-72
2021-09-22 19:45:21.544322,-70
2021-09-22 19:45:21.544327,-75
2021-09-22 19:45:21.544333,-80
2021-09-22 19:45:21.544339,-68
2021-09-22 19:45:21.544345,-43
2021-09-22 19:45:21.544351,-26
2021-09-22 19:45:21.544357,-24
2021-09-22 19:45:21.544363,-24
2021-09-22 19:45:21.544369,-29
2021-09-22 19:45:21.544375,-46
2021-09-22 19:45:21.544380,-55
2021-09-22 19:45:21.544386,-53
2021-09-22 19:45:21.544392,-53
2021-09-22 19:45:21.544398,-53
2021-09-22 19:45:21.544404,-48
2021-09-22 19:45:21.544410,-48
2021-09-22 19:45:21.544416,-48
2021-09-22 19:45:21.544421,-41
2021-09-22 19:45:21.544427,-19
2021-09-22 19:45:21.544433,41
2021-09-22 19:45:21.544439,141
2021-09-22 19:45:21.544445,284
2021-09-22 19:45:21.544451,401
2021-09-22 19:45:21.544457,228
2021-09-22 19:45:21.813014,-221
2021-09-22 19:45:21.813036,-620
2021-09-22 19:45:21.813043,-722
2021-09-22 19:45:21.813049,-433
2021-09-22 19:45:21.813055,-109
2021-09-22 19:45:21.813061,-53
2021-09-22 19:45:21.813068,-17
2021-09-22 19:45:21.813074,94
2021-09-22 19:45:21.813079,116
2021-09-22 19:45:21.813085,99
2021-09-22 19:45:21.813091,128
2021-09-22 19:45:21.813097,143
2021-09-22 19:45:21.813104,128
2021-09-22 19:45:21.813110,131
2021-09-22 19:45:21.813116,141
2021-09-22 19:45:21.813122,133
2021-09-22 19:45:21.813128,143
2021-09-22 19:45:21.813133,160
2021-09-22 19:45:21.813139,163
2021-09-22 19:45:21.813145,175
2021-09-22 19:45:21.813151,204
2021-09-22 19:45:21.813157,228
2021-09-22 19:45:21.813163,255
2021-09-22 19:45:21.813169,287
2021-09-22 19:45:21.813175,311
2021-09-22 19:45:21.813182,335
2021-09-22 19:45:21.813188,357
2021-09-22 19:45:21.813196,364
2021-09-22 19:45:21.813202,357
2021-09-22 19:45:21.813207,335
2021-09-22 19:45:21.994217,299
2021-09-22 19:45:21.994237,243
2021-09-22 19:45:21.994244,170
2021-09-22 19:45:21.994251,75
2021-09-22 19:45:21.994257,-19
2021-09-22 19:45:21.994263,-104
2021-09-22 19:45:21.994269,-165
2021-09-22 19:45:21.994275,-201
2021-09-22 19:45:21.994281,-223
2021-09-22 19:45:21.994287,-238
2021-09-22 19:45:21.994293,-243
2021-09-22 19:45:21.994298,-240
2021-09-22 19:45:21.994304,-240
2021-09-22 19:45:21.994310,-228
2021-09-22 19:45:21.994316,-209
2021-09-22 19:45:21.994322,-199
2021-09-22 19:45:21.994327,-189
2021-09-22 19:45:21.994333,-175
2021-09-22 19:45:21.994339,-163
2021-09-22 19:45:21.994345,-148
2021-09-22 19:45:21.994351,-136
2021-09-22 19:45:21.994357,-131
2021-09-22 19:45:21.994363,-128
2021-09-22 19:45:21.994368,-124
2021-09-22 19:45:21.994374,-119
2021-09-22 19:45:21.994380,-111
2021-09-22 19:45:21.994386,-107
2021-09-22 19:45:21.994392,-107
2021-09-22 19:45:21.994398,-107
2021-09-22 19:45:21.994403,-109
2021-09-22 19:45:22.264346,-109
2021-09-22 19:45:22.264368,-104
2021-09-22 19:45:22.264375,-97
2021-09-22 19:45:22.264381,-97
2021-09-22 19:45:22.264387,-99
2021-09-22 19:45:22.264393,-104
2021-09-22 19:45:22.264399,-109
2021-09-22 19:45:22.264405,-107
2021-09-22 19:45:22.264411,-102
2021-09-22 19:45:22.264417,-102
2021-09-22 19:45:22.264423,-99
2021-09-22 19:45:22.264429,-99
2021-09-22 19:45:22.264435,-102
2021-09-22 19:45:22.264441,-102
2021-09-22 19:45:22.264447,-104
2021-09-22 19:45:22.264453,-99
2021-09-22 19:45:22.264459,-85
2021-09-22 19:45:22.264465,-70
2021-09-22 19:45:22.264470,-58
2021-09-22 19:45:22.264476,-46
2021-09-22 19:45:22.264482,-36
2021-09-22 19:45:22.264488,-38
2021-09-22 19:45:22.264494,-60
2021-09-22 19:45:22.264499,-80
2021-09-22 19:45:22.264505,-82
2021-09-22 19:45:22.264511,-75
2021-09-22 19:45:22.264517,-72
2021-09-22 19:45:22.264522,-72
2021-09-22 19:45:22.264528,-70
2021-09-22 19:45:22.264534,-68
2021-09-22 19:45:22.489351,-65
2021-09-22 19:45:22.489372,-48
2021-09-22 19:45:22.489380,7
2021-09-22 19:45:22.489386,107
2021-09-22 19:45:22.489392,277
2021-09-22 19:45:22.489398,452
2021-09-22 19:45:22.489404,335
2021-09-22 19:45:22.489410,-87
2021-09-22 19:45:22.489416,-520
2021-09-22 19:45:22.489422,-737
2021-09-22 19:45:22.489428,-515
2021-09-22 19:45:22.489434,-148
2021-09-22 19:45:22.489440,-75
2021-09-22 19:45:22.489446,-60
2021-09-22 19:45:22.489452,58
2021-09-22 19:45:22.489458,85
2021-09-22 19:45:22.489464,53
2021-09-22 19:45:22.489470,80
2021-09-22 19:45:22.489475,107
2021-09-22 19:45:22.489482,104
2021-09-22 19:45:22.489487,116
2021-09-22 19:45:22.489493,131
2021-09-22 19:45:22.489499,133
2021-09-22 19:45:22.489505,141
2021-09-22 19:45:22.489511,153
2021-09-22 19:45:22.489516,167
2021-09-22 19:45:22.489522,182
2021-09-22 19:45:22.489529,197
2021-09-22 19:45:22.489535,216
2021-09-22 19:45:22.489541,248
2021-09-22 19:45:22.669285,282
2021-09-22 19:45:22.669305,311
2021-09-22 19:45:22.669312,330
2021-09-22 19:45:22.669319,343
2021-09-22 19:45:22.669325,345
2021-09-22 19:45:22.669331,343
2021-09-22 19:45:22.669337,333
2021-09-22 19:45:22.669343,299
2021-09-22 19:45:22.669349,240
2021-09-22 19:45:22.669355,158
2021-09-22 19:45:22.669361,51
2021-09-22 19:45:22.669367,-51
2021-09-22 19:45:22.669373,-126
2021-09-22 19:45:22.669379,-180
2021-09-22 19:45:22.669385,-228
2021-09-22 19:45:22.669391,-265
2021-09-22 19:45:22.669396,-279
2021-09-22 19:45:22.669402,-274
2021-09-22 19:45:22.669408,-270
2021-09-22 19:45:22.669414,-265
2021-09-22 19:45:22.669420,-257
2021-09-22 19:45:22.669426,-248
2021-09-22 19:45:22.669432,-236
2021-09-22 19:45:22.669438,-216
2021-09-22 19:45:22.669444,-199
2021-09-22 19:45:22.669450,-182
2021-09-22 19:45:22.669456,-172
2021-09-22 19:45:22.669462,-167
2021-09-22 19:45:22.669468,-160
2021-09-22 19:45:22.669474,-155
2021-09-22 19:45:22.984332,-153
2021-09-22 19:45:22.984352,-143
2021-09-22 19:45:22.984360,-138
2021-09-22 19:45:22.984366,-148
2021-09-22 19:45:22.984372,-148
2021-09-22 19:45:22.984378,-136
2021-09-22 19:45:22.984384,-128
2021-09-22 19:45:22.984390,-128
2021-09-22 19:45:22.984396,-133
2021-09-22 19:45:22.984402,-141
2021-09-22 19:45:22.984408,-138
2021-09-22 19:45:22.984414,-131
2021-09-22 19:45:22.984420,-131
2021-09-22 19:45:22.984426,-133
2021-09-22 19:45:22.984431,-131
2021-09-22 19:45:22.984437,-128
2021-09-22 19:45:22.984443,-124
2021-09-22 19:45:22.984449,-114
2021-09-22 19:45:22.984455,-107
2021-09-22 19:45:22.984461,-107
2021-09-22 19:45:22.984467,-107
2021-09-22 19:45:22.984473,-104
2021-09-22 19:45:22.984479,-94
2021-09-22 19:45:22.984485,-90
2021-09-22 19:45:22.984491,-92
2021-09-22 19:45:22.984496,-94
2021-09-22 19:45:22.984502,-94
2021-09-22 19:45:22.984508,-85
2021-09-22 19:45:22.984514,-58
2021-09-22 19:45:22.984520,-36
2021-09-22 19:45:23.164347,-34
2021-09-22 19:45:23.164367,-38
2021-09-22 19:45:23.164375,-29
2021-09-22 19:45:23.164381,-34
2021-09-22 19:45:23.164387,-51
2021-09-22 19:45:23.164394,-60
2021-09-22 19:45:23.164400,-63
2021-09-22 19:45:23.164406,-63
2021-09-22 19:45:23.164412,-68
2021-09-22 19:45:23.164417,-72
2021-09-22 19:45:23.164423,-68
2021-09-22 19:45:23.164429,-58
2021-09-22 19:45:23.164435,-55
2021-09-22 19:45:23.164441,-38
2021-09-22 19:45:23.164447,9
2021-09-22 19:45:23.164453,104
2021-09-22 19:45:23.164459,306
2021-09-22 19:45:23.164465,510
2021-09-22 19:45:23.164471,379
2021-09-22 19:45:23.164477,-53
2021-09-22 19:45:23.164483,-503
2021-09-22 19:45:23.164489,-739
2021-09-22 19:45:23.164495,-481
2021-09-22 19:45:23.164501,-97
2021-09-22 19:45:23.164507,-46
2021-09-22 19:45:23.164513,-24
2021-09-22 19:45:23.164518,92
2021-09-22 19:45:23.164524,97
2021-09-22 19:45:23.164530,72
2021-09-22 19:45:23.164536,107
2021-09-22 19:45:23.389337,124
2021-09-22 19:45:23.389358,121
2021-09-22 19:45:23.389365,133
2021-09-22 19:45:23.389372,148
2021-09-22 19:45:23.389377,150
2021-09-22 19:45:23.389383,150
2021-09-22 19:45:23.389389,165
2021-09-22 19:45:23.389396,180
2021-09-22 19:45:23.389401,184
2021-09-22 19:45:23.389407,199
2021-09-22 19:45:23.389413,226
2021-09-22 19:45:23.389419,253
2021-09-22 19:45:23.389425,277
2021-09-22 19:45:23.389431,304
2021-09-22 19:45:23.389437,326
2021-09-22 19:45:23.389443,345
2021-09-22 19:45:23.389449,355
2021-09-22 19:45:23.389455,350
2021-09-22 19:45:23.389460,338
2021-09-22 19:45:23.389466,306
2021-09-22 19:45:23.389472,248
2021-09-22 19:45:23.389478,165
2021-09-22 19:45:23.389484,65
2021-09-22 19:45:23.389489,-31
2021-09-22 19:45:23.389495,-114
2021-09-22 19:45:23.389501,-180
2021-09-22 19:45:23.389507,-226
2021-09-22 19:45:23.389513,-253
2021-09-22 19:45:23.389519,-267
2021-09-22 19:45:23.389525,-267
2021-09-22 19:45:23.614302,-260
2021-09-22 19:45:23.614323,-255
2021-09-22 19:45:23.614331,-250
2021-09-22 19:45:23.614337,-236
2021-09-22 19:45:23.614343,-221
2021-09-22 19:45:23.614349,-204
2021-09-22 19:45:23.614355,-194
2021-09-22 19:45:23.614361,-187
2021-09-22 19:45:23.614366,-175
2021-09-22 19:45:23.614372,-160
2021-09-22 19:45:23.614378,-148
2021-09-22 19:45:23.614384,-138
2021-09-22 19:45:23.614390,-133
2021-09-22 19:45:23.614396,-133
2021-09-22 19:45:23.614402,-124
2021-09-22 19:45:23.614408,-116
2021-09-22 19:45:23.614414,-114
2021-09-22 19:45:23.614420,-114
2021-09-22 19:45:23.614426,-114
2021-09-22 19:45:23.614432,-116
2021-09-22 19:45:23.614438,-114
2021-09-22 19:45:23.614444,-109
2021-09-22 19:45:23.614450,-104
2021-09-22 19:45:23.614455,-102
2021-09-22 19:45:23.614461,-104
2021-09-22 19:45:23.614467,-102
2021-09-22 19:45:23.614473,-97
2021-09-22 19:45:23.614479,-92
2021-09-22 19:45:23.614485,-87
2021-09-22 19:45:23.614491,-82
2021-09-22 19:45:23.882945,-82
2021-09-22 19:45:23.882965,-80
2021-09-22 19:45:23.882973,-75
2021-09-22 19:45:23.882979,-72
2021-09-22 19:45:23.882985,-68
2021-09-22 19:45:23.882991,-63
2021-09-22 19:45:23.882997,-70
2021-09-22 19:45:23.883003,-72
2021-09-22 19:45:23.883009,-65
2021-09-22 19:45:23.883015,-65
2021-09-22 19:45:23.883021,-72
2021-09-22 19:45:23.883027,-82
2021-09-22 19:45:23.883033,-92
2021-09-22 19:45:23.883039,-90
2021-09-22 19:45:23.883045,-72
2021-09-22 19:45:23.883050,-53
2021-09-22 19:45:23.883056,-34
2021-09-22 19:45:23.883062,-29
2021-09-22 19:45:23.883068,-24
2021-09-22 19:45:23.883074,-17
2021-09-22 19:45:23.883080,-29
2021-09-22 19:45:23.883086,-58
2021-09-22 19:45:23.883091,-65
2021-09-22 19:45:23.883097,-58
2021-09-22 19:45:23.883103,-55
2021-09-22 19:45:23.883109,-53
2021-09-22 19:45:23.883115,-51
2021-09-22 19:45:23.883121,-48
2021-09-22 19:45:23.883126,-43
2021-09-22 19:45:23.883132,-38
2021-09-22 19:45:24.064345,-21
2021-09-22 19:45:24.064365,34
2021-09-22 19:45:24.064372,150
2021-09-22 19:45:24.064378,374
2021-09-22 19:45:24.064385,559
2021-09-22 19:45:24.064391,372
2021-09-22 19:45:24.064397,-114
2021-09-22 19:45:24.064403,-566
2021-09-22 19:45:24.064408,-695
2021-09-22 19:45:24.064414,-355
2021-09-22 19:45:24.064420,-46
2021-09-22 19:45:24.064427,-41
2021-09-22 19:45:24.064433,7
2021-09-22 19:45:24.064438,109
2021-09-22 19:45:24.064444,94
2021-09-22 19:45:24.064450,80
2021-09-22 19:45:24.064456,119
2021-09-22 19:45:24.064462,128
2021-09-22 19:45:24.064468,126
2021-09-22 19:45:24.064474,145
2021-09-22 19:45:24.064480,160
2021-09-22 19:45:24.064485,163
2021-09-22 19:45:24.064491,170
2021-09-22 19:45:24.064497,184
2021-09-22 19:45:24.064503,197
2021-09-22 19:45:24.064509,211
2021-09-22 19:45:24.064515,228
2021-09-22 19:45:24.064521,243
2021-09-22 19:45:24.064527,265
2021-09-22 19:45:24.064532,296
2021-09-22 19:45:24.289356,326
2021-09-22 19:45:24.289377,350
2021-09-22 19:45:24.289384,369
2021-09-22 19:45:24.289391,377
2021-09-22 19:45:24.289397,364
2021-09-22 19:45:24.289403,343
2021-09-22 19:45:24.289409,311
2021-09-22 19:45:24.289415,260
2021-09-22 19:45:24.289421,180
2021-09-22 19:45:24.289426,75
2021-09-22 19:45:24.289433,-24
2021-09-22 19:45:24.289439,-109
2021-09-22 19:45:24.289444,-167
2021-09-22 19:45:24.289450,-209
2021-09-22 19:45:24.289456,-238
2021-09-22 19:45:24.289462,-257
2021-09-22 19:45:24.289468,-272
2021-09-22 19:45:24.289474,-267
2021-09-22 19:45:24.289480,-250
2021-09-22 19:45:24.289486,-236
2021-09-22 19:45:24.289492,-223
2021-09-22 19:45:24.289498,-209
2021-09-22 19:45:24.289504,-194
2021-09-22 19:45:24.289510,-182
2021-09-22 19:45:24.289516,-170
2021-09-22 19:45:24.289521,-163
2021-09-22 19:45:24.289527,-150
2021-09-22 19:45:24.289533,-141
2021-09-22 19:45:24.289539,-133
2021-09-22 19:45:24.289545,-126
2021-09-22 19:45:24.514265,-119
2021-09-22 19:45:24.514285,-111
2021-09-22 19:45:24.514292,-111
2021-09-22 19:45:24.514298,-116
2021-09-22 19:45:24.514304,-119
2021-09-22 19:45:24.514310,-119
2021-09-22 19:45:24.514316,-111
2021-09-22 19:45:24.514323,-107
2021-09-22 19:45:24.514329,-107
2021-09-22 19:45:24.514334,-111
2021-09-22 19:45:24.514340,-116
2021-09-22 19:45:24.514346,-109
2021-09-22 19:45:24.514352,-102
2021-09-22 19:45:24.514358,-99
2021-09-22 19:45:24.514364,-94
2021-09-22 19:45:24.514370,-92
2021-09-22 19:45:24.514376,-92
2021-09-22 19:45:24.514382,-85
2021-09-22 19:45:24.514388,-77
2021-09-22 19:45:24.514394,-72
2021-09-22 19:45:24.514400,-68
2021-09-22 19:45:24.514406,-65
2021-09-22 19:45:24.514411,-68
2021-09-22 19:45:24.514417,-60
2021-09-22 19:45:24.514423,-53
2021-09-22 19:45:24.514429,-51
2021-09-22 19:45:24.514435,-48
2021-09-22 19:45:24.514441,-53
2021-09-22 19:45:24.514447,-53
2021-09-22 19:45:24.514452,-41
2021-09-22 19:45:24.784490,-36
2021-09-22 19:45:24.784541,-38
2021-09-22 19:45:24.784548,-48
2021-09-22 19:45:24.784554,-55
2021-09-22 19:45:24.784560,-51
2021-09-22 19:45:24.784566,-24
2021-09-22 19:45:24.784572,-2
2021-09-22 19:45:24.784578,0
2021-09-22 19:45:24.784584,0
2021-09-22 19:45:24.784590,2
2021-09-22 19:45:24.784596,-12
2021-09-22 19:45:24.784602,-31
2021-09-22 19:45:24.784608,-36
2021-09-22 19:45:24.784614,-34
2021-09-22 19:45:24.784620,-34
2021-09-22 19:45:24.784625,-36
2021-09-22 19:45:24.784631,-34
2021-09-22 19:45:24.784637,-29
2021-09-22 19:45:24.784643,-26
2021-09-22 19:45:24.784649,-24
2021-09-22 19:45:24.784655,-14
2021-09-22 19:45:24.784660,14
2021-09-22 19:45:24.784666,102
2021-09-22 19:45:24.784672,304
2021-09-22 19:45:24.784678,532
2021-09-22 19:45:24.784684,459
2021-09-22 19:45:24.784690,14
2021-09-22 19:45:24.784696,-489
2021-09-22 19:45:24.784702,-710
2021-09-22 19:45:24.784707,-452
2021-09-22 19:45:25.009288,-99
2021-09-22 19:45:25.009307,-38
2021-09-22 19:45:25.009314,-7
2021-09-22 19:45:25.009321,92
2021-09-22 19:45:25.009327,97
2021-09-22 19:45:25.009333,77
2021-09-22 19:45:25.009339,111
2021-09-22 19:45:25.009345,124
2021-09-22 19:45:25.009351,111
2021-09-22 19:45:25.009357,116
2021-09-22 19:45:25.009363,131
2021-09-22 19:45:25.009368,143
2021-09-22 19:45:25.009374,155
2021-09-22 19:45:25.009380,170
2021-09-22 19:45:25.009386,175
2021-09-22 19:45:25.009392,184
2021-09-22 19:45:25.009398,209
2021-09-22 19:45:25.009404,236
2021-09-22 19:45:25.009410,260
2021-09-22 19:45:25.009416,287
2021-09-22 19:45:25.009422,313
2021-09-22 19:45:25.009428,333
2021-09-22 19:45:25.009434,352
2021-09-22 19:45:25.009439,364
2021-09-22 19:45:25.009445,364
2021-09-22 19:45:25.009451,350
2021-09-22 19:45:25.009457,321
2021-09-22 19:45:25.009463,272
2021-09-22 19:45:25.009469,204
2021-09-22 19:45:25.009475,116
2021-09-22 19:45:25.278708,19
2021-09-22 19:45:25.278729,-70
2021-09-22 19:45:25.278736,-141
2021-09-22 19:45:25.278742,-189
2021-09-22 19:45:25.278749,-214
2021-09-22 19:45:25.278755,-231
2021-09-22 19:45:25.278761,-233
2021-09-22 19:45:25.278766,-233
2021-09-22 19:45:25.278772,-233
2021-09-22 19:45:25.278778,-221
2021-09-22 19:45:25.278784,-201
2021-09-22 19:45:25.278790,-184
2021-09-22 19:45:25.278796,-172
2021-09-22 19:45:25.278802,-163
2021-09-22 19:45:25.278808,-155
2021-09-22 19:45:25.278813,-143
2021-09-22 19:45:25.278819,-128
2021-09-22 19:45:25.278826,-119
2021-09-22 19:45:25.278831,-111
2021-09-22 19:45:25.278837,-107
2021-09-22 19:45:25.278843,-104
2021-09-22 19:45:25.278849,-102
2021-09-22 19:45:25.278855,-99
2021-09-22 19:45:25.278860,-97
2021-09-22 19:45:25.278866,-97
2021-09-22 19:45:25.278872,-97
2021-09-22 19:45:25.278878,-99
2021-09-22 19:45:25.278884,-104
2021-09-22 19:45:25.278889,-109
2021-09-22 19:45:25.278895,-104
2021-09-22 19:45:25.459401,-97
2021-09-22 19:45:25.459422,-99
2021-09-22 19:45:25.459429,-99
2021-09-22 19:45:25.459435,-102
2021-09-22 19:45:25.459441,-107
2021-09-22 19:45:25.459447,-99
2021-09-22 19:45:25.459453,-94
2021-09-22 19:45:25.459459,-99
2021-09-22 19:45:25.459465,-99
2021-09-22 19:45:25.459471,-90
2021-09-22 19:45:25.459477,-85
2021-09-22 19:45:25.459483,-82
2021-09-22 19:45:25.459489,-80
2021-09-22 19:45:25.459495,-82
2021-09-22 19:45:25.459501,-80
2021-09-22 19:45:25.459507,-72
2021-09-22 19:45:25.459513,-68
2021-09-22 19:45:25.459519,-65
2021-09-22 19:45:25.459524,-63
2021-09-22 19:45:25.459530,-60
2021-09-22 19:45:25.459536,-63
2021-09-22 19:45:25.459541,-65
2021-09-22 19:45:25.459547,-60
2021-09-22 19:45:25.459553,-46
2021-09-22 19:45:25.459559,-26
2021-09-22 19:45:25.459564,-9
2021-09-22 19:45:25.459570,-7
2021-09-22 19:45:25.459576,-2
2021-09-22 19:45:25.459582,2
2021-09-22 19:45:25.459588,-12
2021-09-22 19:45:25.684381,-38
2021-09-22 19:45:25.684403,-48
2021-09-22 19:45:25.684410,-46
2021-09-22 19:45:25.684417,-43
2021-09-22 19:45:25.684423,-46
2021-09-22 19:45:25.684429,-51
2021-09-22 19:45:25.684435,-60
2021-09-22 19:45:25.684441,-60
2021-09-22 19:45:25.684447,-53
2021-09-22 19:45:25.684453,-38
2021-09-22 19:45:25.684459,4
2021-09-22 19:45:25.684465,107
2021-09-22 19:45:25.684471,313
2021-09-22 19:45:25.684477,515
2021-09-22 19:45:25.684482,377
2021-09-22 19:45:25.684488,-121
2021-09-22 19:45:25.684494,-608
2021-09-22 19:45:25.684500,-725
2021-09-22 19:45:25.684506,-391
2021-09-22 19:45:25.684512,-90
2021-09-22 19:45:25.684517,-60
2021-09-22 19:45:25.684523,-2
2021-09-22 19:45:25.684529,94
2021-09-22 19:45:25.684535,85
2021-09-22 19:45:25.684541,75
2021-09-22 19:45:25.684547,111
2021-09-22 19:45:25.684553,124
2021-09-22 19:45:25.684558,124
2021-09-22 19:45:25.684564,141
2021-09-22 19:45:25.684570,153
2021-09-22 19:45:25.953044,160
2021-09-22 19:45:25.953065,172
2021-09-22 19:45:25.953072,189
2021-09-22 19:45:25.953078,192
2021-09-22 19:45:25.953084,199
2021-09-22 19:45:25.953091,218
2021-09-22 19:45:25.953097,236
2021-09-22 19:45:25.953103,255
2021-09-22 19:45:25.953109,282
2021-09-22 19:45:25.953115,306
2021-09-22 19:45:25.953121,330
2021-09-22 19:45:25.953127,345
2021-09-22 19:45:25.953133,343
2021-09-22 19:45:25.953139,340
2021-09-22 19:45:25.953145,328
2021-09-22 19:45:25.953151,296
2021-09-22 19:45:25.953157,245
2021-09-22 19:45:25.953163,172
2021-09-22 19:45:25.953169,80
2021-09-22 19:45:25.953175,-9
2021-09-22 19:45:25.953181,-82
2021-09-22 19:45:25.953187,-148
2021-09-22 19:45:25.953193,-192
2021-09-22 19:45:25.953199,-216
2021-09-22 19:45:25.953205,-228
2021-09-22 19:45:25.953211,-231
2021-09-22 19:45:25.953217,-226
2021-09-22 19:45:25.953223,-214
2021-09-22 19:45:25.953229,-201
2021-09-22 19:45:25.953235,-189
2021-09-22 19:45:26.134373,-175
2021-09-22 19:45:26.134394,-158
2021-09-22 19:45:26.134402,-143
2021-09-22 19:45:26.134408,-133
2021-09-22 19:45:26.134414,-126
2021-09-22 19:45:26.134420,-121
2021-09-22 19:45:26.134426,-116
2021-09-22 19:45:26.134433,-104
2021-09-22 19:45:26.134439,-102
2021-09-22 19:45:26.134444,-107
2021-09-22 19:45:26.134451,-114
2021-09-22 19:45:26.134457,-114
2021-09-22 19:45:26.134462,-109
2021-09-22 19:45:26.134468,-104
2021-09-22 19:45:26.134474,-104
2021-09-22 19:45:26.134480,-102
2021-09-22 19:45:26.134486,-102
2021-09-22 19:45:26.134492,-99
2021-09-22 19:45:26.134498,-94
2021-09-22 19:45:26.134503,-90
2021-09-22 19:45:26.134509,-85
2021-09-22 19:45:26.134515,-85
2021-09-22 19:45:26.134521,-85
2021-09-22 19:45:26.134527,-82
2021-09-22 19:45:26.134532,-75
2021-09-22 19:45:26.134538,-68
2021-09-22 19:45:26.134544,-68
2021-09-22 19:45:26.134550,-65
2021-09-22 19:45:26.134555,-63
2021-09-22 19:45:26.134561,-60
2021-09-22 19:45:26.359371,-53
2021-09-22 19:45:26.359392,-46
2021-09-22 19:45:26.359399,-43
2021-09-22 19:45:26.359405,-43
2021-09-22 19:45:26.359411,-51
2021-09-22 19:45:26.359417,-51
2021-09-22 19:45:26.359423,-41
2021-09-22 19:45:26.359429,-38
2021-09-22 19:45:26.359436,-53
2021-09-22 19:45:26.359441,-70
2021-09-22 19:45:26.359447,-80
2021-09-22 19:45:26.359453,-82
2021-09-22 19:45:26.359459,-75
2021-09-22 19:45:26.359465,-53
2021-09-22 19:45:26.359471,-31
2021-09-22 19:45:26.359477,-34
2021-09-22 19:45:26.359483,-31
2021-09-22 19:45:26.359489,-19
2021-09-22 19:45:26.359495,-31
2021-09-22 19:45:26.359501,-58
2021-09-22 19:45:26.359507,-65
2021-09-22 19:45:26.359513,-68
2021-09-22 19:45:26.359518,-72
2021-09-22 19:45:26.359524,-70
2021-09-22 19:45:26.359530,-63
2021-09-22 19:45:26.359535,-63
2021-09-22 19:45:26.359541,-60
2021-09-22 19:45:26.359547,-58
2021-09-22 19:45:26.359553,-41
2021-09-22 19:45:26.359559,12
2021-09-22 19:45:26.674482,126
2021-09-22 19:45:26.674505,347
2021-09-22 19:45:26.674512,545
2021-09-22 19:45:26.674518,369
2021-09-22 19:45:26.674524,-160
2021-09-22 19:45:26.674530,-630
2021-09-22 19:45:26.674536,-691
2021-09-22 19:45:26.674542,-340
2021-09-22 19:45:26.674548,-70
2021-09-22 19:45:26.674553,-58
2021-09-22 19:45:26.674559,9
2021-09-22 19:45:26.674565,104
2021-09-22 19:45:26.674571,92
2021-09-22 19:45:26.674577,82
2021-09-22 19:45:26.674583,111
2021-09-22 19:45:26.674588,116
2021-09-22 19:45:26.674594,116
2021-09-22 19:45:26.674600,138
2021-09-22 19:45:26.674606,153
2021-09-22 19:45:26.674641,160
2021-09-22 19:45:26.674646,175
2021-09-22 19:45:26.674652,187
2021-09-22 19:45:26.674658,199
2021-09-22 19:45:26.674664,223
2021-09-22 19:45:26.674670,245
2021-09-22 19:45:26.674675,267
2021-09-22 19:45:26.674681,291
2021-09-22 19:45:26.674687,316
2021-09-22 19:45:26.674693,343
2021-09-22 19:45:26.674698,369
2021-09-22 19:45:26.854495,386
2021-09-22 19:45:26.854545,391
2021-09-22 19:45:26.854553,379
2021-09-22 19:45:26.854559,352
2021-09-22 19:45:26.854565,323
2021-09-22 19:45:26.854571,279
2021-09-22 19:45:26.854578,204
2021-09-22 19:45:26.854584,109
2021-09-22 19:45:26.854591,14
2021-09-22 19:45:26.854597,-72
2021-09-22 19:45:26.854603,-131
2021-09-22 19:45:26.854609,-165
2021-09-22 19:45:26.854615,-194
2021-09-22 19:45:26.854621,-209
2021-09-22 19:45:26.854627,-216
2021-09-22 19:45:26.854633,-228
2021-09-22 19:45:26.854638,-226
2021-09-22 19:45:26.854644,-204
2021-09-22 19:45:26.854650,-187
2021-09-22 19:45:26.854656,-175
2021-09-22 19:45:26.854661,-165
2021-09-22 19:45:26.854667,-160
2021-09-22 19:45:26.854673,-148
2021-09-22 19:45:26.854679,-133
2021-09-22 19:45:26.854684,-124
2021-09-22 19:45:26.854690,-116
2021-09-22 19:45:26.854696,-114
2021-09-22 19:45:26.854702,-114
2021-09-22 19:45:26.854708,-104
2021-09-22 19:45:26.854713,-94
2021-09-22 19:45:27.123736,-92
2021-09-22 19:45:27.123758,-92
2021-09-22 19:45:27.123765,-92
2021-09-22 19:45:27.123772,-94
2021-09-22 19:45:27.123778,-90
2021-09-22 19:45:27.123784,-82
2021-09-22 19:45:27.123790,-80
2021-09-22 19:45:27.123796,-82
2021-09-22 19:45:27.123802,-90
2021-09-22 19:45:27.123808,-90
2021-09-22 19:45:27.123813,-85
2021-09-22 19:45:27.123819,-80
2021-09-22 19:45:27.123825,-80
2021-09-22 19:45:27.123831,-77
2021-09-22 19:45:27.123837,-85
2021-09-22 19:45:27.123842,-82
2021-09-22 19:45:27.123848,-70
2021-09-22 19:45:27.123854,-68
2021-09-22 19:45:27.123860,-82
2021-09-22 19:45:27.123866,-87
2021-09-22 19:45:27.123872,-77
2021-09-22 19:45:27.123878,-77
2021-09-22 19:45:27.123883,-85
2021-09-22 19:45:27.123889,-75
2021-09-22 19:45:27.123895,-58
2021-09-22 19:45:27.123901,-60
2021-09-22 19:45:27.123907,-70
2021-09-22 19:45:27.123913,-72
2021-09-22 19:45:27.123919,-68
2021-09-22 19:45:27.123925,-53
2021-09-22 19:45:27.304311,-36
2021-09-22 19:45:27.304330,-24
2021-09-22 19:45:27.304337,-26
2021-09-22 19:45:27.304343,-29
2021-09-22 19:45:27.304349,-26
2021-09-22 19:45:27.304355,-38
2021-09-22 19:45:27.304361,-58
2021-09-22 19:45:27.304367,-68
2021-09-22 19:45:27.304373,-68
2021-09-22 19:45:27.304379,-65
2021-09-22 19:45:27.304385,-63
2021-09-22 19:45:27.304391,-60
2021-09-22 19:45:27.304397,-58
2021-09-22 19:45:27.304402,-60
2021-09-22 19:45:27.304408,-58
2021-09-22 19:45:27.304414,-34
2021-09-22 19:45:27.304420,21
2021-09-22 19:45:27.304426,148
2021-09-22 19:45:27.304431,382
2021-09-22 19:45:27.304437,545
2021-09-22 19:45:27.304443,294
2021-09-22 19:45:27.304449,-284
2021-09-22 19:45:27.304454,-720
2021-09-22 19:45:27.304460,-678
2021-09-22 19:45:27.304466,-301
2021-09-22 19:45:27.304472,-87
2021-09-22 19:45:27.304478,-68
2021-09-22 19:45:27.304483,26
2021-09-22 19:45:27.304489,104
2021-09-22 19:45:27.304495,82
2021-09-22 19:45:27.529350,90
2021-09-22 19:45:27.529371,124
2021-09-22 19:45:27.529378,126
2021-09-22 19:45:27.529385,128
2021-09-22 19:45:27.529391,148
2021-09-22 19:45:27.529397,163
2021-09-22 19:45:27.529403,165
2021-09-22 19:45:27.529408,172
2021-09-22 19:45:27.529414,189
2021-09-22 19:45:27.529420,206
2021-09-22 19:45:27.529426,221
2021-09-22 19:45:27.529432,240
2021-09-22 19:45:27.529437,260
2021-09-22 19:45:27.529443,279
2021-09-22 19:45:27.529449,309
2021-09-22 19:45:27.529455,333
2021-09-22 19:45:27.529461,347
2021-09-22 19:45:27.529467,360
2021-09-22 19:45:27.529473,360
2021-09-22 19:45:27.529479,350
2021-09-22 19:45:27.529485,330
2021-09-22 19:45:27.529491,291
2021-09-22 19:45:27.529496,228
2021-09-22 19:45:27.529502,150
2021-09-22 19:45:27.529508,60
2021-09-22 19:45:27.529514,-24
2021-09-22 19:45:27.529520,-92
2021-09-22 19:45:27.529525,-148
2021-09-22 19:45:27.529531,-187
2021-09-22 19:45:27.529537,-209
2021-09-22 19:45:27.754280,-218
2021-09-22 19:45:27.754300,-218
2021-09-22 19:45:27.754307,-211
2021-09-22 19:45:27.754314,-201
2021-09-22 19:45:27.754320,-187
2021-09-22 19:45:27.754326,-177
2021-09-22 19:45:27.754332,-172
2021-09-22 19:45:27.754338,-155
2021-09-22 19:45:27.754344,-141
2021-09-22 19:45:27.754350,-136
2021-09-22 19:45:27.754356,-126
2021-09-22 19:45:27.754361,-121
2021-09-22 19:45:27.754367,-124
2021-09-22 19:45:27.754373,-119
2021-09-22 19:45:27.754379,-109
2021-09-22 19:45:27.754385,-107
2021-09-22 19:45:27.754391,-107
2021-09-22 19:45:27.754397,-104
2021-09-22 19:45:27.754403,-104
2021-09-22 19:45:27.754408,-102
2021-09-22 19:45:27.754414,-99
2021-09-22 19:45:27.754420,-99
2021-09-22 19:45:27.754426,-97
2021-09-22 19:45:27.754432,-97
2021-09-22 19:45:27.754438,-99
2021-09-22 19:45:27.754444,-102
2021-09-22 19:45:27.754450,-109
2021-09-22 19:45:27.754456,-114
2021-09-22 19:45:27.754461,-109
2021-09-22 19:45:27.754467,-102
2021-09-22 19:45:28.068056,-102
2021-09-22 19:45:28.068076,-97
2021-09-22 19:45:28.068084,-90
2021-09-22 19:45:28.068090,-87
2021-09-22 19:45:28.068096,-87
2021-09-22 19:45:28.068102,-87
2021-09-22 19:45:28.068108,-87
2021-09-22 19:45:28.068114,-87
2021-09-22 19:45:28.068120,-85
2021-09-22 19:45:28.068126,-82
2021-09-22 19:45:28.068132,-82
2021-09-22 19:45:28.068137,-94
2021-09-22 19:45:28.068143,-97
2021-09-22 19:45:28.068149,-82
2021-09-22 19:45:28.068155,-65
2021-09-22 19:45:28.068161,-46
2021-09-22 19:45:28.068167,-36
2021-09-22 19:45:28.068173,-41
2021-09-22 19:45:28.068178,-36
2021-09-22 19:45:28.068184,-36
2021-09-22 19:45:28.068190,-63
2021-09-22 19:45:28.068196,-82
2021-09-22 19:45:28.068202,-80
2021-09-22 19:45:28.068207,-75
2021-09-22 19:45:28.068213,-75
2021-09-22 19:45:28.068219,-72
2021-09-22 19:45:28.068225,-77
2021-09-22 19:45:28.068231,-80
2021-09-22 19:45:28.068237,-75
2021-09-22 19:45:28.068242,-65
2021-09-22 19:45:28.249411,-26
2021-09-22 19:45:28.249432,65
2021-09-22 19:45:28.249440,262
2021-09-22 19:45:28.249446,513
2021-09-22 19:45:28.249452,496
2021-09-22 19:45:28.249458,41
2021-09-22 19:45:28.249464,-523
2021-09-22 19:45:28.249470,-749
2021-09-22 19:45:28.249476,-472
2021-09-22 19:45:28.249482,-126
2021-09-22 19:45:28.249488,-58
2021-09-22 19:45:28.249494,-19
2021-09-22 19:45:28.249500,85
2021-09-22 19:45:28.249505,97
2021-09-22 19:45:28.249511,77
2021-09-22 19:45:28.249517,107
2021-09-22 19:45:28.249523,119
2021-09-22 19:45:28.249529,116
2021-09-22 19:45:28.249535,133
2021-09-22 19:45:28.249541,150
2021-09-22 19:45:28.249546,158
2021-09-22 19:45:28.249552,167
2021-09-22 19:45:28.249558,182
2021-09-22 19:45:28.249564,199
2021-09-22 19:45:28.249570,221
2021-09-22 19:45:28.249576,243
2021-09-22 19:45:28.249581,262
2021-09-22 19:45:28.249588,282
2021-09-22 19:45:28.249593,301
2021-09-22 19:45:28.249599,328
2021-09-22 19:45:28.429329,357
2021-09-22 19:45:28.429350,369
2021-09-22 19:45:28.429357,362
2021-09-22 19:45:28.429364,343
2021-09-22 19:45:28.429370,323
2021-09-22 19:45:28.429376,299
2021-09-22 19:45:28.429381,253
2021-09-22 19:45:28.429387,184
2021-09-22 19:45:28.429393,94
2021-09-22 19:45:28.429399,-4
2021-09-22 19:45:28.429405,-87
2021-09-22 19:45:28.429411,-145
2021-09-22 19:45:28.429417,-187
2021-09-22 19:45:28.429423,-218
2021-09-22 19:45:28.429429,-236
2021-09-22 19:45:28.429435,-248
2021-09-22 19:45:28.429440,-250
2021-09-22 19:45:28.429446,-233
2021-09-22 19:45:28.429452,-216
2021-09-22 19:45:28.429457,-204
2021-09-22 19:45:28.429463,-192
2021-09-22 19:45:28.429469,-180
2021-09-22 19:45:28.429475,-165
2021-09-22 19:45:28.429481,-148
2021-09-22 19:45:28.429486,-133
2021-09-22 19:45:28.429492,-126
2021-09-22 19:45:28.429498,-124
2021-09-22 19:45:28.429504,-121
2021-09-22 19:45:28.429510,-114
2021-09-22 19:45:28.429516,-109
2021-09-22 19:45:28.789380,-111
2021-09-22 19:45:28.789400,-111
2021-09-22 19:45:28.789407,-114
2021-09-22 19:45:28.789413,-121
2021-09-22 19:45:28.789420,-121
2021-09-22 19:45:28.789426,-114
2021-09-22 19:45:28.789432,-111
2021-09-22 19:45:28.789438,-109
2021-09-22 19:45:28.789443,-109
2021-09-22 19:45:28.789449,-116
2021-09-22 19:45:28.789455,-114
2021-09-22 19:45:28.789461,-104
2021-09-22 19:45:28.789467,-99
2021-09-22 19:45:28.789473,-99
2021-09-22 19:45:28.789479,-97
2021-09-22 19:45:28.789484,-99
2021-09-22 19:45:28.789490,-97
2021-09-22 19:45:28.789496,-87
2021-09-22 19:45:28.789502,-82
2021-09-22 19:45:28.789508,-80
2021-09-22 19:45:28.789514,-77
2021-09-22 19:45:28.789520,-77
2021-09-22 19:45:28.789526,-72
2021-09-22 19:45:28.789532,-65
2021-09-22 19:45:28.789538,-63
2021-09-22 19:45:28.789543,-65
2021-09-22 19:45:28.789549,-72
2021-09-22 19:45:28.789555,-75
2021-09-22 19:45:28.789561,-58
2021-09-22 19:45:28.789566,-31
2021-09-22 19:45:28.924363,-19
2021-09-22 19:45:28.924383,-21
2021-09-22 19:45:28.924390,-19
2021-09-22 19:45:28.924396,-31
2021-09-22 19:45:28.924402,-53
2021-09-22 19:45:28.924408,-55
2021-09-22 19:45:28.924414,-53
2021-09-22 19:45:28.924420,-58
2021-09-22 19:45:28.924426,-72
2021-09-22 19:45:28.924431,-82
2021-09-22 19:45:28.924437,-80
2021-09-22 19:45:28.924443,-77
2021-09-22 19:45:28.924449,-75
2021-09-22 19:45:28.924455,-63
2021-09-22 19:45:28.924461,-26
2021-09-22 19:45:28.924467,77
2021-09-22 19:45:28.924473,309
2021-09-22 19:45:28.924479,535
2021-09-22 19:45:28.924484,399
2021-09-22 19:45:28.924490,-133
2021-09-22 19:45:28.924496,-649
2021-09-22 19:45:28.924502,-737
2021-09-22 19:45:28.924508,-382
2021-09-22 19:45:28.924514,-97
2021-09-22 19:45:28.924519,-68
2021-09-22 19:45:28.924525,-2
2021-09-22 19:45:28.924531,80
2021-09-22 19:45:28.924537,65
2021-09-22 19:45:28.924542,65
2021-09-22 19:45:28.924548,107
2021-09-22 19:45:29.194438,116
2021-09-22 19:45:29.194459,114
2021-09-22 19:45:29.194466,128
2021-09-22 19:45:29.194472,138
2021-09-22 19:45:29.194478,141
2021-09-22 19:45:29.194485,155
2021-09-22 19:45:29.194491,175
2021-09-22 19:45:29.194497,182
2021-09-22 19:45:29.194503,192
2021-09-22 19:45:29.194509,216
2021-09-22 19:45:29.194515,243
2021-09-22 19:45:29.194521,270
2021-09-22 19:45:29.194527,296
2021-09-22 19:45:29.194532,313
2021-09-22 19:45:29.194538,328
2021-09-22 19:45:29.194544,343
2021-09-22 19:45:29.194550,350
2021-09-22 19:45:29.194556,343
2021-09-22 19:45:29.194561,326
2021-09-22 19:45:29.194567,291
2021-09-22 19:45:29.194573,238
2021-09-22 19:45:29.194579,163
2021-09-22 19:45:29.194585,72
2021-09-22 19:45:29.194590,-14
2021-09-22 19:45:29.194596,-90
2021-09-22 19:45:29.194602,-150
2021-09-22 19:45:29.194608,-192
2021-09-22 19:45:29.194614,-216
2021-09-22 19:45:29.194620,-226
2021-09-22 19:45:29.194626,-226
2021-09-22 19:45:29.374420,-221
2021-09-22 19:45:29.374440,-214
2021-09-22 19:45:29.374448,-201
2021-09-22 19:45:29.374454,-187
2021-09-22 19:45:29.374460,-172
2021-09-22 19:45:29.374466,-160
2021-09-22 19:45:29.374472,-153
2021-09-22 19:45:29.374478,-145
2021-09-22 19:45:29.374484,-133
2021-09-22 19:45:29.374489,-124
2021-09-22 19:45:29.374495,-116
2021-09-22 19:45:29.374502,-109
2021-09-22 19:45:29.374507,-109
2021-09-22 19:45:29.374513,-119
2021-09-22 19:45:29.374519,-126
2021-09-22 19:45:29.374525,-126
2021-09-22 19:45:29.374531,-121
2021-09-22 19:45:29.374536,-119
2021-09-22 19:45:29.374542,-121
2021-09-22 19:45:29.374548,-124
2021-09-22 19:45:29.374554,-121
2021-09-22 19:45:29.374560,-116
2021-09-22 19:45:29.374565,-114
2021-09-22 19:45:29.374571,-109
2021-09-22 19:45:29.374577,-107
2021-09-22 19:45:29.374583,-104
2021-09-22 19:45:29.374588,-99
2021-09-22 19:45:29.374594,-97
2021-09-22 19:45:29.374600,-94
2021-09-22 19:45:29.374606,-87
2021-09-22 19:45:29.599304,-87
2021-09-22 19:45:29.599323,-85
2021-09-22 19:45:29.599331,-77
2021-09-22 19:45:29.599337,-72
2021-09-22 19:45:29.599343,-68
2021-09-22 19:45:29.599348,-68
2021-09-22 19:45:29.599354,-70
2021-09-22 19:45:29.599360,-75
2021-09-22 19:45:29.599366,-80
2021-09-22 19:45:29.599372,-90
2021-09-22 19:45:29.599378,-77
2021-09-22 19:45:29.599384,-60
2021-09-22 19:45:29.599389,-48
2021-09-22 19:45:29.599395,-38
2021-09-22 19:45:29.599401,-31
2021-09-22 19:45:29.599407,-29
2021-09-22 19:45:29.599413,-41
2021-09-22 19:45:29.599418,-65
2021-09-22 19:45:29.599424,-72
2021-09-22 19:45:29.599430,-68
2021-09-22 19:45:29.599436,-68
2021-09-22 19:45:29.599441,-68
2021-09-22 19:45:29.599447,-65
2021-09-22 19:45:29.599453,-63
2021-09-22 19:45:29.599459,-63
2021-09-22 19:45:29.599464,-55
2021-09-22 19:45:29.599470,-46
2021-09-22 19:45:29.599476,-7
2021-09-22 19:45:29.599482,97
2021-09-22 19:45:29.599488,313
2021-09-22 19:45:29.913742,535
2021-09-22 19:45:29.913763,411
2021-09-22 19:45:29.913770,-114
2021-09-22 19:45:29.913776,-637
2021-09-22 19:45:29.913782,-739
2021-09-22 19:45:29.913788,-396
2021-09-22 19:45:29.913794,-109
2021-09-22 19:45:29.913800,-72
2021-09-22 19:45:29.913806,-2
2021-09-22 19:45:29.913812,82
2021-09-22 19:45:29.913818,63
2021-09-22 19:45:29.913824,48
2021-09-22 19:45:29.913830,85
2021-09-22 19:45:29.913836,102
2021-09-22 19:45:29.913842,102
2021-09-22 19:45:29.913848,119
2021-09-22 19:45:29.913854,133
2021-09-22 19:45:29.913860,141
2021-09-22 19:45:29.913866,155
2021-09-22 19:45:29.913872,167
2021-09-22 19:45:29.913878,172
2021-09-22 19:45:29.913884,184
2021-09-22 19:45:29.913890,211
2021-09-22 19:45:29.913896,236
2021-09-22 19:45:29.913901,260
2021-09-22 19:45:29.913907,291
2021-09-22 19:45:29.913913,318
2021-09-22 19:45:29.913919,338
2021-09-22 19:45:29.913924,352
2021-09-22 19:45:29.913930,355
2021-09-22 19:45:30.093131,350
2021-09-22 19:45:30.093153,335
2021-09-22 19:45:30.093160,301
2021-09-22 19:45:30.093166,243
2021-09-22 19:45:30.093172,163
2021-09-22 19:45:30.093178,63
2021-09-22 19:45:30.093184,-26
2021-09-22 19:45:30.093190,-92
2021-09-22 19:45:30.093196,-153
2021-09-22 19:45:30.093202,-201
2021-09-22 19:45:30.093208,-231
2021-09-22 19:45:30.093214,-245
2021-09-22 19:45:30.093220,-253
2021-09-22 19:45:30.093225,-245
2021-09-22 19:45:30.093232,-233
2021-09-22 19:45:30.093238,-218
2021-09-22 19:45:30.093244,-209
2021-09-22 19:45:30.093250,-189
2021-09-22 19:45:30.093255,-170
2021-09-22 19:45:30.093261,-160
2021-09-22 19:45:30.093267,-148
2021-09-22 19:45:30.093273,-141
2021-09-22 19:45:30.093279,-136
2021-09-22 19:45:30.093284,-128
2021-09-22 19:45:30.093290,-116
2021-09-22 19:45:30.093296,-111
2021-09-22 19:45:30.093302,-109
2021-09-22 19:45:30.093308,-107
2021-09-22 19:45:30.093314,-107
2021-09-22 19:45:30.093320,-104
2021-09-22 19:45:30.274353,-99
2021-09-22 19:45:30.274372,-94
2021-09-22 19:45:30.274379,-97
2021-09-22 19:45:30.274385,-102
2021-09-22 19:45:30.274391,-107
2021-09-22 19:45:30.274397,-102
2021-09-22 19:45:30.274403,-94
2021-09-22 19:45:30.274410,-92
2021-09-22 19:45:30.274416,-92
2021-09-22 19:45:30.274422,-97
2021-09-22 19:45:30.274428,-102
2021-09-22 19:45:30.274434,-97
2021-09-22 19:45:30.274439,-87
2021-09-22 19:45:30.274445,-85
2021-09-22 19:45:30.274452,-87
2021-09-22 19:45:30.274457,-92
2021-09-22 19:45:30.274463,-87
2021-09-22 19:45:30.274469,-77
2021-09-22 19:45:30.274475,-72
2021-09-22 19:45:30.274481,-70
2021-09-22 19:45:30.274487,-65
2021-09-22 19:45:30.274492,-65
2021-09-22 19:45:30.274498,-68
2021-09-22 19:45:30.274504,-68
2021-09-22 19:45:30.274510,-65
2021-09-22 19:45:30.274516,-55
2021-09-22 19:45:30.274521,-46
2021-09-22 19:45:30.274527,-38
2021-09-22 19:45:30.274533,-34
2021-09-22 19:45:30.274539,-21
2021-09-22 19:45:30.544402,-12
2021-09-22 19:45:30.544423,-24
2021-09-22 19:45:30.544430,-48
2021-09-22 19:45:30.544437,-65
2021-09-22 19:45:30.544443,-65
2021-09-22 19:45:30.544449,-63
2021-09-22 19:45:30.544454,-63
2021-09-22 19:45:30.544460,-58
2021-09-22 19:45:30.544466,-58
2021-09-22 19:45:30.544472,-68
2021-09-22 19:45:30.544478,-65
2021-09-22 19:45:30.544484,-36
2021-09-22 19:45:30.544490,17
2021-09-22 19:45:30.544496,131
2021-09-22 19:45:30.544502,362
2021-09-22 19:45:30.544508,559
2021-09-22 19:45:30.544514,369
2021-09-22 19:45:30.544519,-189
2021-09-22 19:45:30.544525,-678
2021-09-22 19:45:30.544531,-715
2021-09-22 19:45:30.544537,-345
2021-09-22 19:45:30.544543,-92
2021-09-22 19:45:30.544549,-70
2021-09-22 19:45:30.544554,12
2021-09-22 19:45:30.544560,94
2021-09-22 19:45:30.544566,77
2021-09-22 19:45:30.544572,77
2021-09-22 19:45:30.544578,107
2021-09-22 19:45:30.544584,116
2021-09-22 19:45:30.544590,124
2021-09-22 19:45:30.769360,141
2021-09-22 19:45:30.769379,153
2021-09-22 19:45:30.769386,160
2021-09-22 19:45:30.769392,170
2021-09-22 19:45:30.769399,184
2021-09-22 19:45:30.769405,204
2021-09-22 19:45:30.769411,223
2021-09-22 19:45:30.769417,243
2021-09-22 19:45:30.769423,255
2021-09-22 19:45:30.769429,272
2021-09-22 19:45:30.769435,304
2021-09-22 19:45:30.769441,333
2021-09-22 19:45:30.769447,352
2021-09-22 19:45:30.769453,362
2021-09-22 19:45:30.769459,355
2021-09-22 19:45:30.769465,338
2021-09-22 19:45:30.769471,323
2021-09-22 19:45:30.769476,294
2021-09-22 19:45:30.769482,236
2021-09-22 19:45:30.769488,148
2021-09-22 19:45:30.769494,53
2021-09-22 19:45:30.769500,-31
2021-09-22 19:45:30.769506,-102
2021-09-22 19:45:30.769512,-155
2021-09-22 19:45:30.769518,-192
2021-09-22 19:45:30.769523,-214
2021-09-22 19:45:30.769529,-228
2021-09-22 19:45:30.769535,-231
2021-09-22 19:45:30.769541,-221
2021-09-22 19:45:30.769547,-209
2021-09-22 19:45:31.038826,-194
2021-09-22 19:45:31.038846,-182
2021-09-22 19:45:31.038853,-177
2021-09-22 19:45:31.038859,-175
2021-09-22 19:45:31.038865,-158
2021-09-22 19:45:31.038871,-141
2021-09-22 19:45:31.038877,-131
2021-09-22 19:45:31.038883,-128
2021-09-22 19:45:31.038889,-128
2021-09-22 19:45:31.038895,-121
2021-09-22 19:45:31.038901,-111
2021-09-22 19:45:31.038906,-104
2021-09-22 19:45:31.038912,-102
2021-09-22 19:45:31.038918,-107
2021-09-22 19:45:31.038924,-109
2021-09-22 19:45:31.038930,-107
2021-09-22 19:45:31.038936,-102
2021-09-22 19:45:31.038942,-102
2021-09-22 19:45:31.038948,-99
2021-09-22 19:45:31.038954,-97
2021-09-22 19:45:31.038960,-102
2021-09-22 19:45:31.038965,-107
2021-09-22 19:45:31.038971,-102
2021-09-22 19:45:31.038977,-92
2021-09-22 19:45:31.038982,-90
2021-09-22 19:45:31.038988,-90
2021-09-22 19:45:31.038994,-85
2021-09-22 19:45:31.039000,-82
2021-09-22 19:45:31.039006,-77
2021-09-22 19:45:31.039011,-70
2021-09-22 19:45:31.219476,-65
2021-09-22 19:45:31.219497,-65
2021-09-22 19:45:31.219505,-63
2021-09-22 19:45:31.219511,-60
2021-09-22 19:45:31.219517,-55
2021-09-22 19:45:31.219522,-51
2021-09-22 19:45:31.219528,-53
2021-09-22 19:45:31.219534,-58
2021-09-22 19:45:31.219540,-58
2021-09-22 19:45:31.219546,-63
2021-09-22 19:45:31.219552,-58
2021-09-22 19:45:31.219558,-43
2021-09-22 19:45:31.219564,-26
2021-09-22 19:45:31.219570,-17
2021-09-22 19:45:31.219576,-14
2021-09-22 19:45:31.219582,-7
2021-09-22 19:45:31.219588,-2
2021-09-22 19:45:31.219594,-17
2021-09-22 19:45:31.219600,-41
2021-09-22 19:45:31.219605,-46
2021-09-22 19:45:31.219611,-41
2021-09-22 19:45:31.219617,-41
2021-09-22 19:45:31.219623,-51
2021-09-22 19:45:31.219629,-58
2021-09-22 19:45:31.219635,-55
2021-09-22 19:45:31.219641,-53
2021-09-22 19:45:31.219646,-51
2021-09-22 19:45:31.219652,-29
2021-09-22 19:45:31.219658,36
2021-09-22 19:45:31.219664,177
2021-09-22 19:45:31.444383,425
2021-09-22 19:45:31.444404,574
2021-09-22 19:45:31.444411,289
2021-09-22 19:45:31.444417,-301
2021-09-22 19:45:31.444423,-720
2021-09-22 19:45:31.444429,-637
2021-09-22 19:45:31.444435,-262
2021-09-22 19:45:31.444442,-87
2021-09-22 19:45:31.444448,-77
2021-09-22 19:45:31.444453,17
2021-09-22 19:45:31.444459,77
2021-09-22 19:45:31.444465,53
2021-09-22 19:45:31.444471,60
2021-09-22 19:45:31.444477,90
2021-09-22 19:45:31.444483,97
2021-09-22 19:45:31.444489,104
2021-09-22 19:45:31.444495,124
2021-09-22 19:45:31.444501,136
2021-09-22 19:45:31.444506,143
2021-09-22 19:45:31.444512,160
2021-09-22 19:45:31.444518,180
2021-09-22 19:45:31.444524,194
2021-09-22 19:45:31.444530,214
2021-09-22 19:45:31.444536,240
2021-09-22 19:45:31.444541,260
2021-09-22 19:45:31.444547,279
2021-09-22 19:45:31.444553,306
2021-09-22 19:45:31.444559,333
2021-09-22 19:45:31.444564,350
2021-09-22 19:45:31.444570,360
2021-09-22 19:45:31.669465,357
2021-09-22 19:45:31.669486,347
2021-09-22 19:45:31.669494,326
2021-09-22 19:45:31.669500,287
2021-09-22 19:45:31.669506,228
2021-09-22 19:45:31.669512,143
2021-09-22 19:45:31.669518,46
2021-09-22 19:45:31.669524,-36
2021-09-22 19:45:31.669530,-99
2021-09-22 19:45:31.669536,-153
2021-09-22 19:45:31.669542,-189
2021-09-22 19:45:31.669548,-214
2021-09-22 19:45:31.669554,-228
2021-09-22 19:45:31.669560,-223
2021-09-22 19:45:31.669566,-211
2021-09-22 19:45:31.669572,-201
2021-09-22 19:45:31.669578,-189
2021-09-22 19:45:31.669584,-175
2021-09-22 19:45:31.669589,-160
2021-09-22 19:45:31.669595,-145
2021-09-22 19:45:31.669601,-131
2021-09-22 19:45:31.669607,-121
2021-09-22 19:45:31.669612,-114
2021-09-22 19:45:31.669618,-107
2021-09-22 19:45:31.669624,-99
2021-09-22 19:45:31.669630,-90
2021-09-22 19:45:31.669636,-87
2021-09-22 19:45:31.669642,-92
2021-09-22 19:45:31.669648,-94
2021-09-22 19:45:31.669654,-90
2021-09-22 19:45:31.894485,-87
2021-09-22 19:45:31.894505,-85
2021-09-22 19:45:31.894513,-82
2021-09-22 19:45:31.894519,-85
2021-09-22 19:45:31.894525,-90
2021-09-22 19:45:31.894531,-92
2021-09-22 19:45:31.894537,-87
2021-09-22 19:45:31.894543,-80
2021-09-22 19:45:31.894549,-75
2021-09-22 19:45:31.894555,-77
2021-09-22 19:45:31.894561,-82
2021-09-22 19:45:31.894567,-82
2021-09-22 19:45:31.894573,-80
2021-09-22 19:45:31.894579,-80
2021-09-22 19:45:31.894585,-80
2021-09-22 19:45:31.894591,-70
2021-09-22 19:45:31.894597,-68
2021-09-22 19:45:31.894603,-68
2021-09-22 19:45:31.894609,-60
2021-09-22 19:45:31.894615,-51
2021-09-22 19:45:31.894621,-48
2021-09-22 19:45:31.894627,-48
2021-09-22 19:45:31.894633,-48
2021-09-22 19:45:31.894639,-46
2021-09-22 19:45:31.894645,-38
2021-09-22 19:45:31.894651,-34
2021-09-22 19:45:31.894657,-21
2021-09-22 19:45:31.894663,2
2021-09-22 19:45:31.894669,17
2021-09-22 19:45:31.894675,7
2021-09-22 19:45:32.163110,9
2021-09-22 19:45:32.163131,24
2021-09-22 19:45:32.163138,12
2021-09-22 19:45:32.163144,-17
2021-09-22 19:45:32.163150,-31
2021-09-22 19:45:32.163156,-34
2021-09-22 19:45:32.163162,-31
2021-09-22 19:45:32.163168,-31
2021-09-22 19:45:32.163174,-31
2021-09-22 19:45:32.163180,-31
2021-09-22 19:45:32.163186,-34
2021-09-22 19:45:32.163192,-29
2021-09-22 19:45:32.163198,-4
2021-09-22 19:45:32.163203,55
2021-09-22 19:45:32.163209,194
2021-09-22 19:45:32.163215,447
2021-09-22 19:45:32.163221,610
2021-09-22 19:45:32.163227,345
2021-09-22 19:45:32.163233,-245
2021-09-22 19:45:32.163239,-678
2021-09-22 19:45:32.163245,-620
2021-09-22 19:45:32.163251,-245
2021-09-22 19:45:32.163257,-48
2021-09-22 19:45:32.163263,-29
2021-09-22 19:45:32.163268,68
2021-09-22 19:45:32.163274,136
2021-09-22 19:45:32.163280,111
2021-09-22 19:45:32.163286,119
2021-09-22 19:45:32.163292,153
2021-09-22 19:45:32.163297,163
2021-09-22 19:45:32.389418,167
2021-09-22 19:45:32.389439,180
2021-09-22 19:45:32.389447,180
2021-09-22 19:45:32.389453,182
2021-09-22 19:45:32.389459,194
2021-09-22 19:45:32.389465,216
2021-09-22 19:45:32.389471,238
2021-09-22 19:45:32.389477,260
2021-09-22 19:45:32.389483,282
2021-09-22 19:45:32.389489,296
2021-09-22 19:45:32.389495,318
2021-09-22 19:45:32.389501,352
2021-09-22 19:45:32.389506,382
2021-09-22 19:45:32.389512,399
2021-09-22 19:45:32.389518,406
2021-09-22 19:45:32.389524,401
2021-09-22 19:45:32.389530,391
2021-09-22 19:45:32.389536,374
2021-09-22 19:45:32.389542,328
2021-09-22 19:45:32.389548,253
2021-09-22 19:45:32.389554,170
2021-09-22 19:45:32.389560,82
2021-09-22 19:45:32.389565,-4
2021-09-22 19:45:32.389571,-75
2021-09-22 19:45:32.389577,-124
2021-09-22 19:45:32.389583,-160
2021-09-22 19:45:32.389589,-184
2021-09-22 19:45:32.389595,-199
2021-09-22 19:45:32.389601,-194
2021-09-22 19:45:32.389607,-180
2021-09-22 19:45:32.614435,-167
2021-09-22 19:45:32.614456,-155
2021-09-22 19:45:32.614463,-150
2021-09-22 19:45:32.614470,-145
2021-09-22 19:45:32.614476,-133
2021-09-22 19:45:32.614481,-111
2021-09-22 19:45:32.614487,-94
2021-09-22 19:45:32.614493,-87
2021-09-22 19:45:32.614499,-85
2021-09-22 19:45:32.614505,-82
2021-09-22 19:45:32.614511,-72
2021-09-22 19:45:32.614517,-65
2021-09-22 19:45:32.614522,-63
2021-09-22 19:45:32.614528,-60
2021-09-22 19:45:32.614534,-65
2021-09-22 19:45:32.614539,-68
2021-09-22 19:45:32.614545,-58
2021-09-22 19:45:32.614551,-51
2021-09-22 19:45:32.614557,-48
2021-09-22 19:45:32.614563,-46
2021-09-22 19:45:32.614569,-48
2021-09-22 19:45:32.614575,-51
2021-09-22 19:45:32.614580,-43
2021-09-22 19:45:32.614586,-38
2021-09-22 19:45:32.614592,-38
2021-09-22 19:45:32.614597,-36
2021-09-22 19:45:32.614603,-31
2021-09-22 19:45:32.614609,-29
2021-09-22 19:45:32.614615,-24
2021-09-22 19:45:32.614621,-17
2021-09-22 19:45:32.929440,-14
2021-09-22 19:45:32.929461,-14
2021-09-22 19:45:32.929468,-14
2021-09-22 19:45:32.929475,-14
2021-09-22 19:45:32.929481,-14
2021-09-22 19:45:32.929487,-14
2021-09-22 19:45:32.929493,-19
2021-09-22 19:45:32.929499,-21
2021-09-22 19:45:32.929505,-19
2021-09-22 19:45:32.929510,0
2021-09-22 19:45:32.929516,24
2021-09-22 19:45:32.929523,26
2021-09-22 19:45:32.929528,21
2021-09-22 19:45:32.929534,31
2021-09-22 19:45:32.929541,26
2021-09-22 19:45:32.929546,-2
2021-09-22 19:45:32.929553,-14
2021-09-22 19:45:32.929559,-9
2021-09-22 19:45:32.929564,-7
2021-09-22 19:45:32.929570,-9
2021-09-22 19:45:32.929576,-17
2021-09-22 19:45:32.929582,-19
2021-09-22 19:45:32.929588,-12
2021-09-22 19:45:32.929594,-9
2021-09-22 19:45:32.929599,-4
2021-09-22 19:45:32.929605,38
2021-09-22 19:45:32.929611,138
2021-09-22 19:45:32.929617,309
2021-09-22 19:45:32.929623,481
2021-09-22 19:45:32.929629,379
2021-09-22 19:45:33.064467,-87
2021-09-22 19:45:33.064486,-593
2021-09-22 19:45:33.064493,-729
2021-09-22 19:45:33.064499,-408
2021-09-22 19:45:33.064505,-90
2021-09-22 19:45:33.064511,-43
2021-09-22 19:45:33.064517,9
2021-09-22 19:45:33.064523,119
2021-09-22 19:45:33.064529,126
2021-09-22 19:45:33.064535,107
2021-09-22 19:45:33.064541,141
2021-09-22 19:45:33.064547,163
2021-09-22 19:45:33.064553,160
2021-09-22 19:45:33.064558,172
2021-09-22 19:45:33.064564,184
2021-09-22 19:45:33.064570,192
2021-09-22 19:45:33.064576,209
2021-09-22 19:45:33.064581,226
2021-09-22 19:45:33.064587,231
2021-09-22 19:45:33.064593,243
2021-09-22 19:45:33.064599,270
2021-09-22 19:45:33.064605,294
2021-09-22 19:45:33.064611,316
2021-09-22 19:45:33.064616,345
2021-09-22 19:45:33.064622,369
2021-09-22 19:45:33.064628,386
2021-09-22 19:45:33.064634,399
2021-09-22 19:45:33.064640,401
2021-09-22 19:45:33.064645,389
2021-09-22 19:45:33.064651,374
2021-09-22 19:45:33.334475,340
2021-09-22 19:45:33.334496,277
2021-09-22 19:45:33.334503,194
2021-09-22 19:45:33.334510,107
2021-09-22 19:45:33.334516,19
2021-09-22 19:45:33.334522,-53
2021-09-22 19:45:33.334528,-111
2021-09-22 19:45:33.334534,-158
2021-09-22 19:45:33.334539,-182
2021-09-22 19:45:33.334546,-201
2021-09-22 19:45:33.334552,-209
2021-09-22 19:45:33.334558,-206
2021-09-22 19:45:33.334563,-199
2021-09-22 19:45:33.334569,-189
2021-09-22 19:45:33.334575,-172
2021-09-22 19:45:33.334581,-158
2021-09-22 19:45:33.334587,-143
2021-09-22 19:45:33.334593,-131
2021-09-22 19:45:33.334599,-126
2021-09-22 19:45:33.334604,-119
2021-09-22 19:45:33.334610,-104
2021-09-22 19:45:33.334616,-97
2021-09-22 19:45:33.334622,-92
2021-09-22 19:45:33.334628,-87
2021-09-22 19:45:33.334633,-85
2021-09-22 19:45:33.334639,-82
2021-09-22 19:45:33.334645,-80
2021-09-22 19:45:33.334651,-80
2021-09-22 19:45:33.334656,-82
2021-09-22 19:45:33.334662,-90
2021-09-22 19:45:33.514417,-97
2021-09-22 19:45:33.514439,-94
2021-09-22 19:45:33.514446,-87
2021-09-22 19:45:33.514452,-87
2021-09-22 19:45:33.514458,-87
2021-09-22 19:45:33.514465,-85
2021-09-22 19:45:33.514471,-90
2021-09-22 19:45:33.514477,-85
2021-09-22 19:45:33.514483,-72
2021-09-22 19:45:33.514489,-70
2021-09-22 19:45:33.514495,-72
2021-09-22 19:45:33.514501,-77
2021-09-22 19:45:33.514507,-77
2021-09-22 19:45:33.514513,-70
2021-09-22 19:45:33.514519,-63
2021-09-22 19:45:33.514525,-63
2021-09-22 19:45:33.514531,-63
2021-09-22 19:45:33.514537,-70
2021-09-22 19:45:33.514543,-77
2021-09-22 19:45:33.514549,-70
2021-09-22 19:45:33.514554,-55
2021-09-22 19:45:33.514560,-38
2021-09-22 19:45:33.514566,-19
2021-09-22 19:45:33.514572,-14
2021-09-22 19:45:33.514578,-12
2021-09-22 19:45:33.514584,-4
2021-09-22 19:45:33.514589,-17
2021-09-22 19:45:33.514595,-41
2021-09-22 19:45:33.514601,-48
2021-09-22 19:45:33.514608,-41
2021-09-22 19:45:33.739492,-36
2021-09-22 19:45:33.739514,-34
2021-09-22 19:45:33.739521,-36
2021-09-22 19:45:33.739527,-41
2021-09-22 19:45:33.739533,-43
2021-09-22 19:45:33.739539,-38
2021-09-22 19:45:33.739545,-2
2021-09-22 19:45:33.739551,80
2021-09-22 19:45:33.739557,218
2021-09-22 19:45:33.739563,420
2021-09-22 19:45:33.739569,450
2021-09-22 19:45:33.739575,90
2021-09-22 19:45:33.739581,-425
2021-09-22 19:45:33.739587,-734
2021-09-22 19:45:33.739593,-605
2021-09-22 19:45:33.739599,-233
2021-09-22 19:45:33.739605,-82
2021-09-22 19:45:33.739610,-80
2021-09-22 19:45:33.739616,34
2021-09-22 19:45:33.739622,99
2021-09-22 19:45:33.739628,68
2021-09-22 19:45:33.739633,77
2021-09-22 19:45:33.739639,109
2021-09-22 19:45:33.739645,109
2021-09-22 19:45:33.739651,116
2021-09-22 19:45:33.739657,138
2021-09-22 19:45:33.739663,148
2021-09-22 19:45:33.739669,153
2021-09-22 19:45:33.739674,167
2021-09-22 19:45:33.739680,182
2021-09-22 19:45:34.009504,199
2021-09-22 19:45:34.009525,221
2021-09-22 19:45:34.009532,240
2021-09-22 19:45:34.009539,260
2021-09-22 19:45:34.009545,282
2021-09-22 19:45:34.009551,299
2021-09-22 19:45:34.009557,316
2021-09-22 19:45:34.009563,333
2021-09-22 19:45:34.009569,345
2021-09-22 19:45:34.009575,335
2021-09-22 19:45:34.009580,311
2021-09-22 19:45:34.009586,279
2021-09-22 19:45:34.009592,238
2021-09-22 19:45:34.009598,170
2021-09-22 19:45:34.009604,75
2021-09-22 19:45:34.009610,-24
2021-09-22 19:45:34.009616,-111
2021-09-22 19:45:34.009621,-170
2021-09-22 19:45:34.009627,-206
2021-09-22 19:45:34.009633,-233
2021-09-22 19:45:34.009639,-250
2021-09-22 19:45:34.009645,-257
2021-09-22 19:45:34.009651,-257
2021-09-22 19:45:34.009656,-248
2021-09-22 19:45:34.009662,-233
2021-09-22 19:45:34.009668,-218
2021-09-22 19:45:34.009674,-206
2021-09-22 19:45:34.009680,-197
2021-09-22 19:45:34.009685,-184
2021-09-22 19:45:34.009691,-170
2021-09-22 19:45:34.278149,-155
2021-09-22 19:45:34.278170,-143
2021-09-22 19:45:34.278177,-133
2021-09-22 19:45:34.278184,-136
2021-09-22 19:45:34.278190,-138
2021-09-22 19:45:34.278196,-126
2021-09-22 19:45:34.278202,-114
2021-09-22 19:45:34.278208,-111
2021-09-22 19:45:34.278214,-109
2021-09-22 19:45:34.278220,-109
2021-09-22 19:45:34.278226,-109
2021-09-22 19:45:34.278231,-104
2021-09-22 19:45:34.278237,-99
2021-09-22 19:45:34.278243,-99
2021-09-22 19:45:34.278249,-102
2021-09-22 19:45:34.278255,-109
2021-09-22 19:45:34.278261,-114
2021-09-22 19:45:34.278267,-114
2021-09-22 19:45:34.278273,-111
2021-09-22 19:45:34.278279,-107
2021-09-22 19:45:34.278285,-102
2021-09-22 19:45:34.278290,-102
2021-09-22 19:45:34.278296,-99
2021-09-22 19:45:34.278302,-92
2021-09-22 19:45:34.278308,-87
2021-09-22 19:45:34.278313,-85
2021-09-22 19:45:34.278319,-82
2021-09-22 19:45:34.278325,-85
2021-09-22 19:45:34.278331,-82
2021-09-22 19:45:34.278337,-72
2021-09-22 19:45:34.459853,-68
2021-09-22 19:45:34.459874,-65
2021-09-22 19:45:34.459881,-70
2021-09-22 19:45:34.459888,-75
2021-09-22 19:45:34.459894,-60
2021-09-22 19:45:34.459900,-31
2021-09-22 19:45:34.459906,-14
2021-09-22 19:45:34.459912,-17
2021-09-22 19:45:34.459918,-26
2021-09-22 19:45:34.459924,-24
2021-09-22 19:45:34.459930,-26
2021-09-22 19:45:34.459936,-51
2021-09-22 19:45:34.459942,-72
2021-09-22 19:45:34.459948,-77
2021-09-22 19:45:34.459953,-77
2021-09-22 19:45:34.459959,-82
2021-09-22 19:45:34.459965,-77
2021-09-22 19:45:34.459971,-75
2021-09-22 19:45:34.459977,-80
2021-09-22 19:45:34.459983,-80
2021-09-22 19:45:34.459989,-63
2021-09-22 19:45:34.459995,2
2021-09-22 19:45:34.460000,143
2021-09-22 19:45:34.460006,386
2021-09-22 19:45:34.460012,523
2021-09-22 19:45:34.460018,250
2021-09-22 19:45:34.460024,-267
2021-09-22 19:45:34.460030,-681
2021-09-22 19:45:34.460036,-717
2021-09-22 19:45:34.460042,-335
2021-09-22 19:45:34.684500,-63
2021-09-22 19:45:34.684522,-70
2021-09-22 19:45:34.684529,-9
2021-09-22 19:45:34.684536,72
2021-09-22 19:45:34.684542,58
2021-09-22 19:45:34.684548,63
2021-09-22 19:45:34.684554,102
2021-09-22 19:45:34.684560,104
2021-09-22 19:45:34.684566,97
2021-09-22 19:45:34.684572,111
2021-09-22 19:45:34.684578,131
2021-09-22 19:45:34.684584,143
2021-09-22 19:45:34.684590,158
2021-09-22 19:45:34.684595,170
2021-09-22 19:45:34.684601,180
2021-09-22 19:45:34.684607,194
2021-09-22 19:45:34.684613,221
2021-09-22 19:45:34.684619,250
2021-09-22 19:45:34.684625,277
2021-09-22 19:45:34.684630,306
2021-09-22 19:45:34.684636,333
2021-09-22 19:45:34.684642,352
2021-09-22 19:45:34.684647,364
2021-09-22 19:45:34.684653,372
2021-09-22 19:45:34.684659,367
2021-09-22 19:45:34.684665,343
2021-09-22 19:45:34.684670,304
2021-09-22 19:45:34.684676,240
2021-09-22 19:45:34.684682,153
2021-09-22 19:45:34.684688,53
2021-09-22 19:45:34.909470,-38
2021-09-22 19:45:34.909490,-114
2021-09-22 19:45:34.909498,-170
2021-09-22 19:45:34.909504,-209
2021-09-22 19:45:34.909510,-228
2021-09-22 19:45:34.909516,-233
2021-09-22 19:45:34.909522,-236
2021-09-22 19:45:34.909529,-238
2021-09-22 19:45:34.909535,-236
2021-09-22 19:45:34.909540,-223
2021-09-22 19:45:34.909546,-206
2021-09-22 19:45:34.909552,-189
2021-09-22 19:45:34.909558,-177
2021-09-22 19:45:34.909564,-172
2021-09-22 19:45:34.909570,-163
2021-09-22 19:45:34.909576,-150
2021-09-22 19:45:34.909582,-145
2021-09-22 19:45:34.909588,-143
2021-09-22 19:45:34.909594,-136
2021-09-22 19:45:34.909599,-124
2021-09-22 19:45:34.909605,-119
2021-09-22 19:45:34.909611,-114
2021-09-22 19:45:34.909617,-107
2021-09-22 19:45:34.909622,-107
2021-09-22 19:45:34.909628,-111
2021-09-22 19:45:34.909634,-114
2021-09-22 19:45:34.909640,-107
2021-09-22 19:45:34.909646,-104
2021-09-22 19:45:34.909652,-104
2021-09-22 19:45:34.909657,-99
2021-09-22 19:45:35.179510,-97
2021-09-22 19:45:35.179531,-97
2021-09-22 19:45:35.179538,-97
2021-09-22 19:45:35.179545,-94
2021-09-22 19:45:35.179550,-90
2021-09-22 19:45:35.179557,-85
2021-09-22 19:45:35.179563,-87
2021-09-22 19:45:35.179569,-90
2021-09-22 19:45:35.179575,-85
2021-09-22 19:45:35.179580,-77
2021-09-22 19:45:35.179586,-75
2021-09-22 19:45:35.179592,-70
2021-09-22 19:45:35.179598,-72
2021-09-22 19:45:35.179604,-75
2021-09-22 19:45:35.179610,-68
2021-09-22 19:45:35.179616,-63
2021-09-22 19:45:35.179622,-60
2021-09-22 19:45:35.179627,-60
2021-09-22 19:45:35.179633,-68
2021-09-22 19:45:35.179639,-63
2021-09-22 19:45:35.179645,-46
2021-09-22 19:45:35.179650,-29
2021-09-22 19:45:35.179656,-12
2021-09-22 19:45:35.179662,-9
2021-09-22 19:45:35.179668,-9
2021-09-22 19:45:35.179674,-12
2021-09-22 19:45:35.179680,-29
2021-09-22 19:45:35.179686,-51
2021-09-22 19:45:35.179692,-51
2021-09-22 19:45:35.179698,-46
2021-09-22 19:45:35.359531,-46
2021-09-22 19:45:35.359552,-46
2021-09-22 19:45:35.359560,-41
2021-09-22 19:45:35.359566,-43
2021-09-22 19:45:35.359572,-48
2021-09-22 19:45:35.359578,-43
2021-09-22 19:45:35.359584,-24
2021-09-22 19:45:35.359590,34
2021-09-22 19:45:35.359596,163
2021-09-22 19:45:35.359602,403
2021-09-22 19:45:35.359608,571
2021-09-22 19:45:35.359614,335
2021-09-22 19:45:35.359619,-197
2021-09-22 19:45:35.359625,-647
2021-09-22 19:45:35.359631,-683
2021-09-22 19:45:35.359637,-304
2021-09-22 19:45:35.359643,-48
2021-09-22 19:45:35.359649,-58
2021-09-22 19:45:35.359655,7
2021-09-22 19:45:35.359660,90
2021-09-22 19:45:35.359666,72
2021-09-22 19:45:35.359672,70
2021-09-22 19:45:35.359678,99
2021-09-22 19:45:35.359684,92
2021-09-22 19:45:35.359689,92
2021-09-22 19:45:35.359695,119
2021-09-22 19:45:35.359701,133
2021-09-22 19:45:35.359707,133
2021-09-22 19:45:35.359712,143
2021-09-22 19:45:35.359718,160
2021-09-22 19:45:35.629452,180
2021-09-22 19:45:35.629474,201
2021-09-22 19:45:35.629481,223
2021-09-22 19:45:35.629487,248
2021-09-22 19:45:35.629493,272
2021-09-22 19:45:35.629499,296
2021-09-22 19:45:35.629505,323
2021-09-22 19:45:35.629511,350
2021-09-22 19:45:35.629516,364
2021-09-22 19:45:35.629522,367
2021-09-22 19:45:35.629528,357
2021-09-22 19:45:35.629534,333
2021-09-22 19:45:35.629540,291
2021-09-22 19:45:35.629545,236
2021-09-22 19:45:35.629551,150
2021-09-22 19:45:35.629557,48
2021-09-22 19:45:35.629563,-41
2021-09-22 19:45:35.629569,-111
2021-09-22 19:45:35.629575,-165
2021-09-22 19:45:35.629581,-201
2021-09-22 19:45:35.629587,-223
2021-09-22 19:45:35.629592,-233
2021-09-22 19:45:35.629598,-233
2021-09-22 19:45:35.629604,-228
2021-09-22 19:45:35.629610,-216
2021-09-22 19:45:35.629616,-204
2021-09-22 19:45:35.629622,-189
2021-09-22 19:45:35.629627,-177
2021-09-22 19:45:35.629633,-163
2021-09-22 19:45:35.629639,-155
2021-09-22 19:45:35.809537,-148
2021-09-22 19:45:35.809557,-133
2021-09-22 19:45:35.809564,-121
2021-09-22 19:45:35.809570,-114
2021-09-22 19:45:35.809576,-111
2021-09-22 19:45:35.809582,-104
2021-09-22 19:45:35.809588,-94
2021-09-22 19:45:35.809594,-90
2021-09-22 19:45:35.809600,-87
2021-09-22 19:45:35.809606,-87
2021-09-22 19:45:35.809611,-92
2021-09-22 19:45:35.809617,-94
2021-09-22 19:45:35.809623,-90
2021-09-22 19:45:35.809629,-85
2021-09-22 19:45:35.809635,-85
2021-09-22 19:45:35.809641,-87
2021-09-22 19:45:35.809647,-92
2021-09-22 19:45:35.809653,-92
2021-09-22 19:45:35.809658,-87
2021-09-22 19:45:35.809664,-80
2021-09-22 19:45:35.809670,-80
2021-09-22 19:45:35.809676,-80
2021-09-22 19:45:35.809682,-77
2021-09-22 19:45:35.809688,-72
2021-09-22 19:45:35.809693,-65
2021-09-22 19:45:35.809699,-60
2021-09-22 19:45:35.809705,-58
2021-09-22 19:45:35.809710,-60
2021-09-22 19:45:35.809716,-68
2021-09-22 19:45:35.809722,-65
2021-09-22 19:45:36.123865,-55
2021-09-22 19:45:36.123886,-53
2021-09-22 19:45:36.123893,-60
2021-09-22 19:45:36.123899,-65
2021-09-22 19:45:36.123906,-65
2021-09-22 19:45:36.123912,-65
2021-09-22 19:45:36.123918,-68
2021-09-22 19:45:36.123924,-60
2021-09-22 19:45:36.123930,-46
2021-09-22 19:45:36.123936,-31
2021-09-22 19:45:36.123942,-19
2021-09-22 19:45:36.123948,-17
2021-09-22 19:45:36.123954,-9
2021-09-22 19:45:36.123959,-7
2021-09-22 19:45:36.123965,-26
2021-09-22 19:45:36.123971,-48
2021-09-22 19:45:36.123977,-48
2021-09-22 19:45:36.123983,-41
2021-09-22 19:45:36.123989,-43
2021-09-22 19:45:36.123995,-46
2021-09-22 19:45:36.124001,-46
2021-09-22 19:45:36.124006,-48
2021-09-22 19:45:36.124012,-46
2021-09-22 19:45:36.124018,-36
2021-09-22 19:45:36.124024,-17
2021-09-22 19:45:36.124029,31
2021-09-22 19:45:36.124035,145
2021-09-22 19:45:36.124041,369
2021-09-22 19:45:36.124047,571
2021-09-22 19:45:36.124052,396
2021-09-22 19:45:36.348158,-131
2021-09-22 19:45:36.348178,-618
2021-09-22 19:45:36.348186,-695
2021-09-22 19:45:36.348192,-345
2021-09-22 19:45:36.348198,-70
2021-09-22 19:45:36.348204,-51
2021-09-22 19:45:36.348210,19
2021-09-22 19:45:36.348216,107
2021-09-22 19:45:36.348222,85
2021-09-22 19:45:36.348227,72
2021-09-22 19:45:36.348233,109
2021-09-22 19:45:36.348239,124
2021-09-22 19:45:36.348245,128
2021-09-22 19:45:36.348251,145
2021-09-22 19:45:36.348257,155
2021-09-22 19:45:36.348263,155
2021-09-22 19:45:36.348269,170
2021-09-22 19:45:36.348275,192
2021-09-22 19:45:36.348281,206
2021-09-22 19:45:36.348286,226
2021-09-22 19:45:36.348292,243
2021-09-22 19:45:36.348298,262
2021-09-22 19:45:36.348304,289
2021-09-22 19:45:36.348310,321
2021-09-22 19:45:36.348316,350
2021-09-22 19:45:36.348321,372
2021-09-22 19:45:36.348327,382
2021-09-22 19:45:36.348334,379
2021-09-22 19:45:36.348339,374
2021-09-22 19:45:36.348345,360
2021-09-22 19:45:36.574549,326
2021-09-22 19:45:36.574570,267
2021-09-22 19:45:36.574577,182
2021-09-22 19:45:36.574584,75
2021-09-22 19:45:36.574590,-24
2021-09-22 19:45:36.574596,-99
2021-09-22 19:45:36.574602,-158
2021-09-22 19:45:36.574607,-204
2021-09-22 19:45:36.574613,-233
2021-09-22 19:45:36.574619,-248
2021-09-22 19:45:36.574625,-245
2021-09-22 19:45:36.574631,-233
2021-09-22 19:45:36.574637,-223
2021-09-22 19:45:36.574642,-216
2021-09-22 19:45:36.574648,-209
2021-09-22 19:45:36.574654,-197
2021-09-22 19:45:36.574660,-177
2021-09-22 19:45:36.574666,-160
2021-09-22 19:45:36.574672,-148
2021-09-22 19:45:36.574678,-136
2021-09-22 19:45:36.574684,-128
2021-09-22 19:45:36.574690,-124
2021-09-22 19:45:36.574695,-114
2021-09-22 19:45:36.574701,-104
2021-09-22 19:45:36.574707,-99
2021-09-22 19:45:36.574713,-97
2021-09-22 19:45:36.574719,-97
2021-09-22 19:45:36.574725,-97
2021-09-22 19:45:36.574731,-92
2021-09-22 19:45:36.574737,-87
2021-09-22 19:45:36.754882,-85
2021-09-22 19:45:36.754900,-85
2021-09-22 19:45:36.754907,-85
2021-09-22 19:45:36.754913,-85
2021-09-22 19:45:36.754918,-80
2021-09-22 19:45:36.754924,-77
2021-09-22 19:45:36.754929,-75
2021-09-22 19:45:36.754935,-75
2021-09-22 19:45:36.754940,-80
2021-09-22 19:45:36.754945,-80
2021-09-22 19:45:36.754951,-72
2021-09-22 19:45:36.754956,-68
2021-09-22 19:45:36.754962,-68
2021-09-22 19:45:36.754967,-70
2021-09-22 19:45:36.754973,-72
2021-09-22 19:45:36.754978,-68
2021-09-22 19:45:36.754984,-60
2021-09-22 19:45:36.754989,-55
2021-09-22 19:45:36.754995,-55
2021-09-22 19:45:36.755001,-60
2021-09-22 19:45:36.755006,-63
2021-09-22 19:45:36.755012,-55
2021-09-22 19:45:36.755017,-51
2021-09-22 19:45:36.755023,-46
2021-09-22 19:45:36.755028,-43
2021-09-22 19:45:36.755033,-43
2021-09-22 19:45:36.755038,-43
2021-09-22 19:45:36.755044,-43
2021-09-22 19:45:36.755049,-43
2021-09-22 19:45:36.755054,-31
2021-09-22 19:45:37.069635,-14
2021-09-22 19:45:37.069655,-4
2021-09-22 19:45:37.069662,-12
2021-09-22 19:45:37.069669,-12
2021-09-22 19:45:37.069675,0
2021-09-22 19:45:37.069681,-4
2021-09-22 19:45:37.069687,-36
2021-09-22 19:45:37.069693,-60
2021-09-22 19:45:37.069699,-63
2021-09-22 19:45:37.069705,-58
2021-09-22 19:45:37.069711,-65
2021-09-22 19:45:37.069717,-75
2021-09-22 19:45:37.069723,-80
2021-09-22 19:45:37.069729,-85
2021-09-22 19:45:37.069735,-87
2021-09-22 19:45:37.069741,-80
2021-09-22 19:45:37.069746,-46
2021-09-22 19:45:37.069752,31
2021-09-22 19:45:37.069758,199
2021-09-22 19:45:37.069764,455
2021-09-22 19:45:37.069770,503
2021-09-22 19:45:37.069776,111
2021-09-22 19:45:37.069782,-457
2021-09-22 19:45:37.069788,-756
2021-09-22 19:45:37.069794,-552
2021-09-22 19:45:37.069800,-180
2021-09-22 19:45:37.069806,-68
2021-09-22 19:45:37.069812,-43
2021-09-22 19:45:37.069818,60
2021-09-22 19:45:37.069823,90
2021-09-22 19:45:37.204567,65
2021-09-22 19:45:37.204589,90
2021-09-22 19:45:37.204596,116
2021-09-22 19:45:37.204602,114
2021-09-22 19:45:37.204608,124
2021-09-22 19:45:37.204614,145
2021-09-22 19:45:37.204620,153
2021-09-22 19:45:37.204626,165
2021-09-22 19:45:37.204632,182
2021-09-22 19:45:37.204638,197
2021-09-22 19:45:37.204644,214
2021-09-22 19:45:37.204650,233
2021-09-22 19:45:37.204656,248
2021-09-22 19:45:37.204662,267
2021-09-22 19:45:37.204668,296
2021-09-22 19:45:37.204674,323
2021-09-22 19:45:37.204679,345
2021-09-22 19:45:37.204685,360
2021-09-22 19:45:37.204691,360
2021-09-22 19:45:37.204697,355
2021-09-22 19:45:37.204703,345
2021-09-22 19:45:37.204709,318
2021-09-22 19:45:37.204715,272
2021-09-22 19:45:37.204721,204
2021-09-22 19:45:37.204727,111
2021-09-22 19:45:37.204732,21
2021-09-22 19:45:37.204738,-55
2021-09-22 19:45:37.204744,-121
2021-09-22 19:45:37.204750,-170
2021-09-22 19:45:37.204756,-201
2021-09-22 19:45:37.429496,-218
2021-09-22 19:45:37.429517,-221
2021-09-22 19:45:37.429525,-216
2021-09-22 19:45:37.429531,-211
2021-09-22 19:45:37.429537,-204
2021-09-22 19:45:37.429542,-194
2021-09-22 19:45:37.429548,-187
2021-09-22 19:45:37.429554,-167
2021-09-22 19:45:37.429560,-153
2021-09-22 19:45:37.429566,-143
2021-09-22 19:45:37.429572,-133
2021-09-22 19:45:37.429577,-128
2021-09-22 19:45:37.429583,-124
2021-09-22 19:45:37.429589,-114
2021-09-22 19:45:37.429595,-114
2021-09-22 19:45:37.429601,-126
2021-09-22 19:45:37.429606,-128
2021-09-22 19:45:37.429612,-124
2021-09-22 19:45:37.429618,-119
2021-09-22 19:45:37.429624,-116
2021-09-22 19:45:37.429629,-114
2021-09-22 19:45:37.429635,-111
2021-09-22 19:45:37.429641,-109
2021-09-22 19:45:37.429647,-107
2021-09-22 19:45:37.429652,-104
2021-09-22 19:45:37.429658,-102
2021-09-22 19:45:37.429664,-97
2021-09-22 19:45:37.429670,-97
2021-09-22 19:45:37.429676,-94
2021-09-22 19:45:37.429682,-90
2021-09-22 19:45:37.654573,-85
2021-09-22 19:45:37.654595,-80
2021-09-22 19:45:37.654603,-77
2021-09-22 19:45:37.654609,-77
2021-09-22 19:45:37.654615,-80
2021-09-22 19:45:37.654621,-80
2021-09-22 19:45:37.654627,-72
2021-09-22 19:45:37.654633,-68
2021-09-22 19:45:37.654639,-68
2021-09-22 19:45:37.654645,-68
2021-09-22 19:45:37.654651,-70
2021-09-22 19:45:37.654657,-70
2021-09-22 19:45:37.654662,-68
2021-09-22 19:45:37.654668,-65
2021-09-22 19:45:37.654674,-63
2021-09-22 19:45:37.654680,-60
2021-09-22 19:45:37.654685,-65
2021-09-22 19:45:37.654691,-65
2021-09-22 19:45:37.654697,-55
2021-09-22 19:45:37.654703,-51
2021-09-22 19:45:37.654709,-48
2021-09-22 19:45:37.654714,-51
2021-09-22 19:45:37.654720,-55
2021-09-22 19:45:37.654726,-55
2021-09-22 19:45:37.654732,-46
2021-09-22 19:45:37.654737,-26
2021-09-22 19:45:37.654743,-21
2021-09-22 19:45:37.654749,-31
2021-09-22 19:45:37.654755,-24
2021-09-22 19:45:37.654761,-14
2021-09-22 19:45:37.879643,-34
2021-09-22 19:45:37.879664,-53
2021-09-22 19:45:37.879671,-58
2021-09-22 19:45:37.879677,-65
2021-09-22 19:45:37.879684,-72
2021-09-22 19:45:37.879690,-70
2021-09-22 19:45:37.879696,-65
2021-09-22 19:45:37.879702,-60
2021-09-22 19:45:37.879707,-60
2021-09-22 19:45:37.879713,-60
2021-09-22 19:45:37.879719,-48
2021-09-22 19:45:37.879725,9
2021-09-22 19:45:37.879731,141
2021-09-22 19:45:37.879737,386
2021-09-22 19:45:37.879743,562
2021-09-22 19:45:37.879750,326
2021-09-22 19:45:37.879756,-233
2021-09-22 19:45:37.879763,-671
2021-09-22 19:45:37.879768,-664
2021-09-22 19:45:37.879774,-296
2021-09-22 19:45:37.879780,-68
2021-09-22 19:45:37.879786,-60
2021-09-22 19:45:37.879792,12
2021-09-22 19:45:37.879798,87
2021-09-22 19:45:37.879804,72
2021-09-22 19:45:37.879810,80
2021-09-22 19:45:37.879815,111
2021-09-22 19:45:37.879821,111
2021-09-22 19:45:37.879827,114
2021-09-22 19:45:37.879833,136
2021-09-22 19:45:38.149544,153
2021-09-22 19:45:38.149565,160
2021-09-22 19:45:38.149572,170
2021-09-22 19:45:38.149578,175
2021-09-22 19:45:38.149584,187
2021-09-22 19:45:38.149590,211
2021-09-22 19:45:38.149596,236
2021-09-22 19:45:38.149602,257
2021-09-22 19:45:38.149608,279
2021-09-22 19:45:38.149613,296
2021-09-22 19:45:38.149619,318
2021-09-22 19:45:38.149625,343
2021-09-22 19:45:38.149631,357
2021-09-22 19:45:38.149637,357
2021-09-22 19:45:38.149642,347
2021-09-22 19:45:38.149648,323
2021-09-22 19:45:38.149654,287
2021-09-22 19:45:38.149660,236
2021-09-22 19:45:38.149666,160
2021-09-22 19:45:38.149672,70
2021-09-22 19:45:38.149678,-19
2021-09-22 19:45:38.149684,-97
2021-09-22 19:45:38.149689,-148
2021-09-22 19:45:38.149695,-182
2021-09-22 19:45:38.149701,-206
2021-09-22 19:45:38.149707,-214
2021-09-22 19:45:38.149713,-216
2021-09-22 19:45:38.149719,-214
2021-09-22 19:45:38.149725,-204
2021-09-22 19:45:38.149730,-187
2021-09-22 19:45:38.418216,-175
2021-09-22 19:45:38.418237,-160
2021-09-22 19:45:38.418244,-148
2021-09-22 19:45:38.418250,-141
2021-09-22 19:45:38.418256,-131
2021-09-22 19:45:38.418262,-116
2021-09-22 19:45:38.418268,-109
2021-09-22 19:45:38.418275,-104
2021-09-22 19:45:38.418280,-107
2021-09-22 19:45:38.418286,-109
2021-09-22 19:45:38.418292,-102
2021-09-22 19:45:38.418298,-94
2021-09-22 19:45:38.418304,-92
2021-09-22 19:45:38.418309,-92
2021-09-22 19:45:38.418315,-99
2021-09-22 19:45:38.418321,-107
2021-09-22 19:45:38.418327,-102
2021-09-22 19:45:38.418333,-97
2021-09-22 19:45:38.418339,-94
2021-09-22 19:45:38.418344,-92
2021-09-22 19:45:38.418350,-92
2021-09-22 19:45:38.418356,-94
2021-09-22 19:45:38.418362,-94
2021-09-22 19:45:38.418367,-94
2021-09-22 19:45:38.418373,-90
2021-09-22 19:45:38.418379,-85
2021-09-22 19:45:38.418384,-92
2021-09-22 19:45:38.418390,-104
2021-09-22 19:45:38.418396,-107
2021-09-22 19:45:38.418402,-97
2021-09-22 19:45:38.599499,-90
2021-09-22 19:45:38.599520,-90
2021-09-22 19:45:38.599527,-90
2021-09-22 19:45:38.599534,-85
2021-09-22 19:45:38.599540,-80
2021-09-22 19:45:38.599546,-72
2021-09-22 19:45:38.599552,-72
2021-09-22 19:45:38.599558,-77
2021-09-22 19:45:38.599564,-87
2021-09-22 19:45:38.599570,-87
2021-09-22 19:45:38.599575,-85
2021-09-22 19:45:38.599582,-82
2021-09-22 19:45:38.599588,-80
2021-09-22 19:45:38.599593,-80
2021-09-22 19:45:38.599599,-87
2021-09-22 19:45:38.599605,-85
2021-09-22 19:45:38.599611,-80
2021-09-22 19:45:38.599617,-80
2021-09-22 19:45:38.599623,-68
2021-09-22 19:45:38.599628,-48
2021-09-22 19:45:38.599634,-31
2021-09-22 19:45:38.599640,-31
2021-09-22 19:45:38.599645,-31
2021-09-22 19:45:38.599651,-17
2021-09-22 19:45:38.599657,-26
2021-09-22 19:45:38.599663,-58
2021-09-22 19:45:38.599668,-72
2021-09-22 19:45:38.599674,-70
2021-09-22 19:45:38.599680,-65
2021-09-22 19:45:38.599686,-60
2021-09-22 19:45:38.824522,-58
2021-09-22 19:45:38.824541,-58
2021-09-22 19:45:38.824548,-58
2021-09-22 19:45:38.824554,-53
2021-09-22 19:45:38.824559,-38
2021-09-22 19:45:38.824564,0
2021-09-22 19:45:38.824569,92
2021-09-22 19:45:38.824574,279
2021-09-22 19:45:38.824579,525
2021-09-22 19:45:38.824584,486
2021-09-22 19:45:38.824589,17
2021-09-22 19:45:38.824594,-532
2021-09-22 19:45:38.824599,-732
2021-09-22 19:45:38.824605,-455
2021-09-22 19:45:38.824610,-116
2021-09-22 19:45:38.824615,-46
2021-09-22 19:45:38.824621,-2
2021-09-22 19:45:38.824626,97
2021-09-22 19:45:38.824631,104
2021-09-22 19:45:38.824636,87
2021-09-22 19:45:38.824642,119
2021-09-22 19:45:38.824647,136
2021-09-22 19:45:38.824652,136
2021-09-22 19:45:38.824657,150
2021-09-22 19:45:38.824662,165
2021-09-22 19:45:38.824667,172
2021-09-22 19:45:38.824672,180
2021-09-22 19:45:38.824678,189
2021-09-22 19:45:38.824683,204
2021-09-22 19:45:38.824688,226
2021-09-22 19:45:39.139645,243
2021-09-22 19:45:39.139665,260
2021-09-22 19:45:39.139672,274
2021-09-22 19:45:39.139678,289
2021-09-22 19:45:39.139684,313
2021-09-22 19:45:39.139690,340
2021-09-22 19:45:39.139696,350
2021-09-22 19:45:39.139702,350
2021-09-22 19:45:39.139708,347
2021-09-22 19:45:39.139714,333
2021-09-22 19:45:39.139719,304
2021-09-22 19:45:39.139725,257
2021-09-22 19:45:39.139731,184
2021-09-22 19:45:39.139737,97
2021-09-22 19:45:39.139743,12
2021-09-22 19:45:39.139748,-63
2021-09-22 19:45:39.139754,-124
2021-09-22 19:45:39.139760,-167
2021-09-22 19:45:39.139766,-199
2021-09-22 19:45:39.139772,-214
2021-09-22 19:45:39.139778,-218
2021-09-22 19:45:39.139784,-216
2021-09-22 19:45:39.139790,-206
2021-09-22 19:45:39.139795,-194
2021-09-22 19:45:39.139801,-184
2021-09-22 19:45:39.139807,-170
2021-09-22 19:45:39.139813,-155
2021-09-22 19:45:39.139819,-145
2021-09-22 19:45:39.139824,-138
2021-09-22 19:45:39.139830,-133
2021-09-22 19:45:39.274351,-126
2021-09-22 19:45:39.274369,-114
2021-09-22 19:45:39.274376,-109
2021-09-22 19:45:39.274382,-107
2021-09-22 19:45:39.274388,-99
2021-09-22 19:45:39.274394,-94
2021-09-22 19:45:39.274400,-92
2021-09-22 19:45:39.274406,-87
2021-09-22 19:45:39.274412,-85
2021-09-22 19:45:39.274418,-87
2021-09-22 19:45:39.274424,-85
2021-09-22 19:45:39.274430,-82
2021-09-22 19:45:39.274436,-85
2021-09-22 19:45:39.274441,-85
2021-09-22 19:45:39.274447,-87
2021-09-22 19:45:39.274453,-85
2021-09-22 19:45:39.274459,-85
2021-09-22 19:45:39.274465,-90
2021-09-22 19:45:39.274471,-90
2021-09-22 19:45:39.274477,-82
2021-09-22 19:45:39.274482,-77
2021-09-22 19:45:39.274488,-80
2021-09-22 19:45:39.274494,-80
2021-09-22 19:45:39.274500,-85
2021-09-22 19:45:39.274506,-87
2021-09-22 19:45:39.274511,-82
2021-09-22 19:45:39.274517,-85
2021-09-22 19:45:39.274523,-90
2021-09-22 19:45:39.274529,-85
2021-09-22 19:45:39.274535,-82
2021-09-22 19:45:39.499504,-85
2021-09-22 19:45:39.499525,-85
2021-09-22 19:45:39.499532,-82
2021-09-22 19:45:39.499538,-80
2021-09-22 19:45:39.499544,-82
2021-09-22 19:45:39.499550,-85
2021-09-22 19:45:39.499556,-80
2021-09-22 19:45:39.499563,-75
2021-09-22 19:45:39.499569,-82
2021-09-22 19:45:39.499575,-94
2021-09-22 19:45:39.499580,-99
2021-09-22 19:45:39.499586,-99
2021-09-22 19:45:39.499592,-87
2021-09-22 19:45:39.499598,-60
2021-09-22 19:45:39.499604,-38
2021-09-22 19:45:39.499610,-36
2021-09-22 19:45:39.499616,-34
2021-09-22 19:45:39.499622,-26
2021-09-22 19:45:39.499628,-41
2021-09-22 19:45:39.499633,-58
2021-09-22 19:45:39.499639,-60
2021-09-22 19:45:39.499645,-55
2021-09-22 19:45:39.499650,-58
2021-09-22 19:45:39.499656,-53
2021-09-22 19:45:39.499662,-48
2021-09-22 19:45:39.499668,-46
2021-09-22 19:45:39.499674,-41
2021-09-22 19:45:39.499679,-38
2021-09-22 19:45:39.499685,-24
2021-09-22 19:45:39.499691,26
2021-09-22 19:45:39.724593,145
2021-09-22 19:45:39.724614,377
2021-09-22 19:45:39.724622,571
2021-09-22 19:45:39.724628,379
2021-09-22 19:45:39.724634,-175
2021-09-22 19:45:39.724640,-649
2021-09-22 19:45:39.724647,-683
2021-09-22 19:45:39.724653,-323
2021-09-22 19:45:39.724658,-60
2021-09-22 19:45:39.724664,-41
2021-09-22 19:45:39.724670,24
2021-09-22 19:45:39.724676,104
2021-09-22 19:45:39.724682,94
2021-09-22 19:45:39.724688,97
2021-09-22 19:45:39.724694,128
2021-09-22 19:45:39.724700,133
2021-09-22 19:45:39.724705,133
2021-09-22 19:45:39.724711,155
2021-09-22 19:45:39.724717,170
2021-09-22 19:45:39.724723,177
2021-09-22 19:45:39.724729,189
2021-09-22 19:45:39.724734,201
2021-09-22 19:45:39.724740,214
2021-09-22 19:45:39.724746,236
2021-09-22 19:45:39.724752,257
2021-09-22 19:45:39.724757,279
2021-09-22 19:45:39.724763,301
2021-09-22 19:45:39.724769,323
2021-09-22 19:45:39.724775,345
2021-09-22 19:45:39.724781,367
2021-09-22 19:45:39.994587,382
2021-09-22 19:45:39.994608,384
2021-09-22 19:45:39.994615,372
2021-09-22 19:45:39.994621,345
2021-09-22 19:45:39.994657,301
2021-09-22 19:45:39.994663,245
2021-09-22 19:45:39.994669,172
2021-09-22 19:45:39.994675,87
2021-09-22 19:45:39.994681,-2
2021-09-22 19:45:39.994686,-85
2021-09-22 19:45:39.994693,-145
2021-09-22 19:45:39.994699,-182
2021-09-22 19:45:39.994704,-201
2021-09-22 19:45:39.994710,-214
2021-09-22 19:45:39.994716,-228
2021-09-22 19:45:39.994722,-238
2021-09-22 19:45:39.994728,-228
2021-09-22 19:45:39.994733,-206
2021-09-22 19:45:39.994739,-194
2021-09-22 19:45:39.994745,-182
2021-09-22 19:45:39.994751,-167
2021-09-22 19:45:39.994757,-158
2021-09-22 19:45:39.994762,-145
2021-09-22 19:45:39.994768,-133
2021-09-22 19:45:39.994774,-124
2021-09-22 19:45:39.994780,-114
2021-09-22 19:45:39.994785,-109
2021-09-22 19:45:39.994791,-109
2021-09-22 19:45:39.994797,-102
2021-09-22 19:45:39.994803,-94
2021-09-22 19:45:40.309572,-92
2021-09-22 19:45:40.309593,-94
2021-09-22 19:45:40.309600,-99
2021-09-22 19:45:40.309607,-102
2021-09-22 19:45:40.309613,-99
2021-09-22 19:45:40.309619,-94
2021-09-22 19:45:40.309625,-94
2021-09-22 19:45:40.309630,-99
2021-09-22 19:45:40.309636,-107
2021-09-22 19:45:40.309643,-111
2021-09-22 19:45:40.309648,-107
2021-09-22 19:45:40.309654,-104
2021-09-22 19:45:40.309660,-104
2021-09-22 19:45:40.309666,-107
2021-09-22 19:45:40.309672,-114
2021-09-22 19:45:40.309678,-121
2021-09-22 19:45:40.309684,-111
2021-09-22 19:45:40.309690,-104
2021-09-22 19:45:40.309696,-102
2021-09-22 19:45:40.309702,-99
2021-09-22 19:45:40.309708,-97
2021-09-22 19:45:40.309713,-94
2021-09-22 19:45:40.309719,-90
2021-09-22 19:45:40.309725,-82
2021-09-22 19:45:40.309730,-77
2021-09-22 19:45:40.309736,-75
2021-09-22 19:45:40.309742,-75
2021-09-22 19:45:40.309748,-72
2021-09-22 19:45:40.309753,-68
2021-09-22 19:45:40.309759,-60
2021-09-22 19:45:40.488861,-58
2021-09-22 19:45:40.488882,-55
2021-09-22 19:45:40.488889,-55
2021-09-22 19:45:40.488896,-58
2021-09-22 19:45:40.488902,-60
2021-09-22 19:45:40.488908,-58
2021-09-22 19:45:40.488914,-51
2021-09-22 19:45:40.488919,-29
2021-09-22 19:45:40.488925,-9
2021-09-22 19:45:40.488931,-12
2021-09-22 19:45:40.488937,-12
2021-09-22 19:45:40.488943,-2
2021-09-22 19:45:40.488949,-14
2021-09-22 19:45:40.488955,-41
2021-09-22 19:45:40.488960,-53
2021-09-22 19:45:40.488966,-51
2021-09-22 19:45:40.488972,-46
2021-09-22 19:45:40.488978,-43
2021-09-22 19:45:40.488984,-38
2021-09-22 19:45:40.488989,-41
2021-09-22 19:45:40.488995,-51
2021-09-22 19:45:40.489001,-51
2021-09-22 19:45:40.489006,-29
2021-09-22 19:45:40.489013,17
2021-09-22 19:45:40.489018,119
2021-09-22 19:45:40.489024,328
2021-09-22 19:45:40.489030,549
2021-09-22 19:45:40.489036,428
2021-09-22 19:45:40.489041,-85
2021-09-22 19:45:40.489047,-593
2021-09-22 19:45:40.714549,-695
2021-09-22 19:45:40.714569,-364
2021-09-22 19:45:40.714577,-70
2021-09-22 19:45:40.714583,-29
2021-09-22 19:45:40.714589,31
2021-09-22 19:45:40.714595,121
2021-09-22 19:45:40.714601,114
2021-09-22 19:45:40.714607,99
2021-09-22 19:45:40.714613,128
2021-09-22 19:45:40.714619,141
2021-09-22 19:45:40.714625,138
2021-09-22 19:45:40.714630,150
2021-09-22 19:45:40.714636,160
2021-09-22 19:45:40.714642,163
2021-09-22 19:45:40.714648,172
2021-09-22 19:45:40.714654,192
2021-09-22 19:45:40.714660,206
2021-09-22 19:45:40.714666,226
2021-09-22 19:45:40.714671,243
2021-09-22 19:45:40.714677,257
2021-09-22 19:45:40.714683,279
2021-09-22 19:45:40.714689,306
2021-09-22 19:45:40.714695,333
2021-09-22 19:45:40.714701,355
2021-09-22 19:45:40.714706,369
2021-09-22 19:45:40.714712,372
2021-09-22 19:45:40.714718,364
2021-09-22 19:45:40.714724,347
2021-09-22 19:45:40.714729,316
2021-09-22 19:45:40.714735,270
2021-09-22 19:45:40.894688,197
2021-09-22 19:45:40.894709,107
2021-09-22 19:45:40.894716,19
2021-09-22 19:45:40.894723,-55
2021-09-22 19:45:40.894729,-114
2021-09-22 19:45:40.894735,-158
2021-09-22 19:45:40.894741,-192
2021-09-22 19:45:40.894747,-211
2021-09-22 19:45:40.894753,-214
2021-09-22 19:45:40.894758,-209
2021-09-22 19:45:40.894764,-201
2021-09-22 19:45:40.894770,-187
2021-09-22 19:45:40.894776,-172
2021-09-22 19:45:40.894782,-167
2021-09-22 19:45:40.894787,-160
2021-09-22 19:45:40.894793,-145
2021-09-22 19:45:40.894799,-133
2021-09-22 19:45:40.894805,-126
2021-09-22 19:45:40.894811,-121
2021-09-22 19:45:40.894817,-116
2021-09-22 19:45:40.894823,-107
2021-09-22 19:45:40.894828,-102
2021-09-22 19:45:40.894834,-102
2021-09-22 19:45:40.894841,-102
2021-09-22 19:45:40.894847,-104
2021-09-22 19:45:40.894853,-111
2021-09-22 19:45:40.894858,-114
2021-09-22 19:45:40.894864,-109
2021-09-22 19:45:40.894870,-104
2021-09-22 19:45:40.894876,-104
2021-09-22 19:45:41.119601,-102
2021-09-22 19:45:41.119622,-97
2021-09-22 19:45:41.119629,-97
2021-09-22 19:45:41.119635,-102
2021-09-22 19:45:41.119641,-104
2021-09-22 19:45:41.119647,-107
2021-09-22 19:45:41.119653,-114
2021-09-22 19:45:41.119659,-109
2021-09-22 19:45:41.119665,-104
2021-09-22 19:45:41.119671,-102
2021-09-22 19:45:41.119677,-99
2021-09-22 19:45:41.119683,-99
2021-09-22 19:45:41.119689,-102
2021-09-22 19:45:41.119695,-94
2021-09-22 19:45:41.119701,-92
2021-09-22 19:45:41.119707,-97
2021-09-22 19:45:41.119713,-97
2021-09-22 19:45:41.119718,-90
2021-09-22 19:45:41.119724,-87
2021-09-22 19:45:41.119730,-82
2021-09-22 19:45:41.119736,-77
2021-09-22 19:45:41.119742,-75
2021-09-22 19:45:41.119748,-70
2021-09-22 19:45:41.119754,-68
2021-09-22 19:45:41.119760,-65
2021-09-22 19:45:41.119765,-58
2021-09-22 19:45:41.119771,-55
2021-09-22 19:45:41.119777,-63
2021-09-22 19:45:41.119783,-68
2021-09-22 19:45:41.119789,-58
2021-09-22 19:45:41.344547,-36
2021-09-22 19:45:41.344568,-12
2021-09-22 19:45:41.344575,-4
2021-09-22 19:45:41.344581,-4
2021-09-22 19:45:41.344588,-2
2021-09-22 19:45:41.344593,-19
2021-09-22 19:45:41.344599,-43
2021-09-22 19:45:41.344605,-43
2021-09-22 19:45:41.344611,-38
2021-09-22 19:45:41.344617,-41
2021-09-22 19:45:41.344623,-43
2021-09-22 19:45:41.344629,-46
2021-09-22 19:45:41.344635,-43
2021-09-22 19:45:41.344641,-36
2021-09-22 19:45:41.344647,-31
2021-09-22 19:45:41.344652,-21
2021-09-22 19:45:41.344658,24
2021-09-22 19:45:41.344665,124
2021-09-22 19:45:41.344670,330
2021-09-22 19:45:41.344676,566
2021-09-22 19:45:41.344682,464
2021-09-22 19:45:41.344688,-55
2021-09-22 19:45:41.344694,-583
2021-09-22 19:45:41.344700,-703
2021-09-22 19:45:41.344706,-372
2021-09-22 19:45:41.344712,-65
2021-09-22 19:45:41.344718,-19
2021-09-22 19:45:41.344723,36
2021-09-22 19:45:41.344729,126
2021-09-22 19:45:41.344735,119
2021-09-22 19:45:41.569584,102
2021-09-22 19:45:41.569605,128
2021-09-22 19:45:41.569612,143
2021-09-22 19:45:41.569618,141
2021-09-22 19:45:41.569624,148
2021-09-22 19:45:41.569630,155
2021-09-22 19:45:41.569636,167
2021-09-22 19:45:41.569642,184
2021-09-22 19:45:41.569647,197
2021-09-22 19:45:41.569653,209
2021-09-22 19:45:41.569659,216
2021-09-22 19:45:41.569665,233
2021-09-22 19:45:41.569671,262
2021-09-22 19:45:41.569677,287
2021-09-22 19:45:41.569683,311
2021-09-22 19:45:41.569688,333
2021-09-22 19:45:41.569694,355
2021-09-22 19:45:41.569700,369
2021-09-22 19:45:41.569706,374
2021-09-22 19:45:41.569712,364
2021-09-22 19:45:41.569718,340
2021-09-22 19:45:41.569723,311
2021-09-22 19:45:41.569729,265
2021-09-22 19:45:41.569735,194
2021-09-22 19:45:41.569741,107
2021-09-22 19:45:41.569746,21
2021-09-22 19:45:41.569752,-53
2021-09-22 19:45:41.569758,-119
2021-09-22 19:45:41.569764,-165
2021-09-22 19:45:41.569770,-189
2021-09-22 19:45:41.839916,-204
2021-09-22 19:45:41.839943,-206
2021-09-22 19:45:41.839951,-206
2021-09-22 19:45:41.839957,-206
2021-09-22 19:45:41.839964,-204
2021-09-22 19:45:41.839970,-184
2021-09-22 19:45:41.839976,-167
2021-09-22 19:45:41.839982,-155
2021-09-22 19:45:41.839989,-145
2021-09-22 19:45:41.839995,-141
2021-09-22 19:45:41.840001,-136
2021-09-22 19:45:41.840007,-121
2021-09-22 19:45:41.840013,-109
2021-09-22 19:45:41.840019,-104
2021-09-22 19:45:41.840025,-99
2021-09-22 19:45:41.840031,-99
2021-09-22 19:45:41.840037,-99
2021-09-22 19:45:41.840043,-97
2021-09-22 19:45:41.840049,-94
2021-09-22 19:45:41.840055,-92
2021-09-22 19:45:41.840061,-92
2021-09-22 19:45:41.840067,-99
2021-09-22 19:45:41.840073,-102
2021-09-22 19:45:41.840079,-94
2021-09-22 19:45:41.840085,-90
2021-09-22 19:45:41.840091,-87
2021-09-22 19:45:41.840096,-90
2021-09-22 19:45:41.840102,-97
2021-09-22 19:45:41.840108,-99
2021-09-22 19:45:41.840114,-94
2021-09-22 19:45:42.064595,-94
2021-09-22 19:45:42.064615,-94
2021-09-22 19:45:42.064623,-92
2021-09-22 19:45:42.064629,-92
2021-09-22 19:45:42.064636,-92
2021-09-22 19:45:42.064641,-90
2021-09-22 19:45:42.064647,-97
2021-09-22 19:45:42.064653,-97
2021-09-22 19:45:42.064659,-94
2021-09-22 19:45:42.064665,-99
2021-09-22 19:45:42.064671,-94
2021-09-22 19:45:42.064677,-82
2021-09-22 19:45:42.064683,-80
2021-09-22 19:45:42.064689,-80
2021-09-22 19:45:42.064695,-80
2021-09-22 19:45:42.064701,-85
2021-09-22 19:45:42.064707,-80
2021-09-22 19:45:42.064713,-70
2021-09-22 19:45:42.064719,-65
2021-09-22 19:45:42.064724,-68
2021-09-22 19:45:42.064730,-70
2021-09-22 19:45:42.064736,-65
2021-09-22 19:45:42.064742,-46
2021-09-22 19:45:42.064748,-26
2021-09-22 19:45:42.064754,-26
2021-09-22 19:45:42.064759,-26
2021-09-22 19:45:42.064765,-14
2021-09-22 19:45:42.064771,-19
2021-09-22 19:45:42.064777,-41
2021-09-22 19:45:42.064783,-51
2021-09-22 19:45:42.289628,-51
2021-09-22 19:45:42.289649,-51
2021-09-22 19:45:42.289656,-51
2021-09-22 19:45:42.289663,-51
2021-09-22 19:45:42.289669,-48
2021-09-22 19:45:42.289675,-43
2021-09-22 19:45:42.289681,-38
2021-09-22 19:45:42.289687,-31
2021-09-22 19:45:42.289693,-4
2021-09-22 19:45:42.289699,75
2021-09-22 19:45:42.289706,265
2021-09-22 19:45:42.289712,520
2021-09-22 19:45:42.289718,515
2021-09-22 19:45:42.289724,63
2021-09-22 19:45:42.289730,-510
2021-09-22 19:45:42.289736,-742
2021-09-22 19:45:42.289742,-469
2021-09-22 19:45:42.289748,-119
2021-09-22 19:45:42.289754,-36
2021-09-22 19:45:42.289760,2
2021-09-22 19:45:42.289766,97
2021-09-22 19:45:42.289772,111
2021-09-22 19:45:42.289778,97
2021-09-22 19:45:42.289783,131
2021-09-22 19:45:42.289789,150
2021-09-22 19:45:42.289795,143
2021-09-22 19:45:42.289801,153
2021-09-22 19:45:42.289807,167
2021-09-22 19:45:42.289813,180
2021-09-22 19:45:42.289819,192
2021-09-22 19:45:42.558235,206
2021-09-22 19:45:42.558256,218
2021-09-22 19:45:42.558263,233
2021-09-22 19:45:42.558270,253
2021-09-22 19:45:42.558276,274
2021-09-22 19:45:42.558282,299
2021-09-22 19:45:42.558288,323
2021-09-22 19:45:42.558294,340
2021-09-22 19:45:42.558300,357
2021-09-22 19:45:42.558306,374
2021-09-22 19:45:42.558312,384
2021-09-22 19:45:42.558317,372
2021-09-22 19:45:42.558323,343
2021-09-22 19:45:42.558329,309
2021-09-22 19:45:42.558335,265
2021-09-22 19:45:42.558341,197
2021-09-22 19:45:42.558347,114
2021-09-22 19:45:42.558353,24
2021-09-22 19:45:42.558359,-53
2021-09-22 19:45:42.558365,-116
2021-09-22 19:45:42.558370,-167
2021-09-22 19:45:42.558376,-197
2021-09-22 19:45:42.558382,-214
2021-09-22 19:45:42.558388,-218
2021-09-22 19:45:42.558393,-216
2021-09-22 19:45:42.558399,-206
2021-09-22 19:45:42.558405,-197
2021-09-22 19:45:42.558411,-192
2021-09-22 19:45:42.558416,-184
2021-09-22 19:45:42.558422,-165
2021-09-22 19:45:42.739570,-150
2021-09-22 19:45:42.739587,-143
2021-09-22 19:45:42.739594,-131
2021-09-22 19:45:42.739601,-119
2021-09-22 19:45:42.739607,-111
2021-09-22 19:45:42.739613,-104
2021-09-22 19:45:42.739619,-102
2021-09-22 19:45:42.739625,-104
2021-09-22 19:45:42.739630,-99
2021-09-22 19:45:42.739636,-92
2021-09-22 19:45:42.739642,-92
2021-09-22 19:45:42.739648,-94
2021-09-22 19:45:42.739654,-102
2021-09-22 19:45:42.739659,-102
2021-09-22 19:45:42.739665,-99
2021-09-22 19:45:42.739671,-99
2021-09-22 19:45:42.739677,-99
2021-09-22 19:45:42.739682,-97
2021-09-22 19:45:42.739688,-92
2021-09-22 19:45:42.739694,-90
2021-09-22 19:45:42.739700,-85
2021-09-22 19:45:42.739705,-85
2021-09-22 19:45:42.739711,-90
2021-09-22 19:45:42.739717,-87
2021-09-22 19:45:42.739723,-87
2021-09-22 19:45:42.739728,-87
2021-09-22 19:45:42.739734,-85
2021-09-22 19:45:42.739740,-80
2021-09-22 19:45:42.739745,-77
2021-09-22 19:45:42.739751,-75
2021-09-22 19:45:42.964643,-77
2021-09-22 19:45:42.964664,-72
2021-09-22 19:45:42.964671,-68
2021-09-22 19:45:42.964677,-65
2021-09-22 19:45:42.964684,-60
2021-09-22 19:45:42.964690,-60
2021-09-22 19:45:42.964695,-68
2021-09-22 19:45:42.964701,-65
2021-09-22 19:45:42.964707,-55
2021-09-22 19:45:42.964713,-48
2021-09-22 19:45:42.964719,-31
2021-09-22 19:45:42.964725,-17
2021-09-22 19:45:42.964731,-24
2021-09-22 19:45:42.964736,-21
2021-09-22 19:45:42.964742,-2
2021-09-22 19:45:42.964748,-7
2021-09-22 19:45:42.964754,-34
2021-09-22 19:45:42.964760,-51
2021-09-22 19:45:42.964765,-55
2021-09-22 19:45:42.964771,-51
2021-09-22 19:45:42.964777,-43
2021-09-22 19:45:42.964783,-43
2021-09-22 19:45:42.964788,-41
2021-09-22 19:45:42.964794,-41
2021-09-22 19:45:42.964800,-38
2021-09-22 19:45:42.964805,-17
2021-09-22 19:45:42.964811,41
2021-09-22 19:45:42.964817,150
2021-09-22 19:45:42.964823,369
2021-09-22 19:45:42.964829,583
2021-09-22 19:45:43.189593,440
2021-09-22 19:45:43.189615,-102
2021-09-22 19:45:43.189622,-615
2021-09-22 19:45:43.189629,-683
2021-09-22 19:45:43.189635,-333
2021-09-22 19:45:43.189641,-70
2021-09-22 19:45:43.189647,-38
2021-09-22 19:45:43.189653,38
2021-09-22 19:45:43.189659,133
2021-09-22 19:45:43.189665,124
2021-09-22 19:45:43.189671,116
2021-09-22 19:45:43.189677,143
2021-09-22 19:45:43.189683,150
2021-09-22 19:45:43.189689,155
2021-09-22 19:45:43.189695,180
2021-09-22 19:45:43.189701,192
2021-09-22 19:45:43.189707,197
2021-09-22 19:45:43.189713,214
2021-09-22 19:45:43.189719,231
2021-09-22 19:45:43.189725,245
2021-09-22 19:45:43.189731,265
2021-09-22 19:45:43.189737,289
2021-09-22 19:45:43.189743,311
2021-09-22 19:45:43.189748,333
2021-09-22 19:45:43.189754,360
2021-09-22 19:45:43.189760,391
2021-09-22 19:45:43.189766,411
2021-09-22 19:45:43.189772,420
2021-09-22 19:45:43.189778,425
2021-09-22 19:45:43.189784,418
2021-09-22 19:45:43.414531,391
2021-09-22 19:45:43.414550,352
2021-09-22 19:45:43.414558,299
2021-09-22 19:45:43.414564,211
2021-09-22 19:45:43.414570,102
2021-09-22 19:45:43.414576,12
2021-09-22 19:45:43.414582,-53
2021-09-22 19:45:43.414588,-111
2021-09-22 19:45:43.414594,-155
2021-09-22 19:45:43.414600,-180
2021-09-22 19:45:43.414606,-197
2021-09-22 19:45:43.414612,-204
2021-09-22 19:45:43.414618,-194
2021-09-22 19:45:43.414624,-184
2021-09-22 19:45:43.414630,-180
2021-09-22 19:45:43.414635,-167
2021-09-22 19:45:43.414641,-153
2021-09-22 19:45:43.414647,-141
2021-09-22 19:45:43.414652,-128
2021-09-22 19:45:43.414658,-114
2021-09-22 19:45:43.414664,-102
2021-09-22 19:45:43.414670,-97
2021-09-22 19:45:43.414675,-92
2021-09-22 19:45:43.414681,-94
2021-09-22 19:45:43.414687,-99
2021-09-22 19:45:43.414693,-90
2021-09-22 19:45:43.414698,-80
2021-09-22 19:45:43.414704,-85
2021-09-22 19:45:43.414710,-85
2021-09-22 19:45:43.414716,-77
2021-09-22 19:45:43.639633,-70
2021-09-22 19:45:43.639655,-68
2021-09-22 19:45:43.639662,-70
2021-09-22 19:45:43.639668,-75
2021-09-22 19:45:43.639674,-82
2021-09-22 19:45:43.639680,-90
2021-09-22 19:45:43.639686,-92
2021-09-22 19:45:43.639692,-85
2021-09-22 19:45:43.639698,-80
2021-09-22 19:45:43.639704,-90
2021-09-22 19:45:43.639710,-92
2021-09-22 19:45:43.639716,-82
2021-09-22 19:45:43.639722,-72
2021-09-22 19:45:43.639728,-72
2021-09-22 19:45:43.639734,-72
2021-09-22 19:45:43.639739,-70
2021-09-22 19:45:43.639745,-72
2021-09-22 19:45:43.639751,-68
2021-09-22 19:45:43.639757,-68
2021-09-22 19:45:43.639763,-70
2021-09-22 19:45:43.639769,-70
2021-09-22 19:45:43.639774,-68
2021-09-22 19:45:43.639780,-63
2021-09-22 19:45:43.639786,-41
2021-09-22 19:45:43.639792,-19
2021-09-22 19:45:43.639798,-17
2021-09-22 19:45:43.639804,-19
2021-09-22 19:45:43.639809,-12
2021-09-22 19:45:43.639815,-17
2021-09-22 19:45:43.639821,-36
2021-09-22 19:45:43.909665,-46
2021-09-22 19:45:43.909687,-43
2021-09-22 19:45:43.909694,-43
2021-09-22 19:45:43.909700,-48
2021-09-22 19:45:43.909706,-46
2021-09-22 19:45:43.909712,-46
2021-09-22 19:45:43.909718,-41
2021-09-22 19:45:43.909725,-36
2021-09-22 19:45:43.909732,-26
2021-09-22 19:45:43.909738,17
2021-09-22 19:45:43.909744,116
2021-09-22 19:45:43.909750,296
2021-09-22 19:45:43.909756,479
2021-09-22 19:45:43.909762,360
2021-09-22 19:45:43.909768,-124
2021-09-22 19:45:43.909774,-613
2021-09-22 19:45:43.909779,-715
2021-09-22 19:45:43.909785,-384
2021-09-22 19:45:43.909791,-87
2021-09-22 19:45:43.909797,-38
2021-09-22 19:45:43.909803,21
2021-09-22 19:45:43.909809,119
2021-09-22 19:45:43.909815,128
2021-09-22 19:45:43.909821,124
2021-09-22 19:45:43.909827,158
2021-09-22 19:45:43.909832,170
2021-09-22 19:45:43.909838,160
2021-09-22 19:45:43.909844,170
2021-09-22 19:45:43.909850,182
2021-09-22 19:45:43.909856,182
2021-09-22 19:45:44.179016,192
2021-09-22 19:45:44.179038,214
2021-09-22 19:45:44.179045,228
2021-09-22 19:45:44.179051,238
2021-09-22 19:45:44.179057,262
2021-09-22 19:45:44.179063,291
2021-09-22 19:45:44.179069,323
2021-09-22 19:45:44.179075,350
2021-09-22 19:45:44.179081,369
2021-09-22 19:45:44.179087,377
2021-09-22 19:45:44.179093,391
2021-09-22 19:45:44.179099,396
2021-09-22 19:45:44.179105,386
2021-09-22 19:45:44.179111,362
2021-09-22 19:45:44.179117,318
2021-09-22 19:45:44.179123,255
2021-09-22 19:45:44.179129,175
2021-09-22 19:45:44.179135,87
2021-09-22 19:45:44.179140,-2
2021-09-22 19:45:44.179146,-80
2021-09-22 19:45:44.179152,-136
2021-09-22 19:45:44.179158,-175
2021-09-22 19:45:44.179163,-199
2021-09-22 19:45:44.179169,-209
2021-09-22 19:45:44.179175,-211
2021-09-22 19:45:44.179181,-206
2021-09-22 19:45:44.179186,-201
2021-09-22 19:45:44.179192,-189
2021-09-22 19:45:44.179198,-175
2021-09-22 19:45:44.179204,-163
2021-09-22 19:45:44.359564,-150
2021-09-22 19:45:44.359585,-138
2021-09-22 19:45:44.359592,-128
2021-09-22 19:45:44.359599,-121
2021-09-22 19:45:44.359605,-114
2021-09-22 19:45:44.359611,-104
2021-09-22 19:45:44.359616,-97
2021-09-22 19:45:44.359622,-99
2021-09-22 19:45:44.359628,-104
2021-09-22 19:45:44.359634,-99
2021-09-22 19:45:44.359640,-90
2021-09-22 19:45:44.359646,-92
2021-09-22 19:45:44.359652,-99
2021-09-22 19:45:44.359658,-102
2021-09-22 19:45:44.359663,-97
2021-09-22 19:45:44.359669,-97
2021-09-22 19:45:44.359675,-97
2021-09-22 19:45:44.359681,-92
2021-09-22 19:45:44.359687,-90
2021-09-22 19:45:44.359693,-92
2021-09-22 19:45:44.359698,-90
2021-09-22 19:45:44.359704,-85
2021-09-22 19:45:44.359710,-82
2021-09-22 19:45:44.359716,-80
2021-09-22 19:45:44.359721,-77
2021-09-22 19:45:44.359727,-72
2021-09-22 19:45:44.359733,-72
2021-09-22 19:45:44.359739,-75
2021-09-22 19:45:44.359745,-72
2021-09-22 19:45:44.359751,-70
2021-09-22 19:45:44.628230,-70
2021-09-22 19:45:44.628251,-70
2021-09-22 19:45:44.628259,-68
