Time,ECG
2021-09-22 19:57:50.038879,-274
2021-09-22 19:57:50.038900,-270
2021-09-22 19:57:50.038907,-257
2021-09-22 19:57:50.038913,-248
2021-09-22 19:57:50.038919,-238
2021-09-22 19:57:50.038925,-228
2021-09-22 19:57:50.038931,-223
2021-09-22 19:57:50.038937,-214
2021-09-22 19:57:50.038943,-199
2021-09-22 19:57:50.038950,-187
2021-09-22 19:57:50.038956,-180
2021-09-22 19:57:50.038961,-177
2021-09-22 19:57:50.038967,-170
2021-09-22 19:57:50.038973,-158
2021-09-22 19:57:50.038979,-148
2021-09-22 19:57:50.038984,-143
2021-09-22 19:57:50.038990,-136
2021-09-22 19:57:50.038996,-131
2021-09-22 19:57:50.039002,-141
2021-09-22 19:57:50.039008,-143
2021-09-22 19:57:50.039014,-136
2021-09-22 19:57:50.039019,-141
2021-09-22 19:57:50.039025,-148
2021-09-22 19:57:50.039031,-143
2021-09-22 19:57:50.039037,-138
2021-09-22 19:57:50.039043,-136
2021-09-22 19:57:50.039048,-131
2021-09-22 19:57:50.039054,-126
2021-09-22 19:57:50.039060,-121
2021-09-22 19:57:50.039066,-119
2021-09-22 19:57:50.308358,-114
2021-09-22 19:57:50.308379,-107
2021-09-22 19:57:50.308386,-102
2021-09-22 19:57:50.308392,-99
2021-09-22 19:57:50.308398,-99
2021-09-22 19:57:50.308433,-99
2021-09-22 19:57:50.308440,-92
2021-09-22 19:57:50.308446,-85
2021-09-22 19:57:50.308452,-82
2021-09-22 19:57:50.308457,-82
2021-09-22 19:57:50.308464,-82
2021-09-22 19:57:50.308470,-82
2021-09-22 19:57:50.308476,-77
2021-09-22 19:57:50.308482,-70
2021-09-22 19:57:50.308488,-68
2021-09-22 19:57:50.308494,-65
2021-09-22 19:57:50.308499,-63
2021-09-22 19:57:50.308506,-63
2021-09-22 19:57:50.308511,-55
2021-09-22 19:57:50.308517,-48
2021-09-22 19:57:50.308523,-51
2021-09-22 19:57:50.308529,-48
2021-09-22 19:57:50.308535,-46
2021-09-22 19:57:50.308541,-48
2021-09-22 19:57:50.308547,-48
2021-09-22 19:57:50.308553,-41
2021-09-22 19:57:50.308558,-38
2021-09-22 19:57:50.308564,-36
2021-09-22 19:57:50.308570,-31
2021-09-22 19:57:50.308576,-29
2021-09-22 19:57:50.532607,-29
2021-09-22 19:57:50.532628,-24
2021-09-22 19:57:50.532636,-9
2021-09-22 19:57:50.532642,2
2021-09-22 19:57:50.532648,4
2021-09-22 19:57:50.532654,-2
2021-09-22 19:57:50.532660,4
2021-09-22 19:57:50.532666,17
2021-09-22 19:57:50.532672,4
2021-09-22 19:57:50.532678,-14
2021-09-22 19:57:50.532684,-26
2021-09-22 19:57:50.532690,-34
2021-09-22 19:57:50.532696,-29
2021-09-22 19:57:50.532702,-24
2021-09-22 19:57:50.532707,-24
2021-09-22 19:57:50.532713,-29
2021-09-22 19:57:50.532719,-29
2021-09-22 19:57:50.532725,-26
2021-09-22 19:57:50.532731,-14
2021-09-22 19:57:50.532736,21
2021-09-22 19:57:50.532742,111
2021-09-22 19:57:50.532748,287
2021-09-22 19:57:50.532754,537
2021-09-22 19:57:50.532760,576
2021-09-22 19:57:50.532766,192
2021-09-22 19:57:50.532772,-323
2021-09-22 19:57:50.532777,-674
2021-09-22 19:57:50.532783,-625
2021-09-22 19:57:50.532789,-233
2021-09-22 19:57:50.532795,-24
2021-09-22 19:57:50.758894,-31
2021-09-22 19:57:50.758916,58
2021-09-22 19:57:50.758923,128
2021-09-22 19:57:50.758929,94
2021-09-22 19:57:50.758935,99
2021-09-22 19:57:50.758941,141
2021-09-22 19:57:50.758947,145
2021-09-22 19:57:50.758953,148
2021-09-22 19:57:50.758959,165
2021-09-22 19:57:50.758965,165
2021-09-22 19:57:50.758971,167
2021-09-22 19:57:50.758977,187
2021-09-22 19:57:50.758983,209
2021-09-22 19:57:50.758989,223
2021-09-22 19:57:50.758995,240
2021-09-22 19:57:50.759001,257
2021-09-22 19:57:50.759007,282
2021-09-22 19:57:50.759013,316
2021-09-22 19:57:50.759019,352
2021-09-22 19:57:50.759025,389
2021-09-22 19:57:50.759031,423
2021-09-22 19:57:50.759037,452
2021-09-22 19:57:50.759043,476
2021-09-22 19:57:50.759049,493
2021-09-22 19:57:50.759054,496
2021-09-22 19:57:50.759060,476
2021-09-22 19:57:50.759066,435
2021-09-22 19:57:50.759072,360
2021-09-22 19:57:50.759078,260
2021-09-22 19:57:50.759084,150
2021-09-22 19:57:51.028295,36
2021-09-22 19:57:51.028315,-68
2021-09-22 19:57:51.028322,-148
2021-09-22 19:57:51.028328,-209
2021-09-22 19:57:51.028334,-243
2021-09-22 19:57:51.028340,-257
2021-09-22 19:57:51.028346,-270
2021-09-22 19:57:51.028352,-274
2021-09-22 19:57:51.028358,-279
2021-09-22 19:57:51.028364,-284
2021-09-22 19:57:51.028370,-274
2021-09-22 19:57:51.028376,-255
2021-09-22 19:57:51.028382,-238
2021-09-22 19:57:51.028388,-226
2021-09-22 19:57:51.028394,-221
2021-09-22 19:57:51.028400,-209
2021-09-22 19:57:51.028405,-189
2021-09-22 19:57:51.028411,-172
2021-09-22 19:57:51.028417,-163
2021-09-22 19:57:51.028423,-150
2021-09-22 19:57:51.028429,-145
2021-09-22 19:57:51.028435,-143
2021-09-22 19:57:51.028441,-138
2021-09-22 19:57:51.028446,-131
2021-09-22 19:57:51.028452,-126
2021-09-22 19:57:51.028458,-124
2021-09-22 19:57:51.028464,-121
2021-09-22 19:57:51.028470,-124
2021-09-22 19:57:51.028476,-119
2021-09-22 19:57:51.028482,-121
2021-09-22 19:57:51.208773,-133
2021-09-22 19:57:51.208793,-133
2021-09-22 19:57:51.208800,-126
2021-09-22 19:57:51.208806,-124
2021-09-22 19:57:51.208812,-121
2021-09-22 19:57:51.208818,-114
2021-09-22 19:57:51.208824,-104
2021-09-22 19:57:51.208830,-104
2021-09-22 19:57:51.208835,-107
2021-09-22 19:57:51.208841,-102
2021-09-22 19:57:51.208847,-92
2021-09-22 19:57:51.208853,-87
2021-09-22 19:57:51.208859,-85
2021-09-22 19:57:51.208865,-85
2021-09-22 19:57:51.208871,-85
2021-09-22 19:57:51.208877,-82
2021-09-22 19:57:51.208883,-75
2021-09-22 19:57:51.208888,-70
2021-09-22 19:57:51.208894,-65
2021-09-22 19:57:51.208900,-63
2021-09-22 19:57:51.208906,-68
2021-09-22 19:57:51.208911,-68
2021-09-22 19:57:51.208917,-58
2021-09-22 19:57:51.208923,-51
2021-09-22 19:57:51.208929,-48
2021-09-22 19:57:51.208935,-48
2021-09-22 19:57:51.208941,-48
2021-09-22 19:57:51.208946,-46
2021-09-22 19:57:51.208952,-41
2021-09-22 19:57:51.208958,-36
2021-09-22 19:57:51.433890,-31
2021-09-22 19:57:51.433911,-31
2021-09-22 19:57:51.433918,-34
2021-09-22 19:57:51.433924,-34
2021-09-22 19:57:51.433930,-29
2021-09-22 19:57:51.433936,-21
2021-09-22 19:57:51.433942,-19
2021-09-22 19:57:51.433948,-21
2021-09-22 19:57:51.433954,-26
2021-09-22 19:57:51.433960,-29
2021-09-22 19:57:51.433966,-29
2021-09-22 19:57:51.433972,-17
2021-09-22 19:57:51.433978,2
2021-09-22 19:57:51.433984,14
2021-09-22 19:57:51.433989,14
2021-09-22 19:57:51.433995,12
2021-09-22 19:57:51.434001,19
2021-09-22 19:57:51.434007,24
2021-09-22 19:57:51.434013,9
2021-09-22 19:57:51.434019,-4
2021-09-22 19:57:51.434024,-21
2021-09-22 19:57:51.434030,-26
2021-09-22 19:57:51.434036,-14
2021-09-22 19:57:51.434041,-7
2021-09-22 19:57:51.434047,-12
2021-09-22 19:57:51.434053,-7
2021-09-22 19:57:51.434059,-7
2021-09-22 19:57:51.434065,-4
2021-09-22 19:57:51.434071,17
2021-09-22 19:57:51.434077,80
2021-09-22 19:57:51.703963,216
2021-09-22 19:57:51.703985,457
2021-09-22 19:57:51.703992,647
2021-09-22 19:57:51.703998,445
2021-09-22 19:57:51.704004,-60
2021-09-22 19:57:51.704010,-518
2021-09-22 19:57:51.704016,-683
2021-09-22 19:57:51.704022,-396
2021-09-22 19:57:51.704028,-68
2021-09-22 19:57:51.704034,-38
2021-09-22 19:57:51.704040,2
2021-09-22 19:57:51.704046,116
2021-09-22 19:57:51.704052,114
2021-09-22 19:57:51.704057,94
2021-09-22 19:57:51.704063,136
2021-09-22 19:57:51.704069,153
2021-09-22 19:57:51.704075,145
2021-09-22 19:57:51.704081,165
2021-09-22 19:57:51.704086,180
2021-09-22 19:57:51.704092,182
2021-09-22 19:57:51.704098,194
2021-09-22 19:57:51.704104,209
2021-09-22 19:57:51.704110,214
2021-09-22 19:57:51.704115,231
2021-09-22 19:57:51.704121,260
2021-09-22 19:57:51.704127,284
2021-09-22 19:57:51.704133,309
2021-09-22 19:57:51.704138,335
2021-09-22 19:57:51.704144,372
2021-09-22 19:57:51.704150,411
2021-09-22 19:57:51.973328,440
2021-09-22 19:57:51.973349,459
2021-09-22 19:57:51.973356,472
2021-09-22 19:57:51.973363,474
2021-09-22 19:57:51.973369,459
2021-09-22 19:57:51.973375,423
2021-09-22 19:57:51.973380,369
2021-09-22 19:57:51.973386,294
2021-09-22 19:57:51.973392,187
2021-09-22 19:57:51.973399,68
2021-09-22 19:57:51.973405,-36
2021-09-22 19:57:51.973411,-124
2021-09-22 19:57:51.973417,-197
2021-09-22 19:57:51.973423,-238
2021-09-22 19:57:51.973429,-255
2021-09-22 19:57:51.973434,-270
2021-09-22 19:57:51.973440,-274
2021-09-22 19:57:51.973446,-270
2021-09-22 19:57:51.973452,-267
2021-09-22 19:57:51.973458,-255
2021-09-22 19:57:51.973464,-243
2021-09-22 19:57:51.973470,-228
2021-09-22 19:57:51.973476,-206
2021-09-22 19:57:51.973482,-192
2021-09-22 19:57:51.973487,-182
2021-09-22 19:57:51.973493,-167
2021-09-22 19:57:51.973499,-158
2021-09-22 19:57:51.973505,-145
2021-09-22 19:57:51.973511,-128
2021-09-22 19:57:51.973516,-121
2021-09-22 19:57:52.153912,-116
2021-09-22 19:57:52.153933,-107
2021-09-22 19:57:52.153941,-102
2021-09-22 19:57:52.153947,-102
2021-09-22 19:57:52.153953,-99
2021-09-22 19:57:52.153959,-97
2021-09-22 19:57:52.153965,-97
2021-09-22 19:57:52.153971,-94
2021-09-22 19:57:52.153977,-97
2021-09-22 19:57:52.153983,-102
2021-09-22 19:57:52.153989,-104
2021-09-22 19:57:52.153995,-104
2021-09-22 19:57:52.154001,-107
2021-09-22 19:57:52.154007,-99
2021-09-22 19:57:52.154013,-94
2021-09-22 19:57:52.154018,-94
2021-09-22 19:57:52.154024,-90
2021-09-22 19:57:52.154030,-90
2021-09-22 19:57:52.154036,-87
2021-09-22 19:57:52.154042,-77
2021-09-22 19:57:52.154048,-70
2021-09-22 19:57:52.154054,-68
2021-09-22 19:57:52.154059,-68
2021-09-22 19:57:52.154065,-68
2021-09-22 19:57:52.154071,-68
2021-09-22 19:57:52.154076,-60
2021-09-22 19:57:52.154082,-53
2021-09-22 19:57:52.154088,-51
2021-09-22 19:57:52.154094,-46
2021-09-22 19:57:52.154099,-43
2021-09-22 19:57:52.334042,-43
2021-09-22 19:57:52.334086,-36
2021-09-22 19:57:52.334094,-31
2021-09-22 19:57:52.334100,-34
2021-09-22 19:57:52.334106,-38
2021-09-22 19:57:52.334112,-36
2021-09-22 19:57:52.334118,-31
2021-09-22 19:57:52.334124,-29
2021-09-22 19:57:52.334130,-26
2021-09-22 19:57:52.334136,-26
2021-09-22 19:57:52.334142,-31
2021-09-22 19:57:52.334148,-31
2021-09-22 19:57:52.334154,-21
2021-09-22 19:57:52.334160,-9
2021-09-22 19:57:52.334166,7
2021-09-22 19:57:52.334172,9
2021-09-22 19:57:52.334178,-2
2021-09-22 19:57:52.334184,2
2021-09-22 19:57:52.334190,9
2021-09-22 19:57:52.334195,-2
2021-09-22 19:57:52.334201,-17
2021-09-22 19:57:52.334207,-29
2021-09-22 19:57:52.334213,-36
2021-09-22 19:57:52.334219,-34
2021-09-22 19:57:52.334225,-26
2021-09-22 19:57:52.334231,-24
2021-09-22 19:57:52.334237,-24
2021-09-22 19:57:52.334243,-24
2021-09-22 19:57:52.334248,-24
2021-09-22 19:57:52.334254,7
2021-09-22 19:57:52.602657,90
2021-09-22 19:57:52.602678,221
2021-09-22 19:57:52.602685,423
2021-09-22 19:57:52.602691,525
2021-09-22 19:57:52.602697,243
2021-09-22 19:57:52.602703,-265
2021-09-22 19:57:52.602710,-632
2021-09-22 19:57:52.602716,-664
2021-09-22 19:57:52.602722,-340
2021-09-22 19:57:52.602728,-72
2021-09-22 19:57:52.602733,-46
2021-09-22 19:57:52.602739,21
2021-09-22 19:57:52.602745,121
2021-09-22 19:57:52.602751,119
2021-09-22 19:57:52.602757,111
2021-09-22 19:57:52.602763,143
2021-09-22 19:57:52.602768,150
2021-09-22 19:57:52.602774,143
2021-09-22 19:57:52.602780,143
2021-09-22 19:57:52.602786,153
2021-09-22 19:57:52.602791,160
2021-09-22 19:57:52.602797,165
2021-09-22 19:57:52.602803,180
2021-09-22 19:57:52.602809,197
2021-09-22 19:57:52.602814,214
2021-09-22 19:57:52.602820,236
2021-09-22 19:57:52.602826,257
2021-09-22 19:57:52.602832,279
2021-09-22 19:57:52.602838,304
2021-09-22 19:57:52.602844,335
2021-09-22 19:57:52.828935,364
2021-09-22 19:57:52.828954,391
2021-09-22 19:57:52.828961,406
2021-09-22 19:57:52.828967,408
2021-09-22 19:57:52.828973,408
2021-09-22 19:57:52.828979,401
2021-09-22 19:57:52.828985,367
2021-09-22 19:57:52.828991,309
2021-09-22 19:57:52.828997,221
2021-09-22 19:57:52.829003,107
2021-09-22 19:57:52.829009,-4
2021-09-22 19:57:52.829015,-92
2021-09-22 19:57:52.829021,-165
2021-09-22 19:57:52.829027,-221
2021-09-22 19:57:52.829032,-260
2021-09-22 19:57:52.829038,-287
2021-09-22 19:57:52.829044,-296
2021-09-22 19:57:52.829050,-291
2021-09-22 19:57:52.829056,-282
2021-09-22 19:57:52.829062,-270
2021-09-22 19:57:52.829067,-257
2021-09-22 19:57:52.829073,-250
2021-09-22 19:57:52.829079,-240
2021-09-22 19:57:52.829084,-221
2021-09-22 19:57:52.829090,-201
2021-09-22 19:57:52.829096,-189
2021-09-22 19:57:52.829102,-182
2021-09-22 19:57:52.829108,-172
2021-09-22 19:57:52.829257,-158
2021-09-22 19:57:52.829265,-148
2021-09-22 19:57:53.098995,-141
2021-09-22 19:57:53.099017,-133
2021-09-22 19:57:53.099024,-131
2021-09-22 19:57:53.099030,-128
2021-09-22 19:57:53.099036,-121
2021-09-22 19:57:53.099042,-116
2021-09-22 19:57:53.099048,-116
2021-09-22 19:57:53.099054,-119
2021-09-22 19:57:53.099060,-126
2021-09-22 19:57:53.099066,-128
2021-09-22 19:57:53.099072,-121
2021-09-22 19:57:53.099078,-114
2021-09-22 19:57:53.099083,-116
2021-09-22 19:57:53.099089,-119
2021-09-22 19:57:53.099095,-121
2021-09-22 19:57:53.099101,-121
2021-09-22 19:57:53.099107,-119
2021-09-22 19:57:53.099113,-114
2021-09-22 19:57:53.099119,-107
2021-09-22 19:57:53.099125,-104
2021-09-22 19:57:53.099130,-99
2021-09-22 19:57:53.099136,-94
2021-09-22 19:57:53.099142,-92
2021-09-22 19:57:53.099148,-94
2021-09-22 19:57:53.099154,-97
2021-09-22 19:57:53.099160,-97
2021-09-22 19:57:53.099166,-97
2021-09-22 19:57:53.099171,-94
2021-09-22 19:57:53.099177,-87
2021-09-22 19:57:53.099183,-77
2021-09-22 19:57:53.324022,-72
2021-09-22 19:57:53.324043,-70
2021-09-22 19:57:53.324050,-72
2021-09-22 19:57:53.324057,-70
2021-09-22 19:57:53.324063,-63
2021-09-22 19:57:53.324069,-51
2021-09-22 19:57:53.324075,-51
2021-09-22 19:57:53.324081,-53
2021-09-22 19:57:53.324087,-53
2021-09-22 19:57:53.324092,-48
2021-09-22 19:57:53.324099,-46
2021-09-22 19:57:53.324105,-43
2021-09-22 19:57:53.324111,-41
2021-09-22 19:57:53.324118,-38
2021-09-22 19:57:53.324124,-29
2021-09-22 19:57:53.324129,-9
2021-09-22 19:57:53.324135,2
2021-09-22 19:57:53.324141,-4
2021-09-22 19:57:53.324147,-7
2021-09-22 19:57:53.324153,-7
2021-09-22 19:57:53.324159,-21
2021-09-22 19:57:53.324165,-36
2021-09-22 19:57:53.324171,-46
2021-09-22 19:57:53.324176,-48
2021-09-22 19:57:53.324182,-43
2021-09-22 19:57:53.324188,-41
2021-09-22 19:57:53.324194,-43
2021-09-22 19:57:53.324200,-41
2021-09-22 19:57:53.324206,-34
2021-09-22 19:57:53.324211,-24
2021-09-22 19:57:53.503841,4
2021-09-22 19:57:53.503858,87
2021-09-22 19:57:53.503865,248
2021-09-22 19:57:53.503871,496
2021-09-22 19:57:53.503877,610
2021-09-22 19:57:53.503900,294
2021-09-22 19:57:53.503906,-236
2021-09-22 19:57:53.503912,-620
2021-09-22 19:57:53.503918,-656
2021-09-22 19:57:53.503924,-304
2021-09-22 19:57:53.503930,-29
2021-09-22 19:57:53.503936,-24
2021-09-22 19:57:53.503942,36
2021-09-22 19:57:53.503948,128
2021-09-22 19:57:53.503954,119
2021-09-22 19:57:53.503959,111
2021-09-22 19:57:53.503965,148
2021-09-22 19:57:53.503971,163
2021-09-22 19:57:53.503977,155
2021-09-22 19:57:53.503983,158
2021-09-22 19:57:53.503988,163
2021-09-22 19:57:53.503994,165
2021-09-22 19:57:53.504000,180
2021-09-22 19:57:53.504006,199
2021-09-22 19:57:53.504011,216
2021-09-22 19:57:53.504017,236
2021-09-22 19:57:53.504023,255
2021-09-22 19:57:53.504029,274
2021-09-22 19:57:53.504034,304
2021-09-22 19:57:53.504040,333
2021-09-22 19:57:53.729132,360
2021-09-22 19:57:53.729153,391
2021-09-22 19:57:53.729160,425
2021-09-22 19:57:53.729166,452
2021-09-22 19:57:53.729173,467
2021-09-22 19:57:53.729179,467
2021-09-22 19:57:53.729185,445
2021-09-22 19:57:53.729191,406
2021-09-22 19:57:53.729197,352
2021-09-22 19:57:53.729203,267
2021-09-22 19:57:53.729209,153
2021-09-22 19:57:53.729214,31
2021-09-22 19:57:53.729220,-77
2021-09-22 19:57:53.729226,-160
2021-09-22 19:57:53.729232,-216
2021-09-22 19:57:53.729238,-255
2021-09-22 19:57:53.729244,-274
2021-09-22 19:57:53.729250,-284
2021-09-22 19:57:53.729256,-289
2021-09-22 19:57:53.729262,-279
2021-09-22 19:57:53.729267,-265
2021-09-22 19:57:53.729273,-260
2021-09-22 19:57:53.729279,-253
2021-09-22 19:57:53.729285,-240
2021-09-22 19:57:53.729290,-226
2021-09-22 19:57:53.729296,-206
2021-09-22 19:57:53.729302,-184
2021-09-22 19:57:53.729308,-172
2021-09-22 19:57:53.729313,-165
2021-09-22 19:57:53.729320,-153
2021-09-22 19:57:53.998916,-136
2021-09-22 19:57:53.998936,-124
2021-09-22 19:57:53.998944,-119
2021-09-22 19:57:53.998950,-111
2021-09-22 19:57:53.998956,-104
2021-09-22 19:57:53.998962,-107
2021-09-22 19:57:53.998968,-111
2021-09-22 19:57:53.998974,-102
2021-09-22 19:57:53.998979,-92
2021-09-22 19:57:53.998985,-97
2021-09-22 19:57:53.998991,-102
2021-09-22 19:57:53.998997,-107
2021-09-22 19:57:53.999003,-102
2021-09-22 19:57:53.999008,-92
2021-09-22 19:57:53.999014,-87
2021-09-22 19:57:53.999020,-82
2021-09-22 19:57:53.999026,-80
2021-09-22 19:57:53.999032,-75
2021-09-22 19:57:53.999037,-68
2021-09-22 19:57:53.999043,-63
2021-09-22 19:57:53.999048,-63
2021-09-22 19:57:53.999054,-60
2021-09-22 19:57:53.999060,-58
2021-09-22 19:57:53.999066,-55
2021-09-22 19:57:53.999072,-60
2021-09-22 19:57:53.999077,-60
2021-09-22 19:57:53.999083,-55
2021-09-22 19:57:53.999089,-53
2021-09-22 19:57:53.999095,-48
2021-09-22 19:57:53.999101,-43
2021-09-22 19:57:54.223314,-38
2021-09-22 19:57:54.223334,-36
2021-09-22 19:57:54.223341,-36
2021-09-22 19:57:54.223348,-34
2021-09-22 19:57:54.223354,-31
2021-09-22 19:57:54.223360,-36
2021-09-22 19:57:54.223366,-36
2021-09-22 19:57:54.223371,-29
2021-09-22 19:57:54.223377,-26
2021-09-22 19:57:54.223383,-31
2021-09-22 19:57:54.223389,-36
2021-09-22 19:57:54.223395,-31
2021-09-22 19:57:54.223401,-14
2021-09-22 19:57:54.223406,7
2021-09-22 19:57:54.223412,12
2021-09-22 19:57:54.223418,4
2021-09-22 19:57:54.223424,7
2021-09-22 19:57:54.223430,9
2021-09-22 19:57:54.223436,0
2021-09-22 19:57:54.223442,-14
2021-09-22 19:57:54.223447,-24
2021-09-22 19:57:54.223453,-26
2021-09-22 19:57:54.223459,-21
2021-09-22 19:57:54.223465,-19
2021-09-22 19:57:54.223471,-19
2021-09-22 19:57:54.223476,-17
2021-09-22 19:57:54.223482,-17
2021-09-22 19:57:54.223488,-14
2021-09-22 19:57:54.223494,17
2021-09-22 19:57:54.223499,109
2021-09-22 19:57:54.403995,265
2021-09-22 19:57:54.404015,481
2021-09-22 19:57:54.404023,535
2021-09-22 19:57:54.404029,182
2021-09-22 19:57:54.404035,-323
2021-09-22 19:57:54.404041,-656
2021-09-22 19:57:54.404048,-615
2021-09-22 19:57:54.404054,-240
2021-09-22 19:57:54.404060,-19
2021-09-22 19:57:54.404065,-34
2021-09-22 19:57:54.404072,48
2021-09-22 19:57:54.404078,145
2021-09-22 19:57:54.404083,128
2021-09-22 19:57:54.404089,126
2021-09-22 19:57:54.404095,163
2021-09-22 19:57:54.404101,165
2021-09-22 19:57:54.404107,160
2021-09-22 19:57:54.404113,177
2021-09-22 19:57:54.404118,189
2021-09-22 19:57:54.404124,194
2021-09-22 19:57:54.404130,206
2021-09-22 19:57:54.404135,218
2021-09-22 19:57:54.404141,231
2021-09-22 19:57:54.404147,255
2021-09-22 19:57:54.404153,279
2021-09-22 19:57:54.404158,299
2021-09-22 19:57:54.404164,328
2021-09-22 19:57:54.404170,355
2021-09-22 19:57:54.404176,379
2021-09-22 19:57:54.404182,411
2021-09-22 19:57:54.717590,445
2021-09-22 19:57:54.717611,472
2021-09-22 19:57:54.717618,476
2021-09-22 19:57:54.717624,467
2021-09-22 19:57:54.717630,450
2021-09-22 19:57:54.717636,418
2021-09-22 19:57:54.717642,355
2021-09-22 19:57:54.717649,255
2021-09-22 19:57:54.717655,133
2021-09-22 19:57:54.717661,12
2021-09-22 19:57:54.717667,-92
2021-09-22 19:57:54.717673,-180
2021-09-22 19:57:54.717679,-238
2021-09-22 19:57:54.717685,-265
2021-09-22 19:57:54.717691,-282
2021-09-22 19:57:54.717696,-296
2021-09-22 19:57:54.717702,-294
2021-09-22 19:57:54.717708,-284
2021-09-22 19:57:54.717714,-274
2021-09-22 19:57:54.717720,-257
2021-09-22 19:57:54.717725,-243
2021-09-22 19:57:54.717731,-233
2021-09-22 19:57:54.717737,-218
2021-09-22 19:57:54.717743,-197
2021-09-22 19:57:54.717748,-180
2021-09-22 19:57:54.717754,-167
2021-09-22 19:57:54.717760,-163
2021-09-22 19:57:54.717766,-155
2021-09-22 19:57:54.717771,-143
2021-09-22 19:57:54.717777,-133
2021-09-22 19:57:54.899007,-131
2021-09-22 19:57:54.899028,-128
2021-09-22 19:57:54.899035,-128
2021-09-22 19:57:54.899041,-128
2021-09-22 19:57:54.899047,-121
2021-09-22 19:57:54.899054,-109
2021-09-22 19:57:54.899059,-114
2021-09-22 19:57:54.899065,-119
2021-09-22 19:57:54.899071,-119
2021-09-22 19:57:54.899077,-121
2021-09-22 19:57:54.899083,-119
2021-09-22 19:57:54.899089,-111
2021-09-22 19:57:54.899095,-107
2021-09-22 19:57:54.899100,-102
2021-09-22 19:57:54.899106,-104
2021-09-22 19:57:54.899112,-111
2021-09-22 19:57:54.899118,-104
2021-09-22 19:57:54.899123,-90
2021-09-22 19:57:54.899129,-90
2021-09-22 19:57:54.899135,-92
2021-09-22 19:57:54.899141,-85
2021-09-22 19:57:54.899147,-77
2021-09-22 19:57:54.899152,-75
2021-09-22 19:57:54.899158,-77
2021-09-22 19:57:54.899164,-72
2021-09-22 19:57:54.899170,-65
2021-09-22 19:57:54.899175,-63
2021-09-22 19:57:54.899181,-60
2021-09-22 19:57:54.899187,-53
2021-09-22 19:57:54.899193,-48
2021-09-22 19:57:55.123961,-46
2021-09-22 19:57:55.123983,-38
2021-09-22 19:57:55.123990,-38
2021-09-22 19:57:55.123996,-48
2021-09-22 19:57:55.124002,-51
2021-09-22 19:57:55.124009,-41
2021-09-22 19:57:55.124015,-31
2021-09-22 19:57:55.124021,-34
2021-09-22 19:57:55.124027,-43
2021-09-22 19:57:55.124032,-38
2021-09-22 19:57:55.124038,-31
2021-09-22 19:57:55.124044,-24
2021-09-22 19:57:55.124050,-4
2021-09-22 19:57:55.124056,9
2021-09-22 19:57:55.124062,2
2021-09-22 19:57:55.124068,-2
2021-09-22 19:57:55.124074,4
2021-09-22 19:57:55.124079,-7
2021-09-22 19:57:55.124085,-24
2021-09-22 19:57:55.124091,-34
2021-09-22 19:57:55.124097,-41
2021-09-22 19:57:55.124103,-36
2021-09-22 19:57:55.124108,-26
2021-09-22 19:57:55.124114,-24
2021-09-22 19:57:55.124120,-21
2021-09-22 19:57:55.124125,-17
2021-09-22 19:57:55.124131,-17
2021-09-22 19:57:55.124137,-4
2021-09-22 19:57:55.124143,48
2021-09-22 19:57:55.124149,160
2021-09-22 19:57:55.438341,340
2021-09-22 19:57:55.438364,528
2021-09-22 19:57:55.438372,447
2021-09-22 19:57:55.438378,34
2021-09-22 19:57:55.438385,-423
2021-09-22 19:57:55.438391,-666
2021-09-22 19:57:55.438397,-491
2021-09-22 19:57:55.438402,-136
2021-09-22 19:57:55.438408,-38
2021-09-22 19:57:55.438414,-31
2021-09-22 19:57:55.438420,87
2021-09-22 19:57:55.438426,136
2021-09-22 19:57:55.438432,107
2021-09-22 19:57:55.438438,126
2021-09-22 19:57:55.438444,155
2021-09-22 19:57:55.438450,153
2021-09-22 19:57:55.438456,158
2021-09-22 19:57:55.438462,177
2021-09-22 19:57:55.438467,187
2021-09-22 19:57:55.438473,189
2021-09-22 19:57:55.438479,206
2021-09-22 19:57:55.438485,218
2021-09-22 19:57:55.438491,226
2021-09-22 19:57:55.438497,245
2021-09-22 19:57:55.438502,270
2021-09-22 19:57:55.438508,294
2021-09-22 19:57:55.438514,326
2021-09-22 19:57:55.438520,360
2021-09-22 19:57:55.438525,391
2021-09-22 19:57:55.438531,420
2021-09-22 19:57:55.574060,455
2021-09-22 19:57:55.574081,479
2021-09-22 19:57:55.574088,479
2021-09-22 19:57:55.574094,469
2021-09-22 19:57:55.574100,452
2021-09-22 19:57:55.574106,408
2021-09-22 19:57:55.574112,330
2021-09-22 19:57:55.574118,226
2021-09-22 19:57:55.574124,114
2021-09-22 19:57:55.574129,9
2021-09-22 19:57:55.574135,-75
2021-09-22 19:57:55.574141,-145
2021-09-22 19:57:55.574147,-206
2021-09-22 19:57:55.574153,-238
2021-09-22 19:57:55.574159,-243
2021-09-22 19:57:55.574164,-245
2021-09-22 19:57:55.574170,-248
2021-09-22 19:57:55.574176,-248
2021-09-22 19:57:55.574181,-245
2021-09-22 19:57:55.574187,-243
2021-09-22 19:57:55.574193,-236
2021-09-22 19:57:55.574199,-223
2021-09-22 19:57:55.574204,-214
2021-09-22 19:57:55.574210,-214
2021-09-22 19:57:55.574216,-201
2021-09-22 19:57:55.574222,-182
2021-09-22 19:57:55.574227,-175
2021-09-22 19:57:55.574233,-167
2021-09-22 19:57:55.574239,-155
2021-09-22 19:57:55.574245,-148
2021-09-22 19:57:55.844066,-143
2021-09-22 19:57:55.844087,-133
2021-09-22 19:57:55.844094,-128
2021-09-22 19:57:55.844100,-131
2021-09-22 19:57:55.844106,-128
2021-09-22 19:57:55.844112,-128
2021-09-22 19:57:55.844118,-131
2021-09-22 19:57:55.844124,-126
2021-09-22 19:57:55.844130,-126
2021-09-22 19:57:55.844136,-131
2021-09-22 19:57:55.844142,-128
2021-09-22 19:57:55.844147,-131
2021-09-22 19:57:55.844153,-131
2021-09-22 19:57:55.844159,-121
2021-09-22 19:57:55.844165,-116
2021-09-22 19:57:55.844171,-116
2021-09-22 19:57:55.844176,-111
2021-09-22 19:57:55.844182,-107
2021-09-22 19:57:55.844188,-109
2021-09-22 19:57:55.844194,-102
2021-09-22 19:57:55.844199,-94
2021-09-22 19:57:55.844205,-94
2021-09-22 19:57:55.844211,-92
2021-09-22 19:57:55.844216,-85
2021-09-22 19:57:55.844222,-82
2021-09-22 19:57:55.844228,-80
2021-09-22 19:57:55.844234,-72
2021-09-22 19:57:55.844240,-65
2021-09-22 19:57:55.844245,-58
2021-09-22 19:57:55.844251,-58
2021-09-22 19:57:56.023900,-58
2021-09-22 19:57:56.023920,-51
2021-09-22 19:57:56.023927,-41
2021-09-22 19:57:56.023933,-38
2021-09-22 19:57:56.023939,-43
2021-09-22 19:57:56.023945,-51
2021-09-22 19:57:56.023951,-48
2021-09-22 19:57:56.023957,-38
2021-09-22 19:57:56.023963,-31
2021-09-22 19:57:56.023969,-19
2021-09-22 19:57:56.023975,-9
2021-09-22 19:57:56.023981,-21
2021-09-22 19:57:56.023987,-24
2021-09-22 19:57:56.023992,-9
2021-09-22 19:57:56.023998,-2
2021-09-22 19:57:56.024004,-17
2021-09-22 19:57:56.024010,-48
2021-09-22 19:57:56.024016,-60
2021-09-22 19:57:56.024022,-43
2021-09-22 19:57:56.024027,-34
2021-09-22 19:57:56.024033,-36
2021-09-22 19:57:56.024039,-26
2021-09-22 19:57:56.024045,-24
2021-09-22 19:57:56.024051,-26
2021-09-22 19:57:56.024056,-4
2021-09-22 19:57:56.024062,70
2021-09-22 19:57:56.024068,192
2021-09-22 19:57:56.024074,377
2021-09-22 19:57:56.024079,525
2021-09-22 19:57:56.024085,333
2021-09-22 19:57:56.249014,-131
2021-09-22 19:57:56.249035,-523
2021-09-22 19:57:56.249042,-688
2021-09-22 19:57:56.249048,-452
2021-09-22 19:57:56.249054,-116
2021-09-22 19:57:56.249060,-60
2021-09-22 19:57:56.249066,-21
2021-09-22 19:57:56.249072,109
2021-09-22 19:57:56.249078,121
2021-09-22 19:57:56.249084,75
2021-09-22 19:57:56.249090,99
2021-09-22 19:57:56.249096,133
2021-09-22 19:57:56.249102,128
2021-09-22 19:57:56.249107,126
2021-09-22 19:57:56.249113,138
2021-09-22 19:57:56.249119,148
2021-09-22 19:57:56.249125,160
2021-09-22 19:57:56.249131,172
2021-09-22 19:57:56.249137,184
2021-09-22 19:57:56.249143,209
2021-09-22 19:57:56.249149,231
2021-09-22 19:57:56.249155,231
2021-09-22 19:57:56.249160,245
2021-09-22 19:57:56.249166,291
2021-09-22 19:57:56.249172,333
2021-09-22 19:57:56.249178,350
2021-09-22 19:57:56.249184,377
2021-09-22 19:57:56.249190,413
2021-09-22 19:57:56.249196,430
2021-09-22 19:57:56.249202,430
2021-09-22 19:57:56.563380,423
2021-09-22 19:57:56.563401,401
2021-09-22 19:57:56.563408,350
2021-09-22 19:57:56.563415,260
2021-09-22 19:57:56.563421,143
2021-09-22 19:57:56.563427,26
2021-09-22 19:57:56.563433,-72
2021-09-22 19:57:56.563439,-158
2021-09-22 19:57:56.563445,-231
2021-09-22 19:57:56.563451,-284
2021-09-22 19:57:56.563457,-311
2021-09-22 19:57:56.563463,-306
2021-09-22 19:57:56.563469,-291
2021-09-22 19:57:56.563474,-294
2021-09-22 19:57:56.563480,-299
2021-09-22 19:57:56.563486,-291
2021-09-22 19:57:56.563492,-272
2021-09-22 19:57:56.563498,-262
2021-09-22 19:57:56.563503,-260
2021-09-22 19:57:56.563510,-231
2021-09-22 19:57:56.563516,-209
2021-09-22 19:57:56.563521,-218
2021-09-22 19:57:56.563527,-216
2021-09-22 19:57:56.563533,-189
2021-09-22 19:57:56.563539,-180
2021-09-22 19:57:56.563545,-180
2021-09-22 19:57:56.563550,-172
2021-09-22 19:57:56.563556,-163
2021-09-22 19:57:56.563562,-160
2021-09-22 19:57:56.563568,-158
2021-09-22 19:57:56.787669,-153
2021-09-22 19:57:56.787690,-148
2021-09-22 19:57:56.787697,-150
2021-09-22 19:57:56.787703,-167
2021-09-22 19:57:56.787709,-170
2021-09-22 19:57:56.787715,-158
2021-09-22 19:57:56.787721,-155
2021-09-22 19:57:56.787727,-160
2021-09-22 19:57:56.787732,-158
2021-09-22 19:57:56.787738,-145
2021-09-22 19:57:56.787744,-138
2021-09-22 19:57:56.787750,-136
2021-09-22 19:57:56.787755,-128
2021-09-22 19:57:56.787761,-124
2021-09-22 19:57:56.787767,-128
2021-09-22 19:57:56.787773,-128
2021-09-22 19:57:56.787779,-121
2021-09-22 19:57:56.787784,-116
2021-09-22 19:57:56.787790,-116
2021-09-22 19:57:56.787796,-109
2021-09-22 19:57:56.787801,-102
2021-09-22 19:57:56.787807,-107
2021-09-22 19:57:56.787813,-99
2021-09-22 19:57:56.787819,-92
2021-09-22 19:57:56.787824,-94
2021-09-22 19:57:56.787830,-97
2021-09-22 19:57:56.787836,-92
2021-09-22 19:57:56.787841,-85
2021-09-22 19:57:56.787847,-72
2021-09-22 19:57:56.787853,-63
2021-09-22 19:57:56.969374,-65
2021-09-22 19:57:56.969395,-68
2021-09-22 19:57:56.969402,-55
2021-09-22 19:57:56.969408,-48
2021-09-22 19:57:56.969414,-55
2021-09-22 19:57:56.969420,-55
2021-09-22 19:57:56.969426,-36
2021-09-22 19:57:56.969431,-19
2021-09-22 19:57:56.969437,-12
2021-09-22 19:57:56.969444,4
2021-09-22 19:57:56.969450,12
2021-09-22 19:57:56.969456,14
2021-09-22 19:57:56.969462,14
2021-09-22 19:57:56.969468,4
2021-09-22 19:57:56.969473,-12
2021-09-22 19:57:56.969479,-17
2021-09-22 19:57:56.969485,-9
2021-09-22 19:57:56.969491,2
2021-09-22 19:57:56.969497,7
2021-09-22 19:57:56.969503,2
2021-09-22 19:57:56.969508,-4
2021-09-22 19:57:56.969514,4
2021-09-22 19:57:56.969520,17
2021-09-22 19:57:56.969526,26
2021-09-22 19:57:56.969532,75
2021-09-22 19:57:56.969537,184
2021-09-22 19:57:56.969543,386
2021-09-22 19:57:56.969549,647
2021-09-22 19:57:56.969555,654
2021-09-22 19:57:56.969561,218
2021-09-22 19:57:57.194005,-367
2021-09-22 19:57:57.194027,-695
2021-09-22 19:57:57.194034,-503
2021-09-22 19:57:57.194040,-107
2021-09-22 19:57:57.194046,17
2021-09-22 19:57:57.194052,29
2021-09-22 19:57:57.194058,138
2021-09-22 19:57:57.194064,182
2021-09-22 19:57:57.194071,143
2021-09-22 19:57:57.194076,153
2021-09-22 19:57:57.194082,180
2021-09-22 19:57:57.194088,182
2021-09-22 19:57:57.194094,194
2021-09-22 19:57:57.194100,206
2021-09-22 19:57:57.194106,206
2021-09-22 19:57:57.194112,211
2021-09-22 19:57:57.194118,231
2021-09-22 19:57:57.194124,253
2021-09-22 19:57:57.194130,272
2021-09-22 19:57:57.194135,291
2021-09-22 19:57:57.194141,309
2021-09-22 19:57:57.194147,330
2021-09-22 19:57:57.194153,357
2021-09-22 19:57:57.194159,389
2021-09-22 19:57:57.194164,420
2021-09-22 19:57:57.194170,450
2021-09-22 19:57:57.194176,474
2021-09-22 19:57:57.194182,491
2021-09-22 19:57:57.194187,496
2021-09-22 19:57:57.194194,491
2021-09-22 19:57:57.419046,464
2021-09-22 19:57:57.419067,416
2021-09-22 19:57:57.419074,345
2021-09-22 19:57:57.419081,243
2021-09-22 19:57:57.419087,131
2021-09-22 19:57:57.419093,21
2021-09-22 19:57:57.419099,-77
2021-09-22 19:57:57.419122,-158
2021-09-22 19:57:57.419128,-214
2021-09-22 19:57:57.419135,-253
2021-09-22 19:57:57.419141,-267
2021-09-22 19:57:57.419147,-274
2021-09-22 19:57:57.419153,-282
2021-09-22 19:57:57.419159,-277
2021-09-22 19:57:57.419165,-262
2021-09-22 19:57:57.419171,-250
2021-09-22 19:57:57.419177,-233
2021-09-22 19:57:57.419182,-218
2021-09-22 19:57:57.419188,-211
2021-09-22 19:57:57.419194,-201
2021-09-22 19:57:57.419200,-189
2021-09-22 19:57:57.419206,-182
2021-09-22 19:57:57.419212,-177
2021-09-22 19:57:57.419218,-172
2021-09-22 19:57:57.419224,-170
2021-09-22 19:57:57.419230,-155
2021-09-22 19:57:57.419236,-148
2021-09-22 19:57:57.419242,-150
2021-09-22 19:57:57.419247,-148
2021-09-22 19:57:57.419253,-143
2021-09-22 19:57:57.644055,-143
2021-09-22 19:57:57.644076,-143
2021-09-22 19:57:57.644083,-138
2021-09-22 19:57:57.644089,-141
2021-09-22 19:57:57.644095,-138
2021-09-22 19:57:57.644101,-138
2021-09-22 19:57:57.644107,-143
2021-09-22 19:57:57.644113,-138
2021-09-22 19:57:57.644119,-128
2021-09-22 19:57:57.644125,-124
2021-09-22 19:57:57.644131,-119
2021-09-22 19:57:57.644137,-121
2021-09-22 19:57:57.644142,-126
2021-09-22 19:57:57.644148,-119
2021-09-22 19:57:57.644154,-119
2021-09-22 19:57:57.644160,-126
2021-09-22 19:57:57.644170,-116
2021-09-22 19:57:57.644176,-109
2021-09-22 19:57:57.644182,-109
2021-09-22 19:57:57.644188,-102
2021-09-22 19:57:57.644194,-94
2021-09-22 19:57:57.644200,-92
2021-09-22 19:57:57.644205,-85
2021-09-22 19:57:57.644211,-80
2021-09-22 19:57:57.644217,-85
2021-09-22 19:57:57.644223,-82
2021-09-22 19:57:57.644228,-77
2021-09-22 19:57:57.644234,-77
2021-09-22 19:57:57.644240,-72
2021-09-22 19:57:57.644246,-58
2021-09-22 19:57:57.868965,-38
2021-09-22 19:57:57.868986,-19
2021-09-22 19:57:57.868993,-19
2021-09-22 19:57:57.868999,-26
2021-09-22 19:57:57.869005,-17
2021-09-22 19:57:57.869011,-19
2021-09-22 19:57:57.869017,-36
2021-09-22 19:57:57.869022,-46
2021-09-22 19:57:57.869028,-53
2021-09-22 19:57:57.869034,-55
2021-09-22 19:57:57.869040,-53
2021-09-22 19:57:57.869046,-55
2021-09-22 19:57:57.869052,-58
2021-09-22 19:57:57.869058,-48
2021-09-22 19:57:57.869063,-46
2021-09-22 19:57:57.869069,-38
2021-09-22 19:57:57.869075,7
2021-09-22 19:57:57.869081,111
2021-09-22 19:57:57.869087,299
2021-09-22 19:57:57.869093,545
2021-09-22 19:57:57.869099,530
2021-09-22 19:57:57.869105,92
2021-09-22 19:57:57.869111,-425
2021-09-22 19:57:57.869117,-717
2021-09-22 19:57:57.869123,-583
2021-09-22 19:57:57.869129,-194
2021-09-22 19:57:57.869134,-43
2021-09-22 19:57:57.869140,-48
2021-09-22 19:57:57.869146,58
2021-09-22 19:57:57.869152,119
2021-09-22 19:57:58.094063,92
2021-09-22 19:57:58.094085,114
2021-09-22 19:57:58.094093,150
2021-09-22 19:57:58.094099,141
2021-09-22 19:57:58.094105,143
2021-09-22 19:57:58.094111,163
2021-09-22 19:57:58.094117,172
2021-09-22 19:57:58.094123,184
2021-09-22 19:57:58.094129,201
2021-09-22 19:57:58.094135,214
2021-09-22 19:57:58.094141,221
2021-09-22 19:57:58.094147,243
2021-09-22 19:57:58.094153,270
2021-09-22 19:57:58.094159,294
2021-09-22 19:57:58.094165,321
2021-09-22 19:57:58.094171,355
2021-09-22 19:57:58.094177,389
2021-09-22 19:57:58.094183,423
2021-09-22 19:57:58.094189,457
2021-09-22 19:57:58.094195,474
2021-09-22 19:57:58.094200,474
2021-09-22 19:57:58.094206,464
2021-09-22 19:57:58.094212,445
2021-09-22 19:57:58.094218,401
2021-09-22 19:57:58.094224,326
2021-09-22 19:57:58.094230,223
2021-09-22 19:57:58.094236,104
2021-09-22 19:57:58.094242,-12
2021-09-22 19:57:58.094247,-107
2021-09-22 19:57:58.094253,-180
2021-09-22 19:57:58.364159,-236
2021-09-22 19:57:58.364180,-265
2021-09-22 19:57:58.364188,-279
2021-09-22 19:57:58.364194,-294
2021-09-22 19:57:58.364200,-299
2021-09-22 19:57:58.364206,-291
2021-09-22 19:57:58.364212,-282
2021-09-22 19:57:58.364218,-270
2021-09-22 19:57:58.364224,-260
2021-09-22 19:57:58.364230,-255
2021-09-22 19:57:58.364235,-243
2021-09-22 19:57:58.364241,-216
2021-09-22 19:57:58.364247,-199
2021-09-22 19:57:58.364253,-187
2021-09-22 19:57:58.364259,-177
2021-09-22 19:57:58.364265,-167
2021-09-22 19:57:58.364270,-158
2021-09-22 19:57:58.364276,-153
2021-09-22 19:57:58.364282,-145
2021-09-22 19:57:58.364287,-141
2021-09-22 19:57:58.364293,-143
2021-09-22 19:57:58.364299,-145
2021-09-22 19:57:58.364305,-141
2021-09-22 19:57:58.364310,-136
2021-09-22 19:57:58.364316,-136
2021-09-22 19:57:58.364322,-136
2021-09-22 19:57:58.364328,-133
2021-09-22 19:57:58.364334,-133
2021-09-22 19:57:58.364339,-133
2021-09-22 19:57:58.364346,-128
2021-09-22 19:57:58.589058,-128
2021-09-22 19:57:58.589079,-128
2021-09-22 19:57:58.589086,-126
2021-09-22 19:57:58.589093,-121
2021-09-22 19:57:58.589099,-119
2021-09-22 19:57:58.589105,-109
2021-09-22 19:57:58.589110,-97
2021-09-22 19:57:58.589116,-94
2021-09-22 19:57:58.589122,-99
2021-09-22 19:57:58.589128,-102
2021-09-22 19:57:58.589134,-97
2021-09-22 19:57:58.589140,-87
2021-09-22 19:57:58.589146,-80
2021-09-22 19:57:58.589152,-75
2021-09-22 19:57:58.589158,-77
2021-09-22 19:57:58.589164,-82
2021-09-22 19:57:58.589170,-77
2021-09-22 19:57:58.589176,-68
2021-09-22 19:57:58.589181,-60
2021-09-22 19:57:58.589187,-58
2021-09-22 19:57:58.589193,-63
2021-09-22 19:57:58.589199,-68
2021-09-22 19:57:58.589205,-55
2021-09-22 19:57:58.589210,-53
2021-09-22 19:57:58.589216,-72
2021-09-22 19:57:58.589222,-85
2021-09-22 19:57:58.589228,-70
2021-09-22 19:57:58.589234,-46
2021-09-22 19:57:58.589240,-31
2021-09-22 19:57:58.589246,-29
2021-09-22 19:57:58.857720,-21
2021-09-22 19:57:58.857741,-14
2021-09-22 19:57:58.857749,-29
2021-09-22 19:57:58.857756,-51
2021-09-22 19:57:58.857762,-60
2021-09-22 19:57:58.857768,-55
2021-09-22 19:57:58.857775,-53
2021-09-22 19:57:58.857781,-58
2021-09-22 19:57:58.857787,-60
2021-09-22 19:57:58.857793,-58
2021-09-22 19:57:58.857799,-58
2021-09-22 19:57:58.857806,-46
2021-09-22 19:57:58.857812,-17
2021-09-22 19:57:58.857818,46
2021-09-22 19:57:58.857824,182
2021-09-22 19:57:58.857831,440
2021-09-22 19:57:58.857837,620
2021-09-22 19:57:58.857843,360
2021-09-22 19:57:58.857849,-175
2021-09-22 19:57:58.857856,-603
2021-09-22 19:57:58.857862,-710
2021-09-22 19:57:58.857868,-379
2021-09-22 19:57:58.857874,-48
2021-09-22 19:57:58.857880,-17
2021-09-22 19:57:58.857886,26
2021-09-22 19:57:58.857892,126
2021-09-22 19:57:58.857898,121
2021-09-22 19:57:58.857904,111
2021-09-22 19:57:58.857910,145
2021-09-22 19:57:58.857917,160
2021-09-22 19:57:59.083893,155
2021-09-22 19:57:59.083913,170
2021-09-22 19:57:59.083919,184
2021-09-22 19:57:59.083926,187
2021-09-22 19:57:59.083931,199
2021-09-22 19:57:59.083937,214
2021-09-22 19:57:59.083943,221
2021-09-22 19:57:59.083949,231
2021-09-22 19:57:59.083955,248
2021-09-22 19:57:59.083961,274
2021-09-22 19:57:59.083967,301
2021-09-22 19:57:59.083973,330
2021-09-22 19:57:59.083979,364
2021-09-22 19:57:59.083984,394
2021-09-22 19:57:59.083991,423
2021-09-22 19:57:59.083997,452
2021-09-22 19:57:59.084003,474
2021-09-22 19:57:59.084008,481
2021-09-22 19:57:59.084014,472
2021-09-22 19:57:59.084020,442
2021-09-22 19:57:59.084026,389
2021-09-22 19:57:59.084031,304
2021-09-22 19:57:59.084037,197
2021-09-22 19:57:59.084043,82
2021-09-22 19:57:59.084049,-29
2021-09-22 19:57:59.084055,-121
2021-09-22 19:57:59.084060,-187
2021-09-22 19:57:59.084066,-231
2021-09-22 19:57:59.084072,-255
2021-09-22 19:57:59.084078,-260
2021-09-22 19:57:59.263978,-265
2021-09-22 19:57:59.263997,-272
2021-09-22 19:57:59.264004,-265
2021-09-22 19:57:59.264011,-250
2021-09-22 19:57:59.264017,-236
2021-09-22 19:57:59.264023,-223
2021-09-22 19:57:59.264029,-214
2021-09-22 19:57:59.264035,-206
2021-09-22 19:57:59.264041,-199
2021-09-22 19:57:59.264047,-187
2021-09-22 19:57:59.264053,-175
2021-09-22 19:57:59.264059,-165
2021-09-22 19:57:59.264065,-165
2021-09-22 19:57:59.264071,-163
2021-09-22 19:57:59.264077,-153
2021-09-22 19:57:59.264082,-148
2021-09-22 19:57:59.264088,-148
2021-09-22 19:57:59.264094,-153
2021-09-22 19:57:59.264100,-160
2021-09-22 19:57:59.264106,-163
2021-09-22 19:57:59.264112,-158
2021-09-22 19:57:59.264118,-155
2021-09-22 19:57:59.264123,-153
2021-09-22 19:57:59.264129,-148
2021-09-22 19:57:59.264135,-148
2021-09-22 19:57:59.264141,-143
2021-09-22 19:57:59.264147,-136
2021-09-22 19:57:59.264153,-133
2021-09-22 19:57:59.264159,-128
2021-09-22 19:57:59.264164,-124
2021-09-22 19:57:59.534079,-121
2021-09-22 19:57:59.534099,-116
2021-09-22 19:57:59.534107,-109
2021-09-22 19:57:59.534113,-104
2021-09-22 19:57:59.534119,-99
2021-09-22 19:57:59.534125,-97
2021-09-22 19:57:59.534131,-99
2021-09-22 19:57:59.534137,-94
2021-09-22 19:57:59.534144,-87
2021-09-22 19:57:59.534149,-92
2021-09-22 19:57:59.534156,-92
2021-09-22 19:57:59.534161,-90
2021-09-22 19:57:59.534167,-90
2021-09-22 19:57:59.534174,-85
2021-09-22 19:57:59.534179,-77
2021-09-22 19:57:59.534185,-77
2021-09-22 19:57:59.534191,-75
2021-09-22 19:57:59.534197,-68
2021-09-22 19:57:59.534203,-72
2021-09-22 19:57:59.534209,-72
2021-09-22 19:57:59.534215,-58
2021-09-22 19:57:59.534221,-41
2021-09-22 19:57:59.534227,-21
2021-09-22 19:57:59.534233,-17
2021-09-22 19:57:59.534238,-19
2021-09-22 19:57:59.534244,-9
2021-09-22 19:57:59.534250,-14
2021-09-22 19:57:59.534256,-34
2021-09-22 19:57:59.534262,-43
2021-09-22 19:57:59.534268,-41
2021-09-22 19:57:59.714013,-38
2021-09-22 19:57:59.714034,-34
2021-09-22 19:57:59.714041,-31
2021-09-22 19:57:59.714048,-31
2021-09-22 19:57:59.714054,-31
2021-09-22 19:57:59.714060,-34
2021-09-22 19:57:59.714066,-31
2021-09-22 19:57:59.714072,2
2021-09-22 19:57:59.714078,102
2021-09-22 19:57:59.714084,304
2021-09-22 19:57:59.714090,574
2021-09-22 19:57:59.714096,593
2021-09-22 19:57:59.714102,163
2021-09-22 19:57:59.714108,-411
2021-09-22 19:57:59.714114,-734
2021-09-22 19:57:59.714120,-569
2021-09-22 19:57:59.714126,-177
2021-09-22 19:57:59.714132,-36
2021-09-22 19:57:59.714138,-21
2021-09-22 19:57:59.714144,85
2021-09-22 19:57:59.714149,131
2021-09-22 19:57:59.714155,104
2021-09-22 19:57:59.714161,126
2021-09-22 19:57:59.714167,155
2021-09-22 19:57:59.714173,155
2021-09-22 19:57:59.714178,165
2021-09-22 19:57:59.714184,182
2021-09-22 19:57:59.714190,187
2021-09-22 19:57:59.714196,199
2021-09-22 19:57:59.714202,216
2021-09-22 19:58:00.028553,231
2021-09-22 19:58:00.028575,248
2021-09-22 19:58:00.028582,267
2021-09-22 19:58:00.028588,287
2021-09-22 19:58:00.028595,306
2021-09-22 19:58:00.028601,330
2021-09-22 19:58:00.028607,364
2021-09-22 19:58:00.028613,406
2021-09-22 19:58:00.028619,440
2021-09-22 19:58:00.028627,464
2021-09-22 19:58:00.028632,479
2021-09-22 19:58:00.028640,484
2021-09-22 19:58:00.028646,484
2021-09-22 19:58:00.028652,462
2021-09-22 19:58:00.028658,411
2021-09-22 19:58:00.028664,338
2021-09-22 19:58:00.028670,240
2021-09-22 19:58:00.028676,121
2021-09-22 19:58:00.028682,9
2021-09-22 19:58:00.028688,-82
2021-09-22 19:58:00.028694,-158
2021-09-22 19:58:00.028700,-216
2021-09-22 19:58:00.028706,-248
2021-09-22 19:58:00.028712,-257
2021-09-22 19:58:00.028718,-265
2021-09-22 19:58:00.028723,-262
2021-09-22 19:58:00.028729,-253
2021-09-22 19:58:00.028735,-243
2021-09-22 19:58:00.028741,-226
2021-09-22 19:58:00.028747,-216
2021-09-22 19:58:00.164081,-199
2021-09-22 19:58:00.164103,-165
2021-09-22 19:58:00.164110,-148
2021-09-22 19:58:00.164116,-158
2021-09-22 19:58:00.164122,-150
2021-09-22 19:58:00.164128,-131
2021-09-22 19:58:00.164134,-121
2021-09-22 19:58:00.164140,-116
2021-09-22 19:58:00.164146,-114
2021-09-22 19:58:00.164152,-119
2021-09-22 19:58:00.164158,-128
2021-09-22 19:58:00.164164,-126
2021-09-22 19:58:00.164170,-133
2021-09-22 19:58:00.164176,-145
2021-09-22 19:58:00.164182,-143
2021-09-22 19:58:00.164188,-145
2021-09-22 19:58:00.164194,-158
2021-09-22 19:58:00.164200,-158
2021-09-22 19:58:00.164206,-148
2021-09-22 19:58:00.164212,-145
2021-09-22 19:58:00.164218,-148
2021-09-22 19:58:00.164224,-148
2021-09-22 19:58:00.164230,-143
2021-09-22 19:58:00.164235,-136
2021-09-22 19:58:00.164241,-128
2021-09-22 19:58:00.164247,-124
2021-09-22 19:58:00.164253,-119
2021-09-22 19:58:00.164259,-119
2021-09-22 19:58:00.164265,-114
2021-09-22 19:58:00.164271,-104
2021-09-22 19:58:00.434023,-99
2021-09-22 19:58:00.434044,-92
2021-09-22 19:58:00.434051,-92
2021-09-22 19:58:00.434058,-99
2021-09-22 19:58:00.434064,-97
2021-09-22 19:58:00.434070,-85
2021-09-22 19:58:00.434076,-80
2021-09-22 19:58:00.434082,-77
2021-09-22 19:58:00.434088,-75
2021-09-22 19:58:00.434094,-75
2021-09-22 19:58:00.434100,-70
2021-09-22 19:58:00.434106,-65
2021-09-22 19:58:00.434112,-60
2021-09-22 19:58:00.434118,-51
2021-09-22 19:58:00.434124,-48
2021-09-22 19:58:00.434130,-51
2021-09-22 19:58:00.434136,-48
2021-09-22 19:58:00.434142,-51
2021-09-22 19:58:00.434148,-58
2021-09-22 19:58:00.434154,-43
2021-09-22 19:58:00.434160,-17
2021-09-22 19:58:00.434166,-2
2021-09-22 19:58:00.434172,0
2021-09-22 19:58:00.434178,4
2021-09-22 19:58:00.434184,14
2021-09-22 19:58:00.434190,9
2021-09-22 19:58:00.434196,-7
2021-09-22 19:58:00.434202,-19
2021-09-22 19:58:00.434208,-21
2021-09-22 19:58:00.434214,-14
2021-09-22 19:58:00.659095,-7
2021-09-22 19:58:00.659116,-4
2021-09-22 19:58:00.659124,-9
2021-09-22 19:58:00.659130,-12
2021-09-22 19:58:00.659136,-2
2021-09-22 19:58:00.659142,14
2021-09-22 19:58:00.659148,63
2021-09-22 19:58:00.659154,172
2021-09-22 19:58:00.659160,374
2021-09-22 19:58:00.659166,622
2021-09-22 19:58:00.659172,598
2021-09-22 19:58:00.659178,141
2021-09-22 19:58:00.659184,-430
2021-09-22 19:58:00.659190,-712
2021-09-22 19:58:00.659196,-496
2021-09-22 19:58:00.659202,-121
2021-09-22 19:58:00.659208,-17
2021-09-22 19:58:00.659214,2
2021-09-22 19:58:00.659220,104
2021-09-22 19:58:00.659226,136
2021-09-22 19:58:00.659231,109
2021-09-22 19:58:00.659237,128
2021-09-22 19:58:00.659243,158
2021-09-22 19:58:00.659249,163
2021-09-22 19:58:00.659255,172
2021-09-22 19:58:00.659261,184
2021-09-22 19:58:00.659267,192
2021-09-22 19:58:00.659273,201
2021-09-22 19:58:00.659279,216
2021-09-22 19:58:00.659285,231
2021-09-22 19:58:00.927800,250
2021-09-22 19:58:00.927821,277
2021-09-22 19:58:00.927828,299
2021-09-22 19:58:00.927834,313
2021-09-22 19:58:00.927840,343
2021-09-22 19:58:00.927846,379
2021-09-22 19:58:00.927852,411
2021-09-22 19:58:00.927858,435
2021-09-22 19:58:00.927864,455
2021-09-22 19:58:00.927871,474
2021-09-22 19:58:00.927878,486
2021-09-22 19:58:00.927887,481
2021-09-22 19:58:00.927893,457
2021-09-22 19:58:00.927899,411
2021-09-22 19:58:00.927905,338
2021-09-22 19:58:00.927911,240
2021-09-22 19:58:00.927917,128
2021-09-22 19:58:00.927923,24
2021-09-22 19:58:00.927929,-70
2021-09-22 19:58:00.927934,-145
2021-09-22 19:58:00.927940,-197
2021-09-22 19:58:00.927946,-233
2021-09-22 19:58:00.927952,-260
2021-09-22 19:58:00.927958,-267
2021-09-22 19:58:00.927964,-260
2021-09-22 19:58:00.927970,-253
2021-09-22 19:58:00.927976,-240
2021-09-22 19:58:00.927981,-226
2021-09-22 19:58:00.927987,-209
2021-09-22 19:58:00.927993,-189
2021-09-22 19:58:01.109063,-175
2021-09-22 19:58:01.109084,-167
2021-09-22 19:58:01.109091,-160
2021-09-22 19:58:01.109097,-158
2021-09-22 19:58:01.109104,-150
2021-09-22 19:58:01.109110,-141
2021-09-22 19:58:01.109116,-138
2021-09-22 19:58:01.109122,-141
2021-09-22 19:58:01.109128,-136
2021-09-22 19:58:01.109134,-131
2021-09-22 19:58:01.109140,-131
2021-09-22 19:58:01.109146,-128
2021-09-22 19:58:01.109152,-138
2021-09-22 19:58:01.109158,-148
2021-09-22 19:58:01.109164,-145
2021-09-22 19:58:01.109170,-148
2021-09-22 19:58:01.109176,-148
2021-09-22 19:58:01.109182,-143
2021-09-22 19:58:01.109188,-141
2021-09-22 19:58:01.109194,-138
2021-09-22 19:58:01.109199,-131
2021-09-22 19:58:01.109205,-128
2021-09-22 19:58:01.109211,-126
2021-09-22 19:58:01.109217,-126
2021-09-22 19:58:01.109223,-136
2021-09-22 19:58:01.109229,-136
2021-09-22 19:58:01.109235,-126
2021-09-22 19:58:01.109240,-121
2021-09-22 19:58:01.109246,-114
2021-09-22 19:58:01.109252,-107
2021-09-22 19:58:01.379005,-104
2021-09-22 19:58:01.379026,-102
2021-09-22 19:58:01.379033,-97
2021-09-22 19:58:01.379039,-94
2021-09-22 19:58:01.379731,-90
2021-09-22 19:58:01.379740,-85
2021-09-22 19:58:01.379746,-90
2021-09-22 19:58:01.379752,-90
2021-09-22 19:58:01.379758,-82
2021-09-22 19:58:01.379773,-77
2021-09-22 19:58:01.379780,-77
2021-09-22 19:58:01.379786,-75
2021-09-22 19:58:01.379792,-70
2021-09-22 19:58:01.379798,-51
2021-09-22 19:58:01.379804,-31
2021-09-22 19:58:01.379810,-36
2021-09-22 19:58:01.379816,-36
2021-09-22 19:58:01.379822,-21
2021-09-22 19:58:01.379827,-29
2021-09-22 19:58:01.379833,-43
2021-09-22 19:58:01.379839,-55
2021-09-22 19:58:01.379845,-63
2021-09-22 19:58:01.379851,-60
2021-09-22 19:58:01.379857,-55
2021-09-22 19:58:01.379863,-55
2021-09-22 19:58:01.379869,-53
2021-09-22 19:58:01.379875,-55
2021-09-22 19:58:01.379880,-58
2021-09-22 19:58:01.379886,-38
2021-09-22 19:58:01.379892,19
2021-09-22 19:58:01.603371,138
2021-09-22 19:58:01.603390,364
2021-09-22 19:58:01.603398,598
2021-09-22 19:58:01.603404,479
2021-09-22 19:58:01.603410,-26
2021-09-22 19:58:01.603416,-559
2021-09-22 19:58:01.603422,-756
2021-09-22 19:58:01.603428,-467
2021-09-22 19:58:01.603434,-114
2021-09-22 19:58:01.603440,-55
2021-09-22 19:58:01.603446,-19
2021-09-22 19:58:01.603452,94
2021-09-22 19:58:01.603458,107
2021-09-22 19:58:01.603464,92
2021-09-22 19:58:01.603470,128
2021-09-22 19:58:01.603476,143
2021-09-22 19:58:01.603482,138
2021-09-22 19:58:01.603488,153
2021-09-22 19:58:01.603494,170
2021-09-22 19:58:01.603500,177
2021-09-22 19:58:01.603506,189
2021-09-22 19:58:01.603512,206
2021-09-22 19:58:01.603518,221
2021-09-22 19:58:01.603523,236
2021-09-22 19:58:01.603529,257
2021-09-22 19:58:01.603535,284
2021-09-22 19:58:01.603541,311
2021-09-22 19:58:01.603547,340
2021-09-22 19:58:01.603553,369
2021-09-22 19:58:01.603558,396
2021-09-22 19:58:01.784045,428
2021-09-22 19:58:01.784066,464
2021-09-22 19:58:01.784073,481
2021-09-22 19:58:01.784080,479
2021-09-22 19:58:01.784086,467
2021-09-22 19:58:01.784092,440
2021-09-22 19:58:01.784098,389
2021-09-22 19:58:01.784104,311
2021-09-22 19:58:01.784110,201
2021-09-22 19:58:01.784116,80
2021-09-22 19:58:01.784122,-34
2021-09-22 19:58:01.784128,-121
2021-09-22 19:58:01.784134,-184
2021-09-22 19:58:01.784140,-228
2021-09-22 19:58:01.784146,-253
2021-09-22 19:58:01.784152,-265
2021-09-22 19:58:01.784158,-272
2021-09-22 19:58:01.784165,-270
2021-09-22 19:58:01.784171,-255
2021-09-22 19:58:01.784176,-238
2021-09-22 19:58:01.784182,-226
2021-09-22 19:58:01.784188,-214
2021-09-22 19:58:01.784194,-201
2021-09-22 19:58:01.784200,-189
2021-09-22 19:58:01.784206,-177
2021-09-22 19:58:01.784212,-163
2021-09-22 19:58:01.784218,-153
2021-09-22 19:58:01.784223,-145
2021-09-22 19:58:01.784230,-138
2021-09-22 19:58:01.784236,-133
2021-09-22 19:58:02.099096,-133
2021-09-22 19:58:02.099115,-131
2021-09-22 19:58:02.099123,-126
2021-09-22 19:58:02.099129,-128
2021-09-22 19:58:02.099135,-143
2021-09-22 19:58:02.099141,-143
2021-09-22 19:58:02.099147,-138
2021-09-22 19:58:02.099153,-141
2021-09-22 19:58:02.099159,-145
2021-09-22 19:58:02.099165,-145
2021-09-22 19:58:02.099171,-148
2021-09-22 19:58:02.099177,-148
2021-09-22 19:58:02.099183,-141
2021-09-22 19:58:02.099189,-136
2021-09-22 19:58:02.099195,-133
2021-09-22 19:58:02.099201,-131
2021-09-22 19:58:02.099207,-126
2021-09-22 19:58:02.099213,-119
2021-09-22 19:58:02.099218,-109
2021-09-22 19:58:02.099224,-104
2021-09-22 19:58:02.099230,-99
2021-09-22 19:58:02.099236,-99
2021-09-22 19:58:02.099242,-99
2021-09-22 19:58:02.099248,-92
2021-09-22 19:58:02.099254,-85
2021-09-22 19:58:02.099260,-80
2021-09-22 19:58:02.099265,-77
2021-09-22 19:58:02.099271,-80
2021-09-22 19:58:02.099277,-77
2021-09-22 19:58:02.099283,-70
2021-09-22 19:58:02.324114,-63
2021-09-22 19:58:02.324156,-60
2021-09-22 19:58:02.324163,-63
2021-09-22 19:58:02.324169,-70
2021-09-22 19:58:02.324176,-72
2021-09-22 19:58:02.324182,-72
2021-09-22 19:58:02.324188,-68
2021-09-22 19:58:02.324194,-58
2021-09-22 19:58:02.324200,-58
2021-09-22 19:58:02.324205,-63
2021-09-22 19:58:02.324211,-60
2021-09-22 19:58:02.324217,-55
2021-09-22 19:58:02.324223,-43
2021-09-22 19:58:02.324229,-24
2021-09-22 19:58:02.324235,-12
2021-09-22 19:58:02.324240,-21
2021-09-22 19:58:02.324247,-24
2021-09-22 19:58:02.324252,-9
2021-09-22 19:58:02.324258,-2
2021-09-22 19:58:02.324264,-19
2021-09-22 19:58:02.324270,-38
2021-09-22 19:58:02.324276,-53
2021-09-22 19:58:02.324282,-55
2021-09-22 19:58:02.324288,-46
2021-09-22 19:58:02.324294,-38
2021-09-22 19:58:02.324299,-38
2021-09-22 19:58:02.324305,-38
2021-09-22 19:58:02.324311,-41
2021-09-22 19:58:02.324317,-31
2021-09-22 19:58:02.324323,7
2021-09-22 19:58:02.548521,97
2021-09-22 19:58:02.548543,272
2021-09-22 19:58:02.548550,530
2021-09-22 19:58:02.548557,603
2021-09-22 19:58:02.548563,243
2021-09-22 19:58:02.548569,-316
2021-09-22 19:58:02.548575,-688
2021-09-22 19:58:02.548581,-615
2021-09-22 19:58:02.548588,-236
2021-09-22 19:58:02.548594,-46
2021-09-22 19:58:02.548600,-38
2021-09-22 19:58:02.548606,60
2021-09-22 19:58:02.548612,133
2021-09-22 19:58:02.548618,109
2021-09-22 19:58:02.548624,114
2021-09-22 19:58:02.548630,143
2021-09-22 19:58:02.548636,148
2021-09-22 19:58:02.548642,150
2021-09-22 19:58:02.548648,170
2021-09-22 19:58:02.548654,180
2021-09-22 19:58:02.548660,177
2021-09-22 19:58:02.548666,189
2021-09-22 19:58:02.548672,211
2021-09-22 19:58:02.548678,231
2021-09-22 19:58:02.548683,250
2021-09-22 19:58:02.548689,274
2021-09-22 19:58:02.548695,299
2021-09-22 19:58:02.548701,323
2021-09-22 19:58:02.548707,357
2021-09-22 19:58:02.548713,394
2021-09-22 19:58:02.729105,428
2021-09-22 19:58:02.729125,455
2021-09-22 19:58:02.729132,472
2021-09-22 19:58:02.729138,481
2021-09-22 19:58:02.729144,484
2021-09-22 19:58:02.729151,467
2021-09-22 19:58:02.729157,423
2021-09-22 19:58:02.729162,350
2021-09-22 19:58:02.729168,255
2021-09-22 19:58:02.729175,138
2021-09-22 19:58:02.729181,19
2021-09-22 19:58:02.729187,-75
2021-09-22 19:58:02.729193,-148
2021-09-22 19:58:02.729199,-211
2021-09-22 19:58:02.729205,-255
2021-09-22 19:58:02.729211,-270
2021-09-22 19:58:02.729217,-274
2021-09-22 19:58:02.729223,-277
2021-09-22 19:58:02.729229,-270
2021-09-22 19:58:02.729235,-257
2021-09-22 19:58:02.729241,-253
2021-09-22 19:58:02.729247,-243
2021-09-22 19:58:02.729253,-221
2021-09-22 19:58:02.729259,-204
2021-09-22 19:58:02.729264,-187
2021-09-22 19:58:02.729270,-175
2021-09-22 19:58:02.729276,-163
2021-09-22 19:58:02.729282,-153
2021-09-22 19:58:02.729288,-141
2021-09-22 19:58:02.729294,-131
2021-09-22 19:58:02.997696,-126
2021-09-22 19:58:02.997717,-128
2021-09-22 19:58:02.997724,-133
2021-09-22 19:58:02.997730,-133
2021-09-22 19:58:02.997737,-131
2021-09-22 19:58:02.997743,-126
2021-09-22 19:58:02.997749,-131
2021-09-22 19:58:02.997755,-141
2021-09-22 19:58:02.997761,-143
2021-09-22 19:58:02.997767,-145
2021-09-22 19:58:02.997773,-145
2021-09-22 19:58:02.997780,-141
2021-09-22 19:58:02.997786,-141
2021-09-22 19:58:02.997792,-138
2021-09-22 19:58:02.997798,-136
2021-09-22 19:58:02.997804,-128
2021-09-22 19:58:02.997810,-121
2021-09-22 19:58:02.997816,-114
2021-09-22 19:58:02.997821,-109
2021-09-22 19:58:02.997827,-109
2021-09-22 19:58:02.997833,-104
2021-09-22 19:58:02.997839,-99
2021-09-22 19:58:02.997845,-92
2021-09-22 19:58:02.997851,-85
2021-09-22 19:58:02.997856,-85
2021-09-22 19:58:02.997862,-82
2021-09-22 19:58:02.997868,-70
2021-09-22 19:58:02.997874,-65
2021-09-22 19:58:02.997880,-65
2021-09-22 19:58:02.997886,-63
2021-09-22 19:58:03.179134,-60
2021-09-22 19:58:03.179155,-60
2021-09-22 19:58:03.179162,-51
2021-09-22 19:58:03.179168,-46
2021-09-22 19:58:03.179174,-43
2021-09-22 19:58:03.179180,-41
2021-09-22 19:58:03.179186,-46
2021-09-22 19:58:03.179192,-48
2021-09-22 19:58:03.179198,-34
2021-09-22 19:58:03.179204,-29
2021-09-22 19:58:03.179210,-36
2021-09-22 19:58:03.179216,-41
2021-09-22 19:58:03.179222,-41
2021-09-22 19:58:03.179228,-38
2021-09-22 19:58:03.179234,-31
2021-09-22 19:58:03.179240,-26
2021-09-22 19:58:03.179246,-17
2021-09-22 19:58:03.179252,-7
2021-09-22 19:58:03.179257,-9
2021-09-22 19:58:03.179263,-2
2021-09-22 19:58:03.179269,12
2021-09-22 19:58:03.179275,4
2021-09-22 19:58:03.179281,-9
2021-09-22 19:58:03.179287,-17
2021-09-22 19:58:03.179293,-21
2021-09-22 19:58:03.179298,-17
2021-09-22 19:58:03.179304,-9
2021-09-22 19:58:03.179310,-12
2021-09-22 19:58:03.179316,-12
2021-09-22 19:58:03.179321,-4
2021-09-22 19:58:03.404104,-4
2021-09-22 19:58:03.404124,17
2021-09-22 19:58:03.404131,87
2021-09-22 19:58:03.404137,211
2021-09-22 19:58:03.404144,420
2021-09-22 19:58:03.404150,613
2021-09-22 19:58:03.404156,467
2021-09-22 19:58:03.404162,-12
2021-09-22 19:58:03.404168,-498
2021-09-22 19:58:03.404174,-676
2021-09-22 19:58:03.404180,-374
2021-09-22 19:58:03.404186,-41
2021-09-22 19:58:03.404192,-24
2021-09-22 19:58:03.404198,7
2021-09-22 19:58:03.404204,138
2021-09-22 19:58:03.404210,153
2021-09-22 19:58:03.404216,126
2021-09-22 19:58:03.404222,160
2021-09-22 19:58:03.404228,180
2021-09-22 19:58:03.404234,177
2021-09-22 19:58:03.404240,189
2021-09-22 19:58:03.404246,201
2021-09-22 19:58:03.404252,209
2021-09-22 19:58:03.404258,218
2021-09-22 19:58:03.404269,231
2021-09-22 19:58:03.404275,248
2021-09-22 19:58:03.404281,267
2021-09-22 19:58:03.404287,284
2021-09-22 19:58:03.404294,304
2021-09-22 19:58:03.404299,323
2021-09-22 19:58:03.718596,352
2021-09-22 19:58:03.718618,394
2021-09-22 19:58:03.718625,425
2021-09-22 19:58:03.718631,452
2021-09-22 19:58:03.718637,484
2021-09-22 19:58:03.718643,489
2021-09-22 19:58:03.718649,474
2021-09-22 19:58:03.718656,476
2021-09-22 19:58:03.718661,462
2021-09-22 19:58:03.718668,406
2021-09-22 19:58:03.718674,330
2021-09-22 19:58:03.718680,233
2021-09-22 19:58:03.718686,119
2021-09-22 19:58:03.718692,17
2021-09-22 19:58:03.718698,-75
2021-09-22 19:58:03.718704,-153
2021-09-22 19:58:03.718710,-199
2021-09-22 19:58:03.718716,-223
2021-09-22 19:58:03.718722,-245
2021-09-22 19:58:03.718728,-245
2021-09-22 19:58:03.718734,-243
2021-09-22 19:58:03.718740,-248
2021-09-22 19:58:03.718746,-240
2021-09-22 19:58:03.718751,-221
2021-09-22 19:58:03.718757,-204
2021-09-22 19:58:03.718763,-192
2021-09-22 19:58:03.718769,-182
2021-09-22 19:58:03.718775,-175
2021-09-22 19:58:03.718780,-167
2021-09-22 19:58:03.718787,-163
2021-09-22 19:58:03.854072,-155
2021-09-22 19:58:03.854091,-145
2021-09-22 19:58:03.854098,-141
2021-09-22 19:58:03.854104,-143
2021-09-22 19:58:03.854110,-145
2021-09-22 19:58:03.854116,-141
2021-09-22 19:58:03.854122,-136
2021-09-22 19:58:03.854128,-138
2021-09-22 19:58:03.854134,-141
2021-09-22 19:58:03.854140,-145
2021-09-22 19:58:03.854147,-158
2021-09-22 19:58:03.854153,-155
2021-09-22 19:58:03.854158,-143
2021-09-22 19:58:03.854164,-143
2021-09-22 19:58:03.854170,-145
2021-09-22 19:58:03.854176,-136
2021-09-22 19:58:03.854182,-133
2021-09-22 19:58:03.854188,-136
2021-09-22 19:58:03.854194,-133
2021-09-22 19:58:03.854200,-124
2021-09-22 19:58:03.854206,-114
2021-09-22 19:58:03.854211,-114
2021-09-22 19:58:03.854217,-116
2021-09-22 19:58:03.854223,-104
2021-09-22 19:58:03.854229,-97
2021-09-22 19:58:03.854235,-99
2021-09-22 19:58:03.854240,-94
2021-09-22 19:58:03.854246,-87
2021-09-22 19:58:03.854252,-85
2021-09-22 19:58:03.854258,-80
2021-09-22 19:58:04.124120,-77
2021-09-22 19:58:04.124143,-72
2021-09-22 19:58:04.124150,-65
2021-09-22 19:58:04.124156,-77
2021-09-22 19:58:04.124163,-85
2021-09-22 19:58:04.124169,-75
2021-09-22 19:58:04.124175,-68
2021-09-22 19:58:04.124181,-65
2021-09-22 19:58:04.124187,-65
2021-09-22 19:58:04.124193,-70
2021-09-22 19:58:04.124199,-70
2021-09-22 19:58:04.124205,-60
2021-09-22 19:58:04.124211,-53
2021-09-22 19:58:04.124217,-55
2021-09-22 19:58:04.124223,-55
2021-09-22 19:58:04.124229,-48
2021-09-22 19:58:04.124235,-31
2021-09-22 19:58:04.124241,-12
2021-09-22 19:58:04.124247,-12
2021-09-22 19:58:04.124253,-17
2021-09-22 19:58:04.124259,-12
2021-09-22 19:58:04.124265,-19
2021-09-22 19:58:04.124271,-36
2021-09-22 19:58:04.124276,-46
2021-09-22 19:58:04.124282,-55
2021-09-22 19:58:04.124288,-58
2021-09-22 19:58:04.124294,-63
2021-09-22 19:58:04.124300,-75
2021-09-22 19:58:04.124306,-72
2021-09-22 19:58:04.124312,-60
2021-09-22 19:58:04.349256,-55
2021-09-22 19:58:04.349277,-38
2021-09-22 19:58:04.349284,12
2021-09-22 19:58:04.349290,114
2021-09-22 19:58:04.349297,323
2021-09-22 19:58:04.349303,569
2021-09-22 19:58:04.349309,484
2021-09-22 19:58:04.349315,0
2021-09-22 19:58:04.349320,-496
2021-09-22 19:58:04.349326,-732
2021-09-22 19:58:04.349332,-525
2021-09-22 19:58:04.349338,-133
2021-09-22 19:58:04.349344,-21
2021-09-22 19:58:04.349350,-9
2021-09-22 19:58:04.349356,92
2021-09-22 19:58:04.349362,114
2021-09-22 19:58:04.349368,90
2021-09-22 19:58:04.349374,124
2021-09-22 19:58:04.349380,148
2021-09-22 19:58:04.349385,145
2021-09-22 19:58:04.349391,153
2021-09-22 19:58:04.349397,160
2021-09-22 19:58:04.349403,167
2021-09-22 19:58:04.349409,187
2021-09-22 19:58:04.349415,204
2021-09-22 19:58:04.349420,211
2021-09-22 19:58:04.349426,223
2021-09-22 19:58:04.349432,245
2021-09-22 19:58:04.349438,272
2021-09-22 19:58:04.349444,299
2021-09-22 19:58:04.574164,326
2021-09-22 19:58:04.574186,352
2021-09-22 19:58:04.574193,384
2021-09-22 19:58:04.574199,420
2021-09-22 19:58:04.574205,450
2021-09-22 19:58:04.574212,469
2021-09-22 19:58:04.574218,484
2021-09-22 19:58:04.574224,479
2021-09-22 19:58:04.574230,445
2021-09-22 19:58:04.574236,394
2021-09-22 19:58:04.574242,326
2021-09-22 19:58:04.574248,228
2021-09-22 19:58:04.574254,109
2021-09-22 19:58:04.574260,-9
2021-09-22 19:58:04.574266,-107
2021-09-22 19:58:04.574272,-184
2021-09-22 19:58:04.574278,-233
2021-09-22 19:58:04.574285,-262
2021-09-22 19:58:04.574290,-274
2021-09-22 19:58:04.574297,-277
2021-09-22 19:58:04.574303,-282
2021-09-22 19:58:04.574308,-274
2021-09-22 19:58:04.574314,-257
2021-09-22 19:58:04.574320,-255
2021-09-22 19:58:04.574326,-250
2021-09-22 19:58:04.574331,-228
2021-09-22 19:58:04.574337,-221
2021-09-22 19:58:04.574343,-218
2021-09-22 19:58:04.574349,-204
2021-09-22 19:58:04.574355,-180
2021-09-22 19:58:04.799139,-172
2021-09-22 19:58:04.799160,-172
2021-09-22 19:58:04.799167,-167
2021-09-22 19:58:04.799174,-160
2021-09-22 19:58:04.799180,-153
2021-09-22 19:58:04.799186,-143
2021-09-22 19:58:04.799192,-143
2021-09-22 19:58:04.799198,-153
2021-09-22 19:58:04.799204,-150
2021-09-22 19:58:04.799209,-143
2021-09-22 19:58:04.799215,-143
2021-09-22 19:58:04.799221,-138
2021-09-22 19:58:04.799227,-133
2021-09-22 19:58:04.799233,-143
2021-09-22 19:58:04.799239,-143
2021-09-22 19:58:04.799245,-131
2021-09-22 19:58:04.799251,-126
2021-09-22 19:58:04.799256,-124
2021-09-22 19:58:04.799262,-116
2021-09-22 19:58:04.799268,-109
2021-09-22 19:58:04.799274,-107
2021-09-22 19:58:04.799280,-104
2021-09-22 19:58:04.799286,-99
2021-09-22 19:58:04.799292,-92
2021-09-22 19:58:04.799298,-85
2021-09-22 19:58:04.799303,-87
2021-09-22 19:58:04.799309,-90
2021-09-22 19:58:04.799315,-82
2021-09-22 19:58:04.799321,-75
2021-09-22 19:58:04.799326,-72
2021-09-22 19:58:05.112830,-70
2021-09-22 19:58:05.112852,-68
2021-09-22 19:58:05.112859,-68
2021-09-22 19:58:05.112865,-63
2021-09-22 19:58:05.112871,-58
2021-09-22 19:58:05.112877,-60
2021-09-22 19:58:05.112884,-63
2021-09-22 19:58:05.112890,-63
2021-09-22 19:58:05.112896,-58
2021-09-22 19:58:05.112902,-51
2021-09-22 19:58:05.112908,-51
2021-09-22 19:58:05.112914,-48
2021-09-22 19:58:05.112920,-46
2021-09-22 19:58:05.112926,-46
2021-09-22 19:58:05.112932,-46
2021-09-22 19:58:05.112938,-46
2021-09-22 19:58:05.112944,-41
2021-09-22 19:58:05.112950,-24
2021-09-22 19:58:05.112956,-9
2021-09-22 19:58:05.112962,0
2021-09-22 19:58:05.112967,-2
2021-09-22 19:58:05.112973,-2
2021-09-22 19:58:05.112979,9
2021-09-22 19:58:05.112985,4
2021-09-22 19:58:05.112991,-17
2021-09-22 19:58:05.112996,-34
2021-09-22 19:58:05.113002,-41
2021-09-22 19:58:05.113008,-43
2021-09-22 19:58:05.113014,-38
2021-09-22 19:58:05.113020,-36
2021-09-22 19:58:05.249052,-41
2021-09-22 19:58:05.249069,-36
2021-09-22 19:58:05.249077,-26
2021-09-22 19:58:05.249083,-14
2021-09-22 19:58:05.249089,36
2021-09-22 19:58:05.249095,160
2021-09-22 19:58:05.249101,386
2021-09-22 19:58:05.249107,618
2021-09-22 19:58:05.249113,513
2021-09-22 19:58:05.249118,9
2021-09-22 19:58:05.249125,-528
2021-09-22 19:58:05.249147,-717
2021-09-22 19:58:05.249153,-430
2021-09-22 19:58:05.249159,-97
2021-09-22 19:58:05.249165,-43
2021-09-22 19:58:05.249171,-4
2021-09-22 19:58:05.249177,99
2021-09-22 19:58:05.249183,107
2021-09-22 19:58:05.249189,85
2021-09-22 19:58:05.249195,121
2021-09-22 19:58:05.249200,143
2021-09-22 19:58:05.249206,138
2021-09-22 19:58:05.249212,150
2021-09-22 19:58:05.249218,167
2021-09-22 19:58:05.249224,175
2021-09-22 19:58:05.249230,187
2021-09-22 19:58:05.249236,201
2021-09-22 19:58:05.249242,216
2021-09-22 19:58:05.249247,236
2021-09-22 19:58:05.249253,255
2021-09-22 19:58:05.518582,274
2021-09-22 19:58:05.518604,306
2021-09-22 19:58:05.518611,338
2021-09-22 19:58:05.518617,369
2021-09-22 19:58:05.518623,401
2021-09-22 19:58:05.518629,428
2021-09-22 19:58:05.518636,447
2021-09-22 19:58:05.518642,464
2021-09-22 19:58:05.518648,472
2021-09-22 19:58:05.518653,459
2021-09-22 19:58:05.518659,437
2021-09-22 19:58:05.518665,389
2021-09-22 19:58:05.518671,306
2021-09-22 19:58:05.518677,209
2021-09-22 19:58:05.518683,102
2021-09-22 19:58:05.518689,-12
2021-09-22 19:58:05.518695,-109
2021-09-22 19:58:05.518701,-184
2021-09-22 19:58:05.518707,-231
2021-09-22 19:58:05.518713,-262
2021-09-22 19:58:05.518718,-287
2021-09-22 19:58:05.518724,-294
2021-09-22 19:58:05.518730,-284
2021-09-22 19:58:05.518736,-274
2021-09-22 19:58:05.518742,-267
2021-09-22 19:58:05.518747,-250
2021-09-22 19:58:05.518753,-231
2021-09-22 19:58:05.518759,-214
2021-09-22 19:58:05.518765,-199
2021-09-22 19:58:05.518770,-184
2021-09-22 19:58:05.744176,-172
2021-09-22 19:58:05.744197,-165
2021-09-22 19:58:05.744204,-163
2021-09-22 19:58:05.744211,-155
2021-09-22 19:58:05.744217,-153
2021-09-22 19:58:05.744223,-148
2021-09-22 19:58:05.744229,-138
2021-09-22 19:58:05.744235,-131
2021-09-22 19:58:05.744241,-131
2021-09-22 19:58:05.744247,-131
2021-09-22 19:58:05.744253,-133
2021-09-22 19:58:05.744259,-136
2021-09-22 19:58:05.744265,-141
2021-09-22 19:58:05.744271,-145
2021-09-22 19:58:05.744277,-141
2021-09-22 19:58:05.744282,-138
2021-09-22 19:58:05.744288,-138
2021-09-22 19:58:05.744294,-133
2021-09-22 19:58:05.744300,-126
2021-09-22 19:58:05.744306,-119
2021-09-22 19:58:05.744312,-111
2021-09-22 19:58:05.744318,-107
2021-09-22 19:58:05.744323,-107
2021-09-22 19:58:05.744329,-102
2021-09-22 19:58:05.744335,-92
2021-09-22 19:58:05.744340,-87
2021-09-22 19:58:05.744346,-85
2021-09-22 19:58:05.744352,-82
2021-09-22 19:58:05.744358,-77
2021-09-22 19:58:05.744364,-72
2021-09-22 19:58:05.969141,-65
2021-09-22 19:58:05.969161,-60
2021-09-22 19:58:05.969168,-58
2021-09-22 19:58:05.969175,-63
2021-09-22 19:58:05.969181,-63
2021-09-22 19:58:05.969187,-51
2021-09-22 19:58:05.969193,-48
2021-09-22 19:58:05.969199,-46
2021-09-22 19:58:05.969205,-43
2021-09-22 19:58:05.969211,-53
2021-09-22 19:58:05.969217,-53
2021-09-22 19:58:05.969222,-43
2021-09-22 19:58:05.969228,-38
2021-09-22 19:58:05.969234,-36
2021-09-22 19:58:05.969240,-34
2021-09-22 19:58:05.969246,-38
2021-09-22 19:58:05.969252,-41
2021-09-22 19:58:05.969258,-31
2021-09-22 19:58:05.969263,-29
2021-09-22 19:58:05.969269,-29
2021-09-22 19:58:05.969275,-21
2021-09-22 19:58:05.969281,-12
2021-09-22 19:58:05.969287,7
2021-09-22 19:58:05.969293,14
2021-09-22 19:58:05.969299,7
2021-09-22 19:58:05.969305,17
2021-09-22 19:58:05.969311,21
2021-09-22 19:58:05.969316,2
2021-09-22 19:58:05.969322,-14
2021-09-22 19:58:05.969328,-14
2021-09-22 19:58:06.194106,-19
2021-09-22 19:58:06.194128,-19
2021-09-22 19:58:06.194135,-17
2021-09-22 19:58:06.194141,-19
2021-09-22 19:58:06.194148,-21
2021-09-22 19:58:06.194154,-21
2021-09-22 19:58:06.194160,-17
2021-09-22 19:58:06.194166,7
2021-09-22 19:58:06.194172,75
2021-09-22 19:58:06.194178,221
2021-09-22 19:58:06.194184,484
2021-09-22 19:58:06.194190,644
2021-09-22 19:58:06.194196,369
2021-09-22 19:58:06.194202,-209
2021-09-22 19:58:06.194208,-661
2021-09-22 19:58:06.194214,-666
2021-09-22 19:58:06.194219,-294
2021-09-22 19:58:06.194225,-60
2021-09-22 19:58:06.194231,-53
2021-09-22 19:58:06.194237,26
2021-09-22 19:58:06.194243,111
2021-09-22 19:58:06.194249,94
2021-09-22 19:58:06.194255,99
2021-09-22 19:58:06.194260,133
2021-09-22 19:58:06.194266,141
2021-09-22 19:58:06.194272,145
2021-09-22 19:58:06.194278,158
2021-09-22 19:58:06.194283,165
2021-09-22 19:58:06.194289,177
2021-09-22 19:58:06.194295,199
2021-09-22 19:58:06.419257,216
2021-09-22 19:58:06.419278,226
2021-09-22 19:58:06.419285,240
2021-09-22 19:58:06.419291,262
2021-09-22 19:58:06.419297,287
2021-09-22 19:58:06.419303,313
2021-09-22 19:58:06.419309,340
2021-09-22 19:58:06.419315,364
2021-09-22 19:58:06.419321,382
2021-09-22 19:58:06.419327,408
2021-09-22 19:58:06.419333,437
2021-09-22 19:58:06.419339,452
2021-09-22 19:58:06.419344,452
2021-09-22 19:58:06.419350,437
2021-09-22 19:58:06.419356,396
2021-09-22 19:58:06.419362,335
2021-09-22 19:58:06.419368,257
2021-09-22 19:58:06.419374,153
2021-09-22 19:58:06.419380,38
2021-09-22 19:58:06.419386,-65
2021-09-22 19:58:06.419392,-150
2021-09-22 19:58:06.419398,-216
2021-09-22 19:58:06.419404,-260
2021-09-22 19:58:06.419410,-277
2021-09-22 19:58:06.419416,-284
2021-09-22 19:58:06.419422,-287
2021-09-22 19:58:06.419427,-287
2021-09-22 19:58:06.419433,-277
2021-09-22 19:58:06.419439,-257
2021-09-22 19:58:06.419446,-240
2021-09-22 19:58:06.644177,-226
2021-09-22 19:58:06.644198,-211
2021-09-22 19:58:06.644206,-197
2021-09-22 19:58:06.644212,-184
2021-09-22 19:58:06.644218,-170
2021-09-22 19:58:06.644224,-155
2021-09-22 19:58:06.644230,-150
2021-09-22 19:58:06.644236,-150
2021-09-22 19:58:06.644242,-153
2021-09-22 19:58:06.644248,-150
2021-09-22 19:58:06.644254,-148
2021-09-22 19:58:06.644260,-143
2021-09-22 19:58:06.644266,-143
2021-09-22 19:58:06.644271,-150
2021-09-22 19:58:06.644277,-153
2021-09-22 19:58:06.644283,-145
2021-09-22 19:58:06.644289,-138
2021-09-22 19:58:06.644295,-138
2021-09-22 19:58:06.644301,-136
2021-09-22 19:58:06.644307,-128
2021-09-22 19:58:06.644312,-124
2021-09-22 19:58:06.644318,-121
2021-09-22 19:58:06.644324,-119
2021-09-22 19:58:06.644330,-121
2021-09-22 19:58:06.644336,-124
2021-09-22 19:58:06.644342,-116
2021-09-22 19:58:06.644347,-107
2021-09-22 19:58:06.644353,-104
2021-09-22 19:58:06.644362,-94
2021-09-22 19:58:06.644368,-90
2021-09-22 19:58:06.869134,-90
2021-09-22 19:58:06.869152,-85
2021-09-22 19:58:06.869160,-77
2021-09-22 19:58:06.869166,-75
2021-09-22 19:58:06.869172,-72
2021-09-22 19:58:06.869178,-65
2021-09-22 19:58:06.869184,-68
2021-09-22 19:58:06.869189,-70
2021-09-22 19:58:06.869195,-63
2021-09-22 19:58:06.869201,-55
2021-09-22 19:58:06.869207,-55
2021-09-22 19:58:06.869213,-60
2021-09-22 19:58:06.869219,-65
2021-09-22 19:58:06.869225,-63
2021-09-22 19:58:06.869230,-58
2021-09-22 19:58:06.869236,-53
2021-09-22 19:58:06.869242,-51
2021-09-22 19:58:06.869248,-46
2021-09-22 19:58:06.869253,-43
2021-09-22 19:58:06.869259,-38
2021-09-22 19:58:06.869266,-34
2021-09-22 19:58:06.869271,-29
2021-09-22 19:58:06.869277,-24
2021-09-22 19:58:06.869283,-24
2021-09-22 19:58:06.869289,-21
2021-09-22 19:58:06.869295,-7
2021-09-22 19:58:06.869301,14
2021-09-22 19:58:06.869307,21
2021-09-22 19:58:06.869313,17
2021-09-22 19:58:06.869318,21
2021-09-22 19:58:07.182859,29
2021-09-22 19:58:07.182880,17
2021-09-22 19:58:07.182888,0
2021-09-22 19:58:07.182894,-9
2021-09-22 19:58:07.182900,-14
2021-09-22 19:58:07.182906,-17
2021-09-22 19:58:07.182912,-21
2021-09-22 19:58:07.182919,-21
2021-09-22 19:58:07.182925,-17
2021-09-22 19:58:07.182931,-17
2021-09-22 19:58:07.182937,-12
2021-09-22 19:58:07.182943,7
2021-09-22 19:58:07.182949,58
2021-09-22 19:58:07.182955,180
2021-09-22 19:58:07.182961,416
2021-09-22 19:58:07.182967,635
2021-09-22 19:58:07.182973,486
2021-09-22 19:58:07.182979,-38
2021-09-22 19:58:07.182985,-557
2021-09-22 19:58:07.182990,-698
2021-09-22 19:58:07.182996,-377
2021-09-22 19:58:07.183002,-63
2021-09-22 19:58:07.183008,-24
2021-09-22 19:58:07.183014,31
2021-09-22 19:58:07.183020,133
2021-09-22 19:58:07.183026,136
2021-09-22 19:58:07.183032,124
2021-09-22 19:58:07.183038,155
2021-09-22 19:58:07.183044,160
2021-09-22 19:58:07.183050,148
2021-09-22 19:58:07.319121,160
2021-09-22 19:58:07.319148,182
2021-09-22 19:58:07.319155,189
2021-09-22 19:58:07.319162,199
2021-09-22 19:58:07.319169,214
2021-09-22 19:58:07.319177,223
2021-09-22 19:58:07.319184,236
2021-09-22 19:58:07.319191,260
2021-09-22 19:58:07.319198,284
2021-09-22 19:58:07.319206,304
2021-09-22 19:58:07.319213,330
2021-09-22 19:58:07.319221,357
2021-09-22 19:58:07.319228,386
2021-09-22 19:58:07.319237,423
2021-09-22 19:58:07.319244,452
2021-09-22 19:58:07.319252,457
2021-09-22 19:58:07.319261,452
2021-09-22 19:58:07.319268,442
2021-09-22 19:58:07.319277,423
2021-09-22 19:58:07.319286,374
2021-09-22 19:58:07.319295,291
2021-09-22 19:58:07.319305,187
2021-09-22 19:58:07.319313,70
2021-09-22 19:58:07.319323,-38
2021-09-22 19:58:07.319334,-124
2021-09-22 19:58:07.319343,-189
2021-09-22 19:58:07.319350,-236
2021-09-22 19:58:07.319360,-265
2021-09-22 19:58:07.319372,-279
2021-09-22 19:58:07.319386,-282
2021-09-22 19:58:07.634180,-277
2021-09-22 19:58:07.634200,-267
2021-09-22 19:58:07.634208,-253
2021-09-22 19:58:07.634214,-243
2021-09-22 19:58:07.634220,-231
2021-09-22 19:58:07.634226,-218
2021-09-22 19:58:07.634232,-199
2021-09-22 19:58:07.634238,-180
2021-09-22 19:58:07.634244,-170
2021-09-22 19:58:07.634250,-163
2021-09-22 19:58:07.634256,-158
2021-09-22 19:58:07.634262,-153
2021-09-22 19:58:07.634268,-138
2021-09-22 19:58:07.634274,-126
2021-09-22 19:58:07.634280,-124
2021-09-22 19:58:07.634286,-124
2021-09-22 19:58:07.634291,-124
2021-09-22 19:58:07.634297,-124
2021-09-22 19:58:07.634303,-128
2021-09-22 19:58:07.634309,-126
2021-09-22 19:58:07.634315,-116
2021-09-22 19:58:07.634320,-116
2021-09-22 19:58:07.634326,-121
2021-09-22 19:58:07.634332,-116
2021-09-22 19:58:07.634338,-107
2021-09-22 19:58:07.634344,-104
2021-09-22 19:58:07.634350,-99
2021-09-22 19:58:07.634356,-94
2021-09-22 19:58:07.634362,-94
2021-09-22 19:58:07.634368,-90
2021-09-22 19:58:07.769141,-80
2021-09-22 19:58:07.769161,-77
2021-09-22 19:58:07.769168,-75
2021-09-22 19:58:07.769175,-70
2021-09-22 19:58:07.769181,-72
2021-09-22 19:58:07.769187,-80
2021-09-22 19:58:07.769193,-72
2021-09-22 19:58:07.769199,-65
2021-09-22 19:58:07.769205,-68
2021-09-22 19:58:07.769210,-72
2021-09-22 19:58:07.769216,-75
2021-09-22 19:58:07.769222,-68
2021-09-22 19:58:07.769228,-63
2021-09-22 19:58:07.769234,-60
2021-09-22 19:58:07.769240,-53
2021-09-22 19:58:07.769246,-53
2021-09-22 19:58:07.769252,-55
2021-09-22 19:58:07.769257,-51
2021-09-22 19:58:07.769263,-46
2021-09-22 19:58:07.769269,-46
2021-09-22 19:58:07.769275,-48
2021-09-22 19:58:07.769280,-53
2021-09-22 19:58:07.769286,-51
2021-09-22 19:58:07.769292,-43
2021-09-22 19:58:07.769298,-36
2021-09-22 19:58:07.769303,-34
2021-09-22 19:58:07.769309,-31
2021-09-22 19:58:07.769315,-29
2021-09-22 19:58:07.769321,-29
2021-09-22 19:58:07.769327,-21
2021-09-22 19:58:08.039125,-4
2021-09-22 19:58:08.039146,14
2021-09-22 19:58:08.039153,17
2021-09-22 19:58:08.039160,2
2021-09-22 19:58:08.039166,2
2021-09-22 19:58:08.039172,19
2021-09-22 19:58:08.039178,17
2021-09-22 19:58:08.039184,-4
2021-09-22 19:58:08.039190,-21
2021-09-22 19:58:08.039195,-31
2021-09-22 19:58:08.039201,-31
2021-09-22 19:58:08.039207,-21
2021-09-22 19:58:08.039213,-19
2021-09-22 19:58:08.039219,-21
2021-09-22 19:58:08.039225,-21
2021-09-22 19:58:08.039231,-21
2021-09-22 19:58:08.039237,-4
2021-09-22 19:58:08.039243,53
2021-09-22 19:58:08.039249,170
2021-09-22 19:58:08.039255,391
2021-09-22 19:58:08.039261,630
2021-09-22 19:58:08.039267,540
2021-09-22 19:58:08.039273,41
2021-09-22 19:58:08.039279,-501
2021-09-22 19:58:08.039285,-705
2021-09-22 19:58:08.039291,-425
2021-09-22 19:58:08.039296,-85
2021-09-22 19:58:08.039302,-24
2021-09-22 19:58:08.039308,17
2021-09-22 19:58:08.039314,126
2021-09-22 19:58:08.264211,141
2021-09-22 19:58:08.264233,119
2021-09-22 19:58:08.264240,148
2021-09-22 19:58:08.264246,167
2021-09-22 19:58:08.264253,167
2021-09-22 19:58:08.264259,182
2021-09-22 19:58:08.264265,197
2021-09-22 19:58:08.264271,204
2021-09-22 19:58:08.264277,206
2021-09-22 19:58:08.264283,209
2021-09-22 19:58:08.264288,214
2021-09-22 19:58:08.264294,223
2021-09-22 19:58:08.264300,245
2021-09-22 19:58:08.264306,272
2021-09-22 19:58:08.264311,289
2021-09-22 19:58:08.264317,311
2021-09-22 19:58:08.264323,350
2021-09-22 19:58:08.264329,389
2021-09-22 19:58:08.264335,418
2021-09-22 19:58:08.264340,445
2021-09-22 19:58:08.264346,457
2021-09-22 19:58:08.264352,455
2021-09-22 19:58:08.264358,447
2021-09-22 19:58:08.264364,418
2021-09-22 19:58:08.264369,367
2021-09-22 19:58:08.264375,294
2021-09-22 19:58:08.264381,194
2021-09-22 19:58:08.264387,77
2021-09-22 19:58:08.264393,-26
2021-09-22 19:58:08.264398,-114
2021-09-22 19:58:08.489206,-184
2021-09-22 19:58:08.489227,-236
2021-09-22 19:58:08.489234,-267
2021-09-22 19:58:08.489241,-284
2021-09-22 19:58:08.489247,-284
2021-09-22 19:58:08.489253,-279
2021-09-22 19:58:08.489259,-272
2021-09-22 19:58:08.489265,-265
2021-09-22 19:58:08.489271,-255
2021-09-22 19:58:08.489277,-238
2021-09-22 19:58:08.489283,-221
2021-09-22 19:58:08.489289,-204
2021-09-22 19:58:08.489295,-187
2021-09-22 19:58:08.489301,-180
2021-09-22 19:58:08.489307,-172
2021-09-22 19:58:08.489312,-158
2021-09-22 19:58:08.489318,-145
2021-09-22 19:58:08.489324,-138
2021-09-22 19:58:08.489330,-128
2021-09-22 19:58:08.489335,-124
2021-09-22 19:58:08.489341,-124
2021-09-22 19:58:08.489347,-119
2021-09-22 19:58:08.489353,-111
2021-09-22 19:58:08.489359,-109
2021-09-22 19:58:08.489364,-107
2021-09-22 19:58:08.489370,-107
2021-09-22 19:58:08.489376,-111
2021-09-22 19:58:08.489381,-114
2021-09-22 19:58:08.489387,-104
2021-09-22 19:58:08.489393,-99
2021-09-22 19:58:08.759125,-99
2021-09-22 19:58:08.759146,-97
2021-09-22 19:58:08.759153,-92
2021-09-22 19:58:08.759159,-87
2021-09-22 19:58:08.759165,-82
2021-09-22 19:58:08.759171,-75
2021-09-22 19:58:08.759177,-75
2021-09-22 19:58:08.759183,-77
2021-09-22 19:58:08.759189,-75
2021-09-22 19:58:08.759195,-68
2021-09-22 19:58:08.759201,-63
2021-09-22 19:58:08.759207,-63
2021-09-22 19:58:08.759213,-65
2021-09-22 19:58:08.759219,-65
2021-09-22 19:58:08.759224,-63
2021-09-22 19:58:08.759230,-65
2021-09-22 19:58:08.759236,-70
2021-09-22 19:58:08.759242,-65
2021-09-22 19:58:08.759248,-60
2021-09-22 19:58:08.759254,-60
2021-09-22 19:58:08.759259,-55
2021-09-22 19:58:08.759265,-51
2021-09-22 19:58:08.759271,-48
2021-09-22 19:58:08.759277,-43
2021-09-22 19:58:08.759282,-41
2021-09-22 19:58:08.759288,-43
2021-09-22 19:58:08.759294,-43
2021-09-22 19:58:08.759300,-41
2021-09-22 19:58:08.759306,-41
2021-09-22 19:58:08.759312,-41
2021-09-22 19:58:08.983571,-36
2021-09-22 19:58:08.983589,-34
2021-09-22 19:58:08.983597,-29
2021-09-22 19:58:08.983603,-26
2021-09-22 19:58:08.983609,-21
2021-09-22 19:58:08.983615,-19
2021-09-22 19:58:08.983621,-21
2021-09-22 19:58:08.983627,-12
2021-09-22 19:58:08.983633,9
2021-09-22 19:58:08.983639,19
2021-09-22 19:58:08.983644,14
2021-09-22 19:58:08.983650,12
2021-09-22 19:58:08.983656,17
2021-09-22 19:58:08.983662,9
2021-09-22 19:58:08.983668,-7
2021-09-22 19:58:08.983674,-19
2021-09-22 19:58:08.983680,-24
2021-09-22 19:58:08.983685,-26
2021-09-22 19:58:08.983691,-29
2021-09-22 19:58:08.983697,-29
2021-09-22 19:58:08.983703,-21
2021-09-22 19:58:08.983708,-21
2021-09-22 19:58:08.983714,-21
2021-09-22 19:58:08.983720,-9
2021-09-22 19:58:08.983726,36
2021-09-22 19:58:08.983732,141
2021-09-22 19:58:08.983737,352
2021-09-22 19:58:08.983743,608
2021-09-22 19:58:08.983749,571
2021-09-22 19:58:08.983755,111
2021-09-22 19:58:09.207762,-452
2021-09-22 19:58:09.207781,-715
2021-09-22 19:58:09.207788,-476
2021-09-22 19:58:09.207794,-109
2021-09-22 19:58:09.207801,-24
2021-09-22 19:58:09.207807,0
2021-09-22 19:58:09.207812,107
2021-09-22 19:58:09.207818,136
2021-09-22 19:58:09.207824,114
2021-09-22 19:58:09.207830,141
2021-09-22 19:58:09.207836,163
2021-09-22 19:58:09.207842,150
2021-09-22 19:58:09.207848,148
2021-09-22 19:58:09.207869,172
2021-09-22 19:58:09.207876,187
2021-09-22 19:58:09.207882,189
2021-09-22 19:58:09.207887,201
2021-09-22 19:58:09.207893,216
2021-09-22 19:58:09.207899,231
2021-09-22 19:58:09.207905,250
2021-09-22 19:58:09.207911,274
2021-09-22 19:58:09.207917,289
2021-09-22 19:58:09.207923,301
2021-09-22 19:58:09.207928,330
2021-09-22 19:58:09.207934,369
2021-09-22 19:58:09.207940,401
2021-09-22 19:58:09.207946,423
2021-09-22 19:58:09.207952,442
2021-09-22 19:58:09.207958,450
2021-09-22 19:58:09.207964,442
2021-09-22 19:58:09.434219,423
2021-09-22 19:58:09.434240,382
2021-09-22 19:58:09.434247,306
2021-09-22 19:58:09.434253,204
2021-09-22 19:58:09.434260,90
2021-09-22 19:58:09.434266,-26
2021-09-22 19:58:09.434272,-119
2021-09-22 19:58:09.434278,-182
2021-09-22 19:58:09.434284,-238
2021-09-22 19:58:09.434290,-277
2021-09-22 19:58:09.434296,-299
2021-09-22 19:58:09.434302,-309
2021-09-22 19:58:09.434308,-306
2021-09-22 19:58:09.434314,-294
2021-09-22 19:58:09.434320,-279
2021-09-22 19:58:09.434326,-267
2021-09-22 19:58:09.434332,-253
2021-09-22 19:58:09.434338,-233
2021-09-22 19:58:09.434344,-211
2021-09-22 19:58:09.434350,-194
2021-09-22 19:58:09.434356,-177
2021-09-22 19:58:09.434362,-167
2021-09-22 19:58:09.434368,-160
2021-09-22 19:58:09.434374,-145
2021-09-22 19:58:09.434379,-133
2021-09-22 19:58:09.434385,-126
2021-09-22 19:58:09.434391,-121
2021-09-22 19:58:09.434397,-116
2021-09-22 19:58:09.434403,-119
2021-09-22 19:58:09.434409,-116
2021-09-22 19:58:09.614226,-111
2021-09-22 19:58:09.614246,-107
2021-09-22 19:58:09.614253,-107
2021-09-22 19:58:09.614259,-109
2021-09-22 19:58:09.614265,-114
2021-09-22 19:58:09.614271,-111
2021-09-22 19:58:09.614277,-107
2021-09-22 19:58:09.614283,-99
2021-09-22 19:58:09.614289,-97
2021-09-22 19:58:09.614295,-102
2021-09-22 19:58:09.614301,-104
2021-09-22 19:58:09.614307,-97
2021-09-22 19:58:09.614313,-90
2021-09-22 19:58:09.614319,-85
2021-09-22 19:58:09.614325,-85
2021-09-22 19:58:09.614331,-87
2021-09-22 19:58:09.614336,-90
2021-09-22 19:58:09.614342,-80
2021-09-22 19:58:09.614348,-72
2021-09-22 19:58:09.614354,-70
2021-09-22 19:58:09.614360,-65
2021-09-22 19:58:09.614366,-68
2021-09-22 19:58:09.614372,-65
2021-09-22 19:58:09.614377,-58
2021-09-22 19:58:09.614383,-55
2021-09-22 19:58:09.614389,-51
2021-09-22 19:58:09.614395,-48
2021-09-22 19:58:09.614401,-51
2021-09-22 19:58:09.614407,-60
2021-09-22 19:58:09.614413,-58
2021-09-22 19:58:09.973509,-51
2021-09-22 19:58:09.973529,-46
2021-09-22 19:58:09.973537,-48
2021-09-22 19:58:09.973543,-55
2021-09-22 19:58:09.973549,-55
2021-09-22 19:58:09.973555,-51
2021-09-22 19:58:09.973561,-53
2021-09-22 19:58:09.973567,-51
2021-09-22 19:58:09.973573,-48
2021-09-22 19:58:09.973579,-55
2021-09-22 19:58:09.973585,-53
2021-09-22 19:58:09.973591,-41
2021-09-22 19:58:09.973597,-36
2021-09-22 19:58:09.973603,-36
2021-09-22 19:58:09.973608,-36
2021-09-22 19:58:09.973614,-29
2021-09-22 19:58:09.973620,-9
2021-09-22 19:58:09.973626,9
2021-09-22 19:58:09.973632,9
2021-09-22 19:58:09.973638,7
2021-09-22 19:58:09.973643,17
2021-09-22 19:58:09.973649,9
2021-09-22 19:58:09.973655,-12
2021-09-22 19:58:09.973661,-21
2021-09-22 19:58:09.973667,-21
2021-09-22 19:58:09.973672,-24
2021-09-22 19:58:09.973678,-24
2021-09-22 19:58:09.973684,-26
2021-09-22 19:58:09.973690,-24
2021-09-22 19:58:09.973696,-21
2021-09-22 19:58:10.153559,-17
2021-09-22 19:58:10.153581,-12
2021-09-22 19:58:10.153588,14
2021-09-22 19:58:10.153594,92
2021-09-22 19:58:10.153600,250
2021-09-22 19:58:10.153606,513
2021-09-22 19:58:10.153612,644
2021-09-22 19:58:10.153618,340
2021-09-22 19:58:10.153624,-233
2021-09-22 19:58:10.153630,-666
2021-09-22 19:58:10.153636,-627
2021-09-22 19:58:10.153642,-236
2021-09-22 19:58:10.153648,-26
2021-09-22 19:58:10.153654,-24
2021-09-22 19:58:10.153660,58
2021-09-22 19:58:10.153665,121
2021-09-22 19:58:10.153671,99
2021-09-22 19:58:10.153677,109
2021-09-22 19:58:10.153683,143
2021-09-22 19:58:10.153688,145
2021-09-22 19:58:10.153694,141
2021-09-22 19:58:10.153700,148
2021-09-22 19:58:10.153706,163
2021-09-22 19:58:10.153711,177
2021-09-22 19:58:10.153717,189
2021-09-22 19:58:10.153723,199
2021-09-22 19:58:10.153728,209
2021-09-22 19:58:10.153734,223
2021-09-22 19:58:10.153740,245
2021-09-22 19:58:10.153746,265
2021-09-22 19:58:10.334112,294
2021-09-22 19:58:10.334131,326
2021-09-22 19:58:10.334138,355
2021-09-22 19:58:10.334145,379
2021-09-22 19:58:10.334151,401
2021-09-22 19:58:10.334157,425
2021-09-22 19:58:10.334163,447
2021-09-22 19:58:10.334169,442
2021-09-22 19:58:10.334175,423
2021-09-22 19:58:10.334180,386
2021-09-22 19:58:10.334186,330
2021-09-22 19:58:10.334192,245
2021-09-22 19:58:10.334198,141
2021-09-22 19:58:10.334204,21
2021-09-22 19:58:10.334209,-87
2021-09-22 19:58:10.334215,-167
2021-09-22 19:58:10.334221,-223
2021-09-22 19:58:10.334227,-262
2021-09-22 19:58:10.334233,-284
2021-09-22 19:58:10.334239,-296
2021-09-22 19:58:10.334244,-299
2021-09-22 19:58:10.334250,-291
2021-09-22 19:58:10.334256,-279
2021-09-22 19:58:10.334262,-262
2021-09-22 19:58:10.334268,-245
2021-09-22 19:58:10.334273,-233
2021-09-22 19:58:10.334279,-221
2021-09-22 19:58:10.334285,-199
2021-09-22 19:58:10.334291,-182
2021-09-22 19:58:10.334296,-167
2021-09-22 19:58:10.559232,-158
2021-09-22 19:58:10.559254,-148
2021-09-22 19:58:10.559261,-136
2021-09-22 19:58:10.559267,-128
2021-09-22 19:58:10.559273,-124
2021-09-22 19:58:10.559279,-119
2021-09-22 19:58:10.559285,-116
2021-09-22 19:58:10.559291,-124
2021-09-22 19:58:10.559297,-124
2021-09-22 19:58:10.559303,-114
2021-09-22 19:58:10.559309,-111
2021-09-22 19:58:10.559315,-114
2021-09-22 19:58:10.559321,-121
2021-09-22 19:58:10.559326,-131
2021-09-22 19:58:10.559332,-131
2021-09-22 19:58:10.559338,-121
2021-09-22 19:58:10.559343,-114
2021-09-22 19:58:10.559349,-109
2021-09-22 19:58:10.559355,-107
2021-09-22 19:58:10.559361,-104
2021-09-22 19:58:10.559366,-97
2021-09-22 19:58:10.559372,-94
2021-09-22 19:58:10.559378,-90
2021-09-22 19:58:10.559384,-80
2021-09-22 19:58:10.559389,-77
2021-09-22 19:58:10.559395,-77
2021-09-22 19:58:10.559440,-72
2021-09-22 19:58:10.559447,-68
2021-09-22 19:58:10.559453,-65
2021-09-22 19:58:10.559459,-60
2021-09-22 19:58:10.784238,-55
2021-09-22 19:58:10.784259,-53
2021-09-22 19:58:10.784266,-51
2021-09-22 19:58:10.784272,-48
2021-09-22 19:58:10.784279,-48
2021-09-22 19:58:10.784285,-46
2021-09-22 19:58:10.784290,-51
2021-09-22 19:58:10.784296,-55
2021-09-22 19:58:10.784302,-51
2021-09-22 19:58:10.784309,-53
2021-09-22 19:58:10.784315,-63
2021-09-22 19:58:10.784321,-60
2021-09-22 19:58:10.784326,-55
2021-09-22 19:58:10.784332,-60
2021-09-22 19:58:10.784338,-63
2021-09-22 19:58:10.784344,-63
2021-09-22 19:58:10.784350,-58
2021-09-22 19:58:10.784356,-53
2021-09-22 19:58:10.784361,-55
2021-09-22 19:58:10.784367,-48
2021-09-22 19:58:10.784373,-38
2021-09-22 19:58:10.784379,-41
2021-09-22 19:58:10.784385,-38
2021-09-22 19:58:10.784390,-29
2021-09-22 19:58:10.784396,-12
2021-09-22 19:58:10.784402,4
2021-09-22 19:58:10.784408,9
2021-09-22 19:58:10.784413,2
2021-09-22 19:58:10.784419,9
2021-09-22 19:58:10.784425,14
2021-09-22 19:58:11.009146,-2
2021-09-22 19:58:11.009166,-21
2021-09-22 19:58:11.009173,-26
2021-09-22 19:58:11.009179,-34
2021-09-22 19:58:11.009186,-34
2021-09-22 19:58:11.009192,-34
2021-09-22 19:58:11.009198,-36
2021-09-22 19:58:11.009204,-34
2021-09-22 19:58:11.009209,-26
2021-09-22 19:58:11.009215,-21
2021-09-22 19:58:11.009221,-2
2021-09-22 19:58:11.009227,60
2021-09-22 19:58:11.009233,192
2021-09-22 19:58:11.009239,445
2021-09-22 19:58:11.009245,649
2021-09-22 19:58:11.009251,447
2021-09-22 19:58:11.009257,-107
2021-09-22 19:58:11.009263,-610
2021-09-22 19:58:11.009269,-700
2021-09-22 19:58:11.009275,-347
2021-09-22 19:58:11.009280,-68
2021-09-22 19:58:11.009286,-48
2021-09-22 19:58:11.009292,19
2021-09-22 19:58:11.009298,109
2021-09-22 19:58:11.009304,99
2021-09-22 19:58:11.009310,99
2021-09-22 19:58:11.009315,138
2021-09-22 19:58:11.009321,143
2021-09-22 19:58:11.009327,143
2021-09-22 19:58:11.009333,158
2021-09-22 19:58:11.277826,165
2021-09-22 19:58:11.277847,170
2021-09-22 19:58:11.277854,182
2021-09-22 19:58:11.277860,194
2021-09-22 19:58:11.277866,204
2021-09-22 19:58:11.277872,214
2021-09-22 19:58:11.277878,233
2021-09-22 19:58:11.277884,262
2021-09-22 19:58:11.277890,289
2021-09-22 19:58:11.277896,316
2021-09-22 19:58:11.277902,345
2021-09-22 19:58:11.277908,377
2021-09-22 19:58:11.277913,408
2021-09-22 19:58:11.277919,437
2021-09-22 19:58:11.277925,452
2021-09-22 19:58:11.277931,445
2021-09-22 19:58:11.277936,425
2021-09-22 19:58:11.277942,399
2021-09-22 19:58:11.277948,350
2021-09-22 19:58:11.277954,267
2021-09-22 19:58:11.277960,165
2021-09-22 19:58:11.277965,51
2021-09-22 19:58:11.277971,-55
2021-09-22 19:58:11.277977,-141
2021-09-22 19:58:11.277983,-204
2021-09-22 19:58:11.277989,-250
2021-09-22 19:58:11.277995,-274
2021-09-22 19:58:11.278000,-289
2021-09-22 19:58:11.278006,-291
2021-09-22 19:58:11.278012,-284
2021-09-22 19:58:11.459256,-272
2021-09-22 19:58:11.459278,-257
2021-09-22 19:58:11.459285,-243
2021-09-22 19:58:11.459291,-236
2021-09-22 19:58:11.459298,-223
2021-09-22 19:58:11.459304,-206
2021-09-22 19:58:11.459310,-187
2021-09-22 19:58:11.459315,-175
2021-09-22 19:58:11.459321,-163
2021-09-22 19:58:11.459327,-155
2021-09-22 19:58:11.459333,-155
2021-09-22 19:58:11.459339,-145
2021-09-22 19:58:11.459345,-131
2021-09-22 19:58:11.459351,-126
2021-09-22 19:58:11.459357,-124
2021-09-22 19:58:11.459363,-119
2021-09-22 19:58:11.459369,-119
2021-09-22 19:58:11.459375,-116
2021-09-22 19:58:11.459381,-111
2021-09-22 19:58:11.459387,-109
2021-09-22 19:58:11.459393,-111
2021-09-22 19:58:11.459398,-119
2021-09-22 19:58:11.459404,-119
2021-09-22 19:58:11.459410,-107
2021-09-22 19:58:11.459416,-104
2021-09-22 19:58:11.459422,-102
2021-09-22 19:58:11.459428,-97
2021-09-22 19:58:11.459433,-92
2021-09-22 19:58:11.459439,-90
2021-09-22 19:58:11.459445,-85
2021-09-22 19:58:11.729262,-77
2021-09-22 19:58:11.729284,-72
2021-09-22 19:58:11.729291,-72
2021-09-22 19:58:11.729297,-77
2021-09-22 19:58:11.729303,-80
2021-09-22 19:58:11.729309,-70
2021-09-22 19:58:11.729315,-65
2021-09-22 19:58:11.729321,-63
2021-09-22 19:58:11.729327,-58
2021-09-22 19:58:11.729332,-63
2021-09-22 19:58:11.729338,-65
2021-09-22 19:58:11.729344,-60
2021-09-22 19:58:11.729350,-51
2021-09-22 19:58:11.729356,-48
2021-09-22 19:58:11.729362,-51
2021-09-22 19:58:11.729367,-51
2021-09-22 19:58:11.729373,-48
2021-09-22 19:58:11.729379,-41
2021-09-22 19:58:11.729385,-36
2021-09-22 19:58:11.729391,-31
2021-09-22 19:58:11.729397,-36
2021-09-22 19:58:11.729403,-46
2021-09-22 19:58:11.729408,-53
2021-09-22 19:58:11.729414,-53
2021-09-22 19:58:11.729420,-46
2021-09-22 19:58:11.729426,-43
2021-09-22 19:58:11.729431,-43
2021-09-22 19:58:11.729437,-43
2021-09-22 19:58:11.729443,-36
2021-09-22 19:58:11.729449,-29
2021-09-22 19:58:11.954167,-26
2021-09-22 19:58:11.954187,-21
2021-09-22 19:58:11.954195,-12
2021-09-22 19:58:11.954201,2
2021-09-22 19:58:11.954207,12
2021-09-22 19:58:11.954213,12
2021-09-22 19:58:11.954219,14
2021-09-22 19:58:11.954225,24
2021-09-22 19:58:11.954231,9
2021-09-22 19:58:11.954237,-21
2021-09-22 19:58:11.954243,-29
2021-09-22 19:58:11.954248,-24
2021-09-22 19:58:11.954254,-26
2021-09-22 19:58:11.954260,-26
2021-09-22 19:58:11.954266,-31
2021-09-22 19:58:11.954272,-38
2021-09-22 19:58:11.954278,-34
2021-09-22 19:58:11.954283,-26
2021-09-22 19:58:11.954289,-12
2021-09-22 19:58:11.954295,36
2021-09-22 19:58:11.954301,145
2021-09-22 19:58:11.954307,350
2021-09-22 19:58:11.954312,605
2021-09-22 19:58:11.954318,569
2021-09-22 19:58:11.954324,97
2021-09-22 19:58:11.954330,-481
2021-09-22 19:58:11.954335,-742
2021-09-22 19:58:11.954341,-491
2021-09-22 19:58:11.954347,-126
2021-09-22 19:58:11.954353,-46
2021-09-22 19:58:12.179253,-14
2021-09-22 19:58:12.179275,94
2021-09-22 19:58:12.179282,114
2021-09-22 19:58:12.179289,90
2021-09-22 19:58:12.179295,119
2021-09-22 19:58:12.179301,136
2021-09-22 19:58:12.179306,131
2021-09-22 19:58:12.179312,138
2021-09-22 19:58:12.179318,145
2021-09-22 19:58:12.179324,148
2021-09-22 19:58:12.179330,165
2021-09-22 19:58:12.179336,184
2021-09-22 19:58:12.179342,197
2021-09-22 19:58:12.179348,211
2021-09-22 19:58:12.179354,223
2021-09-22 19:58:12.179360,243
2021-09-22 19:58:12.179365,272
2021-09-22 19:58:12.179371,306
2021-09-22 19:58:12.179377,340
2021-09-22 19:58:12.179383,372
2021-09-22 19:58:12.179389,401
2021-09-22 19:58:12.179395,430
2021-09-22 19:58:12.179401,455
2021-09-22 19:58:12.179407,464
2021-09-22 19:58:12.179412,459
2021-09-22 19:58:12.179418,440
2021-09-22 19:58:12.179424,394
2021-09-22 19:58:12.179430,316
2021-09-22 19:58:12.179436,216
2021-09-22 19:58:12.179442,107
2021-09-22 19:58:12.404350,-2
2021-09-22 19:58:12.404368,-99
2021-09-22 19:58:12.404375,-177
2021-09-22 19:58:12.404381,-233
2021-09-22 19:58:12.404388,-262
2021-09-22 19:58:12.404394,-274
2021-09-22 19:58:12.404400,-282
2021-09-22 19:58:12.404406,-287
2021-09-22 19:58:12.404412,-282
2021-09-22 19:58:12.404418,-265
2021-09-22 19:58:12.404424,-248
2021-09-22 19:58:12.404429,-233
2021-09-22 19:58:12.404435,-221
2021-09-22 19:58:12.404441,-214
2021-09-22 19:58:12.404449,-199
2021-09-22 19:58:12.404457,-182
2021-09-22 19:58:12.404464,-163
2021-09-22 19:58:12.404471,-150
2021-09-22 19:58:12.404477,-145
2021-09-22 19:58:12.404483,-141
2021-09-22 19:58:12.404489,-131
2021-09-22 19:58:12.404494,-119
2021-09-22 19:58:12.404500,-111
2021-09-22 19:58:12.404506,-107
2021-09-22 19:58:12.404512,-104
2021-09-22 19:58:12.404518,-104
2021-09-22 19:58:12.404524,-102
2021-09-22 19:58:12.404530,-99
2021-09-22 19:58:12.404535,-102
2021-09-22 19:58:12.404541,-109
2021-09-22 19:58:12.629190,-107
2021-09-22 19:58:12.629209,-92
2021-09-22 19:58:12.629216,-90
2021-09-22 19:58:12.629222,-94
2021-09-22 19:58:12.629228,-90
2021-09-22 19:58:12.629234,-80
2021-09-22 19:58:12.629240,-80
2021-09-22 19:58:12.629246,-82
2021-09-22 19:58:12.629252,-77
2021-09-22 19:58:12.629258,-77
2021-09-22 19:58:12.629264,-90
2021-09-22 19:58:12.629270,-90
2021-09-22 19:58:12.629276,-60
2021-09-22 19:58:12.629282,-53
2021-09-22 19:58:12.629287,-87
2021-09-22 19:58:12.629293,-94
2021-09-22 19:58:12.629299,-58
2021-09-22 19:58:12.629305,-19
2021-09-22 19:58:12.629311,2
2021-09-22 19:58:12.629317,9
2021-09-22 19:58:12.629323,4
2021-09-22 19:58:12.629328,-2
2021-09-22 19:58:12.629334,-4
2021-09-22 19:58:12.629340,0
2021-09-22 19:58:12.629346,12
2021-09-22 19:58:12.629351,19
2021-09-22 19:58:12.629357,12
2021-09-22 19:58:12.629363,-9
2021-09-22 19:58:12.629369,-14
2021-09-22 19:58:12.629374,-2
2021-09-22 19:58:12.854182,0
2021-09-22 19:58:12.854203,21
2021-09-22 19:58:12.854210,43
2021-09-22 19:58:12.854217,24
2021-09-22 19:58:12.854223,7
2021-09-22 19:58:12.854229,17
2021-09-22 19:58:12.854235,17
2021-09-22 19:58:12.854241,9
2021-09-22 19:58:12.854247,17
2021-09-22 19:58:12.854252,43
2021-09-22 19:58:12.854258,68
2021-09-22 19:58:12.854264,55
2021-09-22 19:58:12.854270,29
2021-09-22 19:58:12.854276,29
2021-09-22 19:58:12.854282,36
2021-09-22 19:58:12.854288,29
2021-09-22 19:58:12.854293,24
2021-09-22 19:58:12.854299,24
2021-09-22 19:58:12.854305,24
2021-09-22 19:58:12.854315,29
2021-09-22 19:58:12.854321,31
2021-09-22 19:58:12.854326,26
2021-09-22 19:58:12.854332,26
2021-09-22 19:58:12.854338,29
2021-09-22 19:58:12.854344,48
2021-09-22 19:58:12.854349,114
2021-09-22 19:58:12.854355,223
2021-09-22 19:58:12.854361,391
2021-09-22 19:58:12.854367,566
2021-09-22 19:58:12.854372,489
2021-09-22 19:58:13.124210,72
2021-09-22 19:58:13.124232,-423
2021-09-22 19:58:13.124240,-674
2021-09-22 19:58:13.124246,-433
2021-09-22 19:58:13.124252,-72
2021-09-22 19:58:13.124258,-19
2021-09-22 19:58:13.124264,-9
2021-09-22 19:58:13.124269,114
2021-09-22 19:58:13.124275,148
2021-09-22 19:58:13.124281,116
2021-09-22 19:58:13.124287,136
2021-09-22 19:58:13.124293,155
2021-09-22 19:58:13.124299,143
2021-09-22 19:58:13.124305,150
2021-09-22 19:58:13.124310,163
2021-09-22 19:58:13.124330,160
2021-09-22 19:58:13.124336,167
2021-09-22 19:58:13.124342,180
2021-09-22 19:58:13.124348,189
2021-09-22 19:58:13.124354,206
2021-09-22 19:58:13.124359,223
2021-09-22 19:58:13.124365,240
2021-09-22 19:58:13.124371,260
2021-09-22 19:58:13.124377,289
2021-09-22 19:58:13.124382,323
2021-09-22 19:58:13.124388,357
2021-09-22 19:58:13.124394,389
2021-09-22 19:58:13.124400,416
2021-09-22 19:58:13.124405,428
2021-09-22 19:58:13.124411,433
2021-09-22 19:58:13.347884,428
2021-09-22 19:58:13.347904,411
2021-09-22 19:58:13.347911,372
2021-09-22 19:58:13.347917,304
2021-09-22 19:58:13.347923,209
2021-09-22 19:58:13.347929,97
2021-09-22 19:58:13.347935,-7
2021-09-22 19:58:13.347941,-94
2021-09-22 19:58:13.347947,-170
2021-09-22 19:58:13.347953,-233
2021-09-22 19:58:13.347959,-272
2021-09-22 19:58:13.347965,-282
2021-09-22 19:58:13.347971,-279
2021-09-22 19:58:13.347977,-270
2021-09-22 19:58:13.347983,-257
2021-09-22 19:58:13.347989,-250
2021-09-22 19:58:13.347995,-240
2021-09-22 19:58:13.348000,-223
2021-09-22 19:58:13.348006,-204
2021-09-22 19:58:13.348012,-192
2021-09-22 19:58:13.348018,-180
2021-09-22 19:58:13.348024,-172
2021-09-22 19:58:13.348030,-165
2021-09-22 19:58:13.348036,-155
2021-09-22 19:58:13.348042,-145
2021-09-22 19:58:13.348047,-138
2021-09-22 19:58:13.348053,-133
2021-09-22 19:58:13.348059,-131
2021-09-22 19:58:13.348065,-131
2021-09-22 19:58:13.348071,-126
2021-09-22 19:58:13.664286,-124
2021-09-22 19:58:13.664307,-119
2021-09-22 19:58:13.664314,-119
2021-09-22 19:58:13.664320,-124
2021-09-22 19:58:13.664326,-128
2021-09-22 19:58:13.664332,-121
2021-09-22 19:58:13.664338,-119
2021-09-22 19:58:13.664343,-124
2021-09-22 19:58:13.664349,-126
2021-09-22 19:58:13.664355,-131
2021-09-22 19:58:13.664361,-131
2021-09-22 19:58:13.664367,-121
2021-09-22 19:58:13.664373,-109
2021-09-22 19:58:13.664378,-104
2021-09-22 19:58:13.664384,-102
2021-09-22 19:58:13.664390,-104
2021-09-22 19:58:13.664396,-102
2021-09-22 19:58:13.664402,-94
2021-09-22 19:58:13.664407,-87
2021-09-22 19:58:13.664413,-82
2021-09-22 19:58:13.664419,-77
2021-09-22 19:58:13.664425,-82
2021-09-22 19:58:13.664431,-77
2021-09-22 19:58:13.664436,-68
2021-09-22 19:58:13.664442,-60
2021-09-22 19:58:13.664448,-58
2021-09-22 19:58:13.664453,-53
2021-09-22 19:58:13.664459,-55
2021-09-22 19:58:13.664465,-55
2021-09-22 19:58:13.664471,-46
2021-09-22 19:58:13.799168,-43
2021-09-22 19:58:13.799187,-41
2021-09-22 19:58:13.799194,-38
2021-09-22 19:58:13.799201,-41
2021-09-22 19:58:13.799207,-38
2021-09-22 19:58:13.799213,-31
2021-09-22 19:58:13.799219,-26
2021-09-22 19:58:13.799226,-14
2021-09-22 19:58:13.799232,0
2021-09-22 19:58:13.799238,2
2021-09-22 19:58:13.799244,-4
2021-09-22 19:58:13.799250,4
2021-09-22 19:58:13.799256,14
2021-09-22 19:58:13.799263,0
2021-09-22 19:58:13.799269,-24
2021-09-22 19:58:13.799275,-43
2021-09-22 19:58:13.799281,-48
2021-09-22 19:58:13.799287,-41
2021-09-22 19:58:13.799293,-31
2021-09-22 19:58:13.799299,-31
2021-09-22 19:58:13.799305,-41
2021-09-22 19:58:13.799311,-48
2021-09-22 19:58:13.799317,-36
2021-09-22 19:58:13.799324,-2
2021-09-22 19:58:13.799330,68
2021-09-22 19:58:13.799336,206
2021-09-22 19:58:13.799342,437
2021-09-22 19:58:13.799348,574
2021-09-22 19:58:13.799354,306
2021-09-22 19:58:13.799360,-211
2021-09-22 19:58:14.069284,-620
2021-09-22 19:58:14.069307,-691
2021-09-22 19:58:14.069314,-350
2021-09-22 19:58:14.069320,-51
2021-09-22 19:58:14.069326,-34
2021-09-22 19:58:14.069332,29
2021-09-22 19:58:14.069338,131
2021-09-22 19:58:14.069344,116
2021-09-22 19:58:14.069350,99
2021-09-22 19:58:14.069356,131
2021-09-22 19:58:14.069362,138
2021-09-22 19:58:14.069367,128
2021-09-22 19:58:14.069373,141
2021-09-22 19:58:14.069379,155
2021-09-22 19:58:14.069385,155
2021-09-22 19:58:14.069391,163
2021-09-22 19:58:14.069397,184
2021-09-22 19:58:14.069403,197
2021-09-22 19:58:14.069409,206
2021-09-22 19:58:14.069415,226
2021-09-22 19:58:14.069421,255
2021-09-22 19:58:14.069426,282
2021-09-22 19:58:14.069432,313
2021-09-22 19:58:14.069438,347
2021-09-22 19:58:14.069444,384
2021-09-22 19:58:14.069450,420
2021-09-22 19:58:14.069456,445
2021-09-22 19:58:14.069462,457
2021-09-22 19:58:14.069468,462
2021-09-22 19:58:14.069473,455
2021-09-22 19:58:14.294299,430
2021-09-22 19:58:14.294320,374
2021-09-22 19:58:14.294327,284
2021-09-22 19:58:14.294334,170
2021-09-22 19:58:14.294340,51
2021-09-22 19:58:14.294346,-53
2021-09-22 19:58:14.294352,-136
2021-09-22 19:58:14.294357,-204
2021-09-22 19:58:14.294363,-255
2021-09-22 19:58:14.294370,-272
2021-09-22 19:58:14.294375,-274
2021-09-22 19:58:14.294381,-272
2021-09-22 19:58:14.294387,-267
2021-09-22 19:58:14.294393,-262
2021-09-22 19:58:14.294399,-257
2021-09-22 19:58:14.294405,-243
2021-09-22 19:58:14.294411,-223
2021-09-22 19:58:14.294416,-209
2021-09-22 19:58:14.294422,-199
2021-09-22 19:58:14.294428,-189
2021-09-22 19:58:14.294434,-187
2021-09-22 19:58:14.294440,-182
2021-09-22 19:58:14.294445,-160
2021-09-22 19:58:14.294451,-136
2021-09-22 19:58:14.294457,-128
2021-09-22 19:58:14.294463,-121
2021-09-22 19:58:14.294468,-114
2021-09-22 19:58:14.294474,-114
2021-09-22 19:58:14.294480,-107
2021-09-22 19:58:14.294486,-90
2021-09-22 19:58:14.474127,-80
2021-09-22 19:58:14.474146,-87
2021-09-22 19:58:14.474154,-87
2021-09-22 19:58:14.474160,-77
2021-09-22 19:58:14.474166,-70
2021-09-22 19:58:14.474172,-75
2021-09-22 19:58:14.474178,-85
2021-09-22 19:58:14.474184,-82
2021-09-22 19:58:14.474190,-72
2021-09-22 19:58:14.474196,-70
2021-09-22 19:58:14.474202,-65
2021-09-22 19:58:14.474208,-60
2021-09-22 19:58:14.474213,-60
2021-09-22 19:58:14.474219,-60
2021-09-22 19:58:14.474225,-55
2021-09-22 19:58:14.474231,-60
2021-09-22 19:58:14.474237,-53
2021-09-22 19:58:14.474243,-46
2021-09-22 19:58:14.474248,-48
2021-09-22 19:58:14.474254,-51
2021-09-22 19:58:14.474260,-46
2021-09-22 19:58:14.474266,-41
2021-09-22 19:58:14.474272,-36
2021-09-22 19:58:14.474277,-41
2021-09-22 19:58:14.474283,-48
2021-09-22 19:58:14.474289,-43
2021-09-22 19:58:14.474294,-29
2021-09-22 19:58:14.474300,-21
2021-09-22 19:58:14.474306,-19
2021-09-22 19:58:14.474312,-19
2021-09-22 19:58:14.699280,-19
2021-09-22 19:58:14.699301,-17
2021-09-22 19:58:14.699308,-4
2021-09-22 19:58:14.699315,4
2021-09-22 19:58:14.699321,19
2021-09-22 19:58:14.699327,29
2021-09-22 19:58:14.699333,19
2021-09-22 19:58:14.699339,26
2021-09-22 19:58:14.699345,43
2021-09-22 19:58:14.699351,26
2021-09-22 19:58:14.699356,2
2021-09-22 19:58:14.699362,-4
2021-09-22 19:58:14.699368,-12
2021-09-22 19:58:14.699374,-14
2021-09-22 19:58:14.699380,-2
2021-09-22 19:58:14.699386,2
2021-09-22 19:58:14.699391,-7
2021-09-22 19:58:14.699397,-24
2021-09-22 19:58:14.699403,-29
2021-09-22 19:58:14.699409,2
2021-09-22 19:58:14.699415,70
2021-09-22 19:58:14.699420,199
2021-09-22 19:58:14.699426,420
2021-09-22 19:58:14.699432,571
2021-09-22 19:58:14.699438,355
2021-09-22 19:58:14.699444,-124
2021-09-22 19:58:14.699450,-566
2021-09-22 19:58:14.699455,-688
2021-09-22 19:58:14.699461,-360
2021-09-22 19:58:14.699467,-46
2021-09-22 19:58:14.924215,-36
2021-09-22 19:58:14.924234,-9
2021-09-22 19:58:14.924242,99
2021-09-22 19:58:14.924248,131
2021-09-22 19:58:14.924254,119
2021-09-22 19:58:14.924260,128
2021-09-22 19:58:14.924266,148
2021-09-22 19:58:14.924272,177
2021-09-22 19:58:14.924278,194
2021-09-22 19:58:14.924284,187
2021-09-22 19:58:14.924289,184
2021-09-22 19:58:14.924295,194
2021-09-22 19:58:14.924301,206
2021-09-22 19:58:14.924307,223
2021-09-22 19:58:14.924312,238
2021-09-22 19:58:14.924318,253
2021-09-22 19:58:14.924324,272
2021-09-22 19:58:14.924330,299
2021-09-22 19:58:14.924336,326
2021-09-22 19:58:14.924342,347
2021-09-22 19:58:14.924347,377
2021-09-22 19:58:14.924353,408
2021-09-22 19:58:14.924359,430
2021-09-22 19:58:14.924365,442
2021-09-22 19:58:14.924371,447
2021-09-22 19:58:14.924377,440
2021-09-22 19:58:14.924382,411
2021-09-22 19:58:14.924388,355
2021-09-22 19:58:14.924394,272
2021-09-22 19:58:14.924400,160
2021-09-22 19:58:15.194213,43
2021-09-22 19:58:15.194235,-60
2021-09-22 19:58:15.194242,-153
2021-09-22 19:58:15.194248,-223
2021-09-22 19:58:15.194254,-270
2021-09-22 19:58:15.194260,-301
2021-09-22 19:58:15.194265,-309
2021-09-22 19:58:15.194271,-301
2021-09-22 19:58:15.194277,-294
2021-09-22 19:58:15.194283,-282
2021-09-22 19:58:15.194289,-272
2021-09-22 19:58:15.194295,-270
2021-09-22 19:58:15.194300,-257
2021-09-22 19:58:15.194306,-240
2021-09-22 19:58:15.194312,-233
2021-09-22 19:58:15.194318,-226
2021-09-22 19:58:15.194324,-209
2021-09-22 19:58:15.194330,-189
2021-09-22 19:58:15.194335,-175
2021-09-22 19:58:15.194341,-163
2021-09-22 19:58:15.194347,-150
2021-09-22 19:58:15.194353,-150
2021-09-22 19:58:15.194359,-150
2021-09-22 19:58:15.194364,-138
2021-09-22 19:58:15.194370,-128
2021-09-22 19:58:15.194376,-128
2021-09-22 19:58:15.194382,-128
2021-09-22 19:58:15.194388,-124
2021-09-22 19:58:15.194393,-119
2021-09-22 19:58:15.194399,-116
2021-09-22 19:58:15.418039,-111
2021-09-22 19:58:15.418061,-114
2021-09-22 19:58:15.418068,-124
2021-09-22 19:58:15.418074,-126
2021-09-22 19:58:15.418080,-124
2021-09-22 19:58:15.418086,-121
2021-09-22 19:58:15.418092,-114
2021-09-22 19:58:15.418098,-107
2021-09-22 19:58:15.418104,-104
2021-09-22 19:58:15.418109,-104
2021-09-22 19:58:15.418116,-104
2021-09-22 19:58:15.418122,-97
2021-09-22 19:58:15.418128,-90
2021-09-22 19:58:15.418134,-82
2021-09-22 19:58:15.418139,-77
2021-09-22 19:58:15.418145,-85
2021-09-22 19:58:15.418151,-87
2021-09-22 19:58:15.418157,-80
2021-09-22 19:58:15.418162,-72
2021-09-22 19:58:15.418168,-70
2021-09-22 19:58:15.418174,-68
2021-09-22 19:58:15.418180,-70
2021-09-22 19:58:15.418185,-70
2021-09-22 19:58:15.418191,-70
2021-09-22 19:58:15.418197,-68
2021-09-22 19:58:15.418203,-55
2021-09-22 19:58:15.418209,-48
2021-09-22 19:58:15.418215,-53
2021-09-22 19:58:15.418221,-55
2021-09-22 19:58:15.418226,-43
2021-09-22 19:58:15.644276,-26
2021-09-22 19:58:15.644298,-7
2021-09-22 19:58:15.644305,-9
2021-09-22 19:58:15.644311,-24
2021-09-22 19:58:15.644317,-17
2021-09-22 19:58:15.644323,-2
2021-09-22 19:58:15.644329,-17
2021-09-22 19:58:15.644335,-36
2021-09-22 19:58:15.644341,-48
2021-09-22 19:58:15.644346,-55
2021-09-22 19:58:15.644352,-53
2021-09-22 19:58:15.644358,-43
2021-09-22 19:58:15.644364,-46
2021-09-22 19:58:15.644370,-48
2021-09-22 19:58:15.644376,-41
2021-09-22 19:58:15.644382,-31
2021-09-22 19:58:15.644387,12
2021-09-22 19:58:15.644393,114
2021-09-22 19:58:15.644399,299
2021-09-22 19:58:15.644405,532
2021-09-22 19:58:15.644411,503
2021-09-22 19:58:15.644417,90
2021-09-22 19:58:15.644422,-384
2021-09-22 19:58:15.644428,-671
2021-09-22 19:58:15.644434,-554
2021-09-22 19:58:15.644440,-163
2021-09-22 19:58:15.644445,-19
2021-09-22 19:58:15.644451,-31
2021-09-22 19:58:15.644457,80
2021-09-22 19:58:15.644463,143
2021-09-22 19:58:15.869234,114
2021-09-22 19:58:15.869256,128
2021-09-22 19:58:15.869263,155
2021-09-22 19:58:15.869270,150
2021-09-22 19:58:15.869276,160
2021-09-22 19:58:15.869282,180
2021-09-22 19:58:15.869288,182
2021-09-22 19:58:15.869294,180
2021-09-22 19:58:15.869300,184
2021-09-22 19:58:15.869306,192
2021-09-22 19:58:15.869312,209
2021-09-22 19:58:15.869317,231
2021-09-22 19:58:15.869323,250
2021-09-22 19:58:15.869329,272
2021-09-22 19:58:15.869335,294
2021-09-22 19:58:15.869341,323
2021-09-22 19:58:15.869347,367
2021-09-22 19:58:15.869353,408
2021-09-22 19:58:15.869359,440
2021-09-22 19:58:15.869364,464
2021-09-22 19:58:15.869370,476
2021-09-22 19:58:15.869376,472
2021-09-22 19:58:15.869382,452
2021-09-22 19:58:15.869387,413
2021-09-22 19:58:15.869393,345
2021-09-22 19:58:15.869399,240
2021-09-22 19:58:15.869404,114
2021-09-22 19:58:15.869410,-9
2021-09-22 19:58:15.869415,-111
2021-09-22 19:58:15.869421,-180
2021-09-22 19:58:16.139271,-228
2021-09-22 19:58:16.139294,-262
2021-09-22 19:58:16.139301,-279
2021-09-22 19:58:16.139307,-279
2021-09-22 19:58:16.139312,-272
2021-09-22 19:58:16.139318,-262
2021-09-22 19:58:16.139323,-257
2021-09-22 19:58:16.139328,-262
2021-09-22 19:58:16.139334,-260
2021-09-22 19:58:16.139339,-248
2021-09-22 19:58:16.139344,-233
2021-09-22 19:58:16.139350,-223
2021-09-22 19:58:16.139355,-211
2021-09-22 19:58:16.139359,-201
2021-09-22 19:58:16.139365,-194
2021-09-22 19:58:16.139370,-180
2021-09-22 19:58:16.139375,-165
2021-09-22 19:58:16.139381,-155
2021-09-22 19:58:16.139386,-145
2021-09-22 19:58:16.139392,-138
2021-09-22 19:58:16.139398,-133
2021-09-22 19:58:16.139404,-131
2021-09-22 19:58:16.139410,-126
2021-09-22 19:58:16.139416,-121
2021-09-22 19:58:16.139421,-119
2021-09-22 19:58:16.139427,-119
2021-09-22 19:58:16.139432,-119
2021-09-22 19:58:16.139438,-116
2021-09-22 19:58:16.139444,-111
2021-09-22 19:58:16.139450,-111
2021-09-22 19:58:16.319649,-119
2021-09-22 19:58:16.319669,-119
2021-09-22 19:58:16.319676,-109
2021-09-22 19:58:16.319682,-107
2021-09-22 19:58:16.319688,-104
2021-09-22 19:58:16.319694,-97
2021-09-22 19:58:16.319700,-97
2021-09-22 19:58:16.319706,-102
2021-09-22 19:58:16.319712,-99
2021-09-22 19:58:16.319718,-94
2021-09-22 19:58:16.319723,-90
2021-09-22 19:58:16.319729,-85
2021-09-22 19:58:16.319735,-87
2021-09-22 19:58:16.319741,-92
2021-09-22 19:58:16.319746,-87
2021-09-22 19:58:16.319752,-82
2021-09-22 19:58:16.319758,-77
2021-09-22 19:58:16.319764,-77
2021-09-22 19:58:16.319770,-80
2021-09-22 19:58:16.319776,-85
2021-09-22 19:58:16.319782,-80
2021-09-22 19:58:16.319788,-72
2021-09-22 19:58:16.319793,-68
2021-09-22 19:58:16.319799,-60
2021-09-22 19:58:16.319805,-53
2021-09-22 19:58:16.319811,-51
2021-09-22 19:58:16.319816,-48
2021-09-22 19:58:16.319822,-46
2021-09-22 19:58:16.319828,-36
2021-09-22 19:58:16.319834,-19
2021-09-22 19:58:16.588735,-7
2021-09-22 19:58:16.588756,-14
2021-09-22 19:58:16.588763,-21
2021-09-22 19:58:16.588769,-12
2021-09-22 19:58:16.588775,-9
2021-09-22 19:58:16.588781,-29
2021-09-22 19:58:16.588787,-51
2021-09-22 19:58:16.588793,-60
2021-09-22 19:58:16.588799,-60
2021-09-22 19:58:16.588805,-55
2021-09-22 19:58:16.588811,-51
2021-09-22 19:58:16.588816,-51
2021-09-22 19:58:16.588822,-55
2021-09-22 19:58:16.588828,-55
2021-09-22 19:58:16.588834,-43
2021-09-22 19:58:16.588840,-7
2021-09-22 19:58:16.588846,75
2021-09-22 19:58:16.588851,248
2021-09-22 19:58:16.588857,508
2021-09-22 19:58:16.588863,588
2021-09-22 19:58:16.588869,233
2021-09-22 19:58:16.588875,-309
2021-09-22 19:58:16.588881,-678
2021-09-22 19:58:16.588887,-622
2021-09-22 19:58:16.588893,-233
2021-09-22 19:58:16.588899,-29
2021-09-22 19:58:16.588905,-34
2021-09-22 19:58:16.588911,51
2021-09-22 19:58:16.588916,126
2021-09-22 19:58:16.588922,104
2021-09-22 19:58:16.769304,109
2021-09-22 19:58:16.769324,145
2021-09-22 19:58:16.769331,148
2021-09-22 19:58:16.769338,145
2021-09-22 19:58:16.769344,155
2021-09-22 19:58:16.769350,160
2021-09-22 19:58:16.769356,165
2021-09-22 19:58:16.769362,182
2021-09-22 19:58:16.769368,199
2021-09-22 19:58:16.769374,216
2021-09-22 19:58:16.769380,236
2021-09-22 19:58:16.769386,257
2021-09-22 19:58:16.769392,279
2021-09-22 19:58:16.769398,313
2021-09-22 19:58:16.769404,347
2021-09-22 19:58:16.769410,382
2021-09-22 19:58:16.769416,418
2021-09-22 19:58:16.769422,452
2021-09-22 19:58:16.769427,472
2021-09-22 19:58:16.769433,479
2021-09-22 19:58:16.769439,481
2021-09-22 19:58:16.769445,467
2021-09-22 19:58:16.769451,428
2021-09-22 19:58:16.769457,362
2021-09-22 19:58:16.769462,265
2021-09-22 19:58:16.769468,150
2021-09-22 19:58:16.769474,31
2021-09-22 19:58:16.769480,-72
2021-09-22 19:58:16.769486,-153
2021-09-22 19:58:16.769492,-214
2021-09-22 19:58:16.994155,-248
2021-09-22 19:58:16.994174,-262
2021-09-22 19:58:16.994181,-270
2021-09-22 19:58:16.994188,-277
2021-09-22 19:58:16.994194,-279
2021-09-22 19:58:16.994200,-279
2021-09-22 19:58:16.994206,-274
2021-09-22 19:58:16.994212,-257
2021-09-22 19:58:16.994217,-243
2021-09-22 19:58:16.994223,-231
2021-09-22 19:58:16.994229,-218
2021-09-22 19:58:16.994235,-206
2021-09-22 19:58:16.994241,-192
2021-09-22 19:58:16.994247,-180
2021-09-22 19:58:16.994252,-175
2021-09-22 19:58:16.994258,-167
2021-09-22 19:58:16.994264,-163
2021-09-22 19:58:16.994281,-158
2021-09-22 19:58:16.994287,-148
2021-09-22 19:58:16.994293,-141
2021-09-22 19:58:16.994299,-138
2021-09-22 19:58:16.994305,-138
2021-09-22 19:58:16.994310,-138
2021-09-22 19:58:16.994316,-133
2021-09-22 19:58:16.994322,-133
2021-09-22 19:58:16.994328,-131
2021-09-22 19:58:16.994333,-131
2021-09-22 19:58:16.994339,-131
2021-09-22 19:58:16.994345,-131
2021-09-22 19:58:16.994350,-128
2021-09-22 19:58:17.264323,-121
2021-09-22 19:58:17.264343,-116
2021-09-22 19:58:17.264350,-111
2021-09-22 19:58:17.264356,-114
2021-09-22 19:58:17.264362,-116
2021-09-22 19:58:17.264368,-109
2021-09-22 19:58:17.264374,-99
2021-09-22 19:58:17.264380,-99
2021-09-22 19:58:17.264386,-104
2021-09-22 19:58:17.264392,-107
2021-09-22 19:58:17.264398,-107
2021-09-22 19:58:17.264404,-99
2021-09-22 19:58:17.264410,-92
2021-09-22 19:58:17.264416,-85
2021-09-22 19:58:17.264422,-82
2021-09-22 19:58:17.264428,-82
2021-09-22 19:58:17.264433,-77
2021-09-22 19:58:17.264439,-70
2021-09-22 19:58:17.264445,-65
2021-09-22 19:58:17.264451,-60
2021-09-22 19:58:17.264457,-58
2021-09-22 19:58:17.264462,-58
2021-09-22 19:58:17.264468,-58
2021-09-22 19:58:17.264474,-55
2021-09-22 19:58:17.264480,-60
2021-09-22 19:58:17.264485,-58
2021-09-22 19:58:17.264491,-48
2021-09-22 19:58:17.264497,-51
2021-09-22 19:58:17.264503,-53
2021-09-22 19:58:17.264508,-38
2021-09-22 19:58:17.532955,-19
2021-09-22 19:58:17.532976,-2
2021-09-22 19:58:17.532983,-2
2021-09-22 19:58:17.532989,-17
2021-09-22 19:58:17.532996,-12
2021-09-22 19:58:17.533002,-2
2021-09-22 19:58:17.533008,-17
2021-09-22 19:58:17.533013,-31
2021-09-22 19:58:17.533019,-36
2021-09-22 19:58:17.533025,-38
2021-09-22 19:58:17.533031,-41
2021-09-22 19:58:17.533037,-38
2021-09-22 19:58:17.533043,-34
2021-09-22 19:58:17.533049,-31
2021-09-22 19:58:17.533055,-34
2021-09-22 19:58:17.533060,-36
2021-09-22 19:58:17.533066,-17
2021-09-22 19:58:17.533072,48
2021-09-22 19:58:17.533078,182
2021-09-22 19:58:17.533083,430
2021-09-22 19:58:17.533089,644
2021-09-22 19:58:17.533095,469
2021-09-22 19:58:17.533101,-53
2021-09-22 19:58:17.533107,-549
2021-09-22 19:58:17.533112,-686
2021-09-22 19:58:17.533118,-357
2021-09-22 19:58:17.533124,-46
2021-09-22 19:58:17.533130,-24
2021-09-22 19:58:17.533136,26
2021-09-22 19:58:17.533142,136
2021-09-22 19:58:17.804281,136
2021-09-22 19:58:17.804302,121
2021-09-22 19:58:17.804309,153
2021-09-22 19:58:17.804316,163
2021-09-22 19:58:17.804322,160
2021-09-22 19:58:17.804327,177
2021-09-22 19:58:17.804333,194
2021-09-22 19:58:17.804339,199
2021-09-22 19:58:17.804345,204
2021-09-22 19:58:17.804351,214
2021-09-22 19:58:17.804357,233
2021-09-22 19:58:17.804363,253
2021-09-22 19:58:17.804369,267
2021-09-22 19:58:17.804375,289
2021-09-22 19:58:17.804380,313
2021-09-22 19:58:17.804386,338
2021-09-22 19:58:17.804392,377
2021-09-22 19:58:17.804398,420
2021-09-22 19:58:17.804404,457
2021-09-22 19:58:17.804410,486
2021-09-22 19:58:17.804415,501
2021-09-22 19:58:17.804421,506
2021-09-22 19:58:17.804427,498
2021-09-22 19:58:17.804432,474
2021-09-22 19:58:17.804438,423
2021-09-22 19:58:17.804444,338
2021-09-22 19:58:17.804450,226
2021-09-22 19:58:17.804456,102
2021-09-22 19:58:17.804461,-9
2021-09-22 19:58:17.804467,-107
2021-09-22 19:58:17.939212,-182
2021-09-22 19:58:17.939232,-233
2021-09-22 19:58:17.939240,-262
2021-09-22 19:58:17.939246,-274
2021-09-22 19:58:17.939252,-274
2021-09-22 19:58:17.939258,-270
2021-09-22 19:58:17.939264,-260
2021-09-22 19:58:17.939270,-250
2021-09-22 19:58:17.939276,-240
2021-09-22 19:58:17.939282,-228
2021-09-22 19:58:17.939288,-209
2021-09-22 19:58:17.939295,-194
2021-09-22 19:58:17.939300,-187
2021-09-22 19:58:17.939306,-177
2021-09-22 19:58:17.939312,-170
2021-09-22 19:58:17.939318,-165
2021-09-22 19:58:17.939324,-150
2021-09-22 19:58:17.939330,-138
2021-09-22 19:58:17.939336,-133
2021-09-22 19:58:17.939342,-133
2021-09-22 19:58:17.939347,-136
2021-09-22 19:58:17.939354,-133
2021-09-22 19:58:17.939359,-126
2021-09-22 19:58:17.939365,-124
2021-09-22 19:58:17.939371,-121
2021-09-22 19:58:17.939377,-126
2021-09-22 19:58:17.939383,-131
2021-09-22 19:58:17.939389,-128
2021-09-22 19:58:17.939395,-121
2021-09-22 19:58:17.939401,-119
2021-09-22 19:58:18.253691,-116
2021-09-22 19:58:18.253713,-114
2021-09-22 19:58:18.253720,-111
2021-09-22 19:58:18.253726,-107
2021-09-22 19:58:18.253732,-102
2021-09-22 19:58:18.253738,-94
2021-09-22 19:58:18.253744,-92
2021-09-22 19:58:18.253750,-92
2021-09-22 19:58:18.253756,-92
2021-09-22 19:58:18.253762,-82
2021-09-22 19:58:18.253768,-75
2021-09-22 19:58:18.253774,-72
2021-09-22 19:58:18.253779,-72
2021-09-22 19:58:18.253785,-72
2021-09-22 19:58:18.253791,-68
2021-09-22 19:58:18.253797,-65
2021-09-22 19:58:18.253803,-70
2021-09-22 19:58:18.253809,-72
2021-09-22 19:58:18.253815,-68
2021-09-22 19:58:18.253821,-60
2021-09-22 19:58:18.253826,-58
2021-09-22 19:58:18.253832,-53
2021-09-22 19:58:18.253838,-46
2021-09-22 19:58:18.253844,-38
2021-09-22 19:58:18.253849,-36
2021-09-22 19:58:18.253855,-38
2021-09-22 19:58:18.253861,-36
2021-09-22 19:58:18.253867,-34
2021-09-22 19:58:18.253873,-29
2021-09-22 19:58:18.253879,-21
2021-09-22 19:58:18.389295,-19
2021-09-22 19:58:18.389315,-12
2021-09-22 19:58:18.389322,-7
2021-09-22 19:58:18.389329,-12
2021-09-22 19:58:18.389335,-12
2021-09-22 19:58:18.389341,-4
2021-09-22 19:58:18.389347,4
2021-09-22 19:58:18.389353,9
2021-09-22 19:58:18.389359,7
2021-09-22 19:58:18.389366,17
2021-09-22 19:58:18.389372,24
2021-09-22 19:58:18.389378,7
2021-09-22 19:58:18.389383,-12
2021-09-22 19:58:18.389389,-17
2021-09-22 19:58:18.389395,-17
2021-09-22 19:58:18.389401,-14
2021-09-22 19:58:18.389407,-9
2021-09-22 19:58:18.389413,-9
2021-09-22 19:58:18.389419,-19
2021-09-22 19:58:18.389425,-17
2021-09-22 19:58:18.389430,-2
2021-09-22 19:58:18.389436,12
2021-09-22 19:58:18.389442,58
2021-09-22 19:58:18.389448,167
2021-09-22 19:58:18.389454,362
2021-09-22 19:58:18.389460,598
2021-09-22 19:58:18.389466,583
2021-09-22 19:58:18.389472,172
2021-09-22 19:58:18.389478,-369
2021-09-22 19:58:18.389483,-674
2021-09-22 19:58:18.659338,-457
2021-09-22 19:58:18.659359,-68
2021-09-22 19:58:18.659366,7
2021-09-22 19:58:18.659373,9
2021-09-22 19:58:18.659379,133
2021-09-22 19:58:18.659385,170
2021-09-22 19:58:18.659391,131
2021-09-22 19:58:18.659397,158
2021-09-22 19:58:18.659403,187
2021-09-22 19:58:18.659409,177
2021-09-22 19:58:18.659415,192
2021-09-22 19:58:18.659421,211
2021-09-22 19:58:18.659427,211
2021-09-22 19:58:18.659432,218
2021-09-22 19:58:18.659438,240
2021-09-22 19:58:18.659444,255
2021-09-22 19:58:18.659450,265
2021-09-22 19:58:18.659456,284
2021-09-22 19:58:18.659462,311
2021-09-22 19:58:18.659467,338
2021-09-22 19:58:18.659474,362
2021-09-22 19:58:18.659480,389
2021-09-22 19:58:18.659485,423
2021-09-22 19:58:18.659491,459
2021-09-22 19:58:18.659497,486
2021-09-22 19:58:18.659502,508
2021-09-22 19:58:18.659508,520
2021-09-22 19:58:18.659514,510
2021-09-22 19:58:18.659520,484
2021-09-22 19:58:18.659525,442
2021-09-22 19:58:18.839273,379
2021-09-22 19:58:18.839294,284
2021-09-22 19:58:18.839301,160
2021-09-22 19:58:18.839307,31
2021-09-22 19:58:18.839313,-68
2021-09-22 19:58:18.839319,-145
2021-09-22 19:58:18.839325,-201
2021-09-22 19:58:18.839331,-228
2021-09-22 19:58:18.839337,-245
2021-09-22 19:58:18.839344,-267
2021-09-22 19:58:18.839350,-277
2021-09-22 19:58:18.839356,-277
2021-09-22 19:58:18.839362,-267
2021-09-22 19:58:18.839368,-248
2021-09-22 19:58:18.839374,-228
2021-09-22 19:58:18.839380,-218
2021-09-22 19:58:18.839386,-216
2021-09-22 19:58:18.839392,-201
2021-09-22 19:58:18.839398,-177
2021-09-22 19:58:18.839404,-165
2021-09-22 19:58:18.839410,-160
2021-09-22 19:58:18.839416,-148
2021-09-22 19:58:18.839422,-145
2021-09-22 19:58:18.839427,-143
2021-09-22 19:58:18.839433,-136
2021-09-22 19:58:18.839439,-126
2021-09-22 19:58:18.839445,-124
2021-09-22 19:58:18.839451,-128
2021-09-22 19:58:18.839457,-128
2021-09-22 19:58:18.839463,-121
2021-09-22 19:58:19.064316,-116
2021-09-22 19:58:19.064335,-114
2021-09-22 19:58:19.064342,-111
2021-09-22 19:58:19.064349,-114
2021-09-22 19:58:19.064355,-121
2021-09-22 19:58:19.064361,-124
2021-09-22 19:58:19.064367,-121
2021-09-22 19:58:19.064373,-119
2021-09-22 19:58:19.064378,-116
2021-09-22 19:58:19.064384,-111
2021-09-22 19:58:19.064390,-114
2021-09-22 19:58:19.064396,-114
2021-09-22 19:58:19.064402,-107
2021-09-22 19:58:19.064408,-97
2021-09-22 19:58:19.064414,-94
2021-09-22 19:58:19.064420,-92
2021-09-22 19:58:19.064426,-87
2021-09-22 19:58:19.064431,-80
2021-09-22 19:58:19.064437,-72
2021-09-22 19:58:19.064443,-70
2021-09-22 19:58:19.064449,-68
2021-09-22 19:58:19.064455,-68
2021-09-22 19:58:19.064461,-68
2021-09-22 19:58:19.064467,-65
2021-09-22 19:58:19.064472,-68
2021-09-22 19:58:19.064478,-72
2021-09-22 19:58:19.064484,-65
2021-09-22 19:58:19.064490,-63
2021-09-22 19:58:19.064496,-65
2021-09-22 19:58:19.064502,-60
2021-09-22 19:58:19.334319,-53
2021-09-22 19:58:19.334340,-51
2021-09-22 19:58:19.334347,-48
2021-09-22 19:58:19.334353,-55
2021-09-22 19:58:19.334359,-55
2021-09-22 19:58:19.334366,-48
2021-09-22 19:58:19.334371,-46
2021-09-22 19:58:19.334377,-31
2021-09-22 19:58:19.334383,-7
2021-09-22 19:58:19.334389,-12
2021-09-22 19:58:19.334396,-29
2021-09-22 19:58:19.334401,-14
2021-09-22 19:58:19.334407,-2
2021-09-22 19:58:19.334413,-19
2021-09-22 19:58:19.334419,-38
2021-09-22 19:58:19.334424,-53
2021-09-22 19:58:19.334430,-68
2021-09-22 19:58:19.334436,-65
2021-09-22 19:58:19.334442,-63
2021-09-22 19:58:19.334448,-63
2021-09-22 19:58:19.334454,-60
2021-09-22 19:58:19.334459,-55
2021-09-22 19:58:19.334465,-53
2021-09-22 19:58:19.334471,-31
2021-09-22 19:58:19.334477,24
2021-09-22 19:58:19.334483,128
2021-09-22 19:58:19.334488,335
2021-09-22 19:58:19.334494,562
2021-09-22 19:58:19.334500,447
2021-09-22 19:58:19.334506,-26
2021-09-22 19:58:19.602965,-493
2021-09-22 19:58:19.602987,-720
2021-09-22 19:58:19.602994,-503
