Time,ECG
2021-09-22 20:26:00.215969,-102
2021-09-22 20:26:00.215987,-99
2021-09-22 20:26:00.215994,-97
2021-09-22 20:26:00.216000,-99
2021-09-22 20:26:00.216006,-107
2021-09-22 20:26:00.216012,-109
2021-09-22 20:26:00.216018,-109
2021-09-22 20:26:00.216024,-116
2021-09-22 20:26:00.216030,-121
2021-09-22 20:26:00.216036,-111
2021-09-22 20:26:00.216042,-104
2021-09-22 20:26:00.216048,-102
2021-09-22 20:26:00.216054,-104
2021-09-22 20:26:00.216060,-109
2021-09-22 20:26:00.216066,-109
2021-09-22 20:26:00.216072,-99
2021-09-22 20:26:00.216078,-85
2021-09-22 20:26:00.216084,-82
2021-09-22 20:26:00.216089,-80
2021-09-22 20:26:00.216095,-70
2021-09-22 20:26:00.216101,-63
2021-09-22 20:26:00.216107,-63
2021-09-22 20:26:00.216113,-65
2021-09-22 20:26:00.216119,-63
2021-09-22 20:26:00.216125,-55
2021-09-22 20:26:00.216131,-51
2021-09-22 20:26:00.216136,-48
2021-09-22 20:26:00.216142,-43
2021-09-22 20:26:00.216148,-36
2021-09-22 20:26:00.216153,-36
2021-09-22 20:26:00.440855,-41
2021-09-22 20:26:00.440871,-41
2021-09-22 20:26:00.440878,-36
2021-09-22 20:26:00.440885,-36
2021-09-22 20:26:00.440891,-29
2021-09-22 20:26:00.440897,-24
2021-09-22 20:26:00.440902,-34
2021-09-22 20:26:00.440908,-38
2021-09-22 20:26:00.440914,-34
2021-09-22 20:26:00.440921,-29
2021-09-22 20:26:00.440927,-29
2021-09-22 20:26:00.440933,-29
2021-09-22 20:26:00.440939,-31
2021-09-22 20:26:00.440945,-29
2021-09-22 20:26:00.440950,-21
2021-09-22 20:26:00.440956,-4
2021-09-22 20:26:00.440962,9
2021-09-22 20:26:00.440968,9
2021-09-22 20:26:00.440974,12
2021-09-22 20:26:00.440980,26
2021-09-22 20:26:00.440986,14
2021-09-22 20:26:00.440992,-9
2021-09-22 20:26:00.440998,-12
2021-09-22 20:26:00.441004,-14
2021-09-22 20:26:00.441009,-24
2021-09-22 20:26:00.441015,-29
2021-09-22 20:26:00.441021,-24
2021-09-22 20:26:00.441027,-17
2021-09-22 20:26:00.441032,-21
2021-09-22 20:26:00.441038,-21
2021-09-22 20:26:00.665890,0
2021-09-22 20:26:00.665907,63
2021-09-22 20:26:00.665914,199
2021-09-22 20:26:00.665921,447
2021-09-22 20:26:00.665927,644
2021-09-22 20:26:00.665933,459
2021-09-22 20:26:00.665939,-58
2021-09-22 20:26:00.665945,-547
2021-09-22 20:26:00.665951,-659
2021-09-22 20:26:00.665957,-343
2021-09-22 20:26:00.665963,-97
2021-09-22 20:26:00.665969,-99
2021-09-22 20:26:00.665975,-21
2021-09-22 20:26:00.665981,75
2021-09-22 20:26:00.665988,43
2021-09-22 20:26:00.665993,41
2021-09-22 20:26:00.665999,92
2021-09-22 20:26:00.666006,94
2021-09-22 20:26:00.666011,90
2021-09-22 20:26:00.666017,114
2021-09-22 20:26:00.666023,124
2021-09-22 20:26:00.666029,126
2021-09-22 20:26:00.666035,143
2021-09-22 20:26:00.666040,163
2021-09-22 20:26:00.666046,170
2021-09-22 20:26:00.666052,175
2021-09-22 20:26:00.666057,184
2021-09-22 20:26:00.666063,197
2021-09-22 20:26:00.666069,218
2021-09-22 20:26:00.666075,245
2021-09-22 20:26:00.934643,277
2021-09-22 20:26:00.934660,311
2021-09-22 20:26:00.934667,345
2021-09-22 20:26:00.934674,372
2021-09-22 20:26:00.934680,396
2021-09-22 20:26:00.934686,425
2021-09-22 20:26:00.934692,425
2021-09-22 20:26:00.934701,401
2021-09-22 20:26:00.934707,379
2021-09-22 20:26:00.934713,330
2021-09-22 20:26:00.934719,231
2021-09-22 20:26:00.934724,114
2021-09-22 20:26:00.934730,7
2021-09-22 20:26:00.934736,-92
2021-09-22 20:26:00.934742,-172
2021-09-22 20:26:00.934748,-238
2021-09-22 20:26:00.934753,-279
2021-09-22 20:26:00.934759,-299
2021-09-22 20:26:00.934765,-304
2021-09-22 20:26:00.934771,-301
2021-09-22 20:26:00.934777,-296
2021-09-22 20:26:00.934782,-287
2021-09-22 20:26:00.934788,-277
2021-09-22 20:26:00.934794,-262
2021-09-22 20:26:00.934800,-245
2021-09-22 20:26:00.934805,-228
2021-09-22 20:26:00.934811,-209
2021-09-22 20:26:00.934816,-194
2021-09-22 20:26:00.934822,-189
2021-09-22 20:26:00.934828,-184
2021-09-22 20:26:01.115880,-163
2021-09-22 20:26:01.115898,-141
2021-09-22 20:26:01.115905,-138
2021-09-22 20:26:01.115911,-141
2021-09-22 20:26:01.115918,-136
2021-09-22 20:26:01.115924,-124
2021-09-22 20:26:01.115930,-114
2021-09-22 20:26:01.115936,-107
2021-09-22 20:26:01.115942,-107
2021-09-22 20:26:01.115948,-121
2021-09-22 20:26:01.115954,-138
2021-09-22 20:26:01.115960,-128
2021-09-22 20:26:01.115966,-114
2021-09-22 20:26:01.115972,-116
2021-09-22 20:26:01.115978,-119
2021-09-22 20:26:01.115984,-119
2021-09-22 20:26:01.115989,-124
2021-09-22 20:26:01.115995,-119
2021-09-22 20:26:01.116001,-104
2021-09-22 20:26:01.116007,-97
2021-09-22 20:26:01.116013,-97
2021-09-22 20:26:01.116019,-94
2021-09-22 20:26:01.116025,-90
2021-09-22 20:26:01.116031,-90
2021-09-22 20:26:01.116036,-82
2021-09-22 20:26:01.116042,-80
2021-09-22 20:26:01.116048,-85
2021-09-22 20:26:01.116054,-82
2021-09-22 20:26:01.116060,-65
2021-09-22 20:26:01.116065,-60
2021-09-22 20:26:01.385925,-68
2021-09-22 20:26:01.385942,-60
2021-09-22 20:26:01.385949,-55
2021-09-22 20:26:01.385955,-63
2021-09-22 20:26:01.385961,-65
2021-09-22 20:26:01.385967,-58
2021-09-22 20:26:01.385973,-58
2021-09-22 20:26:01.385979,-58
2021-09-22 20:26:01.385985,-48
2021-09-22 20:26:01.385991,-46
2021-09-22 20:26:01.385996,-53
2021-09-22 20:26:01.386002,-48
2021-09-22 20:26:01.386008,-36
2021-09-22 20:26:01.386014,-29
2021-09-22 20:26:01.386020,-19
2021-09-22 20:26:01.386025,-7
2021-09-22 20:26:01.386031,-9
2021-09-22 20:26:01.386037,-9
2021-09-22 20:26:01.386042,19
2021-09-22 20:26:01.386048,21
2021-09-22 20:26:01.386054,-7
2021-09-22 20:26:01.386060,-19
2021-09-22 20:26:01.386065,-19
2021-09-22 20:26:01.386071,-7
2021-09-22 20:26:01.386077,9
2021-09-22 20:26:01.386082,-2
2021-09-22 20:26:01.386088,-19
2021-09-22 20:26:01.386094,-2
2021-09-22 20:26:01.386100,2
2021-09-22 20:26:01.386105,-9
2021-09-22 20:26:01.610977,29
2021-09-22 20:26:01.610995,128
2021-09-22 20:26:01.611002,279
2021-09-22 20:26:01.611009,518
2021-09-22 20:26:01.611015,671
2021-09-22 20:26:01.611021,435
2021-09-22 20:26:01.611027,-150
2021-09-22 20:26:01.611033,-630
2021-09-22 20:26:01.611039,-562
2021-09-22 20:26:01.611045,-180
2021-09-22 20:26:01.611051,-34
2021-09-22 20:26:01.611058,-34
2021-09-22 20:26:01.611064,70
2021-09-22 20:26:01.611069,138
2021-09-22 20:26:01.611075,116
2021-09-22 20:26:01.611081,124
2021-09-22 20:26:01.611087,153
2021-09-22 20:26:01.611093,155
2021-09-22 20:26:01.611099,158
2021-09-22 20:26:01.611105,184
2021-09-22 20:26:01.611110,206
2021-09-22 20:26:01.611116,206
2021-09-22 20:26:01.611122,199
2021-09-22 20:26:01.611128,218
2021-09-22 20:26:01.611134,240
2021-09-22 20:26:01.611140,253
2021-09-22 20:26:01.611146,265
2021-09-22 20:26:01.611151,287
2021-09-22 20:26:01.611157,318
2021-09-22 20:26:01.611163,355
2021-09-22 20:26:01.835943,389
2021-09-22 20:26:01.835961,420
2021-09-22 20:26:01.835968,450
2021-09-22 20:26:01.835974,479
2021-09-22 20:26:01.835980,498
2021-09-22 20:26:01.835986,496
2021-09-22 20:26:01.835992,486
2021-09-22 20:26:01.835998,472
2021-09-22 20:26:01.836004,418
2021-09-22 20:26:01.836010,333
2021-09-22 20:26:01.836015,238
2021-09-22 20:26:01.836021,126
2021-09-22 20:26:01.836027,4
2021-09-22 20:26:01.836033,-97
2021-09-22 20:26:01.836039,-177
2021-09-22 20:26:01.836045,-245
2021-09-22 20:26:01.836051,-277
2021-09-22 20:26:01.836056,-282
2021-09-22 20:26:01.836062,-287
2021-09-22 20:26:01.836068,-284
2021-09-22 20:26:01.836074,-270
2021-09-22 20:26:01.836080,-260
2021-09-22 20:26:01.836085,-253
2021-09-22 20:26:01.836091,-226
2021-09-22 20:26:01.836097,-204
2021-09-22 20:26:01.836103,-206
2021-09-22 20:26:01.836108,-192
2021-09-22 20:26:01.836114,-163
2021-09-22 20:26:01.836120,-155
2021-09-22 20:26:01.836126,-158
2021-09-22 20:26:02.060902,-133
2021-09-22 20:26:02.060919,-107
2021-09-22 20:26:02.060926,-109
2021-09-22 20:26:02.060932,-126
2021-09-22 20:26:02.060938,-111
2021-09-22 20:26:02.060944,-85
2021-09-22 20:26:02.060950,-92
2021-09-22 20:26:02.060956,-109
2021-09-22 20:26:02.060962,-109
2021-09-22 20:26:02.060968,-102
2021-09-22 20:26:02.060974,-97
2021-09-22 20:26:02.060980,-90
2021-09-22 20:26:02.060986,-90
2021-09-22 20:26:02.060995,-90
2021-09-22 20:26:02.061001,-85
2021-09-22 20:26:02.061007,-77
2021-09-22 20:26:02.061013,-65
2021-09-22 20:26:02.061019,-60
2021-09-22 20:26:02.061025,-58
2021-09-22 20:26:02.061031,-58
2021-09-22 20:26:02.061036,-60
2021-09-22 20:26:02.061042,-60
2021-09-22 20:26:02.061048,-63
2021-09-22 20:26:02.061054,-60
2021-09-22 20:26:02.061060,-58
2021-09-22 20:26:02.061066,-58
2021-09-22 20:26:02.061072,-65
2021-09-22 20:26:02.061077,-75
2021-09-22 20:26:02.061083,-77
2021-09-22 20:26:02.061089,-70
2021-09-22 20:26:02.285858,-65
2021-09-22 20:26:02.285874,-70
2021-09-22 20:26:02.285881,-70
2021-09-22 20:26:02.285887,-60
2021-09-22 20:26:02.285893,-46
2021-09-22 20:26:02.285899,-29
2021-09-22 20:26:02.285905,-26
2021-09-22 20:26:02.285911,-38
2021-09-22 20:26:02.285917,-36
2021-09-22 20:26:02.285923,-31
2021-09-22 20:26:02.285929,-43
2021-09-22 20:26:02.285935,-60
2021-09-22 20:26:02.285940,-70
2021-09-22 20:26:02.285946,-75
2021-09-22 20:26:02.285952,-68
2021-09-22 20:26:02.285958,-58
2021-09-22 20:26:02.285964,-58
2021-09-22 20:26:02.285970,-63
2021-09-22 20:26:02.285976,-63
2021-09-22 20:26:02.285982,-53
2021-09-22 20:26:02.285988,-19
2021-09-22 20:26:02.285994,58
2021-09-22 20:26:02.286000,206
2021-09-22 20:26:02.286006,447
2021-09-22 20:26:02.286012,581
2021-09-22 20:26:02.286018,316
2021-09-22 20:26:02.286024,-216
2021-09-22 20:26:02.286030,-654
2021-09-22 20:26:02.286036,-661
2021-09-22 20:26:02.286041,-279
2021-09-22 20:26:02.556023,-51
2021-09-22 20:26:02.556041,-55
2021-09-22 20:26:02.556048,31
2021-09-22 20:26:02.556054,124
2021-09-22 20:26:02.556060,102
2021-09-22 20:26:02.556066,99
2021-09-22 20:26:02.556072,133
2021-09-22 20:26:02.556078,141
2021-09-22 20:26:02.556084,141
2021-09-22 20:26:02.556089,155
2021-09-22 20:26:02.556095,167
2021-09-22 20:26:02.556101,165
2021-09-22 20:26:02.556107,172
2021-09-22 20:26:02.556113,189
2021-09-22 20:26:02.556119,206
2021-09-22 20:26:02.556125,223
2021-09-22 20:26:02.556131,245
2021-09-22 20:26:02.556137,270
2021-09-22 20:26:02.556143,296
2021-09-22 20:26:02.556149,333
2021-09-22 20:26:02.556154,369
2021-09-22 20:26:02.556160,403
2021-09-22 20:26:02.556166,440
2021-09-22 20:26:02.556172,474
2021-09-22 20:26:02.556178,501
2021-09-22 20:26:02.556184,513
2021-09-22 20:26:02.556190,506
2021-09-22 20:26:02.556195,486
2021-09-22 20:26:02.556201,440
2021-09-22 20:26:02.556207,347
2021-09-22 20:26:02.736002,226
2021-09-22 20:26:02.736020,107
2021-09-22 20:26:02.736027,-14
2021-09-22 20:26:02.736033,-131
2021-09-22 20:26:02.736039,-211
2021-09-22 20:26:02.736045,-257
2021-09-22 20:26:02.736051,-287
2021-09-22 20:26:02.736057,-299
2021-09-22 20:26:02.736063,-299
2021-09-22 20:26:02.736069,-299
2021-09-22 20:26:02.736075,-301
2021-09-22 20:26:02.736081,-301
2021-09-22 20:26:02.736087,-301
2021-09-22 20:26:02.736093,-294
2021-09-22 20:26:02.736099,-274
2021-09-22 20:26:02.736104,-262
2021-09-22 20:26:02.736110,-255
2021-09-22 20:26:02.736116,-243
2021-09-22 20:26:02.736122,-221
2021-09-22 20:26:02.736128,-204
2021-09-22 20:26:02.736134,-194
2021-09-22 20:26:02.736140,-182
2021-09-22 20:26:02.736145,-170
2021-09-22 20:26:02.736151,-163
2021-09-22 20:26:02.736157,-155
2021-09-22 20:26:02.736163,-148
2021-09-22 20:26:02.736168,-145
2021-09-22 20:26:02.736174,-145
2021-09-22 20:26:02.736180,-141
2021-09-22 20:26:02.736185,-141
2021-09-22 20:26:03.004590,-136
2021-09-22 20:26:03.004607,-126
2021-09-22 20:26:03.004614,-121
2021-09-22 20:26:03.004621,-126
2021-09-22 20:26:03.004627,-131
2021-09-22 20:26:03.004633,-128
2021-09-22 20:26:03.004639,-121
2021-09-22 20:26:03.004645,-116
2021-09-22 20:26:03.004651,-111
2021-09-22 20:26:03.004656,-107
2021-09-22 20:26:03.004662,-107
2021-09-22 20:26:03.004668,-107
2021-09-22 20:26:03.004674,-99
2021-09-22 20:26:03.004680,-90
2021-09-22 20:26:03.004685,-85
2021-09-22 20:26:03.004691,-87
2021-09-22 20:26:03.004697,-90
2021-09-22 20:26:03.004703,-85
2021-09-22 20:26:03.004709,-75
2021-09-22 20:26:03.004714,-70
2021-09-22 20:26:03.004720,-72
2021-09-22 20:26:03.004726,-72
2021-09-22 20:26:03.004732,-65
2021-09-22 20:26:03.004738,-43
2021-09-22 20:26:03.004744,-17
2021-09-22 20:26:03.004749,-9
2021-09-22 20:26:03.004755,-17
2021-09-22 20:26:03.004761,-14
2021-09-22 20:26:03.004767,-9
2021-09-22 20:26:03.004773,-19
2021-09-22 20:26:03.230953,-29
2021-09-22 20:26:03.230970,-29
2021-09-22 20:26:03.230977,-26
2021-09-22 20:26:03.230984,-34
2021-09-22 20:26:03.230990,-38
2021-09-22 20:26:03.230995,-31
2021-09-22 20:26:03.231001,-21
2021-09-22 20:26:03.231007,-21
2021-09-22 20:26:03.231013,-24
2021-09-22 20:26:03.231019,0
2021-09-22 20:26:03.231025,82
2021-09-22 20:26:03.231031,253
2021-09-22 20:26:03.231037,508
2021-09-22 20:26:03.231043,574
2021-09-22 20:26:03.231049,243
2021-09-22 20:26:03.231055,-257
2021-09-22 20:26:03.231060,-642
2021-09-22 20:26:03.231066,-608
2021-09-22 20:26:03.231072,-209
2021-09-22 20:26:03.231078,-14
2021-09-22 20:26:03.231083,-34
2021-09-22 20:26:03.231089,58
2021-09-22 20:26:03.231095,136
2021-09-22 20:26:03.231101,111
2021-09-22 20:26:03.231107,119
2021-09-22 20:26:03.231112,153
2021-09-22 20:26:03.231118,155
2021-09-22 20:26:03.231124,150
2021-09-22 20:26:03.231129,163
2021-09-22 20:26:03.231135,175
2021-09-22 20:26:03.545945,187
2021-09-22 20:26:03.545963,204
2021-09-22 20:26:03.545971,211
2021-09-22 20:26:03.545977,218
2021-09-22 20:26:03.545983,236
2021-09-22 20:26:03.545989,262
2021-09-22 20:26:03.545994,289
2021-09-22 20:26:03.546000,318
2021-09-22 20:26:03.546006,352
2021-09-22 20:26:03.546012,384
2021-09-22 20:26:03.546018,420
2021-09-22 20:26:03.546024,464
2021-09-22 20:26:03.546030,501
2021-09-22 20:26:03.546035,528
2021-09-22 20:26:03.546041,537
2021-09-22 20:26:03.546047,523
2021-09-22 20:26:03.546053,493
2021-09-22 20:26:03.546059,442
2021-09-22 20:26:03.546064,352
2021-09-22 20:26:03.546071,221
2021-09-22 20:26:03.546076,82
2021-09-22 20:26:03.546082,-34
2021-09-22 20:26:03.546088,-121
2021-09-22 20:26:03.546094,-184
2021-09-22 20:26:03.546100,-228
2021-09-22 20:26:03.546105,-255
2021-09-22 20:26:03.546111,-267
2021-09-22 20:26:03.546117,-267
2021-09-22 20:26:03.546123,-262
2021-09-22 20:26:03.546128,-255
2021-09-22 20:26:03.680878,-250
2021-09-22 20:26:03.680895,-238
2021-09-22 20:26:03.680902,-228
2021-09-22 20:26:03.680909,-221
2021-09-22 20:26:03.680915,-204
2021-09-22 20:26:03.680921,-187
2021-09-22 20:26:03.680927,-177
2021-09-22 20:26:03.680933,-170
2021-09-22 20:26:03.680939,-165
2021-09-22 20:26:03.680945,-160
2021-09-22 20:26:03.680951,-145
2021-09-22 20:26:03.680956,-128
2021-09-22 20:26:03.680962,-124
2021-09-22 20:26:03.680968,-124
2021-09-22 20:26:03.680974,-126
2021-09-22 20:26:03.680980,-126
2021-09-22 20:26:03.680986,-121
2021-09-22 20:26:03.680992,-119
2021-09-22 20:26:03.680997,-119
2021-09-22 20:26:03.681004,-121
2021-09-22 20:26:03.681009,-131
2021-09-22 20:26:03.681015,-141
2021-09-22 20:26:03.681021,-138
2021-09-22 20:26:03.681027,-131
2021-09-22 20:26:03.681033,-124
2021-09-22 20:26:03.681038,-124
2021-09-22 20:26:03.681044,-131
2021-09-22 20:26:03.681050,-133
2021-09-22 20:26:03.681056,-121
2021-09-22 20:26:03.681062,-109
2021-09-22 20:26:03.905996,-109
2021-09-22 20:26:03.906014,-107
2021-09-22 20:26:03.906021,-104
2021-09-22 20:26:03.906027,-102
2021-09-22 20:26:03.906034,-92
2021-09-22 20:26:03.906039,-82
2021-09-22 20:26:03.906045,-82
2021-09-22 20:26:03.906051,-97
2021-09-22 20:26:03.906057,-104
2021-09-22 20:26:03.906063,-87
2021-09-22 20:26:03.906069,-63
2021-09-22 20:26:03.906075,-48
2021-09-22 20:26:03.906081,-43
2021-09-22 20:26:03.906087,-46
2021-09-22 20:26:03.906093,-48
2021-09-22 20:26:03.906099,-46
2021-09-22 20:26:03.906105,-51
2021-09-22 20:26:03.906111,-63
2021-09-22 20:26:03.906117,-68
2021-09-22 20:26:03.906122,-63
2021-09-22 20:26:03.906128,-60
2021-09-22 20:26:03.906134,-60
2021-09-22 20:26:03.906139,-60
2021-09-22 20:26:03.906145,-60
2021-09-22 20:26:03.906151,-58
2021-09-22 20:26:03.906157,-48
2021-09-22 20:26:03.906162,-9
2021-09-22 20:26:03.906168,75
2021-09-22 20:26:03.906174,238
2021-09-22 20:26:03.906180,476
2021-09-22 20:26:04.130915,530
2021-09-22 20:26:04.130933,206
2021-09-22 20:26:04.130940,-255
2021-09-22 20:26:04.130947,-627
2021-09-22 20:26:04.130953,-610
2021-09-22 20:26:04.130959,-209
2021-09-22 20:26:04.130965,-12
2021-09-22 20:26:04.130971,-51
2021-09-22 20:26:04.130977,43
2021-09-22 20:26:04.130982,128
2021-09-22 20:26:04.130988,97
2021-09-22 20:26:04.130994,102
2021-09-22 20:26:04.131000,136
2021-09-22 20:26:04.131006,131
2021-09-22 20:26:04.131012,133
2021-09-22 20:26:04.131018,153
2021-09-22 20:26:04.131024,160
2021-09-22 20:26:04.131030,170
2021-09-22 20:26:04.131036,189
2021-09-22 20:26:04.131042,199
2021-09-22 20:26:04.131047,199
2021-09-22 20:26:04.131053,218
2021-09-22 20:26:04.131059,250
2021-09-22 20:26:04.131065,277
2021-09-22 20:26:04.131071,306
2021-09-22 20:26:04.131076,338
2021-09-22 20:26:04.131082,374
2021-09-22 20:26:04.131088,420
2021-09-22 20:26:04.131093,467
2021-09-22 20:26:04.131099,498
2021-09-22 20:26:04.355844,518
2021-09-22 20:26:04.355861,532
2021-09-22 20:26:04.355868,525
2021-09-22 20:26:04.355874,491
2021-09-22 20:26:04.355880,430
2021-09-22 20:26:04.355887,330
2021-09-22 20:26:04.355893,197
2021-09-22 20:26:04.355899,63
2021-09-22 20:26:04.355905,-46
2021-09-22 20:26:04.355911,-136
2021-09-22 20:26:04.355917,-204
2021-09-22 20:26:04.355922,-248
2021-09-22 20:26:04.355928,-277
2021-09-22 20:26:04.355934,-287
2021-09-22 20:26:04.355940,-284
2021-09-22 20:26:04.355946,-279
2021-09-22 20:26:04.355952,-272
2021-09-22 20:26:04.355957,-265
2021-09-22 20:26:04.355963,-260
2021-09-22 20:26:04.355969,-248
2021-09-22 20:26:04.355975,-226
2021-09-22 20:26:04.355981,-211
2021-09-22 20:26:04.355987,-201
2021-09-22 20:26:04.355993,-189
2021-09-22 20:26:04.355998,-177
2021-09-22 20:26:04.356004,-163
2021-09-22 20:26:04.356010,-153
2021-09-22 20:26:04.356016,-148
2021-09-22 20:26:04.356022,-143
2021-09-22 20:26:04.356027,-131
2021-09-22 20:26:04.580954,-119
2021-09-22 20:26:04.580971,-109
2021-09-22 20:26:04.580978,-109
2021-09-22 20:26:04.580985,-109
2021-09-22 20:26:04.580991,-107
2021-09-22 20:26:04.580997,-109
2021-09-22 20:26:04.581003,-114
2021-09-22 20:26:04.581009,-109
2021-09-22 20:26:04.581015,-107
2021-09-22 20:26:04.581021,-107
2021-09-22 20:26:04.581027,-107
2021-09-22 20:26:04.581032,-109
2021-09-22 20:26:04.581038,-109
2021-09-22 20:26:04.581044,-107
2021-09-22 20:26:04.581050,-102
2021-09-22 20:26:04.581056,-99
2021-09-22 20:26:04.581062,-97
2021-09-22 20:26:04.581067,-94
2021-09-22 20:26:04.581073,-90
2021-09-22 20:26:04.581079,-82
2021-09-22 20:26:04.581085,-80
2021-09-22 20:26:04.581091,-77
2021-09-22 20:26:04.581096,-77
2021-09-22 20:26:04.581102,-82
2021-09-22 20:26:04.581108,-82
2021-09-22 20:26:04.581114,-92
2021-09-22 20:26:04.581120,-107
2021-09-22 20:26:04.581125,-102
2021-09-22 20:26:04.581131,-85
2021-09-22 20:26:04.581137,-72
2021-09-22 20:26:04.850922,-63
2021-09-22 20:26:04.850940,-58
2021-09-22 20:26:04.850947,-53
2021-09-22 20:26:04.850953,-48
2021-09-22 20:26:04.850960,-65
2021-09-22 20:26:04.850966,-90
2021-09-22 20:26:04.850972,-92
2021-09-22 20:26:04.850978,-77
2021-09-22 20:26:04.850984,-72
2021-09-22 20:26:04.850990,-77
2021-09-22 20:26:04.850996,-80
2021-09-22 20:26:04.851001,-82
2021-09-22 20:26:04.851007,-75
2021-09-22 20:26:04.851013,-68
2021-09-22 20:26:04.851018,-48
2021-09-22 20:26:04.851024,4
2021-09-22 20:26:04.851030,121
2021-09-22 20:26:04.851036,333
2021-09-22 20:26:04.851042,532
2021-09-22 20:26:04.851047,401
2021-09-22 20:26:04.851053,-26
2021-09-22 20:26:04.851059,-469
2021-09-22 20:26:04.851065,-715
2021-09-22 20:26:04.851071,-476
2021-09-22 20:26:04.851076,-85
2021-09-22 20:26:04.851082,-26
2021-09-22 20:26:04.851088,-17
2021-09-22 20:26:04.851094,97
2021-09-22 20:26:04.851100,109
2021-09-22 20:26:04.851105,87
2021-09-22 20:26:05.119676,124
2021-09-22 20:26:05.119694,136
2021-09-22 20:26:05.119701,126
2021-09-22 20:26:05.119707,138
2021-09-22 20:26:05.119713,155
2021-09-22 20:26:05.119719,160
2021-09-22 20:26:05.119725,175
2021-09-22 20:26:05.119731,189
2021-09-22 20:26:05.119736,201
2021-09-22 20:26:05.119742,211
2021-09-22 20:26:05.119748,226
2021-09-22 20:26:05.119754,253
2021-09-22 20:26:05.119760,287
2021-09-22 20:26:05.119766,321
2021-09-22 20:26:05.119772,355
2021-09-22 20:26:05.119777,386
2021-09-22 20:26:05.119783,423
2021-09-22 20:26:05.119789,467
2021-09-22 20:26:05.119795,501
2021-09-22 20:26:05.119800,518
2021-09-22 20:26:05.119806,523
2021-09-22 20:26:05.119812,503
2021-09-22 20:26:05.119818,457
2021-09-22 20:26:05.119824,384
2021-09-22 20:26:05.119829,277
2021-09-22 20:26:05.119835,148
2021-09-22 20:26:05.119841,26
2021-09-22 20:26:05.119846,-85
2021-09-22 20:26:05.119852,-170
2021-09-22 20:26:05.119858,-221
2021-09-22 20:26:05.300918,-257
2021-09-22 20:26:05.300933,-284
2021-09-22 20:26:05.300940,-294
2021-09-22 20:26:05.300946,-296
2021-09-22 20:26:05.300952,-294
2021-09-22 20:26:05.300958,-279
2021-09-22 20:26:05.300964,-265
2021-09-22 20:26:05.300970,-255
2021-09-22 20:26:05.300976,-245
2021-09-22 20:26:05.300982,-238
2021-09-22 20:26:05.300987,-226
2021-09-22 20:26:05.300993,-209
2021-09-22 20:26:05.300999,-192
2021-09-22 20:26:05.301005,-180
2021-09-22 20:26:05.301010,-170
2021-09-22 20:26:05.301016,-165
2021-09-22 20:26:05.301022,-155
2021-09-22 20:26:05.301027,-141
2021-09-22 20:26:05.301033,-131
2021-09-22 20:26:05.301039,-121
2021-09-22 20:26:05.301045,-119
2021-09-22 20:26:05.301051,-116
2021-09-22 20:26:05.301056,-111
2021-09-22 20:26:05.301062,-109
2021-09-22 20:26:05.301068,-107
2021-09-22 20:26:05.301074,-104
2021-09-22 20:26:05.301080,-104
2021-09-22 20:26:05.301085,-107
2021-09-22 20:26:05.301091,-102
2021-09-22 20:26:05.301097,-94
2021-09-22 20:26:05.525860,-92
2021-09-22 20:26:05.525877,-87
2021-09-22 20:26:05.525884,-87
2021-09-22 20:26:05.525890,-87
2021-09-22 20:26:05.525896,-80
2021-09-22 20:26:05.525902,-80
2021-09-22 20:26:05.525908,-87
2021-09-22 20:26:05.525914,-85
2021-09-22 20:26:05.525920,-82
2021-09-22 20:26:05.525925,-87
2021-09-22 20:26:05.525931,-80
2021-09-22 20:26:05.525937,-75
2021-09-22 20:26:05.525943,-80
2021-09-22 20:26:05.525949,-82
2021-09-22 20:26:05.525954,-82
2021-09-22 20:26:05.525960,-85
2021-09-22 20:26:05.525966,-77
2021-09-22 20:26:05.525972,-68
2021-09-22 20:26:05.525977,-63
2021-09-22 20:26:05.525983,-65
2021-09-22 20:26:05.525989,-72
2021-09-22 20:26:05.525995,-65
2021-09-22 20:26:05.526001,-51
2021-09-22 20:26:05.526006,-36
2021-09-22 20:26:05.526012,-29
2021-09-22 20:26:05.526018,-34
2021-09-22 20:26:05.526024,-38
2021-09-22 20:26:05.526029,-34
2021-09-22 20:26:05.526035,-41
2021-09-22 20:26:05.526041,-53
2021-09-22 20:26:05.751000,-60
2021-09-22 20:26:05.751018,-58
2021-09-22 20:26:05.751025,-60
2021-09-22 20:26:05.751031,-63
2021-09-22 20:26:05.751037,-58
2021-09-22 20:26:05.751043,-53
2021-09-22 20:26:05.751050,-53
2021-09-22 20:26:05.751056,-65
2021-09-22 20:26:05.751062,-65
2021-09-22 20:26:05.751067,-12
2021-09-22 20:26:05.751073,104
2021-09-22 20:26:05.751079,304
2021-09-22 20:26:05.751085,520
2021-09-22 20:26:05.751091,437
2021-09-22 20:26:05.751097,17
2021-09-22 20:26:05.751103,-450
2021-09-22 20:26:05.751108,-722
2021-09-22 20:26:05.751114,-523
2021-09-22 20:26:05.751120,-121
2021-09-22 20:26:05.751126,-29
2021-09-22 20:26:05.751132,-31
2021-09-22 20:26:05.751138,80
2021-09-22 20:26:05.751144,114
2021-09-22 20:26:05.751150,90
2021-09-22 20:26:05.751155,119
2021-09-22 20:26:05.751161,145
2021-09-22 20:26:05.751167,141
2021-09-22 20:26:05.751173,148
2021-09-22 20:26:05.751179,167
2021-09-22 20:26:05.751184,172
2021-09-22 20:26:05.975869,182
2021-09-22 20:26:05.975886,197
2021-09-22 20:26:05.975893,209
2021-09-22 20:26:05.975899,223
2021-09-22 20:26:05.975905,245
2021-09-22 20:26:05.975911,267
2021-09-22 20:26:05.975917,291
2021-09-22 20:26:05.975923,316
2021-09-22 20:26:05.975929,350
2021-09-22 20:26:05.975935,384
2021-09-22 20:26:05.975940,420
2021-09-22 20:26:05.975946,459
2021-09-22 20:26:05.975952,486
2021-09-22 20:26:05.975958,496
2021-09-22 20:26:05.975964,498
2021-09-22 20:26:05.975970,493
2021-09-22 20:26:05.975976,457
2021-09-22 20:26:05.975981,389
2021-09-22 20:26:05.975987,289
2021-09-22 20:26:05.975993,165
2021-09-22 20:26:05.975999,43
2021-09-22 20:26:05.976005,-63
2021-09-22 20:26:05.976011,-145
2021-09-22 20:26:05.976016,-204
2021-09-22 20:26:05.976022,-240
2021-09-22 20:26:05.976028,-255
2021-09-22 20:26:05.976034,-257
2021-09-22 20:26:05.976039,-260
2021-09-22 20:26:05.976045,-260
2021-09-22 20:26:05.976051,-248
2021-09-22 20:26:06.200895,-236
2021-09-22 20:26:06.200912,-223
2021-09-22 20:26:06.200919,-209
2021-09-22 20:26:06.200925,-197
2021-09-22 20:26:06.200932,-184
2021-09-22 20:26:06.200938,-170
2021-09-22 20:26:06.200944,-160
2021-09-22 20:26:06.200949,-148
2021-09-22 20:26:06.200955,-131
2021-09-22 20:26:06.200961,-119
2021-09-22 20:26:06.200967,-109
2021-09-22 20:26:06.200973,-109
2021-09-22 20:26:06.200979,-119
2021-09-22 20:26:06.200984,-124
2021-09-22 20:26:06.200990,-126
2021-09-22 20:26:06.200996,-121
2021-09-22 20:26:06.201002,-116
2021-09-22 20:26:06.201008,-116
2021-09-22 20:26:06.201013,-114
2021-09-22 20:26:06.201019,-107
2021-09-22 20:26:06.201025,-102
2021-09-22 20:26:06.201031,-102
2021-09-22 20:26:06.201037,-97
2021-09-22 20:26:06.201042,-90
2021-09-22 20:26:06.201048,-85
2021-09-22 20:26:06.201054,-82
2021-09-22 20:26:06.201060,-75
2021-09-22 20:26:06.201066,-72
2021-09-22 20:26:06.201072,-68
2021-09-22 20:26:06.201078,-63
2021-09-22 20:26:06.425940,-55
2021-09-22 20:26:06.425956,-51
2021-09-22 20:26:06.425964,-53
2021-09-22 20:26:06.425970,-48
2021-09-22 20:26:06.425976,-46
2021-09-22 20:26:06.425982,-55
2021-09-22 20:26:06.425988,-58
2021-09-22 20:26:06.425993,-46
2021-09-22 20:26:06.425999,-38
2021-09-22 20:26:06.426005,-38
2021-09-22 20:26:06.426011,-34
2021-09-22 20:26:06.426017,-36
2021-09-22 20:26:06.426022,-46
2021-09-22 20:26:06.426028,-51
2021-09-22 20:26:06.426034,-46
2021-09-22 20:26:06.426040,-51
2021-09-22 20:26:06.426046,-53
2021-09-22 20:26:06.426052,-43
2021-09-22 20:26:06.426058,-24
2021-09-22 20:26:06.426063,-7
2021-09-22 20:26:06.426069,-4
2021-09-22 20:26:06.426075,-9
2021-09-22 20:26:06.426081,-2
2021-09-22 20:26:06.426086,-2
2021-09-22 20:26:06.426092,-17
2021-09-22 20:26:06.426098,-26
2021-09-22 20:26:06.426103,-34
2021-09-22 20:26:06.426109,-34
2021-09-22 20:26:06.426115,-24
2021-09-22 20:26:06.426121,-24
2021-09-22 20:26:06.650979,-24
2021-09-22 20:26:06.650997,-17
2021-09-22 20:26:06.651004,-14
2021-09-22 20:26:06.651010,-12
2021-09-22 20:26:06.651016,19
2021-09-22 20:26:06.651022,94
2021-09-22 20:26:06.651028,238
2021-09-22 20:26:06.651034,457
2021-09-22 20:26:06.651040,552
2021-09-22 20:26:06.651046,282
2021-09-22 20:26:06.651052,-182
2021-09-22 20:26:06.651057,-586
2021-09-22 20:26:06.651063,-637
2021-09-22 20:26:06.651069,-257
2021-09-22 20:26:06.651075,-2
2021-09-22 20:26:06.651080,-29
2021-09-22 20:26:06.651086,38
2021-09-22 20:26:06.651092,148
2021-09-22 20:26:06.651098,133
2021-09-22 20:26:06.651103,119
2021-09-22 20:26:06.651109,148
2021-09-22 20:26:06.651115,155
2021-09-22 20:26:06.651121,153
2021-09-22 20:26:06.651126,167
2021-09-22 20:26:06.651132,184
2021-09-22 20:26:06.651138,194
2021-09-22 20:26:06.651144,209
2021-09-22 20:26:06.651150,221
2021-09-22 20:26:06.651155,233
2021-09-22 20:26:06.651161,255
2021-09-22 20:26:06.875946,279
2021-09-22 20:26:06.875964,306
2021-09-22 20:26:06.875972,330
2021-09-22 20:26:06.875978,355
2021-09-22 20:26:06.875984,379
2021-09-22 20:26:06.875990,416
2021-09-22 20:26:06.875996,457
2021-09-22 20:26:06.876002,491
2021-09-22 20:26:06.876008,513
2021-09-22 20:26:06.876014,518
2021-09-22 20:26:06.876020,510
2021-09-22 20:26:06.876025,491
2021-09-22 20:26:06.876031,442
2021-09-22 20:26:06.876037,362
2021-09-22 20:26:06.876043,257
2021-09-22 20:26:06.876049,138
2021-09-22 20:26:06.876055,19
2021-09-22 20:26:06.876061,-75
2021-09-22 20:26:06.876067,-145
2021-09-22 20:26:06.876072,-197
2021-09-22 20:26:06.876078,-226
2021-09-22 20:26:06.876084,-240
2021-09-22 20:26:06.876090,-243
2021-09-22 20:26:06.876096,-238
2021-09-22 20:26:06.876102,-233
2021-09-22 20:26:06.876107,-218
2021-09-22 20:26:06.876113,-204
2021-09-22 20:26:06.876119,-204
2021-09-22 20:26:06.876125,-194
2021-09-22 20:26:06.876130,-172
2021-09-22 20:26:07.190249,-158
2021-09-22 20:26:07.190267,-143
2021-09-22 20:26:07.190274,-128
2021-09-22 20:26:07.190280,-128
2021-09-22 20:26:07.190286,-126
2021-09-22 20:26:07.190292,-109
2021-09-22 20:26:07.190298,-99
2021-09-22 20:26:07.190304,-97
2021-09-22 20:26:07.190310,-94
2021-09-22 20:26:07.190316,-102
2021-09-22 20:26:07.190322,-104
2021-09-22 20:26:07.190328,-94
2021-09-22 20:26:07.190333,-87
2021-09-22 20:26:07.190339,-87
2021-09-22 20:26:07.190345,-87
2021-09-22 20:26:07.190351,-90
2021-09-22 20:26:07.190357,-92
2021-09-22 20:26:07.190362,-87
2021-09-22 20:26:07.190368,-77
2021-09-22 20:26:07.190374,-77
2021-09-22 20:26:07.190379,-82
2021-09-22 20:26:07.190385,-90
2021-09-22 20:26:07.190391,-87
2021-09-22 20:26:07.190397,-82
2021-09-22 20:26:07.190402,-85
2021-09-22 20:26:07.190408,-94
2021-09-22 20:26:07.190414,-94
2021-09-22 20:26:07.190420,-92
2021-09-22 20:26:07.190426,-85
2021-09-22 20:26:07.190431,-80
2021-09-22 20:26:07.370946,-80
2021-09-22 20:26:07.370962,-82
2021-09-22 20:26:07.370969,-85
2021-09-22 20:26:07.370975,-87
2021-09-22 20:26:07.370981,-85
2021-09-22 20:26:07.370987,-80
2021-09-22 20:26:07.370993,-72
2021-09-22 20:26:07.370999,-75
2021-09-22 20:26:07.371005,-82
2021-09-22 20:26:07.371011,-82
2021-09-22 20:26:07.371016,-63
2021-09-22 20:26:07.371022,-43
2021-09-22 20:26:07.371028,-38
2021-09-22 20:26:07.371034,-43
2021-09-22 20:26:07.371039,-38
2021-09-22 20:26:07.371045,-38
2021-09-22 20:26:07.371051,-51
2021-09-22 20:26:07.371057,-60
2021-09-22 20:26:07.371063,-70
2021-09-22 20:26:07.371068,-72
2021-09-22 20:26:07.371074,-72
2021-09-22 20:26:07.371080,-80
2021-09-22 20:26:07.371086,-82
2021-09-22 20:26:07.371092,-75
2021-09-22 20:26:07.371097,-68
2021-09-22 20:26:07.371103,-70
2021-09-22 20:26:07.371109,-46
2021-09-22 20:26:07.371115,26
2021-09-22 20:26:07.371121,145
2021-09-22 20:26:07.371126,340
2021-09-22 20:26:07.595910,486
2021-09-22 20:26:07.595926,301
2021-09-22 20:26:07.595934,-133
2021-09-22 20:26:07.595940,-545
2021-09-22 20:26:07.595946,-703
2021-09-22 20:26:07.595952,-411
2021-09-22 20:26:07.595958,-77
2021-09-22 20:26:07.595964,-55
2021-09-22 20:26:07.595970,-34
2021-09-22 20:26:07.595976,87
2021-09-22 20:26:07.595981,107
2021-09-22 20:26:07.595987,82
2021-09-22 20:26:07.595993,114
2021-09-22 20:26:07.595999,131
2021-09-22 20:26:07.596005,116
2021-09-22 20:26:07.596010,126
2021-09-22 20:26:07.596016,148
2021-09-22 20:26:07.596022,155
2021-09-22 20:26:07.596028,163
2021-09-22 20:26:07.596034,175
2021-09-22 20:26:07.596039,187
2021-09-22 20:26:07.596045,201
2021-09-22 20:26:07.596051,221
2021-09-22 20:26:07.596056,245
2021-09-22 20:26:07.596062,265
2021-09-22 20:26:07.596068,291
2021-09-22 20:26:07.596074,328
2021-09-22 20:26:07.596080,364
2021-09-22 20:26:07.596085,401
2021-09-22 20:26:07.596091,437
2021-09-22 20:26:07.821013,457
2021-09-22 20:26:07.821031,462
2021-09-22 20:26:07.821038,462
2021-09-22 20:26:07.821045,447
2021-09-22 20:26:07.821051,408
2021-09-22 20:26:07.821057,335
2021-09-22 20:26:07.821063,231
2021-09-22 20:26:07.821069,99
2021-09-22 20:26:07.821075,-19
2021-09-22 20:26:07.821081,-114
2021-09-22 20:26:07.821087,-189
2021-09-22 20:26:07.821093,-240
2021-09-22 20:26:07.821099,-270
2021-09-22 20:26:07.821105,-291
2021-09-22 20:26:07.821111,-299
2021-09-22 20:26:07.821117,-296
2021-09-22 20:26:07.821122,-289
2021-09-22 20:26:07.821128,-277
2021-09-22 20:26:07.821134,-265
2021-09-22 20:26:07.821140,-257
2021-09-22 20:26:07.821146,-245
2021-09-22 20:26:07.821152,-226
2021-09-22 20:26:07.821157,-209
2021-09-22 20:26:07.821163,-192
2021-09-22 20:26:07.821169,-175
2021-09-22 20:26:07.821175,-165
2021-09-22 20:26:07.821180,-158
2021-09-22 20:26:07.821186,-148
2021-09-22 20:26:07.821192,-133
2021-09-22 20:26:07.821197,-124
2021-09-22 20:26:08.135328,-121
2021-09-22 20:26:08.135347,-116
2021-09-22 20:26:08.135354,-114
2021-09-22 20:26:08.135361,-116
2021-09-22 20:26:08.135367,-119
2021-09-22 20:26:08.135372,-119
2021-09-22 20:26:08.135378,-121
2021-09-22 20:26:08.135384,-121
2021-09-22 20:26:08.135390,-124
2021-09-22 20:26:08.135396,-126
2021-09-22 20:26:08.135402,-119
2021-09-22 20:26:08.135408,-114
2021-09-22 20:26:08.135413,-116
2021-09-22 20:26:08.135419,-114
2021-09-22 20:26:08.135425,-107
2021-09-22 20:26:08.135431,-102
2021-09-22 20:26:08.135437,-97
2021-09-22 20:26:08.135442,-90
2021-09-22 20:26:08.135448,-97
2021-09-22 20:26:08.135454,-97
2021-09-22 20:26:08.135460,-92
2021-09-22 20:26:08.135466,-94
2021-09-22 20:26:08.135472,-94
2021-09-22 20:26:08.135477,-92
2021-09-22 20:26:08.135483,-92
2021-09-22 20:26:08.135489,-90
2021-09-22 20:26:08.135495,-85
2021-09-22 20:26:08.135500,-90
2021-09-22 20:26:08.135506,-94
2021-09-22 20:26:08.135512,-94
2021-09-22 20:26:08.270929,-92
2021-09-22 20:26:08.270945,-90
2021-09-22 20:26:08.270952,-82
2021-09-22 20:26:08.270958,-85
2021-09-22 20:26:08.270964,-90
2021-09-22 20:26:08.270970,-92
2021-09-22 20:26:08.270976,-80
2021-09-22 20:26:08.270982,-55
2021-09-22 20:26:08.270988,-41
2021-09-22 20:26:08.270994,-46
2021-09-22 20:26:08.271000,-43
2021-09-22 20:26:08.271006,-43
2021-09-22 20:26:08.271012,-58
2021-09-22 20:26:08.271018,-72
2021-09-22 20:26:08.271024,-77
2021-09-22 20:26:08.271030,-77
2021-09-22 20:26:08.271036,-72
2021-09-22 20:26:08.271041,-72
2021-09-22 20:26:08.271047,-75
2021-09-22 20:26:08.271053,-70
2021-09-22 20:26:08.271061,-63
2021-09-22 20:26:08.271067,-58
2021-09-22 20:26:08.271072,-38
2021-09-22 20:26:08.271078,21
2021-09-22 20:26:08.271084,150
2021-09-22 20:26:08.271090,389
2021-09-22 20:26:08.271096,576
2021-09-22 20:26:08.271101,399
2021-09-22 20:26:08.271107,-48
2021-09-22 20:26:08.271113,-491
2021-09-22 20:26:08.495841,-691
2021-09-22 20:26:08.495860,-396
2021-09-22 20:26:08.495867,-41
2021-09-22 20:26:08.495873,-21
2021-09-22 20:26:08.495879,0
2021-09-22 20:26:08.495885,107
2021-09-22 20:26:08.495891,109
2021-09-22 20:26:08.495897,99
2021-09-22 20:26:08.495903,138
2021-09-22 20:26:08.495909,150
2021-09-22 20:26:08.495915,143
2021-09-22 20:26:08.495921,153
2021-09-22 20:26:08.495927,167
2021-09-22 20:26:08.495932,182
2021-09-22 20:26:08.495938,194
2021-09-22 20:26:08.495944,206
2021-09-22 20:26:08.495950,221
2021-09-22 20:26:08.495956,240
2021-09-22 20:26:08.495962,262
2021-09-22 20:26:08.495967,287
2021-09-22 20:26:08.495973,313
2021-09-22 20:26:08.495979,347
2021-09-22 20:26:08.495985,384
2021-09-22 20:26:08.495991,423
2021-09-22 20:26:08.495996,464
2021-09-22 20:26:08.496002,501
2021-09-22 20:26:08.496008,532
2021-09-22 20:26:08.496014,547
2021-09-22 20:26:08.496020,542
2021-09-22 20:26:08.496026,523
2021-09-22 20:26:08.765999,489
2021-09-22 20:26:08.766019,418
2021-09-22 20:26:08.766026,309
2021-09-22 20:26:08.766032,177
2021-09-22 20:26:08.766038,48
2021-09-22 20:26:08.766044,-53
2021-09-22 20:26:08.766050,-124
2021-09-22 20:26:08.766056,-177
2021-09-22 20:26:08.766062,-218
2021-09-22 20:26:08.766068,-240
2021-09-22 20:26:08.766074,-255
2021-09-22 20:26:08.766080,-265
2021-09-22 20:26:08.766086,-262
2021-09-22 20:26:08.766091,-245
2021-09-22 20:26:08.766097,-231
2021-09-22 20:26:08.766103,-223
2021-09-22 20:26:08.766109,-209
2021-09-22 20:26:08.766115,-189
2021-09-22 20:26:08.766120,-170
2021-09-22 20:26:08.766126,-153
2021-09-22 20:26:08.766132,-141
2021-09-22 20:26:08.766138,-128
2021-09-22 20:26:08.766144,-119
2021-09-22 20:26:08.766149,-104
2021-09-22 20:26:08.766155,-94
2021-09-22 20:26:08.766161,-90
2021-09-22 20:26:08.766167,-87
2021-09-22 20:26:08.766172,-92
2021-09-22 20:26:08.766178,-92
2021-09-22 20:26:08.766184,-85
2021-09-22 20:26:08.990912,-82
2021-09-22 20:26:08.990929,-82
2021-09-22 20:26:08.990936,-85
2021-09-22 20:26:08.990943,-87
2021-09-22 20:26:08.990949,-92
2021-09-22 20:26:08.990955,-92
2021-09-22 20:26:08.990960,-87
2021-09-22 20:26:08.990966,-90
2021-09-22 20:26:08.990972,-97
2021-09-22 20:26:08.990977,-104
2021-09-22 20:26:08.990983,-111
2021-09-22 20:26:08.990989,-104
2021-09-22 20:26:08.990995,-97
2021-09-22 20:26:08.991001,-97
2021-09-22 20:26:08.991007,-104
2021-09-22 20:26:08.991013,-109
2021-09-22 20:26:08.991018,-109
2021-09-22 20:26:08.991024,-102
2021-09-22 20:26:08.991030,-94
2021-09-22 20:26:08.991036,-92
2021-09-22 20:26:08.991041,-92
2021-09-22 20:26:08.991047,-99
2021-09-22 20:26:08.991053,-102
2021-09-22 20:26:08.991058,-92
2021-09-22 20:26:08.991064,-77
2021-09-22 20:26:08.991070,-65
2021-09-22 20:26:08.991076,-48
2021-09-22 20:26:08.991081,-38
2021-09-22 20:26:08.991087,-36
2021-09-22 20:26:08.991093,-34
2021-09-22 20:26:09.349622,-34
2021-09-22 20:26:09.349640,-48
2021-09-22 20:26:09.349648,-63
2021-09-22 20:26:09.349654,-75
2021-09-22 20:26:09.349660,-70
2021-09-22 20:26:09.349666,-60
2021-09-22 20:26:09.349672,-63
2021-09-22 20:26:09.349678,-68
2021-09-22 20:26:09.349684,-70
2021-09-22 20:26:09.349690,-75
2021-09-22 20:26:09.349695,-63
2021-09-22 20:26:09.349701,-34
2021-09-22 20:26:09.349707,26
2021-09-22 20:26:09.349713,153
2021-09-22 20:26:09.349719,384
2021-09-22 20:26:09.349725,569
2021-09-22 20:26:09.349731,406
2021-09-22 20:26:09.349737,-77
2021-09-22 20:26:09.349742,-579
2021-09-22 20:26:09.349749,-737
2021-09-22 20:26:09.349754,-403
2021-09-22 20:26:09.349760,-94
2021-09-22 20:26:09.349765,-82
2021-09-22 20:26:09.349771,-31
2021-09-22 20:26:09.349777,72
2021-09-22 20:26:09.349783,70
2021-09-22 20:26:09.349788,65
2021-09-22 20:26:09.349794,107
2021-09-22 20:26:09.349800,111
2021-09-22 20:26:09.349806,107
2021-09-22 20:26:09.440816,128
2021-09-22 20:26:09.440832,141
2021-09-22 20:26:09.440839,148
2021-09-22 20:26:09.440845,160
2021-09-22 20:26:09.440851,172
2021-09-22 20:26:09.440857,187
2021-09-22 20:26:09.440863,218
2021-09-22 20:26:09.440869,243
2021-09-22 20:26:09.440875,248
2021-09-22 20:26:09.440881,270
2021-09-22 20:26:09.440886,309
2021-09-22 20:26:09.440892,347
2021-09-22 20:26:09.440898,382
2021-09-22 20:26:09.440904,416
2021-09-22 20:26:09.440909,435
2021-09-22 20:26:09.440915,457
2021-09-22 20:26:09.440921,474
2021-09-22 20:26:09.440927,479
2021-09-22 20:26:09.440932,462
2021-09-22 20:26:09.440938,418
2021-09-22 20:26:09.440944,343
2021-09-22 20:26:09.440950,236
2021-09-22 20:26:09.440956,111
2021-09-22 20:26:09.440962,-7
2021-09-22 20:26:09.440968,-107
2021-09-22 20:26:09.440973,-184
2021-09-22 20:26:09.440979,-245
2021-09-22 20:26:09.440985,-277
2021-09-22 20:26:09.440991,-289
2021-09-22 20:26:09.440996,-291
2021-09-22 20:26:09.711050,-289
2021-09-22 20:26:09.711069,-284
2021-09-22 20:26:09.711077,-274
2021-09-22 20:26:09.711083,-260
2021-09-22 20:26:09.711089,-243
2021-09-22 20:26:09.711095,-226
2021-09-22 20:26:09.711101,-211
2021-09-22 20:26:09.711107,-199
2021-09-22 20:26:09.711113,-184
2021-09-22 20:26:09.711118,-172
2021-09-22 20:26:09.711124,-163
2021-09-22 20:26:09.711130,-155
2021-09-22 20:26:09.711136,-145
2021-09-22 20:26:09.711142,-141
2021-09-22 20:26:09.711148,-136
2021-09-22 20:26:09.711153,-128
2021-09-22 20:26:09.711159,-126
2021-09-22 20:26:09.711165,-121
2021-09-22 20:26:09.711171,-119
2021-09-22 20:26:09.711176,-116
2021-09-22 20:26:09.711182,-119
2021-09-22 20:26:09.711188,-119
2021-09-22 20:26:09.711194,-111
2021-09-22 20:26:09.711200,-109
2021-09-22 20:26:09.711205,-116
2021-09-22 20:26:09.711211,-121
2021-09-22 20:26:09.711217,-114
2021-09-22 20:26:09.711223,-107
2021-09-22 20:26:09.711229,-102
2021-09-22 20:26:09.711234,-94
2021-09-22 20:26:09.890970,-92
2021-09-22 20:26:09.890989,-92
2021-09-22 20:26:09.890997,-92
2021-09-22 20:26:09.891003,-92
2021-09-22 20:26:09.891009,-92
2021-09-22 20:26:09.891015,-87
2021-09-22 20:26:09.891021,-92
2021-09-22 20:26:09.891027,-99
2021-09-22 20:26:09.891033,-92
2021-09-22 20:26:09.891039,-77
2021-09-22 20:26:09.891045,-75
2021-09-22 20:26:09.891051,-80
2021-09-22 20:26:09.891057,-87
2021-09-22 20:26:09.891063,-82
2021-09-22 20:26:09.891068,-60
2021-09-22 20:26:09.891074,-41
2021-09-22 20:26:09.891080,-34
2021-09-22 20:26:09.891086,-34
2021-09-22 20:26:09.891092,-26
2021-09-22 20:26:09.891098,-29
2021-09-22 20:26:09.891104,-43
2021-09-22 20:26:09.891110,-53
2021-09-22 20:26:09.891116,-53
2021-09-22 20:26:09.891121,-48
2021-09-22 20:26:09.891127,-46
2021-09-22 20:26:09.891133,-43
2021-09-22 20:26:09.891139,-38
2021-09-22 20:26:09.891145,-31
2021-09-22 20:26:09.891150,-26
2021-09-22 20:26:09.891157,-21
2021-09-22 20:26:10.115995,0
2021-09-22 20:26:10.116012,68
2021-09-22 20:26:10.116019,199
2021-09-22 20:26:10.116025,428
2021-09-22 20:26:10.116032,620
2021-09-22 20:26:10.116037,464
2021-09-22 20:26:10.116044,-26
2021-09-22 20:26:10.116050,-528
2021-09-22 20:26:10.116056,-664
2021-09-22 20:26:10.116061,-330
2021-09-22 20:26:10.116067,-36
2021-09-22 20:26:10.116073,-31
2021-09-22 20:26:10.116079,24
2021-09-22 20:26:10.116085,141
2021-09-22 20:26:10.116090,138
2021-09-22 20:26:10.116096,119
2021-09-22 20:26:10.116102,160
2021-09-22 20:26:10.116107,177
2021-09-22 20:26:10.116113,170
2021-09-22 20:26:10.116119,184
2021-09-22 20:26:10.116125,201
2021-09-22 20:26:10.116131,209
2021-09-22 20:26:10.116136,221
2021-09-22 20:26:10.116142,236
2021-09-22 20:26:10.116148,253
2021-09-22 20:26:10.116154,272
2021-09-22 20:26:10.116160,291
2021-09-22 20:26:10.116165,316
2021-09-22 20:26:10.116171,343
2021-09-22 20:26:10.116177,367
2021-09-22 20:26:10.385332,394
2021-09-22 20:26:10.385348,435
2021-09-22 20:26:10.385355,472
2021-09-22 20:26:10.385361,496
2021-09-22 20:26:10.385367,515
2021-09-22 20:26:10.385373,520
2021-09-22 20:26:10.385379,515
2021-09-22 20:26:10.385385,498
2021-09-22 20:26:10.385391,452
2021-09-22 20:26:10.385397,372
2021-09-22 20:26:10.385403,260
2021-09-22 20:26:10.385409,131
2021-09-22 20:26:10.385415,17
2021-09-22 20:26:10.385420,-72
2021-09-22 20:26:10.385426,-145
2021-09-22 20:26:10.385432,-201
2021-09-22 20:26:10.385438,-243
2021-09-22 20:26:10.385444,-265
2021-09-22 20:26:10.385450,-267
2021-09-22 20:26:10.385456,-265
2021-09-22 20:26:10.385462,-260
2021-09-22 20:26:10.385467,-253
2021-09-22 20:26:10.385473,-240
2021-09-22 20:26:10.385482,-226
2021-09-22 20:26:10.385488,-211
2021-09-22 20:26:10.385494,-194
2021-09-22 20:26:10.385499,-180
2021-09-22 20:26:10.385505,-165
2021-09-22 20:26:10.385511,-153
2021-09-22 20:26:10.385517,-143
2021-09-22 20:26:10.566006,-133
2021-09-22 20:26:10.566024,-124
2021-09-22 20:26:10.566032,-116
2021-09-22 20:26:10.566038,-111
2021-09-22 20:26:10.566044,-111
2021-09-22 20:26:10.566050,-114
2021-09-22 20:26:10.566056,-111
2021-09-22 20:26:10.566062,-104
2021-09-22 20:26:10.566068,-104
2021-09-22 20:26:10.566074,-111
2021-09-22 20:26:10.566080,-116
2021-09-22 20:26:10.566086,-114
2021-09-22 20:26:10.566092,-107
2021-09-22 20:26:10.566098,-99
2021-09-22 20:26:10.566104,-99
2021-09-22 20:26:10.566109,-99
2021-09-22 20:26:10.566115,-102
2021-09-22 20:26:10.566121,-99
2021-09-22 20:26:10.566127,-97
2021-09-22 20:26:10.566132,-97
2021-09-22 20:26:10.566138,-92
2021-09-22 20:26:10.566144,-92
2021-09-22 20:26:10.566150,-92
2021-09-22 20:26:10.566155,-85
2021-09-22 20:26:10.566161,-75
2021-09-22 20:26:10.566167,-72
2021-09-22 20:26:10.566172,-72
2021-09-22 20:26:10.566178,-75
2021-09-22 20:26:10.566184,-85
2021-09-22 20:26:10.566190,-85
2021-09-22 20:26:10.791011,-75
2021-09-22 20:26:10.791030,-55
2021-09-22 20:26:10.791037,-36
2021-09-22 20:26:10.791043,-41
2021-09-22 20:26:10.791049,-55
2021-09-22 20:26:10.791056,-55
2021-09-22 20:26:10.791062,-48
2021-09-22 20:26:10.791068,-60
2021-09-22 20:26:10.791073,-75
2021-09-22 20:26:10.791079,-82
2021-09-22 20:26:10.791085,-82
2021-09-22 20:26:10.791091,-80
2021-09-22 20:26:10.791097,-72
2021-09-22 20:26:10.791103,-72
2021-09-22 20:26:10.791108,-72
2021-09-22 20:26:10.791114,-68
2021-09-22 20:26:10.791120,-58
2021-09-22 20:26:10.791126,-26
2021-09-22 20:26:10.791132,53
2021-09-22 20:26:10.791138,204
2021-09-22 20:26:10.791144,430
2021-09-22 20:26:10.791149,540
2021-09-22 20:26:10.791155,282
2021-09-22 20:26:10.791161,-187
2021-09-22 20:26:10.791167,-596
2021-09-22 20:26:10.791173,-661
2021-09-22 20:26:10.791179,-294
2021-09-22 20:26:10.791184,-31
2021-09-22 20:26:10.791190,-43
2021-09-22 20:26:10.791196,31
2021-09-22 20:26:11.060922,133
2021-09-22 20:26:11.060940,114
2021-09-22 20:26:11.060947,104
2021-09-22 20:26:11.060953,131
2021-09-22 20:26:11.060959,138
2021-09-22 20:26:11.060965,145
2021-09-22 20:26:11.060971,165
2021-09-22 20:26:11.060976,177
2021-09-22 20:26:11.060982,180
2021-09-22 20:26:11.060988,187
2021-09-22 20:26:11.060994,206
2021-09-22 20:26:11.061000,226
2021-09-22 20:26:11.061006,243
2021-09-22 20:26:11.061012,265
2021-09-22 20:26:11.061018,287
2021-09-22 20:26:11.061024,311
2021-09-22 20:26:11.061030,345
2021-09-22 20:26:11.061035,384
2021-09-22 20:26:11.061041,423
2021-09-22 20:26:11.061047,459
2021-09-22 20:26:11.061053,489
2021-09-22 20:26:11.061059,506
2021-09-22 20:26:11.061065,513
2021-09-22 20:26:11.061070,508
2021-09-22 20:26:11.061076,484
2021-09-22 20:26:11.061082,433
2021-09-22 20:26:11.061088,343
2021-09-22 20:26:11.061093,218
2021-09-22 20:26:11.061099,97
2021-09-22 20:26:11.061106,-2
2021-09-22 20:26:11.374580,-94
2021-09-22 20:26:11.374597,-170
2021-09-22 20:26:11.374604,-221
2021-09-22 20:26:11.374611,-248
2021-09-22 20:26:11.374617,-257
2021-09-22 20:26:11.374623,-260
2021-09-22 20:26:11.374629,-260
2021-09-22 20:26:11.374635,-255
2021-09-22 20:26:11.374641,-250
2021-09-22 20:26:11.374647,-243
2021-09-22 20:26:11.374653,-233
2021-09-22 20:26:11.374659,-226
2021-09-22 20:26:11.374665,-214
2021-09-22 20:26:11.374671,-194
2021-09-22 20:26:11.374677,-187
2021-09-22 20:26:11.374683,-177
2021-09-22 20:26:11.374688,-158
2021-09-22 20:26:11.374694,-145
2021-09-22 20:26:11.374700,-136
2021-09-22 20:26:11.374706,-131
2021-09-22 20:26:11.374712,-126
2021-09-22 20:26:11.374718,-119
2021-09-22 20:26:11.374723,-114
2021-09-22 20:26:11.374729,-114
2021-09-22 20:26:11.374735,-116
2021-09-22 20:26:11.374741,-124
2021-09-22 20:26:11.374747,-124
2021-09-22 20:26:11.374753,-121
2021-09-22 20:26:11.374758,-119
2021-09-22 20:26:11.374764,-114
2021-09-22 20:26:11.511202,-109
2021-09-22 20:26:11.511222,-107
2021-09-22 20:26:11.511228,-104
2021-09-22 20:26:11.511238,-99
2021-09-22 20:26:11.511244,-94
2021-09-22 20:26:11.511250,-87
2021-09-22 20:26:11.511255,-85
2021-09-22 20:26:11.511260,-90
2021-09-22 20:26:11.511266,-97
2021-09-22 20:26:11.511272,-94
2021-09-22 20:26:11.511278,-90
2021-09-22 20:26:11.511284,-87
2021-09-22 20:26:11.511289,-85
2021-09-22 20:26:11.511295,-90
2021-09-22 20:26:11.511301,-92
2021-09-22 20:26:11.511307,-90
2021-09-22 20:26:11.511312,-82
2021-09-22 20:26:11.511318,-85
2021-09-22 20:26:11.511324,-92
2021-09-22 20:26:11.511330,-94
2021-09-22 20:26:11.511336,-82
2021-09-22 20:26:11.511342,-63
2021-09-22 20:26:11.511348,-55
2021-09-22 20:26:11.511353,-58
2021-09-22 20:26:11.511359,-51
2021-09-22 20:26:11.511365,-46
2021-09-22 20:26:11.511371,-65
2021-09-22 20:26:11.511392,-90
2021-09-22 20:26:11.511410,-92
2021-09-22 20:26:11.511417,-82
2021-09-22 20:26:11.736096,-82
2021-09-22 20:26:11.736116,-82
2021-09-22 20:26:11.736123,-77
2021-09-22 20:26:11.736129,-70
2021-09-22 20:26:11.736135,-68
2021-09-22 20:26:11.736141,-63
2021-09-22 20:26:11.736147,-46
2021-09-22 20:26:11.736153,2
2021-09-22 20:26:11.736159,119
2021-09-22 20:26:11.736165,333
2021-09-22 20:26:11.736171,528
2021-09-22 20:26:11.736177,399
2021-09-22 20:26:11.736183,-36
2021-09-22 20:26:11.736189,-503
2021-09-22 20:26:11.736195,-734
2021-09-22 20:26:11.736201,-472
2021-09-22 20:26:11.736207,-104
2021-09-22 20:26:11.736213,-63
2021-09-22 20:26:11.736218,-46
2021-09-22 20:26:11.736224,75
2021-09-22 20:26:11.736230,92
2021-09-22 20:26:11.736236,70
2021-09-22 20:26:11.736242,107
2021-09-22 20:26:11.736248,126
2021-09-22 20:26:11.736254,116
2021-09-22 20:26:11.736260,131
2021-09-22 20:26:11.736266,150
2021-09-22 20:26:11.736271,155
2021-09-22 20:26:11.736277,163
2021-09-22 20:26:11.736283,172
2021-09-22 20:26:11.960981,184
2021-09-22 20:26:11.960999,201
2021-09-22 20:26:11.961005,223
2021-09-22 20:26:11.961011,248
2021-09-22 20:26:11.961017,274
2021-09-22 20:26:11.961022,304
2021-09-22 20:26:11.961027,333
2021-09-22 20:26:11.961032,369
2021-09-22 20:26:11.961038,416
2021-09-22 20:26:11.961044,450
2021-09-22 20:26:11.961050,474
2021-09-22 20:26:11.961056,489
2021-09-22 20:26:11.961061,484
2021-09-22 20:26:11.961066,467
2021-09-22 20:26:11.961071,430
2021-09-22 20:26:11.961076,355
2021-09-22 20:26:11.961082,248
2021-09-22 20:26:11.961088,124
2021-09-22 20:26:11.961094,4
2021-09-22 20:26:11.961100,-94
2021-09-22 20:26:11.961106,-175
2021-09-22 20:26:11.961112,-231
2021-09-22 20:26:11.961118,-260
2021-09-22 20:26:11.961123,-277
2021-09-22 20:26:11.961129,-287
2021-09-22 20:26:11.961135,-279
2021-09-22 20:26:11.961140,-267
2021-09-22 20:26:11.961146,-262
2021-09-22 20:26:11.961152,-253
2021-09-22 20:26:11.961157,-236
2021-09-22 20:26:12.186030,-226
2021-09-22 20:26:12.186048,-216
2021-09-22 20:26:12.186055,-201
2021-09-22 20:26:12.186061,-184
2021-09-22 20:26:12.186068,-170
2021-09-22 20:26:12.186073,-163
2021-09-22 20:26:12.186079,-158
2021-09-22 20:26:12.186085,-145
2021-09-22 20:26:12.186091,-133
2021-09-22 20:26:12.186097,-126
2021-09-22 20:26:12.186103,-121
2021-09-22 20:26:12.186109,-124
2021-09-22 20:26:12.186115,-128
2021-09-22 20:26:12.186121,-124
2021-09-22 20:26:12.186126,-121
2021-09-22 20:26:12.186132,-121
2021-09-22 20:26:12.186138,-121
2021-09-22 20:26:12.186144,-119
2021-09-22 20:26:12.186149,-114
2021-09-22 20:26:12.186155,-107
2021-09-22 20:26:12.186161,-104
2021-09-22 20:26:12.186167,-102
2021-09-22 20:26:12.186172,-107
2021-09-22 20:26:12.186178,-109
2021-09-22 20:26:12.186183,-104
2021-09-22 20:26:12.186189,-94
2021-09-22 20:26:12.186195,-92
2021-09-22 20:26:12.186200,-92
2021-09-22 20:26:12.186206,-87
2021-09-22 20:26:12.186212,-82
2021-09-22 20:26:12.456042,-75
2021-09-22 20:26:12.456061,-70
2021-09-22 20:26:12.456068,-72
2021-09-22 20:26:12.456074,-77
2021-09-22 20:26:12.456080,-82
2021-09-22 20:26:12.456086,-82
2021-09-22 20:26:12.456091,-77
2021-09-22 20:26:12.456097,-72
2021-09-22 20:26:12.456103,-68
2021-09-22 20:26:12.456109,-70
2021-09-22 20:26:12.456115,-72
2021-09-22 20:26:12.456121,-75
2021-09-22 20:26:12.456127,-68
2021-09-22 20:26:12.456133,-60
2021-09-22 20:26:12.456139,-60
2021-09-22 20:26:12.456145,-65
2021-09-22 20:26:12.456151,-70
2021-09-22 20:26:12.456156,-68
2021-09-22 20:26:12.456162,-58
2021-09-22 20:26:12.456168,-41
2021-09-22 20:26:12.456173,-24
2021-09-22 20:26:12.456179,-24
2021-09-22 20:26:12.456185,-31
2021-09-22 20:26:12.456191,-24
2021-09-22 20:26:12.456196,-26
2021-09-22 20:26:12.456202,-43
2021-09-22 20:26:12.456208,-58
2021-09-22 20:26:12.456213,-60
2021-09-22 20:26:12.456219,-58
2021-09-22 20:26:12.456225,-55
2021-09-22 20:26:12.635939,-55
2021-09-22 20:26:12.635956,-51
2021-09-22 20:26:12.635963,-46
2021-09-22 20:26:12.635969,-43
2021-09-22 20:26:12.635975,-38
2021-09-22 20:26:12.635981,-12
2021-09-22 20:26:12.635987,65
2021-09-22 20:26:12.635993,223
2021-09-22 20:26:12.635999,462
2021-09-22 20:26:12.636005,549
2021-09-22 20:26:12.636011,248
2021-09-22 20:26:12.636017,-236
2021-09-22 20:26:12.636023,-625
2021-09-22 20:26:12.636029,-652
2021-09-22 20:26:12.636034,-274
2021-09-22 20:26:12.636040,-26
2021-09-22 20:26:12.636046,-43
2021-09-22 20:26:12.636052,31
2021-09-22 20:26:12.636058,124
2021-09-22 20:26:12.636064,104
2021-09-22 20:26:12.636070,104
2021-09-22 20:26:12.636076,138
2021-09-22 20:26:12.636082,138
2021-09-22 20:26:12.636088,143
2021-09-22 20:26:12.636094,167
2021-09-22 20:26:12.636099,175
2021-09-22 20:26:12.636105,180
2021-09-22 20:26:12.636111,187
2021-09-22 20:26:12.636117,192
2021-09-22 20:26:12.636123,197
2021-09-22 20:26:12.951073,216
2021-09-22 20:26:12.951091,240
2021-09-22 20:26:12.951099,260
2021-09-22 20:26:12.951105,279
2021-09-22 20:26:12.951111,309
2021-09-22 20:26:12.951118,347
2021-09-22 20:26:12.951124,384
2021-09-22 20:26:12.951130,416
2021-09-22 20:26:12.951136,440
2021-09-22 20:26:12.951142,452
2021-09-22 20:26:12.951148,459
2021-09-22 20:26:12.951153,462
2021-09-22 20:26:12.951159,442
2021-09-22 20:26:12.951165,396
2021-09-22 20:26:12.951171,318
2021-09-22 20:26:12.951177,209
2021-09-22 20:26:12.951183,90
2021-09-22 20:26:12.951189,-17
2021-09-22 20:26:12.951195,-107
2021-09-22 20:26:12.951201,-177
2021-09-22 20:26:12.951206,-228
2021-09-22 20:26:12.951212,-260
2021-09-22 20:26:12.951222,-272
2021-09-22 20:26:12.951228,-270
2021-09-22 20:26:12.951234,-265
2021-09-22 20:26:12.951239,-260
2021-09-22 20:26:12.951245,-250
2021-09-22 20:26:12.951251,-238
2021-09-22 20:26:12.951257,-223
2021-09-22 20:26:12.951263,-206
2021-09-22 20:26:13.130946,-189
2021-09-22 20:26:13.130964,-177
2021-09-22 20:26:13.130970,-165
2021-09-22 20:26:13.130977,-155
2021-09-22 20:26:13.130983,-138
2021-09-22 20:26:13.130989,-126
2021-09-22 20:26:13.130994,-119
2021-09-22 20:26:13.131000,-111
2021-09-22 20:26:13.131006,-109
2021-09-22 20:26:13.131012,-114
2021-09-22 20:26:13.131018,-114
2021-09-22 20:26:13.131024,-102
2021-09-22 20:26:13.131030,-99
2021-09-22 20:26:13.131036,-102
2021-09-22 20:26:13.131042,-107
2021-09-22 20:26:13.131047,-109
2021-09-22 20:26:13.131053,-104
2021-09-22 20:26:13.131059,-99
2021-09-22 20:26:13.131065,-97
2021-09-22 20:26:13.131070,-94
2021-09-22 20:26:13.131076,-99
2021-09-22 20:26:13.131082,-102
2021-09-22 20:26:13.131088,-94
2021-09-22 20:26:13.131093,-94
2021-09-22 20:26:13.131099,-94
2021-09-22 20:26:13.131105,-90
2021-09-22 20:26:13.131110,-87
2021-09-22 20:26:13.131116,-85
2021-09-22 20:26:13.131122,-80
2021-09-22 20:26:13.131128,-75
2021-09-22 20:26:13.444615,-72
2021-09-22 20:26:13.444632,-68
2021-09-22 20:26:13.444640,-68
2021-09-22 20:26:13.444646,-72
2021-09-22 20:26:13.444652,-82
2021-09-22 20:26:13.444657,-82
2021-09-22 20:26:13.444663,-77
2021-09-22 20:26:13.444669,-82
2021-09-22 20:26:13.444675,-90
2021-09-22 20:26:13.444681,-85
2021-09-22 20:26:13.444687,-77
2021-09-22 20:26:13.444692,-80
2021-09-22 20:26:13.444698,-85
2021-09-22 20:26:13.444704,-85
2021-09-22 20:26:13.444710,-87
2021-09-22 20:26:13.444716,-85
2021-09-22 20:26:13.444722,-77
2021-09-22 20:26:13.444727,-70
2021-09-22 20:26:13.444739,-65
2021-09-22 20:26:13.444745,-63
2021-09-22 20:26:13.444751,-60
2021-09-22 20:26:13.444756,-55
2021-09-22 20:26:13.444762,-55
2021-09-22 20:26:13.444768,-48
2021-09-22 20:26:13.444773,-34
2021-09-22 20:26:13.444779,-12
2021-09-22 20:26:13.444785,0
2021-09-22 20:26:13.444791,-4
2021-09-22 20:26:13.444797,-4
2021-09-22 20:26:13.444803,9
2021-09-22 20:26:13.625420,7
2021-09-22 20:26:13.625437,-14
2021-09-22 20:26:13.625444,-29
2021-09-22 20:26:13.625451,-34
2021-09-22 20:26:13.625457,-31
2021-09-22 20:26:13.625463,-29
2021-09-22 20:26:13.625469,-31
2021-09-22 20:26:13.625474,-38
2021-09-22 20:26:13.625480,-38
2021-09-22 20:26:13.625486,-26
2021-09-22 20:26:13.625492,-21
2021-09-22 20:26:13.625498,7
2021-09-22 20:26:13.625504,85
2021-09-22 20:26:13.625510,231
2021-09-22 20:26:13.625516,469
2021-09-22 20:26:13.625522,576
2021-09-22 20:26:13.625528,294
2021-09-22 20:26:13.625534,-199
2021-09-22 20:26:13.625540,-603
2021-09-22 20:26:13.625546,-635
2021-09-22 20:26:13.625552,-257
2021-09-22 20:26:13.625558,-12
2021-09-22 20:26:13.625563,-24
2021-09-22 20:26:13.625569,53
2021-09-22 20:26:13.625575,143
2021-09-22 20:26:13.625581,119
2021-09-22 20:26:13.625587,119
2021-09-22 20:26:13.625593,158
2021-09-22 20:26:13.625599,165
2021-09-22 20:26:13.625605,165
2021-09-22 20:26:13.806048,180
2021-09-22 20:26:13.806076,187
2021-09-22 20:26:13.806083,194
2021-09-22 20:26:13.806089,204
2021-09-22 20:26:13.806095,218
2021-09-22 20:26:13.806101,231
2021-09-22 20:26:13.806107,238
2021-09-22 20:26:13.806113,257
2021-09-22 20:26:13.806119,282
2021-09-22 20:26:13.806125,299
2021-09-22 20:26:13.806131,326
2021-09-22 20:26:13.806137,367
2021-09-22 20:26:13.806142,399
2021-09-22 20:26:13.806149,425
2021-09-22 20:26:13.806155,459
2021-09-22 20:26:13.806160,481
2021-09-22 20:26:13.806166,484
2021-09-22 20:26:13.806172,481
2021-09-22 20:26:13.806178,467
2021-09-22 20:26:13.806184,425
2021-09-22 20:26:13.806190,350
2021-09-22 20:26:13.806196,248
2021-09-22 20:26:13.806202,133
2021-09-22 20:26:13.806207,19
2021-09-22 20:26:13.806213,-77
2021-09-22 20:26:13.806219,-145
2021-09-22 20:26:13.806225,-192
2021-09-22 20:26:13.806231,-221
2021-09-22 20:26:13.806237,-238
2021-09-22 20:26:13.806243,-243
2021-09-22 20:26:14.030936,-243
2021-09-22 20:26:14.030953,-231
2021-09-22 20:26:14.030960,-221
2021-09-22 20:26:14.030966,-209
2021-09-22 20:26:14.030972,-192
2021-09-22 20:26:14.030978,-182
2021-09-22 20:26:14.030984,-172
2021-09-22 20:26:14.030990,-150
2021-09-22 20:26:14.030996,-136
2021-09-22 20:26:14.031001,-126
2021-09-22 20:26:14.031007,-114
2021-09-22 20:26:14.031013,-107
2021-09-22 20:26:14.031019,-107
2021-09-22 20:26:14.031025,-102
2021-09-22 20:26:14.031031,-99
2021-09-22 20:26:14.031037,-97
2021-09-22 20:26:14.031043,-92
2021-09-22 20:26:14.031049,-94
2021-09-22 20:26:14.031054,-99
2021-09-22 20:26:14.031060,-97
2021-09-22 20:26:14.031066,-94
2021-09-22 20:26:14.031076,-92
2021-09-22 20:26:14.031082,-92
2021-09-22 20:26:14.031088,-97
2021-09-22 20:26:14.031093,-92
2021-09-22 20:26:14.031099,-90
2021-09-22 20:26:14.031105,-94
2021-09-22 20:26:14.031111,-90
2021-09-22 20:26:14.031117,-80
2021-09-22 20:26:14.031122,-80
2021-09-22 20:26:14.256028,-77
2021-09-22 20:26:14.256045,-68
2021-09-22 20:26:14.256052,-65
2021-09-22 20:26:14.256058,-68
2021-09-22 20:26:14.256064,-68
2021-09-22 20:26:14.256070,-70
2021-09-22 20:26:14.256076,-60
2021-09-22 20:26:14.256082,-53
2021-09-22 20:26:14.256088,-53
2021-09-22 20:26:14.256094,-53
2021-09-22 20:26:14.256100,-46
2021-09-22 20:26:14.256106,-48
2021-09-22 20:26:14.256112,-51
2021-09-22 20:26:14.256117,-41
2021-09-22 20:26:14.256123,-36
2021-09-22 20:26:14.256129,-46
2021-09-22 20:26:14.256135,-58
2021-09-22 20:26:14.256140,-53
2021-09-22 20:26:14.256146,-46
2021-09-22 20:26:14.256152,-53
2021-09-22 20:26:14.256158,-55
2021-09-22 20:26:14.256163,-41
2021-09-22 20:26:14.256169,-34
2021-09-22 20:26:14.256175,-41
2021-09-22 20:26:14.256181,-38
2021-09-22 20:26:14.256187,-26
2021-09-22 20:26:14.256192,-14
2021-09-22 20:26:14.256198,0
2021-09-22 20:26:14.256204,0
2021-09-22 20:26:14.256210,-2
2021-09-22 20:26:14.525318,14
2021-09-22 20:26:14.525335,21
2021-09-22 20:26:14.525342,4
2021-09-22 20:26:14.525348,-9
2021-09-22 20:26:14.525354,-24
2021-09-22 20:26:14.525360,-29
2021-09-22 20:26:14.525366,-12
2021-09-22 20:26:14.525372,-7
2021-09-22 20:26:14.525378,-14
2021-09-22 20:26:14.525384,-17
2021-09-22 20:26:14.525390,-21
2021-09-22 20:26:14.525396,-12
2021-09-22 20:26:14.525402,12
2021-09-22 20:26:14.525407,68
2021-09-22 20:26:14.525413,167
2021-09-22 20:26:14.525419,333
2021-09-22 20:26:14.525425,489
2021-09-22 20:26:14.525431,389
2021-09-22 20:26:14.525437,17
2021-09-22 20:26:14.525443,-418
2021-09-22 20:26:14.525449,-649
2021-09-22 20:26:14.525455,-406
2021-09-22 20:26:14.525461,-53
2021-09-22 20:26:14.525466,-9
2021-09-22 20:26:14.525472,2
2021-09-22 20:26:14.525478,124
2021-09-22 20:26:14.525484,150
2021-09-22 20:26:14.525490,119
2021-09-22 20:26:14.525496,148
2021-09-22 20:26:14.525502,175
2021-09-22 20:26:14.751028,170
2021-09-22 20:26:14.751046,175
2021-09-22 20:26:14.751054,192
2021-09-22 20:26:14.751060,189
2021-09-22 20:26:14.751066,189
2021-09-22 20:26:14.751072,209
2021-09-22 20:26:14.751078,226
2021-09-22 20:26:14.751084,238
2021-09-22 20:26:14.751090,255
2021-09-22 20:26:14.751096,270
2021-09-22 20:26:14.751102,287
2021-09-22 20:26:14.751108,321
2021-09-22 20:26:14.751114,360
2021-09-22 20:26:14.751119,389
2021-09-22 20:26:14.751125,416
2021-09-22 20:26:14.751131,442
2021-09-22 20:26:14.751137,467
2021-09-22 20:26:14.751143,484
2021-09-22 20:26:14.751149,486
2021-09-22 20:26:14.751154,472
2021-09-22 20:26:14.751160,437
2021-09-22 20:26:14.751166,372
2021-09-22 20:26:14.751172,274
2021-09-22 20:26:14.751177,155
2021-09-22 20:26:14.751183,38
2021-09-22 20:26:14.751189,-51
2021-09-22 20:26:14.751195,-124
2021-09-22 20:26:14.751201,-189
2021-09-22 20:26:14.751206,-231
2021-09-22 20:26:14.751212,-248
2021-09-22 20:26:14.975953,-257
2021-09-22 20:26:14.975970,-262
2021-09-22 20:26:14.975977,-260
2021-09-22 20:26:14.975984,-255
2021-09-22 20:26:14.975990,-238
2021-09-22 20:26:14.975996,-216
2021-09-22 20:26:14.976002,-204
2021-09-22 20:26:14.976008,-194
2021-09-22 20:26:14.976014,-187
2021-09-22 20:26:14.976020,-182
2021-09-22 20:26:14.976026,-172
2021-09-22 20:26:14.976032,-158
2021-09-22 20:26:14.976038,-150
2021-09-22 20:26:14.976044,-150
2021-09-22 20:26:14.976049,-148
2021-09-22 20:26:14.976055,-150
2021-09-22 20:26:14.976061,-148
2021-09-22 20:26:14.976067,-141
2021-09-22 20:26:14.976073,-141
2021-09-22 20:26:14.976079,-141
2021-09-22 20:26:14.976085,-145
2021-09-22 20:26:14.976091,-145
2021-09-22 20:26:14.976097,-138
2021-09-22 20:26:14.976103,-128
2021-09-22 20:26:14.976108,-126
2021-09-22 20:26:14.976114,-131
2021-09-22 20:26:14.976120,-136
2021-09-22 20:26:14.976126,-133
2021-09-22 20:26:14.976131,-124
2021-09-22 20:26:14.976137,-116
2021-09-22 20:26:15.200993,-114
2021-09-22 20:26:15.201009,-107
2021-09-22 20:26:15.201016,-104
2021-09-22 20:26:15.201022,-102
2021-09-22 20:26:15.201028,-97
2021-09-22 20:26:15.201034,-90
2021-09-22 20:26:15.201040,-87
2021-09-22 20:26:15.201046,-87
2021-09-22 20:26:15.201052,-87
2021-09-22 20:26:15.201058,-82
2021-09-22 20:26:15.201064,-80
2021-09-22 20:26:15.201070,-77
2021-09-22 20:26:15.201075,-70
2021-09-22 20:26:15.201081,-68
2021-09-22 20:26:15.201087,-72
2021-09-22 20:26:15.201093,-72
2021-09-22 20:26:15.201099,-68
2021-09-22 20:26:15.201105,-60
2021-09-22 20:26:15.201110,-55
2021-09-22 20:26:15.201116,-51
2021-09-22 20:26:15.201122,-48
2021-09-22 20:26:15.201127,-48
2021-09-22 20:26:15.201133,-41
2021-09-22 20:26:15.201139,-34
2021-09-22 20:26:15.201145,-34
2021-09-22 20:26:15.201150,-38
2021-09-22 20:26:15.201156,-38
2021-09-22 20:26:15.201162,-31
2021-09-22 20:26:15.201168,-17
2021-09-22 20:26:15.201174,-7
2021-09-22 20:26:15.559599,-9
2021-09-22 20:26:15.559617,-7
2021-09-22 20:26:15.559624,-2
2021-09-22 20:26:15.559631,-12
2021-09-22 20:26:15.559637,-29
2021-09-22 20:26:15.559643,-38
2021-09-22 20:26:15.559648,-43
2021-09-22 20:26:15.559654,-43
2021-09-22 20:26:15.559660,-41
2021-09-22 20:26:15.559666,-41
2021-09-22 20:26:15.559672,-38
2021-09-22 20:26:15.559678,-31
2021-09-22 20:26:15.559684,-29
2021-09-22 20:26:15.559690,-12
2021-09-22 20:26:15.559695,55
2021-09-22 20:26:15.559701,187
2021-09-22 20:26:15.559707,401
2021-09-22 20:26:15.559713,535
2021-09-22 20:26:15.559719,304
2021-09-22 20:26:15.559724,-150
2021-09-22 20:26:15.559730,-540
2021-09-22 20:26:15.559736,-654
2021-09-22 20:26:15.559742,-343
2021-09-22 20:26:15.559748,-36
2021-09-22 20:26:15.559754,-26
2021-09-22 20:26:15.559759,21
2021-09-22 20:26:15.559765,131
2021-09-22 20:26:15.559771,124
2021-09-22 20:26:15.559777,114
2021-09-22 20:26:15.559782,150
2021-09-22 20:26:15.650983,150
2021-09-22 20:26:15.650998,143
2021-09-22 20:26:15.651005,163
2021-09-22 20:26:15.651012,172
2021-09-22 20:26:15.651018,172
2021-09-22 20:26:15.651024,184
2021-09-22 20:26:15.651030,199
2021-09-22 20:26:15.651036,214
2021-09-22 20:26:15.651042,228
2021-09-22 20:26:15.651048,243
2021-09-22 20:26:15.651053,270
2021-09-22 20:26:15.651059,301
2021-09-22 20:26:15.651065,323
2021-09-22 20:26:15.651071,350
2021-09-22 20:26:15.651077,389
2021-09-22 20:26:15.651083,425
2021-09-22 20:26:15.651088,457
2021-09-22 20:26:15.651094,481
2021-09-22 20:26:15.651100,486
2021-09-22 20:26:15.651106,479
2021-09-22 20:26:15.651112,459
2021-09-22 20:26:15.651117,418
2021-09-22 20:26:15.651123,350
2021-09-22 20:26:15.651129,248
2021-09-22 20:26:15.651135,124
2021-09-22 20:26:15.651140,9
2021-09-22 20:26:15.651146,-82
2021-09-22 20:26:15.651152,-160
2021-09-22 20:26:15.651158,-221
2021-09-22 20:26:15.651164,-257
2021-09-22 20:26:15.921039,-277
2021-09-22 20:26:15.921056,-287
2021-09-22 20:26:15.921063,-304
2021-09-22 20:26:15.921069,-311
2021-09-22 20:26:15.921075,-304
2021-09-22 20:26:15.921081,-294
2021-09-22 20:26:15.921087,-289
2021-09-22 20:26:15.921093,-272
2021-09-22 20:26:15.921099,-253
2021-09-22 20:26:15.921105,-240
2021-09-22 20:26:15.921111,-226
2021-09-22 20:26:15.921117,-214
2021-09-22 20:26:15.921122,-204
2021-09-22 20:26:15.921128,-184
2021-09-22 20:26:15.921134,-167
2021-09-22 20:26:15.921140,-163
2021-09-22 20:26:15.921146,-150
2021-09-22 20:26:15.921152,-141
2021-09-22 20:26:15.921158,-141
2021-09-22 20:26:15.921163,-138
2021-09-22 20:26:15.921169,-131
2021-09-22 20:26:15.921175,-131
2021-09-22 20:26:15.921181,-133
2021-09-22 20:26:15.921187,-133
2021-09-22 20:26:15.921192,-131
2021-09-22 20:26:15.921198,-126
2021-09-22 20:26:15.921204,-119
2021-09-22 20:26:15.921210,-119
2021-09-22 20:26:15.921216,-116
2021-09-22 20:26:15.921222,-114
2021-09-22 20:26:16.100998,-109
2021-09-22 20:26:16.101014,-102
2021-09-22 20:26:16.101021,-97
2021-09-22 20:26:16.101027,-97
2021-09-22 20:26:16.101033,-99
2021-09-22 20:26:16.101039,-97
2021-09-22 20:26:16.101045,-92
2021-09-22 20:26:16.101051,-87
2021-09-22 20:26:16.101057,-82
2021-09-22 20:26:16.101063,-80
2021-09-22 20:26:16.101069,-80
2021-09-22 20:26:16.101075,-82
2021-09-22 20:26:16.101080,-77
2021-09-22 20:26:16.101086,-70
2021-09-22 20:26:16.101092,-68
2021-09-22 20:26:16.101098,-68
2021-09-22 20:26:16.101103,-65
2021-09-22 20:26:16.101109,-63
2021-09-22 20:26:16.101115,-58
2021-09-22 20:26:16.101121,-53
2021-09-22 20:26:16.101127,-51
2021-09-22 20:26:16.101133,-48
2021-09-22 20:26:16.101139,-51
2021-09-22 20:26:16.101145,-51
2021-09-22 20:26:16.101150,-43
2021-09-22 20:26:16.101156,-36
2021-09-22 20:26:16.101162,-36
2021-09-22 20:26:16.101168,-38
2021-09-22 20:26:16.101173,-31
2021-09-22 20:26:16.101179,-17
2021-09-22 20:26:16.415387,-2
2021-09-22 20:26:16.415406,4
2021-09-22 20:26:16.415413,0
2021-09-22 20:26:16.415419,0
2021-09-22 20:26:16.415425,0
2021-09-22 20:26:16.415431,-17
2021-09-22 20:26:16.415437,-38
2021-09-22 20:26:16.415443,-48
2021-09-22 20:26:16.415449,-60
2021-09-22 20:26:16.415455,-70
2021-09-22 20:26:16.415461,-72
2021-09-22 20:26:16.415467,-68
2021-09-22 20:26:16.415472,-63
2021-09-22 20:26:16.415478,-58
2021-09-22 20:26:16.415484,-53
2021-09-22 20:26:16.415490,-34
2021-09-22 20:26:16.415496,31
2021-09-22 20:26:16.415502,165
2021-09-22 20:26:16.415508,394
2021-09-22 20:26:16.415514,554
2021-09-22 20:26:16.415519,345
2021-09-22 20:26:16.415525,-119
2021-09-22 20:26:16.415531,-545
2021-09-22 20:26:16.415537,-691
2021-09-22 20:26:16.415543,-377
2021-09-22 20:26:16.415548,-43
2021-09-22 20:26:16.415554,-21
2021-09-22 20:26:16.415560,14
2021-09-22 20:26:16.415565,119
2021-09-22 20:26:16.415571,119
2021-09-22 20:26:16.641079,107
2021-09-22 20:26:16.641097,143
2021-09-22 20:26:16.641105,153
2021-09-22 20:26:16.641111,143
2021-09-22 20:26:16.641117,153
2021-09-22 20:26:16.641123,167
2021-09-22 20:26:16.641129,175
2021-09-22 20:26:16.641135,184
2021-09-22 20:26:16.641141,192
2021-09-22 20:26:16.641147,201
2021-09-22 20:26:16.641153,218
2021-09-22 20:26:16.641159,240
2021-09-22 20:26:16.641164,262
2021-09-22 20:26:16.641170,291
2021-09-22 20:26:16.641176,323
2021-09-22 20:26:16.641182,352
2021-09-22 20:26:16.641188,384
2021-09-22 20:26:16.641194,420
2021-09-22 20:26:16.641200,455
2021-09-22 20:26:16.641206,481
2021-09-22 20:26:16.641211,491
2021-09-22 20:26:16.641217,484
2021-09-22 20:26:16.641223,467
2021-09-22 20:26:16.641229,430
2021-09-22 20:26:16.641235,362
2021-09-22 20:26:16.641241,265
2021-09-22 20:26:16.641247,143
2021-09-22 20:26:16.641253,14
2021-09-22 20:26:16.641258,-94
2021-09-22 20:26:16.641264,-170
2021-09-22 20:26:16.821084,-228
2021-09-22 20:26:16.821103,-267
2021-09-22 20:26:16.821111,-284
2021-09-22 20:26:16.821117,-294
2021-09-22 20:26:16.821123,-296
2021-09-22 20:26:16.821129,-289
2021-09-22 20:26:16.821135,-279
2021-09-22 20:26:16.821141,-267
2021-09-22 20:26:16.821147,-257
2021-09-22 20:26:16.821153,-255
2021-09-22 20:26:16.821159,-245
2021-09-22 20:26:16.821164,-223
2021-09-22 20:26:16.821170,-204
2021-09-22 20:26:16.821176,-192
2021-09-22 20:26:16.821182,-184
2021-09-22 20:26:16.821188,-182
2021-09-22 20:26:16.821194,-165
2021-09-22 20:26:16.821199,-148
2021-09-22 20:26:16.821205,-143
2021-09-22 20:26:16.821211,-136
2021-09-22 20:26:16.821217,-136
2021-09-22 20:26:16.821222,-141
2021-09-22 20:26:16.821228,-133
2021-09-22 20:26:16.821234,-124
2021-09-22 20:26:16.821240,-124
2021-09-22 20:26:16.821246,-124
2021-09-22 20:26:16.821251,-124
2021-09-22 20:26:16.821257,-126
2021-09-22 20:26:16.821263,-121
2021-09-22 20:26:16.821269,-109
2021-09-22 20:26:17.136043,-104
2021-09-22 20:26:17.136062,-104
2021-09-22 20:26:17.136069,-102
2021-09-22 20:26:17.136075,-99
2021-09-22 20:26:17.136081,-92
2021-09-22 20:26:17.136087,-87
2021-09-22 20:26:17.136093,-80
2021-09-22 20:26:17.136099,-77
2021-09-22 20:26:17.136105,-82
2021-09-22 20:26:17.136110,-82
2021-09-22 20:26:17.136116,-77
2021-09-22 20:26:17.136122,-72
2021-09-22 20:26:17.136128,-77
2021-09-22 20:26:17.136134,-80
2021-09-22 20:26:17.136139,-82
2021-09-22 20:26:17.136145,-80
2021-09-22 20:26:17.136151,-70
2021-09-22 20:26:17.136156,-60
2021-09-22 20:26:17.136162,-53
2021-09-22 20:26:17.136168,-53
2021-09-22 20:26:17.136173,-51
2021-09-22 20:26:17.136179,-48
2021-09-22 20:26:17.136185,-41
2021-09-22 20:26:17.136190,-38
2021-09-22 20:26:17.136196,-36
2021-09-22 20:26:17.136202,-34
2021-09-22 20:26:17.136207,-34
2021-09-22 20:26:17.136213,-34
2021-09-22 20:26:17.136219,-31
2021-09-22 20:26:17.136224,-26
2021-09-22 20:26:17.270999,-19
2021-09-22 20:26:17.271017,-17
2021-09-22 20:26:17.271024,-19
2021-09-22 20:26:17.271030,-19
2021-09-22 20:26:17.271037,-17
2021-09-22 20:26:17.271043,-9
2021-09-22 20:26:17.271049,2
2021-09-22 20:26:17.271055,14
2021-09-22 20:26:17.271061,19
2021-09-22 20:26:17.271067,17
2021-09-22 20:26:17.271073,21
2021-09-22 20:26:17.271079,29
2021-09-22 20:26:17.271085,24
2021-09-22 20:26:17.271091,7
2021-09-22 20:26:17.271097,-14
2021-09-22 20:26:17.271103,-24
2021-09-22 20:26:17.271109,-17
2021-09-22 20:26:17.271115,-9
2021-09-22 20:26:17.271121,-9
2021-09-22 20:26:17.271127,-12
2021-09-22 20:26:17.271133,-19
2021-09-22 20:26:17.271139,-21
2021-09-22 20:26:17.271145,0
2021-09-22 20:26:17.271151,63
2021-09-22 20:26:17.271157,175
2021-09-22 20:26:17.271163,386
2021-09-22 20:26:17.271168,588
2021-09-22 20:26:17.271174,455
2021-09-22 20:26:17.271180,9
2021-09-22 20:26:17.271186,-445
2021-09-22 20:26:17.584696,-659
2021-09-22 20:26:17.584714,-408
2021-09-22 20:26:17.584721,-58
2021-09-22 20:26:17.584727,-14
2021-09-22 20:26:17.584733,7
2021-09-22 20:26:17.584739,119
2021-09-22 20:26:17.584745,126
2021-09-22 20:26:17.584751,94
2021-09-22 20:26:17.584757,128
2021-09-22 20:26:17.584763,150
2021-09-22 20:26:17.584769,145
2021-09-22 20:26:17.584774,160
2021-09-22 20:26:17.584780,170
2021-09-22 20:26:17.584786,170
2021-09-22 20:26:17.584792,182
2021-09-22 20:26:17.584797,197
2021-09-22 20:26:17.584803,201
2021-09-22 20:26:17.584809,216
2021-09-22 20:26:17.584815,236
2021-09-22 20:26:17.584820,257
2021-09-22 20:26:17.584826,284
2021-09-22 20:26:17.584832,313
2021-09-22 20:26:17.584838,345
2021-09-22 20:26:17.584843,374
2021-09-22 20:26:17.584849,406
2021-09-22 20:26:17.584855,437
2021-09-22 20:26:17.584860,464
2021-09-22 20:26:17.584866,481
2021-09-22 20:26:17.584872,484
2021-09-22 20:26:17.584878,469
2021-09-22 20:26:17.720881,433
2021-09-22 20:26:17.720897,372
2021-09-22 20:26:17.720904,282
2021-09-22 20:26:17.720911,165
2021-09-22 20:26:17.720917,38
2021-09-22 20:26:17.720923,-68
2021-09-22 20:26:17.720929,-155
2021-09-22 20:26:17.720935,-218
2021-09-22 20:26:17.720941,-253
2021-09-22 20:26:17.720947,-272
2021-09-22 20:26:17.720953,-282
2021-09-22 20:26:17.720959,-284
2021-09-22 20:26:17.720965,-287
2021-09-22 20:26:17.720971,-277
2021-09-22 20:26:17.720977,-260
2021-09-22 20:26:17.720982,-248
2021-09-22 20:26:17.720988,-236
2021-09-22 20:26:17.720994,-218
2021-09-22 20:26:17.721000,-204
2021-09-22 20:26:17.721006,-187
2021-09-22 20:26:17.721012,-165
2021-09-22 20:26:17.721018,-153
2021-09-22 20:26:17.721024,-143
2021-09-22 20:26:17.721030,-133
2021-09-22 20:26:17.721036,-128
2021-09-22 20:26:17.721041,-128
2021-09-22 20:26:17.721047,-128
2021-09-22 20:26:17.721053,-121
2021-09-22 20:26:17.721059,-116
2021-09-22 20:26:17.721065,-119
2021-09-22 20:26:17.945990,-119
2021-09-22 20:26:17.946009,-111
2021-09-22 20:26:17.946016,-109
2021-09-22 20:26:17.946022,-111
2021-09-22 20:26:17.946028,-111
2021-09-22 20:26:17.946034,-114
2021-09-22 20:26:17.946040,-111
2021-09-22 20:26:17.946046,-104
2021-09-22 20:26:17.946052,-99
2021-09-22 20:26:17.946058,-97
2021-09-22 20:26:17.946065,-94
2021-09-22 20:26:17.946071,-97
2021-09-22 20:26:17.946077,-92
2021-09-22 20:26:17.946083,-85
2021-09-22 20:26:17.946088,-80
2021-09-22 20:26:17.946094,-80
2021-09-22 20:26:17.946100,-75
2021-09-22 20:26:17.946106,-68
2021-09-22 20:26:17.946112,-60
2021-09-22 20:26:17.946117,-60
2021-09-22 20:26:17.946122,-63
2021-09-22 20:26:17.946127,-63
2021-09-22 20:26:17.946133,-58
2021-09-22 20:26:17.946138,-53
2021-09-22 20:26:17.946144,-51
2021-09-22 20:26:17.946149,-43
2021-09-22 20:26:17.946155,-38
2021-09-22 20:26:17.946161,-41
2021-09-22 20:26:17.946167,-38
2021-09-22 20:26:17.946173,-34
2021-09-22 20:26:18.171045,-26
2021-09-22 20:26:18.171062,-26
2021-09-22 20:26:18.171069,-26
2021-09-22 20:26:18.171075,-26
2021-09-22 20:26:18.171081,-24
2021-09-22 20:26:18.171087,-26
2021-09-22 20:26:18.171093,-24
2021-09-22 20:26:18.171099,-17
2021-09-22 20:26:18.171105,-14
2021-09-22 20:26:18.171111,-17
2021-09-22 20:26:18.171117,-21
2021-09-22 20:26:18.171123,-21
2021-09-22 20:26:18.171128,-14
2021-09-22 20:26:18.171134,-4
2021-09-22 20:26:18.171140,2
2021-09-22 20:26:18.171146,14
2021-09-22 20:26:18.171152,24
2021-09-22 20:26:18.171158,26
2021-09-22 20:26:18.171164,26
2021-09-22 20:26:18.171169,29
2021-09-22 20:26:18.171175,21
2021-09-22 20:26:18.171181,2
2021-09-22 20:26:18.171187,-12
2021-09-22 20:26:18.171193,-17
2021-09-22 20:26:18.171198,-12
2021-09-22 20:26:18.171204,-7
2021-09-22 20:26:18.171210,-12
2021-09-22 20:26:18.171216,-12
2021-09-22 20:26:18.171222,-9
2021-09-22 20:26:18.171227,-7
2021-09-22 20:26:18.395931,17
2021-09-22 20:26:18.395948,94
2021-09-22 20:26:18.395955,250
2021-09-22 20:26:18.395961,498
2021-09-22 20:26:18.395967,603
2021-09-22 20:26:18.395973,316
2021-09-22 20:26:18.395979,-180
2021-09-22 20:26:18.395985,-586
2021-09-22 20:26:18.395990,-613
2021-09-22 20:26:18.395996,-250
2021-09-22 20:26:18.396002,-21
2021-09-22 20:26:18.396008,-24
2021-09-22 20:26:18.396014,58
2021-09-22 20:26:18.396019,141
2021-09-22 20:26:18.396025,111
2021-09-22 20:26:18.396031,111
2021-09-22 20:26:18.396037,153
2021-09-22 20:26:18.396043,160
2021-09-22 20:26:18.396048,160
2021-09-22 20:26:18.396054,180
2021-09-22 20:26:18.396060,187
2021-09-22 20:26:18.396066,189
2021-09-22 20:26:18.396072,199
2021-09-22 20:26:18.396077,211
2021-09-22 20:26:18.396083,214
2021-09-22 20:26:18.396089,221
2021-09-22 20:26:18.396094,240
2021-09-22 20:26:18.396100,262
2021-09-22 20:26:18.396106,284
2021-09-22 20:26:18.396112,318
2021-09-22 20:26:18.666056,357
2021-09-22 20:26:18.666073,391
2021-09-22 20:26:18.666080,420
2021-09-22 20:26:18.666086,440
2021-09-22 20:26:18.666093,457
2021-09-22 20:26:18.666099,464
2021-09-22 20:26:18.666105,459
2021-09-22 20:26:18.666111,435
2021-09-22 20:26:18.666116,386
2021-09-22 20:26:18.666122,304
2021-09-22 20:26:18.666128,204
2021-09-22 20:26:18.666134,92
2021-09-22 20:26:18.666140,-19
2021-09-22 20:26:18.666146,-114
2021-09-22 20:26:18.666152,-189
2021-09-22 20:26:18.666158,-245
2021-09-22 20:26:18.666164,-272
2021-09-22 20:26:18.666170,-282
2021-09-22 20:26:18.666176,-284
2021-09-22 20:26:18.666182,-282
2021-09-22 20:26:18.666188,-274
2021-09-22 20:26:18.666194,-267
2021-09-22 20:26:18.666199,-253
2021-09-22 20:26:18.666205,-231
2021-09-22 20:26:18.666211,-214
2021-09-22 20:26:18.666217,-201
2021-09-22 20:26:18.666223,-194
2021-09-22 20:26:18.666228,-180
2021-09-22 20:26:18.666234,-158
2021-09-22 20:26:18.666240,-143
2021-09-22 20:26:18.891018,-131
2021-09-22 20:26:18.891035,-121
2021-09-22 20:26:18.891042,-116
2021-09-22 20:26:18.891049,-114
2021-09-22 20:26:18.891055,-107
2021-09-22 20:26:18.891061,-102
2021-09-22 20:26:18.891067,-107
2021-09-22 20:26:18.891073,-116
2021-09-22 20:26:18.891079,-121
2021-09-22 20:26:18.891085,-121
2021-09-22 20:26:18.891091,-119
2021-09-22 20:26:18.891097,-114
2021-09-22 20:26:18.891103,-111
2021-09-22 20:26:18.891109,-114
2021-09-22 20:26:18.891115,-119
2021-09-22 20:26:18.891121,-116
2021-09-22 20:26:18.891127,-107
2021-09-22 20:26:18.891133,-99
2021-09-22 20:26:18.891139,-92
2021-09-22 20:26:18.891144,-87
2021-09-22 20:26:18.891150,-87
2021-09-22 20:26:18.891156,-85
2021-09-22 20:26:18.891162,-75
2021-09-22 20:26:18.891168,-70
2021-09-22 20:26:18.891174,-68
2021-09-22 20:26:18.891179,-63
2021-09-22 20:26:18.891185,-60
2021-09-22 20:26:18.891191,-60
2021-09-22 20:26:18.891197,-60
2021-09-22 20:26:18.891202,-55
2021-09-22 20:26:19.206041,-53
2021-09-22 20:26:19.206058,-51
2021-09-22 20:26:19.206065,-51
2021-09-22 20:26:19.206072,-48
2021-09-22 20:26:19.206078,-43
2021-09-22 20:26:19.206083,-41
2021-09-22 20:26:19.206089,-36
2021-09-22 20:26:19.206095,-36
2021-09-22 20:26:19.206101,-41
2021-09-22 20:26:19.206107,-41
2021-09-22 20:26:19.206113,-36
2021-09-22 20:26:19.206119,-29
2021-09-22 20:26:19.206125,-26
2021-09-22 20:26:19.206131,-29
2021-09-22 20:26:19.206136,-36
2021-09-22 20:26:19.206142,-31
2021-09-22 20:26:19.206148,-21
2021-09-22 20:26:19.206154,-9
2021-09-22 20:26:19.206160,4
2021-09-22 20:26:19.206165,14
2021-09-22 20:26:19.206171,14
2021-09-22 20:26:19.206177,17
2021-09-22 20:26:19.206183,21
2021-09-22 20:26:19.206189,17
2021-09-22 20:26:19.206195,0
2021-09-22 20:26:19.206201,-14
2021-09-22 20:26:19.206206,-19
2021-09-22 20:26:19.206212,-14
2021-09-22 20:26:19.206218,-9
2021-09-22 20:26:19.206224,-12
2021-09-22 20:26:19.340998,-12
2021-09-22 20:26:19.341014,-14
2021-09-22 20:26:19.341021,-12
2021-09-22 20:26:19.341027,7
2021-09-22 20:26:19.341033,72
2021-09-22 20:26:19.341039,206
2021-09-22 20:26:19.341045,442
2021-09-22 20:26:19.341050,625
2021-09-22 20:26:19.341056,450
2021-09-22 20:26:19.341062,-36
2021-09-22 20:26:19.341068,-515
2021-09-22 20:26:19.341074,-654
2021-09-22 20:26:19.341080,-333
2021-09-22 20:26:19.341086,-31
2021-09-22 20:26:19.341092,-17
2021-09-22 20:26:19.341097,34
2021-09-22 20:26:19.341103,136
2021-09-22 20:26:19.341109,131
2021-09-22 20:26:19.341115,111
2021-09-22 20:26:19.341120,138
2021-09-22 20:26:19.341126,158
2021-09-22 20:26:19.341132,160
2021-09-22 20:26:19.341137,170
2021-09-22 20:26:19.341143,182
2021-09-22 20:26:19.341149,182
2021-09-22 20:26:19.341154,184
2021-09-22 20:26:19.341160,197
2021-09-22 20:26:19.341166,211
2021-09-22 20:26:19.341172,228
2021-09-22 20:26:19.341177,248
2021-09-22 20:26:19.655257,272
2021-09-22 20:26:19.655274,296
2021-09-22 20:26:19.655281,323
2021-09-22 20:26:19.655287,350
2021-09-22 20:26:19.655293,386
2021-09-22 20:26:19.655298,423
2021-09-22 20:26:19.655304,442
2021-09-22 20:26:19.655310,457
2021-09-22 20:26:19.655316,472
2021-09-22 20:26:19.655321,469
2021-09-22 20:26:19.655327,450
2021-09-22 20:26:19.655333,411
2021-09-22 20:26:19.655339,335
2021-09-22 20:26:19.655348,231
2021-09-22 20:26:19.655354,116
2021-09-22 20:26:19.655359,2
2021-09-22 20:26:19.655365,-97
2021-09-22 20:26:19.655371,-177
2021-09-22 20:26:19.655377,-233
2021-09-22 20:26:19.655383,-270
2021-09-22 20:26:19.655389,-287
2021-09-22 20:26:19.655395,-294
2021-09-22 20:26:19.655400,-287
2021-09-22 20:26:19.655406,-279
2021-09-22 20:26:19.655412,-274
2021-09-22 20:26:19.655418,-262
2021-09-22 20:26:19.655423,-240
2021-09-22 20:26:19.655429,-223
2021-09-22 20:26:19.655435,-206
2021-09-22 20:26:19.655441,-189
2021-09-22 20:26:19.791021,-175
2021-09-22 20:26:19.791048,-158
2021-09-22 20:26:19.791055,-145
2021-09-22 20:26:19.791062,-136
2021-09-22 20:26:19.791068,-133
2021-09-22 20:26:19.791074,-136
2021-09-22 20:26:19.791080,-133
2021-09-22 20:26:19.791086,-124
2021-09-22 20:26:19.791092,-119
2021-09-22 20:26:19.791098,-119
2021-09-22 20:26:19.791104,-119
2021-09-22 20:26:19.791110,-124
2021-09-22 20:26:19.791116,-126
2021-09-22 20:26:19.791122,-121
2021-09-22 20:26:19.791128,-119
2021-09-22 20:26:19.791133,-116
2021-09-22 20:26:19.791139,-111
2021-09-22 20:26:19.791145,-114
2021-09-22 20:26:19.791151,-119
2021-09-22 20:26:19.791157,-114
2021-09-22 20:26:19.791162,-104
2021-09-22 20:26:19.791168,-99
2021-09-22 20:26:19.791174,-99
2021-09-22 20:26:19.791180,-99
2021-09-22 20:26:19.791186,-92
2021-09-22 20:26:19.791192,-85
2021-09-22 20:26:19.791197,-82
2021-09-22 20:26:19.791203,-77
2021-09-22 20:26:19.791209,-72
2021-09-22 20:26:19.791215,-72
2021-09-22 20:26:20.016009,-65
2021-09-22 20:26:20.016025,-58
2021-09-22 20:26:20.016032,-58
2021-09-22 20:26:20.016038,-55
2021-09-22 20:26:20.016044,-53
2021-09-22 20:26:20.016050,-58
2021-09-22 20:26:20.016056,-58
2021-09-22 20:26:20.016062,-53
2021-09-22 20:26:20.016068,-53
2021-09-22 20:26:20.016075,-53
2021-09-22 20:26:20.016081,-55
2021-09-22 20:26:20.016087,-58
2021-09-22 20:26:20.016093,-51
2021-09-22 20:26:20.016099,-43
2021-09-22 20:26:20.016104,-43
2021-09-22 20:26:20.016110,-43
2021-09-22 20:26:20.016116,-38
2021-09-22 20:26:20.016122,-38
2021-09-22 20:26:20.016128,-36
2021-09-22 20:26:20.016134,-26
2021-09-22 20:26:20.016139,-17
2021-09-22 20:26:20.016145,-21
2021-09-22 20:26:20.016151,-21
2021-09-22 20:26:20.016157,-9
2021-09-22 20:26:20.016163,4
2021-09-22 20:26:20.016169,21
2021-09-22 20:26:20.016174,26
2021-09-22 20:26:20.016180,24
2021-09-22 20:26:20.016186,24
2021-09-22 20:26:20.016192,24
2021-09-22 20:26:20.240952,14
2021-09-22 20:26:20.240969,-2
2021-09-22 20:26:20.240977,-12
2021-09-22 20:26:20.240983,-19
2021-09-22 20:26:20.240989,-21
2021-09-22 20:26:20.240995,-17
2021-09-22 20:26:20.241001,-14
2021-09-22 20:26:20.241007,-14
2021-09-22 20:26:20.241013,-14
2021-09-22 20:26:20.241019,-19
2021-09-22 20:26:20.241024,12
2021-09-22 20:26:20.241030,107
2021-09-22 20:26:20.241036,289
2021-09-22 20:26:20.241042,532
2021-09-22 20:26:20.241048,566
2021-09-22 20:26:20.241054,206
2021-09-22 20:26:20.241060,-316
2021-09-22 20:26:20.241066,-664
2021-09-22 20:26:20.241071,-549
2021-09-22 20:26:20.241077,-155
2021-09-22 20:26:20.241083,-2
2021-09-22 20:26:20.241089,-9
2021-09-22 20:26:20.241094,80
2021-09-22 20:26:20.241100,126
2021-09-22 20:26:20.241106,97
2021-09-22 20:26:20.241112,119
2021-09-22 20:26:20.241118,148
2021-09-22 20:26:20.241123,138
2021-09-22 20:26:20.241129,141
2021-09-22 20:26:20.241135,163
2021-09-22 20:26:20.511013,175
2021-09-22 20:26:20.511029,180
2021-09-22 20:26:20.511036,192
2021-09-22 20:26:20.511042,199
2021-09-22 20:26:20.511048,206
2021-09-22 20:26:20.511054,231
2021-09-22 20:26:20.511060,257
2021-09-22 20:26:20.511066,277
2021-09-22 20:26:20.511072,294
2021-09-22 20:26:20.511078,316
2021-09-22 20:26:20.511084,343
2021-09-22 20:26:20.511089,372
2021-09-22 20:26:20.511095,408
2021-09-22 20:26:20.511101,440
2021-09-22 20:26:20.511107,457
2021-09-22 20:26:20.511113,457
2021-09-22 20:26:20.511119,455
2021-09-22 20:26:20.511124,433
2021-09-22 20:26:20.511130,384
2021-09-22 20:26:20.511136,306
2021-09-22 20:26:20.511142,199
2021-09-22 20:26:20.511148,72
2021-09-22 20:26:20.511154,-34
2021-09-22 20:26:20.511160,-114
2021-09-22 20:26:20.511166,-182
2021-09-22 20:26:20.511172,-233
2021-09-22 20:26:20.511177,-262
2021-09-22 20:26:20.511183,-274
2021-09-22 20:26:20.511189,-277
2021-09-22 20:26:20.511195,-272
2021-09-22 20:26:20.735960,-265
2021-09-22 20:26:20.735975,-255
2021-09-22 20:26:20.735982,-243
2021-09-22 20:26:20.735989,-231
2021-09-22 20:26:20.735994,-209
2021-09-22 20:26:20.736000,-187
2021-09-22 20:26:20.736006,-172
2021-09-22 20:26:20.736012,-163
2021-09-22 20:26:20.736018,-160
2021-09-22 20:26:20.736023,-153
2021-09-22 20:26:20.736029,-141
2021-09-22 20:26:20.736035,-124
2021-09-22 20:26:20.736041,-116
2021-09-22 20:26:20.736046,-124
2021-09-22 20:26:20.736052,-128
2021-09-22 20:26:20.736058,-126
2021-09-22 20:26:20.736064,-124
2021-09-22 20:26:20.736069,-119
2021-09-22 20:26:20.736075,-114
2021-09-22 20:26:20.736081,-111
2021-09-22 20:26:20.736087,-111
2021-09-22 20:26:20.736092,-114
2021-09-22 20:26:20.736098,-109
2021-09-22 20:26:20.736104,-99
2021-09-22 20:26:20.736110,-97
2021-09-22 20:26:20.736116,-94
2021-09-22 20:26:20.736121,-90
2021-09-22 20:26:20.736127,-87
2021-09-22 20:26:20.736133,-90
2021-09-22 20:26:20.736139,-94
2021-09-22 20:26:20.960994,-92
2021-09-22 20:26:20.961011,-85
2021-09-22 20:26:20.961019,-85
2021-09-22 20:26:20.961025,-82
2021-09-22 20:26:20.961031,-75
2021-09-22 20:26:20.961037,-68
2021-09-22 20:26:20.961043,-65
2021-09-22 20:26:20.961049,-65
2021-09-22 20:26:20.961055,-70
2021-09-22 20:26:20.961061,-68
2021-09-22 20:26:20.961067,-55
2021-09-22 20:26:20.961072,-53
2021-09-22 20:26:20.961078,-58
2021-09-22 20:26:20.961084,-53
2021-09-22 20:26:20.961090,-53
2021-09-22 20:26:20.961096,-63
2021-09-22 20:26:20.961102,-63
2021-09-22 20:26:20.961108,-53
2021-09-22 20:26:20.961113,-51
2021-09-22 20:26:20.961119,-51
2021-09-22 20:26:20.961125,-51
2021-09-22 20:26:20.961130,-46
2021-09-22 20:26:20.961136,-41
2021-09-22 20:26:20.961142,-38
2021-09-22 20:26:20.961148,-36
2021-09-22 20:26:20.961153,-34
2021-09-22 20:26:20.961159,-29
2021-09-22 20:26:20.961165,-29
2021-09-22 20:26:20.961171,-26
2021-09-22 20:26:20.961176,-17
2021-09-22 20:26:21.186050,-4
2021-09-22 20:26:21.186067,7
2021-09-22 20:26:21.186075,17
2021-09-22 20:26:21.186081,17
2021-09-22 20:26:21.186087,17
2021-09-22 20:26:21.186093,19
2021-09-22 20:26:21.186099,7
2021-09-22 20:26:21.186104,-14
2021-09-22 20:26:21.186110,-29
2021-09-22 20:26:21.186116,-31
2021-09-22 20:26:21.186122,-26
2021-09-22 20:26:21.186128,-21
2021-09-22 20:26:21.186134,-21
2021-09-22 20:26:21.186140,-29
2021-09-22 20:26:21.186146,-29
2021-09-22 20:26:21.186151,-21
2021-09-22 20:26:21.186157,0
2021-09-22 20:26:21.186163,68
2021-09-22 20:26:21.186169,211
2021-09-22 20:26:21.186175,452
2021-09-22 20:26:21.186180,591
2021-09-22 20:26:21.186186,347
2021-09-22 20:26:21.186192,-155
2021-09-22 20:26:21.186198,-591
2021-09-22 20:26:21.186203,-647
2021-09-22 20:26:21.186209,-282
2021-09-22 20:26:21.186215,-17
2021-09-22 20:26:21.186221,-17
2021-09-22 20:26:21.186226,48
2021-09-22 20:26:21.186232,141
2021-09-22 20:26:21.411032,121
2021-09-22 20:26:21.411048,116
2021-09-22 20:26:21.411055,150
2021-09-22 20:26:21.411061,150
2021-09-22 20:26:21.411067,141
2021-09-22 20:26:21.411073,148
2021-09-22 20:26:21.411079,155
2021-09-22 20:26:21.411085,158
2021-09-22 20:26:21.411091,172
2021-09-22 20:26:21.411097,189
2021-09-22 20:26:21.411103,204
2021-09-22 20:26:21.411109,221
2021-09-22 20:26:21.411115,238
2021-09-22 20:26:21.411121,260
2021-09-22 20:26:21.411127,287
2021-09-22 20:26:21.411133,313
2021-09-22 20:26:21.411139,343
2021-09-22 20:26:21.411144,379
2021-09-22 20:26:21.411150,408
2021-09-22 20:26:21.411156,435
2021-09-22 20:26:21.411162,459
2021-09-22 20:26:21.411167,469
2021-09-22 20:26:21.411173,462
2021-09-22 20:26:21.411179,442
2021-09-22 20:26:21.411185,403
2021-09-22 20:26:21.411190,333
2021-09-22 20:26:21.411196,228
2021-09-22 20:26:21.411202,111
2021-09-22 20:26:21.411208,-2
2021-09-22 20:26:21.411214,-99
2021-09-22 20:26:21.679654,-172
2021-09-22 20:26:21.679671,-221
2021-09-22 20:26:21.679678,-255
2021-09-22 20:26:21.679685,-274
2021-09-22 20:26:21.679691,-277
2021-09-22 20:26:21.679698,-282
2021-09-22 20:26:21.679704,-282
2021-09-22 20:26:21.679710,-267
2021-09-22 20:26:21.679716,-250
2021-09-22 20:26:21.679722,-238
2021-09-22 20:26:21.679729,-226
2021-09-22 20:26:21.679735,-214
2021-09-22 20:26:21.679741,-197
2021-09-22 20:26:21.679747,-177
2021-09-22 20:26:21.679753,-160
2021-09-22 20:26:21.679760,-150
2021-09-22 20:26:21.679766,-143
2021-09-22 20:26:21.679772,-136
2021-09-22 20:26:21.679778,-126
2021-09-22 20:26:21.679784,-114
2021-09-22 20:26:21.679791,-111
2021-09-22 20:26:21.679797,-116
2021-09-22 20:26:21.679803,-116
2021-09-22 20:26:21.679809,-111
2021-09-22 20:26:21.679815,-109
2021-09-22 20:26:21.679821,-109
2021-09-22 20:26:21.679827,-104
2021-09-22 20:26:21.679833,-104
2021-09-22 20:26:21.679840,-107
2021-09-22 20:26:21.679846,-102
2021-09-22 20:26:21.905470,-94
2021-09-22 20:26:21.905487,-92
2021-09-22 20:26:21.905494,-92
2021-09-22 20:26:21.905501,-87
2021-09-22 20:26:21.905507,-90
2021-09-22 20:26:21.905513,-94
2021-09-22 20:26:21.905519,-87
2021-09-22 20:26:21.905525,-77
2021-09-22 20:26:21.905531,-80
2021-09-22 20:26:21.905537,-92
2021-09-22 20:26:21.905543,-97
2021-09-22 20:26:21.905548,-90
2021-09-22 20:26:21.905554,-80
2021-09-22 20:26:21.905560,-77
2021-09-22 20:26:21.905566,-72
2021-09-22 20:26:21.905572,-72
2021-09-22 20:26:21.905578,-72
2021-09-22 20:26:21.905584,-68
2021-09-22 20:26:21.905589,-60
2021-09-22 20:26:21.905595,-58
2021-09-22 20:26:21.905601,-55
2021-09-22 20:26:21.905607,-51
2021-09-22 20:26:21.905613,-46
2021-09-22 20:26:21.905619,-51
2021-09-22 20:26:21.905625,-51
2021-09-22 20:26:21.905630,-43
2021-09-22 20:26:21.905636,-41
2021-09-22 20:26:21.905642,-43
2021-09-22 20:26:21.905648,-41
2021-09-22 20:26:21.905654,-36
2021-09-22 20:26:22.086054,-34
2021-09-22 20:26:22.086071,-29
2021-09-22 20:26:22.086078,-26
2021-09-22 20:26:22.086084,-29
2021-09-22 20:26:22.086090,-31
2021-09-22 20:26:22.086096,-24
2021-09-22 20:26:22.086102,-14
2021-09-22 20:26:22.086108,-2
2021-09-22 20:26:22.086114,12
2021-09-22 20:26:22.086120,12
2021-09-22 20:26:22.086126,2
2021-09-22 20:26:22.086132,4
2021-09-22 20:26:22.086138,4
2021-09-22 20:26:22.086144,-7
2021-09-22 20:26:22.086149,-19
2021-09-22 20:26:22.086155,-31
2021-09-22 20:26:22.086161,-36
2021-09-22 20:26:22.086166,-29
2021-09-22 20:26:22.086172,-19
2021-09-22 20:26:22.086178,-17
2021-09-22 20:26:22.086184,-21
2021-09-22 20:26:22.086189,-24
2021-09-22 20:26:22.086195,-17
2021-09-22 20:26:22.086201,19
2021-09-22 20:26:22.086206,102
2021-09-22 20:26:22.086212,265
2021-09-22 20:26:22.086218,508
2021-09-22 20:26:22.086224,579
2021-09-22 20:26:22.086229,248
2021-09-22 20:26:22.086235,-274
2021-09-22 20:26:22.356003,-649
2021-09-22 20:26:22.356020,-581
2021-09-22 20:26:22.356028,-194
2021-09-22 20:26:22.356034,-17
2021-09-22 20:26:22.356040,-26
2021-09-22 20:26:22.356046,68
2021-09-22 20:26:22.356052,133
2021-09-22 20:26:22.356058,107
2021-09-22 20:26:22.356064,116
2021-09-22 20:26:22.356070,138
2021-09-22 20:26:22.356076,136
2021-09-22 20:26:22.356082,143
2021-09-22 20:26:22.356087,160
2021-09-22 20:26:22.356093,165
2021-09-22 20:26:22.356099,170
2021-09-22 20:26:22.356105,170
2021-09-22 20:26:22.356111,182
2021-09-22 20:26:22.356116,204
2021-09-22 20:26:22.356122,226
2021-09-22 20:26:22.356128,245
2021-09-22 20:26:22.356133,267
2021-09-22 20:26:22.356139,291
2021-09-22 20:26:22.356145,318
2021-09-22 20:26:22.356151,352
2021-09-22 20:26:22.356156,389
2021-09-22 20:26:22.356162,420
2021-09-22 20:26:22.356168,447
2021-09-22 20:26:22.356174,462
2021-09-22 20:26:22.356180,464
2021-09-22 20:26:22.356185,459
2021-09-22 20:26:22.581059,442
2021-09-22 20:26:22.581075,394
2021-09-22 20:26:22.581082,309
2021-09-22 20:26:22.581088,199
2021-09-22 20:26:22.581094,80
2021-09-22 20:26:22.581100,-26
2021-09-22 20:26:22.581106,-119
2021-09-22 20:26:22.581112,-189
2021-09-22 20:26:22.581118,-245
2021-09-22 20:26:22.581124,-282
2021-09-22 20:26:22.581130,-289
2021-09-22 20:26:22.581135,-287
2021-09-22 20:26:22.581141,-287
2021-09-22 20:26:22.581147,-282
2021-09-22 20:26:22.581153,-277
2021-09-22 20:26:22.581159,-272
2021-09-22 20:26:22.581165,-248
2021-09-22 20:26:22.581171,-228
2021-09-22 20:26:22.581176,-214
2021-09-22 20:26:22.581182,-194
2021-09-22 20:26:22.581188,-180
2021-09-22 20:26:22.581194,-170
2021-09-22 20:26:22.581199,-155
2021-09-22 20:26:22.581205,-138
2021-09-22 20:26:22.581211,-128
2021-09-22 20:26:22.581216,-124
2021-09-22 20:26:22.581222,-121
2021-09-22 20:26:22.581228,-116
2021-09-22 20:26:22.581234,-114
2021-09-22 20:26:22.581240,-114
2021-09-22 20:26:22.806032,-116
2021-09-22 20:26:22.806050,-116
2021-09-22 20:26:22.806057,-116
2021-09-22 20:26:22.806063,-114
2021-09-22 20:26:22.806069,-109
2021-09-22 20:26:22.806075,-107
2021-09-22 20:26:22.806081,-107
2021-09-22 20:26:22.806087,-109
2021-09-22 20:26:22.806093,-111
2021-09-22 20:26:22.806099,-109
2021-09-22 20:26:22.806105,-102
2021-09-22 20:26:22.806111,-97
2021-09-22 20:26:22.806117,-90
2021-09-22 20:26:22.806123,-90
2021-09-22 20:26:22.806129,-97
2021-09-22 20:26:22.806134,-90
2021-09-22 20:26:22.806140,-77
2021-09-22 20:26:22.806146,-70
2021-09-22 20:26:22.806152,-70
2021-09-22 20:26:22.806158,-70
2021-09-22 20:26:22.806163,-75
2021-09-22 20:26:22.806169,-75
2021-09-22 20:26:22.806175,-65
2021-09-22 20:26:22.806181,-60
2021-09-22 20:26:22.806187,-58
2021-09-22 20:26:22.806193,-58
2021-09-22 20:26:22.806199,-55
2021-09-22 20:26:22.806205,-53
2021-09-22 20:26:22.806210,-48
2021-09-22 20:26:22.806216,-43
2021-09-22 20:26:23.030989,-38
2021-09-22 20:26:23.031005,-38
2021-09-22 20:26:23.031012,-41
2021-09-22 20:26:23.031018,-41
2021-09-22 20:26:23.031024,-34
2021-09-22 20:26:23.031030,-29
2021-09-22 20:26:23.031036,-29
2021-09-22 20:26:23.031042,-34
2021-09-22 20:26:23.031048,-36
2021-09-22 20:26:23.031054,-36
2021-09-22 20:26:23.031060,-34
2021-09-22 20:26:23.031066,-29
2021-09-22 20:26:23.031072,-26
2021-09-22 20:26:23.031078,-29
2021-09-22 20:26:23.031083,-31
2021-09-22 20:26:23.031089,-26
2021-09-22 20:26:23.031095,-14
2021-09-22 20:26:23.031101,-7
2021-09-22 20:26:23.031107,-4
2021-09-22 20:26:23.031113,9
2021-09-22 20:26:23.031118,21
2021-09-22 20:26:23.031124,21
2021-09-22 20:26:23.031130,21
2021-09-22 20:26:23.031136,24
2021-09-22 20:26:23.031141,12
2021-09-22 20:26:23.031147,-4
2021-09-22 20:26:23.031153,-17
2021-09-22 20:26:23.031159,-19
2021-09-22 20:26:23.031165,-14
2021-09-22 20:26:23.031171,-9
2021-09-22 20:26:23.301068,-14
2021-09-22 20:26:23.301085,-12
2021-09-22 20:26:23.301092,-9
2021-09-22 20:26:23.301098,-14
2021-09-22 20:26:23.301104,0
2021-09-22 20:26:23.301110,65
2021-09-22 20:26:23.301116,192
2021-09-22 20:26:23.301122,423
2021-09-22 20:26:23.301128,620
2021-09-22 20:26:23.301134,445
2021-09-22 20:26:23.301140,-53
2021-09-22 20:26:23.301146,-532
2021-09-22 20:26:23.301151,-671
2021-09-22 20:26:23.301157,-352
2021-09-22 20:26:23.301163,-48
2021-09-22 20:26:23.301169,-36
2021-09-22 20:26:23.301175,4
2021-09-22 20:26:23.301181,109
2021-09-22 20:26:23.301187,102
2021-09-22 20:26:23.301192,87
2021-09-22 20:26:23.301198,124
2021-09-22 20:26:23.301204,136
2021-09-22 20:26:23.301210,133
2021-09-22 20:26:23.301216,150
2021-09-22 20:26:23.301221,160
2021-09-22 20:26:23.301227,155
2021-09-22 20:26:23.301233,153
2021-09-22 20:26:23.301239,165
2021-09-22 20:26:23.301245,180
2021-09-22 20:26:23.301250,194
2021-09-22 20:26:23.525988,216
2021-09-22 20:26:23.526005,238
2021-09-22 20:26:23.526012,265
2021-09-22 20:26:23.526018,294
2021-09-22 20:26:23.526024,326
2021-09-22 20:26:23.526030,362
2021-09-22 20:26:23.526036,394
2021-09-22 20:26:23.526041,423
2021-09-22 20:26:23.526047,450
2021-09-22 20:26:23.526054,464
2021-09-22 20:26:23.526059,464
2021-09-22 20:26:23.526065,445
2021-09-22 20:26:23.526071,396
2021-09-22 20:26:23.526077,335
2021-09-22 20:26:23.526082,248
2021-09-22 20:26:23.526088,128
2021-09-22 20:26:23.526094,9
2021-09-22 20:26:23.526100,-87
2021-09-22 20:26:23.526106,-170
2021-09-22 20:26:23.526111,-223
2021-09-22 20:26:23.526117,-257
2021-09-22 20:26:23.526123,-277
2021-09-22 20:26:23.526128,-284
2021-09-22 20:26:23.526134,-282
2021-09-22 20:26:23.526140,-274
2021-09-22 20:26:23.526145,-265
2021-09-22 20:26:23.526151,-253
2021-09-22 20:26:23.526157,-238
2021-09-22 20:26:23.526163,-223
2021-09-22 20:26:23.526168,-209
2021-09-22 20:26:23.794810,-194
2021-09-22 20:26:23.794829,-175
2021-09-22 20:26:23.794837,-163
2021-09-22 20:26:23.794843,-155
2021-09-22 20:26:23.794849,-145
2021-09-22 20:26:23.794855,-141
2021-09-22 20:26:23.794861,-133
2021-09-22 20:26:23.794867,-126
2021-09-22 20:26:23.794873,-124
2021-09-22 20:26:23.794879,-121
2021-09-22 20:26:23.794885,-114
2021-09-22 20:26:23.794891,-114
2021-09-22 20:26:23.794897,-116
2021-09-22 20:26:23.794902,-109
2021-09-22 20:26:23.794908,-107
2021-09-22 20:26:23.794914,-109
2021-09-22 20:26:23.794920,-109
2021-09-22 20:26:23.794925,-107
2021-09-22 20:26:23.794931,-102
2021-09-22 20:26:23.794937,-99
2021-09-22 20:26:23.794943,-94
2021-09-22 20:26:23.794949,-92
2021-09-22 20:26:23.794955,-90
2021-09-22 20:26:23.794960,-85
2021-09-22 20:26:23.794966,-77
2021-09-22 20:26:23.794972,-72
2021-09-22 20:26:23.794978,-70
2021-09-22 20:26:23.794983,-68
2021-09-22 20:26:23.794989,-65
2021-09-22 20:26:23.794995,-60
2021-09-22 20:26:23.975377,-58
2021-09-22 20:26:23.975394,-63
2021-09-22 20:26:23.975401,-72
2021-09-22 20:26:23.975407,-72
2021-09-22 20:26:23.975413,-68
2021-09-22 20:26:23.975419,-68
2021-09-22 20:26:23.975425,-63
2021-09-22 20:26:23.975431,-55
2021-09-22 20:26:23.975437,-51
2021-09-22 20:26:23.975443,-55
2021-09-22 20:26:23.975448,-55
2021-09-22 20:26:23.975454,-48
2021-09-22 20:26:23.975460,-46
2021-09-22 20:26:23.975466,-46
2021-09-22 20:26:23.975472,-43
2021-09-22 20:26:23.975478,-46
2021-09-22 20:26:23.975483,-46
2021-09-22 20:26:23.975489,-38
2021-09-22 20:26:23.975495,-34
2021-09-22 20:26:23.975501,-34
2021-09-22 20:26:23.975507,-31
2021-09-22 20:26:23.975512,-34
2021-09-22 20:26:23.975518,-34
2021-09-22 20:26:23.975524,-26
2021-09-22 20:26:23.975530,-24
2021-09-22 20:26:23.975536,-19
2021-09-22 20:26:23.975541,-12
2021-09-22 20:26:23.975547,-12
2021-09-22 20:26:23.975553,-9
2021-09-22 20:26:23.975559,7
2021-09-22 20:26:24.245397,24
2021-09-22 20:26:24.245415,29
2021-09-22 20:26:24.245422,24
2021-09-22 20:26:24.245428,17
2021-09-22 20:26:24.245434,7
2021-09-22 20:26:24.245440,2
2021-09-22 20:26:24.245446,-9
2021-09-22 20:26:24.245452,-24
2021-09-22 20:26:24.245458,-24
2021-09-22 20:26:24.245463,-26
2021-09-22 20:26:24.245469,-31
2021-09-22 20:26:24.245475,-29
2021-09-22 20:26:24.245481,-29
2021-09-22 20:26:24.245487,-31
2021-09-22 20:26:24.245492,-21
2021-09-22 20:26:24.245498,12
2021-09-22 20:26:24.245504,97
2021-09-22 20:26:24.245510,265
2021-09-22 20:26:24.245516,523
2021-09-22 20:26:24.245522,618
2021-09-22 20:26:24.245527,301
2021-09-22 20:26:24.245533,-236
2021-09-22 20:26:24.245539,-637
2021-09-22 20:26:24.245545,-593
2021-09-22 20:26:24.245551,-211
2021-09-22 20:26:24.245556,-17
2021-09-22 20:26:24.245562,-24
2021-09-22 20:26:24.245568,60
2021-09-22 20:26:24.245574,126
2021-09-22 20:26:24.245579,104
2021-09-22 20:26:24.426055,116
2021-09-22 20:26:24.426071,153
2021-09-22 20:26:24.426078,145
2021-09-22 20:26:24.426085,138
2021-09-22 20:26:24.426091,155
2021-09-22 20:26:24.426097,165
2021-09-22 20:26:24.426103,163
2021-09-22 20:26:24.426108,163
2021-09-22 20:26:24.426114,170
2021-09-22 20:26:24.426120,177
2021-09-22 20:26:24.426126,199
2021-09-22 20:26:24.426131,228
2021-09-22 20:26:24.426137,250
2021-09-22 20:26:24.426143,270
2021-09-22 20:26:24.426149,294
2021-09-22 20:26:24.426155,326
2021-09-22 20:26:24.426161,362
2021-09-22 20:26:24.426166,401
2021-09-22 20:26:24.426172,430
2021-09-22 20:26:24.426178,452
2021-09-22 20:26:24.426184,457
2021-09-22 20:26:24.426190,452
2021-09-22 20:26:24.426195,433
2021-09-22 20:26:24.426201,389
2021-09-22 20:26:24.426207,311
2021-09-22 20:26:24.426212,211
2021-09-22 20:26:24.426218,97
2021-09-22 20:26:24.426224,-17
2021-09-22 20:26:24.426230,-111
2021-09-22 20:26:24.426236,-180
2021-09-22 20:26:24.651078,-228
2021-09-22 20:26:24.651095,-257
2021-09-22 20:26:24.651102,-272
2021-09-22 20:26:24.651108,-274
2021-09-22 20:26:24.651114,-267
2021-09-22 20:26:24.651120,-255
2021-09-22 20:26:24.651126,-245
2021-09-22 20:26:24.651132,-238
2021-09-22 20:26:24.651138,-233
2021-09-22 20:26:24.651144,-216
2021-09-22 20:26:24.651150,-192
2021-09-22 20:26:24.651155,-177
2021-09-22 20:26:24.651161,-165
2021-09-22 20:26:24.651167,-153
2021-09-22 20:26:24.651173,-148
2021-09-22 20:26:24.651179,-143
2021-09-22 20:26:24.651185,-133
2021-09-22 20:26:24.651190,-126
2021-09-22 20:26:24.651196,-114
2021-09-22 20:26:24.651202,-109
2021-09-22 20:26:24.651208,-111
2021-09-22 20:26:24.651214,-111
2021-09-22 20:26:24.651219,-104
2021-09-22 20:26:24.651225,-102
2021-09-22 20:26:24.651231,-99
2021-09-22 20:26:24.651236,-102
2021-09-22 20:26:24.651242,-104
2021-09-22 20:26:24.651248,-102
2021-09-22 20:26:24.651253,-92
2021-09-22 20:26:24.651259,-87
2021-09-22 20:26:24.876082,-87
2021-09-22 20:26:24.876099,-85
2021-09-22 20:26:24.876107,-80
2021-09-22 20:26:24.876113,-82
2021-09-22 20:26:24.876119,-77
2021-09-22 20:26:24.876125,-70
2021-09-22 20:26:24.876130,-68
2021-09-22 20:26:24.876136,-70
2021-09-22 20:26:24.876142,-68
2021-09-22 20:26:24.876148,-60
2021-09-22 20:26:24.876153,-58
2021-09-22 20:26:24.876159,-58
2021-09-22 20:26:24.876165,-63
2021-09-22 20:26:24.876171,-70
2021-09-22 20:26:24.876176,-72
2021-09-22 20:26:24.876182,-68
2021-09-22 20:26:24.876188,-63
2021-09-22 20:26:24.876194,-63
2021-09-22 20:26:24.876199,-65
2021-09-22 20:26:24.876205,-65
2021-09-22 20:26:24.876211,-58
2021-09-22 20:26:24.876217,-55
2021-09-22 20:26:24.876222,-53
2021-09-22 20:26:24.876228,-46
2021-09-22 20:26:24.876234,-43
2021-09-22 20:26:24.876240,-41
2021-09-22 20:26:24.876245,-34
2021-09-22 20:26:24.876251,-31
2021-09-22 20:26:24.876257,-29
2021-09-22 20:26:24.876263,-24
2021-09-22 20:26:25.101071,-24
2021-09-22 20:26:25.101088,-24
2021-09-22 20:26:25.101093,-21
2021-09-22 20:26:25.101098,-19
2021-09-22 20:26:25.101103,-17
2021-09-22 20:26:25.101108,-12
2021-09-22 20:26:25.101113,-17
2021-09-22 20:26:25.101118,-19
2021-09-22 20:26:25.101124,-9
2021-09-22 20:26:25.101129,2
2021-09-22 20:26:25.101134,14
2021-09-22 20:26:25.101140,26
2021-09-22 20:26:25.101145,21
2021-09-22 20:26:25.101151,14
2021-09-22 20:26:25.101157,17
2021-09-22 20:26:25.101163,12
2021-09-22 20:26:25.101168,-7
2021-09-22 20:26:25.101174,-17
2021-09-22 20:26:25.101180,-21
2021-09-22 20:26:25.101186,-24
2021-09-22 20:26:25.101191,-26
2021-09-22 20:26:25.101197,-29
2021-09-22 20:26:25.101203,-26
2021-09-22 20:26:25.101208,-21
2021-09-22 20:26:25.101214,-19
2021-09-22 20:26:25.101220,0
2021-09-22 20:26:25.101225,70
2021-09-22 20:26:25.101231,209
2021-09-22 20:26:25.101237,440
2021-09-22 20:26:25.101242,613
2021-09-22 20:26:25.326037,420
2021-09-22 20:26:25.326056,-72
2021-09-22 20:26:25.326063,-535
2021-09-22 20:26:25.326069,-654
2021-09-22 20:26:25.326075,-328
2021-09-22 20:26:25.326081,-36
2021-09-22 20:26:25.326087,-26
2021-09-22 20:26:25.326093,19
2021-09-22 20:26:25.326099,116
2021-09-22 20:26:25.326105,107
2021-09-22 20:26:25.326111,94
2021-09-22 20:26:25.326117,121
2021-09-22 20:26:25.326123,121
2021-09-22 20:26:25.326128,121
2021-09-22 20:26:25.326134,143
2021-09-22 20:26:25.326140,155
2021-09-22 20:26:25.326146,158
2021-09-22 20:26:25.326151,167
2021-09-22 20:26:25.326157,175
2021-09-22 20:26:25.326163,184
2021-09-22 20:26:25.326169,209
2021-09-22 20:26:25.326175,226
2021-09-22 20:26:25.326180,240
2021-09-22 20:26:25.326186,262
2021-09-22 20:26:25.326192,294
2021-09-22 20:26:25.326197,330
2021-09-22 20:26:25.326203,367
2021-09-22 20:26:25.326209,399
2021-09-22 20:26:25.326215,430
2021-09-22 20:26:25.326220,457
2021-09-22 20:26:25.551082,472
2021-09-22 20:26:25.551098,472
2021-09-22 20:26:25.551106,457
2021-09-22 20:26:25.551112,418
2021-09-22 20:26:25.551118,350
2021-09-22 20:26:25.551124,248
2021-09-22 20:26:25.551130,131
2021-09-22 20:26:25.551136,19
2021-09-22 20:26:25.551142,-77
2021-09-22 20:26:25.551148,-160
2021-09-22 20:26:25.551154,-218
2021-09-22 20:26:25.551160,-257
2021-09-22 20:26:25.551166,-272
2021-09-22 20:26:25.551171,-274
2021-09-22 20:26:25.551177,-277
2021-09-22 20:26:25.551183,-272
2021-09-22 20:26:25.551189,-262
2021-09-22 20:26:25.551195,-255
2021-09-22 20:26:25.551200,-240
2021-09-22 20:26:25.551206,-221
2021-09-22 20:26:25.551212,-206
2021-09-22 20:26:25.551218,-194
2021-09-22 20:26:25.551223,-177
2021-09-22 20:26:25.551229,-165
2021-09-22 20:26:25.551235,-158
2021-09-22 20:26:25.551241,-148
2021-09-22 20:26:25.551247,-138
2021-09-22 20:26:25.551253,-128
2021-09-22 20:26:25.551259,-116
2021-09-22 20:26:25.551264,-109
2021-09-22 20:26:25.954569,-107
2021-09-22 20:26:25.954587,-102
2021-09-22 20:26:25.954594,-99
2021-09-22 20:26:25.954600,-102
2021-09-22 20:26:25.954606,-107
2021-09-22 20:26:25.954640,-107
2021-09-22 20:26:25.954648,-102
2021-09-22 20:26:25.954654,-97
2021-09-22 20:26:25.954659,-97
2021-09-22 20:26:25.954665,-99
2021-09-22 20:26:25.954671,-99
2021-09-22 20:26:25.954677,-97
2021-09-22 20:26:25.954683,-92
2021-09-22 20:26:25.954689,-87
2021-09-22 20:26:25.954694,-85
2021-09-22 20:26:25.954700,-82
2021-09-22 20:26:25.954706,-77
2021-09-22 20:26:25.954712,-75
2021-09-22 20:26:25.954718,-68
2021-09-22 20:26:25.954724,-60
2021-09-22 20:26:25.954729,-58
2021-09-22 20:26:25.954735,-58
2021-09-22 20:26:25.954741,-60
2021-09-22 20:26:25.954747,-63
2021-09-22 20:26:25.954753,-63
2021-09-22 20:26:25.954758,-58
2021-09-22 20:26:25.954764,-60
2021-09-22 20:26:25.954770,-65
2021-09-22 20:26:25.954776,-65
2021-09-22 20:26:25.954781,-58
2021-09-22 20:26:26.045344,-51
2021-09-22 20:26:26.045360,-43
2021-09-22 20:26:26.045367,-41
2021-09-22 20:26:26.045373,-43
2021-09-22 20:26:26.045379,-38
2021-09-22 20:26:26.045385,-31
2021-09-22 20:26:26.045391,-26
2021-09-22 20:26:26.045396,-26
2021-09-22 20:26:26.045402,-24
2021-09-22 20:26:26.045408,-29
2021-09-22 20:26:26.045414,-36
2021-09-22 20:26:26.045420,-29
2021-09-22 20:26:26.045426,-19
2021-09-22 20:26:26.045431,-14
2021-09-22 20:26:26.045437,-12
2021-09-22 20:26:26.045443,-7
2021-09-22 20:26:26.045449,0
2021-09-22 20:26:26.045455,12
2021-09-22 20:26:26.045461,21
2021-09-22 20:26:26.045466,26
2021-09-22 20:26:26.045472,29
2021-09-22 20:26:26.045478,19
2021-09-22 20:26:26.045484,2
2021-09-22 20:26:26.045490,-4
2021-09-22 20:26:26.045495,-12
2021-09-22 20:26:26.045501,-9
2021-09-22 20:26:26.045507,-2
2021-09-22 20:26:26.045513,-7
2021-09-22 20:26:26.045518,-14
2021-09-22 20:26:26.045524,-9
2021-09-22 20:26:26.271119,-4
2021-09-22 20:26:26.271138,4
2021-09-22 20:26:26.271145,38
2021-09-22 20:26:26.271152,121
2021-09-22 20:26:26.271158,296
2021-09-22 20:26:26.271164,542
2021-09-22 20:26:26.271170,579
2021-09-22 20:26:26.271176,228
2021-09-22 20:26:26.271183,-294
2021-09-22 20:26:26.271189,-661
2021-09-22 20:26:26.271195,-554
2021-09-22 20:26:26.271201,-155
2021-09-22 20:26:26.271207,-4
2021-09-22 20:26:26.271213,-17
2021-09-22 20:26:26.271218,87
2021-09-22 20:26:26.271225,143
2021-09-22 20:26:26.271231,104
2021-09-22 20:26:26.271236,116
2021-09-22 20:26:26.271242,145
2021-09-22 20:26:26.271248,148
2021-09-22 20:26:26.271254,153
2021-09-22 20:26:26.271260,163
2021-09-22 20:26:26.271266,170
2021-09-22 20:26:26.271272,182
2021-09-22 20:26:26.271278,199
2021-09-22 20:26:26.271284,211
2021-09-22 20:26:26.271289,223
2021-09-22 20:26:26.271295,240
2021-09-22 20:26:26.271301,262
2021-09-22 20:26:26.271307,282
2021-09-22 20:26:26.496177,294
2021-09-22 20:26:26.496196,321
2021-09-22 20:26:26.496203,362
2021-09-22 20:26:26.496209,396
2021-09-22 20:26:26.496215,430
2021-09-22 20:26:26.496220,464
2021-09-22 20:26:26.496226,489
2021-09-22 20:26:26.496232,496
2021-09-22 20:26:26.496238,484
2021-09-22 20:26:26.496244,450
2021-09-22 20:26:26.496250,401
2021-09-22 20:26:26.496256,333
2021-09-22 20:26:26.496262,228
2021-09-22 20:26:26.496267,97
2021-09-22 20:26:26.496273,-19
2021-09-22 20:26:26.496279,-111
2021-09-22 20:26:26.496285,-180
2021-09-22 20:26:26.496291,-226
2021-09-22 20:26:26.496297,-250
2021-09-22 20:26:26.496303,-260
2021-09-22 20:26:26.496309,-267
2021-09-22 20:26:26.496314,-270
2021-09-22 20:26:26.496320,-262
2021-09-22 20:26:26.496326,-245
2021-09-22 20:26:26.496332,-228
2021-09-22 20:26:26.496337,-216
2021-09-22 20:26:26.496343,-204
2021-09-22 20:26:26.496349,-187
2021-09-22 20:26:26.496354,-170
2021-09-22 20:26:26.496360,-153
2021-09-22 20:26:26.721070,-138
2021-09-22 20:26:26.721088,-126
2021-09-22 20:26:26.721095,-119
2021-09-22 20:26:26.721101,-119
2021-09-22 20:26:26.721107,-111
2021-09-22 20:26:26.721113,-97
2021-09-22 20:26:26.721119,-92
2021-09-22 20:26:26.721125,-97
2021-09-22 20:26:26.721131,-99
2021-09-22 20:26:26.721137,-94
2021-09-22 20:26:26.721143,-92
2021-09-22 20:26:26.721149,-90
2021-09-22 20:26:26.721155,-90
2021-09-22 20:26:26.721161,-90
2021-09-22 20:26:26.721167,-87
2021-09-22 20:26:26.721173,-82
2021-09-22 20:26:26.721178,-80
2021-09-22 20:26:26.721184,-77
2021-09-22 20:26:26.721190,-72
2021-09-22 20:26:26.721196,-70
2021-09-22 20:26:26.721202,-65
2021-09-22 20:26:26.721208,-60
2021-09-22 20:26:26.721214,-63
2021-09-22 20:26:26.721219,-58
2021-09-22 20:26:26.721225,-46
2021-09-22 20:26:26.721231,-43
2021-09-22 20:26:26.721237,-51
2021-09-22 20:26:26.721243,-48
2021-09-22 20:26:26.721249,-41
2021-09-22 20:26:26.721255,-36
2021-09-22 20:26:26.991112,-31
2021-09-22 20:26:26.991131,-31
2021-09-22 20:26:26.991138,-31
2021-09-22 20:26:26.991144,-34
2021-09-22 20:26:26.991150,-31
2021-09-22 20:26:26.991156,-36
2021-09-22 20:26:26.991162,-46
2021-09-22 20:26:26.991168,-53
2021-09-22 20:26:26.991174,-48
2021-09-22 20:26:26.991180,-38
2021-09-22 20:26:26.991186,-31
2021-09-22 20:26:26.991192,-29
2021-09-22 20:26:26.991198,-34
2021-09-22 20:26:26.991204,-36
2021-09-22 20:26:26.991210,-34
2021-09-22 20:26:26.991216,-26
2021-09-22 20:26:26.991221,-4
2021-09-22 20:26:26.991227,17
2021-09-22 20:26:26.991233,17
2021-09-22 20:26:26.991239,19
2021-09-22 20:26:26.991245,24
2021-09-22 20:26:26.991251,14
2021-09-22 20:26:26.991257,-2
2021-09-22 20:26:26.991262,-12
2021-09-22 20:26:26.991268,-17
2021-09-22 20:26:26.991274,-17
2021-09-22 20:26:26.991280,-14
2021-09-22 20:26:26.991286,-7
2021-09-22 20:26:26.991292,-4
2021-09-22 20:26:26.991297,-7
2021-09-22 20:26:27.216123,-4
2021-09-22 20:26:27.216141,29
2021-09-22 20:26:27.216148,102
2021-09-22 20:26:27.216154,211
2021-09-22 20:26:27.216160,391
2021-09-22 20:26:27.216167,523
2021-09-22 20:26:27.216173,338
2021-09-22 20:26:27.216179,-109
2021-09-22 20:26:27.216184,-545
2021-09-22 20:26:27.216190,-671
2021-09-22 20:26:27.216196,-335
2021-09-22 20:26:27.216202,-26
2021-09-22 20:26:27.216208,-24
2021-09-22 20:26:27.216214,19
2021-09-22 20:26:27.216220,148
2021-09-22 20:26:27.216226,155
2021-09-22 20:26:27.216232,126
2021-09-22 20:26:27.216238,150
2021-09-22 20:26:27.216244,160
2021-09-22 20:26:27.216250,158
2021-09-22 20:26:27.216256,175
2021-09-22 20:26:27.216261,182
2021-09-22 20:26:27.216267,182
2021-09-22 20:26:27.216273,194
2021-09-22 20:26:27.216279,211
2021-09-22 20:26:27.216284,226
2021-09-22 20:26:27.216290,240
2021-09-22 20:26:27.216296,255
2021-09-22 20:26:27.216302,277
2021-09-22 20:26:27.216308,299
2021-09-22 20:26:27.485495,321
2021-09-22 20:26:27.485512,352
2021-09-22 20:26:27.485520,391
2021-09-22 20:26:27.485526,425
2021-09-22 20:26:27.485532,457
2021-09-22 20:26:27.485538,476
2021-09-22 20:26:27.485543,481
2021-09-22 20:26:27.485549,479
2021-09-22 20:26:27.485555,459
2021-09-22 20:26:27.485561,411
2021-09-22 20:26:27.485567,335
2021-09-22 20:26:27.485573,233
2021-09-22 20:26:27.485579,114
2021-09-22 20:26:27.485585,2
2021-09-22 20:26:27.485591,-97
2021-09-22 20:26:27.485597,-175
2021-09-22 20:26:27.485603,-226
2021-09-22 20:26:27.485609,-262
2021-09-22 20:26:27.485615,-284
2021-09-22 20:26:27.485621,-287
2021-09-22 20:26:27.485626,-282
2021-09-22 20:26:27.485632,-277
2021-09-22 20:26:27.485638,-267
2021-09-22 20:26:27.485644,-253
2021-09-22 20:26:27.485650,-233
2021-09-22 20:26:27.485655,-216
2021-09-22 20:26:27.485661,-206
2021-09-22 20:26:27.485667,-189
2021-09-22 20:26:27.485673,-170
2021-09-22 20:26:27.485678,-160
2021-09-22 20:26:27.621149,-153
2021-09-22 20:26:27.621166,-141
2021-09-22 20:26:27.621173,-136
2021-09-22 20:26:27.621179,-131
2021-09-22 20:26:27.621186,-124
2021-09-22 20:26:27.621192,-124
2021-09-22 20:26:27.621198,-124
2021-09-22 20:26:27.621203,-121
2021-09-22 20:26:27.621209,-116
2021-09-22 20:26:27.621215,-109
2021-09-22 20:26:27.621221,-114
2021-09-22 20:26:27.621227,-121
2021-09-22 20:26:27.621233,-116
2021-09-22 20:26:27.621239,-109
2021-09-22 20:26:27.621244,-109
2021-09-22 20:26:27.621250,-111
2021-09-22 20:26:27.621256,-114
2021-09-22 20:26:27.621262,-111
2021-09-22 20:26:27.621268,-102
2021-09-22 20:26:27.621274,-94
2021-09-22 20:26:27.621280,-94
2021-09-22 20:26:27.621286,-92
2021-09-22 20:26:27.621292,-90
2021-09-22 20:26:27.621298,-85
2021-09-22 20:26:27.621304,-80
2021-09-22 20:26:27.621309,-75
2021-09-22 20:26:27.621315,-70
2021-09-22 20:26:27.621321,-70
2021-09-22 20:26:27.621327,-70
2021-09-22 20:26:27.621333,-63
2021-09-22 20:26:27.980393,-55
2021-09-22 20:26:27.980411,-55
2021-09-22 20:26:27.980419,-55
2021-09-22 20:26:27.980425,-58
2021-09-22 20:26:27.980431,-60
2021-09-22 20:26:27.980437,-53
2021-09-22 20:26:27.980443,-46
2021-09-22 20:26:27.980449,-43
2021-09-22 20:26:27.980455,-43
2021-09-22 20:26:27.980461,-46
2021-09-22 20:26:27.980466,-51
2021-09-22 20:26:27.980472,-43
2021-09-22 20:26:27.980478,-41
2021-09-22 20:26:27.980484,-51
2021-09-22 20:26:27.980489,-48
2021-09-22 20:26:27.980495,-36
2021-09-22 20:26:27.980502,-26
2021-09-22 20:26:27.980507,-17
2021-09-22 20:26:27.980513,-4
2021-09-22 20:26:27.980519,-4
2021-09-22 20:26:27.980525,-9
2021-09-22 20:26:27.980531,-17
2021-09-22 20:26:27.980537,-29
2021-09-22 20:26:27.980542,-41
2021-09-22 20:26:27.980548,-43
2021-09-22 20:26:27.980554,-38
2021-09-22 20:26:27.980560,-36
2021-09-22 20:26:27.980565,-38
2021-09-22 20:26:27.980571,-36
2021-09-22 20:26:27.980577,-31
2021-09-22 20:26:28.116102,-26
2021-09-22 20:26:28.116119,-2
2021-09-22 20:26:28.116126,65
2021-09-22 20:26:28.116133,189
2021-09-22 20:26:28.116139,399
2021-09-22 20:26:28.116145,557
2021-09-22 20:26:28.116150,357
2021-09-22 20:26:28.116156,-116
2021-09-22 20:26:28.116162,-547
2021-09-22 20:26:28.116168,-681
2021-09-22 20:26:28.116174,-377
2021-09-22 20:26:28.116180,-55
2021-09-22 20:26:28.116186,-31
2021-09-22 20:26:28.116192,9
2021-09-22 20:26:28.116198,124
2021-09-22 20:26:28.116204,119
2021-09-22 20:26:28.116210,99
2021-09-22 20:26:28.116215,141
2021-09-22 20:26:28.116221,158
2021-09-22 20:26:28.116227,150
2021-09-22 20:26:28.116233,163
2021-09-22 20:26:28.116239,170
2021-09-22 20:26:28.116244,175
2021-09-22 20:26:28.116250,192
2021-09-22 20:26:28.116256,209
2021-09-22 20:26:28.116262,221
2021-09-22 20:26:28.116352,228
2021-09-22 20:26:28.116359,240
2021-09-22 20:26:28.116365,260
2021-09-22 20:26:28.116371,287
2021-09-22 20:26:28.341112,321
2021-09-22 20:26:28.341129,352
2021-09-22 20:26:28.341136,384
2021-09-22 20:26:28.341142,418
2021-09-22 20:26:28.341148,455
2021-09-22 20:26:28.341154,484
2021-09-22 20:26:28.341160,498
2021-09-22 20:26:28.341166,496
2021-09-22 20:26:28.341172,472
2021-09-22 20:26:28.341178,423
2021-09-22 20:26:28.341184,350
2021-09-22 20:26:28.341190,253
2021-09-22 20:26:28.341195,131
2021-09-22 20:26:28.341201,7
2021-09-22 20:26:28.341207,-97
2021-09-22 20:26:28.341213,-182
2021-09-22 20:26:28.341219,-243
2021-09-22 20:26:28.341225,-279
2021-09-22 20:26:28.341230,-299
2021-09-22 20:26:28.341236,-306
2021-09-22 20:26:28.341242,-311
2021-09-22 20:26:28.341248,-311
2021-09-22 20:26:28.341253,-311
2021-09-22 20:26:28.341259,-304
2021-09-22 20:26:28.341265,-287
2021-09-22 20:26:28.341270,-270
2021-09-22 20:26:28.341276,-257
2021-09-22 20:26:28.341282,-240
2021-09-22 20:26:28.341287,-218
2021-09-22 20:26:28.341293,-206
2021-09-22 20:26:28.610499,-192
2021-09-22 20:26:28.610517,-175
2021-09-22 20:26:28.610524,-165
2021-09-22 20:26:28.610531,-158
2021-09-22 20:26:28.610537,-148
2021-09-22 20:26:28.610543,-138
2021-09-22 20:26:28.610549,-131
2021-09-22 20:26:28.610555,-128
2021-09-22 20:26:28.610561,-136
2021-09-22 20:26:28.610567,-136
2021-09-22 20:26:28.610573,-131
2021-09-22 20:26:28.610579,-126
2021-09-22 20:26:28.610585,-124
2021-09-22 20:26:28.610590,-126
2021-09-22 20:26:28.610596,-131
2021-09-22 20:26:28.610602,-128
2021-09-22 20:26:28.610608,-121
2021-09-22 20:26:28.610614,-116
2021-09-22 20:26:28.610620,-116
2021-09-22 20:26:28.610625,-119
2021-09-22 20:26:28.610631,-119
2021-09-22 20:26:28.610637,-109
2021-09-22 20:26:28.610643,-102
2021-09-22 20:26:28.610649,-99
2021-09-22 20:26:28.610655,-94
2021-09-22 20:26:28.610661,-90
2021-09-22 20:26:28.610667,-85
2021-09-22 20:26:28.610673,-80
2021-09-22 20:26:28.610678,-75
2021-09-22 20:26:28.610684,-70
2021-09-22 20:26:28.791042,-65
2021-09-22 20:26:28.791059,-63
2021-09-22 20:26:28.791066,-60
2021-09-22 20:26:28.791072,-58
2021-09-22 20:26:28.791078,-55
2021-09-22 20:26:28.791084,-51
2021-09-22 20:26:28.791090,-46
2021-09-22 20:26:28.791096,-43
2021-09-22 20:26:28.791102,-48
2021-09-22 20:26:28.791108,-48
2021-09-22 20:26:28.791114,-38
2021-09-22 20:26:28.791120,-34
2021-09-22 20:26:28.791125,-38
2021-09-22 20:26:28.791131,-43
2021-09-22 20:26:28.791137,-41
2021-09-22 20:26:28.791143,-34
2021-09-22 20:26:28.791149,-29
2021-09-22 20:26:28.791155,-29
2021-09-22 20:26:28.791161,-31
2021-09-22 20:26:28.791167,-24
2021-09-22 20:26:28.791172,-4
2021-09-22 20:26:28.791178,7
2021-09-22 20:26:28.791184,0
2021-09-22 20:26:28.791190,0
2021-09-22 20:26:28.791196,7
2021-09-22 20:26:28.791201,2
2021-09-22 20:26:28.791207,-9
2021-09-22 20:26:28.791213,-26
2021-09-22 20:26:28.791219,-41
2021-09-22 20:26:28.791225,-51
2021-09-22 20:26:29.016208,-48
2021-09-22 20:26:29.016227,-41
2021-09-22 20:26:29.016234,-38
2021-09-22 20:26:29.016241,-36
2021-09-22 20:26:29.016247,-34
2021-09-22 20:26:29.016253,-26
2021-09-22 20:26:29.016259,4
2021-09-22 20:26:29.016265,92
2021-09-22 20:26:29.016270,270
2021-09-22 20:26:29.016276,513
2021-09-22 20:26:29.016282,535
2021-09-22 20:26:29.016288,167
2021-09-22 20:26:29.016294,-316
2021-09-22 20:26:29.016300,-654
2021-09-22 20:26:29.016306,-588
2021-09-22 20:26:29.016312,-189
2021-09-22 20:26:29.016317,-2
2021-09-22 20:26:29.016323,-17
2021-09-22 20:26:29.016329,70
2021-09-22 20:26:29.016335,136
2021-09-22 20:26:29.016341,107
2021-09-22 20:26:29.016346,119
2021-09-22 20:26:29.016352,150
2021-09-22 20:26:29.016358,141
2021-09-22 20:26:29.016363,143
2021-09-22 20:26:29.016369,170
2021-09-22 20:26:29.016375,182
2021-09-22 20:26:29.016381,180
2021-09-22 20:26:29.016386,194
2021-09-22 20:26:29.016392,206
2021-09-22 20:26:29.286151,218
2021-09-22 20:26:29.286168,243
2021-09-22 20:26:29.286175,267
2021-09-22 20:26:29.286181,284
2021-09-22 20:26:29.286187,311
2021-09-22 20:26:29.286193,343
2021-09-22 20:26:29.286198,374
2021-09-22 20:26:29.286204,411
2021-09-22 20:26:29.286210,442
2021-09-22 20:26:29.286216,472
2021-09-22 20:26:29.286222,493
2021-09-22 20:26:29.286228,498
2021-09-22 20:26:29.286234,491
2021-09-22 20:26:29.286240,474
2021-09-22 20:26:29.286246,423
2021-09-22 20:26:29.286251,335
2021-09-22 20:26:29.286257,226
2021-09-22 20:26:29.286263,99
2021-09-22 20:26:29.286269,-19
2021-09-22 20:26:29.286274,-119
2021-09-22 20:26:29.286280,-197
2021-09-22 20:26:29.286286,-250
2021-09-22 20:26:29.286292,-274
2021-09-22 20:26:29.286298,-284
2021-09-22 20:26:29.286303,-296
2021-09-22 20:26:29.286309,-299
2021-09-22 20:26:29.286315,-291
2021-09-22 20:26:29.286321,-284
2021-09-22 20:26:29.286326,-277
2021-09-22 20:26:29.286332,-267
2021-09-22 20:26:29.466095,-253
2021-09-22 20:26:29.466110,-236
2021-09-22 20:26:29.466117,-216
2021-09-22 20:26:29.466123,-201
2021-09-22 20:26:29.466129,-199
2021-09-22 20:26:29.466135,-194
2021-09-22 20:26:29.466141,-180
2021-09-22 20:26:29.466146,-165
2021-09-22 20:26:29.466152,-155
2021-09-22 20:26:29.466158,-143
2021-09-22 20:26:29.466164,-138
2021-09-22 20:26:29.466170,-141
2021-09-22 20:26:29.466175,-136
2021-09-22 20:26:29.466181,-126
2021-09-22 20:26:29.466187,-126
2021-09-22 20:26:29.466192,-131
2021-09-22 20:26:29.466198,-131
2021-09-22 20:26:29.466204,-131
2021-09-22 20:26:29.466210,-128
2021-09-22 20:26:29.466215,-121
2021-09-22 20:26:29.466221,-114
2021-09-22 20:26:29.466227,-114
2021-09-22 20:26:29.466232,-114
2021-09-22 20:26:29.466238,-109
2021-09-22 20:26:29.466244,-102
2021-09-22 20:26:29.466249,-97
2021-09-22 20:26:29.466255,-97
2021-09-22 20:26:29.466261,-104
2021-09-22 20:26:29.466267,-102
2021-09-22 20:26:29.466273,-92
2021-09-22 20:26:29.736129,-82
2021-09-22 20:26:29.736146,-75
2021-09-22 20:26:29.736153,-72
2021-09-22 20:26:29.736159,-77
2021-09-22 20:26:29.736165,-85
