Time,ECG
2021-10-14 15:45:00.114126,120
2021-10-14 15:45:00.114146,401
2021-10-14 15:45:00.114156,800
2021-10-14 15:45:00.114164,759
2021-10-14 15:45:00.114173,-122
2021-10-14 15:45:00.114181,-1050
2021-10-14 15:45:00.114190,-935
2021-10-14 15:45:00.114198,-303
2021-10-14 15:45:00.114207,-96
2021-10-14 15:45:00.114215,-60
2021-10-14 15:45:00.114223,93
2021-10-14 15:45:00.114232,134
2021-10-14 15:45:00.114240,88
2021-10-14 15:45:00.114248,108
2021-10-14 15:45:00.114256,127
2021-10-14 15:45:00.114264,115
2021-10-14 15:45:00.114273,122
2021-10-14 15:45:00.114281,132
2021-10-14 15:45:00.114289,132
2021-10-14 15:45:00.114298,134
2021-10-14 15:45:00.114306,141
2021-10-14 15:45:00.114314,141
2021-10-14 15:45:00.114323,144
2021-10-14 15:45:00.114331,151
2021-10-14 15:45:00.114339,158
2021-10-14 15:45:00.114347,168
2021-10-14 15:45:00.114356,177
2021-10-14 15:45:00.114364,180
2021-10-14 15:45:00.114372,175
2021-10-14 15:45:00.114381,177
2021-10-14 15:45:00.249347,185
2021-10-14 15:45:00.249368,180
2021-10-14 15:45:00.249378,163
2021-10-14 15:45:00.249386,146
2021-10-14 15:45:00.249395,127
2021-10-14 15:45:00.249403,96
2021-10-14 15:45:00.249411,69
2021-10-14 15:45:00.249419,36
2021-10-14 15:45:00.249428,-2
2021-10-14 15:45:00.249436,-28
2021-10-14 15:45:00.249444,-45
2021-10-14 15:45:00.249453,-62
2021-10-14 15:45:00.249461,-81
2021-10-14 15:45:00.249469,-98
2021-10-14 15:45:00.249477,-98
2021-10-14 15:45:00.249486,-96
2021-10-14 15:45:00.249494,-98
2021-10-14 15:45:00.249502,-93
2021-10-14 15:45:00.249510,-86
2021-10-14 15:45:00.249519,-91
2021-10-14 15:45:00.249527,-91
2021-10-14 15:45:00.249535,-81
2021-10-14 15:45:00.249544,-67
2021-10-14 15:45:00.249552,-60
2021-10-14 15:45:00.249560,-57
2021-10-14 15:45:00.249568,-55
2021-10-14 15:45:00.249577,-45
2021-10-14 15:45:00.249585,-38
2021-10-14 15:45:00.249599,-38
2021-10-14 15:45:00.249608,-52
2021-10-14 15:45:00.474757,-60
2021-10-14 15:45:00.474779,-52
2021-10-14 15:45:00.474788,-43
2021-10-14 15:45:00.474796,-43
2021-10-14 15:45:00.474805,-38
2021-10-14 15:45:00.474813,-31
2021-10-14 15:45:00.474821,-33
2021-10-14 15:45:00.474829,-43
2021-10-14 15:45:00.474838,-38
2021-10-14 15:45:00.474846,-31
2021-10-14 15:45:00.474854,-33
2021-10-14 15:45:00.474863,-33
2021-10-14 15:45:00.474871,-33
2021-10-14 15:45:00.474879,-33
2021-10-14 15:45:00.474888,-24
2021-10-14 15:45:00.474896,-21
2021-10-14 15:45:00.474904,-24
2021-10-14 15:45:00.474912,-19
2021-10-14 15:45:00.474921,-14
2021-10-14 15:45:00.474929,-16
2021-10-14 15:45:00.474937,-12
2021-10-14 15:45:00.474945,-7
2021-10-14 15:45:00.474954,0
2021-10-14 15:45:00.474962,4
2021-10-14 15:45:00.474970,4
2021-10-14 15:45:00.474978,7
2021-10-14 15:45:00.474987,14
2021-10-14 15:45:00.474995,24
2021-10-14 15:45:00.475003,31
2021-10-14 15:45:00.475011,24
2021-10-14 15:45:00.789753,9
2021-10-14 15:45:00.789776,14
2021-10-14 15:45:00.789785,16
2021-10-14 15:45:00.789794,19
2021-10-14 15:45:00.789802,38
2021-10-14 15:45:00.789811,45
2021-10-14 15:45:00.789819,38
2021-10-14 15:45:00.789827,50
2021-10-14 15:45:00.789836,43
2021-10-14 15:45:00.789844,16
2021-10-14 15:45:00.789852,14
2021-10-14 15:45:00.789860,14
2021-10-14 15:45:00.789869,0
2021-10-14 15:45:00.789877,4
2021-10-14 15:45:00.789886,16
2021-10-14 15:45:00.789894,21
2021-10-14 15:45:00.789902,26
2021-10-14 15:45:00.789911,33
2021-10-14 15:45:00.789919,36
2021-10-14 15:45:00.789928,45
2021-10-14 15:45:00.789936,101
2021-10-14 15:45:00.789945,295
2021-10-14 15:45:00.789953,666
2021-10-14 15:45:00.789961,822
2021-10-14 15:45:00.789969,211
2021-10-14 15:45:00.789978,-788
2021-10-14 15:45:00.789986,-1038
2021-10-14 15:45:00.789995,-476
2021-10-14 15:45:00.790003,-98
2021-10-14 15:45:00.790011,-60
2021-10-14 15:45:00.924335,50
2021-10-14 15:45:00.924356,127
2021-10-14 15:45:00.924366,88
2021-10-14 15:45:00.924374,81
2021-10-14 15:45:00.924383,93
2021-10-14 15:45:00.924391,74
2021-10-14 15:45:00.924399,76
2021-10-14 15:45:00.924408,96
2021-10-14 15:45:00.924416,103
2021-10-14 15:45:00.924424,103
2021-10-14 15:45:00.924433,105
2021-10-14 15:45:00.924441,110
2021-10-14 15:45:00.924449,120
2021-10-14 15:45:00.924458,137
2021-10-14 15:45:00.924466,146
2021-10-14 15:45:00.924474,149
2021-10-14 15:45:00.924483,153
2021-10-14 15:45:00.924491,170
2021-10-14 15:45:00.924500,189
2021-10-14 15:45:00.924508,202
2021-10-14 15:45:00.924516,204
2021-10-14 15:45:00.924524,202
2021-10-14 15:45:00.924533,189
2021-10-14 15:45:00.924541,173
2021-10-14 15:45:00.924549,158
2021-10-14 15:45:00.924557,144
2021-10-14 15:45:00.924566,115
2021-10-14 15:45:00.924574,84
2021-10-14 15:45:00.924582,55
2021-10-14 15:45:00.924591,31
2021-10-14 15:45:01.239766,14
2021-10-14 15:45:01.239787,2
2021-10-14 15:45:01.239796,-16
2021-10-14 15:45:01.239805,-40
2021-10-14 15:45:01.239813,-52
2021-10-14 15:45:01.239822,-64
2021-10-14 15:45:01.239830,-72
2021-10-14 15:45:01.239839,-67
2021-10-14 15:45:01.239847,-60
2021-10-14 15:45:01.239856,-60
2021-10-14 15:45:01.239864,-64
2021-10-14 15:45:01.239872,-62
2021-10-14 15:45:01.239881,-52
2021-10-14 15:45:01.239889,-45
2021-10-14 15:45:01.239897,-38
2021-10-14 15:45:01.239906,-33
2021-10-14 15:45:01.239921,-33
2021-10-14 15:45:01.239930,-21
2021-10-14 15:45:01.239939,-9
2021-10-14 15:45:01.239947,-4
2021-10-14 15:45:01.239956,0
2021-10-14 15:45:01.239986,4
2021-10-14 15:45:01.239994,7
2021-10-14 15:45:01.240003,12
2021-10-14 15:45:01.240011,19
2021-10-14 15:45:01.240019,19
2021-10-14 15:45:01.240028,16
2021-10-14 15:45:01.240036,9
2021-10-14 15:45:01.240045,9
2021-10-14 15:45:01.240053,21
2021-10-14 15:45:01.509764,26
2021-10-14 15:45:01.509786,19
2021-10-14 15:45:01.509795,19
2021-10-14 15:45:01.509804,19
2021-10-14 15:45:01.509812,14
2021-10-14 15:45:01.509821,14
2021-10-14 15:45:01.509829,19
2021-10-14 15:45:01.509837,21
2021-10-14 15:45:01.509846,14
2021-10-14 15:45:01.509854,4
2021-10-14 15:45:01.509862,0
2021-10-14 15:45:01.509870,-4
2021-10-14 15:45:01.509879,0
2021-10-14 15:45:01.509887,12
2021-10-14 15:45:01.509896,12
2021-10-14 15:45:01.509904,0
2021-10-14 15:45:01.509912,-4
2021-10-14 15:45:01.509921,4
2021-10-14 15:45:01.509929,7
2021-10-14 15:45:01.509937,4
2021-10-14 15:45:01.509946,-2
2021-10-14 15:45:01.509954,-14
2021-10-14 15:45:01.509962,-7
2021-10-14 15:45:01.509970,4
2021-10-14 15:45:01.509978,9
2021-10-14 15:45:01.509987,9
2021-10-14 15:45:01.509995,4
2021-10-14 15:45:01.510003,9
2021-10-14 15:45:01.510011,19
2021-10-14 15:45:01.510020,-2
2021-10-14 15:45:01.688429,-31
2021-10-14 15:45:01.688451,-31
2021-10-14 15:45:01.688460,-21
2021-10-14 15:45:01.688469,-26
2021-10-14 15:45:01.688477,-26
2021-10-14 15:45:01.688486,-19
2021-10-14 15:45:01.688494,-19
2021-10-14 15:45:01.688503,-19
2021-10-14 15:45:01.688511,-14
2021-10-14 15:45:01.688520,-7
2021-10-14 15:45:01.688528,7
2021-10-14 15:45:01.688537,84
2021-10-14 15:45:01.688545,343
2021-10-14 15:45:01.688554,723
2021-10-14 15:45:01.688562,687
2021-10-14 15:45:01.688571,-153
2021-10-14 15:45:01.688580,-1029
2021-10-14 15:45:01.688588,-918
2021-10-14 15:45:01.688596,-322
2021-10-14 15:45:01.688605,-108
2021-10-14 15:45:01.688613,-62
2021-10-14 15:45:01.688621,64
2021-10-14 15:45:01.688630,101
2021-10-14 15:45:01.688638,69
2021-10-14 15:45:01.688647,93
2021-10-14 15:45:01.688655,108
2021-10-14 15:45:01.688664,88
2021-10-14 15:45:01.688672,88
2021-10-14 15:45:01.688680,103
2021-10-14 15:45:01.688689,110
2021-10-14 15:45:01.914770,117
2021-10-14 15:45:01.914792,132
2021-10-14 15:45:01.914801,132
2021-10-14 15:45:01.914810,129
2021-10-14 15:45:01.914818,144
2021-10-14 15:45:01.914827,165
2021-10-14 15:45:01.914835,177
2021-10-14 15:45:01.914843,177
2021-10-14 15:45:01.914852,173
2021-10-14 15:45:01.914860,185
2021-10-14 15:45:01.914869,199
2021-10-14 15:45:01.914877,199
2021-10-14 15:45:01.914885,187
2021-10-14 15:45:01.914893,170
2021-10-14 15:45:01.914902,153
2021-10-14 15:45:01.914910,132
2021-10-14 15:45:01.914918,96
2021-10-14 15:45:01.914927,69
2021-10-14 15:45:01.914935,50
2021-10-14 15:45:01.914943,16
2021-10-14 15:45:01.914952,-16
2021-10-14 15:45:01.914960,-33
2021-10-14 15:45:01.914968,-43
2021-10-14 15:45:01.914976,-52
2021-10-14 15:45:01.914984,-50
2021-10-14 15:45:01.914993,-52
2021-10-14 15:45:01.915001,-67
2021-10-14 15:45:01.915009,-72
2021-10-14 15:45:01.915018,-64
2021-10-14 15:45:01.915026,-62
2021-10-14 15:45:02.094510,-57
2021-10-14 15:45:02.094532,-50
2021-10-14 15:45:02.094542,-55
2021-10-14 15:45:02.094550,-52
2021-10-14 15:45:02.094559,-36
2021-10-14 15:45:02.094567,-19
2021-10-14 15:45:02.094576,-21
2021-10-14 15:45:02.094584,-28
2021-10-14 15:45:02.094592,-24
2021-10-14 15:45:02.094601,-14
2021-10-14 15:45:02.094610,-9
2021-10-14 15:45:02.094618,-4
2021-10-14 15:45:02.094627,0
2021-10-14 15:45:02.094635,2
2021-10-14 15:45:02.094644,7
2021-10-14 15:45:02.094652,2
2021-10-14 15:45:02.094661,-4
2021-10-14 15:45:02.094669,2
2021-10-14 15:45:02.094678,4
2021-10-14 15:45:02.094686,-4
2021-10-14 15:45:02.094695,-7
2021-10-14 15:45:02.094703,-2
2021-10-14 15:45:02.094711,-12
2021-10-14 15:45:02.094720,-19
2021-10-14 15:45:02.094728,-14
2021-10-14 15:45:02.094737,-14
2021-10-14 15:45:02.094745,-21
2021-10-14 15:45:02.094754,-21
2021-10-14 15:45:02.094762,-21
2021-10-14 15:45:02.094771,-21
2021-10-14 15:45:02.454187,-24
2021-10-14 15:45:02.454210,-28
2021-10-14 15:45:02.454219,-31
2021-10-14 15:45:02.454228,-31
2021-10-14 15:45:02.454237,-33
2021-10-14 15:45:02.454245,-28
2021-10-14 15:45:02.454254,-31
2021-10-14 15:45:02.454262,-40
2021-10-14 15:45:02.454270,-40
2021-10-14 15:45:02.454279,-28
2021-10-14 15:45:02.454287,-21
2021-10-14 15:45:02.454295,-21
2021-10-14 15:45:02.454304,-24
2021-10-14 15:45:02.454312,-33
2021-10-14 15:45:02.454320,-40
2021-10-14 15:45:02.454328,-24
2021-10-14 15:45:02.454337,-12
2021-10-14 15:45:02.454345,-16
2021-10-14 15:45:02.454353,-21
2021-10-14 15:45:02.454361,-12
2021-10-14 15:45:02.454370,-4
2021-10-14 15:45:02.454378,-31
2021-10-14 15:45:02.454386,-69
2021-10-14 15:45:02.454394,-72
2021-10-14 15:45:02.454403,-55
2021-10-14 15:45:02.454411,-52
2021-10-14 15:45:02.454419,-55
2021-10-14 15:45:02.454427,-52
2021-10-14 15:45:02.454436,-48
2021-10-14 15:45:02.454444,-33
2021-10-14 15:45:02.589748,-26
2021-10-14 15:45:02.589769,-28
2021-10-14 15:45:02.589778,-2
2021-10-14 15:45:02.589787,84
2021-10-14 15:45:02.589795,355
2021-10-14 15:45:02.589804,714
2021-10-14 15:45:02.589812,581
2021-10-14 15:45:02.589820,-358
2021-10-14 15:45:02.589829,-1175
2021-10-14 15:45:02.589837,-947
2021-10-14 15:45:02.589845,-384
2021-10-14 15:45:02.589854,-206
2021-10-14 15:45:02.589862,-74
2021-10-14 15:45:02.589870,110
2021-10-14 15:45:02.589878,113
2021-10-14 15:45:02.589887,69
2021-10-14 15:45:02.589895,115
2021-10-14 15:45:02.589903,122
2021-10-14 15:45:02.589911,93
2021-10-14 15:45:02.589919,122
2021-10-14 15:45:02.589927,144
2021-10-14 15:45:02.589936,127
2021-10-14 15:45:02.589944,127
2021-10-14 15:45:02.589952,132
2021-10-14 15:45:02.589961,139
2021-10-14 15:45:02.589969,161
2021-10-14 15:45:02.589977,175
2021-10-14 15:45:02.589985,170
2021-10-14 15:45:02.589994,175
2021-10-14 15:45:02.590002,199
2021-10-14 15:45:02.814380,218
2021-10-14 15:45:02.814401,223
2021-10-14 15:45:02.814410,240
2021-10-14 15:45:02.814419,250
2021-10-14 15:45:02.814428,238
2021-10-14 15:45:02.814436,228
2021-10-14 15:45:02.814445,216
2021-10-14 15:45:02.814454,189
2021-10-14 15:45:02.814462,153
2021-10-14 15:45:02.814470,127
2021-10-14 15:45:02.814479,88
2021-10-14 15:45:02.814487,31
2021-10-14 15:45:02.814495,-2
2021-10-14 15:45:02.814504,-16
2021-10-14 15:45:02.814512,-33
2021-10-14 15:45:02.814521,-57
2021-10-14 15:45:02.814529,-86
2021-10-14 15:45:02.814538,-98
2021-10-14 15:45:02.814546,-84
2021-10-14 15:45:02.814554,-88
2021-10-14 15:45:02.814563,-105
2021-10-14 15:45:02.814571,-103
2021-10-14 15:45:02.814579,-96
2021-10-14 15:45:02.814588,-96
2021-10-14 15:45:02.814596,-86
2021-10-14 15:45:02.814604,-69
2021-10-14 15:45:02.814613,-72
2021-10-14 15:45:02.814621,-76
2021-10-14 15:45:02.814629,-81
2021-10-14 15:45:02.814637,-88
2021-10-14 15:45:02.994486,-86
2021-10-14 15:45:02.994510,-67
2021-10-14 15:45:02.994518,-45
2021-10-14 15:45:02.994526,-57
2021-10-14 15:45:02.994535,-91
2021-10-14 15:45:02.994543,-86
2021-10-14 15:45:02.994551,-62
2021-10-14 15:45:02.994559,-67
2021-10-14 15:45:02.994566,-91
2021-10-14 15:45:02.994574,-113
2021-10-14 15:45:02.994582,-108
2021-10-14 15:45:02.994590,-81
2021-10-14 15:45:02.994597,-69
2021-10-14 15:45:02.994605,-72
2021-10-14 15:45:02.994613,-79
2021-10-14 15:45:02.994621,-101
2021-10-14 15:45:02.994629,-108
2021-10-14 15:45:02.994636,-91
2021-10-14 15:45:02.994644,-84
2021-10-14 15:45:02.994651,-88
2021-10-14 15:45:02.994659,-81
2021-10-14 15:45:02.994667,-74
2021-10-14 15:45:02.994675,-81
2021-10-14 15:45:02.994682,-91
2021-10-14 15:45:02.994690,-84
2021-10-14 15:45:02.994698,-74
2021-10-14 15:45:02.994706,-69
2021-10-14 15:45:02.994713,-64
2021-10-14 15:45:02.994721,-60
2021-10-14 15:45:02.994729,-50
2021-10-14 15:45:03.264527,-31
2021-10-14 15:45:03.264548,-19
2021-10-14 15:45:03.264557,-45
2021-10-14 15:45:03.264565,-79
2021-10-14 15:45:03.264573,-81
2021-10-14 15:45:03.264580,-76
2021-10-14 15:45:03.264588,-84
2021-10-14 15:45:03.264596,-72
2021-10-14 15:45:03.264603,-62
2021-10-14 15:45:03.264611,-86
2021-10-14 15:45:03.264619,-91
2021-10-14 15:45:03.264626,-55
2021-10-14 15:45:03.264634,-38
2021-10-14 15:45:03.264642,-31
2021-10-14 15:45:03.264649,55
2021-10-14 15:45:03.264657,322
2021-10-14 15:45:03.264665,678
2021-10-14 15:45:03.264673,560
2021-10-14 15:45:03.264680,-389
2021-10-14 15:45:03.264688,-1233
2021-10-14 15:45:03.264695,-1005
2021-10-14 15:45:03.264703,-423
2021-10-14 15:45:03.264711,-235
2021-10-14 15:45:03.264720,-103
2021-10-14 15:45:03.264728,72
2021-10-14 15:45:03.264735,84
2021-10-14 15:45:03.264743,55
2021-10-14 15:45:03.264751,84
2021-10-14 15:45:03.264758,96
2021-10-14 15:45:03.264766,84
2021-10-14 15:45:03.489395,91
2021-10-14 15:45:03.489418,105
2021-10-14 15:45:03.489428,103
2021-10-14 15:45:03.489437,91
2021-10-14 15:45:03.489445,101
2021-10-14 15:45:03.489454,122
2021-10-14 15:45:03.489462,129
2021-10-14 15:45:03.489470,132
2021-10-14 15:45:03.489479,137
2021-10-14 15:45:03.489487,139
2021-10-14 15:45:03.489496,151
2021-10-14 15:45:03.489504,175
2021-10-14 15:45:03.489512,189
2021-10-14 15:45:03.489521,185
2021-10-14 15:45:03.489529,182
2021-10-14 15:45:03.489538,182
2021-10-14 15:45:03.489546,175
2021-10-14 15:45:03.489554,153
2021-10-14 15:45:03.489562,125
2021-10-14 15:45:03.489571,96
2021-10-14 15:45:03.489579,62
2021-10-14 15:45:03.489587,16
2021-10-14 15:45:03.489596,-19
2021-10-14 15:45:03.489604,-43
2021-10-14 15:45:03.489612,-67
2021-10-14 15:45:03.489621,-81
2021-10-14 15:45:03.489629,-98
2021-10-14 15:45:03.489637,-117
2021-10-14 15:45:03.489645,-115
2021-10-14 15:45:03.489653,-110
2021-10-14 15:45:03.803442,-115
2021-10-14 15:45:03.803493,-113
2021-10-14 15:45:03.803505,-103
2021-10-14 15:45:03.803514,-101
2021-10-14 15:45:03.803523,-93
2021-10-14 15:45:03.803531,-86
2021-10-14 15:45:03.803540,-79
2021-10-14 15:45:03.803548,-74
2021-10-14 15:45:03.803557,-81
2021-10-14 15:45:03.803565,-79
2021-10-14 15:45:03.803574,-60
2021-10-14 15:45:03.803582,-48
2021-10-14 15:45:03.803591,-50
2021-10-14 15:45:03.803599,-57
2021-10-14 15:45:03.803608,-69
2021-10-14 15:45:03.803616,-69
2021-10-14 15:45:03.803625,-57
2021-10-14 15:45:03.803634,-52
2021-10-14 15:45:03.803642,-62
2021-10-14 15:45:03.803651,-72
2021-10-14 15:45:03.803659,-79
2021-10-14 15:45:03.803667,-88
2021-10-14 15:45:03.803676,-91
2021-10-14 15:45:03.803684,-81
2021-10-14 15:45:03.803692,-79
2021-10-14 15:45:03.803701,-86
2021-10-14 15:45:03.803710,-81
2021-10-14 15:45:03.803718,-76
2021-10-14 15:45:03.803726,-76
2021-10-14 15:45:03.803735,-79
2021-10-14 15:45:03.984152,-79
2021-10-14 15:45:03.984173,-84
2021-10-14 15:45:03.984182,-84
2021-10-14 15:45:03.984191,-79
2021-10-14 15:45:03.984199,-72
2021-10-14 15:45:03.984208,-67
2021-10-14 15:45:03.984216,-62
2021-10-14 15:45:03.984225,-64
2021-10-14 15:45:03.984233,-74
2021-10-14 15:45:03.984242,-74
2021-10-14 15:45:03.984250,-64
2021-10-14 15:45:03.984258,-60
2021-10-14 15:45:03.984267,-64
2021-10-14 15:45:03.984275,-64
2021-10-14 15:45:03.984283,-57
2021-10-14 15:45:03.984292,-45
2021-10-14 15:45:03.984300,-31
2021-10-14 15:45:03.984308,-21
2021-10-14 15:45:03.984317,-36
2021-10-14 15:45:03.984325,-72
2021-10-14 15:45:03.984333,-81
2021-10-14 15:45:03.984342,-62
2021-10-14 15:45:03.984350,-55
2021-10-14 15:45:03.984358,-60
2021-10-14 15:45:03.984366,-55
2021-10-14 15:45:03.984375,-45
2021-10-14 15:45:03.984383,-40
2021-10-14 15:45:03.984391,-33
2021-10-14 15:45:03.984400,-21
2021-10-14 15:45:03.984408,12
2021-10-14 15:45:04.209413,153
2021-10-14 15:45:04.209434,512
2021-10-14 15:45:04.209443,820
2021-10-14 15:45:04.209452,399
2021-10-14 15:45:04.209460,-680
2021-10-14 15:45:04.209469,-1207
2021-10-14 15:45:04.209477,-714
2021-10-14 15:45:04.209486,-223
2021-10-14 15:45:04.209494,-151
2021-10-14 15:45:04.209502,-40
2021-10-14 15:45:04.209510,88
2021-10-14 15:45:04.209519,64
2021-10-14 15:45:04.209527,38
2021-10-14 15:45:04.209535,74
2021-10-14 15:45:04.209544,86
2021-10-14 15:45:04.209552,79
2021-10-14 15:45:04.209560,84
2021-10-14 15:45:04.209569,88
2021-10-14 15:45:04.209584,86
2021-10-14 15:45:04.209593,91
2021-10-14 15:45:04.209601,105
2021-10-14 15:45:04.209610,115
2021-10-14 15:45:04.209618,120
2021-10-14 15:45:04.209626,127
2021-10-14 15:45:04.209634,139
2021-10-14 15:45:04.209643,151
2021-10-14 15:45:04.209651,156
2021-10-14 15:45:04.209659,163
2021-10-14 15:45:04.209668,180
2021-10-14 15:45:04.209676,189
2021-10-14 15:45:04.434427,187
2021-10-14 15:45:04.434449,173
2021-10-14 15:45:04.434459,156
2021-10-14 15:45:04.434468,132
2021-10-14 15:45:04.434476,105
2021-10-14 15:45:04.434485,76
2021-10-14 15:45:04.434493,43
2021-10-14 15:45:04.434502,16
2021-10-14 15:45:04.434510,-2
2021-10-14 15:45:04.434519,-26
2021-10-14 15:45:04.434527,-50
2021-10-14 15:45:04.434535,-64
2021-10-14 15:45:04.434544,-72
2021-10-14 15:45:04.434552,-88
2021-10-14 15:45:04.434560,-108
2021-10-14 15:45:04.434569,-105
2021-10-14 15:45:04.434577,-98
2021-10-14 15:45:04.434585,-110
2021-10-14 15:45:04.434594,-120
2021-10-14 15:45:04.434602,-101
2021-10-14 15:45:04.434610,-88
2021-10-14 15:45:04.434619,-88
2021-10-14 15:45:04.434627,-86
2021-10-14 15:45:04.434635,-79
2021-10-14 15:45:04.434644,-69
2021-10-14 15:45:04.434652,-52
2021-10-14 15:45:04.434660,-50
2021-10-14 15:45:04.434669,-52
2021-10-14 15:45:04.434677,-48
2021-10-14 15:45:04.434685,-43
2021-10-14 15:45:04.614771,-40
2021-10-14 15:45:04.614794,-33
2021-10-14 15:45:04.614803,-28
2021-10-14 15:45:04.614812,-38
2021-10-14 15:45:04.614820,-50
2021-10-14 15:45:04.614829,-62
2021-10-14 15:45:04.614837,-67
2021-10-14 15:45:04.614846,-57
2021-10-14 15:45:04.614854,-62
2021-10-14 15:45:04.614862,-76
2021-10-14 15:45:04.614871,-76
2021-10-14 15:45:04.614879,-76
2021-10-14 15:45:04.614887,-79
2021-10-14 15:45:04.614896,-76
2021-10-14 15:45:04.614904,-69
2021-10-14 15:45:04.614912,-69
2021-10-14 15:45:04.614921,-76
2021-10-14 15:45:04.614929,-81
2021-10-14 15:45:04.614937,-74
2021-10-14 15:45:04.614946,-72
2021-10-14 15:45:04.614954,-76
2021-10-14 15:45:04.614962,-72
2021-10-14 15:45:04.614971,-62
2021-10-14 15:45:04.614979,-60
2021-10-14 15:45:04.614987,-60
2021-10-14 15:45:04.614995,-48
2021-10-14 15:45:04.615003,-40
2021-10-14 15:45:04.615012,-36
2021-10-14 15:45:04.615020,-24
2021-10-14 15:45:04.615028,-21
2021-10-14 15:45:04.839419,-40
2021-10-14 15:45:04.839441,-55
2021-10-14 15:45:04.839451,-55
2021-10-14 15:45:04.839460,-60
2021-10-14 15:45:04.839468,-62
2021-10-14 15:45:04.839477,-57
2021-10-14 15:45:04.839485,-55
2021-10-14 15:45:04.839493,-60
2021-10-14 15:45:04.839501,-52
2021-10-14 15:45:04.839510,-45
2021-10-14 15:45:04.839518,-48
2021-10-14 15:45:04.839526,-4
2021-10-14 15:45:04.839535,182
2021-10-14 15:45:04.839543,565
2021-10-14 15:45:04.839552,793
2021-10-14 15:45:04.839560,245
2021-10-14 15:45:04.839569,-834
2021-10-14 15:45:04.839577,-1212
2021-10-14 15:45:04.839585,-639
2021-10-14 15:45:04.839593,-192
2021-10-14 15:45:04.839602,-146
2021-10-14 15:45:04.839610,-28
2021-10-14 15:45:04.839619,81
2021-10-14 15:45:04.839627,48
2021-10-14 15:45:04.839635,40
2021-10-14 15:45:04.839644,84
2021-10-14 15:45:04.839652,86
2021-10-14 15:45:04.839661,72
2021-10-14 15:45:04.839669,81
2021-10-14 15:45:04.839677,96
2021-10-14 15:45:05.064629,101
2021-10-14 15:45:05.064652,105
2021-10-14 15:45:05.064661,113
2021-10-14 15:45:05.064670,105
2021-10-14 15:45:05.064678,103
2021-10-14 15:45:05.064687,122
2021-10-14 15:45:05.064695,144
2021-10-14 15:45:05.064704,149
2021-10-14 15:45:05.064712,149
2021-10-14 15:45:05.064720,151
2021-10-14 15:45:05.064729,163
2021-10-14 15:45:05.064737,180
2021-10-14 15:45:05.064745,187
2021-10-14 15:45:05.064754,175
2021-10-14 15:45:05.064762,163
2021-10-14 15:45:05.064771,149
2021-10-14 15:45:05.064779,120
2021-10-14 15:45:05.064787,91
2021-10-14 15:45:05.064795,64
2021-10-14 15:45:05.064803,36
2021-10-14 15:45:05.064812,7
2021-10-14 15:45:05.064820,-24
2021-10-14 15:45:05.064829,-45
2021-10-14 15:45:05.064851,-60
2021-10-14 15:45:05.064860,-67
2021-10-14 15:45:05.064868,-67
2021-10-14 15:45:05.064877,-74
2021-10-14 15:45:05.064885,-88
2021-10-14 15:45:05.064894,-86
2021-10-14 15:45:05.064902,-74
2021-10-14 15:45:05.334447,-67
2021-10-14 15:45:05.334469,-67
2021-10-14 15:45:05.334479,-67
2021-10-14 15:45:05.334487,-74
2021-10-14 15:45:05.334496,-69
2021-10-14 15:45:05.334504,-55
2021-10-14 15:45:05.334512,-48
2021-10-14 15:45:05.334521,-38
2021-10-14 15:45:05.334529,-36
2021-10-14 15:45:05.334538,-40
2021-10-14 15:45:05.334546,-43
2021-10-14 15:45:05.334555,-40
2021-10-14 15:45:05.334563,-36
2021-10-14 15:45:05.334571,-28
2021-10-14 15:45:05.334579,-28
2021-10-14 15:45:05.334588,-33
2021-10-14 15:45:05.334596,-28
2021-10-14 15:45:05.334605,-21
2021-10-14 15:45:05.334613,-16
2021-10-14 15:45:05.334621,-19
2021-10-14 15:45:05.334630,-24
2021-10-14 15:45:05.334638,-26
2021-10-14 15:45:05.334646,-24
2021-10-14 15:45:05.334655,-28
2021-10-14 15:45:05.334663,-38
2021-10-14 15:45:05.334671,-48
2021-10-14 15:45:05.334680,-50
2021-10-14 15:45:05.334688,-55
2021-10-14 15:45:05.334696,-57
2021-10-14 15:45:05.334705,-52
2021-10-14 15:45:05.604318,-50
2021-10-14 15:45:05.604346,-52
2021-10-14 15:45:05.604356,-57
2021-10-14 15:45:05.604364,-62
2021-10-14 15:45:05.604373,-55
2021-10-14 15:45:05.604382,-45
2021-10-14 15:45:05.604390,-48
2021-10-14 15:45:05.604398,-55
2021-10-14 15:45:05.604407,-57
2021-10-14 15:45:05.604415,-45
2021-10-14 15:45:05.604423,-28
2021-10-14 15:45:05.604432,-14
2021-10-14 15:45:05.604440,-28
2021-10-14 15:45:05.604448,-64
2021-10-14 15:45:05.604456,-84
2021-10-14 15:45:05.604465,-76
2021-10-14 15:45:05.604473,-69
2021-10-14 15:45:05.604481,-67
2021-10-14 15:45:05.604489,-62
2021-10-14 15:45:05.604498,-62
2021-10-14 15:45:05.604506,-62
2021-10-14 15:45:05.604514,-52
2021-10-14 15:45:05.604522,-45
2021-10-14 15:45:05.604531,-31
2021-10-14 15:45:05.604539,24
2021-10-14 15:45:05.604547,209
2021-10-14 15:45:05.604555,589
2021-10-14 15:45:05.604564,783
2021-10-14 15:45:05.604572,175
2021-10-14 15:45:05.604580,-909
2021-10-14 15:45:05.874074,-1214
2021-10-14 15:45:05.874096,-589
2021-10-14 15:45:05.874105,-141
2021-10-14 15:45:05.874114,-103
2021-10-14 15:45:05.874122,14
2021-10-14 15:45:05.874131,117
2021-10-14 15:45:05.874139,79
2021-10-14 15:45:05.874147,69
2021-10-14 15:45:05.874156,101
2021-10-14 15:45:05.874165,96
2021-10-14 15:45:05.874174,96
2021-10-14 15:45:05.874182,113
2021-10-14 15:45:05.874190,113
2021-10-14 15:45:05.874199,101
2021-10-14 15:45:05.874207,96
2021-10-14 15:45:05.874215,98
2021-10-14 15:45:05.874224,110
2021-10-14 15:45:05.874232,120
2021-10-14 15:45:05.874240,120
2021-10-14 15:45:05.874249,127
2021-10-14 15:45:05.874257,144
2021-10-14 15:45:05.874265,153
2021-10-14 15:45:05.874274,161
2021-10-14 15:45:05.874282,177
2021-10-14 15:45:05.874290,189
2021-10-14 15:45:05.874298,185
2021-10-14 15:45:05.874307,180
2021-10-14 15:45:05.874315,170
2021-10-14 15:45:05.874324,149
2021-10-14 15:45:05.874332,117
2021-10-14 15:45:06.009384,76
2021-10-14 15:45:06.009404,38
2021-10-14 15:45:06.009414,12
2021-10-14 15:45:06.009423,-14
2021-10-14 15:45:06.009431,-36
2021-10-14 15:45:06.009440,-45
2021-10-14 15:45:06.009448,-67
2021-10-14 15:45:06.009456,-93
2021-10-14 15:45:06.009465,-101
2021-10-14 15:45:06.009473,-96
2021-10-14 15:45:06.009481,-96
2021-10-14 15:45:06.009490,-96
2021-10-14 15:45:06.009498,-98
2021-10-14 15:45:06.009506,-101
2021-10-14 15:45:06.009515,-93
2021-10-14 15:45:06.009523,-91
2021-10-14 15:45:06.009532,-93
2021-10-14 15:45:06.009540,-88
2021-10-14 15:45:06.009548,-84
2021-10-14 15:45:06.009557,-76
2021-10-14 15:45:06.009565,-69
2021-10-14 15:45:06.009574,-64
2021-10-14 15:45:06.009582,-60
2021-10-14 15:45:06.009590,-50
2021-10-14 15:45:06.009598,-50
2021-10-14 15:45:06.009607,-52
2021-10-14 15:45:06.009615,-45
2021-10-14 15:45:06.009623,-40
2021-10-14 15:45:06.009640,-36
2021-10-14 15:45:06.009648,-31
2021-10-14 15:45:06.279451,-36
2021-10-14 15:45:06.279473,-40
2021-10-14 15:45:06.279482,-38
2021-10-14 15:45:06.279491,-33
2021-10-14 15:45:06.279499,-33
2021-10-14 15:45:06.279508,-38
2021-10-14 15:45:06.279516,-48
2021-10-14 15:45:06.279524,-48
2021-10-14 15:45:06.279533,-38
2021-10-14 15:45:06.279541,-36
2021-10-14 15:45:06.279549,-40
2021-10-14 15:45:06.279558,-43
2021-10-14 15:45:06.279566,-50
2021-10-14 15:45:06.279574,-52
2021-10-14 15:45:06.279582,-45
2021-10-14 15:45:06.279591,-43
2021-10-14 15:45:06.279599,-45
2021-10-14 15:45:06.279608,-43
2021-10-14 15:45:06.279616,-50
2021-10-14 15:45:06.279624,-57
2021-10-14 15:45:06.279633,-52
2021-10-14 15:45:06.279641,-52
2021-10-14 15:45:06.279649,-64
2021-10-14 15:45:06.279657,-67
2021-10-14 15:45:06.279666,-64
2021-10-14 15:45:06.279674,-57
2021-10-14 15:45:06.279682,-43
2021-10-14 15:45:06.279690,-28
2021-10-14 15:45:06.279699,-33
2021-10-14 15:45:06.279707,-55
2021-10-14 15:45:06.459776,-64
2021-10-14 15:45:06.459807,-62
2021-10-14 15:45:06.459816,-64
2021-10-14 15:45:06.459824,-64
2021-10-14 15:45:06.459833,-60
2021-10-14 15:45:06.459841,-64
2021-10-14 15:45:06.459850,-69
2021-10-14 15:45:06.459858,-64
2021-10-14 15:45:06.459866,-55
2021-10-14 15:45:06.459874,-45
2021-10-14 15:45:06.459883,-7
2021-10-14 15:45:06.459891,103
2021-10-14 15:45:06.459899,418
2021-10-14 15:45:06.459907,755
2021-10-14 15:45:06.459916,452
2021-10-14 15:45:06.459924,-601
2021-10-14 15:45:06.459932,-1281
2021-10-14 15:45:06.459940,-853
2021-10-14 15:45:06.459949,-238
2021-10-14 15:45:06.459957,-115
2021-10-14 15:45:06.459965,-55
2021-10-14 15:45:06.459973,62
2021-10-14 15:45:06.459982,57
2021-10-14 15:45:06.459990,38
2021-10-14 15:45:06.459998,72
2021-10-14 15:45:06.460007,79
2021-10-14 15:45:06.460015,74
2021-10-14 15:45:06.460023,91
2021-10-14 15:45:06.460031,93
2021-10-14 15:45:06.460040,91
2021-10-14 15:45:06.684364,105
2021-10-14 15:45:06.684385,115
2021-10-14 15:45:06.684394,115
2021-10-14 15:45:06.684403,122
2021-10-14 15:45:06.684411,129
2021-10-14 15:45:06.684420,129
2021-10-14 15:45:06.684428,146
2021-10-14 15:45:06.684436,175
2021-10-14 15:45:06.684445,185
2021-10-14 15:45:06.684453,180
2021-10-14 15:45:06.684461,187
2021-10-14 15:45:06.684469,189
2021-10-14 15:45:06.684478,187
2021-10-14 15:45:06.684486,182
2021-10-14 15:45:06.684494,165
2021-10-14 15:45:06.684503,134
2021-10-14 15:45:06.684511,108
2021-10-14 15:45:06.684519,84
2021-10-14 15:45:06.684528,52
2021-10-14 15:45:06.684536,16
2021-10-14 15:45:06.684545,-14
2021-10-14 15:45:06.684553,-33
2021-10-14 15:45:06.684561,-48
2021-10-14 15:45:06.684570,-67
2021-10-14 15:45:06.684578,-79
2021-10-14 15:45:06.684586,-76
2021-10-14 15:45:06.684594,-84
2021-10-14 15:45:06.684603,-96
2021-10-14 15:45:06.684611,-93
2021-10-14 15:45:06.684619,-81
2021-10-14 15:45:06.909811,-81
2021-10-14 15:45:06.909833,-79
2021-10-14 15:45:06.909843,-69
2021-10-14 15:45:06.909851,-72
2021-10-14 15:45:06.909860,-81
2021-10-14 15:45:06.909868,-72
2021-10-14 15:45:06.909876,-52
2021-10-14 15:45:06.909885,-45
2021-10-14 15:45:06.909893,-50
2021-10-14 15:45:06.909902,-60
2021-10-14 15:45:06.909910,-64
2021-10-14 15:45:06.909918,-67
2021-10-14 15:45:06.909927,-74
2021-10-14 15:45:06.909935,-72
2021-10-14 15:45:06.909943,-60
2021-10-14 15:45:06.909952,-60
2021-10-14 15:45:06.909960,-62
2021-10-14 15:45:06.909968,-55
2021-10-14 15:45:06.909976,-52
2021-10-14 15:45:06.909985,-55
2021-10-14 15:45:06.909993,-55
2021-10-14 15:45:06.910001,-60
2021-10-14 15:45:06.910010,-62
2021-10-14 15:45:06.910018,-55
2021-10-14 15:45:06.910026,-50
2021-10-14 15:45:06.910034,-67
2021-10-14 15:45:06.910043,-88
2021-10-14 15:45:06.910059,-96
2021-10-14 15:45:06.910068,-88
2021-10-14 15:45:06.910076,-79
2021-10-14 15:45:07.179459,-84
2021-10-14 15:45:07.179480,-88
2021-10-14 15:45:07.179489,-98
2021-10-14 15:45:07.179498,-115
2021-10-14 15:45:07.179506,-110
2021-10-14 15:45:07.179514,-96
2021-10-14 15:45:07.179523,-108
2021-10-14 15:45:07.179531,-115
2021-10-14 15:45:07.179539,-103
2021-10-14 15:45:07.179548,-101
2021-10-14 15:45:07.179556,-103
2021-10-14 15:45:07.179564,-103
2021-10-14 15:45:07.179573,-108
2021-10-14 15:45:07.179581,-98
2021-10-14 15:45:07.179589,-110
2021-10-14 15:45:07.179598,-144
2021-10-14 15:45:07.179606,-149
2021-10-14 15:45:07.179614,-134
2021-10-14 15:45:07.179622,-134
2021-10-14 15:45:07.179631,-134
2021-10-14 15:45:07.179639,-134
2021-10-14 15:45:07.179647,-137
2021-10-14 15:45:07.179655,-127
2021-10-14 15:45:07.179664,-108
2021-10-14 15:45:07.179672,-96
2021-10-14 15:45:07.179680,-86
2021-10-14 15:45:07.179688,-19
2021-10-14 15:45:07.179697,221
2021-10-14 15:45:07.179705,562
2021-10-14 15:45:07.179713,488
2021-10-14 15:45:07.493828,-346
2021-10-14 15:45:07.493849,-1111
2021-10-14 15:45:07.493859,-937
2021-10-14 15:45:07.493867,-437
2021-10-14 15:45:07.493876,-259
2021-10-14 15:45:07.493884,-144
2021-10-14 15:45:07.493893,2
2021-10-14 15:45:07.493901,26
2021-10-14 15:45:07.493910,0
2021-10-14 15:45:07.493918,21
2021-10-14 15:45:07.493927,45
2021-10-14 15:45:07.493935,52
2021-10-14 15:45:07.493942,64
2021-10-14 15:45:07.493950,67
2021-10-14 15:45:07.494141,57
2021-10-14 15:45:07.494151,55
2021-10-14 15:45:07.494156,57
2021-10-14 15:45:07.494160,52
2021-10-14 15:45:07.494165,57
2021-10-14 15:45:07.494169,64
2021-10-14 15:45:07.494174,57
2021-10-14 15:45:07.494178,64
2021-10-14 15:45:07.494182,101
2021-10-14 15:45:07.494187,117
2021-10-14 15:45:07.494191,113
2021-10-14 15:45:07.494196,117
2021-10-14 15:45:07.494200,122
2021-10-14 15:45:07.494204,120
2021-10-14 15:45:07.494209,108
2021-10-14 15:45:07.494213,84
2021-10-14 15:45:07.629807,55
2021-10-14 15:45:07.629828,31
2021-10-14 15:45:07.629837,-2
2021-10-14 15:45:07.629845,-33
2021-10-14 15:45:07.629852,-52
2021-10-14 15:45:07.629860,-64
2021-10-14 15:45:07.629868,-76
2021-10-14 15:45:07.629875,-93
2021-10-14 15:45:07.629883,-117
2021-10-14 15:45:07.629891,-132
2021-10-14 15:45:07.629898,-132
2021-10-14 15:45:07.629906,-137
2021-10-14 15:45:07.629914,-141
2021-10-14 15:45:07.629921,-144
2021-10-14 15:45:07.629929,-146
2021-10-14 15:45:07.629937,-139
2021-10-14 15:45:07.629944,-120
2021-10-14 15:45:07.629952,-98
2021-10-14 15:45:07.629959,-84
2021-10-14 15:45:07.629967,-86
2021-10-14 15:45:07.629975,-96
2021-10-14 15:45:07.629982,-105
2021-10-14 15:45:07.629990,-98
2021-10-14 15:45:07.629998,-74
2021-10-14 15:45:07.630006,-57
2021-10-14 15:45:07.630013,-64
2021-10-14 15:45:07.630021,-67
2021-10-14 15:45:07.630029,-64
2021-10-14 15:45:07.630037,-76
2021-10-14 15:45:07.630044,-88
2021-10-14 15:45:07.898486,-86
2021-10-14 15:45:07.898507,-81
2021-10-14 15:45:07.898516,-81
2021-10-14 15:45:07.898524,-76
2021-10-14 15:45:07.898532,-72
2021-10-14 15:45:07.898540,-69
2021-10-14 15:45:07.898548,-79
2021-10-14 15:45:07.898556,-91
2021-10-14 15:45:07.898563,-93
2021-10-14 15:45:07.898571,-84
2021-10-14 15:45:07.898579,-76
2021-10-14 15:45:07.898586,-79
2021-10-14 15:45:07.898594,-93
2021-10-14 15:45:07.898602,-110
2021-10-14 15:45:07.898610,-108
2021-10-14 15:45:07.898618,-108
2021-10-14 15:45:07.898625,-113
2021-10-14 15:45:07.898633,-105
2021-10-14 15:45:07.898641,-103
2021-10-14 15:45:07.898649,-108
2021-10-14 15:45:07.898657,-103
2021-10-14 15:45:07.898664,-105
2021-10-14 15:45:07.898672,-110
2021-10-14 15:45:07.898680,-108
2021-10-14 15:45:07.898691,-108
2021-10-14 15:45:07.898700,-103
2021-10-14 15:45:07.898707,-88
2021-10-14 15:45:07.898715,-91
2021-10-14 15:45:07.898722,-115
2021-10-14 15:45:07.898730,-132
2021-10-14 15:45:08.169459,-127
2021-10-14 15:45:08.169482,-117
2021-10-14 15:45:08.169492,-117
2021-10-14 15:45:08.169501,-132
2021-10-14 15:45:08.169509,-137
2021-10-14 15:45:08.169517,-132
2021-10-14 15:45:08.169525,-132
2021-10-14 15:45:08.169533,-127
2021-10-14 15:45:08.169548,-110
2021-10-14 15:45:08.169557,-69
2021-10-14 15:45:08.169564,98
2021-10-14 15:45:08.169571,444
2021-10-14 15:45:08.169579,615
2021-10-14 15:45:08.169587,67
2021-10-14 15:45:08.169594,-865
2021-10-14 15:45:08.169602,-1082
2021-10-14 15:45:08.169610,-579
2021-10-14 15:45:08.169618,-259
2021-10-14 15:45:08.169625,-189
2021-10-14 15:45:08.169633,-43
2021-10-14 15:45:08.169641,38
2021-10-14 15:45:08.169648,7
2021-10-14 15:45:08.169657,16
2021-10-14 15:45:08.169665,48
2021-10-14 15:45:08.169673,36
2021-10-14 15:45:08.169681,38
2021-10-14 15:45:08.169689,62
2021-10-14 15:45:08.169696,67
2021-10-14 15:45:08.169703,67
2021-10-14 15:45:08.169711,81
2021-10-14 15:45:08.304799,96
2021-10-14 15:45:08.304820,105
2021-10-14 15:45:08.304830,120
2021-10-14 15:45:08.304838,137
2021-10-14 15:45:08.304847,156
2021-10-14 15:45:08.304855,170
2021-10-14 15:45:08.304863,182
2021-10-14 15:45:08.304872,192
2021-10-14 15:45:08.304880,197
2021-10-14 15:45:08.304888,202
2021-10-14 15:45:08.304896,204
2021-10-14 15:45:08.304905,192
2021-10-14 15:45:08.304913,177
2021-10-14 15:45:08.304921,158
2021-10-14 15:45:08.304929,132
2021-10-14 15:45:08.304938,105
2021-10-14 15:45:08.304946,74
2021-10-14 15:45:08.304954,36
2021-10-14 15:45:08.304962,16
2021-10-14 15:45:08.304971,12
2021-10-14 15:45:08.304979,2
2021-10-14 15:45:08.304987,-12
2021-10-14 15:45:08.304995,-28
2021-10-14 15:45:08.305004,-38
2021-10-14 15:45:08.305012,-36
2021-10-14 15:45:08.305020,-31
2021-10-14 15:45:08.305028,-26
2021-10-14 15:45:08.305036,-33
2021-10-14 15:45:08.305045,-38
2021-10-14 15:45:08.305053,-38
2021-10-14 15:45:08.618927,-28
2021-10-14 15:45:08.618948,-12
2021-10-14 15:45:08.618958,0
2021-10-14 15:45:08.618967,-2
2021-10-14 15:45:08.618975,-16
2021-10-14 15:45:08.618983,-19
2021-10-14 15:45:08.618992,0
2021-10-14 15:45:08.619000,2
2021-10-14 15:45:08.619008,-7
2021-10-14 15:45:08.619017,0
2021-10-14 15:45:08.619025,0
2021-10-14 15:45:08.619033,-4
2021-10-14 15:45:08.619041,2
2021-10-14 15:45:08.619049,7
2021-10-14 15:45:08.619058,4
2021-10-14 15:45:08.619066,2
2021-10-14 15:45:08.619074,7
2021-10-14 15:45:08.619082,12
2021-10-14 15:45:08.619091,19
2021-10-14 15:45:08.619099,24
2021-10-14 15:45:08.619107,28
2021-10-14 15:45:08.619116,24
2021-10-14 15:45:08.619124,24
2021-10-14 15:45:08.619132,31
2021-10-14 15:45:08.619140,33
2021-10-14 15:45:08.619149,33
2021-10-14 15:45:08.619157,33
2021-10-14 15:45:08.619165,33
2021-10-14 15:45:08.619174,33
2021-10-14 15:45:08.619182,36
2021-10-14 15:45:08.889225,36
2021-10-14 15:45:08.889246,38
2021-10-14 15:45:08.889256,38
2021-10-14 15:45:08.889265,26
2021-10-14 15:45:08.889273,19
2021-10-14 15:45:08.889282,33
2021-10-14 15:45:08.889290,55
2021-10-14 15:45:08.889299,57
2021-10-14 15:45:08.889307,57
2021-10-14 15:45:08.889315,64
2021-10-14 15:45:08.889324,57
2021-10-14 15:45:08.889332,33
2021-10-14 15:45:08.889341,26
2021-10-14 15:45:08.889350,36
2021-10-14 15:45:08.889359,38
2021-10-14 15:45:08.889367,33
2021-10-14 15:45:08.889376,38
2021-10-14 15:45:08.889384,40
2021-10-14 15:45:08.889393,38
2021-10-14 15:45:08.889401,45
2021-10-14 15:45:08.889409,52
2021-10-14 15:45:08.889418,57
2021-10-14 15:45:08.889426,105
2021-10-14 15:45:08.889434,300
2021-10-14 15:45:08.889443,642
2021-10-14 15:45:08.889451,757
2021-10-14 15:45:08.889459,139
2021-10-14 15:45:08.889468,-764
2021-10-14 15:45:08.889476,-877
2021-10-14 15:45:08.889484,-358
2021-10-14 15:45:09.024795,-81
2021-10-14 15:45:09.024817,-16
2021-10-14 15:45:09.024826,110
2021-10-14 15:45:09.024834,156
2021-10-14 15:45:09.024843,120
2021-10-14 15:45:09.024851,127
2021-10-14 15:45:09.024859,151
2021-10-14 15:45:09.024868,151
2021-10-14 15:45:09.024876,149
2021-10-14 15:45:09.024884,144
2021-10-14 15:45:09.024893,144
2021-10-14 15:45:09.024901,153
2021-10-14 15:45:09.024909,161
2021-10-14 15:45:09.024918,163
2021-10-14 15:45:09.024926,168
2021-10-14 15:45:09.024935,173
2021-10-14 15:45:09.024943,185
2021-10-14 15:45:09.024952,202
2021-10-14 15:45:09.024960,214
2021-10-14 15:45:09.024968,226
2021-10-14 15:45:09.024976,228
2021-10-14 15:45:09.024985,221
2021-10-14 15:45:09.024993,221
2021-10-14 15:45:09.025001,221
2021-10-14 15:45:09.025010,214
2021-10-14 15:45:09.025036,199
2021-10-14 15:45:09.025044,177
2021-10-14 15:45:09.025053,146
2021-10-14 15:45:09.025061,122
2021-10-14 15:45:09.025069,103
2021-10-14 15:45:09.294017,81
2021-10-14 15:45:09.294039,60
2021-10-14 15:45:09.294049,38
2021-10-14 15:45:09.294058,16
2021-10-14 15:45:09.294066,9
2021-10-14 15:45:09.294075,7
2021-10-14 15:45:09.294084,0
2021-10-14 15:45:09.294092,-4
2021-10-14 15:45:09.294101,-9
2021-10-14 15:45:09.294109,-16
2021-10-14 15:45:09.294118,-12
2021-10-14 15:45:09.294170,0
2021-10-14 15:45:09.294178,2
2021-10-14 15:45:09.294184,-7
2021-10-14 15:45:09.294188,-19
2021-10-14 15:45:09.294192,-12
2021-10-14 15:45:09.294197,2
2021-10-14 15:45:09.294201,7
2021-10-14 15:45:09.294205,12
2021-10-14 15:45:09.294209,24
2021-10-14 15:45:09.294214,24
2021-10-14 15:45:09.294218,24
2021-10-14 15:45:09.294222,33
2021-10-14 15:45:09.294226,40
2021-10-14 15:45:09.294231,43
2021-10-14 15:45:09.294235,40
2021-10-14 15:45:09.294239,38
2021-10-14 15:45:09.294243,31
2021-10-14 15:45:09.294248,31
2021-10-14 15:45:09.294252,33
2021-10-14 15:45:09.474842,31
2021-10-14 15:45:09.474865,28
2021-10-14 15:45:09.474875,31
2021-10-14 15:45:09.474883,28
2021-10-14 15:45:09.474892,33
2021-10-14 15:45:09.474900,38
2021-10-14 15:45:09.474909,36
2021-10-14 15:45:09.474917,24
2021-10-14 15:45:09.474952,9
2021-10-14 15:45:09.474960,7
2021-10-14 15:45:09.474969,7
2021-10-14 15:45:09.474978,0
2021-10-14 15:45:09.474986,-9
2021-10-14 15:45:09.474994,-19
2021-10-14 15:45:09.475003,-28
2021-10-14 15:45:09.475011,-33
2021-10-14 15:45:09.475020,-40
2021-10-14 15:45:09.475028,-43
2021-10-14 15:45:09.475036,-38
2021-10-14 15:45:09.475045,-36
2021-10-14 15:45:09.475053,-33
2021-10-14 15:45:09.475062,-28
2021-10-14 15:45:09.475070,-24
2021-10-14 15:45:09.475078,-12
2021-10-14 15:45:09.475086,2
2021-10-14 15:45:09.475095,0
2021-10-14 15:45:09.475103,-4
2021-10-14 15:45:09.475111,9
2021-10-14 15:45:09.475120,12
2021-10-14 15:45:09.475128,-7
2021-10-14 15:45:09.789815,-19
2021-10-14 15:45:09.789836,-21
2021-10-14 15:45:09.789846,-21
2021-10-14 15:45:09.789854,-19
2021-10-14 15:45:09.789863,-16
2021-10-14 15:45:09.789871,-14
2021-10-14 15:45:09.789879,-19
2021-10-14 15:45:09.789887,-28
2021-10-14 15:45:09.789896,-21
2021-10-14 15:45:09.789904,-4
2021-10-14 15:45:09.789912,21
2021-10-14 15:45:09.789921,134
2021-10-14 15:45:09.789929,418
2021-10-14 15:45:09.789938,687
2021-10-14 15:45:09.789946,428
2021-10-14 15:45:09.789954,-444
2021-10-14 15:45:09.789963,-988
2021-10-14 15:45:09.789971,-658
2021-10-14 15:45:09.789980,-245
2021-10-14 15:45:09.789988,-146
2021-10-14 15:45:09.789996,-31
2021-10-14 15:45:09.790005,79
2021-10-14 15:45:09.790013,67
2021-10-14 15:45:09.790021,64
2021-10-14 15:45:09.790030,96
2021-10-14 15:45:09.790038,91
2021-10-14 15:45:09.790047,86
2021-10-14 15:45:09.790055,105
2021-10-14 15:45:09.790063,108
2021-10-14 15:45:09.790072,105
2021-10-14 15:45:10.013477,113
2021-10-14 15:45:10.013506,117
2021-10-14 15:45:10.013516,122
2021-10-14 15:45:10.013524,129
2021-10-14 15:45:10.013533,139
2021-10-14 15:45:10.013541,149
2021-10-14 15:45:10.013549,156
2021-10-14 15:45:10.013558,163
2021-10-14 15:45:10.013566,165
2021-10-14 15:45:10.013574,173
2021-10-14 15:45:10.013582,185
2021-10-14 15:45:10.013591,187
2021-10-14 15:45:10.013599,175
2021-10-14 15:45:10.013608,161
2021-10-14 15:45:10.013616,144
2021-10-14 15:45:10.013624,117
2021-10-14 15:45:10.013632,91
2021-10-14 15:45:10.013641,50
2021-10-14 15:45:10.013649,16
2021-10-14 15:45:10.013657,0
2021-10-14 15:45:10.013666,-28
2021-10-14 15:45:10.013674,-55
2021-10-14 15:45:10.013682,-60
2021-10-14 15:45:10.013691,-72
2021-10-14 15:45:10.013699,-91
2021-10-14 15:45:10.013714,-88
2021-10-14 15:45:10.013722,-84
2021-10-14 15:45:10.013731,-91
2021-10-14 15:45:10.013739,-91
2021-10-14 15:45:10.013748,-86
2021-10-14 15:45:10.149461,-84
2021-10-14 15:45:10.149482,-76
2021-10-14 15:45:10.149491,-72
2021-10-14 15:45:10.149500,-67
2021-10-14 15:45:10.149508,-64
2021-10-14 15:45:10.149517,-67
2021-10-14 15:45:10.149525,-67
2021-10-14 15:45:10.149533,-45
2021-10-14 15:45:10.149542,-36
2021-10-14 15:45:10.149550,-38
2021-10-14 15:45:10.149558,-28
2021-10-14 15:45:10.149566,-24
2021-10-14 15:45:10.149575,-33
2021-10-14 15:45:10.149583,-31
2021-10-14 15:45:10.149591,-14
2021-10-14 15:45:10.149599,-9
2021-10-14 15:45:10.149608,-21
2021-10-14 15:45:10.149616,-19
2021-10-14 15:45:10.149624,0
2021-10-14 15:45:10.149632,2
2021-10-14 15:45:10.149640,-4
2021-10-14 15:45:10.149649,-2
2021-10-14 15:45:10.149657,-14
2021-10-14 15:45:10.149665,-28
2021-10-14 15:45:10.149673,-26
2021-10-14 15:45:10.149681,-16
2021-10-14 15:45:10.149690,-16
2021-10-14 15:45:10.149698,-21
2021-10-14 15:45:10.149706,-19
2021-10-14 15:45:10.149714,-21
2021-10-14 15:45:10.419444,-28
2021-10-14 15:45:10.419465,-38
2021-10-14 15:45:10.419474,-45
2021-10-14 15:45:10.419483,-40
2021-10-14 15:45:10.419491,-40
2021-10-14 15:45:10.419500,-48
2021-10-14 15:45:10.419508,-48
2021-10-14 15:45:10.419517,-31
2021-10-14 15:45:10.419525,-19
2021-10-14 15:45:10.419533,-26
2021-10-14 15:45:10.419542,-28
2021-10-14 15:45:10.419550,-26
2021-10-14 15:45:10.419558,-45
2021-10-14 15:45:10.419567,-62
2021-10-14 15:45:10.419575,-69
2021-10-14 15:45:10.419583,-76
2021-10-14 15:45:10.419592,-81
2021-10-14 15:45:10.419600,-76
2021-10-14 15:45:10.419608,-76
2021-10-14 15:45:10.419616,-84
2021-10-14 15:45:10.419625,-81
2021-10-14 15:45:10.419633,-79
2021-10-14 15:45:10.419641,-86
2021-10-14 15:45:10.419650,-88
2021-10-14 15:45:10.419658,-40
2021-10-14 15:45:10.419666,182
2021-10-14 15:45:10.419674,543
2021-10-14 15:45:10.419683,579
2021-10-14 15:45:10.419691,-156
2021-10-14 15:45:10.419699,-1036
2021-10-14 15:45:10.644486,-1019
2021-10-14 15:45:10.644507,-461
2021-10-14 15:45:10.644516,-226
2021-10-14 15:45:10.644524,-153
2021-10-14 15:45:10.644533,-4
2021-10-14 15:45:10.644541,43
2021-10-14 15:45:10.644550,19
2021-10-14 15:45:10.644558,52
2021-10-14 15:45:10.644566,74
2021-10-14 15:45:10.644575,50
2021-10-14 15:45:10.644583,50
2021-10-14 15:45:10.644591,67
2021-10-14 15:45:10.644600,74
2021-10-14 15:45:10.644608,84
2021-10-14 15:45:10.644616,93
2021-10-14 15:45:10.644625,84
2021-10-14 15:45:10.644633,81
2021-10-14 15:45:10.644641,96
2021-10-14 15:45:10.644650,110
2021-10-14 15:45:10.644658,120
2021-10-14 15:45:10.644666,134
2021-10-14 15:45:10.644674,151
2021-10-14 15:45:10.644683,161
2021-10-14 15:45:10.644691,165
2021-10-14 15:45:10.644699,163
2021-10-14 15:45:10.644708,163
2021-10-14 15:45:10.644716,156
2021-10-14 15:45:10.644724,127
2021-10-14 15:45:10.644733,98
2021-10-14 15:45:10.644741,86
2021-10-14 15:45:10.914247,62
2021-10-14 15:45:10.914268,28
2021-10-14 15:45:10.914278,-7
2021-10-14 15:45:10.914286,-45
2021-10-14 15:45:10.914295,-74
2021-10-14 15:45:10.914303,-79
2021-10-14 15:45:10.914311,-81
2021-10-14 15:45:10.914320,-88
2021-10-14 15:45:10.914328,-96
2021-10-14 15:45:10.914336,-103
2021-10-14 15:45:10.914345,-105
2021-10-14 15:45:10.914353,-98
2021-10-14 15:45:10.914361,-98
2021-10-14 15:45:10.914369,-98
2021-10-14 15:45:10.914378,-96
2021-10-14 15:45:10.914386,-101
2021-10-14 15:45:10.914394,-93
2021-10-14 15:45:10.914403,-79
2021-10-14 15:45:10.914411,-72
2021-10-14 15:45:10.914419,-67
2021-10-14 15:45:10.914427,-60
2021-10-14 15:45:10.914436,-60
2021-10-14 15:45:10.914444,-57
2021-10-14 15:45:10.914452,-48
2021-10-14 15:45:10.914460,-40
2021-10-14 15:45:10.914469,-38
2021-10-14 15:45:10.914477,-38
2021-10-14 15:45:10.914485,-43
2021-10-14 15:45:10.914493,-52
2021-10-14 15:45:10.914501,-62
2021-10-14 15:45:11.138853,-67
2021-10-14 15:45:11.138873,-62
2021-10-14 15:45:11.138883,-57
2021-10-14 15:45:11.138891,-62
2021-10-14 15:45:11.138900,-62
2021-10-14 15:45:11.138908,-57
2021-10-14 15:45:11.138916,-55
2021-10-14 15:45:11.138924,-52
2021-10-14 15:45:11.138933,-64
2021-10-14 15:45:11.138941,-76
2021-10-14 15:45:11.138949,-69
2021-10-14 15:45:11.138957,-57
2021-10-14 15:45:11.138965,-60
2021-10-14 15:45:11.138974,-67
2021-10-14 15:45:11.138982,-79
2021-10-14 15:45:11.138990,-84
2021-10-14 15:45:11.138998,-79
2021-10-14 15:45:11.139007,-86
2021-10-14 15:45:11.139023,-88
2021-10-14 15:45:11.139032,-69
2021-10-14 15:45:11.139040,-62
2021-10-14 15:45:11.139048,-74
2021-10-14 15:45:11.139056,-69
2021-10-14 15:45:11.139064,-43
2021-10-14 15:45:11.139073,-50
2021-10-14 15:45:11.139081,-84
2021-10-14 15:45:11.139089,-96
2021-10-14 15:45:11.139097,-93
2021-10-14 15:45:11.139106,-96
2021-10-14 15:45:11.139114,-101
2021-10-14 15:45:11.319447,-101
2021-10-14 15:45:11.319469,-93
2021-10-14 15:45:11.319478,-91
2021-10-14 15:45:11.319486,-86
2021-10-14 15:45:11.319495,-79
2021-10-14 15:45:11.319503,-64
2021-10-14 15:45:11.319511,-24
2021-10-14 15:45:11.319520,137
2021-10-14 15:45:11.319528,488
2021-10-14 15:45:11.319537,711
2021-10-14 15:45:11.319545,223
2021-10-14 15:45:11.319553,-767
2021-10-14 15:45:11.319562,-1125
2021-10-14 15:45:11.319570,-622
2021-10-14 15:45:11.319578,-228
2021-10-14 15:45:11.319586,-180
2021-10-14 15:45:11.319595,-67
2021-10-14 15:45:11.319603,38
2021-10-14 15:45:11.319611,12
2021-10-14 15:45:11.319620,2
2021-10-14 15:45:11.319628,31
2021-10-14 15:45:11.319636,33
2021-10-14 15:45:11.319644,31
2021-10-14 15:45:11.319653,45
2021-10-14 15:45:11.319661,52
2021-10-14 15:45:11.319670,55
2021-10-14 15:45:11.319678,60
2021-10-14 15:45:11.319686,69
2021-10-14 15:45:11.319694,81
2021-10-14 15:45:11.319703,91
2021-10-14 15:45:11.589828,101
2021-10-14 15:45:11.589849,110
2021-10-14 15:45:11.589858,115
2021-10-14 15:45:11.589866,120
2021-10-14 15:45:11.589875,129
2021-10-14 15:45:11.589883,134
2021-10-14 15:45:11.589891,139
2021-10-14 15:45:11.589900,129
2021-10-14 15:45:11.589908,110
2021-10-14 15:45:11.589916,98
2021-10-14 15:45:11.589925,86
2021-10-14 15:45:11.589933,67
2021-10-14 15:45:11.589941,36
2021-10-14 15:45:11.589950,-4
2021-10-14 15:45:11.589958,-31
2021-10-14 15:45:11.589966,-57
2021-10-14 15:45:11.589974,-86
2021-10-14 15:45:11.589982,-101
2021-10-14 15:45:11.589990,-113
2021-10-14 15:45:11.589998,-127
2021-10-14 15:45:11.590007,-134
2021-10-14 15:45:11.590015,-137
2021-10-14 15:45:11.590023,-137
2021-10-14 15:45:11.590031,-129
2021-10-14 15:45:11.590039,-127
2021-10-14 15:45:11.590047,-129
2021-10-14 15:45:11.590056,-125
2021-10-14 15:45:11.590064,-117
2021-10-14 15:45:11.590072,-113
2021-10-14 15:45:11.590081,-108
2021-10-14 15:45:11.814471,-98
2021-10-14 15:45:11.814491,-91
2021-10-14 15:45:11.814500,-79
2021-10-14 15:45:11.814509,-76
2021-10-14 15:45:11.814518,-76
2021-10-14 15:45:11.814526,-69
2021-10-14 15:45:11.814534,-60
2021-10-14 15:45:11.814543,-55
2021-10-14 15:45:11.814551,-48
2021-10-14 15:45:11.814560,-48
2021-10-14 15:45:11.814568,-45
2021-10-14 15:45:11.814576,-45
2021-10-14 15:45:11.814584,-55
2021-10-14 15:45:11.814593,-62
2021-10-14 15:45:11.814601,-55
2021-10-14 15:45:11.814610,-55
2021-10-14 15:45:11.814618,-57
2021-10-14 15:45:11.814626,-57
2021-10-14 15:45:11.814635,-62
2021-10-14 15:45:11.814643,-62
2021-10-14 15:45:11.814652,-57
2021-10-14 15:45:11.814660,-60
2021-10-14 15:45:11.814669,-60
2021-10-14 15:45:11.814677,-57
2021-10-14 15:45:11.814685,-57
2021-10-14 15:45:11.814694,-60
2021-10-14 15:45:11.814702,-64
2021-10-14 15:45:11.814711,-67
2021-10-14 15:45:11.814719,-67
2021-10-14 15:45:11.814728,-67
2021-10-14 15:45:12.172996,-69
2021-10-14 15:45:12.173017,-74
2021-10-14 15:45:12.173027,-74
2021-10-14 15:45:12.173035,-69
2021-10-14 15:45:12.173044,-60
2021-10-14 15:45:12.173052,-52
2021-10-14 15:45:12.173061,-52
2021-10-14 15:45:12.173069,-36
2021-10-14 15:45:12.173077,-21
2021-10-14 15:45:12.173085,-36
2021-10-14 15:45:12.173094,-57
2021-10-14 15:45:12.173102,-76
2021-10-14 15:45:12.173110,-81
2021-10-14 15:45:12.173118,-64
2021-10-14 15:45:12.173127,-52
2021-10-14 15:45:12.173135,-57
2021-10-14 15:45:12.173143,-57
2021-10-14 15:45:12.173151,-57
2021-10-14 15:45:12.173159,-57
2021-10-14 15:45:12.173167,-50
2021-10-14 15:45:12.173175,-36
2021-10-14 15:45:12.173184,26
2021-10-14 15:45:12.173192,254
2021-10-14 15:45:12.173200,627
2021-10-14 15:45:12.173208,709
2021-10-14 15:45:12.173217,24
2021-10-14 15:45:12.173225,-925
2021-10-14 15:45:12.173233,-1029
2021-10-14 15:45:12.173241,-449
2021-10-14 15:45:12.173249,-161
2021-10-14 15:45:12.354215,-139
2021-10-14 15:45:12.354235,-19
2021-10-14 15:45:12.354244,45
2021-10-14 15:45:12.354253,7
2021-10-14 15:45:12.354261,14
2021-10-14 15:45:12.354270,40
2021-10-14 15:45:12.354278,36
2021-10-14 15:45:12.354286,33
2021-10-14 15:45:12.354295,38
2021-10-14 15:45:12.354303,38
2021-10-14 15:45:12.354311,38
2021-10-14 15:45:12.354320,43
2021-10-14 15:45:12.354328,62
2021-10-14 15:45:12.354336,79
2021-10-14 15:45:12.354344,86
2021-10-14 15:45:12.354353,93
2021-10-14 15:45:12.354361,113
2021-10-14 15:45:12.354369,129
2021-10-14 15:45:12.354378,144
2021-10-14 15:45:12.354386,158
2021-10-14 15:45:12.354394,173
2021-10-14 15:45:12.354402,177
2021-10-14 15:45:12.354411,175
2021-10-14 15:45:12.354419,170
2021-10-14 15:45:12.354427,163
2021-10-14 15:45:12.354435,146
2021-10-14 15:45:12.354443,122
2021-10-14 15:45:12.354451,96
2021-10-14 15:45:12.354459,64
2021-10-14 15:45:12.354468,33
2021-10-14 15:45:12.444372,9
2021-10-14 15:45:12.444392,-12
2021-10-14 15:45:12.444401,-33
2021-10-14 15:45:12.444409,-52
2021-10-14 15:45:12.444418,-72
2021-10-14 15:45:12.444426,-76
2021-10-14 15:45:12.444434,-72
2021-10-14 15:45:12.444443,-67
2021-10-14 15:45:12.444451,-67
2021-10-14 15:45:12.444459,-74
2021-10-14 15:45:12.444468,-76
2021-10-14 15:45:12.444476,-69
2021-10-14 15:45:12.444485,-62
2021-10-14 15:45:12.444493,-62
2021-10-14 15:45:12.444501,-60
2021-10-14 15:45:12.444509,-55
2021-10-14 15:45:12.444518,-60
2021-10-14 15:45:12.444526,-60
2021-10-14 15:45:12.444534,-43
2021-10-14 15:45:12.444542,-31
2021-10-14 15:45:12.444551,-40
2021-10-14 15:45:12.444559,-50
2021-10-14 15:45:12.444567,-52
2021-10-14 15:45:12.444575,-43
2021-10-14 15:45:12.444583,-38
2021-10-14 15:45:12.444592,-40
2021-10-14 15:45:12.444600,-43
2021-10-14 15:45:12.444608,-40
2021-10-14 15:45:12.444616,-45
2021-10-14 15:45:12.444625,-45
2021-10-14 15:45:12.759851,-40
2021-10-14 15:45:12.759872,-40
2021-10-14 15:45:12.759881,-45
2021-10-14 15:45:12.759890,-55
2021-10-14 15:45:12.759898,-62
2021-10-14 15:45:12.759907,-62
2021-10-14 15:45:12.759915,-60
2021-10-14 15:45:12.759924,-50
2021-10-14 15:45:12.759932,-48
2021-10-14 15:45:12.759941,-60
2021-10-14 15:45:12.759949,-64
2021-10-14 15:45:12.759957,-64
2021-10-14 15:45:12.759965,-76
2021-10-14 15:45:12.759974,-86
2021-10-14 15:45:12.759982,-81
2021-10-14 15:45:12.759990,-79
2021-10-14 15:45:12.759998,-74
2021-10-14 15:45:12.760007,-67
2021-10-14 15:45:12.760015,-60
2021-10-14 15:45:12.760023,-62
2021-10-14 15:45:12.760032,-67
2021-10-14 15:45:12.760040,-64
2021-10-14 15:45:12.760048,-52
2021-10-14 15:45:12.760056,-45
2021-10-14 15:45:12.760064,-31
2021-10-14 15:45:12.760073,-21
2021-10-14 15:45:12.760081,-24
2021-10-14 15:45:12.760089,-16
2021-10-14 15:45:12.760098,-19
2021-10-14 15:45:12.760106,-45
2021-10-14 15:45:12.939861,-60
2021-10-14 15:45:12.939887,-45
2021-10-14 15:45:12.939897,-38
2021-10-14 15:45:12.939905,-45
2021-10-14 15:45:12.939914,-38
2021-10-14 15:45:12.939922,-28
2021-10-14 15:45:12.939930,-31
2021-10-14 15:45:12.939939,-36
2021-10-14 15:45:12.939947,-38
2021-10-14 15:45:12.939955,-38
2021-10-14 15:45:12.939964,-16
2021-10-14 15:45:12.939972,69
2021-10-14 15:45:12.939980,334
2021-10-14 15:45:12.939989,692
2021-10-14 15:45:12.939997,634
2021-10-14 15:45:12.940005,-185
2021-10-14 15:45:12.940014,-1007
2021-10-14 15:45:12.940022,-863
2021-10-14 15:45:12.940031,-283
2021-10-14 15:45:12.940039,-110
2021-10-14 15:45:12.940047,-86
2021-10-14 15:45:12.940056,31
2021-10-14 15:45:12.940064,55
2021-10-14 15:45:12.940072,4
2021-10-14 15:45:12.940080,21
2021-10-14 15:45:12.940089,50
2021-10-14 15:45:12.940097,45
2021-10-14 15:45:12.940122,48
2021-10-14 15:45:12.940134,60
2021-10-14 15:45:12.940143,67
2021-10-14 15:45:13.164548,74
2021-10-14 15:45:13.164569,79
2021-10-14 15:45:13.164578,74
2021-10-14 15:45:13.164587,79
2021-10-14 15:45:13.164595,98
2021-10-14 15:45:13.164604,113
2021-10-14 15:45:13.164612,120
2021-10-14 15:45:13.164620,127
2021-10-14 15:45:13.164629,132
2021-10-14 15:45:13.164644,137
2021-10-14 15:45:13.164721,151
2021-10-14 15:45:13.164727,158
2021-10-14 15:45:13.164732,151
2021-10-14 15:45:13.164736,132
2021-10-14 15:45:13.164740,105
2021-10-14 15:45:13.164744,84
2021-10-14 15:45:13.164748,57
2021-10-14 15:45:13.164753,28
2021-10-14 15:45:13.164757,7
2021-10-14 15:45:13.164761,-21
2021-10-14 15:45:13.164765,-57
2021-10-14 15:45:13.164770,-79
2021-10-14 15:45:13.164774,-96
2021-10-14 15:45:13.164778,-110
2021-10-14 15:45:13.164782,-117
2021-10-14 15:45:13.164786,-122
2021-10-14 15:45:13.164791,-127
2021-10-14 15:45:13.164795,-127
2021-10-14 15:45:13.164799,-122
2021-10-14 15:45:13.164804,-120
2021-10-14 15:45:13.433898,-117
2021-10-14 15:45:13.433920,-120
2021-10-14 15:45:13.433929,-117
2021-10-14 15:45:13.433938,-110
2021-10-14 15:45:13.433946,-101
2021-10-14 15:45:13.433954,-88
2021-10-14 15:45:13.433963,-86
2021-10-14 15:45:13.433971,-88
2021-10-14 15:45:13.433979,-81
2021-10-14 15:45:13.433987,-74
2021-10-14 15:45:13.433996,-67
2021-10-14 15:45:13.434004,-60
2021-10-14 15:45:13.434012,-57
2021-10-14 15:45:13.434020,-64
2021-10-14 15:45:13.434028,-60
2021-10-14 15:45:13.434037,-50
2021-10-14 15:45:13.434045,-52
2021-10-14 15:45:13.434053,-57
2021-10-14 15:45:13.434061,-67
2021-10-14 15:45:13.434070,-74
2021-10-14 15:45:13.434078,-67
2021-10-14 15:45:13.434086,-64
2021-10-14 15:45:13.434094,-72
2021-10-14 15:45:13.434102,-76
2021-10-14 15:45:13.434110,-72
2021-10-14 15:45:13.434119,-62
2021-10-14 15:45:13.434127,-60
2021-10-14 15:45:13.434135,-69
2021-10-14 15:45:13.434143,-81
2021-10-14 15:45:13.434151,-93
2021-10-14 15:45:13.659884,-96
2021-10-14 15:45:13.659905,-93
2021-10-14 15:45:13.659914,-96
2021-10-14 15:45:13.659923,-98
2021-10-14 15:45:13.659931,-91
2021-10-14 15:45:13.659940,-86
2021-10-14 15:45:13.659948,-96
2021-10-14 15:45:13.659956,-101
2021-10-14 15:45:13.659965,-93
2021-10-14 15:45:13.659973,-88
2021-10-14 15:45:13.659981,-84
2021-10-14 15:45:13.659990,-79
2021-10-14 15:45:13.659998,-86
2021-10-14 15:45:13.660006,-93
2021-10-14 15:45:13.660015,-88
2021-10-14 15:45:13.660023,-81
2021-10-14 15:45:13.660031,-69
2021-10-14 15:45:13.660039,-60
2021-10-14 15:45:13.660048,-67
2021-10-14 15:45:13.660056,-55
2021-10-14 15:45:13.660064,-38
2021-10-14 15:45:13.660072,-64
2021-10-14 15:45:13.660081,-88
2021-10-14 15:45:13.660089,-81
2021-10-14 15:45:13.660097,-76
2021-10-14 15:45:13.660106,-76
2021-10-14 15:45:13.660114,-79
2021-10-14 15:45:13.660122,-81
2021-10-14 15:45:13.660130,-72
2021-10-14 15:45:13.660139,-60
2021-10-14 15:45:13.839588,-60
2021-10-14 15:45:13.839613,-60
2021-10-14 15:45:13.839622,-50
2021-10-14 15:45:13.839631,-2
2021-10-14 15:45:13.839639,180
2021-10-14 15:45:13.839648,529
2021-10-14 15:45:13.839657,697
2021-10-14 15:45:13.839665,144
2021-10-14 15:45:13.839674,-815
2021-10-14 15:45:13.839682,-1070
2021-10-14 15:45:13.839690,-557
2021-10-14 15:45:13.839699,-218
2021-10-14 15:45:13.839707,-161
2021-10-14 15:45:13.839715,-28
2021-10-14 15:45:13.839723,55
2021-10-14 15:45:13.839732,28
2021-10-14 15:45:13.839740,33
2021-10-14 15:45:13.839748,57
2021-10-14 15:45:13.839757,45
2021-10-14 15:45:13.839765,43
2021-10-14 15:45:13.839774,55
2021-10-14 15:45:13.839782,60
2021-10-14 15:45:13.839791,57
2021-10-14 15:45:13.839799,57
2021-10-14 15:45:13.839807,64
2021-10-14 15:45:13.839816,84
2021-10-14 15:45:13.839824,101
2021-10-14 15:45:13.839833,103
2021-10-14 15:45:13.839841,101
2021-10-14 15:45:13.839849,110
2021-10-14 15:45:14.108557,134
2021-10-14 15:45:14.108580,149
2021-10-14 15:45:14.108589,151
2021-10-14 15:45:14.108598,151
2021-10-14 15:45:14.108606,139
2021-10-14 15:45:14.108614,113
2021-10-14 15:45:14.108623,98
2021-10-14 15:45:14.108631,98
2021-10-14 15:45:14.108639,76
2021-10-14 15:45:14.108647,43
2021-10-14 15:45:14.108656,9
2021-10-14 15:45:14.108664,-26
2021-10-14 15:45:14.108672,-50
2021-10-14 15:45:14.108681,-67
2021-10-14 15:45:14.108689,-91
2021-10-14 15:45:14.108697,-113
2021-10-14 15:45:14.108705,-132
2021-10-14 15:45:14.108714,-144
2021-10-14 15:45:14.108722,-144
2021-10-14 15:45:14.108730,-137
2021-10-14 15:45:14.108738,-137
2021-10-14 15:45:14.108747,-146
2021-10-14 15:45:14.108755,-144
2021-10-14 15:45:14.108763,-132
2021-10-14 15:45:14.108771,-127
2021-10-14 15:45:14.108779,-132
2021-10-14 15:45:14.108787,-120
2021-10-14 15:45:14.108795,-98
2021-10-14 15:45:14.108804,-93
2021-10-14 15:45:14.108812,-93
2021-10-14 15:45:14.334535,-86
2021-10-14 15:45:14.334556,-74
2021-10-14 15:45:14.334565,-64
2021-10-14 15:45:14.334574,-64
2021-10-14 15:45:14.334582,-72
2021-10-14 15:45:14.334591,-67
2021-10-14 15:45:14.334599,-55
2021-10-14 15:45:14.334607,-64
2021-10-14 15:45:14.334616,-69
2021-10-14 15:45:14.334624,-67
2021-10-14 15:45:14.334632,-81
2021-10-14 15:45:14.334641,-84
2021-10-14 15:45:14.334649,-74
2021-10-14 15:45:14.334657,-84
2021-10-14 15:45:14.334666,-86
2021-10-14 15:45:14.334674,-86
2021-10-14 15:45:14.334682,-98
2021-10-14 15:45:14.334690,-96
2021-10-14 15:45:14.334699,-86
2021-10-14 15:45:14.334707,-86
2021-10-14 15:45:14.334715,-88
2021-10-14 15:45:14.334723,-84
2021-10-14 15:45:14.334731,-84
2021-10-14 15:45:14.334740,-84
2021-10-14 15:45:14.334748,-76
2021-10-14 15:45:14.334756,-64
2021-10-14 15:45:14.334764,-67
2021-10-14 15:45:14.334772,-74
2021-10-14 15:45:14.334781,-64
2021-10-14 15:45:14.334789,-50
2021-10-14 15:45:14.559873,-50
2021-10-14 15:45:14.559894,-52
2021-10-14 15:45:14.559904,-55
2021-10-14 15:45:14.559912,-64
2021-10-14 15:45:14.559921,-67
2021-10-14 15:45:14.559929,-50
2021-10-14 15:45:14.559938,-38
2021-10-14 15:45:14.559946,-36
2021-10-14 15:45:14.559954,-24
2021-10-14 15:45:14.559963,-16
2021-10-14 15:45:14.559971,-24
2021-10-14 15:45:14.559979,-19
2021-10-14 15:45:14.559988,-21
2021-10-14 15:45:14.559997,-43
2021-10-14 15:45:14.560005,-62
2021-10-14 15:45:14.560013,-64
2021-10-14 15:45:14.560022,-55
2021-10-14 15:45:14.560030,-48
2021-10-14 15:45:14.560038,-48
2021-10-14 15:45:14.560047,-40
2021-10-14 15:45:14.560055,-33
2021-10-14 15:45:14.560063,-36
2021-10-14 15:45:14.560071,-28
2021-10-14 15:45:14.560080,-9
2021-10-14 15:45:14.560088,36
2021-10-14 15:45:14.560096,209
2021-10-14 15:45:14.560105,567
2021-10-14 15:45:14.560113,774
2021-10-14 15:45:14.560121,264
2021-10-14 15:45:14.560129,-726
2021-10-14 15:45:14.829943,-1062
2021-10-14 15:45:14.829964,-543
2021-10-14 15:45:14.829973,-158
2021-10-14 15:45:14.829982,-122
2021-10-14 15:45:14.829991,-14
2021-10-14 15:45:14.829999,84
2021-10-14 15:45:14.830008,60
2021-10-14 15:45:14.830016,55
2021-10-14 15:45:14.830024,74
2021-10-14 15:45:14.830033,67
2021-10-14 15:45:14.830041,74
2021-10-14 15:45:14.830050,91
2021-10-14 15:45:14.830058,91
2021-10-14 15:45:14.830066,88
2021-10-14 15:45:14.830074,81
2021-10-14 15:45:14.830083,76
2021-10-14 15:45:14.830091,96
2021-10-14 15:45:14.830100,115
2021-10-14 15:45:14.830108,120
2021-10-14 15:45:14.830117,129
2021-10-14 15:45:14.830125,139
2021-10-14 15:45:14.830133,144
2021-10-14 15:45:14.830142,163
2021-10-14 15:45:14.830150,180
2021-10-14 15:45:14.830158,187
2021-10-14 15:45:14.830167,189
2021-10-14 15:45:14.830184,182
2021-10-14 15:45:14.830194,165
2021-10-14 15:45:14.830202,149
2021-10-14 15:45:14.830211,127
2021-10-14 15:45:15.054047,91
2021-10-14 15:45:15.054069,55
2021-10-14 15:45:15.054079,26
2021-10-14 15:45:15.054088,-12
2021-10-14 15:45:15.054096,-38
2021-10-14 15:45:15.054104,-43
2021-10-14 15:45:15.054113,-52
2021-10-14 15:45:15.054121,-79
2021-10-14 15:45:15.054129,-101
2021-10-14 15:45:15.054138,-105
2021-10-14 15:45:15.054146,-101
2021-10-14 15:45:15.054154,-91
2021-10-14 15:45:15.054162,-88
2021-10-14 15:45:15.054171,-88
2021-10-14 15:45:15.054179,-91
2021-10-14 15:45:15.054187,-98
2021-10-14 15:45:15.054195,-110
2021-10-14 15:45:15.054204,-101
2021-10-14 15:45:15.054212,-91
2021-10-14 15:45:15.054220,-105
2021-10-14 15:45:15.054229,-115
2021-10-14 15:45:15.054237,-105
2021-10-14 15:45:15.054245,-91
2021-10-14 15:45:15.054254,-76
2021-10-14 15:45:15.054262,-69
2021-10-14 15:45:15.054270,-74
2021-10-14 15:45:15.054278,-74
2021-10-14 15:45:15.054287,-69
2021-10-14 15:45:15.054295,-72
2021-10-14 15:45:15.054303,-74
2021-10-14 15:45:15.234506,-69
2021-10-14 15:45:15.234526,-74
2021-10-14 15:45:15.234535,-86
2021-10-14 15:45:15.234543,-96
2021-10-14 15:45:15.234552,-81
2021-10-14 15:45:15.234560,-76
2021-10-14 15:45:15.234568,-86
2021-10-14 15:45:15.234577,-96
2021-10-14 15:45:15.234585,-88
2021-10-14 15:45:15.234593,-81
2021-10-14 15:45:15.234601,-79
2021-10-14 15:45:15.234609,-79
2021-10-14 15:45:15.234618,-81
2021-10-14 15:45:15.234626,-84
2021-10-14 15:45:15.234634,-84
2021-10-14 15:45:15.234643,-79
2021-10-14 15:45:15.234651,-76
2021-10-14 15:45:15.234659,-72
2021-10-14 15:45:15.234667,-64
2021-10-14 15:45:15.234675,-64
2021-10-14 15:45:15.234684,-64
2021-10-14 15:45:15.234692,-57
2021-10-14 15:45:15.234700,-52
2021-10-14 15:45:15.234708,-48
2021-10-14 15:45:15.234717,-48
2021-10-14 15:45:15.234725,-52
2021-10-14 15:45:15.234733,-48
2021-10-14 15:45:15.234741,-38
2021-10-14 15:45:15.234750,-33
2021-10-14 15:45:15.234758,-31
2021-10-14 15:45:15.549556,-28
2021-10-14 15:45:15.549578,-26
2021-10-14 15:45:15.549587,-21
2021-10-14 15:45:15.549596,-12
2021-10-14 15:45:15.549604,-7
2021-10-14 15:45:15.549612,-9
2021-10-14 15:45:15.549620,-4
2021-10-14 15:45:15.549629,-14
2021-10-14 15:45:15.549637,-36
2021-10-14 15:45:15.549645,-48
2021-10-14 15:45:15.549654,-45
2021-10-14 15:45:15.549662,-43
2021-10-14 15:45:15.549670,-45
2021-10-14 15:45:15.549678,-48
2021-10-14 15:45:15.549687,-40
2021-10-14 15:45:15.549696,-36
2021-10-14 15:45:15.549704,-33
2021-10-14 15:45:15.549712,-26
2021-10-14 15:45:15.549721,-19
2021-10-14 15:45:15.549729,2
2021-10-14 15:45:15.549737,88
2021-10-14 15:45:15.549746,351
2021-10-14 15:45:15.549754,709
2021-10-14 15:45:15.549763,634
2021-10-14 15:45:15.549771,-202
2021-10-14 15:45:15.549779,-1012
2021-10-14 15:45:15.549788,-846
2021-10-14 15:45:15.549796,-278
2021-10-14 15:45:15.549804,-115
2021-10-14 15:45:15.549813,-74
2021-10-14 15:45:15.684483,52
2021-10-14 15:45:15.684504,69
2021-10-14 15:45:15.684514,40
2021-10-14 15:45:15.684522,72
2021-10-14 15:45:15.684531,88
2021-10-14 15:45:15.684539,76
2021-10-14 15:45:15.684547,74
2021-10-14 15:45:15.684555,81
2021-10-14 15:45:15.684564,86
2021-10-14 15:45:15.684572,98
2021-10-14 15:45:15.684580,108
2021-10-14 15:45:15.684589,108
2021-10-14 15:45:15.684597,110
2021-10-14 15:45:15.684605,125
2021-10-14 15:45:15.684614,134
2021-10-14 15:45:15.684622,146
2021-10-14 15:45:15.684630,158
2021-10-14 15:45:15.684638,161
2021-10-14 15:45:15.684647,163
2021-10-14 15:45:15.684655,182
2021-10-14 15:45:15.684663,192
2021-10-14 15:45:15.684672,185
2021-10-14 15:45:15.684680,177
2021-10-14 15:45:15.684688,161
2021-10-14 15:45:15.684696,139
2021-10-14 15:45:15.684705,125
2021-10-14 15:45:15.684713,98
2021-10-14 15:45:15.684721,60
2021-10-14 15:45:15.684729,31
2021-10-14 15:45:15.684737,9
2021-10-14 15:45:15.954914,-12
2021-10-14 15:45:15.954936,-36
2021-10-14 15:45:15.954946,-64
2021-10-14 15:45:15.954954,-86
2021-10-14 15:45:15.954963,-96
2021-10-14 15:45:15.954971,-101
2021-10-14 15:45:15.954979,-98
2021-10-14 15:45:15.954988,-88
2021-10-14 15:45:15.954996,-86
2021-10-14 15:45:15.955004,-105
2021-10-14 15:45:15.955013,-125
2021-10-14 15:45:15.955021,-127
2021-10-14 15:45:15.955029,-129
2021-10-14 15:45:15.955038,-127
2021-10-14 15:45:15.955046,-117
2021-10-14 15:45:15.955054,-101
2021-10-14 15:45:15.955062,-76
2021-10-14 15:45:15.955071,-60
2021-10-14 15:45:15.955079,-62
2021-10-14 15:45:15.955087,-62
2021-10-14 15:45:15.955096,-55
2021-10-14 15:45:15.955104,-62
2021-10-14 15:45:15.955112,-69
2021-10-14 15:45:15.955120,-60
2021-10-14 15:45:15.955128,-43
2021-10-14 15:45:15.955137,-45
2021-10-14 15:45:15.955145,-60
2021-10-14 15:45:15.955153,-69
2021-10-14 15:45:15.955161,-62
2021-10-14 15:45:15.955169,-62
2021-10-14 15:45:16.178231,-67
2021-10-14 15:45:16.178369,-62
2021-10-14 15:45:16.178380,-64
2021-10-14 15:45:16.178387,-79
2021-10-14 15:45:16.178394,-91
2021-10-14 15:45:16.178402,-93
2021-10-14 15:45:16.178409,-84
2021-10-14 15:45:16.178416,-64
2021-10-14 15:45:16.178424,-62
2021-10-14 15:45:16.178432,-69
2021-10-14 15:45:16.178440,-62
2021-10-14 15:45:16.178448,-55
2021-10-14 15:45:16.178456,-55
2021-10-14 15:45:16.178465,-50
2021-10-14 15:45:16.178473,-45
2021-10-14 15:45:16.178482,-57
2021-10-14 15:45:16.178490,-69
2021-10-14 15:45:16.178498,-62
2021-10-14 15:45:16.178507,-48
2021-10-14 15:45:16.178515,-45
2021-10-14 15:45:16.178523,-48
2021-10-14 15:45:16.178532,-45
2021-10-14 15:45:16.178540,-45
2021-10-14 15:45:16.178548,-33
2021-10-14 15:45:16.178556,-21
2021-10-14 15:45:16.178565,-19
2021-10-14 15:45:16.178573,-24
2021-10-14 15:45:16.178581,-31
2021-10-14 15:45:16.178589,-33
2021-10-14 15:45:16.178598,-24
2021-10-14 15:45:16.494600,-21
2021-10-14 15:45:16.494623,-16
2021-10-14 15:45:16.494632,-7
2021-10-14 15:45:16.494640,-19
2021-10-14 15:45:16.494648,-31
2021-10-14 15:45:16.494656,-9
2021-10-14 15:45:16.494663,9
2021-10-14 15:45:16.494671,16
2021-10-14 15:45:16.494679,21
2021-10-14 15:45:16.494687,-7
2021-10-14 15:45:16.494695,-36
2021-10-14 15:45:16.494703,-21
2021-10-14 15:45:16.494712,-14
2021-10-14 15:45:16.494720,-33
2021-10-14 15:45:16.494728,-38
2021-10-14 15:45:16.494736,-26
2021-10-14 15:45:16.494744,-16
2021-10-14 15:45:16.494752,-12
2021-10-14 15:45:16.494759,-9
2021-10-14 15:45:16.494766,4
2021-10-14 15:45:16.494775,21
2021-10-14 15:45:16.494783,48
2021-10-14 15:45:16.494791,173
2021-10-14 15:45:16.494799,505
2021-10-14 15:45:16.494807,795
2021-10-14 15:45:16.494816,485
2021-10-14 15:45:16.494824,-452
2021-10-14 15:45:16.494832,-1014
2021-10-14 15:45:16.494841,-630
2021-10-14 15:45:16.494848,-144
2021-10-14 15:45:16.674879,-69
2021-10-14 15:45:16.674900,-2
2021-10-14 15:45:16.674909,98
2021-10-14 15:45:16.674918,76
2021-10-14 15:45:16.674927,69
2021-10-14 15:45:16.674935,115
2021-10-14 15:45:16.674943,117
2021-10-14 15:45:16.674952,103
2021-10-14 15:45:16.674960,110
2021-10-14 15:45:16.674969,115
2021-10-14 15:45:16.674977,115
2021-10-14 15:45:16.674986,127
2021-10-14 15:45:16.674994,132
2021-10-14 15:45:16.675002,134
2021-10-14 15:45:16.675011,149
2021-10-14 15:45:16.675019,158
2021-10-14 15:45:16.675027,151
2021-10-14 15:45:16.675036,161
2021-10-14 15:45:16.675044,182
2021-10-14 15:45:16.675052,192
2021-10-14 15:45:16.675061,192
2021-10-14 15:45:16.675069,199
2021-10-14 15:45:16.675077,206
2021-10-14 15:45:16.675085,194
2021-10-14 15:45:16.675094,185
2021-10-14 15:45:16.675102,175
2021-10-14 15:45:16.675111,141
2021-10-14 15:45:16.675119,108
2021-10-14 15:45:16.675127,91
2021-10-14 15:45:16.675135,62
2021-10-14 15:45:16.854929,21
2021-10-14 15:45:16.854950,0
2021-10-14 15:45:16.854959,-31
2021-10-14 15:45:16.854968,-62
2021-10-14 15:45:16.854976,-67
2021-10-14 15:45:16.854985,-74
2021-10-14 15:45:16.854993,-98
2021-10-14 15:45:16.855002,-108
2021-10-14 15:45:16.855010,-108
2021-10-14 15:45:16.855018,-105
2021-10-14 15:45:16.855027,-103
2021-10-14 15:45:16.855035,-98
2021-10-14 15:45:16.855043,-91
2021-10-14 15:45:16.855051,-84
2021-10-14 15:45:16.855060,-84
2021-10-14 15:45:16.855068,-88
2021-10-14 15:45:16.855076,-86
2021-10-14 15:45:16.855085,-76
2021-10-14 15:45:16.855093,-72
2021-10-14 15:45:16.855101,-72
2021-10-14 15:45:16.855109,-76
2021-10-14 15:45:16.855117,-62
2021-10-14 15:45:16.855126,-45
2021-10-14 15:45:16.855134,-50
2021-10-14 15:45:16.855142,-52
2021-10-14 15:45:16.855150,-43
2021-10-14 15:45:16.855158,-36
2021-10-14 15:45:16.855167,-40
2021-10-14 15:45:16.855175,-38
2021-10-14 15:45:16.855198,-40
2021-10-14 15:45:17.079590,-43
2021-10-14 15:45:17.079613,-40
2021-10-14 15:45:17.079623,-36
2021-10-14 15:45:17.079631,-36
2021-10-14 15:45:17.079640,-36
2021-10-14 15:45:17.079649,-26
2021-10-14 15:45:17.079657,-28
2021-10-14 15:45:17.079665,-45
2021-10-14 15:45:17.079673,-64
2021-10-14 15:45:17.079682,-64
2021-10-14 15:45:17.079690,-48
2021-10-14 15:45:17.079699,-48
2021-10-14 15:45:17.079707,-69
2021-10-14 15:45:17.079715,-72
2021-10-14 15:45:17.079723,-60
2021-10-14 15:45:17.079732,-57
2021-10-14 15:45:17.079740,-48
2021-10-14 15:45:17.079749,-33
2021-10-14 15:45:17.079757,-33
2021-10-14 15:45:17.079765,-40
2021-10-14 15:45:17.079774,-40
2021-10-14 15:45:17.079782,-38
2021-10-14 15:45:17.079790,-38
2021-10-14 15:45:17.079799,-38
2021-10-14 15:45:17.079807,-31
2021-10-14 15:45:17.079815,-26
2021-10-14 15:45:17.079824,-28
2021-10-14 15:45:17.079832,-24
2021-10-14 15:45:17.079840,-9
2021-10-14 15:45:17.079849,-2
2021-10-14 15:45:17.304981,0
2021-10-14 15:45:17.305003,9
2021-10-14 15:45:17.305013,14
2021-10-14 15:45:17.305022,19
2021-10-14 15:45:17.305031,24
2021-10-14 15:45:17.305040,-2
2021-10-14 15:45:17.305049,-45
2021-10-14 15:45:17.305058,-55
2021-10-14 15:45:17.305067,-43
2021-10-14 15:45:17.305076,-40
2021-10-14 15:45:17.305084,-40
2021-10-14 15:45:17.305093,-36
2021-10-14 15:45:17.305102,-40
2021-10-14 15:45:17.305110,-43
2021-10-14 15:45:17.305119,-33
2021-10-14 15:45:17.305128,-33
2021-10-14 15:45:17.305136,-28
2021-10-14 15:45:17.305145,19
2021-10-14 15:45:17.305154,216
2021-10-14 15:45:17.305163,593
2021-10-14 15:45:17.305171,747
2021-10-14 15:45:17.305180,125
2021-10-14 15:45:17.305189,-848
2021-10-14 15:45:17.305197,-1043
2021-10-14 15:45:17.305206,-502
2021-10-14 15:45:17.305215,-170
2021-10-14 15:45:17.305223,-113
2021-10-14 15:45:17.305232,7
2021-10-14 15:45:17.305241,74
2021-10-14 15:45:17.305250,36
2021-10-14 15:45:17.573924,38
2021-10-14 15:45:17.573945,72
2021-10-14 15:45:17.573954,79
2021-10-14 15:45:17.573963,81
2021-10-14 15:45:17.573971,86
2021-10-14 15:45:17.573980,79
2021-10-14 15:45:17.573988,79
2021-10-14 15:45:17.573996,91
2021-10-14 15:45:17.574005,93
2021-10-14 15:45:17.574013,93
2021-10-14 15:45:17.574021,103
2021-10-14 15:45:17.574030,108
2021-10-14 15:45:17.574038,113
2021-10-14 15:45:17.574046,122
2021-10-14 15:45:17.574054,125
2021-10-14 15:45:17.574063,122
2021-10-14 15:45:17.574071,125
2021-10-14 15:45:17.574079,134
2021-10-14 15:45:17.574087,139
2021-10-14 15:45:17.574095,141
2021-10-14 15:45:17.574104,141
2021-10-14 15:45:17.574112,117
2021-10-14 15:45:17.574120,79
2021-10-14 15:45:17.574128,48
2021-10-14 15:45:17.574137,19
2021-10-14 15:45:17.574145,-19
2021-10-14 15:45:17.574153,-50
2021-10-14 15:45:17.574161,-69
2021-10-14 15:45:17.574170,-84
2021-10-14 15:45:17.574178,-103
2021-10-14 15:45:17.754938,-117
2021-10-14 15:45:17.754959,-129
2021-10-14 15:45:17.754968,-137
2021-10-14 15:45:17.754977,-137
2021-10-14 15:45:17.754985,-137
2021-10-14 15:45:17.754994,-153
2021-10-14 15:45:17.755002,-158
2021-10-14 15:45:17.755010,-149
2021-10-14 15:45:17.755019,-141
2021-10-14 15:45:17.755027,-134
2021-10-14 15:45:17.755035,-125
2021-10-14 15:45:17.755043,-122
2021-10-14 15:45:17.755052,-113
2021-10-14 15:45:17.755060,-96
2021-10-14 15:45:17.755068,-96
2021-10-14 15:45:17.755076,-91
2021-10-14 15:45:17.755085,-72
2021-10-14 15:45:17.755093,-62
2021-10-14 15:45:17.755102,-57
2021-10-14 15:45:17.755110,-43
2021-10-14 15:45:17.755118,-38
2021-10-14 15:45:17.755126,-48
2021-10-14 15:45:17.755134,-45
2021-10-14 15:45:17.755143,-31
2021-10-14 15:45:17.755151,-33
2021-10-14 15:45:17.755159,-50
2021-10-14 15:45:17.755167,-55
2021-10-14 15:45:17.755175,-43
2021-10-14 15:45:17.755184,-33
2021-10-14 15:45:17.755192,-28
2021-10-14 15:45:17.979708,-31
2021-10-14 15:45:17.979729,-24
2021-10-14 15:45:17.979737,-19
2021-10-14 15:45:17.979745,-24
2021-10-14 15:45:17.979753,-21
2021-10-14 15:45:17.979760,-14
2021-10-14 15:45:17.979768,-4
2021-10-14 15:45:17.979775,7
2021-10-14 15:45:17.979783,14
2021-10-14 15:45:17.979791,12
2021-10-14 15:45:17.979798,7
2021-10-14 15:45:17.979806,16
2021-10-14 15:45:17.979814,24
2021-10-14 15:45:17.979821,28
2021-10-14 15:45:17.979829,33
2021-10-14 15:45:17.979837,43
2021-10-14 15:45:17.979844,52
2021-10-14 15:45:17.979852,52
2021-10-14 15:45:17.979860,50
2021-10-14 15:45:17.979867,55
2021-10-14 15:45:17.979875,57
2021-10-14 15:45:17.979883,55
2021-10-14 15:45:17.979890,60
2021-10-14 15:45:17.979898,69
2021-10-14 15:45:17.979906,74
2021-10-14 15:45:17.979913,76
2021-10-14 15:45:17.979921,84
2021-10-14 15:45:17.979929,86
2021-10-14 15:45:17.979936,91
2021-10-14 15:45:17.979944,115
2021-10-14 15:45:18.293241,129
2021-10-14 15:45:18.293263,129
2021-10-14 15:45:18.293272,122
2021-10-14 15:45:18.293281,113
2021-10-14 15:45:18.293289,96
2021-10-14 15:45:18.293297,93
2021-10-14 15:45:18.293306,113
2021-10-14 15:45:18.293314,127
2021-10-14 15:45:18.293322,120
2021-10-14 15:45:18.293330,105
2021-10-14 15:45:18.293339,108
2021-10-14 15:45:18.293347,127
2021-10-14 15:45:18.293355,139
2021-10-14 15:45:18.293363,153
2021-10-14 15:45:18.293371,189
2021-10-14 15:45:18.293379,298
2021-10-14 15:45:18.293388,608
2021-10-14 15:45:18.293396,952
2021-10-14 15:45:18.293404,738
2021-10-14 15:45:18.293412,-187
2021-10-14 15:45:18.293421,-870
2021-10-14 15:45:18.293429,-555
2021-10-14 15:45:18.293437,-14
2021-10-14 15:45:18.293445,93
2021-10-14 15:45:18.293454,156
2021-10-14 15:45:18.293462,288
2021-10-14 15:45:18.293470,288
2021-10-14 15:45:18.293478,264
2021-10-14 15:45:18.293486,300
2021-10-14 15:45:18.293495,300
2021-10-14 15:45:18.474915,288
2021-10-14 15:45:18.474936,307
2021-10-14 15:45:18.474946,310
2021-10-14 15:45:18.474954,303
2021-10-14 15:45:18.474963,322
2021-10-14 15:45:18.474971,336
2021-10-14 15:45:18.474980,329
2021-10-14 15:45:18.474988,339
2021-10-14 15:45:18.474996,355
2021-10-14 15:45:18.475005,351
2021-10-14 15:45:18.475013,353
2021-10-14 15:45:18.475022,375
2021-10-14 15:45:18.475030,384
2021-10-14 15:45:18.475038,382
2021-10-14 15:45:18.475046,382
2021-10-14 15:45:18.475055,377
2021-10-14 15:45:18.475063,370
2021-10-14 15:45:18.475072,372
2021-10-14 15:45:18.475080,365
2021-10-14 15:45:18.475089,341
2021-10-14 15:45:18.475097,312
2021-10-14 15:45:18.475105,283
2021-10-14 15:45:18.475114,262
2021-10-14 15:45:18.475122,242
2021-10-14 15:45:18.475130,202
2021-10-14 15:45:18.475139,168
2021-10-14 15:45:18.475147,146
2021-10-14 15:45:18.475155,120
2021-10-14 15:45:18.475164,105
2021-10-14 15:45:18.475172,105
2021-10-14 15:45:18.699920,98
2021-10-14 15:45:18.699941,86
2021-10-14 15:45:18.699950,76
2021-10-14 15:45:18.699959,79
2021-10-14 15:45:18.699967,81
2021-10-14 15:45:18.699976,84
2021-10-14 15:45:18.699984,86
2021-10-14 15:45:18.699993,79
2021-10-14 15:45:18.700001,67
2021-10-14 15:45:18.700009,67
2021-10-14 15:45:18.700018,79
2021-10-14 15:45:18.700026,88
2021-10-14 15:45:18.700034,98
2021-10-14 15:45:18.700043,96
2021-10-14 15:45:18.700051,86
2021-10-14 15:45:18.700059,84
2021-10-14 15:45:18.700068,88
2021-10-14 15:45:18.700076,88
2021-10-14 15:45:18.700085,91
2021-10-14 15:45:18.700093,88
2021-10-14 15:45:18.700101,79
2021-10-14 15:45:18.700110,69
2021-10-14 15:45:18.700118,74
2021-10-14 15:45:18.700127,84
2021-10-14 15:45:18.700135,79
2021-10-14 15:45:18.700143,72
2021-10-14 15:45:18.700152,69
2021-10-14 15:45:18.700160,57
2021-10-14 15:45:18.700174,45
2021-10-14 15:45:18.700183,57
2021-10-14 15:45:18.968987,64
2021-10-14 15:45:18.969008,55
2021-10-14 15:45:18.969017,40
2021-10-14 15:45:18.969026,26
2021-10-14 15:45:18.969034,19
2021-10-14 15:45:18.969042,21
2021-10-14 15:45:18.969051,24
2021-10-14 15:45:18.969059,21
2021-10-14 15:45:18.969067,9
2021-10-14 15:45:18.969075,7
2021-10-14 15:45:18.969083,19
2021-10-14 15:45:18.969092,26
2021-10-14 15:45:18.969100,14
2021-10-14 15:45:18.969108,4
2021-10-14 15:45:18.969117,7
2021-10-14 15:45:18.969125,7
2021-10-14 15:45:18.969133,0
2021-10-14 15:45:18.969141,4
2021-10-14 15:45:18.969150,9
2021-10-14 15:45:18.969158,12
2021-10-14 15:45:18.969166,14
2021-10-14 15:45:18.969175,14
2021-10-14 15:45:18.969183,12
2021-10-14 15:45:18.969191,24
2021-10-14 15:45:18.969199,45
2021-10-14 15:45:18.969208,48
2021-10-14 15:45:18.969216,50
2021-10-14 15:45:18.969224,60
2021-10-14 15:45:18.969232,48
2021-10-14 15:45:18.969241,21
2021-10-14 15:45:19.194570,19
2021-10-14 15:45:19.194591,16
2021-10-14 15:45:19.194600,2
2021-10-14 15:45:19.194609,4
2021-10-14 15:45:19.194617,12
2021-10-14 15:45:19.194625,0
2021-10-14 15:45:19.194634,-7
2021-10-14 15:45:19.194642,7
2021-10-14 15:45:19.194651,16
2021-10-14 15:45:19.194659,12
2021-10-14 15:45:19.194667,43
2021-10-14 15:45:19.194675,177
2021-10-14 15:45:19.194684,483
2021-10-14 15:45:19.194692,769
2021-10-14 15:45:19.194700,502
2021-10-14 15:45:19.194708,-425
2021-10-14 15:45:19.194716,-1026
2021-10-14 15:45:19.194725,-675
2021-10-14 15:45:19.194733,-206
2021-10-14 15:45:19.194741,-117
2021-10-14 15:45:19.194749,-4
2021-10-14 15:45:19.194758,139
2021-10-14 15:45:19.194766,129
2021-10-14 15:45:19.194774,103
2021-10-14 15:45:19.194782,139
2021-10-14 15:45:19.194790,151
2021-10-14 15:45:19.194798,144
2021-10-14 15:45:19.194807,158
2021-10-14 15:45:19.194815,165
2021-10-14 15:45:19.194823,165
2021-10-14 15:45:19.374945,180
2021-10-14 15:45:19.374966,189
2021-10-14 15:45:19.374976,182
2021-10-14 15:45:19.374984,180
2021-10-14 15:45:19.374992,197
2021-10-14 15:45:19.375001,209
2021-10-14 15:45:19.375009,209
2021-10-14 15:45:19.375017,216
2021-10-14 15:45:19.375025,226
2021-10-14 15:45:19.375034,235
2021-10-14 15:45:19.375042,247
2021-10-14 15:45:19.375050,245
2021-10-14 15:45:19.375059,233
2021-10-14 15:45:19.375067,233
2021-10-14 15:45:19.375075,235
2021-10-14 15:45:19.375083,214
2021-10-14 15:45:19.375092,185
2021-10-14 15:45:19.375100,156
2021-10-14 15:45:19.375108,129
2021-10-14 15:45:19.375116,105
2021-10-14 15:45:19.375125,74
2021-10-14 15:45:19.375133,43
2021-10-14 15:45:19.375141,21
2021-10-14 15:45:19.375149,9
2021-10-14 15:45:19.375158,7
2021-10-14 15:45:19.375166,4
2021-10-14 15:45:19.375174,-4
2021-10-14 15:45:19.375182,-4
2021-10-14 15:45:19.375191,4
2021-10-14 15:45:19.375199,7
2021-10-14 15:45:19.644958,9
2021-10-14 15:45:19.644980,24
2021-10-14 15:45:19.644990,28
2021-10-14 15:45:19.644999,26
2021-10-14 15:45:19.645007,33
2021-10-14 15:45:19.645016,36
2021-10-14 15:45:19.645024,33
2021-10-14 15:45:19.645032,33
2021-10-14 15:45:19.645040,33
2021-10-14 15:45:19.645048,28
2021-10-14 15:45:19.645056,26
2021-10-14 15:45:19.645064,26
2021-10-14 15:45:19.645072,31
2021-10-14 15:45:19.645080,43
2021-10-14 15:45:19.645089,50
2021-10-14 15:45:19.645097,50
2021-10-14 15:45:19.645133,48
2021-10-14 15:45:19.645145,50
2021-10-14 15:45:19.645153,52
2021-10-14 15:45:19.645160,52
2021-10-14 15:45:19.645167,55
2021-10-14 15:45:19.645174,57
2021-10-14 15:45:19.645181,57
2021-10-14 15:45:19.645188,60
2021-10-14 15:45:19.645195,60
2021-10-14 15:45:19.645202,55
2021-10-14 15:45:19.645209,62
2021-10-14 15:45:19.645217,72
2021-10-14 15:45:19.645225,69
2021-10-14 15:45:19.645234,69
2021-10-14 15:45:19.824937,79
2021-10-14 15:45:19.824958,81
2021-10-14 15:45:19.824967,72
2021-10-14 15:45:19.824976,72
2021-10-14 15:45:19.824985,76
2021-10-14 15:45:19.824993,67
2021-10-14 15:45:19.825002,67
2021-10-14 15:45:19.825010,74
2021-10-14 15:45:19.825018,72
2021-10-14 15:45:19.825027,72
2021-10-14 15:45:19.825035,79
2021-10-14 15:45:19.825043,86
2021-10-14 15:45:19.825052,81
2021-10-14 15:45:19.825060,81
2021-10-14 15:45:19.825069,101
2021-10-14 15:45:19.825077,113
2021-10-14 15:45:19.825085,105
2021-10-14 15:45:19.825094,101
2021-10-14 15:45:19.825102,103
2021-10-14 15:45:19.825110,84
2021-10-14 15:45:19.825118,60
2021-10-14 15:45:19.825127,45
2021-10-14 15:45:19.825135,48
2021-10-14 15:45:19.825143,62
2021-10-14 15:45:19.825151,74
2021-10-14 15:45:19.825160,76
2021-10-14 15:45:19.825168,72
2021-10-14 15:45:19.825176,62
2021-10-14 15:45:19.825185,62
2021-10-14 15:45:19.825193,74
2021-10-14 15:45:20.139581,88
2021-10-14 15:45:20.139602,149
2021-10-14 15:45:20.139612,387
2021-10-14 15:45:20.139620,762
2021-10-14 15:45:20.139629,803
2021-10-14 15:45:20.139637,64
2021-10-14 15:45:20.139645,-870
2021-10-14 15:45:20.139654,-909
2021-10-14 15:45:20.139662,-319
2021-10-14 15:45:20.139670,-64
2021-10-14 15:45:20.139679,-40
2021-10-14 15:45:20.139687,91
2021-10-14 15:45:20.139696,137
2021-10-14 15:45:20.139704,81
2021-10-14 15:45:20.139712,93
2021-10-14 15:45:20.139721,117
2021-10-14 15:45:20.139729,103
2021-10-14 15:45:20.139737,110
2021-10-14 15:45:20.139746,139
2021-10-14 15:45:20.139754,146
2021-10-14 15:45:20.139762,141
2021-10-14 15:45:20.139770,141
2021-10-14 15:45:20.139778,144
2021-10-14 15:45:20.139787,156
2021-10-14 15:45:20.139795,163
2021-10-14 15:45:20.139803,170
2021-10-14 15:45:20.139812,182
2021-10-14 15:45:20.139820,189
2021-10-14 15:45:20.139828,189
2021-10-14 15:45:20.139836,199
2021-10-14 15:45:20.363237,223
2021-10-14 15:45:20.363258,235
2021-10-14 15:45:20.363268,223
2021-10-14 15:45:20.363276,211
2021-10-14 15:45:20.363285,194
2021-10-14 15:45:20.363293,170
2021-10-14 15:45:20.363301,144
2021-10-14 15:45:20.363310,122
2021-10-14 15:45:20.363318,88
2021-10-14 15:45:20.363326,38
2021-10-14 15:45:20.363335,0
2021-10-14 15:45:20.363343,-24
2021-10-14 15:45:20.363351,-48
2021-10-14 15:45:20.363360,-64
2021-10-14 15:45:20.363368,-74
2021-10-14 15:45:20.363377,-88
2021-10-14 15:45:20.363385,-103
2021-10-14 15:45:20.363393,-101
2021-10-14 15:45:20.363402,-103
2021-10-14 15:45:20.363410,-120
2021-10-14 15:45:20.363418,-127
2021-10-14 15:45:20.363426,-122
2021-10-14 15:45:20.363435,-113
2021-10-14 15:45:20.363443,-105
2021-10-14 15:45:20.363451,-101
2021-10-14 15:45:20.363459,-88
2021-10-14 15:45:20.363468,-86
2021-10-14 15:45:20.363476,-84
2021-10-14 15:45:20.363484,-72
2021-10-14 15:45:20.363492,-57
2021-10-14 15:45:20.634811,-52
2021-10-14 15:45:20.634832,-43
2021-10-14 15:45:20.634841,-36
2021-10-14 15:45:20.634850,-40
2021-10-14 15:45:20.634858,-45
2021-10-14 15:45:20.634866,-45
2021-10-14 15:45:20.634875,-36
2021-10-14 15:45:20.634883,-31
2021-10-14 15:45:20.634891,-48
2021-10-14 15:45:20.634900,-60
2021-10-14 15:45:20.634908,-50
2021-10-14 15:45:20.634916,-43
2021-10-14 15:45:20.634924,-43
2021-10-14 15:45:20.634932,-48
2021-10-14 15:45:20.634941,-57
2021-10-14 15:45:20.634949,-62
2021-10-14 15:45:20.634957,-55
2021-10-14 15:45:20.634965,-60
2021-10-14 15:45:20.634973,-79
2021-10-14 15:45:20.634982,-88
2021-10-14 15:45:20.634990,-88
2021-10-14 15:45:20.634998,-81
2021-10-14 15:45:20.635006,-74
2021-10-14 15:45:20.635014,-67
2021-10-14 15:45:20.635022,-64
2021-10-14 15:45:20.635031,-69
2021-10-14 15:45:20.635039,-67
2021-10-14 15:45:20.635047,-64
2021-10-14 15:45:20.635056,-60
2021-10-14 15:45:20.635064,-55
2021-10-14 15:45:20.813957,-45
2021-10-14 15:45:20.813978,-40
2021-10-14 15:45:20.813987,-40
2021-10-14 15:45:20.813996,-36
2021-10-14 15:45:20.814004,-26
2021-10-14 15:45:20.814013,-21
2021-10-14 15:45:20.814021,-9
2021-10-14 15:45:20.814030,-4
2021-10-14 15:45:20.814038,-26
2021-10-14 15:45:20.814047,-50
2021-10-14 15:45:20.814055,-48
2021-10-14 15:45:20.814063,-38
2021-10-14 15:45:20.814072,-36
2021-10-14 15:45:20.814080,-45
2021-10-14 15:45:20.814088,-52
2021-10-14 15:45:20.814097,-48
2021-10-14 15:45:20.814105,-38
2021-10-14 15:45:20.814113,-28
2021-10-14 15:45:20.814122,-26
2021-10-14 15:45:20.814130,-24
2021-10-14 15:45:20.814138,33
2021-10-14 15:45:20.814147,264
2021-10-14 15:45:20.814155,644
2021-10-14 15:45:20.814164,728
2021-10-14 15:45:20.814172,33
2021-10-14 15:45:20.814180,-921
2021-10-14 15:45:20.814189,-1012
2021-10-14 15:45:20.814197,-430
2021-10-14 15:45:20.814205,-146
2021-10-14 15:45:20.814213,-113
2021-10-14 15:45:20.994624,9
2021-10-14 15:45:20.994662,64
2021-10-14 15:45:20.994672,26
2021-10-14 15:45:20.994681,36
2021-10-14 15:45:20.994689,57
2021-10-14 15:45:20.994697,52
2021-10-14 15:45:20.994705,50
2021-10-14 15:45:20.994713,57
2021-10-14 15:45:20.994721,67
2021-10-14 15:45:20.994729,69
2021-10-14 15:45:20.994737,72
2021-10-14 15:45:20.994745,81
2021-10-14 15:45:20.994753,81
2021-10-14 15:45:20.994761,79
2021-10-14 15:45:20.994769,88
2021-10-14 15:45:20.994776,103
2021-10-14 15:45:20.994784,113
2021-10-14 15:45:20.994792,127
2021-10-14 15:45:20.994800,137
2021-10-14 15:45:20.994808,141
2021-10-14 15:45:20.994816,149
2021-10-14 15:45:20.994824,144
2021-10-14 15:45:20.994832,132
2021-10-14 15:45:20.994841,122
2021-10-14 15:45:20.994849,96
2021-10-14 15:45:20.994857,62
2021-10-14 15:45:20.994865,38
2021-10-14 15:45:20.994873,12
2021-10-14 15:45:20.994881,-24
2021-10-14 15:45:20.994888,-52
2021-10-14 15:45:21.219603,-81
2021-10-14 15:45:21.219625,-101
2021-10-14 15:45:21.219633,-113
2021-10-14 15:45:21.219641,-127
2021-10-14 15:45:21.219648,-137
2021-10-14 15:45:21.219655,-146
2021-10-14 15:45:21.219662,-163
2021-10-14 15:45:21.219670,-165
2021-10-14 15:45:21.219677,-163
2021-10-14 15:45:21.219685,-175
2021-10-14 15:45:21.219693,-175
2021-10-14 15:45:21.219700,-170
2021-10-14 15:45:21.219708,-175
2021-10-14 15:45:21.219715,-168
2021-10-14 15:45:21.219723,-153
2021-10-14 15:45:21.219731,-153
2021-10-14 15:45:21.219738,-146
2021-10-14 15:45:21.219745,-132
2021-10-14 15:45:21.219752,-125
2021-10-14 15:45:21.219761,-117
2021-10-14 15:45:21.219768,-115
2021-10-14 15:45:21.219776,-113
2021-10-14 15:45:21.219784,-108
2021-10-14 15:45:21.219792,-103
2021-10-14 15:45:21.219801,-105
2021-10-14 15:45:21.219809,-98
2021-10-14 15:45:21.219816,-96
2021-10-14 15:45:21.219824,-101
2021-10-14 15:45:21.219831,-98
2021-10-14 15:45:21.219839,-96
2021-10-14 15:45:21.444725,-93
2021-10-14 15:45:21.444747,-88
2021-10-14 15:45:21.444756,-86
2021-10-14 15:45:21.444765,-91
2021-10-14 15:45:21.444773,-96
2021-10-14 15:45:21.444782,-103
2021-10-14 15:45:21.444790,-103
2021-10-14 15:45:21.444799,-96
2021-10-14 15:45:21.444807,-88
2021-10-14 15:45:21.444816,-88
2021-10-14 15:45:21.444824,-91
2021-10-14 15:45:21.444832,-96
2021-10-14 15:45:21.444841,-93
2021-10-14 15:45:21.444849,-86
2021-10-14 15:45:21.444858,-86
2021-10-14 15:45:21.444866,-84
2021-10-14 15:45:21.444874,-81
2021-10-14 15:45:21.444883,-76
2021-10-14 15:45:21.444892,-67
2021-10-14 15:45:21.444900,-60
2021-10-14 15:45:21.444908,-60
2021-10-14 15:45:21.444917,-60
2021-10-14 15:45:21.444925,-57
2021-10-14 15:45:21.444934,-55
2021-10-14 15:45:21.444942,-48
2021-10-14 15:45:21.444950,-43
2021-10-14 15:45:21.444959,-40
2021-10-14 15:45:21.444967,-33
2021-10-14 15:45:21.444980,-19
2021-10-14 15:45:21.444988,-36
2021-10-14 15:45:21.669980,-72
2021-10-14 15:45:21.670000,-88
2021-10-14 15:45:21.670010,-81
2021-10-14 15:45:21.670018,-81
2021-10-14 15:45:21.670027,-91
2021-10-14 15:45:21.670035,-93
2021-10-14 15:45:21.670044,-84
2021-10-14 15:45:21.670052,-72
2021-10-14 15:45:21.670060,-67
2021-10-14 15:45:21.670068,-67
2021-10-14 15:45:21.670077,-69
2021-10-14 15:45:21.670085,-38
2021-10-14 15:45:21.670093,101
2021-10-14 15:45:21.670102,430
2021-10-14 15:45:21.670110,721
2021-10-14 15:45:21.670118,428
2021-10-14 15:45:21.670127,-500
2021-10-14 15:45:21.670135,-1077
2021-10-14 15:45:21.670143,-709
2021-10-14 15:45:21.670152,-216
2021-10-14 15:45:21.670160,-127
2021-10-14 15:45:21.670168,-60
2021-10-14 15:45:21.670176,48
2021-10-14 15:45:21.670185,43
2021-10-14 15:45:21.670193,33
2021-10-14 15:45:21.670201,67
2021-10-14 15:45:21.670209,69
2021-10-14 15:45:21.670218,57
2021-10-14 15:45:21.670226,62
2021-10-14 15:45:21.670234,72
2021-10-14 15:45:21.984971,79
2021-10-14 15:45:21.984993,84
2021-10-14 15:45:21.985003,88
2021-10-14 15:45:21.985011,86
2021-10-14 15:45:21.985020,84
2021-10-14 15:45:21.985029,96
2021-10-14 15:45:21.985038,117
2021-10-14 15:45:21.985047,125
2021-10-14 15:45:21.985056,134
2021-10-14 15:45:21.985064,139
2021-10-14 15:45:21.985072,144
2021-10-14 15:45:21.985081,153
2021-10-14 15:45:21.985089,161
2021-10-14 15:45:21.985097,163
2021-10-14 15:45:21.985106,158
2021-10-14 15:45:21.985114,144
2021-10-14 15:45:21.985123,120
2021-10-14 15:45:21.985131,98
2021-10-14 15:45:21.985139,86
2021-10-14 15:45:21.985148,62
2021-10-14 15:45:21.985156,24
2021-10-14 15:45:21.985164,-9
2021-10-14 15:45:21.985173,-21
2021-10-14 15:45:21.985181,-38
2021-10-14 15:45:21.985189,-57
2021-10-14 15:45:21.985198,-60
2021-10-14 15:45:21.985206,-60
2021-10-14 15:45:21.985214,-76
2021-10-14 15:45:21.985223,-93
2021-10-14 15:45:21.985231,-88
2021-10-14 15:45:22.209613,-84
2021-10-14 15:45:22.209640,-84
2021-10-14 15:45:22.209650,-88
2021-10-14 15:45:22.209659,-101
2021-10-14 15:45:22.209667,-105
2021-10-14 15:45:22.209675,-98
2021-10-14 15:45:22.209684,-105
2021-10-14 15:45:22.209692,-103
2021-10-14 15:45:22.209700,-88
2021-10-14 15:45:22.209708,-93
2021-10-14 15:45:22.209717,-98
2021-10-14 15:45:22.209725,-84
2021-10-14 15:45:22.209733,-74
2021-10-14 15:45:22.209741,-69
2021-10-14 15:45:22.209750,-67
2021-10-14 15:45:22.209758,-64
2021-10-14 15:45:22.209766,-57
2021-10-14 15:45:22.209774,-50
2021-10-14 15:45:22.209783,-52
2021-10-14 15:45:22.209791,-50
2021-10-14 15:45:22.209799,-52
2021-10-14 15:45:22.209807,-69
2021-10-14 15:45:22.209815,-67
2021-10-14 15:45:22.209823,-52
2021-10-14 15:45:22.209831,-50
2021-10-14 15:45:22.209840,-50
2021-10-14 15:45:22.209848,-52
2021-10-14 15:45:22.209856,-57
2021-10-14 15:45:22.209865,-48
2021-10-14 15:45:22.209873,-38
2021-10-14 15:45:22.433400,-43
2021-10-14 15:45:22.433421,-48
2021-10-14 15:45:22.433431,-55
2021-10-14 15:45:22.433439,-55
2021-10-14 15:45:22.433448,-36
2021-10-14 15:45:22.433456,-24
2021-10-14 15:45:22.433464,-26
2021-10-14 15:45:22.433472,-24
2021-10-14 15:45:22.433481,-21
2021-10-14 15:45:22.433489,-21
2021-10-14 15:45:22.433497,-9
2021-10-14 15:45:22.433506,2
2021-10-14 15:45:22.433514,2
2021-10-14 15:45:22.433522,4
2021-10-14 15:45:22.433530,9
2021-10-14 15:45:22.433539,-2
2021-10-14 15:45:22.433547,-21
2021-10-14 15:45:22.433554,-24
2021-10-14 15:45:22.433563,-16
2021-10-14 15:45:22.433571,-24
2021-10-14 15:45:22.433579,-38
2021-10-14 15:45:22.433587,-31
2021-10-14 15:45:22.433595,-19
2021-10-14 15:45:22.433603,-16
2021-10-14 15:45:22.433611,-9
2021-10-14 15:45:22.433620,-4
2021-10-14 15:45:22.433628,4
2021-10-14 15:45:22.433636,52
2021-10-14 15:45:22.433645,226
2021-10-14 15:45:22.433653,567
2021-10-14 15:45:22.614983,750
2021-10-14 15:45:22.615004,218
2021-10-14 15:45:22.615013,-738
2021-10-14 15:45:22.615022,-1017
2021-10-14 15:45:22.615030,-531
2021-10-14 15:45:22.615039,-187
2021-10-14 15:45:22.615047,-113
2021-10-14 15:45:22.615055,12
2021-10-14 15:45:22.615063,81
2021-10-14 15:45:22.615071,55
2021-10-14 15:45:22.615080,60
2021-10-14 15:45:22.615088,74
2021-10-14 15:45:22.615096,64
2021-10-14 15:45:22.615104,69
2021-10-14 15:45:22.615113,74
2021-10-14 15:45:22.615121,64
2021-10-14 15:45:22.615129,72
2021-10-14 15:45:22.615137,96
2021-10-14 15:45:22.615145,98
2021-10-14 15:45:22.615159,96
2021-10-14 15:45:22.615168,110
2021-10-14 15:45:22.615177,122
2021-10-14 15:45:22.615185,134
2021-10-14 15:45:22.615193,146
2021-10-14 15:45:22.615201,146
2021-10-14 15:45:22.615209,156
2021-10-14 15:45:22.615218,180
2021-10-14 15:45:22.615226,194
2021-10-14 15:45:22.615234,189
2021-10-14 15:45:22.615242,185
2021-10-14 15:45:22.839643,175
2021-10-14 15:45:22.839665,153
2021-10-14 15:45:22.839674,139
2021-10-14 15:45:22.839683,115
2021-10-14 15:45:22.839691,74
2021-10-14 15:45:22.839700,28
2021-10-14 15:45:22.839709,-16
2021-10-14 15:45:22.839717,-48
2021-10-14 15:45:22.839754,-67
2021-10-14 15:45:22.839763,-93
2021-10-14 15:45:22.839771,-117
2021-10-14 15:45:22.839780,-117
2021-10-14 15:45:22.839788,-115
2021-10-14 15:45:22.839796,-122
2021-10-14 15:45:22.839870,-125
2021-10-14 15:45:22.839879,-125
2021-10-14 15:45:22.839888,-125
2021-10-14 15:45:22.839896,-110
2021-10-14 15:45:22.839905,-101
2021-10-14 15:45:22.839913,-96
2021-10-14 15:45:22.839921,-101
2021-10-14 15:45:22.839930,-96
2021-10-14 15:45:22.839938,-69
2021-10-14 15:45:22.839947,-67
2021-10-14 15:45:22.839955,-86
2021-10-14 15:45:22.839963,-79
2021-10-14 15:45:22.839972,-69
2021-10-14 15:45:22.839980,-69
2021-10-14 15:45:22.839989,-62
2021-10-14 15:45:22.839997,-62
2021-10-14 15:45:23.064622,-67
2021-10-14 15:45:23.064645,-67
2021-10-14 15:45:23.064655,-76
2021-10-14 15:45:23.064663,-88
2021-10-14 15:45:23.064672,-76
2021-10-14 15:45:23.064680,-69
2021-10-14 15:45:23.064689,-93
2021-10-14 15:45:23.064697,-108
2021-10-14 15:45:23.064706,-110
2021-10-14 15:45:23.064714,-96
2021-10-14 15:45:23.064723,-81
2021-10-14 15:45:23.064731,-96
2021-10-14 15:45:23.064739,-125
2021-10-14 15:45:23.064748,-113
2021-10-14 15:45:23.064756,-101
2021-10-14 15:45:23.064764,-139
2021-10-14 15:45:23.064773,-161
2021-10-14 15:45:23.064781,-137
2021-10-14 15:45:23.064789,-132
2021-10-14 15:45:23.064798,-132
2021-10-14 15:45:23.064806,-91
2021-10-14 15:45:23.064814,-52
2021-10-14 15:45:23.064822,-57
2021-10-14 15:45:23.064830,-50
2021-10-14 15:45:23.064839,-36
2021-10-14 15:45:23.064847,-57
2021-10-14 15:45:23.064855,-79
2021-10-14 15:45:23.064863,-81
2021-10-14 15:45:23.064872,-74
2021-10-14 15:45:23.064880,-74
2021-10-14 15:45:23.289628,-76
2021-10-14 15:45:23.289650,-67
2021-10-14 15:45:23.289660,-57
2021-10-14 15:45:23.289668,-57
2021-10-14 15:45:23.289677,-55
2021-10-14 15:45:23.289685,-50
2021-10-14 15:45:23.289693,-24
2021-10-14 15:45:23.289702,101
2021-10-14 15:45:23.289710,416
2021-10-14 15:45:23.289719,738
2021-10-14 15:45:23.289727,461
2021-10-14 15:45:23.289735,-545
2021-10-14 15:45:23.289744,-1231
2021-10-14 15:45:23.289752,-872
2021-10-14 15:45:23.289760,-322
2021-10-14 15:45:23.289769,-189
2021-10-14 15:45:23.289777,-86
2021-10-14 15:45:23.289785,60
2021-10-14 15:45:23.289793,64
2021-10-14 15:45:23.289802,33
2021-10-14 15:45:23.289810,60
2021-10-14 15:45:23.289818,79
2021-10-14 15:45:23.289826,81
2021-10-14 15:45:23.289835,86
2021-10-14 15:45:23.289843,88
2021-10-14 15:45:23.289851,96
2021-10-14 15:45:23.289859,110
2021-10-14 15:45:23.289868,117
2021-10-14 15:45:23.289876,125
2021-10-14 15:45:23.289884,134
2021-10-14 15:45:23.514616,144
2021-10-14 15:45:23.514638,153
2021-10-14 15:45:23.514647,168
2021-10-14 15:45:23.514655,177
2021-10-14 15:45:23.514663,187
2021-10-14 15:45:23.514672,206
2021-10-14 15:45:23.514680,218
2021-10-14 15:45:23.514689,211
2021-10-14 15:45:23.514697,211
2021-10-14 15:45:23.514705,206
2021-10-14 15:45:23.514713,170
2021-10-14 15:45:23.514722,137
2021-10-14 15:45:23.514730,117
2021-10-14 15:45:23.514738,76
2021-10-14 15:45:23.514747,26
2021-10-14 15:45:23.514755,-4
2021-10-14 15:45:23.514763,-33
2021-10-14 15:45:23.514771,-69
2021-10-14 15:45:23.514780,-91
2021-10-14 15:45:23.514788,-103
2021-10-14 15:45:23.514796,-113
2021-10-14 15:45:23.514804,-113
2021-10-14 15:45:23.514812,-125
2021-10-14 15:45:23.514821,-146
2021-10-14 15:45:23.514829,-139
2021-10-14 15:45:23.514837,-122
2021-10-14 15:45:23.514846,-129
2021-10-14 15:45:23.514854,-137
2021-10-14 15:45:23.514862,-125
2021-10-14 15:45:23.514870,-110
2021-10-14 15:45:23.784973,-110
2021-10-14 15:45:23.784994,-101
2021-10-14 15:45:23.785003,-84
2021-10-14 15:45:23.785012,-81
2021-10-14 15:45:23.785020,-88
2021-10-14 15:45:23.785029,-79
2021-10-14 15:45:23.785037,-67
2021-10-14 15:45:23.785045,-64
2021-10-14 15:45:23.785053,-67
2021-10-14 15:45:23.785062,-76
2021-10-14 15:45:23.785070,-88
2021-10-14 15:45:23.785078,-76
2021-10-14 15:45:23.785086,-72
2021-10-14 15:45:23.785095,-86
2021-10-14 15:45:23.785103,-101
2021-10-14 15:45:23.785111,-110
2021-10-14 15:45:23.785119,-115
2021-10-14 15:45:23.785128,-108
2021-10-14 15:45:23.785136,-96
2021-10-14 15:45:23.785144,-96
2021-10-14 15:45:23.785152,-98
2021-10-14 15:45:23.785161,-103
2021-10-14 15:45:23.785169,-110
2021-10-14 15:45:23.785177,-108
2021-10-14 15:45:23.785185,-91
2021-10-14 15:45:23.785194,-84
2021-10-14 15:45:23.785202,-81
2021-10-14 15:45:23.785210,-76
2021-10-14 15:45:23.785219,-81
2021-10-14 15:45:23.785227,-98
2021-10-14 15:45:24.054574,-108
2021-10-14 15:45:24.054595,-98
2021-10-14 15:45:24.054605,-103
2021-10-14 15:45:24.054614,-120
2021-10-14 15:45:24.054623,-113
2021-10-14 15:45:24.054630,-93
2021-10-14 15:45:24.054638,-86
2021-10-14 15:45:24.054647,-88
2021-10-14 15:45:24.054655,-88
2021-10-14 15:45:24.054663,-88
2021-10-14 15:45:24.054672,-55
2021-10-14 15:45:24.054680,96
2021-10-14 15:45:24.054689,454
2021-10-14 15:45:24.054697,764
2021-10-14 15:45:24.054705,382
2021-10-14 15:45:24.054714,-678
2021-10-14 15:45:24.054722,-1248
2021-10-14 15:45:24.054730,-798
2021-10-14 15:45:24.054739,-298
2021-10-14 15:45:24.054747,-214
2021-10-14 15:45:24.054756,-105
2021-10-14 15:45:24.054764,19
2021-10-14 15:45:24.054772,0
2021-10-14 15:45:24.054780,-7
2021-10-14 15:45:24.054789,36
2021-10-14 15:45:24.054797,38
2021-10-14 15:45:24.054806,24
2021-10-14 15:45:24.054814,33
2021-10-14 15:45:24.054822,33
2021-10-14 15:45:24.054830,24
2021-10-14 15:45:24.234636,26
2021-10-14 15:45:24.234657,40
2021-10-14 15:45:24.234666,45
2021-10-14 15:45:24.234675,50
2021-10-14 15:45:24.234683,64
2021-10-14 15:45:24.234691,81
2021-10-14 15:45:24.234700,96
2021-10-14 15:45:24.234708,120
2021-10-14 15:45:24.234716,132
2021-10-14 15:45:24.234724,134
2021-10-14 15:45:24.234733,141
2021-10-14 15:45:24.234741,153
2021-10-14 15:45:24.234750,151
2021-10-14 15:45:24.234758,134
2021-10-14 15:45:24.234766,103
2021-10-14 15:45:24.234774,72
2021-10-14 15:45:24.234782,52
2021-10-14 15:45:24.234791,24
2021-10-14 15:45:24.234799,-24
2021-10-14 15:45:24.234807,-62
2021-10-14 15:45:24.234816,-88
2021-10-14 15:45:24.234824,-110
2021-10-14 15:45:24.234832,-122
2021-10-14 15:45:24.234840,-132
2021-10-14 15:45:24.234849,-137
2021-10-14 15:45:24.234857,-137
2021-10-14 15:45:24.234865,-144
2021-10-14 15:45:24.234873,-149
2021-10-14 15:45:24.234882,-146
2021-10-14 15:45:24.234890,-137
2021-10-14 15:45:24.503675,-132
2021-10-14 15:45:24.503698,-129
2021-10-14 15:45:24.503709,-129
2021-10-14 15:45:24.503718,-127
2021-10-14 15:45:24.503727,-115
2021-10-14 15:45:24.503737,-98
2021-10-14 15:45:24.503746,-86
2021-10-14 15:45:24.503755,-84
2021-10-14 15:45:24.503764,-86
2021-10-14 15:45:24.503773,-81
2021-10-14 15:45:24.503782,-64
2021-10-14 15:45:24.503791,-60
2021-10-14 15:45:24.503799,-62
2021-10-14 15:45:24.503808,-62
2021-10-14 15:45:24.503817,-60
2021-10-14 15:45:24.503825,-60
2021-10-14 15:45:24.503835,-57
2021-10-14 15:45:24.503844,-55
2021-10-14 15:45:24.503853,-55
2021-10-14 15:45:24.503862,-57
2021-10-14 15:45:24.503871,-62
2021-10-14 15:45:24.503880,-62
2021-10-14 15:45:24.503889,-57
2021-10-14 15:45:24.503897,-55
2021-10-14 15:45:24.503906,-55
2021-10-14 15:45:24.503915,-57
2021-10-14 15:45:24.503924,-57
2021-10-14 15:45:24.503934,-52
2021-10-14 15:45:24.503943,-48
2021-10-14 15:45:24.503952,-45
2021-10-14 15:45:24.684802,-48
2021-10-14 15:45:24.684823,-43
2021-10-14 15:45:24.684832,-43
2021-10-14 15:45:24.684841,-48
2021-10-14 15:45:24.684849,-50
2021-10-14 15:45:24.684858,-52
2021-10-14 15:45:24.684866,-62
2021-10-14 15:45:24.684874,-67
2021-10-14 15:45:24.684883,-57
2021-10-14 15:45:24.684891,-50
2021-10-14 15:45:24.684899,-64
2021-10-14 15:45:24.684908,-86
2021-10-14 15:45:24.684916,-98
2021-10-14 15:45:24.684924,-103
2021-10-14 15:45:24.684933,-105
2021-10-14 15:45:24.684941,-101
2021-10-14 15:45:24.684950,-98
2021-10-14 15:45:24.684958,-91
2021-10-14 15:45:24.684966,-86
2021-10-14 15:45:24.684975,-84
2021-10-14 15:45:24.684983,-79
2021-10-14 15:45:24.684991,-69
2021-10-14 15:45:24.685000,-33
2021-10-14 15:45:24.685008,125
2021-10-14 15:45:24.685048,476
2021-10-14 15:45:24.685059,723
2021-10-14 15:45:24.685079,315
2021-10-14 15:45:24.685088,-658
2021-10-14 15:45:24.685097,-1135
2021-10-14 15:45:24.685115,-663
2021-10-14 15:45:24.910064,-185
2021-10-14 15:45:24.910092,-129
2021-10-14 15:45:24.910103,-57
2021-10-14 15:45:24.910127,43
2021-10-14 15:45:24.910136,24
2021-10-14 15:45:24.910145,7
2021-10-14 15:45:24.910153,31
2021-10-14 15:45:24.910161,38
2021-10-14 15:45:24.910170,36
2021-10-14 15:45:24.910177,43
2021-10-14 15:45:24.910185,48
2021-10-14 15:45:24.910207,52
2021-10-14 15:45:24.910215,52
2021-10-14 15:45:24.910223,55
2021-10-14 15:45:24.910231,74
2021-10-14 15:45:24.910238,88
2021-10-14 15:45:24.910246,93
2021-10-14 15:45:24.910254,103
2021-10-14 15:45:24.910262,113
2021-10-14 15:45:24.910270,120
2021-10-14 15:45:24.910278,132
2021-10-14 15:45:24.910286,139
2021-10-14 15:45:24.910293,146
2021-10-14 15:45:24.910302,149
2021-10-14 15:45:24.910309,139
2021-10-14 15:45:24.910317,125
2021-10-14 15:45:24.910342,110
2021-10-14 15:45:24.910372,91
2021-10-14 15:45:24.910382,64
2021-10-14 15:45:24.910389,40
2021-10-14 15:45:25.134672,19
2021-10-14 15:45:25.134694,2
2021-10-14 15:45:25.134703,-14
2021-10-14 15:45:25.134712,-36
2021-10-14 15:45:25.134720,-50
2021-10-14 15:45:25.134729,-72
2021-10-14 15:45:25.134737,-88
2021-10-14 15:45:25.134745,-86
2021-10-14 15:45:25.134754,-84
2021-10-14 15:45:25.134762,-93
2021-10-14 15:45:25.134770,-108
2021-10-14 15:45:25.134778,-127
2021-10-14 15:45:25.134786,-129
2021-10-14 15:45:25.134795,-108
2021-10-14 15:45:25.134803,-96
2021-10-14 15:45:25.134811,-91
2021-10-14 15:45:25.134819,-81
2021-10-14 15:45:25.134827,-69
2021-10-14 15:45:25.134835,-62
2021-10-14 15:45:25.134844,-52
2021-10-14 15:45:25.134852,-48
2021-10-14 15:45:25.134860,-50
2021-10-14 15:45:25.134868,-50
2021-10-14 15:45:25.134877,-45
2021-10-14 15:45:25.134885,-40
2021-10-14 15:45:25.134893,-36
2021-10-14 15:45:25.134901,-43
2021-10-14 15:45:25.134909,-55
2021-10-14 15:45:25.134917,-52
2021-10-14 15:45:25.134926,-50
2021-10-14 15:45:25.360253,-50
2021-10-14 15:45:25.360298,-45
2021-10-14 15:45:25.360327,-40
2021-10-14 15:45:25.360346,-45
2021-10-14 15:45:25.360363,-55
2021-10-14 15:45:25.360388,-57
2021-10-14 15:45:25.360414,-50
2021-10-14 15:45:25.360436,-48
2021-10-14 15:45:25.360481,-50
2021-10-14 15:45:25.360504,-50
2021-10-14 15:45:25.360526,-52
2021-10-14 15:45:25.360544,-52
2021-10-14 15:45:25.360566,-45
2021-10-14 15:45:25.360584,-38
2021-10-14 15:45:25.360607,-38
2021-10-14 15:45:25.361396,-38
2021-10-14 15:45:25.361456,-36
2021-10-14 15:45:25.361489,-33
2021-10-14 15:45:25.361505,-24
2021-10-14 15:45:25.361517,-14
2021-10-14 15:45:25.361525,-14
2021-10-14 15:45:25.361536,-19
2021-10-14 15:45:25.361545,-16
2021-10-14 15:45:25.361553,-12
2021-10-14 15:45:25.361561,-7
2021-10-14 15:45:25.361569,-2
2021-10-14 15:45:25.361577,7
2021-10-14 15:45:25.361590,4
2021-10-14 15:45:25.361617,-24
2021-10-14 15:45:25.361710,-52
2021-10-14 15:45:25.630017,-60
2021-10-14 15:45:25.630038,-52
2021-10-14 15:45:25.630047,-55
2021-10-14 15:45:25.630056,-69
2021-10-14 15:45:25.630064,-79
2021-10-14 15:45:25.630073,-72
2021-10-14 15:45:25.630081,-64
2021-10-14 15:45:25.630089,-67
2021-10-14 15:45:25.630097,-62
2021-10-14 15:45:25.630106,-57
2021-10-14 15:45:25.630114,-19
2021-10-14 15:45:25.630123,158
2021-10-14 15:45:25.630131,497
2021-10-14 15:45:25.630139,654
2021-10-14 15:45:25.630147,149
2021-10-14 15:45:25.630156,-735
2021-10-14 15:45:25.630164,-1000
2021-10-14 15:45:25.630172,-538
2021-10-14 15:45:25.630181,-187
2021-10-14 15:45:25.630189,-127
2021-10-14 15:45:25.630197,-36
2021-10-14 15:45:25.630205,26
2021-10-14 15:45:25.630214,2
2021-10-14 15:45:25.630222,7
2021-10-14 15:45:25.630230,36
2021-10-14 15:45:25.630238,36
2021-10-14 15:45:25.630247,31
2021-10-14 15:45:25.630255,36
2021-10-14 15:45:25.630268,40
2021-10-14 15:45:25.630277,48
2021-10-14 15:45:25.854866,48
2021-10-14 15:45:25.854889,48
2021-10-14 15:45:25.854898,52
2021-10-14 15:45:25.854906,57
2021-10-14 15:45:25.854914,64
2021-10-14 15:45:25.854921,81
2021-10-14 15:45:25.854929,93
2021-10-14 15:45:25.854937,96
2021-10-14 15:45:25.854944,101
2021-10-14 15:45:25.854952,108
2021-10-14 15:45:25.854959,110
2021-10-14 15:45:25.854967,115
2021-10-14 15:45:25.854975,113
2021-10-14 15:45:25.854982,103
2021-10-14 15:45:25.854990,84
2021-10-14 15:45:25.854998,60
2021-10-14 15:45:25.855005,40
2021-10-14 15:45:25.855013,24
2021-10-14 15:45:25.855021,-2
2021-10-14 15:45:25.855029,-24
2021-10-14 15:45:25.855036,-43
2021-10-14 15:45:25.855043,-67
2021-10-14 15:45:25.855050,-74
2021-10-14 15:45:25.855057,-74
2021-10-14 15:45:25.855064,-79
2021-10-14 15:45:25.855072,-84
2021-10-14 15:45:25.855079,-88
2021-10-14 15:45:25.855086,-96
2021-10-14 15:45:25.855094,-93
2021-10-14 15:45:25.855101,-86
2021-10-14 15:45:26.125005,-81
2021-10-14 15:45:26.125025,-76
2021-10-14 15:45:26.125035,-79
2021-10-14 15:45:26.125044,-81
2021-10-14 15:45:26.125052,-69
2021-10-14 15:45:26.125060,-60
2021-10-14 15:45:26.125068,-57
2021-10-14 15:45:26.125077,-57
2021-10-14 15:45:26.125085,-64
2021-10-14 15:45:26.125093,-69
2021-10-14 15:45:26.125102,-60
2021-10-14 15:45:26.125110,-45
2021-10-14 15:45:26.125118,-40
2021-10-14 15:45:26.125127,-48
2021-10-14 15:45:26.125135,-57
2021-10-14 15:45:26.125143,-64
2021-10-14 15:45:26.125152,-60
2021-10-14 15:45:26.125160,-52
2021-10-14 15:45:26.125168,-52
2021-10-14 15:45:26.125177,-50
2021-10-14 15:45:26.125185,-55
2021-10-14 15:45:26.125193,-74
2021-10-14 15:45:26.125202,-81
2021-10-14 15:45:26.125210,-76
2021-10-14 15:45:26.125218,-72
2021-10-14 15:45:26.125227,-72
2021-10-14 15:45:26.125235,-74
2021-10-14 15:45:26.125243,-72
2021-10-14 15:45:26.125251,-67
2021-10-14 15:45:26.125259,-62
2021-10-14 15:45:26.394043,-55
2021-10-14 15:45:26.394073,-50
2021-10-14 15:45:26.394082,-52
2021-10-14 15:45:26.394091,-55
2021-10-14 15:45:26.394099,-52
2021-10-14 15:45:26.394107,-52
2021-10-14 15:45:26.394115,-55
2021-10-14 15:45:26.394124,-60
2021-10-14 15:45:26.394132,-62
2021-10-14 15:45:26.394140,-62
2021-10-14 15:45:26.394148,-64
2021-10-14 15:45:26.394156,-60
2021-10-14 15:45:26.394165,-48
2021-10-14 15:45:26.394173,-38
2021-10-14 15:45:26.394181,-43
2021-10-14 15:45:26.394189,-43
2021-10-14 15:45:26.394197,-36
2021-10-14 15:45:26.394206,-43
2021-10-14 15:45:26.394214,-74
2021-10-14 15:45:26.394222,-103
2021-10-14 15:45:26.394230,-103
2021-10-14 15:45:26.394238,-91
2021-10-14 15:45:26.394246,-88
2021-10-14 15:45:26.394254,-88
2021-10-14 15:45:26.394263,-84
2021-10-14 15:45:26.394271,-79
2021-10-14 15:45:26.394279,-79
2021-10-14 15:45:26.394287,-74
2021-10-14 15:45:26.394295,-60
2021-10-14 15:45:26.394303,-36
2021-10-14 15:45:26.618640,43
2021-10-14 15:45:26.618661,278
2021-10-14 15:45:26.618671,593
2021-10-14 15:45:26.618680,519
2021-10-14 15:45:26.618689,-242
2021-10-14 15:45:26.618697,-949
2021-10-14 15:45:26.618706,-808
2021-10-14 15:45:26.618715,-348
2021-10-14 15:45:26.618724,-182
2021-10-14 15:45:26.618732,-86
2021-10-14 15:45:26.618741,36
2021-10-14 15:45:26.618750,55
2021-10-14 15:45:26.618758,31
2021-10-14 15:45:26.618767,43
2021-10-14 15:45:26.618780,55
2021-10-14 15:45:26.618790,55
2021-10-14 15:45:26.618798,67
2021-10-14 15:45:26.618807,74
2021-10-14 15:45:26.618815,72
2021-10-14 15:45:26.618824,74
2021-10-14 15:45:26.618832,84
2021-10-14 15:45:26.618841,84
2021-10-14 15:45:26.618849,91
2021-10-14 15:45:26.618858,98
2021-10-14 15:45:26.618866,103
2021-10-14 15:45:26.618875,110
2021-10-14 15:45:26.618884,117
2021-10-14 15:45:26.618892,113
2021-10-14 15:45:26.618901,120
2021-10-14 15:45:26.618909,129
2021-10-14 15:45:26.754893,122
2021-10-14 15:45:26.754914,120
2021-10-14 15:45:26.754923,120
2021-10-14 15:45:26.754931,105
2021-10-14 15:45:26.754940,84
2021-10-14 15:45:26.754948,69
2021-10-14 15:45:26.754957,50
2021-10-14 15:45:26.754965,28
2021-10-14 15:45:26.754974,2
2021-10-14 15:45:26.754982,-21
2021-10-14 15:45:26.754990,-36
2021-10-14 15:45:26.754999,-48
2021-10-14 15:45:26.755007,-74
2021-10-14 15:45:26.755015,-86
2021-10-14 15:45:26.755024,-84
2021-10-14 15:45:26.755032,-84
2021-10-14 15:45:26.755040,-91
2021-10-14 15:45:26.755049,-98
2021-10-14 15:45:26.755057,-101
2021-10-14 15:45:26.755065,-88
2021-10-14 15:45:26.755074,-79
2021-10-14 15:45:26.755082,-76
2021-10-14 15:45:26.755090,-74
2021-10-14 15:45:26.755098,-67
2021-10-14 15:45:26.755107,-62
2021-10-14 15:45:26.755115,-55
2021-10-14 15:45:26.755123,-50
2021-10-14 15:45:26.755132,-43
2021-10-14 15:45:26.755140,-33
2021-10-14 15:45:26.755148,-33
2021-10-14 15:45:26.979660,-36
2021-10-14 15:45:26.979681,-31
2021-10-14 15:45:26.979690,-26
2021-10-14 15:45:26.979699,-31
2021-10-14 15:45:26.979707,-38
2021-10-14 15:45:26.979716,-43
2021-10-14 15:45:26.979724,-45
2021-10-14 15:45:26.979732,-43
2021-10-14 15:45:26.979740,-43
2021-10-14 15:45:26.979749,-45
2021-10-14 15:45:26.979757,-48
2021-10-14 15:45:26.979766,-62
2021-10-14 15:45:26.979774,-64
2021-10-14 15:45:26.979782,-55
2021-10-14 15:45:26.979790,-52
2021-10-14 15:45:26.979799,-55
2021-10-14 15:45:26.979807,-52
2021-10-14 15:45:26.979815,-50
2021-10-14 15:45:26.979823,-50
2021-10-14 15:45:26.979832,-50
2021-10-14 15:45:26.979840,-52
2021-10-14 15:45:26.979848,-52
2021-10-14 15:45:26.979856,-52
2021-10-14 15:45:26.979864,-50
2021-10-14 15:45:26.979873,-48
2021-10-14 15:45:26.979881,-52
2021-10-14 15:45:26.979889,-55
2021-10-14 15:45:26.979898,-55
2021-10-14 15:45:26.979906,-60
2021-10-14 15:45:26.979914,-60
2021-10-14 15:45:27.204635,-43
2021-10-14 15:45:27.204657,-38
2021-10-14 15:45:27.204666,-50
2021-10-14 15:45:27.204675,-50
2021-10-14 15:45:27.204683,-60
2021-10-14 15:45:27.204691,-93
2021-10-14 15:45:27.204700,-108
2021-10-14 15:45:27.204708,-91
2021-10-14 15:45:27.204716,-84
2021-10-14 15:45:27.204724,-88
2021-10-14 15:45:27.204733,-93
2021-10-14 15:45:27.204741,-96
2021-10-14 15:45:27.204749,-93
2021-10-14 15:45:27.204757,-93
2021-10-14 15:45:27.204766,-86
2021-10-14 15:45:27.204774,-76
2021-10-14 15:45:27.204782,-52
2021-10-14 15:45:27.204791,50
2021-10-14 15:45:27.204799,341
2021-10-14 15:45:27.204807,668
2021-10-14 15:45:27.204816,490
2021-10-14 15:45:27.204824,-391
2021-10-14 15:45:27.204832,-1072
2021-10-14 15:45:27.204841,-795
2021-10-14 15:45:27.204849,-288
2021-10-14 15:45:27.204857,-165
2021-10-14 15:45:27.204865,-76
2021-10-14 15:45:27.204873,45
2021-10-14 15:45:27.204882,38
2021-10-14 15:45:27.204890,19
2021-10-14 15:45:27.430037,55
2021-10-14 15:45:27.430058,69
2021-10-14 15:45:27.430068,62
2021-10-14 15:45:27.430076,62
2021-10-14 15:45:27.430085,60
2021-10-14 15:45:27.430093,64
2021-10-14 15:45:27.430101,79
2021-10-14 15:45:27.430110,91
2021-10-14 15:45:27.430118,98
2021-10-14 15:45:27.430126,98
2021-10-14 15:45:27.430134,98
2021-10-14 15:45:27.430143,110
2021-10-14 15:45:27.430151,125
2021-10-14 15:45:27.430159,134
2021-10-14 15:45:27.430167,139
2021-10-14 15:45:27.430175,139
2021-10-14 15:45:27.430183,146
2021-10-14 15:45:27.430191,153
2021-10-14 15:45:27.430200,151
2021-10-14 15:45:27.430208,141
2021-10-14 15:45:27.430216,129
2021-10-14 15:45:27.430224,108
2021-10-14 15:45:27.430232,84
2021-10-14 15:45:27.430241,62
2021-10-14 15:45:27.430249,36
2021-10-14 15:45:27.430257,14
2021-10-14 15:45:27.430265,-7
2021-10-14 15:45:27.430273,-33
2021-10-14 15:45:27.430282,-50
2021-10-14 15:45:27.430290,-45
2021-10-14 15:45:27.700113,-48
2021-10-14 15:45:27.700136,-64
2021-10-14 15:45:27.700145,-79
2021-10-14 15:45:27.700154,-86
2021-10-14 15:45:27.700161,-88
2021-10-14 15:45:27.700169,-84
2021-10-14 15:45:27.700176,-79
2021-10-14 15:45:27.700184,-79
2021-10-14 15:45:27.700192,-86
2021-10-14 15:45:27.700200,-93
2021-10-14 15:45:27.700208,-76
2021-10-14 15:45:27.700216,-60
2021-10-14 15:45:27.700224,-52
2021-10-14 15:45:27.700232,-48
2021-10-14 15:45:27.700239,-48
2021-10-14 15:45:27.700247,-52
2021-10-14 15:45:27.700255,-48
2021-10-14 15:45:27.700262,-45
2021-10-14 15:45:27.700270,-38
2021-10-14 15:45:27.700278,-26
2021-10-14 15:45:27.700286,-28
2021-10-14 15:45:27.700294,-38
2021-10-14 15:45:27.700301,-36
2021-10-14 15:45:27.700309,-40
2021-10-14 15:45:27.700317,-50
2021-10-14 15:45:27.700325,-45
2021-10-14 15:45:27.700333,-40
2021-10-14 15:45:27.700340,-48
2021-10-14 15:45:27.700348,-52
2021-10-14 15:45:27.700356,-48
2021-10-14 15:45:28.015069,-48
2021-10-14 15:45:28.015092,-60
2021-10-14 15:45:28.015101,-67
2021-10-14 15:45:28.015109,-62
2021-10-14 15:45:28.015116,-67
2021-10-14 15:45:28.015124,-69
2021-10-14 15:45:28.015133,-64
2021-10-14 15:45:28.015140,-55
2021-10-14 15:45:28.015148,-67
2021-10-14 15:45:28.015155,-76
2021-10-14 15:45:28.015163,-64
2021-10-14 15:45:28.015171,-55
2021-10-14 15:45:28.015179,-60
2021-10-14 15:45:28.015187,-64
2021-10-14 15:45:28.015195,-64
2021-10-14 15:45:28.015203,-64
2021-10-14 15:45:28.015211,-55
2021-10-14 15:45:28.015219,-48
2021-10-14 15:45:28.015227,-52
2021-10-14 15:45:28.015235,-60
2021-10-14 15:45:28.015243,-48
2021-10-14 15:45:28.015250,-33
2021-10-14 15:45:28.015258,-28
2021-10-14 15:45:28.015266,-12
2021-10-14 15:45:28.015273,-12
2021-10-14 15:45:28.015281,-43
2021-10-14 15:45:28.015289,-57
2021-10-14 15:45:28.015297,-52
2021-10-14 15:45:28.015305,-48
2021-10-14 15:45:28.015314,-43
2021-10-14 15:45:28.149705,-38
2021-10-14 15:45:28.149726,-36
2021-10-14 15:45:28.149736,-36
2021-10-14 15:45:28.149744,-36
2021-10-14 15:45:28.149753,-33
2021-10-14 15:45:28.149761,-24
2021-10-14 15:45:28.149769,0
2021-10-14 15:45:28.149778,91
2021-10-14 15:45:28.149786,353
2021-10-14 15:45:28.149795,697
2021-10-14 15:45:28.149803,608
2021-10-14 15:45:28.149811,-242
2021-10-14 15:45:28.149819,-1026
2021-10-14 15:45:28.149827,-841
2021-10-14 15:45:28.149834,-307
2021-10-14 15:45:28.149841,-151
2021-10-14 15:45:28.149847,-81
2021-10-14 15:45:28.149854,50
2021-10-14 15:45:28.149861,62
2021-10-14 15:45:28.149868,21
2021-10-14 15:45:28.149876,33
2021-10-14 15:45:28.149882,48
2021-10-14 15:45:28.149890,48
2021-10-14 15:45:28.149898,57
2021-10-14 15:45:28.149905,64
2021-10-14 15:45:28.149913,55
2021-10-14 15:45:28.149920,57
2021-10-14 15:45:28.149927,69
2021-10-14 15:45:28.149935,74
2021-10-14 15:45:28.149944,81
2021-10-14 15:45:28.375024,101
2021-10-14 15:45:28.375045,108
2021-10-14 15:45:28.375054,105
2021-10-14 15:45:28.375063,117
2021-10-14 15:45:28.375072,137
2021-10-14 15:45:28.375080,149
2021-10-14 15:45:28.375088,151
2021-10-14 15:45:28.375097,149
2021-10-14 15:45:28.375105,146
2021-10-14 15:45:28.375113,144
2021-10-14 15:45:28.375122,129
2021-10-14 15:45:28.375130,110
2021-10-14 15:45:28.375139,88
2021-10-14 15:45:28.375147,52
2021-10-14 15:45:28.375155,28
2021-10-14 15:45:28.375163,9
2021-10-14 15:45:28.375171,-24
2021-10-14 15:45:28.375180,-43
2021-10-14 15:45:28.375188,-52
2021-10-14 15:45:28.375196,-74
2021-10-14 15:45:28.375205,-88
2021-10-14 15:45:28.375213,-86
2021-10-14 15:45:28.375221,-88
2021-10-14 15:45:28.375229,-101
2021-10-14 15:45:28.375238,-105
2021-10-14 15:45:28.375246,-98
2021-10-14 15:45:28.375254,-93
2021-10-14 15:45:28.375269,-96
2021-10-14 15:45:28.375278,-88
2021-10-14 15:45:28.375286,-79
2021-10-14 15:45:28.733346,-74
2021-10-14 15:45:28.733367,-64
2021-10-14 15:45:28.733376,-57
2021-10-14 15:45:28.733385,-52
2021-10-14 15:45:28.733394,-48
2021-10-14 15:45:28.733402,-48
2021-10-14 15:45:28.733410,-57
2021-10-14 15:45:28.733418,-50
2021-10-14 15:45:28.733427,-36
2021-10-14 15:45:28.733435,-40
2021-10-14 15:45:28.733443,-52
2021-10-14 15:45:28.733452,-60
2021-10-14 15:45:28.733460,-74
2021-10-14 15:45:28.733468,-88
2021-10-14 15:45:28.733477,-88
2021-10-14 15:45:28.733485,-81
2021-10-14 15:45:28.733494,-81
2021-10-14 15:45:28.733502,-79
2021-10-14 15:45:28.733510,-62
2021-10-14 15:45:28.733519,-64
2021-10-14 15:45:28.733527,-91
2021-10-14 15:45:28.733535,-101
2021-10-14 15:45:28.733544,-84
2021-10-14 15:45:28.733552,-79
2021-10-14 15:45:28.733560,-79
2021-10-14 15:45:28.733568,-79
2021-10-14 15:45:28.733577,-81
2021-10-14 15:45:28.733585,-84
2021-10-14 15:45:28.733593,-76
2021-10-14 15:45:28.733602,-72
2021-10-14 15:45:28.914422,-76
2021-10-14 15:45:28.914443,-76
2021-10-14 15:45:28.914451,-64
2021-10-14 15:45:28.914459,-57
2021-10-14 15:45:28.914467,-55
2021-10-14 15:45:28.914490,-43
2021-10-14 15:45:28.914498,-31
2021-10-14 15:45:28.914506,-33
2021-10-14 15:45:28.914513,-19
2021-10-14 15:45:28.914521,2
2021-10-14 15:45:28.914529,-21
2021-10-14 15:45:28.914537,-52
2021-10-14 15:45:28.914545,-40
2021-10-14 15:45:28.914553,-24
2021-10-14 15:45:28.914560,-31
2021-10-14 15:45:28.914569,-40
