Time,ECG
2021-10-14 15:54:05.384988,-16
2021-10-14 15:54:05.385009,-12
2021-10-14 15:54:05.385019,-12
2021-10-14 15:54:05.385028,7
2021-10-14 15:54:05.385036,149
2021-10-14 15:54:05.385044,502
2021-10-14 15:54:05.385053,791
2021-10-14 15:54:05.385061,425
2021-10-14 15:54:05.385070,-567
2021-10-14 15:54:05.385078,-1096
2021-10-14 15:54:05.385087,-637
2021-10-14 15:54:05.385095,-146
2021-10-14 15:54:05.385103,-101
2021-10-14 15:54:05.385112,-36
2021-10-14 15:54:05.385120,72
2021-10-14 15:54:05.385159,55
2021-10-14 15:54:05.385168,48
2021-10-14 15:54:05.385176,84
2021-10-14 15:54:05.385185,81
2021-10-14 15:54:05.385193,76
2021-10-14 15:54:05.385201,91
2021-10-14 15:54:05.385210,96
2021-10-14 15:54:05.385218,98
2021-10-14 15:54:05.385226,103
2021-10-14 15:54:05.385235,96
2021-10-14 15:54:05.385243,96
2021-10-14 15:54:05.385252,115
2021-10-14 15:54:05.385260,125
2021-10-14 15:54:05.385269,132
2021-10-14 15:54:05.385277,144
2021-10-14 15:54:05.476187,158
2021-10-14 15:54:05.476207,173
2021-10-14 15:54:05.476216,185
2021-10-14 15:54:05.476225,185
2021-10-14 15:54:05.476233,173
2021-10-14 15:54:05.476242,158
2021-10-14 15:54:05.476250,153
2021-10-14 15:54:05.476258,151
2021-10-14 15:54:05.476267,129
2021-10-14 15:54:05.476275,96
2021-10-14 15:54:05.476284,72
2021-10-14 15:54:05.476292,43
2021-10-14 15:54:05.476300,4
2021-10-14 15:54:05.476309,-21
2021-10-14 15:54:05.476317,-36
2021-10-14 15:54:05.476325,-55
2021-10-14 15:54:05.476334,-74
2021-10-14 15:54:05.476342,-88
2021-10-14 15:54:05.476350,-96
2021-10-14 15:54:05.476359,-93
2021-10-14 15:54:05.476367,-88
2021-10-14 15:54:05.476375,-86
2021-10-14 15:54:05.476383,-86
2021-10-14 15:54:05.476392,-93
2021-10-14 15:54:05.476400,-93
2021-10-14 15:54:05.476408,-79
2021-10-14 15:54:05.476416,-72
2021-10-14 15:54:05.476425,-72
2021-10-14 15:54:05.476433,-64
2021-10-14 15:54:05.476441,-55
2021-10-14 15:54:05.656476,-50
2021-10-14 15:54:05.656498,-40
2021-10-14 15:54:05.656508,-36
2021-10-14 15:54:05.656516,-33
2021-10-14 15:54:05.656525,-28
2021-10-14 15:54:05.656533,-28
2021-10-14 15:54:05.656542,-33
2021-10-14 15:54:05.656550,-36
2021-10-14 15:54:05.656558,-40
2021-10-14 15:54:05.656567,-40
2021-10-14 15:54:05.656575,-48
2021-10-14 15:54:05.656583,-50
2021-10-14 15:54:05.656592,-38
2021-10-14 15:54:05.656600,-33
2021-10-14 15:54:05.656608,-40
2021-10-14 15:54:05.656617,-45
2021-10-14 15:54:05.656625,-50
2021-10-14 15:54:05.656634,-55
2021-10-14 15:54:05.656642,-48
2021-10-14 15:54:05.656650,-36
2021-10-14 15:54:05.656659,-38
2021-10-14 15:54:05.656667,-52
2021-10-14 15:54:05.656675,-60
2021-10-14 15:54:05.656683,-57
2021-10-14 15:54:05.656691,-55
2021-10-14 15:54:05.656700,-55
2021-10-14 15:54:05.656708,-52
2021-10-14 15:54:05.656716,-55
2021-10-14 15:54:05.656725,-57
2021-10-14 15:54:05.656733,-57
2021-10-14 15:54:05.926467,-62
2021-10-14 15:54:05.926488,-60
2021-10-14 15:54:05.926498,-57
2021-10-14 15:54:05.926507,-62
2021-10-14 15:54:05.926515,-69
2021-10-14 15:54:05.926523,-64
2021-10-14 15:54:05.926532,-55
2021-10-14 15:54:05.926540,-50
2021-10-14 15:54:05.926548,-52
2021-10-14 15:54:05.926557,-62
2021-10-14 15:54:05.926565,-57
2021-10-14 15:54:05.926573,-43
2021-10-14 15:54:05.926582,-28
2021-10-14 15:54:05.926590,-14
2021-10-14 15:54:05.926598,-14
2021-10-14 15:54:05.926606,-38
2021-10-14 15:54:05.926615,-55
2021-10-14 15:54:05.926622,-45
2021-10-14 15:54:05.926631,-36
2021-10-14 15:54:05.926639,-38
2021-10-14 15:54:05.926648,-43
2021-10-14 15:54:05.926656,-43
2021-10-14 15:54:05.926664,-36
2021-10-14 15:54:05.926672,-28
2021-10-14 15:54:05.926681,-19
2021-10-14 15:54:05.926689,-4
2021-10-14 15:54:05.926697,14
2021-10-14 15:54:05.926706,60
2021-10-14 15:54:05.926714,252
2021-10-14 15:54:05.926722,613
2021-10-14 15:54:06.151858,740
2021-10-14 15:54:06.151879,117
2021-10-14 15:54:06.151889,-805
2021-10-14 15:54:06.151898,-942
2021-10-14 15:54:06.151906,-430
2021-10-14 15:54:06.151915,-146
2021-10-14 15:54:06.151923,-76
2021-10-14 15:54:06.151931,55
2021-10-14 15:54:06.151940,103
2021-10-14 15:54:06.151948,62
2021-10-14 15:54:06.151956,72
2021-10-14 15:54:06.151964,103
2021-10-14 15:54:06.151972,105
2021-10-14 15:54:06.151981,108
2021-10-14 15:54:06.151989,115
2021-10-14 15:54:06.151997,108
2021-10-14 15:54:06.152005,110
2021-10-14 15:54:06.152014,125
2021-10-14 15:54:06.152022,132
2021-10-14 15:54:06.152030,139
2021-10-14 15:54:06.152038,146
2021-10-14 15:54:06.152047,144
2021-10-14 15:54:06.152055,153
2021-10-14 15:54:06.152063,173
2021-10-14 15:54:06.152071,189
2021-10-14 15:54:06.152080,204
2021-10-14 15:54:06.152088,204
2021-10-14 15:54:06.152096,202
2021-10-14 15:54:06.152104,214
2021-10-14 15:54:06.152113,221
2021-10-14 15:54:06.376855,211
2021-10-14 15:54:06.376876,199
2021-10-14 15:54:06.376885,180
2021-10-14 15:54:06.376893,149
2021-10-14 15:54:06.376902,120
2021-10-14 15:54:06.376910,86
2021-10-14 15:54:06.376918,48
2021-10-14 15:54:06.376926,16
2021-10-14 15:54:06.376934,-16
2021-10-14 15:54:06.376943,-36
2021-10-14 15:54:06.376951,-38
2021-10-14 15:54:06.376959,-43
2021-10-14 15:54:06.376967,-57
2021-10-14 15:54:06.376975,-64
2021-10-14 15:54:06.376983,-76
2021-10-14 15:54:06.376991,-86
2021-10-14 15:54:06.376999,-76
2021-10-14 15:54:06.377008,-62
2021-10-14 15:54:06.377016,-55
2021-10-14 15:54:06.377024,-50
2021-10-14 15:54:06.377032,-52
2021-10-14 15:54:06.377040,-52
2021-10-14 15:54:06.377048,-38
2021-10-14 15:54:06.377056,-19
2021-10-14 15:54:06.377062,-19
2021-10-14 15:54:06.377069,-26
2021-10-14 15:54:06.377077,-16
2021-10-14 15:54:06.377084,-2
2021-10-14 15:54:06.377093,4
2021-10-14 15:54:06.377104,4
2021-10-14 15:54:06.646895,4
2021-10-14 15:54:06.646917,7
2021-10-14 15:54:06.646926,2
2021-10-14 15:54:06.646935,0
2021-10-14 15:54:06.646943,-2
2021-10-14 15:54:06.646952,-9
2021-10-14 15:54:06.646960,-7
2021-10-14 15:54:06.646968,-7
2021-10-14 15:54:06.646976,-26
2021-10-14 15:54:06.646985,-36
2021-10-14 15:54:06.646993,-24
2021-10-14 15:54:06.647001,-19
2021-10-14 15:54:06.647010,-19
2021-10-14 15:54:06.647018,-33
2021-10-14 15:54:06.647026,-57
2021-10-14 15:54:06.647035,-57
2021-10-14 15:54:06.647043,-45
2021-10-14 15:54:06.647051,-52
2021-10-14 15:54:06.647060,-62
2021-10-14 15:54:06.647068,-50
2021-10-14 15:54:06.647077,-45
2021-10-14 15:54:06.647085,-48
2021-10-14 15:54:06.647093,-36
2021-10-14 15:54:06.647101,-28
2021-10-14 15:54:06.647110,-36
2021-10-14 15:54:06.647118,-36
2021-10-14 15:54:06.647126,-26
2021-10-14 15:54:06.647134,-16
2021-10-14 15:54:06.647142,-7
2021-10-14 15:54:06.647150,-2
2021-10-14 15:54:06.961522,12
2021-10-14 15:54:06.961543,19
2021-10-14 15:54:06.961553,-14
2021-10-14 15:54:06.961573,-43
2021-10-14 15:54:06.961582,-36
2021-10-14 15:54:06.961590,-21
2021-10-14 15:54:06.961599,-16
2021-10-14 15:54:06.961607,-24
2021-10-14 15:54:06.961615,-31
2021-10-14 15:54:06.961623,-24
2021-10-14 15:54:06.961632,-21
2021-10-14 15:54:06.961640,-31
2021-10-14 15:54:06.961648,-33
2021-10-14 15:54:06.961656,-21
2021-10-14 15:54:06.961664,24
2021-10-14 15:54:06.961673,216
2021-10-14 15:54:06.961681,589
2021-10-14 15:54:06.961689,757
2021-10-14 15:54:06.961698,134
2021-10-14 15:54:06.961706,-868
2021-10-14 15:54:06.961714,-1070
2021-10-14 15:54:06.961723,-524
2021-10-14 15:54:06.961731,-197
2021-10-14 15:54:06.961739,-137
2021-10-14 15:54:06.961747,0
2021-10-14 15:54:06.961756,76
2021-10-14 15:54:06.961764,48
2021-10-14 15:54:06.961772,60
2021-10-14 15:54:06.961780,91
2021-10-14 15:54:06.961789,84
2021-10-14 15:54:07.141620,81
2021-10-14 15:54:07.141642,98
2021-10-14 15:54:07.141652,103
2021-10-14 15:54:07.141660,98
2021-10-14 15:54:07.141669,110
2021-10-14 15:54:07.141677,120
2021-10-14 15:54:07.141685,125
2021-10-14 15:54:07.141694,132
2021-10-14 15:54:07.141702,146
2021-10-14 15:54:07.141710,158
2021-10-14 15:54:07.141718,170
2021-10-14 15:54:07.141727,177
2021-10-14 15:54:07.141735,180
2021-10-14 15:54:07.141743,187
2021-10-14 15:54:07.141751,197
2021-10-14 15:54:07.141760,204
2021-10-14 15:54:07.141768,206
2021-10-14 15:54:07.141776,197
2021-10-14 15:54:07.141784,168
2021-10-14 15:54:07.141792,144
2021-10-14 15:54:07.141801,125
2021-10-14 15:54:07.141809,96
2021-10-14 15:54:07.141817,55
2021-10-14 15:54:07.141825,21
2021-10-14 15:54:07.141840,-4
2021-10-14 15:54:07.141849,-21
2021-10-14 15:54:07.141857,-38
2021-10-14 15:54:07.141866,-57
2021-10-14 15:54:07.141874,-67
2021-10-14 15:54:07.141882,-72
2021-10-14 15:54:07.410527,-88
2021-10-14 15:54:07.410560,-91
2021-10-14 15:54:07.410571,-79
2021-10-14 15:54:07.410583,-79
2021-10-14 15:54:07.410594,-81
2021-10-14 15:54:07.410605,-74
2021-10-14 15:54:07.410616,-74
2021-10-14 15:54:07.410627,-72
2021-10-14 15:54:07.410637,-62
2021-10-14 15:54:07.410644,-52
2021-10-14 15:54:07.410653,-45
2021-10-14 15:54:07.410660,-45
2021-10-14 15:54:07.410667,-48
2021-10-14 15:54:07.410674,-36
2021-10-14 15:54:07.410682,-28
2021-10-14 15:54:07.410691,-36
2021-10-14 15:54:07.410699,-40
2021-10-14 15:54:07.410708,-43
2021-10-14 15:54:07.410716,-43
2021-10-14 15:54:07.410724,-40
2021-10-14 15:54:07.410732,-45
2021-10-14 15:54:07.410741,-62
2021-10-14 15:54:07.410749,-74
2021-10-14 15:54:07.410757,-72
2021-10-14 15:54:07.410765,-72
2021-10-14 15:54:07.410774,-76
2021-10-14 15:54:07.410782,-79
2021-10-14 15:54:07.410790,-76
2021-10-14 15:54:07.410799,-76
2021-10-14 15:54:07.410807,-84
2021-10-14 15:54:07.501459,-76
2021-10-14 15:54:07.501480,-60
2021-10-14 15:54:07.501489,-69
2021-10-14 15:54:07.501498,-76
2021-10-14 15:54:07.501506,-72
2021-10-14 15:54:07.501515,-72
2021-10-14 15:54:07.501523,-69
2021-10-14 15:54:07.501531,-57
2021-10-14 15:54:07.501540,-55
2021-10-14 15:54:07.501548,-60
2021-10-14 15:54:07.501556,-60
2021-10-14 15:54:07.501565,-64
2021-10-14 15:54:07.501573,-62
2021-10-14 15:54:07.501581,-55
2021-10-14 15:54:07.501590,-43
2021-10-14 15:54:07.501598,-31
2021-10-14 15:54:07.501606,-21
2021-10-14 15:54:07.501614,-12
2021-10-14 15:54:07.501622,-9
2021-10-14 15:54:07.501631,-31
2021-10-14 15:54:07.501639,-50
2021-10-14 15:54:07.501647,-48
2021-10-14 15:54:07.501656,-40
2021-10-14 15:54:07.501664,-45
2021-10-14 15:54:07.501672,-45
2021-10-14 15:54:07.501680,-38
2021-10-14 15:54:07.501688,-36
2021-10-14 15:54:07.501697,-33
2021-10-14 15:54:07.501705,-26
2021-10-14 15:54:07.501713,-24
2021-10-14 15:54:07.771514,-2
2021-10-14 15:54:07.771535,81
2021-10-14 15:54:07.771544,348
2021-10-14 15:54:07.771553,733
2021-10-14 15:54:07.771562,697
2021-10-14 15:54:07.771570,-149
2021-10-14 15:54:07.771578,-1026
2021-10-14 15:54:07.771587,-909
2021-10-14 15:54:07.771595,-324
2021-10-14 15:54:07.771604,-134
2021-10-14 15:54:07.771612,-93
2021-10-14 15:54:07.771621,40
2021-10-14 15:54:07.771629,76
2021-10-14 15:54:07.771638,43
2021-10-14 15:54:07.771646,62
2021-10-14 15:54:07.771654,84
2021-10-14 15:54:07.771663,76
2021-10-14 15:54:07.771671,81
2021-10-14 15:54:07.771679,98
2021-10-14 15:54:07.771688,105
2021-10-14 15:54:07.771696,105
2021-10-14 15:54:07.771704,110
2021-10-14 15:54:07.771713,110
2021-10-14 15:54:07.771721,108
2021-10-14 15:54:07.771729,115
2021-10-14 15:54:07.771737,125
2021-10-14 15:54:07.771746,129
2021-10-14 15:54:07.771754,137
2021-10-14 15:54:07.771762,141
2021-10-14 15:54:07.771771,156
2021-10-14 15:54:08.130927,180
2021-10-14 15:54:08.130949,197
2021-10-14 15:54:08.130958,194
2021-10-14 15:54:08.130967,185
2021-10-14 15:54:08.130976,177
2021-10-14 15:54:08.130984,163
2021-10-14 15:54:08.130993,139
2021-10-14 15:54:08.131001,115
2021-10-14 15:54:08.131009,84
2021-10-14 15:54:08.131018,38
2021-10-14 15:54:08.131026,-2
2021-10-14 15:54:08.131034,-21
2021-10-14 15:54:08.131042,-28
2021-10-14 15:54:08.131050,-48
2021-10-14 15:54:08.131059,-72
2021-10-14 15:54:08.131067,-86
2021-10-14 15:54:08.131075,-86
2021-10-14 15:54:08.131084,-88
2021-10-14 15:54:08.131092,-88
2021-10-14 15:54:08.131100,-81
2021-10-14 15:54:08.131108,-81
2021-10-14 15:54:08.131117,-86
2021-10-14 15:54:08.131125,-79
2021-10-14 15:54:08.131133,-69
2021-10-14 15:54:08.131141,-62
2021-10-14 15:54:08.131150,-50
2021-10-14 15:54:08.131158,-45
2021-10-14 15:54:08.131166,-55
2021-10-14 15:54:08.131174,-48
2021-10-14 15:54:08.131183,-33
2021-10-14 15:54:08.221448,-36
2021-10-14 15:54:08.221468,-33
2021-10-14 15:54:08.221477,-28
2021-10-14 15:54:08.221486,-31
2021-10-14 15:54:08.221495,-28
2021-10-14 15:54:08.221503,-21
2021-10-14 15:54:08.221511,-28
2021-10-14 15:54:08.221520,-33
2021-10-14 15:54:08.221528,-38
2021-10-14 15:54:08.221536,-48
2021-10-14 15:54:08.221544,-50
2021-10-14 15:54:08.221553,-48
2021-10-14 15:54:08.221561,-48
2021-10-14 15:54:08.221569,-45
2021-10-14 15:54:08.221577,-45
2021-10-14 15:54:08.221586,-50
2021-10-14 15:54:08.221594,-48
2021-10-14 15:54:08.221602,-43
2021-10-14 15:54:08.221610,-43
2021-10-14 15:54:08.221619,-43
2021-10-14 15:54:08.221627,-48
2021-10-14 15:54:08.221635,-48
2021-10-14 15:54:08.221644,-43
2021-10-14 15:54:08.221652,-38
2021-10-14 15:54:08.221660,-36
2021-10-14 15:54:08.221669,-33
2021-10-14 15:54:08.221677,-33
2021-10-14 15:54:08.221685,-36
2021-10-14 15:54:08.221693,-48
2021-10-14 15:54:08.221702,-60
2021-10-14 15:54:08.446889,-52
2021-10-14 15:54:08.446910,-45
2021-10-14 15:54:08.446919,-55
2021-10-14 15:54:08.446928,-52
2021-10-14 15:54:08.446936,-28
2021-10-14 15:54:08.446945,-9
2021-10-14 15:54:08.446953,-7
2021-10-14 15:54:08.446962,-2
2021-10-14 15:54:08.446970,-14
2021-10-14 15:54:08.446978,-45
2021-10-14 15:54:08.446986,-52
2021-10-14 15:54:08.446995,-40
2021-10-14 15:54:08.447003,-38
2021-10-14 15:54:08.447011,-45
2021-10-14 15:54:08.447019,-57
2021-10-14 15:54:08.447028,-52
2021-10-14 15:54:08.447036,-36
2021-10-14 15:54:08.447044,-24
2021-10-14 15:54:08.447052,-19
2021-10-14 15:54:08.447061,-21
2021-10-14 15:54:08.447069,-16
2021-10-14 15:54:08.447077,43
2021-10-14 15:54:08.447085,283
2021-10-14 15:54:08.447093,690
2021-10-14 15:54:08.447102,781
2021-10-14 15:54:08.447110,52
2021-10-14 15:54:08.447118,-933
2021-10-14 15:54:08.447126,-995
2021-10-14 15:54:08.447134,-360
2021-10-14 15:54:08.447143,-74
2021-10-14 15:54:08.716866,-72
2021-10-14 15:54:08.716887,38
2021-10-14 15:54:08.716897,93
2021-10-14 15:54:08.716905,57
2021-10-14 15:54:08.716914,76
2021-10-14 15:54:08.716922,105
2021-10-14 15:54:08.716930,88
2021-10-14 15:54:08.716938,81
2021-10-14 15:54:08.716947,93
2021-10-14 15:54:08.716955,98
2021-10-14 15:54:08.716963,105
2021-10-14 15:54:08.716972,117
2021-10-14 15:54:08.716980,120
2021-10-14 15:54:08.716988,117
2021-10-14 15:54:08.716996,125
2021-10-14 15:54:08.717005,139
2021-10-14 15:54:08.717013,151
2021-10-14 15:54:08.717022,163
2021-10-14 15:54:08.717030,168
2021-10-14 15:54:08.717038,173
2021-10-14 15:54:08.717046,189
2021-10-14 15:54:08.717055,202
2021-10-14 15:54:08.717063,204
2021-10-14 15:54:08.717081,204
2021-10-14 15:54:08.717090,197
2021-10-14 15:54:08.717098,177
2021-10-14 15:54:08.717107,161
2021-10-14 15:54:08.717115,137
2021-10-14 15:54:08.717124,101
2021-10-14 15:54:08.717132,67
2021-10-14 15:54:08.941474,33
2021-10-14 15:54:08.941495,7
2021-10-14 15:54:08.941505,-12
2021-10-14 15:54:08.941513,-45
2021-10-14 15:54:08.941522,-79
2021-10-14 15:54:08.941530,-93
2021-10-14 15:54:08.941539,-101
2021-10-14 15:54:08.941547,-108
2021-10-14 15:54:08.941556,-103
2021-10-14 15:54:08.941564,-105
2021-10-14 15:54:08.941573,-110
2021-10-14 15:54:08.941581,-103
2021-10-14 15:54:08.941589,-93
2021-10-14 15:54:08.941598,-81
2021-10-14 15:54:08.941606,-74
2021-10-14 15:54:08.941615,-79
2021-10-14 15:54:08.941623,-74
2021-10-14 15:54:08.941632,-72
2021-10-14 15:54:08.941640,-74
2021-10-14 15:54:08.941648,-69
2021-10-14 15:54:08.941657,-55
2021-10-14 15:54:08.941665,-50
2021-10-14 15:54:08.941673,-55
2021-10-14 15:54:08.941682,-60
2021-10-14 15:54:08.941690,-62
2021-10-14 15:54:08.941698,-57
2021-10-14 15:54:08.941707,-52
2021-10-14 15:54:08.941715,-55
2021-10-14 15:54:08.941723,-57
2021-10-14 15:54:08.941732,-55
2021-10-14 15:54:09.256506,-57
2021-10-14 15:54:09.256527,-60
2021-10-14 15:54:09.256536,-57
2021-10-14 15:54:09.256545,-55
2021-10-14 15:54:09.256554,-52
2021-10-14 15:54:09.256562,-60
2021-10-14 15:54:09.256570,-64
2021-10-14 15:54:09.256579,-57
2021-10-14 15:54:09.256587,-52
2021-10-14 15:54:09.256595,-57
2021-10-14 15:54:09.256604,-55
2021-10-14 15:54:09.256612,-55
2021-10-14 15:54:09.256621,-55
2021-10-14 15:54:09.256629,-50
2021-10-14 15:54:09.256637,-48
2021-10-14 15:54:09.256646,-48
2021-10-14 15:54:09.256654,-45
2021-10-14 15:54:09.256662,-48
2021-10-14 15:54:09.256671,-50
2021-10-14 15:54:09.256679,-43
2021-10-14 15:54:09.256687,-38
2021-10-14 15:54:09.256696,-36
2021-10-14 15:54:09.256704,-36
2021-10-14 15:54:09.256712,-36
2021-10-14 15:54:09.256720,-31
2021-10-14 15:54:09.256729,-21
2021-10-14 15:54:09.256737,-21
2021-10-14 15:54:09.256746,-24
2021-10-14 15:54:09.256754,-21
2021-10-14 15:54:09.256762,-14
2021-10-14 15:54:09.435144,0
2021-10-14 15:54:09.435166,14
2021-10-14 15:54:09.435175,21
2021-10-14 15:54:09.435184,28
2021-10-14 15:54:09.435193,24
2021-10-14 15:54:09.435201,0
2021-10-14 15:54:09.435209,-16
2021-10-14 15:54:09.435218,-19
2021-10-14 15:54:09.435226,-21
2021-10-14 15:54:09.435234,-33
2021-10-14 15:54:09.435243,-45
2021-10-14 15:54:09.435251,-55
2021-10-14 15:54:09.435259,-45
2021-10-14 15:54:09.435268,-28
2021-10-14 15:54:09.435276,-26
2021-10-14 15:54:09.435285,-31
2021-10-14 15:54:09.435293,-16
2021-10-14 15:54:09.435301,55
2021-10-14 15:54:09.435310,298
2021-10-14 15:54:09.435318,670
2021-10-14 15:54:09.435327,716
2021-10-14 15:54:09.435335,-7
2021-10-14 15:54:09.435344,-906
2021-10-14 15:54:09.435352,-909
2021-10-14 15:54:09.435360,-324
2021-10-14 15:54:09.435369,-84
2021-10-14 15:54:09.435377,-69
2021-10-14 15:54:09.435385,38
2021-10-14 15:54:09.435394,79
2021-10-14 15:54:09.435402,45
2021-10-14 15:54:09.706261,67
2021-10-14 15:54:09.706281,96
2021-10-14 15:54:09.706291,86
2021-10-14 15:54:09.706299,79
2021-10-14 15:54:09.706306,79
2021-10-14 15:54:09.706313,84
2021-10-14 15:54:09.706320,93
2021-10-14 15:54:09.706328,108
2021-10-14 15:54:09.706336,110
2021-10-14 15:54:09.706343,101
2021-10-14 15:54:09.706352,98
2021-10-14 15:54:09.706359,120
2021-10-14 15:54:09.706367,139
2021-10-14 15:54:09.706375,141
2021-10-14 15:54:09.706383,146
2021-10-14 15:54:09.706391,161
2021-10-14 15:54:09.706399,165
2021-10-14 15:54:09.706435,173
2021-10-14 15:54:09.706447,177
2021-10-14 15:54:09.706454,180
2021-10-14 15:54:09.706462,173
2021-10-14 15:54:09.706469,153
2021-10-14 15:54:09.706475,137
2021-10-14 15:54:09.706482,120
2021-10-14 15:54:09.706490,88
2021-10-14 15:54:09.706496,57
2021-10-14 15:54:09.706504,36
2021-10-14 15:54:09.706512,-2
2021-10-14 15:54:09.706519,-38
2021-10-14 15:54:09.706527,-40
2021-10-14 15:54:09.841520,-40
2021-10-14 15:54:09.841541,-60
2021-10-14 15:54:09.841551,-67
2021-10-14 15:54:09.841559,-74
2021-10-14 15:54:09.841568,-76
2021-10-14 15:54:09.841576,-64
2021-10-14 15:54:09.841584,-62
2021-10-14 15:54:09.841593,-64
2021-10-14 15:54:09.841601,-62
2021-10-14 15:54:09.841609,-64
2021-10-14 15:54:09.841618,-64
2021-10-14 15:54:09.841626,-60
2021-10-14 15:54:09.841634,-64
2021-10-14 15:54:09.841642,-64
2021-10-14 15:54:09.841651,-57
2021-10-14 15:54:09.841659,-57
2021-10-14 15:54:09.841667,-60
2021-10-14 15:54:09.841675,-57
2021-10-14 15:54:09.841683,-57
2021-10-14 15:54:09.841692,-60
2021-10-14 15:54:09.841700,-64
2021-10-14 15:54:09.841708,-72
2021-10-14 15:54:09.841717,-76
2021-10-14 15:54:09.841725,-72
2021-10-14 15:54:09.841733,-64
2021-10-14 15:54:09.841741,-62
2021-10-14 15:54:09.841749,-62
2021-10-14 15:54:09.841758,-72
2021-10-14 15:54:09.841766,-76
2021-10-14 15:54:09.841774,-64
2021-10-14 15:54:10.066553,-55
2021-10-14 15:54:10.066575,-57
2021-10-14 15:54:10.066584,-62
2021-10-14 15:54:10.066593,-55
2021-10-14 15:54:10.066601,-55
2021-10-14 15:54:10.066610,-62
2021-10-14 15:54:10.066618,-57
2021-10-14 15:54:10.066626,-43
2021-10-14 15:54:10.066635,-45
2021-10-14 15:54:10.066643,-57
2021-10-14 15:54:10.066651,-57
2021-10-14 15:54:10.066659,-50
2021-10-14 15:54:10.066668,-50
2021-10-14 15:54:10.066676,-55
2021-10-14 15:54:10.066684,-55
2021-10-14 15:54:10.066693,-55
2021-10-14 15:54:10.066701,-55
2021-10-14 15:54:10.066709,-50
2021-10-14 15:54:10.066718,-40
2021-10-14 15:54:10.066726,-43
2021-10-14 15:54:10.066735,-52
2021-10-14 15:54:10.066743,-45
2021-10-14 15:54:10.066751,-31
2021-10-14 15:54:10.066759,-26
2021-10-14 15:54:10.066768,-26
2021-10-14 15:54:10.066776,-21
2021-10-14 15:54:10.066784,-7
2021-10-14 15:54:10.066793,0
2021-10-14 15:54:10.066801,2
2021-10-14 15:54:10.066810,16
2021-10-14 15:54:10.336281,16
2021-10-14 15:54:10.336301,-14
2021-10-14 15:54:10.336311,-36
2021-10-14 15:54:10.336319,-36
2021-10-14 15:54:10.336328,-33
2021-10-14 15:54:10.336336,-24
2021-10-14 15:54:10.336345,-19
2021-10-14 15:54:10.336353,-19
2021-10-14 15:54:10.336361,-26
2021-10-14 15:54:10.336370,-31
2021-10-14 15:54:10.336378,-21
2021-10-14 15:54:10.336386,-7
2021-10-14 15:54:10.336395,14
2021-10-14 15:54:10.336403,103
2021-10-14 15:54:10.336411,377
2021-10-14 15:54:10.336420,721
2021-10-14 15:54:10.336428,569
2021-10-14 15:54:10.336437,-327
2021-10-14 15:54:10.336445,-1062
2021-10-14 15:54:10.336453,-822
2021-10-14 15:54:10.336461,-307
2021-10-14 15:54:10.336470,-168
2021-10-14 15:54:10.336478,-84
2021-10-14 15:54:10.336486,40
2021-10-14 15:54:10.336495,52
2021-10-14 15:54:10.336503,38
2021-10-14 15:54:10.336511,67
2021-10-14 15:54:10.336520,76
2021-10-14 15:54:10.336528,67
2021-10-14 15:54:10.336537,76
2021-10-14 15:54:10.516920,88
2021-10-14 15:54:10.516941,86
2021-10-14 15:54:10.516950,98
2021-10-14 15:54:10.516959,110
2021-10-14 15:54:10.516967,108
2021-10-14 15:54:10.516976,115
2021-10-14 15:54:10.516984,132
2021-10-14 15:54:10.516993,134
2021-10-14 15:54:10.517001,134
2021-10-14 15:54:10.517009,149
2021-10-14 15:54:10.517017,165
2021-10-14 15:54:10.517026,180
2021-10-14 15:54:10.517034,189
2021-10-14 15:54:10.517042,185
2021-10-14 15:54:10.517051,175
2021-10-14 15:54:10.517059,173
2021-10-14 15:54:10.517067,165
2021-10-14 15:54:10.517075,141
2021-10-14 15:54:10.517084,115
2021-10-14 15:54:10.517092,88
2021-10-14 15:54:10.517100,57
2021-10-14 15:54:10.517108,24
2021-10-14 15:54:10.517117,0
2021-10-14 15:54:10.517125,-21
2021-10-14 15:54:10.517133,-43
2021-10-14 15:54:10.517141,-60
2021-10-14 15:54:10.517149,-76
2021-10-14 15:54:10.517158,-93
2021-10-14 15:54:10.517166,-93
2021-10-14 15:54:10.517174,-96
2021-10-14 15:54:10.741535,-103
2021-10-14 15:54:10.741563,-101
2021-10-14 15:54:10.741573,-96
2021-10-14 15:54:10.741581,-101
2021-10-14 15:54:10.741590,-103
2021-10-14 15:54:10.741598,-96
2021-10-14 15:54:10.741607,-98
2021-10-14 15:54:10.741615,-105
2021-10-14 15:54:10.741623,-98
2021-10-14 15:54:10.741631,-84
2021-10-14 15:54:10.741640,-86
2021-10-14 15:54:10.741648,-84
2021-10-14 15:54:10.741656,-81
2021-10-14 15:54:10.741664,-84
2021-10-14 15:54:10.741672,-79
2021-10-14 15:54:10.741680,-76
2021-10-14 15:54:10.741689,-76
2021-10-14 15:54:10.741697,-67
2021-10-14 15:54:10.741705,-64
2021-10-14 15:54:10.741714,-74
2021-10-14 15:54:10.741722,-81
2021-10-14 15:54:10.741730,-79
2021-10-14 15:54:10.741739,-74
2021-10-14 15:54:10.741747,-74
2021-10-14 15:54:10.741755,-72
2021-10-14 15:54:10.741763,-60
2021-10-14 15:54:10.741772,-62
2021-10-14 15:54:10.741780,-76
2021-10-14 15:54:10.741788,-86
2021-10-14 15:54:10.741796,-86
2021-10-14 15:54:11.146983,-79
2021-10-14 15:54:11.147004,-69
2021-10-14 15:54:11.147014,-62
2021-10-14 15:54:11.147022,-67
2021-10-14 15:54:11.147031,-62
2021-10-14 15:54:11.147039,-60
2021-10-14 15:54:11.147048,-69
2021-10-14 15:54:11.147056,-64
2021-10-14 15:54:11.147064,-43
2021-10-14 15:54:11.147072,-43
2021-10-14 15:54:11.147080,-55
2021-10-14 15:54:11.147089,-57
2021-10-14 15:54:11.147097,-60
2021-10-14 15:54:11.147105,-55
2021-10-14 15:54:11.147114,-45
2021-10-14 15:54:11.147122,-40
2021-10-14 15:54:11.147130,-38
2021-10-14 15:54:11.147138,-38
2021-10-14 15:54:11.147147,-36
2021-10-14 15:54:11.147155,-24
2021-10-14 15:54:11.147163,-16
2021-10-14 15:54:11.147171,-16
2021-10-14 15:54:11.147180,-9
2021-10-14 15:54:11.147188,2
2021-10-14 15:54:11.147196,-12
2021-10-14 15:54:11.147205,-33
2021-10-14 15:54:11.147213,-36
2021-10-14 15:54:11.147221,-36
2021-10-14 15:54:11.147229,-38
2021-10-14 15:54:11.147238,-36
2021-10-14 15:54:11.236906,-31
2021-10-14 15:54:11.236931,-24
2021-10-14 15:54:11.236941,-19
2021-10-14 15:54:11.236949,-19
2021-10-14 15:54:11.236958,-16
2021-10-14 15:54:11.236966,-7
2021-10-14 15:54:11.236974,24
2021-10-14 15:54:11.236983,158
2021-10-14 15:54:11.236991,505
2021-10-14 15:54:11.236999,812
2021-10-14 15:54:11.237008,473
2021-10-14 15:54:11.237016,-526
2021-10-14 15:54:11.237024,-1086
2021-10-14 15:54:11.237032,-654
2021-10-14 15:54:11.237041,-170
2021-10-14 15:54:11.237049,-110
2021-10-14 15:54:11.237057,-28
2021-10-14 15:54:11.237065,88
2021-10-14 15:54:11.237073,74
2021-10-14 15:54:11.237081,57
2021-10-14 15:54:11.237090,96
2021-10-14 15:54:11.237098,98
2021-10-14 15:54:11.237106,86
2021-10-14 15:54:11.237114,98
2021-10-14 15:54:11.237123,98
2021-10-14 15:54:11.237131,101
2021-10-14 15:54:11.237139,110
2021-10-14 15:54:11.237147,113
2021-10-14 15:54:11.237155,110
2021-10-14 15:54:11.237163,115
2021-10-14 15:54:11.460243,129
2021-10-14 15:54:11.460265,146
2021-10-14 15:54:11.460275,158
2021-10-14 15:54:11.460283,149
2021-10-14 15:54:11.460292,134
2021-10-14 15:54:11.460300,141
2021-10-14 15:54:11.460308,163
2021-10-14 15:54:11.460317,165
2021-10-14 15:54:11.460325,161
2021-10-14 15:54:11.460333,161
2021-10-14 15:54:11.460342,144
2021-10-14 15:54:11.460350,122
2021-10-14 15:54:11.460358,108
2021-10-14 15:54:11.460366,74
2021-10-14 15:54:11.460375,33
2021-10-14 15:54:11.460383,4
2021-10-14 15:54:11.460391,-26
2021-10-14 15:54:11.460400,-57
2021-10-14 15:54:11.460408,-74
2021-10-14 15:54:11.460416,-88
2021-10-14 15:54:11.460424,-103
2021-10-14 15:54:11.460432,-115
2021-10-14 15:54:11.460441,-125
2021-10-14 15:54:11.460449,-127
2021-10-14 15:54:11.460457,-125
2021-10-14 15:54:11.460466,-129
2021-10-14 15:54:11.460474,-139
2021-10-14 15:54:11.460482,-141
2021-10-14 15:54:11.460490,-132
2021-10-14 15:54:11.460498,-120
2021-10-14 15:54:11.732000,-115
2021-10-14 15:54:11.732022,-108
2021-10-14 15:54:11.732032,-103
2021-10-14 15:54:11.732041,-103
2021-10-14 15:54:11.732049,-103
2021-10-14 15:54:11.732057,-93
2021-10-14 15:54:11.732066,-84
2021-10-14 15:54:11.732084,-74
2021-10-14 15:54:11.732105,-64
2021-10-14 15:54:11.732123,-72
2021-10-14 15:54:11.732136,-76
2021-10-14 15:54:11.732150,-64
2021-10-14 15:54:11.732163,-57
2021-10-14 15:54:11.732173,-67
2021-10-14 15:54:11.732184,-67
2021-10-14 15:54:11.732197,-62
2021-10-14 15:54:11.732209,-60
2021-10-14 15:54:11.732224,-50
2021-10-14 15:54:11.732232,-48
2021-10-14 15:54:11.732240,-50
2021-10-14 15:54:11.732248,-50
2021-10-14 15:54:11.732257,-50
2021-10-14 15:54:11.732265,-45
2021-10-14 15:54:11.732274,-36
2021-10-14 15:54:11.732282,-33
2021-10-14 15:54:11.732314,-31
2021-10-14 15:54:11.732325,-31
2021-10-14 15:54:11.732333,-36
2021-10-14 15:54:11.732342,-38
2021-10-14 15:54:11.732350,-26
2021-10-14 15:54:11.911920,-14
2021-10-14 15:54:11.911949,-19
2021-10-14 15:54:11.911959,-24
2021-10-14 15:54:11.911968,-24
2021-10-14 15:54:11.911976,-19
2021-10-14 15:54:11.911984,-9
2021-10-14 15:54:11.911993,-2
2021-10-14 15:54:11.912001,-4
2021-10-14 15:54:11.912010,-12
2021-10-14 15:54:11.912018,-19
2021-10-14 15:54:11.912026,-21
2021-10-14 15:54:11.912034,-14
2021-10-14 15:54:11.912043,-7
2021-10-14 15:54:11.912051,-7
2021-10-14 15:54:11.912059,-9
2021-10-14 15:54:11.912068,-12
2021-10-14 15:54:11.912076,0
2021-10-14 15:54:11.912084,16
2021-10-14 15:54:11.912093,24
2021-10-14 15:54:11.912101,21
2021-10-14 15:54:11.912109,0
2021-10-14 15:54:11.912279,-26
2021-10-14 15:54:11.912289,-26
2021-10-14 15:54:11.912297,-16
2021-10-14 15:54:11.912306,-19
2021-10-14 15:54:11.912314,-16
2021-10-14 15:54:11.912322,-12
2021-10-14 15:54:11.912331,-14
2021-10-14 15:54:11.912339,-12
2021-10-14 15:54:11.912347,-7
2021-10-14 15:54:12.225975,-12
2021-10-14 15:54:12.225995,-2
2021-10-14 15:54:12.226004,31
2021-10-14 15:54:12.226012,168
2021-10-14 15:54:12.226019,524
2021-10-14 15:54:12.226027,827
2021-10-14 15:54:12.226035,464
2021-10-14 15:54:12.226042,-541
2021-10-14 15:54:12.226050,-1091
2021-10-14 15:54:12.226058,-639
2021-10-14 15:54:12.226065,-132
2021-10-14 15:54:12.226073,-76
2021-10-14 15:54:12.226080,-7
2021-10-14 15:54:12.226088,96
2021-10-14 15:54:12.226096,62
2021-10-14 15:54:12.226103,45
2021-10-14 15:54:12.226111,91
2021-10-14 15:54:12.226118,96
2021-10-14 15:54:12.226126,91
2021-10-14 15:54:12.226134,105
2021-10-14 15:54:12.226141,103
2021-10-14 15:54:12.226149,93
2021-10-14 15:54:12.226157,108
2021-10-14 15:54:12.226164,125
2021-10-14 15:54:12.226172,129
2021-10-14 15:54:12.226180,137
2021-10-14 15:54:12.226188,146
2021-10-14 15:54:12.226196,149
2021-10-14 15:54:12.226203,156
2021-10-14 15:54:12.226211,182
2021-10-14 15:54:12.406323,199
2021-10-14 15:54:12.406344,194
2021-10-14 15:54:12.406354,189
2021-10-14 15:54:12.406362,194
2021-10-14 15:54:12.406371,197
2021-10-14 15:54:12.406379,189
2021-10-14 15:54:12.406387,175
2021-10-14 15:54:12.406396,151
2021-10-14 15:54:12.406404,120
2021-10-14 15:54:12.406412,96
2021-10-14 15:54:12.406421,72
2021-10-14 15:54:12.406429,36
2021-10-14 15:54:12.406437,-2
2021-10-14 15:54:12.406446,-33
2021-10-14 15:54:12.406454,-72
2021-10-14 15:54:12.406462,-101
2021-10-14 15:54:12.406471,-113
2021-10-14 15:54:12.406479,-113
2021-10-14 15:54:12.406487,-115
2021-10-14 15:54:12.406496,-122
2021-10-14 15:54:12.406504,-122
2021-10-14 15:54:12.406512,-122
2021-10-14 15:54:12.406521,-117
2021-10-14 15:54:12.406529,-110
2021-10-14 15:54:12.406537,-108
2021-10-14 15:54:12.406546,-108
2021-10-14 15:54:12.406554,-96
2021-10-14 15:54:12.406562,-86
2021-10-14 15:54:12.406570,-88
2021-10-14 15:54:12.406579,-84
2021-10-14 15:54:12.631597,-69
2021-10-14 15:54:12.631619,-60
2021-10-14 15:54:12.631629,-60
2021-10-14 15:54:12.631638,-60
2021-10-14 15:54:12.631646,-55
2021-10-14 15:54:12.631655,-50
2021-10-14 15:54:12.631663,-48
2021-10-14 15:54:12.631671,-50
2021-10-14 15:54:12.631679,-50
2021-10-14 15:54:12.631688,-52
2021-10-14 15:54:12.631696,-50
2021-10-14 15:54:12.631705,-48
2021-10-14 15:54:12.631713,-50
2021-10-14 15:54:12.631722,-45
2021-10-14 15:54:12.631760,-36
2021-10-14 15:54:12.631769,-33
2021-10-14 15:54:12.631778,-31
2021-10-14 15:54:12.631787,-33
2021-10-14 15:54:12.631795,-43
2021-10-14 15:54:12.631803,-40
2021-10-14 15:54:12.631812,-28
2021-10-14 15:54:12.631820,-24
2021-10-14 15:54:12.631828,-26
2021-10-14 15:54:12.631837,-19
2021-10-14 15:54:12.631845,-16
2021-10-14 15:54:12.631870,-14
2021-10-14 15:54:12.631879,-7
2021-10-14 15:54:12.631887,-12
2021-10-14 15:54:12.631896,-14
2021-10-14 15:54:12.631905,-9
2021-10-14 15:54:12.856660,-4
2021-10-14 15:54:12.856684,0
2021-10-14 15:54:12.856694,0
2021-10-14 15:54:12.856702,-2
2021-10-14 15:54:12.856711,0
2021-10-14 15:54:12.856719,4
2021-10-14 15:54:12.856728,4
2021-10-14 15:54:12.856736,4
2021-10-14 15:54:12.856744,9
2021-10-14 15:54:12.856753,9
2021-10-14 15:54:12.856761,16
2021-10-14 15:54:12.856770,19
2021-10-14 15:54:12.856778,12
2021-10-14 15:54:12.856787,16
2021-10-14 15:54:12.856795,38
2021-10-14 15:54:12.856803,48
2021-10-14 15:54:12.856812,26
2021-10-14 15:54:12.856820,-7
2021-10-14 15:54:12.856829,-26
2021-10-14 15:54:12.856837,-19
2021-10-14 15:54:12.856846,-16
2021-10-14 15:54:12.856854,-24
2021-10-14 15:54:12.856863,-16
2021-10-14 15:54:12.856871,-14
2021-10-14 15:54:12.856879,-26
2021-10-14 15:54:12.856888,-21
2021-10-14 15:54:12.856896,-7
2021-10-14 15:54:12.856904,0
2021-10-14 15:54:12.856913,28
2021-10-14 15:54:12.856921,151
2021-10-14 15:54:13.126566,466
2021-10-14 15:54:13.126598,771
2021-10-14 15:54:13.126607,485
2021-10-14 15:54:13.126616,-449
2021-10-14 15:54:13.126624,-1010
2021-10-14 15:54:13.126632,-654
2021-10-14 15:54:13.126641,-211
2021-10-14 15:54:13.126649,-113
2021-10-14 15:54:13.126657,-21
2021-10-14 15:54:13.126665,74
2021-10-14 15:54:13.126673,62
2021-10-14 15:54:13.126681,50
2021-10-14 15:54:13.126690,79
2021-10-14 15:54:13.126698,88
2021-10-14 15:54:13.126706,88
2021-10-14 15:54:13.126714,93
2021-10-14 15:54:13.126722,93
2021-10-14 15:54:13.126730,93
2021-10-14 15:54:13.126739,105
2021-10-14 15:54:13.126747,115
2021-10-14 15:54:13.126755,117
2021-10-14 15:54:13.126763,125
2021-10-14 15:54:13.126771,141
2021-10-14 15:54:13.126779,146
2021-10-14 15:54:13.126787,151
2021-10-14 15:54:13.126796,168
2021-10-14 15:54:13.126804,192
2021-10-14 15:54:13.126812,199
2021-10-14 15:54:13.126820,202
2021-10-14 15:54:13.126828,204
2021-10-14 15:54:13.261550,197
2021-10-14 15:54:13.261571,187
2021-10-14 15:54:13.261580,185
2021-10-14 15:54:13.261589,168
2021-10-14 15:54:13.261597,139
2021-10-14 15:54:13.261606,113
2021-10-14 15:54:13.261614,86
2021-10-14 15:54:13.261622,50
2021-10-14 15:54:13.261630,12
2021-10-14 15:54:13.261639,-21
2021-10-14 15:54:13.261647,-48
2021-10-14 15:54:13.261655,-60
2021-10-14 15:54:13.261663,-62
2021-10-14 15:54:13.261672,-69
2021-10-14 15:54:13.261680,-76
2021-10-14 15:54:13.261688,-79
2021-10-14 15:54:13.261696,-86
2021-10-14 15:54:13.261704,-86
2021-10-14 15:54:13.261713,-72
2021-10-14 15:54:13.261721,-52
2021-10-14 15:54:13.261729,-50
2021-10-14 15:54:13.261737,-62
2021-10-14 15:54:13.261745,-76
2021-10-14 15:54:13.261754,-64
2021-10-14 15:54:13.261762,-43
2021-10-14 15:54:13.261770,-40
2021-10-14 15:54:13.261778,-48
2021-10-14 15:54:13.261787,-45
2021-10-14 15:54:13.261795,-33
2021-10-14 15:54:13.261803,-26
2021-10-14 15:54:13.755107,-24
2021-10-14 15:54:13.755128,-24
2021-10-14 15:54:13.755137,-24
2021-10-14 15:54:13.755146,-19
2021-10-14 15:54:13.755154,-16
2021-10-14 15:54:13.755163,-24
2021-10-14 15:54:13.755171,-26
2021-10-14 15:54:13.755179,-7
2021-10-14 15:54:13.755188,-4
2021-10-14 15:54:13.755201,-24
2021-10-14 15:54:13.755210,-21
2021-10-14 15:54:13.755218,-9
2021-10-14 15:54:13.755226,-24
2021-10-14 15:54:13.755234,-24
2021-10-14 15:54:13.755287,-4
2021-10-14 15:54:13.755298,-7
2021-10-14 15:54:13.755307,-16
2021-10-14 15:54:13.755331,-2
2021-10-14 15:54:13.755343,16
2021-10-14 15:54:13.755351,14
2021-10-14 15:54:13.755360,4
2021-10-14 15:54:13.755368,2
2021-10-14 15:54:13.755377,12
2021-10-14 15:54:13.755385,21
2021-10-14 15:54:13.755394,24
2021-10-14 15:54:13.755414,24
2021-10-14 15:54:13.755423,24
2021-10-14 15:54:13.755432,24
2021-10-14 15:54:13.755440,31
2021-10-14 15:54:13.755448,38
2021-10-14 15:54:13.846364,36
2021-10-14 15:54:13.846386,45
2021-10-14 15:54:13.846395,57
2021-10-14 15:54:13.846404,50
2021-10-14 15:54:13.846412,48
2021-10-14 15:54:13.846421,64
2021-10-14 15:54:13.846429,79
2021-10-14 15:54:13.846437,88
2021-10-14 15:54:13.846446,74
2021-10-14 15:54:13.846454,40
2021-10-14 15:54:13.846462,31
2021-10-14 15:54:13.846471,36
2021-10-14 15:54:13.846479,40
2021-10-14 15:54:13.846487,48
2021-10-14 15:54:13.846496,33
2021-10-14 15:54:13.846504,14
2021-10-14 15:54:13.846512,16
2021-10-14 15:54:13.846521,33
2021-10-14 15:54:13.846529,40
2021-10-14 15:54:13.846537,45
2021-10-14 15:54:13.846545,64
2021-10-14 15:54:13.846554,156
2021-10-14 15:54:13.846562,440
2021-10-14 15:54:13.846570,798
2021-10-14 15:54:13.846579,663
2021-10-14 15:54:13.846587,-235
2021-10-14 15:54:13.846595,-988
2021-10-14 15:54:13.846604,-757
2021-10-14 15:54:13.846612,-235
2021-10-14 15:54:13.846620,-93
2021-10-14 15:54:13.982039,-2
2021-10-14 15:54:13.982061,137
2021-10-14 15:54:13.982071,127
2021-10-14 15:54:13.982080,86
2021-10-14 15:54:13.982089,129
2021-10-14 15:54:13.982098,153
2021-10-14 15:54:13.982106,137
2021-10-14 15:54:13.982115,139
2021-10-14 15:54:13.982123,141
2021-10-14 15:54:13.982132,127
2021-10-14 15:54:13.982141,137
2021-10-14 15:54:13.982149,149
2021-10-14 15:54:13.982158,151
2021-10-14 15:54:13.982166,156
2021-10-14 15:54:13.982175,161
2021-10-14 15:54:13.982184,161
2021-10-14 15:54:13.982192,168
2021-10-14 15:54:13.982201,182
2021-10-14 15:54:13.982209,194
2021-10-14 15:54:13.982242,199
2021-10-14 15:54:13.982257,199
2021-10-14 15:54:13.982265,206
2021-10-14 15:54:13.982273,209
2021-10-14 15:54:13.982281,199
2021-10-14 15:54:13.982289,194
2021-10-14 15:54:13.982297,182
2021-10-14 15:54:13.982305,149
2021-10-14 15:54:13.982314,110
2021-10-14 15:54:13.982322,91
2021-10-14 15:54:13.982330,69
2021-10-14 15:54:14.206954,31
2021-10-14 15:54:14.206975,-4
2021-10-14 15:54:14.206984,-28
2021-10-14 15:54:14.206993,-50
2021-10-14 15:54:14.207002,-67
2021-10-14 15:54:14.207010,-74
2021-10-14 15:54:14.207019,-84
2021-10-14 15:54:14.207027,-98
2021-10-14 15:54:14.207035,-105
2021-10-14 15:54:14.207044,-103
2021-10-14 15:54:14.207052,-96
2021-10-14 15:54:14.207060,-88
2021-10-14 15:54:14.207069,-84
2021-10-14 15:54:14.207077,-84
2021-10-14 15:54:14.207085,-88
2021-10-14 15:54:14.207093,-91
2021-10-14 15:54:14.207102,-76
2021-10-14 15:54:14.207110,-64
2021-10-14 15:54:14.207118,-69
2021-10-14 15:54:14.207126,-76
2021-10-14 15:54:14.207135,-67
2021-10-14 15:54:14.207143,-55
2021-10-14 15:54:14.207151,-50
2021-10-14 15:54:14.207159,-36
2021-10-14 15:54:14.207167,-31
2021-10-14 15:54:14.207176,-43
2021-10-14 15:54:14.207184,-45
2021-10-14 15:54:14.207192,-31
2021-10-14 15:54:14.207201,-26
2021-10-14 15:54:14.207209,-31
2021-10-14 15:54:14.432077,-36
2021-10-14 15:54:14.432104,-36
2021-10-14 15:54:14.432112,-38
2021-10-14 15:54:14.432120,-33
2021-10-14 15:54:14.432128,-24
2021-10-14 15:54:14.432134,-24
2021-10-14 15:54:14.432142,-38
2021-10-14 15:54:14.432149,-48
2021-10-14 15:54:14.432156,-50
2021-10-14 15:54:14.432163,-48
2021-10-14 15:54:14.432170,-40
2021-10-14 15:54:14.432177,-38
2021-10-14 15:54:14.432184,-50
2021-10-14 15:54:14.432192,-55
2021-10-14 15:54:14.432198,-43
2021-10-14 15:54:14.432205,-40
2021-10-14 15:54:14.432212,-45
2021-10-14 15:54:14.432220,-40
2021-10-14 15:54:14.432244,-31
2021-10-14 15:54:14.432267,-26
2021-10-14 15:54:14.432278,-31
2021-10-14 15:54:14.432286,-36
2021-10-14 15:54:14.432295,-33
2021-10-14 15:54:14.432303,-31
2021-10-14 15:54:14.432311,-33
2021-10-14 15:54:14.432319,-19
2021-10-14 15:54:14.432328,-4
2021-10-14 15:54:14.432336,2
2021-10-14 15:54:14.432345,14
2021-10-14 15:54:14.432353,21
2021-10-14 15:54:14.656681,9
2021-10-14 15:54:14.656703,-12
2021-10-14 15:54:14.656712,-24
2021-10-14 15:54:14.656721,-24
2021-10-14 15:54:14.656730,-19
2021-10-14 15:54:14.656739,-16
2021-10-14 15:54:14.656747,-28
2021-10-14 15:54:14.656756,-31
2021-10-14 15:54:14.656764,-24
2021-10-14 15:54:14.656773,-16
2021-10-14 15:54:14.656781,-9
2021-10-14 15:54:14.656790,-2
2021-10-14 15:54:14.656798,7
2021-10-14 15:54:14.656807,101
2021-10-14 15:54:14.656815,404
2021-10-14 15:54:14.656824,774
2021-10-14 15:54:14.656832,644
2021-10-14 15:54:14.656841,-264
2021-10-14 15:54:14.656849,-1062
2021-10-14 15:54:14.656858,-822
2021-10-14 15:54:14.656866,-228
2021-10-14 15:54:14.656875,-93
2021-10-14 15:54:14.656883,-69
2021-10-14 15:54:14.656892,50
2021-10-14 15:54:14.656900,67
2021-10-14 15:54:14.656909,43
2021-10-14 15:54:14.656917,67
2021-10-14 15:54:14.656926,76
2021-10-14 15:54:14.656934,72
2021-10-14 15:54:14.656943,86
2021-10-14 15:54:14.881890,96
2021-10-14 15:54:14.881912,96
2021-10-14 15:54:14.881921,105
2021-10-14 15:54:14.881930,113
2021-10-14 15:54:14.881941,110
2021-10-14 15:54:14.881950,105
2021-10-14 15:54:14.881958,113
2021-10-14 15:54:14.881967,127
2021-10-14 15:54:14.881975,139
2021-10-14 15:54:14.881983,153
2021-10-14 15:54:14.881992,163
2021-10-14 15:54:14.882000,165
2021-10-14 15:54:14.882008,165
2021-10-14 15:54:14.882017,177
2021-10-14 15:54:14.882025,180
2021-10-14 15:54:14.882033,158
2021-10-14 15:54:14.882042,141
2021-10-14 15:54:14.882050,132
2021-10-14 15:54:14.882059,113
2021-10-14 15:54:14.882067,84
2021-10-14 15:54:14.882075,50
2021-10-14 15:54:14.882084,19
2021-10-14 15:54:14.882092,-9
2021-10-14 15:54:14.882100,-43
2021-10-14 15:54:14.882108,-74
2021-10-14 15:54:14.882117,-101
2021-10-14 15:54:14.882125,-117
2021-10-14 15:54:14.882134,-122
2021-10-14 15:54:14.882142,-129
2021-10-14 15:54:14.882150,-144
2021-10-14 15:54:15.106966,-151
2021-10-14 15:54:15.106988,-141
2021-10-14 15:54:15.106997,-132
2021-10-14 15:54:15.107006,-127
2021-10-14 15:54:15.107014,-129
2021-10-14 15:54:15.107023,-139
2021-10-14 15:54:15.107031,-139
2021-10-14 15:54:15.107039,-127
2021-10-14 15:54:15.107048,-120
2021-10-14 15:54:15.107056,-120
2021-10-14 15:54:15.107064,-117
2021-10-14 15:54:15.107073,-115
2021-10-14 15:54:15.107081,-108
2021-10-14 15:54:15.107089,-91
2021-10-14 15:54:15.107097,-84
2021-10-14 15:54:15.107106,-84
2021-10-14 15:54:15.107114,-81
2021-10-14 15:54:15.107122,-69
2021-10-14 15:54:15.107130,-62
2021-10-14 15:54:15.107138,-64
2021-10-14 15:54:15.107147,-67
2021-10-14 15:54:15.107155,-67
2021-10-14 15:54:15.107163,-62
2021-10-14 15:54:15.107172,-60
2021-10-14 15:54:15.107180,-62
2021-10-14 15:54:15.107188,-64
2021-10-14 15:54:15.107196,-67
2021-10-14 15:54:15.107205,-72
2021-10-14 15:54:15.107213,-69
2021-10-14 15:54:15.107221,-60
2021-10-14 15:54:15.466376,-57
2021-10-14 15:54:15.466397,-57
2021-10-14 15:54:15.466406,-57
2021-10-14 15:54:15.466415,-64
2021-10-14 15:54:15.466423,-74
2021-10-14 15:54:15.466431,-69
2021-10-14 15:54:15.466439,-60
2021-10-14 15:54:15.466448,-55
2021-10-14 15:54:15.466456,-48
2021-10-14 15:54:15.466464,-50
2021-10-14 15:54:15.466473,-57
2021-10-14 15:54:15.466481,-50
2021-10-14 15:54:15.466489,-36
2021-10-14 15:54:15.466498,-38
2021-10-14 15:54:15.466506,-43
2021-10-14 15:54:15.466514,-40
2021-10-14 15:54:15.466522,-36
2021-10-14 15:54:15.466531,-36
2021-10-14 15:54:15.466539,-38
2021-10-14 15:54:15.466547,-45
2021-10-14 15:54:15.466555,-55
2021-10-14 15:54:15.466563,-52
2021-10-14 15:54:15.466572,-45
2021-10-14 15:54:15.466580,-36
2021-10-14 15:54:15.466588,-24
2021-10-14 15:54:15.466596,-14
2021-10-14 15:54:15.466604,-9
2021-10-14 15:54:15.466613,-4
2021-10-14 15:54:15.466621,-4
2021-10-14 15:54:15.466629,-28
2021-10-14 15:54:15.645627,-45
2021-10-14 15:54:15.645648,-45
2021-10-14 15:54:15.645657,-40
2021-10-14 15:54:15.645666,-45
2021-10-14 15:54:15.645674,-52
2021-10-14 15:54:15.645683,-50
2021-10-14 15:54:15.645691,-43
2021-10-14 15:54:15.645699,-38
2021-10-14 15:54:15.645707,-38
2021-10-14 15:54:15.645716,-38
2021-10-14 15:54:15.645724,-24
2021-10-14 15:54:15.645732,7
2021-10-14 15:54:15.645741,139
2021-10-14 15:54:15.645749,492
2021-10-14 15:54:15.645757,788
2021-10-14 15:54:15.645766,423
2021-10-14 15:54:15.645774,-548
2021-10-14 15:54:15.645782,-1048
2021-10-14 15:54:15.645791,-598
2021-10-14 15:54:15.645799,-132
2021-10-14 15:54:15.645808,-96
2021-10-14 15:54:15.645816,-40
2021-10-14 15:54:15.645824,64
2021-10-14 15:54:15.645832,50
2021-10-14 15:54:15.645840,40
2021-10-14 15:54:15.645849,81
2021-10-14 15:54:15.645857,81
2021-10-14 15:54:15.645865,57
2021-10-14 15:54:15.645873,72
2021-10-14 15:54:15.645882,88
2021-10-14 15:54:15.961019,86
2021-10-14 15:54:15.961054,81
2021-10-14 15:54:15.961063,79
2021-10-14 15:54:15.961072,84
2021-10-14 15:54:15.961081,105
2021-10-14 15:54:15.961089,122
2021-10-14 15:54:15.961097,132
2021-10-14 15:54:15.961105,141
2021-10-14 15:54:15.961114,139
2021-10-14 15:54:15.961122,129
2021-10-14 15:54:15.961131,146
2021-10-14 15:54:15.961139,168
2021-10-14 15:54:15.961147,170
2021-10-14 15:54:15.961156,170
2021-10-14 15:54:15.961164,168
2021-10-14 15:54:15.961173,149
2021-10-14 15:54:15.961181,127
2021-10-14 15:54:15.961190,110
2021-10-14 15:54:15.961198,86
2021-10-14 15:54:15.961206,67
2021-10-14 15:54:15.961215,38
2021-10-14 15:54:15.961223,-14
2021-10-14 15:54:15.961231,-50
2021-10-14 15:54:15.961240,-57
2021-10-14 15:54:15.961248,-81
2021-10-14 15:54:15.961256,-122
2021-10-14 15:54:15.961264,-137
2021-10-14 15:54:15.961273,-129
2021-10-14 15:54:15.961281,-132
2021-10-14 15:54:15.961289,-132
2021-10-14 15:54:16.051918,-127
2021-10-14 15:54:16.051938,-125
2021-10-14 15:54:16.051947,-125
2021-10-14 15:54:16.051956,-125
2021-10-14 15:54:16.051964,-122
2021-10-14 15:54:16.051973,-113
2021-10-14 15:54:16.051981,-108
2021-10-14 15:54:16.051989,-103
2021-10-14 15:54:16.051998,-96
2021-10-14 15:54:16.052006,-88
2021-10-14 15:54:16.052015,-81
2021-10-14 15:54:16.052023,-72
2021-10-14 15:54:16.052031,-67
2021-10-14 15:54:16.052039,-60
2021-10-14 15:54:16.052048,-57
2021-10-14 15:54:16.052056,-62
2021-10-14 15:54:16.052065,-60
2021-10-14 15:54:16.052073,-48
2021-10-14 15:54:16.052081,-36
2021-10-14 15:54:16.052090,-33
2021-10-14 15:54:16.052098,-43
2021-10-14 15:54:16.052106,-45
2021-10-14 15:54:16.052114,-40
2021-10-14 15:54:16.052122,-43
2021-10-14 15:54:16.052131,-48
2021-10-14 15:54:16.052139,-45
2021-10-14 15:54:16.052147,-45
2021-10-14 15:54:16.052156,-48
2021-10-14 15:54:16.052164,-40
2021-10-14 15:54:16.052172,-31
2021-10-14 15:54:16.321997,-33
2021-10-14 15:54:16.322018,-40
2021-10-14 15:54:16.322028,-40
2021-10-14 15:54:16.322037,-40
2021-10-14 15:54:16.322045,-40
2021-10-14 15:54:16.322053,-43
2021-10-14 15:54:16.322061,-45
2021-10-14 15:54:16.322070,-50
2021-10-14 15:54:16.322078,-52
2021-10-14 15:54:16.322086,-48
2021-10-14 15:54:16.322095,-38
2021-10-14 15:54:16.322103,-38
2021-10-14 15:54:16.322111,-48
2021-10-14 15:54:16.322119,-48
2021-10-14 15:54:16.322128,-38
2021-10-14 15:54:16.322136,-38
2021-10-14 15:54:16.322144,-38
2021-10-14 15:54:16.322152,-28
2021-10-14 15:54:16.322161,-26
2021-10-14 15:54:16.322169,-26
2021-10-14 15:54:16.322177,-19
2021-10-14 15:54:16.322186,-14
2021-10-14 15:54:16.322194,-26
2021-10-14 15:54:16.322202,-31
2021-10-14 15:54:16.322210,-14
2021-10-14 15:54:16.322219,2
2021-10-14 15:54:16.322227,9
2021-10-14 15:54:16.322235,14
2021-10-14 15:54:16.322243,24
2021-10-14 15:54:16.322252,24
2021-10-14 15:54:16.545992,0
2021-10-14 15:54:16.546013,-24
2021-10-14 15:54:16.546023,-33
2021-10-14 15:54:16.546031,-31
2021-10-14 15:54:16.546040,-24
2021-10-14 15:54:16.546048,-21
2021-10-14 15:54:16.546056,-24
2021-10-14 15:54:16.546065,-21
2021-10-14 15:54:16.546073,-16
2021-10-14 15:54:16.546081,-14
2021-10-14 15:54:16.546089,-12
2021-10-14 15:54:16.546098,-12
2021-10-14 15:54:16.546106,4
2021-10-14 15:54:16.546114,113
2021-10-14 15:54:16.546123,411
2021-10-14 15:54:16.546131,735
2021-10-14 15:54:16.546140,543
2021-10-14 15:54:16.546148,-353
2021-10-14 15:54:16.546156,-1024
2021-10-14 15:54:16.546165,-745
2021-10-14 15:54:16.546173,-274
2021-10-14 15:54:16.546181,-163
2021-10-14 15:54:16.546189,-60
2021-10-14 15:54:16.546198,74
2021-10-14 15:54:16.546206,76
2021-10-14 15:54:16.546214,57
2021-10-14 15:54:16.546223,84
2021-10-14 15:54:16.546249,96
2021-10-14 15:54:16.546258,91
2021-10-14 15:54:16.546266,88
2021-10-14 15:54:16.816391,91
2021-10-14 15:54:16.816413,108
2021-10-14 15:54:16.816422,122
2021-10-14 15:54:16.816431,117
2021-10-14 15:54:16.816439,115
2021-10-14 15:54:16.816447,113
2021-10-14 15:54:16.816456,117
2021-10-14 15:54:16.816464,137
2021-10-14 15:54:16.816473,146
2021-10-14 15:54:16.816481,146
2021-10-14 15:54:16.816489,156
2021-10-14 15:54:16.816497,158
2021-10-14 15:54:16.816506,153
2021-10-14 15:54:16.816514,165
2021-10-14 15:54:16.816522,182
2021-10-14 15:54:16.816530,170
2021-10-14 15:54:16.816538,156
2021-10-14 15:54:16.816547,139
2021-10-14 15:54:16.816555,113
2021-10-14 15:54:16.816563,91
2021-10-14 15:54:16.816571,60
2021-10-14 15:54:16.816579,12
2021-10-14 15:54:16.816588,-26
2021-10-14 15:54:16.816596,-45
2021-10-14 15:54:16.816604,-69
2021-10-14 15:54:16.816612,-91
2021-10-14 15:54:16.816621,-101
2021-10-14 15:54:16.816629,-113
2021-10-14 15:54:16.816637,-127
2021-10-14 15:54:16.816645,-125
2021-10-14 15:54:17.086008,-115
2021-10-14 15:54:17.086033,-120
2021-10-14 15:54:17.086043,-122
2021-10-14 15:54:17.086051,-113
2021-10-14 15:54:17.086060,-105
2021-10-14 15:54:17.086068,-113
2021-10-14 15:54:17.086076,-127
2021-10-14 15:54:17.086085,-129
2021-10-14 15:54:17.086093,-108
2021-10-14 15:54:17.086101,-98
2021-10-14 15:54:17.086109,-108
2021-10-14 15:54:17.086117,-103
2021-10-14 15:54:17.086126,-81
2021-10-14 15:54:17.086134,-69
2021-10-14 15:54:17.086142,-76
2021-10-14 15:54:17.086151,-84
2021-10-14 15:54:17.086159,-86
2021-10-14 15:54:17.086167,-86
2021-10-14 15:54:17.086175,-81
2021-10-14 15:54:17.086184,-76
2021-10-14 15:54:17.086192,-74
2021-10-14 15:54:17.086200,-72
2021-10-14 15:54:17.086209,-72
2021-10-14 15:54:17.086217,-76
2021-10-14 15:54:17.086225,-74
2021-10-14 15:54:17.086233,-67
2021-10-14 15:54:17.086242,-64
2021-10-14 15:54:17.086250,-64
2021-10-14 15:54:17.086258,-67
2021-10-14 15:54:17.086267,-69
2021-10-14 15:54:17.311401,-57
2021-10-14 15:54:17.311422,-43
2021-10-14 15:54:17.311431,-48
2021-10-14 15:54:17.311440,-55
2021-10-14 15:54:17.311448,-48
2021-10-14 15:54:17.311457,-43
2021-10-14 15:54:17.311465,-50
2021-10-14 15:54:17.311473,-43
2021-10-14 15:54:17.311482,-31
2021-10-14 15:54:17.311490,-36
2021-10-14 15:54:17.311498,-40
2021-10-14 15:54:17.311507,-31
2021-10-14 15:54:17.311515,-28
2021-10-14 15:54:17.311523,-36
2021-10-14 15:54:17.311532,-40
2021-10-14 15:54:17.311540,-38
2021-10-14 15:54:17.311548,-33
2021-10-14 15:54:17.311556,-33
2021-10-14 15:54:17.311565,-33
2021-10-14 15:54:17.311573,-31
2021-10-14 15:54:17.311581,-26
2021-10-14 15:54:17.311590,-24
2021-10-14 15:54:17.311598,-21
2021-10-14 15:54:17.311606,-19
2021-10-14 15:54:17.311614,-7
2021-10-14 15:54:17.311623,9
2021-10-14 15:54:17.311631,0
2021-10-14 15:54:17.311639,-28
2021-10-14 15:54:17.311648,-45
2021-10-14 15:54:17.311656,-48
2021-10-14 15:54:17.447025,-38
2021-10-14 15:54:17.447045,-31
2021-10-14 15:54:17.447055,-31
2021-10-14 15:54:17.447063,-43
2021-10-14 15:54:17.447071,-48
2021-10-14 15:54:17.447080,-38
2021-10-14 15:54:17.447088,-24
2021-10-14 15:54:17.447096,-14
2021-10-14 15:54:17.447105,-7
2021-10-14 15:54:17.447113,81
2021-10-14 15:54:17.447121,399
2021-10-14 15:54:17.447129,771
2021-10-14 15:54:17.447138,601
2021-10-14 15:54:17.447146,-331
2021-10-14 15:54:17.447154,-1089
2021-10-14 15:54:17.447163,-836
2021-10-14 15:54:17.447171,-283
2021-10-14 15:54:17.447179,-141
2021-10-14 15:54:17.447187,-84
2021-10-14 15:54:17.447196,40
2021-10-14 15:54:17.447204,50
2021-10-14 15:54:17.447212,26
2021-10-14 15:54:17.447220,55
2021-10-14 15:54:17.447229,62
2021-10-14 15:54:17.447237,60
2021-10-14 15:54:17.447246,81
2021-10-14 15:54:17.447254,86
2021-10-14 15:54:17.447262,69
2021-10-14 15:54:17.447270,74
2021-10-14 15:54:17.447279,91
2021-10-14 15:54:17.805365,96
2021-10-14 15:54:17.805386,110
2021-10-14 15:54:17.805395,122
2021-10-14 15:54:17.805404,125
2021-10-14 15:54:17.805412,132
2021-10-14 15:54:17.805420,141
2021-10-14 15:54:17.805429,144
2021-10-14 15:54:17.805437,156
2021-10-14 15:54:17.805445,165
2021-10-14 15:54:17.805454,158
2021-10-14 15:54:17.805462,156
2021-10-14 15:54:17.805470,158
2021-10-14 15:54:17.805479,151
2021-10-14 15:54:17.805487,125
2021-10-14 15:54:17.805495,88
2021-10-14 15:54:17.805503,60
2021-10-14 15:54:17.805512,31
2021-10-14 15:54:17.805520,-4
2021-10-14 15:54:17.805528,-33
2021-10-14 15:54:17.805536,-60
2021-10-14 15:54:17.805545,-98
2021-10-14 15:54:17.805553,-125
2021-10-14 15:54:17.805561,-127
2021-10-14 15:54:17.805570,-127
2021-10-14 15:54:17.805578,-125
2021-10-14 15:54:17.805586,-129
2021-10-14 15:54:17.805594,-137
2021-10-14 15:54:17.805603,-132
2021-10-14 15:54:17.805611,-122
2021-10-14 15:54:17.805619,-120
2021-10-14 15:54:17.896945,-115
2021-10-14 15:54:17.896965,-113
2021-10-14 15:54:17.896974,-103
2021-10-14 15:54:17.896982,-93
2021-10-14 15:54:17.897151,-88
2021-10-14 15:54:17.897161,-84
2021-10-14 15:54:17.897169,-79
2021-10-14 15:54:17.897177,-72
2021-10-14 15:54:17.897186,-62
2021-10-14 15:54:17.897194,-55
2021-10-14 15:54:17.897202,-52
2021-10-14 15:54:17.897211,-43
2021-10-14 15:54:17.897219,-36
2021-10-14 15:54:17.897227,-45
2021-10-14 15:54:17.897236,-55
2021-10-14 15:54:17.897244,-48
2021-10-14 15:54:17.897252,-38
2021-10-14 15:54:17.897261,-45
2021-10-14 15:54:17.897271,-62
2021-10-14 15:54:17.897279,-64
2021-10-14 15:54:17.897287,-62
2021-10-14 15:54:17.897296,-64
2021-10-14 15:54:17.897304,-57
2021-10-14 15:54:17.897312,-55
2021-10-14 15:54:17.897321,-55
2021-10-14 15:54:17.897329,-55
2021-10-14 15:54:17.897337,-62
2021-10-14 15:54:17.897346,-57
2021-10-14 15:54:17.897354,-45
2021-10-14 15:54:17.897362,-36
2021-10-14 15:54:18.167051,-33
2021-10-14 15:54:18.167072,-33
2021-10-14 15:54:18.167081,-36
2021-10-14 15:54:18.167090,-40
2021-10-14 15:54:18.167098,-36
2021-10-14 15:54:18.167106,-26
2021-10-14 15:54:18.167115,-24
2021-10-14 15:54:18.167123,-33
2021-10-14 15:54:18.167131,-31
2021-10-14 15:54:18.167139,-21
2021-10-14 15:54:18.167148,-21
2021-10-14 15:54:18.167156,-19
2021-10-14 15:54:18.167164,-14
2021-10-14 15:54:18.167173,-21
2021-10-14 15:54:18.167181,-26
2021-10-14 15:54:18.167189,-24
2021-10-14 15:54:18.167198,-21
2021-10-14 15:54:18.167206,-14
2021-10-14 15:54:18.167214,-4
2021-10-14 15:54:18.167222,-4
2021-10-14 15:54:18.167231,-9
2021-10-14 15:54:18.167239,-14
2021-10-14 15:54:18.167247,-7
2021-10-14 15:54:18.167255,7
2021-10-14 15:54:18.167263,14
2021-10-14 15:54:18.167272,24
2021-10-14 15:54:18.167280,19
2021-10-14 15:54:18.167288,-4
2021-10-14 15:54:18.167296,-16
2021-10-14 15:54:18.167305,-14
2021-10-14 15:54:18.346635,-9
2021-10-14 15:54:18.346657,-7
2021-10-14 15:54:18.346666,-9
2021-10-14 15:54:18.346674,-14
2021-10-14 15:54:18.346683,-12
2021-10-14 15:54:18.346691,-2
2021-10-14 15:54:18.346699,-2
2021-10-14 15:54:18.346707,-4
2021-10-14 15:54:18.346715,12
2021-10-14 15:54:18.346723,84
2021-10-14 15:54:18.346732,339
2021-10-14 15:54:18.346740,733
2021-10-14 15:54:18.346748,762
2021-10-14 15:54:18.346757,-12
2021-10-14 15:54:18.346791,-935
2021-10-14 15:54:18.346804,-892
2021-10-14 15:54:18.346828,-259
2021-10-14 15:54:18.346847,-55
2021-10-14 15:54:18.346856,-76
2021-10-14 15:54:18.346864,52
2021-10-14 15:54:18.346872,96
2021-10-14 15:54:18.346880,45
2021-10-14 15:54:18.346888,64
2021-10-14 15:54:18.346896,79
2021-10-14 15:54:18.346905,62
2021-10-14 15:54:18.346913,72
2021-10-14 15:54:18.346921,79
2021-10-14 15:54:18.346932,69
2021-10-14 15:54:18.346941,76
2021-10-14 15:54:18.346949,91
2021-10-14 15:54:18.617080,91
2021-10-14 15:54:18.617101,96
2021-10-14 15:54:18.617110,103
2021-10-14 15:54:18.617119,103
2021-10-14 15:54:18.617127,103
2021-10-14 15:54:18.617136,108
2021-10-14 15:54:18.617144,108
2021-10-14 15:54:18.617152,122
2021-10-14 15:54:18.617160,139
2021-10-14 15:54:18.617169,144
2021-10-14 15:54:18.617177,141
2021-10-14 15:54:18.617185,137
2021-10-14 15:54:18.617193,134
2021-10-14 15:54:18.617202,137
2021-10-14 15:54:18.617210,117
2021-10-14 15:54:18.617218,79
2021-10-14 15:54:18.617226,57
2021-10-14 15:54:18.617234,36
2021-10-14 15:54:18.617242,4
2021-10-14 15:54:18.617251,-16
2021-10-14 15:54:18.617259,-40
2021-10-14 15:54:18.617267,-72
2021-10-14 15:54:18.617275,-84
2021-10-14 15:54:18.617283,-86
2021-10-14 15:54:18.617292,-103
2021-10-14 15:54:18.617300,-108
2021-10-14 15:54:18.617308,-101
2021-10-14 15:54:18.617317,-96
2021-10-14 15:54:18.617325,-101
2021-10-14 15:54:18.617333,-98
2021-10-14 15:54:18.841655,-91
2021-10-14 15:54:18.841677,-91
2021-10-14 15:54:18.841686,-96
2021-10-14 15:54:18.841695,-84
2021-10-14 15:54:18.841703,-64
2021-10-14 15:54:18.841711,-72
2021-10-14 15:54:18.841720,-74
2021-10-14 15:54:18.841728,-57
2021-10-14 15:54:18.841736,-40
2021-10-14 15:54:18.841745,-38
2021-10-14 15:54:18.841753,-45
2021-10-14 15:54:18.841761,-48
2021-10-14 15:54:18.841770,-36
2021-10-14 15:54:18.841778,-28
2021-10-14 15:54:18.841786,-26
2021-10-14 15:54:18.841795,-24
2021-10-14 15:54:18.841803,-33
2021-10-14 15:54:18.841811,-40
2021-10-14 15:54:18.841820,-28
2021-10-14 15:54:18.841828,-19
2021-10-14 15:54:18.841836,-31
2021-10-14 15:54:18.841844,-36
2021-10-14 15:54:18.841853,-31
2021-10-14 15:54:18.841861,-26
2021-10-14 15:54:18.841869,-19
2021-10-14 15:54:18.841877,-14
2021-10-14 15:54:18.841885,-19
2021-10-14 15:54:18.841893,-31
2021-10-14 15:54:18.841902,-40
2021-10-14 15:54:18.841910,-43
2021-10-14 15:54:19.066653,-38
2021-10-14 15:54:19.066675,-31
2021-10-14 15:54:19.066684,-28
2021-10-14 15:54:19.066693,-38
2021-10-14 15:54:19.066701,-45
2021-10-14 15:54:19.066710,-38
2021-10-14 15:54:19.066718,-28
2021-10-14 15:54:19.066726,-26
2021-10-14 15:54:19.066734,-26
2021-10-14 15:54:19.066743,-26
2021-10-14 15:54:19.066751,-24
2021-10-14 15:54:19.066759,-12
2021-10-14 15:54:19.066767,-7
2021-10-14 15:54:19.066776,-12
2021-10-14 15:54:19.066784,-12
2021-10-14 15:54:19.066792,-7
2021-10-14 15:54:19.066801,-9
2021-10-14 15:54:19.066809,-7
2021-10-14 15:54:19.066817,-4
2021-10-14 15:54:19.066825,-9
2021-10-14 15:54:19.066834,-9
2021-10-14 15:54:19.066842,-7
2021-10-14 15:54:19.066850,-7
2021-10-14 15:54:19.066858,0
2021-10-14 15:54:19.066867,4
2021-10-14 15:54:19.066875,9
2021-10-14 15:54:19.066883,24
2021-10-14 15:54:19.066892,28
2021-10-14 15:54:19.066900,26
2021-10-14 15:54:19.066908,38
2021-10-14 15:54:19.381453,31
2021-10-14 15:54:19.381474,0
2021-10-14 15:54:19.381483,-14
2021-10-14 15:54:19.381491,-16
2021-10-14 15:54:19.381499,-28
2021-10-14 15:54:19.381507,-24
2021-10-14 15:54:19.381515,-12
2021-10-14 15:54:19.381523,-16
2021-10-14 15:54:19.381531,-24
2021-10-14 15:54:19.381539,-19
2021-10-14 15:54:19.381547,-9
2021-10-14 15:54:19.381554,4
2021-10-14 15:54:19.381561,24
2021-10-14 15:54:19.381569,57
2021-10-14 15:54:19.381577,214
2021-10-14 15:54:19.381585,553
2021-10-14 15:54:19.381592,740
2021-10-14 15:54:19.381599,233
2021-10-14 15:54:19.381606,-694
2021-10-14 15:54:19.381613,-957
2021-10-14 15:54:19.381619,-485
2021-10-14 15:54:19.381626,-168
2021-10-14 15:54:19.381632,-110
2021-10-14 15:54:19.381640,21
2021-10-14 15:54:19.381646,108
2021-10-14 15:54:19.381653,67
2021-10-14 15:54:19.381661,55
2021-10-14 15:54:19.381694,88
2021-10-14 15:54:19.381707,96
2021-10-14 15:54:19.381715,91
2021-10-14 15:54:19.517024,96
2021-10-14 15:54:19.517045,88
2021-10-14 15:54:19.517054,76
2021-10-14 15:54:19.517062,74
2021-10-14 15:54:19.517071,72
2021-10-14 15:54:19.517079,57
2021-10-14 15:54:19.517087,64
2021-10-14 15:54:19.517095,86
2021-10-14 15:54:19.517104,81
2021-10-14 15:54:19.517112,76
2021-10-14 15:54:19.517120,103
2021-10-14 15:54:19.517128,120
2021-10-14 15:54:19.517137,120
2021-10-14 15:54:19.517145,139
2021-10-14 15:54:19.517153,156
2021-10-14 15:54:19.517161,149
2021-10-14 15:54:19.517169,137
2021-10-14 15:54:19.517178,134
2021-10-14 15:54:19.517186,129
2021-10-14 15:54:19.517194,113
2021-10-14 15:54:19.517202,74
2021-10-14 15:54:19.517210,33
2021-10-14 15:54:19.517218,4
2021-10-14 15:54:19.517227,-21
2021-10-14 15:54:19.517235,-45
2021-10-14 15:54:19.517243,-57
2021-10-14 15:54:19.517251,-76
2021-10-14 15:54:19.517259,-93
2021-10-14 15:54:19.517267,-93
2021-10-14 15:54:19.517275,-101
2021-10-14 15:54:19.785963,-105
2021-10-14 15:54:19.785990,-93
2021-10-14 15:54:19.786000,-98
2021-10-14 15:54:19.786008,-113
2021-10-14 15:54:19.786016,-108
2021-10-14 15:54:19.786025,-98
2021-10-14 15:54:19.786033,-88
2021-10-14 15:54:19.786041,-81
2021-10-14 15:54:19.786049,-88
2021-10-14 15:54:19.786058,-93
2021-10-14 15:54:19.786066,-76
2021-10-14 15:54:19.786074,-62
2021-10-14 15:54:19.786083,-62
2021-10-14 15:54:19.786091,-60
2021-10-14 15:54:19.786099,-64
2021-10-14 15:54:19.786107,-72
2021-10-14 15:54:19.786116,-57
2021-10-14 15:54:19.786124,-45
2021-10-14 15:54:19.786132,-48
2021-10-14 15:54:19.786141,-50
2021-10-14 15:54:19.786149,-50
2021-10-14 15:54:19.786157,-52
2021-10-14 15:54:19.786165,-48
2021-10-14 15:54:19.786174,-38
2021-10-14 15:54:19.786182,-40
2021-10-14 15:54:19.786190,-48
2021-10-14 15:54:19.786199,-50
2021-10-14 15:54:19.786207,-48
2021-10-14 15:54:19.786215,-38
2021-10-14 15:54:19.786223,-31
2021-10-14 15:54:19.967050,-40
2021-10-14 15:54:19.967070,-43
2021-10-14 15:54:19.967080,-33
2021-10-14 15:54:19.967088,-33
2021-10-14 15:54:19.967097,-33
2021-10-14 15:54:19.967105,-33
2021-10-14 15:54:19.967114,-43
2021-10-14 15:54:19.967122,-48
2021-10-14 15:54:19.967130,-40
2021-10-14 15:54:19.967139,-38
2021-10-14 15:54:19.967147,-48
2021-10-14 15:54:19.967155,-60
2021-10-14 15:54:19.967164,-60
2021-10-14 15:54:19.967172,-57
2021-10-14 15:54:19.967180,-55
2021-10-14 15:54:19.967188,-52
2021-10-14 15:54:19.967197,-52
2021-10-14 15:54:19.967205,-48
2021-10-14 15:54:19.967213,-40
2021-10-14 15:54:19.967221,-43
2021-10-14 15:54:19.967230,-40
2021-10-14 15:54:19.967238,-38
2021-10-14 15:54:19.967246,-43
2021-10-14 15:54:19.967254,-43
2021-10-14 15:54:19.967262,-38
2021-10-14 15:54:19.967271,-31
2021-10-14 15:54:19.967279,-16
2021-10-14 15:54:19.967287,-4
2021-10-14 15:54:19.967296,-4
2021-10-14 15:54:19.967304,2
2021-10-14 15:54:20.192100,16
2021-10-14 15:54:20.192121,4
2021-10-14 15:54:20.192130,-21
2021-10-14 15:54:20.192139,-26
2021-10-14 15:54:20.192147,-24
2021-10-14 15:54:20.192155,-28
2021-10-14 15:54:20.192164,-38
2021-10-14 15:54:20.192172,-43
2021-10-14 15:54:20.192180,-40
2021-10-14 15:54:20.192189,-36
2021-10-14 15:54:20.192197,-36
2021-10-14 15:54:20.192205,-33
2021-10-14 15:54:20.192213,-26
2021-10-14 15:54:20.192222,-7
2021-10-14 15:54:20.192230,96
2021-10-14 15:54:20.192238,401
2021-10-14 15:54:20.192247,757
2021-10-14 15:54:20.192255,579
2021-10-14 15:54:20.192263,-343
2021-10-14 15:54:20.192272,-1058
2021-10-14 15:54:20.192280,-771
2021-10-14 15:54:20.192288,-247
2021-10-14 15:54:20.192296,-129
2021-10-14 15:54:20.192305,-57
2021-10-14 15:54:20.192313,69
2021-10-14 15:54:20.192321,69
2021-10-14 15:54:20.192330,36
2021-10-14 15:54:20.192338,62
2021-10-14 15:54:20.192346,76
2021-10-14 15:54:20.192355,74
2021-10-14 15:54:20.462077,84
2021-10-14 15:54:20.462098,86
2021-10-14 15:54:20.462108,72
2021-10-14 15:54:20.462116,74
2021-10-14 15:54:20.462125,84
2021-10-14 15:54:20.462134,79
2021-10-14 15:54:20.462142,72
2021-10-14 15:54:20.462150,86
2021-10-14 15:54:20.462158,91
2021-10-14 15:54:20.462167,86
2021-10-14 15:54:20.462175,96
2021-10-14 15:54:20.462183,113
2021-10-14 15:54:20.462191,117
2021-10-14 15:54:20.462200,120
2021-10-14 15:54:20.462208,132
2021-10-14 15:54:20.462216,137
2021-10-14 15:54:20.462225,125
2021-10-14 15:54:20.462233,105
2021-10-14 15:54:20.462242,96
2021-10-14 15:54:20.462250,84
2021-10-14 15:54:20.462258,55
2021-10-14 15:54:20.462267,26
2021-10-14 15:54:20.462275,2
2021-10-14 15:54:20.462283,-26
2021-10-14 15:54:20.462291,-55
2021-10-14 15:54:20.462300,-69
2021-10-14 15:54:20.462308,-84
2021-10-14 15:54:20.462316,-103
2021-10-14 15:54:20.462324,-113
2021-10-14 15:54:20.462349,-117
2021-10-14 15:54:20.777046,-115
2021-10-14 15:54:20.777068,-108
2021-10-14 15:54:20.777078,-101
2021-10-14 15:54:20.777086,-105
2021-10-14 15:54:20.777094,-108
2021-10-14 15:54:20.777102,-110
2021-10-14 15:54:20.777111,-105
2021-10-14 15:54:20.777119,-96
2021-10-14 15:54:20.777127,-91
2021-10-14 15:54:20.777135,-84
2021-10-14 15:54:20.777143,-72
2021-10-14 15:54:20.777152,-69
2021-10-14 15:54:20.777160,-69
2021-10-14 15:54:20.777168,-60
2021-10-14 15:54:20.777176,-48
2021-10-14 15:54:20.777184,-52
2021-10-14 15:54:20.777193,-55
2021-10-14 15:54:20.777201,-48
2021-10-14 15:54:20.777209,-40
2021-10-14 15:54:20.777218,-33
2021-10-14 15:54:20.777226,-40
2021-10-14 15:54:20.777234,-43
2021-10-14 15:54:20.777242,-36
2021-10-14 15:54:20.777251,-36
2021-10-14 15:54:20.777259,-38
2021-10-14 15:54:20.777267,-28
2021-10-14 15:54:20.777275,-24
2021-10-14 15:54:20.777283,-31
2021-10-14 15:54:20.777292,-36
2021-10-14 15:54:20.777300,-31
2021-10-14 15:54:20.867052,-24
2021-10-14 15:54:20.867073,-21
2021-10-14 15:54:20.867082,-21
2021-10-14 15:54:20.867091,-19
2021-10-14 15:54:20.867099,-14
2021-10-14 15:54:20.867108,-12
2021-10-14 15:54:20.867116,-12
2021-10-14 15:54:20.867124,-4
2021-10-14 15:54:20.867132,-4
2021-10-14 15:54:20.867141,-16
2021-10-14 15:54:20.867149,-21
2021-10-14 15:54:20.867157,-9
2021-10-14 15:54:20.867165,-7
2021-10-14 15:54:20.867173,-14
2021-10-14 15:54:20.867182,-16
2021-10-14 15:54:20.867190,-19
2021-10-14 15:54:20.867198,-16
2021-10-14 15:54:20.867206,-12
2021-10-14 15:54:20.867214,-7
2021-10-14 15:54:20.867223,-7
2021-10-14 15:54:20.867231,-9
2021-10-14 15:54:20.867239,-7
2021-10-14 15:54:20.867247,-7
2021-10-14 15:54:20.867255,-14
2021-10-14 15:54:20.867263,-16
2021-10-14 15:54:20.867271,-7
2021-10-14 15:54:20.867279,0
2021-10-14 15:54:20.867288,-12
2021-10-14 15:54:20.867296,-21
2021-10-14 15:54:20.867304,-4
2021-10-14 15:54:21.136703,9
2021-10-14 15:54:21.136725,19
2021-10-14 15:54:21.136734,24
2021-10-14 15:54:21.136743,16
2021-10-14 15:54:21.136751,2
2021-10-14 15:54:21.136760,-12
2021-10-14 15:54:21.136768,-21
2021-10-14 15:54:21.136777,-19
2021-10-14 15:54:21.136785,-14
2021-10-14 15:54:21.136794,-21
2021-10-14 15:54:21.136802,-28
2021-10-14 15:54:21.136810,-21
2021-10-14 15:54:21.136818,-14
2021-10-14 15:54:21.136827,-9
2021-10-14 15:54:21.136835,-2
2021-10-14 15:54:21.136844,-2
2021-10-14 15:54:21.136852,4
2021-10-14 15:54:21.136860,69
2021-10-14 15:54:21.136869,319
2021-10-14 15:54:21.136877,709
2021-10-14 15:54:21.136885,740
2021-10-14 15:54:21.136894,-12
2021-10-14 15:54:21.136902,-921
2021-10-14 15:54:21.136910,-901
2021-10-14 15:54:21.136918,-295
2021-10-14 15:54:21.136927,-74
2021-10-14 15:54:21.136935,-79
2021-10-14 15:54:21.136943,33
2021-10-14 15:54:21.136951,72
2021-10-14 15:54:21.136960,33
2021-10-14 15:54:21.362065,52
2021-10-14 15:54:21.362085,69
2021-10-14 15:54:21.362093,55
2021-10-14 15:54:21.362100,57
2021-10-14 15:54:21.362107,72
2021-10-14 15:54:21.362114,74
2021-10-14 15:54:21.362121,72
2021-10-14 15:54:21.362129,79
2021-10-14 15:54:21.362137,81
2021-10-14 15:54:21.362143,76
2021-10-14 15:54:21.362152,84
2021-10-14 15:54:21.362159,96
2021-10-14 15:54:21.362167,105
2021-10-14 15:54:21.362174,120
2021-10-14 15:54:21.362182,127
2021-10-14 15:54:21.362189,125
2021-10-14 15:54:21.362196,134
2021-10-14 15:54:21.362204,144
2021-10-14 15:54:21.362212,141
2021-10-14 15:54:21.362220,139
2021-10-14 15:54:21.362228,139
2021-10-14 15:54:21.362236,122
2021-10-14 15:54:21.362243,96
2021-10-14 15:54:21.362251,81
2021-10-14 15:54:21.362259,67
2021-10-14 15:54:21.362268,38
2021-10-14 15:54:21.362277,4
2021-10-14 15:54:21.362286,-31
2021-10-14 15:54:21.362295,-64
2021-10-14 15:54:21.362303,-79
2021-10-14 15:54:21.631749,-88
2021-10-14 15:54:21.631770,-105
2021-10-14 15:54:21.631780,-113
2021-10-14 15:54:21.631788,-115
2021-10-14 15:54:21.631797,-115
2021-10-14 15:54:21.631805,-105
2021-10-14 15:54:21.631813,-101
2021-10-14 15:54:21.631822,-105
2021-10-14 15:54:21.631830,-117
2021-10-14 15:54:21.631838,-117
2021-10-14 15:54:21.631847,-101
2021-10-14 15:54:21.631855,-84
2021-10-14 15:54:21.631863,-81
2021-10-14 15:54:21.631872,-86
2021-10-14 15:54:21.631880,-88
2021-10-14 15:54:21.631888,-84
2021-10-14 15:54:21.631897,-69
2021-10-14 15:54:21.631905,-60
2021-10-14 15:54:21.631916,-55
2021-10-14 15:54:21.631957,-45
2021-10-14 15:54:21.631979,-48
2021-10-14 15:54:21.631994,-55
2021-10-14 15:54:21.632003,-48
2021-10-14 15:54:21.632011,-38
2021-10-14 15:54:21.632020,-33
2021-10-14 15:54:21.632029,-33
2021-10-14 15:54:21.632037,-40
2021-10-14 15:54:21.632045,-45
2021-10-14 15:54:21.632054,-43
2021-10-14 15:54:21.632062,-40
2021-10-14 15:54:21.856059,-36
2021-10-14 15:54:21.856080,-31
2021-10-14 15:54:21.856090,-33
2021-10-14 15:54:21.856099,-36
2021-10-14 15:54:21.856107,-26
2021-10-14 15:54:21.856114,-21
2021-10-14 15:54:21.856122,-28
2021-10-14 15:54:21.856130,-28
2021-10-14 15:54:21.856138,-24
2021-10-14 15:54:21.856146,-31
2021-10-14 15:54:21.856154,-33
2021-10-14 15:54:21.856161,-26
2021-10-14 15:54:21.856169,-24
2021-10-14 15:54:21.856177,-21
2021-10-14 15:54:21.856185,-21
2021-10-14 15:54:21.856193,-24
2021-10-14 15:54:21.856202,-19
2021-10-14 15:54:21.856210,-9
2021-10-14 15:54:21.856218,-12
2021-10-14 15:54:21.856225,-26
2021-10-14 15:54:21.856232,-26
2021-10-14 15:54:21.856240,-16
2021-10-14 15:54:21.856248,-24
2021-10-14 15:54:21.856256,-26
2021-10-14 15:54:21.856264,-19
2021-10-14 15:54:21.856272,-19
2021-10-14 15:54:21.856280,-21
2021-10-14 15:54:21.856288,-19
2021-10-14 15:54:21.856296,-14
2021-10-14 15:54:21.856304,-7
2021-10-14 15:54:22.037067,-4
2021-10-14 15:54:22.037089,0
2021-10-14 15:54:22.037098,-4
2021-10-14 15:54:22.037106,-9
2021-10-14 15:54:22.037115,-4
2021-10-14 15:54:22.037123,4
2021-10-14 15:54:22.037132,4
2021-10-14 15:54:22.037140,-9
2021-10-14 15:54:22.037148,-28
2021-10-14 15:54:22.037157,-38
2021-10-14 15:54:22.037165,-33
2021-10-14 15:54:22.037173,-28
2021-10-14 15:54:22.037182,-33
2021-10-14 15:54:22.037190,-36
2021-10-14 15:54:22.037198,-28
2021-10-14 15:54:22.037207,-24
2021-10-14 15:54:22.037215,-24
2021-10-14 15:54:22.037223,-21
2021-10-14 15:54:22.037232,-14
2021-10-14 15:54:22.037240,2
2021-10-14 15:54:22.037248,74
2021-10-14 15:54:22.037257,322
2021-10-14 15:54:22.037265,685
2021-10-14 15:54:22.037274,658
2021-10-14 15:54:22.037282,-132
2021-10-14 15:54:22.037290,-954
2021-10-14 15:54:22.037298,-841
2021-10-14 15:54:22.037307,-310
2021-10-14 15:54:22.037315,-146
2021-10-14 15:54:22.037323,-98
2021-10-14 15:54:22.306713,31
2021-10-14 15:54:22.306735,43
2021-10-14 15:54:22.306744,0
2021-10-14 15:54:22.306753,33
2021-10-14 15:54:22.306761,62
2021-10-14 15:54:22.306769,43
2021-10-14 15:54:22.306778,40
2021-10-14 15:54:22.306786,55
2021-10-14 15:54:22.306794,52
2021-10-14 15:54:22.306802,50
2021-10-14 15:54:22.306810,60
2021-10-14 15:54:22.306819,74
2021-10-14 15:54:22.306827,84
2021-10-14 15:54:22.306835,86
2021-10-14 15:54:22.306843,96
2021-10-14 15:54:22.306852,105
2021-10-14 15:54:22.306860,117
2021-10-14 15:54:22.306868,129
2021-10-14 15:54:22.306877,144
2021-10-14 15:54:22.306885,151
2021-10-14 15:54:22.306893,161
2021-10-14 15:54:22.306902,173
2021-10-14 15:54:22.306910,180
2021-10-14 15:54:22.306918,170
2021-10-14 15:54:22.306926,151
2021-10-14 15:54:22.306935,137
2021-10-14 15:54:22.306943,115
2021-10-14 15:54:22.306951,81
2021-10-14 15:54:22.306959,55
2021-10-14 15:54:22.306968,33
2021-10-14 15:54:22.532223,4
2021-10-14 15:54:22.532245,-24
2021-10-14 15:54:22.532255,-48
2021-10-14 15:54:22.532263,-60
2021-10-14 15:54:22.532272,-72
2021-10-14 15:54:22.532280,-81
2021-10-14 15:54:22.532289,-79
2021-10-14 15:54:22.532297,-84
2021-10-14 15:54:22.532305,-91
2021-10-14 15:54:22.532314,-96
2021-10-14 15:54:22.532322,-103
2021-10-14 15:54:22.532330,-108
2021-10-14 15:54:22.532339,-101
2021-10-14 15:54:22.532347,-84
2021-10-14 15:54:22.532355,-79
2021-10-14 15:54:22.532363,-81
2021-10-14 15:54:22.532371,-76
2021-10-14 15:54:22.532380,-69
2021-10-14 15:54:22.532388,-62
2021-10-14 15:54:22.532397,-50
2021-10-14 15:54:22.532405,-45
2021-10-14 15:54:22.532413,-48
2021-10-14 15:54:22.532421,-38
2021-10-14 15:54:22.532430,-26
2021-10-14 15:54:22.532438,-33
2021-10-14 15:54:22.532446,-38
2021-10-14 15:54:22.532454,-31
2021-10-14 15:54:22.532462,-26
2021-10-14 15:54:22.532469,-28
2021-10-14 15:54:22.532476,-24
2021-10-14 15:54:22.712045,-21
2021-10-14 15:54:22.712065,-26
2021-10-14 15:54:22.712075,-24
2021-10-14 15:54:22.712083,-21
2021-10-14 15:54:22.712092,-28
2021-10-14 15:54:22.712100,-26
2021-10-14 15:54:22.712108,-19
2021-10-14 15:54:22.712117,-21
2021-10-14 15:54:22.712125,-12
2021-10-14 15:54:22.712134,-7
2021-10-14 15:54:22.712142,-24
2021-10-14 15:54:22.712150,-36
2021-10-14 15:54:22.712159,-21
2021-10-14 15:54:22.712167,-9
2021-10-14 15:54:22.712175,-12
2021-10-14 15:54:22.712183,-21
2021-10-14 15:54:22.712192,-28
2021-10-14 15:54:22.712200,-26
2021-10-14 15:54:22.712208,-19
2021-10-14 15:54:22.712217,-14
2021-10-14 15:54:22.712225,-16
2021-10-14 15:54:22.712233,-19
2021-10-14 15:54:22.712241,-16
2021-10-14 15:54:22.712249,-9
2021-10-14 15:54:22.712258,-12
2021-10-14 15:54:22.712266,-12
2021-10-14 15:54:22.712274,-2
2021-10-14 15:54:22.712283,12
2021-10-14 15:54:22.712291,19
2021-10-14 15:54:22.712299,19
2021-10-14 15:54:22.982068,24
2021-10-14 15:54:22.982088,24
2021-10-14 15:54:22.982098,4
2021-10-14 15:54:22.982106,-24
2021-10-14 15:54:22.982114,-38
2021-10-14 15:54:22.982123,-38
2021-10-14 15:54:22.982131,-33
2021-10-14 15:54:22.982139,-31
2021-10-14 15:54:22.982147,-24
2021-10-14 15:54:22.982156,-26
2021-10-14 15:54:22.982164,-28
2021-10-14 15:54:22.982172,-24
2021-10-14 15:54:22.982181,-16
2021-10-14 15:54:22.982189,-7
2021-10-14 15:54:22.982197,57
2021-10-14 15:54:22.982205,278
2021-10-14 15:54:22.982214,656
2021-10-14 15:54:22.982222,740
2021-10-14 15:54:22.982230,12
2021-10-14 15:54:22.982238,-937
2021-10-14 15:54:22.982247,-985
2021-10-14 15:54:22.982255,-420
2021-10-14 15:54:22.982263,-163
2021-10-14 15:54:22.982271,-110
2021-10-14 15:54:22.982280,38
2021-10-14 15:54:22.982288,96
2021-10-14 15:54:22.982296,52
2021-10-14 15:54:22.982305,50
2021-10-14 15:54:22.982313,67
2021-10-14 15:54:22.982321,69
2021-10-14 15:54:23.296477,81
2021-10-14 15:54:23.296498,93
2021-10-14 15:54:23.296507,79
2021-10-14 15:54:23.296516,67
2021-10-14 15:54:23.296524,79
2021-10-14 15:54:23.296532,86
2021-10-14 15:54:23.296541,81
2021-10-14 15:54:23.296549,86
2021-10-14 15:54:23.296557,93
2021-10-14 15:54:23.296566,91
2021-10-14 15:54:23.296574,103
2021-10-14 15:54:23.296582,125
2021-10-14 15:54:23.296590,139
2021-10-14 15:54:23.296599,149
2021-10-14 15:54:23.296607,151
2021-10-14 15:54:23.296615,149
2021-10-14 15:54:23.296623,149
2021-10-14 15:54:23.296632,151
2021-10-14 15:54:23.296640,144
2021-10-14 15:54:23.296648,120
2021-10-14 15:54:23.296657,91
2021-10-14 15:54:23.296665,64
2021-10-14 15:54:23.296673,40
2021-10-14 15:54:23.296681,12
2021-10-14 15:54:23.296690,-16
2021-10-14 15:54:23.296698,-40
2021-10-14 15:54:23.296706,-64
2021-10-14 15:54:23.296714,-88
2021-10-14 15:54:23.296723,-96
2021-10-14 15:54:23.296731,-88
2021-10-14 15:54:23.431998,-91
2021-10-14 15:54:23.432017,-93
2021-10-14 15:54:23.432026,-96
2021-10-14 15:54:23.432035,-103
2021-10-14 15:54:23.432044,-110
2021-10-14 15:54:23.432052,-108
2021-10-14 15:54:23.432061,-96
2021-10-14 15:54:23.432069,-96
2021-10-14 15:54:23.432078,-101
2021-10-14 15:54:23.432086,-98
2021-10-14 15:54:23.432094,-81
2021-10-14 15:54:23.432103,-67
2021-10-14 15:54:23.432111,-62
2021-10-14 15:54:23.432119,-62
2021-10-14 15:54:23.432127,-67
2021-10-14 15:54:23.432136,-64
2021-10-14 15:54:23.432144,-52
2021-10-14 15:54:23.432153,-43
2021-10-14 15:54:23.432161,-43
2021-10-14 15:54:23.432169,-48
2021-10-14 15:54:23.432177,-55
2021-10-14 15:54:23.432185,-60
2021-10-14 15:54:23.432194,-52
2021-10-14 15:54:23.432202,-48
2021-10-14 15:54:23.432210,-57
2021-10-14 15:54:23.432218,-57
2021-10-14 15:54:23.432227,-50
2021-10-14 15:54:23.432235,-48
2021-10-14 15:54:23.432243,-48
2021-10-14 15:54:23.432251,-38
2021-10-14 15:54:23.702069,-36
2021-10-14 15:54:23.702089,-43
2021-10-14 15:54:23.702099,-43
2021-10-14 15:54:23.702107,-36
2021-10-14 15:54:23.702116,-33
2021-10-14 15:54:23.702124,-31
2021-10-14 15:54:23.702132,-36
2021-10-14 15:54:23.702141,-55
2021-10-14 15:54:23.702149,-57
2021-10-14 15:54:23.702157,-45
2021-10-14 15:54:23.702165,-43
2021-10-14 15:54:23.702174,-40
2021-10-14 15:54:23.702182,-38
2021-10-14 15:54:23.702190,-43
2021-10-14 15:54:23.702198,-43
2021-10-14 15:54:23.702207,-36
2021-10-14 15:54:23.702215,-33
2021-10-14 15:54:23.702223,-33
2021-10-14 15:54:23.702232,-28
2021-10-14 15:54:23.702240,-21
2021-10-14 15:54:23.702248,-9
2021-10-14 15:54:23.702256,2
2021-10-14 15:54:23.702264,9
2021-10-14 15:54:23.702273,9
2021-10-14 15:54:23.702281,-4
2021-10-14 15:54:23.702289,-26
2021-10-14 15:54:23.702297,-31
2021-10-14 15:54:23.702305,-24
2021-10-14 15:54:23.702314,-21
2021-10-14 15:54:23.702322,-21
2021-10-14 15:54:23.970363,-21
2021-10-14 15:54:23.970384,-21
2021-10-14 15:54:23.970393,-14
2021-10-14 15:54:23.970402,-12
2021-10-14 15:54:23.970410,-9
2021-10-14 15:54:23.970419,0
2021-10-14 15:54:23.970427,31
2021-10-14 15:54:23.970435,170
2021-10-14 15:54:23.970444,521
2021-10-14 15:54:23.970452,815
2021-10-14 15:54:23.970460,447
2021-10-14 15:54:23.970469,-557
2021-10-14 15:54:23.970477,-1101
2021-10-14 15:54:23.970485,-651
2021-10-14 15:54:23.970493,-161
2021-10-14 15:54:23.970501,-113
2021-10-14 15:54:23.970510,-36
2021-10-14 15:54:23.970518,84
2021-10-14 15:54:23.970526,52
2021-10-14 15:54:23.970535,26
2021-10-14 15:54:23.970543,67
2021-10-14 15:54:23.970551,74
2021-10-14 15:54:23.970560,64
2021-10-14 15:54:23.970568,76
2021-10-14 15:54:23.970576,81
2021-10-14 15:54:23.970585,79
2021-10-14 15:54:23.970593,76
2021-10-14 15:54:23.970601,72
2021-10-14 15:54:23.970609,76
2021-10-14 15:54:23.970618,81
2021-10-14 15:54:24.151694,84
2021-10-14 15:54:24.151715,96
2021-10-14 15:54:24.151724,110
2021-10-14 15:54:24.151733,115
2021-10-14 15:54:24.151742,127
2021-10-14 15:54:24.151750,137
2021-10-14 15:54:24.151758,125
2021-10-14 15:54:24.151767,125
2021-10-14 15:54:24.151775,137
2021-10-14 15:54:24.151784,132
2021-10-14 15:54:24.151792,115
2021-10-14 15:54:24.151800,91
2021-10-14 15:54:24.151809,57
2021-10-14 15:54:24.151817,33
2021-10-14 15:54:24.151825,12
2021-10-14 15:54:24.151834,-21
2021-10-14 15:54:24.151842,-52
2021-10-14 15:54:24.151851,-74
2021-10-14 15:54:24.151859,-93
2021-10-14 15:54:24.151867,-108
2021-10-14 15:54:24.151876,-122
2021-10-14 15:54:24.151884,-129
2021-10-14 15:54:24.151892,-129
2021-10-14 15:54:24.151900,-132
2021-10-14 15:54:24.151909,-134
2021-10-14 15:54:24.151917,-127
2021-10-14 15:54:24.151925,-125
2021-10-14 15:54:24.151933,-127
2021-10-14 15:54:24.151942,-120
2021-10-14 15:54:24.151950,-110
2021-10-14 15:54:24.332100,-105
2021-10-14 15:54:24.332121,-98
2021-10-14 15:54:24.332130,-93
2021-10-14 15:54:24.332139,-91
2021-10-14 15:54:24.332147,-84
2021-10-14 15:54:24.332155,-72
2021-10-14 15:54:24.332163,-60
2021-10-14 15:54:24.332172,-52
2021-10-14 15:54:24.332180,-55
2021-10-14 15:54:24.332188,-52
2021-10-14 15:54:24.332197,-50
2021-10-14 15:54:24.332205,-57
2021-10-14 15:54:24.332213,-64
2021-10-14 15:54:24.332221,-60
2021-10-14 15:54:24.332230,-48
2021-10-14 15:54:24.332238,-48
2021-10-14 15:54:24.332246,-64
2021-10-14 15:54:24.332254,-72
2021-10-14 15:54:24.332262,-62
2021-10-14 15:54:24.332271,-52
2021-10-14 15:54:24.332279,-52
2021-10-14 15:54:24.332291,-52
2021-10-14 15:54:24.332327,-60
2021-10-14 15:54:24.332336,-60
2021-10-14 15:54:24.332345,-50
2021-10-14 15:54:24.332353,-38
2021-10-14 15:54:24.332362,-36
2021-10-14 15:54:24.332370,-43
2021-10-14 15:54:24.332397,-43
2021-10-14 15:54:24.332410,-38
2021-10-14 15:54:24.556908,-36
2021-10-14 15:54:24.556952,-38
2021-10-14 15:54:24.556962,-48
2021-10-14 15:54:24.556971,-50
2021-10-14 15:54:24.556979,-50
2021-10-14 15:54:24.556986,-50
2021-10-14 15:54:24.556995,-48
2021-10-14 15:54:24.557003,-43
2021-10-14 15:54:24.557011,-36
2021-10-14 15:54:24.557018,-43
2021-10-14 15:54:24.557026,-52
2021-10-14 15:54:24.557034,-50
2021-10-14 15:54:24.557042,-36
2021-10-14 15:54:24.557050,-31
2021-10-14 15:54:24.557058,-31
2021-10-14 15:54:24.557065,-26
2021-10-14 15:54:24.557072,-19
2021-10-14 15:54:24.557080,-4
2021-10-14 15:54:24.557088,-4
2021-10-14 15:54:24.557096,-28
2021-10-14 15:54:24.557104,-43
2021-10-14 15:54:24.557111,-40
2021-10-14 15:54:24.557119,-40
2021-10-14 15:54:24.557128,-40
2021-10-14 15:54:24.557135,-36
2021-10-14 15:54:24.557143,-31
2021-10-14 15:54:24.557206,-26
2021-10-14 15:54:24.557222,-26
2021-10-14 15:54:24.557231,-21
2021-10-14 15:54:24.557240,-12
2021-10-14 15:54:24.916066,4
2021-10-14 15:54:24.916087,81
2021-10-14 15:54:24.916096,339
2021-10-14 15:54:24.916105,714
2021-10-14 15:54:24.916114,699
2021-10-14 15:54:24.916122,-103
2021-10-14 15:54:24.916130,-985
2021-10-14 15:54:24.916139,-884
2021-10-14 15:54:24.916147,-274
2021-10-14 15:54:24.916155,-91
2021-10-14 15:54:24.916164,-86
2021-10-14 15:54:24.916172,45
2021-10-14 15:54:24.916180,81
2021-10-14 15:54:24.916188,38
2021-10-14 15:54:24.916197,62
2021-10-14 15:54:24.916205,86
2021-10-14 15:54:24.916213,67
2021-10-14 15:54:24.916222,64
2021-10-14 15:54:24.916230,81
2021-10-14 15:54:24.916238,88
2021-10-14 15:54:24.916246,88
2021-10-14 15:54:24.916255,86
2021-10-14 15:54:24.916263,91
2021-10-14 15:54:24.916271,108
2021-10-14 15:54:24.916279,125
2021-10-14 15:54:24.916288,132
2021-10-14 15:54:24.916296,134
2021-10-14 15:54:24.916304,137
2021-10-14 15:54:24.916313,149
2021-10-14 15:54:24.916321,165
2021-10-14 15:54:25.052118,170
2021-10-14 15:54:25.052139,170
2021-10-14 15:54:25.052149,175
2021-10-14 15:54:25.052157,165
2021-10-14 15:54:25.052166,146
2021-10-14 15:54:25.052174,137
2021-10-14 15:54:25.052183,122
2021-10-14 15:54:25.052191,81
2021-10-14 15:54:25.052199,36
2021-10-14 15:54:25.052208,0
2021-10-14 15:54:25.052216,-24
2021-10-14 15:54:25.052224,-45
2021-10-14 15:54:25.052233,-72
2021-10-14 15:54:25.052241,-98
2021-10-14 15:54:25.052249,-113
2021-10-14 15:54:25.052257,-115
2021-10-14 15:54:25.052265,-122
2021-10-14 15:54:25.052274,-127
2021-10-14 15:54:25.052282,-129
2021-10-14 15:54:25.052290,-137
2021-10-14 15:54:25.052298,-141
2021-10-14 15:54:25.052307,-141
2021-10-14 15:54:25.052315,-139
2021-10-14 15:54:25.052323,-134
2021-10-14 15:54:25.052331,-122
2021-10-14 15:54:25.052340,-115
2021-10-14 15:54:25.052348,-115
2021-10-14 15:54:25.052356,-113
2021-10-14 15:54:25.052364,-98
2021-10-14 15:54:25.052373,-88
2021-10-14 15:54:25.367136,-84
2021-10-14 15:54:25.367158,-76
2021-10-14 15:54:25.367167,-69
2021-10-14 15:54:25.367176,-69
2021-10-14 15:54:25.367184,-67
2021-10-14 15:54:25.367192,-62
2021-10-14 15:54:25.367200,-52
2021-10-14 15:54:25.367208,-50
2021-10-14 15:54:25.367217,-60
2021-10-14 15:54:25.367225,-64
2021-10-14 15:54:25.367233,-57
2021-10-14 15:54:25.367241,-50
2021-10-14 15:54:25.367249,-48
2021-10-14 15:54:25.367258,-52
2021-10-14 15:54:25.367266,-69
2021-10-14 15:54:25.367274,-74
2021-10-14 15:54:25.367282,-57
2021-10-14 15:54:25.367291,-50
2021-10-14 15:54:25.367299,-52
2021-10-14 15:54:25.367307,-48
2021-10-14 15:54:25.367315,-50
2021-10-14 15:54:25.367323,-55
2021-10-14 15:54:25.367331,-48
2021-10-14 15:54:25.367340,-38
2021-10-14 15:54:25.367348,-36
2021-10-14 15:54:25.367356,-38
2021-10-14 15:54:25.367364,-40
2021-10-14 15:54:25.367372,-43
2021-10-14 15:54:25.367380,-33
2021-10-14 15:54:25.367388,-26
2021-10-14 15:54:25.501730,-24
2021-10-14 15:54:25.501759,-19
2021-10-14 15:54:25.501768,-16
2021-10-14 15:54:25.501776,-16
2021-10-14 15:54:25.501785,-14
2021-10-14 15:54:25.501793,-12
2021-10-14 15:54:25.501801,-12
2021-10-14 15:54:25.501810,-14
2021-10-14 15:54:25.501818,-28
2021-10-14 15:54:25.501826,-28
2021-10-14 15:54:25.501835,-14
2021-10-14 15:54:25.501843,-2
2021-10-14 15:54:25.501851,2
2021-10-14 15:54:25.501860,-4
2021-10-14 15:54:25.501868,-12
2021-10-14 15:54:25.501876,-2
2021-10-14 15:54:25.501884,14
2021-10-14 15:54:25.501893,21
2021-10-14 15:54:25.501901,21
2021-10-14 15:54:25.501909,7
2021-10-14 15:54:25.501918,-14
2021-10-14 15:54:25.501926,-21
2021-10-14 15:54:25.501934,-24
2021-10-14 15:54:25.501942,-21
2021-10-14 15:54:25.501951,-24
2021-10-14 15:54:25.501959,-28
2021-10-14 15:54:25.501967,-26
2021-10-14 15:54:25.501975,-21
2021-10-14 15:54:25.501984,-16
2021-10-14 15:54:25.501992,-14
2021-10-14 15:54:25.726708,-12
2021-10-14 15:54:25.726729,9
2021-10-14 15:54:25.726738,113
2021-10-14 15:54:25.726747,408
2021-10-14 15:54:25.726755,738
2021-10-14 15:54:25.726763,548
2021-10-14 15:54:25.726772,-343
2021-10-14 15:54:25.726780,-997
2021-10-14 15:54:25.726788,-699
2021-10-14 15:54:25.726796,-209
2021-10-14 15:54:25.726805,-101
2021-10-14 15:54:25.726813,-26
2021-10-14 15:54:25.726821,81
2021-10-14 15:54:25.726829,64
2021-10-14 15:54:25.726837,43
2021-10-14 15:54:25.726846,69
2021-10-14 15:54:25.726854,81
2021-10-14 15:54:25.726862,81
2021-10-14 15:54:25.726870,93
2021-10-14 15:54:25.726879,101
2021-10-14 15:54:25.726887,103
2021-10-14 15:54:25.726895,113
2021-10-14 15:54:25.726903,120
2021-10-14 15:54:25.726911,120
2021-10-14 15:54:25.726920,122
2021-10-14 15:54:25.726928,127
2021-10-14 15:54:25.726936,139
2021-10-14 15:54:25.726944,146
2021-10-14 15:54:25.726953,153
2021-10-14 15:54:25.726961,168
2021-10-14 15:54:26.040466,182
2021-10-14 15:54:26.040488,192
2021-10-14 15:54:26.040498,197
2021-10-14 15:54:26.040507,192
2021-10-14 15:54:26.040516,182
2021-10-14 15:54:26.040524,175
2021-10-14 15:54:26.040532,153
2021-10-14 15:54:26.040541,129
2021-10-14 15:54:26.040549,115
2021-10-14 15:54:26.040558,84
2021-10-14 15:54:26.040565,48
2021-10-14 15:54:26.040573,21
2021-10-14 15:54:26.040581,-14
2021-10-14 15:54:26.040590,-43
2021-10-14 15:54:26.040599,-60
2021-10-14 15:54:26.040607,-72
2021-10-14 15:54:26.040615,-76
2021-10-14 15:54:26.040624,-88
2021-10-14 15:54:26.040633,-101
2021-10-14 15:54:26.040641,-101
2021-10-14 15:54:26.040649,-108
2021-10-14 15:54:26.040658,-113
2021-10-14 15:54:26.040666,-101
2021-10-14 15:54:26.040675,-93
2021-10-14 15:54:26.040683,-96
2021-10-14 15:54:26.040692,-93
2021-10-14 15:54:26.040700,-81
2021-10-14 15:54:26.040709,-79
2021-10-14 15:54:26.040717,-76
2021-10-14 15:54:26.040726,-64
2021-10-14 15:54:26.221695,-55
2021-10-14 15:54:26.221716,-55
2021-10-14 15:54:26.221725,-48
2021-10-14 15:54:26.221733,-38
2021-10-14 15:54:26.221742,-36
2021-10-14 15:54:26.221750,-43
2021-10-14 15:54:26.221758,-45
2021-10-14 15:54:26.221766,-40
2021-10-14 15:54:26.221775,-33
2021-10-14 15:54:26.221783,-33
2021-10-14 15:54:26.221791,-36
2021-10-14 15:54:26.221799,-36
2021-10-14 15:54:26.221808,-38
2021-10-14 15:54:26.221816,-36
2021-10-14 15:54:26.221824,-28
2021-10-14 15:54:26.221832,-26
2021-10-14 15:54:26.221841,-33
2021-10-14 15:54:26.221850,-43
2021-10-14 15:54:26.221858,-33
2021-10-14 15:54:26.221866,-21
2021-10-14 15:54:26.221874,-24
2021-10-14 15:54:26.221883,-28
2021-10-14 15:54:26.221891,-21
2021-10-14 15:54:26.221899,-16
2021-10-14 15:54:26.221907,-14
2021-10-14 15:54:26.221916,-4
2021-10-14 15:54:26.221924,-4
2021-10-14 15:54:26.221933,-14
2021-10-14 15:54:26.221941,-9
2021-10-14 15:54:26.221949,-2
2021-10-14 15:54:26.402137,-4
2021-10-14 15:54:26.402158,0
2021-10-14 15:54:26.402167,7
2021-10-14 15:54:26.402176,4
2021-10-14 15:54:26.402184,2
2021-10-14 15:54:26.402192,9
2021-10-14 15:54:26.402201,19
2021-10-14 15:54:26.402209,28
2021-10-14 15:54:26.402217,38
2021-10-14 15:54:26.402225,50
2021-10-14 15:54:26.402233,43
2021-10-14 15:54:26.402241,9
2021-10-14 15:54:26.402249,-7
2021-10-14 15:54:26.402257,2
2021-10-14 15:54:26.402266,2
2021-10-14 15:54:26.402274,-4
2021-10-14 15:54:26.402282,-7
2021-10-14 15:54:26.402290,-4
2021-10-14 15:54:26.402298,-2
2021-10-14 15:54:26.402307,7
2021-10-14 15:54:26.402315,14
2021-10-14 15:54:26.402323,4
2021-10-14 15:54:26.402331,2
2021-10-14 15:54:26.402339,45
2021-10-14 15:54:26.402347,202
2021-10-14 15:54:26.402356,536
2021-10-14 15:54:26.402364,781
2021-10-14 15:54:26.402372,360
2021-10-14 15:54:26.402380,-606
2021-10-14 15:54:26.402388,-1014
2021-10-14 15:54:26.671763,-572
2021-10-14 15:54:26.671784,-202
2021-10-14 15:54:26.671793,-137
2021-10-14 15:54:26.671801,-19
2021-10-14 15:54:26.671810,69
2021-10-14 15:54:26.671818,55
2021-10-14 15:54:26.671826,62
2021-10-14 15:54:26.671835,91
2021-10-14 15:54:26.671843,93
2021-10-14 15:54:26.671851,91
2021-10-14 15:54:26.671860,98
2021-10-14 15:54:26.671868,96
2021-10-14 15:54:26.671876,86
2021-10-14 15:54:26.671885,93
2021-10-14 15:54:26.671893,110
2021-10-14 15:54:26.671901,113
2021-10-14 15:54:26.671910,117
2021-10-14 15:54:26.671918,134
2021-10-14 15:54:26.671926,144
2021-10-14 15:54:26.671935,151
2021-10-14 15:54:26.671943,161
2021-10-14 15:54:26.671952,170
2021-10-14 15:54:26.671960,185
2021-10-14 15:54:26.671968,202
2021-10-14 15:54:26.671976,211
2021-10-14 15:54:26.671985,214
2021-10-14 15:54:26.671993,206
2021-10-14 15:54:26.672001,177
2021-10-14 15:54:26.672010,149
2021-10-14 15:54:26.672018,127
2021-10-14 15:54:26.986738,110
2021-10-14 15:54:26.986759,84
2021-10-14 15:54:26.986768,43
2021-10-14 15:54:26.986775,-4
2021-10-14 15:54:26.986782,-33
2021-10-14 15:54:26.986789,-48
2021-10-14 15:54:26.986796,-74
2021-10-14 15:54:26.986804,-103
2021-10-14 15:54:26.986811,-113
2021-10-14 15:54:26.986820,-117
2021-10-14 15:54:26.986828,-120
2021-10-14 15:54:26.986836,-115
2021-10-14 15:54:26.986844,-115
2021-10-14 15:54:26.986852,-110
2021-10-14 15:54:26.986860,-110
2021-10-14 15:54:26.986868,-120
2021-10-14 15:54:26.986876,-120
2021-10-14 15:54:26.986884,-103
2021-10-14 15:54:26.986892,-91
2021-10-14 15:54:26.986900,-88
2021-10-14 15:54:26.986908,-86
2021-10-14 15:54:26.986916,-74
2021-10-14 15:54:26.986924,-67
2021-10-14 15:54:26.986932,-64
2021-10-14 15:54:26.986940,-60
2021-10-14 15:54:26.986948,-48
2021-10-14 15:54:26.986957,-48
2021-10-14 15:54:26.986965,-57
2021-10-14 15:54:26.986973,-60
2021-10-14 15:54:26.986981,-48
2021-10-14 15:54:27.122120,-45
2021-10-14 15:54:27.122149,-60
2021-10-14 15:54:27.122159,-76
2021-10-14 15:54:27.122167,-76
2021-10-14 15:54:27.122175,-69
2021-10-14 15:54:27.122184,-72
2021-10-14 15:54:27.122192,-69
2021-10-14 15:54:27.122200,-69
2021-10-14 15:54:27.122209,-81
2021-10-14 15:54:27.122217,-93
2021-10-14 15:54:27.122225,-88
2021-10-14 15:54:27.122233,-76
2021-10-14 15:54:27.122242,-62
2021-10-14 15:54:27.122250,-52
2021-10-14 15:54:27.122258,-62
2021-10-14 15:54:27.122266,-69
2021-10-14 15:54:27.122274,-62
2021-10-14 15:54:27.122282,-48
2021-10-14 15:54:27.122291,-40
2021-10-14 15:54:27.122299,-40
2021-10-14 15:54:27.122307,-45
2021-10-14 15:54:27.122315,-50
2021-10-14 15:54:27.122324,-43
2021-10-14 15:54:27.122332,-31
2021-10-14 15:54:27.122340,-28
2021-10-14 15:54:27.122348,-36
2021-10-14 15:54:27.122357,-40
2021-10-14 15:54:27.122365,-38
2021-10-14 15:54:27.122373,-28
2021-10-14 15:54:27.122382,-16
2021-10-14 15:54:27.391766,-7
2021-10-14 15:54:27.391787,0
2021-10-14 15:54:27.391796,7
2021-10-14 15:54:27.391804,9
2021-10-14 15:54:27.391811,-12
2021-10-14 15:54:27.391819,-31
2021-10-14 15:54:27.391826,-36
2021-10-14 15:54:27.391834,-45
2021-10-14 15:54:27.391841,-52
2021-10-14 15:54:27.391849,-45
2021-10-14 15:54:27.391857,-38
2021-10-14 15:54:27.391864,-38
2021-10-14 15:54:27.391872,-33
2021-10-14 15:54:27.391879,-31
2021-10-14 15:54:27.391887,-33
2021-10-14 15:54:27.391895,-14
2021-10-14 15:54:27.391902,74
2021-10-14 15:54:27.391910,353
2021-10-14 15:54:27.391917,735
2021-10-14 15:54:27.391925,680
2021-10-14 15:54:27.391933,-182
2021-10-14 15:54:27.391940,-1019
2021-10-14 15:54:27.391948,-848
2021-10-14 15:54:27.391955,-288
2021-10-14 15:54:27.391963,-141
2021-10-14 15:54:27.391970,-84
2021-10-14 15:54:27.391978,60
2021-10-14 15:54:27.391986,72
2021-10-14 15:54:27.391993,43
2021-10-14 15:54:27.392001,88
2021-10-14 15:54:27.571765,101
2021-10-14 15:54:27.571787,76
2021-10-14 15:54:27.571796,91
2021-10-14 15:54:27.571805,110
2021-10-14 15:54:27.571813,96
2021-10-14 15:54:27.571821,98
2021-10-14 15:54:27.571830,115
2021-10-14 15:54:27.571838,110
2021-10-14 15:54:27.571847,105
2021-10-14 15:54:27.571855,108
2021-10-14 15:54:27.571863,110
2021-10-14 15:54:27.571871,129
2021-10-14 15:54:27.571880,144
2021-10-14 15:54:27.571888,144
2021-10-14 15:54:27.571896,149
2021-10-14 15:54:27.571905,165
2021-10-14 15:54:27.571913,177
2021-10-14 15:54:27.571921,182
2021-10-14 15:54:27.571930,173
2021-10-14 15:54:27.571938,156
2021-10-14 15:54:27.571946,134
2021-10-14 15:54:27.571954,117
2021-10-14 15:54:27.571962,101
2021-10-14 15:54:27.571971,72
2021-10-14 15:54:27.571979,36
2021-10-14 15:54:27.571987,2
2021-10-14 15:54:27.571995,-36
2021-10-14 15:54:27.572004,-67
2021-10-14 15:54:27.572012,-81
2021-10-14 15:54:27.572020,-98
2021-10-14 15:54:27.797142,-113
2021-10-14 15:54:27.797163,-115
2021-10-14 15:54:27.797175,-120
2021-10-14 15:54:27.797184,-127
2021-10-14 15:54:27.797192,-120
2021-10-14 15:54:27.797200,-115
2021-10-14 15:54:27.797209,-127
2021-10-14 15:54:27.797217,-129
2021-10-14 15:54:27.797225,-120
2021-10-14 15:54:27.797234,-115
2021-10-14 15:54:27.797242,-113
2021-10-14 15:54:27.797250,-113
2021-10-14 15:54:27.797258,-115
2021-10-14 15:54:27.797267,-110
2021-10-14 15:54:27.797275,-96
2021-10-14 15:54:27.797283,-91
2021-10-14 15:54:27.797291,-84
2021-10-14 15:54:27.797299,-76
2021-10-14 15:54:27.797308,-74
2021-10-14 15:54:27.797316,-67
2021-10-14 15:54:27.797324,-64
2021-10-14 15:54:27.797332,-72
2021-10-14 15:54:27.797341,-62
2021-10-14 15:54:27.797349,-55
2021-10-14 15:54:27.797357,-62
2021-10-14 15:54:27.797366,-62
2021-10-14 15:54:27.797374,-55
2021-10-14 15:54:27.797382,-52
2021-10-14 15:54:27.797390,-52
2021-10-14 15:54:27.797399,-48
2021-10-14 15:54:28.065886,-45
2021-10-14 15:54:28.065908,-43
2021-10-14 15:54:28.065917,-40
2021-10-14 15:54:28.065926,-45
2021-10-14 15:54:28.065934,-48
2021-10-14 15:54:28.065943,-48
2021-10-14 15:54:28.065952,-45
2021-10-14 15:54:28.065960,-40
2021-10-14 15:54:28.065968,-38
2021-10-14 15:54:28.065977,-38
2021-10-14 15:54:28.065985,-43
2021-10-14 15:54:28.065993,-45
2021-10-14 15:54:28.066001,-52
2021-10-14 15:54:28.066010,-67
2021-10-14 15:54:28.066018,-64
2021-10-14 15:54:28.066026,-52
2021-10-14 15:54:28.066034,-50
2021-10-14 15:54:28.066043,-55
2021-10-14 15:54:28.066051,-57
2021-10-14 15:54:28.066059,-48
2021-10-14 15:54:28.066067,-33
2021-10-14 15:54:28.066076,-24
2021-10-14 15:54:28.066084,-24
2021-10-14 15:54:28.066092,-12
2021-10-14 15:54:28.066100,2
2021-10-14 15:54:28.066109,-14
2021-10-14 15:54:28.066117,-33
2021-10-14 15:54:28.066125,-38
2021-10-14 15:54:28.066134,-43
2021-10-14 15:54:28.066142,-43
2021-10-14 15:54:28.247147,-26
2021-10-14 15:54:28.247175,-21
2021-10-14 15:54:28.247184,-31
2021-10-14 15:54:28.247193,-33
2021-10-14 15:54:28.247202,-28
2021-10-14 15:54:28.247210,-24
2021-10-14 15:54:28.247219,-14
2021-10-14 15:54:28.247227,43
2021-10-14 15:54:28.247235,276
2021-10-14 15:54:28.247244,678
2021-10-14 15:54:28.247252,793
2021-10-14 15:54:28.247261,101
2021-10-14 15:54:28.247269,-894
2021-10-14 15:54:28.247277,-1017
2021-10-14 15:54:28.247285,-411
2021-10-14 15:54:28.247294,-120
2021-10-14 15:54:28.247302,-117
2021-10-14 15:54:28.247310,4
2021-10-14 15:54:28.247319,74
2021-10-14 15:54:28.247327,33
2021-10-14 15:54:28.247335,45
2021-10-14 15:54:28.247343,74
2021-10-14 15:54:28.247352,67
2021-10-14 15:54:28.247360,74
2021-10-14 15:54:28.247369,88
2021-10-14 15:54:28.247377,86
2021-10-14 15:54:28.247386,86
2021-10-14 15:54:28.247395,96
2021-10-14 15:54:28.247403,103
2021-10-14 15:54:28.247412,110
2021-10-14 15:54:28.516561,122
2021-10-14 15:54:28.516582,137
2021-10-14 15:54:28.516591,146
2021-10-14 15:54:28.516617,151
2021-10-14 15:54:28.516626,149
2021-10-14 15:54:28.516634,158
2021-10-14 15:54:28.516644,180
2021-10-14 15:54:28.516652,192
2021-10-14 15:54:28.516660,192
2021-10-14 15:54:28.516669,189
2021-10-14 15:54:28.516677,185
2021-10-14 15:54:28.516685,170
2021-10-14 15:54:28.516694,151
2021-10-14 15:54:28.516702,129
2021-10-14 15:54:28.516710,101
2021-10-14 15:54:28.516719,60
2021-10-14 15:54:28.516727,26
2021-10-14 15:54:28.516735,-4
2021-10-14 15:54:28.516744,-48
2021-10-14 15:54:28.516752,-81
2021-10-14 15:54:28.516760,-98
2021-10-14 15:54:28.516769,-115
2021-10-14 15:54:28.516777,-127
2021-10-14 15:54:28.516785,-134
2021-10-14 15:54:28.516794,-139
2021-10-14 15:54:28.516802,-134
2021-10-14 15:54:28.516810,-125
2021-10-14 15:54:28.516818,-125
2021-10-14 15:54:28.516827,-125
2021-10-14 15:54:28.516835,-120
2021-10-14 15:54:28.741869,-108
2021-10-14 15:54:28.741890,-98
2021-10-14 15:54:28.741899,-98
2021-10-14 15:54:28.741908,-105
2021-10-14 15:54:28.741916,-103
2021-10-14 15:54:28.741925,-81
2021-10-14 15:54:28.741933,-67
2021-10-14 15:54:28.741941,-64
2021-10-14 15:54:28.741950,-72
2021-10-14 15:54:28.741959,-81
2021-10-14 15:54:28.741967,-72
2021-10-14 15:54:28.741975,-55
2021-10-14 15:54:28.741983,-45
2021-10-14 15:54:28.741992,-43
2021-10-14 15:54:28.742000,-43
2021-10-14 15:54:28.742008,-52
2021-10-14 15:54:28.742017,-55
2021-10-14 15:54:28.742025,-43
2021-10-14 15:54:28.742034,-40
2021-10-14 15:54:28.742042,-45
2021-10-14 15:54:28.742050,-45
2021-10-14 15:54:28.742059,-50
2021-10-14 15:54:28.742067,-48
2021-10-14 15:54:28.742075,-36
2021-10-14 15:54:28.742083,-28
2021-10-14 15:54:28.742092,-33
2021-10-14 15:54:28.742100,-38
2021-10-14 15:54:28.742108,-36
2021-10-14 15:54:28.742116,-33
2021-10-14 15:54:28.742125,-24
2021-10-14 15:54:28.967146,-14
2021-10-14 15:54:28.967167,-14
2021-10-14 15:54:28.967177,-19
2021-10-14 15:54:28.967185,-21
2021-10-14 15:54:28.967194,-12
2021-10-14 15:54:28.967202,-2
2021-10-14 15:54:28.967210,0
2021-10-14 15:54:28.967218,0
2021-10-14 15:54:28.967227,-7
2021-10-14 15:54:28.967235,-16
2021-10-14 15:54:28.967243,-12
2021-10-14 15:54:28.967252,-2
2021-10-14 15:54:28.967260,-2
2021-10-14 15:54:28.967268,-4
2021-10-14 15:54:28.967276,-12
2021-10-14 15:54:28.967285,-12
2021-10-14 15:54:28.967293,7
2021-10-14 15:54:28.967301,21
2021-10-14 15:54:28.967310,26
2021-10-14 15:54:28.967318,38
2021-10-14 15:54:28.967326,36
2021-10-14 15:54:28.967335,-2
2021-10-14 15:54:28.967343,-21
2021-10-14 15:54:28.967352,-16
2021-10-14 15:54:28.967360,-26
2021-10-14 15:54:28.967368,-38
2021-10-14 15:54:28.967376,-36
2021-10-14 15:54:28.967385,-31
2021-10-14 15:54:28.967393,-28
2021-10-14 15:54:28.967401,-24
2021-10-14 15:54:29.236781,-14
2021-10-14 15:54:29.236803,-4
2021-10-14 15:54:29.236812,0
2021-10-14 15:54:29.236820,38
2021-10-14 15:54:29.236829,240
2021-10-14 15:54:29.236837,625
2021-10-14 15:54:29.236846,800
2021-10-14 15:54:29.236854,223
2021-10-14 15:54:29.236863,-774
2021-10-14 15:54:29.236871,-1024
2021-10-14 15:54:29.236879,-430
2021-10-14 15:54:29.236887,-64
2021-10-14 15:54:29.236896,-74
2021-10-14 15:54:29.236904,9
2021-10-14 15:54:29.236912,84
2021-10-14 15:54:29.236921,48
2021-10-14 15:54:29.236929,50
2021-10-14 15:54:29.236937,86
2021-10-14 15:54:29.236946,81
2021-10-14 15:54:29.236954,74
2021-10-14 15:54:29.236962,86
2021-10-14 15:54:29.236971,91
2021-10-14 15:54:29.236979,96
2021-10-14 15:54:29.236987,98
2021-10-14 15:54:29.236995,98
2021-10-14 15:54:29.237004,108
2021-10-14 15:54:29.237012,115
2021-10-14 15:54:29.237020,120
2021-10-14 15:54:29.237029,134
2021-10-14 15:54:29.237037,149
2021-10-14 15:54:29.417141,153
2021-10-14 15:54:29.417162,163
2021-10-14 15:54:29.417171,182
2021-10-14 15:54:29.417180,185
2021-10-14 15:54:29.417188,182
2021-10-14 15:54:29.417197,194
2021-10-14 15:54:29.417205,197
2021-10-14 15:54:29.417213,175
2021-10-14 15:54:29.417222,153
2021-10-14 15:54:29.417230,141
2021-10-14 15:54:29.417238,120
2021-10-14 15:54:29.417246,93
2021-10-14 15:54:29.417254,62
2021-10-14 15:54:29.417262,21
2021-10-14 15:54:29.417271,-7
2021-10-14 15:54:29.417279,-26
2021-10-14 15:54:29.417287,-52
2021-10-14 15:54:29.417295,-67
2021-10-14 15:54:29.417303,-72
2021-10-14 15:54:29.417311,-84
2021-10-14 15:54:29.417320,-86
2021-10-14 15:54:29.417328,-86
2021-10-14 15:54:29.417336,-91
2021-10-14 15:54:29.417344,-91
2021-10-14 15:54:29.417352,-96
2021-10-14 15:54:29.417360,-101
2021-10-14 15:54:29.417369,-98
2021-10-14 15:54:29.417377,-93
2021-10-14 15:54:29.417385,-88
2021-10-14 15:54:29.417393,-96
2021-10-14 15:54:29.686163,-101
2021-10-14 15:54:29.686196,-88
2021-10-14 15:54:29.686205,-76
2021-10-14 15:54:29.686213,-74
2021-10-14 15:54:29.686222,-64
2021-10-14 15:54:29.686230,-62
2021-10-14 15:54:29.686238,-69
2021-10-14 15:54:29.686247,-72
2021-10-14 15:54:29.686255,-60
2021-10-14 15:54:29.686263,-55
2021-10-14 15:54:29.686271,-55
2021-10-14 15:54:29.686280,-55
2021-10-14 15:54:29.686288,-57
2021-10-14 15:54:29.686296,-60
2021-10-14 15:54:29.686305,-55
2021-10-14 15:54:29.686313,-50
2021-10-14 15:54:29.686321,-48
2021-10-14 15:54:29.686329,-48
2021-10-14 15:54:29.686338,-50
2021-10-14 15:54:29.686346,-40
2021-10-14 15:54:29.686354,-36
2021-10-14 15:54:29.686363,-36
2021-10-14 15:54:29.686371,-36
2021-10-14 15:54:29.686379,-33
2021-10-14 15:54:29.686387,-26
2021-10-14 15:54:29.686396,-19
2021-10-14 15:54:29.686404,-19
2021-10-14 15:54:29.686412,-26
2021-10-14 15:54:29.686421,-26
2021-10-14 15:54:29.686429,-24
2021-10-14 15:54:29.911652,-24
2021-10-14 15:54:29.911672,-19
2021-10-14 15:54:29.911681,-14
2021-10-14 15:54:29.911690,-9
2021-10-14 15:54:29.911699,-2
2021-10-14 15:54:29.911707,-7
2021-10-14 15:54:29.911715,-16
2021-10-14 15:54:29.911724,-12
2021-10-14 15:54:29.911732,-2
2021-10-14 15:54:29.911740,0
2021-10-14 15:54:29.911749,2
2021-10-14 15:54:29.911757,0
2021-10-14 15:54:29.911765,-2
2021-10-14 15:54:29.911774,14
2021-10-14 15:54:29.911782,31
2021-10-14 15:54:29.911790,31
2021-10-14 15:54:29.911799,36
2021-10-14 15:54:29.911807,48
2021-10-14 15:54:29.911815,38
2021-10-14 15:54:29.911823,14
2021-10-14 15:54:29.911832,9
2021-10-14 15:54:29.911840,9
2021-10-14 15:54:29.911848,7
2021-10-14 15:54:29.911857,9
2021-10-14 15:54:29.911865,12
2021-10-14 15:54:29.911874,21
2021-10-14 15:54:29.911882,33
2021-10-14 15:54:29.911890,31
2021-10-14 15:54:29.911898,28
2021-10-14 15:54:29.911907,38
2021-10-14 15:54:30.180832,52
2021-10-14 15:54:30.180853,127
2021-10-14 15:54:30.180862,387
2021-10-14 15:54:30.180871,745
2021-10-14 15:54:30.180879,694
2021-10-14 15:54:30.180887,-115
2021-10-14 15:54:30.180896,-918
2021-10-14 15:54:30.180904,-767
2021-10-14 15:54:30.180912,-240
2021-10-14 15:54:30.180920,-88
2021-10-14 15:54:30.180929,-33
2021-10-14 15:54:30.180937,93
2021-10-14 15:54:30.180945,108
2021-10-14 15:54:30.180953,84
2021-10-14 15:54:30.180962,117
2021-10-14 15:54:30.180970,129
2021-10-14 15:54:30.180978,115
2021-10-14 15:54:30.180986,120
2021-10-14 15:54:30.180995,134
2021-10-14 15:54:30.181003,137
2021-10-14 15:54:30.181011,137
2021-10-14 15:54:30.181019,149
2021-10-14 15:54:30.181028,161
2021-10-14 15:54:30.181036,165
2021-10-14 15:54:30.181044,173
2021-10-14 15:54:30.181052,182
2021-10-14 15:54:30.181060,199
2021-10-14 15:54:30.181068,211
2021-10-14 15:54:30.181077,214
2021-10-14 15:54:30.181085,226
2021-10-14 15:54:30.362208,245
2021-10-14 15:54:30.362229,250
2021-10-14 15:54:30.362238,245
2021-10-14 15:54:30.362247,240
2021-10-14 15:54:30.362255,230
2021-10-14 15:54:30.362263,221
2021-10-14 15:54:30.362272,199
2021-10-14 15:54:30.362280,173
2021-10-14 15:54:30.362289,149
2021-10-14 15:54:30.362297,125
2021-10-14 15:54:30.362305,91
2021-10-14 15:54:30.362314,64
2021-10-14 15:54:30.362322,45
2021-10-14 15:54:30.362330,21
2021-10-14 15:54:30.362339,0
2021-10-14 15:54:30.362348,-16
2021-10-14 15:54:30.362356,-36
2021-10-14 15:54:30.362364,-40
2021-10-14 15:54:30.362372,-33
2021-10-14 15:54:30.362381,-28
2021-10-14 15:54:30.362389,-28
2021-10-14 15:54:30.362397,-36
2021-10-14 15:54:30.362406,-33
2021-10-14 15:54:30.362414,-21
2021-10-14 15:54:30.362422,-16
2021-10-14 15:54:30.362430,-9
2021-10-14 15:54:30.362438,2
2021-10-14 15:54:30.362447,2
2021-10-14 15:54:30.362455,2
2021-10-14 15:54:30.362463,14
2021-10-14 15:54:30.631173,21
2021-10-14 15:54:30.631194,24
2021-10-14 15:54:30.631204,33
2021-10-14 15:54:30.631212,36
2021-10-14 15:54:30.631221,26
2021-10-14 15:54:30.631229,31
2021-10-14 15:54:30.631238,38
2021-10-14 15:54:30.631246,33
2021-10-14 15:54:30.631254,24
2021-10-14 15:54:30.631262,24
2021-10-14 15:54:30.631271,24
2021-10-14 15:54:30.631279,14
2021-10-14 15:54:30.631287,0
2021-10-14 15:54:30.631296,9
2021-10-14 15:54:30.631304,19
2021-10-14 15:54:30.631312,9
2021-10-14 15:54:30.631320,2
2021-10-14 15:54:30.631329,9
2021-10-14 15:54:30.631337,12
2021-10-14 15:54:30.631345,12
2021-10-14 15:54:30.631353,12
2021-10-14 15:54:30.631362,19
2021-10-14 15:54:30.631370,31
2021-10-14 15:54:30.631378,31
2021-10-14 15:54:30.631386,28
2021-10-14 15:54:30.631394,38
2021-10-14 15:54:30.631403,40
2021-10-14 15:54:30.631411,31
2021-10-14 15:54:30.631419,33
2021-10-14 15:54:30.631427,43
2021-10-14 15:54:30.901839,43
2021-10-14 15:54:30.901860,45
2021-10-14 15:54:30.901870,50
2021-10-14 15:54:30.901878,50
2021-10-14 15:54:30.901887,52
2021-10-14 15:54:30.901895,55
2021-10-14 15:54:30.901903,55
2021-10-14 15:54:30.901911,57
2021-10-14 15:54:30.901920,60
2021-10-14 15:54:30.901928,69
2021-10-14 15:54:30.901936,76
2021-10-14 15:54:30.901945,55
2021-10-14 15:54:30.901953,33
2021-10-14 15:54:30.901961,33
2021-10-14 15:54:30.901969,26
2021-10-14 15:54:30.901978,16
2021-10-14 15:54:30.901986,26
2021-10-14 15:54:30.901994,33
2021-10-14 15:54:30.902002,28
2021-10-14 15:54:30.902011,36
2021-10-14 15:54:30.902019,40
2021-10-14 15:54:30.902027,36
2021-10-14 15:54:30.902035,52
2021-10-14 15:54:30.902044,120
2021-10-14 15:54:30.902052,331
2021-10-14 15:54:30.902060,702
2021-10-14 15:54:30.902068,812
2021-10-14 15:54:30.902077,132
2021-10-14 15:54:30.902085,-827
2021-10-14 15:54:30.902093,-925
2021-10-14 15:54:31.037175,-365
2021-10-14 15:54:31.037197,-91
2021-10-14 15:54:31.037206,-48
2021-10-14 15:54:31.037215,86
2021-10-14 15:54:31.037223,146
2021-10-14 15:54:31.037232,108
2021-10-14 15:54:31.037240,125
2021-10-14 15:54:31.037248,156
2021-10-14 15:54:31.037257,144
2021-10-14 15:54:31.037265,134
2021-10-14 15:54:31.037273,141
2021-10-14 15:54:31.037282,151
2021-10-14 15:54:31.037290,156
2021-10-14 15:54:31.037298,153
2021-10-14 15:54:31.037307,158
2021-10-14 15:54:31.037315,175
2021-10-14 15:54:31.037323,175
2021-10-14 15:54:31.037332,165
2021-10-14 15:54:31.037340,168
2021-10-14 15:54:31.037348,177
2021-10-14 15:54:31.037356,182
2021-10-14 15:54:31.037365,189
2021-10-14 15:54:31.037373,202
2021-10-14 15:54:31.037381,216
2021-10-14 15:54:31.037389,228
2021-10-14 15:54:31.037398,223
2021-10-14 15:54:31.037406,202
2021-10-14 15:54:31.037414,194
2021-10-14 15:54:31.037423,185
2021-10-14 15:54:31.037431,149
2021-10-14 15:54:31.306827,108
2021-10-14 15:54:31.306848,84
2021-10-14 15:54:31.306858,45
2021-10-14 15:54:31.306866,9
2021-10-14 15:54:31.306875,-2
2021-10-14 15:54:31.306883,-24
2021-10-14 15:54:31.306892,-62
2021-10-14 15:54:31.306900,-96
2021-10-14 15:54:31.306908,-101
2021-10-14 15:54:31.306917,-101
2021-10-14 15:54:31.306925,-115
2021-10-14 15:54:31.306933,-120
2021-10-14 15:54:31.306941,-110
2021-10-14 15:54:31.306950,-113
2021-10-14 15:54:31.306958,-115
2021-10-14 15:54:31.306966,-108
2021-10-14 15:54:31.306974,-108
2021-10-14 15:54:31.306983,-103
2021-10-14 15:54:31.306991,-88
2021-10-14 15:54:31.306999,-74
2021-10-14 15:54:31.307007,-69
2021-10-14 15:54:31.307015,-69
2021-10-14 15:54:31.307024,-64
2021-10-14 15:54:31.307032,-52
2021-10-14 15:54:31.307040,-48
2021-10-14 15:54:31.307048,-48
2021-10-14 15:54:31.307057,-40
2021-10-14 15:54:31.307065,-31
2021-10-14 15:54:31.307073,-31
2021-10-14 15:54:31.307081,-36
2021-10-14 15:54:31.576598,-33
2021-10-14 15:54:31.576619,-24
2021-10-14 15:54:31.576628,-28
2021-10-14 15:54:31.576637,-36
2021-10-14 15:54:31.576646,-33
2021-10-14 15:54:31.576654,-24
2021-10-14 15:54:31.576662,-31
2021-10-14 15:54:31.576671,-40
2021-10-14 15:54:31.576679,-33
2021-10-14 15:54:31.576687,-31
2021-10-14 15:54:31.576696,-31
2021-10-14 15:54:31.576704,-28
2021-10-14 15:54:31.576712,-26
2021-10-14 15:54:31.576720,-26
2021-10-14 15:54:31.576728,-31
2021-10-14 15:54:31.576737,-33
2021-10-14 15:54:31.576745,-21
2021-10-14 15:54:31.576753,-14
2021-10-14 15:54:31.576761,-26
2021-10-14 15:54:31.576769,-33
2021-10-14 15:54:31.576778,-19
2021-10-14 15:54:31.576786,-12
2021-10-14 15:54:31.576794,-26
2021-10-14 15:54:31.576802,-40
2021-10-14 15:54:31.576810,-43
2021-10-14 15:54:31.576819,-31
2021-10-14 15:54:31.576827,-16
2021-10-14 15:54:31.576835,-7
2021-10-14 15:54:31.576843,2
2021-10-14 15:54:31.576852,14
2021-10-14 15:54:31.712169,2
2021-10-14 15:54:31.712189,-19
2021-10-14 15:54:31.712198,-33
2021-10-14 15:54:31.712207,-38
2021-10-14 15:54:31.712215,-26
2021-10-14 15:54:31.712223,-16
2021-10-14 15:54:31.712231,-38
2021-10-14 15:54:31.712240,-40
2021-10-14 15:54:31.712248,-21
2021-10-14 15:54:31.712256,-14
2021-10-14 15:54:31.712265,-14
2021-10-14 15:54:31.712273,-4
2021-10-14 15:54:31.712281,28
2021-10-14 15:54:31.712289,180
2021-10-14 15:54:31.712298,531
2021-10-14 15:54:31.712306,805
2021-10-14 15:54:31.712314,406
2021-10-14 15:54:31.712323,-615
2021-10-14 15:54:31.712331,-1135
2021-10-14 15:54:31.712339,-670
2021-10-14 15:54:31.712348,-199
2021-10-14 15:54:31.712356,-134
2021-10-14 15:54:31.712364,-26
2021-10-14 15:54:31.712373,84
2021-10-14 15:54:31.712381,45
2021-10-14 15:54:31.712389,43
2021-10-14 15:54:31.712398,93
2021-10-14 15:54:31.712406,86
2021-10-14 15:54:31.712443,81
2021-10-14 15:54:31.712453,93
2021-10-14 15:54:31.982202,96
2021-10-14 15:54:31.982224,110
2021-10-14 15:54:31.982234,125
2021-10-14 15:54:31.982242,115
2021-10-14 15:54:31.982250,108
2021-10-14 15:54:31.982259,120
2021-10-14 15:54:31.982267,129
2021-10-14 15:54:31.982275,137
2021-10-14 15:54:31.982283,149
2021-10-14 15:54:31.982291,165
2021-10-14 15:54:31.982300,177
2021-10-14 15:54:31.982308,182
2021-10-14 15:54:31.982316,185
2021-10-14 15:54:31.982324,202
2021-10-14 15:54:31.982333,214
2021-10-14 15:54:31.982341,204
2021-10-14 15:54:31.982349,180
2021-10-14 15:54:31.982358,158
2021-10-14 15:54:31.982366,149
2021-10-14 15:54:31.982374,127
2021-10-14 15:54:31.982382,81
2021-10-14 15:54:31.982390,33
2021-10-14 15:54:31.982398,2
2021-10-14 15:54:31.982407,-28
2021-10-14 15:54:31.982415,-57
2021-10-14 15:54:31.982424,-76
2021-10-14 15:54:31.982432,-88
2021-10-14 15:54:31.982440,-101
2021-10-14 15:54:31.982448,-110
2021-10-14 15:54:31.982456,-125
2021-10-14 15:54:32.250329,-141
2021-10-14 15:54:32.250350,-149
2021-10-14 15:54:32.250359,-137
2021-10-14 15:54:32.250368,-132
2021-10-14 15:54:32.250376,-137
2021-10-14 15:54:32.250384,-139
2021-10-14 15:54:32.250392,-134
2021-10-14 15:54:32.250400,-117
2021-10-14 15:54:32.250409,-101
2021-10-14 15:54:32.250417,-108
2021-10-14 15:54:32.250425,-117
2021-10-14 15:54:32.250433,-103
2021-10-14 15:54:32.250442,-91
2021-10-14 15:54:32.250450,-93
2021-10-14 15:54:32.250458,-81
2021-10-14 15:54:32.250466,-79
2021-10-14 15:54:32.250475,-96
2021-10-14 15:54:32.250483,-93
2021-10-14 15:54:32.250491,-88
2021-10-14 15:54:32.250499,-96
2021-10-14 15:54:32.250508,-91
2021-10-14 15:54:32.250516,-79
2021-10-14 15:54:32.250524,-86
2021-10-14 15:54:32.250532,-91
2021-10-14 15:54:32.250541,-79
2021-10-14 15:54:32.250549,-72
2021-10-14 15:54:32.250557,-74
2021-10-14 15:54:32.250565,-79
2021-10-14 15:54:32.250573,-79
2021-10-14 15:54:32.250582,-69
2021-10-14 15:54:32.476941,-60
2021-10-14 15:54:32.476962,-55
2021-10-14 15:54:32.476971,-55
2021-10-14 15:54:32.476980,-67
2021-10-14 15:54:32.476988,-81
2021-10-14 15:54:32.477015,-74
2021-10-14 15:54:32.477024,-60
2021-10-14 15:54:32.477032,-52
2021-10-14 15:54:32.477041,-52
2021-10-14 15:54:32.477049,-60
2021-10-14 15:54:32.477058,-57
2021-10-14 15:54:32.477066,-43
2021-10-14 15:54:32.477074,-28
2021-10-14 15:54:32.477082,-14
2021-10-14 15:54:32.477091,-24
2021-10-14 15:54:32.477099,-52
2021-10-14 15:54:32.477108,-60
2021-10-14 15:54:32.477116,-52
2021-10-14 15:54:32.477124,-55
2021-10-14 15:54:32.477132,-52
2021-10-14 15:54:32.477140,-57
2021-10-14 15:54:32.477149,-64
2021-10-14 15:54:32.477157,-60
2021-10-14 15:54:32.477165,-45
2021-10-14 15:54:32.477174,-43
2021-10-14 15:54:32.477182,-43
2021-10-14 15:54:32.477190,-19
2021-10-14 15:54:32.477199,72
2021-10-14 15:54:32.477207,367
2021-10-14 15:54:32.477215,764
2021-10-14 15:54:32.656879,678
2021-10-14 15:54:32.656901,-245
2021-10-14 15:54:32.656911,-1123
2021-10-14 15:54:32.656919,-945
2021-10-14 15:54:32.656928,-341
2021-10-14 15:54:32.656936,-168
2021-10-14 15:54:32.656945,-110
2021-10-14 15:54:32.656954,40
2021-10-14 15:54:32.656962,52
2021-10-14 15:54:32.656970,-2
2021-10-14 15:54:32.656979,31
2021-10-14 15:54:32.656988,62
2021-10-14 15:54:32.656996,52
2021-10-14 15:54:32.657004,60
2021-10-14 15:54:32.657013,69
2021-10-14 15:54:32.657021,62
2021-10-14 15:54:32.657030,72
2021-10-14 15:54:32.657038,86
2021-10-14 15:54:32.657047,84
2021-10-14 15:54:32.657055,91
2021-10-14 15:54:32.657063,105
2021-10-14 15:54:32.657072,103
2021-10-14 15:54:32.657080,103
2021-10-14 15:54:32.657089,120
2021-10-14 15:54:32.657097,137
2021-10-14 15:54:32.657106,149
2021-10-14 15:54:32.657114,158
2021-10-14 15:54:32.657122,170
2021-10-14 15:54:32.657131,177
2021-10-14 15:54:32.657139,182
2021-10-14 15:54:32.971214,177
2021-10-14 15:54:32.971237,161
2021-10-14 15:54:32.971247,134
2021-10-14 15:54:32.971255,105
2021-10-14 15:54:32.971264,74
2021-10-14 15:54:32.971272,36
2021-10-14 15:54:32.971281,4
2021-10-14 15:54:32.971289,-21
2021-10-14 15:54:32.971297,-60
2021-10-14 15:54:32.971306,-98
2021-10-14 15:54:32.971314,-105
2021-10-14 15:54:32.971322,-105
2021-10-14 15:54:32.971330,-115
2021-10-14 15:54:32.971339,-127
2021-10-14 15:54:32.971347,-132
2021-10-14 15:54:32.971356,-129
2021-10-14 15:54:32.971364,-125
2021-10-14 15:54:32.971372,-132
2021-10-14 15:54:32.971381,-132
2021-10-14 15:54:32.971389,-125
2021-10-14 15:54:32.971397,-120
2021-10-14 15:54:32.971405,-120
2021-10-14 15:54:32.971414,-117
2021-10-14 15:54:32.971422,-115
2021-10-14 15:54:32.971430,-115
2021-10-14 15:54:32.971439,-122
2021-10-14 15:54:32.971447,-122
2021-10-14 15:54:32.971455,-115
2021-10-14 15:54:32.971463,-108
2021-10-14 15:54:32.971472,-98
2021-10-14 15:54:33.106821,-91
2021-10-14 15:54:33.106842,-91
2021-10-14 15:54:33.106851,-93
2021-10-14 15:54:33.106860,-93
2021-10-14 15:54:33.106868,-86
2021-10-14 15:54:33.106877,-79
2021-10-14 15:54:33.106885,-84
2021-10-14 15:54:33.106894,-93
2021-10-14 15:54:33.106902,-91
2021-10-14 15:54:33.106911,-88
2021-10-14 15:54:33.106919,-101
2021-10-14 15:54:33.106927,-105
2021-10-14 15:54:33.106935,-93
2021-10-14 15:54:33.106944,-91
2021-10-14 15:54:33.106952,-98
2021-10-14 15:54:33.106960,-91
2021-10-14 15:54:33.106969,-79
2021-10-14 15:54:33.106977,-74
2021-10-14 15:54:33.106985,-74
2021-10-14 15:54:33.106993,-81
2021-10-14 15:54:33.107002,-84
2021-10-14 15:54:33.107010,-79
2021-10-14 15:54:33.107018,-76
2021-10-14 15:54:33.107027,-69
2021-10-14 15:54:33.107035,-64
2021-10-14 15:54:33.107043,-67
2021-10-14 15:54:33.107051,-67
2021-10-14 15:54:33.107060,-60
2021-10-14 15:54:33.107068,-52
2021-10-14 15:54:33.107076,-33
2021-10-14 15:54:33.332207,-24
2021-10-14 15:54:33.332228,-48
2021-10-14 15:54:33.332238,-72
2021-10-14 15:54:33.332247,-72
2021-10-14 15:54:33.332255,-64
2021-10-14 15:54:33.332263,-60
2021-10-14 15:54:33.332272,-62
2021-10-14 15:54:33.332280,-72
2021-10-14 15:54:33.332288,-72
2021-10-14 15:54:33.332297,-62
2021-10-14 15:54:33.332305,-52
2021-10-14 15:54:33.332313,-52
2021-10-14 15:54:33.332322,-50
2021-10-14 15:54:33.332330,-9
2021-10-14 15:54:33.332338,161
2021-10-14 15:54:33.332347,543
2021-10-14 15:54:33.332355,817
2021-10-14 15:54:33.332364,341
2021-10-14 15:54:33.332372,-735
2021-10-14 15:54:33.332380,-1156
2021-10-14 15:54:33.332389,-581
2021-10-14 15:54:33.332397,-139
2021-10-14 15:54:33.332406,-139
2021-10-14 15:54:33.332414,-43
2021-10-14 15:54:33.332422,69
2021-10-14 15:54:33.332430,36
2021-10-14 15:54:33.332439,31
2021-10-14 15:54:33.332447,69
2021-10-14 15:54:33.332455,57
2021-10-14 15:54:33.332464,43
2021-10-14 15:54:33.647220,64
2021-10-14 15:54:33.647242,79
2021-10-14 15:54:33.647252,74
2021-10-14 15:54:33.647260,79
2021-10-14 15:54:33.647269,93
2021-10-14 15:54:33.647277,93
2021-10-14 15:54:33.647286,93
2021-10-14 15:54:33.647294,108
2021-10-14 15:54:33.647303,120
2021-10-14 15:54:33.647311,120
2021-10-14 15:54:33.647319,134
2021-10-14 15:54:33.647328,153
2021-10-14 15:54:33.647336,156
2021-10-14 15:54:33.647344,163
2021-10-14 15:54:33.647353,180
2021-10-14 15:54:33.647361,180
2021-10-14 15:54:33.647369,161
2021-10-14 15:54:33.647378,144
2021-10-14 15:54:33.647386,134
2021-10-14 15:54:33.647394,113
2021-10-14 15:54:33.647403,84
2021-10-14 15:54:33.647411,55
2021-10-14 15:54:33.647419,26
2021-10-14 15:54:33.647427,-12
2021-10-14 15:54:33.647435,-45
2021-10-14 15:54:33.647444,-64
2021-10-14 15:54:33.647452,-86
2021-10-14 15:54:33.647460,-105
2021-10-14 15:54:33.647468,-108
2021-10-14 15:54:33.647477,-105
2021-10-14 15:54:33.781809,-117
2021-10-14 15:54:33.781838,-125
2021-10-14 15:54:33.781847,-115
2021-10-14 15:54:33.781856,-113
2021-10-14 15:54:33.781864,-117
2021-10-14 15:54:33.781873,-120
2021-10-14 15:54:33.781881,-115
2021-10-14 15:54:33.781890,-105
2021-10-14 15:54:33.781898,-101
2021-10-14 15:54:33.781906,-96
2021-10-14 15:54:33.781914,-84
2021-10-14 15:54:33.781923,-74
2021-10-14 15:54:33.781931,-72
2021-10-14 15:54:33.781939,-62
2021-10-14 15:54:33.781947,-57
2021-10-14 15:54:33.781956,-57
2021-10-14 15:54:33.781964,-52
2021-10-14 15:54:33.781972,-48
2021-10-14 15:54:33.781981,-48
2021-10-14 15:54:33.781989,-45
2021-10-14 15:54:33.781997,-40
2021-10-14 15:54:33.782005,-45
2021-10-14 15:54:33.782013,-55
2021-10-14 15:54:33.782021,-69
2021-10-14 15:54:33.782030,-74
2021-10-14 15:54:33.782038,-72
2021-10-14 15:54:33.782046,-72
2021-10-14 15:54:33.782054,-72
2021-10-14 15:54:33.782062,-67
2021-10-14 15:54:33.782071,-69
2021-10-14 15:54:34.186873,-69
2021-10-14 15:54:34.186894,-64
2021-10-14 15:54:34.186904,-69
2021-10-14 15:54:34.186912,-76
2021-10-14 15:54:34.186921,-79
2021-10-14 15:54:34.186929,-84
2021-10-14 15:54:34.186937,-81
2021-10-14 15:54:34.186945,-72
2021-10-14 15:54:34.186954,-64
2021-10-14 15:54:34.186962,-69
2021-10-14 15:54:34.186970,-79
2021-10-14 15:54:34.186979,-76
2021-10-14 15:54:34.186987,-67
2021-10-14 15:54:34.186996,-62
2021-10-14 15:54:34.187004,-60
2021-10-14 15:54:34.187013,-57
2021-10-14 15:54:34.187021,-55
2021-10-14 15:54:34.187030,-50
2021-10-14 15:54:34.187038,-48
2021-10-14 15:54:34.187046,-45
2021-10-14 15:54:34.187055,-40
2021-10-14 15:54:34.187063,-50
2021-10-14 15:54:34.187072,-62
2021-10-14 15:54:34.187080,-45
2021-10-14 15:54:34.187088,-26
2021-10-14 15:54:34.187097,-14
2021-10-14 15:54:34.187105,-12
2021-10-14 15:54:34.187114,-33
2021-10-14 15:54:34.187122,-52
2021-10-14 15:54:34.187130,-45
2021-10-14 15:54:34.320892,-40
2021-10-14 15:54:34.320924,-43
2021-10-14 15:54:34.320934,-38
2021-10-14 15:54:34.320942,-36
2021-10-14 15:54:34.320950,-43
2021-10-14 15:54:34.320958,-45
2021-10-14 15:54:34.320967,-33
2021-10-14 15:54:34.320975,-19
2021-10-14 15:54:34.320983,-14
2021-10-14 15:54:34.320991,9
2021-10-14 15:54:34.321000,170
2021-10-14 15:54:34.321008,562
2021-10-14 15:54:34.321016,836
2021-10-14 15:54:34.321024,382
2021-10-14 15:54:34.321032,-658
2021-10-14 15:54:34.321040,-1096
2021-10-14 15:54:34.321049,-545
2021-10-14 15:54:34.321057,-91
2021-10-14 15:54:34.321065,-96
2021-10-14 15:54:34.321072,-21
2021-10-14 15:54:34.321080,84
2021-10-14 15:54:34.321087,48
2021-10-14 15:54:34.321095,43
2021-10-14 15:54:34.321104,86
2021-10-14 15:54:34.321112,81
2021-10-14 15:54:34.321120,81
2021-10-14 15:54:34.321129,98
2021-10-14 15:54:34.321137,96
2021-10-14 15:54:34.321145,93
2021-10-14 15:54:34.321153,105
2021-10-14 15:54:34.547241,115
2021-10-14 15:54:34.547263,122
2021-10-14 15:54:34.547272,120
2021-10-14 15:54:34.547281,115
2021-10-14 15:54:34.547290,127
2021-10-14 15:54:34.547298,149
2021-10-14 15:54:34.547306,149
2021-10-14 15:54:34.547315,149
2021-10-14 15:54:34.547323,153
2021-10-14 15:54:34.547332,158
2021-10-14 15:54:34.547340,170
2021-10-14 15:54:34.547348,177
2021-10-14 15:54:34.547357,173
2021-10-14 15:54:34.547365,163
2021-10-14 15:54:34.547373,144
2021-10-14 15:54:34.547381,113
2021-10-14 15:54:34.547390,88
2021-10-14 15:54:34.547398,72
2021-10-14 15:54:34.547406,45
2021-10-14 15:54:34.547414,12
2021-10-14 15:54:34.547423,-21
2021-10-14 15:54:34.547431,-45
2021-10-14 15:54:34.547439,-62
2021-10-14 15:54:34.547448,-79
2021-10-14 15:54:34.547456,-88
2021-10-14 15:54:34.547464,-84
2021-10-14 15:54:34.547472,-81
2021-10-14 15:54:34.547481,-101
2021-10-14 15:54:34.547489,-115
2021-10-14 15:54:34.547497,-108
2021-10-14 15:54:34.726974,-96
2021-10-14 15:54:34.726995,-96
2021-10-14 15:54:34.727004,-98
2021-10-14 15:54:34.727013,-93
2021-10-14 15:54:34.727021,-84
2021-10-14 15:54:34.727029,-76
2021-10-14 15:54:34.727037,-67
2021-10-14 15:54:34.727046,-64
2021-10-14 15:54:34.727054,-64
2021-10-14 15:54:34.727062,-67
2021-10-14 15:54:34.727071,-57
2021-10-14 15:54:34.727079,-45
2021-10-14 15:54:34.727087,-45
2021-10-14 15:54:34.727095,-55
2021-10-14 15:54:34.727104,-64
2021-10-14 15:54:34.727112,-72
2021-10-14 15:54:34.727120,-67
2021-10-14 15:54:34.727128,-52
2021-10-14 15:54:34.727136,-55
2021-10-14 15:54:34.727144,-69
2021-10-14 15:54:34.727153,-74
2021-10-14 15:54:34.727161,-69
2021-10-14 15:54:34.727169,-72
2021-10-14 15:54:34.727178,-69
2021-10-14 15:54:34.727186,-64
2021-10-14 15:54:34.727194,-62
2021-10-14 15:54:34.727202,-60
2021-10-14 15:54:34.727211,-57
2021-10-14 15:54:34.727219,-55
2021-10-14 15:54:34.727227,-57
2021-10-14 15:54:34.996947,-50
2021-10-14 15:54:34.996969,-43
2021-10-14 15:54:34.996979,-45
2021-10-14 15:54:34.996988,-48
2021-10-14 15:54:34.996996,-36
2021-10-14 15:54:34.997005,-28
2021-10-14 15:54:34.997013,-36
2021-10-14 15:54:34.997022,-45
2021-10-14 15:54:34.997030,-45
2021-10-14 15:54:34.997039,-43
2021-10-14 15:54:34.997047,-45
2021-10-14 15:54:34.997055,-45
2021-10-14 15:54:34.997064,-38
2021-10-14 15:54:34.997072,-38
2021-10-14 15:54:34.997081,-43
2021-10-14 15:54:34.997089,-43
2021-10-14 15:54:34.997103,-36
2021-10-14 15:54:34.997114,-33
