Time,ECG
2021-10-14 16:00:00.080380,103
2021-10-14 16:00:00.080403,52
2021-10-14 16:00:00.080412,64
2021-10-14 16:00:00.080421,110
2021-10-14 16:00:00.080429,105
2021-10-14 16:00:00.080437,93
2021-10-14 16:00:00.080446,105
2021-10-14 16:00:00.080454,110
2021-10-14 16:00:00.080463,101
2021-10-14 16:00:00.080471,101
2021-10-14 16:00:00.080480,105
2021-10-14 16:00:00.080488,115
2021-10-14 16:00:00.080496,129
2021-10-14 16:00:00.080505,139
2021-10-14 16:00:00.080513,146
2021-10-14 16:00:00.080522,153
2021-10-14 16:00:00.080530,168
2021-10-14 16:00:00.080538,197
2021-10-14 16:00:00.080547,194
2021-10-14 16:00:00.080556,185
2021-10-14 16:00:00.080564,189
2021-10-14 16:00:00.080572,177
2021-10-14 16:00:00.080581,173
2021-10-14 16:00:00.080589,165
2021-10-14 16:00:00.080597,132
2021-10-14 16:00:00.080605,103
2021-10-14 16:00:00.080614,69
2021-10-14 16:00:00.080622,9
2021-10-14 16:00:00.080630,-48
2021-10-14 16:00:00.080639,-74
2021-10-14 16:00:00.171109,-96
2021-10-14 16:00:00.171131,-134
2021-10-14 16:00:00.171140,-144
2021-10-14 16:00:00.171149,-129
2021-10-14 16:00:00.171157,-139
2021-10-14 16:00:00.171166,-168
2021-10-14 16:00:00.171174,-170
2021-10-14 16:00:00.171183,-149
2021-10-14 16:00:00.171191,-141
2021-10-14 16:00:00.171200,-153
2021-10-14 16:00:00.171208,-158
2021-10-14 16:00:00.171216,-158
2021-10-14 16:00:00.171225,-149
2021-10-14 16:00:00.171233,-122
2021-10-14 16:00:00.171242,-110
2021-10-14 16:00:00.171250,-113
2021-10-14 16:00:00.171259,-108
2021-10-14 16:00:00.171267,-93
2021-10-14 16:00:00.171276,-110
2021-10-14 16:00:00.171284,-144
2021-10-14 16:00:00.171293,-134
2021-10-14 16:00:00.171301,-103
2021-10-14 16:00:00.171309,-110
2021-10-14 16:00:00.171318,-115
2021-10-14 16:00:00.171326,-86
2021-10-14 16:00:00.171334,-74
2021-10-14 16:00:00.171343,-84
2021-10-14 16:00:00.171351,-76
2021-10-14 16:00:00.171360,-76
2021-10-14 16:00:00.171368,-105
2021-10-14 16:00:00.396611,-108
2021-10-14 16:00:00.396634,-76
2021-10-14 16:00:00.396644,-76
2021-10-14 16:00:00.396652,-101
2021-10-14 16:00:00.396661,-101
2021-10-14 16:00:00.396670,-86
2021-10-14 16:00:00.396678,-79
2021-10-14 16:00:00.396687,-67
2021-10-14 16:00:00.396695,-52
2021-10-14 16:00:00.396704,-45
2021-10-14 16:00:00.396712,-69
2021-10-14 16:00:00.396721,-84
2021-10-14 16:00:00.396729,-48
2021-10-14 16:00:00.396737,-38
2021-10-14 16:00:00.396746,-79
2021-10-14 16:00:00.396754,-81
2021-10-14 16:00:00.396763,-69
2021-10-14 16:00:00.396771,-84
2021-10-14 16:00:00.396780,-62
2021-10-14 16:00:00.396788,-33
2021-10-14 16:00:00.396796,-60
2021-10-14 16:00:00.396805,-84
2021-10-14 16:00:00.396813,-62
2021-10-14 16:00:00.396821,-50
2021-10-14 16:00:00.396830,-52
2021-10-14 16:00:00.396838,16
2021-10-14 16:00:00.396847,240
2021-10-14 16:00:00.396855,642
2021-10-14 16:00:00.396864,832
2021-10-14 16:00:00.396873,177
2021-10-14 16:00:00.621599,-957
2021-10-14 16:00:00.621622,-1238
2021-10-14 16:00:00.621632,-598
2021-10-14 16:00:00.621640,-197
2021-10-14 16:00:00.621649,-156
2021-10-14 16:00:00.621657,-14
2021-10-14 16:00:00.621666,81
2021-10-14 16:00:00.621674,48
2021-10-14 16:00:00.621683,52
2021-10-14 16:00:00.621691,81
2021-10-14 16:00:00.621699,91
2021-10-14 16:00:00.621708,103
2021-10-14 16:00:00.621716,84
2021-10-14 16:00:00.621725,55
2021-10-14 16:00:00.621733,76
2021-10-14 16:00:00.621741,98
2021-10-14 16:00:00.621750,105
2021-10-14 16:00:00.621758,110
2021-10-14 16:00:00.621766,108
2021-10-14 16:00:00.621775,125
2021-10-14 16:00:00.621783,146
2021-10-14 16:00:00.621791,149
2021-10-14 16:00:00.621800,151
2021-10-14 16:00:00.621808,153
2021-10-14 16:00:00.621816,153
2021-10-14 16:00:00.621825,175
2021-10-14 16:00:00.621833,189
2021-10-14 16:00:00.621841,163
2021-10-14 16:00:00.621850,139
2021-10-14 16:00:00.621858,141
2021-10-14 16:00:00.891217,137
2021-10-14 16:00:00.891240,96
2021-10-14 16:00:00.891249,33
2021-10-14 16:00:00.891258,-9
2021-10-14 16:00:00.891266,-36
2021-10-14 16:00:00.891274,-91
2021-10-14 16:00:00.891283,-151
2021-10-14 16:00:00.891291,-153
2021-10-14 16:00:00.891300,-125
2021-10-14 16:00:00.891308,-127
2021-10-14 16:00:00.891317,-149
2021-10-14 16:00:00.891325,-153
2021-10-14 16:00:00.891334,-139
2021-10-14 16:00:00.891342,-117
2021-10-14 16:00:00.891351,-110
2021-10-14 16:00:00.891359,-127
2021-10-14 16:00:00.891367,-141
2021-10-14 16:00:00.891376,-113
2021-10-14 16:00:00.891384,-84
2021-10-14 16:00:00.891392,-88
2021-10-14 16:00:00.891401,-86
2021-10-14 16:00:00.891409,-57
2021-10-14 16:00:00.891417,-55
2021-10-14 16:00:00.891426,-55
2021-10-14 16:00:00.891434,-26
2021-10-14 16:00:00.891442,-14
2021-10-14 16:00:00.891451,-24
2021-10-14 16:00:00.891459,-16
2021-10-14 16:00:00.891467,-4
2021-10-14 16:00:00.891476,0
2021-10-14 16:00:01.116576,14
2021-10-14 16:00:01.116597,28
2021-10-14 16:00:01.116607,14
2021-10-14 16:00:01.116616,0
2021-10-14 16:00:01.116624,24
2021-10-14 16:00:01.116633,45
2021-10-14 16:00:01.116641,33
2021-10-14 16:00:01.116650,21
2021-10-14 16:00:01.116658,19
2021-10-14 16:00:01.116667,21
2021-10-14 16:00:01.116675,45
2021-10-14 16:00:01.116684,67
2021-10-14 16:00:01.116692,57
2021-10-14 16:00:01.116701,52
2021-10-14 16:00:01.116709,72
2021-10-14 16:00:01.116718,79
2021-10-14 16:00:01.116726,74
2021-10-14 16:00:01.116734,84
2021-10-14 16:00:01.116743,108
2021-10-14 16:00:01.116769,134
2021-10-14 16:00:01.116778,144
2021-10-14 16:00:01.116786,139
2021-10-14 16:00:01.116795,139
2021-10-14 16:00:01.116803,146
2021-10-14 16:00:01.116811,127
2021-10-14 16:00:01.116820,110
2021-10-14 16:00:01.116828,117
2021-10-14 16:00:01.116836,110
2021-10-14 16:00:01.116845,108
2021-10-14 16:00:01.116853,125
2021-10-14 16:00:01.341658,129
2021-10-14 16:00:01.341681,134
2021-10-14 16:00:01.341690,134
2021-10-14 16:00:01.341699,129
2021-10-14 16:00:01.341708,158
2021-10-14 16:00:01.341716,230
2021-10-14 16:00:01.341725,428
2021-10-14 16:00:01.341733,817
2021-10-14 16:00:01.341741,988
2021-10-14 16:00:01.341750,300
2021-10-14 16:00:01.341758,-822
2021-10-14 16:00:01.341767,-1050
2021-10-14 16:00:01.341775,-375
2021-10-14 16:00:01.341785,9
2021-10-14 16:00:01.341794,33
2021-10-14 16:00:01.341802,173
2021-10-14 16:00:01.341810,230
2021-10-14 16:00:01.341819,161
2021-10-14 16:00:01.341827,185
2021-10-14 16:00:01.341835,221
2021-10-14 16:00:01.341844,180
2021-10-14 16:00:01.341896,156
2021-10-14 16:00:01.341905,170
2021-10-14 16:00:01.341914,187
2021-10-14 16:00:01.341922,199
2021-10-14 16:00:01.341931,194
2021-10-14 16:00:01.341939,185
2021-10-14 16:00:01.341948,194
2021-10-14 16:00:01.341956,199
2021-10-14 16:00:01.341964,185
2021-10-14 16:00:01.655990,199
2021-10-14 16:00:01.656014,233
2021-10-14 16:00:01.656023,221
2021-10-14 16:00:01.656032,204
2021-10-14 16:00:01.656041,242
2021-10-14 16:00:01.656050,257
2021-10-14 16:00:01.656058,216
2021-10-14 16:00:01.656066,209
2021-10-14 16:00:01.656075,233
2021-10-14 16:00:01.656084,216
2021-10-14 16:00:01.656092,158
2021-10-14 16:00:01.656100,134
2021-10-14 16:00:01.656109,120
2021-10-14 16:00:01.656118,67
2021-10-14 16:00:01.656126,7
2021-10-14 16:00:01.656135,-38
2021-10-14 16:00:01.656143,-76
2021-10-14 16:00:01.656151,-103
2021-10-14 16:00:01.656160,-120
2021-10-14 16:00:01.656169,-132
2021-10-14 16:00:01.656177,-141
2021-10-14 16:00:01.656185,-137
2021-10-14 16:00:01.656194,-122
2021-10-14 16:00:01.656202,-127
2021-10-14 16:00:01.656211,-144
2021-10-14 16:00:01.656219,-134
2021-10-14 16:00:01.656228,-120
2021-10-14 16:00:01.656236,-117
2021-10-14 16:00:01.656244,-125
2021-10-14 16:00:01.656253,-146
2021-10-14 16:00:01.791191,-153
2021-10-14 16:00:01.791213,-120
2021-10-14 16:00:01.791223,-110
2021-10-14 16:00:01.791232,-122
2021-10-14 16:00:01.791240,-120
2021-10-14 16:00:01.791249,-115
2021-10-14 16:00:01.791257,-127
2021-10-14 16:00:01.791265,-129
2021-10-14 16:00:01.791274,-113
2021-10-14 16:00:01.791282,-117
2021-10-14 16:00:01.791291,-134
2021-10-14 16:00:01.791299,-139
2021-10-14 16:00:01.791307,-146
2021-10-14 16:00:01.791316,-134
2021-10-14 16:00:01.791324,-125
2021-10-14 16:00:01.791333,-137
2021-10-14 16:00:01.791341,-132
2021-10-14 16:00:01.791349,-117
2021-10-14 16:00:01.791358,-120
2021-10-14 16:00:01.791366,-115
2021-10-14 16:00:01.791374,-113
2021-10-14 16:00:01.791382,-120
2021-10-14 16:00:01.791391,-115
2021-10-14 16:00:01.791399,-113
2021-10-14 16:00:01.791408,-113
2021-10-14 16:00:01.791416,-103
2021-10-14 16:00:01.791424,-105
2021-10-14 16:00:01.791432,-122
2021-10-14 16:00:01.791441,-110
2021-10-14 16:00:01.791449,-86
2021-10-14 16:00:02.059861,-79
2021-10-14 16:00:02.059883,-74
2021-10-14 16:00:02.059893,-72
2021-10-14 16:00:02.059902,-101
2021-10-14 16:00:02.059910,-120
2021-10-14 16:00:02.059919,-110
2021-10-14 16:00:02.059927,-125
2021-10-14 16:00:02.059935,-153
2021-10-14 16:00:02.059944,-139
2021-10-14 16:00:02.059952,-120
2021-10-14 16:00:02.059961,-132
2021-10-14 16:00:02.059969,-144
2021-10-14 16:00:02.059977,-139
2021-10-14 16:00:02.059985,-129
2021-10-14 16:00:02.059994,-98
2021-10-14 16:00:02.060002,38
2021-10-14 16:00:02.060011,367
2021-10-14 16:00:02.060019,714
2021-10-14 16:00:02.060027,454
2021-10-14 16:00:02.060035,-613
2021-10-14 16:00:02.060044,-1358
2021-10-14 16:00:02.060052,-966
2021-10-14 16:00:02.060061,-377
2021-10-14 16:00:02.060069,-278
2021-10-14 16:00:02.060077,-197
2021-10-14 16:00:02.060086,-19
2021-10-14 16:00:02.060094,-14
2021-10-14 16:00:02.060102,-72
2021-10-14 16:00:02.060111,-38
2021-10-14 16:00:02.060119,-9
2021-10-14 16:00:02.241507,-9
2021-10-14 16:00:02.241529,4
2021-10-14 16:00:02.241539,4
2021-10-14 16:00:02.241547,-7
2021-10-14 16:00:02.241556,7
2021-10-14 16:00:02.241564,4
2021-10-14 16:00:02.241573,2
2021-10-14 16:00:02.241581,31
2021-10-14 16:00:02.241590,31
2021-10-14 16:00:02.241598,24
2021-10-14 16:00:02.241607,55
2021-10-14 16:00:02.241615,72
2021-10-14 16:00:02.241624,52
2021-10-14 16:00:02.241632,67
2021-10-14 16:00:02.241641,108
2021-10-14 16:00:02.241649,113
2021-10-14 16:00:02.241658,93
2021-10-14 16:00:02.241666,91
2021-10-14 16:00:02.241675,96
2021-10-14 16:00:02.241683,84
2021-10-14 16:00:02.241692,62
2021-10-14 16:00:02.241700,31
2021-10-14 16:00:02.241709,-14
2021-10-14 16:00:02.241717,-67
2021-10-14 16:00:02.241726,-117
2021-10-14 16:00:02.241734,-156
2021-10-14 16:00:02.241743,-177
2021-10-14 16:00:02.241751,-177
2021-10-14 16:00:02.241760,-185
2021-10-14 16:00:02.241768,-204
2021-10-14 16:00:02.466603,-204
2021-10-14 16:00:02.466625,-197
2021-10-14 16:00:02.466635,-206
2021-10-14 16:00:02.466644,-221
2021-10-14 16:00:02.466652,-211
2021-10-14 16:00:02.466661,-206
2021-10-14 16:00:02.466669,-209
2021-10-14 16:00:02.466678,-175
2021-10-14 16:00:02.466686,-141
2021-10-14 16:00:02.466695,-156
2021-10-14 16:00:02.466703,-177
2021-10-14 16:00:02.466712,-170
2021-10-14 16:00:02.466720,-156
2021-10-14 16:00:02.466728,-153
2021-10-14 16:00:02.466737,-165
2021-10-14 16:00:02.466745,-161
2021-10-14 16:00:02.466753,-137
2021-10-14 16:00:02.466762,-108
2021-10-14 16:00:02.466770,-86
2021-10-14 16:00:02.466778,-84
2021-10-14 16:00:02.466787,-98
2021-10-14 16:00:02.466795,-117
2021-10-14 16:00:02.466804,-129
2021-10-14 16:00:02.466812,-120
2021-10-14 16:00:02.466820,-105
2021-10-14 16:00:02.466829,-103
2021-10-14 16:00:02.466837,-88
2021-10-14 16:00:02.466845,-62
2021-10-14 16:00:02.466854,-62
2021-10-14 16:00:02.466862,-74
2021-10-14 16:00:02.825629,-72
2021-10-14 16:00:02.825653,-60
2021-10-14 16:00:02.825662,-55
2021-10-14 16:00:02.825671,-40
2021-10-14 16:00:02.825680,-31
2021-10-14 16:00:02.825688,-55
2021-10-14 16:00:02.825697,-76
2021-10-14 16:00:02.825705,-69
2021-10-14 16:00:02.825713,-74
2021-10-14 16:00:02.825722,-105
2021-10-14 16:00:02.825730,-93
2021-10-14 16:00:02.825739,-50
2021-10-14 16:00:02.825747,-55
2021-10-14 16:00:02.825755,-72
2021-10-14 16:00:02.825764,-55
2021-10-14 16:00:02.825772,-45
2021-10-14 16:00:02.825780,-43
2021-10-14 16:00:02.825789,33
2021-10-14 16:00:02.825797,317
2021-10-14 16:00:02.825806,738
2021-10-14 16:00:02.825814,675
2021-10-14 16:00:02.825823,-319
2021-10-14 16:00:02.825831,-1276
2021-10-14 16:00:02.825839,-1048
2021-10-14 16:00:02.825848,-365
2021-10-14 16:00:02.825856,-173
2021-10-14 16:00:02.825865,-96
2021-10-14 16:00:02.825873,69
2021-10-14 16:00:02.825882,79
2021-10-14 16:00:02.825890,40
2021-10-14 16:00:02.961230,74
2021-10-14 16:00:02.961253,88
2021-10-14 16:00:02.961263,81
2021-10-14 16:00:02.961272,84
2021-10-14 16:00:02.961281,79
2021-10-14 16:00:02.961289,81
2021-10-14 16:00:02.961298,120
2021-10-14 16:00:02.961306,151
2021-10-14 16:00:02.961315,115
2021-10-14 16:00:02.961323,88
2021-10-14 16:00:02.961332,127
2021-10-14 16:00:02.961341,144
2021-10-14 16:00:02.961349,132
2021-10-14 16:00:02.961358,163
2021-10-14 16:00:02.961366,192
2021-10-14 16:00:02.961375,177
2021-10-14 16:00:02.961383,168
2021-10-14 16:00:02.961391,173
2021-10-14 16:00:02.961400,204
2021-10-14 16:00:02.961409,245
2021-10-14 16:00:02.961417,216
2021-10-14 16:00:02.961425,146
2021-10-14 16:00:02.961434,129
2021-10-14 16:00:02.961442,129
2021-10-14 16:00:02.961451,76
2021-10-14 16:00:02.961459,9
2021-10-14 16:00:02.961468,-43
2021-10-14 16:00:02.961476,-81
2021-10-14 16:00:02.961485,-81
2021-10-14 16:00:02.961493,-62
2021-10-14 16:00:03.276183,-67
2021-10-14 16:00:03.276205,-105
2021-10-14 16:00:03.276214,-127
2021-10-14 16:00:03.276223,-110
2021-10-14 16:00:03.276232,-108
2021-10-14 16:00:03.276240,-129
2021-10-14 16:00:03.276249,-134
2021-10-14 16:00:03.276257,-129
2021-10-14 16:00:03.276265,-127
2021-10-14 16:00:03.276274,-93
2021-10-14 16:00:03.276282,-57
2021-10-14 16:00:03.276291,-57
2021-10-14 16:00:03.276299,-57
2021-10-14 16:00:03.276307,-48
2021-10-14 16:00:03.276316,-55
2021-10-14 16:00:03.276324,-67
2021-10-14 16:00:03.276332,-50
2021-10-14 16:00:03.276341,-38
2021-10-14 16:00:03.276349,-48
2021-10-14 16:00:03.276357,-57
2021-10-14 16:00:03.276365,-52
2021-10-14 16:00:03.276374,-24
2021-10-14 16:00:03.276382,-14
2021-10-14 16:00:03.276390,-26
2021-10-14 16:00:03.276399,-38
2021-10-14 16:00:03.276407,-64
2021-10-14 16:00:03.276415,-74
2021-10-14 16:00:03.276424,-45
2021-10-14 16:00:03.276432,-24
2021-10-14 16:00:03.276440,-38
2021-10-14 16:00:03.411257,-38
2021-10-14 16:00:03.411281,-16
2021-10-14 16:00:03.411291,-12
2021-10-14 16:00:03.411299,-12
2021-10-14 16:00:03.411308,-2
2021-10-14 16:00:03.411316,4
2021-10-14 16:00:03.411325,-2
2021-10-14 16:00:03.411333,-21
2021-10-14 16:00:03.411342,-19
2021-10-14 16:00:03.411350,4
2021-10-14 16:00:03.411359,2
2021-10-14 16:00:03.411367,-16
2021-10-14 16:00:03.411376,-24
2021-10-14 16:00:03.411384,-12
2021-10-14 16:00:03.411393,2
2021-10-14 16:00:03.411401,4
2021-10-14 16:00:03.411410,-4
2021-10-14 16:00:03.411418,-7
2021-10-14 16:00:03.411426,-9
2021-10-14 16:00:03.411435,-21
2021-10-14 16:00:03.411443,-19
2021-10-14 16:00:03.411451,0
2021-10-14 16:00:03.411460,62
2021-10-14 16:00:03.411468,322
2021-10-14 16:00:03.411476,767
2021-10-14 16:00:03.411485,863
2021-10-14 16:00:03.411493,67
2021-10-14 16:00:03.411501,-1017
2021-10-14 16:00:03.411510,-1137
2021-10-14 16:00:03.411518,-464
2021-10-14 16:00:03.636597,-108
2021-10-14 16:00:03.636619,-72
2021-10-14 16:00:03.636629,67
2021-10-14 16:00:03.636637,146
2021-10-14 16:00:03.636645,86
2021-10-14 16:00:03.636653,84
2021-10-14 16:00:03.636661,127
2021-10-14 16:00:03.636669,127
2021-10-14 16:00:03.636677,120
2021-10-14 16:00:03.636685,115
2021-10-14 16:00:03.636693,115
2021-10-14 16:00:03.636701,146
2021-10-14 16:00:03.636709,139
2021-10-14 16:00:03.636717,96
2021-10-14 16:00:03.636725,113
2021-10-14 16:00:03.636734,158
2021-10-14 16:00:03.636742,161
2021-10-14 16:00:03.636750,163
2021-10-14 16:00:03.636758,197
2021-10-14 16:00:03.636767,204
2021-10-14 16:00:03.636775,187
2021-10-14 16:00:03.636783,199
2021-10-14 16:00:03.636791,218
2021-10-14 16:00:03.636799,204
2021-10-14 16:00:03.636808,218
2021-10-14 16:00:03.636816,238
2021-10-14 16:00:03.636824,199
2021-10-14 16:00:03.636832,156
2021-10-14 16:00:03.636839,125
2021-10-14 16:00:03.636847,81
2021-10-14 16:00:03.861252,40
2021-10-14 16:00:03.861276,7
2021-10-14 16:00:03.861285,-31
2021-10-14 16:00:03.861294,-62
2021-10-14 16:00:03.861303,-81
2021-10-14 16:00:03.861311,-103
2021-10-14 16:00:03.861320,-125
2021-10-14 16:00:03.861328,-115
2021-10-14 16:00:03.861337,-91
2021-10-14 16:00:03.861345,-86
2021-10-14 16:00:03.861353,-108
2021-10-14 16:00:03.861362,-120
2021-10-14 16:00:03.861370,-105
2021-10-14 16:00:03.861378,-93
2021-10-14 16:00:03.861386,-105
2021-10-14 16:00:03.861394,-110
2021-10-14 16:00:03.861403,-88
2021-10-14 16:00:03.861411,-57
2021-10-14 16:00:03.861419,-38
2021-10-14 16:00:03.861427,-31
2021-10-14 16:00:03.861436,-31
2021-10-14 16:00:03.861444,-40
2021-10-14 16:00:03.861452,-43
2021-10-14 16:00:03.861461,-16
2021-10-14 16:00:03.861469,-2
2021-10-14 16:00:03.861477,-24
2021-10-14 16:00:03.861486,-43
2021-10-14 16:00:03.861494,-33
2021-10-14 16:00:03.861502,-16
2021-10-14 16:00:03.861510,-7
2021-10-14 16:00:04.130297,-12
2021-10-14 16:00:04.130320,-9
2021-10-14 16:00:04.130329,4
2021-10-14 16:00:04.130338,-7
2021-10-14 16:00:04.130347,-43
2021-10-14 16:00:04.130355,-43
2021-10-14 16:00:04.130363,-9
2021-10-14 16:00:04.130372,-7
2021-10-14 16:00:04.130380,-33
2021-10-14 16:00:04.130388,-24
2021-10-14 16:00:04.130397,-12
2021-10-14 16:00:04.130405,-26
2021-10-14 16:00:04.130413,-4
2021-10-14 16:00:04.130422,21
2021-10-14 16:00:04.130430,0
2021-10-14 16:00:04.130438,0
2021-10-14 16:00:04.130446,21
2021-10-14 16:00:04.130455,0
2021-10-14 16:00:04.130463,-28
2021-10-14 16:00:04.130471,-24
2021-10-14 16:00:04.130479,-19
2021-10-14 16:00:04.130487,-33
2021-10-14 16:00:04.130496,-38
2021-10-14 16:00:04.130504,-16
2021-10-14 16:00:04.130512,2
2021-10-14 16:00:04.130520,-4
2021-10-14 16:00:04.130529,-28
2021-10-14 16:00:04.130537,-26
2021-10-14 16:00:04.130545,33
2021-10-14 16:00:04.130553,223
2021-10-14 16:00:04.356626,601
2021-10-14 16:00:04.356649,856
2021-10-14 16:00:04.356659,355
2021-10-14 16:00:04.356668,-764
2021-10-14 16:00:04.356676,-1238
2021-10-14 16:00:04.356685,-670
2021-10-14 16:00:04.356693,-182
2021-10-14 16:00:04.356702,-125
2021-10-14 16:00:04.356710,-9
2021-10-14 16:00:04.356718,96
2021-10-14 16:00:04.356727,55
2021-10-14 16:00:04.356735,40
2021-10-14 16:00:04.356744,79
2021-10-14 16:00:04.356752,79
2021-10-14 16:00:04.356761,72
2021-10-14 16:00:04.356769,96
2021-10-14 16:00:04.356777,101
2021-10-14 16:00:04.356786,86
2021-10-14 16:00:04.356794,86
2021-10-14 16:00:04.356802,101
2021-10-14 16:00:04.356811,110
2021-10-14 16:00:04.356819,110
2021-10-14 16:00:04.356827,122
2021-10-14 16:00:04.356835,144
2021-10-14 16:00:04.356844,168
2021-10-14 16:00:04.356852,187
2021-10-14 16:00:04.356861,197
2021-10-14 16:00:04.356869,194
2021-10-14 16:00:04.356877,189
2021-10-14 16:00:04.356886,204
2021-10-14 16:00:04.581249,223
2021-10-14 16:00:04.581272,216
2021-10-14 16:00:04.581282,197
2021-10-14 16:00:04.581291,163
2021-10-14 16:00:04.581299,120
2021-10-14 16:00:04.581308,91
2021-10-14 16:00:04.581316,72
2021-10-14 16:00:04.581324,43
2021-10-14 16:00:04.581333,-4
2021-10-14 16:00:04.581341,-55
2021-10-14 16:00:04.581350,-88
2021-10-14 16:00:04.581358,-101
2021-10-14 16:00:04.581366,-101
2021-10-14 16:00:04.581375,-103
2021-10-14 16:00:04.581383,-108
2021-10-14 16:00:04.581392,-110
2021-10-14 16:00:04.581400,-120
2021-10-14 16:00:04.581408,-117
2021-10-14 16:00:04.581417,-96
2021-10-14 16:00:04.581425,-81
2021-10-14 16:00:04.581433,-86
2021-10-14 16:00:04.581442,-76
2021-10-14 16:00:04.581450,-52
2021-10-14 16:00:04.581458,-38
2021-10-14 16:00:04.581467,-28
2021-10-14 16:00:04.581475,-21
2021-10-14 16:00:04.581483,-21
2021-10-14 16:00:04.581491,-21
2021-10-14 16:00:04.581500,-2
2021-10-14 16:00:04.581508,4
2021-10-14 16:00:04.806240,-16
2021-10-14 16:00:04.806262,-19
2021-10-14 16:00:04.806272,9
2021-10-14 16:00:04.806281,16
2021-10-14 16:00:04.806289,-2
2021-10-14 16:00:04.806298,2
2021-10-14 16:00:04.806306,24
2021-10-14 16:00:04.806314,26
2021-10-14 16:00:04.806323,12
2021-10-14 16:00:04.806331,16
2021-10-14 16:00:04.806339,26
2021-10-14 16:00:04.806347,2
2021-10-14 16:00:04.806356,-28
2021-10-14 16:00:04.806364,-14
2021-10-14 16:00:04.806373,24
2021-10-14 16:00:04.806381,33
2021-10-14 16:00:04.806389,26
2021-10-14 16:00:04.806397,33
2021-10-14 16:00:04.806406,69
2021-10-14 16:00:04.806414,103
2021-10-14 16:00:04.806423,79
2021-10-14 16:00:04.806431,43
2021-10-14 16:00:04.806439,50
2021-10-14 16:00:04.806447,52
2021-10-14 16:00:04.806456,40
2021-10-14 16:00:04.806464,55
2021-10-14 16:00:04.806472,93
2021-10-14 16:00:04.806480,103
2021-10-14 16:00:04.806489,101
2021-10-14 16:00:04.806497,127
2021-10-14 16:00:05.075646,149
2021-10-14 16:00:05.075668,144
2021-10-14 16:00:05.075677,197
2021-10-14 16:00:05.075686,401
2021-10-14 16:00:05.075695,767
2021-10-14 16:00:05.075703,935
2021-10-14 16:00:05.075712,300
2021-10-14 16:00:05.075720,-771
2021-10-14 16:00:05.075729,-1007
2021-10-14 16:00:05.075737,-389
2021-10-14 16:00:05.075746,7
2021-10-14 16:00:05.075754,84
2021-10-14 16:00:05.075763,242
2021-10-14 16:00:05.075771,343
2021-10-14 16:00:05.075779,300
2021-10-14 16:00:05.075788,303
2021-10-14 16:00:05.075796,346
2021-10-14 16:00:05.075805,346
2021-10-14 16:00:05.075813,348
2021-10-14 16:00:05.075821,365
2021-10-14 16:00:05.075830,367
2021-10-14 16:00:05.075851,375
2021-10-14 16:00:05.075860,406
2021-10-14 16:00:05.075868,413
2021-10-14 16:00:05.075877,396
2021-10-14 16:00:05.075885,408
2021-10-14 16:00:05.075894,440
2021-10-14 16:00:05.075902,444
2021-10-14 16:00:05.075910,420
2021-10-14 16:00:05.075919,430
2021-10-14 16:00:05.256454,476
2021-10-14 16:00:05.256486,512
2021-10-14 16:00:05.256495,507
2021-10-14 16:00:05.256504,478
2021-10-14 16:00:05.256513,468
2021-10-14 16:00:05.256522,466
2021-10-14 16:00:05.256531,440
2021-10-14 16:00:05.256540,394
2021-10-14 16:00:05.256549,353
2021-10-14 16:00:05.256558,310
2021-10-14 16:00:05.256566,269
2021-10-14 16:00:05.256575,228
2021-10-14 16:00:05.256584,185
2021-10-14 16:00:05.256593,151
2021-10-14 16:00:05.256601,117
2021-10-14 16:00:05.256610,76
2021-10-14 16:00:05.256619,67
2021-10-14 16:00:05.256628,64
2021-10-14 16:00:05.256637,33
2021-10-14 16:00:05.256646,2
2021-10-14 16:00:05.256655,0
2021-10-14 16:00:05.256665,4
2021-10-14 16:00:05.256674,16
2021-10-14 16:00:05.256682,31
2021-10-14 16:00:05.256691,21
2021-10-14 16:00:05.256700,7
2021-10-14 16:00:05.256709,16
2021-10-14 16:00:05.256718,19
2021-10-14 16:00:05.256727,4
2021-10-14 16:00:05.256735,12
2021-10-14 16:00:05.481662,36
2021-10-14 16:00:05.481685,33
2021-10-14 16:00:05.481695,14
2021-10-14 16:00:05.481704,9
2021-10-14 16:00:05.481712,9
2021-10-14 16:00:05.481721,4
2021-10-14 16:00:05.481729,-7
2021-10-14 16:00:05.481737,-38
2021-10-14 16:00:05.481746,-55
2021-10-14 16:00:05.481754,-43
2021-10-14 16:00:05.481763,-43
2021-10-14 16:00:05.481771,-55
2021-10-14 16:00:05.481780,-67
2021-10-14 16:00:05.481788,-84
2021-10-14 16:00:05.481797,-88
2021-10-14 16:00:05.481805,-79
2021-10-14 16:00:05.481813,-76
2021-10-14 16:00:05.481822,-79
2021-10-14 16:00:05.481830,-86
2021-10-14 16:00:05.481839,-93
2021-10-14 16:00:05.481847,-103
2021-10-14 16:00:05.481856,-93
2021-10-14 16:00:05.481865,-76
2021-10-14 16:00:05.481873,-93
2021-10-14 16:00:05.481881,-125
2021-10-14 16:00:05.481890,-132
2021-10-14 16:00:05.481898,-137
2021-10-14 16:00:05.481907,-139
2021-10-14 16:00:05.481915,-132
2021-10-14 16:00:05.481924,-153
2021-10-14 16:00:05.751652,-173
2021-10-14 16:00:05.751675,-144
2021-10-14 16:00:05.751684,-139
2021-10-14 16:00:05.751693,-158
2021-10-14 16:00:05.751701,-132
2021-10-14 16:00:05.751709,-45
2021-10-14 16:00:05.751718,218
2021-10-14 16:00:05.751726,632
2021-10-14 16:00:05.751735,565
2021-10-14 16:00:05.751743,-413
2021-10-14 16:00:05.751752,-1353
2021-10-14 16:00:05.751760,-1178
2021-10-14 16:00:05.751769,-541
2021-10-14 16:00:05.751777,-343
2021-10-14 16:00:05.751786,-271
2021-10-14 16:00:05.751794,-101
2021-10-14 16:00:05.751803,-62
2021-10-14 16:00:05.751811,-103
2021-10-14 16:00:05.751819,-81
2021-10-14 16:00:05.751828,-60
2021-10-14 16:00:05.751836,-60
2021-10-14 16:00:05.751845,-52
2021-10-14 16:00:05.751853,-60
2021-10-14 16:00:05.751861,-69
2021-10-14 16:00:05.751870,-60
2021-10-14 16:00:05.751878,-52
2021-10-14 16:00:05.751887,-52
2021-10-14 16:00:05.751895,-33
2021-10-14 16:00:05.751903,-26
2021-10-14 16:00:05.751912,-48
2021-10-14 16:00:05.931245,-16
2021-10-14 16:00:05.931268,38
2021-10-14 16:00:05.931277,24
2021-10-14 16:00:05.931286,19
2021-10-14 16:00:05.931294,55
2021-10-14 16:00:05.931303,50
2021-10-14 16:00:05.931311,26
2021-10-14 16:00:05.931320,21
2021-10-14 16:00:05.931328,-7
2021-10-14 16:00:05.931337,-43
2021-10-14 16:00:05.931345,-57
2021-10-14 16:00:05.931353,-79
2021-10-14 16:00:05.931362,-122
2021-10-14 16:00:05.931370,-168
2021-10-14 16:00:05.931379,-211
2021-10-14 16:00:05.931387,-250
2021-10-14 16:00:05.931395,-271
2021-10-14 16:00:05.931404,-286
2021-10-14 16:00:05.931412,-303
2021-10-14 16:00:05.931421,-310
2021-10-14 16:00:05.931429,-307
2021-10-14 16:00:05.931437,-300
2021-10-14 16:00:05.931445,-290
2021-10-14 16:00:05.931454,-286
2021-10-14 16:00:05.931462,-293
2021-10-14 16:00:05.931470,-300
2021-10-14 16:00:05.931478,-293
2021-10-14 16:00:05.931486,-266
2021-10-14 16:00:05.931495,-250
2021-10-14 16:00:05.931503,-252
2021-10-14 16:00:06.200305,-238
2021-10-14 16:00:06.200327,-206
2021-10-14 16:00:06.200337,-206
2021-10-14 16:00:06.200345,-216
2021-10-14 16:00:06.200354,-194
2021-10-14 16:00:06.200363,-177
2021-10-14 16:00:06.200371,-185
2021-10-14 16:00:06.200379,-192
2021-10-14 16:00:06.200388,-185
2021-10-14 16:00:06.200396,-185
2021-10-14 16:00:06.200405,-185
2021-10-14 16:00:06.200413,-168
2021-10-14 16:00:06.200422,-177
2021-10-14 16:00:06.200430,-197
2021-10-14 16:00:06.200438,-187
2021-10-14 16:00:06.200447,-185
2021-10-14 16:00:06.200455,-185
2021-10-14 16:00:06.200464,-170
2021-10-14 16:00:06.200472,-175
2021-10-14 16:00:06.200480,-173
2021-10-14 16:00:06.200489,-153
2021-10-14 16:00:06.200497,-153
2021-10-14 16:00:06.200505,-149
2021-10-14 16:00:06.200514,-141
2021-10-14 16:00:06.200522,-139
2021-10-14 16:00:06.200530,-122
2021-10-14 16:00:06.200538,-105
2021-10-14 16:00:06.200547,-103
2021-10-14 16:00:06.200555,-117
2021-10-14 16:00:06.200563,-149
2021-10-14 16:00:06.381661,-168
2021-10-14 16:00:06.381685,-161
2021-10-14 16:00:06.381695,-151
2021-10-14 16:00:06.381704,-149
2021-10-14 16:00:06.381713,-149
2021-10-14 16:00:06.381721,-127
2021-10-14 16:00:06.381730,-103
2021-10-14 16:00:06.381738,-110
2021-10-14 16:00:06.381747,-129
2021-10-14 16:00:06.381755,-115
2021-10-14 16:00:06.381764,-19
2021-10-14 16:00:06.381772,276
2021-10-14 16:00:06.381781,687
2021-10-14 16:00:06.381790,603
2021-10-14 16:00:06.381798,-389
2021-10-14 16:00:06.381807,-1320
2021-10-14 16:00:06.381815,-1067
2021-10-14 16:00:06.381824,-382
2021-10-14 16:00:06.381832,-202
2021-10-14 16:00:06.381841,-146
2021-10-14 16:00:06.381849,-2
2021-10-14 16:00:06.381858,-2
2021-10-14 16:00:06.381866,-36
2021-10-14 16:00:06.381875,14
2021-10-14 16:00:06.381883,33
2021-10-14 16:00:06.381892,28
2021-10-14 16:00:06.381900,50
2021-10-14 16:00:06.381909,52
2021-10-14 16:00:06.381917,48
2021-10-14 16:00:06.381925,72
2021-10-14 16:00:06.695679,81
2021-10-14 16:00:06.695703,64
2021-10-14 16:00:06.695712,64
2021-10-14 16:00:06.695721,76
2021-10-14 16:00:06.695729,84
2021-10-14 16:00:06.695738,96
2021-10-14 16:00:06.695746,117
2021-10-14 16:00:06.695754,141
2021-10-14 16:00:06.695763,149
2021-10-14 16:00:06.695771,139
2021-10-14 16:00:06.695780,125
2021-10-14 16:00:06.695788,117
2021-10-14 16:00:06.695796,110
2021-10-14 16:00:06.695805,103
2021-10-14 16:00:06.695813,81
2021-10-14 16:00:06.695821,45
2021-10-14 16:00:06.695829,12
2021-10-14 16:00:06.695838,-7
2021-10-14 16:00:06.695846,-33
2021-10-14 16:00:06.695854,-79
2021-10-14 16:00:06.695862,-125
2021-10-14 16:00:06.695871,-158
2021-10-14 16:00:06.695879,-161
2021-10-14 16:00:06.695887,-149
2021-10-14 16:00:06.695896,-161
2021-10-14 16:00:06.695904,-175
2021-10-14 16:00:06.695912,-163
2021-10-14 16:00:06.695920,-165
2021-10-14 16:00:06.695929,-175
2021-10-14 16:00:06.695937,-153
2021-10-14 16:00:06.876225,-129
2021-10-14 16:00:06.876247,-129
2021-10-14 16:00:06.876257,-134
2021-10-14 16:00:06.876266,-141
2021-10-14 16:00:06.876274,-156
2021-10-14 16:00:06.876283,-153
2021-10-14 16:00:06.876291,-115
2021-10-14 16:00:06.876299,-93
2021-10-14 16:00:06.876308,-113
2021-10-14 16:00:06.876316,-117
2021-10-14 16:00:06.876325,-72
2021-10-14 16:00:06.876333,-55
2021-10-14 16:00:06.876341,-81
2021-10-14 16:00:06.876349,-79
2021-10-14 16:00:06.876358,-69
2021-10-14 16:00:06.876366,-84
2021-10-14 16:00:06.876374,-93
2021-10-14 16:00:06.876383,-91
2021-10-14 16:00:06.876391,-88
2021-10-14 16:00:06.876399,-88
2021-10-14 16:00:06.876408,-81
2021-10-14 16:00:06.876416,-60
2021-10-14 16:00:06.876424,-57
2021-10-14 16:00:06.876432,-74
2021-10-14 16:00:06.876441,-67
2021-10-14 16:00:06.876449,-45
2021-10-14 16:00:06.876457,-40
2021-10-14 16:00:06.876465,-57
2021-10-14 16:00:06.876474,-55
2021-10-14 16:00:06.876482,-28
2021-10-14 16:00:07.101654,-36
2021-10-14 16:00:07.101676,-43
2021-10-14 16:00:07.101686,-7
2021-10-14 16:00:07.101694,24
2021-10-14 16:00:07.101703,28
2021-10-14 16:00:07.101711,4
2021-10-14 16:00:07.101720,-33
2021-10-14 16:00:07.101728,-43
2021-10-14 16:00:07.101736,-33
2021-10-14 16:00:07.101745,-28
2021-10-14 16:00:07.101753,-16
2021-10-14 16:00:07.101761,-9
2021-10-14 16:00:07.101770,-16
2021-10-14 16:00:07.101778,-26
2021-10-14 16:00:07.101786,-16
2021-10-14 16:00:07.101794,-7
2021-10-14 16:00:07.101803,-2
2021-10-14 16:00:07.101811,43
2021-10-14 16:00:07.101819,209
2021-10-14 16:00:07.101828,574
2021-10-14 16:00:07.101836,872
2021-10-14 16:00:07.101844,432
2021-10-14 16:00:07.101853,-685
2021-10-14 16:00:07.101861,-1202
2021-10-14 16:00:07.101869,-661
2021-10-14 16:00:07.101878,-163
2021-10-14 16:00:07.101886,-98
2021-10-14 16:00:07.101894,26
2021-10-14 16:00:07.101903,153
2021-10-14 16:00:07.101911,127
2021-10-14 16:00:07.326684,115
2021-10-14 16:00:07.326705,149
2021-10-14 16:00:07.326715,149
2021-10-14 16:00:07.326724,151
2021-10-14 16:00:07.326732,175
2021-10-14 16:00:07.326741,187
2021-10-14 16:00:07.326750,173
2021-10-14 16:00:07.326758,161
2021-10-14 16:00:07.326766,173
2021-10-14 16:00:07.326775,173
2021-10-14 16:00:07.326783,165
2021-10-14 16:00:07.326792,180
2021-10-14 16:00:07.326801,185
2021-10-14 16:00:07.326809,192
2021-10-14 16:00:07.326817,226
2021-10-14 16:00:07.326826,245
2021-10-14 16:00:07.326834,240
2021-10-14 16:00:07.326843,252
2021-10-14 16:00:07.326851,264
2021-10-14 16:00:07.326859,252
2021-10-14 16:00:07.326868,242
2021-10-14 16:00:07.326876,250
2021-10-14 16:00:07.326884,233
2021-10-14 16:00:07.326893,192
2021-10-14 16:00:07.326901,153
2021-10-14 16:00:07.326909,122
2021-10-14 16:00:07.326918,91
2021-10-14 16:00:07.326926,55
2021-10-14 16:00:07.326935,38
2021-10-14 16:00:07.326943,38
2021-10-14 16:00:07.596673,21
2021-10-14 16:00:07.596696,4
2021-10-14 16:00:07.596706,14
2021-10-14 16:00:07.596715,16
2021-10-14 16:00:07.596723,4
2021-10-14 16:00:07.596732,7
2021-10-14 16:00:07.596740,16
2021-10-14 16:00:07.596748,26
2021-10-14 16:00:07.596757,31
2021-10-14 16:00:07.596765,28
2021-10-14 16:00:07.596773,40
2021-10-14 16:00:07.596782,67
2021-10-14 16:00:07.596790,74
2021-10-14 16:00:07.596799,81
2021-10-14 16:00:07.596807,86
2021-10-14 16:00:07.596815,91
2021-10-14 16:00:07.596824,108
2021-10-14 16:00:07.596832,110
2021-10-14 16:00:07.596840,98
2021-10-14 16:00:07.596849,110
2021-10-14 16:00:07.596857,125
2021-10-14 16:00:07.596865,113
2021-10-14 16:00:07.596874,115
2021-10-14 16:00:07.596882,141
2021-10-14 16:00:07.596890,132
2021-10-14 16:00:07.596898,113
2021-10-14 16:00:07.596907,117
2021-10-14 16:00:07.596915,117
2021-10-14 16:00:07.596923,98
2021-10-14 16:00:07.596932,96
2021-10-14 16:00:07.776263,117
2021-10-14 16:00:07.776284,115
2021-10-14 16:00:07.776294,88
2021-10-14 16:00:07.776303,86
2021-10-14 16:00:07.776311,108
2021-10-14 16:00:07.776320,113
2021-10-14 16:00:07.776328,110
2021-10-14 16:00:07.776337,122
2021-10-14 16:00:07.776345,122
2021-10-14 16:00:07.776354,108
2021-10-14 16:00:07.776362,108
2021-10-14 16:00:07.776371,105
2021-10-14 16:00:07.776379,74
2021-10-14 16:00:07.776387,57
2021-10-14 16:00:07.776396,52
2021-10-14 16:00:07.776404,19
2021-10-14 16:00:07.776412,16
2021-10-14 16:00:07.776421,38
2021-10-14 16:00:07.776429,33
2021-10-14 16:00:07.776438,28
2021-10-14 16:00:07.776446,21
2021-10-14 16:00:07.776455,7
2021-10-14 16:00:07.776463,14
2021-10-14 16:00:07.776472,40
2021-10-14 16:00:07.776480,98
2021-10-14 16:00:07.776488,324
2021-10-14 16:00:07.776497,719
2021-10-14 16:00:07.776505,743
2021-10-14 16:00:07.776513,-108
2021-10-14 16:00:07.776522,-1086
2021-10-14 16:00:08.001660,-1048
2021-10-14 16:00:08.001683,-447
2021-10-14 16:00:08.001692,-204
2021-10-14 16:00:08.001701,-110
2021-10-14 16:00:08.001710,62
2021-10-14 16:00:08.001718,93
2021-10-14 16:00:08.001727,48
2021-10-14 16:00:08.001735,88
2021-10-14 16:00:08.001743,127
2021-10-14 16:00:08.001752,101
2021-10-14 16:00:08.001760,72
2021-10-14 16:00:08.001768,64
2021-10-14 16:00:08.001777,64
2021-10-14 16:00:08.001785,62
2021-10-14 16:00:08.001794,67
2021-10-14 16:00:08.001802,88
2021-10-14 16:00:08.001811,98
2021-10-14 16:00:08.001819,93
2021-10-14 16:00:08.001827,96
2021-10-14 16:00:08.001835,98
2021-10-14 16:00:08.001844,108
2021-10-14 16:00:08.001852,127
2021-10-14 16:00:08.001861,139
2021-10-14 16:00:08.001869,144
2021-10-14 16:00:08.001877,151
2021-10-14 16:00:08.001886,141
2021-10-14 16:00:08.001894,113
2021-10-14 16:00:08.001902,93
2021-10-14 16:00:08.001911,93
2021-10-14 16:00:08.001919,57
2021-10-14 16:00:08.316037,-4
2021-10-14 16:00:08.316061,-31
2021-10-14 16:00:08.316070,-50
2021-10-14 16:00:08.316079,-103
2021-10-14 16:00:08.316088,-163
2021-10-14 16:00:08.316126,-199
2021-10-14 16:00:08.316134,-221
2021-10-14 16:00:08.316143,-223
2021-10-14 16:00:08.316151,-218
2021-10-14 16:00:08.316159,-240
2021-10-14 16:00:08.316167,-252
2021-10-14 16:00:08.316176,-238
2021-10-14 16:00:08.316184,-238
2021-10-14 16:00:08.316193,-252
2021-10-14 16:00:08.316201,-252
2021-10-14 16:00:08.316209,-235
2021-10-14 16:00:08.316218,-221
2021-10-14 16:00:08.316226,-216
2021-10-14 16:00:08.316235,-211
2021-10-14 16:00:08.316243,-194
2021-10-14 16:00:08.316252,-182
2021-10-14 16:00:08.316260,-202
2021-10-14 16:00:08.316268,-211
2021-10-14 16:00:08.316276,-192
2021-10-14 16:00:08.316285,-180
2021-10-14 16:00:08.316293,-185
2021-10-14 16:00:08.316301,-165
2021-10-14 16:00:08.316310,-149
2021-10-14 16:00:08.316318,-161
2021-10-14 16:00:08.316326,-187
2021-10-14 16:00:08.541609,-199
2021-10-14 16:00:08.541631,-182
2021-10-14 16:00:08.541640,-170
2021-10-14 16:00:08.541649,-199
2021-10-14 16:00:08.541657,-209
2021-10-14 16:00:08.541666,-175
2021-10-14 16:00:08.541674,-168
2021-10-14 16:00:08.541683,-185
2021-10-14 16:00:08.541691,-180
2021-10-14 16:00:08.541699,-185
2021-10-14 16:00:08.541708,-202
2021-10-14 16:00:08.541716,-182
2021-10-14 16:00:08.541724,-141
2021-10-14 16:00:08.541733,-137
2021-10-14 16:00:08.541741,-149
2021-10-14 16:00:08.541749,-144
2021-10-14 16:00:08.541758,-129
2021-10-14 16:00:08.541766,-132
2021-10-14 16:00:08.541774,-144
2021-10-14 16:00:08.541782,-149
2021-10-14 16:00:08.541791,-158
2021-10-14 16:00:08.541799,-165
2021-10-14 16:00:08.541807,-163
2021-10-14 16:00:08.541815,-151
2021-10-14 16:00:08.541824,-139
2021-10-14 16:00:08.541832,-129
2021-10-14 16:00:08.541840,-139
2021-10-14 16:00:08.541849,-151
2021-10-14 16:00:08.541857,-132
2021-10-14 16:00:08.541865,-98
2021-10-14 16:00:08.721688,-24
2021-10-14 16:00:08.721711,247
2021-10-14 16:00:08.721721,658
2021-10-14 16:00:08.721730,632
2021-10-14 16:00:08.721738,-288
2021-10-14 16:00:08.721747,-1257
2021-10-14 16:00:08.721755,-1135
2021-10-14 16:00:08.721764,-483
2021-10-14 16:00:08.721772,-257
2021-10-14 16:00:08.721781,-185
2021-10-14 16:00:08.721789,-12
2021-10-14 16:00:08.721797,26
2021-10-14 16:00:08.721806,-14
2021-10-14 16:00:08.721814,16
2021-10-14 16:00:08.721823,36
2021-10-14 16:00:08.721831,16
2021-10-14 16:00:08.721839,7
2021-10-14 16:00:08.721848,16
2021-10-14 16:00:08.721856,31
2021-10-14 16:00:08.721864,43
2021-10-14 16:00:08.721873,43
2021-10-14 16:00:08.721881,36
2021-10-14 16:00:08.721889,38
2021-10-14 16:00:08.721898,48
2021-10-14 16:00:08.721906,72
2021-10-14 16:00:08.721915,96
2021-10-14 16:00:08.721923,86
2021-10-14 16:00:08.721931,67
2021-10-14 16:00:08.721940,76
2021-10-14 16:00:08.721948,98
2021-10-14 16:00:09.036699,120
2021-10-14 16:00:09.036722,139
2021-10-14 16:00:09.036731,122
2021-10-14 16:00:09.036740,93
2021-10-14 16:00:09.036748,84
2021-10-14 16:00:09.036757,45
2021-10-14 16:00:09.036765,-16
2021-10-14 16:00:09.036774,-60
2021-10-14 16:00:09.036782,-103
2021-10-14 16:00:09.036790,-137
2021-10-14 16:00:09.036799,-137
2021-10-14 16:00:09.036807,-146
2021-10-14 16:00:09.036815,-177
2021-10-14 16:00:09.036824,-175
2021-10-14 16:00:09.036832,-180
2021-10-14 16:00:09.036840,-209
2021-10-14 16:00:09.036849,-216
2021-10-14 16:00:09.036857,-194
2021-10-14 16:00:09.036865,-187
2021-10-14 16:00:09.036873,-194
2021-10-14 16:00:09.036882,-185
2021-10-14 16:00:09.036890,-168
2021-10-14 16:00:09.036898,-156
2021-10-14 16:00:09.036921,-141
2021-10-14 16:00:09.036930,-134
2021-10-14 16:00:09.036938,-129
2021-10-14 16:00:09.036946,-115
2021-10-14 16:00:09.036955,-117
2021-10-14 16:00:09.036963,-134
2021-10-14 16:00:09.036971,-108
2021-10-14 16:00:09.171285,-36
2021-10-14 16:00:09.171307,-40
2021-10-14 16:00:09.171316,-81
2021-10-14 16:00:09.171325,-45
2021-10-14 16:00:09.171333,-28
2021-10-14 16:00:09.171341,-55
2021-10-14 16:00:09.171350,-45
2021-10-14 16:00:09.171358,-43
2021-10-14 16:00:09.171367,-64
2021-10-14 16:00:09.171375,-69
2021-10-14 16:00:09.171383,-52
2021-10-14 16:00:09.171392,-31
2021-10-14 16:00:09.171400,-38
2021-10-14 16:00:09.171408,-57
2021-10-14 16:00:09.171416,-40
2021-10-14 16:00:09.171425,-16
2021-10-14 16:00:09.171433,-45
2021-10-14 16:00:09.171441,-57
2021-10-14 16:00:09.171449,-12
2021-10-14 16:00:09.171458,-14
2021-10-14 16:00:09.171466,-52
2021-10-14 16:00:09.171474,-26
2021-10-14 16:00:09.171482,9
2021-10-14 16:00:09.171490,-12
2021-10-14 16:00:09.171499,-26
2021-10-14 16:00:09.171507,-9
2021-10-14 16:00:09.171515,12
2021-10-14 16:00:09.171524,26
2021-10-14 16:00:09.171532,21
2021-10-14 16:00:09.171540,12
2021-10-14 16:00:09.396703,26
2021-10-14 16:00:09.396726,14
2021-10-14 16:00:09.396735,-26
2021-10-14 16:00:09.396744,-24
2021-10-14 16:00:09.396753,0
2021-10-14 16:00:09.396761,0
2021-10-14 16:00:09.396770,-16
2021-10-14 16:00:09.396778,-28
2021-10-14 16:00:09.396787,-24
2021-10-14 16:00:09.396795,-4
2021-10-14 16:00:09.396803,9
2021-10-14 16:00:09.396812,9
2021-10-14 16:00:09.396820,28
2021-10-14 16:00:09.396828,257
2021-10-14 16:00:09.396837,726
2021-10-14 16:00:09.396845,868
2021-10-14 16:00:09.396853,103
2021-10-14 16:00:09.396862,-973
2021-10-14 16:00:09.396870,-1103
2021-10-14 16:00:09.396878,-444
2021-10-14 16:00:09.396887,-101
2021-10-14 16:00:09.396895,-72
2021-10-14 16:00:09.396904,64
2021-10-14 16:00:09.396912,137
2021-10-14 16:00:09.396920,81
2021-10-14 16:00:09.396928,84
2021-10-14 16:00:09.396937,125
2021-10-14 16:00:09.396945,146
2021-10-14 16:00:09.396953,158
2021-10-14 16:00:09.396962,134
2021-10-14 16:00:09.621712,122
2021-10-14 16:00:09.621737,156
2021-10-14 16:00:09.621746,158
2021-10-14 16:00:09.621755,151
2021-10-14 16:00:09.621763,168
2021-10-14 16:00:09.621772,144
2021-10-14 16:00:09.621780,139
2021-10-14 16:00:09.621789,218
2021-10-14 16:00:09.621797,242
2021-10-14 16:00:09.621805,206
2021-10-14 16:00:09.621814,228
2021-10-14 16:00:09.621822,245
2021-10-14 16:00:09.621830,230
2021-10-14 16:00:09.621839,238
2021-10-14 16:00:09.621847,240
2021-10-14 16:00:09.621855,221
2021-10-14 16:00:09.621864,199
2021-10-14 16:00:09.621872,175
2021-10-14 16:00:09.621880,158
2021-10-14 16:00:09.621888,132
2021-10-14 16:00:09.621897,93
2021-10-14 16:00:09.621905,62
2021-10-14 16:00:09.621913,33
2021-10-14 16:00:09.621922,-12
2021-10-14 16:00:09.621930,-38
2021-10-14 16:00:09.621938,-21
2021-10-14 16:00:09.621947,-14
2021-10-14 16:00:09.621955,-33
2021-10-14 16:00:09.621963,-43
2021-10-14 16:00:09.621972,-36
2021-10-14 16:00:09.936749,-26
2021-10-14 16:00:09.936771,-31
2021-10-14 16:00:09.936781,-45
2021-10-14 16:00:09.936790,-48
2021-10-14 16:00:09.936798,-38
2021-10-14 16:00:09.936806,-40
2021-10-14 16:00:09.936815,-31
2021-10-14 16:00:09.936824,2
2021-10-14 16:00:09.936832,12
2021-10-14 16:00:09.936841,-4
2021-10-14 16:00:09.936849,-2
2021-10-14 16:00:09.936857,16
2021-10-14 16:00:09.936866,16
2021-10-14 16:00:09.936874,4
2021-10-14 16:00:09.936883,12
2021-10-14 16:00:09.936891,31
2021-10-14 16:00:09.936900,16
2021-10-14 16:00:09.936908,-19
2021-10-14 16:00:09.936917,-12
2021-10-14 16:00:09.936925,26
2021-10-14 16:00:09.936934,21
2021-10-14 16:00:09.936942,-2
2021-10-14 16:00:09.936950,9
2021-10-14 16:00:09.936959,31
2021-10-14 16:00:09.936968,33
2021-10-14 16:00:09.936976,26
2021-10-14 16:00:09.936984,2
2021-10-14 16:00:09.936993,-9
2021-10-14 16:00:09.937001,14
2021-10-14 16:00:09.937010,38
2021-10-14 16:00:10.071688,33
2021-10-14 16:00:10.071709,19
2021-10-14 16:00:10.071718,28
2021-10-14 16:00:10.071727,50
2021-10-14 16:00:10.071735,45
2021-10-14 16:00:10.071744,24
2021-10-14 16:00:10.071752,14
2021-10-14 16:00:10.071761,38
2021-10-14 16:00:10.071769,67
2021-10-14 16:00:10.071778,57
2021-10-14 16:00:10.071786,45
2021-10-14 16:00:10.071794,60
2021-10-14 16:00:10.071803,67
2021-10-14 16:00:10.071811,62
2021-10-14 16:00:10.071819,33
2021-10-14 16:00:10.071828,0
2021-10-14 16:00:10.071836,9
2021-10-14 16:00:10.071844,38
2021-10-14 16:00:10.071853,26
2021-10-14 16:00:10.071861,-4
2021-10-14 16:00:10.071869,2
2021-10-14 16:00:10.071877,48
2021-10-14 16:00:10.071886,62
2021-10-14 16:00:10.071894,36
2021-10-14 16:00:10.071902,40
2021-10-14 16:00:10.071910,93
2021-10-14 16:00:10.071919,264
2021-10-14 16:00:10.071927,646
2021-10-14 16:00:10.071935,882
2021-10-14 16:00:10.071944,293
2021-10-14 16:00:10.384976,-822
2021-10-14 16:00:10.384999,-1130
2021-10-14 16:00:10.385009,-490
2021-10-14 16:00:10.385018,-81
2021-10-14 16:00:10.385026,-52
2021-10-14 16:00:10.385034,79
2021-10-14 16:00:10.385043,151
2021-10-14 16:00:10.385051,101
2021-10-14 16:00:10.385060,120
2021-10-14 16:00:10.385068,141
2021-10-14 16:00:10.385076,127
2021-10-14 16:00:10.385085,153
2021-10-14 16:00:10.385093,165
2021-10-14 16:00:10.385101,146
2021-10-14 16:00:10.385110,146
2021-10-14 16:00:10.385118,158
2021-10-14 16:00:10.385127,158
2021-10-14 16:00:10.385135,173
2021-10-14 16:00:10.385143,189
2021-10-14 16:00:10.385152,170
2021-10-14 16:00:10.385160,163
2021-10-14 16:00:10.385169,209
2021-10-14 16:00:10.385177,252
2021-10-14 16:00:10.385185,252
2021-10-14 16:00:10.385194,257
2021-10-14 16:00:10.385202,278
2021-10-14 16:00:10.385211,281
2021-10-14 16:00:10.385219,269
2021-10-14 16:00:10.385227,269
2021-10-14 16:00:10.385236,262
2021-10-14 16:00:10.566713,226
2021-10-14 16:00:10.566737,199
2021-10-14 16:00:10.566747,180
2021-10-14 16:00:10.566756,137
2021-10-14 16:00:10.566764,101
2021-10-14 16:00:10.566772,84
2021-10-14 16:00:10.566781,57
2021-10-14 16:00:10.566789,45
2021-10-14 16:00:10.566798,33
2021-10-14 16:00:10.566806,9
2021-10-14 16:00:10.566814,4
2021-10-14 16:00:10.566823,9
2021-10-14 16:00:10.566831,7
2021-10-14 16:00:10.566839,9
2021-10-14 16:00:10.566848,4
2021-10-14 16:00:10.566856,-19
2021-10-14 16:00:10.566864,-21
2021-10-14 16:00:10.566873,4
2021-10-14 16:00:10.566881,28
2021-10-14 16:00:10.566889,33
2021-10-14 16:00:10.566898,31
2021-10-14 16:00:10.566906,36
2021-10-14 16:00:10.566915,45
2021-10-14 16:00:10.566923,45
2021-10-14 16:00:10.566931,50
2021-10-14 16:00:10.566940,50
2021-10-14 16:00:10.566948,28
2021-10-14 16:00:10.566956,43
2021-10-14 16:00:10.566965,84
2021-10-14 16:00:10.566973,93
2021-10-14 16:00:10.836072,84
2021-10-14 16:00:10.836095,69
2021-10-14 16:00:10.836104,52
2021-10-14 16:00:10.836113,45
2021-10-14 16:00:10.836122,50
2021-10-14 16:00:10.836130,52
2021-10-14 16:00:10.836138,40
2021-10-14 16:00:10.836147,26
2021-10-14 16:00:10.836155,16
2021-10-14 16:00:10.836163,36
2021-10-14 16:00:10.836172,72
2021-10-14 16:00:10.836180,64
2021-10-14 16:00:10.836188,33
2021-10-14 16:00:10.836197,33
2021-10-14 16:00:10.836205,38
2021-10-14 16:00:10.836213,28
2021-10-14 16:00:10.836222,38
2021-10-14 16:00:10.836230,45
2021-10-14 16:00:10.836238,24
2021-10-14 16:00:10.836247,16
2021-10-14 16:00:10.836255,16
2021-10-14 16:00:10.836263,7
2021-10-14 16:00:10.836272,12
2021-10-14 16:00:10.836280,33
2021-10-14 16:00:10.836288,19
2021-10-14 16:00:10.836297,0
2021-10-14 16:00:10.836305,19
2021-10-14 16:00:10.836313,43
2021-10-14 16:00:10.836321,33
2021-10-14 16:00:10.836330,36
2021-10-14 16:00:11.061414,48
2021-10-14 16:00:11.061437,26
2021-10-14 16:00:11.061447,-14
2021-10-14 16:00:11.061457,-24
2021-10-14 16:00:11.061466,2
2021-10-14 16:00:11.061474,21
2021-10-14 16:00:11.061482,9
2021-10-14 16:00:11.061491,-26
2021-10-14 16:00:11.061499,-50
2021-10-14 16:00:11.061508,-26
2021-10-14 16:00:11.061516,-2
2021-10-14 16:00:11.061525,-26
2021-10-14 16:00:11.061533,-21
2021-10-14 16:00:11.061541,88
2021-10-14 16:00:11.061550,375
2021-10-14 16:00:11.061558,738
2021-10-14 16:00:11.061566,613
2021-10-14 16:00:11.061575,-329
2021-10-14 16:00:11.061583,-1156
2021-10-14 16:00:11.061591,-875
2021-10-14 16:00:11.061600,-245
2021-10-14 16:00:11.061608,-117
2021-10-14 16:00:11.061617,-86
2021-10-14 16:00:11.061625,60
2021-10-14 16:00:11.061633,72
2021-10-14 16:00:11.061642,19
2021-10-14 16:00:11.061650,45
2021-10-14 16:00:11.061658,69
2021-10-14 16:00:11.061666,69
2021-10-14 16:00:11.061675,86
2021-10-14 16:00:11.241686,74
2021-10-14 16:00:11.241709,69
2021-10-14 16:00:11.241719,115
2021-10-14 16:00:11.241727,113
2021-10-14 16:00:11.241736,76
2021-10-14 16:00:11.241744,113
2021-10-14 16:00:11.241753,158
2021-10-14 16:00:11.241761,146
2021-10-14 16:00:11.241769,139
2021-10-14 16:00:11.241778,161
2021-10-14 16:00:11.241786,173
2021-10-14 16:00:11.241795,185
2021-10-14 16:00:11.241803,214
2021-10-14 16:00:11.241811,226
2021-10-14 16:00:11.241820,185
2021-10-14 16:00:11.241828,161
2021-10-14 16:00:11.241836,194
2021-10-14 16:00:11.241845,185
2021-10-14 16:00:11.241853,115
2021-10-14 16:00:11.241861,86
2021-10-14 16:00:11.241869,84
2021-10-14 16:00:11.241878,48
2021-10-14 16:00:11.241886,12
2021-10-14 16:00:11.241894,-12
2021-10-14 16:00:11.241903,-36
2021-10-14 16:00:11.241911,-50
2021-10-14 16:00:11.241919,-81
2021-10-14 16:00:11.241927,-117
2021-10-14 16:00:11.241936,-113
2021-10-14 16:00:11.241944,-105
2021-10-14 16:00:11.511733,-113
2021-10-14 16:00:11.511757,-105
2021-10-14 16:00:11.511766,-105
2021-10-14 16:00:11.511775,-103
2021-10-14 16:00:11.511783,-69
2021-10-14 16:00:11.511791,-62
2021-10-14 16:00:11.511800,-72
2021-10-14 16:00:11.511808,-52
2021-10-14 16:00:11.511817,-52
2021-10-14 16:00:11.511825,-67
2021-10-14 16:00:11.511834,-36
2021-10-14 16:00:11.511842,-24
2021-10-14 16:00:11.511850,-40
2021-10-14 16:00:11.511859,-26
2021-10-14 16:00:11.511867,-2
2021-10-14 16:00:11.511876,-7
2021-10-14 16:00:11.511884,-9
2021-10-14 16:00:11.511893,-16
2021-10-14 16:00:11.511901,-38
2021-10-14 16:00:11.511910,-28
2021-10-14 16:00:11.511918,2
2021-10-14 16:00:11.511926,9
2021-10-14 16:00:11.511935,0
2021-10-14 16:00:11.511943,-14
2021-10-14 16:00:11.511952,-19
2021-10-14 16:00:11.511960,-4
2021-10-14 16:00:11.511969,-2
2021-10-14 16:00:11.511977,-7
2021-10-14 16:00:11.511985,-7
2021-10-14 16:00:11.511994,-9
2021-10-14 16:00:11.736339,-12
2021-10-14 16:00:11.736362,-9
2021-10-14 16:00:11.736372,0
2021-10-14 16:00:11.736381,2
2021-10-14 16:00:11.736389,-2
2021-10-14 16:00:11.736398,2
2021-10-14 16:00:11.736406,9
2021-10-14 16:00:11.736415,0
2021-10-14 16:00:11.736423,-26
2021-10-14 16:00:11.736432,-40
2021-10-14 16:00:11.736440,-36
2021-10-14 16:00:11.736448,-12
2021-10-14 16:00:11.736457,26
2021-10-14 16:00:11.736465,38
2021-10-14 16:00:11.736474,24
2021-10-14 16:00:11.736482,14
2021-10-14 16:00:11.736490,-16
2021-10-14 16:00:11.736499,-48
2021-10-14 16:00:11.736507,-43
2021-10-14 16:00:11.736515,-33
2021-10-14 16:00:11.736524,-40
2021-10-14 16:00:11.736532,-38
2021-10-14 16:00:11.736540,-21
2021-10-14 16:00:11.736549,-12
2021-10-14 16:00:11.736557,-12
2021-10-14 16:00:11.736565,-7
2021-10-14 16:00:11.736574,19
2021-10-14 16:00:11.736582,98
2021-10-14 16:00:11.736590,315
2021-10-14 16:00:11.736599,680
2021-10-14 16:00:11.961286,735
2021-10-14 16:00:11.961309,-67
2021-10-14 16:00:11.961319,-1086
2021-10-14 16:00:11.961328,-1096
2021-10-14 16:00:11.961336,-473
2021-10-14 16:00:11.961345,-197
2021-10-14 16:00:11.961353,-108
2021-10-14 16:00:11.961362,67
2021-10-14 16:00:11.961370,120
2021-10-14 16:00:11.961379,93
2021-10-14 16:00:11.961387,120
2021-10-14 16:00:11.961395,125
2021-10-14 16:00:11.961404,113
2021-10-14 16:00:11.961412,125
2021-10-14 16:00:11.961420,129
2021-10-14 16:00:11.961429,141
2021-10-14 16:00:11.961437,158
2021-10-14 16:00:11.961445,149
2021-10-14 16:00:11.961454,144
2021-10-14 16:00:11.961462,170
2021-10-14 16:00:11.961470,175
2021-10-14 16:00:11.961479,165
2021-10-14 16:00:11.961487,185
2021-10-14 16:00:11.961495,218
2021-10-14 16:00:11.961503,233
2021-10-14 16:00:11.961512,238
2021-10-14 16:00:11.961520,247
2021-10-14 16:00:11.961528,264
2021-10-14 16:00:11.961537,262
2021-10-14 16:00:11.961545,252
2021-10-14 16:00:12.186730,250
2021-10-14 16:00:12.186753,221
2021-10-14 16:00:12.186763,161
2021-10-14 16:00:12.186771,108
2021-10-14 16:00:12.186780,93
2021-10-14 16:00:12.186788,88
2021-10-14 16:00:12.186797,45
2021-10-14 16:00:12.186805,-2
2021-10-14 16:00:12.186813,-28
2021-10-14 16:00:12.186822,-40
2021-10-14 16:00:12.186830,-36
2021-10-14 16:00:12.186839,-38
2021-10-14 16:00:12.186847,-62
2021-10-14 16:00:12.186855,-72
2021-10-14 16:00:12.186864,-62
2021-10-14 16:00:12.186872,-69
2021-10-14 16:00:12.186880,-81
2021-10-14 16:00:12.186889,-64
2021-10-14 16:00:12.186897,-38
2021-10-14 16:00:12.186905,-28
2021-10-14 16:00:12.186914,-31
2021-10-14 16:00:12.186922,-19
2021-10-14 16:00:12.186930,-2
2021-10-14 16:00:12.186939,-7
2021-10-14 16:00:12.186947,-2
2021-10-14 16:00:12.186956,26
2021-10-14 16:00:12.186964,28
2021-10-14 16:00:12.186973,9
2021-10-14 16:00:12.186981,9
2021-10-14 16:00:12.186990,14
2021-10-14 16:00:12.500411,19
2021-10-14 16:00:12.500433,31
2021-10-14 16:00:12.500443,21
2021-10-14 16:00:12.500451,12
2021-10-14 16:00:12.500460,26
2021-10-14 16:00:12.500468,31
2021-10-14 16:00:12.500477,4
2021-10-14 16:00:12.500485,-14
2021-10-14 16:00:12.500494,-4
2021-10-14 16:00:12.500502,2
2021-10-14 16:00:12.500510,-7
2021-10-14 16:00:12.500519,-14
2021-10-14 16:00:12.500527,-12
2021-10-14 16:00:12.500536,-16
2021-10-14 16:00:12.500544,-16
2021-10-14 16:00:12.500553,-4
2021-10-14 16:00:12.500561,2
2021-10-14 16:00:12.500569,0
2021-10-14 16:00:12.500578,-7
2021-10-14 16:00:12.500586,0
2021-10-14 16:00:12.500595,9
2021-10-14 16:00:12.500603,2
2021-10-14 16:00:12.500611,7
2021-10-14 16:00:12.500619,26
2021-10-14 16:00:12.500628,2
2021-10-14 16:00:12.500636,-40
2021-10-14 16:00:12.500644,-40
2021-10-14 16:00:12.500653,-14
2021-10-14 16:00:12.500661,-12
2021-10-14 16:00:12.500669,-26
2021-10-14 16:00:12.726735,-21
2021-10-14 16:00:12.726758,0
2021-10-14 16:00:12.726767,7
2021-10-14 16:00:12.726776,0
2021-10-14 16:00:12.726785,-2
2021-10-14 16:00:12.726793,24
2021-10-14 16:00:12.726802,137
2021-10-14 16:00:12.726810,461
2021-10-14 16:00:12.726819,803
2021-10-14 16:00:12.726827,509
2021-10-14 16:00:12.726835,-529
2021-10-14 16:00:12.726844,-1178
2021-10-14 16:00:12.726852,-769
2021-10-14 16:00:12.726861,-242
2021-10-14 16:00:12.726869,-141
2021-10-14 16:00:12.726878,-24
2021-10-14 16:00:12.726886,115
2021-10-14 16:00:12.726894,101
2021-10-14 16:00:12.726903,88
2021-10-14 16:00:12.726911,125
2021-10-14 16:00:12.726919,129
2021-10-14 16:00:12.726927,137
2021-10-14 16:00:12.726936,149
2021-10-14 16:00:12.726944,149
2021-10-14 16:00:12.726952,151
2021-10-14 16:00:12.726960,161
2021-10-14 16:00:12.726969,170
2021-10-14 16:00:12.726977,170
2021-10-14 16:00:12.726985,182
2021-10-14 16:00:12.726993,216
2021-10-14 16:00:12.861383,230
2021-10-14 16:00:12.861406,223
2021-10-14 16:00:12.861415,221
2021-10-14 16:00:12.861424,235
2021-10-14 16:00:12.861432,264
2021-10-14 16:00:12.861441,278
2021-10-14 16:00:12.861449,274
2021-10-14 16:00:12.861457,276
2021-10-14 16:00:12.861466,269
2021-10-14 16:00:12.861474,245
2021-10-14 16:00:12.861483,226
2021-10-14 16:00:12.861491,197
2021-10-14 16:00:12.861499,149
2021-10-14 16:00:12.861508,105
2021-10-14 16:00:12.861516,72
2021-10-14 16:00:12.861525,45
2021-10-14 16:00:12.861533,4
2021-10-14 16:00:12.861541,-26
2021-10-14 16:00:12.861550,-36
2021-10-14 16:00:12.861558,-38
2021-10-14 16:00:12.861567,-40
2021-10-14 16:00:12.861575,-64
2021-10-14 16:00:12.861583,-62
2021-10-14 16:00:12.861592,-31
2021-10-14 16:00:12.861600,-50
2021-10-14 16:00:12.861622,-76
2021-10-14 16:00:12.861631,-55
2021-10-14 16:00:12.861639,-50
2021-10-14 16:00:12.861648,-52
2021-10-14 16:00:12.861656,-31
2021-10-14 16:00:13.175685,-19
2021-10-14 16:00:13.175707,-14
2021-10-14 16:00:13.175717,-2
2021-10-14 16:00:13.175726,12
2021-10-14 16:00:13.175734,28
2021-10-14 16:00:13.175743,26
2021-10-14 16:00:13.175751,14
2021-10-14 16:00:13.175760,9
2021-10-14 16:00:13.175768,16
2021-10-14 16:00:13.175776,14
2021-10-14 16:00:13.175785,-2
2021-10-14 16:00:13.175793,-9
2021-10-14 16:00:13.175801,-12
2021-10-14 16:00:13.175810,-9
2021-10-14 16:00:13.175818,14
2021-10-14 16:00:13.175826,16
2021-10-14 16:00:13.175835,-4
2021-10-14 16:00:13.175843,-2
2021-10-14 16:00:13.175852,4
2021-10-14 16:00:13.175860,0
2021-10-14 16:00:13.175869,4
2021-10-14 16:00:13.175877,9
2021-10-14 16:00:13.175885,4
2021-10-14 16:00:13.175893,-2
2021-10-14 16:00:13.175902,2
2021-10-14 16:00:13.175910,12
2021-10-14 16:00:13.175918,0
2021-10-14 16:00:13.175926,-4
2021-10-14 16:00:13.175935,7
2021-10-14 16:00:13.175943,-2
2021-10-14 16:00:13.401758,-9
2021-10-14 16:00:13.401781,-4
2021-10-14 16:00:13.401791,-9
2021-10-14 16:00:13.401800,-12
2021-10-14 16:00:13.401808,-12
2021-10-14 16:00:13.401817,-12
2021-10-14 16:00:13.401825,12
2021-10-14 16:00:13.401834,28
2021-10-14 16:00:13.402376,-9
2021-10-14 16:00:13.402386,-50
2021-10-14 16:00:13.402394,-33
2021-10-14 16:00:13.402403,-24
2021-10-14 16:00:13.402411,-40
2021-10-14 16:00:13.402420,-38
2021-10-14 16:00:13.402428,-14
2021-10-14 16:00:13.402437,-14
2021-10-14 16:00:13.402446,-40
2021-10-14 16:00:13.402454,-50
2021-10-14 16:00:13.402463,-31
2021-10-14 16:00:13.402471,-9
2021-10-14 16:00:13.402480,76
2021-10-14 16:00:13.402488,387
2021-10-14 16:00:13.402496,779
2021-10-14 16:00:13.402505,646
2021-10-14 16:00:13.402513,-310
2021-10-14 16:00:13.402522,-1147
2021-10-14 16:00:13.402530,-904
2021-10-14 16:00:13.402538,-303
2021-10-14 16:00:13.402547,-146
2021-10-14 16:00:13.402556,-74
2021-10-14 16:00:13.536368,98
2021-10-14 16:00:13.536391,127
2021-10-14 16:00:13.536401,81
2021-10-14 16:00:13.536409,103
2021-10-14 16:00:13.536418,120
2021-10-14 16:00:13.536426,105
2021-10-14 16:00:13.536434,120
2021-10-14 16:00:13.536443,146
2021-10-14 16:00:13.536451,129
2021-10-14 16:00:13.536459,120
2021-10-14 16:00:13.536468,144
2021-10-14 16:00:13.536476,158
2021-10-14 16:00:13.536485,161
2021-10-14 16:00:13.536493,168
2021-10-14 16:00:13.536501,180
2021-10-14 16:00:13.536510,197
2021-10-14 16:00:13.536518,202
2021-10-14 16:00:13.536526,194
2021-10-14 16:00:13.536535,209
2021-10-14 16:00:13.536543,245
2021-10-14 16:00:13.536551,250
2021-10-14 16:00:13.536560,226
2021-10-14 16:00:13.536568,218
2021-10-14 16:00:13.536576,216
2021-10-14 16:00:13.536585,197
2021-10-14 16:00:13.536593,180
2021-10-14 16:00:13.536602,149
2021-10-14 16:00:13.536610,103
2021-10-14 16:00:13.536618,74
2021-10-14 16:00:13.536627,52
2021-10-14 16:00:13.806364,14
2021-10-14 16:00:13.806387,-16
2021-10-14 16:00:13.806396,-26
2021-10-14 16:00:13.806405,-43
2021-10-14 16:00:13.806413,-74
2021-10-14 16:00:13.806422,-91
2021-10-14 16:00:13.806430,-69
2021-10-14 16:00:13.806438,-45
2021-10-14 16:00:13.806447,-52
2021-10-14 16:00:13.806455,-69
2021-10-14 16:00:13.806464,-69
2021-10-14 16:00:13.806472,-55
2021-10-14 16:00:13.806480,-48
2021-10-14 16:00:13.806489,-52
2021-10-14 16:00:13.806497,-38
2021-10-14 16:00:13.806505,-19
2021-10-14 16:00:13.806514,-26
2021-10-14 16:00:13.806522,-26
2021-10-14 16:00:13.806530,-12
2021-10-14 16:00:13.806538,-7
2021-10-14 16:00:13.806547,-2
2021-10-14 16:00:13.806555,4
2021-10-14 16:00:13.806564,9
2021-10-14 16:00:13.806572,9
2021-10-14 16:00:13.806580,2
2021-10-14 16:00:13.806588,-4
2021-10-14 16:00:13.806597,-4
2021-10-14 16:00:13.806605,-9
2021-10-14 16:00:13.806613,-19
2021-10-14 16:00:13.806621,-7
2021-10-14 16:00:14.121118,0
2021-10-14 16:00:14.121142,-2
2021-10-14 16:00:14.121151,2
2021-10-14 16:00:14.121160,-4
2021-10-14 16:00:14.121168,-21
2021-10-14 16:00:14.121177,-16
2021-10-14 16:00:14.121185,-2
2021-10-14 16:00:14.121194,9
2021-10-14 16:00:14.121202,7
2021-10-14 16:00:14.121210,-4
2021-10-14 16:00:14.121219,-16
2021-10-14 16:00:14.121227,-16
2021-10-14 16:00:14.121236,-12
2021-10-14 16:00:14.121244,-2
2021-10-14 16:00:14.121252,0
2021-10-14 16:00:14.121261,-7
2021-10-14 16:00:14.121269,-2
2021-10-14 16:00:14.121277,19
2021-10-14 16:00:14.121286,14
2021-10-14 16:00:14.121294,-2
2021-10-14 16:00:14.121303,7
2021-10-14 16:00:14.121311,4
2021-10-14 16:00:14.121319,-16
2021-10-14 16:00:14.121328,-14
2021-10-14 16:00:14.121336,-16
2021-10-14 16:00:14.121344,-24
2021-10-14 16:00:14.121353,-19
2021-10-14 16:00:14.121361,-16
2021-10-14 16:00:14.121369,0
2021-10-14 16:00:14.121378,12
2021-10-14 16:00:14.256219,0
2021-10-14 16:00:14.256240,7
2021-10-14 16:00:14.256250,31
2021-10-14 16:00:14.256258,69
2021-10-14 16:00:14.256267,266
2021-10-14 16:00:14.256275,658
2021-10-14 16:00:14.256284,793
2021-10-14 16:00:14.256293,103
2021-10-14 16:00:14.256301,-945
2021-10-14 16:00:14.256309,-1123
2021-10-14 16:00:14.256318,-505
2021-10-14 16:00:14.256326,-146
2021-10-14 16:00:14.256335,-79
2021-10-14 16:00:14.256343,74
2021-10-14 16:00:14.256351,134
2021-10-14 16:00:14.256360,86
2021-10-14 16:00:14.256368,113
2021-10-14 16:00:14.256376,144
2021-10-14 16:00:14.256384,139
2021-10-14 16:00:14.256393,151
2021-10-14 16:00:14.256401,144
2021-10-14 16:00:14.256409,129
2021-10-14 16:00:14.256417,139
2021-10-14 16:00:14.256425,156
2021-10-14 16:00:14.256434,173
2021-10-14 16:00:14.256442,182
2021-10-14 16:00:14.256450,170
2021-10-14 16:00:14.256458,168
2021-10-14 16:00:14.256467,192
2021-10-14 16:00:14.256475,209
2021-10-14 16:00:14.526044,216
2021-10-14 16:00:14.526069,242
2021-10-14 16:00:14.526078,262
2021-10-14 16:00:14.526087,242
2021-10-14 16:00:14.526095,221
2021-10-14 16:00:14.526103,235
2021-10-14 16:00:14.526112,233
2021-10-14 16:00:14.526121,175
2021-10-14 16:00:14.526129,139
2021-10-14 16:00:14.526137,153
2021-10-14 16:00:14.526146,129
2021-10-14 16:00:14.526154,64
2021-10-14 16:00:14.526163,7
2021-10-14 16:00:14.526171,-45
2021-10-14 16:00:14.526179,-81
2021-10-14 16:00:14.526188,-81
2021-10-14 16:00:14.526196,-96
2021-10-14 16:00:14.526204,-96
2021-10-14 16:00:14.526213,-72
2021-10-14 16:00:14.526221,-88
2021-10-14 16:00:14.526230,-120
2021-10-14 16:00:14.526238,-103
2021-10-14 16:00:14.526246,-67
2021-10-14 16:00:14.526255,-72
2021-10-14 16:00:14.526263,-98
2021-10-14 16:00:14.526272,-98
2021-10-14 16:00:14.526280,-74
2021-10-14 16:00:14.526288,-43
2021-10-14 16:00:14.526297,-40
2021-10-14 16:00:14.526305,-55
2021-10-14 16:00:14.751793,-45
2021-10-14 16:00:14.751816,-16
2021-10-14 16:00:14.751826,-9
2021-10-14 16:00:14.751835,-16
2021-10-14 16:00:14.751843,-9
2021-10-14 16:00:14.751852,4
2021-10-14 16:00:14.751860,0
2021-10-14 16:00:14.751869,0
2021-10-14 16:00:14.751877,-12
2021-10-14 16:00:14.751885,-33
2021-10-14 16:00:14.751894,-28
2021-10-14 16:00:14.751902,-9
2021-10-14 16:00:14.751911,-9
2021-10-14 16:00:14.751919,-38
2021-10-14 16:00:14.751927,-45
2021-10-14 16:00:14.751936,-14
2021-10-14 16:00:14.751944,-9
2021-10-14 16:00:14.751952,-33
2021-10-14 16:00:14.751961,-31
2021-10-14 16:00:14.751969,-9
2021-10-14 16:00:14.751977,-19
2021-10-14 16:00:14.751985,-43
2021-10-14 16:00:14.751994,-36
2021-10-14 16:00:14.752002,-24
2021-10-14 16:00:14.752010,-14
2021-10-14 16:00:14.752019,-2
2021-10-14 16:00:14.752027,-16
2021-10-14 16:00:14.752036,-21
2021-10-14 16:00:14.752044,9
2021-10-14 16:00:14.752052,2
2021-10-14 16:00:14.976330,-31
2021-10-14 16:00:14.976352,-4
2021-10-14 16:00:14.976362,19
2021-10-14 16:00:14.976370,-19
2021-10-14 16:00:14.976379,-38
2021-10-14 16:00:14.976387,-33
2021-10-14 16:00:14.976395,-60
2021-10-14 16:00:14.976404,-62
2021-10-14 16:00:14.976412,-50
2021-10-14 16:00:14.976420,-64
2021-10-14 16:00:14.976429,-48
2021-10-14 16:00:14.976437,-26
2021-10-14 16:00:14.976445,-36
2021-10-14 16:00:14.976454,12
2021-10-14 16:00:14.976462,250
2021-10-14 16:00:14.976470,670
2021-10-14 16:00:14.976479,795
2021-10-14 16:00:14.976487,26
2021-10-14 16:00:14.976495,-1050
2021-10-14 16:00:14.976504,-1151
2021-10-14 16:00:14.976512,-507
2021-10-14 16:00:14.976520,-185
2021-10-14 16:00:14.976529,-127
2021-10-14 16:00:14.976537,24
2021-10-14 16:00:14.976545,101
2021-10-14 16:00:14.976554,72
2021-10-14 16:00:14.976562,64
2021-10-14 16:00:14.976570,81
2021-10-14 16:00:14.976579,96
2021-10-14 16:00:14.976587,103
2021-10-14 16:00:15.156756,101
2021-10-14 16:00:15.156778,93
2021-10-14 16:00:15.156788,103
2021-10-14 16:00:15.156797,129
2021-10-14 16:00:15.156805,146
2021-10-14 16:00:15.156814,149
2021-10-14 16:00:15.156822,149
2021-10-14 16:00:15.156831,156
2021-10-14 16:00:15.156839,165
2021-10-14 16:00:15.156847,165
2021-10-14 16:00:15.156856,185
2021-10-14 16:00:15.156864,228
2021-10-14 16:00:15.156873,235
2021-10-14 16:00:15.156881,221
2021-10-14 16:00:15.156890,226
2021-10-14 16:00:15.156898,223
2021-10-14 16:00:15.156907,214
2021-10-14 16:00:15.156915,202
2021-10-14 16:00:15.156923,163
2021-10-14 16:00:15.156932,117
2021-10-14 16:00:15.156940,72
2021-10-14 16:00:15.156949,40
2021-10-14 16:00:15.156957,24
2021-10-14 16:00:15.156966,0
2021-10-14 16:00:15.156974,-33
2021-10-14 16:00:15.156983,-64
2021-10-14 16:00:15.156991,-72
2021-10-14 16:00:15.156999,-74
2021-10-14 16:00:15.157008,-91
2021-10-14 16:00:15.157016,-88
2021-10-14 16:00:15.381838,-91
2021-10-14 16:00:15.381875,-108
2021-10-14 16:00:15.381884,-117
2021-10-14 16:00:15.381893,-110
2021-10-14 16:00:15.381901,-76
2021-10-14 16:00:15.381910,-67
2021-10-14 16:00:15.381918,-96
2021-10-14 16:00:15.381927,-86
2021-10-14 16:00:15.381935,-50
2021-10-14 16:00:15.381943,-36
2021-10-14 16:00:15.381952,-36
2021-10-14 16:00:15.381960,-50
2021-10-14 16:00:15.381968,-48
2021-10-14 16:00:15.381977,-50
2021-10-14 16:00:15.381985,-69
2021-10-14 16:00:15.381993,-45
2021-10-14 16:00:15.382002,-16
2021-10-14 16:00:15.382010,-48
2021-10-14 16:00:15.382019,-48
2021-10-14 16:00:15.382027,9
2021-10-14 16:00:15.382035,9
2021-10-14 16:00:15.382044,-31
2021-10-14 16:00:15.382052,-31
2021-10-14 16:00:15.382060,-26
2021-10-14 16:00:15.382069,-36
2021-10-14 16:00:15.382077,-36
2021-10-14 16:00:15.382085,-31
2021-10-14 16:00:15.382094,-14
2021-10-14 16:00:15.382102,-4
2021-10-14 16:00:15.382110,-31
2021-10-14 16:00:15.606409,-40
2021-10-14 16:00:15.606432,-9
2021-10-14 16:00:15.606442,2
2021-10-14 16:00:15.606451,-24
2021-10-14 16:00:15.606459,-43
2021-10-14 16:00:15.606468,-33
2021-10-14 16:00:15.606476,-14
2021-10-14 16:00:15.606484,-14
2021-10-14 16:00:15.606493,-14
2021-10-14 16:00:15.606501,4
2021-10-14 16:00:15.606510,14
2021-10-14 16:00:15.606518,-9
2021-10-14 16:00:15.606526,-26
2021-10-14 16:00:15.606534,-28
2021-10-14 16:00:15.606543,-24
2021-10-14 16:00:15.606551,-26
2021-10-14 16:00:15.606559,-50
2021-10-14 16:00:15.606568,-67
2021-10-14 16:00:15.606576,-48
2021-10-14 16:00:15.606584,-26
2021-10-14 16:00:15.606593,-40
2021-10-14 16:00:15.606601,-52
2021-10-14 16:00:15.606610,-31
2021-10-14 16:00:15.606618,40
2021-10-14 16:00:15.606627,257
2021-10-14 16:00:15.606635,668
2021-10-14 16:00:15.606644,824
2021-10-14 16:00:15.606652,91
2021-10-14 16:00:15.606660,-1029
2021-10-14 16:00:15.606669,-1207
2021-10-14 16:00:15.875783,-512
2021-10-14 16:00:15.875807,-117
2021-10-14 16:00:15.875816,-91
2021-10-14 16:00:15.875825,28
2021-10-14 16:00:15.875833,81
2021-10-14 16:00:15.875842,43
2021-10-14 16:00:15.875850,91
2021-10-14 16:00:15.875858,120
2021-10-14 16:00:15.875867,74
2021-10-14 16:00:15.875875,74
2021-10-14 16:00:15.875883,103
2021-10-14 16:00:15.875892,93
2021-10-14 16:00:15.875900,96
2021-10-14 16:00:15.875908,134
2021-10-14 16:00:15.875916,139
2021-10-14 16:00:15.875924,125
2021-10-14 16:00:15.875933,139
2021-10-14 16:00:15.875941,168
2021-10-14 16:00:15.875949,161
2021-10-14 16:00:15.875957,146
2021-10-14 16:00:15.875966,182
2021-10-14 16:00:15.875974,206
2021-10-14 16:00:15.875983,192
2021-10-14 16:00:15.875991,221
2021-10-14 16:00:15.875999,254
2021-10-14 16:00:15.876008,221
2021-10-14 16:00:15.876016,173
2021-10-14 16:00:15.876024,163
2021-10-14 16:00:15.876033,165
2021-10-14 16:00:15.876041,141
2021-10-14 16:00:16.101382,108
2021-10-14 16:00:16.101405,74
2021-10-14 16:00:16.101414,24
2021-10-14 16:00:16.101423,-16
2021-10-14 16:00:16.101432,-31
2021-10-14 16:00:16.101440,-40
2021-10-14 16:00:16.101448,-55
2021-10-14 16:00:16.101457,-81
2021-10-14 16:00:16.101465,-93
2021-10-14 16:00:16.101474,-84
2021-10-14 16:00:16.101482,-76
2021-10-14 16:00:16.101491,-62
2021-10-14 16:00:16.101499,-36
2021-10-14 16:00:16.101507,-40
2021-10-14 16:00:16.101516,-67
2021-10-14 16:00:16.101524,-67
2021-10-14 16:00:16.101533,-50
2021-10-14 16:00:16.101541,-40
2021-10-14 16:00:16.101549,-21
2021-10-14 16:00:16.101558,-7
2021-10-14 16:00:16.101566,7
2021-10-14 16:00:16.101574,31
2021-10-14 16:00:16.101582,31
2021-10-14 16:00:16.101591,19
2021-10-14 16:00:16.101599,43
2021-10-14 16:00:16.101607,62
2021-10-14 16:00:16.101616,40
2021-10-14 16:00:16.101624,31
2021-10-14 16:00:16.101632,48
2021-10-14 16:00:16.101641,48
2021-10-14 16:00:16.371811,57
2021-10-14 16:00:16.371834,84
2021-10-14 16:00:16.371843,79
2021-10-14 16:00:16.371852,52
2021-10-14 16:00:16.371861,52
2021-10-14 16:00:16.371870,64
2021-10-14 16:00:16.371878,50
2021-10-14 16:00:16.371886,38
2021-10-14 16:00:16.371895,50
2021-10-14 16:00:16.371903,52
2021-10-14 16:00:16.371911,60
2021-10-14 16:00:16.371920,81
2021-10-14 16:00:16.371928,72
2021-10-14 16:00:16.371936,50
2021-10-14 16:00:16.371944,55
2021-10-14 16:00:16.371953,67
2021-10-14 16:00:16.371961,60
2021-10-14 16:00:16.371970,50
2021-10-14 16:00:16.371978,69
2021-10-14 16:00:16.371986,93
2021-10-14 16:00:16.371994,88
2021-10-14 16:00:16.372003,91
2021-10-14 16:00:16.372011,88
2021-10-14 16:00:16.372019,57
2021-10-14 16:00:16.372028,38
2021-10-14 16:00:16.372036,21
2021-10-14 16:00:16.372045,16
2021-10-14 16:00:16.372053,31
2021-10-14 16:00:16.372061,21
2021-10-14 16:00:16.372070,-4
2021-10-14 16:00:16.595443,-4
2021-10-14 16:00:16.595466,9
2021-10-14 16:00:16.595475,16
2021-10-14 16:00:16.595484,36
2021-10-14 16:00:16.595492,170
2021-10-14 16:00:16.595501,533
2021-10-14 16:00:16.595509,853
2021-10-14 16:00:16.595517,507
2021-10-14 16:00:16.595526,-538
2021-10-14 16:00:16.595534,-1183
2021-10-14 16:00:16.595543,-745
2021-10-14 16:00:16.595551,-168
2021-10-14 16:00:16.595559,-64
2021-10-14 16:00:16.595567,-2
2021-10-14 16:00:16.595575,110
2021-10-14 16:00:16.595584,110
2021-10-14 16:00:16.595592,105
2021-10-14 16:00:16.595601,134
2021-10-14 16:00:16.595609,129
2021-10-14 16:00:16.595617,96
2021-10-14 16:00:16.595626,88
2021-10-14 16:00:16.595634,91
2021-10-14 16:00:16.595642,76
2021-10-14 16:00:16.595651,79
2021-10-14 16:00:16.595659,120
2021-10-14 16:00:16.595667,149
2021-10-14 16:00:16.595675,144
2021-10-14 16:00:16.595684,146
2021-10-14 16:00:16.595692,163
2021-10-14 16:00:16.595700,185
2021-10-14 16:00:16.821423,202
2021-10-14 16:00:16.821446,204
2021-10-14 16:00:16.821455,197
2021-10-14 16:00:16.821464,192
2021-10-14 16:00:16.821473,197
2021-10-14 16:00:16.821481,211
2021-10-14 16:00:16.821490,182
2021-10-14 16:00:16.821498,139
2021-10-14 16:00:16.821506,146
2021-10-14 16:00:16.821514,125
2021-10-14 16:00:16.821523,50
2021-10-14 16:00:16.821531,4
2021-10-14 16:00:16.821539,-4
2021-10-14 16:00:16.821548,-33
2021-10-14 16:00:16.821556,-79
2021-10-14 16:00:16.821564,-103
2021-10-14 16:00:16.821572,-108
2021-10-14 16:00:16.821581,-122
2021-10-14 16:00:16.821589,-129
2021-10-14 16:00:16.821598,-122
2021-10-14 16:00:16.821606,-134
2021-10-14 16:00:16.821614,-141
2021-10-14 16:00:16.821622,-134
2021-10-14 16:00:16.821631,-132
2021-10-14 16:00:16.821639,-120
2021-10-14 16:00:16.821647,-105
2021-10-14 16:00:16.821656,-115
2021-10-14 16:00:16.821677,-125
2021-10-14 16:00:16.821686,-91
2021-10-14 16:00:16.821694,-57
2021-10-14 16:00:17.001781,-74
2021-10-14 16:00:17.001803,-101
2021-10-14 16:00:17.001813,-81
2021-10-14 16:00:17.001821,-50
2021-10-14 16:00:17.001830,-62
2021-10-14 16:00:17.001838,-88
2021-10-14 16:00:17.001846,-93
2021-10-14 16:00:17.001855,-74
2021-10-14 16:00:17.001863,-67
2021-10-14 16:00:17.001871,-81
2021-10-14 16:00:17.001879,-76
2021-10-14 16:00:17.001888,-64
2021-10-14 16:00:17.001896,-69
2021-10-14 16:00:17.001904,-74
2021-10-14 16:00:17.001913,-67
2021-10-14 16:00:17.001921,-76
2021-10-14 16:00:17.001930,-91
2021-10-14 16:00:17.001938,-88
2021-10-14 16:00:17.001946,-98
2021-10-14 16:00:17.001954,-105
2021-10-14 16:00:17.001963,-88
2021-10-14 16:00:17.001971,-62
2021-10-14 16:00:17.001979,-48
2021-10-14 16:00:17.001988,-64
2021-10-14 16:00:17.001996,-74
2021-10-14 16:00:17.002004,-69
2021-10-14 16:00:17.002012,-81
2021-10-14 16:00:17.002021,-76
2021-10-14 16:00:17.002029,-64
2021-10-14 16:00:17.002038,-76
2021-10-14 16:00:17.316798,-69
2021-10-14 16:00:17.316819,-50
2021-10-14 16:00:17.316828,-45
2021-10-14 16:00:17.316837,-38
2021-10-14 16:00:17.316846,-48
2021-10-14 16:00:17.316854,-60
2021-10-14 16:00:17.316863,-43
2021-10-14 16:00:17.316871,-43
2021-10-14 16:00:17.316880,-76
2021-10-14 16:00:17.316888,-96
2021-10-14 16:00:17.316897,-103
2021-10-14 16:00:17.316905,-122
2021-10-14 16:00:17.316913,-122
2021-10-14 16:00:17.316922,-88
2021-10-14 16:00:17.316931,-91
2021-10-14 16:00:17.316939,-139
2021-10-14 16:00:17.316947,-129
2021-10-14 16:00:17.316956,-86
2021-10-14 16:00:17.316964,-69
2021-10-14 16:00:17.316973,19
2021-10-14 16:00:17.316981,293
2021-10-14 16:00:17.316990,620
2021-10-14 16:00:17.316998,476
2021-10-14 16:00:17.317006,-408
2021-10-14 16:00:17.317015,-1135
2021-10-14 16:00:17.317023,-880
2021-10-14 16:00:17.317032,-360
2021-10-14 16:00:17.317040,-209
2021-10-14 16:00:17.317049,-110
2021-10-14 16:00:17.317057,9
2021-10-14 16:00:17.496432,14
2021-10-14 16:00:17.496456,9
2021-10-14 16:00:17.496465,45
2021-10-14 16:00:17.496474,48
2021-10-14 16:00:17.496482,38
2021-10-14 16:00:17.496491,43
2021-10-14 16:00:17.496499,36
2021-10-14 16:00:17.496507,40
2021-10-14 16:00:17.496516,84
2021-10-14 16:00:17.496524,96
2021-10-14 16:00:17.496532,55
2021-10-14 16:00:17.496540,48
2021-10-14 16:00:17.496549,84
2021-10-14 16:00:17.496557,96
2021-10-14 16:00:17.496565,84
2021-10-14 16:00:17.496574,88
2021-10-14 16:00:17.496582,125
2021-10-14 16:00:17.496590,163
2021-10-14 16:00:17.496599,156
2021-10-14 16:00:17.496607,146
2021-10-14 16:00:17.496615,156
2021-10-14 16:00:17.496624,144
2021-10-14 16:00:17.496632,117
2021-10-14 16:00:17.496640,91
2021-10-14 16:00:17.496648,64
2021-10-14 16:00:17.496657,40
2021-10-14 16:00:17.496665,7
2021-10-14 16:00:17.496673,-14
2021-10-14 16:00:17.496682,-26
2021-10-14 16:00:17.496690,-64
2021-10-14 16:00:17.676440,-113
2021-10-14 16:00:17.676463,-122
2021-10-14 16:00:17.676472,-110
2021-10-14 16:00:17.676481,-129
2021-10-14 16:00:17.676490,-153
2021-10-14 16:00:17.676498,-134
2021-10-14 16:00:17.676506,-129
2021-10-14 16:00:17.676515,-149
2021-10-14 16:00:17.676523,-127
2021-10-14 16:00:17.676531,-96
2021-10-14 16:00:17.676539,-113
2021-10-14 16:00:17.676548,-134
2021-10-14 16:00:17.676556,-113
2021-10-14 16:00:17.676564,-88
2021-10-14 16:00:17.676572,-103
2021-10-14 16:00:17.676581,-110
2021-10-14 16:00:17.676589,-84
2021-10-14 16:00:17.676597,-76
2021-10-14 16:00:17.676606,-91
2021-10-14 16:00:17.676614,-86
2021-10-14 16:00:17.676622,-60
2021-10-14 16:00:17.676631,-52
2021-10-14 16:00:17.676639,-69
2021-10-14 16:00:17.676647,-79
2021-10-14 16:00:17.676656,-72
2021-10-14 16:00:17.676664,-76
2021-10-14 16:00:17.676672,-93
2021-10-14 16:00:17.676680,-91
2021-10-14 16:00:17.676689,-60
2021-10-14 16:00:17.676697,-43
2021-10-14 16:00:17.990799,-57
2021-10-14 16:00:17.990822,-60
2021-10-14 16:00:17.990832,-57
2021-10-14 16:00:17.990840,-74
2021-10-14 16:00:17.990849,-81
2021-10-14 16:00:17.990857,-62
2021-10-14 16:00:17.990866,-60
2021-10-14 16:00:17.990874,-76
2021-10-14 16:00:17.990882,-81
2021-10-14 16:00:17.990891,-60
2021-10-14 16:00:17.990899,-50
2021-10-14 16:00:17.990908,-62
2021-10-14 16:00:17.990916,-43
2021-10-14 16:00:17.990924,-24
2021-10-14 16:00:17.990933,-43
2021-10-14 16:00:17.990941,-69
2021-10-14 16:00:17.990950,-96
2021-10-14 16:00:17.990958,-103
2021-10-14 16:00:17.990966,-93
2021-10-14 16:00:17.990975,-79
2021-10-14 16:00:17.990983,-67
2021-10-14 16:00:17.990991,-81
2021-10-14 16:00:17.991000,-96
2021-10-14 16:00:17.991008,-74
2021-10-14 16:00:17.991017,-62
2021-10-14 16:00:17.991025,-81
2021-10-14 16:00:17.991033,-84
2021-10-14 16:00:17.991042,-16
2021-10-14 16:00:17.991050,221
2021-10-14 16:00:17.991058,622
2021-10-14 16:00:18.216208,651
2021-10-14 16:00:18.216231,-211
2021-10-14 16:00:18.216240,-1149
2021-10-14 16:00:18.216249,-1041
2021-10-14 16:00:18.216257,-447
2021-10-14 16:00:18.216265,-226
2021-10-14 16:00:18.216274,-125
2021-10-14 16:00:18.216282,36
2021-10-14 16:00:18.216290,55
2021-10-14 16:00:18.216299,16
2021-10-14 16:00:18.216316,38
2021-10-14 16:00:18.216326,45
2021-10-14 16:00:18.216335,45
2021-10-14 16:00:18.216343,79
2021-10-14 16:00:18.216352,86
2021-10-14 16:00:18.216360,60
2021-10-14 16:00:18.216369,81
2021-10-14 16:00:18.216377,127
2021-10-14 16:00:18.216385,117
2021-10-14 16:00:18.216394,96
2021-10-14 16:00:18.216402,108
2021-10-14 16:00:18.216410,120
2021-10-14 16:00:18.216419,132
2021-10-14 16:00:18.216427,153
2021-10-14 16:00:18.216435,175
2021-10-14 16:00:18.216444,206
2021-10-14 16:00:18.216452,218
2021-10-14 16:00:18.216461,199
2021-10-14 16:00:18.216469,189
2021-10-14 16:00:18.216477,197
2021-10-14 16:00:18.441119,175
2021-10-14 16:00:18.441139,149
2021-10-14 16:00:18.441149,134
2021-10-14 16:00:18.441158,96
2021-10-14 16:00:18.441166,84
2021-10-14 16:00:18.441175,72
2021-10-14 16:00:18.441183,-2
2021-10-14 16:00:18.441192,-48
2021-10-14 16:00:18.441200,-38
2021-10-14 16:00:18.441209,-57
2021-10-14 16:00:18.441217,-93
2021-10-14 16:00:18.441225,-96
2021-10-14 16:00:18.441234,-93
2021-10-14 16:00:18.441242,-101
2021-10-14 16:00:18.441251,-98
2021-10-14 16:00:18.441259,-96
2021-10-14 16:00:18.441268,-110
2021-10-14 16:00:18.441276,-105
2021-10-14 16:00:18.441285,-84
2021-10-14 16:00:18.441293,-79
2021-10-14 16:00:18.441301,-84
2021-10-14 16:00:18.441309,-74
2021-10-14 16:00:18.441318,-62
2021-10-14 16:00:18.441326,-69
2021-10-14 16:00:18.441334,-79
2021-10-14 16:00:18.441343,-52
2021-10-14 16:00:18.441351,-14
2021-10-14 16:00:18.441359,-14
2021-10-14 16:00:18.441368,-28
2021-10-14 16:00:18.441376,-31
2021-10-14 16:00:18.665106,-31
2021-10-14 16:00:18.665129,-38
2021-10-14 16:00:18.665138,-36
2021-10-14 16:00:18.665147,-38
2021-10-14 16:00:18.665155,-40
2021-10-14 16:00:18.665164,-31
2021-10-14 16:00:18.665172,-7
2021-10-14 16:00:18.665181,7
2021-10-14 16:00:18.665189,-28
2021-10-14 16:00:18.665198,-52
2021-10-14 16:00:18.665206,-26
2021-10-14 16:00:18.665214,-4
2021-10-14 16:00:18.665222,-24
2021-10-14 16:00:18.665231,-55
2021-10-14 16:00:18.665239,-45
2021-10-14 16:00:18.665247,-14
2021-10-14 16:00:18.665256,-14
2021-10-14 16:00:18.665264,-19
2021-10-14 16:00:18.665272,-4
2021-10-14 16:00:18.665280,-2
2021-10-14 16:00:18.665289,-2
2021-10-14 16:00:18.665297,12
2021-10-14 16:00:18.665305,21
2021-10-14 16:00:18.665313,21
2021-10-14 16:00:18.665322,-4
2021-10-14 16:00:18.665330,-45
2021-10-14 16:00:18.665339,-45
2021-10-14 16:00:18.665347,-19
2021-10-14 16:00:18.665355,-12
2021-10-14 16:00:18.665363,-28
2021-10-14 16:00:18.890829,-43
2021-10-14 16:00:18.890852,-26
2021-10-14 16:00:18.890862,-21
2021-10-14 16:00:18.890871,-33
2021-10-14 16:00:18.890879,-36
2021-10-14 16:00:18.890888,-21
2021-10-14 16:00:18.890896,93
2021-10-14 16:00:18.890904,416
2021-10-14 16:00:18.890913,750
2021-10-14 16:00:18.890921,536
2021-10-14 16:00:18.890929,-423
2021-10-14 16:00:18.890938,-1154
2021-10-14 16:00:18.890946,-832
2021-10-14 16:00:18.890954,-259
2021-10-14 16:00:18.890962,-149
2021-10-14 16:00:18.890971,-91
2021-10-14 16:00:18.890979,55
2021-10-14 16:00:18.890987,64
2021-10-14 16:00:18.890996,38
2021-10-14 16:00:18.891004,79
2021-10-14 16:00:18.891012,101
2021-10-14 16:00:18.891021,91
2021-10-14 16:00:18.891029,86
2021-10-14 16:00:18.891037,91
2021-10-14 16:00:18.891045,103
2021-10-14 16:00:18.891054,108
2021-10-14 16:00:18.891062,91
2021-10-14 16:00:18.891070,86
2021-10-14 16:00:18.891079,110
2021-10-14 16:00:18.891087,134
2021-10-14 16:00:19.071802,139
2021-10-14 16:00:19.071825,149
2021-10-14 16:00:19.071835,161
2021-10-14 16:00:19.071843,168
2021-10-14 16:00:19.071852,206
2021-10-14 16:00:19.071860,223
2021-10-14 16:00:19.071868,192
2021-10-14 16:00:19.071877,197
2021-10-14 16:00:19.071885,206
2021-10-14 16:00:19.071893,170
2021-10-14 16:00:19.071902,141
2021-10-14 16:00:19.071910,127
2021-10-14 16:00:19.071918,91
2021-10-14 16:00:19.071926,60
2021-10-14 16:00:19.071935,36
2021-10-14 16:00:19.071943,-2
2021-10-14 16:00:19.071952,-31
2021-10-14 16:00:19.071960,-43
2021-10-14 16:00:19.071968,-60
2021-10-14 16:00:19.071977,-52
2021-10-14 16:00:19.071985,-36
2021-10-14 16:00:19.071993,-45
2021-10-14 16:00:19.072001,-72
2021-10-14 16:00:19.072010,-74
2021-10-14 16:00:19.072023,-57
2021-10-14 16:00:19.072032,-38
2021-10-14 16:00:19.072040,-28
2021-10-14 16:00:19.072049,-26
2021-10-14 16:00:19.072057,-26
2021-10-14 16:00:19.072065,-14
2021-10-14 16:00:19.296316,0
2021-10-14 16:00:19.296338,2
2021-10-14 16:00:19.296347,7
2021-10-14 16:00:19.296356,36
2021-10-14 16:00:19.296365,50
2021-10-14 16:00:19.296373,43
2021-10-14 16:00:19.296382,50
2021-10-14 16:00:19.296390,72
2021-10-14 16:00:19.296398,72
2021-10-14 16:00:19.296407,62
2021-10-14 16:00:19.296415,64
2021-10-14 16:00:19.296424,76
2021-10-14 16:00:19.296432,79
2021-10-14 16:00:19.296440,74
2021-10-14 16:00:19.296449,84
2021-10-14 16:00:19.296458,93
2021-10-14 16:00:19.296466,101
2021-10-14 16:00:19.296475,122
2021-10-14 16:00:19.296483,129
2021-10-14 16:00:19.296492,127
2021-10-14 16:00:19.296500,139
2021-10-14 16:00:19.296509,151
2021-10-14 16:00:19.296517,144
2021-10-14 16:00:19.296526,139
2021-10-14 16:00:19.296534,161
2021-10-14 16:00:19.296543,173
2021-10-14 16:00:19.296551,163
2021-10-14 16:00:19.296559,173
2021-10-14 16:00:19.296568,185
2021-10-14 16:00:19.296576,192
2021-10-14 16:00:19.521467,206
2021-10-14 16:00:19.521491,211
2021-10-14 16:00:19.521500,216
2021-10-14 16:00:19.521509,226
2021-10-14 16:00:19.521517,218
2021-10-14 16:00:19.521526,223
2021-10-14 16:00:19.521534,245
2021-10-14 16:00:19.521542,259
2021-10-14 16:00:19.521551,250
2021-10-14 16:00:19.521559,197
2021-10-14 16:00:19.521568,182
2021-10-14 16:00:19.521576,226
2021-10-14 16:00:19.521585,228
2021-10-14 16:00:19.521593,197
2021-10-14 16:00:19.521602,177
2021-10-14 16:00:19.521610,165
2021-10-14 16:00:19.521618,170
2021-10-14 16:00:19.521627,192
2021-10-14 16:00:19.521635,185
2021-10-14 16:00:19.521643,177
2021-10-14 16:00:19.521652,242
2021-10-14 16:00:19.521660,483
2021-10-14 16:00:19.521669,848
2021-10-14 16:00:19.521677,863
2021-10-14 16:00:19.521685,74
2021-10-14 16:00:19.521694,-853
2021-10-14 16:00:19.521702,-832
2021-10-14 16:00:19.521710,-250
2021-10-14 16:00:19.521719,-7
2021-10-14 16:00:19.521727,64
2021-10-14 16:00:19.791417,204
2021-10-14 16:00:19.791440,204
2021-10-14 16:00:19.791448,141
2021-10-14 16:00:19.791456,170
2021-10-14 16:00:19.791464,180
2021-10-14 16:00:19.791471,141
2021-10-14 16:00:19.791479,137
2021-10-14 16:00:19.791487,146
2021-10-14 16:00:19.791495,139
2021-10-14 16:00:19.791504,113
2021-10-14 16:00:19.791512,91
2021-10-14 16:00:19.791520,98
2021-10-14 16:00:19.791528,108
2021-10-14 16:00:19.791536,110
2021-10-14 16:00:19.791545,122
2021-10-14 16:00:19.791553,120
2021-10-14 16:00:19.791561,113
2021-10-14 16:00:19.791570,127
2021-10-14 16:00:19.791578,137
2021-10-14 16:00:19.791586,132
2021-10-14 16:00:19.791594,125
2021-10-14 16:00:19.791603,108
2021-10-14 16:00:19.791611,96
2021-10-14 16:00:19.791619,76
2021-10-14 16:00:19.791628,43
2021-10-14 16:00:19.791636,14
2021-10-14 16:00:19.791644,-7
2021-10-14 16:00:19.791652,-45
2021-10-14 16:00:19.791661,-91
2021-10-14 16:00:19.791669,-125
2021-10-14 16:00:20.016432,-149
2021-10-14 16:00:20.016454,-173
2021-10-14 16:00:20.016463,-211
2021-10-14 16:00:20.016472,-250
2021-10-14 16:00:20.016480,-259
2021-10-14 16:00:20.016489,-252
2021-10-14 16:00:20.016497,-262
2021-10-14 16:00:20.016506,-286
2021-10-14 16:00:20.016514,-305
2021-10-14 16:00:20.016522,-310
2021-10-14 16:00:20.016531,-305
2021-10-14 16:00:20.016539,-298
2021-10-14 16:00:20.016547,-288
2021-10-14 16:00:20.016556,-295
2021-10-14 16:00:20.016564,-319
2021-10-14 16:00:20.016572,-307
2021-10-14 16:00:20.016581,-269
2021-10-14 16:00:20.016589,-269
2021-10-14 16:00:20.016597,-274
2021-10-14 16:00:20.016605,-262
2021-10-14 16:00:20.016614,-259
2021-10-14 16:00:20.016622,-266
2021-10-14 16:00:20.016630,-259
2021-10-14 16:00:20.016645,-247
2021-10-14 16:00:20.016654,-252
2021-10-14 16:00:20.016663,-281
2021-10-14 16:00:20.016671,-303
2021-10-14 16:00:20.016679,-293
2021-10-14 16:00:20.016688,-269
2021-10-14 16:00:20.016696,-252
2021-10-14 16:00:20.286726,-250
2021-10-14 16:00:20.286749,-259
2021-10-14 16:00:20.286759,-271
2021-10-14 16:00:20.286768,-266
2021-10-14 16:00:20.286776,-264
2021-10-14 16:00:20.286785,-269
2021-10-14 16:00:20.286793,-271
2021-10-14 16:00:20.286801,-271
2021-10-14 16:00:20.286810,-278
2021-10-14 16:00:20.286818,-283
2021-10-14 16:00:20.286826,-278
2021-10-14 16:00:20.286835,-276
2021-10-14 16:00:20.286843,-281
2021-10-14 16:00:20.286851,-283
2021-10-14 16:00:20.286860,-276
2021-10-14 16:00:20.286868,-274
2021-10-14 16:00:20.286876,-264
2021-10-14 16:00:20.286885,-242
2021-10-14 16:00:20.286893,-233
2021-10-14 16:00:20.286901,-235
2021-10-14 16:00:20.286910,-252
2021-10-14 16:00:20.286918,-269
2021-10-14 16:00:20.286926,-269
2021-10-14 16:00:20.286934,-274
2021-10-14 16:00:20.286943,-293
2021-10-14 16:00:20.286951,-288
2021-10-14 16:00:20.286959,-271
2021-10-14 16:00:20.286968,-276
2021-10-14 16:00:20.286976,-278
2021-10-14 16:00:20.286984,-254
2021-10-14 16:00:20.511839,-242
2021-10-14 16:00:20.511862,-247
2021-10-14 16:00:20.511872,-228
2021-10-14 16:00:20.511880,-146
2021-10-14 16:00:20.511889,101
2021-10-14 16:00:20.511897,466
2021-10-14 16:00:20.511905,430
2021-10-14 16:00:20.511914,-423
2021-10-14 16:00:20.511922,-1284
2021-10-14 16:00:20.511930,-1130
2021-10-14 16:00:20.511939,-560
2021-10-14 16:00:20.511947,-379
2021-10-14 16:00:20.511955,-298
2021-10-14 16:00:20.511963,-146
2021-10-14 16:00:20.511972,-129
2021-10-14 16:00:20.511980,-161
2021-10-14 16:00:20.511988,-125
2021-10-14 16:00:20.511996,-91
2021-10-14 16:00:20.512004,-105
2021-10-14 16:00:20.512012,-110
2021-10-14 16:00:20.512021,-91
2021-10-14 16:00:20.512029,-84
2021-10-14 16:00:20.512037,-79
2021-10-14 16:00:20.512045,-40
2021-10-14 16:00:20.512054,-21
2021-10-14 16:00:20.512062,-36
2021-10-14 16:00:20.512070,-28
2021-10-14 16:00:20.512078,0
2021-10-14 16:00:20.512087,16
2021-10-14 16:00:20.512095,31
2021-10-14 16:00:20.735117,38
2021-10-14 16:00:20.735139,40
2021-10-14 16:00:20.735149,55
2021-10-14 16:00:20.735157,79
2021-10-14 16:00:20.735166,88
2021-10-14 16:00:20.735174,86
2021-10-14 16:00:20.735183,64
2021-10-14 16:00:20.735191,36
2021-10-14 16:00:20.735199,16
2021-10-14 16:00:20.735208,-14
2021-10-14 16:00:20.735216,-36
2021-10-14 16:00:20.735224,-52
2021-10-14 16:00:20.735233,-93
2021-10-14 16:00:20.735241,-139
2021-10-14 16:00:20.735250,-161
2021-10-14 16:00:20.735258,-173
2021-10-14 16:00:20.735266,-197
2021-10-14 16:00:20.735274,-233
2021-10-14 16:00:20.735283,-242
2021-10-14 16:00:20.735291,-216
2021-10-14 16:00:20.735299,-209
2021-10-14 16:00:20.735308,-214
2021-10-14 16:00:20.735316,-194
2021-10-14 16:00:20.735324,-185
2021-10-14 16:00:20.735332,-182
2021-10-14 16:00:20.735341,-168
2021-10-14 16:00:20.735349,-161
2021-10-14 16:00:20.735357,-163
2021-10-14 16:00:20.735366,-163
2021-10-14 16:00:20.735386,-151
2021-10-14 16:00:20.916847,-132
2021-10-14 16:00:20.916871,-117
2021-10-14 16:00:20.916880,-122
2021-10-14 16:00:20.916889,-125
2021-10-14 16:00:20.916897,-108
2021-10-14 16:00:20.916906,-105
2021-10-14 16:00:20.916914,-115
2021-10-14 16:00:20.916922,-101
2021-10-14 16:00:20.916931,-88
2021-10-14 16:00:20.916939,-96
2021-10-14 16:00:20.916947,-88
2021-10-14 16:00:20.916955,-76
2021-10-14 16:00:20.916964,-93
2021-10-14 16:00:20.916972,-113
2021-10-14 16:00:20.916980,-105
2021-10-14 16:00:20.916988,-93
2021-10-14 16:00:20.916997,-101
2021-10-14 16:00:20.917005,-117
2021-10-14 16:00:20.917013,-125
2021-10-14 16:00:20.917021,-117
2021-10-14 16:00:20.917030,-115
2021-10-14 16:00:20.917038,-115
2021-10-14 16:00:20.917046,-96
2021-10-14 16:00:20.917054,-76
2021-10-14 16:00:20.917063,-72
2021-10-14 16:00:20.917071,-60
2021-10-14 16:00:20.917079,-64
2021-10-14 16:00:20.917088,-86
2021-10-14 16:00:20.917096,-96
2021-10-14 16:00:20.917105,-101
2021-10-14 16:00:21.141842,-101
2021-10-14 16:00:21.141863,-86
2021-10-14 16:00:21.141873,-79
2021-10-14 16:00:21.141882,-96
2021-10-14 16:00:21.141897,-117
2021-10-14 16:00:21.141905,-113
2021-10-14 16:00:21.141914,-81
2021-10-14 16:00:21.141922,-52
2021-10-14 16:00:21.141930,-40
2021-10-14 16:00:21.141939,33
2021-10-14 16:00:21.141947,327
2021-10-14 16:00:21.141955,690
2021-10-14 16:00:21.141963,526
2021-10-14 16:00:21.141972,-406
2021-10-14 16:00:21.141980,-1147
2021-10-14 16:00:21.141988,-839
2021-10-14 16:00:21.141997,-274
2021-10-14 16:00:21.142005,-158
2021-10-14 16:00:21.142013,-86
2021-10-14 16:00:21.142021,48
2021-10-14 16:00:21.142030,33
2021-10-14 16:00:21.142038,7
2021-10-14 16:00:21.142046,52
2021-10-14 16:00:21.142055,64
2021-10-14 16:00:21.142063,48
2021-10-14 16:00:21.142072,55
2021-10-14 16:00:21.142080,69
2021-10-14 16:00:21.142088,79
2021-10-14 16:00:21.142096,81
2021-10-14 16:00:21.142104,79
2021-10-14 16:00:21.366585,86
2021-10-14 16:00:21.366609,98
2021-10-14 16:00:21.366619,108
2021-10-14 16:00:21.366628,125
2021-10-14 16:00:21.366636,139
2021-10-14 16:00:21.366645,139
2021-10-14 16:00:21.366653,151
2021-10-14 16:00:21.366662,175
2021-10-14 16:00:21.366670,173
2021-10-14 16:00:21.366679,149
2021-10-14 16:00:21.366687,139
2021-10-14 16:00:21.366695,137
2021-10-14 16:00:21.366704,127
2021-10-14 16:00:21.366712,117
2021-10-14 16:00:21.366720,96
2021-10-14 16:00:21.366729,60
2021-10-14 16:00:21.366737,21
2021-10-14 16:00:21.366746,-9
2021-10-14 16:00:21.366754,-33
2021-10-14 16:00:21.366763,-64
2021-10-14 16:00:21.366771,-96
2021-10-14 16:00:21.366780,-127
2021-10-14 16:00:21.366789,-151
2021-10-14 16:00:21.366797,-146
2021-10-14 16:00:21.366806,-129
2021-10-14 16:00:21.366814,-125
2021-10-14 16:00:21.366823,-125
2021-10-14 16:00:21.366831,-139
2021-10-14 16:00:21.366839,-139
2021-10-14 16:00:21.366848,-110
2021-10-14 16:00:21.636873,-101
2021-10-14 16:00:21.636897,-110
2021-10-14 16:00:21.636906,-91
2021-10-14 16:00:21.636915,-84
2021-10-14 16:00:21.636923,-96
2021-10-14 16:00:21.636932,-86
2021-10-14 16:00:21.636940,-62
2021-10-14 16:00:21.636948,-62
2021-10-14 16:00:21.636956,-69
2021-10-14 16:00:21.636965,-64
2021-10-14 16:00:21.636973,-57
2021-10-14 16:00:21.636982,-48
2021-10-14 16:00:21.636990,-45
2021-10-14 16:00:21.636998,-43
2021-10-14 16:00:21.637006,-40
2021-10-14 16:00:21.637014,-55
2021-10-14 16:00:21.637023,-72
2021-10-14 16:00:21.637031,-60
2021-10-14 16:00:21.637039,-40
2021-10-14 16:00:21.637048,-40
2021-10-14 16:00:21.637056,-43
2021-10-14 16:00:21.637064,-43
2021-10-14 16:00:21.637072,-48
2021-10-14 16:00:21.637081,-50
2021-10-14 16:00:21.637089,-45
2021-10-14 16:00:21.637097,-38
2021-10-14 16:00:21.637106,-38
2021-10-14 16:00:21.637114,-36
2021-10-14 16:00:21.637122,-28
2021-10-14 16:00:21.637130,-31
2021-10-14 16:00:21.905869,-31
2021-10-14 16:00:21.905893,-24
2021-10-14 16:00:21.905902,-14
2021-10-14 16:00:21.905911,-2
2021-10-14 16:00:21.905919,14
2021-10-14 16:00:21.905927,9
2021-10-14 16:00:21.905936,-12
2021-10-14 16:00:21.905944,-26
2021-10-14 16:00:21.905952,-33
2021-10-14 16:00:21.905961,-33
2021-10-14 16:00:21.905969,-38
2021-10-14 16:00:21.905977,-45
2021-10-14 16:00:21.905986,-36
2021-10-14 16:00:21.905994,-28
2021-10-14 16:00:21.906002,-38
2021-10-14 16:00:21.906011,-43
2021-10-14 16:00:21.906019,-43
2021-10-14 16:00:21.906027,-19
2021-10-14 16:00:21.906035,110
2021-10-14 16:00:21.906044,430
2021-10-14 16:00:21.906052,738
2021-10-14 16:00:21.906060,480
2021-10-14 16:00:21.906068,-490
2021-10-14 16:00:21.906077,-1183
2021-10-14 16:00:21.906085,-810
2021-10-14 16:00:21.906093,-226
2021-10-14 16:00:21.906102,-137
2021-10-14 16:00:21.906110,-93
2021-10-14 16:00:21.906118,40
2021-10-14 16:00:21.906127,38
2021-10-14 16:00:22.086515,4
2021-10-14 16:00:22.086538,38
2021-10-14 16:00:22.086547,57
2021-10-14 16:00:22.086556,50
2021-10-14 16:00:22.086564,43
2021-10-14 16:00:22.086573,26
2021-10-14 16:00:22.086581,28
2021-10-14 16:00:22.086589,48
2021-10-14 16:00:22.086598,50
2021-10-14 16:00:22.086606,55
2021-10-14 16:00:22.086614,86
2021-10-14 16:00:22.086623,105
2021-10-14 16:00:22.086631,108
2021-10-14 16:00:22.086639,115
2021-10-14 16:00:22.086647,117
2021-10-14 16:00:22.086656,134
2021-10-14 16:00:22.086664,182
2021-10-14 16:00:22.086672,197
2021-10-14 16:00:22.086681,175
2021-10-14 16:00:22.086689,168
2021-10-14 16:00:22.086697,170
2021-10-14 16:00:22.086706,153
2021-10-14 16:00:22.086714,122
2021-10-14 16:00:22.086722,86
2021-10-14 16:00:22.086730,57
2021-10-14 16:00:22.086739,26
2021-10-14 16:00:22.086747,-7
2021-10-14 16:00:22.086755,-45
2021-10-14 16:00:22.086764,-76
2021-10-14 16:00:22.086772,-103
2021-10-14 16:00:22.311877,-117
2021-10-14 16:00:22.311899,-122
2021-10-14 16:00:22.311909,-132
2021-10-14 16:00:22.311917,-129
2021-10-14 16:00:22.311926,-108
2021-10-14 16:00:22.311934,-101
2021-10-14 16:00:22.311943,-120
2021-10-14 16:00:22.311951,-122
2021-10-14 16:00:22.311960,-103
2021-10-14 16:00:22.311968,-101
2021-10-14 16:00:22.311976,-108
2021-10-14 16:00:22.311984,-84
2021-10-14 16:00:22.311993,-60
2021-10-14 16:00:22.312001,-55
2021-10-14 16:00:22.312009,-52
2021-10-14 16:00:22.312018,-50
2021-10-14 16:00:22.312026,-57
2021-10-14 16:00:22.312035,-57
2021-10-14 16:00:22.312043,-36
2021-10-14 16:00:22.312051,-24
2021-10-14 16:00:22.312060,-28
2021-10-14 16:00:22.312068,-28
2021-10-14 16:00:22.312076,-19
2021-10-14 16:00:22.312085,-19
2021-10-14 16:00:22.312093,-28
2021-10-14 16:00:22.312101,-26
2021-10-14 16:00:22.312109,-24
2021-10-14 16:00:22.312118,-26
2021-10-14 16:00:22.312126,-33
2021-10-14 16:00:22.312134,-31
2021-10-14 16:00:22.581503,-26
2021-10-14 16:00:22.581527,-28
2021-10-14 16:00:22.581536,-40
2021-10-14 16:00:22.581545,-52
2021-10-14 16:00:22.581553,-52
2021-10-14 16:00:22.581562,-38
2021-10-14 16:00:22.581570,-36
2021-10-14 16:00:22.581578,-52
2021-10-14 16:00:22.581587,-52
2021-10-14 16:00:22.581595,-36
2021-10-14 16:00:22.581603,-21
2021-10-14 16:00:22.581612,-26
2021-10-14 16:00:22.581620,-26
2021-10-14 16:00:22.581629,-2
2021-10-14 16:00:22.581637,0
2021-10-14 16:00:22.581645,-36
2021-10-14 16:00:22.581654,-50
2021-10-14 16:00:22.581662,-43
2021-10-14 16:00:22.581670,-57
2021-10-14 16:00:22.581679,-62
2021-10-14 16:00:22.581687,-43
2021-10-14 16:00:22.581695,-33
2021-10-14 16:00:22.581704,-40
2021-10-14 16:00:22.581712,-40
2021-10-14 16:00:22.581721,-28
2021-10-14 16:00:22.581729,-19
2021-10-14 16:00:22.581737,-2
2021-10-14 16:00:22.581746,115
2021-10-14 16:00:22.581754,418
2021-10-14 16:00:22.581762,682
2021-10-14 16:00:22.805192,355
2021-10-14 16:00:22.805215,-601
2021-10-14 16:00:22.805224,-1130
2021-10-14 16:00:22.805233,-714
2021-10-14 16:00:22.805242,-242
2021-10-14 16:00:22.805250,-149
2021-10-14 16:00:22.805259,-45
2021-10-14 16:00:22.805267,72
2021-10-14 16:00:22.805275,62
2021-10-14 16:00:22.805287,43
2021-10-14 16:00:22.805296,64
2021-10-14 16:00:22.805304,72
2021-10-14 16:00:22.805313,69
2021-10-14 16:00:22.805321,67
2021-10-14 16:00:22.805329,72
2021-10-14 16:00:22.805338,88
2021-10-14 16:00:22.805346,105
2021-10-14 16:00:22.805354,115
2021-10-14 16:00:22.805363,108
2021-10-14 16:00:22.805371,113
2021-10-14 16:00:22.805379,137
2021-10-14 16:00:22.805387,153
2021-10-14 16:00:22.805396,149
2021-10-14 16:00:22.805404,153
2021-10-14 16:00:22.805412,173
2021-10-14 16:00:22.805420,187
2021-10-14 16:00:22.805428,199
2021-10-14 16:00:22.805436,192
2021-10-14 16:00:22.805445,180
2021-10-14 16:00:22.805453,202
2021-10-14 16:00:23.030893,197
2021-10-14 16:00:23.030916,146
2021-10-14 16:00:23.030925,108
2021-10-14 16:00:23.030934,86
2021-10-14 16:00:23.030943,55
2021-10-14 16:00:23.030951,24
2021-10-14 16:00:23.030959,-4
2021-10-14 16:00:23.030968,-45
2021-10-14 16:00:23.030976,-79
2021-10-14 16:00:23.030985,-93
2021-10-14 16:00:23.030993,-110
2021-10-14 16:00:23.031001,-120
2021-10-14 16:00:23.031009,-120
2021-10-14 16:00:23.031018,-113
2021-10-14 16:00:23.031033,-105
2021-10-14 16:00:23.031041,-98
2021-10-14 16:00:23.031050,-98
2021-10-14 16:00:23.031058,-101
2021-10-14 16:00:23.031066,-88
2021-10-14 16:00:23.031074,-79
2021-10-14 16:00:23.031083,-84
2021-10-14 16:00:23.031091,-79
2021-10-14 16:00:23.031099,-57
2021-10-14 16:00:23.031108,-43
2021-10-14 16:00:23.031116,-45
2021-10-14 16:00:23.031124,-48
2021-10-14 16:00:23.031132,-50
2021-10-14 16:00:23.031141,-55
2021-10-14 16:00:23.031149,-48
2021-10-14 16:00:23.031157,-31
2021-10-14 16:00:23.256264,-28
2021-10-14 16:00:23.256287,-26
2021-10-14 16:00:23.256296,-26
2021-10-14 16:00:23.256305,-50
2021-10-14 16:00:23.256313,-60
2021-10-14 16:00:23.256322,-36
2021-10-14 16:00:23.256330,-31
2021-10-14 16:00:23.256338,-48
2021-10-14 16:00:23.256347,-43
2021-10-14 16:00:23.256355,-31
2021-10-14 16:00:23.256363,-36
2021-10-14 16:00:23.256372,-38
2021-10-14 16:00:23.256380,-28
2021-10-14 16:00:23.256388,-19
2021-10-14 16:00:23.256397,-19
2021-10-14 16:00:23.256405,-12
2021-10-14 16:00:23.256413,-2
2021-10-14 16:00:23.256421,-14
2021-10-14 16:00:23.256430,-45
2021-10-14 16:00:23.256438,-55
2021-10-14 16:00:23.256446,-50
2021-10-14 16:00:23.256455,-55
2021-10-14 16:00:23.256463,-57
2021-10-14 16:00:23.256471,-48
2021-10-14 16:00:23.256479,-36
2021-10-14 16:00:23.256488,-19
2021-10-14 16:00:23.256496,-24
2021-10-14 16:00:23.256504,-40
2021-10-14 16:00:23.256513,-33
2021-10-14 16:00:23.256521,19
2021-10-14 16:00:23.481897,194
2021-10-14 16:00:23.481920,557
2021-10-14 16:00:23.481930,764
2021-10-14 16:00:23.481939,177
2021-10-14 16:00:23.481947,-880
2021-10-14 16:00:23.481956,-1147
2021-10-14 16:00:23.481964,-577
2021-10-14 16:00:23.481973,-214
2021-10-14 16:00:23.481981,-156
2021-10-14 16:00:23.481989,-24
2021-10-14 16:00:23.481998,57
2021-10-14 16:00:23.482006,26
2021-10-14 16:00:23.482014,31
2021-10-14 16:00:23.482023,62
2021-10-14 16:00:23.482031,50
2021-10-14 16:00:23.482040,40
2021-10-14 16:00:23.482048,50
2021-10-14 16:00:23.482056,50
2021-10-14 16:00:23.482065,55
2021-10-14 16:00:23.482073,72
2021-10-14 16:00:23.482081,72
2021-10-14 16:00:23.482090,67
2021-10-14 16:00:23.482098,88
2021-10-14 16:00:23.482106,120
2021-10-14 16:00:23.482115,127
2021-10-14 16:00:23.482123,134
2021-10-14 16:00:23.482132,151
2021-10-14 16:00:23.482140,161
2021-10-14 16:00:23.482148,170
2021-10-14 16:00:23.482157,189
2021-10-14 16:00:23.706899,194
2021-10-14 16:00:23.706923,187
2021-10-14 16:00:23.706933,168
2021-10-14 16:00:23.706941,146
2021-10-14 16:00:23.706950,132
2021-10-14 16:00:23.706958,108
2021-10-14 16:00:23.706967,64
2021-10-14 16:00:23.706976,19
2021-10-14 16:00:23.706984,-31
2021-10-14 16:00:23.706992,-69
2021-10-14 16:00:23.707001,-69
2021-10-14 16:00:23.707009,-72
2021-10-14 16:00:23.707018,-91
2021-10-14 16:00:23.707026,-101
2021-10-14 16:00:23.707035,-108
2021-10-14 16:00:23.707043,-120
2021-10-14 16:00:23.707051,-115
2021-10-14 16:00:23.707060,-108
2021-10-14 16:00:23.707068,-105
2021-10-14 16:00:23.707077,-98
2021-10-14 16:00:23.707085,-93
2021-10-14 16:00:23.707094,-86
2021-10-14 16:00:23.707102,-72
2021-10-14 16:00:23.707110,-55
2021-10-14 16:00:23.707119,-40
2021-10-14 16:00:23.707127,-36
2021-10-14 16:00:23.707136,-36
2021-10-14 16:00:23.707144,-33
2021-10-14 16:00:23.707153,-28
2021-10-14 16:00:23.707161,-26
2021-10-14 16:00:23.976465,-28
2021-10-14 16:00:23.976487,-31
2021-10-14 16:00:23.976497,-28
2021-10-14 16:00:23.976506,-21
2021-10-14 16:00:23.976514,-16
2021-10-14 16:00:23.976523,-12
2021-10-14 16:00:23.976531,-14
2021-10-14 16:00:23.976539,-33
2021-10-14 16:00:23.976548,-48
2021-10-14 16:00:23.976556,-52
2021-10-14 16:00:23.976564,-60
2021-10-14 16:00:23.976573,-60
2021-10-14 16:00:23.976581,-50
2021-10-14 16:00:23.976590,-43
2021-10-14 16:00:23.976598,-40
2021-10-14 16:00:23.976607,-40
2021-10-14 16:00:23.976615,-33
2021-10-14 16:00:23.976623,-14
2021-10-14 16:00:23.976632,-12
2021-10-14 16:00:23.976640,-52
2021-10-14 16:00:23.976648,-79
2021-10-14 16:00:23.976657,-72
2021-10-14 16:00:23.976665,-69
2021-10-14 16:00:23.976674,-69
2021-10-14 16:00:23.976682,-45
2021-10-14 16:00:23.976690,-33
2021-10-14 16:00:23.976699,-40
2021-10-14 16:00:23.976707,-43
2021-10-14 16:00:23.976715,-28
2021-10-14 16:00:23.976724,-14
2021-10-14 16:00:24.291414,21
2021-10-14 16:00:24.291437,192
2021-10-14 16:00:24.291447,572
2021-10-14 16:00:24.291456,812
2021-10-14 16:00:24.291464,269
2021-10-14 16:00:24.291473,-805
2021-10-14 16:00:24.291481,-1147
2021-10-14 16:00:24.291489,-557
2021-10-14 16:00:24.291498,-141
2021-10-14 16:00:24.291506,-110
2021-10-14 16:00:24.291514,14
2021-10-14 16:00:24.291523,122
2021-10-14 16:00:24.291531,69
2021-10-14 16:00:24.291539,52
2021-10-14 16:00:24.291547,101
2021-10-14 16:00:24.291556,103
2021-10-14 16:00:24.291564,81
2021-10-14 16:00:24.291572,93
2021-10-14 16:00:24.291581,115
2021-10-14 16:00:24.291589,115
2021-10-14 16:00:24.291597,113
2021-10-14 16:00:24.291606,120
2021-10-14 16:00:24.291614,132
2021-10-14 16:00:24.291622,141
2021-10-14 16:00:24.291630,144
2021-10-14 16:00:24.291639,151
2021-10-14 16:00:24.291647,165
2021-10-14 16:00:24.291655,175
2021-10-14 16:00:24.291663,187
2021-10-14 16:00:24.291672,199
2021-10-14 16:00:24.381956,199
2021-10-14 16:00:24.381980,202
2021-10-14 16:00:24.381989,204
2021-10-14 16:00:24.381998,189
2021-10-14 16:00:24.382006,163
2021-10-14 16:00:24.382015,125
2021-10-14 16:00:24.382023,79
2021-10-14 16:00:24.382032,45
2021-10-14 16:00:24.382040,31
2021-10-14 16:00:24.382048,-2
2021-10-14 16:00:24.382057,-57
2021-10-14 16:00:24.382065,-91
2021-10-14 16:00:24.382073,-98
2021-10-14 16:00:24.382082,-115
2021-10-14 16:00:24.382090,-137
2021-10-14 16:00:24.382098,-144
2021-10-14 16:00:24.382107,-139
2021-10-14 16:00:24.382115,-134
2021-10-14 16:00:24.382123,-127
2021-10-14 16:00:24.382131,-117
2021-10-14 16:00:24.382140,-115
2021-10-14 16:00:24.382148,-120
2021-10-14 16:00:24.382156,-117
2021-10-14 16:00:24.382165,-93
2021-10-14 16:00:24.382173,-72
2021-10-14 16:00:24.382181,-84
2021-10-14 16:00:24.382190,-91
2021-10-14 16:00:24.382227,-72
2021-10-14 16:00:24.382236,-62
2021-10-14 16:00:24.382244,-62
2021-10-14 16:00:24.697020,-57
2021-10-14 16:00:24.697041,-45
2021-10-14 16:00:24.697051,-38
2021-10-14 16:00:24.697060,-48
2021-10-14 16:00:24.697068,-52
2021-10-14 16:00:24.697077,-45
2021-10-14 16:00:24.697085,-48
2021-10-14 16:00:24.697093,-50
2021-10-14 16:00:24.697102,-48
2021-10-14 16:00:24.697110,-52
2021-10-14 16:00:24.697119,-55
2021-10-14 16:00:24.697127,-45
2021-10-14 16:00:24.697135,-45
2021-10-14 16:00:24.697144,-50
2021-10-14 16:00:24.697152,-45
2021-10-14 16:00:24.697161,-38
2021-10-14 16:00:24.697169,-43
2021-10-14 16:00:24.697177,-50
2021-10-14 16:00:24.697186,-38
2021-10-14 16:00:24.697194,-21
2021-10-14 16:00:24.697202,-21
2021-10-14 16:00:24.697211,-16
2021-10-14 16:00:24.697219,-2
2021-10-14 16:00:24.697227,-19
2021-10-14 16:00:24.697236,-45
2021-10-14 16:00:24.697244,-36
2021-10-14 16:00:24.697252,-21
2021-10-14 16:00:24.697261,-28
2021-10-14 16:00:24.697269,-36
2021-10-14 16:00:24.697277,-31
2021-10-14 16:00:24.875189,-19
2021-10-14 16:00:24.875233,-2
2021-10-14 16:00:24.875243,7
2021-10-14 16:00:24.875252,2
2021-10-14 16:00:24.875260,7
2021-10-14 16:00:24.875269,79
2021-10-14 16:00:24.875277,353
2021-10-14 16:00:24.875285,757
2021-10-14 16:00:24.875294,733
2021-10-14 16:00:24.875302,-134
2021-10-14 16:00:24.875310,-1048
2021-10-14 16:00:24.875318,-916
2021-10-14 16:00:24.875327,-286
2021-10-14 16:00:24.875335,-79
2021-10-14 16:00:24.875343,-33
2021-10-14 16:00:24.875352,105
2021-10-14 16:00:24.875360,129
2021-10-14 16:00:24.875368,84
2021-10-14 16:00:24.875376,115
2021-10-14 16:00:24.875384,144
2021-10-14 16:00:24.875392,129
2021-10-14 16:00:24.875401,125
2021-10-14 16:00:24.875409,144
2021-10-14 16:00:24.875417,165
2021-10-14 16:00:24.875425,168
2021-10-14 16:00:24.875437,165
2021-10-14 16:00:24.875446,170
2021-10-14 16:00:24.875454,185
2021-10-14 16:00:24.875463,194
2021-10-14 16:00:24.875471,204
2021-10-14 16:00:25.056504,211
2021-10-14 16:00:25.056527,218
2021-10-14 16:00:25.056537,235
2021-10-14 16:00:25.056546,247
2021-10-14 16:00:25.056554,240
2021-10-14 16:00:25.056563,250
2021-10-14 16:00:25.056571,276
2021-10-14 16:00:25.056580,274
2021-10-14 16:00:25.056588,254
2021-10-14 16:00:25.056596,235
2021-10-14 16:00:25.056605,202
2021-10-14 16:00:25.056613,173
2021-10-14 16:00:25.056621,153
2021-10-14 16:00:25.056630,117
2021-10-14 16:00:25.056638,91
2021-10-14 16:00:25.056646,76
2021-10-14 16:00:25.056654,50
2021-10-14 16:00:25.056663,33
2021-10-14 16:00:25.056671,36
2021-10-14 16:00:25.056679,36
2021-10-14 16:00:25.056688,28
2021-10-14 16:00:25.056696,21
2021-10-14 16:00:25.056704,24
2021-10-14 16:00:25.056712,33
2021-10-14 16:00:25.056721,52
2021-10-14 16:00:25.056729,67
2021-10-14 16:00:25.056737,74
2021-10-14 16:00:25.056745,86
2021-10-14 16:00:25.056754,103
2021-10-14 16:00:25.056762,115
2021-10-14 16:00:25.281853,129
2021-10-14 16:00:25.281877,146
2021-10-14 16:00:25.281886,163
2021-10-14 16:00:25.281895,161
2021-10-14 16:00:25.281903,151
2021-10-14 16:00:25.281912,163
2021-10-14 16:00:25.281920,180
2021-10-14 16:00:25.281929,185
2021-10-14 16:00:25.281937,192
2021-10-14 16:00:25.281946,197
2021-10-14 16:00:25.281954,187
2021-10-14 16:00:25.281962,180
2021-10-14 16:00:25.281971,185
2021-10-14 16:00:25.281979,199
2021-10-14 16:00:25.281988,209
2021-10-14 16:00:25.281996,206
2021-10-14 16:00:25.282005,202
2021-10-14 16:00:25.282013,206
2021-10-14 16:00:25.282022,209
2021-10-14 16:00:25.282030,209
2021-10-14 16:00:25.282038,218
2021-10-14 16:00:25.282046,221
2021-10-14 16:00:25.282055,214
2021-10-14 16:00:25.282063,216
2021-10-14 16:00:25.282071,226
2021-10-14 16:00:25.282080,233
2021-10-14 16:00:25.282088,226
2021-10-14 16:00:25.282097,221
2021-10-14 16:00:25.282105,235
2021-10-14 16:00:25.282114,238
2021-10-14 16:00:25.596231,209
2021-10-14 16:00:25.596252,187
2021-10-14 16:00:25.596262,182
2021-10-14 16:00:25.596271,182
2021-10-14 16:00:25.596279,177
2021-10-14 16:00:25.596288,173
2021-10-14 16:00:25.596296,153
2021-10-14 16:00:25.596305,146
2021-10-14 16:00:25.596313,158
2021-10-14 16:00:25.596321,149
2021-10-14 16:00:25.596330,141
2021-10-14 16:00:25.596338,189
2021-10-14 16:00:25.596347,343
2021-10-14 16:00:25.596355,682
2021-10-14 16:00:25.596364,945
2021-10-14 16:00:25.596372,497
2021-10-14 16:00:25.596381,-560
2021-10-14 16:00:25.596389,-1034
2021-10-14 16:00:25.596397,-533
2021-10-14 16:00:25.596406,-76
2021-10-14 16:00:25.596414,-7
2021-10-14 16:00:25.596423,117
2021-10-14 16:00:25.596431,238
2021-10-14 16:00:25.596440,209
2021-10-14 16:00:25.596448,189
2021-10-14 16:00:25.596456,228
2021-10-14 16:00:25.596465,228
2021-10-14 16:00:25.596473,206
2021-10-14 16:00:25.596482,211
2021-10-14 16:00:25.596490,223
2021-10-14 16:00:25.776537,223
2021-10-14 16:00:25.776560,228
2021-10-14 16:00:25.776570,230
2021-10-14 16:00:25.776579,221
2021-10-14 16:00:25.776595,221
2021-10-14 16:00:25.776604,235
2021-10-14 16:00:25.776612,250
2021-10-14 16:00:25.776621,252
2021-10-14 16:00:25.776629,245
2021-10-14 16:00:25.776637,252
2021-10-14 16:00:25.776646,269
2021-10-14 16:00:25.776654,266
2021-10-14 16:00:25.776663,259
2021-10-14 16:00:25.776671,254
2021-10-14 16:00:25.776680,235
2021-10-14 16:00:25.776688,204
2021-10-14 16:00:25.776696,177
2021-10-14 16:00:25.776704,153
2021-10-14 16:00:25.776712,122
2021-10-14 16:00:25.776721,72
2021-10-14 16:00:25.776729,21
2021-10-14 16:00:25.776737,-14
2021-10-14 16:00:25.776745,-36
2021-10-14 16:00:25.776754,-52
2021-10-14 16:00:25.776762,-72
2021-10-14 16:00:25.776770,-76
2021-10-14 16:00:25.776779,-91
2021-10-14 16:00:25.776787,-117
2021-10-14 16:00:25.776795,-117
2021-10-14 16:00:25.776804,-101
2021-10-14 16:00:26.001922,-103
2021-10-14 16:00:26.001945,-110
2021-10-14 16:00:26.001954,-103
2021-10-14 16:00:26.001963,-96
2021-10-14 16:00:26.001971,-86
2021-10-14 16:00:26.001980,-76
2021-10-14 16:00:26.001988,-72
2021-10-14 16:00:26.001997,-67
2021-10-14 16:00:26.002005,-67
2021-10-14 16:00:26.002013,-72
2021-10-14 16:00:26.002022,-60
2021-10-14 16:00:26.002030,-52
2021-10-14 16:00:26.002038,-64
2021-10-14 16:00:26.002047,-74
2021-10-14 16:00:26.002055,-81
2021-10-14 16:00:26.002064,-79
2021-10-14 16:00:26.002072,-72
2021-10-14 16:00:26.002080,-74
2021-10-14 16:00:26.002089,-69
2021-10-14 16:00:26.002097,-62
2021-10-14 16:00:26.002105,-76
2021-10-14 16:00:26.002113,-86
2021-10-14 16:00:26.002122,-64
2021-10-14 16:00:26.002130,-52
2021-10-14 16:00:26.002144,-60
2021-10-14 16:00:26.002153,-64
2021-10-14 16:00:26.002161,-64
2021-10-14 16:00:26.002170,-64
2021-10-14 16:00:26.002178,-64
2021-10-14 16:00:26.002187,-67
2021-10-14 16:00:26.271335,-60
2021-10-14 16:00:26.271356,-50
2021-10-14 16:00:26.271366,-40
2021-10-14 16:00:26.271375,-33
2021-10-14 16:00:26.271383,-38
2021-10-14 16:00:26.271391,-55
2021-10-14 16:00:26.271400,-69
2021-10-14 16:00:26.271408,-79
2021-10-14 16:00:26.271416,-76
2021-10-14 16:00:26.271425,-72
2021-10-14 16:00:26.271433,-72
2021-10-14 16:00:26.271442,-72
2021-10-14 16:00:26.271450,-74
2021-10-14 16:00:26.271458,-76
2021-10-14 16:00:26.271467,-72
2021-10-14 16:00:26.271475,-69
2021-10-14 16:00:26.271484,-40
2021-10-14 16:00:26.271492,88
2021-10-14 16:00:26.271500,442
2021-10-14 16:00:26.271509,793
2021-10-14 16:00:26.271517,478
2021-10-14 16:00:26.271526,-581
2021-10-14 16:00:26.271534,-1224
2021-10-14 16:00:26.271542,-783
2021-10-14 16:00:26.271551,-250
2021-10-14 16:00:26.271559,-173
2021-10-14 16:00:26.271567,-74
2021-10-14 16:00:26.271576,60
2021-10-14 16:00:26.271584,38
2021-10-14 16:00:26.271593,19
2021-10-14 16:00:26.495959,62
2021-10-14 16:00:26.495982,64
2021-10-14 16:00:26.495991,50
2021-10-14 16:00:26.496000,55
2021-10-14 16:00:26.496009,62
2021-10-14 16:00:26.496017,64
2021-10-14 16:00:26.496026,69
2021-10-14 16:00:26.496034,74
2021-10-14 16:00:26.496042,81
2021-10-14 16:00:26.496051,86
2021-10-14 16:00:26.496059,93
2021-10-14 16:00:26.496067,91
2021-10-14 16:00:26.496076,91
2021-10-14 16:00:26.496084,110
2021-10-14 16:00:26.496092,129
2021-10-14 16:00:26.496101,129
2021-10-14 16:00:26.496109,132
2021-10-14 16:00:26.496117,129
2021-10-14 16:00:26.496126,110
2021-10-14 16:00:26.496134,96
2021-10-14 16:00:26.496143,76
2021-10-14 16:00:26.496151,50
2021-10-14 16:00:26.496160,24
2021-10-14 16:00:26.496168,-12
2021-10-14 16:00:26.496176,-57
2021-10-14 16:00:26.496185,-93
2021-10-14 16:00:26.496193,-120
2021-10-14 16:00:26.496201,-146
2021-10-14 16:00:26.496210,-165
2021-10-14 16:00:26.496218,-182
2021-10-14 16:00:26.721936,-194
2021-10-14 16:00:26.721960,-199
2021-10-14 16:00:26.721970,-206
2021-10-14 16:00:26.721978,-211
2021-10-14 16:00:26.721987,-206
2021-10-14 16:00:26.721995,-206
2021-10-14 16:00:26.722004,-211
2021-10-14 16:00:26.722012,-206
2021-10-14 16:00:26.722688,-192
2021-10-14 16:00:26.722698,-177
2021-10-14 16:00:26.722707,-170
2021-10-14 16:00:26.722715,-175
2021-10-14 16:00:26.722724,-175
2021-10-14 16:00:26.722732,-163
2021-10-14 16:00:26.722740,-151
2021-10-14 16:00:26.722749,-146
2021-10-14 16:00:26.722757,-144
2021-10-14 16:00:26.722766,-144
2021-10-14 16:00:26.722774,-141
2021-10-14 16:00:26.722782,-125
2021-10-14 16:00:26.722790,-115
2021-10-14 16:00:26.722799,-122
2021-10-14 16:00:26.722807,-122
2021-10-14 16:00:26.722815,-117
2021-10-14 16:00:26.722824,-120
2021-10-14 16:00:26.722832,-117
2021-10-14 16:00:26.722840,-110
2021-10-14 16:00:26.722848,-113
2021-10-14 16:00:26.722857,-122
2021-10-14 16:00:26.722865,-122
2021-10-14 16:00:26.990191,-110
2021-10-14 16:00:26.990214,-110
2021-10-14 16:00:26.990224,-117
2021-10-14 16:00:26.990233,-108
2021-10-14 16:00:26.990241,-96
2021-10-14 16:00:26.990250,-96
2021-10-14 16:00:26.990258,-101
2021-10-14 16:00:26.990286,-103
2021-10-14 16:00:26.990295,-103
2021-10-14 16:00:26.990304,-96
2021-10-14 16:00:26.990312,-86
2021-10-14 16:00:26.990321,-88
2021-10-14 16:00:26.990329,-79
2021-10-14 16:00:26.990337,-74
2021-10-14 16:00:26.990345,-91
2021-10-14 16:00:26.990354,-113
2021-10-14 16:00:26.990362,-127
2021-10-14 16:00:26.990370,-122
2021-10-14 16:00:26.990379,-108
2021-10-14 16:00:26.990387,-101
2021-10-14 16:00:26.990395,-103
2021-10-14 16:00:26.990403,-101
2021-10-14 16:00:26.990412,-101
2021-10-14 16:00:26.990420,-103
2021-10-14 16:00:26.990428,-86
2021-10-14 16:00:26.990436,-33
2021-10-14 16:00:26.990445,161
2021-10-14 16:00:26.990453,560
2021-10-14 16:00:26.990462,769
2021-10-14 16:00:26.990470,158
2021-10-14 16:00:27.216918,-933
2021-10-14 16:00:27.216941,-1226
2021-10-14 16:00:27.216950,-596
2021-10-14 16:00:27.216959,-194
2021-10-14 16:00:27.216968,-185
2021-10-14 16:00:27.216976,-64
2021-10-14 16:00:27.216984,36
2021-10-14 16:00:27.216993,-12
2021-10-14 16:00:27.217001,-16
2021-10-14 16:00:27.217010,21
2021-10-14 16:00:27.217018,12
2021-10-14 16:00:27.217026,12
2021-10-14 16:00:27.217035,31
2021-10-14 16:00:27.217043,31
2021-10-14 16:00:27.217051,26
2021-10-14 16:00:27.217060,31
2021-10-14 16:00:27.217068,36
2021-10-14 16:00:27.217077,48
2021-10-14 16:00:27.217085,64
2021-10-14 16:00:27.217093,69
2021-10-14 16:00:27.217102,72
2021-10-14 16:00:27.217110,76
2021-10-14 16:00:27.217118,84
2021-10-14 16:00:27.217127,98
2021-10-14 16:00:27.217135,115
2021-10-14 16:00:27.217143,127
2021-10-14 16:00:27.217152,127
2021-10-14 16:00:27.217160,115
2021-10-14 16:00:27.217168,103
2021-10-14 16:00:27.217177,91
2021-10-14 16:00:27.397046,72
2021-10-14 16:00:27.397069,43
2021-10-14 16:00:27.397079,7
2021-10-14 16:00:27.397088,-33
2021-10-14 16:00:27.397096,-69
2021-10-14 16:00:27.397105,-96
2021-10-14 16:00:27.397113,-122
2021-10-14 16:00:27.397121,-149
2021-10-14 16:00:27.397130,-158
2021-10-14 16:00:27.397138,-161
2021-10-14 16:00:27.397146,-168
2021-10-14 16:00:27.397155,-170
2021-10-14 16:00:27.397163,-163
2021-10-14 16:00:27.397171,-165
2021-10-14 16:00:27.397180,-170
2021-10-14 16:00:27.397188,-170
2021-10-14 16:00:27.397197,-158
2021-10-14 16:00:27.397205,-146
2021-10-14 16:00:27.397213,-134
2021-10-14 16:00:27.397222,-132
2021-10-14 16:00:27.397230,-139
2021-10-14 16:00:27.397238,-137
2021-10-14 16:00:27.397247,-117
2021-10-14 16:00:27.397255,-101
2021-10-14 16:00:27.397263,-96
2021-10-14 16:00:27.397272,-88
2021-10-14 16:00:27.397280,-86
2021-10-14 16:00:27.397288,-86
2021-10-14 16:00:27.397297,-86
2021-10-14 16:00:27.397305,-93
2021-10-14 16:00:27.666565,-91
2021-10-14 16:00:27.666589,-79
2021-10-14 16:00:27.666599,-81
2021-10-14 16:00:27.666608,-101
2021-10-14 16:00:27.666616,-96
2021-10-14 16:00:27.666625,-74
2021-10-14 16:00:27.666633,-74
2021-10-14 16:00:27.666641,-86
2021-10-14 16:00:27.666650,-88
2021-10-14 16:00:27.666658,-86
2021-10-14 16:00:27.666666,-88
2021-10-14 16:00:27.666675,-86
2021-10-14 16:00:27.666683,-76
2021-10-14 16:00:27.666691,-76
2021-10-14 16:00:27.666700,-93
2021-10-14 16:00:27.666708,-96
2021-10-14 16:00:27.666716,-84
2021-10-14 16:00:27.666725,-81
2021-10-14 16:00:27.666733,-74
2021-10-14 16:00:27.666741,-62
2021-10-14 16:00:27.666750,-72
2021-10-14 16:00:27.666758,-84
2021-10-14 16:00:27.666766,-67
2021-10-14 16:00:27.666775,-48
2021-10-14 16:00:27.666783,-38
2021-10-14 16:00:27.666791,-21
2021-10-14 16:00:27.666800,-26
2021-10-14 16:00:27.666808,-55
2021-10-14 16:00:27.666816,-62
2021-10-14 16:00:27.666825,-55
2021-10-14 16:00:27.846566,-57
2021-10-14 16:00:27.846588,-62
2021-10-14 16:00:27.846598,-62
2021-10-14 16:00:27.846607,-62
2021-10-14 16:00:27.846615,-48
2021-10-14 16:00:27.846623,-36
2021-10-14 16:00:27.846632,-36
2021-10-14 16:00:27.846640,-33
2021-10-14 16:00:27.846649,-16
2021-10-14 16:00:27.846657,88
2021-10-14 16:00:27.846666,411
2021-10-14 16:00:27.846674,781
2021-10-14 16:00:27.846683,606
2021-10-14 16:00:27.846691,-370
2021-10-14 16:00:27.846700,-1192
2021-10-14 16:00:27.846708,-882
2021-10-14 16:00:27.846716,-235
2021-10-14 16:00:27.846725,-122
2021-10-14 16:00:27.846733,-101
2021-10-14 16:00:27.846742,36
2021-10-14 16:00:27.846750,28
2021-10-14 16:00:27.846758,-14
2021-10-14 16:00:27.846767,24
2021-10-14 16:00:27.846775,33
2021-10-14 16:00:27.846783,16
2021-10-14 16:00:27.846792,33
2021-10-14 16:00:27.846800,40
2021-10-14 16:00:27.846809,33
2021-10-14 16:00:27.846817,48
2021-10-14 16:00:27.846826,60
2021-10-14 16:00:28.071927,67
2021-10-14 16:00:28.071950,74
2021-10-14 16:00:28.071959,74
2021-10-14 16:00:28.071968,76
2021-10-14 16:00:28.071976,86
2021-10-14 16:00:28.071985,93
2021-10-14 16:00:28.071993,105
2021-10-14 16:00:28.072002,120
2021-10-14 16:00:28.072010,129
2021-10-14 16:00:28.072019,139
2021-10-14 16:00:28.072027,146
2021-10-14 16:00:28.072036,132
2021-10-14 16:00:28.072044,101
2021-10-14 16:00:28.072052,76
2021-10-14 16:00:28.072061,52
2021-10-14 16:00:28.072069,19
2021-10-14 16:00:28.072077,-12
2021-10-14 16:00:28.072086,-36
2021-10-14 16:00:28.072094,-69
2021-10-14 16:00:28.072103,-103
2021-10-14 16:00:28.072111,-122
2021-10-14 16:00:28.072119,-127
2021-10-14 16:00:28.072128,-129
2021-10-14 16:00:28.072136,-139
2021-10-14 16:00:28.072144,-151
2021-10-14 16:00:28.072152,-149
2021-10-14 16:00:28.072161,-144
2021-10-14 16:00:28.072169,-146
2021-10-14 16:00:28.072178,-137
2021-10-14 16:00:28.072186,-122
2021-10-14 16:00:28.296576,-122
2021-10-14 16:00:28.296598,-125
2021-10-14 16:00:28.296608,-122
2021-10-14 16:00:28.296617,-108
2021-10-14 16:00:28.296625,-91
2021-10-14 16:00:28.296633,-84
2021-10-14 16:00:28.296642,-86
2021-10-14 16:00:28.296650,-79
2021-10-14 16:00:28.296658,-72
2021-10-14 16:00:28.296667,-72
2021-10-14 16:00:28.296675,-64
2021-10-14 16:00:28.296683,-57
2021-10-14 16:00:28.296692,-62
2021-10-14 16:00:28.296700,-62
2021-10-14 16:00:28.296708,-62
2021-10-14 16:00:28.296717,-64
2021-10-14 16:00:28.296725,-64
2021-10-14 16:00:28.296733,-67
2021-10-14 16:00:28.296742,-81
2021-10-14 16:00:28.296750,-84
2021-10-14 16:00:28.296758,-74
2021-10-14 16:00:28.296766,-67
2021-10-14 16:00:28.296775,-67
2021-10-14 16:00:28.296783,-69
2021-10-14 16:00:28.296791,-72
2021-10-14 16:00:28.296800,-64
2021-10-14 16:00:28.296808,-60
2021-10-14 16:00:28.296816,-64
2021-10-14 16:00:28.296824,-62
2021-10-14 16:00:28.296833,-52
2021-10-14 16:00:28.566569,-52
2021-10-14 16:00:28.566592,-60
2021-10-14 16:00:28.566602,-55
2021-10-14 16:00:28.566610,-52
2021-10-14 16:00:28.566619,-60
2021-10-14 16:00:28.566627,-69
2021-10-14 16:00:28.566636,-74
2021-10-14 16:00:28.566644,-62
2021-10-14 16:00:28.566653,-55
2021-10-14 16:00:28.566661,-60
2021-10-14 16:00:28.566669,-76
2021-10-14 16:00:28.566678,-93
2021-10-14 16:00:28.566686,-91
2021-10-14 16:00:28.566694,-81
2021-10-14 16:00:28.566703,-84
2021-10-14 16:00:28.566711,-86
2021-10-14 16:00:28.566720,-74
2021-10-14 16:00:28.566728,-57
2021-10-14 16:00:28.566737,-45
2021-10-14 16:00:28.566745,-48
2021-10-14 16:00:28.566754,-74
2021-10-14 16:00:28.566762,-96
2021-10-14 16:00:28.566771,-103
2021-10-14 16:00:28.566779,-103
2021-10-14 16:00:28.566788,-96
2021-10-14 16:00:28.566796,-101
2021-10-14 16:00:28.566804,-120
2021-10-14 16:00:28.566813,-122
2021-10-14 16:00:28.566821,-117
2021-10-14 16:00:28.566830,-113
2021-10-14 16:00:28.746605,-96
2021-10-14 16:00:28.746629,-81
2021-10-14 16:00:28.746638,-57
2021-10-14 16:00:28.746659,103
2021-10-14 16:00:28.746668,476
2021-10-14 16:00:28.746676,707
2021-10-14 16:00:28.746684,206
2021-10-14 16:00:28.746693,-822
2021-10-14 16:00:28.746701,-1192
2021-10-14 16:00:28.746709,-608
2021-10-14 16:00:28.746718,-168
2021-10-14 16:00:28.746726,-177
2021-10-14 16:00:28.746734,-86
2021-10-14 16:00:28.746743,28
2021-10-14 16:00:28.746751,-14
2021-10-14 16:00:28.746760,-24
2021-10-14 16:00:28.746768,21
2021-10-14 16:00:28.746776,14
2021-10-14 16:00:28.746785,-4
2021-10-14 16:00:28.746798,14
2021-10-14 16:00:28.746807,31
2021-10-14 16:00:28.746816,28
2021-10-14 16:00:28.746824,21
2021-10-14 16:00:28.746832,21
2021-10-14 16:00:28.746841,31
2021-10-14 16:00:28.746849,57
2021-10-14 16:00:28.746858,84
2021-10-14 16:00:28.746866,79
2021-10-14 16:00:28.746874,76
2021-10-14 16:00:28.746883,105
2021-10-14 16:00:29.060240,129
2021-10-14 16:00:29.060264,132
2021-10-14 16:00:29.060273,127
2021-10-14 16:00:29.060282,122
2021-10-14 16:00:29.060290,113
2021-10-14 16:00:29.060299,108
2021-10-14 16:00:29.060307,113
2021-10-14 16:00:29.060315,91
2021-10-14 16:00:29.060324,48
2021-10-14 16:00:29.060332,21
2021-10-14 16:00:29.060340,-4
2021-10-14 16:00:29.060349,-36
2021-10-14 16:00:29.060357,-60
2021-10-14 16:00:29.060365,-79
2021-10-14 16:00:29.060373,-98
2021-10-14 16:00:29.060382,-117
2021-10-14 16:00:29.060390,-132
2021-10-14 16:00:29.060398,-146
2021-10-14 16:00:29.060406,-146
2021-10-14 16:00:29.060415,-129
2021-10-14 16:00:29.060423,-125
2021-10-14 16:00:29.060431,-137
2021-10-14 16:00:29.060440,-144
2021-10-14 16:00:29.060448,-139
2021-10-14 16:00:29.060456,-132
2021-10-14 16:00:29.060465,-125
2021-10-14 16:00:29.060473,-117
2021-10-14 16:00:29.060481,-110
2021-10-14 16:00:29.060490,-98
2021-10-14 16:00:29.060498,-86
2021-10-14 16:00:29.241980,-74
2021-10-14 16:00:29.242001,-69
2021-10-14 16:00:29.242011,-67
2021-10-14 16:00:29.242019,-64
2021-10-14 16:00:29.242028,-67
2021-10-14 16:00:29.242037,-67
2021-10-14 16:00:29.242045,-57
2021-10-14 16:00:29.242053,-50
2021-10-14 16:00:29.242062,-50
2021-10-14 16:00:29.242070,-57
2021-10-14 16:00:29.242078,-62
2021-10-14 16:00:29.242087,-55
2021-10-14 16:00:29.242095,-55
2021-10-14 16:00:29.242103,-50
2021-10-14 16:00:29.242112,-40
2021-10-14 16:00:29.242120,-48
2021-10-14 16:00:29.242129,-50
2021-10-14 16:00:29.242137,-45
2021-10-14 16:00:29.242145,-52
2021-10-14 16:00:29.242154,-55
2021-10-14 16:00:29.242162,-40
2021-10-14 16:00:29.242170,-38
2021-10-14 16:00:29.242179,-28
2021-10-14 16:00:29.242187,-16
2021-10-14 16:00:29.242195,-28
2021-10-14 16:00:29.242204,-45
2021-10-14 16:00:29.242212,-48
2021-10-14 16:00:29.242220,-50
2021-10-14 16:00:29.242229,-52
2021-10-14 16:00:29.242237,-50
2021-10-14 16:00:29.466613,-52
2021-10-14 16:00:29.466637,-55
2021-10-14 16:00:29.466647,-50
2021-10-14 16:00:29.466656,-50
2021-10-14 16:00:29.466664,-57
2021-10-14 16:00:29.466672,-55
2021-10-14 16:00:29.466681,-45
2021-10-14 16:00:29.466689,-36
2021-10-14 16:00:29.466697,-43
2021-10-14 16:00:29.466706,-45
2021-10-14 16:00:29.466714,-21
2021-10-14 16:00:29.466723,-21
2021-10-14 16:00:29.466731,-48
2021-10-14 16:00:29.466740,-57
2021-10-14 16:00:29.466748,-67
2021-10-14 16:00:29.466756,-86
2021-10-14 16:00:29.466765,-74
2021-10-14 16:00:29.466774,-57
2021-10-14 16:00:29.466782,-55
2021-10-14 16:00:29.466790,-45
2021-10-14 16:00:29.466799,-40
2021-10-14 16:00:29.466807,-50
2021-10-14 16:00:29.466815,-60
2021-10-14 16:00:29.466824,-43
2021-10-14 16:00:29.466832,91
2021-10-14 16:00:29.466841,428
2021-10-14 16:00:29.466849,723
2021-10-14 16:00:29.466857,382
2021-10-14 16:00:29.466866,-596
2021-10-14 16:00:29.466874,-1115
2021-10-14 16:00:29.736593,-646
2021-10-14 16:00:29.736615,-165
2021-10-14 16:00:29.736625,-120
2021-10-14 16:00:29.736633,-43
2021-10-14 16:00:29.736642,76
2021-10-14 16:00:29.736650,60
2021-10-14 16:00:29.736659,36
2021-10-14 16:00:29.736667,67
