Time,ECG
2021-10-14 16:11:00.104898,-38
2021-10-14 16:11:00.104919,-45
2021-10-14 16:11:00.104928,-60
2021-10-14 16:11:00.104937,-52
2021-10-14 16:11:00.104945,-38
2021-10-14 16:11:00.104954,-33
2021-10-14 16:11:00.104962,-36
2021-10-14 16:11:00.104970,-31
2021-10-14 16:11:00.104979,-28
2021-10-14 16:11:00.104987,-48
2021-10-14 16:11:00.104995,-69
2021-10-14 16:11:00.105004,-76
2021-10-14 16:11:00.105012,-88
2021-10-14 16:11:00.105021,-98
2021-10-14 16:11:00.105029,-103
2021-10-14 16:11:00.105037,-113
2021-10-14 16:11:00.105046,-108
2021-10-14 16:11:00.105054,-93
2021-10-14 16:11:00.105062,-91
2021-10-14 16:11:00.105070,-98
2021-10-14 16:11:00.105079,-105
2021-10-14 16:11:00.105087,-91
2021-10-14 16:11:00.105095,16
2021-10-14 16:11:00.105103,336
2021-10-14 16:11:00.105111,721
2021-10-14 16:11:00.105119,591
2021-10-14 16:11:00.105128,-329
2021-10-14 16:11:00.105136,-1142
2021-10-14 16:11:00.105144,-904
2021-10-14 16:11:00.105152,-303
2021-10-14 16:11:00.330288,-173
2021-10-14 16:11:00.330308,-149
2021-10-14 16:11:00.330317,-9
2021-10-14 16:11:00.330326,14
2021-10-14 16:11:00.330334,-16
2021-10-14 16:11:00.330343,14
2021-10-14 16:11:00.330351,24
2021-10-14 16:11:00.330360,9
2021-10-14 16:11:00.330368,26
2021-10-14 16:11:00.330376,36
2021-10-14 16:11:00.330385,26
2021-10-14 16:11:00.330393,24
2021-10-14 16:11:00.330401,38
2021-10-14 16:11:00.330410,52
2021-10-14 16:11:00.330418,55
2021-10-14 16:11:00.330427,55
2021-10-14 16:11:00.330435,69
2021-10-14 16:11:00.330444,76
2021-10-14 16:11:00.330452,76
2021-10-14 16:11:00.330460,88
2021-10-14 16:11:00.330468,110
2021-10-14 16:11:00.330477,122
2021-10-14 16:11:00.330485,125
2021-10-14 16:11:00.330493,120
2021-10-14 16:11:00.330501,108
2021-10-14 16:11:00.330510,96
2021-10-14 16:11:00.330518,91
2021-10-14 16:11:00.330526,93
2021-10-14 16:11:00.330534,79
2021-10-14 16:11:00.330543,50
2021-10-14 16:11:00.509907,14
2021-10-14 16:11:00.509927,-21
2021-10-14 16:11:00.509937,-48
2021-10-14 16:11:00.509945,-64
2021-10-14 16:11:00.509953,-79
2021-10-14 16:11:00.509962,-91
2021-10-14 16:11:00.509970,-108
2021-10-14 16:11:00.509978,-125
2021-10-14 16:11:00.509986,-120
2021-10-14 16:11:00.509995,-113
2021-10-14 16:11:00.510003,-113
2021-10-14 16:11:00.510011,-113
2021-10-14 16:11:00.510020,-110
2021-10-14 16:11:00.510028,-105
2021-10-14 16:11:00.510036,-105
2021-10-14 16:11:00.510045,-105
2021-10-14 16:11:00.510053,-91
2021-10-14 16:11:00.510061,-84
2021-10-14 16:11:00.510070,-81
2021-10-14 16:11:00.510078,-74
2021-10-14 16:11:00.510086,-76
2021-10-14 16:11:00.510095,-81
2021-10-14 16:11:00.510103,-72
2021-10-14 16:11:00.510111,-67
2021-10-14 16:11:00.510120,-64
2021-10-14 16:11:00.510128,-50
2021-10-14 16:11:00.510136,-45
2021-10-14 16:11:00.510144,-55
2021-10-14 16:11:00.510153,-57
2021-10-14 16:11:00.510161,-55
2021-10-14 16:11:00.735245,-48
2021-10-14 16:11:00.735265,-43
2021-10-14 16:11:00.735274,-48
2021-10-14 16:11:00.735283,-55
2021-10-14 16:11:00.735291,-57
2021-10-14 16:11:00.735300,-57
2021-10-14 16:11:00.735308,-57
2021-10-14 16:11:00.735317,-52
2021-10-14 16:11:00.735325,-45
2021-10-14 16:11:00.735333,-38
2021-10-14 16:11:00.735342,-38
2021-10-14 16:11:00.735350,-57
2021-10-14 16:11:00.735358,-69
2021-10-14 16:11:00.735367,-60
2021-10-14 16:11:00.735375,-50
2021-10-14 16:11:00.735383,-57
2021-10-14 16:11:00.735392,-69
2021-10-14 16:11:00.735400,-69
2021-10-14 16:11:00.735408,-60
2021-10-14 16:11:00.735417,-52
2021-10-14 16:11:00.735425,-60
2021-10-14 16:11:00.735433,-64
2021-10-14 16:11:00.735442,-55
2021-10-14 16:11:00.735450,-48
2021-10-14 16:11:00.735459,-60
2021-10-14 16:11:00.735467,-57
2021-10-14 16:11:00.735475,-45
2021-10-14 16:11:00.735483,-50
2021-10-14 16:11:00.735492,-52
2021-10-14 16:11:00.735500,-36
2021-10-14 16:11:00.960315,-40
2021-10-14 16:11:00.960336,-64
2021-10-14 16:11:00.960346,-64
2021-10-14 16:11:00.960354,-57
2021-10-14 16:11:00.960363,-62
2021-10-14 16:11:00.960371,-72
2021-10-14 16:11:00.960379,-81
2021-10-14 16:11:00.960388,-74
2021-10-14 16:11:00.960396,-60
2021-10-14 16:11:00.960404,-52
2021-10-14 16:11:00.960413,-57
2021-10-14 16:11:00.960421,-60
2021-10-14 16:11:00.960429,-33
2021-10-14 16:11:00.960438,76
2021-10-14 16:11:00.960446,377
2021-10-14 16:11:00.960455,714
2021-10-14 16:11:00.960463,529
2021-10-14 16:11:00.960471,-365
2021-10-14 16:11:00.960480,-1053
2021-10-14 16:11:00.960488,-767
2021-10-14 16:11:00.960496,-247
2021-10-14 16:11:00.960505,-141
2021-10-14 16:11:00.960513,-86
2021-10-14 16:11:00.960522,43
2021-10-14 16:11:00.960530,50
2021-10-14 16:11:00.960538,4
2021-10-14 16:11:00.960547,24
2021-10-14 16:11:00.960555,48
2021-10-14 16:11:00.960585,48
2021-10-14 16:11:00.960593,48
2021-10-14 16:11:01.184944,55
2021-10-14 16:11:01.184965,60
2021-10-14 16:11:01.184975,67
2021-10-14 16:11:01.184984,64
2021-10-14 16:11:01.184992,55
2021-10-14 16:11:01.185000,64
2021-10-14 16:11:01.185009,93
2021-10-14 16:11:01.185017,115
2021-10-14 16:11:01.185026,110
2021-10-14 16:11:01.185034,110
2021-10-14 16:11:01.185042,127
2021-10-14 16:11:01.185051,144
2021-10-14 16:11:01.185059,144
2021-10-14 16:11:01.185068,144
2021-10-14 16:11:01.185076,151
2021-10-14 16:11:01.185084,144
2021-10-14 16:11:01.185093,127
2021-10-14 16:11:01.185101,129
2021-10-14 16:11:01.185109,129
2021-10-14 16:11:01.185118,93
2021-10-14 16:11:01.185126,48
2021-10-14 16:11:01.185134,21
2021-10-14 16:11:01.185143,-7
2021-10-14 16:11:01.185151,-38
2021-10-14 16:11:01.185159,-52
2021-10-14 16:11:01.185168,-69
2021-10-14 16:11:01.185176,-86
2021-10-14 16:11:01.185184,-93
2021-10-14 16:11:01.185192,-91
2021-10-14 16:11:01.185201,-98
2021-10-14 16:11:01.454935,-103
2021-10-14 16:11:01.454957,-101
2021-10-14 16:11:01.454966,-93
2021-10-14 16:11:01.454975,-91
2021-10-14 16:11:01.454984,-93
2021-10-14 16:11:01.454992,-98
2021-10-14 16:11:01.455001,-93
2021-10-14 16:11:01.455009,-76
2021-10-14 16:11:01.455018,-72
2021-10-14 16:11:01.455026,-76
2021-10-14 16:11:01.455035,-64
2021-10-14 16:11:01.455043,-45
2021-10-14 16:11:01.455051,-45
2021-10-14 16:11:01.455060,-36
2021-10-14 16:11:01.455068,-21
2021-10-14 16:11:01.455076,-28
2021-10-14 16:11:01.455085,-33
2021-10-14 16:11:01.455093,-21
2021-10-14 16:11:01.455101,-21
2021-10-14 16:11:01.455110,-21
2021-10-14 16:11:01.455118,-9
2021-10-14 16:11:01.455127,-12
2021-10-14 16:11:01.455135,-21
2021-10-14 16:11:01.455143,-19
2021-10-14 16:11:01.455151,-24
2021-10-14 16:11:01.455160,-43
2021-10-14 16:11:01.455168,-50
2021-10-14 16:11:01.455176,-48
2021-10-14 16:11:01.455185,-48
2021-10-14 16:11:01.455193,-43
2021-10-14 16:11:01.723538,-45
2021-10-14 16:11:01.723558,-60
2021-10-14 16:11:01.723568,-72
2021-10-14 16:11:01.723577,-69
2021-10-14 16:11:01.723585,-62
2021-10-14 16:11:01.723594,-55
2021-10-14 16:11:01.723602,-52
2021-10-14 16:11:01.723610,-60
2021-10-14 16:11:01.723619,-64
2021-10-14 16:11:01.723627,-60
2021-10-14 16:11:01.723635,-48
2021-10-14 16:11:01.723644,-52
2021-10-14 16:11:01.723652,-40
2021-10-14 16:11:01.723660,-14
2021-10-14 16:11:01.723669,-33
2021-10-14 16:11:01.723677,-67
2021-10-14 16:11:01.723685,-60
2021-10-14 16:11:01.723693,-50
2021-10-14 16:11:01.723702,-50
2021-10-14 16:11:01.723710,-50
2021-10-14 16:11:01.723718,-52
2021-10-14 16:11:01.723727,-55
2021-10-14 16:11:01.723735,-50
2021-10-14 16:11:01.723743,-48
2021-10-14 16:11:01.723752,-52
2021-10-14 16:11:01.723760,-43
2021-10-14 16:11:01.723768,-21
2021-10-14 16:11:01.723776,67
2021-10-14 16:11:01.723785,375
2021-10-14 16:11:01.723793,745
2021-10-14 16:11:01.905239,545
2021-10-14 16:11:01.905259,-418
2021-10-14 16:11:01.905268,-1115
2021-10-14 16:11:01.905277,-808
2021-10-14 16:11:01.905285,-315
2021-10-14 16:11:01.905294,-177
2021-10-14 16:11:01.905302,-45
2021-10-14 16:11:01.905311,81
2021-10-14 16:11:01.905319,60
2021-10-14 16:11:01.905327,45
2021-10-14 16:11:01.905336,93
2021-10-14 16:11:01.905344,96
2021-10-14 16:11:01.905353,81
2021-10-14 16:11:01.905361,96
2021-10-14 16:11:01.905369,105
2021-10-14 16:11:01.905378,105
2021-10-14 16:11:01.905386,113
2021-10-14 16:11:01.905402,122
2021-10-14 16:11:01.905411,125
2021-10-14 16:11:01.905419,129
2021-10-14 16:11:01.905428,132
2021-10-14 16:11:01.905436,139
2021-10-14 16:11:01.905444,158
2021-10-14 16:11:01.905452,175
2021-10-14 16:11:01.905460,187
2021-10-14 16:11:01.905469,197
2021-10-14 16:11:01.905477,202
2021-10-14 16:11:01.905486,202
2021-10-14 16:11:01.905494,197
2021-10-14 16:11:01.905502,204
2021-10-14 16:11:02.174619,202
2021-10-14 16:11:02.174639,170
2021-10-14 16:11:02.174648,127
2021-10-14 16:11:02.174657,93
2021-10-14 16:11:02.174666,72
2021-10-14 16:11:02.174674,45
2021-10-14 16:11:02.174682,-4
2021-10-14 16:11:02.174691,-52
2021-10-14 16:11:02.174699,-64
2021-10-14 16:11:02.174707,-76
2021-10-14 16:11:02.174715,-103
2021-10-14 16:11:02.174724,-115
2021-10-14 16:11:02.174732,-125
2021-10-14 16:11:02.174741,-137
2021-10-14 16:11:02.174749,-134
2021-10-14 16:11:02.174757,-127
2021-10-14 16:11:02.174765,-127
2021-10-14 16:11:02.174774,-113
2021-10-14 16:11:02.174782,-98
2021-10-14 16:11:02.174790,-103
2021-10-14 16:11:02.174799,-101
2021-10-14 16:11:02.174807,-86
2021-10-14 16:11:02.174815,-72
2021-10-14 16:11:02.174824,-62
2021-10-14 16:11:02.174832,-67
2021-10-14 16:11:02.174840,-74
2021-10-14 16:11:02.174848,-69
2021-10-14 16:11:02.174857,-72
2021-10-14 16:11:02.174865,-72
2021-10-14 16:11:02.174873,-62
2021-10-14 16:11:02.399949,-52
2021-10-14 16:11:02.399971,-52
2021-10-14 16:11:02.399980,-62
2021-10-14 16:11:02.399988,-69
2021-10-14 16:11:02.399997,-62
2021-10-14 16:11:02.400005,-55
2021-10-14 16:11:02.400014,-72
2021-10-14 16:11:02.400022,-88
2021-10-14 16:11:02.400030,-86
2021-10-14 16:11:02.400039,-79
2021-10-14 16:11:02.400047,-86
2021-10-14 16:11:02.400055,-88
2021-10-14 16:11:02.400063,-79
2021-10-14 16:11:02.400072,-72
2021-10-14 16:11:02.400080,-88
2021-10-14 16:11:02.400088,-105
2021-10-14 16:11:02.400097,-93
2021-10-14 16:11:02.400105,-84
2021-10-14 16:11:02.400114,-86
2021-10-14 16:11:02.400122,-76
2021-10-14 16:11:02.400130,-72
2021-10-14 16:11:02.400138,-88
2021-10-14 16:11:02.400147,-86
2021-10-14 16:11:02.400155,-55
2021-10-14 16:11:02.400163,-45
2021-10-14 16:11:02.400172,-57
2021-10-14 16:11:02.400180,-40
2021-10-14 16:11:02.400188,-26
2021-10-14 16:11:02.400197,-60
2021-10-14 16:11:02.400205,-79
2021-10-14 16:11:02.580246,-72
2021-10-14 16:11:02.580265,-81
2021-10-14 16:11:02.580275,-98
2021-10-14 16:11:02.580284,-86
2021-10-14 16:11:02.580292,-67
2021-10-14 16:11:02.580300,-69
2021-10-14 16:11:02.580309,-76
2021-10-14 16:11:02.580317,-67
2021-10-14 16:11:02.580325,-52
2021-10-14 16:11:02.580334,-38
2021-10-14 16:11:02.580342,52
2021-10-14 16:11:02.580350,348
2021-10-14 16:11:02.580359,714
2021-10-14 16:11:02.580367,572
2021-10-14 16:11:02.580375,-343
2021-10-14 16:11:02.580383,-1108
2021-10-14 16:11:02.580392,-884
2021-10-14 16:11:02.580400,-365
2021-10-14 16:11:02.580408,-202
2021-10-14 16:11:02.580428,-96
2021-10-14 16:11:02.580437,31
2021-10-14 16:11:02.580445,38
2021-10-14 16:11:02.580453,21
2021-10-14 16:11:02.580462,52
2021-10-14 16:11:02.580470,62
2021-10-14 16:11:02.580478,57
2021-10-14 16:11:02.580487,55
2021-10-14 16:11:02.580495,60
2021-10-14 16:11:02.580503,74
2021-10-14 16:11:02.580512,84
2021-10-14 16:11:02.805314,84
2021-10-14 16:11:02.805336,76
2021-10-14 16:11:02.805345,86
2021-10-14 16:11:02.805354,115
2021-10-14 16:11:02.805363,127
2021-10-14 16:11:02.805371,110
2021-10-14 16:11:02.805380,113
2021-10-14 16:11:02.805388,141
2021-10-14 16:11:02.805401,163
2021-10-14 16:11:02.805409,158
2021-10-14 16:11:02.805418,139
2021-10-14 16:11:02.805426,134
2021-10-14 16:11:02.805435,144
2021-10-14 16:11:02.805444,141
2021-10-14 16:11:02.805452,137
2021-10-14 16:11:02.805460,125
2021-10-14 16:11:02.805469,79
2021-10-14 16:11:02.805477,36
2021-10-14 16:11:02.805486,26
2021-10-14 16:11:02.805494,21
2021-10-14 16:11:02.805503,-24
2021-10-14 16:11:02.805511,-60
2021-10-14 16:11:02.805519,-62
2021-10-14 16:11:02.805528,-64
2021-10-14 16:11:02.805536,-86
2021-10-14 16:11:02.805544,-103
2021-10-14 16:11:02.805552,-98
2021-10-14 16:11:02.805561,-91
2021-10-14 16:11:02.805569,-101
2021-10-14 16:11:02.805577,-103
2021-10-14 16:11:03.074910,-84
2021-10-14 16:11:03.074930,-79
2021-10-14 16:11:03.074940,-86
2021-10-14 16:11:03.074948,-86
2021-10-14 16:11:03.074957,-91
2021-10-14 16:11:03.074965,-88
2021-10-14 16:11:03.074973,-79
2021-10-14 16:11:03.074981,-69
2021-10-14 16:11:03.074990,-57
2021-10-14 16:11:03.074998,-57
2021-10-14 16:11:03.075006,-62
2021-10-14 16:11:03.075014,-57
2021-10-14 16:11:03.075023,-60
2021-10-14 16:11:03.075031,-50
2021-10-14 16:11:03.075039,-28
2021-10-14 16:11:03.075047,-45
2021-10-14 16:11:03.075055,-79
2021-10-14 16:11:03.075063,-76
2021-10-14 16:11:03.075072,-57
2021-10-14 16:11:03.075080,-57
2021-10-14 16:11:03.075088,-72
2021-10-14 16:11:03.075096,-86
2021-10-14 16:11:03.075105,-93
2021-10-14 16:11:03.075113,-76
2021-10-14 16:11:03.075121,-52
2021-10-14 16:11:03.075129,-60
2021-10-14 16:11:03.075137,-86
2021-10-14 16:11:03.075146,-84
2021-10-14 16:11:03.075154,-62
2021-10-14 16:11:03.075162,-64
2021-10-14 16:11:03.345413,-84
2021-10-14 16:11:03.345435,-81
2021-10-14 16:11:03.345444,-79
2021-10-14 16:11:03.345453,-98
2021-10-14 16:11:03.345462,-91
2021-10-14 16:11:03.345470,-55
2021-10-14 16:11:03.345479,-62
2021-10-14 16:11:03.345487,-81
2021-10-14 16:11:03.345495,-55
2021-10-14 16:11:03.345504,-43
2021-10-14 16:11:03.345512,-57
2021-10-14 16:11:03.345520,-62
2021-10-14 16:11:03.345529,-57
2021-10-14 16:11:03.345537,-52
2021-10-14 16:11:03.345546,-74
2021-10-14 16:11:03.345554,-113
2021-10-14 16:11:03.345563,-110
2021-10-14 16:11:03.345571,-60
2021-10-14 16:11:03.345579,-36
2021-10-14 16:11:03.345588,-64
2021-10-14 16:11:03.345596,-72
2021-10-14 16:11:03.345605,-48
2021-10-14 16:11:03.345613,-45
2021-10-14 16:11:03.345622,-40
2021-10-14 16:11:03.345630,55
2021-10-14 16:11:03.345638,343
2021-10-14 16:11:03.345647,694
2021-10-14 16:11:03.345655,591
2021-10-14 16:11:03.345664,-254
2021-10-14 16:11:03.345672,-1012
2021-10-14 16:11:03.524911,-827
2021-10-14 16:11:03.524931,-324
2021-10-14 16:11:03.524940,-165
2021-10-14 16:11:03.524949,-74
2021-10-14 16:11:03.524957,62
2021-10-14 16:11:03.524966,76
2021-10-14 16:11:03.524974,52
2021-10-14 16:11:03.524982,76
2021-10-14 16:11:03.524990,86
2021-10-14 16:11:03.524999,81
2021-10-14 16:11:03.525007,81
2021-10-14 16:11:03.525015,76
2021-10-14 16:11:03.525024,88
2021-10-14 16:11:03.525032,105
2021-10-14 16:11:03.525040,101
2021-10-14 16:11:03.525048,110
2021-10-14 16:11:03.525057,132
2021-10-14 16:11:03.525065,134
2021-10-14 16:11:03.525073,144
2021-10-14 16:11:03.525081,158
2021-10-14 16:11:03.525089,144
2021-10-14 16:11:03.525098,129
2021-10-14 16:11:03.525106,165
2021-10-14 16:11:03.525114,204
2021-10-14 16:11:03.525122,197
2021-10-14 16:11:03.525131,173
2021-10-14 16:11:03.525139,173
2021-10-14 16:11:03.525147,163
2021-10-14 16:11:03.525155,137
2021-10-14 16:11:03.525163,122
2021-10-14 16:11:03.793969,108
2021-10-14 16:11:03.793990,76
2021-10-14 16:11:03.794000,52
2021-10-14 16:11:03.794008,33
2021-10-14 16:11:03.794017,-4
2021-10-14 16:11:03.794025,-50
2021-10-14 16:11:03.794033,-67
2021-10-14 16:11:03.794042,-60
2021-10-14 16:11:03.794050,-57
2021-10-14 16:11:03.794059,-74
2021-10-14 16:11:03.794067,-88
2021-10-14 16:11:03.794075,-93
2021-10-14 16:11:03.794084,-96
2021-10-14 16:11:03.794092,-98
2021-10-14 16:11:03.794100,-101
2021-10-14 16:11:03.794109,-86
2021-10-14 16:11:03.794117,-72
2021-10-14 16:11:03.794125,-81
2021-10-14 16:11:03.794133,-88
2021-10-14 16:11:03.794141,-62
2021-10-14 16:11:03.794150,-45
2021-10-14 16:11:03.794158,-57
2021-10-14 16:11:03.794166,-43
2021-10-14 16:11:03.794175,-16
2021-10-14 16:11:03.794183,-16
2021-10-14 16:11:03.794191,-21
2021-10-14 16:11:03.794199,-16
2021-10-14 16:11:03.794208,-26
2021-10-14 16:11:03.794216,-33
2021-10-14 16:11:03.794224,-12
2021-10-14 16:11:03.975229,-4
2021-10-14 16:11:03.975248,-26
2021-10-14 16:11:03.975257,-36
2021-10-14 16:11:03.975266,-19
2021-10-14 16:11:03.975274,2
2021-10-14 16:11:03.975283,7
2021-10-14 16:11:03.975291,-12
2021-10-14 16:11:03.975300,-31
2021-10-14 16:11:03.975308,-38
2021-10-14 16:11:03.975316,-45
2021-10-14 16:11:03.975325,-48
2021-10-14 16:11:03.975333,-36
2021-10-14 16:11:03.975341,-24
2021-10-14 16:11:03.975350,-40
2021-10-14 16:11:03.975358,-67
2021-10-14 16:11:03.975366,-64
2021-10-14 16:11:03.975375,-43
2021-10-14 16:11:03.975383,-33
2021-10-14 16:11:03.975391,-24
2021-10-14 16:11:03.975399,-31
2021-10-14 16:11:03.975408,-38
2021-10-14 16:11:03.975416,-43
2021-10-14 16:11:03.975424,-64
2021-10-14 16:11:03.975433,-79
2021-10-14 16:11:03.975441,-62
2021-10-14 16:11:03.975449,-52
2021-10-14 16:11:03.975458,-67
2021-10-14 16:11:03.975466,-72
2021-10-14 16:11:03.975474,-62
2021-10-14 16:11:03.975482,-57
2021-10-14 16:11:04.200328,-62
2021-10-14 16:11:04.200348,-76
2021-10-14 16:11:04.200358,-67
2021-10-14 16:11:04.200366,-26
2021-10-14 16:11:04.200375,0
2021-10-14 16:11:04.200383,110
2021-10-14 16:11:04.200392,466
2021-10-14 16:11:04.200400,776
2021-10-14 16:11:04.200408,389
2021-10-14 16:11:04.200417,-637
2021-10-14 16:11:04.200425,-1149
2021-10-14 16:11:04.200433,-719
2021-10-14 16:11:04.200442,-281
2021-10-14 16:11:04.200450,-175
2021-10-14 16:11:04.200459,-28
2021-10-14 16:11:04.200467,64
2021-10-14 16:11:04.200476,26
2021-10-14 16:11:04.200484,31
2021-10-14 16:11:04.200492,74
2021-10-14 16:11:04.200500,84
2021-10-14 16:11:04.200508,81
2021-10-14 16:11:04.200517,86
2021-10-14 16:11:04.200525,98
2021-10-14 16:11:04.200534,117
2021-10-14 16:11:04.200542,115
2021-10-14 16:11:04.200550,105
2021-10-14 16:11:04.200563,122
2021-10-14 16:11:04.200572,151
2021-10-14 16:11:04.200580,165
2021-10-14 16:11:04.200589,168
2021-10-14 16:11:04.424979,185
2021-10-14 16:11:04.425000,211
2021-10-14 16:11:04.425009,226
2021-10-14 16:11:04.425018,223
2021-10-14 16:11:04.425026,235
2021-10-14 16:11:04.425035,245
2021-10-14 16:11:04.425043,238
2021-10-14 16:11:04.425051,230
2021-10-14 16:11:04.425059,211
2021-10-14 16:11:04.425068,187
2021-10-14 16:11:04.425076,187
2021-10-14 16:11:04.425085,170
2021-10-14 16:11:04.425093,125
2021-10-14 16:11:04.425101,96
2021-10-14 16:11:04.425109,67
2021-10-14 16:11:04.425118,26
2021-10-14 16:11:04.425126,-4
2021-10-14 16:11:04.425134,-24
2021-10-14 16:11:04.425143,-31
2021-10-14 16:11:04.425151,-31
2021-10-14 16:11:04.425159,-26
2021-10-14 16:11:04.425168,-21
2021-10-14 16:11:04.425176,-21
2021-10-14 16:11:04.425184,-24
2021-10-14 16:11:04.425192,-28
2021-10-14 16:11:04.425201,-16
2021-10-14 16:11:04.425209,-2
2021-10-14 16:11:04.425217,-7
2021-10-14 16:11:04.425226,-4
2021-10-14 16:11:04.425234,14
2021-10-14 16:11:04.695332,28
2021-10-14 16:11:04.695354,33
2021-10-14 16:11:04.695364,50
2021-10-14 16:11:04.695372,60
2021-10-14 16:11:04.695380,48
2021-10-14 16:11:04.695389,36
2021-10-14 16:11:04.695397,38
2021-10-14 16:11:04.695405,45
2021-10-14 16:11:04.695413,52
2021-10-14 16:11:04.695421,43
2021-10-14 16:11:04.695430,28
2021-10-14 16:11:04.695438,36
2021-10-14 16:11:04.695446,52
2021-10-14 16:11:04.695454,52
2021-10-14 16:11:04.695462,48
2021-10-14 16:11:04.695470,38
2021-10-14 16:11:04.695478,33
2021-10-14 16:11:04.695486,40
2021-10-14 16:11:04.695495,48
2021-10-14 16:11:04.695503,50
2021-10-14 16:11:04.695511,55
2021-10-14 16:11:04.695519,60
2021-10-14 16:11:04.695527,52
2021-10-14 16:11:04.695535,45
2021-10-14 16:11:04.695543,52
2021-10-14 16:11:04.695551,60
2021-10-14 16:11:04.695560,72
2021-10-14 16:11:04.695568,81
2021-10-14 16:11:04.695576,67
2021-10-14 16:11:04.695584,57
2021-10-14 16:11:04.875394,72
2021-10-14 16:11:04.875416,79
2021-10-14 16:11:04.875425,81
2021-10-14 16:11:04.875434,103
2021-10-14 16:11:04.875442,101
2021-10-14 16:11:04.875451,55
2021-10-14 16:11:04.875459,24
2021-10-14 16:11:04.875468,31
2021-10-14 16:11:04.875476,38
2021-10-14 16:11:04.875484,26
2021-10-14 16:11:04.875493,21
2021-10-14 16:11:04.875501,38
2021-10-14 16:11:04.875509,48
2021-10-14 16:11:04.875518,40
2021-10-14 16:11:04.875526,36
2021-10-14 16:11:04.875534,26
2021-10-14 16:11:04.875542,31
2021-10-14 16:11:04.875551,91
2021-10-14 16:11:04.875559,283
2021-10-14 16:11:04.875567,642
2021-10-14 16:11:04.875576,827
2021-10-14 16:11:04.875584,262
2021-10-14 16:11:04.875592,-731
2021-10-14 16:11:04.875600,-997
2021-10-14 16:11:04.875608,-485
2021-10-14 16:11:04.875617,-132
2021-10-14 16:11:04.875625,-48
2021-10-14 16:11:04.875633,69
2021-10-14 16:11:04.875642,115
2021-10-14 16:11:04.875650,96
2021-10-14 16:11:05.145371,127
2021-10-14 16:11:05.145393,141
2021-10-14 16:11:05.145402,122
2021-10-14 16:11:05.145411,127
2021-10-14 16:11:05.145420,146
2021-10-14 16:11:05.145428,153
2021-10-14 16:11:05.145436,141
2021-10-14 16:11:05.145445,137
2021-10-14 16:11:05.145453,151
2021-10-14 16:11:05.145461,161
2021-10-14 16:11:05.145470,156
2021-10-14 16:11:05.145478,153
2021-10-14 16:11:05.145486,163
2021-10-14 16:11:05.145494,177
2021-10-14 16:11:05.145503,194
2021-10-14 16:11:05.145511,199
2021-10-14 16:11:05.145519,199
2021-10-14 16:11:05.145527,202
2021-10-14 16:11:05.145536,209
2021-10-14 16:11:05.145544,226
2021-10-14 16:11:05.145552,228
2021-10-14 16:11:05.145560,192
2021-10-14 16:11:05.145569,153
2021-10-14 16:11:05.145577,141
2021-10-14 16:11:05.145586,132
2021-10-14 16:11:05.145594,98
2021-10-14 16:11:05.145602,52
2021-10-14 16:11:05.145610,24
2021-10-14 16:11:05.145619,21
2021-10-14 16:11:05.145627,16
2021-10-14 16:11:05.370444,-12
2021-10-14 16:11:05.370467,-38
2021-10-14 16:11:05.370476,-45
2021-10-14 16:11:05.370485,-52
2021-10-14 16:11:05.370494,-62
2021-10-14 16:11:05.370502,-48
2021-10-14 16:11:05.370510,-26
2021-10-14 16:11:05.370519,-50
2021-10-14 16:11:05.370527,-67
2021-10-14 16:11:05.370535,-38
2021-10-14 16:11:05.370544,-33
2021-10-14 16:11:05.370552,-55
2021-10-14 16:11:05.370560,-38
2021-10-14 16:11:05.370569,-12
2021-10-14 16:11:05.370577,-24
2021-10-14 16:11:05.370585,-36
2021-10-14 16:11:05.370593,-24
2021-10-14 16:11:05.370602,-9
2021-10-14 16:11:05.370610,-4
2021-10-14 16:11:05.370618,0
2021-10-14 16:11:05.370627,-9
2021-10-14 16:11:05.370635,-33
2021-10-14 16:11:05.370643,-14
2021-10-14 16:11:05.370651,12
2021-10-14 16:11:05.370660,-4
2021-10-14 16:11:05.370668,-21
2021-10-14 16:11:05.370676,-26
2021-10-14 16:11:05.370684,-36
2021-10-14 16:11:05.370693,-24
2021-10-14 16:11:05.370701,-12
2021-10-14 16:11:05.594976,-21
2021-10-14 16:11:05.594997,-33
2021-10-14 16:11:05.595006,-26
2021-10-14 16:11:05.595015,-12
2021-10-14 16:11:05.595023,-19
2021-10-14 16:11:05.595031,-19
2021-10-14 16:11:05.595040,-4
2021-10-14 16:11:05.595048,-14
2021-10-14 16:11:05.595056,-38
2021-10-14 16:11:05.595064,-40
2021-10-14 16:11:05.595073,-16
2021-10-14 16:11:05.595081,-12
2021-10-14 16:11:05.595089,-21
2021-10-14 16:11:05.595097,-9
2021-10-14 16:11:05.595105,-12
2021-10-14 16:11:05.595114,-36
2021-10-14 16:11:05.595122,-31
2021-10-14 16:11:05.595130,-12
2021-10-14 16:11:05.595138,-12
2021-10-14 16:11:05.595146,-43
2021-10-14 16:11:05.595155,-81
2021-10-14 16:11:05.595163,-86
2021-10-14 16:11:05.595171,-74
2021-10-14 16:11:05.595179,-72
2021-10-14 16:11:05.595187,-76
2021-10-14 16:11:05.595195,-84
2021-10-14 16:11:05.595203,-86
2021-10-14 16:11:05.595212,-88
2021-10-14 16:11:05.595220,-88
2021-10-14 16:11:05.595228,-69
2021-10-14 16:11:05.864028,-48
2021-10-14 16:11:05.864049,-21
2021-10-14 16:11:05.864059,132
2021-10-14 16:11:05.864067,490
2021-10-14 16:11:05.864075,752
2021-10-14 16:11:05.864084,334
2021-10-14 16:11:05.864092,-670
2021-10-14 16:11:05.864100,-1147
2021-10-14 16:11:05.864109,-680
2021-10-14 16:11:05.864117,-235
2021-10-14 16:11:05.864125,-180
2021-10-14 16:11:05.864134,-69
2021-10-14 16:11:05.864142,55
2021-10-14 16:11:05.864150,24
2021-10-14 16:11:05.864159,0
2021-10-14 16:11:05.864167,33
2021-10-14 16:11:05.864175,43
2021-10-14 16:11:05.864183,55
2021-10-14 16:11:05.864192,67
2021-10-14 16:11:05.864200,48
2021-10-14 16:11:05.864208,52
2021-10-14 16:11:05.864216,88
2021-10-14 16:11:05.864225,86
2021-10-14 16:11:05.864233,79
2021-10-14 16:11:05.864241,110
2021-10-14 16:11:05.864249,127
2021-10-14 16:11:05.864257,113
2021-10-14 16:11:05.864265,120
2021-10-14 16:11:05.864274,132
2021-10-14 16:11:05.864282,134
2021-10-14 16:11:06.045377,156
2021-10-14 16:11:06.045398,177
2021-10-14 16:11:06.045408,173
2021-10-14 16:11:06.045417,173
2021-10-14 16:11:06.045425,192
2021-10-14 16:11:06.045433,189
2021-10-14 16:11:06.045442,146
2021-10-14 16:11:06.045450,98
2021-10-14 16:11:06.045458,72
2021-10-14 16:11:06.045467,55
2021-10-14 16:11:06.045475,4
2021-10-14 16:11:06.045483,-43
2021-10-14 16:11:06.045492,-38
2021-10-14 16:11:06.045500,-33
2021-10-14 16:11:06.045508,-76
2021-10-14 16:11:06.045516,-115
2021-10-14 16:11:06.045525,-115
2021-10-14 16:11:06.045533,-110
2021-10-14 16:11:06.045541,-115
2021-10-14 16:11:06.045550,-113
2021-10-14 16:11:06.045558,-108
2021-10-14 16:11:06.045566,-115
2021-10-14 16:11:06.045574,-117
2021-10-14 16:11:06.045583,-115
2021-10-14 16:11:06.045591,-125
2021-10-14 16:11:06.045599,-105
2021-10-14 16:11:06.045608,-62
2021-10-14 16:11:06.045616,-67
2021-10-14 16:11:06.045624,-93
2021-10-14 16:11:06.045632,-79
2021-10-14 16:11:06.269951,-64
2021-10-14 16:11:06.269972,-74
2021-10-14 16:11:06.269982,-67
2021-10-14 16:11:06.269990,-52
2021-10-14 16:11:06.269999,-50
2021-10-14 16:11:06.270007,-50
2021-10-14 16:11:06.270016,-50
2021-10-14 16:11:06.270024,-57
2021-10-14 16:11:06.270032,-60
2021-10-14 16:11:06.270041,-50
2021-10-14 16:11:06.270049,-45
2021-10-14 16:11:06.270057,-57
2021-10-14 16:11:06.270065,-76
2021-10-14 16:11:06.270074,-72
2021-10-14 16:11:06.270082,-50
2021-10-14 16:11:06.270090,-48
2021-10-14 16:11:06.270099,-55
2021-10-14 16:11:06.270107,-52
2021-10-14 16:11:06.270115,-50
2021-10-14 16:11:06.270123,-45
2021-10-14 16:11:06.270132,-48
2021-10-14 16:11:06.270140,-57
2021-10-14 16:11:06.270148,-48
2021-10-14 16:11:06.270157,-33
2021-10-14 16:11:06.270165,-45
2021-10-14 16:11:06.270173,-50
2021-10-14 16:11:06.270181,-38
2021-10-14 16:11:06.270190,-43
2021-10-14 16:11:06.270198,-43
2021-10-14 16:11:06.270206,-33
2021-10-14 16:11:06.629809,-38
2021-10-14 16:11:06.629831,-43
2021-10-14 16:11:06.629840,-38
2021-10-14 16:11:06.629849,-45
2021-10-14 16:11:06.629857,-48
2021-10-14 16:11:06.629865,-45
2021-10-14 16:11:06.629874,-64
2021-10-14 16:11:06.629882,-84
2021-10-14 16:11:06.629890,-86
2021-10-14 16:11:06.629898,-81
2021-10-14 16:11:06.629907,-88
2021-10-14 16:11:06.629915,-96
2021-10-14 16:11:06.629923,-91
2021-10-14 16:11:06.629931,-81
2021-10-14 16:11:06.629939,-79
2021-10-14 16:11:06.629948,-79
2021-10-14 16:11:06.629956,-74
2021-10-14 16:11:06.629964,-57
2021-10-14 16:11:06.629972,-19
2021-10-14 16:11:06.629981,139
2021-10-14 16:11:06.629989,517
2021-10-14 16:11:06.630009,795
2021-10-14 16:11:06.630017,370
2021-10-14 16:11:06.630026,-666
2021-10-14 16:11:06.630034,-1168
2021-10-14 16:11:06.630042,-682
2021-10-14 16:11:06.630051,-202
2021-10-14 16:11:06.630059,-139
2021-10-14 16:11:06.630067,-43
2021-10-14 16:11:06.630076,60
2021-10-14 16:11:06.765351,26
2021-10-14 16:11:06.765372,21
2021-10-14 16:11:06.765381,62
2021-10-14 16:11:06.765390,45
2021-10-14 16:11:06.765398,33
2021-10-14 16:11:06.765407,62
2021-10-14 16:11:06.765415,88
2021-10-14 16:11:06.765424,93
2021-10-14 16:11:06.765432,88
2021-10-14 16:11:06.765440,93
2021-10-14 16:11:06.765449,98
2021-10-14 16:11:06.765457,101
2021-10-14 16:11:06.765465,113
2021-10-14 16:11:06.765474,125
2021-10-14 16:11:06.765482,125
2021-10-14 16:11:06.765490,137
2021-10-14 16:11:06.765499,156
2021-10-14 16:11:06.765507,168
2021-10-14 16:11:06.765515,177
2021-10-14 16:11:06.765524,199
2021-10-14 16:11:06.765532,206
2021-10-14 16:11:06.765540,192
2021-10-14 16:11:06.765548,173
2021-10-14 16:11:06.765557,149
2021-10-14 16:11:06.765565,132
2021-10-14 16:11:06.765573,117
2021-10-14 16:11:06.765581,72
2021-10-14 16:11:06.765590,24
2021-10-14 16:11:06.765598,2
2021-10-14 16:11:06.765606,-19
2021-10-14 16:11:07.035445,-45
2021-10-14 16:11:07.035468,-57
2021-10-14 16:11:07.035477,-67
2021-10-14 16:11:07.035486,-84
2021-10-14 16:11:07.035495,-96
2021-10-14 16:11:07.035503,-96
2021-10-14 16:11:07.035512,-101
2021-10-14 16:11:07.035520,-115
2021-10-14 16:11:07.035529,-127
2021-10-14 16:11:07.035537,-139
2021-10-14 16:11:07.035546,-137
2021-10-14 16:11:07.035554,-113
2021-10-14 16:11:07.035563,-96
2021-10-14 16:11:07.035572,-81
2021-10-14 16:11:07.035580,-52
2021-10-14 16:11:07.035588,-40
2021-10-14 16:11:07.035597,-55
2021-10-14 16:11:07.035605,-52
2021-10-14 16:11:07.035614,-45
2021-10-14 16:11:07.035622,-52
2021-10-14 16:11:07.035631,-55
2021-10-14 16:11:07.035639,-45
2021-10-14 16:11:07.035647,-38
2021-10-14 16:11:07.035656,-26
2021-10-14 16:11:07.035664,-16
2021-10-14 16:11:07.035672,-24
2021-10-14 16:11:07.035681,-28
2021-10-14 16:11:07.035689,-19
2021-10-14 16:11:07.035698,-21
2021-10-14 16:11:07.035706,-31
2021-10-14 16:11:07.215385,-21
2021-10-14 16:11:07.215407,-12
2021-10-14 16:11:07.215417,-24
2021-10-14 16:11:07.215426,-36
2021-10-14 16:11:07.215434,-43
2021-10-14 16:11:07.215442,-62
2021-10-14 16:11:07.215451,-67
2021-10-14 16:11:07.215459,-50
2021-10-14 16:11:07.215467,-45
2021-10-14 16:11:07.215475,-50
2021-10-14 16:11:07.215484,-50
2021-10-14 16:11:07.215492,-48
2021-10-14 16:11:07.215500,-45
2021-10-14 16:11:07.215508,-40
2021-10-14 16:11:07.215516,-40
2021-10-14 16:11:07.215525,-48
2021-10-14 16:11:07.215533,-50
2021-10-14 16:11:07.215541,-50
2021-10-14 16:11:07.215549,-52
2021-10-14 16:11:07.215558,-55
2021-10-14 16:11:07.215566,-57
2021-10-14 16:11:07.215574,-52
2021-10-14 16:11:07.215582,-43
2021-10-14 16:11:07.215590,-28
2021-10-14 16:11:07.215598,-24
2021-10-14 16:11:07.215607,-48
2021-10-14 16:11:07.215615,-74
2021-10-14 16:11:07.215623,-62
2021-10-14 16:11:07.215631,-40
2021-10-14 16:11:07.215640,-48
2021-10-14 16:11:07.618777,-60
2021-10-14 16:11:07.618798,-55
2021-10-14 16:11:07.618808,-45
2021-10-14 16:11:07.618816,-43
2021-10-14 16:11:07.618825,-31
2021-10-14 16:11:07.618833,-24
2021-10-14 16:11:07.618842,-28
2021-10-14 16:11:07.618850,-12
2021-10-14 16:11:07.618858,69
2021-10-14 16:11:07.618867,327
2021-10-14 16:11:07.618875,685
2021-10-14 16:11:07.618884,625
2021-10-14 16:11:07.618892,-192
2021-10-14 16:11:07.618901,-1007
2021-10-14 16:11:07.618909,-887
2021-10-14 16:11:07.618917,-334
2021-10-14 16:11:07.618926,-129
2021-10-14 16:11:07.618934,-64
2021-10-14 16:11:07.618943,48
2021-10-14 16:11:07.618951,57
2021-10-14 16:11:07.618959,31
2021-10-14 16:11:07.618968,67
2021-10-14 16:11:07.618976,79
2021-10-14 16:11:07.618985,55
2021-10-14 16:11:07.618993,67
2021-10-14 16:11:07.619001,96
2021-10-14 16:11:07.619009,96
2021-10-14 16:11:07.619018,96
2021-10-14 16:11:07.619026,108
2021-10-14 16:11:07.619034,113
2021-10-14 16:11:07.709355,120
2021-10-14 16:11:07.709376,127
2021-10-14 16:11:07.709385,132
2021-10-14 16:11:07.709394,144
2021-10-14 16:11:07.709402,163
2021-10-14 16:11:07.709410,173
2021-10-14 16:11:07.709419,182
2021-10-14 16:11:07.709427,192
2021-10-14 16:11:07.709435,187
2021-10-14 16:11:07.709444,185
2021-10-14 16:11:07.709452,185
2021-10-14 16:11:07.709460,165
2021-10-14 16:11:07.709469,144
2021-10-14 16:11:07.709477,132
2021-10-14 16:11:07.709485,113
2021-10-14 16:11:07.709493,91
2021-10-14 16:11:07.709502,67
2021-10-14 16:11:07.709510,31
2021-10-14 16:11:07.709518,-7
2021-10-14 16:11:07.709526,-31
2021-10-14 16:11:07.709534,-45
2021-10-14 16:11:07.709543,-62
2021-10-14 16:11:07.709551,-74
2021-10-14 16:11:07.709559,-72
2021-10-14 16:11:07.709568,-69
2021-10-14 16:11:07.709576,-67
2021-10-14 16:11:07.709584,-64
2021-10-14 16:11:07.709592,-62
2021-10-14 16:11:07.709600,-62
2021-10-14 16:11:07.709609,-67
2021-10-14 16:11:07.934050,-67
2021-10-14 16:11:07.934071,-57
2021-10-14 16:11:07.934081,-48
2021-10-14 16:11:07.934089,-40
2021-10-14 16:11:07.934098,-36
2021-10-14 16:11:07.934106,-21
2021-10-14 16:11:07.934114,-12
2021-10-14 16:11:07.934123,-21
2021-10-14 16:11:07.934131,-28
2021-10-14 16:11:07.934139,-12
2021-10-14 16:11:07.934147,4
2021-10-14 16:11:07.934156,0
2021-10-14 16:11:07.934164,-16
2021-10-14 16:11:07.934172,-14
2021-10-14 16:11:07.934180,-9
2021-10-14 16:11:07.934189,-16
2021-10-14 16:11:07.934197,-21
2021-10-14 16:11:07.934205,-19
2021-10-14 16:11:07.934214,-19
2021-10-14 16:11:07.934222,-19
2021-10-14 16:11:07.934230,-24
2021-10-14 16:11:07.934238,-24
2021-10-14 16:11:07.934246,-19
2021-10-14 16:11:07.934254,-19
2021-10-14 16:11:07.934263,-19
2021-10-14 16:11:07.934271,-21
2021-10-14 16:11:07.934279,-26
2021-10-14 16:11:07.934287,-26
2021-10-14 16:11:07.934295,-21
2021-10-14 16:11:07.934303,-24
2021-10-14 16:11:08.250357,-33
2021-10-14 16:11:08.250378,-36
2021-10-14 16:11:08.250388,-36
2021-10-14 16:11:08.250396,-31
2021-10-14 16:11:08.250405,-26
2021-10-14 16:11:08.250413,-24
2021-10-14 16:11:08.250422,-21
2021-10-14 16:11:08.250430,-14
2021-10-14 16:11:08.250438,-4
2021-10-14 16:11:08.250446,0
2021-10-14 16:11:08.250455,4
2021-10-14 16:11:08.250463,4
2021-10-14 16:11:08.250471,-16
2021-10-14 16:11:08.250480,-33
2021-10-14 16:11:08.250488,-36
2021-10-14 16:11:08.250496,-40
2021-10-14 16:11:08.250505,-40
2021-10-14 16:11:08.250513,-40
2021-10-14 16:11:08.250522,-45
2021-10-14 16:11:08.250530,-45
2021-10-14 16:11:08.250538,-43
2021-10-14 16:11:08.250547,-31
2021-10-14 16:11:08.250555,-14
2021-10-14 16:11:08.250563,-4
2021-10-14 16:11:08.250572,45
2021-10-14 16:11:08.250580,271
2021-10-14 16:11:08.250588,673
2021-10-14 16:11:08.250597,786
2021-10-14 16:11:08.250605,84
2021-10-14 16:11:08.250613,-901
2021-10-14 16:11:08.340070,-1024
2021-10-14 16:11:08.340091,-454
2021-10-14 16:11:08.340100,-139
2021-10-14 16:11:08.340108,-79
2021-10-14 16:11:08.340116,43
2021-10-14 16:11:08.340124,103
2021-10-14 16:11:08.340132,79
2021-10-14 16:11:08.340140,96
2021-10-14 16:11:08.340149,122
2021-10-14 16:11:08.340157,115
2021-10-14 16:11:08.340165,120
2021-10-14 16:11:08.340173,125
2021-10-14 16:11:08.340181,113
2021-10-14 16:11:08.340189,132
2021-10-14 16:11:08.340198,161
2021-10-14 16:11:08.340206,153
2021-10-14 16:11:08.340214,137
2021-10-14 16:11:08.340222,146
2021-10-14 16:11:08.340230,163
2021-10-14 16:11:08.340238,168
2021-10-14 16:11:08.340247,173
2021-10-14 16:11:08.340255,194
2021-10-14 16:11:08.340263,216
2021-10-14 16:11:08.340271,211
2021-10-14 16:11:08.340279,209
2021-10-14 16:11:08.340287,226
2021-10-14 16:11:08.340295,233
2021-10-14 16:11:08.340303,223
2021-10-14 16:11:08.340311,214
2021-10-14 16:11:08.340319,187
2021-10-14 16:11:08.565392,151
2021-10-14 16:11:08.565413,125
2021-10-14 16:11:08.565422,91
2021-10-14 16:11:08.565430,55
2021-10-14 16:11:08.565439,14
2021-10-14 16:11:08.565447,-24
2021-10-14 16:11:08.565455,-40
2021-10-14 16:11:08.565464,-60
2021-10-14 16:11:08.565472,-84
2021-10-14 16:11:08.565480,-86
2021-10-14 16:11:08.565489,-76
2021-10-14 16:11:08.565497,-81
2021-10-14 16:11:08.565505,-79
2021-10-14 16:11:08.565513,-79
2021-10-14 16:11:08.565521,-88
2021-10-14 16:11:08.565530,-88
2021-10-14 16:11:08.565538,-79
2021-10-14 16:11:08.565546,-74
2021-10-14 16:11:08.565554,-72
2021-10-14 16:11:08.565563,-64
2021-10-14 16:11:08.565571,-50
2021-10-14 16:11:08.565579,-52
2021-10-14 16:11:08.565587,-60
2021-10-14 16:11:08.565595,-50
2021-10-14 16:11:08.565604,-40
2021-10-14 16:11:08.565612,-45
2021-10-14 16:11:08.565620,-43
2021-10-14 16:11:08.565628,-28
2021-10-14 16:11:08.565637,-26
2021-10-14 16:11:08.565645,-31
2021-10-14 16:11:08.790028,-24
2021-10-14 16:11:08.790050,-21
2021-10-14 16:11:08.790059,-26
2021-10-14 16:11:08.790068,-38
2021-10-14 16:11:08.790076,-52
2021-10-14 16:11:08.790084,-55
2021-10-14 16:11:08.790093,-45
2021-10-14 16:11:08.790101,-40
2021-10-14 16:11:08.790109,-43
2021-10-14 16:11:08.790118,-50
2021-10-14 16:11:08.790126,-50
2021-10-14 16:11:08.790134,-45
2021-10-14 16:11:08.790143,-57
2021-10-14 16:11:08.790151,-69
2021-10-14 16:11:08.790159,-64
2021-10-14 16:11:08.790167,-57
2021-10-14 16:11:08.790176,-64
2021-10-14 16:11:08.790184,-67
2021-10-14 16:11:08.790193,-57
2021-10-14 16:11:08.790201,-48
2021-10-14 16:11:08.790209,-48
2021-10-14 16:11:08.790218,-60
2021-10-14 16:11:08.790226,-55
2021-10-14 16:11:08.790234,-26
2021-10-14 16:11:08.790242,-12
2021-10-14 16:11:08.790251,-40
2021-10-14 16:11:08.790259,-69
2021-10-14 16:11:08.790267,-69
2021-10-14 16:11:08.790275,-52
2021-10-14 16:11:08.790284,-40
2021-10-14 16:11:09.104971,-36
2021-10-14 16:11:09.104994,-33
2021-10-14 16:11:09.105003,-38
2021-10-14 16:11:09.105012,-38
2021-10-14 16:11:09.105020,-28
2021-10-14 16:11:09.105028,-19
2021-10-14 16:11:09.105036,-12
2021-10-14 16:11:09.105045,50
2021-10-14 16:11:09.105053,286
2021-10-14 16:11:09.105062,680
2021-10-14 16:11:09.105070,762
2021-10-14 16:11:09.105078,9
2021-10-14 16:11:09.105087,-961
2021-10-14 16:11:09.105095,-995
2021-10-14 16:11:09.105103,-411
2021-10-14 16:11:09.105111,-153
2021-10-14 16:11:09.105120,-101
2021-10-14 16:11:09.105128,43
2021-10-14 16:11:09.105136,93
2021-10-14 16:11:09.105145,62
2021-10-14 16:11:09.105153,81
2021-10-14 16:11:09.105161,96
2021-10-14 16:11:09.105169,88
2021-10-14 16:11:09.105178,103
2021-10-14 16:11:09.105186,110
2021-10-14 16:11:09.105194,96
2021-10-14 16:11:09.105202,88
2021-10-14 16:11:09.105211,91
2021-10-14 16:11:09.105219,84
2021-10-14 16:11:09.105227,86
2021-10-14 16:11:09.419427,103
2021-10-14 16:11:09.419448,117
2021-10-14 16:11:09.419458,127
2021-10-14 16:11:09.419467,139
2021-10-14 16:11:09.419475,156
2021-10-14 16:11:09.419483,173
2021-10-14 16:11:09.419492,192
2021-10-14 16:11:09.419500,202
2021-10-14 16:11:09.419508,202
2021-10-14 16:11:09.419516,194
2021-10-14 16:11:09.419524,187
2021-10-14 16:11:09.419532,170
2021-10-14 16:11:09.419541,149
2021-10-14 16:11:09.419549,122
2021-10-14 16:11:09.419557,81
2021-10-14 16:11:09.419565,43
2021-10-14 16:11:09.419574,16
2021-10-14 16:11:09.419582,-7
2021-10-14 16:11:09.419590,-31
2021-10-14 16:11:09.419599,-50
2021-10-14 16:11:09.419607,-67
2021-10-14 16:11:09.419615,-79
2021-10-14 16:11:09.419623,-76
2021-10-14 16:11:09.419632,-74
2021-10-14 16:11:09.419640,-86
2021-10-14 16:11:09.419648,-88
2021-10-14 16:11:09.419656,-84
2021-10-14 16:11:09.419664,-86
2021-10-14 16:11:09.419672,-86
2021-10-14 16:11:09.419681,-72
2021-10-14 16:11:09.510067,-60
2021-10-14 16:11:09.510088,-62
2021-10-14 16:11:09.510097,-60
2021-10-14 16:11:09.510106,-40
2021-10-14 16:11:09.510114,-26
2021-10-14 16:11:09.510123,-24
2021-10-14 16:11:09.510131,-21
2021-10-14 16:11:09.510139,-12
2021-10-14 16:11:09.510148,-12
2021-10-14 16:11:09.510156,-12
2021-10-14 16:11:09.510165,-7
2021-10-14 16:11:09.510173,-4
2021-10-14 16:11:09.510181,-2
2021-10-14 16:11:09.510189,-2
2021-10-14 16:11:09.510198,-7
2021-10-14 16:11:09.510206,-9
2021-10-14 16:11:09.510214,-7
2021-10-14 16:11:09.510223,-4
2021-10-14 16:11:09.510231,-9
2021-10-14 16:11:09.510239,-19
2021-10-14 16:11:09.510247,-28
2021-10-14 16:11:09.510255,-28
2021-10-14 16:11:09.510264,-19
2021-10-14 16:11:09.510272,-16
2021-10-14 16:11:09.510280,-26
2021-10-14 16:11:09.510288,-38
2021-10-14 16:11:09.510297,-48
2021-10-14 16:11:09.510305,-50
2021-10-14 16:11:09.510313,-50
2021-10-14 16:11:09.510321,-55
2021-10-14 16:11:09.915442,-55
2021-10-14 16:11:09.915464,-52
2021-10-14 16:11:09.915473,-60
2021-10-14 16:11:09.915482,-72
2021-10-14 16:11:09.915490,-76
2021-10-14 16:11:09.915499,-74
2021-10-14 16:11:09.915507,-69
2021-10-14 16:11:09.915515,-69
2021-10-14 16:11:09.915523,-74
2021-10-14 16:11:09.915531,-72
2021-10-14 16:11:09.915540,-62
2021-10-14 16:11:09.915548,-48
2021-10-14 16:11:09.915556,-45
2021-10-14 16:11:09.915565,-50
2021-10-14 16:11:09.915573,-33
2021-10-14 16:11:09.915581,-9
2021-10-14 16:11:09.915589,-31
2021-10-14 16:11:09.915598,-67
2021-10-14 16:11:09.915606,-67
2021-10-14 16:11:09.915614,-50
2021-10-14 16:11:09.915623,-45
2021-10-14 16:11:09.915631,-43
2021-10-14 16:11:09.915639,-38
2021-10-14 16:11:09.915647,-36
2021-10-14 16:11:09.915655,-43
2021-10-14 16:11:09.915664,-48
2021-10-14 16:11:09.915672,-24
2021-10-14 16:11:09.915680,0
2021-10-14 16:11:09.915689,24
2021-10-14 16:11:09.915697,177
2021-10-14 16:11:10.048650,545
2021-10-14 16:11:10.048670,810
2021-10-14 16:11:10.048679,382
2021-10-14 16:11:10.048688,-615
2021-10-14 16:11:10.048696,-1070
2021-10-14 16:11:10.048705,-586
2021-10-14 16:11:10.048713,-129
2021-10-14 16:11:10.048721,-84
2021-10-14 16:11:10.048730,-12
2021-10-14 16:11:10.048738,81
2021-10-14 16:11:10.048746,67
2021-10-14 16:11:10.048754,62
2021-10-14 16:11:10.048763,93
2021-10-14 16:11:10.048771,101
2021-10-14 16:11:10.048779,103
2021-10-14 16:11:10.048787,108
2021-10-14 16:11:10.048795,103
2021-10-14 16:11:10.048804,103
2021-10-14 16:11:10.048812,113
2021-10-14 16:11:10.048820,122
2021-10-14 16:11:10.048828,132
2021-10-14 16:11:10.048837,134
2021-10-14 16:11:10.048845,144
2021-10-14 16:11:10.048853,158
2021-10-14 16:11:10.048862,165
2021-10-14 16:11:10.048870,175
2021-10-14 16:11:10.048878,185
2021-10-14 16:11:10.048886,189
2021-10-14 16:11:10.048895,197
2021-10-14 16:11:10.048903,202
2021-10-14 16:11:10.230418,192
2021-10-14 16:11:10.230438,187
2021-10-14 16:11:10.230448,175
2021-10-14 16:11:10.230456,146
2021-10-14 16:11:10.230464,125
2021-10-14 16:11:10.230473,103
2021-10-14 16:11:10.230481,74
2021-10-14 16:11:10.230489,50
2021-10-14 16:11:10.230498,19
2021-10-14 16:11:10.230506,-26
2021-10-14 16:11:10.230515,-57
2021-10-14 16:11:10.230523,-76
2021-10-14 16:11:10.230531,-93
2021-10-14 16:11:10.230540,-98
2021-10-14 16:11:10.230548,-96
2021-10-14 16:11:10.230556,-103
2021-10-14 16:11:10.230565,-103
2021-10-14 16:11:10.230573,-96
2021-10-14 16:11:10.230581,-96
2021-10-14 16:11:10.230590,-96
2021-10-14 16:11:10.230598,-86
2021-10-14 16:11:10.230607,-76
2021-10-14 16:11:10.230615,-76
2021-10-14 16:11:10.230623,-76
2021-10-14 16:11:10.230631,-64
2021-10-14 16:11:10.230640,-48
2021-10-14 16:11:10.230648,-40
2021-10-14 16:11:10.230656,-38
2021-10-14 16:11:10.230665,-24
2021-10-14 16:11:10.230673,-21
2021-10-14 16:11:10.410045,-24
2021-10-14 16:11:10.410066,-21
2021-10-14 16:11:10.410075,-12
2021-10-14 16:11:10.410084,-7
2021-10-14 16:11:10.410092,-9
2021-10-14 16:11:10.410101,-19
2021-10-14 16:11:10.410109,-24
2021-10-14 16:11:10.410118,-24
2021-10-14 16:11:10.410126,-19
2021-10-14 16:11:10.410134,-16
2021-10-14 16:11:10.410143,-24
2021-10-14 16:11:10.410151,-38
2021-10-14 16:11:10.410160,-45
2021-10-14 16:11:10.410168,-40
2021-10-14 16:11:10.410176,-38
2021-10-14 16:11:10.410184,-45
2021-10-14 16:11:10.410193,-50
2021-10-14 16:11:10.410201,-48
2021-10-14 16:11:10.410209,-43
2021-10-14 16:11:10.410218,-33
2021-10-14 16:11:10.410226,-33
2021-10-14 16:11:10.410234,-36
2021-10-14 16:11:10.410243,-40
2021-10-14 16:11:10.410263,-43
2021-10-14 16:11:10.410271,-33
2021-10-14 16:11:10.410279,-21
2021-10-14 16:11:10.410288,-21
2021-10-14 16:11:10.410296,-21
2021-10-14 16:11:10.410303,-16
2021-10-14 16:11:10.410310,-14
2021-10-14 16:11:10.680018,-16
2021-10-14 16:11:10.680038,-9
2021-10-14 16:11:10.680048,-2
2021-10-14 16:11:10.680056,-7
2021-10-14 16:11:10.680064,-12
2021-10-14 16:11:10.680073,2
2021-10-14 16:11:10.680081,16
2021-10-14 16:11:10.680090,14
2021-10-14 16:11:10.680098,9
2021-10-14 16:11:10.680106,-7
2021-10-14 16:11:10.680114,-33
2021-10-14 16:11:10.680123,-40
2021-10-14 16:11:10.680131,-36
2021-10-14 16:11:10.680139,-26
2021-10-14 16:11:10.680147,-21
2021-10-14 16:11:10.680155,-33
2021-10-14 16:11:10.680163,-43
2021-10-14 16:11:10.680172,-24
2021-10-14 16:11:10.680180,4
2021-10-14 16:11:10.680188,0
2021-10-14 16:11:10.680196,-2
2021-10-14 16:11:10.680204,64
2021-10-14 16:11:10.680213,300
2021-10-14 16:11:10.680221,690
2021-10-14 16:11:10.680229,779
2021-10-14 16:11:10.680237,50
2021-10-14 16:11:10.680246,-901
2021-10-14 16:11:10.680254,-959
2021-10-14 16:11:10.680262,-399
2021-10-14 16:11:10.680270,-120
2021-10-14 16:11:11.040000,-57
2021-10-14 16:11:11.040020,67
2021-10-14 16:11:11.040029,117
2021-10-14 16:11:11.040038,81
2021-10-14 16:11:11.040046,88
2021-10-14 16:11:11.040054,113
2021-10-14 16:11:11.040062,115
2021-10-14 16:11:11.040071,125
2021-10-14 16:11:11.040079,139
2021-10-14 16:11:11.040087,129
2021-10-14 16:11:11.040096,122
2021-10-14 16:11:11.040104,134
2021-10-14 16:11:11.040113,141
2021-10-14 16:11:11.040121,144
2021-10-14 16:11:11.040129,158
2021-10-14 16:11:11.040137,168
2021-10-14 16:11:11.040146,175
2021-10-14 16:11:11.040154,187
2021-10-14 16:11:11.040162,199
2021-10-14 16:11:11.040171,211
2021-10-14 16:11:11.040179,226
2021-10-14 16:11:11.040187,235
2021-10-14 16:11:11.040195,233
2021-10-14 16:11:11.040204,226
2021-10-14 16:11:11.040212,226
2021-10-14 16:11:11.040220,223
2021-10-14 16:11:11.040228,197
2021-10-14 16:11:11.040237,163
2021-10-14 16:11:11.040245,134
2021-10-14 16:11:11.040254,108
2021-10-14 16:11:11.175326,76
2021-10-14 16:11:11.175344,38
2021-10-14 16:11:11.175353,0
2021-10-14 16:11:11.175362,-21
2021-10-14 16:11:11.175370,-31
2021-10-14 16:11:11.175379,-43
2021-10-14 16:11:11.175387,-57
2021-10-14 16:11:11.175396,-57
2021-10-14 16:11:11.175404,-55
2021-10-14 16:11:11.175412,-57
2021-10-14 16:11:11.175420,-62
2021-10-14 16:11:11.175429,-69
2021-10-14 16:11:11.175437,-74
2021-10-14 16:11:11.175445,-67
2021-10-14 16:11:11.175454,-67
2021-10-14 16:11:11.175462,-67
2021-10-14 16:11:11.175470,-52
2021-10-14 16:11:11.175478,-38
2021-10-14 16:11:11.175487,-36
2021-10-14 16:11:11.175495,-38
2021-10-14 16:11:11.175503,-50
2021-10-14 16:11:11.175511,-60
2021-10-14 16:11:11.175525,-52
2021-10-14 16:11:11.175533,-38
2021-10-14 16:11:11.175542,-43
2021-10-14 16:11:11.175550,-48
2021-10-14 16:11:11.175558,-52
2021-10-14 16:11:11.175567,-60
2021-10-14 16:11:11.175575,-52
2021-10-14 16:11:11.175583,-43
2021-10-14 16:11:11.535296,-52
2021-10-14 16:11:11.535317,-64
2021-10-14 16:11:11.535326,-72
2021-10-14 16:11:11.535334,-76
2021-10-14 16:11:11.535342,-72
2021-10-14 16:11:11.535351,-67
2021-10-14 16:11:11.535359,-69
2021-10-14 16:11:11.535367,-74
2021-10-14 16:11:11.535375,-79
2021-10-14 16:11:11.535384,-76
2021-10-14 16:11:11.535392,-74
2021-10-14 16:11:11.535400,-72
2021-10-14 16:11:11.535408,-64
2021-10-14 16:11:11.535417,-64
2021-10-14 16:11:11.535425,-69
2021-10-14 16:11:11.535433,-64
2021-10-14 16:11:11.535442,-60
2021-10-14 16:11:11.535450,-50
2021-10-14 16:11:11.535458,-43
2021-10-14 16:11:11.535467,-50
2021-10-14 16:11:11.535475,-60
2021-10-14 16:11:11.535484,-48
2021-10-14 16:11:11.535492,-31
2021-10-14 16:11:11.535500,-24
2021-10-14 16:11:11.535509,-7
2021-10-14 16:11:11.535517,0
2021-10-14 16:11:11.535526,-31
2021-10-14 16:11:11.535534,-57
2021-10-14 16:11:11.535542,-45
2021-10-14 16:11:11.535550,-36
2021-10-14 16:11:11.625003,-36
2021-10-14 16:11:11.625022,-33
2021-10-14 16:11:11.625031,-28
2021-10-14 16:11:11.625040,-28
2021-10-14 16:11:11.625049,-33
2021-10-14 16:11:11.625057,-28
2021-10-14 16:11:11.625066,-16
2021-10-14 16:11:11.625074,-12
2021-10-14 16:11:11.625082,43
2021-10-14 16:11:11.625091,271
2021-10-14 16:11:11.625099,675
2021-10-14 16:11:11.625108,779
2021-10-14 16:11:11.625116,48
2021-10-14 16:11:11.625124,-933
2021-10-14 16:11:11.625133,-1005
2021-10-14 16:11:11.625141,-440
2021-10-14 16:11:11.625150,-177
2021-10-14 16:11:11.625158,-117
2021-10-14 16:11:11.625166,33
2021-10-14 16:11:11.625175,88
2021-10-14 16:11:11.625183,48
2021-10-14 16:11:11.625192,67
2021-10-14 16:11:11.625200,93
2021-10-14 16:11:11.625208,84
2021-10-14 16:11:11.625217,84
2021-10-14 16:11:11.625225,88
2021-10-14 16:11:11.625233,81
2021-10-14 16:11:11.625242,72
2021-10-14 16:11:11.625250,81
2021-10-14 16:11:11.625258,96
2021-10-14 16:11:11.805382,96
2021-10-14 16:11:11.805402,101
2021-10-14 16:11:11.805411,122
2021-10-14 16:11:11.805420,137
2021-10-14 16:11:11.805428,146
2021-10-14 16:11:11.805436,161
2021-10-14 16:11:11.805445,163
2021-10-14 16:11:11.805453,163
2021-10-14 16:11:11.805462,173
2021-10-14 16:11:11.805470,182
2021-10-14 16:11:11.805479,187
2021-10-14 16:11:11.805487,185
2021-10-14 16:11:11.805495,163
2021-10-14 16:11:11.805504,137
2021-10-14 16:11:11.805512,115
2021-10-14 16:11:11.805521,86
2021-10-14 16:11:11.805529,50
2021-10-14 16:11:11.805537,12
2021-10-14 16:11:11.805546,-26
2021-10-14 16:11:11.805554,-50
2021-10-14 16:11:11.805562,-69
2021-10-14 16:11:11.805571,-86
2021-10-14 16:11:11.805579,-88
2021-10-14 16:11:11.805587,-88
2021-10-14 16:11:11.805595,-91
2021-10-14 16:11:11.805603,-88
2021-10-14 16:11:11.805611,-86
2021-10-14 16:11:11.805619,-96
2021-10-14 16:11:11.805628,-91
2021-10-14 16:11:11.805636,-76
2021-10-14 16:11:12.208612,-74
2021-10-14 16:11:12.208634,-74
2021-10-14 16:11:12.208643,-57
2021-10-14 16:11:12.208651,-50
2021-10-14 16:11:12.208660,-55
2021-10-14 16:11:12.208668,-52
2021-10-14 16:11:12.208676,-43
2021-10-14 16:11:12.208685,-33
2021-10-14 16:11:12.208693,-31
2021-10-14 16:11:12.208701,-31
2021-10-14 16:11:12.208710,-31
2021-10-14 16:11:12.208718,-36
2021-10-14 16:11:12.208726,-40
2021-10-14 16:11:12.208734,-33
2021-10-14 16:11:12.208743,-33
2021-10-14 16:11:12.208751,-40
2021-10-14 16:11:12.208759,-45
2021-10-14 16:11:12.208767,-52
2021-10-14 16:11:12.208776,-57
2021-10-14 16:11:12.208784,-60
2021-10-14 16:11:12.208792,-67
2021-10-14 16:11:12.208800,-67
2021-10-14 16:11:12.208815,-57
2021-10-14 16:11:12.208824,-57
2021-10-14 16:11:12.208832,-60
2021-10-14 16:11:12.208840,-57
2021-10-14 16:11:12.208848,-62
2021-10-14 16:11:12.208857,-64
2021-10-14 16:11:12.208865,-57
2021-10-14 16:11:12.208873,-50
2021-10-14 16:11:12.345538,-50
2021-10-14 16:11:12.345561,-62
2021-10-14 16:11:12.345570,-69
2021-10-14 16:11:12.345577,-64
2021-10-14 16:11:12.345585,-60
2021-10-14 16:11:12.345592,-64
2021-10-14 16:11:12.345600,-72
2021-10-14 16:11:12.345607,-57
2021-10-14 16:11:12.345614,-40
2021-10-14 16:11:12.345622,-45
2021-10-14 16:11:12.345630,-48
2021-10-14 16:11:12.345638,-45
2021-10-14 16:11:12.345646,-38
2021-10-14 16:11:12.345655,-19
2021-10-14 16:11:12.345663,-2
2021-10-14 16:11:12.345671,4
2021-10-14 16:11:12.345679,-9
2021-10-14 16:11:12.345688,-36
2021-10-14 16:11:12.345696,-40
2021-10-14 16:11:12.345704,-31
2021-10-14 16:11:12.345712,-36
2021-10-14 16:11:12.345721,-38
2021-10-14 16:11:12.345729,-40
2021-10-14 16:11:12.345737,-43
2021-10-14 16:11:12.345745,-40
2021-10-14 16:11:12.345754,-31
2021-10-14 16:11:12.345762,-21
2021-10-14 16:11:12.345770,-16
2021-10-14 16:11:12.345779,0
2021-10-14 16:11:12.345787,105
2021-10-14 16:11:12.480433,418
2021-10-14 16:11:12.480453,783
2021-10-14 16:11:12.480463,613
2021-10-14 16:11:12.480471,-317
2021-10-14 16:11:12.480479,-1070
2021-10-14 16:11:12.480488,-788
2021-10-14 16:11:12.480496,-206
2021-10-14 16:11:12.480504,-74
2021-10-14 16:11:12.480512,-28
2021-10-14 16:11:12.480521,84
2021-10-14 16:11:12.480529,76
2021-10-14 16:11:12.480537,50
2021-10-14 16:11:12.480545,93
2021-10-14 16:11:12.480553,101
2021-10-14 16:11:12.480561,86
2021-10-14 16:11:12.480570,103
2021-10-14 16:11:12.480578,108
2021-10-14 16:11:12.480586,105
2021-10-14 16:11:12.480594,125
2021-10-14 16:11:12.480602,134
2021-10-14 16:11:12.480611,125
2021-10-14 16:11:12.480619,125
2021-10-14 16:11:12.480627,132
2021-10-14 16:11:12.480635,141
2021-10-14 16:11:12.480643,151
2021-10-14 16:11:12.480652,161
2021-10-14 16:11:12.480660,165
2021-10-14 16:11:12.480668,168
2021-10-14 16:11:12.480676,185
2021-10-14 16:11:12.480685,199
2021-10-14 16:11:12.750470,194
2021-10-14 16:11:12.750490,189
2021-10-14 16:11:12.750499,189
2021-10-14 16:11:12.750508,168
2021-10-14 16:11:12.750516,132
2021-10-14 16:11:12.750524,117
2021-10-14 16:11:12.750532,105
2021-10-14 16:11:12.750541,62
2021-10-14 16:11:12.750549,9
2021-10-14 16:11:12.750557,-19
2021-10-14 16:11:12.750565,-31
2021-10-14 16:11:12.750573,-48
2021-10-14 16:11:12.750582,-64
2021-10-14 16:11:12.750590,-64
2021-10-14 16:11:12.750598,-64
2021-10-14 16:11:12.750607,-74
2021-10-14 16:11:12.750615,-81
2021-10-14 16:11:12.750623,-84
2021-10-14 16:11:12.750631,-76
2021-10-14 16:11:12.750639,-64
2021-10-14 16:11:12.750647,-60
2021-10-14 16:11:12.750655,-64
2021-10-14 16:11:12.750664,-57
2021-10-14 16:11:12.750672,-43
2021-10-14 16:11:12.750680,-36
2021-10-14 16:11:12.750688,-40
2021-10-14 16:11:12.750696,-50
2021-10-14 16:11:12.750704,-50
2021-10-14 16:11:12.750713,-33
2021-10-14 16:11:12.750721,-24
2021-10-14 16:11:13.020529,-31
2021-10-14 16:11:13.020552,-28
2021-10-14 16:11:13.020560,-33
2021-10-14 16:11:13.020568,-52
2021-10-14 16:11:13.020576,-50
2021-10-14 16:11:13.020584,-36
2021-10-14 16:11:13.020593,-31
2021-10-14 16:11:13.020600,-28
2021-10-14 16:11:13.020608,-33
2021-10-14 16:11:13.020615,-45
2021-10-14 16:11:13.020623,-48
2021-10-14 16:11:13.020631,-43
2021-10-14 16:11:13.020639,-40
2021-10-14 16:11:13.020647,-43
2021-10-14 16:11:13.020655,-48
2021-10-14 16:11:13.020662,-43
2021-10-14 16:11:13.020670,-36
2021-10-14 16:11:13.020678,-33
2021-10-14 16:11:13.020686,-38
2021-10-14 16:11:13.020695,-45
2021-10-14 16:11:13.020703,-43
2021-10-14 16:11:13.020711,-28
2021-10-14 16:11:13.020718,-21
2021-10-14 16:11:13.020725,-26
2021-10-14 16:11:13.020733,-24
2021-10-14 16:11:13.020741,-19
2021-10-14 16:11:13.020749,-26
2021-10-14 16:11:13.020757,-31
2021-10-14 16:11:13.020765,-24
2021-10-14 16:11:13.020773,-12
2021-10-14 16:11:13.245109,-7
2021-10-14 16:11:13.245130,-12
2021-10-14 16:11:13.245139,-19
2021-10-14 16:11:13.245146,-4
2021-10-14 16:11:13.245154,16
2021-10-14 16:11:13.245161,21
2021-10-14 16:11:13.245169,26
2021-10-14 16:11:13.245176,36
2021-10-14 16:11:13.245183,33
2021-10-14 16:11:13.245191,7
2021-10-14 16:11:13.245198,-24
2021-10-14 16:11:13.245205,-24
2021-10-14 16:11:13.245213,-12
2021-10-14 16:11:13.245220,-12
2021-10-14 16:11:13.245228,-12
2021-10-14 16:11:13.245235,-14
2021-10-14 16:11:13.245243,-9
2021-10-14 16:11:13.245250,-2
2021-10-14 16:11:13.245257,-2
2021-10-14 16:11:13.245264,-4
2021-10-14 16:11:13.245272,9
2021-10-14 16:11:13.245280,67
2021-10-14 16:11:13.245288,271
2021-10-14 16:11:13.245296,661
2021-10-14 16:11:13.245303,803
2021-10-14 16:11:13.245310,144
2021-10-14 16:11:13.245317,-834
2021-10-14 16:11:13.245324,-985
2021-10-14 16:11:13.245333,-440
2021-10-14 16:11:13.245341,-139
2021-10-14 16:11:13.469894,-84
2021-10-14 16:11:13.469915,50
2021-10-14 16:11:13.469924,113
2021-10-14 16:11:13.469933,72
2021-10-14 16:11:13.469941,84
2021-10-14 16:11:13.469950,122
2021-10-14 16:11:13.469958,125
2021-10-14 16:11:13.469967,117
2021-10-14 16:11:13.469975,117
2021-10-14 16:11:13.469983,125
2021-10-14 16:11:13.469992,127
2021-10-14 16:11:13.470000,137
2021-10-14 16:11:13.470008,151
2021-10-14 16:11:13.470017,153
2021-10-14 16:11:13.470025,153
2021-10-14 16:11:13.470033,163
2021-10-14 16:11:13.470042,170
2021-10-14 16:11:13.470050,173
2021-10-14 16:11:13.470059,182
2021-10-14 16:11:13.470067,189
2021-10-14 16:11:13.470075,199
2021-10-14 16:11:13.470084,209
2021-10-14 16:11:13.470092,216
2021-10-14 16:11:13.470100,223
2021-10-14 16:11:13.470109,226
2021-10-14 16:11:13.470117,218
2021-10-14 16:11:13.470125,192
2021-10-14 16:11:13.470134,149
2021-10-14 16:11:13.470142,122
2021-10-14 16:11:13.470150,103
2021-10-14 16:11:13.650462,67
2021-10-14 16:11:13.650482,19
2021-10-14 16:11:13.650491,-19
2021-10-14 16:11:13.650500,-28
2021-10-14 16:11:13.650508,-28
2021-10-14 16:11:13.650517,-50
2021-10-14 16:11:13.650525,-74
2021-10-14 16:11:13.650533,-81
2021-10-14 16:11:13.650541,-81
2021-10-14 16:11:13.650550,-88
2021-10-14 16:11:13.650558,-91
2021-10-14 16:11:13.650566,-81
2021-10-14 16:11:13.650574,-76
2021-10-14 16:11:13.650583,-74
2021-10-14 16:11:13.650591,-62
2021-10-14 16:11:13.650599,-64
2021-10-14 16:11:13.650607,-67
2021-10-14 16:11:13.650616,-52
2021-10-14 16:11:13.650624,-55
2021-10-14 16:11:13.650632,-72
2021-10-14 16:11:13.650640,-72
2021-10-14 16:11:13.650649,-62
2021-10-14 16:11:13.650657,-55
2021-10-14 16:11:13.650665,-69
2021-10-14 16:11:13.650673,-93
2021-10-14 16:11:13.650681,-88
2021-10-14 16:11:13.650690,-69
2021-10-14 16:11:13.650698,-69
2021-10-14 16:11:13.650706,-76
2021-10-14 16:11:13.650714,-74
2021-10-14 16:11:13.920084,-67
2021-10-14 16:11:13.920105,-60
2021-10-14 16:11:13.920114,-60
2021-10-14 16:11:13.920123,-76
2021-10-14 16:11:13.920131,-91
2021-10-14 16:11:13.920140,-88
2021-10-14 16:11:13.920148,-86
2021-10-14 16:11:13.920156,-84
2021-10-14 16:11:13.920164,-74
2021-10-14 16:11:13.920173,-72
2021-10-14 16:11:13.920181,-76
2021-10-14 16:11:13.920189,-72
2021-10-14 16:11:13.920197,-69
2021-10-14 16:11:13.920206,-69
2021-10-14 16:11:13.920214,-64
2021-10-14 16:11:13.920222,-60
2021-10-14 16:11:13.920230,-55
2021-10-14 16:11:13.920238,-50
2021-10-14 16:11:13.920246,-45
2021-10-14 16:11:13.920255,-33
2021-10-14 16:11:13.920263,-28
2021-10-14 16:11:13.920271,-33
2021-10-14 16:11:13.920279,-26
2021-10-14 16:11:13.920287,-14
2021-10-14 16:11:13.920295,-14
2021-10-14 16:11:13.920304,7
2021-10-14 16:11:13.920312,24
2021-10-14 16:11:13.920320,-4
2021-10-14 16:11:13.920328,-33
2021-10-14 16:11:13.920336,-28
2021-10-14 16:11:14.144157,-19
2021-10-14 16:11:14.144179,-26
2021-10-14 16:11:14.144188,-33
2021-10-14 16:11:14.144196,-26
2021-10-14 16:11:14.144205,-16
2021-10-14 16:11:14.144213,-16
2021-10-14 16:11:14.144222,-12
2021-10-14 16:11:14.144230,0
2021-10-14 16:11:14.144238,9
2021-10-14 16:11:14.144247,57
2021-10-14 16:11:14.144255,278
2021-10-14 16:11:14.144263,682
2021-10-14 16:11:14.144272,781
2021-10-14 16:11:14.144280,21
2021-10-14 16:11:14.144288,-976
2021-10-14 16:11:14.144297,-1031
2021-10-14 16:11:14.144305,-442
2021-10-14 16:11:14.144313,-168
2021-10-14 16:11:14.144322,-103
2021-10-14 16:11:14.144330,40
2021-10-14 16:11:14.144338,84
2021-10-14 16:11:14.144346,45
2021-10-14 16:11:14.144355,72
2021-10-14 16:11:14.144363,103
2021-10-14 16:11:14.144371,86
2021-10-14 16:11:14.144379,67
2021-10-14 16:11:14.144388,57
2021-10-14 16:11:14.144396,69
2021-10-14 16:11:14.144404,103
2021-10-14 16:11:14.144413,120
2021-10-14 16:11:14.415487,115
2021-10-14 16:11:14.415509,120
2021-10-14 16:11:14.415518,134
2021-10-14 16:11:14.415527,139
2021-10-14 16:11:14.415535,139
2021-10-14 16:11:14.415544,139
2021-10-14 16:11:14.415552,149
2021-10-14 16:11:14.415560,161
2021-10-14 16:11:14.415569,158
2021-10-14 16:11:14.415577,163
2021-10-14 16:11:14.415585,173
2021-10-14 16:11:14.415593,161
2021-10-14 16:11:14.415601,149
2021-10-14 16:11:14.415610,149
2021-10-14 16:11:14.415618,139
2021-10-14 16:11:14.415626,113
2021-10-14 16:11:14.415634,84
2021-10-14 16:11:14.415642,52
2021-10-14 16:11:14.415651,21
2021-10-14 16:11:14.415659,4
2021-10-14 16:11:14.415667,-4
2021-10-14 16:11:14.415675,-36
2021-10-14 16:11:14.415684,-62
2021-10-14 16:11:14.415692,-55
2021-10-14 16:11:14.415700,-52
2021-10-14 16:11:14.415721,-62
2021-10-14 16:11:14.415730,-64
2021-10-14 16:11:14.415739,-69
2021-10-14 16:11:14.415747,-74
2021-10-14 16:11:14.415755,-60
2021-10-14 16:11:14.595139,-45
2021-10-14 16:11:14.595161,-40
2021-10-14 16:11:14.595170,-40
2021-10-14 16:11:14.595179,-38
2021-10-14 16:11:14.595187,-31
2021-10-14 16:11:14.595196,-24
2021-10-14 16:11:14.595204,-16
2021-10-14 16:11:14.595212,-12
2021-10-14 16:11:14.595221,-16
2021-10-14 16:11:14.595229,-21
2021-10-14 16:11:14.595237,-14
2021-10-14 16:11:14.595245,-9
2021-10-14 16:11:14.595254,-14
2021-10-14 16:11:14.595262,-21
2021-10-14 16:11:14.595270,-33
2021-10-14 16:11:14.595279,-40
2021-10-14 16:11:14.595287,-43
2021-10-14 16:11:14.595295,-45
2021-10-14 16:11:14.595303,-50
2021-10-14 16:11:14.595312,-52
2021-10-14 16:11:14.595320,-52
2021-10-14 16:11:14.595328,-62
2021-10-14 16:11:14.595336,-64
2021-10-14 16:11:14.595345,-52
2021-10-14 16:11:14.595353,-45
2021-10-14 16:11:14.595361,-45
2021-10-14 16:11:14.595369,-48
2021-10-14 16:11:14.595378,-50
2021-10-14 16:11:14.595386,-55
2021-10-14 16:11:14.595394,-57
2021-10-14 16:11:14.954529,-60
2021-10-14 16:11:14.954550,-62
2021-10-14 16:11:14.954560,-60
2021-10-14 16:11:14.954569,-60
2021-10-14 16:11:14.954578,-60
2021-10-14 16:11:14.954586,-50
2021-10-14 16:11:14.954594,-43
2021-10-14 16:11:14.954603,-52
2021-10-14 16:11:14.954611,-57
2021-10-14 16:11:14.954619,-55
2021-10-14 16:11:14.954628,-55
2021-10-14 16:11:14.954636,-43
2021-10-14 16:11:14.954644,-31
2021-10-14 16:11:14.954653,-31
2021-10-14 16:11:14.954661,-24
2021-10-14 16:11:14.954669,-19
2021-10-14 16:11:14.954678,-43
2021-10-14 16:11:14.954686,-64
2021-10-14 16:11:14.954694,-64
2021-10-14 16:11:14.954703,-57
2021-10-14 16:11:14.954711,-60
2021-10-14 16:11:14.954719,-57
2021-10-14 16:11:14.954728,-48
2021-10-14 16:11:14.954736,-40
2021-10-14 16:11:14.954744,-38
2021-10-14 16:11:14.954752,-31
2021-10-14 16:11:14.954760,-24
2021-10-14 16:11:14.954769,-19
2021-10-14 16:11:14.954777,26
2021-10-14 16:11:14.954785,254
2021-10-14 16:11:15.045534,661
2021-10-14 16:11:15.045556,764
2021-10-14 16:11:15.045564,60
2021-10-14 16:11:15.045571,-918
2021-10-14 16:11:15.045579,-1017
2021-10-14 16:11:15.045587,-401
2021-10-14 16:11:15.045595,-88
2021-10-14 16:11:15.045603,-69
2021-10-14 16:11:15.045611,38
2021-10-14 16:11:15.045620,93
2021-10-14 16:11:15.045628,62
2021-10-14 16:11:15.045636,84
2021-10-14 16:11:15.045654,108
2021-10-14 16:11:15.045663,96
2021-10-14 16:11:15.045672,86
2021-10-14 16:11:15.045680,91
2021-10-14 16:11:15.045688,101
2021-10-14 16:11:15.045696,113
2021-10-14 16:11:15.045705,110
2021-10-14 16:11:15.045713,113
2021-10-14 16:11:15.045721,120
2021-10-14 16:11:15.045730,122
2021-10-14 16:11:15.045738,127
2021-10-14 16:11:15.045746,134
2021-10-14 16:11:15.045754,141
2021-10-14 16:11:15.045763,144
2021-10-14 16:11:15.045771,146
2021-10-14 16:11:15.045779,163
2021-10-14 16:11:15.045788,180
2021-10-14 16:11:15.045796,180
2021-10-14 16:11:15.270001,161
2021-10-14 16:11:15.270021,144
2021-10-14 16:11:15.270030,134
2021-10-14 16:11:15.270039,115
2021-10-14 16:11:15.270048,91
2021-10-14 16:11:15.270056,74
2021-10-14 16:11:15.270064,45
2021-10-14 16:11:15.270073,-2
2021-10-14 16:11:15.270081,-36
2021-10-14 16:11:15.270089,-48
2021-10-14 16:11:15.270098,-60
2021-10-14 16:11:15.270106,-69
2021-10-14 16:11:15.270114,-69
2021-10-14 16:11:15.270122,-84
2021-10-14 16:11:15.270131,-105
2021-10-14 16:11:15.270139,-103
2021-10-14 16:11:15.270148,-98
2021-10-14 16:11:15.270156,-101
2021-10-14 16:11:15.270164,-98
2021-10-14 16:11:15.270173,-93
2021-10-14 16:11:15.270181,-84
2021-10-14 16:11:15.270189,-74
2021-10-14 16:11:15.270197,-60
2021-10-14 16:11:15.270206,-38
2021-10-14 16:11:15.270214,-38
2021-10-14 16:11:15.270222,-57
2021-10-14 16:11:15.270230,-55
2021-10-14 16:11:15.270239,-28
2021-10-14 16:11:15.270247,-21
2021-10-14 16:11:15.270255,-31
2021-10-14 16:11:15.540314,-31
2021-10-14 16:11:15.540336,-12
2021-10-14 16:11:15.540345,-4
2021-10-14 16:11:15.540354,-28
2021-10-14 16:11:15.540362,-43
2021-10-14 16:11:15.540370,-28
2021-10-14 16:11:15.540378,-26
2021-10-14 16:11:15.540387,-40
2021-10-14 16:11:15.540420,-40
2021-10-14 16:11:15.540429,-28
2021-10-14 16:11:15.540437,-19
2021-10-14 16:11:15.540445,-9
2021-10-14 16:11:15.540453,-14
2021-10-14 16:11:15.540461,-26
2021-10-14 16:11:15.540469,-24
2021-10-14 16:11:15.540478,-9
2021-10-14 16:11:15.540486,-4
2021-10-14 16:11:15.540494,-2
2021-10-14 16:11:15.540503,7
2021-10-14 16:11:15.540511,14
2021-10-14 16:11:15.540519,7
2021-10-14 16:11:15.540528,0
2021-10-14 16:11:15.540536,19
2021-10-14 16:11:15.540544,36
2021-10-14 16:11:15.540552,31
2021-10-14 16:11:15.540561,38
2021-10-14 16:11:15.540569,52
2021-10-14 16:11:15.540577,48
2021-10-14 16:11:15.540586,52
2021-10-14 16:11:15.540594,69
2021-10-14 16:11:15.720654,81
2021-10-14 16:11:15.720675,91
2021-10-14 16:11:15.720684,93
2021-10-14 16:11:15.720692,93
2021-10-14 16:11:15.720700,113
2021-10-14 16:11:15.720708,110
2021-10-14 16:11:15.720716,76
2021-10-14 16:11:15.720724,64
2021-10-14 16:11:15.720732,81
2021-10-14 16:11:15.720740,93
2021-10-14 16:11:15.720747,105
2021-10-14 16:11:15.720755,113
2021-10-14 16:11:15.720763,93
2021-10-14 16:11:15.720771,79
2021-10-14 16:11:15.720779,98
2021-10-14 16:11:15.720787,115
2021-10-14 16:11:15.720795,120
2021-10-14 16:11:15.720803,137
2021-10-14 16:11:15.720811,233
2021-10-14 16:11:15.720819,533
2021-10-14 16:11:15.720827,856
2021-10-14 16:11:15.720834,644
2021-10-14 16:11:15.720843,-242
2021-10-14 16:11:15.720849,-884
2021-10-14 16:11:15.720857,-591
2021-10-14 16:11:15.720865,-96
2021-10-14 16:11:15.720873,28
2021-10-14 16:11:15.720881,105
2021-10-14 16:11:15.720889,221
2021-10-14 16:11:15.720897,221
2021-10-14 16:11:16.079906,202
2021-10-14 16:11:16.079928,238
2021-10-14 16:11:16.079938,250
2021-10-14 16:11:16.079946,240
2021-10-14 16:11:16.079955,254
2021-10-14 16:11:16.079963,257
2021-10-14 16:11:16.079972,238
2021-10-14 16:11:16.079980,254
2021-10-14 16:11:16.079989,274
2021-10-14 16:11:16.079997,271
2021-10-14 16:11:16.080005,283
2021-10-14 16:11:16.080013,305
2021-10-14 16:11:16.080022,310
2021-10-14 16:11:16.080030,319
2021-10-14 16:11:16.080038,336
2021-10-14 16:11:16.080047,343
2021-10-14 16:11:16.080055,341
2021-10-14 16:11:16.080063,348
2021-10-14 16:11:16.080071,360
2021-10-14 16:11:16.080080,363
2021-10-14 16:11:16.080088,348
2021-10-14 16:11:16.080096,334
2021-10-14 16:11:16.080105,327
2021-10-14 16:11:16.080113,315
2021-10-14 16:11:16.080121,286
2021-10-14 16:11:16.080130,266
2021-10-14 16:11:16.080138,252
2021-10-14 16:11:16.080146,228
2021-10-14 16:11:16.080154,206
2021-10-14 16:11:16.080163,192
2021-10-14 16:11:16.214161,177
2021-10-14 16:11:16.214182,156
2021-10-14 16:11:16.214191,129
2021-10-14 16:11:16.214200,117
2021-10-14 16:11:16.214208,103
2021-10-14 16:11:16.214216,91
2021-10-14 16:11:16.214225,88
2021-10-14 16:11:16.214233,96
2021-10-14 16:11:16.214241,108
2021-10-14 16:11:16.214249,108
2021-10-14 16:11:16.214258,96
2021-10-14 16:11:16.214266,96
2021-10-14 16:11:16.214275,122
2021-10-14 16:11:16.214283,146
2021-10-14 16:11:16.214291,139
2021-10-14 16:11:16.214300,122
2021-10-14 16:11:16.214308,122
2021-10-14 16:11:16.214316,115
2021-10-14 16:11:16.214325,93
2021-10-14 16:11:16.214333,81
2021-10-14 16:11:16.214341,76
2021-10-14 16:11:16.214349,64
2021-10-14 16:11:16.214357,64
2021-10-14 16:11:16.214365,64
2021-10-14 16:11:16.214373,57
2021-10-14 16:11:16.214382,48
2021-10-14 16:11:16.214390,52
2021-10-14 16:11:16.214398,67
2021-10-14 16:11:16.214406,72
2021-10-14 16:11:16.214414,64
2021-10-14 16:11:16.574572,48
2021-10-14 16:11:16.574592,33
2021-10-14 16:11:16.574601,31
2021-10-14 16:11:16.574610,36
2021-10-14 16:11:16.574618,38
2021-10-14 16:11:16.574626,28
2021-10-14 16:11:16.574635,26
2021-10-14 16:11:16.574643,28
2021-10-14 16:11:16.574651,33
2021-10-14 16:11:16.574660,38
2021-10-14 16:11:16.574668,36
2021-10-14 16:11:16.574676,31
2021-10-14 16:11:16.574685,36
2021-10-14 16:11:16.574693,69
2021-10-14 16:11:16.574701,88
2021-10-14 16:11:16.574710,55
2021-10-14 16:11:16.574718,12
2021-10-14 16:11:16.574727,4
2021-10-14 16:11:16.574735,7
2021-10-14 16:11:16.574743,16
2021-10-14 16:11:16.574752,36
2021-10-14 16:11:16.574760,50
2021-10-14 16:11:16.574768,43
2021-10-14 16:11:16.574776,28
2021-10-14 16:11:16.574785,28
2021-10-14 16:11:16.574793,36
2021-10-14 16:11:16.574801,36
2021-10-14 16:11:16.574809,74
2021-10-14 16:11:16.574818,283
2021-10-14 16:11:16.574826,668
2021-10-14 16:11:16.709523,774
2021-10-14 16:11:16.709544,76
2021-10-14 16:11:16.709553,-860
2021-10-14 16:11:16.709562,-937
2021-10-14 16:11:16.709570,-394
2021-10-14 16:11:16.709578,-113
2021-10-14 16:11:16.709587,-40
2021-10-14 16:11:16.709595,74
2021-10-14 16:11:16.709603,113
2021-10-14 16:11:16.709611,88
2021-10-14 16:11:16.709620,105
2021-10-14 16:11:16.709628,132
2021-10-14 16:11:16.709636,144
2021-10-14 16:11:16.709644,165
2021-10-14 16:11:16.709653,180
2021-10-14 16:11:16.709661,146
2021-10-14 16:11:16.709669,98
2021-10-14 16:11:16.709678,108
2021-10-14 16:11:16.709686,134
2021-10-14 16:11:16.709694,139
2021-10-14 16:11:16.709703,149
2021-10-14 16:11:16.709711,163
2021-10-14 16:11:16.709719,170
2021-10-14 16:11:16.709728,175
2021-10-14 16:11:16.709736,165
2021-10-14 16:11:16.709744,161
2021-10-14 16:11:16.709752,177
2021-10-14 16:11:16.709761,180
2021-10-14 16:11:16.709769,165
2021-10-14 16:11:16.709778,158
2021-10-14 16:11:16.890600,153
2021-10-14 16:11:16.890621,132
2021-10-14 16:11:16.890631,113
2021-10-14 16:11:16.890639,88
2021-10-14 16:11:16.890648,52
2021-10-14 16:11:16.890656,26
2021-10-14 16:11:16.890665,7
2021-10-14 16:11:16.890674,-19
2021-10-14 16:11:16.890682,-50
2021-10-14 16:11:16.890691,-57
2021-10-14 16:11:16.890699,-60
2021-10-14 16:11:16.890707,-98
2021-10-14 16:11:16.890716,-117
2021-10-14 16:11:16.890724,-84
2021-10-14 16:11:16.890732,-60
2021-10-14 16:11:16.890741,-74
2021-10-14 16:11:16.890750,-91
2021-10-14 16:11:16.890758,-91
2021-10-14 16:11:16.890766,-91
2021-10-14 16:11:16.890775,-91
2021-10-14 16:11:16.890783,-69
2021-10-14 16:11:16.890792,-45
2021-10-14 16:11:16.890801,-48
2021-10-14 16:11:16.890809,-52
2021-10-14 16:11:16.890818,-43
2021-10-14 16:11:16.890831,-55
2021-10-14 16:11:16.890840,-64
2021-10-14 16:11:16.890849,-40
2021-10-14 16:11:16.890857,-26
2021-10-14 16:11:16.890866,-33
2021-10-14 16:11:17.115154,-40
2021-10-14 16:11:17.115175,-45
2021-10-14 16:11:17.115184,-43
2021-10-14 16:11:17.115193,-45
2021-10-14 16:11:17.115201,-62
2021-10-14 16:11:17.115210,-72
2021-10-14 16:11:17.115218,-72
2021-10-14 16:11:17.115226,-74
2021-10-14 16:11:17.115234,-74
2021-10-14 16:11:17.115243,-62
2021-10-14 16:11:17.115251,-60
2021-10-14 16:11:17.115259,-76
2021-10-14 16:11:17.115268,-93
2021-10-14 16:11:17.115276,-91
2021-10-14 16:11:17.115284,-81
2021-10-14 16:11:17.115293,-79
2021-10-14 16:11:17.115301,-93
2021-10-14 16:11:17.115309,-108
2021-10-14 16:11:17.115317,-103
2021-10-14 16:11:17.115326,-103
2021-10-14 16:11:17.115334,-117
2021-10-14 16:11:17.115342,-110
2021-10-14 16:11:17.115350,-86
2021-10-14 16:11:17.115359,-72
2021-10-14 16:11:17.115367,-72
2021-10-14 16:11:17.115375,-72
2021-10-14 16:11:17.115383,-64
2021-10-14 16:11:17.115392,-64
2021-10-14 16:11:17.115399,-79
2021-10-14 16:11:17.115407,-108
2021-10-14 16:11:17.340400,-141
2021-10-14 16:11:17.340432,-141
2021-10-14 16:11:17.340442,-115
2021-10-14 16:11:17.340450,-113
2021-10-14 16:11:17.340459,-113
2021-10-14 16:11:17.340467,-105
2021-10-14 16:11:17.340476,-125
2021-10-14 16:11:17.340484,-139
2021-10-14 16:11:17.340493,-110
2021-10-14 16:11:17.340501,-79
2021-10-14 16:11:17.340509,-55
2021-10-14 16:11:17.340518,67
2021-10-14 16:11:17.340526,391
2021-10-14 16:11:17.340535,680
2021-10-14 16:11:17.340543,341
2021-10-14 16:11:17.340552,-639
2021-10-14 16:11:17.340560,-1173
2021-10-14 16:11:17.340569,-723
2021-10-14 16:11:17.340577,-242
2021-10-14 16:11:17.340586,-192
2021-10-14 16:11:17.340594,-115
2021-10-14 16:11:17.340603,4
2021-10-14 16:11:17.340611,-12
2021-10-14 16:11:17.340620,-21
2021-10-14 16:11:17.340628,16
2021-10-14 16:11:17.340636,4
2021-10-14 16:11:17.340645,-14
2021-10-14 16:11:17.340653,24
2021-10-14 16:11:17.340662,45
2021-10-14 16:11:17.340670,12
2021-10-14 16:11:17.745168,0
2021-10-14 16:11:17.745190,36
2021-10-14 16:11:17.745200,57
2021-10-14 16:11:17.745208,60
2021-10-14 16:11:17.745217,72
2021-10-14 16:11:17.745225,69
2021-10-14 16:11:17.745233,52
2021-10-14 16:11:17.745241,69
2021-10-14 16:11:17.745250,91
2021-10-14 16:11:17.745258,88
2021-10-14 16:11:17.745266,88
2021-10-14 16:11:17.745274,98
2021-10-14 16:11:17.745283,88
2021-10-14 16:11:17.745291,79
2021-10-14 16:11:17.745299,76
2021-10-14 16:11:17.745307,52
2021-10-14 16:11:17.745316,21
2021-10-14 16:11:17.745324,2
2021-10-14 16:11:17.745332,-19
2021-10-14 16:11:17.745340,-43
2021-10-14 16:11:17.745348,-60
2021-10-14 16:11:17.745357,-76
2021-10-14 16:11:17.745365,-91
2021-10-14 16:11:17.745373,-98
2021-10-14 16:11:17.745381,-101
2021-10-14 16:11:17.745389,-105
2021-10-14 16:11:17.745397,-108
2021-10-14 16:11:17.745406,-125
2021-10-14 16:11:17.745414,-134
2021-10-14 16:11:17.745422,-110
2021-10-14 16:11:17.835507,-101
2021-10-14 16:11:17.835527,-117
2021-10-14 16:11:17.835537,-110
2021-10-14 16:11:17.835545,-88
2021-10-14 16:11:17.835553,-74
2021-10-14 16:11:17.835562,-84
2021-10-14 16:11:17.835570,-101
2021-10-14 16:11:17.835578,-98
2021-10-14 16:11:17.835586,-93
2021-10-14 16:11:17.835595,-96
2021-10-14 16:11:17.835603,-81
2021-10-14 16:11:17.835611,-74
2021-10-14 16:11:17.835619,-72
2021-10-14 16:11:17.835628,-62
2021-10-14 16:11:17.835636,-72
2021-10-14 16:11:17.835644,-76
2021-10-14 16:11:17.835652,-72
2021-10-14 16:11:17.835661,-76
2021-10-14 16:11:17.835669,-69
2021-10-14 16:11:17.835677,-64
2021-10-14 16:11:17.835685,-74
2021-10-14 16:11:17.835693,-79
2021-10-14 16:11:17.835701,-72
2021-10-14 16:11:17.835710,-67
2021-10-14 16:11:17.835718,-72
2021-10-14 16:11:17.835726,-81
2021-10-14 16:11:17.835734,-81
2021-10-14 16:11:17.835742,-88
2021-10-14 16:11:17.835751,-96
2021-10-14 16:11:17.835759,-81
2021-10-14 16:11:18.060537,-64
2021-10-14 16:11:18.060559,-64
2021-10-14 16:11:18.060569,-98
2021-10-14 16:11:18.060579,-120
2021-10-14 16:11:18.060588,-115
2021-10-14 16:11:18.060597,-122
2021-10-14 16:11:18.060606,-125
2021-10-14 16:11:18.060615,-96
2021-10-14 16:11:18.060624,-72
2021-10-14 16:11:18.060632,-91
2021-10-14 16:11:18.060641,-132
2021-10-14 16:11:18.060650,-108
2021-10-14 16:11:18.060659,-67
2021-10-14 16:11:18.060668,-108
2021-10-14 16:11:18.060677,-144
2021-10-14 16:11:18.060685,-125
2021-10-14 16:11:18.060694,-120
2021-10-14 16:11:18.060703,-115
2021-10-14 16:11:18.060712,-93
2021-10-14 16:11:18.060721,-96
2021-10-14 16:11:18.060730,-98
2021-10-14 16:11:18.060739,-67
2021-10-14 16:11:18.060753,-79
2021-10-14 16:11:18.060762,-127
2021-10-14 16:11:18.060771,-105
2021-10-14 16:11:18.060779,-67
2021-10-14 16:11:18.060787,-4
2021-10-14 16:11:18.060796,276
2021-10-14 16:11:18.060804,663
2021-10-14 16:11:18.060812,627
2021-10-14 16:11:18.374095,-161
2021-10-14 16:11:18.374116,-993
2021-10-14 16:11:18.374126,-889
2021-10-14 16:11:18.374134,-317
2021-10-14 16:11:18.374142,-129
2021-10-14 16:11:18.374151,-98
2021-10-14 16:11:18.374159,33
2021-10-14 16:11:18.374167,24
2021-10-14 16:11:18.374176,-50
2021-10-14 16:11:18.374184,12
2021-10-14 16:11:18.374192,40
2021-10-14 16:11:18.374201,-12
2021-10-14 16:11:18.374209,0
2021-10-14 16:11:18.374217,50
2021-10-14 16:11:18.374225,50
2021-10-14 16:11:18.374234,33
2021-10-14 16:11:18.374242,40
2021-10-14 16:11:18.374251,48
2021-10-14 16:11:18.374259,69
2021-10-14 16:11:18.374267,105
2021-10-14 16:11:18.374275,96
2021-10-14 16:11:18.374284,79
2021-10-14 16:11:18.374292,98
2021-10-14 16:11:18.374300,96
2021-10-14 16:11:18.374308,91
2021-10-14 16:11:18.374316,139
2021-10-14 16:11:18.374325,165
2021-10-14 16:11:18.374347,132
2021-10-14 16:11:18.374355,125
2021-10-14 16:11:18.374364,151
2021-10-14 16:11:18.555167,149
2021-10-14 16:11:18.555190,151
2021-10-14 16:11:18.555200,120
2021-10-14 16:11:18.555209,16
2021-10-14 16:11:18.555218,-28
2021-10-14 16:11:18.555227,-7
2021-10-14 16:11:18.555236,-21
2021-10-14 16:11:18.555245,-45
2021-10-14 16:11:18.555254,-45
2021-10-14 16:11:18.555262,-60
2021-10-14 16:11:18.555270,-79
2021-10-14 16:11:18.555279,-72
2021-10-14 16:11:18.555287,-74
2021-10-14 16:11:18.555296,-93
2021-10-14 16:11:18.555305,-105
2021-10-14 16:11:18.555313,-103
2021-10-14 16:11:18.555322,-88
2021-10-14 16:11:18.555331,-91
2021-10-14 16:11:18.555340,-91
2021-10-14 16:11:18.555349,-50
2021-10-14 16:11:18.555358,-31
2021-10-14 16:11:18.555366,-55
2021-10-14 16:11:18.555375,-48
2021-10-14 16:11:18.555384,-7
2021-10-14 16:11:18.555392,-2
2021-10-14 16:11:18.555401,-21
2021-10-14 16:11:18.555410,-26
2021-10-14 16:11:18.555418,-26
2021-10-14 16:11:18.555427,-26
2021-10-14 16:11:18.555435,-7
2021-10-14 16:11:18.913983,7
2021-10-14 16:11:18.914004,-4
2021-10-14 16:11:18.914014,-19
2021-10-14 16:11:18.914022,-7
2021-10-14 16:11:18.914031,4
2021-10-14 16:11:18.914039,-9
2021-10-14 16:11:18.914047,-9
2021-10-14 16:11:18.914055,14
2021-10-14 16:11:18.914064,4
2021-10-14 16:11:18.914072,-31
2021-10-14 16:11:18.914080,-28
2021-10-14 16:11:18.914089,-4
2021-10-14 16:11:18.914097,-9
2021-10-14 16:11:18.914105,-9
2021-10-14 16:11:18.914113,7
2021-10-14 16:11:18.914122,-12
2021-10-14 16:11:18.914130,-38
2021-10-14 16:11:18.914138,-33
2021-10-14 16:11:18.914147,-24
2021-10-14 16:11:18.914155,-12
2021-10-14 16:11:18.914163,-9
2021-10-14 16:11:18.914172,-19
2021-10-14 16:11:18.914180,-7
2021-10-14 16:11:18.914188,-12
2021-10-14 16:11:18.914197,-52
2021-10-14 16:11:18.914205,-62
2021-10-14 16:11:18.914213,-48
2021-10-14 16:11:18.914222,-40
2021-10-14 16:11:18.914230,-28
2021-10-14 16:11:18.914238,-14
2021-10-14 16:11:19.094554,-7
2021-10-14 16:11:19.094575,-45
2021-10-14 16:11:19.094584,-84
2021-10-14 16:11:19.094593,-57
2021-10-14 16:11:19.094601,-24
2021-10-14 16:11:19.094609,-24
2021-10-14 16:11:19.094617,28
2021-10-14 16:11:19.094626,242
2021-10-14 16:11:19.094634,608
2021-10-14 16:11:19.094642,733
2021-10-14 16:11:19.094650,76
2021-10-14 16:11:19.094658,-918
2021-10-14 16:11:19.094667,-1077
2021-10-14 16:11:19.094675,-509
2021-10-14 16:11:19.094683,-187
2021-10-14 16:11:19.094691,-115
2021-10-14 16:11:19.094699,9
2021-10-14 16:11:19.094707,67
2021-10-14 16:11:19.094716,45
2021-10-14 16:11:19.094724,67
2021-10-14 16:11:19.094732,79
2021-10-14 16:11:19.094740,50
2021-10-14 16:11:19.094748,57
2021-10-14 16:11:19.094756,91
2021-10-14 16:11:19.094765,91
2021-10-14 16:11:19.094773,76
2021-10-14 16:11:19.094781,72
2021-10-14 16:11:19.094789,96
2021-10-14 16:11:19.094798,129
2021-10-14 16:11:19.094806,127
2021-10-14 16:11:19.410309,108
2021-10-14 16:11:19.410331,127
2021-10-14 16:11:19.410340,158
2021-10-14 16:11:19.410349,151
2021-10-14 16:11:19.410357,137
2021-10-14 16:11:19.410365,173
2021-10-14 16:11:19.410374,189
2021-10-14 16:11:19.410382,139
2021-10-14 16:11:19.410390,127
2021-10-14 16:11:19.410399,158
2021-10-14 16:11:19.410407,146
2021-10-14 16:11:19.410415,117
2021-10-14 16:11:19.410423,98
2021-10-14 16:11:19.410432,84
2021-10-14 16:11:19.410440,43
2021-10-14 16:11:19.410448,-4
2021-10-14 16:11:19.410457,-4
2021-10-14 16:11:19.410465,-16
2021-10-14 16:11:19.410473,-60
2021-10-14 16:11:19.410482,-76
2021-10-14 16:11:19.410497,-74
2021-10-14 16:11:19.410506,-79
2021-10-14 16:11:19.410514,-84
2021-10-14 16:11:19.410523,-103
2021-10-14 16:11:19.410531,-122
2021-10-14 16:11:19.410539,-115
2021-10-14 16:11:19.410548,-96
2021-10-14 16:11:19.410556,-91
2021-10-14 16:11:19.410564,-93
2021-10-14 16:11:19.410573,-79
2021-10-14 16:11:19.545557,-48
2021-10-14 16:11:19.545584,-52
2021-10-14 16:11:19.545592,-79
2021-10-14 16:11:19.545601,-57
2021-10-14 16:11:19.545609,-16
2021-10-14 16:11:19.545616,-19
2021-10-14 16:11:19.545623,-52
2021-10-14 16:11:19.545630,-55
2021-10-14 16:11:19.545639,-26
2021-10-14 16:11:19.545647,-14
2021-10-14 16:11:19.545655,-16
2021-10-14 16:11:19.545664,-28
2021-10-14 16:11:19.545672,-26
2021-10-14 16:11:19.545680,-2
2021-10-14 16:11:19.545689,9
2021-10-14 16:11:19.545697,-4
2021-10-14 16:11:19.545705,-12
2021-10-14 16:11:19.545714,-12
2021-10-14 16:11:19.545722,-28
2021-10-14 16:11:19.545730,-38
2021-10-14 16:11:19.545738,-26
2021-10-14 16:11:19.545747,-9
2021-10-14 16:11:19.545755,-2
2021-10-14 16:11:19.545763,-19
2021-10-14 16:11:19.545771,-26
2021-10-14 16:11:19.545779,-9
2021-10-14 16:11:19.545788,2
2021-10-14 16:11:19.545796,-2
2021-10-14 16:11:19.545804,-14
2021-10-14 16:11:19.545812,-7
2021-10-14 16:11:19.635101,0
2021-10-14 16:11:19.635120,-14
2021-10-14 16:11:19.635129,-21
2021-10-14 16:11:19.635138,7
2021-10-14 16:11:19.635146,28
2021-10-14 16:11:19.635155,9
2021-10-14 16:11:19.635163,0
2021-10-14 16:11:19.635171,4
2021-10-14 16:11:19.635180,-7
2021-10-14 16:11:19.635188,-26
2021-10-14 16:11:19.635196,-33
2021-10-14 16:11:19.635205,-52
2021-10-14 16:11:19.635213,-62
2021-10-14 16:11:19.635221,-45
2021-10-14 16:11:19.635230,-38
2021-10-14 16:11:19.635238,-43
2021-10-14 16:11:19.635246,-48
2021-10-14 16:11:19.635254,-45
2021-10-14 16:11:19.635263,-31
2021-10-14 16:11:19.635271,-12
2021-10-14 16:11:19.635279,74
2021-10-14 16:11:19.635287,377
2021-10-14 16:11:19.635295,721
2021-10-14 16:11:19.635304,521
2021-10-14 16:11:19.635312,-367
2021-10-14 16:11:19.635320,-981
2021-10-14 16:11:19.635328,-661
2021-10-14 16:11:19.635336,-226
2021-10-14 16:11:19.635344,-187
2021-10-14 16:11:19.635353,-117
2021-10-14 16:11:19.949988,24
2021-10-14 16:11:19.950012,33
2021-10-14 16:11:19.950020,7
2021-10-14 16:11:19.950028,21
2021-10-14 16:11:19.950036,38
2021-10-14 16:11:19.950045,48
2021-10-14 16:11:19.950053,64
2021-10-14 16:11:19.950061,50
2021-10-14 16:11:19.950069,12
2021-10-14 16:11:19.950076,26
2021-10-14 16:11:19.950084,55
2021-10-14 16:11:19.950092,57
2021-10-14 16:11:19.950100,72
2021-10-14 16:11:19.950108,91
2021-10-14 16:11:19.950116,93
2021-10-14 16:11:19.950124,91
2021-10-14 16:11:19.950132,103
2021-10-14 16:11:19.950139,108
2021-10-14 16:11:19.950148,110
2021-10-14 16:11:19.950156,127
2021-10-14 16:11:19.950165,137
2021-10-14 16:11:19.950174,139
2021-10-14 16:11:19.950183,125
2021-10-14 16:11:19.950192,88
2021-10-14 16:11:19.950200,76
2021-10-14 16:11:19.950208,74
2021-10-14 16:11:19.950217,45
2021-10-14 16:11:19.950225,26
2021-10-14 16:11:19.950233,16
2021-10-14 16:11:19.950241,-12
2021-10-14 16:11:20.130556,-38
2021-10-14 16:11:20.130577,-50
2021-10-14 16:11:20.130587,-57
2021-10-14 16:11:20.130595,-52
2021-10-14 16:11:20.130604,-55
2021-10-14 16:11:20.130612,-64
2021-10-14 16:11:20.130620,-57
2021-10-14 16:11:20.130628,-72
2021-10-14 16:11:20.130637,-79
2021-10-14 16:11:20.130645,-62
2021-10-14 16:11:20.130653,-62
2021-10-14 16:11:20.130662,-57
2021-10-14 16:11:20.130670,-43
2021-10-14 16:11:20.130678,-50
2021-10-14 16:11:20.130686,-52
2021-10-14 16:11:20.130695,-48
2021-10-14 16:11:20.130724,-55
2021-10-14 16:11:20.130733,-48
2021-10-14 16:11:20.130741,-9
2021-10-14 16:11:20.130749,2
2021-10-14 16:11:20.130758,-26
2021-10-14 16:11:20.130766,-48
2021-10-14 16:11:20.130774,-43
2021-10-14 16:11:20.130783,-19
2021-10-14 16:11:20.130791,2
2021-10-14 16:11:20.130799,0
2021-10-14 16:11:20.130807,-16
2021-10-14 16:11:20.130815,-38
2021-10-14 16:11:20.130824,-52
2021-10-14 16:11:20.130832,-21
2021-10-14 16:11:20.398935,4
2021-10-14 16:11:20.398956,-38
2021-10-14 16:11:20.398966,-52
2021-10-14 16:11:20.398974,-26
2021-10-14 16:11:20.398983,-24
2021-10-14 16:11:20.398991,-21
2021-10-14 16:11:20.399000,-26
2021-10-14 16:11:20.399008,-38
2021-10-14 16:11:20.399016,-28
2021-10-14 16:11:20.399025,-26
2021-10-14 16:11:20.399033,-33
2021-10-14 16:11:20.399041,-26
2021-10-14 16:11:20.399049,-31
2021-10-14 16:11:20.399058,-48
2021-10-14 16:11:20.399066,-57
2021-10-14 16:11:20.399075,-60
2021-10-14 16:11:20.399083,-43
2021-10-14 16:11:20.399091,-24
2021-10-14 16:11:20.399100,-14
2021-10-14 16:11:20.399108,-21
2021-10-14 16:11:20.399116,-45
2021-10-14 16:11:20.399125,-43
2021-10-14 16:11:20.399133,-19
2021-10-14 16:11:20.399141,-36
2021-10-14 16:11:20.399150,-55
2021-10-14 16:11:20.399158,-19
2021-10-14 16:11:20.399166,0
2021-10-14 16:11:20.399175,-43
2021-10-14 16:11:20.399183,-64
2021-10-14 16:11:20.399191,-62
2021-10-14 16:11:20.580556,-62
2021-10-14 16:11:20.580577,-57
2021-10-14 16:11:20.580586,-57
2021-10-14 16:11:20.580595,-48
2021-10-14 16:11:20.580603,-21
2021-10-14 16:11:20.580612,-26
2021-10-14 16:11:20.580620,-31
2021-10-14 16:11:20.580628,-21
2021-10-14 16:11:20.580636,-55
2021-10-14 16:11:20.580645,-64
2021-10-14 16:11:20.580653,84
2021-10-14 16:11:20.580662,430
2021-10-14 16:11:20.580670,745
2021-10-14 16:11:20.580678,483
2021-10-14 16:11:20.580687,-437
2021-10-14 16:11:20.580695,-995
2021-10-14 16:11:20.580703,-613
2021-10-14 16:11:20.580712,-165
2021-10-14 16:11:20.580720,-103
2021-10-14 16:11:20.580728,-21
2021-10-14 16:11:20.580737,48
2021-10-14 16:11:20.580745,-7
2021-10-14 16:11:20.580753,-4
2021-10-14 16:11:20.580761,67
2021-10-14 16:11:20.580770,81
2021-10-14 16:11:20.580778,60
2021-10-14 16:11:20.580786,50
2021-10-14 16:11:20.580795,62
2021-10-14 16:11:20.580803,91
2021-10-14 16:11:20.580811,101
2021-10-14 16:11:20.805573,88
2021-10-14 16:11:20.805594,88
2021-10-14 16:11:20.805604,98
2021-10-14 16:11:20.805612,108
2021-10-14 16:11:20.805621,108
2021-10-14 16:11:20.805629,101
2021-10-14 16:11:20.805638,122
2021-10-14 16:11:20.805646,161
2021-10-14 16:11:20.805654,161
2021-10-14 16:11:20.805663,139
2021-10-14 16:11:20.805671,149
2021-10-14 16:11:20.805679,158
2021-10-14 16:11:20.805688,127
2021-10-14 16:11:20.805696,110
2021-10-14 16:11:20.805704,122
2021-10-14 16:11:20.805713,108
2021-10-14 16:11:20.805721,79
2021-10-14 16:11:20.805729,48
2021-10-14 16:11:20.805737,21
2021-10-14 16:11:20.805746,2
2021-10-14 16:11:20.805754,-14
2021-10-14 16:11:20.805762,-28
2021-10-14 16:11:20.805771,-40
2021-10-14 16:11:20.805779,-60
2021-10-14 16:11:20.805787,-50
2021-10-14 16:11:20.805801,-45
2021-10-14 16:11:20.805810,-69
2021-10-14 16:11:20.805818,-62
2021-10-14 16:11:20.805827,-43
2021-10-14 16:11:20.805835,-62
2021-10-14 16:11:21.075217,-79
2021-10-14 16:11:21.075238,-52
2021-10-14 16:11:21.075248,-26
2021-10-14 16:11:21.075256,-24
2021-10-14 16:11:21.075265,-26
2021-10-14 16:11:21.075273,-31
2021-10-14 16:11:21.075281,-21
2021-10-14 16:11:21.075290,-4
2021-10-14 16:11:21.075298,-19
2021-10-14 16:11:21.075306,-28
2021-10-14 16:11:21.075315,4
2021-10-14 16:11:21.075323,14
2021-10-14 16:11:21.075331,-16
2021-10-14 16:11:21.075339,-28
2021-10-14 16:11:21.075348,-16
2021-10-14 16:11:21.075356,0
2021-10-14 16:11:21.075365,21
2021-10-14 16:11:21.075373,28
2021-10-14 16:11:21.075381,16
2021-10-14 16:11:21.075389,2
2021-10-14 16:11:21.075398,-2
2021-10-14 16:11:21.075406,-7
2021-10-14 16:11:21.075414,-7
2021-10-14 16:11:21.075422,2
2021-10-14 16:11:21.075431,28
2021-10-14 16:11:21.075439,36
2021-10-14 16:11:21.075448,9
2021-10-14 16:11:21.075456,-7
2021-10-14 16:11:21.075464,7
2021-10-14 16:11:21.075472,14
2021-10-14 16:11:21.255206,2
2021-10-14 16:11:21.255228,12
2021-10-14 16:11:21.255237,16
2021-10-14 16:11:21.255246,-2
2021-10-14 16:11:21.255254,-7
2021-10-14 16:11:21.255262,-16
2021-10-14 16:11:21.255271,-38
2021-10-14 16:11:21.255279,-24
2021-10-14 16:11:21.255287,-9
2021-10-14 16:11:21.255296,-19
2021-10-14 16:11:21.255304,-4
2021-10-14 16:11:21.255312,4
2021-10-14 16:11:21.255320,-12
2021-10-14 16:11:21.255328,-2
2021-10-14 16:11:21.255337,9
2021-10-14 16:11:21.255345,9
2021-10-14 16:11:21.255353,12
2021-10-14 16:11:21.255362,-14
2021-10-14 16:11:21.255370,-45
2021-10-14 16:11:21.255379,-43
2021-10-14 16:11:21.255387,-38
2021-10-14 16:11:21.255395,-48
2021-10-14 16:11:21.255403,-43
2021-10-14 16:11:21.255411,-24
2021-10-14 16:11:21.255420,-24
2021-10-14 16:11:21.255428,-36
2021-10-14 16:11:21.255436,-9
2021-10-14 16:11:21.255445,7
2021-10-14 16:11:21.255453,-2
2021-10-14 16:11:21.255461,38
2021-10-14 16:11:21.525222,216
2021-10-14 16:11:21.525244,593
2021-10-14 16:11:21.525253,848
2021-10-14 16:11:21.525262,339
2021-10-14 16:11:21.525270,-711
2021-10-14 16:11:21.525279,-1089
2021-10-14 16:11:21.525287,-574
2021-10-14 16:11:21.525296,-189
2021-10-14 16:11:21.525304,-137
2021-10-14 16:11:21.525312,-2
2021-10-14 16:11:21.525321,96
2021-10-14 16:11:21.525329,67
2021-10-14 16:11:21.525337,76
2021-10-14 16:11:21.525346,98
2021-10-14 16:11:21.525354,72
2021-10-14 16:11:21.525362,69
2021-10-14 16:11:21.525371,93
2021-10-14 16:11:21.525379,93
2021-10-14 16:11:21.525387,103
2021-10-14 16:11:21.525395,139
2021-10-14 16:11:21.525404,139
2021-10-14 16:11:21.525412,108
2021-10-14 16:11:21.525420,110
2021-10-14 16:11:21.525428,146
2021-10-14 16:11:21.525437,158
2021-10-14 16:11:21.525445,149
2021-10-14 16:11:21.525453,153
2021-10-14 16:11:21.525462,189
2021-10-14 16:11:21.525470,209
2021-10-14 16:11:21.525478,185
2021-10-14 16:11:21.705199,187
2021-10-14 16:11:21.705220,206
2021-10-14 16:11:21.705230,189
2021-10-14 16:11:21.705238,173
2021-10-14 16:11:21.705247,158
2021-10-14 16:11:21.705255,120
2021-10-14 16:11:21.705263,98
2021-10-14 16:11:21.705272,88
2021-10-14 16:11:21.705280,50
2021-10-14 16:11:21.705289,0
2021-10-14 16:11:21.705297,-28
2021-10-14 16:11:21.705305,-48
2021-10-14 16:11:21.705314,-69
2021-10-14 16:11:21.705322,-81
2021-10-14 16:11:21.705330,-74
2021-10-14 16:11:21.705338,-72
2021-10-14 16:11:21.705347,-81
2021-10-14 16:11:21.705355,-93
2021-10-14 16:11:21.705363,-91
2021-10-14 16:11:21.705371,-76
2021-10-14 16:11:21.705380,-79
2021-10-14 16:11:21.705388,-108
2021-10-14 16:11:21.705396,-120
2021-10-14 16:11:21.705404,-96
2021-10-14 16:11:21.705413,-79
2021-10-14 16:11:21.705421,-76
2021-10-14 16:11:21.705429,-48
2021-10-14 16:11:21.705437,-38
2021-10-14 16:11:21.705446,-72
2021-10-14 16:11:21.705454,-62
2021-10-14 16:11:21.930584,-36
2021-10-14 16:11:21.930606,-45
2021-10-14 16:11:21.930615,-43
2021-10-14 16:11:21.930624,-26
2021-10-14 16:11:21.930632,-28
2021-10-14 16:11:21.930640,-50
2021-10-14 16:11:21.930649,-60
2021-10-14 16:11:21.930657,-31
2021-10-14 16:11:21.930666,0
2021-10-14 16:11:21.930674,-26
2021-10-14 16:11:21.930682,-69
2021-10-14 16:11:21.930690,-60
2021-10-14 16:11:21.930705,-48
2021-10-14 16:11:21.930714,-62
2021-10-14 16:11:21.930722,-67
2021-10-14 16:11:21.930731,-60
2021-10-14 16:11:21.930739,-48
2021-10-14 16:11:21.930747,-52
2021-10-14 16:11:21.930756,-81
2021-10-14 16:11:21.930764,-79
2021-10-14 16:11:21.930772,-52
2021-10-14 16:11:21.930780,-64
2021-10-14 16:11:21.930788,-69
2021-10-14 16:11:21.930797,-33
2021-10-14 16:11:21.930805,-36
2021-10-14 16:11:21.930813,-86
2021-10-14 16:11:21.930821,-91
2021-10-14 16:11:21.930829,-64
2021-10-14 16:11:21.930838,-67
2021-10-14 16:11:21.930846,-64
2021-10-14 16:11:22.289601,-28
2021-10-14 16:11:22.289623,-21
2021-10-14 16:11:22.289632,-60
2021-10-14 16:11:22.289641,-72
2021-10-14 16:11:22.289649,-45
2021-10-14 16:11:22.289658,-21
2021-10-14 16:11:22.289666,-4
2021-10-14 16:11:22.289674,-4
2021-10-14 16:11:22.289682,-33
2021-10-14 16:11:22.289691,-60
2021-10-14 16:11:22.289699,-72
2021-10-14 16:11:22.289707,-74
2021-10-14 16:11:22.289715,-62
2021-10-14 16:11:22.289723,-62
2021-10-14 16:11:22.289732,-64
2021-10-14 16:11:22.289740,-55
2021-10-14 16:11:22.289748,-57
2021-10-14 16:11:22.289756,-69
2021-10-14 16:11:22.289765,-45
2021-10-14 16:11:22.289773,-16
2021-10-14 16:11:22.289781,0
2021-10-14 16:11:22.289790,125
2021-10-14 16:11:22.289798,488
2021-10-14 16:11:22.289806,803
2021-10-14 16:11:22.289814,442
2021-10-14 16:11:22.289822,-550
2021-10-14 16:11:22.289831,-1086
2021-10-14 16:11:22.289839,-661
2021-10-14 16:11:22.289847,-194
2021-10-14 16:11:22.289867,-139
2021-10-14 16:11:22.469261,-55
2021-10-14 16:11:22.469282,48
2021-10-14 16:11:22.469292,14
2021-10-14 16:11:22.469300,12
2021-10-14 16:11:22.469309,64
2021-10-14 16:11:22.469317,64
2021-10-14 16:11:22.469325,60
2021-10-14 16:11:22.469334,74
2021-10-14 16:11:22.469342,72
2021-10-14 16:11:22.469350,57
2021-10-14 16:11:22.469358,57
2021-10-14 16:11:22.469367,79
2021-10-14 16:11:22.469375,101
2021-10-14 16:11:22.469383,93
2021-10-14 16:11:22.469392,81
2021-10-14 16:11:22.469400,101
2021-10-14 16:11:22.469408,127
2021-10-14 16:11:22.469416,125
2021-10-14 16:11:22.469425,127
2021-10-14 16:11:22.469433,139
2021-10-14 16:11:22.469441,129
2021-10-14 16:11:22.469449,115
2021-10-14 16:11:22.469457,120
2021-10-14 16:11:22.469466,125
2021-10-14 16:11:22.469474,125
2021-10-14 16:11:22.469482,110
2021-10-14 16:11:22.469491,84
2021-10-14 16:11:22.469499,74
2021-10-14 16:11:22.469507,55
2021-10-14 16:11:22.469515,21
2021-10-14 16:11:22.785588,0
2021-10-14 16:11:22.785610,-16
2021-10-14 16:11:22.785620,-43
2021-10-14 16:11:22.785628,-67
2021-10-14 16:11:22.785637,-64
2021-10-14 16:11:22.785645,-72
2021-10-14 16:11:22.785653,-105
2021-10-14 16:11:22.785662,-101
2021-10-14 16:11:22.785670,-69
2021-10-14 16:11:22.785678,-81
2021-10-14 16:11:22.785686,-96
2021-10-14 16:11:22.785695,-79
2021-10-14 16:11:22.785703,-76
2021-10-14 16:11:22.785711,-79
2021-10-14 16:11:22.785719,-57
2021-10-14 16:11:22.785728,-52
2021-10-14 16:11:22.785736,-72
2021-10-14 16:11:22.785744,-79
2021-10-14 16:11:22.785752,-60
2021-10-14 16:11:22.785761,-31
2021-10-14 16:11:22.785769,-19
2021-10-14 16:11:22.785777,-33
2021-10-14 16:11:22.785785,-40
2021-10-14 16:11:22.785794,-33
2021-10-14 16:11:22.785802,-24
2021-10-14 16:11:22.785810,-14
2021-10-14 16:11:22.785818,4
2021-10-14 16:11:22.785827,-4
2021-10-14 16:11:22.785835,-50
2021-10-14 16:11:22.785843,-67
2021-10-14 16:11:22.875163,-43
2021-10-14 16:11:22.875183,-36
2021-10-14 16:11:22.875192,-45
2021-10-14 16:11:22.875200,-52
2021-10-14 16:11:22.875209,-50
2021-10-14 16:11:22.875217,-50
2021-10-14 16:11:22.875225,-48
2021-10-14 16:11:22.875233,-36
2021-10-14 16:11:22.875242,-28
2021-10-14 16:11:22.875250,-33
2021-10-14 16:11:22.875258,-43
2021-10-14 16:11:22.875267,-45
2021-10-14 16:11:22.875275,-45
2021-10-14 16:11:22.875283,-45
2021-10-14 16:11:22.875292,-38
2021-10-14 16:11:22.875300,-31
2021-10-14 16:11:22.875308,-28
2021-10-14 16:11:22.875316,-19
2021-10-14 16:11:22.875325,-16
2021-10-14 16:11:22.875333,-26
2021-10-14 16:11:22.875341,-26
2021-10-14 16:11:22.875349,-16
2021-10-14 16:11:22.875358,-21
2021-10-14 16:11:22.875366,-36
2021-10-14 16:11:22.875374,-28
2021-10-14 16:11:22.875382,-12
2021-10-14 16:11:22.875390,-21
2021-10-14 16:11:22.875399,-28
2021-10-14 16:11:22.875407,2
2021-10-14 16:11:22.875415,24
2021-10-14 16:11:23.235620,12
2021-10-14 16:11:23.235642,7
2021-10-14 16:11:23.235651,14
2021-10-14 16:11:23.235660,-2
2021-10-14 16:11:23.235668,-21
2021-10-14 16:11:23.235677,-16
2021-10-14 16:11:23.235685,-12
2021-10-14 16:11:23.235693,-16
2021-10-14 16:11:23.235701,-31
2021-10-14 16:11:23.235710,-36
2021-10-14 16:11:23.235718,-14
2021-10-14 16:11:23.235726,12
2021-10-14 16:11:23.235734,9
2021-10-14 16:11:23.235743,4
2021-10-14 16:11:23.235751,19
2021-10-14 16:11:23.235759,76
2021-10-14 16:11:23.235767,290
2021-10-14 16:11:23.235775,682
2021-10-14 16:11:23.235783,805
2021-10-14 16:11:23.235791,129
2021-10-14 16:11:23.235800,-856
2021-10-14 16:11:23.235808,-1007
2021-10-14 16:11:23.235816,-447
2021-10-14 16:11:23.235824,-129
2021-10-14 16:11:23.235833,-81
2021-10-14 16:11:23.235841,33
2021-10-14 16:11:23.235849,98
2021-10-14 16:11:23.235857,79
2021-10-14 16:11:23.235866,96
2021-10-14 16:11:23.235874,115
2021-10-14 16:11:23.325172,98
2021-10-14 16:11:23.325192,103
2021-10-14 16:11:23.325201,129
2021-10-14 16:11:23.325210,129
2021-10-14 16:11:23.325219,125
2021-10-14 16:11:23.325227,139
2021-10-14 16:11:23.325236,132
2021-10-14 16:11:23.325244,117
2021-10-14 16:11:23.325252,129
2021-10-14 16:11:23.325261,146
2021-10-14 16:11:23.325269,151
2021-10-14 16:11:23.325277,165
2021-10-14 16:11:23.325286,180
2021-10-14 16:11:23.325294,187
2021-10-14 16:11:23.325302,199
2021-10-14 16:11:23.325310,209
2021-10-14 16:11:23.325318,214
2021-10-14 16:11:23.325327,216
2021-10-14 16:11:23.325335,211
2021-10-14 16:11:23.325343,206
2021-10-14 16:11:23.325352,192
2021-10-14 16:11:23.325360,165
2021-10-14 16:11:23.325368,137
2021-10-14 16:11:23.325376,98
2021-10-14 16:11:23.325384,48
2021-10-14 16:11:23.325393,19
2021-10-14 16:11:23.325401,-4
2021-10-14 16:11:23.325409,-40
2021-10-14 16:11:23.325418,-69
2021-10-14 16:11:23.325426,-76
2021-10-14 16:11:23.550232,-84
2021-10-14 16:11:23.550253,-79
2021-10-14 16:11:23.550262,-74
2021-10-14 16:11:23.550271,-88
2021-10-14 16:11:23.550279,-98
2021-10-14 16:11:23.550287,-98
2021-10-14 16:11:23.550296,-98
2021-10-14 16:11:23.550304,-96
2021-10-14 16:11:23.550312,-96
2021-10-14 16:11:23.550321,-86
2021-10-14 16:11:23.550329,-81
2021-10-14 16:11:23.550337,-93
2021-10-14 16:11:23.550346,-96
2021-10-14 16:11:23.550354,-76
2021-10-14 16:11:23.550363,-72
2021-10-14 16:11:23.550371,-81
2021-10-14 16:11:23.550379,-84
2021-10-14 16:11:23.550387,-74
2021-10-14 16:11:23.550396,-62
2021-10-14 16:11:23.550404,-60
2021-10-14 16:11:23.550412,-64
2021-10-14 16:11:23.550420,-62
2021-10-14 16:11:23.550429,-67
2021-10-14 16:11:23.550437,-76
2021-10-14 16:11:23.550445,-72
2021-10-14 16:11:23.550453,-62
2021-10-14 16:11:23.550462,-69
2021-10-14 16:11:23.550470,-79
2021-10-14 16:11:23.550478,-76
2021-10-14 16:11:23.550487,-72
2021-10-14 16:11:23.910339,-67
2021-10-14 16:11:23.910379,-62
2021-10-14 16:11:23.910390,-64
2021-10-14 16:11:23.910399,-72
2021-10-14 16:11:23.910407,-72
2021-10-14 16:11:23.910415,-74
2021-10-14 16:11:23.910424,-72
2021-10-14 16:11:23.910432,-60
2021-10-14 16:11:23.910440,-55
2021-10-14 16:11:23.910448,-62
2021-10-14 16:11:23.910457,-64
2021-10-14 16:11:23.910465,-64
2021-10-14 16:11:23.910473,-67
2021-10-14 16:11:23.910481,-64
2021-10-14 16:11:23.910490,-48
2021-10-14 16:11:23.910498,-40
2021-10-14 16:11:23.910506,-38
2021-10-14 16:11:23.910514,-31
2021-10-14 16:11:23.910522,-43
2021-10-14 16:11:23.910531,-62
2021-10-14 16:11:23.910539,-72
2021-10-14 16:11:23.910547,-72
2021-10-14 16:11:23.910561,-67
2021-10-14 16:11:23.910570,-60
2021-10-14 16:11:23.910578,-55
2021-10-14 16:11:23.910586,-48
2021-10-14 16:11:23.910595,-45
2021-10-14 16:11:23.910603,-43
2021-10-14 16:11:23.910611,-40
2021-10-14 16:11:23.910619,-31
2021-10-14 16:11:24.045735,28
2021-10-14 16:11:24.045757,252
2021-10-14 16:11:24.045766,661
2021-10-14 16:11:24.045775,827
2021-10-14 16:11:24.045783,141
2021-10-14 16:11:24.045791,-923
2021-10-14 16:11:24.045799,-1127
2021-10-14 16:11:24.045807,-543
2021-10-14 16:11:24.045815,-199
2021-10-14 16:11:24.045824,-141
2021-10-14 16:11:24.045832,4
2021-10-14 16:11:24.045840,86
2021-10-14 16:11:24.045848,60
2021-10-14 16:11:24.045857,72
2021-10-14 16:11:24.045885,96
2021-10-14 16:11:24.045904,81
2021-10-14 16:11:24.045914,79
2021-10-14 16:11:24.045922,96
2021-10-14 16:11:24.045930,101
2021-10-14 16:11:24.045939,105
2021-10-14 16:11:24.045947,110
2021-10-14 16:11:24.045955,103
2021-10-14 16:11:24.045963,108
2021-10-14 16:11:24.045971,125
2021-10-14 16:11:24.045979,134
2021-10-14 16:11:24.045987,137
2021-10-14 16:11:24.045996,141
2021-10-14 16:11:24.046004,149
2021-10-14 16:11:24.046012,163
2021-10-14 16:11:24.046020,182
2021-10-14 16:11:24.270229,189
2021-10-14 16:11:24.270250,185
2021-10-14 16:11:24.270259,185
2021-10-14 16:11:24.270267,182
2021-10-14 16:11:24.270276,173
2021-10-14 16:11:24.270284,156
2021-10-14 16:11:24.270292,125
2021-10-14 16:11:24.270301,88
2021-10-14 16:11:24.270309,52
2021-10-14 16:11:24.270317,12
2021-10-14 16:11:24.270325,-26
2021-10-14 16:11:24.270334,-50
2021-10-14 16:11:24.270342,-64
2021-10-14 16:11:24.270350,-79
2021-10-14 16:11:24.270358,-98
2021-10-14 16:11:24.270366,-117
2021-10-14 16:11:24.270375,-120
2021-10-14 16:11:24.270383,-125
2021-10-14 16:11:24.270391,-132
2021-10-14 16:11:24.270399,-129
2021-10-14 16:11:24.270407,-125
2021-10-14 16:11:24.270415,-129
2021-10-14 16:11:24.270423,-125
2021-10-14 16:11:24.270432,-115
2021-10-14 16:11:24.270440,-103
2021-10-14 16:11:24.270448,-98
2021-10-14 16:11:24.270456,-103
2021-10-14 16:11:24.270464,-96
2021-10-14 16:11:24.270472,-74
2021-10-14 16:11:24.270481,-62
2021-10-14 16:11:24.538918,-64
2021-10-14 16:11:24.538940,-69
2021-10-14 16:11:24.538950,-72
2021-10-14 16:11:24.538958,-72
2021-10-14 16:11:24.538967,-67
2021-10-14 16:11:24.538975,-72
2021-10-14 16:11:24.538984,-72
2021-10-14 16:11:24.538996,-69
2021-10-14 16:11:24.539005,-81
2021-10-14 16:11:24.539014,-91
2021-10-14 16:11:24.539022,-81
2021-10-14 16:11:24.539030,-74
2021-10-14 16:11:24.539038,-74
2021-10-14 16:11:24.539047,-76
2021-10-14 16:11:24.539055,-86
2021-10-14 16:11:24.539063,-88
2021-10-14 16:11:24.539072,-79
2021-10-14 16:11:24.539080,-69
2021-10-14 16:11:24.539088,-67
2021-10-14 16:11:24.539097,-67
2021-10-14 16:11:24.539105,-69
2021-10-14 16:11:24.539113,-64
2021-10-14 16:11:24.539121,-55
2021-10-14 16:11:24.539130,-55
2021-10-14 16:11:24.539138,-52
2021-10-14 16:11:24.539146,-48
2021-10-14 16:11:24.539154,-48
2021-10-14 16:11:24.539162,-50
2021-10-14 16:11:24.539170,-43
2021-10-14 16:11:24.539179,-33
2021-10-14 16:11:24.810257,-33
2021-10-14 16:11:24.810277,-33
2021-10-14 16:11:24.810286,-31
2021-10-14 16:11:24.810295,-24
2021-10-14 16:11:24.810303,-16
2021-10-14 16:11:24.810311,-19
2021-10-14 16:11:24.810320,-7
2021-10-14 16:11:24.810328,-2
2021-10-14 16:11:24.810336,-28
2021-10-14 16:11:24.810344,-48
2021-10-14 16:11:24.810353,-45
2021-10-14 16:11:24.810361,-43
2021-10-14 16:11:24.810369,-43
2021-10-14 16:11:24.810377,-50
2021-10-14 16:11:24.810386,-55
2021-10-14 16:11:24.810394,-50
2021-10-14 16:11:24.810402,-40
2021-10-14 16:11:24.810411,-31
2021-10-14 16:11:24.810419,-31
2021-10-14 16:11:24.810427,-24
2021-10-14 16:11:24.810435,36
2021-10-14 16:11:24.810444,245
2021-10-14 16:11:24.810452,625
2021-10-14 16:11:24.810460,774
2021-10-14 16:11:24.810476,151
2021-10-14 16:11:24.810485,-834
2021-10-14 16:11:24.810493,-1053
2021-10-14 16:11:24.810502,-512
2021-10-14 16:11:24.810510,-165
2021-10-14 16:11:24.810518,-110
2021-10-14 16:11:24.945608,2
2021-10-14 16:11:24.945627,69
2021-10-14 16:11:24.945637,38
2021-10-14 16:11:24.945645,48
2021-10-14 16:11:24.945654,76
2021-10-14 16:11:24.945662,79
2021-10-14 16:11:24.945670,79
2021-10-14 16:11:24.945678,76
2021-10-14 16:11:24.945686,79
2021-10-14 16:11:24.945695,93
2021-10-14 16:11:24.945703,98
2021-10-14 16:11:24.945711,96
2021-10-14 16:11:24.945719,96
2021-10-14 16:11:24.945728,98
2021-10-14 16:11:24.945736,103
2021-10-14 16:11:24.945744,120
2021-10-14 16:11:24.945752,149
2021-10-14 16:11:24.945761,163
2021-10-14 16:11:24.945769,156
2021-10-14 16:11:24.945777,165
2021-10-14 16:11:24.945785,185
2021-10-14 16:11:24.945793,187
2021-10-14 16:11:24.945802,185
2021-10-14 16:11:24.945810,180
2021-10-14 16:11:24.945818,151
2021-10-14 16:11:24.945826,127
2021-10-14 16:11:24.945834,117
2021-10-14 16:11:24.945843,93
2021-10-14 16:11:24.945851,62
2021-10-14 16:11:24.945859,33
2021-10-14 16:11:25.170559,9
2021-10-14 16:11:25.170578,-16
2021-10-14 16:11:25.170587,-48
2021-10-14 16:11:25.170596,-69
2021-10-14 16:11:25.170604,-67
2021-10-14 16:11:25.170612,-74
2021-10-14 16:11:25.170620,-101
2021-10-14 16:11:25.170629,-108
2021-10-14 16:11:25.170637,-98
2021-10-14 16:11:25.170645,-101
2021-10-14 16:11:25.170654,-103
2021-10-14 16:11:25.170662,-108
2021-10-14 16:11:25.170670,-113
2021-10-14 16:11:25.170678,-103
2021-10-14 16:11:25.170687,-88
2021-10-14 16:11:25.170695,-88
2021-10-14 16:11:25.170703,-88
2021-10-14 16:11:25.170712,-84
2021-10-14 16:11:25.170720,-86
2021-10-14 16:11:25.170728,-69
2021-10-14 16:11:25.170736,-40
2021-10-14 16:11:25.170744,-43
2021-10-14 16:11:25.170753,-62
2021-10-14 16:11:25.170761,-67
2021-10-14 16:11:25.170769,-69
2021-10-14 16:11:25.170777,-72
2021-10-14 16:11:25.170786,-52
2021-10-14 16:11:25.170794,-45
2021-10-14 16:11:25.170802,-76
2021-10-14 16:11:25.170810,-91
2021-10-14 16:11:25.395246,-76
2021-10-14 16:11:25.395267,-67
2021-10-14 16:11:25.395276,-72
2021-10-14 16:11:25.395285,-84
2021-10-14 16:11:25.395293,-91
2021-10-14 16:11:25.395302,-86
2021-10-14 16:11:25.395310,-88
2021-10-14 16:11:25.395318,-91
2021-10-14 16:11:25.395327,-74
2021-10-14 16:11:25.395335,-64
2021-10-14 16:11:25.395343,-84
2021-10-14 16:11:25.395351,-98
2021-10-14 16:11:25.395359,-86
2021-10-14 16:11:25.395367,-79
2021-10-14 16:11:25.395376,-84
2021-10-14 16:11:25.395384,-88
2021-10-14 16:11:25.395392,-86
2021-10-14 16:11:25.395401,-76
2021-10-14 16:11:25.395409,-57
2021-10-14 16:11:25.395417,-48
2021-10-14 16:11:25.395425,-57
2021-10-14 16:11:25.395433,-67
2021-10-14 16:11:25.395442,-60
2021-10-14 16:11:25.395450,-52
2021-10-14 16:11:25.395458,-45
2021-10-14 16:11:25.395467,-33
2021-10-14 16:11:25.395475,-21
2021-10-14 16:11:25.395483,-14
2021-10-14 16:11:25.395492,-14
2021-10-14 16:11:25.395500,-4
2021-10-14 16:11:25.665579,0
2021-10-14 16:11:25.665598,-21
2021-10-14 16:11:25.665608,-48
2021-10-14 16:11:25.665616,-50
2021-10-14 16:11:25.665625,-43
2021-10-14 16:11:25.665633,-52
2021-10-14 16:11:25.665641,-57
2021-10-14 16:11:25.665650,-38
2021-10-14 16:11:25.665658,-31
2021-10-14 16:11:25.665666,-40
2021-10-14 16:11:25.665675,-45
2021-10-14 16:11:25.665683,-43
2021-10-14 16:11:25.665691,-28
2021-10-14 16:11:25.665699,28
2021-10-14 16:11:25.665708,221
2021-10-14 16:11:25.665716,577
2021-10-14 16:11:25.665724,738
2021-10-14 16:11:25.665733,165
2021-10-14 16:11:25.665741,-795
2021-10-14 16:11:25.665749,-1026
2021-10-14 16:11:25.665757,-509
2021-10-14 16:11:25.665766,-175
2021-10-14 16:11:25.665774,-127
2021-10-14 16:11:25.665782,-14
2021-10-14 16:11:25.665790,67
2021-10-14 16:11:25.665799,52
2021-10-14 16:11:25.665807,72
2021-10-14 16:11:25.665815,96
2021-10-14 16:11:25.665823,76
2021-10-14 16:11:25.665831,72
2021-10-14 16:11:25.890586,84
2021-10-14 16:11:25.890606,103
2021-10-14 16:11:25.890616,115
2021-10-14 16:11:25.890624,110
2021-10-14 16:11:25.890633,98
2021-10-14 16:11:25.890641,101
2021-10-14 16:11:25.890650,110
2021-10-14 16:11:25.890658,120
2021-10-14 16:11:25.890666,144
2021-10-14 16:11:25.890675,158
2021-10-14 16:11:25.890683,149
2021-10-14 16:11:25.890691,161
2021-10-14 16:11:25.890700,180
2021-10-14 16:11:25.890708,177
2021-10-14 16:11:25.890716,170
2021-10-14 16:11:25.890725,180
2021-10-14 16:11:25.890733,182
2021-10-14 16:11:25.890741,168
2021-10-14 16:11:25.890750,151
2021-10-14 16:11:25.890758,129
2021-10-14 16:11:25.890766,105
2021-10-14 16:11:25.890774,79
2021-10-14 16:11:25.890783,43
2021-10-14 16:11:25.890791,2
2021-10-14 16:11:25.890799,-40
2021-10-14 16:11:25.890807,-52
2021-10-14 16:11:25.890815,-43
2021-10-14 16:11:25.890823,-74
2021-10-14 16:11:25.890832,-115
2021-10-14 16:11:25.890840,-101
2021-10-14 16:11:26.115287,-79
2021-10-14 16:11:26.115308,-84
2021-10-14 16:11:26.115317,-84
2021-10-14 16:11:26.115325,-86
2021-10-14 16:11:26.115334,-98
2021-10-14 16:11:26.115342,-96
2021-10-14 16:11:26.115350,-84
2021-10-14 16:11:26.115359,-86
2021-10-14 16:11:26.115367,-103
2021-10-14 16:11:26.115375,-105
2021-10-14 16:11:26.115383,-84
2021-10-14 16:11:26.115398,-62
2021-10-14 16:11:26.115407,-60
2021-10-14 16:11:26.115415,-81
2021-10-14 16:11:26.115423,-98
2021-10-14 16:11:26.115432,-84
2021-10-14 16:11:26.115440,-79
2021-10-14 16:11:26.115448,-88
2021-10-14 16:11:26.115456,-76
2021-10-14 16:11:26.115464,-72
2021-10-14 16:11:26.115473,-79
2021-10-14 16:11:26.115481,-81
2021-10-14 16:11:26.115489,-86
2021-10-14 16:11:26.115498,-88
2021-10-14 16:11:26.115506,-81
2021-10-14 16:11:26.115514,-72
2021-10-14 16:11:26.115522,-55
2021-10-14 16:11:26.115530,-52
2021-10-14 16:11:26.115538,-74
2021-10-14 16:11:26.115546,-81
2021-10-14 16:11:26.340213,-67
2021-10-14 16:11:26.340244,-60
2021-10-14 16:11:26.340254,-60
2021-10-14 16:11:26.340263,-50
2021-10-14 16:11:26.340272,-45
2021-10-14 16:11:26.340280,-48
2021-10-14 16:11:26.340289,-52
2021-10-14 16:11:26.340297,-69
2021-10-14 16:11:26.340305,-79
2021-10-14 16:11:26.340314,-79
2021-10-14 16:11:26.340322,-88
2021-10-14 16:11:26.340331,-84
2021-10-14 16:11:26.340339,-57
2021-10-14 16:11:26.340347,-52
2021-10-14 16:11:26.340356,-60
2021-10-14 16:11:26.340364,-45
2021-10-14 16:11:26.340372,-19
2021-10-14 16:11:26.340380,-16
2021-10-14 16:11:26.340389,-45
2021-10-14 16:11:26.340397,-60
2021-10-14 16:11:26.340405,-62
2021-10-14 16:11:26.340413,-62
2021-10-14 16:11:26.340422,-50
2021-10-14 16:11:26.340430,-40
2021-10-14 16:11:26.340438,-45
2021-10-14 16:11:26.340446,-50
2021-10-14 16:11:26.340455,-48
2021-10-14 16:11:26.340463,-45
2021-10-14 16:11:26.340471,-43
2021-10-14 16:11:26.340479,-28
2021-10-14 16:11:26.653944,26
2021-10-14 16:11:26.653965,226
2021-10-14 16:11:26.653975,632
2021-10-14 16:11:26.653983,817
2021-10-14 16:11:26.653992,165
2021-10-14 16:11:26.654000,-875
2021-10-14 16:11:26.654008,-1077
2021-10-14 16:11:26.654017,-533
2021-10-14 16:11:26.654025,-216
2021-10-14 16:11:26.654033,-139
2021-10-14 16:11:26.654042,12
2021-10-14 16:11:26.654050,84
2021-10-14 16:11:26.654058,45
2021-10-14 16:11:26.654067,48
2021-10-14 16:11:26.654075,81
2021-10-14 16:11:26.654083,81
2021-10-14 16:11:26.654092,74
2021-10-14 16:11:26.654100,86
2021-10-14 16:11:26.654108,98
2021-10-14 16:11:26.654116,96
2021-10-14 16:11:26.654125,91
2021-10-14 16:11:26.654133,96
2021-10-14 16:11:26.654141,105
2021-10-14 16:11:26.654150,117
2021-10-14 16:11:26.654158,127
2021-10-14 16:11:26.654166,141
2021-10-14 16:11:26.654174,158
2021-10-14 16:11:26.654183,175
2021-10-14 16:11:26.654191,185
2021-10-14 16:11:26.654199,187
2021-10-14 16:11:26.790251,189
2021-10-14 16:11:26.790273,206
2021-10-14 16:11:26.790282,218
2021-10-14 16:11:26.790291,204
2021-10-14 16:11:26.790299,192
2021-10-14 16:11:26.790308,180
2021-10-14 16:11:26.790316,146
2021-10-14 16:11:26.790324,115
2021-10-14 16:11:26.790333,84
2021-10-14 16:11:26.790341,43
2021-10-14 16:11:26.790349,7
2021-10-14 16:11:26.790358,-24
2021-10-14 16:11:26.790366,-52
2021-10-14 16:11:26.790374,-55
2021-10-14 16:11:26.790382,-64
2021-10-14 16:11:26.790390,-96
2021-10-14 16:11:26.790399,-113
2021-10-14 16:11:26.790407,-103
2021-10-14 16:11:26.790415,-108
2021-10-14 16:11:26.790423,-127
2021-10-14 16:11:26.790431,-120
2021-10-14 16:11:26.790439,-98
2021-10-14 16:11:26.790448,-96
2021-10-14 16:11:26.790456,-103
2021-10-14 16:11:26.790464,-105
2021-10-14 16:11:26.790472,-105
2021-10-14 16:11:26.790480,-91
2021-10-14 16:11:26.790488,-69
2021-10-14 16:11:26.790497,-67
2021-10-14 16:11:26.790505,-64
2021-10-14 16:11:27.015676,-48
2021-10-14 16:11:27.015698,-40
2021-10-14 16:11:27.015707,-57
2021-10-14 16:11:27.015716,-64
2021-10-14 16:11:27.015724,-48
2021-10-14 16:11:27.015733,-48
2021-10-14 16:11:27.015741,-62
2021-10-14 16:11:27.015749,-60
2021-10-14 16:11:27.015758,-55
2021-10-14 16:11:27.015766,-72
2021-10-14 16:11:27.015774,-81
2021-10-14 16:11:27.015783,-76
2021-10-14 16:11:27.015791,-84
2021-10-14 16:11:27.015799,-91
2021-10-14 16:11:27.015807,-86
2021-10-14 16:11:27.015816,-76
2021-10-14 16:11:27.015824,-69
2021-10-14 16:11:27.015832,-60
2021-10-14 16:11:27.015840,-62
2021-10-14 16:11:27.015848,-74
2021-10-14 16:11:27.015857,-69
2021-10-14 16:11:27.015865,-64
2021-10-14 16:11:27.015873,-62
2021-10-14 16:11:27.015881,-57
2021-10-14 16:11:27.015890,-57
2021-10-14 16:11:27.015898,-62
2021-10-14 16:11:27.015906,-67
2021-10-14 16:11:27.015914,-57
2021-10-14 16:11:27.015923,-48
2021-10-14 16:11:27.015931,-48
2021-10-14 16:11:27.240291,-43
2021-10-14 16:11:27.240311,-38
2021-10-14 16:11:27.240321,-43
2021-10-14 16:11:27.240329,-43
2021-10-14 16:11:27.240338,-40
2021-10-14 16:11:27.240346,-40
2021-10-14 16:11:27.240354,-31
2021-10-14 16:11:27.240362,-9
2021-10-14 16:11:27.240370,-2
2021-10-14 16:11:27.240379,0
2021-10-14 16:11:27.240387,-2
2021-10-14 16:11:27.240395,-33
2021-10-14 16:11:27.240404,-55
2021-10-14 16:11:27.240412,-43
2021-10-14 16:11:27.240420,-33
2021-10-14 16:11:27.240428,-38
2021-10-14 16:11:27.240437,-43
2021-10-14 16:11:27.240445,-45
2021-10-14 16:11:27.240453,-28
2021-10-14 16:11:27.240462,-12
2021-10-14 16:11:27.240470,-19
2021-10-14 16:11:27.240478,-33
2021-10-14 16:11:27.240486,-19
2021-10-14 16:11:27.240495,72
2021-10-14 16:11:27.240503,341
2021-10-14 16:11:27.240512,716
2021-10-14 16:11:27.240520,687
2021-10-14 16:11:27.240528,-144
2021-10-14 16:11:27.240536,-1007
2021-10-14 16:11:27.240545,-894
2021-10-14 16:11:27.465717,-343
2021-10-14 16:11:27.465745,-153
2021-10-14 16:11:27.465759,-76
2021-10-14 16:11:27.465768,57
2021-10-14 16:11:27.465776,64
2021-10-14 16:11:27.465784,28
2021-10-14 16:11:27.465792,64
2021-10-14 16:11:27.465800,88
2021-10-14 16:11:27.465807,69
2021-10-14 16:11:27.465815,72
2021-10-14 16:11:27.465823,79
2021-10-14 16:11:27.465831,79
2021-10-14 16:11:27.465840,93
2021-10-14 16:11:27.465848,103
2021-10-14 16:11:27.465857,101
2021-10-14 16:11:27.465865,115
2021-10-14 16:11:27.465874,127
2021-10-14 16:11:27.465882,127
2021-10-14 16:11:27.465891,132
2021-10-14 16:11:27.465898,149
2021-10-14 16:11:27.465906,175
2021-10-14 16:11:27.465914,185
2021-10-14 16:11:27.465923,180
2021-10-14 16:11:27.465931,187
2021-10-14 16:11:27.465939,194
2021-10-14 16:11:27.465948,192
2021-10-14 16:11:27.465956,187
2021-10-14 16:11:27.465964,180
2021-10-14 16:11:27.465972,161
2021-10-14 16:11:27.465981,132
2021-10-14 16:11:27.690657,101
2021-10-14 16:11:27.690679,67
2021-10-14 16:11:27.690689,38
2021-10-14 16:11:27.690699,14
2021-10-14 16:11:27.690708,-21
2021-10-14 16:11:27.690717,-40
2021-10-14 16:11:27.690726,-45
2021-10-14 16:11:27.690735,-62
2021-10-14 16:11:27.690744,-72
2021-10-14 16:11:27.690753,-74
2021-10-14 16:11:27.690761,-84
2021-10-14 16:11:27.690770,-86
2021-10-14 16:11:27.690779,-79
2021-10-14 16:11:27.690788,-79
2021-10-14 16:11:27.690802,-76
2021-10-14 16:11:27.690811,-64
2021-10-14 16:11:27.690820,-62
2021-10-14 16:11:27.690828,-62
2021-10-14 16:11:27.690836,-55
2021-10-14 16:11:27.690844,-52
2021-10-14 16:11:27.690853,-50
2021-10-14 16:11:27.690861,-50
2021-10-14 16:11:27.690869,-48
2021-10-14 16:11:27.690877,-43
2021-10-14 16:11:27.690886,-36
2021-10-14 16:11:27.690894,-36
2021-10-14 16:11:27.690902,-50
2021-10-14 16:11:27.690910,-69
2021-10-14 16:11:27.690918,-69
2021-10-14 16:11:27.690927,-55
2021-10-14 16:11:28.004697,-57
2021-10-14 16:11:28.004719,-74
2021-10-14 16:11:28.004728,-76
2021-10-14 16:11:28.004737,-76
2021-10-14 16:11:28.004745,-81
2021-10-14 16:11:28.004753,-74
2021-10-14 16:11:28.004762,-67
2021-10-14 16:11:28.004770,-72
2021-10-14 16:11:28.004778,-72
2021-10-14 16:11:28.004787,-74
2021-10-14 16:11:28.004795,-81
2021-10-14 16:11:28.004803,-72
2021-10-14 16:11:28.004811,-60
2021-10-14 16:11:28.004820,-62
2021-10-14 16:11:28.004828,-62
2021-10-14 16:11:28.004836,-57
2021-10-14 16:11:28.004844,-48
2021-10-14 16:11:28.004853,-43
2021-10-14 16:11:28.004861,-43
2021-10-14 16:11:28.004869,-36
2021-10-14 16:11:28.004877,-28
2021-10-14 16:11:28.004886,-38
2021-10-14 16:11:28.004894,-43
2021-10-14 16:11:28.004902,-38
2021-10-14 16:11:28.004910,-36
2021-10-14 16:11:28.004919,-21
2021-10-14 16:11:28.004927,-4
2021-10-14 16:11:28.004935,-19
2021-10-14 16:11:28.004943,-26
2021-10-14 16:11:28.004952,-12
2021-10-14 16:11:28.185281,-2
2021-10-14 16:11:28.185301,4
2021-10-14 16:11:28.185310,12
2021-10-14 16:11:28.185319,14
2021-10-14 16:11:28.185327,9
2021-10-14 16:11:28.185335,4
2021-10-14 16:11:28.185344,-7
2021-10-14 16:11:28.185352,-26
2021-10-14 16:11:28.185360,-31
2021-10-14 16:11:28.185368,-31
2021-10-14 16:11:28.185377,-24
2021-10-14 16:11:28.185385,-9
2021-10-14 16:11:28.185393,-9
2021-10-14 16:11:28.185401,-7
2021-10-14 16:11:28.185409,-4
2021-10-14 16:11:28.185418,-21
2021-10-14 16:11:28.185426,-12
2021-10-14 16:11:28.185434,84
2021-10-14 16:11:28.185442,346
2021-10-14 16:11:28.185450,714
2021-10-14 16:11:28.185459,714
2021-10-14 16:11:28.185467,-69
2021-10-14 16:11:28.185475,-940
2021-10-14 16:11:28.185483,-880
2021-10-14 16:11:28.185491,-324
2021-10-14 16:11:28.185499,-113
2021-10-14 16:11:28.185507,-67
2021-10-14 16:11:28.185516,52
2021-10-14 16:11:28.185524,96
2021-10-14 16:11:28.185532,79
2021-10-14 16:11:28.500087,101
2021-10-14 16:11:28.500109,105
2021-10-14 16:11:28.500118,74
2021-10-14 16:11:28.500127,79
2021-10-14 16:11:28.500135,103
2021-10-14 16:11:28.500144,98
2021-10-14 16:11:28.500152,98
2021-10-14 16:11:28.500160,115
2021-10-14 16:11:28.500168,101
2021-10-14 16:11:28.500177,96
2021-10-14 16:11:28.500185,122
2021-10-14 16:11:28.500193,132
2021-10-14 16:11:28.500201,132
2021-10-14 16:11:28.500210,144
2021-10-14 16:11:28.500218,161
2021-10-14 16:11:28.500227,177
2021-10-14 16:11:28.500235,177
2021-10-14 16:11:28.500243,180
2021-10-14 16:11:28.500251,192
2021-10-14 16:11:28.500259,192
2021-10-14 16:11:28.500268,180
2021-10-14 16:11:28.500276,163
2021-10-14 16:11:28.500284,156
2021-10-14 16:11:28.500293,146
2021-10-14 16:11:28.500301,115
2021-10-14 16:11:28.500309,76
2021-10-14 16:11:28.500318,50
2021-10-14 16:11:28.500326,31
2021-10-14 16:11:28.500334,-4
2021-10-14 16:11:28.500343,-48
2021-10-14 16:11:28.723953,-57
2021-10-14 16:11:28.723974,-55
2021-10-14 16:11:28.723984,-69
2021-10-14 16:11:28.723992,-69
2021-10-14 16:11:28.724001,-55
2021-10-14 16:11:28.724009,-60
2021-10-14 16:11:28.724018,-79
2021-10-14 16:11:28.724026,-84
2021-10-14 16:11:28.724034,-62
2021-10-14 16:11:28.724042,-50
2021-10-14 16:11:28.724050,-60
2021-10-14 16:11:28.724059,-72
2021-10-14 16:11:28.724067,-74
2021-10-14 16:11:28.724075,-64
2021-10-14 16:11:28.724084,-45
2021-10-14 16:11:28.724092,-52
2021-10-14 16:11:28.724100,-74
2021-10-14 16:11:28.724108,-64
2021-10-14 16:11:28.724117,-38
2021-10-14 16:11:28.724125,-28
2021-10-14 16:11:28.724133,-38
2021-10-14 16:11:28.724141,-55
2021-10-14 16:11:28.724150,-55
2021-10-14 16:11:28.724158,-38
2021-10-14 16:11:28.724166,-38
2021-10-14 16:11:28.724175,-45
2021-10-14 16:11:28.724183,-36
2021-10-14 16:11:28.724191,-31
2021-10-14 16:11:28.724200,-52
2021-10-14 16:11:28.724208,-67
2021-10-14 16:11:28.905677,-43
2021-10-14 16:11:28.905698,-26
2021-10-14 16:11:28.905708,-40
2021-10-14 16:11:28.905716,-50
2021-10-14 16:11:28.905725,-43
2021-10-14 16:11:28.905733,-33
2021-10-14 16:11:28.905741,-36
2021-10-14 16:11:28.905750,-38
2021-10-14 16:11:28.905758,-31
2021-10-14 16:11:28.905766,-52
2021-10-14 16:11:28.905775,-81
2021-10-14 16:11:28.905783,-76
2021-10-14 16:11:28.905791,-62
2021-10-14 16:11:28.905800,-72
2021-10-14 16:11:28.905808,-76
2021-10-14 16:11:28.905816,-62
2021-10-14 16:11:28.905824,-52
