Time,ECG
2021-10-14 16:20:00.157619,-43
2021-10-14 16:20:00.157638,-45
2021-10-14 16:20:00.157648,-21
2021-10-14 16:20:00.157656,-2
2021-10-14 16:20:00.157665,0
2021-10-14 16:20:00.157673,9
2021-10-14 16:20:00.157682,4
2021-10-14 16:20:00.157690,-2
2021-10-14 16:20:00.157698,-2
2021-10-14 16:20:00.157707,-4
2021-10-14 16:20:00.157715,-2
2021-10-14 16:20:00.157724,-7
2021-10-14 16:20:00.157732,-55
2021-10-14 16:20:00.157740,-84
2021-10-14 16:20:00.157748,-57
2021-10-14 16:20:00.157757,-33
2021-10-14 16:20:00.157765,-33
2021-10-14 16:20:00.157773,-36
2021-10-14 16:20:00.157781,-21
2021-10-14 16:20:00.157790,-14
2021-10-14 16:20:00.157798,-24
2021-10-14 16:20:00.157806,-4
2021-10-14 16:20:00.157814,113
2021-10-14 16:20:00.157823,430
2021-10-14 16:20:00.157831,788
2021-10-14 16:20:00.157839,555
2021-10-14 16:20:00.157848,-466
2021-10-14 16:20:00.157856,-1197
2021-10-14 16:20:00.157864,-834
2021-10-14 16:20:00.157873,-252
2021-10-14 16:20:00.337588,-105
2021-10-14 16:20:00.337607,-12
2021-10-14 16:20:00.337616,120
2021-10-14 16:20:00.337625,134
2021-10-14 16:20:00.337634,113
2021-10-14 16:20:00.337642,120
2021-10-14 16:20:00.337650,122
2021-10-14 16:20:00.337659,134
2021-10-14 16:20:00.337667,156
2021-10-14 16:20:00.337675,175
2021-10-14 16:20:00.337684,192
2021-10-14 16:20:00.337692,189
2021-10-14 16:20:00.337701,177
2021-10-14 16:20:00.337709,189
2021-10-14 16:20:00.337717,206
2021-10-14 16:20:00.337726,214
2021-10-14 16:20:00.337734,221
2021-10-14 16:20:00.337742,221
2021-10-14 16:20:00.337750,238
2021-10-14 16:20:00.337759,274
2021-10-14 16:20:00.337767,286
2021-10-14 16:20:00.337776,298
2021-10-14 16:20:00.337784,343
2021-10-14 16:20:00.337792,351
2021-10-14 16:20:00.337800,303
2021-10-14 16:20:00.337809,288
2021-10-14 16:20:00.337817,290
2021-10-14 16:20:00.337825,242
2021-10-14 16:20:00.337834,192
2021-10-14 16:20:00.337842,170
2021-10-14 16:20:00.562301,127
2021-10-14 16:20:00.562321,76
2021-10-14 16:20:00.562330,69
2021-10-14 16:20:00.562339,69
2021-10-14 16:20:00.562347,31
2021-10-14 16:20:00.562356,-26
2021-10-14 16:20:00.562364,-48
2021-10-14 16:20:00.562372,-31
2021-10-14 16:20:00.562381,-21
2021-10-14 16:20:00.562389,-24
2021-10-14 16:20:00.562397,-26
2021-10-14 16:20:00.562406,-40
2021-10-14 16:20:00.562414,-38
2021-10-14 16:20:00.562422,4
2021-10-14 16:20:00.562430,26
2021-10-14 16:20:00.562439,0
2021-10-14 16:20:00.562447,-12
2021-10-14 16:20:00.562455,7
2021-10-14 16:20:00.562464,24
2021-10-14 16:20:00.562472,16
2021-10-14 16:20:00.562480,19
2021-10-14 16:20:00.562488,38
2021-10-14 16:20:00.562497,36
2021-10-14 16:20:00.562505,36
2021-10-14 16:20:00.562513,48
2021-10-14 16:20:00.562522,38
2021-10-14 16:20:00.562530,33
2021-10-14 16:20:00.562538,48
2021-10-14 16:20:00.562546,40
2021-10-14 16:20:00.562555,9
2021-10-14 16:20:00.787602,0
2021-10-14 16:20:00.787620,19
2021-10-14 16:20:00.787630,26
2021-10-14 16:20:00.787638,26
2021-10-14 16:20:00.787647,28
2021-10-14 16:20:00.787655,21
2021-10-14 16:20:00.787663,19
2021-10-14 16:20:00.787672,28
2021-10-14 16:20:00.787680,24
2021-10-14 16:20:00.787688,24
2021-10-14 16:20:00.787697,33
2021-10-14 16:20:00.787705,26
2021-10-14 16:20:00.787714,7
2021-10-14 16:20:00.787722,0
2021-10-14 16:20:00.787730,9
2021-10-14 16:20:00.787739,26
2021-10-14 16:20:00.787747,28
2021-10-14 16:20:00.787755,9
2021-10-14 16:20:00.787764,-2
2021-10-14 16:20:00.787772,16
2021-10-14 16:20:00.787780,50
2021-10-14 16:20:00.787789,60
2021-10-14 16:20:00.787797,43
2021-10-14 16:20:00.787805,40
2021-10-14 16:20:00.787814,45
2021-10-14 16:20:00.787822,12
2021-10-14 16:20:00.787830,-21
2021-10-14 16:20:00.787839,-4
2021-10-14 16:20:00.787847,19
2021-10-14 16:20:00.787855,9
2021-10-14 16:20:01.146004,-19
2021-10-14 16:20:01.146026,-33
2021-10-14 16:20:01.146035,-21
2021-10-14 16:20:01.146044,-4
2021-10-14 16:20:01.146052,-12
2021-10-14 16:20:01.146061,-28
2021-10-14 16:20:01.146069,2
2021-10-14 16:20:01.146077,127
2021-10-14 16:20:01.146086,452
2021-10-14 16:20:01.146094,834
2021-10-14 16:20:01.146102,622
2021-10-14 16:20:01.146110,-461
2021-10-14 16:20:01.146119,-1293
2021-10-14 16:20:01.146127,-901
2021-10-14 16:20:01.146135,-245
2021-10-14 16:20:01.146143,-141
2021-10-14 16:20:01.146152,-72
2021-10-14 16:20:01.146160,103
2021-10-14 16:20:01.146168,105
2021-10-14 16:20:01.146177,69
2021-10-14 16:20:01.146185,110
2021-10-14 16:20:01.146193,115
2021-10-14 16:20:01.146201,96
2021-10-14 16:20:01.146209,103
2021-10-14 16:20:01.146217,117
2021-10-14 16:20:01.146226,110
2021-10-14 16:20:01.146234,115
2021-10-14 16:20:01.146242,139
2021-10-14 16:20:01.146250,141
2021-10-14 16:20:01.146259,141
2021-10-14 16:20:01.237180,161
2021-10-14 16:20:01.237199,165
2021-10-14 16:20:01.237208,161
2021-10-14 16:20:01.237217,173
2021-10-14 16:20:01.237225,182
2021-10-14 16:20:01.237234,194
2021-10-14 16:20:01.237242,204
2021-10-14 16:20:01.237250,202
2021-10-14 16:20:01.237259,233
2021-10-14 16:20:01.237267,257
2021-10-14 16:20:01.237276,216
2021-10-14 16:20:01.237284,161
2021-10-14 16:20:01.237292,125
2021-10-14 16:20:01.237301,108
2021-10-14 16:20:01.237309,98
2021-10-14 16:20:01.237318,31
2021-10-14 16:20:01.237326,-74
2021-10-14 16:20:01.237334,-108
2021-10-14 16:20:01.237343,-81
2021-10-14 16:20:01.237351,-88
2021-10-14 16:20:01.237360,-117
2021-10-14 16:20:01.237368,-125
2021-10-14 16:20:01.237376,-120
2021-10-14 16:20:01.237385,-115
2021-10-14 16:20:01.237393,-117
2021-10-14 16:20:01.237401,-134
2021-10-14 16:20:01.237410,-156
2021-10-14 16:20:01.237418,-141
2021-10-14 16:20:01.237426,-110
2021-10-14 16:20:01.237435,-115
2021-10-14 16:20:01.552359,-125
2021-10-14 16:20:01.552380,-105
2021-10-14 16:20:01.552389,-93
2021-10-14 16:20:01.552398,-93
2021-10-14 16:20:01.552407,-84
2021-10-14 16:20:01.552415,-76
2021-10-14 16:20:01.552424,-67
2021-10-14 16:20:01.552432,-50
2021-10-14 16:20:01.552440,-52
2021-10-14 16:20:01.552449,-62
2021-10-14 16:20:01.552457,-60
2021-10-14 16:20:01.552465,-67
2021-10-14 16:20:01.552473,-74
2021-10-14 16:20:01.552482,-60
2021-10-14 16:20:01.552490,-40
2021-10-14 16:20:01.552498,-43
2021-10-14 16:20:01.552507,-74
2021-10-14 16:20:01.552515,-81
2021-10-14 16:20:01.552524,-60
2021-10-14 16:20:01.552532,-60
2021-10-14 16:20:01.552540,-72
2021-10-14 16:20:01.552549,-60
2021-10-14 16:20:01.552557,-43
2021-10-14 16:20:01.552565,-48
2021-10-14 16:20:01.552574,-69
2021-10-14 16:20:01.552582,-74
2021-10-14 16:20:01.552590,-62
2021-10-14 16:20:01.552599,-69
2021-10-14 16:20:01.552607,-76
2021-10-14 16:20:01.552616,-57
2021-10-14 16:20:01.732289,-52
2021-10-14 16:20:01.732309,-72
2021-10-14 16:20:01.732318,-81
2021-10-14 16:20:01.732327,-76
2021-10-14 16:20:01.732335,-72
2021-10-14 16:20:01.732344,-67
2021-10-14 16:20:01.732352,-72
2021-10-14 16:20:01.732360,-93
2021-10-14 16:20:01.732368,-108
2021-10-14 16:20:01.732377,-115
2021-10-14 16:20:01.732385,-115
2021-10-14 16:20:01.732393,-98
2021-10-14 16:20:01.732402,-84
2021-10-14 16:20:01.732410,-81
2021-10-14 16:20:01.732418,-74
2021-10-14 16:20:01.732426,-84
2021-10-14 16:20:01.732435,-108
2021-10-14 16:20:01.732443,-108
2021-10-14 16:20:01.732451,-98
2021-10-14 16:20:01.732459,-108
2021-10-14 16:20:01.732468,-117
2021-10-14 16:20:01.732476,-120
2021-10-14 16:20:01.732484,-117
2021-10-14 16:20:01.732492,-113
2021-10-14 16:20:01.732501,-105
2021-10-14 16:20:01.732509,-103
2021-10-14 16:20:01.732517,-93
2021-10-14 16:20:01.732525,-74
2021-10-14 16:20:01.732534,-19
2021-10-14 16:20:01.732542,216
2021-10-14 16:20:01.957250,627
2021-10-14 16:20:01.957269,692
2021-10-14 16:20:01.957279,-139
2021-10-14 16:20:01.957288,-1175
2021-10-14 16:20:01.957296,-1139
2021-10-14 16:20:01.957305,-428
2021-10-14 16:20:01.957313,-163
2021-10-14 16:20:01.957321,-158
2021-10-14 16:20:01.957330,-21
2021-10-14 16:20:01.957338,38
2021-10-14 16:20:01.957346,-7
2021-10-14 16:20:01.957355,-4
2021-10-14 16:20:01.957363,36
2021-10-14 16:20:01.957371,48
2021-10-14 16:20:01.957380,48
2021-10-14 16:20:01.957388,57
2021-10-14 16:20:01.957396,45
2021-10-14 16:20:01.957405,28
2021-10-14 16:20:01.957413,45
2021-10-14 16:20:01.957421,76
2021-10-14 16:20:01.957430,88
2021-10-14 16:20:01.957438,72
2021-10-14 16:20:01.957447,84
2021-10-14 16:20:01.957455,144
2021-10-14 16:20:01.957463,161
2021-10-14 16:20:01.957471,129
2021-10-14 16:20:01.957480,149
2021-10-14 16:20:01.957488,168
2021-10-14 16:20:01.957496,158
2021-10-14 16:20:01.957505,185
2021-10-14 16:20:02.227668,182
2021-10-14 16:20:02.227688,120
2021-10-14 16:20:02.227697,110
2021-10-14 16:20:02.227705,132
2021-10-14 16:20:02.227714,88
2021-10-14 16:20:02.227722,24
2021-10-14 16:20:02.227731,-4
2021-10-14 16:20:02.227739,-31
2021-10-14 16:20:02.227748,-79
2021-10-14 16:20:02.227756,-120
2021-10-14 16:20:02.227764,-129
2021-10-14 16:20:02.227772,-137
2021-10-14 16:20:02.227781,-161
2021-10-14 16:20:02.227789,-185
2021-10-14 16:20:02.227797,-182
2021-10-14 16:20:02.227806,-165
2021-10-14 16:20:02.227814,-175
2021-10-14 16:20:02.227822,-192
2021-10-14 16:20:02.227830,-182
2021-10-14 16:20:02.227839,-161
2021-10-14 16:20:02.227847,-153
2021-10-14 16:20:02.227855,-141
2021-10-14 16:20:02.227864,-127
2021-10-14 16:20:02.227872,-132
2021-10-14 16:20:02.227880,-134
2021-10-14 16:20:02.227888,-117
2021-10-14 16:20:02.227897,-93
2021-10-14 16:20:02.227905,-79
2021-10-14 16:20:02.227913,-101
2021-10-14 16:20:02.227921,-113
2021-10-14 16:20:02.407545,-74
2021-10-14 16:20:02.407564,-69
2021-10-14 16:20:02.407573,-91
2021-10-14 16:20:02.407582,-72
2021-10-14 16:20:02.407590,-38
2021-10-14 16:20:02.407599,-60
2021-10-14 16:20:02.407607,-103
2021-10-14 16:20:02.407616,-105
2021-10-14 16:20:02.407624,-88
2021-10-14 16:20:02.407632,-88
2021-10-14 16:20:02.407640,-98
2021-10-14 16:20:02.407649,-108
2021-10-14 16:20:02.407657,-96
2021-10-14 16:20:02.407665,-60
2021-10-14 16:20:02.407674,-76
2021-10-14 16:20:02.407682,-117
2021-10-14 16:20:02.407690,-108
2021-10-14 16:20:02.407699,-110
2021-10-14 16:20:02.407707,-139
2021-10-14 16:20:02.407716,-110
2021-10-14 16:20:02.407724,-86
2021-10-14 16:20:02.407732,-108
2021-10-14 16:20:02.407741,-110
2021-10-14 16:20:02.407749,-101
2021-10-14 16:20:02.407757,-103
2021-10-14 16:20:02.407765,-103
2021-10-14 16:20:02.407774,-98
2021-10-14 16:20:02.407782,-93
2021-10-14 16:20:02.407790,-93
2021-10-14 16:20:02.407798,-81
2021-10-14 16:20:02.722732,-67
2021-10-14 16:20:02.722754,-79
2021-10-14 16:20:02.722763,-101
2021-10-14 16:20:02.722772,-105
2021-10-14 16:20:02.722781,-84
2021-10-14 16:20:02.722789,-60
2021-10-14 16:20:02.722797,-60
2021-10-14 16:20:02.722806,-50
2021-10-14 16:20:02.722814,-43
2021-10-14 16:20:02.722822,-72
2021-10-14 16:20:02.722831,-81
2021-10-14 16:20:02.722839,-79
2021-10-14 16:20:02.722848,-108
2021-10-14 16:20:02.722856,-105
2021-10-14 16:20:02.722864,-69
2021-10-14 16:20:02.722873,-74
2021-10-14 16:20:02.722881,-98
2021-10-14 16:20:02.722889,-103
2021-10-14 16:20:02.722898,-96
2021-10-14 16:20:02.722906,-96
2021-10-14 16:20:02.722914,-84
2021-10-14 16:20:02.722923,-45
2021-10-14 16:20:02.722931,33
2021-10-14 16:20:02.722939,278
2021-10-14 16:20:02.722948,651
2021-10-14 16:20:02.722956,639
2021-10-14 16:20:02.722964,-199
2021-10-14 16:20:02.722972,-1120
2021-10-14 16:20:02.722981,-1017
2021-10-14 16:20:02.722989,-389
2021-10-14 16:20:02.857701,-177
2021-10-14 16:20:02.857722,-129
2021-10-14 16:20:02.857731,38
2021-10-14 16:20:02.857740,91
2021-10-14 16:20:02.857748,26
2021-10-14 16:20:02.857757,36
2021-10-14 16:20:02.857765,79
2021-10-14 16:20:02.857773,74
2021-10-14 16:20:02.857782,86
2021-10-14 16:20:02.857790,103
2021-10-14 16:20:02.857798,81
2021-10-14 16:20:02.857807,74
2021-10-14 16:20:02.857815,93
2021-10-14 16:20:02.857823,98
2021-10-14 16:20:02.857832,108
2021-10-14 16:20:02.857840,129
2021-10-14 16:20:02.857848,132
2021-10-14 16:20:02.857857,132
2021-10-14 16:20:02.857865,151
2021-10-14 16:20:02.857873,175
2021-10-14 16:20:02.857882,206
2021-10-14 16:20:02.857890,216
2021-10-14 16:20:02.857898,192
2021-10-14 16:20:02.857906,173
2021-10-14 16:20:02.857915,192
2021-10-14 16:20:02.857923,197
2021-10-14 16:20:02.857931,173
2021-10-14 16:20:02.857940,146
2021-10-14 16:20:02.857948,113
2021-10-14 16:20:02.857956,79
2021-10-14 16:20:03.126342,55
2021-10-14 16:20:03.126361,4
2021-10-14 16:20:03.126370,-40
2021-10-14 16:20:03.126379,-62
2021-10-14 16:20:03.126388,-96
2021-10-14 16:20:03.126396,-137
2021-10-14 16:20:03.126404,-141
2021-10-14 16:20:03.126413,-120
2021-10-14 16:20:03.126421,-127
2021-10-14 16:20:03.126429,-146
2021-10-14 16:20:03.126438,-134
2021-10-14 16:20:03.126446,-127
2021-10-14 16:20:03.126455,-139
2021-10-14 16:20:03.126463,-141
2021-10-14 16:20:03.126471,-134
2021-10-14 16:20:03.126479,-120
2021-10-14 16:20:03.126487,-115
2021-10-14 16:20:03.126511,-117
2021-10-14 16:20:03.126519,-91
2021-10-14 16:20:03.126528,-52
2021-10-14 16:20:03.126536,-52
2021-10-14 16:20:03.126545,-67
2021-10-14 16:20:03.126553,-84
2021-10-14 16:20:03.126561,-98
2021-10-14 16:20:03.126569,-91
2021-10-14 16:20:03.126578,-76
2021-10-14 16:20:03.126586,-72
2021-10-14 16:20:03.126594,-79
2021-10-14 16:20:03.126602,-98
2021-10-14 16:20:03.126611,-91
2021-10-14 16:20:03.396981,-72
2021-10-14 16:20:03.397001,-72
2021-10-14 16:20:03.397011,-101
2021-10-14 16:20:03.397019,-122
2021-10-14 16:20:03.397028,-103
2021-10-14 16:20:03.397037,-81
2021-10-14 16:20:03.397045,-91
2021-10-14 16:20:03.397054,-117
2021-10-14 16:20:03.397062,-122
2021-10-14 16:20:03.397070,-105
2021-10-14 16:20:03.397079,-103
2021-10-14 16:20:03.397087,-122
2021-10-14 16:20:03.397096,-110
2021-10-14 16:20:03.397104,-88
2021-10-14 16:20:03.397112,-98
2021-10-14 16:20:03.397121,-88
2021-10-14 16:20:03.397129,-72
2021-10-14 16:20:03.397138,-93
2021-10-14 16:20:03.397146,-110
2021-10-14 16:20:03.397154,-91
2021-10-14 16:20:03.397163,-69
2021-10-14 16:20:03.397171,-67
2021-10-14 16:20:03.397179,-76
2021-10-14 16:20:03.397187,-74
2021-10-14 16:20:03.397196,-50
2021-10-14 16:20:03.397204,-26
2021-10-14 16:20:03.397213,-24
2021-10-14 16:20:03.397221,-45
2021-10-14 16:20:03.397229,-57
2021-10-14 16:20:03.397237,-38
2021-10-14 16:20:03.577735,-38
2021-10-14 16:20:03.577757,-55
2021-10-14 16:20:03.577766,-64
2021-10-14 16:20:03.577775,-64
2021-10-14 16:20:03.577783,-60
2021-10-14 16:20:03.577792,-57
2021-10-14 16:20:03.577800,-57
2021-10-14 16:20:03.577808,-50
2021-10-14 16:20:03.577817,-52
2021-10-14 16:20:03.577825,-62
2021-10-14 16:20:03.577833,-48
2021-10-14 16:20:03.577842,4
2021-10-14 16:20:03.577850,153
2021-10-14 16:20:03.577859,507
2021-10-14 16:20:03.577867,788
2021-10-14 16:20:03.577875,310
2021-10-14 16:20:03.577883,-808
2021-10-14 16:20:03.577892,-1262
2021-10-14 16:20:03.577900,-697
2021-10-14 16:20:03.577908,-247
2021-10-14 16:20:03.577917,-187
2021-10-14 16:20:03.577925,-24
2021-10-14 16:20:03.577933,96
2021-10-14 16:20:03.577941,48
2021-10-14 16:20:03.577950,55
2021-10-14 16:20:03.577958,105
2021-10-14 16:20:03.577966,93
2021-10-14 16:20:03.577974,72
2021-10-14 16:20:03.577982,72
2021-10-14 16:20:03.577991,64
2021-10-14 16:20:03.892331,57
2021-10-14 16:20:03.892351,74
2021-10-14 16:20:03.892361,103
2021-10-14 16:20:03.892369,117
2021-10-14 16:20:03.892378,120
2021-10-14 16:20:03.892386,129
2021-10-14 16:20:03.892394,146
2021-10-14 16:20:03.892403,141
2021-10-14 16:20:03.892411,141
2021-10-14 16:20:03.892419,165
2021-10-14 16:20:03.892427,192
2021-10-14 16:20:03.892436,214
2021-10-14 16:20:03.892444,218
2021-10-14 16:20:03.892452,194
2021-10-14 16:20:03.892461,177
2021-10-14 16:20:03.892469,170
2021-10-14 16:20:03.892477,146
2021-10-14 16:20:03.892486,115
2021-10-14 16:20:03.892494,84
2021-10-14 16:20:03.892502,38
2021-10-14 16:20:03.892510,-16
2021-10-14 16:20:03.892519,-60
2021-10-14 16:20:03.892527,-84
2021-10-14 16:20:03.892535,-84
2021-10-14 16:20:03.892543,-86
2021-10-14 16:20:03.892552,-127
2021-10-14 16:20:03.892560,-158
2021-10-14 16:20:03.892568,-134
2021-10-14 16:20:03.892576,-110
2021-10-14 16:20:03.892584,-117
2021-10-14 16:20:04.027733,-125
2021-10-14 16:20:04.027755,-137
2021-10-14 16:20:04.027764,-134
2021-10-14 16:20:04.027773,-108
2021-10-14 16:20:04.027781,-103
2021-10-14 16:20:04.027789,-115
2021-10-14 16:20:04.027798,-103
2021-10-14 16:20:04.027806,-91
2021-10-14 16:20:04.027814,-101
2021-10-14 16:20:04.027823,-91
2021-10-14 16:20:04.027831,-57
2021-10-14 16:20:04.027839,-50
2021-10-14 16:20:04.027848,-84
2021-10-14 16:20:04.027856,-110
2021-10-14 16:20:04.027864,-93
2021-10-14 16:20:04.027872,-81
2021-10-14 16:20:04.027881,-101
2021-10-14 16:20:04.027889,-103
2021-10-14 16:20:04.027897,-81
2021-10-14 16:20:04.027906,-74
2021-10-14 16:20:04.027914,-81
2021-10-14 16:20:04.027922,-93
2021-10-14 16:20:04.027930,-101
2021-10-14 16:20:04.027939,-91
2021-10-14 16:20:04.027947,-91
2021-10-14 16:20:04.027955,-105
2021-10-14 16:20:04.027963,-91
2021-10-14 16:20:04.027972,-74
2021-10-14 16:20:04.027980,-86
2021-10-14 16:20:04.027988,-88
2021-10-14 16:20:04.252727,-69
2021-10-14 16:20:04.252748,-67
2021-10-14 16:20:04.252757,-84
2021-10-14 16:20:04.252766,-79
2021-10-14 16:20:04.252774,-74
2021-10-14 16:20:04.252783,-86
2021-10-14 16:20:04.252791,-86
2021-10-14 16:20:04.252799,-93
2021-10-14 16:20:04.252808,-101
2021-10-14 16:20:04.252816,-76
2021-10-14 16:20:04.252824,-67
2021-10-14 16:20:04.252833,-84
2021-10-14 16:20:04.252841,-81
2021-10-14 16:20:04.252850,-72
2021-10-14 16:20:04.252858,-79
2021-10-14 16:20:04.252866,-86
2021-10-14 16:20:04.252875,-76
2021-10-14 16:20:04.252883,-69
2021-10-14 16:20:04.252891,-50
2021-10-14 16:20:04.252899,-31
2021-10-14 16:20:04.252908,-36
2021-10-14 16:20:04.252916,-19
2021-10-14 16:20:04.252924,-19
2021-10-14 16:20:04.252933,-69
2021-10-14 16:20:04.252941,-84
2021-10-14 16:20:04.252950,-62
2021-10-14 16:20:04.252958,-72
2021-10-14 16:20:04.252966,-69
2021-10-14 16:20:04.252975,-43
2021-10-14 16:20:04.252983,-40
2021-10-14 16:20:04.522412,-57
2021-10-14 16:20:04.522434,-48
2021-10-14 16:20:04.522443,-28
2021-10-14 16:20:04.522452,-33
2021-10-14 16:20:04.522461,-28
2021-10-14 16:20:04.522469,38
2021-10-14 16:20:04.522477,278
2021-10-14 16:20:04.522486,685
2021-10-14 16:20:04.522494,726
2021-10-14 16:20:04.522503,-115
2021-10-14 16:20:04.522511,-1115
2021-10-14 16:20:04.522519,-1065
2021-10-14 16:20:04.522528,-389
2021-10-14 16:20:04.522536,-125
2021-10-14 16:20:04.522545,-93
2021-10-14 16:20:04.522553,40
2021-10-14 16:20:04.522562,101
2021-10-14 16:20:04.522570,79
2021-10-14 16:20:04.522579,79
2021-10-14 16:20:04.522587,67
2021-10-14 16:20:04.522595,50
2021-10-14 16:20:04.522604,88
2021-10-14 16:20:04.522612,122
2021-10-14 16:20:04.522621,96
2021-10-14 16:20:04.522629,86
2021-10-14 16:20:04.522637,127
2021-10-14 16:20:04.522646,134
2021-10-14 16:20:04.522654,125
2021-10-14 16:20:04.522663,146
2021-10-14 16:20:04.522671,161
2021-10-14 16:20:04.702652,156
2021-10-14 16:20:04.702672,165
2021-10-14 16:20:04.702681,187
2021-10-14 16:20:04.702690,199
2021-10-14 16:20:04.702698,214
2021-10-14 16:20:04.702707,223
2021-10-14 16:20:04.702715,218
2021-10-14 16:20:04.702723,216
2021-10-14 16:20:04.702732,218
2021-10-14 16:20:04.702740,189
2021-10-14 16:20:04.702749,141
2021-10-14 16:20:04.702757,98
2021-10-14 16:20:04.702765,57
2021-10-14 16:20:04.702773,28
2021-10-14 16:20:04.702781,7
2021-10-14 16:20:04.702789,-21
2021-10-14 16:20:04.702797,-50
2021-10-14 16:20:04.702806,-86
2021-10-14 16:20:04.702814,-122
2021-10-14 16:20:04.702821,-115
2021-10-14 16:20:04.702829,-101
2021-10-14 16:20:04.702837,-115
2021-10-14 16:20:04.702845,-132
2021-10-14 16:20:04.702853,-153
2021-10-14 16:20:04.702860,-153
2021-10-14 16:20:04.702868,-129
2021-10-14 16:20:04.702876,-127
2021-10-14 16:20:04.702884,-127
2021-10-14 16:20:04.702892,-110
2021-10-14 16:20:04.702900,-110
2021-10-14 16:20:05.017291,-110
2021-10-14 16:20:05.017310,-96
2021-10-14 16:20:05.017319,-96
2021-10-14 16:20:05.017328,-98
2021-10-14 16:20:05.017336,-91
2021-10-14 16:20:05.017344,-93
2021-10-14 16:20:05.017352,-103
2021-10-14 16:20:05.017361,-105
2021-10-14 16:20:05.017369,-93
2021-10-14 16:20:05.017377,-69
2021-10-14 16:20:05.017386,-67
2021-10-14 16:20:05.017394,-84
2021-10-14 16:20:05.017402,-76
2021-10-14 16:20:05.017411,-55
2021-10-14 16:20:05.017419,-60
2021-10-14 16:20:05.017427,-88
2021-10-14 16:20:05.017436,-93
2021-10-14 16:20:05.017444,-79
2021-10-14 16:20:05.017452,-67
2021-10-14 16:20:05.017460,-55
2021-10-14 16:20:05.017469,-55
2021-10-14 16:20:05.017477,-81
2021-10-14 16:20:05.017485,-91
2021-10-14 16:20:05.017494,-60
2021-10-14 16:20:05.017502,-48
2021-10-14 16:20:05.017510,-57
2021-10-14 16:20:05.017518,-45
2021-10-14 16:20:05.017526,-55
2021-10-14 16:20:05.017535,-67
2021-10-14 16:20:05.017543,-50
2021-10-14 16:20:05.241308,-40
2021-10-14 16:20:05.241327,-50
2021-10-14 16:20:05.241337,-55
2021-10-14 16:20:05.241346,-50
2021-10-14 16:20:05.241354,-28
2021-10-14 16:20:05.241362,-12
2021-10-14 16:20:05.241371,-14
2021-10-14 16:20:05.241379,-36
2021-10-14 16:20:05.241388,-50
2021-10-14 16:20:05.241396,-48
2021-10-14 16:20:05.241405,-36
2021-10-14 16:20:05.241413,-24
2021-10-14 16:20:05.241421,-16
2021-10-14 16:20:05.241430,2
2021-10-14 16:20:05.241438,2
2021-10-14 16:20:05.241447,-12
2021-10-14 16:20:05.241455,-9
2021-10-14 16:20:05.241464,0
2021-10-14 16:20:05.241472,-26
2021-10-14 16:20:05.241480,-45
2021-10-14 16:20:05.241489,-36
2021-10-14 16:20:05.241497,-43
2021-10-14 16:20:05.241505,-45
2021-10-14 16:20:05.241513,-36
2021-10-14 16:20:05.241521,-45
2021-10-14 16:20:05.241530,-45
2021-10-14 16:20:05.241538,-40
2021-10-14 16:20:05.241547,-45
2021-10-14 16:20:05.241555,-40
2021-10-14 16:20:05.241564,-9
2021-10-14 16:20:05.512764,62
2021-10-14 16:20:05.512785,310
2021-10-14 16:20:05.512794,699
2021-10-14 16:20:05.512803,711
2021-10-14 16:20:05.512811,-105
2021-10-14 16:20:05.512820,-1053
2021-10-14 16:20:05.512828,-1014
2021-10-14 16:20:05.512836,-389
2021-10-14 16:20:05.512844,-139
2021-10-14 16:20:05.512853,-103
2021-10-14 16:20:05.512862,38
2021-10-14 16:20:05.512870,88
2021-10-14 16:20:05.512878,45
2021-10-14 16:20:05.512887,84
2021-10-14 16:20:05.512895,117
2021-10-14 16:20:05.512903,62
2021-10-14 16:20:05.512912,57
2021-10-14 16:20:05.512920,115
2021-10-14 16:20:05.512929,122
2021-10-14 16:20:05.512937,108
2021-10-14 16:20:05.512945,113
2021-10-14 16:20:05.512954,103
2021-10-14 16:20:05.512962,103
2021-10-14 16:20:05.512970,127
2021-10-14 16:20:05.512979,141
2021-10-14 16:20:05.512987,170
2021-10-14 16:20:05.512995,194
2021-10-14 16:20:05.513004,168
2021-10-14 16:20:05.513012,173
2021-10-14 16:20:05.513020,223
2021-10-14 16:20:05.692709,247
2021-10-14 16:20:05.692728,230
2021-10-14 16:20:05.692737,218
2021-10-14 16:20:05.692746,209
2021-10-14 16:20:05.692754,173
2021-10-14 16:20:05.692762,149
2021-10-14 16:20:05.692771,153
2021-10-14 16:20:05.692779,120
2021-10-14 16:20:05.692788,52
2021-10-14 16:20:05.692796,9
2021-10-14 16:20:05.692804,-33
2021-10-14 16:20:05.692813,-64
2021-10-14 16:20:05.692821,-55
2021-10-14 16:20:05.692830,-72
2021-10-14 16:20:05.692838,-129
2021-10-14 16:20:05.692846,-151
2021-10-14 16:20:05.692854,-139
2021-10-14 16:20:05.692863,-122
2021-10-14 16:20:05.692871,-122
2021-10-14 16:20:05.692879,-129
2021-10-14 16:20:05.692887,-125
2021-10-14 16:20:05.692896,-137
2021-10-14 16:20:05.692904,-161
2021-10-14 16:20:05.692912,-153
2021-10-14 16:20:05.692920,-129
2021-10-14 16:20:05.692929,-127
2021-10-14 16:20:05.692937,-134
2021-10-14 16:20:05.692945,-139
2021-10-14 16:20:05.692953,-141
2021-10-14 16:20:05.692962,-127
2021-10-14 16:20:05.872671,-113
2021-10-14 16:20:05.872690,-115
2021-10-14 16:20:05.872700,-103
2021-10-14 16:20:05.872708,-79
2021-10-14 16:20:05.872717,-86
2021-10-14 16:20:05.872725,-108
2021-10-14 16:20:05.872734,-108
2021-10-14 16:20:05.872742,-110
2021-10-14 16:20:05.872750,-113
2021-10-14 16:20:05.872758,-108
2021-10-14 16:20:05.872767,-98
2021-10-14 16:20:05.872775,-81
2021-10-14 16:20:05.872783,-74
2021-10-14 16:20:05.872792,-93
2021-10-14 16:20:05.872800,-110
2021-10-14 16:20:05.872808,-98
2021-10-14 16:20:05.872816,-91
2021-10-14 16:20:05.872824,-91
2021-10-14 16:20:05.872833,-81
2021-10-14 16:20:05.872841,-84
2021-10-14 16:20:05.872849,-93
2021-10-14 16:20:05.872857,-96
2021-10-14 16:20:05.872866,-81
2021-10-14 16:20:05.872874,-62
2021-10-14 16:20:05.872882,-67
2021-10-14 16:20:05.872891,-84
2021-10-14 16:20:05.872899,-86
2021-10-14 16:20:05.872907,-76
2021-10-14 16:20:05.872916,-64
2021-10-14 16:20:05.872924,-55
2021-10-14 16:20:06.142675,-45
2021-10-14 16:20:06.142694,-43
2021-10-14 16:20:06.142703,-38
2021-10-14 16:20:06.142712,-26
2021-10-14 16:20:06.142720,-33
2021-10-14 16:20:06.142729,-33
2021-10-14 16:20:06.142737,-38
2021-10-14 16:20:06.142745,-62
2021-10-14 16:20:06.142754,-76
2021-10-14 16:20:06.142762,-72
2021-10-14 16:20:06.142771,-64
2021-10-14 16:20:06.142779,-67
2021-10-14 16:20:06.142787,-81
2021-10-14 16:20:06.142795,-91
2021-10-14 16:20:06.142803,-74
2021-10-14 16:20:06.142812,-64
2021-10-14 16:20:06.142820,-72
2021-10-14 16:20:06.142828,-64
2021-10-14 16:20:06.142836,-31
2021-10-14 16:20:06.142845,72
2021-10-14 16:20:06.142853,327
2021-10-14 16:20:06.142861,702
2021-10-14 16:20:06.142869,719
2021-10-14 16:20:06.142877,-144
2021-10-14 16:20:06.142886,-1175
2021-10-14 16:20:06.142894,-1123
2021-10-14 16:20:06.142903,-435
2021-10-14 16:20:06.142911,-175
2021-10-14 16:20:06.142919,-115
2021-10-14 16:20:06.142927,60
2021-10-14 16:20:06.367303,79
2021-10-14 16:20:06.367323,14
2021-10-14 16:20:06.367333,72
2021-10-14 16:20:06.367341,120
2021-10-14 16:20:06.367350,91
2021-10-14 16:20:06.367358,93
2021-10-14 16:20:06.367366,117
2021-10-14 16:20:06.367375,98
2021-10-14 16:20:06.367383,74
2021-10-14 16:20:06.367392,105
2021-10-14 16:20:06.367400,146
2021-10-14 16:20:06.367408,122
2021-10-14 16:20:06.367417,110
2021-10-14 16:20:06.367425,161
2021-10-14 16:20:06.367433,197
2021-10-14 16:20:06.367442,194
2021-10-14 16:20:06.367450,197
2021-10-14 16:20:06.367458,206
2021-10-14 16:20:06.367467,211
2021-10-14 16:20:06.367475,211
2021-10-14 16:20:06.367483,226
2021-10-14 16:20:06.367492,242
2021-10-14 16:20:06.367500,226
2021-10-14 16:20:06.367508,197
2021-10-14 16:20:06.367517,180
2021-10-14 16:20:06.367525,156
2021-10-14 16:20:06.367533,115
2021-10-14 16:20:06.367542,62
2021-10-14 16:20:06.367550,16
2021-10-14 16:20:06.367558,-19
2021-10-14 16:20:06.547531,-48
2021-10-14 16:20:06.547551,-84
2021-10-14 16:20:06.547560,-110
2021-10-14 16:20:06.547569,-101
2021-10-14 16:20:06.547578,-88
2021-10-14 16:20:06.547586,-105
2021-10-14 16:20:06.547594,-120
2021-10-14 16:20:06.547603,-117
2021-10-14 16:20:06.547611,-110
2021-10-14 16:20:06.547619,-108
2021-10-14 16:20:06.547628,-115
2021-10-14 16:20:06.547636,-129
2021-10-14 16:20:06.547644,-125
2021-10-14 16:20:06.547653,-115
2021-10-14 16:20:06.547661,-117
2021-10-14 16:20:06.547669,-108
2021-10-14 16:20:06.547678,-96
2021-10-14 16:20:06.547686,-103
2021-10-14 16:20:06.547694,-103
2021-10-14 16:20:06.547703,-69
2021-10-14 16:20:06.547711,-43
2021-10-14 16:20:06.547719,-69
2021-10-14 16:20:06.547728,-93
2021-10-14 16:20:06.547736,-76
2021-10-14 16:20:06.547745,-64
2021-10-14 16:20:06.547753,-69
2021-10-14 16:20:06.547762,-62
2021-10-14 16:20:06.547770,-69
2021-10-14 16:20:06.547779,-79
2021-10-14 16:20:06.547787,-60
2021-10-14 16:20:06.817389,-40
2021-10-14 16:20:06.817411,-45
2021-10-14 16:20:06.817420,-67
2021-10-14 16:20:06.817429,-93
2021-10-14 16:20:06.817437,-101
2021-10-14 16:20:06.817446,-91
2021-10-14 16:20:06.817454,-88
2021-10-14 16:20:06.817463,-91
2021-10-14 16:20:06.817471,-79
2021-10-14 16:20:06.817480,-64
2021-10-14 16:20:06.817488,-88
2021-10-14 16:20:06.817496,-103
2021-10-14 16:20:06.817504,-67
2021-10-14 16:20:06.817513,-48
2021-10-14 16:20:06.817521,-64
2021-10-14 16:20:06.817529,-67
2021-10-14 16:20:06.817538,-60
2021-10-14 16:20:06.817546,-64
2021-10-14 16:20:06.817554,-67
2021-10-14 16:20:06.817563,-48
2021-10-14 16:20:06.817571,-26
2021-10-14 16:20:06.817579,-26
2021-10-14 16:20:06.817588,-26
2021-10-14 16:20:06.817596,-12
2021-10-14 16:20:06.817604,-2
2021-10-14 16:20:06.817613,-16
2021-10-14 16:20:06.817621,-28
2021-10-14 16:20:06.817629,-26
2021-10-14 16:20:06.817637,-26
2021-10-14 16:20:06.817646,-45
2021-10-14 16:20:07.177703,-40
2021-10-14 16:20:07.177722,-14
2021-10-14 16:20:07.177732,-7
2021-10-14 16:20:07.177740,-26
2021-10-14 16:20:07.177749,-38
2021-10-14 16:20:07.177757,-14
2021-10-14 16:20:07.177766,24
2021-10-14 16:20:07.177774,52
2021-10-14 16:20:07.177783,221
2021-10-14 16:20:07.177791,622
2021-10-14 16:20:07.177800,824
2021-10-14 16:20:07.177808,206
2021-10-14 16:20:07.177816,-894
2021-10-14 16:20:07.177825,-1209
2021-10-14 16:20:07.177833,-591
2021-10-14 16:20:07.177842,-158
2021-10-14 16:20:07.177850,-103
2021-10-14 16:20:07.177859,26
2021-10-14 16:20:07.177867,110
2021-10-14 16:20:07.177891,72
2021-10-14 16:20:07.177900,93
2021-10-14 16:20:07.177908,134
2021-10-14 16:20:07.177917,115
2021-10-14 16:20:07.177925,105
2021-10-14 16:20:07.177933,120
2021-10-14 16:20:07.177942,122
2021-10-14 16:20:07.177950,134
2021-10-14 16:20:07.177958,149
2021-10-14 16:20:07.177967,153
2021-10-14 16:20:07.177975,173
2021-10-14 16:20:07.356335,173
2021-10-14 16:20:07.356354,168
2021-10-14 16:20:07.356363,192
2021-10-14 16:20:07.356372,218
2021-10-14 16:20:07.356380,216
2021-10-14 16:20:07.356389,221
2021-10-14 16:20:07.356398,240
2021-10-14 16:20:07.356406,245
2021-10-14 16:20:07.356414,245
2021-10-14 16:20:07.356423,252
2021-10-14 16:20:07.356431,242
2021-10-14 16:20:07.356440,218
2021-10-14 16:20:07.356448,194
2021-10-14 16:20:07.356456,153
2021-10-14 16:20:07.356465,103
2021-10-14 16:20:07.356473,72
2021-10-14 16:20:07.356481,28
2021-10-14 16:20:07.356490,-31
2021-10-14 16:20:07.356498,-52
2021-10-14 16:20:07.356507,-60
2021-10-14 16:20:07.356515,-84
2021-10-14 16:20:07.356559,-93
2021-10-14 16:20:07.356568,-93
2021-10-14 16:20:07.356577,-98
2021-10-14 16:20:07.356585,-98
2021-10-14 16:20:07.356593,-101
2021-10-14 16:20:07.356601,-120
2021-10-14 16:20:07.356610,-137
2021-10-14 16:20:07.356618,-117
2021-10-14 16:20:07.356626,-86
2021-10-14 16:20:07.492836,-84
2021-10-14 16:20:07.492857,-93
2021-10-14 16:20:07.492866,-91
2021-10-14 16:20:07.492873,-79
2021-10-14 16:20:07.492880,-84
2021-10-14 16:20:07.492887,-93
2021-10-14 16:20:07.492895,-79
2021-10-14 16:20:07.492903,-67
2021-10-14 16:20:07.492912,-88
2021-10-14 16:20:07.492919,-81
2021-10-14 16:20:07.492926,-48
2021-10-14 16:20:07.492933,-43
2021-10-14 16:20:07.492952,-50
2021-10-14 16:20:07.492959,-55
2021-10-14 16:20:07.492966,-67
2021-10-14 16:20:07.493001,-84
2021-10-14 16:20:07.493010,-79
2021-10-14 16:20:07.493017,-45
2021-10-14 16:20:07.493087,-40
2021-10-14 16:20:07.493092,-74
2021-10-14 16:20:07.493099,-86
2021-10-14 16:20:07.493107,-57
2021-10-14 16:20:07.493114,-50
2021-10-14 16:20:07.493122,-64
2021-10-14 16:20:07.493130,-55
2021-10-14 16:20:07.493138,-43
2021-10-14 16:20:07.493146,-55
2021-10-14 16:20:07.493153,-64
2021-10-14 16:20:07.493160,-52
2021-10-14 16:20:07.493167,-38
2021-10-14 16:20:07.717386,-38
2021-10-14 16:20:07.717404,-36
2021-10-14 16:20:07.717414,-19
2021-10-14 16:20:07.717423,-16
2021-10-14 16:20:07.717431,-36
2021-10-14 16:20:07.717439,-43
2021-10-14 16:20:07.717448,-26
2021-10-14 16:20:07.717456,-24
2021-10-14 16:20:07.717464,-26
2021-10-14 16:20:07.717473,-19
2021-10-14 16:20:07.717481,-26
2021-10-14 16:20:07.717489,-21
2021-10-14 16:20:07.717498,-9
2021-10-14 16:20:07.717506,-24
2021-10-14 16:20:07.717514,-33
2021-10-14 16:20:07.717522,-24
2021-10-14 16:20:07.717531,-9
2021-10-14 16:20:07.717539,0
2021-10-14 16:20:07.717547,-9
2021-10-14 16:20:07.717556,-31
2021-10-14 16:20:07.717564,-50
2021-10-14 16:20:07.717573,-50
2021-10-14 16:20:07.717581,-40
2021-10-14 16:20:07.717590,-48
2021-10-14 16:20:07.717598,-43
2021-10-14 16:20:07.717607,-16
2021-10-14 16:20:07.717615,-21
2021-10-14 16:20:07.717623,-48
2021-10-14 16:20:07.717632,-21
2021-10-14 16:20:07.717640,24
2021-10-14 16:20:07.942700,55
2021-10-14 16:20:07.942720,221
2021-10-14 16:20:07.942729,613
2021-10-14 16:20:07.942737,810
2021-10-14 16:20:07.942746,189
2021-10-14 16:20:07.942754,-947
2021-10-14 16:20:07.942763,-1286
2021-10-14 16:20:07.942771,-567
2021-10-14 16:20:07.942779,-43
2021-10-14 16:20:07.942787,-50
2021-10-14 16:20:07.942795,12
2021-10-14 16:20:07.942804,113
2021-10-14 16:20:07.942812,84
2021-10-14 16:20:07.942820,84
2021-10-14 16:20:07.942828,127
2021-10-14 16:20:07.942837,120
2021-10-14 16:20:07.942845,105
2021-10-14 16:20:07.942853,129
2021-10-14 16:20:07.942861,139
2021-10-14 16:20:07.942870,117
2021-10-14 16:20:07.942878,113
2021-10-14 16:20:07.942886,134
2021-10-14 16:20:07.942894,151
2021-10-14 16:20:07.942902,146
2021-10-14 16:20:07.942910,156
2021-10-14 16:20:07.942919,185
2021-10-14 16:20:07.942927,209
2021-10-14 16:20:07.942935,221
2021-10-14 16:20:07.942943,226
2021-10-14 16:20:07.942952,221
2021-10-14 16:20:08.257077,230
2021-10-14 16:20:08.257096,252
2021-10-14 16:20:08.257105,262
2021-10-14 16:20:08.257114,247
2021-10-14 16:20:08.257122,226
2021-10-14 16:20:08.257131,218
2021-10-14 16:20:08.257139,192
2021-10-14 16:20:08.257147,149
2021-10-14 16:20:08.257156,117
2021-10-14 16:20:08.257164,81
2021-10-14 16:20:08.257173,33
2021-10-14 16:20:08.257181,12
2021-10-14 16:20:08.257189,-16
2021-10-14 16:20:08.257198,-67
2021-10-14 16:20:08.257206,-72
2021-10-14 16:20:08.257215,-33
2021-10-14 16:20:08.257223,-38
2021-10-14 16:20:08.257231,-62
2021-10-14 16:20:08.257240,-45
2021-10-14 16:20:08.257248,-36
2021-10-14 16:20:08.257256,-62
2021-10-14 16:20:08.257265,-74
2021-10-14 16:20:08.257273,-57
2021-10-14 16:20:08.257281,-48
2021-10-14 16:20:08.257289,-43
2021-10-14 16:20:08.257298,-33
2021-10-14 16:20:08.257306,-16
2021-10-14 16:20:08.257315,-9
2021-10-14 16:20:08.257323,-21
2021-10-14 16:20:08.257331,-31
2021-10-14 16:20:08.392331,-24
2021-10-14 16:20:08.392350,-4
2021-10-14 16:20:08.392359,33
2021-10-14 16:20:08.392368,55
2021-10-14 16:20:08.392376,31
2021-10-14 16:20:08.392385,26
2021-10-14 16:20:08.392393,57
2021-10-14 16:20:08.392402,72
2021-10-14 16:20:08.392410,62
2021-10-14 16:20:08.392418,55
2021-10-14 16:20:08.392427,45
2021-10-14 16:20:08.392435,40
2021-10-14 16:20:08.392444,62
2021-10-14 16:20:08.392452,96
2021-10-14 16:20:08.392461,96
2021-10-14 16:20:08.392469,79
2021-10-14 16:20:08.392478,79
2021-10-14 16:20:08.392486,91
2021-10-14 16:20:08.392495,103
2021-10-14 16:20:08.392503,108
2021-10-14 16:20:08.392512,98
2021-10-14 16:20:08.392520,79
2021-10-14 16:20:08.392529,84
2021-10-14 16:20:08.392537,125
2021-10-14 16:20:08.392545,127
2021-10-14 16:20:08.392554,103
2021-10-14 16:20:08.392562,115
2021-10-14 16:20:08.392571,137
2021-10-14 16:20:08.392579,144
2021-10-14 16:20:08.392588,137
2021-10-14 16:20:08.662800,122
2021-10-14 16:20:08.662821,115
2021-10-14 16:20:08.662830,122
2021-10-14 16:20:08.662839,139
2021-10-14 16:20:08.662847,158
2021-10-14 16:20:08.662856,158
2021-10-14 16:20:08.662864,153
2021-10-14 16:20:08.662873,163
2021-10-14 16:20:08.662881,185
2021-10-14 16:20:08.662889,206
2021-10-14 16:20:08.662898,194
2021-10-14 16:20:08.662906,163
2021-10-14 16:20:08.662915,161
2021-10-14 16:20:08.662923,180
2021-10-14 16:20:08.662931,180
2021-10-14 16:20:08.662940,161
2021-10-14 16:20:08.662948,151
2021-10-14 16:20:08.662956,165
2021-10-14 16:20:08.662965,175
2021-10-14 16:20:08.662973,173
2021-10-14 16:20:08.662982,177
2021-10-14 16:20:08.662990,187
2021-10-14 16:20:08.662998,202
2021-10-14 16:20:08.663007,238
2021-10-14 16:20:08.663015,379
2021-10-14 16:20:08.663023,731
2021-10-14 16:20:08.663032,1029
2021-10-14 16:20:08.663040,632
2021-10-14 16:20:08.663048,-473
2021-10-14 16:20:08.663057,-1067
2021-10-14 16:20:08.887723,-509
2021-10-14 16:20:08.887743,81
2021-10-14 16:20:08.887752,108
2021-10-14 16:20:08.887761,144
2021-10-14 16:20:08.887769,271
2021-10-14 16:20:08.887778,269
2021-10-14 16:20:08.887786,254
2021-10-14 16:20:08.887795,286
2021-10-14 16:20:08.887803,274
2021-10-14 16:20:08.887811,245
2021-10-14 16:20:08.887820,259
2021-10-14 16:20:08.887828,286
2021-10-14 16:20:08.887837,295
2021-10-14 16:20:08.887845,288
2021-10-14 16:20:08.887853,281
2021-10-14 16:20:08.887861,288
2021-10-14 16:20:08.887870,310
2021-10-14 16:20:08.887878,324
2021-10-14 16:20:08.887886,312
2021-10-14 16:20:08.887895,317
2021-10-14 16:20:08.887903,343
2021-10-14 16:20:08.887911,355
2021-10-14 16:20:08.887920,365
2021-10-14 16:20:08.887928,382
2021-10-14 16:20:08.887937,396
2021-10-14 16:20:08.887945,391
2021-10-14 16:20:08.887953,365
2021-10-14 16:20:08.887962,348
2021-10-14 16:20:08.887970,336
2021-10-14 16:20:08.887978,286
2021-10-14 16:20:09.112392,240
2021-10-14 16:20:09.112412,226
2021-10-14 16:20:09.112422,173
2021-10-14 16:20:09.112431,113
2021-10-14 16:20:09.112439,117
2021-10-14 16:20:09.112447,115
2021-10-14 16:20:09.112456,55
2021-10-14 16:20:09.112464,24
2021-10-14 16:20:09.112473,43
2021-10-14 16:20:09.112481,52
2021-10-14 16:20:09.112490,24
2021-10-14 16:20:09.112498,-9
2021-10-14 16:20:09.112507,-7
2021-10-14 16:20:09.112515,14
2021-10-14 16:20:09.112524,14
2021-10-14 16:20:09.112532,-2
2021-10-14 16:20:09.112540,-2
2021-10-14 16:20:09.112549,9
2021-10-14 16:20:09.112557,7
2021-10-14 16:20:09.112566,9
2021-10-14 16:20:09.112574,28
2021-10-14 16:20:09.112582,48
2021-10-14 16:20:09.112591,38
2021-10-14 16:20:09.112599,9
2021-10-14 16:20:09.112607,0
2021-10-14 16:20:09.112616,2
2021-10-14 16:20:09.112624,2
2021-10-14 16:20:09.112632,19
2021-10-14 16:20:09.112640,21
2021-10-14 16:20:09.112649,-4
2021-10-14 16:20:09.381427,-14
2021-10-14 16:20:09.381447,-16
2021-10-14 16:20:09.381457,-40
2021-10-14 16:20:09.381466,-38
2021-10-14 16:20:09.381474,-21
2021-10-14 16:20:09.381483,-31
2021-10-14 16:20:09.381491,-36
2021-10-14 16:20:09.381499,-24
2021-10-14 16:20:09.381508,-24
2021-10-14 16:20:09.381516,-28
2021-10-14 16:20:09.381525,-40
2021-10-14 16:20:09.381533,-60
2021-10-14 16:20:09.381542,-57
2021-10-14 16:20:09.381550,-48
2021-10-14 16:20:09.381558,-40
2021-10-14 16:20:09.381567,-31
2021-10-14 16:20:09.381575,-21
2021-10-14 16:20:09.381583,-31
2021-10-14 16:20:09.381591,-33
2021-10-14 16:20:09.381600,-21
2021-10-14 16:20:09.381608,-14
2021-10-14 16:20:09.381617,-9
2021-10-14 16:20:09.381625,-24
2021-10-14 16:20:09.381633,-62
2021-10-14 16:20:09.381642,-67
2021-10-14 16:20:09.381650,-24
2021-10-14 16:20:09.381658,4
2021-10-14 16:20:09.381667,-9
2021-10-14 16:20:09.381675,-28
2021-10-14 16:20:09.381683,-14
2021-10-14 16:20:09.607421,19
2021-10-14 16:20:09.607441,26
2021-10-14 16:20:09.607451,-2
2021-10-14 16:20:09.607459,-31
2021-10-14 16:20:09.607468,-48
2021-10-14 16:20:09.607476,-48
2021-10-14 16:20:09.607485,-38
2021-10-14 16:20:09.607493,-45
2021-10-14 16:20:09.607501,-50
2021-10-14 16:20:09.607510,-52
2021-10-14 16:20:09.607518,-40
2021-10-14 16:20:09.607526,-19
2021-10-14 16:20:09.607534,-26
2021-10-14 16:20:09.607543,-43
2021-10-14 16:20:09.607551,-16
2021-10-14 16:20:09.607560,72
2021-10-14 16:20:09.607568,351
2021-10-14 16:20:09.607576,731
2021-10-14 16:20:09.607585,591
2021-10-14 16:20:09.607593,-387
2021-10-14 16:20:09.607601,-1202
2021-10-14 16:20:09.607609,-930
2021-10-14 16:20:09.607617,-358
2021-10-14 16:20:09.607626,-185
2021-10-14 16:20:09.607634,-69
2021-10-14 16:20:09.607642,57
2021-10-14 16:20:09.607651,50
2021-10-14 16:20:09.607659,45
2021-10-14 16:20:09.607667,101
2021-10-14 16:20:09.607676,108
2021-10-14 16:20:09.877390,72
2021-10-14 16:20:09.877410,74
2021-10-14 16:20:09.877419,105
2021-10-14 16:20:09.877428,98
2021-10-14 16:20:09.877436,93
2021-10-14 16:20:09.877445,113
2021-10-14 16:20:09.877453,120
2021-10-14 16:20:09.877461,125
2021-10-14 16:20:09.877470,132
2021-10-14 16:20:09.877478,125
2021-10-14 16:20:09.877487,127
2021-10-14 16:20:09.877495,149
2021-10-14 16:20:09.877503,158
2021-10-14 16:20:09.877512,168
2021-10-14 16:20:09.877520,189
2021-10-14 16:20:09.877528,197
2021-10-14 16:20:09.877536,189
2021-10-14 16:20:09.877544,204
2021-10-14 16:20:09.877552,192
2021-10-14 16:20:09.877561,122
2021-10-14 16:20:09.877569,72
2021-10-14 16:20:09.877577,62
2021-10-14 16:20:09.877585,40
2021-10-14 16:20:09.877594,2
2021-10-14 16:20:09.877602,-38
2021-10-14 16:20:09.877610,-72
2021-10-14 16:20:09.877619,-101
2021-10-14 16:20:09.877627,-132
2021-10-14 16:20:09.877635,-139
2021-10-14 16:20:09.877643,-139
2021-10-14 16:20:10.102102,-153
2021-10-14 16:20:10.102120,-161
2021-10-14 16:20:10.102130,-149
2021-10-14 16:20:10.102138,-132
2021-10-14 16:20:10.102147,-141
2021-10-14 16:20:10.102156,-168
2021-10-14 16:20:10.102164,-165
2021-10-14 16:20:10.102172,-139
2021-10-14 16:20:10.102181,-132
2021-10-14 16:20:10.102332,-144
2021-10-14 16:20:10.102343,-151
2021-10-14 16:20:10.102351,-141
2021-10-14 16:20:10.102360,-125
2021-10-14 16:20:10.102368,-115
2021-10-14 16:20:10.102376,-120
2021-10-14 16:20:10.102385,-122
2021-10-14 16:20:10.102393,-110
2021-10-14 16:20:10.102402,-120
2021-10-14 16:20:10.102410,-134
2021-10-14 16:20:10.102419,-122
2021-10-14 16:20:10.102427,-134
2021-10-14 16:20:10.102436,-161
2021-10-14 16:20:10.102444,-141
2021-10-14 16:20:10.102452,-108
2021-10-14 16:20:10.102461,-117
2021-10-14 16:20:10.102469,-146
2021-10-14 16:20:10.102478,-153
2021-10-14 16:20:10.102486,-141
2021-10-14 16:20:10.102495,-127
2021-10-14 16:20:10.102503,-132
2021-10-14 16:20:10.237377,-151
2021-10-14 16:20:10.237396,-149
2021-10-14 16:20:10.237406,-113
2021-10-14 16:20:10.237415,-98
2021-10-14 16:20:10.237423,-113
2021-10-14 16:20:10.237431,-120
2021-10-14 16:20:10.237440,-122
2021-10-14 16:20:10.237448,-115
2021-10-14 16:20:10.237456,-96
2021-10-14 16:20:10.237465,-98
2021-10-14 16:20:10.237473,-120
2021-10-14 16:20:10.237481,-122
2021-10-14 16:20:10.237490,-115
2021-10-14 16:20:10.237498,-141
2021-10-14 16:20:10.237506,-165
2021-10-14 16:20:10.237514,-127
2021-10-14 16:20:10.237523,-115
2021-10-14 16:20:10.237531,-132
2021-10-14 16:20:10.237539,-81
2021-10-14 16:20:10.237548,-38
2021-10-14 16:20:10.237556,-52
2021-10-14 16:20:10.237564,-55
2021-10-14 16:20:10.237572,-62
2021-10-14 16:20:10.237580,-93
2021-10-14 16:20:10.237589,-105
2021-10-14 16:20:10.237597,-98
2021-10-14 16:20:10.237605,-101
2021-10-14 16:20:10.237614,-103
2021-10-14 16:20:10.237622,-110
2021-10-14 16:20:10.237630,-129
2021-10-14 16:20:10.507862,-117
2021-10-14 16:20:10.507882,-67
2021-10-14 16:20:10.507891,-62
2021-10-14 16:20:10.507900,-79
2021-10-14 16:20:10.507908,-40
2021-10-14 16:20:10.507916,84
2021-10-14 16:20:10.507924,382
2021-10-14 16:20:10.507933,731
2021-10-14 16:20:10.507941,476
2021-10-14 16:20:10.507949,-622
2021-10-14 16:20:10.507957,-1387
2021-10-14 16:20:10.507966,-937
2021-10-14 16:20:10.507975,-283
2021-10-14 16:20:10.507983,-158
2021-10-14 16:20:10.507991,-64
2021-10-14 16:20:10.507999,67
2021-10-14 16:20:10.508008,26
2021-10-14 16:20:10.508016,9
2021-10-14 16:20:10.508024,67
2021-10-14 16:20:10.508032,62
2021-10-14 16:20:10.508039,38
2021-10-14 16:20:10.508046,62
2021-10-14 16:20:10.508053,76
2021-10-14 16:20:10.508061,64
2021-10-14 16:20:10.508069,72
2021-10-14 16:20:10.508078,81
2021-10-14 16:20:10.508086,84
2021-10-14 16:20:10.508094,113
2021-10-14 16:20:10.508102,151
2021-10-14 16:20:10.508110,161
2021-10-14 16:20:10.687754,156
2021-10-14 16:20:10.687773,165
2021-10-14 16:20:10.687782,182
2021-10-14 16:20:10.687791,175
2021-10-14 16:20:10.687799,170
2021-10-14 16:20:10.687807,185
2021-10-14 16:20:10.687816,182
2021-10-14 16:20:10.687824,158
2021-10-14 16:20:10.687832,163
2021-10-14 16:20:10.687841,177
2021-10-14 16:20:10.687849,146
2021-10-14 16:20:10.687858,84
2021-10-14 16:20:10.687866,55
2021-10-14 16:20:10.687874,28
2021-10-14 16:20:10.687882,-24
2021-10-14 16:20:10.687891,-72
2021-10-14 16:20:10.687899,-103
2021-10-14 16:20:10.687907,-129
2021-10-14 16:20:10.687915,-156
2021-10-14 16:20:10.687923,-156
2021-10-14 16:20:10.687931,-122
2021-10-14 16:20:10.687940,-134
2021-10-14 16:20:10.687948,-175
2021-10-14 16:20:10.687956,-161
2021-10-14 16:20:10.687964,-134
2021-10-14 16:20:10.687972,-129
2021-10-14 16:20:10.687981,-120
2021-10-14 16:20:10.687989,-125
2021-10-14 16:20:10.687997,-153
2021-10-14 16:20:10.688006,-141
2021-10-14 16:20:11.092194,-101
2021-10-14 16:20:11.092214,-101
2021-10-14 16:20:11.092223,-132
2021-10-14 16:20:11.092232,-122
2021-10-14 16:20:11.092240,-96
2021-10-14 16:20:11.092248,-91
2021-10-14 16:20:11.092256,-98
2021-10-14 16:20:11.092265,-93
2021-10-14 16:20:11.092273,-91
2021-10-14 16:20:11.092281,-105
2021-10-14 16:20:11.092290,-110
2021-10-14 16:20:11.092298,-88
2021-10-14 16:20:11.092307,-91
2021-10-14 16:20:11.092315,-122
2021-10-14 16:20:11.092323,-110
2021-10-14 16:20:11.092331,-76
2021-10-14 16:20:11.092339,-98
2021-10-14 16:20:11.092348,-127
2021-10-14 16:20:11.092356,-113
2021-10-14 16:20:11.092364,-96
2021-10-14 16:20:11.092373,-101
2021-10-14 16:20:11.092395,-113
2021-10-14 16:20:11.092404,-105
2021-10-14 16:20:11.092412,-76
2021-10-14 16:20:11.092420,-40
2021-10-14 16:20:11.092429,-40
2021-10-14 16:20:11.092437,-60
2021-10-14 16:20:11.092445,-45
2021-10-14 16:20:11.092454,-45
2021-10-14 16:20:11.092462,-81
2021-10-14 16:20:11.182721,-81
2021-10-14 16:20:11.182740,-57
2021-10-14 16:20:11.182749,-64
2021-10-14 16:20:11.182758,-64
2021-10-14 16:20:11.182766,-33
2021-10-14 16:20:11.182774,-26
2021-10-14 16:20:11.182783,-36
2021-10-14 16:20:11.182791,-33
2021-10-14 16:20:11.182799,-57
2021-10-14 16:20:11.182808,-86
2021-10-14 16:20:11.182816,-52
2021-10-14 16:20:11.182824,-33
2021-10-14 16:20:11.182833,-79
2021-10-14 16:20:11.182841,-93
2021-10-14 16:20:11.182849,-64
2021-10-14 16:20:11.182857,-64
2021-10-14 16:20:11.182866,-72
2021-10-14 16:20:11.182874,-76
2021-10-14 16:20:11.182882,-74
2021-10-14 16:20:11.182890,-40
2021-10-14 16:20:11.182898,-14
2021-10-14 16:20:11.182907,50
2021-10-14 16:20:11.182915,346
2021-10-14 16:20:11.182923,738
2021-10-14 16:20:11.182932,538
2021-10-14 16:20:11.182940,-526
2021-10-14 16:20:11.182948,-1341
2021-10-14 16:20:11.182956,-933
2021-10-14 16:20:11.182965,-250
2021-10-14 16:20:11.182973,-129
2021-10-14 16:20:11.496070,-86
2021-10-14 16:20:11.496090,45
2021-10-14 16:20:11.496100,26
2021-10-14 16:20:11.496108,-4
2021-10-14 16:20:11.496117,64
2021-10-14 16:20:11.496125,84
2021-10-14 16:20:11.496134,48
2021-10-14 16:20:11.496142,62
2021-10-14 16:20:11.496150,88
2021-10-14 16:20:11.496159,81
2021-10-14 16:20:11.496167,74
2021-10-14 16:20:11.496176,84
2021-10-14 16:20:11.496184,88
2021-10-14 16:20:11.496192,86
2021-10-14 16:20:11.496201,96
2021-10-14 16:20:11.496209,120
2021-10-14 16:20:11.496217,139
2021-10-14 16:20:11.496225,129
2021-10-14 16:20:11.496234,125
2021-10-14 16:20:11.496242,161
2021-10-14 16:20:11.496250,180
2021-10-14 16:20:11.496258,151
2021-10-14 16:20:11.496266,151
2021-10-14 16:20:11.496275,173
2021-10-14 16:20:11.496283,146
2021-10-14 16:20:11.496291,113
2021-10-14 16:20:11.496300,105
2021-10-14 16:20:11.496308,72
2021-10-14 16:20:11.496316,31
2021-10-14 16:20:11.496324,24
2021-10-14 16:20:11.632446,-26
2021-10-14 16:20:11.632468,-105
2021-10-14 16:20:11.632478,-117
2021-10-14 16:20:11.632486,-101
2021-10-14 16:20:11.632495,-120
2021-10-14 16:20:11.632503,-144
2021-10-14 16:20:11.632511,-151
2021-10-14 16:20:11.632519,-151
2021-10-14 16:20:11.632527,-146
2021-10-14 16:20:11.632536,-144
2021-10-14 16:20:11.632544,-134
2021-10-14 16:20:11.632552,-113
2021-10-14 16:20:11.632560,-122
2021-10-14 16:20:11.632569,-158
2021-10-14 16:20:11.632577,-149
2021-10-14 16:20:11.632585,-115
2021-10-14 16:20:11.632594,-110
2021-10-14 16:20:11.632602,-105
2021-10-14 16:20:11.632610,-98
2021-10-14 16:20:11.632618,-110
2021-10-14 16:20:11.632627,-98
2021-10-14 16:20:11.632635,-60
2021-10-14 16:20:11.632643,-55
2021-10-14 16:20:11.632651,-86
2021-10-14 16:20:11.632659,-101
2021-10-14 16:20:11.632668,-93
2021-10-14 16:20:11.632676,-101
2021-10-14 16:20:11.632684,-115
2021-10-14 16:20:11.632692,-105
2021-10-14 16:20:11.632700,-91
2021-10-14 16:20:11.857837,-91
2021-10-14 16:20:11.857858,-84
2021-10-14 16:20:11.857867,-74
2021-10-14 16:20:11.857876,-93
2021-10-14 16:20:11.857884,-117
2021-10-14 16:20:11.857892,-113
2021-10-14 16:20:11.857901,-105
2021-10-14 16:20:11.857909,-117
2021-10-14 16:20:11.857917,-122
2021-10-14 16:20:11.857926,-103
2021-10-14 16:20:11.857934,-74
2021-10-14 16:20:11.857942,-67
2021-10-14 16:20:11.857951,-88
2021-10-14 16:20:11.857959,-88
2021-10-14 16:20:11.857967,-69
2021-10-14 16:20:11.857975,-84
2021-10-14 16:20:11.857984,-101
2021-10-14 16:20:11.857992,-101
2021-10-14 16:20:11.858000,-91
2021-10-14 16:20:11.858008,-67
2021-10-14 16:20:11.858017,-60
2021-10-14 16:20:11.858025,-55
2021-10-14 16:20:11.858041,-21
2021-10-14 16:20:11.858050,-21
2021-10-14 16:20:11.858058,-50
2021-10-14 16:20:11.858066,-62
2021-10-14 16:20:11.858073,-93
2021-10-14 16:20:11.858082,-93
2021-10-14 16:20:11.858090,-50
2021-10-14 16:20:11.858097,-52
2021-10-14 16:20:12.082848,-86
2021-10-14 16:20:12.082870,-86
2021-10-14 16:20:12.082879,-52
2021-10-14 16:20:12.082888,-36
2021-10-14 16:20:12.082896,-50
2021-10-14 16:20:12.082904,-57
2021-10-14 16:20:12.082913,-24
2021-10-14 16:20:12.082921,91
2021-10-14 16:20:12.082929,384
2021-10-14 16:20:12.082937,726
2021-10-14 16:20:12.082946,502
2021-10-14 16:20:12.082954,-536
2021-10-14 16:20:12.082962,-1269
2021-10-14 16:20:12.082971,-851
2021-10-14 16:20:12.082979,-228
2021-10-14 16:20:12.082987,-101
2021-10-14 16:20:12.082995,-26
2021-10-14 16:20:12.083003,98
2021-10-14 16:20:12.083012,79
2021-10-14 16:20:12.083020,43
2021-10-14 16:20:12.083028,79
2021-10-14 16:20:12.083036,91
2021-10-14 16:20:12.083045,67
2021-10-14 16:20:12.083053,67
2021-10-14 16:20:12.083061,108
2021-10-14 16:20:12.083069,134
2021-10-14 16:20:12.083078,122
2021-10-14 16:20:12.083086,117
2021-10-14 16:20:12.083094,137
2021-10-14 16:20:12.083102,137
2021-10-14 16:20:12.307859,127
2021-10-14 16:20:12.307879,144
2021-10-14 16:20:12.307888,168
2021-10-14 16:20:12.307897,185
2021-10-14 16:20:12.307906,192
2021-10-14 16:20:12.307914,180
2021-10-14 16:20:12.307922,177
2021-10-14 16:20:12.307930,192
2021-10-14 16:20:12.307939,204
2021-10-14 16:20:12.307947,192
2021-10-14 16:20:12.307955,173
2021-10-14 16:20:12.307963,146
2021-10-14 16:20:12.307972,103
2021-10-14 16:20:12.307980,74
2021-10-14 16:20:12.307988,69
2021-10-14 16:20:12.307997,26
2021-10-14 16:20:12.308005,-33
2021-10-14 16:20:12.308013,-45
2021-10-14 16:20:12.308021,-45
2021-10-14 16:20:12.308030,-67
2021-10-14 16:20:12.308038,-84
2021-10-14 16:20:12.308046,-86
2021-10-14 16:20:12.308055,-86
2021-10-14 16:20:12.308063,-91
2021-10-14 16:20:12.308071,-101
2021-10-14 16:20:12.308079,-108
2021-10-14 16:20:12.308087,-105
2021-10-14 16:20:12.308096,-101
2021-10-14 16:20:12.308104,-103
2021-10-14 16:20:12.308112,-74
2021-10-14 16:20:12.532488,-38
2021-10-14 16:20:12.532509,-48
2021-10-14 16:20:12.532518,-60
2021-10-14 16:20:12.532527,-40
2021-10-14 16:20:12.532535,-48
2021-10-14 16:20:12.532544,-60
2021-10-14 16:20:12.532552,-40
2021-10-14 16:20:12.532561,-33
2021-10-14 16:20:12.532569,-43
2021-10-14 16:20:12.532577,-52
2021-10-14 16:20:12.532586,-64
2021-10-14 16:20:12.532594,-50
2021-10-14 16:20:12.532602,-14
2021-10-14 16:20:12.532611,-9
2021-10-14 16:20:12.532619,-38
2021-10-14 16:20:12.532628,-55
2021-10-14 16:20:12.532636,-48
2021-10-14 16:20:12.532644,-52
2021-10-14 16:20:12.532653,-64
2021-10-14 16:20:12.532661,-52
2021-10-14 16:20:12.532669,-57
2021-10-14 16:20:12.532678,-79
2021-10-14 16:20:12.532686,-60
2021-10-14 16:20:12.532694,-24
2021-10-14 16:20:12.532703,-26
2021-10-14 16:20:12.532711,-36
2021-10-14 16:20:12.532719,-40
2021-10-14 16:20:12.532728,-50
2021-10-14 16:20:12.532736,-52
2021-10-14 16:20:12.532744,-48
2021-10-14 16:20:12.892487,-28
2021-10-14 16:20:12.892508,-12
2021-10-14 16:20:12.892518,-14
2021-10-14 16:20:12.892527,-16
2021-10-14 16:20:12.892535,-12
2021-10-14 16:20:12.892544,-9
2021-10-14 16:20:12.892552,-21
2021-10-14 16:20:12.892560,-43
2021-10-14 16:20:12.892569,-38
2021-10-14 16:20:12.892577,-36
2021-10-14 16:20:12.892586,-55
2021-10-14 16:20:12.892594,-48
2021-10-14 16:20:12.892602,-19
2021-10-14 16:20:12.892611,-31
2021-10-14 16:20:12.892619,-50
2021-10-14 16:20:12.892627,-36
2021-10-14 16:20:12.892636,-19
2021-10-14 16:20:12.892644,-9
2021-10-14 16:20:12.892652,57
2021-10-14 16:20:12.892661,307
2021-10-14 16:20:12.892669,682
2021-10-14 16:20:12.892678,661
2021-10-14 16:20:12.892686,-206
2021-10-14 16:20:12.892694,-1106
2021-10-14 16:20:12.892702,-947
2021-10-14 16:20:12.892710,-360
2021-10-14 16:20:12.892719,-180
2021-10-14 16:20:12.892727,-69
2021-10-14 16:20:12.892735,108
2021-10-14 16:20:12.892744,117
2021-10-14 16:20:13.027398,88
2021-10-14 16:20:13.027418,134
2021-10-14 16:20:13.027427,125
2021-10-14 16:20:13.027436,101
2021-10-14 16:20:13.027444,146
2021-10-14 16:20:13.027452,163
2021-10-14 16:20:13.027460,144
2021-10-14 16:20:13.027469,170
2021-10-14 16:20:13.027477,187
2021-10-14 16:20:13.027485,168
2021-10-14 16:20:13.027493,177
2021-10-14 16:20:13.027501,194
2021-10-14 16:20:13.027509,194
2021-10-14 16:20:13.027518,199
2021-10-14 16:20:13.027526,214
2021-10-14 16:20:13.027534,240
2021-10-14 16:20:13.027542,283
2021-10-14 16:20:13.027551,322
2021-10-14 16:20:13.027559,315
2021-10-14 16:20:13.027567,276
2021-10-14 16:20:13.027575,259
2021-10-14 16:20:13.027584,259
2021-10-14 16:20:13.027592,247
2021-10-14 16:20:13.027600,189
2021-10-14 16:20:13.027608,125
2021-10-14 16:20:13.027617,105
2021-10-14 16:20:13.027625,86
2021-10-14 16:20:13.027633,48
2021-10-14 16:20:13.027642,31
2021-10-14 16:20:13.027650,-2
2021-10-14 16:20:13.252778,-57
2021-10-14 16:20:13.252797,-76
2021-10-14 16:20:13.252807,-81
2021-10-14 16:20:13.252816,-110
2021-10-14 16:20:13.252824,-113
2021-10-14 16:20:13.252832,-93
2021-10-14 16:20:13.252841,-98
2021-10-14 16:20:13.252849,-98
2021-10-14 16:20:13.252857,-81
2021-10-14 16:20:13.252866,-60
2021-10-14 16:20:13.252874,-48
2021-10-14 16:20:13.252882,-52
2021-10-14 16:20:13.252891,-64
2021-10-14 16:20:13.252899,-52
2021-10-14 16:20:13.252907,-43
2021-10-14 16:20:13.252915,-62
2021-10-14 16:20:13.252923,-79
2021-10-14 16:20:13.252932,-48
2021-10-14 16:20:13.252940,-9
2021-10-14 16:20:13.252948,-26
2021-10-14 16:20:13.252957,-38
2021-10-14 16:20:13.252965,-36
2021-10-14 16:20:13.252973,-55
2021-10-14 16:20:13.252981,-48
2021-10-14 16:20:13.252990,-21
2021-10-14 16:20:13.252998,-33
2021-10-14 16:20:13.253006,-45
2021-10-14 16:20:13.253014,-31
2021-10-14 16:20:13.253022,-19
2021-10-14 16:20:13.253031,-12
2021-10-14 16:20:13.521114,-21
2021-10-14 16:20:13.521140,-40
2021-10-14 16:20:13.521149,-55
2021-10-14 16:20:13.521158,-60
2021-10-14 16:20:13.521166,-50
2021-10-14 16:20:13.521175,-28
2021-10-14 16:20:13.521183,-40
2021-10-14 16:20:13.521191,-55
2021-10-14 16:20:13.521199,-14
2021-10-14 16:20:13.521208,2
2021-10-14 16:20:13.521216,-26
2021-10-14 16:20:13.521224,-21
2021-10-14 16:20:13.521233,-31
2021-10-14 16:20:13.521241,-81
2021-10-14 16:20:13.521249,-110
2021-10-14 16:20:13.521258,-91
2021-10-14 16:20:13.521266,-74
2021-10-14 16:20:13.521274,-74
2021-10-14 16:20:13.521283,-62
2021-10-14 16:20:13.521291,-45
2021-10-14 16:20:13.521299,-48
2021-10-14 16:20:13.521307,-48
2021-10-14 16:20:13.521316,-28
2021-10-14 16:20:13.521324,-16
2021-10-14 16:20:13.521332,2
2021-10-14 16:20:13.521341,199
2021-10-14 16:20:13.521349,627
2021-10-14 16:20:13.521357,776
2021-10-14 16:20:13.521366,12
2021-10-14 16:20:13.521374,-1046
2021-10-14 16:20:13.747499,-1108
2021-10-14 16:20:13.747518,-466
2021-10-14 16:20:13.747527,-177
2021-10-14 16:20:13.747536,-115
2021-10-14 16:20:13.747544,45
2021-10-14 16:20:13.747553,88
2021-10-14 16:20:13.747561,24
2021-10-14 16:20:13.747569,31
2021-10-14 16:20:13.747577,67
2021-10-14 16:20:13.747586,86
2021-10-14 16:20:13.747594,108
2021-10-14 16:20:13.747602,86
2021-10-14 16:20:13.747610,57
2021-10-14 16:20:13.747619,108
2021-10-14 16:20:13.747627,151
2021-10-14 16:20:13.747635,113
2021-10-14 16:20:13.747644,91
2021-10-14 16:20:13.747652,127
2021-10-14 16:20:13.747660,153
2021-10-14 16:20:13.747669,149
2021-10-14 16:20:13.747677,153
2021-10-14 16:20:13.747685,187
2021-10-14 16:20:13.747694,221
2021-10-14 16:20:13.747702,226
2021-10-14 16:20:13.747710,202
2021-10-14 16:20:13.747718,202
2021-10-14 16:20:13.747727,221
2021-10-14 16:20:13.747735,206
2021-10-14 16:20:13.747744,175
2021-10-14 16:20:13.747752,146
2021-10-14 16:20:13.927816,113
2021-10-14 16:20:13.927835,74
2021-10-14 16:20:13.927845,33
2021-10-14 16:20:13.927853,0
2021-10-14 16:20:13.927862,-26
2021-10-14 16:20:13.927870,-67
2021-10-14 16:20:13.927878,-110
2021-10-14 16:20:13.927887,-117
2021-10-14 16:20:13.927895,-117
2021-10-14 16:20:13.927903,-122
2021-10-14 16:20:13.927912,-108
2021-10-14 16:20:13.927920,-115
2021-10-14 16:20:13.927928,-146
2021-10-14 16:20:13.927937,-134
2021-10-14 16:20:13.927945,-110
2021-10-14 16:20:13.927953,-120
2021-10-14 16:20:13.927961,-115
2021-10-14 16:20:13.927969,-101
2021-10-14 16:20:13.927978,-105
2021-10-14 16:20:13.927986,-103
2021-10-14 16:20:13.927994,-88
2021-10-14 16:20:13.928003,-76
2021-10-14 16:20:13.928011,-69
2021-10-14 16:20:13.928019,-67
2021-10-14 16:20:13.928028,-62
2021-10-14 16:20:13.928036,-50
2021-10-14 16:20:13.928044,-28
2021-10-14 16:20:13.928052,-21
2021-10-14 16:20:13.928061,-48
2021-10-14 16:20:13.928069,-67
2021-10-14 16:20:14.197504,-52
2021-10-14 16:20:14.197526,-55
2021-10-14 16:20:14.197535,-67
2021-10-14 16:20:14.197544,-48
2021-10-14 16:20:14.197552,-28
2021-10-14 16:20:14.197560,-62
2021-10-14 16:20:14.197568,-91
2021-10-14 16:20:14.197576,-60
2021-10-14 16:20:14.197584,-33
2021-10-14 16:20:14.197592,-62
2021-10-14 16:20:14.197599,-88
2021-10-14 16:20:14.197607,-79
2021-10-14 16:20:14.197615,-74
2021-10-14 16:20:14.197623,-64
2021-10-14 16:20:14.197630,-43
2021-10-14 16:20:14.197637,-38
2021-10-14 16:20:14.197644,-24
2021-10-14 16:20:14.197652,-12
2021-10-14 16:20:14.197660,-33
2021-10-14 16:20:14.197667,-57
2021-10-14 16:20:14.197674,-62
2021-10-14 16:20:14.197682,-79
2021-10-14 16:20:14.197690,-108
2021-10-14 16:20:14.197699,-88
2021-10-14 16:20:14.197707,-45
2021-10-14 16:20:14.197715,-40
2021-10-14 16:20:14.197724,-64
2021-10-14 16:20:14.197732,-67
2021-10-14 16:20:14.197740,-50
2021-10-14 16:20:14.197749,-50
2021-10-14 16:20:14.377808,-48
2021-10-14 16:20:14.377826,69
2021-10-14 16:20:14.377836,425
2021-10-14 16:20:14.377844,757
2021-10-14 16:20:14.377853,358
2021-10-14 16:20:14.377861,-743
2021-10-14 16:20:14.377869,-1274
2021-10-14 16:20:14.377878,-750
2021-10-14 16:20:14.377886,-247
2021-10-14 16:20:14.377894,-177
2021-10-14 16:20:14.377902,-72
2021-10-14 16:20:14.377911,31
2021-10-14 16:20:14.377919,4
2021-10-14 16:20:14.377927,2
2021-10-14 16:20:14.377935,36
2021-10-14 16:20:14.377944,36
2021-10-14 16:20:14.377952,38
2021-10-14 16:20:14.377960,57
2021-10-14 16:20:14.377969,74
2021-10-14 16:20:14.377977,76
2021-10-14 16:20:14.377985,76
2021-10-14 16:20:14.377993,81
2021-10-14 16:20:14.378002,81
2021-10-14 16:20:14.378010,88
2021-10-14 16:20:14.378018,120
2021-10-14 16:20:14.378027,144
2021-10-14 16:20:14.378035,137
2021-10-14 16:20:14.378043,137
2021-10-14 16:20:14.378052,177
2021-10-14 16:20:14.378060,194
2021-10-14 16:20:14.692496,187
2021-10-14 16:20:14.692517,226
2021-10-14 16:20:14.692526,245
2021-10-14 16:20:14.692535,182
2021-10-14 16:20:14.692544,149
2021-10-14 16:20:14.692552,158
2021-10-14 16:20:14.692561,134
2021-10-14 16:20:14.692569,81
2021-10-14 16:20:14.692577,28
2021-10-14 16:20:14.692586,-26
2021-10-14 16:20:14.692594,-48
2021-10-14 16:20:14.692602,-60
2021-10-14 16:20:14.692611,-101
2021-10-14 16:20:14.692619,-129
2021-10-14 16:20:14.692628,-134
2021-10-14 16:20:14.692636,-144
2021-10-14 16:20:14.692644,-144
2021-10-14 16:20:14.692653,-132
2021-10-14 16:20:14.692661,-139
2021-10-14 16:20:14.692669,-125
2021-10-14 16:20:14.692678,-105
2021-10-14 16:20:14.692686,-134
2021-10-14 16:20:14.692695,-137
2021-10-14 16:20:14.692703,-96
2021-10-14 16:20:14.692711,-91
2021-10-14 16:20:14.692720,-108
2021-10-14 16:20:14.692728,-93
2021-10-14 16:20:14.692737,-60
2021-10-14 16:20:14.692745,-52
2021-10-14 16:20:14.692753,-55
2021-10-14 16:20:14.872780,-31
2021-10-14 16:20:14.872798,-40
2021-10-14 16:20:14.872807,-69
2021-10-14 16:20:14.872816,-43
2021-10-14 16:20:14.872824,-24
2021-10-14 16:20:14.872833,-45
2021-10-14 16:20:14.872841,-48
2021-10-14 16:20:14.872849,-45
2021-10-14 16:20:14.872858,-62
2021-10-14 16:20:14.872866,-67
2021-10-14 16:20:14.872874,-52
2021-10-14 16:20:14.872882,-60
2021-10-14 16:20:14.872890,-67
2021-10-14 16:20:14.872899,-48
2021-10-14 16:20:14.872907,-43
2021-10-14 16:20:14.872915,-64
2021-10-14 16:20:14.872923,-67
2021-10-14 16:20:14.872931,-48
2021-10-14 16:20:14.872940,-48
2021-10-14 16:20:14.872948,-60
2021-10-14 16:20:14.872956,-52
2021-10-14 16:20:14.872964,-38
2021-10-14 16:20:14.872973,-40
2021-10-14 16:20:14.872993,-52
2021-10-14 16:20:14.873001,-40
2021-10-14 16:20:14.873009,-12
2021-10-14 16:20:14.873017,-12
2021-10-14 16:20:14.873026,-16
2021-10-14 16:20:14.873034,-4
2021-10-14 16:20:14.873042,-26
2021-10-14 16:20:15.097793,-52
2021-10-14 16:20:15.097812,-50
2021-10-14 16:20:15.097821,-43
2021-10-14 16:20:15.097830,-48
2021-10-14 16:20:15.097838,-50
2021-10-14 16:20:15.097847,-43
2021-10-14 16:20:15.097855,-26
2021-10-14 16:20:15.097864,-33
2021-10-14 16:20:15.097872,-52
2021-10-14 16:20:15.097880,-36
2021-10-14 16:20:15.097889,-7
2021-10-14 16:20:15.097897,67
2021-10-14 16:20:15.097906,358
2021-10-14 16:20:15.097914,759
2021-10-14 16:20:15.097923,625
2021-10-14 16:20:15.097931,-377
2021-10-14 16:20:15.097939,-1233
2021-10-14 16:20:15.097948,-964
2021-10-14 16:20:15.097956,-370
2021-10-14 16:20:15.097964,-221
2021-10-14 16:20:15.097973,-132
2021-10-14 16:20:15.097981,14
2021-10-14 16:20:15.097989,28
2021-10-14 16:20:15.097997,16
2021-10-14 16:20:15.098006,40
2021-10-14 16:20:15.098014,60
2021-10-14 16:20:15.098022,81
2021-10-14 16:20:15.098031,86
2021-10-14 16:20:15.098039,72
2021-10-14 16:20:15.098047,81
2021-10-14 16:20:15.322461,98
2021-10-14 16:20:15.322480,88
2021-10-14 16:20:15.322490,74
2021-10-14 16:20:15.322498,88
2021-10-14 16:20:15.322507,129
2021-10-14 16:20:15.322515,158
2021-10-14 16:20:15.322524,170
2021-10-14 16:20:15.322532,180
2021-10-14 16:20:15.322540,189
2021-10-14 16:20:15.322549,209
2021-10-14 16:20:15.322557,214
2021-10-14 16:20:15.322565,211
2021-10-14 16:20:15.322574,221
2021-10-14 16:20:15.322582,202
2021-10-14 16:20:15.322590,158
2021-10-14 16:20:15.322598,137
2021-10-14 16:20:15.322607,125
2021-10-14 16:20:15.322615,115
2021-10-14 16:20:15.322623,79
2021-10-14 16:20:15.322632,14
2021-10-14 16:20:15.322640,-28
2021-10-14 16:20:15.322649,-67
2021-10-14 16:20:15.322657,-108
2021-10-14 16:20:15.322665,-117
2021-10-14 16:20:15.322673,-127
2021-10-14 16:20:15.322682,-137
2021-10-14 16:20:15.322690,-129
2021-10-14 16:20:15.322698,-139
2021-10-14 16:20:15.322706,-137
2021-10-14 16:20:15.322715,-120
2021-10-14 16:20:15.681523,-113
2021-10-14 16:20:15.681542,-125
2021-10-14 16:20:15.681551,-129
2021-10-14 16:20:15.681560,-93
2021-10-14 16:20:15.681568,-69
2021-10-14 16:20:15.681577,-98
2021-10-14 16:20:15.681585,-113
2021-10-14 16:20:15.681593,-93
2021-10-14 16:20:15.681602,-74
2021-10-14 16:20:15.681610,-64
2021-10-14 16:20:15.681618,-48
2021-10-14 16:20:15.681626,-52
2021-10-14 16:20:15.681635,-62
2021-10-14 16:20:15.681643,-40
2021-10-14 16:20:15.681651,-33
2021-10-14 16:20:15.681659,-57
2021-10-14 16:20:15.681668,-67
2021-10-14 16:20:15.681676,-64
2021-10-14 16:20:15.681684,-43
2021-10-14 16:20:15.681693,-14
2021-10-14 16:20:15.681701,-36
2021-10-14 16:20:15.681709,-69
2021-10-14 16:20:15.681717,-50
2021-10-14 16:20:15.681726,-31
2021-10-14 16:20:15.681734,-62
2021-10-14 16:20:15.681742,-81
2021-10-14 16:20:15.681750,-55
2021-10-14 16:20:15.681758,-43
2021-10-14 16:20:15.681767,-55
2021-10-14 16:20:15.681775,-45
2021-10-14 16:20:15.772817,-24
2021-10-14 16:20:15.772835,-31
2021-10-14 16:20:15.772844,-48
2021-10-14 16:20:15.772853,-43
2021-10-14 16:20:15.772861,-28
2021-10-14 16:20:15.772869,-43
2021-10-14 16:20:15.772878,-69
2021-10-14 16:20:15.772886,-36
2021-10-14 16:20:15.772894,-2
2021-10-14 16:20:15.772902,-16
2021-10-14 16:20:15.772911,-4
2021-10-14 16:20:15.772919,9
2021-10-14 16:20:15.772927,-28
2021-10-14 16:20:15.772936,-57
2021-10-14 16:20:15.772944,-50
2021-10-14 16:20:15.772952,-50
2021-10-14 16:20:15.772960,-55
2021-10-14 16:20:15.772969,-60
2021-10-14 16:20:15.772977,-72
2021-10-14 16:20:15.772985,-60
2021-10-14 16:20:15.772994,-28
2021-10-14 16:20:15.773002,-28
2021-10-14 16:20:15.773010,-55
2021-10-14 16:20:15.773019,-52
2021-10-14 16:20:15.773027,-4
2021-10-14 16:20:15.773035,120
2021-10-14 16:20:15.773043,449
2021-10-14 16:20:15.773052,812
2021-10-14 16:20:15.773060,505
2021-10-14 16:20:15.773068,-618
2021-10-14 16:20:15.997464,-1322
2021-10-14 16:20:15.997484,-858
2021-10-14 16:20:15.997493,-269
2021-10-14 16:20:15.997502,-173
2021-10-14 16:20:15.997510,-101
2021-10-14 16:20:15.997518,16
2021-10-14 16:20:15.997527,33
2021-10-14 16:20:15.997535,40
2021-10-14 16:20:15.997544,60
2021-10-14 16:20:15.997552,55
2021-10-14 16:20:15.997560,55
2021-10-14 16:20:15.997569,60
2021-10-14 16:20:15.997577,67
2021-10-14 16:20:15.997585,84
2021-10-14 16:20:15.997594,88
2021-10-14 16:20:15.997602,86
2021-10-14 16:20:15.997611,88
2021-10-14 16:20:15.997619,93
2021-10-14 16:20:15.997627,120
2021-10-14 16:20:15.997635,156
2021-10-14 16:20:15.997644,156
2021-10-14 16:20:15.997652,156
2021-10-14 16:20:15.997660,180
2021-10-14 16:20:15.997668,206
2021-10-14 16:20:15.997677,223
2021-10-14 16:20:15.997685,214
2021-10-14 16:20:15.997693,199
2021-10-14 16:20:15.997702,197
2021-10-14 16:20:15.997710,194
2021-10-14 16:20:15.997718,173
2021-10-14 16:20:16.222846,129
2021-10-14 16:20:16.222865,98
2021-10-14 16:20:16.222875,79
2021-10-14 16:20:16.222883,26
2021-10-14 16:20:16.222892,-43
2021-10-14 16:20:16.222900,-76
2021-10-14 16:20:16.222908,-96
2021-10-14 16:20:16.222917,-132
2021-10-14 16:20:16.222925,-163
2021-10-14 16:20:16.222933,-158
2021-10-14 16:20:16.222942,-139
2021-10-14 16:20:16.222950,-141
2021-10-14 16:20:16.222959,-141
2021-10-14 16:20:16.222967,-113
2021-10-14 16:20:16.222975,-120
2021-10-14 16:20:16.222984,-149
2021-10-14 16:20:16.222992,-132
2021-10-14 16:20:16.223000,-117
2021-10-14 16:20:16.223008,-127
2021-10-14 16:20:16.223016,-110
2021-10-14 16:20:16.223025,-93
2021-10-14 16:20:16.223033,-96
2021-10-14 16:20:16.223041,-101
2021-10-14 16:20:16.223049,-91
2021-10-14 16:20:16.223058,-74
2021-10-14 16:20:16.223066,-69
2021-10-14 16:20:16.223074,-67
2021-10-14 16:20:16.223082,-55
2021-10-14 16:20:16.223090,-52
2021-10-14 16:20:16.223099,-64
2021-10-14 16:20:16.492773,-72
2021-10-14 16:20:16.492792,-60
2021-10-14 16:20:16.492801,-48
2021-10-14 16:20:16.492810,-60
2021-10-14 16:20:16.492818,-81
2021-10-14 16:20:16.492827,-67
2021-10-14 16:20:16.492835,-48
2021-10-14 16:20:16.492843,-52
2021-10-14 16:20:16.492852,-64
2021-10-14 16:20:16.492860,-72
2021-10-14 16:20:16.492868,-86
2021-10-14 16:20:16.492877,-79
2021-10-14 16:20:16.492885,-40
2021-10-14 16:20:16.492893,-24
2021-10-14 16:20:16.492901,-55
2021-10-14 16:20:16.492909,-76
2021-10-14 16:20:16.492918,-52
2021-10-14 16:20:16.492926,-38
2021-10-14 16:20:16.492934,-64
2021-10-14 16:20:16.492943,-67
2021-10-14 16:20:16.492951,-24
2021-10-14 16:20:16.492959,-21
2021-10-14 16:20:16.492968,-43
2021-10-14 16:20:16.492976,-31
2021-10-14 16:20:16.492984,-16
2021-10-14 16:20:16.492992,-24
2021-10-14 16:20:16.493001,-28
2021-10-14 16:20:16.493009,-33
2021-10-14 16:20:16.493017,-40
2021-10-14 16:20:16.493026,-33
2021-10-14 16:20:16.762559,-19
2021-10-14 16:20:16.762579,-4
2021-10-14 16:20:16.762589,-12
2021-10-14 16:20:16.762598,-26
2021-10-14 16:20:16.762606,-24
2021-10-14 16:20:16.762614,-36
2021-10-14 16:20:16.762623,-50
2021-10-14 16:20:16.762631,-48
2021-10-14 16:20:16.762639,-50
2021-10-14 16:20:16.762648,-74
2021-10-14 16:20:16.762656,-91
2021-10-14 16:20:16.762664,-76
2021-10-14 16:20:16.762672,-52
2021-10-14 16:20:16.762681,-57
2021-10-14 16:20:16.762689,-76
2021-10-14 16:20:16.762697,-64
2021-10-14 16:20:16.762706,16
2021-10-14 16:20:16.762714,288
2021-10-14 16:20:16.762722,711
2021-10-14 16:20:16.762730,735
2021-10-14 16:20:16.762739,-122
2021-10-14 16:20:16.762747,-1147
2021-10-14 16:20:16.762755,-1103
2021-10-14 16:20:16.762763,-391
2021-10-14 16:20:16.762772,-134
2021-10-14 16:20:16.762780,-141
2021-10-14 16:20:16.762788,12
2021-10-14 16:20:16.762796,79
2021-10-14 16:20:16.762804,9
2021-10-14 16:20:16.762813,26
2021-10-14 16:20:16.942837,69
2021-10-14 16:20:16.942856,38
2021-10-14 16:20:16.942865,12
2021-10-14 16:20:16.942874,19
2021-10-14 16:20:16.942882,48
2021-10-14 16:20:16.942891,88
2021-10-14 16:20:16.942899,76
2021-10-14 16:20:16.942907,38
2021-10-14 16:20:16.942916,64
2021-10-14 16:20:16.942924,108
2021-10-14 16:20:16.942932,105
2021-10-14 16:20:16.942941,115
2021-10-14 16:20:16.942949,146
2021-10-14 16:20:16.942957,156
2021-10-14 16:20:16.942966,163
2021-10-14 16:20:16.942974,177
2021-10-14 16:20:16.942982,170
2021-10-14 16:20:16.942990,153
2021-10-14 16:20:16.942999,168
2021-10-14 16:20:16.943007,182
2021-10-14 16:20:16.943016,170
2021-10-14 16:20:16.943024,146
2021-10-14 16:20:16.943032,105
2021-10-14 16:20:16.943040,69
2021-10-14 16:20:16.943049,45
2021-10-14 16:20:16.943057,-9
2021-10-14 16:20:16.943065,-60
2021-10-14 16:20:16.943073,-72
2021-10-14 16:20:16.943081,-105
2021-10-14 16:20:16.943090,-141
2021-10-14 16:20:17.167838,-120
2021-10-14 16:20:17.167856,-108
2021-10-14 16:20:17.167865,-132
2021-10-14 16:20:17.167874,-127
2021-10-14 16:20:17.167883,-108
2021-10-14 16:20:17.167891,-103
2021-10-14 16:20:17.167900,-105
2021-10-14 16:20:17.167908,-122
2021-10-14 16:20:17.167917,-134
2021-10-14 16:20:17.167925,-127
2021-10-14 16:20:17.167933,-129
2021-10-14 16:20:17.167942,-132
2021-10-14 16:20:17.167950,-103
2021-10-14 16:20:17.167958,-84
2021-10-14 16:20:17.167967,-86
2021-10-14 16:20:17.167975,-69
2021-10-14 16:20:17.167983,-33
2021-10-14 16:20:17.167992,-33
2021-10-14 16:20:17.168000,-52
2021-10-14 16:20:17.168008,-50
2021-10-14 16:20:17.168016,-38
2021-10-14 16:20:17.168024,-64
2021-10-14 16:20:17.168033,-74
2021-10-14 16:20:17.168041,-33
2021-10-14 16:20:17.168049,-26
2021-10-14 16:20:17.168057,-55
2021-10-14 16:20:17.168065,-38
2021-10-14 16:20:17.168073,-19
2021-10-14 16:20:17.168081,-50
2021-10-14 16:20:17.168090,-43
2021-10-14 16:20:17.392460,0
2021-10-14 16:20:17.392479,-26
2021-10-14 16:20:17.392489,-67
2021-10-14 16:20:17.392498,-57
2021-10-14 16:20:17.392506,-45
2021-10-14 16:20:17.392514,-64
2021-10-14 16:20:17.392522,-79
2021-10-14 16:20:17.392531,-79
2021-10-14 16:20:17.392539,-76
2021-10-14 16:20:17.392547,-62
2021-10-14 16:20:17.392556,-57
2021-10-14 16:20:17.392564,-67
2021-10-14 16:20:17.392572,-72
2021-10-14 16:20:17.392580,-67
2021-10-14 16:20:17.392589,-64
2021-10-14 16:20:17.392597,-81
2021-10-14 16:20:17.392605,-81
2021-10-14 16:20:17.392613,-76
2021-10-14 16:20:17.392622,-93
2021-10-14 16:20:17.392630,-84
2021-10-14 16:20:17.392638,-43
2021-10-14 16:20:17.392647,-48
2021-10-14 16:20:17.392655,-60
2021-10-14 16:20:17.392663,-40
2021-10-14 16:20:17.392672,-45
2021-10-14 16:20:17.392680,-62
2021-10-14 16:20:17.392688,-64
2021-10-14 16:20:17.392696,-76
2021-10-14 16:20:17.392704,-98
2021-10-14 16:20:17.392713,-84
2021-10-14 16:20:17.661206,-50
2021-10-14 16:20:17.661227,-52
2021-10-14 16:20:17.661237,-81
2021-10-14 16:20:17.661245,-84
2021-10-14 16:20:17.661254,-55
2021-10-14 16:20:17.661262,-40
2021-10-14 16:20:17.661271,-40
2021-10-14 16:20:17.661279,36
2021-10-14 16:20:17.661287,324
2021-10-14 16:20:17.661296,735
2021-10-14 16:20:17.661304,673
2021-10-14 16:20:17.661312,-281
2021-10-14 16:20:17.661321,-1224
2021-10-14 16:20:17.661329,-1007
2021-10-14 16:20:17.661337,-312
2021-10-14 16:20:17.661345,-127
2021-10-14 16:20:17.661354,-101
2021-10-14 16:20:17.661362,33
2021-10-14 16:20:17.661370,38
2021-10-14 16:20:17.661379,-4
2021-10-14 16:20:17.661387,64
2021-10-14 16:20:17.661395,105
2021-10-14 16:20:17.661404,60
2021-10-14 16:20:17.661412,55
2021-10-14 16:20:17.661420,101
2021-10-14 16:20:17.661429,101
2021-10-14 16:20:17.661437,74
2021-10-14 16:20:17.661445,79
2021-10-14 16:20:17.661454,88
2021-10-14 16:20:17.661462,88
2021-10-14 16:20:17.886855,134
2021-10-14 16:20:17.886874,185
2021-10-14 16:20:17.886883,156
2021-10-14 16:20:17.886892,134
2021-10-14 16:20:17.886900,187
2021-10-14 16:20:17.886908,202
2021-10-14 16:20:17.886917,177
2021-10-14 16:20:17.886925,204
2021-10-14 16:20:17.886934,223
2021-10-14 16:20:17.886942,189
2021-10-14 16:20:17.886950,165
2021-10-14 16:20:17.886958,165
2021-10-14 16:20:17.886967,141
2021-10-14 16:20:17.886975,105
2021-10-14 16:20:17.886983,88
2021-10-14 16:20:17.886992,50
2021-10-14 16:20:17.887000,-26
2021-10-14 16:20:17.887008,-60
2021-10-14 16:20:17.887017,-45
2021-10-14 16:20:17.887025,-62
2021-10-14 16:20:17.887033,-98
2021-10-14 16:20:17.887041,-115
2021-10-14 16:20:17.887050,-103
2021-10-14 16:20:17.887058,-81
2021-10-14 16:20:17.887066,-79
2021-10-14 16:20:17.887074,-96
2021-10-14 16:20:17.887082,-103
2021-10-14 16:20:17.887090,-93
2021-10-14 16:20:17.887099,-84
2021-10-14 16:20:17.887107,-72
2021-10-14 16:20:18.157860,-50
2021-10-14 16:20:18.157880,-45
2021-10-14 16:20:18.157889,-52
2021-10-14 16:20:18.157897,-43
2021-10-14 16:20:18.157906,-26
2021-10-14 16:20:18.157914,-26
2021-10-14 16:20:18.157923,-24
2021-10-14 16:20:18.157931,-9
2021-10-14 16:20:18.157940,12
2021-10-14 16:20:18.157948,26
2021-10-14 16:20:18.157957,21
2021-10-14 16:20:18.157965,0
2021-10-14 16:20:18.157973,-14
2021-10-14 16:20:18.157982,0
2021-10-14 16:20:18.157990,28
2021-10-14 16:20:18.157999,28
2021-10-14 16:20:18.158007,0
2021-10-14 16:20:18.158015,-26
2021-10-14 16:20:18.158024,-21
2021-10-14 16:20:18.158032,7
2021-10-14 16:20:18.158040,28
2021-10-14 16:20:18.158049,24
2021-10-14 16:20:18.158057,0
2021-10-14 16:20:18.158065,-16
2021-10-14 16:20:18.158074,4
2021-10-14 16:20:18.158082,31
2021-10-14 16:20:18.158090,19
2021-10-14 16:20:18.158099,-4
2021-10-14 16:20:18.158107,-16
2021-10-14 16:20:18.158115,-16
2021-10-14 16:20:18.337823,16
2021-10-14 16:20:18.337842,36
2021-10-14 16:20:18.337852,38
2021-10-14 16:20:18.337860,48
2021-10-14 16:20:18.337869,48
2021-10-14 16:20:18.337877,36
2021-10-14 16:20:18.337885,33
2021-10-14 16:20:18.337894,28
2021-10-14 16:20:18.337902,21
2021-10-14 16:20:18.337910,33
2021-10-14 16:20:18.337918,55
2021-10-14 16:20:18.337927,55
2021-10-14 16:20:18.337935,45
2021-10-14 16:20:18.337943,40
2021-10-14 16:20:18.337951,45
2021-10-14 16:20:18.337959,57
2021-10-14 16:20:18.337968,76
2021-10-14 16:20:18.337976,81
2021-10-14 16:20:18.337984,67
2021-10-14 16:20:18.337992,72
2021-10-14 16:20:18.338001,81
2021-10-14 16:20:18.338009,52
2021-10-14 16:20:18.338017,28
2021-10-14 16:20:18.338026,40
2021-10-14 16:20:18.338034,60
2021-10-14 16:20:18.338042,76
2021-10-14 16:20:18.338051,62
2021-10-14 16:20:18.338059,33
2021-10-14 16:20:18.338067,55
2021-10-14 16:20:18.338075,91
2021-10-14 16:20:18.651904,69
2021-10-14 16:20:18.651924,55
2021-10-14 16:20:18.651933,91
2021-10-14 16:20:18.651942,120
2021-10-14 16:20:18.651951,252
2021-10-14 16:20:18.651959,651
2021-10-14 16:20:18.651967,957
2021-10-14 16:20:18.651976,476
2021-10-14 16:20:18.651985,-618
2021-10-14 16:20:18.651993,-1053
2021-10-14 16:20:18.652002,-492
2021-10-14 16:20:18.652010,-52
2021-10-14 16:20:18.652019,-31
2021-10-14 16:20:18.652027,84
2021-10-14 16:20:18.652035,197
2021-10-14 16:20:18.652044,156
2021-10-14 16:20:18.652052,139
2021-10-14 16:20:18.652060,180
2021-10-14 16:20:18.652069,187
2021-10-14 16:20:18.652077,189
2021-10-14 16:20:18.652085,202
2021-10-14 16:20:18.652094,187
2021-10-14 16:20:18.652102,187
2021-10-14 16:20:18.652110,214
2021-10-14 16:20:18.652118,218
2021-10-14 16:20:18.652127,216
2021-10-14 16:20:18.652135,228
2021-10-14 16:20:18.652143,247
2021-10-14 16:20:18.652152,264
2021-10-14 16:20:18.652160,266
2021-10-14 16:20:18.787846,276
2021-10-14 16:20:18.787864,312
2021-10-14 16:20:18.787873,324
2021-10-14 16:20:18.787881,300
2021-10-14 16:20:18.787890,298
2021-10-14 16:20:18.787898,322
2021-10-14 16:20:18.787906,331
2021-10-14 16:20:18.787915,312
2021-10-14 16:20:18.787923,281
2021-10-14 16:20:18.787931,245
2021-10-14 16:20:18.787940,221
2021-10-14 16:20:18.787948,192
2021-10-14 16:20:18.787956,129
2021-10-14 16:20:18.787965,60
2021-10-14 16:20:18.787973,36
2021-10-14 16:20:18.787981,21
2021-10-14 16:20:18.787990,-7
2021-10-14 16:20:18.787998,-12
2021-10-14 16:20:18.788006,0
2021-10-14 16:20:18.788015,-14
2021-10-14 16:20:18.788023,-45
2021-10-14 16:20:18.788031,-60
2021-10-14 16:20:18.788040,-48
2021-10-14 16:20:18.788048,-40
2021-10-14 16:20:18.788056,-52
2021-10-14 16:20:18.788076,-62
2021-10-14 16:20:18.788084,-52
2021-10-14 16:20:18.788093,-40
2021-10-14 16:20:18.788101,-38
2021-10-14 16:20:18.788109,-28
2021-10-14 16:20:19.012869,-4
2021-10-14 16:20:19.012888,9
2021-10-14 16:20:19.012897,2
2021-10-14 16:20:19.012906,-4
2021-10-14 16:20:19.012914,-9
2021-10-14 16:20:19.012923,-14
2021-10-14 16:20:19.012931,-28
2021-10-14 16:20:19.012939,-52
2021-10-14 16:20:19.012947,-36
2021-10-14 16:20:19.012956,2
2021-10-14 16:20:19.012964,-4
2021-10-14 16:20:19.012973,-14
2021-10-14 16:20:19.012981,-2
2021-10-14 16:20:19.012989,-16
2021-10-14 16:20:19.012998,-36
2021-10-14 16:20:19.013006,-16
2021-10-14 16:20:19.013014,-19
2021-10-14 16:20:19.013022,-55
2021-10-14 16:20:19.013031,-62
2021-10-14 16:20:19.013039,-36
2021-10-14 16:20:19.013047,-21
2021-10-14 16:20:19.013056,-26
2021-10-14 16:20:19.013064,-19
2021-10-14 16:20:19.013072,-4
2021-10-14 16:20:19.013081,-4
2021-10-14 16:20:19.013089,-7
2021-10-14 16:20:19.013097,-4
2021-10-14 16:20:19.013105,-28
2021-10-14 16:20:19.013114,-43
2021-10-14 16:20:19.013122,-21
2021-10-14 16:20:19.281891,-2
2021-10-14 16:20:19.281911,0
2021-10-14 16:20:19.281921,12
2021-10-14 16:20:19.281930,4
2021-10-14 16:20:19.281938,-14
2021-10-14 16:20:19.281946,-4
2021-10-14 16:20:19.281955,0
2021-10-14 16:20:19.281963,-12
2021-10-14 16:20:19.282517,-2
2021-10-14 16:20:19.282527,4
2021-10-14 16:20:19.282536,-16
2021-10-14 16:20:19.282545,-2
2021-10-14 16:20:19.282553,43
2021-10-14 16:20:19.282561,50
2021-10-14 16:20:19.282570,16
2021-10-14 16:20:19.282578,-9
2021-10-14 16:20:19.282586,-12
2021-10-14 16:20:19.282595,-2
2021-10-14 16:20:19.282603,-14
2021-10-14 16:20:19.282611,-31
2021-10-14 16:20:19.282620,-16
2021-10-14 16:20:19.282628,0
2021-10-14 16:20:19.282636,-16
2021-10-14 16:20:19.282645,-31
2021-10-14 16:20:19.282653,-7
2021-10-14 16:20:19.282661,-4
2021-10-14 16:20:19.282670,-26
2021-10-14 16:20:19.282678,19
2021-10-14 16:20:19.282686,247
2021-10-14 16:20:19.282694,663
2021-10-14 16:20:19.462641,832
2021-10-14 16:20:19.462663,110
2021-10-14 16:20:19.462673,-990
2021-10-14 16:20:19.462681,-1113
2021-10-14 16:20:19.462690,-437
2021-10-14 16:20:19.462698,-127
2021-10-14 16:20:19.462706,-141
2021-10-14 16:20:19.462715,-19
2021-10-14 16:20:19.462723,88
2021-10-14 16:20:19.462731,76
2021-10-14 16:20:19.462739,69
2021-10-14 16:20:19.462748,93
2021-10-14 16:20:19.462756,96
2021-10-14 16:20:19.462764,96
2021-10-14 16:20:19.462773,101
2021-10-14 16:20:19.462781,98
2021-10-14 16:20:19.462789,91
2021-10-14 16:20:19.462797,76
2021-10-14 16:20:19.462805,72
2021-10-14 16:20:19.462814,122
2021-10-14 16:20:19.462822,173
2021-10-14 16:20:19.462830,163
2021-10-14 16:20:19.462838,156
2021-10-14 16:20:19.462846,177
2021-10-14 16:20:19.462855,185
2021-10-14 16:20:19.462863,189
2021-10-14 16:20:19.462871,202
2021-10-14 16:20:19.462879,185
2021-10-14 16:20:19.462888,182
2021-10-14 16:20:19.462896,218
2021-10-14 16:20:19.731225,238
2021-10-14 16:20:19.731247,218
2021-10-14 16:20:19.731256,180
2021-10-14 16:20:19.731265,137
2021-10-14 16:20:19.731273,110
2021-10-14 16:20:19.731281,74
2021-10-14 16:20:19.731290,-4
2021-10-14 16:20:19.731298,-62
2021-10-14 16:20:19.731307,-72
2021-10-14 16:20:19.731315,-88
2021-10-14 16:20:19.731324,-115
2021-10-14 16:20:19.731332,-125
2021-10-14 16:20:19.731341,-122
2021-10-14 16:20:19.731349,-125
2021-10-14 16:20:19.731357,-122
2021-10-14 16:20:19.731366,-103
2021-10-14 16:20:19.731374,-110
2021-10-14 16:20:19.731382,-158
2021-10-14 16:20:19.731391,-175
2021-10-14 16:20:19.731399,-156
2021-10-14 16:20:19.731407,-163
2021-10-14 16:20:19.731416,-158
2021-10-14 16:20:19.731424,-117
2021-10-14 16:20:19.731432,-96
2021-10-14 16:20:19.731441,-96
2021-10-14 16:20:19.731449,-98
2021-10-14 16:20:19.731458,-105
2021-10-14 16:20:19.731466,-101
2021-10-14 16:20:19.731474,-84
2021-10-14 16:20:19.731483,-79
2021-10-14 16:20:19.912503,-91
2021-10-14 16:20:19.912522,-122
2021-10-14 16:20:19.912531,-137
2021-10-14 16:20:19.912539,-115
2021-10-14 16:20:19.912548,-93
2021-10-14 16:20:19.912556,-103
2021-10-14 16:20:19.912564,-110
2021-10-14 16:20:19.912573,-88
2021-10-14 16:20:19.912581,-84
2021-10-14 16:20:19.912589,-113
2021-10-14 16:20:19.912598,-125
2021-10-14 16:20:19.912606,-105
2021-10-14 16:20:19.912614,-98
2021-10-14 16:20:19.912622,-110
2021-10-14 16:20:19.912631,-115
2021-10-14 16:20:19.912639,-105
2021-10-14 16:20:19.912647,-103
2021-10-14 16:20:19.912655,-93
2021-10-14 16:20:19.912663,-74
2021-10-14 16:20:19.912672,-64
2021-10-14 16:20:19.912680,-72
2021-10-14 16:20:19.912688,-81
2021-10-14 16:20:19.912696,-76
2021-10-14 16:20:19.912705,-81
2021-10-14 16:20:19.912713,-88
2021-10-14 16:20:19.912721,-57
2021-10-14 16:20:19.912729,-36
2021-10-14 16:20:19.912738,-76
2021-10-14 16:20:19.912746,-93
2021-10-14 16:20:19.912754,-55
2021-10-14 16:20:20.137932,-31
2021-10-14 16:20:20.137951,-43
2021-10-14 16:20:20.137960,-52
2021-10-14 16:20:20.137969,-57
2021-10-14 16:20:20.137977,-57
2021-10-14 16:20:20.137985,-60
2021-10-14 16:20:20.137993,-52
2021-10-14 16:20:20.138002,-21
2021-10-14 16:20:20.138010,-9
2021-10-14 16:20:20.138019,-24
2021-10-14 16:20:20.138027,-28
2021-10-14 16:20:20.138036,-36
2021-10-14 16:20:20.138044,-55
2021-10-14 16:20:20.138052,-57
2021-10-14 16:20:20.138061,-69
2021-10-14 16:20:20.138069,-91
2021-10-14 16:20:20.138077,-69
2021-10-14 16:20:20.138086,-40
2021-10-14 16:20:20.138094,-52
2021-10-14 16:20:20.138102,-55
2021-10-14 16:20:20.138110,-31
2021-10-14 16:20:20.138119,-28
2021-10-14 16:20:20.138127,-12
2021-10-14 16:20:20.138135,122
2021-10-14 16:20:20.138144,454
2021-10-14 16:20:20.138152,795
2021-10-14 16:20:20.138159,553
2021-10-14 16:20:20.138168,-485
2021-10-14 16:20:20.138176,-1231
2021-10-14 16:20:20.138184,-808
2021-10-14 16:20:20.407876,-192
2021-10-14 16:20:20.407895,-129
2021-10-14 16:20:20.407904,-81
2021-10-14 16:20:20.407913,69
2021-10-14 16:20:20.407921,64
2021-10-14 16:20:20.407930,14
2021-10-14 16:20:20.407938,40
2021-10-14 16:20:20.407946,74
2021-10-14 16:20:20.407955,62
2021-10-14 16:20:20.407963,36
2021-10-14 16:20:20.407971,55
2021-10-14 16:20:20.407979,79
2021-10-14 16:20:20.407987,74
2021-10-14 16:20:20.407996,91
2021-10-14 16:20:20.408004,98
2021-10-14 16:20:20.408012,76
2021-10-14 16:20:20.408021,81
2021-10-14 16:20:20.408029,117
2021-10-14 16:20:20.408037,141
2021-10-14 16:20:20.408046,144
2021-10-14 16:20:20.408054,165
2021-10-14 16:20:20.408062,194
2021-10-14 16:20:20.408079,194
2021-10-14 16:20:20.408087,187
2021-10-14 16:20:20.408096,204
2021-10-14 16:20:20.408104,202
2021-10-14 16:20:20.408112,177
2021-10-14 16:20:20.408120,163
2021-10-14 16:20:20.408128,139
2021-10-14 16:20:20.408136,101
2021-10-14 16:20:20.677942,81
2021-10-14 16:20:20.677961,48
2021-10-14 16:20:20.677970,-16
2021-10-14 16:20:20.677979,-52
2021-10-14 16:20:20.677987,-67
2021-10-14 16:20:20.677996,-91
2021-10-14 16:20:20.678004,-105
2021-10-14 16:20:20.678013,-127
2021-10-14 16:20:20.678021,-158
2021-10-14 16:20:20.678029,-165
2021-10-14 16:20:20.678038,-165
2021-10-14 16:20:20.678046,-165
2021-10-14 16:20:20.678054,-151
2021-10-14 16:20:20.678062,-149
2021-10-14 16:20:20.678071,-156
2021-10-14 16:20:20.678079,-151
2021-10-14 16:20:20.678088,-161
2021-10-14 16:20:20.678096,-165
2021-10-14 16:20:20.678104,-120
2021-10-14 16:20:20.678113,-79
2021-10-14 16:20:20.678121,-113
2021-10-14 16:20:20.678130,-139
2021-10-14 16:20:20.678138,-108
2021-10-14 16:20:20.678146,-81
2021-10-14 16:20:20.678155,-81
2021-10-14 16:20:20.678163,-88
2021-10-14 16:20:20.678171,-91
2021-10-14 16:20:20.678180,-86
2021-10-14 16:20:20.678188,-79
2021-10-14 16:20:20.678196,-74
2021-10-14 16:20:20.902960,-79
2021-10-14 16:20:20.902980,-86
2021-10-14 16:20:20.902989,-88
2021-10-14 16:20:20.902998,-81
2021-10-14 16:20:20.903007,-79
2021-10-14 16:20:20.903015,-96
2021-10-14 16:20:20.903024,-115
2021-10-14 16:20:20.903032,-117
2021-10-14 16:20:20.903041,-101
2021-10-14 16:20:20.903049,-72
2021-10-14 16:20:20.903058,-55
2021-10-14 16:20:20.903066,-79
2021-10-14 16:20:20.903074,-117
2021-10-14 16:20:20.903083,-113
2021-10-14 16:20:20.903091,-76
2021-10-14 16:20:20.903100,-79
2021-10-14 16:20:20.903108,-105
2021-10-14 16:20:20.903117,-79
2021-10-14 16:20:20.903125,-36
2021-10-14 16:20:20.903133,-55
2021-10-14 16:20:20.903142,-105
2021-10-14 16:20:20.903150,-101
2021-10-14 16:20:20.903158,-67
2021-10-14 16:20:20.903166,-60
2021-10-14 16:20:20.903175,-72
2021-10-14 16:20:20.903183,-76
2021-10-14 16:20:20.903191,-86
2021-10-14 16:20:20.903199,-96
2021-10-14 16:20:20.903208,-69
2021-10-14 16:20:20.903216,-52
2021-10-14 16:20:21.082487,-60
2021-10-14 16:20:21.082506,-12
2021-10-14 16:20:21.082516,7
2021-10-14 16:20:21.082525,-43
2021-10-14 16:20:21.082534,-40
2021-10-14 16:20:21.082542,0
2021-10-14 16:20:21.082550,-12
2021-10-14 16:20:21.082559,-48
2021-10-14 16:20:21.082567,-84
2021-10-14 16:20:21.082575,-86
2021-10-14 16:20:21.082583,-38
2021-10-14 16:20:21.082592,-14
2021-10-14 16:20:21.082600,-33
2021-10-14 16:20:21.082609,-33
2021-10-14 16:20:21.082617,-33
2021-10-14 16:20:21.082625,-50
2021-10-14 16:20:21.082634,-48
2021-10-14 16:20:21.082642,-38
2021-10-14 16:20:21.082650,-67
2021-10-14 16:20:21.082659,-81
2021-10-14 16:20:21.082667,14
2021-10-14 16:20:21.082675,262
2021-10-14 16:20:21.082684,637
2021-10-14 16:20:21.082692,786
2021-10-14 16:20:21.082700,161
2021-10-14 16:20:21.082708,-868
2021-10-14 16:20:21.082717,-1094
2021-10-14 16:20:21.082725,-505
2021-10-14 16:20:21.082733,-146
2021-10-14 16:20:21.082742,-96
2021-10-14 16:20:21.307871,33
2021-10-14 16:20:21.307890,91
2021-10-14 16:20:21.307899,60
2021-10-14 16:20:21.307908,88
2021-10-14 16:20:21.307916,113
2021-10-14 16:20:21.307924,91
2021-10-14 16:20:21.307933,74
2021-10-14 16:20:21.307941,67
2021-10-14 16:20:21.307950,60
2021-10-14 16:20:21.307958,69
2021-10-14 16:20:21.307966,98
2021-10-14 16:20:21.307975,115
2021-10-14 16:20:21.307983,110
2021-10-14 16:20:21.307991,115
2021-10-14 16:20:21.308000,127
2021-10-14 16:20:21.308008,144
2021-10-14 16:20:21.308016,151
2021-10-14 16:20:21.308025,149
2021-10-14 16:20:21.308033,170
2021-10-14 16:20:21.308041,189
2021-10-14 16:20:21.308050,165
2021-10-14 16:20:21.308058,149
2021-10-14 16:20:21.308066,182
2021-10-14 16:20:21.308075,194
2021-10-14 16:20:21.308083,161
2021-10-14 16:20:21.308092,129
2021-10-14 16:20:21.308100,117
2021-10-14 16:20:21.308108,103
2021-10-14 16:20:21.308117,45
2021-10-14 16:20:21.308125,-24
2021-10-14 16:20:21.532457,-36
2021-10-14 16:20:21.532475,-48
2021-10-14 16:20:21.532484,-98
2021-10-14 16:20:21.532493,-120
2021-10-14 16:20:21.532501,-105
2021-10-14 16:20:21.532510,-125
2021-10-14 16:20:21.532518,-170
2021-10-14 16:20:21.532526,-161
2021-10-14 16:20:21.532535,-115
2021-10-14 16:20:21.532543,-122
2021-10-14 16:20:21.532551,-161
2021-10-14 16:20:21.532559,-168
2021-10-14 16:20:21.532568,-163
2021-10-14 16:20:21.532576,-158
2021-10-14 16:20:21.532584,-137
2021-10-14 16:20:21.532593,-120
2021-10-14 16:20:21.532601,-103
2021-10-14 16:20:21.532609,-86
2021-10-14 16:20:21.532618,-88
2021-10-14 16:20:21.532626,-103
2021-10-14 16:20:21.532634,-86
2021-10-14 16:20:21.532643,-67
2021-10-14 16:20:21.532651,-81
2021-10-14 16:20:21.532659,-84
2021-10-14 16:20:21.532667,-48
2021-10-14 16:20:21.532676,-43
2021-10-14 16:20:21.532684,-67
2021-10-14 16:20:21.532693,-50
2021-10-14 16:20:21.532701,-28
2021-10-14 16:20:21.532709,-50
2021-10-14 16:20:21.801903,-60
2021-10-14 16:20:21.801922,-40
2021-10-14 16:20:21.801931,-36
2021-10-14 16:20:21.801940,-48
2021-10-14 16:20:21.801948,-40
2021-10-14 16:20:21.801956,-36
2021-10-14 16:20:21.801964,-55
2021-10-14 16:20:21.801973,-60
2021-10-14 16:20:21.801981,-33
2021-10-14 16:20:21.801989,-26
2021-10-14 16:20:21.801997,-50
2021-10-14 16:20:21.802006,-52
2021-10-14 16:20:21.802014,-43
2021-10-14 16:20:21.802022,-60
2021-10-14 16:20:21.802030,-60
2021-10-14 16:20:21.802038,-9
2021-10-14 16:20:21.802047,-4
2021-10-14 16:20:21.802055,-57
2021-10-14 16:20:21.802063,-55
2021-10-14 16:20:21.802071,-26
2021-10-14 16:20:21.802080,-26
2021-10-14 16:20:21.802088,-19
2021-10-14 16:20:21.802096,-21
2021-10-14 16:20:21.802104,-31
2021-10-14 16:20:21.802113,-14
2021-10-14 16:20:21.802121,4
2021-10-14 16:20:21.802129,12
2021-10-14 16:20:21.802137,14
2021-10-14 16:20:21.802146,7
2021-10-14 16:20:21.802154,-4
2021-10-14 16:20:21.982893,-4
2021-10-14 16:20:21.982912,-7
2021-10-14 16:20:21.982921,-24
2021-10-14 16:20:21.982930,-50
2021-10-14 16:20:21.982938,-74
2021-10-14 16:20:21.982947,-57
2021-10-14 16:20:21.982955,-19
2021-10-14 16:20:21.982963,-16
2021-10-14 16:20:21.982971,-40
2021-10-14 16:20:21.982980,-36
2021-10-14 16:20:21.982988,-2
2021-10-14 16:20:21.982997,45
2021-10-14 16:20:21.983005,187
2021-10-14 16:20:21.983013,545
2021-10-14 16:20:21.983021,836
2021-10-14 16:20:21.983030,355
2021-10-14 16:20:21.983038,-779
2021-10-14 16:20:21.983047,-1257
2021-10-14 16:20:21.983055,-678
2021-10-14 16:20:21.983063,-165
2021-10-14 16:20:21.983071,-132
2021-10-14 16:20:21.983080,-62
2021-10-14 16:20:21.983088,72
2021-10-14 16:20:21.983096,96
2021-10-14 16:20:21.983105,88
2021-10-14 16:20:21.983113,108
2021-10-14 16:20:21.983121,98
2021-10-14 16:20:21.983130,81
2021-10-14 16:20:21.983138,86
2021-10-14 16:20:21.983146,101
2021-10-14 16:20:22.252923,129
2021-10-14 16:20:22.252942,144
2021-10-14 16:20:22.252952,129
2021-10-14 16:20:22.252961,120
2021-10-14 16:20:22.252969,120
2021-10-14 16:20:22.252977,139
2021-10-14 16:20:22.252986,173
2021-10-14 16:20:22.252994,185
2021-10-14 16:20:22.253003,175
2021-10-14 16:20:22.253011,168
2021-10-14 16:20:22.253020,189
2021-10-14 16:20:22.253028,226
2021-10-14 16:20:22.253036,245
2021-10-14 16:20:22.253044,240
2021-10-14 16:20:22.253053,218
2021-10-14 16:20:22.253061,202
2021-10-14 16:20:22.253069,182
2021-10-14 16:20:22.253077,146
2021-10-14 16:20:22.253086,115
2021-10-14 16:20:22.253094,76
2021-10-14 16:20:22.253102,21
2021-10-14 16:20:22.253111,-24
2021-10-14 16:20:22.253119,-45
2021-10-14 16:20:22.253127,-52
2021-10-14 16:20:22.253135,-79
2021-10-14 16:20:22.253144,-125
2021-10-14 16:20:22.253152,-139
2021-10-14 16:20:22.253160,-127
2021-10-14 16:20:22.253168,-125
2021-10-14 16:20:22.253177,-129
2021-10-14 16:20:22.477573,-146
2021-10-14 16:20:22.477592,-163
2021-10-14 16:20:22.477602,-151
2021-10-14 16:20:22.477611,-117
2021-10-14 16:20:22.477619,-110
2021-10-14 16:20:22.477628,-134
2021-10-14 16:20:22.477636,-134
2021-10-14 16:20:22.477644,-115
2021-10-14 16:20:22.477652,-108
2021-10-14 16:20:22.477661,-105
2021-10-14 16:20:22.477669,-88
2021-10-14 16:20:22.477677,-88
2021-10-14 16:20:22.477685,-91
2021-10-14 16:20:22.477694,-62
2021-10-14 16:20:22.477702,-48
2021-10-14 16:20:22.477710,-81
2021-10-14 16:20:22.477718,-84
2021-10-14 16:20:22.477727,-62
2021-10-14 16:20:22.477735,-67
2021-10-14 16:20:22.477743,-74
2021-10-14 16:20:22.477751,-76
2021-10-14 16:20:22.477760,-79
2021-10-14 16:20:22.477768,-74
2021-10-14 16:20:22.477776,-64
2021-10-14 16:20:22.477784,-62
2021-10-14 16:20:22.477793,-79
2021-10-14 16:20:22.477801,-79
2021-10-14 16:20:22.477809,-40
2021-10-14 16:20:22.477817,-26
2021-10-14 16:20:22.477825,-45
2021-10-14 16:20:22.793095,-40
2021-10-14 16:20:22.793117,-28
2021-10-14 16:20:22.793127,-28
2021-10-14 16:20:22.793132,-36
2021-10-14 16:20:22.793137,-60
2021-10-14 16:20:22.793141,-79
2021-10-14 16:20:22.793145,-60
2021-10-14 16:20:22.793150,-16
2021-10-14 16:20:22.793154,2
2021-10-14 16:20:22.793158,-12
2021-10-14 16:20:22.793162,-19
2021-10-14 16:20:22.793167,-4
2021-10-14 16:20:22.793171,-4
2021-10-14 16:20:22.793175,0
2021-10-14 16:20:22.793180,4
2021-10-14 16:20:22.793184,-21
2021-10-14 16:20:22.793188,-48
2021-10-14 16:20:22.793193,-43
2021-10-14 16:20:22.793197,-33
2021-10-14 16:20:22.793201,-24
2021-10-14 16:20:22.793205,-19
2021-10-14 16:20:22.793210,-33
2021-10-14 16:20:22.793214,-43
2021-10-14 16:20:22.793218,-38
2021-10-14 16:20:22.793222,-33
2021-10-14 16:20:22.793227,-21
2021-10-14 16:20:22.793231,-2
2021-10-14 16:20:22.793244,16
2021-10-14 16:20:22.793249,115
2021-10-14 16:20:22.793253,452
2021-10-14 16:20:22.928005,820
2021-10-14 16:20:22.928025,567
2021-10-14 16:20:22.928034,-456
2021-10-14 16:20:22.928043,-1173
2021-10-14 16:20:22.928051,-779
2021-10-14 16:20:22.928059,-192
2021-10-14 16:20:22.928068,-127
2021-10-14 16:20:22.928076,-67
2021-10-14 16:20:22.928085,105
2021-10-14 16:20:22.928093,93
2021-10-14 16:20:22.928101,48
2021-10-14 16:20:22.928110,105
2021-10-14 16:20:22.928118,113
2021-10-14 16:20:22.928126,93
2021-10-14 16:20:22.928135,141
2021-10-14 16:20:22.928143,165
2021-10-14 16:20:22.928151,129
2021-10-14 16:20:22.928160,103
2021-10-14 16:20:22.928168,122
2021-10-14 16:20:22.928176,156
2021-10-14 16:20:22.928185,156
2021-10-14 16:20:22.928193,153
2021-10-14 16:20:22.928201,177
2021-10-14 16:20:22.928209,189
2021-10-14 16:20:22.928217,177
2021-10-14 16:20:22.928225,192
2021-10-14 16:20:22.928233,228
2021-10-14 16:20:22.928241,235
2021-10-14 16:20:22.928250,216
2021-10-14 16:20:22.928258,233
2021-10-14 16:20:23.197289,262
2021-10-14 16:20:23.197307,245
2021-10-14 16:20:23.197316,211
2021-10-14 16:20:23.197324,199
2021-10-14 16:20:23.197332,175
2021-10-14 16:20:23.197341,122
2021-10-14 16:20:23.197349,64
2021-10-14 16:20:23.197357,24
2021-10-14 16:20:23.197366,-12
2021-10-14 16:20:23.197374,-57
2021-10-14 16:20:23.197382,-50
2021-10-14 16:20:23.197391,-12
2021-10-14 16:20:23.197399,-48
2021-10-14 16:20:23.197407,-72
2021-10-14 16:20:23.197415,-48
2021-10-14 16:20:23.197423,-72
2021-10-14 16:20:23.197432,-86
2021-10-14 16:20:23.197440,-60
2021-10-14 16:20:23.197448,-62
2021-10-14 16:20:23.197456,-72
2021-10-14 16:20:23.197465,-67
2021-10-14 16:20:23.197473,-64
2021-10-14 16:20:23.197481,-38
2021-10-14 16:20:23.197489,-24
2021-10-14 16:20:23.197498,-33
2021-10-14 16:20:23.197506,-12
2021-10-14 16:20:23.197514,4
2021-10-14 16:20:23.197522,-19
2021-10-14 16:20:23.197530,-12
2021-10-14 16:20:23.197538,9
2021-10-14 16:20:23.377529,4
2021-10-14 16:20:23.377548,14
2021-10-14 16:20:23.377558,31
2021-10-14 16:20:23.377567,12
2021-10-14 16:20:23.377575,2
2021-10-14 16:20:23.377583,33
2021-10-14 16:20:23.377592,67
2021-10-14 16:20:23.377600,50
2021-10-14 16:20:23.377609,12
2021-10-14 16:20:23.377617,24
2021-10-14 16:20:23.377625,45
2021-10-14 16:20:23.377634,33
2021-10-14 16:20:23.377642,12
2021-10-14 16:20:23.377651,-12
2021-10-14 16:20:23.377659,-2
2021-10-14 16:20:23.377667,50
2021-10-14 16:20:23.377675,72
2021-10-14 16:20:23.377684,45
2021-10-14 16:20:23.377692,24
2021-10-14 16:20:23.377701,31
2021-10-14 16:20:23.377709,50
2021-10-14 16:20:23.377717,57
2021-10-14 16:20:23.377725,50
2021-10-14 16:20:23.377734,57
2021-10-14 16:20:23.377742,72
2021-10-14 16:20:23.377750,81
2021-10-14 16:20:23.377758,91
2021-10-14 16:20:23.377767,88
2021-10-14 16:20:23.377775,93
2021-10-14 16:20:23.377783,115
2021-10-14 16:20:23.602952,105
2021-10-14 16:20:23.602972,76
2021-10-14 16:20:23.602982,72
2021-10-14 16:20:23.602990,72
2021-10-14 16:20:23.602998,62
2021-10-14 16:20:23.603007,45
2021-10-14 16:20:23.603015,26
2021-10-14 16:20:23.603024,64
2021-10-14 16:20:23.603032,115
2021-10-14 16:20:23.603040,86
2021-10-14 16:20:23.603049,67
2021-10-14 16:20:23.603057,103
2021-10-14 16:20:23.603065,120
2021-10-14 16:20:23.603074,202
2021-10-14 16:20:23.603082,526
2021-10-14 16:20:23.603090,913
2021-10-14 16:20:23.603098,707
2021-10-14 16:20:23.603107,-324
2021-10-14 16:20:23.603115,-1094
2021-10-14 16:20:23.603124,-726
2021-10-14 16:20:23.603132,-129
2021-10-14 16:20:23.603140,-28
2021-10-14 16:20:23.603149,52
2021-10-14 16:20:23.603157,214
2021-10-14 16:20:23.603166,204
2021-10-14 16:20:23.603174,168
2021-10-14 16:20:23.603182,216
2021-10-14 16:20:23.603191,228
2021-10-14 16:20:23.603199,202
2021-10-14 16:20:23.603207,192
2021-10-14 16:20:23.871660,209
2021-10-14 16:20:23.871681,247
2021-10-14 16:20:23.871690,264
2021-10-14 16:20:23.871699,226
2021-10-14 16:20:23.871707,199
2021-10-14 16:20:23.871715,233
2021-10-14 16:20:23.871724,264
2021-10-14 16:20:23.871732,252
2021-10-14 16:20:23.871740,262
2021-10-14 16:20:23.871748,307
2021-10-14 16:20:23.871757,322
2021-10-14 16:20:23.871765,298
2021-10-14 16:20:23.871773,307
2021-10-14 16:20:23.871781,327
2021-10-14 16:20:23.871790,305
2021-10-14 16:20:23.871798,303
2021-10-14 16:20:23.871806,329
2021-10-14 16:20:23.871814,324
2021-10-14 16:20:23.871823,269
2021-10-14 16:20:23.871831,202
2021-10-14 16:20:23.871839,165
2021-10-14 16:20:23.871848,137
2021-10-14 16:20:23.871856,67
2021-10-14 16:20:23.871864,12
2021-10-14 16:20:23.871872,9
2021-10-14 16:20:23.871880,-9
2021-10-14 16:20:23.871889,-36
2021-10-14 16:20:23.871897,-36
2021-10-14 16:20:23.871905,-40
2021-10-14 16:20:23.871913,-45
2021-10-14 16:20:24.143005,-26
2021-10-14 16:20:24.143027,-38
2021-10-14 16:20:24.143037,-76
2021-10-14 16:20:24.143045,-84
2021-10-14 16:20:24.143054,-55
2021-10-14 16:20:24.143062,-50
2021-10-14 16:20:24.143070,-64
2021-10-14 16:20:24.143079,-52
2021-10-14 16:20:24.143087,-36
2021-10-14 16:20:24.143095,-36
2021-10-14 16:20:24.143103,-33
2021-10-14 16:20:24.143111,-24
2021-10-14 16:20:24.143119,-19
2021-10-14 16:20:24.143128,-21
2021-10-14 16:20:24.143136,-38
2021-10-14 16:20:24.143144,-28
2021-10-14 16:20:24.143152,4
2021-10-14 16:20:24.143160,-7
2021-10-14 16:20:24.143169,-33
2021-10-14 16:20:24.143177,-28
2021-10-14 16:20:24.143185,-31
2021-10-14 16:20:24.143193,-43
2021-10-14 16:20:24.143201,-38
2021-10-14 16:20:24.143209,-31
2021-10-14 16:20:24.143217,-24
2021-10-14 16:20:24.143226,-28
2021-10-14 16:20:24.143234,-43
2021-10-14 16:20:24.143242,-38
2021-10-14 16:20:24.143250,-24
2021-10-14 16:20:24.143258,-33
2021-10-14 16:20:24.322543,-38
2021-10-14 16:20:24.322562,-19
2021-10-14 16:20:24.322571,-16
2021-10-14 16:20:24.322580,-33
2021-10-14 16:20:24.322588,-21
2021-10-14 16:20:24.322596,-9
2021-10-14 16:20:24.322604,-2
2021-10-14 16:20:24.322613,4
2021-10-14 16:20:24.322621,-19
2021-10-14 16:20:24.322629,-48
2021-10-14 16:20:24.322638,-55
2021-10-14 16:20:24.322646,-36
2021-10-14 16:20:24.322654,-9
2021-10-14 16:20:24.322662,-19
2021-10-14 16:20:24.322671,-50
2021-10-14 16:20:24.322679,-55
2021-10-14 16:20:24.322687,-50
2021-10-14 16:20:24.322695,-31
2021-10-14 16:20:24.322704,-9
2021-10-14 16:20:24.322712,-21
2021-10-14 16:20:24.322720,14
2021-10-14 16:20:24.322728,278
2021-10-14 16:20:24.322736,726
2021-10-14 16:20:24.322745,800
2021-10-14 16:20:24.322753,-38
2021-10-14 16:20:24.322761,-1118
2021-10-14 16:20:24.322769,-1144
2021-10-14 16:20:24.322777,-466
2021-10-14 16:20:24.322786,-182
2021-10-14 16:20:24.322794,-137
2021-10-14 16:20:24.593049,24
2021-10-14 16:20:24.593070,81
2021-10-14 16:20:24.593079,45
2021-10-14 16:20:24.593088,76
2021-10-14 16:20:24.593096,105
2021-10-14 16:20:24.593104,74
2021-10-14 16:20:24.593113,62
2021-10-14 16:20:24.593121,81
2021-10-14 16:20:24.593129,69
2021-10-14 16:20:24.593138,45
2021-10-14 16:20:24.593146,84
2021-10-14 16:20:24.593154,127
2021-10-14 16:20:24.593162,115
2021-10-14 16:20:24.593171,115
2021-10-14 16:20:24.593179,134
2021-10-14 16:20:24.593188,139
2021-10-14 16:20:24.593196,144
2021-10-14 16:20:24.593205,163
2021-10-14 16:20:24.593213,192
2021-10-14 16:20:24.593221,206
2021-10-14 16:20:24.593230,214
2021-10-14 16:20:24.593238,216
2021-10-14 16:20:24.593247,214
2021-10-14 16:20:24.593255,218
2021-10-14 16:20:24.593263,204
2021-10-14 16:20:24.593272,158
2021-10-14 16:20:24.593280,108
2021-10-14 16:20:24.593289,81
2021-10-14 16:20:24.593297,57
2021-10-14 16:20:24.593306,7
2021-10-14 16:20:24.817594,-45
2021-10-14 16:20:24.817613,-79
2021-10-14 16:20:24.817622,-113
2021-10-14 16:20:24.817631,-134
2021-10-14 16:20:24.817640,-129
2021-10-14 16:20:24.817648,-113
2021-10-14 16:20:24.817656,-117
2021-10-14 16:20:24.817665,-129
2021-10-14 16:20:24.817673,-127
2021-10-14 16:20:24.817681,-129
2021-10-14 16:20:24.817690,-134
2021-10-14 16:20:24.817698,-115
2021-10-14 16:20:24.817706,-120
2021-10-14 16:20:24.817715,-151
2021-10-14 16:20:24.817723,-139
2021-10-14 16:20:24.817731,-108
2021-10-14 16:20:24.817739,-103
2021-10-14 16:20:24.817748,-91
2021-10-14 16:20:24.817756,-62
2021-10-14 16:20:24.817764,-64
2021-10-14 16:20:24.817773,-79
2021-10-14 16:20:24.817781,-72
2021-10-14 16:20:24.817790,-72
2021-10-14 16:20:24.817798,-81
2021-10-14 16:20:24.817806,-74
2021-10-14 16:20:24.817814,-69
2021-10-14 16:20:24.817823,-69
2021-10-14 16:20:24.817831,-55
2021-10-14 16:20:24.817839,-52
2021-10-14 16:20:24.817848,-64
2021-10-14 16:20:25.042928,-64
2021-10-14 16:20:25.042947,-57
2021-10-14 16:20:25.042957,-74
2021-10-14 16:20:25.042965,-81
2021-10-14 16:20:25.042974,-67
2021-10-14 16:20:25.042982,-57
2021-10-14 16:20:25.042990,-69
2021-10-14 16:20:25.042999,-110
2021-10-14 16:20:25.043007,-115
2021-10-14 16:20:25.043015,-79
2021-10-14 16:20:25.043023,-76
2021-10-14 16:20:25.043032,-76
2021-10-14 16:20:25.043040,-57
2021-10-14 16:20:25.043048,-62
2021-10-14 16:20:25.043056,-69
2021-10-14 16:20:25.043065,-69
2021-10-14 16:20:25.043073,-72
2021-10-14 16:20:25.043081,-84
2021-10-14 16:20:25.043089,-96
2021-10-14 16:20:25.043098,-88
2021-10-14 16:20:25.043106,-91
2021-10-14 16:20:25.043114,-105
2021-10-14 16:20:25.043123,-91
2021-10-14 16:20:25.043131,-55
2021-10-14 16:20:25.043139,-55
2021-10-14 16:20:25.043147,-72
2021-10-14 16:20:25.043156,-60
2021-10-14 16:20:25.043164,-50
2021-10-14 16:20:25.043172,-50
2021-10-14 16:20:25.043181,7
2021-10-14 16:20:25.267924,264
2021-10-14 16:20:25.267943,670
2021-10-14 16:20:25.267952,678
2021-10-14 16:20:25.267961,-141
2021-10-14 16:20:25.267969,-1050
2021-10-14 16:20:25.267978,-988
2021-10-14 16:20:25.267986,-391
2021-10-14 16:20:25.267994,-149
2021-10-14 16:20:25.268003,-120
2021-10-14 16:20:25.268011,-24
2021-10-14 16:20:25.268019,45
2021-10-14 16:20:25.268028,52
2021-10-14 16:20:25.268036,28
2021-10-14 16:20:25.268044,14
2021-10-14 16:20:25.268052,62
2021-10-14 16:20:25.268061,117
2021-10-14 16:20:25.268069,103
2021-10-14 16:20:25.268077,60
2021-10-14 16:20:25.268085,67
2021-10-14 16:20:25.268094,105
2021-10-14 16:20:25.268102,113
2021-10-14 16:20:25.268110,91
2021-10-14 16:20:25.268119,98
2021-10-14 16:20:25.268127,129
2021-10-14 16:20:25.268135,144
2021-10-14 16:20:25.268144,120
2021-10-14 16:20:25.268152,103
2021-10-14 16:20:25.268160,161
2021-10-14 16:20:25.268168,240
2021-10-14 16:20:25.268176,242
2021-10-14 16:20:25.447563,221
2021-10-14 16:20:25.447580,197
2021-10-14 16:20:25.447589,153
2021-10-14 16:20:25.447598,144
2021-10-14 16:20:25.447606,149
2021-10-14 16:20:25.447615,146
2021-10-14 16:20:25.447623,132
2021-10-14 16:20:25.447631,67
2021-10-14 16:20:25.447640,-14
2021-10-14 16:20:25.447648,-60
2021-10-14 16:20:25.447657,-76
2021-10-14 16:20:25.447665,-93
2021-10-14 16:20:25.447673,-110
2021-10-14 16:20:25.447682,-132
2021-10-14 16:20:25.447690,-132
2021-10-14 16:20:25.447698,-117
2021-10-14 16:20:25.447707,-149
2021-10-14 16:20:25.447715,-173
2021-10-14 16:20:25.447723,-122
2021-10-14 16:20:25.447731,-96
2021-10-14 16:20:25.447740,-125
2021-10-14 16:20:25.447748,-108
2021-10-14 16:20:25.447756,-60
2021-10-14 16:20:25.447764,-52
2021-10-14 16:20:25.447773,-55
2021-10-14 16:20:25.447781,-50
2021-10-14 16:20:25.447789,-74
2021-10-14 16:20:25.447797,-72
2021-10-14 16:20:25.447805,-43
2021-10-14 16:20:25.447813,-50
2021-10-14 16:20:25.717037,-28
2021-10-14 16:20:25.717057,7
2021-10-14 16:20:25.717067,0
2021-10-14 16:20:25.717076,4
2021-10-14 16:20:25.717084,-9
2021-10-14 16:20:25.717093,-57
2021-10-14 16:20:25.717101,-52
2021-10-14 16:20:25.717109,-12
2021-10-14 16:20:25.717117,0
2021-10-14 16:20:25.717126,-16
2021-10-14 16:20:25.717134,-38
2021-10-14 16:20:25.717142,-45
2021-10-14 16:20:25.717151,-38
2021-10-14 16:20:25.717159,-16
2021-10-14 16:20:25.717167,-4
2021-10-14 16:20:25.717176,-16
2021-10-14 16:20:25.717184,-31
2021-10-14 16:20:25.717192,-45
2021-10-14 16:20:25.717201,-38
2021-10-14 16:20:25.717209,9
2021-10-14 16:20:25.717217,55
2021-10-14 16:20:25.717226,26
2021-10-14 16:20:25.717234,-2
2021-10-14 16:20:25.717242,14
2021-10-14 16:20:25.717251,-4
2021-10-14 16:20:25.717259,-45
2021-10-14 16:20:25.717268,-14
2021-10-14 16:20:25.717276,28
2021-10-14 16:20:25.717284,16
2021-10-14 16:20:25.717293,-21
2021-10-14 16:20:26.076322,-33
2021-10-14 16:20:26.076342,-4
2021-10-14 16:20:26.076351,-7
2021-10-14 16:20:26.076360,-62
2021-10-14 16:20:26.076368,-91
2021-10-14 16:20:26.076377,-74
2021-10-14 16:20:26.076385,-26
2021-10-14 16:20:26.076393,7
2021-10-14 16:20:26.076402,-28
2021-10-14 16:20:26.076410,-24
2021-10-14 16:20:26.076418,153
2021-10-14 16:20:26.076426,476
2021-10-14 16:20:26.076435,692
2021-10-14 16:20:26.076443,288
2021-10-14 16:20:26.076451,-658
2021-10-14 16:20:26.076459,-1082
2021-10-14 16:20:26.076468,-637
2021-10-14 16:20:26.076476,-209
2021-10-14 16:20:26.076484,-117
2021-10-14 16:20:26.076493,-38
2021-10-14 16:20:26.076501,28
2021-10-14 16:20:26.076509,31
2021-10-14 16:20:26.076518,26
2021-10-14 16:20:26.076526,14
2021-10-14 16:20:26.076534,12
2021-10-14 16:20:26.076542,31
2021-10-14 16:20:26.076551,64
2021-10-14 16:20:26.076559,86
2021-10-14 16:20:26.076567,84
2021-10-14 16:20:26.076575,105
2021-10-14 16:20:26.167916,122
2021-10-14 16:20:26.167933,108
2021-10-14 16:20:26.167943,122
2021-10-14 16:20:26.167951,146
2021-10-14 16:20:26.167960,144
2021-10-14 16:20:26.167968,156
2021-10-14 16:20:26.167976,189
2021-10-14 16:20:26.167985,211
2021-10-14 16:20:26.167993,206
2021-10-14 16:20:26.168002,214
2021-10-14 16:20:26.168010,221
2021-10-14 16:20:26.168018,204
2021-10-14 16:20:26.168027,192
2021-10-14 16:20:26.168035,209
2021-10-14 16:20:26.168043,206
2021-10-14 16:20:26.168052,163
2021-10-14 16:20:26.168060,129
2021-10-14 16:20:26.168068,91
2021-10-14 16:20:26.168077,55
2021-10-14 16:20:26.168085,52
2021-10-14 16:20:26.168094,19
2021-10-14 16:20:26.168102,-9
2021-10-14 16:20:26.168110,0
2021-10-14 16:20:26.168119,-9
2021-10-14 16:20:26.168127,-21
2021-10-14 16:20:26.168135,4
2021-10-14 16:20:26.168144,21
2021-10-14 16:20:26.168152,-12
2021-10-14 16:20:26.168160,-21
2021-10-14 16:20:26.168169,21
2021-10-14 16:20:26.437977,28
2021-10-14 16:20:26.437997,31
2021-10-14 16:20:26.438006,60
2021-10-14 16:20:26.438015,60
2021-10-14 16:20:26.438023,57
2021-10-14 16:20:26.438031,88
2021-10-14 16:20:26.438040,115
2021-10-14 16:20:26.438048,113
2021-10-14 16:20:26.438056,91
2021-10-14 16:20:26.438064,96
2021-10-14 16:20:26.438072,120
2021-10-14 16:20:26.438081,141
2021-10-14 16:20:26.438089,158
2021-10-14 16:20:26.438097,158
2021-10-14 16:20:26.438105,137
2021-10-14 16:20:26.438114,120
2021-10-14 16:20:26.438122,137
2021-10-14 16:20:26.438130,156
2021-10-14 16:20:26.438138,168
2021-10-14 16:20:26.438146,192
2021-10-14 16:20:26.438155,185
2021-10-14 16:20:26.438163,134
2021-10-14 16:20:26.438171,139
2021-10-14 16:20:26.438179,199
2021-10-14 16:20:26.438187,194
2021-10-14 16:20:26.438195,156
2021-10-14 16:20:26.438204,185
2021-10-14 16:20:26.438212,223
2021-10-14 16:20:26.438220,214
2021-10-14 16:20:26.438228,211
2021-10-14 16:20:26.617634,233
2021-10-14 16:20:26.617654,233
2021-10-14 16:20:26.617664,221
2021-10-14 16:20:26.617672,235
2021-10-14 16:20:26.617681,240
2021-10-14 16:20:26.617689,206
2021-10-14 16:20:26.617698,177
2021-10-14 16:20:26.617706,204
2021-10-14 16:20:26.617714,235
2021-10-14 16:20:26.617723,223
2021-10-14 16:20:26.617731,218
2021-10-14 16:20:26.617740,226
2021-10-14 16:20:26.617749,223
2021-10-14 16:20:26.617757,228
2021-10-14 16:20:26.617765,245
2021-10-14 16:20:26.617773,238
2021-10-14 16:20:26.617782,218
2021-10-14 16:20:26.617790,283
2021-10-14 16:20:26.617799,531
2021-10-14 16:20:26.617807,945
2021-10-14 16:20:26.617815,1026
2021-10-14 16:20:26.617824,209
2021-10-14 16:20:26.617832,-817
2021-10-14 16:20:26.617841,-808
2021-10-14 16:20:26.617849,-182
2021-10-14 16:20:26.617857,43
2021-10-14 16:20:26.617866,96
2021-10-14 16:20:26.617874,298
2021-10-14 16:20:26.617882,355
2021-10-14 16:20:26.617903,288
2021-10-14 16:20:26.842656,315
2021-10-14 16:20:26.842676,343
2021-10-14 16:20:26.842685,315
2021-10-14 16:20:26.842693,312
2021-10-14 16:20:26.842702,327
2021-10-14 16:20:26.842710,312
2021-10-14 16:20:26.842718,288
2021-10-14 16:20:26.842727,298
2021-10-14 16:20:26.842735,322
2021-10-14 16:20:26.842743,327
2021-10-14 16:20:26.842752,331
2021-10-14 16:20:26.842760,348
2021-10-14 16:20:26.842768,343
2021-10-14 16:20:26.842777,343
2021-10-14 16:20:26.842785,372
2021-10-14 16:20:26.842794,394
2021-10-14 16:20:26.842802,389
2021-10-14 16:20:26.842810,382
2021-10-14 16:20:26.842819,391
2021-10-14 16:20:26.842827,396
2021-10-14 16:20:26.842835,370
2021-10-14 16:20:26.842843,348
2021-10-14 16:20:26.842852,334
2021-10-14 16:20:26.842860,288
2021-10-14 16:20:26.842869,245
2021-10-14 16:20:26.842877,202
2021-10-14 16:20:26.842885,129
2021-10-14 16:20:26.842894,96
2021-10-14 16:20:26.842902,79
2021-10-14 16:20:26.842910,38
2021-10-14 16:20:27.157382,26
2021-10-14 16:20:27.157402,28
2021-10-14 16:20:27.157411,12
2021-10-14 16:20:27.157420,14
2021-10-14 16:20:27.157428,21
2021-10-14 16:20:27.157437,12
2021-10-14 16:20:27.157445,2
2021-10-14 16:20:27.157453,-4
2021-10-14 16:20:27.157462,-12
2021-10-14 16:20:27.157470,-2
2021-10-14 16:20:27.157478,40
2021-10-14 16:20:27.157487,72
2021-10-14 16:20:27.157495,52
2021-10-14 16:20:27.157503,40
2021-10-14 16:20:27.157512,57
2021-10-14 16:20:27.157520,62
2021-10-14 16:20:27.157528,48
2021-10-14 16:20:27.157536,40
2021-10-14 16:20:27.157545,43
2021-10-14 16:20:27.157553,45
2021-10-14 16:20:27.157561,62
2021-10-14 16:20:27.157570,101
2021-10-14 16:20:27.157578,98
2021-10-14 16:20:27.157586,72
2021-10-14 16:20:27.157595,62
2021-10-14 16:20:27.157603,52
2021-10-14 16:20:27.157611,40
2021-10-14 16:20:27.157619,36
2021-10-14 16:20:27.157628,24
2021-10-14 16:20:27.157636,28
2021-10-14 16:20:27.292922,81
2021-10-14 16:20:27.292940,91
2021-10-14 16:20:27.292950,50
2021-10-14 16:20:27.292959,38
2021-10-14 16:20:27.292967,31
2021-10-14 16:20:27.292976,21
2021-10-14 16:20:27.292984,50
2021-10-14 16:20:27.292992,76
2021-10-14 16:20:27.293001,74
2021-10-14 16:20:27.293009,86
2021-10-14 16:20:27.293017,91
2021-10-14 16:20:27.293026,31
2021-10-14 16:20:27.293034,-14
2021-10-14 16:20:27.293042,21
2021-10-14 16:20:27.293051,36
2021-10-14 16:20:27.293059,-9
2021-10-14 16:20:27.293067,-2
2021-10-14 16:20:27.293075,45
2021-10-14 16:20:27.293083,24
2021-10-14 16:20:27.293092,-7
2021-10-14 16:20:27.293100,48
2021-10-14 16:20:27.293108,74
2021-10-14 16:20:27.293117,45
2021-10-14 16:20:27.293125,168
2021-10-14 16:20:27.293133,560
2021-10-14 16:20:27.293142,906
2021-10-14 16:20:27.293150,519
2021-10-14 16:20:27.293158,-613
2021-10-14 16:20:27.293166,-1207
2021-10-14 16:20:27.293174,-697
2021-10-14 16:20:27.562514,-177
2021-10-14 16:20:27.562533,-110
2021-10-14 16:20:27.562542,-9
2021-10-14 16:20:27.562551,98
2021-10-14 16:20:27.562559,55
2021-10-14 16:20:27.562568,36
2021-10-14 16:20:27.562576,74
2021-10-14 16:20:27.562585,57
2021-10-14 16:20:27.562593,55
2021-10-14 16:20:27.562601,91
2021-10-14 16:20:27.562610,76
2021-10-14 16:20:27.562618,67
2021-10-14 16:20:27.562627,98
2021-10-14 16:20:27.562635,103
2021-10-14 16:20:27.562643,84
2021-10-14 16:20:27.562652,93
2021-10-14 16:20:27.562660,127
2021-10-14 16:20:27.562669,137
2021-10-14 16:20:27.562677,146
2021-10-14 16:20:27.562685,170
2021-10-14 16:20:27.562694,173
2021-10-14 16:20:27.562702,182
2021-10-14 16:20:27.562710,216
2021-10-14 16:20:27.562718,216
2021-10-14 16:20:27.562726,209
2021-10-14 16:20:27.562735,218
2021-10-14 16:20:27.562743,189
2021-10-14 16:20:27.562751,151
2021-10-14 16:20:27.562760,139
2021-10-14 16:20:27.562768,101
2021-10-14 16:20:27.788051,50
2021-10-14 16:20:27.788071,16
2021-10-14 16:20:27.788080,-21
2021-10-14 16:20:27.788089,-81
2021-10-14 16:20:27.788097,-139
2021-10-14 16:20:27.788106,-163
2021-10-14 16:20:27.788114,-158
2021-10-14 16:20:27.788122,-149
2021-10-14 16:20:27.788131,-137
2021-10-14 16:20:27.788139,-141
2021-10-14 16:20:27.788148,-163
2021-10-14 16:20:27.788156,-153
2021-10-14 16:20:27.788164,-125
2021-10-14 16:20:27.788173,-129
2021-10-14 16:20:27.788181,-151
2021-10-14 16:20:27.788189,-141
2021-10-14 16:20:27.788197,-132
2021-10-14 16:20:27.788206,-146
2021-10-14 16:20:27.788214,-134
2021-10-14 16:20:27.788222,-98
2021-10-14 16:20:27.788231,-115
2021-10-14 16:20:27.788239,-122
2021-10-14 16:20:27.788247,-86
2021-10-14 16:20:27.788255,-81
2021-10-14 16:20:27.788264,-69
2021-10-14 16:20:27.788272,-52
2021-10-14 16:20:27.788280,-79
2021-10-14 16:20:27.788288,-84
2021-10-14 16:20:27.788296,-62
2021-10-14 16:20:27.788305,-64
2021-10-14 16:20:28.102336,-74
2021-10-14 16:20:28.102357,-88
2021-10-14 16:20:28.102367,-113
2021-10-14 16:20:28.102376,-129
2021-10-14 16:20:28.102384,-110
2021-10-14 16:20:28.102392,-88
2021-10-14 16:20:28.102401,-101
2021-10-14 16:20:28.102409,-108
2021-10-14 16:20:28.102417,-108
2021-10-14 16:20:28.102425,-120
2021-10-14 16:20:28.102434,-103
2021-10-14 16:20:28.102442,-96
2021-10-14 16:20:28.102450,-127
2021-10-14 16:20:28.102458,-120
2021-10-14 16:20:28.102467,-98
2021-10-14 16:20:28.102475,-101
2021-10-14 16:20:28.102483,-103
2021-10-14 16:20:28.102491,-103
2021-10-14 16:20:28.102500,-93
2021-10-14 16:20:28.102508,-69
2021-10-14 16:20:28.102516,-76
2021-10-14 16:20:28.102524,-98
2021-10-14 16:20:28.102532,-101
2021-10-14 16:20:28.102540,-101
2021-10-14 16:20:28.102549,-91
2021-10-14 16:20:28.102557,-91
2021-10-14 16:20:28.102565,-113
2021-10-14 16:20:28.102573,-120
2021-10-14 16:20:28.102582,-105
2021-10-14 16:20:28.102590,-98
2021-10-14 16:20:28.327363,-98
2021-10-14 16:20:28.327382,-108
2021-10-14 16:20:28.327391,-125
2021-10-14 16:20:28.327400,-103
2021-10-14 16:20:28.327408,-14
2021-10-14 16:20:28.327417,216
2021-10-14 16:20:28.327425,615
2021-10-14 16:20:28.327434,738
2021-10-14 16:20:28.327442,-24
2021-10-14 16:20:28.327450,-1135
2021-10-14 16:20:28.327459,-1240
2021-10-14 16:20:28.327467,-526
2021-10-14 16:20:28.327475,-204
2021-10-14 16:20:28.327484,-216
2021-10-14 16:20:28.327492,-81
2021-10-14 16:20:28.327500,-9
2021-10-14 16:20:28.327509,-69
2021-10-14 16:20:28.327517,-60
2021-10-14 16:20:28.327525,-12
2021-10-14 16:20:28.327533,-7
2021-10-14 16:20:28.327541,-16
2021-10-14 16:20:28.327550,-33
2021-10-14 16:20:28.327558,-38
2021-10-14 16:20:28.327566,-24
2021-10-14 16:20:28.327574,-19
2021-10-14 16:20:28.327583,-21
2021-10-14 16:20:28.327591,-2
2021-10-14 16:20:28.327599,21
2021-10-14 16:20:28.327607,26
2021-10-14 16:20:28.327616,50
2021-10-14 16:20:28.462628,79
2021-10-14 16:20:28.462648,74
2021-10-14 16:20:28.462657,67
2021-10-14 16:20:28.462666,67
2021-10-14 16:20:28.462674,67
2021-10-14 16:20:28.462683,110
2021-10-14 16:20:28.462691,149
2021-10-14 16:20:28.462700,101
2021-10-14 16:20:28.462708,38
2021-10-14 16:20:28.462716,57
2021-10-14 16:20:28.462725,72
2021-10-14 16:20:28.462733,-12
2021-10-14 16:20:28.462741,-108
2021-10-14 16:20:28.462750,-117
2021-10-14 16:20:28.462758,-127
2021-10-14 16:20:28.462766,-189
2021-10-14 16:20:28.462774,-214
2021-10-14 16:20:28.462783,-182
2021-10-14 16:20:28.462791,-185
2021-10-14 16:20:28.462799,-221
2021-10-14 16:20:28.462808,-235
2021-10-14 16:20:28.462816,-221
2021-10-14 16:20:28.462824,-194
2021-10-14 16:20:28.462832,-199
2021-10-14 16:20:28.462841,-223
2021-10-14 16:20:28.462849,-211
2021-10-14 16:20:28.462857,-199
2021-10-14 16:20:28.462865,-206
2021-10-14 16:20:28.462874,-189
2021-10-14 16:20:28.462882,-168
2021-10-14 16:20:28.822099,-156
2021-10-14 16:20:28.822121,-161
2021-10-14 16:20:28.822130,-161
2021-10-14 16:20:28.822139,-115
2021-10-14 16:20:28.822147,-84
2021-10-14 16:20:28.822156,-125
2021-10-14 16:20:28.822164,-165
2021-10-14 16:20:28.822172,-146
2021-10-14 16:20:28.822181,-98
2021-10-14 16:20:28.822189,-108
2021-10-14 16:20:28.822197,-144
2021-10-14 16:20:28.822205,-129
2021-10-14 16:20:28.822214,-108
2021-10-14 16:20:28.822222,-129
2021-10-14 16:20:28.822231,-146
2021-10-14 16:20:28.822239,-134
2021-10-14 16:20:28.822248,-129
2021-10-14 16:20:28.822256,-125
2021-10-14 16:20:28.822265,-108
2021-10-14 16:20:28.822273,-113
2021-10-14 16:20:28.822281,-122
2021-10-14 16:20:28.822290,-115
2021-10-14 16:20:28.822298,-108
2021-10-14 16:20:28.822307,-108
2021-10-14 16:20:28.822315,-113
2021-10-14 16:20:28.822323,-108
2021-10-14 16:20:28.822332,-98
2021-10-14 16:20:28.822340,-93
2021-10-14 16:20:28.822348,-76
2021-10-14 16:20:28.822356,-64
2021-10-14 16:20:28.912988,-79
