Time,ECG
2021-10-14 16:40:40.014445,-4
2021-10-14 16:40:40.014464,0
2021-10-14 16:40:40.014473,7
2021-10-14 16:40:40.014482,7
2021-10-14 16:40:40.014491,7
2021-10-14 16:40:40.014499,12
2021-10-14 16:40:40.014507,12
2021-10-14 16:40:40.014515,9
2021-10-14 16:40:40.014524,12
2021-10-14 16:40:40.014532,21
2021-10-14 16:40:40.014540,40
2021-10-14 16:40:40.014548,50
2021-10-14 16:40:40.014557,48
2021-10-14 16:40:40.014565,40
2021-10-14 16:40:40.014573,21
2021-10-14 16:40:40.014581,2
2021-10-14 16:40:40.014590,7
2021-10-14 16:40:40.014598,12
2021-10-14 16:40:40.014606,7
2021-10-14 16:40:40.014614,12
2021-10-14 16:40:40.014623,14
2021-10-14 16:40:40.014631,12
2021-10-14 16:40:40.014639,19
2021-10-14 16:40:40.014647,26
2021-10-14 16:40:40.014655,28
2021-10-14 16:40:40.014664,45
2021-10-14 16:40:40.014672,101
2021-10-14 16:40:40.014680,319
2021-10-14 16:40:40.014688,711
2021-10-14 16:40:40.014696,815
2021-10-14 16:40:40.194387,96
2021-10-14 16:40:40.194406,-899
2021-10-14 16:40:40.194415,-990
2021-10-14 16:40:40.194424,-375
2021-10-14 16:40:40.194433,-69
2021-10-14 16:40:40.194441,-50
2021-10-14 16:40:40.194449,60
2021-10-14 16:40:40.194458,127
2021-10-14 16:40:40.194466,93
2021-10-14 16:40:40.194474,93
2021-10-14 16:40:40.194482,103
2021-10-14 16:40:40.194491,91
2021-10-14 16:40:40.194499,96
2021-10-14 16:40:40.194507,115
2021-10-14 16:40:40.194515,120
2021-10-14 16:40:40.194524,122
2021-10-14 16:40:40.194532,125
2021-10-14 16:40:40.194540,120
2021-10-14 16:40:40.194549,127
2021-10-14 16:40:40.194557,144
2021-10-14 16:40:40.194565,149
2021-10-14 16:40:40.194573,156
2021-10-14 16:40:40.194582,170
2021-10-14 16:40:40.194590,182
2021-10-14 16:40:40.194598,192
2021-10-14 16:40:40.194606,209
2021-10-14 16:40:40.194615,221
2021-10-14 16:40:40.194623,228
2021-10-14 16:40:40.194631,230
2021-10-14 16:40:40.194639,223
2021-10-14 16:40:40.463505,209
2021-10-14 16:40:40.463526,194
2021-10-14 16:40:40.463535,173
2021-10-14 16:40:40.463544,137
2021-10-14 16:40:40.463553,93
2021-10-14 16:40:40.463561,50
2021-10-14 16:40:40.463569,21
2021-10-14 16:40:40.463578,-7
2021-10-14 16:40:40.463586,-36
2021-10-14 16:40:40.463595,-60
2021-10-14 16:40:40.463603,-84
2021-10-14 16:40:40.463611,-105
2021-10-14 16:40:40.463619,-108
2021-10-14 16:40:40.463627,-103
2021-10-14 16:40:40.463636,-108
2021-10-14 16:40:40.463644,-117
2021-10-14 16:40:40.463652,-117
2021-10-14 16:40:40.463660,-110
2021-10-14 16:40:40.463669,-108
2021-10-14 16:40:40.463677,-103
2021-10-14 16:40:40.463685,-96
2021-10-14 16:40:40.463694,-88
2021-10-14 16:40:40.463702,-81
2021-10-14 16:40:40.463710,-72
2021-10-14 16:40:40.463719,-62
2021-10-14 16:40:40.463727,-55
2021-10-14 16:40:40.463735,-45
2021-10-14 16:40:40.463743,-43
2021-10-14 16:40:40.463752,-38
2021-10-14 16:40:40.463759,-33
2021-10-14 16:40:40.733526,-28
2021-10-14 16:40:40.733546,-33
2021-10-14 16:40:40.733556,-36
2021-10-14 16:40:40.733578,-40
2021-10-14 16:40:40.733586,-48
2021-10-14 16:40:40.733594,-48
2021-10-14 16:40:40.733603,-36
2021-10-14 16:40:40.733611,-33
2021-10-14 16:40:40.733619,-38
2021-10-14 16:40:40.733627,-38
2021-10-14 16:40:40.733636,-38
2021-10-14 16:40:40.733644,-36
2021-10-14 16:40:40.733652,-31
2021-10-14 16:40:40.733660,-28
2021-10-14 16:40:40.733669,-36
2021-10-14 16:40:40.733677,-55
2021-10-14 16:40:40.733685,-57
2021-10-14 16:40:40.733693,-40
2021-10-14 16:40:40.733702,-36
2021-10-14 16:40:40.733710,-40
2021-10-14 16:40:40.733718,-36
2021-10-14 16:40:40.733726,-28
2021-10-14 16:40:40.733735,-24
2021-10-14 16:40:40.733743,-19
2021-10-14 16:40:40.733751,-14
2021-10-14 16:40:40.733759,-16
2021-10-14 16:40:40.733767,-12
2021-10-14 16:40:40.733776,-4
2021-10-14 16:40:40.733784,-7
2021-10-14 16:40:40.733792,-4
2021-10-14 16:40:40.914455,0
2021-10-14 16:40:40.914474,7
2021-10-14 16:40:40.914484,9
2021-10-14 16:40:40.914492,16
2021-10-14 16:40:40.914501,24
2021-10-14 16:40:40.914509,31
2021-10-14 16:40:40.914517,43
2021-10-14 16:40:40.914526,55
2021-10-14 16:40:40.914534,36
2021-10-14 16:40:40.914543,4
2021-10-14 16:40:40.914551,4
2021-10-14 16:40:40.914560,19
2021-10-14 16:40:40.914568,19
2021-10-14 16:40:40.914577,16
2021-10-14 16:40:40.914585,16
2021-10-14 16:40:40.914593,12
2021-10-14 16:40:40.914602,16
2021-10-14 16:40:40.914610,28
2021-10-14 16:40:40.914618,38
2021-10-14 16:40:40.914626,45
2021-10-14 16:40:40.914635,74
2021-10-14 16:40:40.914643,202
2021-10-14 16:40:40.914651,541
2021-10-14 16:40:40.914660,851
2021-10-14 16:40:40.914668,533
2021-10-14 16:40:40.914676,-452
2021-10-14 16:40:40.914685,-1043
2021-10-14 16:40:40.914693,-630
2021-10-14 16:40:40.914701,-105
2021-10-14 16:40:40.914710,-16
2021-10-14 16:40:41.184488,52
2021-10-14 16:40:41.184509,165
2021-10-14 16:40:41.184518,151
2021-10-14 16:40:41.184527,132
2021-10-14 16:40:41.184535,163
2021-10-14 16:40:41.184544,163
2021-10-14 16:40:41.184552,153
2021-10-14 16:40:41.184561,168
2021-10-14 16:40:41.184569,170
2021-10-14 16:40:41.184577,165
2021-10-14 16:40:41.184586,180
2021-10-14 16:40:41.184594,189
2021-10-14 16:40:41.184602,192
2021-10-14 16:40:41.184611,199
2021-10-14 16:40:41.184619,204
2021-10-14 16:40:41.184627,211
2021-10-14 16:40:41.184636,228
2021-10-14 16:40:41.184644,245
2021-10-14 16:40:41.184653,257
2021-10-14 16:40:41.184661,271
2021-10-14 16:40:41.184669,269
2021-10-14 16:40:41.184677,266
2021-10-14 16:40:41.184686,278
2021-10-14 16:40:41.184694,288
2021-10-14 16:40:41.184702,283
2021-10-14 16:40:41.184711,266
2021-10-14 16:40:41.184719,247
2021-10-14 16:40:41.184727,221
2021-10-14 16:40:41.184736,197
2021-10-14 16:40:41.184744,168
2021-10-14 16:40:41.364085,134
2021-10-14 16:40:41.364104,98
2021-10-14 16:40:41.364114,55
2021-10-14 16:40:41.364123,28
2021-10-14 16:40:41.364131,21
2021-10-14 16:40:41.364140,14
2021-10-14 16:40:41.364148,7
2021-10-14 16:40:41.364157,-2
2021-10-14 16:40:41.364165,-16
2021-10-14 16:40:41.364173,-24
2021-10-14 16:40:41.364182,-24
2021-10-14 16:40:41.364190,-21
2021-10-14 16:40:41.364198,-16
2021-10-14 16:40:41.364207,-14
2021-10-14 16:40:41.364215,-14
2021-10-14 16:40:41.364223,-7
2021-10-14 16:40:41.364232,2
2021-10-14 16:40:41.364240,7
2021-10-14 16:40:41.364248,9
2021-10-14 16:40:41.364256,7
2021-10-14 16:40:41.364265,12
2021-10-14 16:40:41.364273,24
2021-10-14 16:40:41.364281,33
2021-10-14 16:40:41.364289,38
2021-10-14 16:40:41.364297,40
2021-10-14 16:40:41.364306,40
2021-10-14 16:40:41.364314,38
2021-10-14 16:40:41.364322,40
2021-10-14 16:40:41.364330,43
2021-10-14 16:40:41.364338,45
2021-10-14 16:40:41.677833,52
2021-10-14 16:40:41.677854,57
2021-10-14 16:40:41.677863,52
2021-10-14 16:40:41.677872,48
2021-10-14 16:40:41.677881,50
2021-10-14 16:40:41.677889,55
2021-10-14 16:40:41.677897,48
2021-10-14 16:40:41.677906,38
2021-10-14 16:40:41.677914,45
2021-10-14 16:40:41.677922,45
2021-10-14 16:40:41.677931,36
2021-10-14 16:40:41.677939,38
2021-10-14 16:40:41.677947,40
2021-10-14 16:40:41.677956,36
2021-10-14 16:40:41.677964,33
2021-10-14 16:40:41.677972,31
2021-10-14 16:40:41.677981,33
2021-10-14 16:40:41.677989,48
2021-10-14 16:40:41.677997,55
2021-10-14 16:40:41.678006,52
2021-10-14 16:40:41.678014,52
2021-10-14 16:40:41.678022,52
2021-10-14 16:40:41.678030,57
2021-10-14 16:40:41.678039,64
2021-10-14 16:40:41.678047,72
2021-10-14 16:40:41.678055,79
2021-10-14 16:40:41.678064,79
2021-10-14 16:40:41.678072,69
2021-10-14 16:40:41.678080,72
2021-10-14 16:40:41.678088,64
2021-10-14 16:40:41.814430,43
2021-10-14 16:40:41.814448,31
2021-10-14 16:40:41.814457,36
2021-10-14 16:40:41.814466,43
2021-10-14 16:40:41.814474,43
2021-10-14 16:40:41.814482,38
2021-10-14 16:40:41.814491,28
2021-10-14 16:40:41.814499,26
2021-10-14 16:40:41.814507,38
2021-10-14 16:40:41.814516,43
2021-10-14 16:40:41.814524,45
2021-10-14 16:40:41.814532,72
2021-10-14 16:40:41.814541,173
2021-10-14 16:40:41.814549,464
2021-10-14 16:40:41.814557,812
2021-10-14 16:40:41.814566,637
2021-10-14 16:40:41.814574,-305
2021-10-14 16:40:41.814582,-1046
2021-10-14 16:40:41.814590,-764
2021-10-14 16:40:41.814598,-228
2021-10-14 16:40:41.814607,-88
2021-10-14 16:40:41.814615,-2
2021-10-14 16:40:41.814623,129
2021-10-14 16:40:41.814631,141
2021-10-14 16:40:41.814640,122
2021-10-14 16:40:41.814648,149
2021-10-14 16:40:41.814656,158
2021-10-14 16:40:41.814664,151
2021-10-14 16:40:41.814672,161
2021-10-14 16:40:41.814681,165
2021-10-14 16:40:42.039440,165
2021-10-14 16:40:42.039459,177
2021-10-14 16:40:42.039468,185
2021-10-14 16:40:42.039477,182
2021-10-14 16:40:42.039485,189
2021-10-14 16:40:42.039493,194
2021-10-14 16:40:42.039502,194
2021-10-14 16:40:42.039510,211
2021-10-14 16:40:42.039519,228
2021-10-14 16:40:42.039527,233
2021-10-14 16:40:42.039535,242
2021-10-14 16:40:42.039544,252
2021-10-14 16:40:42.039552,262
2021-10-14 16:40:42.039560,264
2021-10-14 16:40:42.039569,250
2021-10-14 16:40:42.039577,238
2021-10-14 16:40:42.039585,233
2021-10-14 16:40:42.039594,216
2021-10-14 16:40:42.039602,187
2021-10-14 16:40:42.039610,156
2021-10-14 16:40:42.039619,122
2021-10-14 16:40:42.039627,81
2021-10-14 16:40:42.039635,45
2021-10-14 16:40:42.039644,19
2021-10-14 16:40:42.039652,-2
2021-10-14 16:40:42.039660,-26
2021-10-14 16:40:42.039669,-45
2021-10-14 16:40:42.039677,-52
2021-10-14 16:40:42.039685,-60
2021-10-14 16:40:42.039694,-64
2021-10-14 16:40:42.353499,-62
2021-10-14 16:40:42.353519,-57
2021-10-14 16:40:42.353528,-64
2021-10-14 16:40:42.353537,-84
2021-10-14 16:40:42.353545,-91
2021-10-14 16:40:42.353554,-84
2021-10-14 16:40:42.353562,-81
2021-10-14 16:40:42.353570,-81
2021-10-14 16:40:42.353579,-79
2021-10-14 16:40:42.353587,-76
2021-10-14 16:40:42.353595,-76
2021-10-14 16:40:42.353603,-74
2021-10-14 16:40:42.353612,-62
2021-10-14 16:40:42.353620,-55
2021-10-14 16:40:42.353628,-55
2021-10-14 16:40:42.353636,-52
2021-10-14 16:40:42.353644,-57
2021-10-14 16:40:42.353653,-64
2021-10-14 16:40:42.353661,-60
2021-10-14 16:40:42.353669,-52
2021-10-14 16:40:42.353678,-50
2021-10-14 16:40:42.353686,-52
2021-10-14 16:40:42.353694,-52
2021-10-14 16:40:42.353702,-55
2021-10-14 16:40:42.353711,-50
2021-10-14 16:40:42.353719,-43
2021-10-14 16:40:42.353727,-40
2021-10-14 16:40:42.353736,-43
2021-10-14 16:40:42.353744,-45
2021-10-14 16:40:42.353752,-43
2021-10-14 16:40:42.534175,-36
2021-10-14 16:40:42.534196,-28
2021-10-14 16:40:42.534206,-26
2021-10-14 16:40:42.534214,-33
2021-10-14 16:40:42.534223,-40
2021-10-14 16:40:42.534231,-40
2021-10-14 16:40:42.534239,-33
2021-10-14 16:40:42.534248,-31
2021-10-14 16:40:42.534256,-28
2021-10-14 16:40:42.534264,-31
2021-10-14 16:40:42.534273,-36
2021-10-14 16:40:42.534281,-31
2021-10-14 16:40:42.534289,-21
2021-10-14 16:40:42.534297,-19
2021-10-14 16:40:42.534306,-21
2021-10-14 16:40:42.534314,-26
2021-10-14 16:40:42.534322,-31
2021-10-14 16:40:42.534331,-33
2021-10-14 16:40:42.534339,-31
2021-10-14 16:40:42.534347,-26
2021-10-14 16:40:42.534355,-16
2021-10-14 16:40:42.534364,-12
2021-10-14 16:40:42.534372,-2
2021-10-14 16:40:42.534380,12
2021-10-14 16:40:42.534389,2
2021-10-14 16:40:42.534397,-26
2021-10-14 16:40:42.534405,-33
2021-10-14 16:40:42.534414,-28
2021-10-14 16:40:42.534422,-33
2021-10-14 16:40:42.534430,-36
2021-10-14 16:40:42.759491,-31
2021-10-14 16:40:42.759511,-24
2021-10-14 16:40:42.759521,-26
2021-10-14 16:40:42.759529,-36
2021-10-14 16:40:42.759537,-33
2021-10-14 16:40:42.759546,-16
2021-10-14 16:40:42.759554,4
2021-10-14 16:40:42.759562,103
2021-10-14 16:40:42.759570,406
2021-10-14 16:40:42.759579,759
2021-10-14 16:40:42.759587,584
2021-10-14 16:40:42.759595,-355
2021-10-14 16:40:42.759604,-1113
2021-10-14 16:40:42.759612,-836
2021-10-14 16:40:42.759620,-274
2021-10-14 16:40:42.759628,-144
2021-10-14 16:40:42.759637,-76
2021-10-14 16:40:42.759645,57
2021-10-14 16:40:42.759653,64
2021-10-14 16:40:42.759661,33
2021-10-14 16:40:42.759670,50
2021-10-14 16:40:42.759678,52
2021-10-14 16:40:42.759686,50
2021-10-14 16:40:42.759694,69
2021-10-14 16:40:42.759702,74
2021-10-14 16:40:42.759710,74
2021-10-14 16:40:42.759719,84
2021-10-14 16:40:42.759727,88
2021-10-14 16:40:42.759735,88
2021-10-14 16:40:42.759744,101
2021-10-14 16:40:42.984123,113
2021-10-14 16:40:42.984142,117
2021-10-14 16:40:42.984151,117
2021-10-14 16:40:42.984160,127
2021-10-14 16:40:42.984168,146
2021-10-14 16:40:42.984177,163
2021-10-14 16:40:42.984186,170
2021-10-14 16:40:42.984194,173
2021-10-14 16:40:42.984202,173
2021-10-14 16:40:42.984211,168
2021-10-14 16:40:42.984219,163
2021-10-14 16:40:42.984227,149
2021-10-14 16:40:42.984236,132
2021-10-14 16:40:42.984244,110
2021-10-14 16:40:42.984252,72
2021-10-14 16:40:42.984261,31
2021-10-14 16:40:42.984269,0
2021-10-14 16:40:42.984277,-28
2021-10-14 16:40:42.984285,-55
2021-10-14 16:40:42.984293,-81
2021-10-14 16:40:42.984302,-113
2021-10-14 16:40:42.984310,-137
2021-10-14 16:40:42.984318,-141
2021-10-14 16:40:42.984326,-139
2021-10-14 16:40:42.984335,-139
2021-10-14 16:40:42.984343,-149
2021-10-14 16:40:42.984351,-158
2021-10-14 16:40:42.984359,-158
2021-10-14 16:40:42.984367,-156
2021-10-14 16:40:42.984375,-151
2021-10-14 16:40:43.209501,-144
2021-10-14 16:40:43.209521,-139
2021-10-14 16:40:43.209530,-134
2021-10-14 16:40:43.209538,-129
2021-10-14 16:40:43.209547,-122
2021-10-14 16:40:43.209555,-110
2021-10-14 16:40:43.209563,-105
2021-10-14 16:40:43.209572,-108
2021-10-14 16:40:43.209580,-110
2021-10-14 16:40:43.209588,-105
2021-10-14 16:40:43.209596,-98
2021-10-14 16:40:43.209604,-93
2021-10-14 16:40:43.209613,-88
2021-10-14 16:40:43.209621,-91
2021-10-14 16:40:43.209629,-98
2021-10-14 16:40:43.209637,-103
2021-10-14 16:40:43.209645,-113
2021-10-14 16:40:43.209654,-113
2021-10-14 16:40:43.209662,-105
2021-10-14 16:40:43.209670,-101
2021-10-14 16:40:43.209678,-101
2021-10-14 16:40:43.209686,-98
2021-10-14 16:40:43.209695,-96
2021-10-14 16:40:43.209703,-101
2021-10-14 16:40:43.209711,-105
2021-10-14 16:40:43.209719,-103
2021-10-14 16:40:43.209727,-96
2021-10-14 16:40:43.209735,-91
2021-10-14 16:40:43.209744,-84
2021-10-14 16:40:43.209752,-81
2021-10-14 16:40:43.434057,-84
2021-10-14 16:40:43.434077,-76
2021-10-14 16:40:43.434087,-74
2021-10-14 16:40:43.434095,-74
2021-10-14 16:40:43.434104,-67
2021-10-14 16:40:43.434112,-60
2021-10-14 16:40:43.434121,-69
2021-10-14 16:40:43.434129,-74
2021-10-14 16:40:43.434137,-69
2021-10-14 16:40:43.434146,-62
2021-10-14 16:40:43.434154,-57
2021-10-14 16:40:43.434162,-57
2021-10-14 16:40:43.434170,-67
2021-10-14 16:40:43.434179,-69
2021-10-14 16:40:43.434187,-62
2021-10-14 16:40:43.434195,-55
2021-10-14 16:40:43.434204,-43
2021-10-14 16:40:43.434212,-36
2021-10-14 16:40:43.434220,-31
2021-10-14 16:40:43.434228,-19
2021-10-14 16:40:43.434237,-4
2021-10-14 16:40:43.434245,-9
2021-10-14 16:40:43.434253,-38
2021-10-14 16:40:43.434262,-55
2021-10-14 16:40:43.434270,-48
2021-10-14 16:40:43.434278,-52
2021-10-14 16:40:43.434286,-67
2021-10-14 16:40:43.434295,-64
2021-10-14 16:40:43.434303,-52
2021-10-14 16:40:43.434311,-48
2021-10-14 16:40:43.703208,-43
2021-10-14 16:40:43.703229,-40
2021-10-14 16:40:43.703238,-36
2021-10-14 16:40:43.703247,-24
2021-10-14 16:40:43.703255,16
2021-10-14 16:40:43.703263,204
2021-10-14 16:40:43.703272,574
2021-10-14 16:40:43.703280,762
2021-10-14 16:40:43.703288,197
2021-10-14 16:40:43.703297,-810
2021-10-14 16:40:43.703305,-1091
2021-10-14 16:40:43.703313,-531
2021-10-14 16:40:43.703322,-153
2021-10-14 16:40:43.703330,-122
2021-10-14 16:40:43.703338,-14
2021-10-14 16:40:43.703346,72
2021-10-14 16:40:43.703355,38
2021-10-14 16:40:43.703363,38
2021-10-14 16:40:43.703371,64
2021-10-14 16:40:43.703380,60
2021-10-14 16:40:43.703388,62
2021-10-14 16:40:43.703396,69
2021-10-14 16:40:43.703405,57
2021-10-14 16:40:43.703413,57
2021-10-14 16:40:43.703421,74
2021-10-14 16:40:43.703430,81
2021-10-14 16:40:43.703438,79
2021-10-14 16:40:43.703446,81
2021-10-14 16:40:43.703455,84
2021-10-14 16:40:43.703463,93
2021-10-14 16:40:43.928894,113
2021-10-14 16:40:43.928915,127
2021-10-14 16:40:43.928925,137
2021-10-14 16:40:43.928934,149
2021-10-14 16:40:43.928943,156
2021-10-14 16:40:43.928952,153
2021-10-14 16:40:43.928961,153
2021-10-14 16:40:43.928970,156
2021-10-14 16:40:43.928979,149
2021-10-14 16:40:43.928987,134
2021-10-14 16:40:43.928996,110
2021-10-14 16:40:43.929005,74
2021-10-14 16:40:43.929013,40
2021-10-14 16:40:43.929022,14
2021-10-14 16:40:43.929031,-19
2021-10-14 16:40:43.929040,-57
2021-10-14 16:40:43.929049,-88
2021-10-14 16:40:43.929058,-120
2021-10-14 16:40:43.929066,-137
2021-10-14 16:40:43.929075,-141
2021-10-14 16:40:43.929083,-146
2021-10-14 16:40:43.929092,-153
2021-10-14 16:40:43.929101,-156
2021-10-14 16:40:43.929109,-156
2021-10-14 16:40:43.929118,-153
2021-10-14 16:40:43.929126,-151
2021-10-14 16:40:43.929134,-149
2021-10-14 16:40:43.929143,-139
2021-10-14 16:40:43.929151,-127
2021-10-14 16:40:43.929159,-125
2021-10-14 16:40:44.109457,-127
2021-10-14 16:40:44.109475,-117
2021-10-14 16:40:44.109484,-103
2021-10-14 16:40:44.109493,-101
2021-10-14 16:40:44.109501,-101
2021-10-14 16:40:44.109509,-103
2021-10-14 16:40:44.109518,-91
2021-10-14 16:40:44.109526,-81
2021-10-14 16:40:44.109534,-81
2021-10-14 16:40:44.109543,-79
2021-10-14 16:40:44.109551,-79
2021-10-14 16:40:44.109559,-81
2021-10-14 16:40:44.109568,-69
2021-10-14 16:40:44.109576,-60
2021-10-14 16:40:44.109584,-64
2021-10-14 16:40:44.109592,-72
2021-10-14 16:40:44.109600,-72
2021-10-14 16:40:44.109609,-69
2021-10-14 16:40:44.109617,-60
2021-10-14 16:40:44.109625,-55
2021-10-14 16:40:44.109633,-57
2021-10-14 16:40:44.109641,-60
2021-10-14 16:40:44.109649,-45
2021-10-14 16:40:44.109658,-38
2021-10-14 16:40:44.109666,-43
2021-10-14 16:40:44.109674,-38
2021-10-14 16:40:44.109682,-36
2021-10-14 16:40:44.109691,-48
2021-10-14 16:40:44.109699,-57
2021-10-14 16:40:44.109707,-50
2021-10-14 16:40:44.379091,-38
2021-10-14 16:40:44.379110,-40
2021-10-14 16:40:44.379119,-45
2021-10-14 16:40:44.379127,-48
2021-10-14 16:40:44.379135,-48
2021-10-14 16:40:44.379144,-43
2021-10-14 16:40:44.379152,-31
2021-10-14 16:40:44.379160,-24
2021-10-14 16:40:44.379168,-24
2021-10-14 16:40:44.379176,-24
2021-10-14 16:40:44.379185,-14
2021-10-14 16:40:44.379193,4
2021-10-14 16:40:44.379201,14
2021-10-14 16:40:44.379210,19
2021-10-14 16:40:44.379218,21
2021-10-14 16:40:44.379226,7
2021-10-14 16:40:44.379234,-9
2021-10-14 16:40:44.379243,-7
2021-10-14 16:40:44.379251,0
2021-10-14 16:40:44.379259,2
2021-10-14 16:40:44.379267,12
2021-10-14 16:40:44.379276,19
2021-10-14 16:40:44.379284,19
2021-10-14 16:40:44.379292,26
2021-10-14 16:40:44.379300,38
2021-10-14 16:40:44.379309,48
2021-10-14 16:40:44.379317,62
2021-10-14 16:40:44.379325,129
2021-10-14 16:40:44.379334,363
2021-10-14 16:40:44.379342,750
2021-10-14 16:40:44.604632,808
2021-10-14 16:40:44.604653,38
2021-10-14 16:40:44.604662,-894
2021-10-14 16:40:44.604671,-892
2021-10-14 16:40:44.604679,-331
2021-10-14 16:40:44.604700,-79
2021-10-14 16:40:44.604708,7
2021-10-14 16:40:44.604717,156
2021-10-14 16:40:44.604725,189
2021-10-14 16:40:44.604734,151
2021-10-14 16:40:44.604742,175
2021-10-14 16:40:44.604750,197
2021-10-14 16:40:44.604758,189
2021-10-14 16:40:44.604767,209
2021-10-14 16:40:44.604775,228
2021-10-14 16:40:44.604783,216
2021-10-14 16:40:44.604791,209
2021-10-14 16:40:44.604800,223
2021-10-14 16:40:44.604808,238
2021-10-14 16:40:44.604816,245
2021-10-14 16:40:44.604824,252
2021-10-14 16:40:44.604833,259
2021-10-14 16:40:44.604841,264
2021-10-14 16:40:44.604849,281
2021-10-14 16:40:44.604858,303
2021-10-14 16:40:44.604866,315
2021-10-14 16:40:44.604874,324
2021-10-14 16:40:44.604882,329
2021-10-14 16:40:44.604891,334
2021-10-14 16:40:44.604899,341
2021-10-14 16:40:44.874156,343
2021-10-14 16:40:44.874176,331
2021-10-14 16:40:44.874185,305
2021-10-14 16:40:44.874194,266
2021-10-14 16:40:44.874202,233
2021-10-14 16:40:44.874210,206
2021-10-14 16:40:44.874218,168
2021-10-14 16:40:44.874227,125
2021-10-14 16:40:44.874235,86
2021-10-14 16:40:44.874243,52
2021-10-14 16:40:44.874251,26
2021-10-14 16:40:44.874260,12
2021-10-14 16:40:44.874268,4
2021-10-14 16:40:44.874276,-7
2021-10-14 16:40:44.874284,-24
2021-10-14 16:40:44.874292,-24
2021-10-14 16:40:44.874301,-12
2021-10-14 16:40:44.874309,-2
2021-10-14 16:40:44.874317,-2
2021-10-14 16:40:44.874325,0
2021-10-14 16:40:44.874334,0
2021-10-14 16:40:44.874342,9
2021-10-14 16:40:44.874350,21
2021-10-14 16:40:44.874358,28
2021-10-14 16:40:44.874366,40
2021-10-14 16:40:44.874375,48
2021-10-14 16:40:44.874383,45
2021-10-14 16:40:44.874391,43
2021-10-14 16:40:44.874399,52
2021-10-14 16:40:44.874407,62
2021-10-14 16:40:45.054490,67
2021-10-14 16:40:45.054509,64
2021-10-14 16:40:45.054518,60
2021-10-14 16:40:45.054526,60
2021-10-14 16:40:45.054535,64
2021-10-14 16:40:45.054543,72
2021-10-14 16:40:45.054552,69
2021-10-14 16:40:45.054560,64
2021-10-14 16:40:45.054568,60
2021-10-14 16:40:45.054576,52
2021-10-14 16:40:45.054584,52
2021-10-14 16:40:45.054593,60
2021-10-14 16:40:45.054601,62
2021-10-14 16:40:45.054609,57
2021-10-14 16:40:45.054618,50
2021-10-14 16:40:45.054626,50
2021-10-14 16:40:45.054634,57
2021-10-14 16:40:45.054642,60
2021-10-14 16:40:45.054651,60
2021-10-14 16:40:45.054659,50
2021-10-14 16:40:45.054667,45
2021-10-14 16:40:45.054675,52
2021-10-14 16:40:45.054684,57
2021-10-14 16:40:45.054692,55
2021-10-14 16:40:45.054700,57
2021-10-14 16:40:45.054708,62
2021-10-14 16:40:45.054717,62
2021-10-14 16:40:45.054725,57
2021-10-14 16:40:45.054733,55
2021-10-14 16:40:45.054742,60
2021-10-14 16:40:45.324541,64
2021-10-14 16:40:45.324562,72
2021-10-14 16:40:45.324571,81
2021-10-14 16:40:45.324580,84
2021-10-14 16:40:45.324588,91
2021-10-14 16:40:45.324597,98
2021-10-14 16:40:45.324605,79
2021-10-14 16:40:45.324614,45
2021-10-14 16:40:45.324622,33
2021-10-14 16:40:45.324630,28
2021-10-14 16:40:45.324639,9
2021-10-14 16:40:45.324647,4
2021-10-14 16:40:45.324655,14
2021-10-14 16:40:45.324664,14
2021-10-14 16:40:45.324672,16
2021-10-14 16:40:45.324680,21
2021-10-14 16:40:45.324689,24
2021-10-14 16:40:45.324697,33
2021-10-14 16:40:45.324706,86
2021-10-14 16:40:45.324714,286
2021-10-14 16:40:45.324722,675
2021-10-14 16:40:45.324731,841
2021-10-14 16:40:45.324739,211
2021-10-14 16:40:45.324748,-808
2021-10-14 16:40:45.324756,-1034
2021-10-14 16:40:45.324764,-456
2021-10-14 16:40:45.324773,-86
2021-10-14 16:40:45.324781,-40
2021-10-14 16:40:45.324789,76
2021-10-14 16:40:45.324798,151
2021-10-14 16:40:45.504179,110
2021-10-14 16:40:45.504199,115
2021-10-14 16:40:45.504208,151
2021-10-14 16:40:45.504217,144
2021-10-14 16:40:45.504226,134
2021-10-14 16:40:45.504234,144
2021-10-14 16:40:45.504243,144
2021-10-14 16:40:45.504251,139
2021-10-14 16:40:45.504259,146
2021-10-14 16:40:45.504268,153
2021-10-14 16:40:45.504276,158
2021-10-14 16:40:45.504284,163
2021-10-14 16:40:45.504293,168
2021-10-14 16:40:45.504301,170
2021-10-14 16:40:45.504310,177
2021-10-14 16:40:45.504318,192
2021-10-14 16:40:45.504326,209
2021-10-14 16:40:45.504335,214
2021-10-14 16:40:45.504343,211
2021-10-14 16:40:45.504351,216
2021-10-14 16:40:45.504360,221
2021-10-14 16:40:45.504368,214
2021-10-14 16:40:45.504376,204
2021-10-14 16:40:45.504384,187
2021-10-14 16:40:45.504393,163
2021-10-14 16:40:45.504401,139
2021-10-14 16:40:45.504409,103
2021-10-14 16:40:45.504418,55
2021-10-14 16:40:45.504426,21
2021-10-14 16:40:45.504434,-4
2021-10-14 16:40:45.818827,-38
2021-10-14 16:40:45.818847,-67
2021-10-14 16:40:45.818856,-81
2021-10-14 16:40:45.818865,-93
2021-10-14 16:40:45.818873,-105
2021-10-14 16:40:45.818882,-117
2021-10-14 16:40:45.818890,-127
2021-10-14 16:40:45.818898,-127
2021-10-14 16:40:45.818907,-127
2021-10-14 16:40:45.818915,-122
2021-10-14 16:40:45.818924,-117
2021-10-14 16:40:45.818932,-120
2021-10-14 16:40:45.818940,-127
2021-10-14 16:40:45.818948,-117
2021-10-14 16:40:45.818957,-115
2021-10-14 16:40:45.818965,-127
2021-10-14 16:40:45.818973,-120
2021-10-14 16:40:45.818981,-103
2021-10-14 16:40:45.818990,-98
2021-10-14 16:40:45.818998,-91
2021-10-14 16:40:45.819006,-84
2021-10-14 16:40:45.819014,-84
2021-10-14 16:40:45.819022,-81
2021-10-14 16:40:45.819030,-74
2021-10-14 16:40:45.819038,-72
2021-10-14 16:40:45.819046,-72
2021-10-14 16:40:45.819055,-69
2021-10-14 16:40:45.819063,-69
2021-10-14 16:40:45.819071,-72
2021-10-14 16:40:45.819079,-69
2021-10-14 16:40:45.954530,-67
2021-10-14 16:40:45.954549,-64
2021-10-14 16:40:45.954558,-67
2021-10-14 16:40:45.954567,-69
2021-10-14 16:40:45.954575,-72
2021-10-14 16:40:45.954584,-72
2021-10-14 16:40:45.954592,-57
2021-10-14 16:40:45.954601,-52
2021-10-14 16:40:45.954609,-67
2021-10-14 16:40:45.954617,-72
2021-10-14 16:40:45.954625,-62
2021-10-14 16:40:45.954634,-64
2021-10-14 16:40:45.954642,-67
2021-10-14 16:40:45.954650,-62
2021-10-14 16:40:45.954658,-62
2021-10-14 16:40:45.954666,-64
2021-10-14 16:40:45.954675,-62
2021-10-14 16:40:45.954683,-60
2021-10-14 16:40:45.954691,-57
2021-10-14 16:40:45.954700,-52
2021-10-14 16:40:45.954708,-50
2021-10-14 16:40:45.954716,-55
2021-10-14 16:40:45.954724,-64
2021-10-14 16:40:45.954733,-64
2021-10-14 16:40:45.954741,-50
2021-10-14 16:40:45.954749,-33
2021-10-14 16:40:45.954757,-26
2021-10-14 16:40:45.954766,-21
2021-10-14 16:40:45.954774,-14
2021-10-14 16:40:45.954782,-26
2021-10-14 16:40:46.179199,-50
2021-10-14 16:40:46.179220,-62
2021-10-14 16:40:46.179229,-57
2021-10-14 16:40:46.179238,-57
2021-10-14 16:40:46.179246,-67
2021-10-14 16:40:46.179255,-67
2021-10-14 16:40:46.179263,-60
2021-10-14 16:40:46.179271,-60
2021-10-14 16:40:46.179279,-55
2021-10-14 16:40:46.179288,-48
2021-10-14 16:40:46.179296,-48
2021-10-14 16:40:46.179304,-26
2021-10-14 16:40:46.179313,101
2021-10-14 16:40:46.179321,440
2021-10-14 16:40:46.179329,759
2021-10-14 16:40:46.179337,461
2021-10-14 16:40:46.179346,-536
2021-10-14 16:40:46.179354,-1178
2021-10-14 16:40:46.179362,-781
2021-10-14 16:40:46.179370,-235
2021-10-14 16:40:46.179379,-146
2021-10-14 16:40:46.179387,-93
2021-10-14 16:40:46.179395,26
2021-10-14 16:40:46.179403,21
2021-10-14 16:40:46.179412,0
2021-10-14 16:40:46.179420,33
2021-10-14 16:40:46.179428,38
2021-10-14 16:40:46.179436,24
2021-10-14 16:40:46.179445,36
2021-10-14 16:40:46.179453,48
2021-10-14 16:40:46.449081,48
2021-10-14 16:40:46.449100,57
2021-10-14 16:40:46.449109,64
2021-10-14 16:40:46.449118,60
2021-10-14 16:40:46.449127,62
2021-10-14 16:40:46.449135,74
2021-10-14 16:40:46.449143,84
2021-10-14 16:40:46.449152,91
2021-10-14 16:40:46.449160,105
2021-10-14 16:40:46.449169,113
2021-10-14 16:40:46.449177,117
2021-10-14 16:40:46.449185,132
2021-10-14 16:40:46.449194,146
2021-10-14 16:40:46.449202,146
2021-10-14 16:40:46.449210,144
2021-10-14 16:40:46.449218,134
2021-10-14 16:40:46.449227,120
2021-10-14 16:40:46.449235,105
2021-10-14 16:40:46.449244,84
2021-10-14 16:40:46.449252,60
2021-10-14 16:40:46.449260,24
2021-10-14 16:40:46.449269,-33
2021-10-14 16:40:46.449277,-72
2021-10-14 16:40:46.449285,-84
2021-10-14 16:40:46.449294,-101
2021-10-14 16:40:46.449302,-125
2021-10-14 16:40:46.449311,-144
2021-10-14 16:40:46.449319,-158
2021-10-14 16:40:46.449327,-168
2021-10-14 16:40:46.449335,-168
2021-10-14 16:40:46.718604,-165
2021-10-14 16:40:46.718625,-163
2021-10-14 16:40:46.718635,-165
2021-10-14 16:40:46.718643,-170
2021-10-14 16:40:46.718651,-163
2021-10-14 16:40:46.718660,-153
2021-10-14 16:40:46.718668,-139
2021-10-14 16:40:46.718676,-129
2021-10-14 16:40:46.718684,-134
2021-10-14 16:40:46.718692,-141
2021-10-14 16:40:46.718700,-127
2021-10-14 16:40:46.718709,-115
2021-10-14 16:40:46.718717,-110
2021-10-14 16:40:46.718725,-105
2021-10-14 16:40:46.718733,-110
2021-10-14 16:40:46.718741,-117
2021-10-14 16:40:46.718749,-108
2021-10-14 16:40:46.718758,-96
2021-10-14 16:40:46.718766,-93
2021-10-14 16:40:46.718774,-93
2021-10-14 16:40:46.718782,-93
2021-10-14 16:40:46.718790,-93
2021-10-14 16:40:46.718799,-91
2021-10-14 16:40:46.718807,-91
2021-10-14 16:40:46.718815,-88
2021-10-14 16:40:46.718823,-93
2021-10-14 16:40:46.718831,-108
2021-10-14 16:40:46.718840,-113
2021-10-14 16:40:46.718848,-101
2021-10-14 16:40:46.718856,-93
2021-10-14 16:40:46.899562,-91
2021-10-14 16:40:46.899582,-91
2021-10-14 16:40:46.899591,-91
2021-10-14 16:40:46.899600,-86
2021-10-14 16:40:46.899608,-79
2021-10-14 16:40:46.899616,-79
2021-10-14 16:40:46.899624,-79
2021-10-14 16:40:46.899633,-76
2021-10-14 16:40:46.899641,-74
2021-10-14 16:40:46.899649,-60
2021-10-14 16:40:46.899658,-43
2021-10-14 16:40:46.899666,-38
2021-10-14 16:40:46.899674,-33
2021-10-14 16:40:46.899682,-45
2021-10-14 16:40:46.899690,-79
2021-10-14 16:40:46.899699,-96
2021-10-14 16:40:46.899707,-84
2021-10-14 16:40:46.899715,-74
2021-10-14 16:40:46.899724,-72
2021-10-14 16:40:46.899732,-69
2021-10-14 16:40:46.899740,-69
2021-10-14 16:40:46.899748,-64
2021-10-14 16:40:46.899757,-57
2021-10-14 16:40:46.899765,-55
2021-10-14 16:40:46.899773,-52
2021-10-14 16:40:46.899781,-31
2021-10-14 16:40:46.899790,115
2021-10-14 16:40:46.899798,480
2021-10-14 16:40:46.899806,764
2021-10-14 16:40:46.899814,334
2021-10-14 16:40:47.124658,-694
2021-10-14 16:40:47.124678,-1149
2021-10-14 16:40:47.124688,-658
2021-10-14 16:40:47.124697,-206
2021-10-14 16:40:47.124705,-134
2021-10-14 16:40:47.124713,-26
2021-10-14 16:40:47.124722,69
2021-10-14 16:40:47.124730,36
2021-10-14 16:40:47.124738,28
2021-10-14 16:40:47.124747,64
2021-10-14 16:40:47.124755,64
2021-10-14 16:40:47.124763,57
2021-10-14 16:40:47.124772,67
2021-10-14 16:40:47.124780,62
2021-10-14 16:40:47.124788,62
2021-10-14 16:40:47.124797,79
2021-10-14 16:40:47.124805,88
2021-10-14 16:40:47.124813,93
2021-10-14 16:40:47.124822,105
2021-10-14 16:40:47.124830,115
2021-10-14 16:40:47.124838,117
2021-10-14 16:40:47.124847,125
2021-10-14 16:40:47.124855,137
2021-10-14 16:40:47.124863,161
2021-10-14 16:40:47.124871,173
2021-10-14 16:40:47.124879,170
2021-10-14 16:40:47.124888,175
2021-10-14 16:40:47.124896,180
2021-10-14 16:40:47.124904,177
2021-10-14 16:40:47.124912,173
2021-10-14 16:40:47.393615,151
2021-10-14 16:40:47.393634,120
2021-10-14 16:40:47.393643,91
2021-10-14 16:40:47.393652,52
2021-10-14 16:40:47.393660,19
2021-10-14 16:40:47.393669,-7
2021-10-14 16:40:47.393677,-45
2021-10-14 16:40:47.393686,-86
2021-10-14 16:40:47.393694,-110
2021-10-14 16:40:47.393702,-125
2021-10-14 16:40:47.393711,-129
2021-10-14 16:40:47.393719,-129
2021-10-14 16:40:47.393727,-137
2021-10-14 16:40:47.393735,-144
2021-10-14 16:40:47.393744,-134
2021-10-14 16:40:47.393752,-132
2021-10-14 16:40:47.393761,-134
2021-10-14 16:40:47.393769,-125
2021-10-14 16:40:47.393777,-115
2021-10-14 16:40:47.393785,-117
2021-10-14 16:40:47.393794,-115
2021-10-14 16:40:47.393802,-110
2021-10-14 16:40:47.393810,-103
2021-10-14 16:40:47.393819,-93
2021-10-14 16:40:47.393827,-86
2021-10-14 16:40:47.393835,-84
2021-10-14 16:40:47.393843,-86
2021-10-14 16:40:47.393852,-91
2021-10-14 16:40:47.393860,-93
2021-10-14 16:40:47.393868,-93
2021-10-14 16:40:47.574619,-93
2021-10-14 16:40:47.574640,-91
2021-10-14 16:40:47.574650,-88
2021-10-14 16:40:47.574658,-91
2021-10-14 16:40:47.574667,-88
2021-10-14 16:40:47.574675,-96
2021-10-14 16:40:47.574684,-103
2021-10-14 16:40:47.574692,-91
2021-10-14 16:40:47.574700,-81
2021-10-14 16:40:47.574708,-86
2021-10-14 16:40:47.574717,-74
2021-10-14 16:40:47.574725,-60
2021-10-14 16:40:47.574733,-62
2021-10-14 16:40:47.574741,-64
2021-10-14 16:40:47.574750,-48
2021-10-14 16:40:47.574758,-38
2021-10-14 16:40:47.574766,-60
2021-10-14 16:40:47.574774,-88
2021-10-14 16:40:47.574782,-91
2021-10-14 16:40:47.574790,-76
2021-10-14 16:40:47.574799,-69
2021-10-14 16:40:47.574807,-72
2021-10-14 16:40:47.574815,-67
2021-10-14 16:40:47.574823,-64
2021-10-14 16:40:47.574832,-62
2021-10-14 16:40:47.574840,-52
2021-10-14 16:40:47.574848,-40
2021-10-14 16:40:47.574856,-21
2021-10-14 16:40:47.574865,57
2021-10-14 16:40:47.574873,319
2021-10-14 16:40:47.843273,694
2021-10-14 16:40:47.843294,661
2021-10-14 16:40:47.843303,-209
2021-10-14 16:40:47.843312,-1091
2021-10-14 16:40:47.843320,-952
2021-10-14 16:40:47.843329,-396
2021-10-14 16:40:47.843337,-211
2021-10-14 16:40:47.843345,-113
2021-10-14 16:40:47.843354,31
2021-10-14 16:40:47.843362,38
2021-10-14 16:40:47.843370,12
2021-10-14 16:40:47.843379,43
2021-10-14 16:40:47.843387,57
2021-10-14 16:40:47.843395,52
2021-10-14 16:40:47.843403,57
2021-10-14 16:40:47.843412,67
2021-10-14 16:40:47.843420,76
2021-10-14 16:40:47.843428,79
2021-10-14 16:40:47.843436,84
2021-10-14 16:40:47.843445,93
2021-10-14 16:40:47.843453,110
2021-10-14 16:40:47.843461,125
2021-10-14 16:40:47.843469,132
2021-10-14 16:40:47.843477,137
2021-10-14 16:40:47.843485,151
2021-10-14 16:40:47.843494,177
2021-10-14 16:40:47.843502,192
2021-10-14 16:40:47.843510,199
2021-10-14 16:40:47.843519,209
2021-10-14 16:40:47.843527,214
2021-10-14 16:40:48.068632,211
2021-10-14 16:40:48.068653,209
2021-10-14 16:40:48.068662,199
2021-10-14 16:40:48.068671,163
2021-10-14 16:40:48.068680,120
2021-10-14 16:40:48.068688,86
2021-10-14 16:40:48.068696,57
2021-10-14 16:40:48.068705,24
2021-10-14 16:40:48.068713,-16
2021-10-14 16:40:48.068722,-52
2021-10-14 16:40:48.068730,-81
2021-10-14 16:40:48.068738,-98
2021-10-14 16:40:48.068747,-108
2021-10-14 16:40:48.068755,-110
2021-10-14 16:40:48.068763,-110
2021-10-14 16:40:48.068771,-113
2021-10-14 16:40:48.068780,-115
2021-10-14 16:40:48.068788,-108
2021-10-14 16:40:48.068796,-93
2021-10-14 16:40:48.068804,-88
2021-10-14 16:40:48.068813,-86
2021-10-14 16:40:48.068821,-84
2021-10-14 16:40:48.068829,-76
2021-10-14 16:40:48.068837,-67
2021-10-14 16:40:48.068846,-52
2021-10-14 16:40:48.068854,-45
2021-10-14 16:40:48.068862,-48
2021-10-14 16:40:48.068870,-50
2021-10-14 16:40:48.068879,-40
2021-10-14 16:40:48.068887,-38
2021-10-14 16:40:48.339005,-40
2021-10-14 16:40:48.339026,-31
2021-10-14 16:40:48.339035,-24
2021-10-14 16:40:48.339044,-33
2021-10-14 16:40:48.339052,-48
2021-10-14 16:40:48.339060,-55
2021-10-14 16:40:48.339069,-52
2021-10-14 16:40:48.339077,-50
2021-10-14 16:40:48.339085,-50
2021-10-14 16:40:48.339093,-50
2021-10-14 16:40:48.339102,-50
2021-10-14 16:40:48.339110,-55
2021-10-14 16:40:48.339118,-55
2021-10-14 16:40:48.339126,-52
2021-10-14 16:40:48.339134,-62
2021-10-14 16:40:48.339143,-72
2021-10-14 16:40:48.339151,-69
2021-10-14 16:40:48.339159,-57
2021-10-14 16:40:48.339167,-52
2021-10-14 16:40:48.339176,-55
2021-10-14 16:40:48.339184,-45
2021-10-14 16:40:48.339192,-40
2021-10-14 16:40:48.339201,-64
2021-10-14 16:40:48.339209,-86
2021-10-14 16:40:48.339217,-84
2021-10-14 16:40:48.339225,-76
2021-10-14 16:40:48.339233,-81
2021-10-14 16:40:48.339242,-84
2021-10-14 16:40:48.339250,-72
2021-10-14 16:40:48.339258,-64
2021-10-14 16:40:48.609246,-62
2021-10-14 16:40:48.609267,-52
2021-10-14 16:40:48.609277,-43
2021-10-14 16:40:48.609285,-38
2021-10-14 16:40:48.609294,21
2021-10-14 16:40:48.609302,257
2021-10-14 16:40:48.609311,646
2021-10-14 16:40:48.609331,721
2021-10-14 16:40:48.609339,-50
2021-10-14 16:40:48.609347,-1034
2021-10-14 16:40:48.609356,-1055
2021-10-14 16:40:48.609364,-442
2021-10-14 16:40:48.609372,-168
2021-10-14 16:40:48.609381,-108
2021-10-14 16:40:48.609389,24
2021-10-14 16:40:48.609397,55
2021-10-14 16:40:48.609406,19
2021-10-14 16:40:48.609414,48
2021-10-14 16:40:48.609423,72
2021-10-14 16:40:48.609431,64
2021-10-14 16:40:48.609439,64
2021-10-14 16:40:48.609448,74
2021-10-14 16:40:48.609456,81
2021-10-14 16:40:48.609464,91
2021-10-14 16:40:48.609473,98
2021-10-14 16:40:48.609481,103
2021-10-14 16:40:48.609490,110
2021-10-14 16:40:48.609498,120
2021-10-14 16:40:48.609507,132
2021-10-14 16:40:48.609515,144
2021-10-14 16:40:48.744530,156
2021-10-14 16:40:48.744548,165
2021-10-14 16:40:48.744557,175
2021-10-14 16:40:48.744566,187
2021-10-14 16:40:48.744574,202
2021-10-14 16:40:48.744582,204
2021-10-14 16:40:48.744591,202
2021-10-14 16:40:48.744599,202
2021-10-14 16:40:48.744607,182
2021-10-14 16:40:48.744616,151
2021-10-14 16:40:48.744624,125
2021-10-14 16:40:48.744632,101
2021-10-14 16:40:48.744640,67
2021-10-14 16:40:48.744649,28
2021-10-14 16:40:48.744657,-14
2021-10-14 16:40:48.744665,-48
2021-10-14 16:40:48.744673,-62
2021-10-14 16:40:48.744682,-79
2021-10-14 16:40:48.744690,-96
2021-10-14 16:40:48.744698,-103
2021-10-14 16:40:48.744706,-110
2021-10-14 16:40:48.744715,-120
2021-10-14 16:40:48.744723,-115
2021-10-14 16:40:48.744731,-105
2021-10-14 16:40:48.744739,-105
2021-10-14 16:40:48.744748,-105
2021-10-14 16:40:48.744756,-103
2021-10-14 16:40:48.744764,-98
2021-10-14 16:40:48.744772,-91
2021-10-14 16:40:48.744780,-84
2021-10-14 16:40:49.014538,-76
2021-10-14 16:40:49.014556,-72
2021-10-14 16:40:49.014565,-67
2021-10-14 16:40:49.014573,-60
2021-10-14 16:40:49.014582,-57
2021-10-14 16:40:49.014590,-52
2021-10-14 16:40:49.014599,-52
2021-10-14 16:40:49.014607,-50
2021-10-14 16:40:49.014615,-50
2021-10-14 16:40:49.014624,-50
2021-10-14 16:40:49.014632,-52
2021-10-14 16:40:49.014640,-57
2021-10-14 16:40:49.014649,-60
2021-10-14 16:40:49.014657,-62
2021-10-14 16:40:49.014665,-64
2021-10-14 16:40:49.014674,-64
2021-10-14 16:40:49.014682,-62
2021-10-14 16:40:49.014690,-62
2021-10-14 16:40:49.014698,-62
2021-10-14 16:40:49.014707,-57
2021-10-14 16:40:49.014715,-55
2021-10-14 16:40:49.014723,-50
2021-10-14 16:40:49.014731,-48
2021-10-14 16:40:49.014739,-45
2021-10-14 16:40:49.014747,-45
2021-10-14 16:40:49.014756,-38
2021-10-14 16:40:49.014764,-36
2021-10-14 16:40:49.014772,-38
2021-10-14 16:40:49.014780,-36
2021-10-14 16:40:49.014788,-28
2021-10-14 16:40:49.194177,-24
2021-10-14 16:40:49.194196,-19
2021-10-14 16:40:49.194205,-7
2021-10-14 16:40:49.194214,4
2021-10-14 16:40:49.194222,-7
2021-10-14 16:40:49.194231,-36
2021-10-14 16:40:49.194239,-55
2021-10-14 16:40:49.194247,-60
2021-10-14 16:40:49.194256,-57
2021-10-14 16:40:49.194264,-57
2021-10-14 16:40:49.194272,-62
2021-10-14 16:40:49.194281,-67
2021-10-14 16:40:49.194289,-72
2021-10-14 16:40:49.194297,-72
2021-10-14 16:40:49.194306,-67
2021-10-14 16:40:49.194314,-60
2021-10-14 16:40:49.194322,-38
2021-10-14 16:40:49.194330,67
2021-10-14 16:40:49.194339,372
2021-10-14 16:40:49.194347,723
2021-10-14 16:40:49.194355,526
2021-10-14 16:40:49.194364,-435
2021-10-14 16:40:49.194372,-1168
2021-10-14 16:40:49.194380,-841
2021-10-14 16:40:49.194388,-262
2021-10-14 16:40:49.194396,-139
2021-10-14 16:40:49.194405,-88
2021-10-14 16:40:49.194413,21
2021-10-14 16:40:49.194421,21
2021-10-14 16:40:49.194429,0
2021-10-14 16:40:49.419628,31
2021-10-14 16:40:49.419648,48
2021-10-14 16:40:49.419657,45
2021-10-14 16:40:49.419666,50
2021-10-14 16:40:49.419674,55
2021-10-14 16:40:49.419683,52
2021-10-14 16:40:49.419691,55
2021-10-14 16:40:49.419699,64
2021-10-14 16:40:49.419708,74
2021-10-14 16:40:49.419716,79
2021-10-14 16:40:49.419724,88
2021-10-14 16:40:49.419733,101
2021-10-14 16:40:49.419741,105
2021-10-14 16:40:49.419749,120
2021-10-14 16:40:49.419758,129
2021-10-14 16:40:49.419766,127
2021-10-14 16:40:49.419775,134
2021-10-14 16:40:49.419783,146
2021-10-14 16:40:49.419791,153
2021-10-14 16:40:49.419800,153
2021-10-14 16:40:49.419808,144
2021-10-14 16:40:49.419816,129
2021-10-14 16:40:49.419825,115
2021-10-14 16:40:49.419833,91
2021-10-14 16:40:49.419841,60
2021-10-14 16:40:49.419849,31
2021-10-14 16:40:49.419857,2
2021-10-14 16:40:49.419866,-31
2021-10-14 16:40:49.419874,-57
2021-10-14 16:40:49.419883,-76
2021-10-14 16:40:49.778640,-86
2021-10-14 16:40:49.778661,-91
2021-10-14 16:40:49.778670,-98
2021-10-14 16:40:49.778679,-103
2021-10-14 16:40:49.778687,-105
2021-10-14 16:40:49.778696,-108
2021-10-14 16:40:49.778704,-115
2021-10-14 16:40:49.778712,-108
2021-10-14 16:40:49.778721,-98
2021-10-14 16:40:49.778729,-96
2021-10-14 16:40:49.778737,-96
2021-10-14 16:40:49.778745,-91
2021-10-14 16:40:49.778753,-84
2021-10-14 16:40:49.778762,-76
2021-10-14 16:40:49.778770,-67
2021-10-14 16:40:49.778778,-55
2021-10-14 16:40:49.778786,-52
2021-10-14 16:40:49.778794,-57
2021-10-14 16:40:49.778803,-57
2021-10-14 16:40:49.778811,-48
2021-10-14 16:40:49.778819,-40
2021-10-14 16:40:49.778827,-40
2021-10-14 16:40:49.778836,-45
2021-10-14 16:40:49.778844,-43
2021-10-14 16:40:49.778852,-40
2021-10-14 16:40:49.778860,-36
2021-10-14 16:40:49.778869,-31
2021-10-14 16:40:49.778877,-33
2021-10-14 16:40:49.778885,-43
2021-10-14 16:40:49.778893,-48
2021-10-14 16:40:49.912871,-40
2021-10-14 16:40:49.912892,-38
2021-10-14 16:40:49.912901,-45
2021-10-14 16:40:49.912910,-52
2021-10-14 16:40:49.912918,-52
2021-10-14 16:40:49.912927,-52
2021-10-14 16:40:49.912935,-50
2021-10-14 16:40:49.912943,-40
2021-10-14 16:40:49.912952,-33
2021-10-14 16:40:49.912960,-33
2021-10-14 16:40:49.912968,-36
2021-10-14 16:40:49.912977,-38
2021-10-14 16:40:49.912985,-31
2021-10-14 16:40:49.912993,-21
2021-10-14 16:40:49.913001,-14
2021-10-14 16:40:49.913009,-9
2021-10-14 16:40:49.913018,-4
2021-10-14 16:40:49.913026,16
2021-10-14 16:40:49.913034,28
2021-10-14 16:40:49.913043,2
2021-10-14 16:40:49.913051,-28
2021-10-14 16:40:49.913059,-26
2021-10-14 16:40:49.913067,-16
2021-10-14 16:40:49.913075,-12
2021-10-14 16:40:49.913083,-7
2021-10-14 16:40:49.913091,-2
2021-10-14 16:40:49.913099,-2
2021-10-14 16:40:49.913107,-4
2021-10-14 16:40:49.913115,-4
2021-10-14 16:40:49.913123,7
2021-10-14 16:40:50.229026,21
2021-10-14 16:40:50.229047,67
2021-10-14 16:40:50.229056,252
2021-10-14 16:40:50.229065,613
2021-10-14 16:40:50.229073,783
2021-10-14 16:40:50.229082,189
2021-10-14 16:40:50.229090,-800
2021-10-14 16:40:50.229098,-1022
2021-10-14 16:40:50.229106,-490
2021-10-14 16:40:50.229115,-165
2021-10-14 16:40:50.229123,-98
2021-10-14 16:40:50.229131,48
2021-10-14 16:40:50.229139,127
2021-10-14 16:40:50.229147,93
2021-10-14 16:40:50.229156,108
2021-10-14 16:40:50.229164,132
2021-10-14 16:40:50.229172,117
2021-10-14 16:40:50.229180,125
2021-10-14 16:40:50.229189,151
2021-10-14 16:40:50.229197,161
2021-10-14 16:40:50.229205,161
2021-10-14 16:40:50.229213,170
2021-10-14 16:40:50.229221,177
2021-10-14 16:40:50.229230,185
2021-10-14 16:40:50.229238,206
2021-10-14 16:40:50.229246,223
2021-10-14 16:40:50.229254,228
2021-10-14 16:40:50.229262,238
2021-10-14 16:40:50.229271,257
2021-10-14 16:40:50.229279,276
2021-10-14 16:40:50.409581,288
2021-10-14 16:40:50.409600,303
2021-10-14 16:40:50.409609,310
2021-10-14 16:40:50.409618,307
2021-10-14 16:40:50.409626,310
2021-10-14 16:40:50.409635,307
2021-10-14 16:40:50.409643,286
2021-10-14 16:40:50.409651,254
2021-10-14 16:40:50.409659,223
2021-10-14 16:40:50.409667,189
2021-10-14 16:40:50.409675,153
2021-10-14 16:40:50.409684,127
2021-10-14 16:40:50.409692,105
2021-10-14 16:40:50.409700,79
2021-10-14 16:40:50.409708,50
2021-10-14 16:40:50.409716,36
2021-10-14 16:40:50.409724,40
2021-10-14 16:40:50.409733,48
2021-10-14 16:40:50.409741,50
2021-10-14 16:40:50.409749,50
2021-10-14 16:40:50.409757,48
2021-10-14 16:40:50.409766,48
2021-10-14 16:40:50.409774,55
2021-10-14 16:40:50.409782,55
2021-10-14 16:40:50.409790,57
2021-10-14 16:40:50.409798,72
2021-10-14 16:40:50.409807,76
2021-10-14 16:40:50.409815,74
2021-10-14 16:40:50.409823,84
2021-10-14 16:40:50.409831,96
2021-10-14 16:40:50.589279,98
2021-10-14 16:40:50.589299,105
2021-10-14 16:40:50.589309,113
2021-10-14 16:40:50.589317,113
2021-10-14 16:40:50.589326,108
2021-10-14 16:40:50.589334,115
2021-10-14 16:40:50.589342,122
2021-10-14 16:40:50.589351,117
2021-10-14 16:40:50.589359,110
2021-10-14 16:40:50.589367,110
2021-10-14 16:40:50.589376,115
2021-10-14 16:40:50.589384,117
2021-10-14 16:40:50.589392,120
2021-10-14 16:40:50.589401,113
2021-10-14 16:40:50.589409,105
2021-10-14 16:40:50.589417,110
2021-10-14 16:40:50.589425,120
2021-10-14 16:40:50.589434,122
2021-10-14 16:40:50.589442,122
2021-10-14 16:40:50.589450,117
2021-10-14 16:40:50.589458,105
2021-10-14 16:40:50.589467,103
2021-10-14 16:40:50.589475,110
2021-10-14 16:40:50.589484,115
2021-10-14 16:40:50.589492,113
2021-10-14 16:40:50.589500,105
2021-10-14 16:40:50.589509,101
2021-10-14 16:40:50.589517,105
2021-10-14 16:40:50.589525,117
2021-10-14 16:40:50.589533,122
2021-10-14 16:40:50.859657,127
2021-10-14 16:40:50.859677,125
2021-10-14 16:40:50.859687,127
2021-10-14 16:40:50.859695,141
2021-10-14 16:40:50.859704,137
2021-10-14 16:40:50.859712,105
2021-10-14 16:40:50.859721,91
2021-10-14 16:40:50.859729,86
2021-10-14 16:40:50.859738,76
2021-10-14 16:40:50.859746,74
2021-10-14 16:40:50.859754,76
2021-10-14 16:40:50.859762,72
2021-10-14 16:40:50.859771,60
2021-10-14 16:40:50.859779,45
2021-10-14 16:40:50.859787,50
2021-10-14 16:40:50.859796,62
2021-10-14 16:40:50.859804,72
2021-10-14 16:40:50.859812,170
2021-10-14 16:40:50.859820,483
2021-10-14 16:40:50.859829,836
2021-10-14 16:40:50.859837,625
2021-10-14 16:40:50.859845,-353
2021-10-14 16:40:50.859854,-1084
2021-10-14 16:40:50.859862,-750
2021-10-14 16:40:50.859871,-189
2021-10-14 16:40:50.859879,-74
2021-10-14 16:40:50.859887,4
2021-10-14 16:40:50.859895,132
2021-10-14 16:40:50.859904,120
2021-10-14 16:40:50.859912,98
2021-10-14 16:40:51.039591,137
2021-10-14 16:40:51.039610,139
2021-10-14 16:40:51.039620,127
2021-10-14 16:40:51.039628,139
2021-10-14 16:40:51.039637,149
2021-10-14 16:40:51.039645,151
2021-10-14 16:40:51.039654,153
2021-10-14 16:40:51.039663,151
2021-10-14 16:40:51.039671,153
2021-10-14 16:40:51.039679,163
2021-10-14 16:40:51.039688,170
2021-10-14 16:40:51.039696,187
2021-10-14 16:40:51.039704,199
2021-10-14 16:40:51.039713,206
2021-10-14 16:40:51.039721,223
2021-10-14 16:40:51.039730,238
2021-10-14 16:40:51.039738,240
2021-10-14 16:40:51.039746,242
2021-10-14 16:40:51.039755,240
2021-10-14 16:40:51.039763,240
2021-10-14 16:40:51.039771,235
2021-10-14 16:40:51.039779,216
2021-10-14 16:40:51.039788,187
2021-10-14 16:40:51.039796,168
2021-10-14 16:40:51.039804,141
2021-10-14 16:40:51.039813,101
2021-10-14 16:40:51.039821,60
2021-10-14 16:40:51.039830,28
2021-10-14 16:40:51.039838,12
2021-10-14 16:40:51.039846,-14
2021-10-14 16:40:51.264222,-40
2021-10-14 16:40:51.264241,-52
2021-10-14 16:40:51.264250,-52
2021-10-14 16:40:51.264259,-57
2021-10-14 16:40:51.264267,-60
2021-10-14 16:40:51.264275,-57
2021-10-14 16:40:51.264284,-62
2021-10-14 16:40:51.264292,-60
2021-10-14 16:40:51.264300,-55
2021-10-14 16:40:51.264309,-48
2021-10-14 16:40:51.264317,-36
2021-10-14 16:40:51.264325,-33
2021-10-14 16:40:51.264334,-45
2021-10-14 16:40:51.264342,-38
2021-10-14 16:40:51.264350,-24
2021-10-14 16:40:51.264359,-19
2021-10-14 16:40:51.264367,-14
2021-10-14 16:40:51.264375,-16
2021-10-14 16:40:51.264383,-28
2021-10-14 16:40:51.264392,-26
2021-10-14 16:40:51.264400,-9
2021-10-14 16:40:51.264409,-7
2021-10-14 16:40:51.264417,-9
2021-10-14 16:40:51.264425,-14
2021-10-14 16:40:51.264434,-14
2021-10-14 16:40:51.264442,-9
2021-10-14 16:40:51.264450,-4
2021-10-14 16:40:51.264459,-7
2021-10-14 16:40:51.264467,-9
2021-10-14 16:40:51.264475,-12
2021-10-14 16:40:51.489582,-14
2021-10-14 16:40:51.489600,-16
2021-10-14 16:40:51.489610,-24
2021-10-14 16:40:51.489618,-26
2021-10-14 16:40:51.489627,-19
2021-10-14 16:40:51.489635,-24
2021-10-14 16:40:51.489643,-31
2021-10-14 16:40:51.489651,-26
2021-10-14 16:40:51.489660,-19
2021-10-14 16:40:51.489668,-24
2021-10-14 16:40:51.489676,-24
2021-10-14 16:40:51.489684,-26
2021-10-14 16:40:51.489693,-36
2021-10-14 16:40:51.489701,-38
2021-10-14 16:40:51.489709,-36
2021-10-14 16:40:51.489718,-33
2021-10-14 16:40:51.489726,-31
2021-10-14 16:40:51.489734,-31
2021-10-14 16:40:51.489743,-36
2021-10-14 16:40:51.489751,-43
2021-10-14 16:40:51.489759,-48
2021-10-14 16:40:51.489767,-48
2021-10-14 16:40:51.489776,-40
2021-10-14 16:40:51.489784,-31
2021-10-14 16:40:51.489792,-28
2021-10-14 16:40:51.489800,-19
2021-10-14 16:40:51.489809,-7
2021-10-14 16:40:51.489817,-26
2021-10-14 16:40:51.489825,-64
2021-10-14 16:40:51.489834,-67
2021-10-14 16:40:51.714636,-52
2021-10-14 16:40:51.714657,-57
2021-10-14 16:40:51.714667,-64
2021-10-14 16:40:51.714675,-69
2021-10-14 16:40:51.714684,-79
2021-10-14 16:40:51.714692,-81
2021-10-14 16:40:51.714701,-69
2021-10-14 16:40:51.714709,-60
2021-10-14 16:40:51.714718,-55
2021-10-14 16:40:51.714726,-31
2021-10-14 16:40:51.714734,110
2021-10-14 16:40:51.714743,461
2021-10-14 16:40:51.714751,747
2021-10-14 16:40:51.714759,353
2021-10-14 16:40:51.714768,-661
2021-10-14 16:40:51.714776,-1166
2021-10-14 16:40:51.714785,-685
2021-10-14 16:40:51.714793,-197
2021-10-14 16:40:51.714801,-139
2021-10-14 16:40:51.714809,-60
2021-10-14 16:40:51.714818,48
2021-10-14 16:40:51.714826,26
2021-10-14 16:40:51.714834,9
2021-10-14 16:40:51.714843,38
2021-10-14 16:40:51.714851,28
2021-10-14 16:40:51.714859,19
2021-10-14 16:40:51.714868,38
2021-10-14 16:40:51.714876,48
2021-10-14 16:40:51.714884,45
2021-10-14 16:40:51.714893,52
2021-10-14 16:40:51.982965,64
2021-10-14 16:40:51.982986,72
2021-10-14 16:40:51.982995,79
2021-10-14 16:40:51.983004,79
2021-10-14 16:40:51.983012,74
2021-10-14 16:40:51.983021,86
2021-10-14 16:40:51.983029,103
2021-10-14 16:40:51.983038,113
2021-10-14 16:40:51.983046,125
2021-10-14 16:40:51.983054,122
2021-10-14 16:40:51.983063,115
2021-10-14 16:40:51.983071,122
2021-10-14 16:40:51.983079,137
2021-10-14 16:40:51.983088,129
2021-10-14 16:40:51.983096,105
2021-10-14 16:40:51.983104,81
2021-10-14 16:40:51.983113,60
2021-10-14 16:40:51.983121,36
2021-10-14 16:40:51.983129,7
2021-10-14 16:40:51.983138,-24
2021-10-14 16:40:51.983146,-55
2021-10-14 16:40:51.983154,-79
2021-10-14 16:40:51.983163,-101
2021-10-14 16:40:51.983171,-120
2021-10-14 16:40:51.983179,-125
2021-10-14 16:40:51.983188,-120
2021-10-14 16:40:51.983196,-127
2021-10-14 16:40:51.983204,-139
2021-10-14 16:40:51.983213,-137
2021-10-14 16:40:51.983221,-129
2021-10-14 16:40:52.209664,-125
2021-10-14 16:40:52.209685,-120
2021-10-14 16:40:52.209695,-122
2021-10-14 16:40:52.209703,-127
2021-10-14 16:40:52.209712,-120
2021-10-14 16:40:52.209720,-103
2021-10-14 16:40:52.209729,-98
2021-10-14 16:40:52.209737,-103
2021-10-14 16:40:52.209746,-105
2021-10-14 16:40:52.209754,-108
2021-10-14 16:40:52.209763,-103
2021-10-14 16:40:52.209771,-96
2021-10-14 16:40:52.209779,-93
2021-10-14 16:40:52.209787,-86
2021-10-14 16:40:52.209795,-76
2021-10-14 16:40:52.209803,-84
2021-10-14 16:40:52.209812,-88
2021-10-14 16:40:52.209820,-81
2021-10-14 16:40:52.209828,-81
2021-10-14 16:40:52.209836,-91
2021-10-14 16:40:52.209845,-96
2021-10-14 16:40:52.209853,-93
2021-10-14 16:40:52.209861,-91
2021-10-14 16:40:52.209870,-91
2021-10-14 16:40:52.209878,-93
2021-10-14 16:40:52.209886,-96
2021-10-14 16:40:52.209894,-101
2021-10-14 16:40:52.209902,-115
2021-10-14 16:40:52.209911,-113
2021-10-14 16:40:52.209919,-110
2021-10-14 16:40:52.478608,-122
2021-10-14 16:40:52.478627,-120
2021-10-14 16:40:52.478637,-113
2021-10-14 16:40:52.478645,-117
2021-10-14 16:40:52.478654,-120
2021-10-14 16:40:52.478662,-113
2021-10-14 16:40:52.478670,-108
2021-10-14 16:40:52.478679,-103
2021-10-14 16:40:52.478687,-108
2021-10-14 16:40:52.478708,-120
2021-10-14 16:40:52.478717,-125
2021-10-14 16:40:52.478725,-115
2021-10-14 16:40:52.478733,-103
2021-10-14 16:40:52.478742,-103
2021-10-14 16:40:52.478749,-115
2021-10-14 16:40:52.478758,-117
2021-10-14 16:40:52.478766,-103
2021-10-14 16:40:52.478775,-93
2021-10-14 16:40:52.478783,-88
2021-10-14 16:40:52.478791,-79
2021-10-14 16:40:52.478800,-67
2021-10-14 16:40:52.478808,-64
2021-10-14 16:40:52.478816,-60
2021-10-14 16:40:52.478824,-40
2021-10-14 16:40:52.478833,-43
2021-10-14 16:40:52.478841,-72
2021-10-14 16:40:52.478850,-86
2021-10-14 16:40:52.478858,-81
2021-10-14 16:40:52.478866,-79
2021-10-14 16:40:52.478875,-76
2021-10-14 16:40:52.707472,-67
2021-10-14 16:40:52.707492,-67
2021-10-14 16:40:52.707501,-72
2021-10-14 16:40:52.707509,-62
2021-10-14 16:40:52.707518,-50
2021-10-14 16:40:52.707526,-48
2021-10-14 16:40:52.707535,-36
2021-10-14 16:40:52.707543,40
2021-10-14 16:40:52.707552,295
2021-10-14 16:40:52.707560,666
2021-10-14 16:40:52.707569,630
2021-10-14 16:40:52.707577,-199
2021-10-14 16:40:52.707586,-1046
2021-10-14 16:40:52.707594,-921
2021-10-14 16:40:52.707602,-367
2021-10-14 16:40:52.707611,-177
2021-10-14 16:40:52.707619,-105
2021-10-14 16:40:52.707627,21
2021-10-14 16:40:52.707635,38
2021-10-14 16:40:52.707644,16
2021-10-14 16:40:52.707652,50
2021-10-14 16:40:52.707660,57
2021-10-14 16:40:52.707668,43
2021-10-14 16:40:52.707677,60
2021-10-14 16:40:52.707685,76
2021-10-14 16:40:52.707693,74
2021-10-14 16:40:52.707701,76
2021-10-14 16:40:52.707710,81
2021-10-14 16:40:52.707718,84
2021-10-14 16:40:52.707726,98
2021-10-14 16:40:52.884592,115
2021-10-14 16:40:52.884610,117
2021-10-14 16:40:52.884620,117
2021-10-14 16:40:52.884628,129
2021-10-14 16:40:52.884637,146
2021-10-14 16:40:52.884645,158
2021-10-14 16:40:52.884654,149
2021-10-14 16:40:52.884662,146
2021-10-14 16:40:52.884670,156
2021-10-14 16:40:52.884678,156
2021-10-14 16:40:52.884687,149
2021-10-14 16:40:52.884695,144
2021-10-14 16:40:52.884703,132
2021-10-14 16:40:52.884712,108
2021-10-14 16:40:52.884720,79
2021-10-14 16:40:52.884728,43
2021-10-14 16:40:52.884737,9
2021-10-14 16:40:52.884745,-21
2021-10-14 16:40:52.884753,-55
2021-10-14 16:40:52.884762,-84
2021-10-14 16:40:52.884770,-93
2021-10-14 16:40:52.884778,-101
2021-10-14 16:40:52.884787,-113
2021-10-14 16:40:52.884795,-122
2021-10-14 16:40:52.884803,-125
2021-10-14 16:40:52.884812,-115
2021-10-14 16:40:52.884820,-110
2021-10-14 16:40:52.884828,-115
2021-10-14 16:40:52.884836,-105
2021-10-14 16:40:52.884845,-96
2021-10-14 16:40:53.199278,-105
2021-10-14 16:40:53.199298,-101
2021-10-14 16:40:53.199307,-88
2021-10-14 16:40:53.199316,-86
2021-10-14 16:40:53.199324,-81
2021-10-14 16:40:53.199332,-74
2021-10-14 16:40:53.199341,-76
2021-10-14 16:40:53.199349,-79
2021-10-14 16:40:53.199357,-76
2021-10-14 16:40:53.199365,-79
2021-10-14 16:40:53.199374,-84
2021-10-14 16:40:53.199382,-86
2021-10-14 16:40:53.199390,-91
2021-10-14 16:40:53.199399,-91
2021-10-14 16:40:53.199407,-86
2021-10-14 16:40:53.199415,-88
2021-10-14 16:40:53.199423,-101
2021-10-14 16:40:53.199432,-98
2021-10-14 16:40:53.199440,-96
2021-10-14 16:40:53.199448,-98
2021-10-14 16:40:53.199456,-93
2021-10-14 16:40:53.199465,-86
2021-10-14 16:40:53.199473,-86
2021-10-14 16:40:53.199481,-91
2021-10-14 16:40:53.199489,-86
2021-10-14 16:40:53.199498,-69
2021-10-14 16:40:53.199506,-67
2021-10-14 16:40:53.199514,-76
2021-10-14 16:40:53.199522,-74
2021-10-14 16:40:53.199531,-64
2021-10-14 16:40:53.334248,-62
2021-10-14 16:40:53.334267,-60
2021-10-14 16:40:53.334276,-60
2021-10-14 16:40:53.334285,-60
2021-10-14 16:40:53.334293,-55
2021-10-14 16:40:53.334301,-60
2021-10-14 16:40:53.334310,-60
2021-10-14 16:40:53.334318,-52
2021-10-14 16:40:53.334326,-50
2021-10-14 16:40:53.334335,-52
2021-10-14 16:40:53.334343,-50
2021-10-14 16:40:53.334351,-48
2021-10-14 16:40:53.334360,-48
2021-10-14 16:40:53.334368,-38
2021-10-14 16:40:53.334376,-28
2021-10-14 16:40:53.334384,-21
2021-10-14 16:40:53.334393,-9
2021-10-14 16:40:53.334401,-26
2021-10-14 16:40:53.334409,-55
2021-10-14 16:40:53.334417,-52
2021-10-14 16:40:53.334425,-45
2021-10-14 16:40:53.334434,-52
2021-10-14 16:40:53.334442,-55
2021-10-14 16:40:53.334450,-57
2021-10-14 16:40:53.334458,-55
2021-10-14 16:40:53.334467,-48
2021-10-14 16:40:53.334475,-40
2021-10-14 16:40:53.334483,-33
2021-10-14 16:40:53.334491,-26
2021-10-14 16:40:53.334499,7
2021-10-14 16:40:53.604066,146
2021-10-14 16:40:53.604086,490
2021-10-14 16:40:53.604096,793
2021-10-14 16:40:53.604105,425
2021-10-14 16:40:53.604114,-601
2021-10-14 16:40:53.604122,-1149
2021-10-14 16:40:53.604130,-707
2021-10-14 16:40:53.604139,-228
2021-10-14 16:40:53.604147,-144
2021-10-14 16:40:53.604155,-28
2021-10-14 16:40:53.604163,81
2021-10-14 16:40:53.604172,48
2021-10-14 16:40:53.604180,40
2021-10-14 16:40:53.604188,86
2021-10-14 16:40:53.604197,84
2021-10-14 16:40:53.604205,67
2021-10-14 16:40:53.604264,81
2021-10-14 16:40:53.604273,91
2021-10-14 16:40:53.604282,86
2021-10-14 16:40:53.604290,98
2021-10-14 16:40:53.604299,105
2021-10-14 16:40:53.604307,101
2021-10-14 16:40:53.604315,108
2021-10-14 16:40:53.604323,122
2021-10-14 16:40:53.604332,134
2021-10-14 16:40:53.604340,141
2021-10-14 16:40:53.604348,151
2021-10-14 16:40:53.604357,163
2021-10-14 16:40:53.604365,175
2021-10-14 16:40:53.604373,187
2021-10-14 16:40:53.784250,199
2021-10-14 16:40:53.784270,209
2021-10-14 16:40:53.784279,206
2021-10-14 16:40:53.784288,187
2021-10-14 16:40:53.784296,161
2021-10-14 16:40:53.784305,141
2021-10-14 16:40:53.784313,122
2021-10-14 16:40:53.784321,91
2021-10-14 16:40:53.784330,50
2021-10-14 16:40:53.784338,4
2021-10-14 16:40:53.784346,-36
2021-10-14 16:40:53.784355,-60
2021-10-14 16:40:53.784363,-76
2021-10-14 16:40:53.784372,-96
2021-10-14 16:40:53.784380,-105
2021-10-14 16:40:53.784388,-108
2021-10-14 16:40:53.784397,-122
2021-10-14 16:40:53.784405,-144
2021-10-14 16:40:53.784413,-146
2021-10-14 16:40:53.784421,-132
2021-10-14 16:40:53.784430,-132
2021-10-14 16:40:53.784438,-139
2021-10-14 16:40:53.784446,-144
2021-10-14 16:40:53.784455,-137
2021-10-14 16:40:53.784463,-129
2021-10-14 16:40:53.784471,-127
2021-10-14 16:40:53.784480,-122
2021-10-14 16:40:53.784488,-117
2021-10-14 16:40:53.784496,-115
2021-10-14 16:40:53.784505,-103
2021-10-14 16:40:54.098918,-93
2021-10-14 16:40:54.098937,-86
2021-10-14 16:40:54.098947,-84
2021-10-14 16:40:54.098955,-93
2021-10-14 16:40:54.098964,-98
2021-10-14 16:40:54.098972,-88
2021-10-14 16:40:54.098980,-79
2021-10-14 16:40:54.098989,-74
2021-10-14 16:40:54.098997,-81
2021-10-14 16:40:54.099005,-93
2021-10-14 16:40:54.099014,-91
2021-10-14 16:40:54.099022,-84
2021-10-14 16:40:54.099031,-84
2021-10-14 16:40:54.099039,-81
2021-10-14 16:40:54.099047,-72
2021-10-14 16:40:54.099056,-72
2021-10-14 16:40:54.099064,-72
2021-10-14 16:40:54.099073,-64
2021-10-14 16:40:54.099081,-60
2021-10-14 16:40:54.099089,-57
2021-10-14 16:40:54.099098,-57
2021-10-14 16:40:54.099106,-57
2021-10-14 16:40:54.099114,-55
2021-10-14 16:40:54.099123,-52
2021-10-14 16:40:54.099131,-55
2021-10-14 16:40:54.099139,-52
2021-10-14 16:40:54.099147,-52
2021-10-14 16:40:54.099156,-55
2021-10-14 16:40:54.099164,-55
2021-10-14 16:40:54.099173,-48
2021-10-14 16:40:54.279203,-36
2021-10-14 16:40:54.279222,-33
2021-10-14 16:40:54.279231,-40
2021-10-14 16:40:54.279240,-43
2021-10-14 16:40:54.279248,-33
2021-10-14 16:40:54.279257,-19
2021-10-14 16:40:54.279265,-4
2021-10-14 16:40:54.279273,0
2021-10-14 16:40:54.279282,0
2021-10-14 16:40:54.279290,4
2021-10-14 16:40:54.279298,-2
2021-10-14 16:40:54.279307,-21
2021-10-14 16:40:54.279315,-33
2021-10-14 16:40:54.279323,-31
2021-10-14 16:40:54.279331,-38
2021-10-14 16:40:54.279340,-43
2021-10-14 16:40:54.279348,-36
2021-10-14 16:40:54.279356,-28
2021-10-14 16:40:54.279364,-26
2021-10-14 16:40:54.279372,-21
2021-10-14 16:40:54.279381,-21
2021-10-14 16:40:54.279389,-19
2021-10-14 16:40:54.279397,2
2021-10-14 16:40:54.279405,86
2021-10-14 16:40:54.279414,363
2021-10-14 16:40:54.279422,738
2021-10-14 16:40:54.279430,637
2021-10-14 16:40:54.279438,-269
2021-10-14 16:40:54.279447,-1096
2021-10-14 16:40:54.279455,-884
2021-10-14 16:40:54.549315,-283
2021-10-14 16:40:54.549341,-117
2021-10-14 16:40:54.549350,-69
2021-10-14 16:40:54.549359,60
2021-10-14 16:40:54.549368,76
2021-10-14 16:40:54.549376,45
2021-10-14 16:40:54.549384,76
2021-10-14 16:40:54.549393,88
2021-10-14 16:40:54.549401,72
2021-10-14 16:40:54.549409,81
2021-10-14 16:40:54.549418,96
2021-10-14 16:40:54.549426,98
2021-10-14 16:40:54.549434,98
2021-10-14 16:40:54.549443,93
2021-10-14 16:40:54.549451,93
2021-10-14 16:40:54.549459,108
2021-10-14 16:40:54.549468,122
2021-10-14 16:40:54.549476,127
2021-10-14 16:40:54.549484,137
2021-10-14 16:40:54.549493,153
2021-10-14 16:40:54.549501,165
2021-10-14 16:40:54.549509,177
2021-10-14 16:40:54.549518,189
2021-10-14 16:40:54.549526,197
2021-10-14 16:40:54.549534,202
2021-10-14 16:40:54.549542,199
2021-10-14 16:40:54.549551,192
2021-10-14 16:40:54.549559,175
2021-10-14 16:40:54.549567,149
2021-10-14 16:40:54.549576,127
2021-10-14 16:40:54.729683,103
2021-10-14 16:40:54.729703,62
2021-10-14 16:40:54.729712,24
2021-10-14 16:40:54.729721,-7
2021-10-14 16:40:54.729729,-38
2021-10-14 16:40:54.729737,-64
2021-10-14 16:40:54.729746,-81
2021-10-14 16:40:54.729754,-98
2021-10-14 16:40:54.729762,-113
2021-10-14 16:40:54.729770,-122
2021-10-14 16:40:54.729779,-127
2021-10-14 16:40:54.729787,-132
2021-10-14 16:40:54.729795,-134
2021-10-14 16:40:54.729803,-132
2021-10-14 16:40:54.729811,-132
2021-10-14 16:40:54.729820,-127
2021-10-14 16:40:54.729828,-115
2021-10-14 16:40:54.729836,-105
2021-10-14 16:40:54.729844,-108
2021-10-14 16:40:54.729853,-110
2021-10-14 16:40:54.729861,-98
2021-10-14 16:40:54.729869,-86
2021-10-14 16:40:54.729877,-81
2021-10-14 16:40:54.729885,-72
2021-10-14 16:40:54.729894,-64
2021-10-14 16:40:54.729902,-60
2021-10-14 16:40:54.729910,-60
2021-10-14 16:40:54.729919,-57
2021-10-14 16:40:54.729927,-57
2021-10-14 16:40:54.729935,-67
2021-10-14 16:40:54.954640,-72
2021-10-14 16:40:54.954659,-69
2021-10-14 16:40:54.954669,-67
2021-10-14 16:40:54.954677,-67
2021-10-14 16:40:54.954686,-62
2021-10-14 16:40:54.954694,-62
2021-10-14 16:40:54.954702,-69
2021-10-14 16:40:54.954711,-74
2021-10-14 16:40:54.954719,-69
2021-10-14 16:40:54.954728,-64
2021-10-14 16:40:54.954736,-62
2021-10-14 16:40:54.954744,-57
2021-10-14 16:40:54.954753,-60
2021-10-14 16:40:54.954761,-60
2021-10-14 16:40:54.954769,-48
2021-10-14 16:40:54.954777,-43
2021-10-14 16:40:54.954785,-45
2021-10-14 16:40:54.954794,-45
2021-10-14 16:40:54.954802,-45
2021-10-14 16:40:54.954810,-43
2021-10-14 16:40:54.954819,-36
2021-10-14 16:40:54.954827,-31
2021-10-14 16:40:54.954835,-28
2021-10-14 16:40:54.954844,-28
2021-10-14 16:40:54.954852,-28
2021-10-14 16:40:54.954860,-21
2021-10-14 16:40:54.954868,-16
2021-10-14 16:40:54.954877,-16
2021-10-14 16:40:54.954885,-14
2021-10-14 16:40:54.954893,-9
2021-10-14 16:40:55.224787,-2
2021-10-14 16:40:55.224806,9
2021-10-14 16:40:55.224815,12
2021-10-14 16:40:55.224823,7
2021-10-14 16:40:55.224831,14
2021-10-14 16:40:55.224839,2
2021-10-14 16:40:55.224846,-31
2021-10-14 16:40:55.224854,-36
2021-10-14 16:40:55.224861,-26
2021-10-14 16:40:55.224870,-24
2021-10-14 16:40:55.224878,-28
2021-10-14 16:40:55.224886,-33
2021-10-14 16:40:55.224894,-38
2021-10-14 16:40:55.224902,-26
2021-10-14 16:40:55.224910,-16
2021-10-14 16:40:55.224918,-14
2021-10-14 16:40:55.224927,-4
2021-10-14 16:40:55.224935,24
2021-10-14 16:40:55.224943,139
2021-10-14 16:40:55.224951,459
2021-10-14 16:40:55.224959,786
2021-10-14 16:40:55.224967,517
2021-10-14 16:40:55.224975,-456
2021-10-14 16:40:55.224983,-1101
2021-10-14 16:40:55.224991,-714
2021-10-14 16:40:55.224998,-165
2021-10-14 16:40:55.225006,-72
2021-10-14 16:40:55.225013,-12
2021-10-14 16:40:55.225021,103
2021-10-14 16:40:55.225030,91
2021-10-14 16:40:55.404646,69
2021-10-14 16:40:55.404664,110
2021-10-14 16:40:55.404673,117
2021-10-14 16:40:55.404682,86
2021-10-14 16:40:55.404690,79
2021-10-14 16:40:55.404699,93
2021-10-14 16:40:55.404707,103
2021-10-14 16:40:55.404715,105
2021-10-14 16:40:55.404724,108
2021-10-14 16:40:55.404732,115
2021-10-14 16:40:55.404740,120
2021-10-14 16:40:55.404749,120
2021-10-14 16:40:55.404757,129
2021-10-14 16:40:55.404765,146
2021-10-14 16:40:55.404773,156
2021-10-14 16:40:55.404782,161
2021-10-14 16:40:55.404790,170
2021-10-14 16:40:55.404798,175
2021-10-14 16:40:55.404807,180
2021-10-14 16:40:55.404815,192
2021-10-14 16:40:55.404824,197
2021-10-14 16:40:55.404832,182
2021-10-14 16:40:55.404840,168
2021-10-14 16:40:55.404848,153
2021-10-14 16:40:55.404857,129
2021-10-14 16:40:55.404865,96
2021-10-14 16:40:55.404873,62
2021-10-14 16:40:55.404882,28
2021-10-14 16:40:55.404890,-9
2021-10-14 16:40:55.404898,-45
2021-10-14 16:40:55.718704,-67
2021-10-14 16:40:55.718723,-76
2021-10-14 16:40:55.718733,-93
2021-10-14 16:40:55.718741,-117
2021-10-14 16:40:55.718750,-132
2021-10-14 16:40:55.718758,-132
2021-10-14 16:40:55.718766,-129
2021-10-14 16:40:55.718775,-134
2021-10-14 16:40:55.718783,-141
2021-10-14 16:40:55.718791,-144
2021-10-14 16:40:55.718800,-139
2021-10-14 16:40:55.718808,-125
2021-10-14 16:40:55.718816,-115
2021-10-14 16:40:55.718824,-110
2021-10-14 16:40:55.718833,-101
2021-10-14 16:40:55.718841,-96
2021-10-14 16:40:55.718849,-91
2021-10-14 16:40:55.718858,-76
2021-10-14 16:40:55.718866,-60
2021-10-14 16:40:55.718874,-62
2021-10-14 16:40:55.718883,-64
2021-10-14 16:40:55.718891,-60
2021-10-14 16:40:55.718899,-60
2021-10-14 16:40:55.718907,-52
2021-10-14 16:40:55.718915,-43
2021-10-14 16:40:55.718924,-45
2021-10-14 16:40:55.718932,-48
2021-10-14 16:40:55.718940,-45
2021-10-14 16:40:55.718949,-40
2021-10-14 16:40:55.718957,-38
2021-10-14 16:40:55.899726,-40
2021-10-14 16:40:55.899746,-40
2021-10-14 16:40:55.899755,-43
2021-10-14 16:40:55.899764,-40
2021-10-14 16:40:55.899772,-33
2021-10-14 16:40:55.899781,-31
2021-10-14 16:40:55.899789,-28
2021-10-14 16:40:55.899797,-26
2021-10-14 16:40:55.899805,-36
2021-10-14 16:40:55.899814,-52
2021-10-14 16:40:55.899822,-52
2021-10-14 16:40:55.899830,-45
2021-10-14 16:40:55.899839,-43
2021-10-14 16:40:55.899847,-43
2021-10-14 16:40:55.899855,-40
2021-10-14 16:40:55.899863,-45
2021-10-14 16:40:55.899872,-45
2021-10-14 16:40:55.899880,-38
2021-10-14 16:40:55.899888,-33
2021-10-14 16:40:55.899897,-26
2021-10-14 16:40:55.899905,-28
2021-10-14 16:40:55.899913,-31
2021-10-14 16:40:55.899921,-19
2021-10-14 16:40:55.899929,-2
2021-10-14 16:40:55.899938,9
2021-10-14 16:40:55.899946,19
2021-10-14 16:40:55.899955,16
2021-10-14 16:40:55.899963,-9
2021-10-14 16:40:55.899971,-28
2021-10-14 16:40:55.899979,-21
2021-10-14 16:40:56.168326,-19
2021-10-14 16:40:56.168346,-24
2021-10-14 16:40:56.168355,-21
2021-10-14 16:40:56.168364,-19
2021-10-14 16:40:56.168372,-14
2021-10-14 16:40:56.168381,-4
2021-10-14 16:40:56.168389,2
2021-10-14 16:40:56.168398,4
2021-10-14 16:40:56.168406,2
2021-10-14 16:40:56.168415,55
2021-10-14 16:40:56.168423,281
2021-10-14 16:40:56.168431,649
2021-10-14 16:40:56.168440,714
2021-10-14 16:40:56.168448,-7
2021-10-14 16:40:56.168456,-935
2021-10-14 16:40:56.168465,-973
2021-10-14 16:40:56.168473,-420
2021-10-14 16:40:56.168481,-163
2021-10-14 16:40:56.168490,-88
2021-10-14 16:40:56.168498,48
2021-10-14 16:40:56.168507,86
2021-10-14 16:40:56.168515,52
2021-10-14 16:40:56.168523,79
2021-10-14 16:40:56.168532,113
2021-10-14 16:40:56.168540,103
2021-10-14 16:40:56.168548,96
2021-10-14 16:40:56.168556,105
2021-10-14 16:40:56.168565,115
2021-10-14 16:40:56.168573,125
2021-10-14 16:40:56.168582,129
2021-10-14 16:40:56.349282,129
2021-10-14 16:40:56.349302,137
2021-10-14 16:40:56.349311,146
2021-10-14 16:40:56.349319,153
2021-10-14 16:40:56.349328,165
2021-10-14 16:40:56.349336,185
2021-10-14 16:40:56.349344,197
2021-10-14 16:40:56.349353,199
2021-10-14 16:40:56.349361,202
2021-10-14 16:40:56.349370,209
2021-10-14 16:40:56.349378,218
2021-10-14 16:40:56.349398,216
2021-10-14 16:40:56.349407,206
2021-10-14 16:40:56.349415,194
2021-10-14 16:40:56.349423,165
2021-10-14 16:40:56.349431,129
2021-10-14 16:40:56.349440,103
2021-10-14 16:40:56.349448,76
2021-10-14 16:40:56.349457,33
2021-10-14 16:40:56.349465,-7
2021-10-14 16:40:56.349474,-40
2021-10-14 16:40:56.349482,-69
2021-10-14 16:40:56.349491,-93
2021-10-14 16:40:56.349499,-101
2021-10-14 16:40:56.349507,-105
2021-10-14 16:40:56.349516,-117
2021-10-14 16:40:56.349524,-132
2021-10-14 16:40:56.349532,-137
2021-10-14 16:40:56.349541,-132
2021-10-14 16:40:56.349549,-122
2021-10-14 16:40:56.574725,-125
2021-10-14 16:40:56.574745,-129
2021-10-14 16:40:56.574755,-122
2021-10-14 16:40:56.574764,-113
2021-10-14 16:40:56.574772,-108
2021-10-14 16:40:56.574780,-101
2021-10-14 16:40:56.574789,-96
2021-10-14 16:40:56.574797,-93
2021-10-14 16:40:56.574805,-91
2021-10-14 16:40:56.574813,-86
2021-10-14 16:40:56.574822,-79
2021-10-14 16:40:56.574830,-74
2021-10-14 16:40:56.574838,-72
2021-10-14 16:40:56.574847,-79
2021-10-14 16:40:56.574855,-88
2021-10-14 16:40:56.574863,-86
2021-10-14 16:40:56.574871,-74
2021-10-14 16:40:56.574880,-72
2021-10-14 16:40:56.574888,-79
2021-10-14 16:40:56.574896,-79
2021-10-14 16:40:56.574905,-76
2021-10-14 16:40:56.574913,-79
2021-10-14 16:40:56.574921,-76
2021-10-14 16:40:56.574930,-60
2021-10-14 16:40:56.574938,-55
2021-10-14 16:40:56.574946,-60
2021-10-14 16:40:56.574955,-57
2021-10-14 16:40:56.574963,-55
2021-10-14 16:40:56.574971,-57
2021-10-14 16:40:56.574980,-52
2021-10-14 16:40:56.799732,-43
2021-10-14 16:40:56.799752,-36
2021-10-14 16:40:56.799761,-33
2021-10-14 16:40:56.799770,-40
2021-10-14 16:40:56.799778,-38
2021-10-14 16:40:56.799786,-33
2021-10-14 16:40:56.799795,-43
2021-10-14 16:40:56.799803,-43
2021-10-14 16:40:56.799812,-24
2021-10-14 16:40:56.799820,-14
2021-10-14 16:40:56.799828,-12
2021-10-14 16:40:56.799836,-4
2021-10-14 16:40:56.799845,-2
2021-10-14 16:40:56.799853,-7
2021-10-14 16:40:56.799861,-24
2021-10-14 16:40:56.799870,-43
2021-10-14 16:40:56.799878,-45
2021-10-14 16:40:56.799886,-50
2021-10-14 16:40:56.799894,-52
2021-10-14 16:40:56.799903,-43
2021-10-14 16:40:56.799911,-45
2021-10-14 16:40:56.799919,-57
2021-10-14 16:40:56.799927,-48
2021-10-14 16:40:56.799935,-36
2021-10-14 16:40:56.799944,-31
2021-10-14 16:40:56.799952,-12
2021-10-14 16:40:56.799960,74
2021-10-14 16:40:56.799968,348
2021-10-14 16:40:56.799977,740
2021-10-14 16:40:56.799985,685
2021-10-14 16:40:57.024440,-209
2021-10-14 16:40:57.024460,-1086
2021-10-14 16:40:57.024470,-921
2021-10-14 16:40:57.024479,-329
2021-10-14 16:40:57.024487,-134
2021-10-14 16:40:57.024495,-64
2021-10-14 16:40:57.024504,64
2021-10-14 16:40:57.024512,81
2021-10-14 16:40:57.024520,52
2021-10-14 16:40:57.024529,86
2021-10-14 16:40:57.024537,108
2021-10-14 16:40:57.024546,91
2021-10-14 16:40:57.024554,88
2021-10-14 16:40:57.024563,103
2021-10-14 16:40:57.024571,105
2021-10-14 16:40:57.024579,105
2021-10-14 16:40:57.024588,117
2021-10-14 16:40:57.024596,122
2021-10-14 16:40:57.024604,122
2021-10-14 16:40:57.024613,125
2021-10-14 16:40:57.024621,137
2021-10-14 16:40:57.024629,151
2021-10-14 16:40:57.024638,168
2021-10-14 16:40:57.024646,185
2021-10-14 16:40:57.024654,199
2021-10-14 16:40:57.024662,206
2021-10-14 16:40:57.024671,214
2021-10-14 16:40:57.024679,223
2021-10-14 16:40:57.024687,221
2021-10-14 16:40:57.024696,209
2021-10-14 16:40:57.249310,197
2021-10-14 16:40:57.249330,182
2021-10-14 16:40:57.249339,156
2021-10-14 16:40:57.249348,125
2021-10-14 16:40:57.249356,91
2021-10-14 16:40:57.249365,40
2021-10-14 16:40:57.249373,0
2021-10-14 16:40:57.249382,-21
2021-10-14 16:40:57.249390,-45
2021-10-14 16:40:57.249399,-69
2021-10-14 16:40:57.249407,-88
2021-10-14 16:40:57.249416,-103
2021-10-14 16:40:57.249424,-108
2021-10-14 16:40:57.249432,-103
2021-10-14 16:40:57.249446,-103
2021-10-14 16:40:57.249457,-108
2021-10-14 16:40:57.249465,-113
2021-10-14 16:40:57.249474,-115
2021-10-14 16:40:57.249482,-110
2021-10-14 16:40:57.249490,-101
2021-10-14 16:40:57.249498,-101
2021-10-14 16:40:57.249507,-101
2021-10-14 16:40:57.249515,-98
2021-10-14 16:40:57.249523,-96
2021-10-14 16:40:57.249531,-91
2021-10-14 16:40:57.249539,-81
2021-10-14 16:40:57.249547,-84
2021-10-14 16:40:57.249556,-98
2021-10-14 16:40:57.249564,-96
2021-10-14 16:40:57.249572,-86
2021-10-14 16:40:57.563746,-79
2021-10-14 16:40:57.563767,-72
2021-10-14 16:40:57.563776,-69
2021-10-14 16:40:57.563785,-74
2021-10-14 16:40:57.563793,-79
2021-10-14 16:40:57.563802,-84
2021-10-14 16:40:57.563810,-81
2021-10-14 16:40:57.563818,-74
2021-10-14 16:40:57.563826,-76
2021-10-14 16:40:57.563835,-84
2021-10-14 16:40:57.563843,-84
2021-10-14 16:40:57.563851,-84
2021-10-14 16:40:57.563859,-76
2021-10-14 16:40:57.563868,-67
2021-10-14 16:40:57.563876,-64
2021-10-14 16:40:57.563884,-67
2021-10-14 16:40:57.563892,-67
2021-10-14 16:40:57.563901,-67
2021-10-14 16:40:57.563909,-60
2021-10-14 16:40:57.563917,-50
2021-10-14 16:40:57.563925,-48
2021-10-14 16:40:57.563934,-40
2021-10-14 16:40:57.563942,-40
2021-10-14 16:40:57.563950,-52
2021-10-14 16:40:57.563958,-50
2021-10-14 16:40:57.563967,-38
2021-10-14 16:40:57.563975,-31
2021-10-14 16:40:57.563983,-24
2021-10-14 16:40:57.563991,-12
2021-10-14 16:40:57.564000,2
2021-10-14 16:40:57.744799,0
2021-10-14 16:40:57.744819,-26
2021-10-14 16:40:57.744828,-38
2021-10-14 16:40:57.744837,-33
2021-10-14 16:40:57.744845,-36
2021-10-14 16:40:57.744854,-36
2021-10-14 16:40:57.744862,-31
2021-10-14 16:40:57.744870,-28
2021-10-14 16:40:57.744879,-28
2021-10-14 16:40:57.744887,-31
2021-10-14 16:40:57.744896,-28
2021-10-14 16:40:57.744904,-19
2021-10-14 16:40:57.744912,2
2021-10-14 16:40:57.744921,103
2021-10-14 16:40:57.744929,404
2021-10-14 16:40:57.744937,771
2021-10-14 16:40:57.744946,625
2021-10-14 16:40:57.744954,-322
2021-10-14 16:40:57.744962,-1132
2021-10-14 16:40:57.744971,-858
2021-10-14 16:40:57.744979,-242
2021-10-14 16:40:57.744988,-88
2021-10-14 16:40:57.744996,-36
2021-10-14 16:40:57.745005,88
2021-10-14 16:40:57.745013,91
2021-10-14 16:40:57.745021,52
2021-10-14 16:40:57.745030,86
2021-10-14 16:40:57.745038,98
2021-10-14 16:40:57.745046,86
2021-10-14 16:40:57.745059,103
2021-10-14 16:40:57.969765,117
2021-10-14 16:40:57.969786,117
2021-10-14 16:40:57.969795,120
2021-10-14 16:40:57.969804,117
2021-10-14 16:40:57.969813,113
2021-10-14 16:40:57.969821,125
2021-10-14 16:40:57.969829,134
2021-10-14 16:40:57.969838,141
2021-10-14 16:40:57.969846,149
2021-10-14 16:40:57.969854,153
2021-10-14 16:40:57.969863,168
2021-10-14 16:40:57.969871,192
2021-10-14 16:40:57.969879,204
2021-10-14 16:40:57.969888,204
2021-10-14 16:40:57.969896,204
2021-10-14 16:40:57.969905,204
2021-10-14 16:40:57.969913,197
2021-10-14 16:40:57.969921,185
2021-10-14 16:40:57.969930,170
2021-10-14 16:40:57.969938,153
2021-10-14 16:40:57.969947,117
2021-10-14 16:40:57.969955,74
2021-10-14 16:40:57.969963,43
2021-10-14 16:40:57.969972,14
2021-10-14 16:40:57.969980,-19
2021-10-14 16:40:57.969988,-43
2021-10-14 16:40:57.969997,-64
2021-10-14 16:40:57.970005,-86
2021-10-14 16:40:57.970013,-91
2021-10-14 16:40:57.970021,-86
2021-10-14 16:40:58.238006,-86
2021-10-14 16:40:58.238027,-88
2021-10-14 16:40:58.238036,-91
2021-10-14 16:40:58.238045,-93
2021-10-14 16:40:58.238054,-86
2021-10-14 16:40:58.238062,-76
2021-10-14 16:40:58.238070,-74
2021-10-14 16:40:58.238078,-84
2021-10-14 16:40:58.238087,-93
2021-10-14 16:40:58.238095,-84
2021-10-14 16:40:58.238103,-69
2021-10-14 16:40:58.238111,-57
2021-10-14 16:40:58.238120,-50
2021-10-14 16:40:58.238128,-55
2021-10-14 16:40:58.238136,-60
2021-10-14 16:40:58.238144,-60
2021-10-14 16:40:58.238152,-67
2021-10-14 16:40:58.238161,-69
2021-10-14 16:40:58.238169,-64
2021-10-14 16:40:58.238177,-62
2021-10-14 16:40:58.238185,-60
2021-10-14 16:40:58.238193,-57
2021-10-14 16:40:58.238202,-60
2021-10-14 16:40:58.238210,-60
2021-10-14 16:40:58.238218,-52
2021-10-14 16:40:58.238226,-52
2021-10-14 16:40:58.238235,-62
2021-10-14 16:40:58.238243,-62
2021-10-14 16:40:58.238251,-57
2021-10-14 16:40:58.238260,-57
2021-10-14 16:40:58.463744,-57
2021-10-14 16:40:58.463765,-55
2021-10-14 16:40:58.463775,-50
2021-10-14 16:40:58.463783,-52
2021-10-14 16:40:58.463792,-50
2021-10-14 16:40:58.463800,-38
2021-10-14 16:40:58.463808,-36
2021-10-14 16:40:58.463817,-45
2021-10-14 16:40:58.463825,-50
2021-10-14 16:40:58.463833,-60
2021-10-14 16:40:58.463841,-64
2021-10-14 16:40:58.463850,-55
2021-10-14 16:40:58.463858,-48
2021-10-14 16:40:58.463866,-48
2021-10-14 16:40:58.463875,-40
2021-10-14 16:40:58.463883,-24
2021-10-14 16:40:58.463891,-14
2021-10-14 16:40:58.463900,-2
2021-10-14 16:40:58.463908,2
2021-10-14 16:40:58.463916,-19
2021-10-14 16:40:58.463924,-36
2021-10-14 16:40:58.463933,-36
2021-10-14 16:40:58.463941,-28
2021-10-14 16:40:58.463949,-21
2021-10-14 16:40:58.463958,-24
2021-10-14 16:40:58.463966,-24
2021-10-14 16:40:58.463974,-21
2021-10-14 16:40:58.463982,-9
2021-10-14 16:40:58.463991,4
2021-10-14 16:40:58.463999,7
2021-10-14 16:40:58.644722,12
2021-10-14 16:40:58.644742,50
2021-10-14 16:40:58.644752,214
2021-10-14 16:40:58.644761,577
2021-10-14 16:40:58.644769,832
2021-10-14 16:40:58.644778,353
2021-10-14 16:40:58.644786,-682
2021-10-14 16:40:58.644794,-1084
2021-10-14 16:40:58.644802,-572
2021-10-14 16:40:58.644811,-151
2021-10-14 16:40:58.644819,-81
2021-10-14 16:40:58.644828,36
2021-10-14 16:40:58.644836,125
2021-10-14 16:40:58.644844,96
2021-10-14 16:40:58.644853,103
2021-10-14 16:40:58.644861,139
2021-10-14 16:40:58.644869,137
2021-10-14 16:40:58.644878,129
2021-10-14 16:40:58.644886,137
2021-10-14 16:40:58.644894,151
2021-10-14 16:40:58.644902,161
2021-10-14 16:40:58.644911,165
2021-10-14 16:40:58.644919,163
2021-10-14 16:40:58.644927,170
2021-10-14 16:40:58.644935,182
2021-10-14 16:40:58.644944,194
2021-10-14 16:40:58.644952,209
2021-10-14 16:40:58.644961,221
2021-10-14 16:40:58.644969,235
2021-10-14 16:40:58.644977,254
2021-10-14 16:40:59.004140,264
2021-10-14 16:40:59.004161,271
2021-10-14 16:40:59.004170,281
2021-10-14 16:40:59.004179,281
2021-10-14 16:40:59.004187,276
2021-10-14 16:40:59.004196,266
2021-10-14 16:40:59.004204,245
2021-10-14 16:40:59.004212,226
2021-10-14 16:40:59.004221,206
2021-10-14 16:40:59.004229,175
2021-10-14 16:40:59.004238,137
2021-10-14 16:40:59.004246,91
2021-10-14 16:40:59.004254,45
2021-10-14 16:40:59.004263,21
2021-10-14 16:40:59.004271,2
2021-10-14 16:40:59.004279,-19
2021-10-14 16:40:59.004288,-38
2021-10-14 16:40:59.004296,-40
2021-10-14 16:40:59.004305,-43
2021-10-14 16:40:59.004313,-50
2021-10-14 16:40:59.004321,-45
2021-10-14 16:40:59.004329,-36
2021-10-14 16:40:59.004338,-31
2021-10-14 16:40:59.004346,-26
2021-10-14 16:40:59.004354,-19
2021-10-14 16:40:59.004363,-9
2021-10-14 16:40:59.004371,-4
2021-10-14 16:40:59.004379,4
2021-10-14 16:40:59.004388,14
2021-10-14 16:40:59.004396,24
2021-10-14 16:40:59.094262,28
2021-10-14 16:40:59.094281,33
2021-10-14 16:40:59.094290,31
2021-10-14 16:40:59.094299,31
2021-10-14 16:40:59.094307,36
2021-10-14 16:40:59.094316,36
2021-10-14 16:40:59.094325,33
2021-10-14 16:40:59.094333,31
2021-10-14 16:40:59.094341,21
2021-10-14 16:40:59.094350,19
2021-10-14 16:40:59.094358,26
2021-10-14 16:40:59.094366,12
2021-10-14 16:40:59.094375,2
2021-10-14 16:40:59.094383,9
2021-10-14 16:40:59.094391,12
2021-10-14 16:40:59.094400,7
2021-10-14 16:40:59.094408,7
2021-10-14 16:40:59.094416,7
2021-10-14 16:40:59.094424,9
2021-10-14 16:40:59.094433,12
2021-10-14 16:40:59.094441,12
2021-10-14 16:40:59.094449,14
2021-10-14 16:40:59.094457,16
2021-10-14 16:40:59.094466,21
2021-10-14 16:40:59.094474,24
2021-10-14 16:40:59.094482,21
2021-10-14 16:40:59.094490,21
2021-10-14 16:40:59.094498,24
2021-10-14 16:40:59.094507,28
2021-10-14 16:40:59.094515,26
2021-10-14 16:40:59.364485,26
2021-10-14 16:40:59.364505,31
2021-10-14 16:40:59.364514,33
2021-10-14 16:40:59.364523,31
2021-10-14 16:40:59.364531,33
2021-10-14 16:40:59.364540,40
2021-10-14 16:40:59.364548,50
2021-10-14 16:40:59.364556,60
2021-10-14 16:40:59.364565,55
2021-10-14 16:40:59.364573,24
2021-10-14 16:40:59.364581,-2
2021-10-14 16:40:59.364590,-2
2021-10-14 16:40:59.364598,9
2021-10-14 16:40:59.364606,14
2021-10-14 16:40:59.364614,12
2021-10-14 16:40:59.364623,12
2021-10-14 16:40:59.364631,14
2021-10-14 16:40:59.364639,12
2021-10-14 16:40:59.364647,19
2021-10-14 16:40:59.364656,36
2021-10-14 16:40:59.364664,43
2021-10-14 16:40:59.364672,76
2021-10-14 16:40:59.364680,269
2021-10-14 16:40:59.364689,678
2021-10-14 16:40:59.364697,865
2021-10-14 16:40:59.364705,216
2021-10-14 16:40:59.364714,-844
2021-10-14 16:40:59.364722,-1058
2021-10-14 16:40:59.364731,-459
2021-10-14 16:40:59.364739,-110
2021-10-14 16:40:59.589387,-67
2021-10-14 16:40:59.589407,67
2021-10-14 16:40:59.589416,146
2021-10-14 16:40:59.589425,98
2021-10-14 16:40:59.589433,103
2021-10-14 16:40:59.589442,141
2021-10-14 16:40:59.589451,129
2021-10-14 16:40:59.589459,127
2021-10-14 16:40:59.589467,149
2021-10-14 16:40:59.589476,144
2021-10-14 16:40:59.589484,134
2021-10-14 16:40:59.589492,149
2021-10-14 16:40:59.589501,163
2021-10-14 16:40:59.589509,170
2021-10-14 16:40:59.589517,165
2021-10-14 16:40:59.589526,151
2021-10-14 16:40:59.589534,161
2021-10-14 16:40:59.589543,197
2021-10-14 16:40:59.589551,218
2021-10-14 16:40:59.589559,221
2021-10-14 16:40:59.589567,228
2021-10-14 16:40:59.589575,240
2021-10-14 16:40:59.589584,252
2021-10-14 16:40:59.589592,254
2021-10-14 16:40:59.589601,247
2021-10-14 16:40:59.589609,230
2021-10-14 16:40:59.589617,202
2021-10-14 16:40:59.589626,180
2021-10-14 16:40:59.589634,165
2021-10-14 16:40:59.589643,127
2021-10-14 16:40:59.814728,84
2021-10-14 16:40:59.814748,43
2021-10-14 16:40:59.814757,-4
2021-10-14 16:40:59.814766,-57
2021-10-14 16:40:59.814774,-69
2021-10-14 16:40:59.814783,-45
2021-10-14 16:40:59.814791,-55
2021-10-14 16:40:59.814799,-88
2021-10-14 16:40:59.814808,-67
2021-10-14 16:40:59.814816,-31
2021-10-14 16:40:59.814824,-52
2021-10-14 16:40:59.814832,-81
2021-10-14 16:40:59.814841,-76
2021-10-14 16:40:59.814849,-79
2021-10-14 16:40:59.814857,-93
2021-10-14 16:40:59.814866,-91
2021-10-14 16:40:59.814874,-96
2021-10-14 16:40:59.814883,-93
2021-10-14 16:40:59.814891,-52
2021-10-14 16:40:59.814899,-19
2021-10-14 16:40:59.814907,-21
2021-10-14 16:40:59.814916,-24
2021-10-14 16:40:59.814924,-31
2021-10-14 16:40:59.814932,-38
2021-10-14 16:40:59.814941,-31
2021-10-14 16:40:59.814949,-21
2021-10-14 16:40:59.814957,-31
2021-10-14 16:40:59.814965,-52
2021-10-14 16:40:59.814974,-72
2021-10-14 16:40:59.814982,-79
2021-10-14 16:41:00.039755,-36
2021-10-14 16:41:00.039775,7
2021-10-14 16:41:00.039785,-24
2021-10-14 16:41:00.039793,-57
2021-10-14 16:41:00.039802,-31
2021-10-14 16:41:00.039810,-7
2021-10-14 16:41:00.039818,-31
2021-10-14 16:41:00.039826,-45
2021-10-14 16:41:00.039835,-45
2021-10-14 16:41:00.039843,-55
2021-10-14 16:41:00.039851,-52
2021-10-14 16:41:00.039860,-50
2021-10-14 16:41:00.039868,-62
2021-10-14 16:41:00.039876,-69
2021-10-14 16:41:00.039884,-64
2021-10-14 16:41:00.039893,-67
2021-10-14 16:41:00.039901,-74
2021-10-14 16:41:00.039909,-55
2021-10-14 16:41:00.039918,-38
2021-10-14 16:41:00.039926,-52
2021-10-14 16:41:00.039934,-45
2021-10-14 16:41:00.039942,-19
2021-10-14 16:41:00.039951,-28
2021-10-14 16:41:00.039959,-43
2021-10-14 16:41:00.039967,-33
2021-10-14 16:41:00.039976,-33
2021-10-14 16:41:00.039984,-38
2021-10-14 16:41:00.039992,-31
2021-10-14 16:41:00.040000,-21
2021-10-14 16:41:00.040008,-21
2021-10-14 16:41:00.308104,-2
2021-10-14 16:41:00.308126,12
2021-10-14 16:41:00.308135,-19
2021-10-14 16:41:00.308144,-33
2021-10-14 16:41:00.308152,-26
2021-10-14 16:41:00.308161,-33
2021-10-14 16:41:00.308169,-33
2021-10-14 16:41:00.308178,-36
2021-10-14 16:41:00.308186,-55
2021-10-14 16:41:00.308194,-48
2021-10-14 16:41:00.308203,-28
2021-10-14 16:41:00.308211,-28
2021-10-14 16:41:00.308219,-28
2021-10-14 16:41:00.308239,-31
2021-10-14 16:41:00.308248,-21
2021-10-14 16:41:00.308256,91
2021-10-14 16:41:00.308265,435
2021-10-14 16:41:00.308273,783
2021-10-14 16:41:00.308281,488
2021-10-14 16:41:00.308290,-531
2021-10-14 16:41:00.308298,-1151
2021-10-14 16:41:00.308306,-711
2021-10-14 16:41:00.308315,-170
2021-10-14 16:41:00.308323,-103
2021-10-14 16:41:00.308331,-48
2021-10-14 16:41:00.308339,55
2021-10-14 16:41:00.308348,45
2021-10-14 16:41:00.308356,52
2021-10-14 16:41:00.308364,91
2021-10-14 16:41:00.308373,62
2021-10-14 16:41:00.489729,52
2021-10-14 16:41:00.489749,93
2021-10-14 16:41:00.489758,84
2021-10-14 16:41:00.489767,48
2021-10-14 16:41:00.489776,67
2021-10-14 16:41:00.489784,103
2021-10-14 16:41:00.489793,86
2021-10-14 16:41:00.489801,57
2021-10-14 16:41:00.489810,76
2021-10-14 16:41:00.489818,113
2021-10-14 16:41:00.489827,127
2021-10-14 16:41:00.489835,117
2021-10-14 16:41:00.489843,117
2021-10-14 16:41:00.489852,141
2021-10-14 16:41:00.489860,158
2021-10-14 16:41:00.489869,161
2021-10-14 16:41:00.489877,153
2021-10-14 16:41:00.489885,134
2021-10-14 16:41:00.489894,115
2021-10-14 16:41:00.489902,120
2021-10-14 16:41:00.489910,127
2021-10-14 16:41:00.489919,105
2021-10-14 16:41:00.489927,76
2021-10-14 16:41:00.489935,48
2021-10-14 16:41:00.489944,4
2021-10-14 16:41:00.489952,-38
2021-10-14 16:41:00.489961,-57
2021-10-14 16:41:00.489969,-69
2021-10-14 16:41:00.489977,-91
2021-10-14 16:41:00.489986,-101
2021-10-14 16:41:00.714789,-103
2021-10-14 16:41:00.714810,-113
2021-10-14 16:41:00.714819,-122
2021-10-14 16:41:00.714828,-110
2021-10-14 16:41:00.714837,-98
2021-10-14 16:41:00.714845,-110
2021-10-14 16:41:00.714854,-122
2021-10-14 16:41:00.714862,-110
2021-10-14 16:41:00.714870,-96
2021-10-14 16:41:00.714878,-86
2021-10-14 16:41:00.714887,-93
2021-10-14 16:41:00.714895,-103
2021-10-14 16:41:00.714903,-93
2021-10-14 16:41:00.714912,-72
2021-10-14 16:41:00.714920,-69
2021-10-14 16:41:00.714929,-79
2021-10-14 16:41:00.714937,-76
2021-10-14 16:41:00.714945,-67
2021-10-14 16:41:00.714953,-72
2021-10-14 16:41:00.714962,-86
2021-10-14 16:41:00.714970,-91
2021-10-14 16:41:00.714978,-91
2021-10-14 16:41:00.714986,-98
2021-10-14 16:41:00.714995,-98
2021-10-14 16:41:00.715003,-76
2021-10-14 16:41:00.715011,-55
2021-10-14 16:41:00.715020,-64
2021-10-14 16:41:00.715028,-81
2021-10-14 16:41:00.715036,-79
2021-10-14 16:41:00.715045,-79
2021-10-14 16:41:00.939376,-81
2021-10-14 16:41:00.939396,-76
2021-10-14 16:41:00.939406,-67
2021-10-14 16:41:00.939414,-57
2021-10-14 16:41:00.939423,-57
2021-10-14 16:41:00.939431,-67
2021-10-14 16:41:00.939440,-60
2021-10-14 16:41:00.939448,-55
2021-10-14 16:41:00.939457,-60
2021-10-14 16:41:00.939465,-74
2021-10-14 16:41:00.939474,-91
2021-10-14 16:41:00.939482,-84
2021-10-14 16:41:00.939490,-45
2021-10-14 16:41:00.939499,-52
2021-10-14 16:41:00.939507,-93
2021-10-14 16:41:00.939515,-81
2021-10-14 16:41:00.939524,-38
2021-10-14 16:41:00.939532,-43
2021-10-14 16:41:00.939541,-64
2021-10-14 16:41:00.939549,-36
2021-10-14 16:41:00.939557,-9
2021-10-14 16:41:00.939566,-16
2021-10-14 16:41:00.939574,-2
2021-10-14 16:41:00.939582,19
2021-10-14 16:41:00.939591,24
2021-10-14 16:41:00.939599,14
2021-10-14 16:41:00.939608,-2
2021-10-14 16:41:00.939616,-19
2021-10-14 16:41:00.939624,-16
2021-10-14 16:41:00.939633,-12
2021-10-14 16:41:01.164450,-19
2021-10-14 16:41:01.164472,-4
2021-10-14 16:41:01.164482,19
2021-10-14 16:41:01.164490,2
2021-10-14 16:41:01.164499,-12
2021-10-14 16:41:01.164507,26
2021-10-14 16:41:01.164515,57
2021-10-14 16:41:01.164524,72
2021-10-14 16:41:01.164532,180
2021-10-14 16:41:01.164540,485
2021-10-14 16:41:01.164548,803
2021-10-14 16:41:01.164557,512
2021-10-14 16:41:01.164565,-452
2021-10-14 16:41:01.164573,-976
2021-10-14 16:41:01.164582,-553
2021-10-14 16:41:01.164590,-108
2021-10-14 16:41:01.164598,-36
2021-10-14 16:41:01.164607,76
2021-10-14 16:41:01.164615,197
2021-10-14 16:41:01.164623,175
2021-10-14 16:41:01.164631,168
2021-10-14 16:41:01.164640,204
2021-10-14 16:41:01.164648,214
2021-10-14 16:41:01.164656,211
2021-10-14 16:41:01.164665,214
2021-10-14 16:41:01.164673,218
2021-10-14 16:41:01.164681,240
2021-10-14 16:41:01.164689,262
2021-10-14 16:41:01.164697,252
2021-10-14 16:41:01.164705,262
2021-10-14 16:41:01.389731,298
2021-10-14 16:41:01.389751,303
2021-10-14 16:41:01.389760,307
2021-10-14 16:41:01.389769,317
2021-10-14 16:41:01.389778,312
2021-10-14 16:41:01.389786,339
2021-10-14 16:41:01.389795,363
2021-10-14 16:41:01.389803,360
2021-10-14 16:41:01.389812,365
2021-10-14 16:41:01.389820,360
2021-10-14 16:41:01.389828,341
2021-10-14 16:41:01.389837,353
2021-10-14 16:41:01.389845,365
2021-10-14 16:41:01.389853,339
2021-10-14 16:41:01.389862,303
2021-10-14 16:41:01.389870,271
2021-10-14 16:41:01.389879,247
2021-10-14 16:41:01.389887,228
2021-10-14 16:41:01.389896,206
2021-10-14 16:41:01.389904,180
2021-10-14 16:41:01.389913,153
2021-10-14 16:41:01.389921,129
2021-10-14 16:41:01.389929,117
2021-10-14 16:41:01.389938,120
2021-10-14 16:41:01.389946,132
2021-10-14 16:41:01.389954,132
2021-10-14 16:41:01.389963,103
2021-10-14 16:41:01.389971,98
2021-10-14 16:41:01.389980,110
2021-10-14 16:41:01.389988,108
2021-10-14 16:41:01.659794,125
2021-10-14 16:41:01.659816,144
2021-10-14 16:41:01.659825,129
2021-10-14 16:41:01.659834,117
2021-10-14 16:41:01.659843,129
2021-10-14 16:41:01.659851,141
2021-10-14 16:41:01.659859,139
2021-10-14 16:41:01.659868,139
2021-10-14 16:41:01.659876,141
2021-10-14 16:41:01.659884,139
2021-10-14 16:41:01.659893,134
2021-10-14 16:41:01.659901,141
2021-10-14 16:41:01.659910,151
2021-10-14 16:41:01.659918,151
2021-10-14 16:41:01.659927,141
2021-10-14 16:41:01.659935,141
2021-10-14 16:41:01.659944,141
2021-10-14 16:41:01.659952,139
2021-10-14 16:41:01.659960,129
2021-10-14 16:41:01.659969,137
2021-10-14 16:41:01.659977,146
2021-10-14 16:41:01.659985,141
2021-10-14 16:41:01.659994,144
2021-10-14 16:41:01.660002,161
2021-10-14 16:41:01.660010,165
2021-10-14 16:41:01.660018,163
2021-10-14 16:41:01.660027,168
2021-10-14 16:41:01.660035,163
2021-10-14 16:41:01.660043,144
2021-10-14 16:41:01.660052,134
2021-10-14 16:41:01.884705,141
2021-10-14 16:41:01.884724,149
2021-10-14 16:41:01.884733,146
2021-10-14 16:41:01.884742,139
2021-10-14 16:41:01.884750,139
2021-10-14 16:41:01.884759,141
2021-10-14 16:41:01.884767,144
2021-10-14 16:41:01.884775,146
2021-10-14 16:41:01.884784,141
2021-10-14 16:41:01.884792,137
2021-10-14 16:41:01.884800,146
2021-10-14 16:41:01.884808,158
2021-10-14 16:41:01.884817,161
2021-10-14 16:41:01.884825,173
2021-10-14 16:41:01.884833,177
2021-10-14 16:41:01.884841,153
2021-10-14 16:41:01.884849,122
2021-10-14 16:41:01.884858,117
2021-10-14 16:41:01.884866,125
2021-10-14 16:41:01.884874,115
2021-10-14 16:41:01.884882,96
2021-10-14 16:41:01.884890,101
2021-10-14 16:41:01.884898,117
2021-10-14 16:41:01.884907,122
2021-10-14 16:41:01.884915,120
2021-10-14 16:41:01.884923,122
2021-10-14 16:41:01.884931,120
2021-10-14 16:41:01.884939,122
2021-10-14 16:41:01.884948,228
2021-10-14 16:41:01.884956,538
2021-10-14 16:41:02.109338,882
2021-10-14 16:41:02.109357,673
2021-10-14 16:41:02.109367,-293
2021-10-14 16:41:02.109376,-997
2021-10-14 16:41:02.109384,-651
2021-10-14 16:41:02.109393,-108
2021-10-14 16:41:02.109401,-7
2021-10-14 16:41:02.109409,55
2021-10-14 16:41:02.109418,173
2021-10-14 16:41:02.109426,156
2021-10-14 16:41:02.109434,137
2021-10-14 16:41:02.109443,187
2021-10-14 16:41:02.109451,189
2021-10-14 16:41:02.109460,149
2021-10-14 16:41:02.109468,149
2021-10-14 16:41:02.109477,175
2021-10-14 16:41:02.109485,175
2021-10-14 16:41:02.109493,168
2021-10-14 16:41:02.109502,180
2021-10-14 16:41:02.109510,180
2021-10-14 16:41:02.109518,170
2021-10-14 16:41:02.109527,182
2021-10-14 16:41:02.109535,214
2021-10-14 16:41:02.109543,226
2021-10-14 16:41:02.109552,218
2021-10-14 16:41:02.109560,221
2021-10-14 16:41:02.109568,235
2021-10-14 16:41:02.109577,252
2021-10-14 16:41:02.109585,259
2021-10-14 16:41:02.109594,252
2021-10-14 16:41:02.378655,245
2021-10-14 16:41:02.378674,242
2021-10-14 16:41:02.378684,228
2021-10-14 16:41:02.378692,194
2021-10-14 16:41:02.378701,170
2021-10-14 16:41:02.378709,151
2021-10-14 16:41:02.378717,117
2021-10-14 16:41:02.378726,76
2021-10-14 16:41:02.378734,36
2021-10-14 16:41:02.378742,-9
2021-10-14 16:41:02.378751,-33
2021-10-14 16:41:02.378759,-38
2021-10-14 16:41:02.378767,-50
2021-10-14 16:41:02.378775,-67
2021-10-14 16:41:02.378784,-72
2021-10-14 16:41:02.378792,-74
2021-10-14 16:41:02.378800,-84
2021-10-14 16:41:02.378808,-101
2021-10-14 16:41:02.378817,-103
2021-10-14 16:41:02.378825,-93
2021-10-14 16:41:02.378833,-81
2021-10-14 16:41:02.378842,-76
2021-10-14 16:41:02.378850,-76
2021-10-14 16:41:02.378858,-64
2021-10-14 16:41:02.378866,-62
2021-10-14 16:41:02.378874,-88
2021-10-14 16:41:02.378883,-98
2021-10-14 16:41:02.378891,-79
2021-10-14 16:41:02.378899,-72
2021-10-14 16:41:02.378907,-76
2021-10-14 16:41:02.604829,-79
2021-10-14 16:41:02.604850,-74
2021-10-14 16:41:02.604859,-74
2021-10-14 16:41:02.604868,-81
2021-10-14 16:41:02.604877,-81
2021-10-14 16:41:02.604885,-74
2021-10-14 16:41:02.604894,-84
2021-10-14 16:41:02.604902,-88
2021-10-14 16:41:02.604911,-76
2021-10-14 16:41:02.604919,-76
2021-10-14 16:41:02.604927,-86
2021-10-14 16:41:02.604935,-93
2021-10-14 16:41:02.604944,-101
2021-10-14 16:41:02.604952,-88
2021-10-14 16:41:02.604961,-79
2021-10-14 16:41:02.604969,-81
2021-10-14 16:41:02.604977,-76
2021-10-14 16:41:02.604986,-79
2021-10-14 16:41:02.604994,-93
2021-10-14 16:41:02.605002,-93
2021-10-14 16:41:02.605011,-81
2021-10-14 16:41:02.605019,-74
2021-10-14 16:41:02.605027,-64
2021-10-14 16:41:02.605035,-52
2021-10-14 16:41:02.605044,-52
2021-10-14 16:41:02.605052,-48
2021-10-14 16:41:02.605061,-33
2021-10-14 16:41:02.605069,-40
2021-10-14 16:41:02.605077,-67
2021-10-14 16:41:02.605086,-81
2021-10-14 16:41:02.784393,-79
2021-10-14 16:41:02.784412,-76
2021-10-14 16:41:02.784422,-67
2021-10-14 16:41:02.784430,-62
2021-10-14 16:41:02.784438,-69
2021-10-14 16:41:02.784447,-69
2021-10-14 16:41:02.784455,-72
2021-10-14 16:41:02.784463,-74
2021-10-14 16:41:02.784471,-69
2021-10-14 16:41:02.784479,-55
2021-10-14 16:41:02.784488,4
2021-10-14 16:41:02.784496,233
2021-10-14 16:41:02.784505,627
2021-10-14 16:41:02.784513,692
2021-10-14 16:41:02.784521,-115
2021-10-14 16:41:02.784530,-1108
2021-10-14 16:41:02.784538,-1079
2021-10-14 16:41:02.784546,-454
2021-10-14 16:41:02.784554,-214
2021-10-14 16:41:02.784563,-151
2021-10-14 16:41:02.784571,2
2021-10-14 16:41:02.784579,38
2021-10-14 16:41:02.784588,-2
2021-10-14 16:41:02.784596,28
2021-10-14 16:41:02.784604,60
2021-10-14 16:41:02.784612,50
2021-10-14 16:41:02.784620,43
2021-10-14 16:41:02.784629,50
2021-10-14 16:41:02.784637,57
2021-10-14 16:41:02.784645,60
2021-10-14 16:41:03.099869,57
2021-10-14 16:41:03.099888,48
2021-10-14 16:41:03.099898,48
2021-10-14 16:41:03.099906,60
2021-10-14 16:41:03.099915,74
2021-10-14 16:41:03.099923,84
2021-10-14 16:41:03.099932,101
2021-10-14 16:41:03.099940,120
2021-10-14 16:41:03.099949,117
2021-10-14 16:41:03.099957,110
2021-10-14 16:41:03.099965,115
2021-10-14 16:41:03.099974,127
2021-10-14 16:41:03.099982,127
2021-10-14 16:41:03.099990,120
2021-10-14 16:41:03.099999,115
2021-10-14 16:41:03.100007,103
2021-10-14 16:41:03.100016,74
2021-10-14 16:41:03.100024,40
2021-10-14 16:41:03.100033,7
2021-10-14 16:41:03.100041,-28
2021-10-14 16:41:03.100049,-69
2021-10-14 16:41:03.100058,-120
2021-10-14 16:41:03.100066,-151
2021-10-14 16:41:03.100074,-149
2021-10-14 16:41:03.100083,-151
2021-10-14 16:41:03.100091,-175
2021-10-14 16:41:03.100099,-189
2021-10-14 16:41:03.100108,-185
2021-10-14 16:41:03.100116,-175
2021-10-14 16:41:03.100124,-177
2021-10-14 16:41:03.323814,-180
2021-10-14 16:41:03.323834,-168
2021-10-14 16:41:03.323843,-161
2021-10-14 16:41:03.323852,-161
2021-10-14 16:41:03.323860,-151
2021-10-14 16:41:03.323869,-144
2021-10-14 16:41:03.323877,-149
2021-10-14 16:41:03.323885,-146
2021-10-14 16:41:03.323894,-132
2021-10-14 16:41:03.323902,-127
2021-10-14 16:41:03.323911,-139
2021-10-14 16:41:03.323919,-139
2021-10-14 16:41:03.323927,-127
2021-10-14 16:41:03.323936,-129
2021-10-14 16:41:03.323944,-149
2021-10-14 16:41:03.323952,-158
2021-10-14 16:41:03.323961,-153
2021-10-14 16:41:03.323969,-146
2021-10-14 16:41:03.323977,-141
2021-10-14 16:41:03.323986,-141
2021-10-14 16:41:03.323994,-146
2021-10-14 16:41:03.324002,-153
2021-10-14 16:41:03.324011,-156
2021-10-14 16:41:03.324019,-158
2021-10-14 16:41:03.324027,-153
2021-10-14 16:41:03.324035,-141
2021-10-14 16:41:03.324043,-137
2021-10-14 16:41:03.324052,-141
2021-10-14 16:41:03.324060,-141
2021-10-14 16:41:03.324068,-134
2021-10-14 16:41:03.549371,-125
2021-10-14 16:41:03.549390,-115
2021-10-14 16:41:03.549400,-108
2021-10-14 16:41:03.549408,-110
2021-10-14 16:41:03.549417,-113
2021-10-14 16:41:03.549425,-101
2021-10-14 16:41:03.549433,-103
2021-10-14 16:41:03.549442,-127
2021-10-14 16:41:03.549450,-144
2021-10-14 16:41:03.549458,-144
2021-10-14 16:41:03.549467,-141
2021-10-14 16:41:03.549475,-144
2021-10-14 16:41:03.549483,-146
2021-10-14 16:41:03.549492,-139
2021-10-14 16:41:03.549500,-137
2021-10-14 16:41:03.549508,-139
2021-10-14 16:41:03.549517,-127
2021-10-14 16:41:03.549525,-115
2021-10-14 16:41:03.549534,-101
2021-10-14 16:41:03.549542,-2
2021-10-14 16:41:03.549551,312
2021-10-14 16:41:03.549559,685
2021-10-14 16:41:03.549567,519
2021-10-14 16:41:03.549576,-456
2021-10-14 16:41:03.549584,-1243
2021-10-14 16:41:03.549592,-933
2021-10-14 16:41:03.549601,-341
2021-10-14 16:41:03.549609,-204
2021-10-14 16:41:03.549617,-117
2021-10-14 16:41:03.549625,21
2021-10-14 16:41:03.819838,9
2021-10-14 16:41:03.819859,-19
2021-10-14 16:41:03.819869,26
2021-10-14 16:41:03.819877,40
2021-10-14 16:41:03.819886,26
2021-10-14 16:41:03.819894,40
2021-10-14 16:41:03.819903,57
2021-10-14 16:41:03.819911,55
2021-10-14 16:41:03.819919,50
2021-10-14 16:41:03.819928,50
2021-10-14 16:41:03.819936,60
2021-10-14 16:41:03.819944,74
2021-10-14 16:41:03.819953,81
2021-10-14 16:41:03.819961,91
2021-10-14 16:41:03.819970,101
2021-10-14 16:41:03.819978,115
2021-10-14 16:41:03.819986,132
2021-10-14 16:41:03.819995,151
2021-10-14 16:41:03.820003,161
2021-10-14 16:41:03.820011,156
2021-10-14 16:41:03.820020,153
2021-10-14 16:41:03.820028,161
2021-10-14 16:41:03.820036,158
2021-10-14 16:41:03.820044,141
2021-10-14 16:41:03.820053,120
2021-10-14 16:41:03.820061,93
2021-10-14 16:41:03.820069,57
2021-10-14 16:41:03.820077,21
2021-10-14 16:41:03.820086,-12
2021-10-14 16:41:03.820094,-45
2021-10-14 16:41:03.954734,-74
2021-10-14 16:41:03.954754,-98
2021-10-14 16:41:03.954763,-122
2021-10-14 16:41:03.954772,-132
2021-10-14 16:41:03.954781,-127
2021-10-14 16:41:03.954789,-127
2021-10-14 16:41:03.954797,-139
2021-10-14 16:41:03.954806,-149
2021-10-14 16:41:03.954814,-156
2021-10-14 16:41:03.954823,-151
2021-10-14 16:41:03.954831,-134
2021-10-14 16:41:03.954839,-122
2021-10-14 16:41:03.954847,-129
2021-10-14 16:41:03.954856,-139
2021-10-14 16:41:03.954864,-129
2021-10-14 16:41:03.954872,-122
2021-10-14 16:41:03.954880,-125
2021-10-14 16:41:03.954888,-120
2021-10-14 16:41:03.954897,-113
2021-10-14 16:41:03.954905,-110
2021-10-14 16:41:03.954913,-105
2021-10-14 16:41:03.954922,-98
2021-10-14 16:41:03.954930,-88
2021-10-14 16:41:03.954938,-81
2021-10-14 16:41:03.954946,-86
2021-10-14 16:41:03.954955,-91
2021-10-14 16:41:03.954963,-91
2021-10-14 16:41:03.954971,-91
2021-10-14 16:41:03.954980,-93
2021-10-14 16:41:03.954988,-96
2021-10-14 16:41:04.179374,-96
2021-10-14 16:41:04.179393,-91
2021-10-14 16:41:04.179402,-93
2021-10-14 16:41:04.179411,-91
2021-10-14 16:41:04.179419,-81
2021-10-14 16:41:04.179428,-86
2021-10-14 16:41:04.179436,-98
2021-10-14 16:41:04.179444,-108
2021-10-14 16:41:04.179453,-110
2021-10-14 16:41:04.179461,-113
2021-10-14 16:41:04.179469,-108
2021-10-14 16:41:04.179478,-98
2021-10-14 16:41:04.179486,-96
2021-10-14 16:41:04.179494,-103
2021-10-14 16:41:04.179502,-110
2021-10-14 16:41:04.179522,-105
2021-10-14 16:41:04.179531,-86
2021-10-14 16:41:04.179539,-69
2021-10-14 16:41:04.179547,-69
2021-10-14 16:41:04.179556,-57
2021-10-14 16:41:04.179564,-52
2021-10-14 16:41:04.179572,-84
2021-10-14 16:41:04.179580,-96
2021-10-14 16:41:04.179588,-81
2021-10-14 16:41:04.179597,-88
2021-10-14 16:41:04.179605,-93
2021-10-14 16:41:04.179613,-79
2021-10-14 16:41:04.179621,-74
2021-10-14 16:41:04.179629,-69
2021-10-14 16:41:04.179638,-55
2021-10-14 16:41:04.448133,-57
2021-10-14 16:41:04.448153,-62
2021-10-14 16:41:04.448163,-38
2021-10-14 16:41:04.448171,64
2021-10-14 16:41:04.448180,377
2021-10-14 16:41:04.448188,757
2021-10-14 16:41:04.448197,581
2021-10-14 16:41:04.448205,-408
2021-10-14 16:41:04.448213,-1199
2021-10-14 16:41:04.448222,-875
2021-10-14 16:41:04.448230,-252
2021-10-14 16:41:04.448238,-120
2021-10-14 16:41:04.448247,-79
2021-10-14 16:41:04.448255,50
2021-10-14 16:41:04.448263,57
2021-10-14 16:41:04.448272,26
2021-10-14 16:41:04.448280,60
2021-10-14 16:41:04.448289,76
2021-10-14 16:41:04.448297,55
2021-10-14 16:41:04.448305,52
2021-10-14 16:41:04.448314,60
2021-10-14 16:41:04.448322,62
2021-10-14 16:41:04.448330,79
2021-10-14 16:41:04.448338,91
2021-10-14 16:41:04.448347,88
2021-10-14 16:41:04.448355,96
2021-10-14 16:41:04.448363,110
2021-10-14 16:41:04.448371,120
2021-10-14 16:41:04.448379,134
2021-10-14 16:41:04.448388,144
2021-10-14 16:41:04.629448,149
2021-10-14 16:41:04.629469,161
2021-10-14 16:41:04.629478,182
2021-10-14 16:41:04.629486,194
2021-10-14 16:41:04.629495,197
2021-10-14 16:41:04.629503,182
2021-10-14 16:41:04.629512,163
2021-10-14 16:41:04.629520,161
2021-10-14 16:41:04.629529,151
2021-10-14 16:41:04.629537,120
2021-10-14 16:41:04.629545,86
2021-10-14 16:41:04.629554,52
2021-10-14 16:41:04.629562,19
2021-10-14 16:41:04.629570,-12
2021-10-14 16:41:04.629579,-50
2021-10-14 16:41:04.629587,-79
2021-10-14 16:41:04.629596,-86
2021-10-14 16:41:04.629604,-103
2021-10-14 16:41:04.629612,-110
2021-10-14 16:41:04.629621,-93
2021-10-14 16:41:04.629629,-96
2021-10-14 16:41:04.629637,-115
2021-10-14 16:41:04.629646,-115
2021-10-14 16:41:04.629654,-113
2021-10-14 16:41:04.629662,-108
2021-10-14 16:41:04.629671,-96
2021-10-14 16:41:04.629679,-88
2021-10-14 16:41:04.629688,-91
2021-10-14 16:41:04.629696,-93
2021-10-14 16:41:04.629704,-79
2021-10-14 16:41:04.899812,-64
2021-10-14 16:41:04.899833,-55
2021-10-14 16:41:04.899842,-48
2021-10-14 16:41:04.899851,-50
2021-10-14 16:41:04.899859,-57
2021-10-14 16:41:04.899867,-57
2021-10-14 16:41:04.899876,-50
2021-10-14 16:41:04.899884,-48
2021-10-14 16:41:04.899892,-45
2021-10-14 16:41:04.899901,-43
2021-10-14 16:41:04.899909,-52
2021-10-14 16:41:04.899917,-57
2021-10-14 16:41:04.899925,-48
2021-10-14 16:41:04.899934,-38
2021-10-14 16:41:04.899942,-48
2021-10-14 16:41:04.899950,-55
2021-10-14 16:41:04.899958,-45
2021-10-14 16:41:04.899967,-45
2021-10-14 16:41:04.899975,-55
2021-10-14 16:41:04.899983,-48
2021-10-14 16:41:04.899991,-38
2021-10-14 16:41:04.899999,-45
2021-10-14 16:41:04.900008,-57
2021-10-14 16:41:04.900016,-62
2021-10-14 16:41:04.900024,-67
2021-10-14 16:41:04.900033,-69
2021-10-14 16:41:04.900041,-64
2021-10-14 16:41:04.900049,-57
2021-10-14 16:41:04.900057,-69
2021-10-14 16:41:04.900066,-74
2021-10-14 16:41:05.079414,-52
2021-10-14 16:41:05.079435,-45
2021-10-14 16:41:05.079445,-64
2021-10-14 16:41:05.079453,-60
2021-10-14 16:41:05.079462,-48
2021-10-14 16:41:05.079470,-67
2021-10-14 16:41:05.079479,-84
2021-10-14 16:41:05.079487,-81
2021-10-14 16:41:05.079495,-86
2021-10-14 16:41:05.079504,-86
2021-10-14 16:41:05.079512,-79
2021-10-14 16:41:05.079520,-81
2021-10-14 16:41:05.079529,-76
2021-10-14 16:41:05.079537,-67
2021-10-14 16:41:05.079546,-60
2021-10-14 16:41:05.079554,-64
2021-10-14 16:41:05.079562,-64
2021-10-14 16:41:05.079571,-21
2021-10-14 16:41:05.079579,156
2021-10-14 16:41:05.079587,531
2021-10-14 16:41:05.079596,759
2021-10-14 16:41:05.079604,209
2021-10-14 16:41:05.079613,-839
2021-10-14 16:41:05.079621,-1139
2021-10-14 16:41:05.079629,-577
2021-10-14 16:41:05.079638,-187
2021-10-14 16:41:05.079646,-139
2021-10-14 16:41:05.079654,-31
2021-10-14 16:41:05.079663,48
2021-10-14 16:41:05.079671,31
2021-10-14 16:41:05.349456,45
2021-10-14 16:41:05.349477,79
2021-10-14 16:41:05.349487,74
2021-10-14 16:41:05.349495,62
2021-10-14 16:41:05.349504,69
2021-10-14 16:41:05.349513,79
2021-10-14 16:41:05.349521,79
2021-10-14 16:41:05.349529,88
2021-10-14 16:41:05.349538,105
2021-10-14 16:41:05.349546,98
2021-10-14 16:41:05.349555,101
2021-10-14 16:41:05.349563,127
2021-10-14 16:41:05.349572,141
2021-10-14 16:41:05.349580,141
2021-10-14 16:41:05.349588,149
2021-10-14 16:41:05.349597,170
2021-10-14 16:41:05.349605,194
2021-10-14 16:41:05.349613,199
2021-10-14 16:41:05.349622,202
2021-10-14 16:41:05.349630,206
2021-10-14 16:41:05.349638,199
2021-10-14 16:41:05.349647,189
2021-10-14 16:41:05.349655,180
2021-10-14 16:41:05.349663,161
2021-10-14 16:41:05.349671,129
2021-10-14 16:41:05.349680,93
2021-10-14 16:41:05.349688,52
2021-10-14 16:41:05.349696,14
2021-10-14 16:41:05.349705,-26
2021-10-14 16:41:05.349713,-57
2021-10-14 16:41:05.619214,-76
2021-10-14 16:41:05.619234,-91
2021-10-14 16:41:05.619243,-98
2021-10-14 16:41:05.619252,-98
2021-10-14 16:41:05.619260,-105
2021-10-14 16:41:05.619269,-108
2021-10-14 16:41:05.619277,-101
2021-10-14 16:41:05.619286,-105
2021-10-14 16:41:05.619294,-122
2021-10-14 16:41:05.619302,-122
2021-10-14 16:41:05.619311,-91
2021-10-14 16:41:05.619319,-72
2021-10-14 16:41:05.619327,-79
2021-10-14 16:41:05.619336,-79
2021-10-14 16:41:05.619344,-72
2021-10-14 16:41:05.619352,-72
2021-10-14 16:41:05.619361,-67
2021-10-14 16:41:05.619369,-50
2021-10-14 16:41:05.619378,-38
2021-10-14 16:41:05.619386,-38
2021-10-14 16:41:05.619394,-50
2021-10-14 16:41:05.619402,-48
2021-10-14 16:41:05.619411,-38
2021-10-14 16:41:05.619419,-40
2021-10-14 16:41:05.619427,-40
2021-10-14 16:41:05.619435,-33
2021-10-14 16:41:05.619444,-43
2021-10-14 16:41:05.619452,-50
2021-10-14 16:41:05.619460,-36
2021-10-14 16:41:05.619468,-31
2021-10-14 16:41:05.799784,-43
2021-10-14 16:41:05.799803,-50
2021-10-14 16:41:05.799812,-57
2021-10-14 16:41:05.799821,-52
2021-10-14 16:41:05.799830,-38
2021-10-14 16:41:05.799838,-40
2021-10-14 16:41:05.799846,-40
2021-10-14 16:41:05.799855,-33
2021-10-14 16:41:05.799863,-40
2021-10-14 16:41:05.799871,-48
2021-10-14 16:41:05.799880,-43
2021-10-14 16:41:05.799888,-33
2021-10-14 16:41:05.799896,-33
2021-10-14 16:41:05.799905,-43
2021-10-14 16:41:05.799913,-55
2021-10-14 16:41:05.799921,-43
2021-10-14 16:41:05.799929,-26
2021-10-14 16:41:05.799938,-33
2021-10-14 16:41:05.799946,-36
2021-10-14 16:41:05.799954,-19
2021-10-14 16:41:05.799963,-31
2021-10-14 16:41:05.799971,-64
2021-10-14 16:41:05.799979,-79
2021-10-14 16:41:05.799987,-79
2021-10-14 16:41:05.799996,-74
2021-10-14 16:41:05.800004,-69
2021-10-14 16:41:05.800013,-67
2021-10-14 16:41:05.800021,-64
2021-10-14 16:41:05.800029,-60
2021-10-14 16:41:05.800037,-52
2021-10-14 16:41:06.024429,-50
2021-10-14 16:41:06.024448,-50
2021-10-14 16:41:06.024458,-31
2021-10-14 16:41:06.024466,62
2021-10-14 16:41:06.024475,358
2021-10-14 16:41:06.024484,728
2021-10-14 16:41:06.024492,565
2021-10-14 16:41:06.024500,-440
2021-10-14 16:41:06.024509,-1250
2021-10-14 16:41:06.024517,-918
2021-10-14 16:41:06.024525,-305
2021-10-14 16:41:06.024534,-180
2021-10-14 16:41:06.024542,-108
2021-10-14 16:41:06.024550,33
2021-10-14 16:41:06.024559,28
2021-10-14 16:41:06.024567,7
2021-10-14 16:41:06.024576,55
2021-10-14 16:41:06.024584,64
2021-10-14 16:41:06.024592,45
2021-10-14 16:41:06.024601,57
2021-10-14 16:41:06.024609,72
2021-10-14 16:41:06.024617,74
2021-10-14 16:41:06.024626,88
2021-10-14 16:41:06.024634,108
2021-10-14 16:41:06.024642,101
2021-10-14 16:41:06.024651,96
2021-10-14 16:41:06.024659,115
2021-10-14 16:41:06.024667,141
2021-10-14 16:41:06.024676,156
2021-10-14 16:41:06.024684,158
2021-10-14 16:41:06.294453,168
2021-10-14 16:41:06.294473,182
2021-10-14 16:41:06.294482,199
2021-10-14 16:41:06.294491,204
2021-10-14 16:41:06.294499,202
2021-10-14 16:41:06.294508,194
2021-10-14 16:41:06.294516,185
2021-10-14 16:41:06.294524,173
2021-10-14 16:41:06.294533,149
2021-10-14 16:41:06.294541,113
2021-10-14 16:41:06.294549,84
2021-10-14 16:41:06.294558,55
2021-10-14 16:41:06.294566,12
2021-10-14 16:41:06.294575,-33
2021-10-14 16:41:06.294583,-64
2021-10-14 16:41:06.294591,-79
2021-10-14 16:41:06.294600,-79
2021-10-14 16:41:06.294608,-93
2021-10-14 16:41:06.294616,-117
2021-10-14 16:41:06.294624,-117
2021-10-14 16:41:06.294632,-105
2021-10-14 16:41:06.294641,-110
2021-10-14 16:41:06.294649,-117
2021-10-14 16:41:06.294657,-103
2021-10-14 16:41:06.294665,-93
2021-10-14 16:41:06.294674,-88
2021-10-14 16:41:06.294682,-79
2021-10-14 16:41:06.294690,-76
2021-10-14 16:41:06.294698,-72
2021-10-14 16:41:06.294706,-60
2021-10-14 16:41:06.518438,-55
2021-10-14 16:41:06.518458,-48
2021-10-14 16:41:06.518467,-40
2021-10-14 16:41:06.518475,-38
2021-10-14 16:41:06.518484,-31
2021-10-14 16:41:06.518492,-24
2021-10-14 16:41:06.518501,-28
2021-10-14 16:41:06.518509,-33
2021-10-14 16:41:06.518517,-26
2021-10-14 16:41:06.518525,-28
2021-10-14 16:41:06.518534,-48
2021-10-14 16:41:06.518542,-67
2021-10-14 16:41:06.518550,-67
2021-10-14 16:41:06.518559,-57
2021-10-14 16:41:06.518567,-55
2021-10-14 16:41:06.518575,-55
2021-10-14 16:41:06.518583,-55
2021-10-14 16:41:06.518592,-62
2021-10-14 16:41:06.518600,-64
2021-10-14 16:41:06.518608,-52
2021-10-14 16:41:06.518616,-48
2021-10-14 16:41:06.518625,-50
2021-10-14 16:41:06.518633,-48
2021-10-14 16:41:06.518641,-50
2021-10-14 16:41:06.518650,-55
2021-10-14 16:41:06.518658,-52
2021-10-14 16:41:06.518666,-48
2021-10-14 16:41:06.518674,-48
2021-10-14 16:41:06.518683,-45
2021-10-14 16:41:06.518691,-40
2021-10-14 16:41:06.833869,-45
2021-10-14 16:41:06.833891,-52
2021-10-14 16:41:06.833901,-52
2021-10-14 16:41:06.833910,-45
2021-10-14 16:41:06.833918,-38
2021-10-14 16:41:06.833927,-31
2021-10-14 16:41:06.833935,-24
2021-10-14 16:41:06.833944,-36
2021-10-14 16:41:06.833952,-74
2021-10-14 16:41:06.833960,-88
2021-10-14 16:41:06.833969,-84
2021-10-14 16:41:06.833977,-88
2021-10-14 16:41:06.833986,-81
2021-10-14 16:41:06.833994,-64
2021-10-14 16:41:06.834003,-64
2021-10-14 16:41:06.834011,-72
2021-10-14 16:41:06.834019,-69
2021-10-14 16:41:06.834028,-52
2021-10-14 16:41:06.834036,-40
2021-10-14 16:41:06.834044,-9
2021-10-14 16:41:06.834053,158
2021-10-14 16:41:06.834061,555
2021-10-14 16:41:06.834070,815
2021-10-14 16:41:06.834078,281
2021-10-14 16:41:06.834087,-805
2021-10-14 16:41:06.834095,-1161
2021-10-14 16:41:06.834103,-569
2021-10-14 16:41:06.834112,-146
2021-10-14 16:41:06.834120,-120
2021-10-14 16:41:06.834128,-7
2021-10-14 16:41:06.969241,93
2021-10-14 16:41:06.969262,64
2021-10-14 16:41:06.969272,57
2021-10-14 16:41:06.969280,84
2021-10-14 16:41:06.969289,76
2021-10-14 16:41:06.969297,74
2021-10-14 16:41:06.969306,93
2021-10-14 16:41:06.969314,101
2021-10-14 16:41:06.969323,96
2021-10-14 16:41:06.969331,105
2021-10-14 16:41:06.969339,117
2021-10-14 16:41:06.969348,117
2021-10-14 16:41:06.969356,125
2021-10-14 16:41:06.969365,137
2021-10-14 16:41:06.969373,144
2021-10-14 16:41:06.969382,151
2021-10-14 16:41:06.969390,161
2021-10-14 16:41:06.969398,173
2021-10-14 16:41:06.969407,189
2021-10-14 16:41:06.969415,202
2021-10-14 16:41:06.969423,204
2021-10-14 16:41:06.969432,197
2021-10-14 16:41:06.969440,192
2021-10-14 16:41:06.969448,192
2021-10-14 16:41:06.969457,175
2021-10-14 16:41:06.969465,151
2021-10-14 16:41:06.969473,129
2021-10-14 16:41:06.969481,93
2021-10-14 16:41:06.969490,48
2021-10-14 16:41:06.969498,14
2021-10-14 16:41:07.239452,-12
2021-10-14 16:41:07.239472,-40
2021-10-14 16:41:07.239482,-64
2021-10-14 16:41:07.239491,-84
2021-10-14 16:41:07.239499,-101
2021-10-14 16:41:07.239507,-108
2021-10-14 16:41:07.239516,-110
2021-10-14 16:41:07.239524,-101
2021-10-14 16:41:07.239532,-101
2021-10-14 16:41:07.239541,-108
2021-10-14 16:41:07.239549,-105
2021-10-14 16:41:07.239557,-93
2021-10-14 16:41:07.239566,-86
2021-10-14 16:41:07.239574,-88
2021-10-14 16:41:07.239582,-91
2021-10-14 16:41:07.239590,-81
2021-10-14 16:41:07.239599,-64
2021-10-14 16:41:07.239607,-57
2021-10-14 16:41:07.239615,-57
2021-10-14 16:41:07.239623,-52
2021-10-14 16:41:07.239631,-48
2021-10-14 16:41:07.239640,-50
2021-10-14 16:41:07.239648,-40
2021-10-14 16:41:07.239656,-28
2021-10-14 16:41:07.239664,-31
2021-10-14 16:41:07.239673,-28
2021-10-14 16:41:07.239681,-26
2021-10-14 16:41:07.239689,-36
2021-10-14 16:41:07.239697,-43
2021-10-14 16:41:07.239706,-26
2021-10-14 16:41:07.463885,-9
2021-10-14 16:41:07.463905,-16
2021-10-14 16:41:07.463914,-33
2021-10-14 16:41:07.463923,-38
2021-10-14 16:41:07.463931,-33
2021-10-14 16:41:07.463940,-31
2021-10-14 16:41:07.463948,-28
2021-10-14 16:41:07.463956,-28
2021-10-14 16:41:07.463964,-40
2021-10-14 16:41:07.463973,-57
2021-10-14 16:41:07.463981,-55
2021-10-14 16:41:07.463989,-40
2021-10-14 16:41:07.463998,-45
2021-10-14 16:41:07.464006,-57
2021-10-14 16:41:07.464014,-55
2021-10-14 16:41:07.464023,-57
2021-10-14 16:41:07.464031,-57
2021-10-14 16:41:07.464039,-50
2021-10-14 16:41:07.464047,-45
2021-10-14 16:41:07.464055,-50
2021-10-14 16:41:07.464064,-64
2021-10-14 16:41:07.464072,-67
2021-10-14 16:41:07.464080,-50
2021-10-14 16:41:07.464089,-43
2021-10-14 16:41:07.464097,-40
2021-10-14 16:41:07.464105,-26
2021-10-14 16:41:07.464113,-28
2021-10-14 16:41:07.464122,-67
2021-10-14 16:41:07.464130,-79
2021-10-14 16:41:07.464138,-52
2021-10-14 16:41:07.644901,-43
2021-10-14 16:41:07.644922,-57
2021-10-14 16:41:07.644932,-62
2021-10-14 16:41:07.644941,-60
2021-10-14 16:41:07.644949,-55
2021-10-14 16:41:07.644958,-43
2021-10-14 16:41:07.644966,-33
2021-10-14 16:41:07.644974,-36
2021-10-14 16:41:07.644983,-40
2021-10-14 16:41:07.644991,12
2021-10-14 16:41:07.644999,233
2021-10-14 16:41:07.645008,630
2021-10-14 16:41:07.645016,776
2021-10-14 16:41:07.645024,108
2021-10-14 16:41:07.645033,-925
2021-10-14 16:41:07.645041,-1084
2021-10-14 16:41:07.645049,-468
2021-10-14 16:41:07.645058,-141
2021-10-14 16:41:07.645066,-105
2021-10-14 16:41:07.645074,26
2021-10-14 16:41:07.645083,86
2021-10-14 16:41:07.645091,36
2021-10-14 16:41:07.645099,45
2021-10-14 16:41:07.645108,84
2021-10-14 16:41:07.645116,84
2021-10-14 16:41:07.645124,84
2021-10-14 16:41:07.645132,91
2021-10-14 16:41:07.645141,93
2021-10-14 16:41:07.645149,98
2021-10-14 16:41:07.645157,110
2021-10-14 16:41:07.869480,125
2021-10-14 16:41:07.869501,125
2021-10-14 16:41:07.869510,129
2021-10-14 16:41:07.869518,149
2021-10-14 16:41:07.869527,165
2021-10-14 16:41:07.869535,165
2021-10-14 16:41:07.869543,165
2021-10-14 16:41:07.869552,175
2021-10-14 16:41:07.869560,185
2021-10-14 16:41:07.869568,197
2021-10-14 16:41:07.869576,216
2021-10-14 16:41:07.869585,226
2021-10-14 16:41:07.869593,211
2021-10-14 16:41:07.869601,189
2021-10-14 16:41:07.869609,170
2021-10-14 16:41:07.869618,153
2021-10-14 16:41:07.869626,125
2021-10-14 16:41:07.869634,91
2021-10-14 16:41:07.869643,55
2021-10-14 16:41:07.869651,9
2021-10-14 16:41:07.869659,-28
2021-10-14 16:41:07.869668,-48
2021-10-14 16:41:07.869676,-60
2021-10-14 16:41:07.869684,-72
2021-10-14 16:41:07.869692,-86
2021-10-14 16:41:07.869700,-101
2021-10-14 16:41:07.869709,-108
2021-10-14 16:41:07.869717,-110
2021-10-14 16:41:07.869725,-117
2021-10-14 16:41:07.869733,-115
2021-10-14 16:41:08.094835,-101
2021-10-14 16:41:08.094855,-101
2021-10-14 16:41:08.094864,-101
2021-10-14 16:41:08.094873,-88
2021-10-14 16:41:08.094881,-74
2021-10-14 16:41:08.094889,-69
2021-10-14 16:41:08.094898,-69
2021-10-14 16:41:08.094906,-69
2021-10-14 16:41:08.094914,-60
2021-10-14 16:41:08.094922,-55
2021-10-14 16:41:08.094931,-50
2021-10-14 16:41:08.094939,-43
2021-10-14 16:41:08.094947,-43
2021-10-14 16:41:08.094956,-48
2021-10-14 16:41:08.094964,-50
2021-10-14 16:41:08.094972,-48
2021-10-14 16:41:08.094981,-43
2021-10-14 16:41:08.095001,-48
2021-10-14 16:41:08.095010,-52
2021-10-14 16:41:08.095018,-57
2021-10-14 16:41:08.095026,-64
2021-10-14 16:41:08.095035,-62
2021-10-14 16:41:08.095043,-57
2021-10-14 16:41:08.095051,-67
2021-10-14 16:41:08.095060,-74
2021-10-14 16:41:08.095068,-67
2021-10-14 16:41:08.095076,-72
2021-10-14 16:41:08.095084,-76
2021-10-14 16:41:08.095093,-72
2021-10-14 16:41:08.095107,-62
2021-10-14 16:41:08.319819,-64
2021-10-14 16:41:08.319839,-67
2021-10-14 16:41:08.319848,-64
2021-10-14 16:41:08.319857,-57
2021-10-14 16:41:08.319865,-57
2021-10-14 16:41:08.319873,-62
2021-10-14 16:41:08.319882,-60
2021-10-14 16:41:08.319890,-52
2021-10-14 16:41:08.319898,-60
2021-10-14 16:41:08.319907,-62
2021-10-14 16:41:08.319915,-48
2021-10-14 16:41:08.319923,-40
2021-10-14 16:41:08.319931,-43
2021-10-14 16:41:08.319939,-28
2021-10-14 16:41:08.319948,-4
2021-10-14 16:41:08.319956,-7
2021-10-14 16:41:08.319964,-38
2021-10-14 16:41:08.319972,-62
2021-10-14 16:41:08.319981,-60
2021-10-14 16:41:08.319989,-50
2021-10-14 16:41:08.319997,-50
2021-10-14 16:41:08.320006,-55
2021-10-14 16:41:08.320014,-48
2021-10-14 16:41:08.320022,-36
2021-10-14 16:41:08.320030,-38
2021-10-14 16:41:08.320038,-36
2021-10-14 16:41:08.320047,-24
2021-10-14 16:41:08.320055,-9
2021-10-14 16:41:08.320063,76
2021-10-14 16:41:08.320071,365
2021-10-14 16:41:08.588149,755
2021-10-14 16:41:08.588170,654
2021-10-14 16:41:08.588179,-298
2021-10-14 16:41:08.588188,-1161
2021-10-14 16:41:08.588197,-930
2021-10-14 16:41:08.588205,-343
2021-10-14 16:41:08.588214,-175
2021-10-14 16:41:08.588222,-84
2021-10-14 16:41:08.588230,57
2021-10-14 16:41:08.588239,60
2021-10-14 16:41:08.588247,40
2021-10-14 16:41:08.588255,72
2021-10-14 16:41:08.588263,74
2021-10-14 16:41:08.588272,67
2021-10-14 16:41:08.588280,76
2021-10-14 16:41:08.588289,76
2021-10-14 16:41:08.588297,76
2021-10-14 16:41:08.588305,93
2021-10-14 16:41:08.588314,113
2021-10-14 16:41:08.588322,127
2021-10-14 16:41:08.588331,132
2021-10-14 16:41:08.588339,139
2021-10-14 16:41:08.588347,151
2021-10-14 16:41:08.588356,161
2021-10-14 16:41:08.588364,163
2021-10-14 16:41:08.588373,165
2021-10-14 16:41:08.588381,182
2021-10-14 16:41:08.588389,206
2021-10-14 16:41:08.588398,214
2021-10-14 16:41:08.588406,218
2021-10-14 16:41:08.769866,230
2021-10-14 16:41:08.769887,223
2021-10-14 16:41:08.769897,197
2021-10-14 16:41:08.769905,168
2021-10-14 16:41:08.769914,141
2021-10-14 16:41:08.769922,108
2021-10-14 16:41:08.769931,62
2021-10-14 16:41:08.769939,28
2021-10-14 16:41:08.769947,2
2021-10-14 16:41:08.769956,-36
2021-10-14 16:41:08.769964,-76
2021-10-14 16:41:08.769972,-93
2021-10-14 16:41:08.769981,-96
2021-10-14 16:41:08.769989,-103
2021-10-14 16:41:08.769997,-117
2021-10-14 16:41:08.770005,-129
2021-10-14 16:41:08.770014,-127
2021-10-14 16:41:08.770022,-113
2021-10-14 16:41:08.770030,-103
2021-10-14 16:41:08.770038,-105
2021-10-14 16:41:08.770046,-98
2021-10-14 16:41:08.770055,-88
2021-10-14 16:41:08.770063,-86
2021-10-14 16:41:08.770071,-79
2021-10-14 16:41:08.770079,-67
2021-10-14 16:41:08.770088,-64
2021-10-14 16:41:08.770096,-64
2021-10-14 16:41:08.770104,-57
2021-10-14 16:41:08.770112,-52
2021-10-14 16:41:08.770121,-40
2021-10-14 16:41:09.039871,-36
2021-10-14 16:41:09.039890,-48
2021-10-14 16:41:09.039900,-52
2021-10-14 16:41:09.039908,-50
2021-10-14 16:41:09.039917,-60
2021-10-14 16:41:09.039925,-69
2021-10-14 16:41:09.039934,-64
2021-10-14 16:41:09.039942,-72
2021-10-14 16:41:09.039950,-86
2021-10-14 16:41:09.039959,-93
2021-10-14 16:41:09.039967,-103
2021-10-14 16:41:09.039975,-103
2021-10-14 16:41:09.039984,-96
2021-10-14 16:41:09.039992,-96
2021-10-14 16:41:09.040000,-98
2021-10-14 16:41:09.040009,-96
2021-10-14 16:41:09.040017,-96
2021-10-14 16:41:09.040026,-91
2021-10-14 16:41:09.040034,-81
2021-10-14 16:41:09.040042,-76
2021-10-14 16:41:09.040051,-76
2021-10-14 16:41:09.040059,-74
2021-10-14 16:41:09.040067,-69
2021-10-14 16:41:09.040075,-62
2021-10-14 16:41:09.040084,-64
2021-10-14 16:41:09.040092,-67
2021-10-14 16:41:09.040100,-62
2021-10-14 16:41:09.040109,-60
2021-10-14 16:41:09.040117,-60
2021-10-14 16:41:09.040125,-57
2021-10-14 16:41:09.264497,-62
2021-10-14 16:41:09.264517,-69
2021-10-14 16:41:09.264527,-64
2021-10-14 16:41:09.264535,-55
2021-10-14 16:41:09.264544,-40
2021-10-14 16:41:09.264552,-26
2021-10-14 16:41:09.264560,-12
2021-10-14 16:41:09.264569,-2
2021-10-14 16:41:09.264577,-26
2021-10-14 16:41:09.264585,-60
2021-10-14 16:41:09.264593,-64
2021-10-14 16:41:09.264602,-60
2021-10-14 16:41:09.264610,-62
2021-10-14 16:41:09.264618,-57
2021-10-14 16:41:09.264626,-52
2021-10-14 16:41:09.264635,-62
2021-10-14 16:41:09.264643,-55
2021-10-14 16:41:09.264651,-38
2021-10-14 16:41:09.264659,-38
2021-10-14 16:41:09.264668,-36
2021-10-14 16:41:09.264676,-14
2021-10-14 16:41:09.264684,67
2021-10-14 16:41:09.264692,346
2021-10-14 16:41:09.264701,747
2021-10-14 16:41:09.264709,690
2021-10-14 16:41:09.264717,-223
2021-10-14 16:41:09.264726,-1127
2021-10-14 16:41:09.264734,-928
2021-10-14 16:41:09.264743,-286
2021-10-14 16:41:09.264751,-113
2021-10-14 16:41:09.489816,-76
2021-10-14 16:41:09.489835,55
2021-10-14 16:41:09.489845,72
2021-10-14 16:41:09.489853,43
2021-10-14 16:41:09.489862,74
2021-10-14 16:41:09.489870,88
2021-10-14 16:41:09.489878,76
2021-10-14 16:41:09.489887,81
2021-10-14 16:41:09.489895,81
2021-10-14 16:41:09.489903,79
2021-10-14 16:41:09.489912,93
2021-10-14 16:41:09.489920,108
2021-10-14 16:41:09.489928,101
2021-10-14 16:41:09.489937,88
2021-10-14 16:41:09.489945,91
2021-10-14 16:41:09.489953,103
2021-10-14 16:41:09.489961,117
2021-10-14 16:41:09.489970,134
2021-10-14 16:41:09.489978,149
2021-10-14 16:41:09.489986,158
2021-10-14 16:41:09.489994,173
2021-10-14 16:41:09.490002,187
2021-10-14 16:41:09.490010,194
2021-10-14 16:41:09.490018,194
2021-10-14 16:41:09.490027,187
2021-10-14 16:41:09.490035,173
2021-10-14 16:41:09.490043,151
2021-10-14 16:41:09.490052,129
2021-10-14 16:41:09.490060,108
2021-10-14 16:41:09.490068,79
2021-10-14 16:41:09.715326,40
2021-10-14 16:41:09.715346,-4
2021-10-14 16:41:09.715354,-38
2021-10-14 16:41:09.715362,-62
2021-10-14 16:41:09.715369,-81
2021-10-14 16:41:09.715376,-93
2021-10-14 16:41:09.715383,-105
2021-10-14 16:41:09.715390,-125
2021-10-14 16:41:09.715396,-132
2021-10-14 16:41:09.715404,-122
