Time,ECG
2021-09-23 21:15:19.322539,-24
2021-09-23 21:15:19.322557,-43
2021-09-23 21:15:19.322564,-55
2021-09-23 21:15:19.322570,-64
2021-09-23 21:15:19.322576,-72
2021-09-23 21:15:19.322582,-81
2021-09-23 21:15:19.322587,-101
2021-09-23 21:15:19.322593,-105
2021-09-23 21:15:19.322599,-93
2021-09-23 21:15:19.322605,-88
2021-09-23 21:15:19.322611,-96
2021-09-23 21:15:19.322617,-93
2021-09-23 21:15:19.322623,-84
2021-09-23 21:15:19.322628,-74
2021-09-23 21:15:19.322634,-62
2021-09-23 21:15:19.322640,-62
2021-09-23 21:15:19.322646,-57
2021-09-23 21:15:19.322652,-52
2021-09-23 21:15:19.322657,-52
2021-09-23 21:15:19.322663,-48
2021-09-23 21:15:19.322669,-45
2021-09-23 21:15:19.322675,-60
2021-09-23 21:15:19.322680,-67
2021-09-23 21:15:19.322686,-62
2021-09-23 21:15:19.322691,-67
2021-09-23 21:15:19.322697,-72
2021-09-23 21:15:19.322704,-76
2021-09-23 21:15:19.322710,-84
2021-09-23 21:15:19.322715,-88
2021-09-23 21:15:19.322721,-81
2021-09-23 21:15:19.503907,-76
2021-09-23 21:15:19.503925,-79
2021-09-23 21:15:19.503932,-79
2021-09-23 21:15:19.503938,-74
2021-09-23 21:15:19.503944,-74
2021-09-23 21:15:19.503950,-74
2021-09-23 21:15:19.503956,-74
2021-09-23 21:15:19.503962,-67
2021-09-23 21:15:19.503968,-52
2021-09-23 21:15:19.503974,-45
2021-09-23 21:15:19.503980,-48
2021-09-23 21:15:19.503985,-43
2021-09-23 21:15:19.503991,-33
2021-09-23 21:15:19.503997,-45
2021-09-23 21:15:19.504003,-67
2021-09-23 21:15:19.504009,-72
2021-09-23 21:15:19.504014,-60
2021-09-23 21:15:19.504021,-55
2021-09-23 21:15:19.504026,-43
2021-09-23 21:15:19.504032,-19
2021-09-23 21:15:19.504038,74
2021-09-23 21:15:19.504044,315
2021-09-23 21:15:19.504049,649
2021-09-23 21:15:19.504055,726
2021-09-23 21:15:19.504061,105
2021-09-23 21:15:19.504067,-596
2021-09-23 21:15:19.504072,-404
2021-09-23 21:15:19.504078,-9
2021-09-23 21:15:19.504084,-108
2021-09-23 21:15:19.504091,-149
2021-09-23 21:15:19.728870,-31
2021-09-23 21:15:19.728886,-48
2021-09-23 21:15:19.728893,-79
2021-09-23 21:15:19.728899,-36
2021-09-23 21:15:19.728905,-28
2021-09-23 21:15:19.728911,-40
2021-09-23 21:15:19.728917,-16
2021-09-23 21:15:19.728923,-2
2021-09-23 21:15:19.728929,-7
2021-09-23 21:15:19.728935,2
2021-09-23 21:15:19.728941,9
2021-09-23 21:15:19.728947,4
2021-09-23 21:15:19.728953,14
2021-09-23 21:15:19.728962,33
2021-09-23 21:15:19.728968,40
2021-09-23 21:15:19.728973,45
2021-09-23 21:15:19.728979,57
2021-09-23 21:15:19.728985,60
2021-09-23 21:15:19.728991,62
2021-09-23 21:15:19.728997,62
2021-09-23 21:15:19.729002,52
2021-09-23 21:15:19.729008,38
2021-09-23 21:15:19.729014,26
2021-09-23 21:15:19.729020,16
2021-09-23 21:15:19.729025,4
2021-09-23 21:15:19.729031,-12
2021-09-23 21:15:19.729037,-33
2021-09-23 21:15:19.729042,-60
2021-09-23 21:15:19.729048,-84
2021-09-23 21:15:19.729056,-88
2021-09-23 21:15:19.953856,-93
2021-09-23 21:15:19.953874,-105
2021-09-23 21:15:19.953881,-105
2021-09-23 21:15:19.953887,-103
2021-09-23 21:15:19.953893,-110
2021-09-23 21:15:19.953898,-105
2021-09-23 21:15:19.953904,-88
2021-09-23 21:15:19.953910,-79
2021-09-23 21:15:19.953916,-74
2021-09-23 21:15:19.953922,-72
2021-09-23 21:15:19.953928,-72
2021-09-23 21:15:19.953934,-62
2021-09-23 21:15:19.953939,-48
2021-09-23 21:15:19.953945,-45
2021-09-23 21:15:19.953951,-48
2021-09-23 21:15:19.953957,-50
2021-09-23 21:15:19.953963,-48
2021-09-23 21:15:19.953971,-38
2021-09-23 21:15:19.953977,-31
2021-09-23 21:15:19.953983,-40
2021-09-23 21:15:19.953988,-50
2021-09-23 21:15:19.953994,-55
2021-09-23 21:15:19.954000,-55
2021-09-23 21:15:19.954006,-55
2021-09-23 21:15:19.954012,-55
2021-09-23 21:15:19.954018,-52
2021-09-23 21:15:19.954023,-52
2021-09-23 21:15:19.954029,-57
2021-09-23 21:15:19.954035,-57
2021-09-23 21:15:19.954040,-55
2021-09-23 21:15:20.223879,-55
2021-09-23 21:15:20.223897,-62
2021-09-23 21:15:20.223904,-69
2021-09-23 21:15:20.223910,-67
2021-09-23 21:15:20.223916,-60
2021-09-23 21:15:20.223922,-48
2021-09-23 21:15:20.223928,-28
2021-09-23 21:15:20.223938,-24
2021-09-23 21:15:20.223944,-48
2021-09-23 21:15:20.223950,-76
2021-09-23 21:15:20.223956,-86
2021-09-23 21:15:20.223962,-67
2021-09-23 21:15:20.223968,-55
2021-09-23 21:15:20.223974,-50
2021-09-23 21:15:20.223980,-33
2021-09-23 21:15:20.223986,38
2021-09-23 21:15:20.223992,250
2021-09-23 21:15:20.223998,606
2021-09-23 21:15:20.224004,824
2021-09-23 21:15:20.224009,360
2021-09-23 21:15:20.224015,-497
2021-09-23 21:15:20.224021,-541
2021-09-23 21:15:20.224027,-64
2021-09-23 21:15:20.224033,-67
2021-09-23 21:15:20.224039,-175
2021-09-23 21:15:20.224044,-62
2021-09-23 21:15:20.224050,-40
2021-09-23 21:15:20.224056,-84
2021-09-23 21:15:20.224062,-40
2021-09-23 21:15:20.224068,-12
2021-09-23 21:15:20.448885,-26
2021-09-23 21:15:20.448903,-16
2021-09-23 21:15:20.448910,-4
2021-09-23 21:15:20.448916,-14
2021-09-23 21:15:20.448922,-12
2021-09-23 21:15:20.448928,4
2021-09-23 21:15:20.448934,12
2021-09-23 21:15:20.448940,19
2021-09-23 21:15:20.448946,28
2021-09-23 21:15:20.448952,28
2021-09-23 21:15:20.448958,40
2021-09-23 21:15:20.448963,67
2021-09-23 21:15:20.448969,91
2021-09-23 21:15:20.448975,101
2021-09-23 21:15:20.448981,91
2021-09-23 21:15:20.448987,79
2021-09-23 21:15:20.448992,72
2021-09-23 21:15:20.448998,55
2021-09-23 21:15:20.449004,38
2021-09-23 21:15:20.449010,21
2021-09-23 21:15:20.449015,-4
2021-09-23 21:15:20.449021,-33
2021-09-23 21:15:20.449027,-50
2021-09-23 21:15:20.449033,-62
2021-09-23 21:15:20.449042,-84
2021-09-23 21:15:20.449049,-103
2021-09-23 21:15:20.449054,-105
2021-09-23 21:15:20.449060,-113
2021-09-23 21:15:20.449066,-115
2021-09-23 21:15:20.449072,-108
2021-09-23 21:15:20.673953,-103
2021-09-23 21:15:20.673972,-103
2021-09-23 21:15:20.673979,-96
2021-09-23 21:15:20.673985,-86
2021-09-23 21:15:20.673990,-74
2021-09-23 21:15:20.673996,-67
2021-09-23 21:15:20.674002,-69
2021-09-23 21:15:20.674008,-74
2021-09-23 21:15:20.674013,-72
2021-09-23 21:15:20.674019,-62
2021-09-23 21:15:20.674025,-57
2021-09-23 21:15:20.674030,-57
2021-09-23 21:15:20.674036,-62
2021-09-23 21:15:20.674042,-72
2021-09-23 21:15:20.674048,-81
2021-09-23 21:15:20.674053,-79
2021-09-23 21:15:20.674059,-72
2021-09-23 21:15:20.674065,-74
2021-09-23 21:15:20.674070,-74
2021-09-23 21:15:20.674076,-74
2021-09-23 21:15:20.674082,-81
2021-09-23 21:15:20.674087,-72
2021-09-23 21:15:20.674095,-60
2021-09-23 21:15:20.674101,-60
2021-09-23 21:15:20.674106,-62
2021-09-23 21:15:20.674112,-55
2021-09-23 21:15:20.674118,-55
2021-09-23 21:15:20.674124,-57
2021-09-23 21:15:20.674129,-40
2021-09-23 21:15:20.674135,-14
2021-09-23 21:15:20.898900,-16
2021-09-23 21:15:20.898918,-48
2021-09-23 21:15:20.898926,-67
2021-09-23 21:15:20.898932,-62
2021-09-23 21:15:20.898938,-48
2021-09-23 21:15:20.898944,-48
2021-09-23 21:15:20.898949,-62
2021-09-23 21:15:20.898955,-43
2021-09-23 21:15:20.898961,52
2021-09-23 21:15:20.898967,269
2021-09-23 21:15:20.898973,579
2021-09-23 21:15:20.898979,649
2021-09-23 21:15:20.898985,40
2021-09-23 21:15:20.898991,-651
2021-09-23 21:15:20.898997,-471
2021-09-23 21:15:20.899003,-36
2021-09-23 21:15:20.899009,-40
2021-09-23 21:15:20.899015,-62
2021-09-23 21:15:20.899021,7
2021-09-23 21:15:20.899026,-36
2021-09-23 21:15:20.899032,-57
2021-09-23 21:15:20.899038,0
2021-09-23 21:15:20.899044,16
2021-09-23 21:15:20.899050,14
2021-09-23 21:15:20.899059,36
2021-09-23 21:15:20.899065,48
2021-09-23 21:15:20.899071,40
2021-09-23 21:15:20.899078,38
2021-09-23 21:15:20.899083,62
2021-09-23 21:15:20.899089,84
2021-09-23 21:15:21.123887,60
2021-09-23 21:15:21.123905,9
2021-09-23 21:15:21.123912,-7
2021-09-23 21:15:21.123918,36
2021-09-23 21:15:21.123924,67
2021-09-23 21:15:21.123930,45
2021-09-23 21:15:21.123936,48
2021-09-23 21:15:21.123941,60
2021-09-23 21:15:21.123947,50
2021-09-23 21:15:21.123953,38
2021-09-23 21:15:21.123959,26
2021-09-23 21:15:21.123964,0
2021-09-23 21:15:21.123970,-36
2021-09-23 21:15:21.123976,-57
2021-09-23 21:15:21.123982,-60
2021-09-23 21:15:21.123987,-50
2021-09-23 21:15:21.123993,-33
2021-09-23 21:15:21.123999,-52
2021-09-23 21:15:21.124005,-103
2021-09-23 21:15:21.124010,-115
2021-09-23 21:15:21.124016,-117
2021-09-23 21:15:21.124022,-161
2021-09-23 21:15:21.124027,-197
2021-09-23 21:15:21.124033,-189
2021-09-23 21:15:21.124039,-170
2021-09-23 21:15:21.124044,-158
2021-09-23 21:15:21.124050,-144
2021-09-23 21:15:21.124056,-125
2021-09-23 21:15:21.124061,-110
2021-09-23 21:15:21.124067,-101
2021-09-23 21:15:21.437537,-93
2021-09-23 21:15:21.437555,-76
2021-09-23 21:15:21.437562,-69
2021-09-23 21:15:21.437568,-74
2021-09-23 21:15:21.437574,-74
2021-09-23 21:15:21.437580,-76
2021-09-23 21:15:21.437586,-81
2021-09-23 21:15:21.437592,-79
2021-09-23 21:15:21.437598,-79
2021-09-23 21:15:21.437604,-88
2021-09-23 21:15:21.437610,-88
2021-09-23 21:15:21.437615,-86
2021-09-23 21:15:21.437621,-96
2021-09-23 21:15:21.437627,-101
2021-09-23 21:15:21.437633,-101
2021-09-23 21:15:21.437638,-110
2021-09-23 21:15:21.437644,-110
2021-09-23 21:15:21.437650,-98
2021-09-23 21:15:21.437656,-93
2021-09-23 21:15:21.437661,-96
2021-09-23 21:15:21.437667,-88
2021-09-23 21:15:21.437673,-81
2021-09-23 21:15:21.437679,-76
2021-09-23 21:15:21.437685,-60
2021-09-23 21:15:21.437690,-38
2021-09-23 21:15:21.437696,-40
2021-09-23 21:15:21.437702,-67
2021-09-23 21:15:21.437707,-81
2021-09-23 21:15:21.437713,-72
2021-09-23 21:15:21.437719,-64
2021-09-23 21:15:21.573916,-64
2021-09-23 21:15:21.573933,-50
2021-09-23 21:15:21.573940,0
2021-09-23 21:15:21.573946,161
2021-09-23 21:15:21.573952,495
2021-09-23 21:15:21.573958,901
2021-09-23 21:15:21.573964,810
2021-09-23 21:15:21.573970,-79
2021-09-23 21:15:21.573976,-639
2021-09-23 21:15:21.573982,-264
2021-09-23 21:15:21.573991,-43
2021-09-23 21:15:21.573997,-211
2021-09-23 21:15:21.574003,-163
2021-09-23 21:15:21.574009,-60
2021-09-23 21:15:21.574014,-110
2021-09-23 21:15:21.574020,-120
2021-09-23 21:15:21.574026,-67
2021-09-23 21:15:21.574032,-62
2021-09-23 21:15:21.574038,-62
2021-09-23 21:15:21.574043,-36
2021-09-23 21:15:21.574049,-26
2021-09-23 21:15:21.574055,-24
2021-09-23 21:15:21.574061,-14
2021-09-23 21:15:21.574066,-2
2021-09-23 21:15:21.574072,9
2021-09-23 21:15:21.574078,21
2021-09-23 21:15:21.574084,24
2021-09-23 21:15:21.574089,33
2021-09-23 21:15:21.574095,52
2021-09-23 21:15:21.574101,64
2021-09-23 21:15:21.798916,74
2021-09-23 21:15:21.798934,81
2021-09-23 21:15:21.798941,86
2021-09-23 21:15:21.798947,79
2021-09-23 21:15:21.798953,60
2021-09-23 21:15:21.798959,45
2021-09-23 21:15:21.798964,33
2021-09-23 21:15:21.798970,12
2021-09-23 21:15:21.798976,-14
2021-09-23 21:15:21.798981,-45
2021-09-23 21:15:21.798987,-79
2021-09-23 21:15:21.798993,-101
2021-09-23 21:15:21.798999,-108
2021-09-23 21:15:21.799004,-115
2021-09-23 21:15:21.799010,-117
2021-09-23 21:15:21.799016,-120
2021-09-23 21:15:21.799021,-120
2021-09-23 21:15:21.799027,-115
2021-09-23 21:15:21.799032,-110
2021-09-23 21:15:21.799038,-110
2021-09-23 21:15:21.799044,-117
2021-09-23 21:15:21.799050,-117
2021-09-23 21:15:21.799055,-108
2021-09-23 21:15:21.799061,-101
2021-09-23 21:15:21.799066,-93
2021-09-23 21:15:21.799075,-86
2021-09-23 21:15:21.799080,-88
2021-09-23 21:15:21.799086,-93
2021-09-23 21:15:21.799092,-88
2021-09-23 21:15:21.799097,-84
2021-09-23 21:15:22.158398,-79
2021-09-23 21:15:22.158419,-72
2021-09-23 21:15:22.158426,-74
2021-09-23 21:15:22.158432,-84
2021-09-23 21:15:22.158438,-86
2021-09-23 21:15:22.158443,-72
2021-09-23 21:15:22.158449,-64
2021-09-23 21:15:22.158455,-72
2021-09-23 21:15:22.158461,-79
2021-09-23 21:15:22.158467,-79
2021-09-23 21:15:22.158473,-64
2021-09-23 21:15:22.158478,-43
2021-09-23 21:15:22.158484,-40
2021-09-23 21:15:22.158490,-31
2021-09-23 21:15:22.158495,-24
2021-09-23 21:15:22.158501,-50
2021-09-23 21:15:22.158507,-76
2021-09-23 21:15:22.158512,-67
2021-09-23 21:15:22.158518,-52
2021-09-23 21:15:22.158524,-62
2021-09-23 21:15:22.158529,-62
2021-09-23 21:15:22.158535,-31
2021-09-23 21:15:22.158541,55
2021-09-23 21:15:22.158546,288
2021-09-23 21:15:22.158552,658
2021-09-23 21:15:22.158558,858
2021-09-23 21:15:22.158563,298
2021-09-23 21:15:22.158569,-613
2021-09-23 21:15:22.158575,-574
2021-09-23 21:15:22.158580,-45
2021-09-23 21:15:22.293880,-74
2021-09-23 21:15:22.293896,-170
2021-09-23 21:15:22.293904,-38
2021-09-23 21:15:22.293910,-26
2021-09-23 21:15:22.293916,-76
2021-09-23 21:15:22.293922,-31
2021-09-23 21:15:22.293928,-4
2021-09-23 21:15:22.293933,-19
2021-09-23 21:15:22.293939,-9
2021-09-23 21:15:22.293945,2
2021-09-23 21:15:22.293951,12
2021-09-23 21:15:22.293957,26
2021-09-23 21:15:22.293963,31
2021-09-23 21:15:22.293968,38
2021-09-23 21:15:22.293974,52
2021-09-23 21:15:22.293980,74
2021-09-23 21:15:22.293990,101
2021-09-23 21:15:22.293996,115
2021-09-23 21:15:22.294002,134
2021-09-23 21:15:22.294008,163
2021-09-23 21:15:22.294014,168
2021-09-23 21:15:22.294019,151
2021-09-23 21:15:22.294025,149
2021-09-23 21:15:22.294031,144
2021-09-23 21:15:22.294037,125
2021-09-23 21:15:22.294042,98
2021-09-23 21:15:22.294048,57
2021-09-23 21:15:22.294054,12
2021-09-23 21:15:22.294060,-19
2021-09-23 21:15:22.294066,-45
2021-09-23 21:15:22.519138,-69
2021-09-23 21:15:22.519196,-79
2021-09-23 21:15:22.519203,-79
2021-09-23 21:15:22.519209,-86
2021-09-23 21:15:22.519215,-103
2021-09-23 21:15:22.519258,-96
2021-09-23 21:15:22.519264,-76
2021-09-23 21:15:22.519270,-88
2021-09-23 21:15:22.519275,-108
2021-09-23 21:15:22.519281,-110
2021-09-23 21:15:22.519287,-110
2021-09-23 21:15:22.519293,-96
2021-09-23 21:15:22.519298,-69
2021-09-23 21:15:22.519301,-62
2021-09-23 21:15:22.519305,-72
2021-09-23 21:15:22.519308,-69
2021-09-23 21:15:22.519312,-62
2021-09-23 21:15:22.519315,-57
2021-09-23 21:15:22.519318,-43
2021-09-23 21:15:22.519322,-28
2021-09-23 21:15:22.519325,-28
2021-09-23 21:15:22.519328,-40
2021-09-23 21:15:22.519332,-48
2021-09-23 21:15:22.519336,-48
2021-09-23 21:15:22.519339,-48
2021-09-23 21:15:22.519342,-55
2021-09-23 21:15:22.519346,-50
2021-09-23 21:15:22.519349,-28
2021-09-23 21:15:22.519352,-14
2021-09-23 21:15:22.519356,-19
2021-09-23 21:15:22.743903,-24
2021-09-23 21:15:22.743920,-38
2021-09-23 21:15:22.743927,-55
2021-09-23 21:15:22.743933,-55
2021-09-23 21:15:22.743939,-43
2021-09-23 21:15:22.743945,-33
2021-09-23 21:15:22.743951,-31
2021-09-23 21:15:22.743957,-28
2021-09-23 21:15:22.743963,31
2021-09-23 21:15:22.743969,254
2021-09-23 21:15:22.743975,627
2021-09-23 21:15:22.743981,860
2021-09-23 21:15:22.743987,367
2021-09-23 21:15:22.743997,-545
2021-09-23 21:15:22.744003,-596
2021-09-23 21:15:22.744009,-84
2021-09-23 21:15:22.744015,-69
2021-09-23 21:15:22.744020,-177
2021-09-23 21:15:22.744026,-57
2021-09-23 21:15:22.744032,-28
2021-09-23 21:15:22.744038,-74
2021-09-23 21:15:22.744044,-40
2021-09-23 21:15:22.744049,-12
2021-09-23 21:15:22.744055,-24
2021-09-23 21:15:22.744061,-14
2021-09-23 21:15:22.744066,-4
2021-09-23 21:15:22.744072,-12
2021-09-23 21:15:22.744078,2
2021-09-23 21:15:22.744083,24
2021-09-23 21:15:22.744089,33
2021-09-23 21:15:22.968904,43
2021-09-23 21:15:22.968919,50
2021-09-23 21:15:22.968926,57
2021-09-23 21:15:22.968933,79
2021-09-23 21:15:22.968939,101
2021-09-23 21:15:22.968945,105
2021-09-23 21:15:22.968950,110
2021-09-23 21:15:22.968956,120
2021-09-23 21:15:22.968962,127
2021-09-23 21:15:22.968968,120
2021-09-23 21:15:22.968973,108
2021-09-23 21:15:22.968979,88
2021-09-23 21:15:22.968985,48
2021-09-23 21:15:22.968991,-2
2021-09-23 21:15:22.968997,-40
2021-09-23 21:15:22.969002,-72
2021-09-23 21:15:22.969008,-91
2021-09-23 21:15:22.969014,-105
2021-09-23 21:15:22.969020,-117
2021-09-23 21:15:22.969026,-113
2021-09-23 21:15:22.969032,-105
2021-09-23 21:15:22.969038,-113
2021-09-23 21:15:22.969043,-115
2021-09-23 21:15:22.969049,-105
2021-09-23 21:15:22.969055,-103
2021-09-23 21:15:22.969061,-98
2021-09-23 21:15:22.969067,-93
2021-09-23 21:15:22.969072,-93
2021-09-23 21:15:22.969078,-93
2021-09-23 21:15:22.969084,-81
2021-09-23 21:15:23.193940,-69
2021-09-23 21:15:23.193958,-62
2021-09-23 21:15:23.193965,-57
2021-09-23 21:15:23.193971,-55
2021-09-23 21:15:23.193977,-52
2021-09-23 21:15:23.193983,-50
2021-09-23 21:15:23.193989,-55
2021-09-23 21:15:23.193994,-57
2021-09-23 21:15:23.194000,-50
2021-09-23 21:15:23.194006,-45
2021-09-23 21:15:23.194011,-48
2021-09-23 21:15:23.194017,-55
2021-09-23 21:15:23.194023,-62
2021-09-23 21:15:23.194029,-60
2021-09-23 21:15:23.194035,-45
2021-09-23 21:15:23.194040,-40
2021-09-23 21:15:23.194046,-33
2021-09-23 21:15:23.194056,-28
2021-09-23 21:15:23.194062,-43
2021-09-23 21:15:23.194068,-62
2021-09-23 21:15:23.194074,-69
2021-09-23 21:15:23.194080,-69
2021-09-23 21:15:23.194086,-64
2021-09-23 21:15:23.194091,-55
2021-09-23 21:15:23.194097,-40
2021-09-23 21:15:23.194103,-2
2021-09-23 21:15:23.194109,141
2021-09-23 21:15:23.194115,461
2021-09-23 21:15:23.194121,841
2021-09-23 21:15:23.194127,731
2021-09-23 21:15:23.462590,-149
2021-09-23 21:15:23.462609,-682
2021-09-23 21:15:23.462617,-271
2021-09-23 21:15:23.462623,-16
2021-09-23 21:15:23.462630,-173
2021-09-23 21:15:23.462636,-134
2021-09-23 21:15:23.462642,-40
2021-09-23 21:15:23.462648,-88
2021-09-23 21:15:23.462654,-96
2021-09-23 21:15:23.462661,-48
2021-09-23 21:15:23.462667,-48
2021-09-23 21:15:23.462673,-60
2021-09-23 21:15:23.462679,-38
2021-09-23 21:15:23.462685,-19
2021-09-23 21:15:23.462691,-12
2021-09-23 21:15:23.462697,-2
2021-09-23 21:15:23.462703,7
2021-09-23 21:15:23.462709,19
2021-09-23 21:15:23.462715,33
2021-09-23 21:15:23.462721,43
2021-09-23 21:15:23.462727,62
2021-09-23 21:15:23.462733,84
2021-09-23 21:15:23.462739,98
2021-09-23 21:15:23.462745,108
2021-09-23 21:15:23.462751,120
2021-09-23 21:15:23.462757,134
2021-09-23 21:15:23.462763,129
2021-09-23 21:15:23.462769,115
2021-09-23 21:15:23.462776,96
2021-09-23 21:15:23.462782,69
2021-09-23 21:15:23.688974,36
2021-09-23 21:15:23.688992,-4
2021-09-23 21:15:23.688999,-52
2021-09-23 21:15:23.689005,-84
2021-09-23 21:15:23.689011,-105
2021-09-23 21:15:23.689017,-122
2021-09-23 21:15:23.689023,-122
2021-09-23 21:15:23.689028,-117
2021-09-23 21:15:23.689034,-110
2021-09-23 21:15:23.689040,-110
2021-09-23 21:15:23.689046,-115
2021-09-23 21:15:23.689051,-115
2021-09-23 21:15:23.689057,-108
2021-09-23 21:15:23.689063,-103
2021-09-23 21:15:23.689068,-101
2021-09-23 21:15:23.689074,-105
2021-09-23 21:15:23.689080,-105
2021-09-23 21:15:23.689085,-108
2021-09-23 21:15:23.689091,-115
2021-09-23 21:15:23.689097,-110
2021-09-23 21:15:23.689102,-86
2021-09-23 21:15:23.689108,-64
2021-09-23 21:15:23.689114,-50
2021-09-23 21:15:23.689120,-36
2021-09-23 21:15:23.689125,-36
2021-09-23 21:15:23.689131,-67
2021-09-23 21:15:23.689137,-76
2021-09-23 21:15:23.689142,-57
2021-09-23 21:15:23.689148,-55
2021-09-23 21:15:23.689156,-64
2021-09-23 21:15:23.913945,-62
2021-09-23 21:15:23.913964,-43
2021-09-23 21:15:23.913971,0
2021-09-23 21:15:23.913977,7
2021-09-23 21:15:23.913983,-40
2021-09-23 21:15:23.913989,-86
2021-09-23 21:15:23.913995,-105
2021-09-23 21:15:23.914001,-105
2021-09-23 21:15:23.914007,-98
2021-09-23 21:15:23.914012,-93
2021-09-23 21:15:23.914018,-74
2021-09-23 21:15:23.914024,-43
2021-09-23 21:15:23.914030,19
2021-09-23 21:15:23.914035,235
2021-09-23 21:15:23.914041,627
2021-09-23 21:15:23.914047,848
2021-09-23 21:15:23.914053,293
2021-09-23 21:15:23.914058,-572
2021-09-23 21:15:23.914064,-531
2021-09-23 21:15:23.914070,-62
2021-09-23 21:15:23.914076,-115
2021-09-23 21:15:23.914082,-216
2021-09-23 21:15:23.914088,-88
2021-09-23 21:15:23.914094,-60
2021-09-23 21:15:23.914099,-96
2021-09-23 21:15:23.914105,-62
2021-09-23 21:15:23.914111,-43
2021-09-23 21:15:23.914117,-62
2021-09-23 21:15:23.914122,-67
2021-09-23 21:15:23.914128,-64
2021-09-23 21:15:24.184016,-52
2021-09-23 21:15:24.184034,-31
2021-09-23 21:15:24.184041,-28
2021-09-23 21:15:24.184047,-24
2021-09-23 21:15:24.184053,0
2021-09-23 21:15:24.184059,21
2021-09-23 21:15:24.184065,38
2021-09-23 21:15:24.184071,67
2021-09-23 21:15:24.184077,79
2021-09-23 21:15:24.184083,74
2021-09-23 21:15:24.184088,86
2021-09-23 21:15:24.184094,108
2021-09-23 21:15:24.184100,108
2021-09-23 21:15:24.184106,91
2021-09-23 21:15:24.184112,69
2021-09-23 21:15:24.184118,38
2021-09-23 21:15:24.184123,0
2021-09-23 21:15:24.184129,-33
2021-09-23 21:15:24.184135,-67
2021-09-23 21:15:24.184141,-101
2021-09-23 21:15:24.184146,-127
2021-09-23 21:15:24.184152,-141
2021-09-23 21:15:24.184158,-141
2021-09-23 21:15:24.184163,-137
2021-09-23 21:15:24.184169,-129
2021-09-23 21:15:24.184175,-120
2021-09-23 21:15:24.184181,-120
2021-09-23 21:15:24.184187,-125
2021-09-23 21:15:24.184192,-122
2021-09-23 21:15:24.184198,-113
2021-09-23 21:15:24.363997,-115
2021-09-23 21:15:24.364015,-115
2021-09-23 21:15:24.364022,-105
2021-09-23 21:15:24.364028,-98
2021-09-23 21:15:24.364034,-96
2021-09-23 21:15:24.364040,-88
2021-09-23 21:15:24.364046,-74
2021-09-23 21:15:24.364052,-74
2021-09-23 21:15:24.364058,-76
2021-09-23 21:15:24.364063,-69
2021-09-23 21:15:24.364069,-57
2021-09-23 21:15:24.364075,-57
2021-09-23 21:15:24.364081,-55
2021-09-23 21:15:24.364087,-55
2021-09-23 21:15:24.364093,-64
2021-09-23 21:15:24.364099,-62
2021-09-23 21:15:24.364104,-57
2021-09-23 21:15:24.364110,-72
2021-09-23 21:15:24.364116,-76
2021-09-23 21:15:24.364122,-62
2021-09-23 21:15:24.364130,-55
2021-09-23 21:15:24.364136,-55
2021-09-23 21:15:24.364142,-45
2021-09-23 21:15:24.364147,-50
2021-09-23 21:15:24.364153,-64
2021-09-23 21:15:24.364159,-74
2021-09-23 21:15:24.364165,-74
2021-09-23 21:15:24.364171,-67
2021-09-23 21:15:24.364177,-55
2021-09-23 21:15:24.364182,-38
2021-09-23 21:15:24.588981,2
2021-09-23 21:15:24.588999,153
2021-09-23 21:15:24.589006,488
2021-09-23 21:15:24.589012,860
2021-09-23 21:15:24.589018,673
2021-09-23 21:15:24.589024,-218
2021-09-23 21:15:24.589030,-625
2021-09-23 21:15:24.589036,-218
2021-09-23 21:15:24.589042,-64
2021-09-23 21:15:24.589048,-209
2021-09-23 21:15:24.589054,-146
2021-09-23 21:15:24.589059,-67
2021-09-23 21:15:24.589065,-108
2021-09-23 21:15:24.589071,-105
2021-09-23 21:15:24.589076,-64
2021-09-23 21:15:24.589082,-67
2021-09-23 21:15:24.589088,-69
2021-09-23 21:15:24.589093,-48
2021-09-23 21:15:24.589099,-38
2021-09-23 21:15:24.589105,-33
2021-09-23 21:15:24.589110,-24
2021-09-23 21:15:24.589116,-12
2021-09-23 21:15:24.589122,2
2021-09-23 21:15:24.589127,19
2021-09-23 21:15:24.589133,28
2021-09-23 21:15:24.589138,40
2021-09-23 21:15:24.589144,60
2021-09-23 21:15:24.589149,76
2021-09-23 21:15:24.589155,96
2021-09-23 21:15:24.589160,115
2021-09-23 21:15:24.813912,113
2021-09-23 21:15:24.813929,105
2021-09-23 21:15:24.813936,103
2021-09-23 21:15:24.813942,91
2021-09-23 21:15:24.813948,60
2021-09-23 21:15:24.813953,21
2021-09-23 21:15:24.813959,-21
2021-09-23 21:15:24.813965,-62
2021-09-23 21:15:24.813971,-86
2021-09-23 21:15:24.813977,-101
2021-09-23 21:15:24.813983,-113
2021-09-23 21:15:24.813989,-120
2021-09-23 21:15:24.813994,-125
2021-09-23 21:15:24.814000,-122
2021-09-23 21:15:24.814006,-110
2021-09-23 21:15:24.814012,-108
2021-09-23 21:15:24.814018,-108
2021-09-23 21:15:24.814023,-103
2021-09-23 21:15:24.814029,-101
2021-09-23 21:15:24.814035,-98
2021-09-23 21:15:24.814041,-86
2021-09-23 21:15:24.814046,-81
2021-09-23 21:15:24.814052,-86
2021-09-23 21:15:24.814058,-91
2021-09-23 21:15:24.814064,-93
2021-09-23 21:15:24.814069,-91
2021-09-23 21:15:24.814075,-81
2021-09-23 21:15:24.814081,-79
2021-09-23 21:15:24.814086,-69
2021-09-23 21:15:24.814092,-57
2021-09-23 21:15:25.083326,-52
2021-09-23 21:15:25.083343,-50
2021-09-23 21:15:25.083350,-45
2021-09-23 21:15:25.083356,-43
2021-09-23 21:15:25.083362,-48
2021-09-23 21:15:25.083368,-50
2021-09-23 21:15:25.083374,-50
2021-09-23 21:15:25.083379,-45
2021-09-23 21:15:25.083385,-40
2021-09-23 21:15:25.083391,-43
2021-09-23 21:15:25.083396,-43
2021-09-23 21:15:25.083402,-40
2021-09-23 21:15:25.083408,-40
2021-09-23 21:15:25.083414,-40
2021-09-23 21:15:25.083419,-33
2021-09-23 21:15:25.083425,-26
2021-09-23 21:15:25.083431,-28
2021-09-23 21:15:25.083436,-43
2021-09-23 21:15:25.083442,-55
2021-09-23 21:15:25.083448,-43
2021-09-23 21:15:25.083453,-36
2021-09-23 21:15:25.083459,-40
2021-09-23 21:15:25.083467,-33
2021-09-23 21:15:25.083473,7
2021-09-23 21:15:25.083479,149
2021-09-23 21:15:25.083484,456
2021-09-23 21:15:25.083490,836
2021-09-23 21:15:25.083496,769
2021-09-23 21:15:25.083502,-43
2021-09-23 21:15:25.083507,-574
2021-09-23 21:15:25.263937,-250
2021-09-23 21:15:25.263953,-26
2021-09-23 21:15:25.263960,-168
2021-09-23 21:15:25.263966,-137
2021-09-23 21:15:25.263972,-48
2021-09-23 21:15:25.263978,-91
2021-09-23 21:15:25.263984,-96
2021-09-23 21:15:25.263989,-40
2021-09-23 21:15:25.263995,-38
2021-09-23 21:15:25.264001,-48
2021-09-23 21:15:25.264007,-33
2021-09-23 21:15:25.264013,-28
2021-09-23 21:15:25.264018,-26
2021-09-23 21:15:25.264024,-7
2021-09-23 21:15:25.264030,0
2021-09-23 21:15:25.264036,-2
2021-09-23 21:15:25.264042,2
2021-09-23 21:15:25.264047,21
2021-09-23 21:15:25.264053,38
2021-09-23 21:15:25.264059,52
2021-09-23 21:15:25.264065,69
2021-09-23 21:15:25.264071,84
2021-09-23 21:15:25.264076,96
2021-09-23 21:15:25.264082,103
2021-09-23 21:15:25.264088,103
2021-09-23 21:15:25.264094,101
2021-09-23 21:15:25.264100,93
2021-09-23 21:15:25.264105,74
2021-09-23 21:15:25.264111,38
2021-09-23 21:15:25.264117,-4
2021-09-23 21:15:25.532668,-40
2021-09-23 21:15:25.532687,-60
2021-09-23 21:15:25.532694,-79
2021-09-23 21:15:25.532701,-98
2021-09-23 21:15:25.532707,-103
2021-09-23 21:15:25.532713,-91
2021-09-23 21:15:25.532719,-84
2021-09-23 21:15:25.532724,-93
2021-09-23 21:15:25.532730,-86
2021-09-23 21:15:25.532736,-81
2021-09-23 21:15:25.532742,-79
2021-09-23 21:15:25.532748,-45
2021-09-23 21:15:25.532754,-19
2021-09-23 21:15:25.532760,-36
2021-09-23 21:15:25.532765,-52
2021-09-23 21:15:25.532771,-43
2021-09-23 21:15:25.532777,-31
2021-09-23 21:15:25.532783,-26
2021-09-23 21:15:25.532789,-28
2021-09-23 21:15:25.532794,-21
2021-09-23 21:15:25.532800,-19
2021-09-23 21:15:25.532806,-21
2021-09-23 21:15:25.532812,-21
2021-09-23 21:15:25.532818,-28
2021-09-23 21:15:25.532823,-21
2021-09-23 21:15:25.532829,-9
2021-09-23 21:15:25.532835,-24
2021-09-23 21:15:25.532840,-38
2021-09-23 21:15:25.532845,-7
2021-09-23 21:15:25.532851,-7
2021-09-23 21:15:25.758950,-55
2021-09-23 21:15:25.758968,-60
2021-09-23 21:15:25.758976,-31
2021-09-23 21:15:25.758982,-14
2021-09-23 21:15:25.758988,4
2021-09-23 21:15:25.758994,14
2021-09-23 21:15:25.759000,-2
2021-09-23 21:15:25.759005,-21
2021-09-23 21:15:25.759011,-45
2021-09-23 21:15:25.759017,-67
2021-09-23 21:15:25.759023,-57
2021-09-23 21:15:25.759028,-38
2021-09-23 21:15:25.759034,-26
2021-09-23 21:15:25.759040,-14
2021-09-23 21:15:25.759045,-9
2021-09-23 21:15:25.759051,-28
2021-09-23 21:15:25.759057,-48
2021-09-23 21:15:25.759062,-43
2021-09-23 21:15:25.759068,-36
2021-09-23 21:15:25.759074,-38
2021-09-23 21:15:25.759080,-38
2021-09-23 21:15:25.759085,-7
2021-09-23 21:15:25.759091,84
2021-09-23 21:15:25.759097,303
2021-09-23 21:15:25.759102,682
2021-09-23 21:15:25.759108,949
2021-09-23 21:15:25.759114,488
2021-09-23 21:15:25.759120,-370
2021-09-23 21:15:25.759125,-435
2021-09-23 21:15:25.759131,-31
2021-09-23 21:15:25.983953,-57
2021-09-23 21:15:25.983971,-153
2021-09-23 21:15:25.983978,-57
2021-09-23 21:15:25.983984,-64
2021-09-23 21:15:25.983991,-127
2021-09-23 21:15:25.983999,-103
2021-09-23 21:15:25.984005,-79
2021-09-23 21:15:25.984011,-88
2021-09-23 21:15:25.984017,-81
2021-09-23 21:15:25.984023,-69
2021-09-23 21:15:25.984029,-64
2021-09-23 21:15:25.984035,-52
2021-09-23 21:15:25.984041,-38
2021-09-23 21:15:25.984046,-24
2021-09-23 21:15:25.984052,-16
2021-09-23 21:15:25.984058,-12
2021-09-23 21:15:25.984064,7
2021-09-23 21:15:25.984070,28
2021-09-23 21:15:25.984076,45
2021-09-23 21:15:25.984082,64
2021-09-23 21:15:25.984087,81
2021-09-23 21:15:25.984093,79
2021-09-23 21:15:25.984099,69
2021-09-23 21:15:25.984105,72
2021-09-23 21:15:25.984110,74
2021-09-23 21:15:25.984116,62
2021-09-23 21:15:25.984122,38
2021-09-23 21:15:25.984128,4
2021-09-23 21:15:25.984134,-33
2021-09-23 21:15:25.984139,-60
2021-09-23 21:15:26.208956,-76
2021-09-23 21:15:26.208973,-93
2021-09-23 21:15:26.208980,-105
2021-09-23 21:15:26.208986,-113
2021-09-23 21:15:26.208992,-110
2021-09-23 21:15:26.208998,-98
2021-09-23 21:15:26.209004,-88
2021-09-23 21:15:26.209010,-91
2021-09-23 21:15:26.209015,-98
2021-09-23 21:15:26.209021,-96
2021-09-23 21:15:26.209027,-91
2021-09-23 21:15:26.209033,-88
2021-09-23 21:15:26.209039,-84
2021-09-23 21:15:26.209045,-84
2021-09-23 21:15:26.209051,-93
2021-09-23 21:15:26.209056,-98
2021-09-23 21:15:26.209062,-88
2021-09-23 21:15:26.209068,-81
2021-09-23 21:15:26.209074,-79
2021-09-23 21:15:26.209079,-72
2021-09-23 21:15:26.209085,-64
2021-09-23 21:15:26.209091,-60
2021-09-23 21:15:26.209097,-55
2021-09-23 21:15:26.209103,-55
2021-09-23 21:15:26.209108,-60
2021-09-23 21:15:26.209114,-57
2021-09-23 21:15:26.209120,-50
2021-09-23 21:15:26.209126,-50
2021-09-23 21:15:26.209131,-45
2021-09-23 21:15:26.209137,-40
2021-09-23 21:15:26.433939,-38
2021-09-23 21:15:26.433956,-43
2021-09-23 21:15:26.433963,-45
2021-09-23 21:15:26.433969,-48
2021-09-23 21:15:26.433975,-50
2021-09-23 21:15:26.433981,-48
2021-09-23 21:15:26.433987,-45
2021-09-23 21:15:26.433992,-50
2021-09-23 21:15:26.433998,-52
2021-09-23 21:15:26.434004,-48
2021-09-23 21:15:26.434009,-52
2021-09-23 21:15:26.434015,-62
2021-09-23 21:15:26.434021,-55
2021-09-23 21:15:26.434026,-43
2021-09-23 21:15:26.434032,-36
2021-09-23 21:15:26.434038,-24
2021-09-23 21:15:26.434043,-19
2021-09-23 21:15:26.434049,-33
2021-09-23 21:15:26.434055,-50
2021-09-23 21:15:26.434060,-52
2021-09-23 21:15:26.434066,-45
2021-09-23 21:15:26.434072,-38
2021-09-23 21:15:26.434077,-31
2021-09-23 21:15:26.434083,-7
2021-09-23 21:15:26.434088,76
2021-09-23 21:15:26.434094,300
2021-09-23 21:15:26.434100,675
2021-09-23 21:15:26.434106,896
2021-09-23 21:15:26.434112,367
2021-09-23 21:15:26.434117,-456
2021-09-23 21:15:26.658996,-430
2021-09-23 21:15:26.659014,-36
2021-09-23 21:15:26.659021,-98
2021-09-23 21:15:26.659028,-173
2021-09-23 21:15:26.659034,-55
2021-09-23 21:15:26.659040,-45
2021-09-23 21:15:26.659046,-88
2021-09-23 21:15:26.659052,-57
2021-09-23 21:15:26.659058,-40
2021-09-23 21:15:26.659064,-52
2021-09-23 21:15:26.659070,-36
2021-09-23 21:15:26.659075,-16
2021-09-23 21:15:26.659081,-19
2021-09-23 21:15:26.659087,-19
2021-09-23 21:15:26.659093,-4
2021-09-23 21:15:26.659099,4
2021-09-23 21:15:26.659105,16
2021-09-23 21:15:26.659111,31
2021-09-23 21:15:26.659117,38
2021-09-23 21:15:26.659123,45
2021-09-23 21:15:26.659129,67
2021-09-23 21:15:26.659135,84
2021-09-23 21:15:26.659140,93
2021-09-23 21:15:26.659146,105
2021-09-23 21:15:26.659152,113
2021-09-23 21:15:26.659158,113
2021-09-23 21:15:26.659164,108
2021-09-23 21:15:26.659170,93
2021-09-23 21:15:26.659176,69
2021-09-23 21:15:26.659182,38
2021-09-23 21:15:26.928987,9
2021-09-23 21:15:26.929010,-26
2021-09-23 21:15:26.929017,-60
2021-09-23 21:15:26.929023,-79
2021-09-23 21:15:26.929029,-88
2021-09-23 21:15:26.929035,-96
2021-09-23 21:15:26.929041,-101
2021-09-23 21:15:26.929047,-93
2021-09-23 21:15:26.929052,-84
2021-09-23 21:15:26.929058,-81
2021-09-23 21:15:26.929064,-74
2021-09-23 21:15:26.929070,-74
2021-09-23 21:15:26.929075,-88
2021-09-23 21:15:26.929081,-91
2021-09-23 21:15:26.929087,-84
2021-09-23 21:15:26.929093,-91
2021-09-23 21:15:26.929098,-101
2021-09-23 21:15:26.929104,-103
2021-09-23 21:15:26.929110,-96
2021-09-23 21:15:26.929116,-86
2021-09-23 21:15:26.929121,-84
2021-09-23 21:15:26.929127,-79
2021-09-23 21:15:26.929133,-72
2021-09-23 21:15:26.929138,-72
2021-09-23 21:15:26.929144,-72
2021-09-23 21:15:26.929149,-64
2021-09-23 21:15:26.929155,-60
2021-09-23 21:15:26.929161,-57
2021-09-23 21:15:26.929166,-50
2021-09-23 21:15:26.929172,-48
2021-09-23 21:15:27.108959,-50
2021-09-23 21:15:27.108976,-38
2021-09-23 21:15:27.108983,-19
2021-09-23 21:15:27.108989,-9
2021-09-23 21:15:27.108995,-12
2021-09-23 21:15:27.109001,-12
2021-09-23 21:15:27.109006,-12
2021-09-23 21:15:27.109012,-12
2021-09-23 21:15:27.109018,-9
2021-09-23 21:15:27.109024,-12
2021-09-23 21:15:27.109030,-21
2021-09-23 21:15:27.109035,-24
2021-09-23 21:15:27.109041,-19
2021-09-23 21:15:27.109047,-21
2021-09-23 21:15:27.109053,-31
2021-09-23 21:15:27.109059,-33
2021-09-23 21:15:27.109065,-33
2021-09-23 21:15:27.109070,-33
2021-09-23 21:15:27.109076,-14
2021-09-23 21:15:27.109082,7
2021-09-23 21:15:27.109088,-2
2021-09-23 21:15:27.109093,-31
2021-09-23 21:15:27.109099,-43
2021-09-23 21:15:27.109105,-36
2021-09-23 21:15:27.109110,-16
2021-09-23 21:15:27.109116,-4
2021-09-23 21:15:27.109122,12
2021-09-23 21:15:27.109127,69
2021-09-23 21:15:27.109133,223
2021-09-23 21:15:27.109139,514
2021-09-23 21:15:27.379005,880
2021-09-23 21:15:27.379022,798
2021-09-23 21:15:27.379029,-31
2021-09-23 21:15:27.379036,-560
2021-09-23 21:15:27.379041,-226
2021-09-23 21:15:27.379047,-19
2021-09-23 21:15:27.379053,-163
2021-09-23 21:15:27.379059,-120
2021-09-23 21:15:27.379065,-31
2021-09-23 21:15:27.379071,-74
2021-09-23 21:15:27.379077,-81
2021-09-23 21:15:27.379082,-40
2021-09-23 21:15:27.379088,-33
2021-09-23 21:15:27.379094,-24
2021-09-23 21:15:27.379100,-7
2021-09-23 21:15:27.379105,-7
2021-09-23 21:15:27.379111,-4
2021-09-23 21:15:27.379117,12
2021-09-23 21:15:27.379123,24
2021-09-23 21:15:27.379129,38
2021-09-23 21:15:27.379135,45
2021-09-23 21:15:27.379141,43
2021-09-23 21:15:27.379146,48
2021-09-23 21:15:27.379152,60
2021-09-23 21:15:27.379158,74
2021-09-23 21:15:27.379164,96
2021-09-23 21:15:27.379170,115
2021-09-23 21:15:27.379176,115
2021-09-23 21:15:27.379182,103
2021-09-23 21:15:27.379188,93
2021-09-23 21:15:27.603371,81
2021-09-23 21:15:27.603389,62
2021-09-23 21:15:27.603396,33
2021-09-23 21:15:27.603403,-9
2021-09-23 21:15:27.603409,-43
2021-09-23 21:15:27.603414,-64
2021-09-23 21:15:27.603420,-86
2021-09-23 21:15:27.603426,-105
2021-09-23 21:15:27.603432,-108
2021-09-23 21:15:27.603438,-113
2021-09-23 21:15:27.603444,-117
2021-09-23 21:15:27.603450,-103
2021-09-23 21:15:27.603456,-93
2021-09-23 21:15:27.603462,-96
2021-09-23 21:15:27.603467,-93
2021-09-23 21:15:27.603473,-96
2021-09-23 21:15:27.603479,-98
2021-09-23 21:15:27.603485,-91
2021-09-23 21:15:27.603491,-86
2021-09-23 21:15:27.603497,-86
2021-09-23 21:15:27.603502,-84
2021-09-23 21:15:27.603508,-81
2021-09-23 21:15:27.603514,-74
2021-09-23 21:15:27.603519,-62
2021-09-23 21:15:27.603525,-48
2021-09-23 21:15:27.603531,-45
2021-09-23 21:15:27.603537,-48
2021-09-23 21:15:27.603543,-43
2021-09-23 21:15:27.603549,-38
2021-09-23 21:15:27.603554,-33
2021-09-23 21:15:27.874010,-26
2021-09-23 21:15:27.874027,-24
2021-09-23 21:15:27.874034,-28
2021-09-23 21:15:27.874040,-38
2021-09-23 21:15:27.874046,-40
2021-09-23 21:15:27.874052,-33
2021-09-23 21:15:27.874058,-31
2021-09-23 21:15:27.874064,-33
2021-09-23 21:15:27.874070,-38
2021-09-23 21:15:27.874075,-48
2021-09-23 21:15:27.874081,-40
2021-09-23 21:15:27.874092,-19
2021-09-23 21:15:27.874098,-16
2021-09-23 21:15:27.874104,-24
2021-09-23 21:15:27.874110,-28
2021-09-23 21:15:27.874116,-28
2021-09-23 21:15:27.874121,-26
2021-09-23 21:15:27.874127,-19
2021-09-23 21:15:27.874133,-16
2021-09-23 21:15:27.874139,-12
2021-09-23 21:15:27.874145,-9
2021-09-23 21:15:27.874150,-16
2021-09-23 21:15:27.874156,-14
2021-09-23 21:15:27.874162,0
2021-09-23 21:15:27.874168,9
2021-09-23 21:15:27.874173,9
2021-09-23 21:15:27.874179,16
2021-09-23 21:15:27.874184,21
2021-09-23 21:15:27.874190,4
2021-09-23 21:15:27.874196,-16
2021-09-23 21:15:28.099140,-28
2021-09-23 21:15:28.099155,-26
2021-09-23 21:15:28.099159,-19
2021-09-23 21:15:28.099162,-14
2021-09-23 21:15:28.099165,-2
2021-09-23 21:15:28.099168,45
2021-09-23 21:15:28.099171,204
2021-09-23 21:15:28.099174,529
2021-09-23 21:15:28.099177,877
2021-09-23 21:15:28.099180,692
2021-09-23 21:15:28.099183,-158
2021-09-23 21:15:28.099187,-550
2021-09-23 21:15:28.099190,-168
2021-09-23 21:15:28.099193,-36
2021-09-23 21:15:28.099196,-202
2021-09-23 21:15:28.099199,-153
2021-09-23 21:15:28.099202,-84
2021-09-23 21:15:28.099205,-122
2021-09-23 21:15:28.099208,-115
2021-09-23 21:15:28.099211,-81
2021-09-23 21:15:28.099214,-93
2021-09-23 21:15:28.099217,-88
2021-09-23 21:15:28.099221,-55
2021-09-23 21:15:28.099224,-50
2021-09-23 21:15:28.099227,-55
2021-09-23 21:15:28.099230,-43
2021-09-23 21:15:28.099233,-36
2021-09-23 21:15:28.099236,-38
2021-09-23 21:15:28.099239,-28
2021-09-23 21:15:28.099242,-9
2021-09-23 21:15:28.323935,4
2021-09-23 21:15:28.323951,16
2021-09-23 21:15:28.323958,33
2021-09-23 21:15:28.323965,43
2021-09-23 21:15:28.323971,52
2021-09-23 21:15:28.323977,69
2021-09-23 21:15:28.323983,74
2021-09-23 21:15:28.323988,55
2021-09-23 21:15:28.323994,38
2021-09-23 21:15:28.324000,33
2021-09-23 21:15:28.324006,9
2021-09-23 21:15:28.324012,-28
2021-09-23 21:15:28.324018,-57
2021-09-23 21:15:28.324023,-81
2021-09-23 21:15:28.324029,-108
2021-09-23 21:15:28.324035,-120
2021-09-23 21:15:28.324041,-120
2021-09-23 21:15:28.324047,-120
2021-09-23 21:15:28.324052,-120
2021-09-23 21:15:28.324058,-122
2021-09-23 21:15:28.324064,-122
2021-09-23 21:15:28.324070,-120
2021-09-23 21:15:28.324075,-113
2021-09-23 21:15:28.324081,-98
2021-09-23 21:15:28.324087,-96
2021-09-23 21:15:28.324093,-101
2021-09-23 21:15:28.324099,-98
2021-09-23 21:15:28.324104,-88
2021-09-23 21:15:28.324110,-79
2021-09-23 21:15:28.324116,-74
2021-09-23 21:15:28.503995,-74
2021-09-23 21:15:28.504013,-69
2021-09-23 21:15:28.504020,-60
2021-09-23 21:15:28.504026,-64
2021-09-23 21:15:28.504032,-67
2021-09-23 21:15:28.504038,-57
2021-09-23 21:15:28.504045,-57
2021-09-23 21:15:28.504050,-64
2021-09-23 21:15:28.504056,-57
2021-09-23 21:15:28.504062,-50
2021-09-23 21:15:28.504068,-52
2021-09-23 21:15:28.504074,-52
2021-09-23 21:15:28.504080,-52
2021-09-23 21:15:28.504085,-55
2021-09-23 21:15:28.504091,-52
2021-09-23 21:15:28.504097,-45
2021-09-23 21:15:28.504103,-40
2021-09-23 21:15:28.504109,-38
2021-09-23 21:15:28.504114,-45
2021-09-23 21:15:28.504120,-50
2021-09-23 21:15:28.504126,-43
2021-09-23 21:15:28.504131,-36
2021-09-23 21:15:28.504137,-36
2021-09-23 21:15:28.504143,-33
2021-09-23 21:15:28.504148,-28
2021-09-23 21:15:28.504154,-28
2021-09-23 21:15:28.504160,-26
2021-09-23 21:15:28.504165,-19
2021-09-23 21:15:28.504171,-19
2021-09-23 21:15:28.504176,-19
2021-09-23 21:15:28.773391,-21
2021-09-23 21:15:28.773409,-21
2021-09-23 21:15:28.773416,-14
2021-09-23 21:15:28.773422,-12
2021-09-23 21:15:28.773428,-12
2021-09-23 21:15:28.773434,2
2021-09-23 21:15:28.773440,4
2021-09-23 21:15:28.773446,-12
2021-09-23 21:15:28.773451,-36
2021-09-23 21:15:28.773457,-48
2021-09-23 21:15:28.773463,-43
2021-09-23 21:15:28.773469,-38
2021-09-23 21:15:28.773475,-38
2021-09-23 21:15:28.773480,-26
2021-09-23 21:15:28.773486,19
2021-09-23 21:15:28.773492,187
2021-09-23 21:15:28.773498,524
2021-09-23 21:15:28.773504,858
2021-09-23 21:15:28.773510,603
2021-09-23 21:15:28.773515,-262
2021-09-23 21:15:28.773521,-562
2021-09-23 21:15:28.773527,-153
2021-09-23 21:15:28.773533,-60
2021-09-23 21:15:28.773538,-199
2021-09-23 21:15:28.773544,-117
2021-09-23 21:15:28.773550,-48
2021-09-23 21:15:28.773555,-96
2021-09-23 21:15:28.773561,-84
2021-09-23 21:15:28.773567,-45
2021-09-23 21:15:28.773573,-52
2021-09-23 21:15:28.953959,-52
2021-09-23 21:15:28.953976,-31
2021-09-23 21:15:28.953983,-26
2021-09-23 21:15:28.953989,-21
2021-09-23 21:15:28.953995,-12
2021-09-23 21:15:28.954001,-12
2021-09-23 21:15:28.954007,-7
2021-09-23 21:15:28.954012,14
2021-09-23 21:15:28.954024,28
2021-09-23 21:15:28.954030,24
2021-09-23 21:15:28.954036,19
2021-09-23 21:15:28.954041,31
2021-09-23 21:15:28.954047,50
2021-09-23 21:15:28.954053,64
2021-09-23 21:15:28.954059,72
2021-09-23 21:15:28.954065,69
2021-09-23 21:15:28.954070,55
2021-09-23 21:15:28.954076,43
2021-09-23 21:15:28.954082,38
2021-09-23 21:15:28.954088,21
2021-09-23 21:15:28.954093,-12
2021-09-23 21:15:28.954099,-48
2021-09-23 21:15:28.954105,-72
2021-09-23 21:15:28.954111,-88
2021-09-23 21:15:28.954117,-98
2021-09-23 21:15:28.954122,-105
2021-09-23 21:15:28.954128,-110
2021-09-23 21:15:28.954134,-108
2021-09-23 21:15:28.954140,-98
2021-09-23 21:15:28.954145,-98
2021-09-23 21:15:29.268990,-101
2021-09-23 21:15:29.269008,-96
2021-09-23 21:15:29.269015,-88
2021-09-23 21:15:29.269021,-91
2021-09-23 21:15:29.269027,-96
2021-09-23 21:15:29.269033,-91
2021-09-23 21:15:29.269039,-79
2021-09-23 21:15:29.269045,-72
2021-09-23 21:15:29.269050,-69
2021-09-23 21:15:29.269056,-67
2021-09-23 21:15:29.269062,-62
2021-09-23 21:15:29.269068,-60
2021-09-23 21:15:29.269074,-52
2021-09-23 21:15:29.269079,-45
2021-09-23 21:15:29.269085,-38
2021-09-23 21:15:29.269091,-36
2021-09-23 21:15:29.269096,-38
2021-09-23 21:15:29.269102,-45
2021-09-23 21:15:29.269108,-48
2021-09-23 21:15:29.269114,-45
2021-09-23 21:15:29.269119,-40
2021-09-23 21:15:29.269125,-43
2021-09-23 21:15:29.269131,-43
2021-09-23 21:15:29.269137,-36
2021-09-23 21:15:29.269142,-26
2021-09-23 21:15:29.269148,-31
2021-09-23 21:15:29.269154,-36
2021-09-23 21:15:29.269160,-33
2021-09-23 21:15:29.269165,-28
2021-09-23 21:15:29.269171,-24
2021-09-23 21:15:29.403988,-21
2021-09-23 21:15:29.404004,-24
2021-09-23 21:15:29.404011,-31
2021-09-23 21:15:29.404017,-33
2021-09-23 21:15:29.404023,-28
2021-09-23 21:15:29.404029,-24
2021-09-23 21:15:29.404035,-21
2021-09-23 21:15:29.404041,-19
2021-09-23 21:15:29.404047,-16
2021-09-23 21:15:29.404053,-26
2021-09-23 21:15:29.404058,-36
2021-09-23 21:15:29.404064,-19
2021-09-23 21:15:29.404070,-2
2021-09-23 21:15:29.404076,-2
2021-09-23 21:15:29.404082,2
2021-09-23 21:15:29.404088,9
2021-09-23 21:15:29.404094,-9
2021-09-23 21:15:29.404100,-38
2021-09-23 21:15:29.404106,-52
2021-09-23 21:15:29.404111,-50
2021-09-23 21:15:29.404117,-52
2021-09-23 21:15:29.404123,-57
2021-09-23 21:15:29.404128,-48
2021-09-23 21:15:29.404134,-14
2021-09-23 21:15:29.404140,125
2021-09-23 21:15:29.404146,432
2021-09-23 21:15:29.404152,810
2021-09-23 21:15:29.404157,743
2021-09-23 21:15:29.404163,-67
2021-09-23 21:15:29.404169,-603
2021-09-23 21:15:29.762702,-259
2021-09-23 21:15:29.762719,-19
2021-09-23 21:15:29.762727,-165
2021-09-23 21:15:29.762733,-146
2021-09-23 21:15:29.762739,-52
2021-09-23 21:15:29.762745,-84
2021-09-23 21:15:29.762751,-86
2021-09-23 21:15:29.762756,-38
2021-09-23 21:15:29.762762,-43
2021-09-23 21:15:29.762768,-60
2021-09-23 21:15:29.762774,-36
2021-09-23 21:15:29.762780,-16
2021-09-23 21:15:29.762786,-21
2021-09-23 21:15:29.762791,-14
2021-09-23 21:15:29.762797,4
2021-09-23 21:15:29.762803,7
2021-09-23 21:15:29.762809,14
2021-09-23 21:15:29.762815,33
2021-09-23 21:15:29.762820,48
2021-09-23 21:15:29.762827,57
2021-09-23 21:15:29.762832,67
2021-09-23 21:15:29.762838,76
2021-09-23 21:15:29.762844,88
2021-09-23 21:15:29.762850,93
2021-09-23 21:15:29.762856,91
2021-09-23 21:15:29.762862,93
2021-09-23 21:15:29.762867,81
2021-09-23 21:15:29.762873,60
2021-09-23 21:15:29.762879,45
2021-09-23 21:15:29.762885,21
2021-09-23 21:15:29.943873,-12
2021-09-23 21:15:29.943890,-43
2021-09-23 21:15:29.943898,-64
2021-09-23 21:15:29.943904,-81
2021-09-23 21:15:29.943910,-93
2021-09-23 21:15:29.943916,-96
2021-09-23 21:15:29.943922,-91
2021-09-23 21:15:29.943927,-91
2021-09-23 21:15:29.943933,-103
2021-09-23 21:15:29.943939,-101
2021-09-23 21:15:29.943945,-86
2021-09-23 21:15:29.943951,-86
2021-09-23 21:15:29.943956,-86
2021-09-23 21:15:29.943962,-84
2021-09-23 21:15:29.943968,-88
2021-09-23 21:15:29.943973,-84
2021-09-23 21:15:29.943979,-69
2021-09-23 21:15:29.943985,-55
2021-09-23 21:15:29.943991,-50
2021-09-23 21:15:29.943997,-50
2021-09-23 21:15:29.944002,-52
2021-09-23 21:15:29.944008,-55
2021-09-23 21:15:29.944014,-52
2021-09-23 21:15:29.944020,-43
2021-09-23 21:15:29.944025,-43
2021-09-23 21:15:29.944031,-50
2021-09-23 21:15:29.944037,-48
2021-09-23 21:15:29.944043,-48
2021-09-23 21:15:29.944049,-50
2021-09-23 21:15:29.944054,-40
2021-09-23 21:15:30.124002,-36
2021-09-23 21:15:30.124020,-40
2021-09-23 21:15:30.124027,-45
2021-09-23 21:15:30.124033,-43
2021-09-23 21:15:30.124039,-43
2021-09-23 21:15:30.124045,-43
2021-09-23 21:15:30.124051,-36
2021-09-23 21:15:30.124056,-36
2021-09-23 21:15:30.124062,-45
2021-09-23 21:15:30.124068,-43
2021-09-23 21:15:30.124074,-31
2021-09-23 21:15:30.124080,-26
2021-09-23 21:15:30.124086,-36
2021-09-23 21:15:30.124091,-40
2021-09-23 21:15:30.124097,-31
2021-09-23 21:15:30.124103,-19
2021-09-23 21:15:30.124109,-19
2021-09-23 21:15:30.124114,-19
2021-09-23 21:15:30.124120,-16
2021-09-23 21:15:30.124126,-24
2021-09-23 21:15:30.124132,-19
2021-09-23 21:15:30.124138,-9
2021-09-23 21:15:30.124143,-24
2021-09-23 21:15:30.124152,-43
2021-09-23 21:15:30.124158,-50
2021-09-23 21:15:30.124164,-52
2021-09-23 21:15:30.124170,-50
2021-09-23 21:15:30.124175,-52
2021-09-23 21:15:30.124181,-38
2021-09-23 21:15:30.124187,24
2021-09-23 21:15:30.348981,209
2021-09-23 21:15:30.348998,538
2021-09-23 21:15:30.349005,817
2021-09-23 21:15:30.349011,476
2021-09-23 21:15:30.349017,-406
2021-09-23 21:15:30.349023,-598
2021-09-23 21:15:30.349028,-122
2021-09-23 21:15:30.349034,-52
2021-09-23 21:15:30.349040,-180
2021-09-23 21:15:30.349046,-76
2021-09-23 21:15:30.349052,-26
2021-09-23 21:15:30.349057,-74
2021-09-23 21:15:30.349063,-57
2021-09-23 21:15:30.349069,-33
2021-09-23 21:15:30.349075,-38
2021-09-23 21:15:30.349081,-28
2021-09-23 21:15:30.349086,-12
2021-09-23 21:15:30.349092,-7
2021-09-23 21:15:30.349098,4
2021-09-23 21:15:30.349104,16
2021-09-23 21:15:30.349110,24
2021-09-23 21:15:30.349116,33
2021-09-23 21:15:30.349121,38
2021-09-23 21:15:30.349127,50
2021-09-23 21:15:30.349133,69
2021-09-23 21:15:30.349139,81
2021-09-23 21:15:30.349144,84
2021-09-23 21:15:30.349150,91
2021-09-23 21:15:30.349156,105
2021-09-23 21:15:30.349162,108
2021-09-23 21:15:30.574032,98
2021-09-23 21:15:30.574050,96
2021-09-23 21:15:30.574057,86
2021-09-23 21:15:30.574063,64
2021-09-23 21:15:30.574069,38
2021-09-23 21:15:30.574075,-2
2021-09-23 21:15:30.574081,-48
2021-09-23 21:15:30.574087,-74
2021-09-23 21:15:30.574093,-91
2021-09-23 21:15:30.574099,-110
2021-09-23 21:15:30.574105,-115
2021-09-23 21:15:30.574111,-115
2021-09-23 21:15:30.574117,-120
2021-09-23 21:15:30.574122,-120
2021-09-23 21:15:30.574128,-117
2021-09-23 21:15:30.574134,-120
2021-09-23 21:15:30.574140,-113
2021-09-23 21:15:30.574146,-103
2021-09-23 21:15:30.574151,-96
2021-09-23 21:15:30.574157,-88
2021-09-23 21:15:30.574163,-79
2021-09-23 21:15:30.574169,-69
2021-09-23 21:15:30.574175,-62
2021-09-23 21:15:30.574180,-60
2021-09-23 21:15:30.574186,-52
2021-09-23 21:15:30.574192,-38
2021-09-23 21:15:30.574198,-36
2021-09-23 21:15:30.574203,-33
2021-09-23 21:15:30.574209,-28
2021-09-23 21:15:30.574215,-36
2021-09-23 21:15:30.799033,-43
2021-09-23 21:15:30.799050,-43
2021-09-23 21:15:30.799057,-40
2021-09-23 21:15:30.799063,-45
2021-09-23 21:15:30.799069,-48
2021-09-23 21:15:30.799075,-45
2021-09-23 21:15:30.799081,-50
2021-09-23 21:15:30.799087,-50
2021-09-23 21:15:30.799093,-45
2021-09-23 21:15:30.799098,-45
2021-09-23 21:15:30.799104,-52
2021-09-23 21:15:30.799110,-57
2021-09-23 21:15:30.799115,-52
2021-09-23 21:15:30.799121,-48
2021-09-23 21:15:30.799127,-45
2021-09-23 21:15:30.799132,-33
2021-09-23 21:15:30.799138,-31
2021-09-23 21:15:30.799144,-43
2021-09-23 21:15:30.799150,-33
2021-09-23 21:15:30.799156,-12
2021-09-23 21:15:30.799162,-9
2021-09-23 21:15:30.799168,-12
2021-09-23 21:15:30.799173,-2
2021-09-23 21:15:30.799179,-4
2021-09-23 21:15:30.799185,-31
2021-09-23 21:15:30.799191,-55
2021-09-23 21:15:30.799197,-52
2021-09-23 21:15:30.799202,-48
2021-09-23 21:15:30.799208,-45
2021-09-23 21:15:30.799214,-33
2021-09-23 21:15:31.069062,-2
2021-09-23 21:15:31.069079,101
2021-09-23 21:15:31.069086,353
2021-09-23 21:15:31.069092,716
2021-09-23 21:15:31.069099,783
2021-09-23 21:15:31.069104,74
2021-09-23 21:15:31.069110,-634
2021-09-23 21:15:31.069116,-384
2021-09-23 21:15:31.069122,-19
2021-09-23 21:15:31.069128,-141
2021-09-23 21:15:31.069134,-168
2021-09-23 21:15:31.069140,-50
2021-09-23 21:15:31.069146,-67
2021-09-23 21:15:31.069152,-88
2021-09-23 21:15:31.069158,-48
2021-09-23 21:15:31.069163,-38
2021-09-23 21:15:31.069169,-45
2021-09-23 21:15:31.069175,-26
2021-09-23 21:15:31.069181,-12
2021-09-23 21:15:31.069187,-2
2021-09-23 21:15:31.069193,2
2021-09-23 21:15:31.069199,7
2021-09-23 21:15:31.069204,16
2021-09-23 21:15:31.069210,26
2021-09-23 21:15:31.069216,43
2021-09-23 21:15:31.069221,60
2021-09-23 21:15:31.069227,72
2021-09-23 21:15:31.069233,81
2021-09-23 21:15:31.069239,93
2021-09-23 21:15:31.069245,108
2021-09-23 21:15:31.294005,122
2021-09-23 21:15:31.294021,122
2021-09-23 21:15:31.294028,113
2021-09-23 21:15:31.294034,103
2021-09-23 21:15:31.294040,88
2021-09-23 21:15:31.294046,64
2021-09-23 21:15:31.294052,28
2021-09-23 21:15:31.294058,-4
2021-09-23 21:15:31.294064,-33
2021-09-23 21:15:31.294070,-72
2021-09-23 21:15:31.294075,-96
2021-09-23 21:15:31.294081,-98
2021-09-23 21:15:31.294087,-101
2021-09-23 21:15:31.294093,-98
2021-09-23 21:15:31.294098,-93
2021-09-23 21:15:31.294104,-103
2021-09-23 21:15:31.294109,-110
2021-09-23 21:15:31.294115,-101
2021-09-23 21:15:31.294121,-93
2021-09-23 21:15:31.294127,-93
2021-09-23 21:15:31.294133,-84
2021-09-23 21:15:31.294138,-74
2021-09-23 21:15:31.294144,-72
2021-09-23 21:15:31.294149,-64
2021-09-23 21:15:31.294155,-50
2021-09-23 21:15:31.294161,-40
2021-09-23 21:15:31.294167,-36
2021-09-23 21:15:31.294172,-36
2021-09-23 21:15:31.294178,-28
2021-09-23 21:15:31.294183,-24
2021-09-23 21:15:31.609030,-24
2021-09-23 21:15:31.609048,-26
2021-09-23 21:15:31.609055,-31
2021-09-23 21:15:31.609061,-40
2021-09-23 21:15:31.609067,-38
2021-09-23 21:15:31.609073,-31
2021-09-23 21:15:31.609079,-33
2021-09-23 21:15:31.609085,-38
2021-09-23 21:15:31.609090,-43
2021-09-23 21:15:31.609096,-50
2021-09-23 21:15:31.609102,-48
2021-09-23 21:15:31.609108,-36
2021-09-23 21:15:31.609113,-36
2021-09-23 21:15:31.609119,-36
2021-09-23 21:15:31.609125,-36
2021-09-23 21:15:31.609131,-43
2021-09-23 21:15:31.609136,-48
2021-09-23 21:15:31.609142,-40
2021-09-23 21:15:31.609148,-28
2021-09-23 21:15:31.609154,-19
2021-09-23 21:15:31.609159,-16
2021-09-23 21:15:31.609165,-4
2021-09-23 21:15:31.609171,12
2021-09-23 21:15:31.609177,7
2021-09-23 21:15:31.609182,-21
2021-09-23 21:15:31.609188,-40
2021-09-23 21:15:31.609194,-33
2021-09-23 21:15:31.609200,-21
2021-09-23 21:15:31.609206,-19
2021-09-23 21:15:31.609217,-19
2021-09-23 21:15:31.832665,9
2021-09-23 21:15:31.832682,149
2021-09-23 21:15:31.832689,442
2021-09-23 21:15:31.832695,800
2021-09-23 21:15:31.832701,755
2021-09-23 21:15:31.832707,-36
2021-09-23 21:15:31.832713,-596
2021-09-23 21:15:31.832719,-264
2021-09-23 21:15:31.832725,-9
2021-09-23 21:15:31.832730,-163
2021-09-23 21:15:31.832736,-139
2021-09-23 21:15:31.832742,-31
2021-09-23 21:15:31.832748,-67
2021-09-23 21:15:31.832754,-76
2021-09-23 21:15:31.832759,-38
2021-09-23 21:15:31.832765,-43
2021-09-23 21:15:31.832771,-43
2021-09-23 21:15:31.832777,-14
2021-09-23 21:15:31.832783,-4
2021-09-23 21:15:31.832789,-12
2021-09-23 21:15:31.832795,-7
2021-09-23 21:15:31.832800,4
2021-09-23 21:15:31.832806,16
2021-09-23 21:15:31.832812,31
2021-09-23 21:15:31.832818,43
2021-09-23 21:15:31.832824,52
2021-09-23 21:15:31.832829,55
2021-09-23 21:15:31.832835,67
2021-09-23 21:15:31.832841,86
2021-09-23 21:15:31.832847,98
2021-09-23 21:15:32.014044,108
2021-09-23 21:15:32.014060,110
2021-09-23 21:15:32.014067,101
2021-09-23 21:15:32.014074,86
2021-09-23 21:15:32.014080,74
2021-09-23 21:15:32.014085,52
2021-09-23 21:15:32.014091,19
2021-09-23 21:15:32.014097,-16
2021-09-23 21:15:32.014103,-57
2021-09-23 21:15:32.014109,-84
2021-09-23 21:15:32.014114,-98
2021-09-23 21:15:32.014120,-108
2021-09-23 21:15:32.014126,-113
2021-09-23 21:15:32.014132,-105
2021-09-23 21:15:32.014137,-113
2021-09-23 21:15:32.014143,-125
2021-09-23 21:15:32.014149,-115
2021-09-23 21:15:32.014154,-103
2021-09-23 21:15:32.014160,-98
2021-09-23 21:15:32.014166,-103
2021-09-23 21:15:32.014172,-105
2021-09-23 21:15:32.014177,-91
2021-09-23 21:15:32.014183,-81
2021-09-23 21:15:32.014189,-84
2021-09-23 21:15:32.014194,-74
2021-09-23 21:15:32.014200,-57
2021-09-23 21:15:32.014206,-57
2021-09-23 21:15:32.014211,-60
2021-09-23 21:15:32.014217,-50
2021-09-23 21:15:32.014223,-40
2021-09-23 21:15:32.238397,-40
2021-09-23 21:15:32.238414,-38
2021-09-23 21:15:32.238421,-36
2021-09-23 21:15:32.238427,-40
2021-09-23 21:15:32.238433,-38
2021-09-23 21:15:32.238439,-33
2021-09-23 21:15:32.238445,-33
2021-09-23 21:15:32.238451,-40
2021-09-23 21:15:32.238457,-45
2021-09-23 21:15:32.238462,-36
2021-09-23 21:15:32.238468,-26
2021-09-23 21:15:32.238474,-28
2021-09-23 21:15:32.238480,-33
2021-09-23 21:15:32.238485,-28
2021-09-23 21:15:32.238491,-26
2021-09-23 21:15:32.238497,-24
2021-09-23 21:15:32.238503,-26
2021-09-23 21:15:32.238509,-16
2021-09-23 21:15:32.238515,-9
2021-09-23 21:15:32.238521,-9
2021-09-23 21:15:32.238526,9
2021-09-23 21:15:32.238532,14
2021-09-23 21:15:32.238538,-7
2021-09-23 21:15:32.238544,-31
2021-09-23 21:15:32.238550,-40
2021-09-23 21:15:32.238556,-36
2021-09-23 21:15:32.238561,-26
2021-09-23 21:15:32.238567,-24
2021-09-23 21:15:32.238573,-14
2021-09-23 21:15:32.238579,33
2021-09-23 21:15:32.419043,192
2021-09-23 21:15:32.419060,512
2021-09-23 21:15:32.419067,856
2021-09-23 21:15:32.419073,673
2021-09-23 21:15:32.419079,-187
2021-09-23 21:15:32.419085,-579
2021-09-23 21:15:32.419091,-177
2021-09-23 21:15:32.419097,-24
2021-09-23 21:15:32.419103,-168
2021-09-23 21:15:32.419109,-105
2021-09-23 21:15:32.419114,-33
2021-09-23 21:15:32.419120,-79
2021-09-23 21:15:32.419126,-84
2021-09-23 21:15:32.419132,-45
2021-09-23 21:15:32.419138,-48
2021-09-23 21:15:32.419143,-60
2021-09-23 21:15:32.419149,-45
2021-09-23 21:15:32.419155,-28
2021-09-23 21:15:32.419161,-28
2021-09-23 21:15:32.419167,-26
2021-09-23 21:15:32.419172,-21
2021-09-23 21:15:32.419178,-19
2021-09-23 21:15:32.419184,-7
2021-09-23 21:15:32.419190,14
2021-09-23 21:15:32.419195,26
2021-09-23 21:15:32.419201,36
2021-09-23 21:15:32.419207,55
2021-09-23 21:15:32.419213,72
2021-09-23 21:15:32.419218,79
2021-09-23 21:15:32.419224,88
2021-09-23 21:15:32.644026,91
2021-09-23 21:15:32.644043,84
2021-09-23 21:15:32.644050,72
2021-09-23 21:15:32.644056,55
2021-09-23 21:15:32.644062,31
2021-09-23 21:15:32.644068,-7
2021-09-23 21:15:32.644074,-43
2021-09-23 21:15:32.644079,-64
2021-09-23 21:15:32.644085,-86
2021-09-23 21:15:32.644091,-103
2021-09-23 21:15:32.644097,-108
2021-09-23 21:15:32.644103,-115
2021-09-23 21:15:32.644108,-120
2021-09-23 21:15:32.644114,-110
2021-09-23 21:15:32.644120,-105
2021-09-23 21:15:32.644126,-105
2021-09-23 21:15:32.644131,-101
2021-09-23 21:15:32.644137,-98
2021-09-23 21:15:32.644143,-96
2021-09-23 21:15:32.644149,-86
2021-09-23 21:15:32.644154,-81
2021-09-23 21:15:32.644160,-79
2021-09-23 21:15:32.644166,-69
2021-09-23 21:15:32.644171,-67
2021-09-23 21:15:32.644177,-60
2021-09-23 21:15:32.644182,-45
2021-09-23 21:15:32.644188,-43
2021-09-23 21:15:32.644194,-40
2021-09-23 21:15:32.644200,-38
2021-09-23 21:15:32.644205,-33
2021-09-23 21:15:32.869052,-26
2021-09-23 21:15:32.869070,-21
2021-09-23 21:15:32.869077,-28
2021-09-23 21:15:32.869083,-31
2021-09-23 21:15:32.869089,-33
2021-09-23 21:15:32.869095,-36
2021-09-23 21:15:32.869101,-31
2021-09-23 21:15:32.869107,-21
2021-09-23 21:15:32.869112,-19
2021-09-23 21:15:32.869118,-26
2021-09-23 21:15:32.869124,-24
2021-09-23 21:15:32.869130,-14
2021-09-23 21:15:32.869136,-24
2021-09-23 21:15:32.869142,-38
2021-09-23 21:15:32.869148,-36
2021-09-23 21:15:32.869153,-33
2021-09-23 21:15:32.869159,-38
2021-09-23 21:15:32.869165,-36
2021-09-23 21:15:32.869171,-24
2021-09-23 21:15:32.869177,-26
2021-09-23 21:15:32.869182,-26
2021-09-23 21:15:32.869188,-4
2021-09-23 21:15:32.869194,-2
2021-09-23 21:15:32.869199,-38
2021-09-23 21:15:32.869205,-64
2021-09-23 21:15:32.869210,-69
2021-09-23 21:15:32.869216,-64
2021-09-23 21:15:32.869222,-60
2021-09-23 21:15:32.869227,-50
2021-09-23 21:15:32.869233,-7
2021-09-23 21:15:33.094044,122
2021-09-23 21:15:33.094061,411
2021-09-23 21:15:33.094068,822
2021-09-23 21:15:33.094074,827
2021-09-23 21:15:33.094080,31
2021-09-23 21:15:33.094086,-562
2021-09-23 21:15:33.094092,-262
2021-09-23 21:15:33.094098,-26
2021-09-23 21:15:33.094104,-180
2021-09-23 21:15:33.094110,-163
2021-09-23 21:15:33.094116,-74
2021-09-23 21:15:33.094122,-108
2021-09-23 21:15:33.094127,-108
2021-09-23 21:15:33.094133,-60
2021-09-23 21:15:33.094139,-57
2021-09-23 21:15:33.094145,-64
2021-09-23 21:15:33.094151,-52
2021-09-23 21:15:33.094157,-45
2021-09-23 21:15:33.094163,-48
2021-09-23 21:15:33.094169,-43
2021-09-23 21:15:33.094175,-33
2021-09-23 21:15:33.094181,-38
2021-09-23 21:15:33.094187,-36
2021-09-23 21:15:33.094193,-14
2021-09-23 21:15:33.094198,2
2021-09-23 21:15:33.094204,9
2021-09-23 21:15:33.094210,16
2021-09-23 21:15:33.094216,28
2021-09-23 21:15:33.094228,45
2021-09-23 21:15:33.094234,62
2021-09-23 21:15:33.363987,64
2021-09-23 21:15:33.364003,60
2021-09-23 21:15:33.364010,50
2021-09-23 21:15:33.364016,26
2021-09-23 21:15:33.364022,9
2021-09-23 21:15:33.364028,-2
2021-09-23 21:15:33.364034,-38
2021-09-23 21:15:33.364040,-76
2021-09-23 21:15:33.364046,-93
2021-09-23 21:15:33.364052,-113
2021-09-23 21:15:33.364057,-122
2021-09-23 21:15:33.364063,-117
2021-09-23 21:15:33.364069,-113
2021-09-23 21:15:33.364075,-108
2021-09-23 21:15:33.364081,-103
2021-09-23 21:15:33.364086,-108
2021-09-23 21:15:33.364092,-105
2021-09-23 21:15:33.364098,-96
2021-09-23 21:15:33.364104,-91
2021-09-23 21:15:33.364109,-86
2021-09-23 21:15:33.364115,-84
2021-09-23 21:15:33.364121,-86
2021-09-23 21:15:33.364127,-81
2021-09-23 21:15:33.364133,-76
2021-09-23 21:15:33.364139,-74
2021-09-23 21:15:33.364144,-64
2021-09-23 21:15:33.364150,-60
2021-09-23 21:15:33.364156,-57
2021-09-23 21:15:33.364162,-52
2021-09-23 21:15:33.364167,-43
2021-09-23 21:15:33.589000,-50
2021-09-23 21:15:33.589018,-57
2021-09-23 21:15:33.589025,-57
2021-09-23 21:15:33.589031,-57
2021-09-23 21:15:33.589037,-52
2021-09-23 21:15:33.589043,-45
2021-09-23 21:15:33.589049,-45
2021-09-23 21:15:33.589055,-43
2021-09-23 21:15:33.589061,-43
2021-09-23 21:15:33.589067,-50
2021-09-23 21:15:33.589073,-50
2021-09-23 21:15:33.589078,-33
2021-09-23 21:15:33.589084,-26
2021-09-23 21:15:33.589090,-33
2021-09-23 21:15:33.589096,-38
2021-09-23 21:15:33.589101,-31
2021-09-23 21:15:33.589107,-26
2021-09-23 21:15:33.589113,-21
2021-09-23 21:15:33.589119,-2
2021-09-23 21:15:33.589124,9
2021-09-23 21:15:33.589130,-12
2021-09-23 21:15:33.589136,-38
2021-09-23 21:15:33.589141,-40
2021-09-23 21:15:33.589147,-31
2021-09-23 21:15:33.589153,-28
2021-09-23 21:15:33.589158,-26
2021-09-23 21:15:33.589164,-12
2021-09-23 21:15:33.589170,72
2021-09-23 21:15:33.589176,293
2021-09-23 21:15:33.589181,625
2021-09-23 21:15:33.857688,822
2021-09-23 21:15:33.857706,370
2021-09-23 21:15:33.857713,-454
2021-09-23 21:15:33.857719,-509
2021-09-23 21:15:33.857725,-60
2021-09-23 21:15:33.857731,-43
2021-09-23 21:15:33.857737,-146
2021-09-23 21:15:33.857743,-55
2021-09-23 21:15:33.857749,-38
2021-09-23 21:15:33.857755,-76
2021-09-23 21:15:33.857761,-40
2021-09-23 21:15:33.857767,-16
2021-09-23 21:15:33.857773,-31
2021-09-23 21:15:33.857779,-19
2021-09-23 21:15:33.857784,-4
2021-09-23 21:15:33.857790,-14
2021-09-23 21:15:33.857796,-7
2021-09-23 21:15:33.857802,24
2021-09-23 21:15:33.857808,38
2021-09-23 21:15:33.857813,31
2021-09-23 21:15:33.857819,38
2021-09-23 21:15:33.857825,60
2021-09-23 21:15:33.857831,74
2021-09-23 21:15:33.857836,74
2021-09-23 21:15:33.857842,79
2021-09-23 21:15:33.857848,93
2021-09-23 21:15:33.857854,98
2021-09-23 21:15:33.857859,91
2021-09-23 21:15:33.857865,86
2021-09-23 21:15:33.857871,76
2021-09-23 21:15:34.039041,67
2021-09-23 21:15:34.039060,50
2021-09-23 21:15:34.039068,16
2021-09-23 21:15:34.039074,-24
2021-09-23 21:15:34.039080,-55
2021-09-23 21:15:34.039086,-81
2021-09-23 21:15:34.039092,-108
2021-09-23 21:15:34.039097,-134
2021-09-23 21:15:34.039103,-149
2021-09-23 21:15:34.039109,-141
2021-09-23 21:15:34.039115,-127
2021-09-23 21:15:34.039121,-120
2021-09-23 21:15:34.039127,-122
2021-09-23 21:15:34.039132,-125
2021-09-23 21:15:34.039138,-113
2021-09-23 21:15:34.039144,-110
2021-09-23 21:15:34.039150,-115
2021-09-23 21:15:34.039156,-98
2021-09-23 21:15:34.039162,-86
2021-09-23 21:15:34.039168,-96
2021-09-23 21:15:34.039174,-96
2021-09-23 21:15:34.039180,-72
2021-09-23 21:15:34.039186,-62
2021-09-23 21:15:34.039192,-64
2021-09-23 21:15:34.039198,-62
2021-09-23 21:15:34.039203,-60
2021-09-23 21:15:34.039209,-55
2021-09-23 21:15:34.039215,-48
2021-09-23 21:15:34.039221,-45
2021-09-23 21:15:34.039227,-50
2021-09-23 21:15:34.309056,-60
2021-09-23 21:15:34.309073,-57
2021-09-23 21:15:34.309081,-45
2021-09-23 21:15:34.309087,-48
2021-09-23 21:15:34.309093,-48
2021-09-23 21:15:34.309098,-31
2021-09-23 21:15:34.309104,-26
2021-09-23 21:15:34.309110,-28
2021-09-23 21:15:34.309116,-19
2021-09-23 21:15:34.309122,-14
2021-09-23 21:15:34.309127,-28
2021-09-23 21:15:34.309133,-48
2021-09-23 21:15:34.309139,-60
2021-09-23 21:15:34.309145,-55
2021-09-23 21:15:34.309150,-45
2021-09-23 21:15:34.309156,-40
2021-09-23 21:15:34.309162,-28
2021-09-23 21:15:34.309167,4
2021-09-23 21:15:34.309173,125
2021-09-23 21:15:34.309179,387
2021-09-23 21:15:34.309185,682
2021-09-23 21:15:34.309191,569
2021-09-23 21:15:34.309196,-199
2021-09-23 21:15:34.309202,-690
2021-09-23 21:15:34.309208,-288
2021-09-23 21:15:34.309214,12
2021-09-23 21:15:34.309220,-113
2021-09-23 21:15:34.309225,-79
2021-09-23 21:15:34.309231,19
2021-09-23 21:15:34.309237,-24
2021-09-23 21:15:34.534590,-33
2021-09-23 21:15:34.534608,9
2021-09-23 21:15:34.534615,7
2021-09-23 21:15:34.534622,0
2021-09-23 21:15:34.534628,16
2021-09-23 21:15:34.534634,16
2021-09-23 21:15:34.534640,14
2021-09-23 21:15:34.534646,33
2021-09-23 21:15:34.534652,48
2021-09-23 21:15:34.534658,45
2021-09-23 21:15:34.534663,57
2021-09-23 21:15:34.534669,69
2021-09-23 21:15:34.534675,69
2021-09-23 21:15:34.534681,79
2021-09-23 21:15:34.534687,103
2021-09-23 21:15:34.534693,122
2021-09-23 21:15:34.534699,127
2021-09-23 21:15:34.534705,127
2021-09-23 21:15:34.534711,122
2021-09-23 21:15:34.534717,115
2021-09-23 21:15:34.534723,96
2021-09-23 21:15:34.534729,64
2021-09-23 21:15:34.534735,38
2021-09-23 21:15:34.534741,-2
2021-09-23 21:15:34.534747,-50
2021-09-23 21:15:34.534752,-81
2021-09-23 21:15:34.534758,-103
2021-09-23 21:15:34.534764,-125
2021-09-23 21:15:34.534770,-134
2021-09-23 21:15:34.534775,-139
2021-09-23 21:15:34.714045,-141
2021-09-23 21:15:34.714063,-134
2021-09-23 21:15:34.714070,-127
2021-09-23 21:15:34.714076,-134
2021-09-23 21:15:34.714082,-137
2021-09-23 21:15:34.714088,-132
2021-09-23 21:15:34.714093,-122
2021-09-23 21:15:34.714099,-105
2021-09-23 21:15:34.714105,-91
2021-09-23 21:15:34.714111,-86
2021-09-23 21:15:34.714117,-74
2021-09-23 21:15:34.714123,-64
2021-09-23 21:15:34.714128,-60
2021-09-23 21:15:34.714134,-52
2021-09-23 21:15:34.714140,-48
2021-09-23 21:15:34.714146,-50
2021-09-23 21:15:34.714151,-52
2021-09-23 21:15:34.714157,-57
2021-09-23 21:15:34.714163,-57
2021-09-23 21:15:34.714168,-55
2021-09-23 21:15:34.714174,-52
2021-09-23 21:15:34.714180,-52
2021-09-23 21:15:34.714185,-52
2021-09-23 21:15:34.714191,-45
2021-09-23 21:15:34.714197,-43
2021-09-23 21:15:34.714203,-48
2021-09-23 21:15:34.714208,-45
2021-09-23 21:15:34.714214,-33
2021-09-23 21:15:34.714220,-26
2021-09-23 21:15:34.714225,-21
2021-09-23 21:15:34.939064,-14
2021-09-23 21:15:34.939081,-4
2021-09-23 21:15:34.939088,-9
2021-09-23 21:15:34.939095,-31
2021-09-23 21:15:34.939101,-50
2021-09-23 21:15:34.939107,-55
2021-09-23 21:15:34.939113,-48
2021-09-23 21:15:34.939119,-38
2021-09-23 21:15:34.939125,-24
2021-09-23 21:15:34.939131,9
2021-09-23 21:15:34.939137,137
2021-09-23 21:15:34.939143,418
2021-09-23 21:15:34.939149,747
2021-09-23 21:15:34.939155,656
2021-09-23 21:15:34.939160,-108
2021-09-23 21:15:34.939166,-562
2021-09-23 21:15:34.939173,-214
2021-09-23 21:15:34.939178,-12
2021-09-23 21:15:34.939184,-153
2021-09-23 21:15:34.939190,-117
2021-09-23 21:15:34.939196,-31
2021-09-23 21:15:34.939202,-74
2021-09-23 21:15:34.939208,-79
2021-09-23 21:15:34.939216,-33
2021-09-23 21:15:34.939222,-28
2021-09-23 21:15:34.939228,-28
2021-09-23 21:15:34.939234,-9
2021-09-23 21:15:34.939240,-4
2021-09-23 21:15:34.939246,-7
2021-09-23 21:15:34.939252,0
2021-09-23 21:15:35.299078,12
2021-09-23 21:15:35.299096,24
2021-09-23 21:15:35.299103,33
2021-09-23 21:15:35.299109,31
2021-09-23 21:15:35.299116,36
2021-09-23 21:15:35.299122,55
2021-09-23 21:15:35.299128,69
2021-09-23 21:15:35.299134,74
2021-09-23 21:15:35.299140,74
2021-09-23 21:15:35.299146,57
2021-09-23 21:15:35.299151,50
2021-09-23 21:15:35.299157,50
2021-09-23 21:15:35.299163,45
2021-09-23 21:15:35.299169,33
2021-09-23 21:15:35.299175,14
2021-09-23 21:15:35.299180,-21
2021-09-23 21:15:35.299186,-52
2021-09-23 21:15:35.299192,-62
2021-09-23 21:15:35.299198,-72
2021-09-23 21:15:35.299204,-86
2021-09-23 21:15:35.299209,-98
2021-09-23 21:15:35.299215,-103
2021-09-23 21:15:35.299221,-101
2021-09-23 21:15:35.299227,-96
2021-09-23 21:15:35.299233,-96
2021-09-23 21:15:35.299238,-98
2021-09-23 21:15:35.299244,-93
2021-09-23 21:15:35.299250,-96
2021-09-23 21:15:35.299256,-93
2021-09-23 21:15:35.299262,-84
2021-09-23 21:15:35.434159,-74
2021-09-23 21:15:35.434178,-69
2021-09-23 21:15:35.434186,-69
2021-09-23 21:15:35.434192,-72
2021-09-23 21:15:35.434198,-64
2021-09-23 21:15:35.434204,-52
2021-09-23 21:15:35.434210,-50
2021-09-23 21:15:35.434216,-50
2021-09-23 21:15:35.434221,-48
2021-09-23 21:15:35.434227,-50
2021-09-23 21:15:35.434233,-52
2021-09-23 21:15:35.434238,-48
2021-09-23 21:15:35.434244,-43
2021-09-23 21:15:35.434250,-40
2021-09-23 21:15:35.434256,-40
2021-09-23 21:15:35.434262,-43
2021-09-23 21:15:35.434267,-43
2021-09-23 21:15:35.434273,-40
2021-09-23 21:15:35.434279,-38
2021-09-23 21:15:35.434284,-28
2021-09-23 21:15:35.434290,-21
2021-09-23 21:15:35.434295,-24
2021-09-23 21:15:35.434301,-16
2021-09-23 21:15:35.434307,-24
2021-09-23 21:15:35.434312,-50
2021-09-23 21:15:35.434318,-60
2021-09-23 21:15:35.434324,-55
2021-09-23 21:15:35.434329,-55
2021-09-23 21:15:35.434335,-48
2021-09-23 21:15:35.434341,-33
2021-09-23 21:15:35.704077,-2
2021-09-23 21:15:35.704094,101
2021-09-23 21:15:35.704101,327
2021-09-23 21:15:35.704107,651
2021-09-23 21:15:35.704113,747
2021-09-23 21:15:35.704119,146
2021-09-23 21:15:35.704128,-512
2021-09-23 21:15:35.704134,-327
2021-09-23 21:15:35.704140,-4
2021-09-23 21:15:35.704145,-117
2021-09-23 21:15:35.704151,-144
2021-09-23 21:15:35.704157,-31
2021-09-23 21:15:35.704163,-50
2021-09-23 21:15:35.704169,-84
2021-09-23 21:15:35.704175,-50
2021-09-23 21:15:35.704180,-38
2021-09-23 21:15:35.704186,-40
2021-09-23 21:15:35.704192,-21
2021-09-23 21:15:35.704198,-7
2021-09-23 21:15:35.704204,-7
2021-09-23 21:15:35.704209,-2
2021-09-23 21:15:35.704215,9
2021-09-23 21:15:35.704221,19
2021-09-23 21:15:35.704226,26
2021-09-23 21:15:35.704232,33
2021-09-23 21:15:35.704238,43
2021-09-23 21:15:35.704244,55
2021-09-23 21:15:35.704250,67
2021-09-23 21:15:35.704256,79
2021-09-23 21:15:35.704261,91
2021-09-23 21:15:35.927715,96
2021-09-23 21:15:35.927733,88
2021-09-23 21:15:35.927740,81
2021-09-23 21:15:35.927746,76
2021-09-23 21:15:35.927752,60
2021-09-23 21:15:35.927758,36
2021-09-23 21:15:35.927763,12
2021-09-23 21:15:35.927769,-24
2021-09-23 21:15:35.927775,-57
2021-09-23 21:15:35.927781,-69
2021-09-23 21:15:35.927787,-76
2021-09-23 21:15:35.927793,-86
2021-09-23 21:15:35.927799,-84
2021-09-23 21:15:35.927804,-84
2021-09-23 21:15:35.927810,-101
2021-09-23 21:15:35.927816,-103
2021-09-23 21:15:35.927822,-81
2021-09-23 21:15:35.927828,-74
2021-09-23 21:15:35.927833,-86
2021-09-23 21:15:35.927839,-86
2021-09-23 21:15:35.927845,-76
2021-09-23 21:15:35.927850,-72
2021-09-23 21:15:35.927856,-62
2021-09-23 21:15:35.927862,-62
2021-09-23 21:15:35.927868,-67
2021-09-23 21:15:35.927874,-64
2021-09-23 21:15:35.927879,-62
2021-09-23 21:15:35.927885,-62
2021-09-23 21:15:35.927891,-60
2021-09-23 21:15:35.927897,-67
2021-09-23 21:15:36.109080,-76
2021-09-23 21:15:36.109098,-64
2021-09-23 21:15:36.109105,-55
2021-09-23 21:15:36.109111,-60
2021-09-23 21:15:36.109117,-60
2021-09-23 21:15:36.109123,-57
2021-09-23 21:15:36.109129,-57
2021-09-23 21:15:36.109135,-60
2021-09-23 21:15:36.109140,-57
2021-09-23 21:15:36.109146,-55
2021-09-23 21:15:36.109152,-55
2021-09-23 21:15:36.109158,-40
2021-09-23 21:15:36.109163,-31
2021-09-23 21:15:36.109169,-28
2021-09-23 21:15:36.109175,-21
2021-09-23 21:15:36.109180,-33
2021-09-23 21:15:36.109186,-57
2021-09-23 21:15:36.109192,-60
2021-09-23 21:15:36.109197,-57
2021-09-23 21:15:36.109203,-55
2021-09-23 21:15:36.109209,-43
2021-09-23 21:15:36.109214,-33
2021-09-23 21:15:36.109220,-4
2021-09-23 21:15:36.109226,120
2021-09-23 21:15:36.109232,382
2021-09-23 21:15:36.109238,692
2021-09-23 21:15:36.109243,682
2021-09-23 21:15:36.109249,-7
2021-09-23 21:15:36.109255,-610
2021-09-23 21:15:36.109261,-319
2021-09-23 21:15:36.379027,24
2021-09-23 21:15:36.379043,-103
2021-09-23 21:15:36.379050,-120
2021-09-23 21:15:36.379057,-2
2021-09-23 21:15:36.379063,-19
2021-09-23 21:15:36.379069,-48
2021-09-23 21:15:36.379074,-21
2021-09-23 21:15:36.379080,-19
2021-09-23 21:15:36.379086,-14
2021-09-23 21:15:36.379092,12
2021-09-23 21:15:36.379098,16
2021-09-23 21:15:36.379104,9
2021-09-23 21:15:36.379110,21
2021-09-23 21:15:36.379115,33
2021-09-23 21:15:36.379121,36
2021-09-23 21:15:36.379127,48
2021-09-23 21:15:36.379133,72
2021-09-23 21:15:36.379138,81
2021-09-23 21:15:36.379144,84
2021-09-23 21:15:36.379150,98
2021-09-23 21:15:36.379156,113
2021-09-23 21:15:36.379161,113
2021-09-23 21:15:36.379167,117
2021-09-23 21:15:36.379173,125
2021-09-23 21:15:36.379179,115
2021-09-23 21:15:36.379184,93
2021-09-23 21:15:36.379190,76
2021-09-23 21:15:36.379196,48
2021-09-23 21:15:36.379202,14
2021-09-23 21:15:36.379208,-14
2021-09-23 21:15:36.559111,-33
2021-09-23 21:15:36.559129,-52
2021-09-23 21:15:36.559136,-74
2021-09-23 21:15:36.559142,-84
2021-09-23 21:15:36.559148,-88
2021-09-23 21:15:36.559154,-93
2021-09-23 21:15:36.559160,-98
2021-09-23 21:15:36.559166,-93
2021-09-23 21:15:36.559172,-91
2021-09-23 21:15:36.559178,-96
2021-09-23 21:15:36.559184,-86
2021-09-23 21:15:36.559190,-76
2021-09-23 21:15:36.559195,-76
2021-09-23 21:15:36.559201,-64
2021-09-23 21:15:36.559207,-50
2021-09-23 21:15:36.559213,-45
2021-09-23 21:15:36.559218,-45
2021-09-23 21:15:36.559224,-48
2021-09-23 21:15:36.559230,-50
2021-09-23 21:15:36.559236,-48
2021-09-23 21:15:36.559241,-48
2021-09-23 21:15:36.559247,-50
2021-09-23 21:15:36.559253,-43
2021-09-23 21:15:36.559258,-48
2021-09-23 21:15:36.559264,-57
2021-09-23 21:15:36.559270,-60
2021-09-23 21:15:36.559275,-57
2021-09-23 21:15:36.559281,-55
2021-09-23 21:15:36.559287,-40
2021-09-23 21:15:36.559292,-24
2021-09-23 21:15:36.784066,-21
2021-09-23 21:15:36.784083,-33
2021-09-23 21:15:36.784090,-48
2021-09-23 21:15:36.784096,-57
2021-09-23 21:15:36.784102,-67
2021-09-23 21:15:36.784108,-64
2021-09-23 21:15:36.784117,-52
2021-09-23 21:15:36.784123,-43
2021-09-23 21:15:36.784129,-28
2021-09-23 21:15:36.784135,14
2021-09-23 21:15:36.784141,165
2021-09-23 21:15:36.784147,461
2021-09-23 21:15:36.784152,743
2021-09-23 21:15:36.784158,483
2021-09-23 21:15:36.784164,-351
2021-09-23 21:15:36.784170,-615
2021-09-23 21:15:36.784176,-139
2021-09-23 21:15:36.784182,-2
2021-09-23 21:15:36.784188,-149
2021-09-23 21:15:36.784193,-62
2021-09-23 21:15:36.784199,7
2021-09-23 21:15:36.784205,-52
2021-09-23 21:15:36.784211,-43
2021-09-23 21:15:36.784217,0
2021-09-23 21:15:36.784222,-2
2021-09-23 21:15:36.784228,2
2021-09-23 21:15:36.784234,24
2021-09-23 21:15:36.784239,31
2021-09-23 21:15:36.784245,36
2021-09-23 21:15:36.784251,43
2021-09-23 21:15:37.054120,52
2021-09-23 21:15:37.054139,67
2021-09-23 21:15:37.054146,81
2021-09-23 21:15:37.054152,91
2021-09-23 21:15:37.054158,96
2021-09-23 21:15:37.054163,108
2021-09-23 21:15:37.054169,127
2021-09-23 21:15:37.054175,144
2021-09-23 21:15:37.054181,146
2021-09-23 21:15:37.054187,129
2021-09-23 21:15:37.054193,120
2021-09-23 21:15:37.054199,115
2021-09-23 21:15:37.054204,93
2021-09-23 21:15:37.054210,64
2021-09-23 21:15:37.054216,36
2021-09-23 21:15:37.054222,-4
2021-09-23 21:15:37.054227,-43
2021-09-23 21:15:37.054237,-55
2021-09-23 21:15:37.054243,-62
2021-09-23 21:15:37.054249,-67
2021-09-23 21:15:37.054255,-67
2021-09-23 21:15:37.054261,-69
2021-09-23 21:15:37.054266,-69
2021-09-23 21:15:37.054272,-62
2021-09-23 21:15:37.054278,-55
2021-09-23 21:15:37.054283,-57
2021-09-23 21:15:37.054289,-57
2021-09-23 21:15:37.054295,-40
2021-09-23 21:15:37.054301,-31
2021-09-23 21:15:37.054306,-31
2021-09-23 21:15:37.279078,-36
2021-09-23 21:15:37.279095,-38
2021-09-23 21:15:37.279102,-33
2021-09-23 21:15:37.279108,-24
2021-09-23 21:15:37.279115,-19
2021-09-23 21:15:37.279120,-19
2021-09-23 21:15:37.279126,-24
2021-09-23 21:15:37.279132,-19
2021-09-23 21:15:37.279138,-21
2021-09-23 21:15:37.279144,-43
2021-09-23 21:15:37.279150,-48
2021-09-23 21:15:37.279155,-28
2021-09-23 21:15:37.279161,-12
2021-09-23 21:15:37.279167,-2
2021-09-23 21:15:37.279173,-4
2021-09-23 21:15:37.279179,-7
2021-09-23 21:15:37.279185,-2
2021-09-23 21:15:37.279191,0
2021-09-23 21:15:37.279196,-7
2021-09-23 21:15:37.279202,0
2021-09-23 21:15:37.279208,19
2021-09-23 21:15:37.279214,21
2021-09-23 21:15:37.279220,14
2021-09-23 21:15:37.279226,12
2021-09-23 21:15:37.279232,0
2021-09-23 21:15:37.279237,-19
2021-09-23 21:15:37.279243,-26
2021-09-23 21:15:37.279248,-19
2021-09-23 21:15:37.279254,-12
2021-09-23 21:15:37.279260,-12
2021-09-23 21:15:37.548596,0
2021-09-23 21:15:37.548617,55
2021-09-23 21:15:37.548624,199
2021-09-23 21:15:37.548630,454
2021-09-23 21:15:37.548636,731
2021-09-23 21:15:37.548642,533
2021-09-23 21:15:37.548649,-257
2021-09-23 21:15:37.548655,-538
2021-09-23 21:15:37.548661,-103
2021-09-23 21:15:37.548667,19
2021-09-23 21:15:37.548672,-127
2021-09-23 21:15:37.548678,-52
2021-09-23 21:15:37.548684,9
2021-09-23 21:15:37.548690,-48
2021-09-23 21:15:37.548695,-43
2021-09-23 21:15:37.548701,-2
2021-09-23 21:15:37.548707,-2
2021-09-23 21:15:37.548713,-12
2021-09-23 21:15:37.548718,-7
2021-09-23 21:15:37.548724,4
2021-09-23 21:15:37.548730,2
2021-09-23 21:15:37.548736,0
2021-09-23 21:15:37.548741,4
2021-09-23 21:15:37.548747,7
2021-09-23 21:15:37.548753,0
2021-09-23 21:15:37.548759,0
2021-09-23 21:15:37.548764,14
2021-09-23 21:15:37.548770,28
2021-09-23 21:15:37.548776,31
2021-09-23 21:15:37.548782,57
2021-09-23 21:15:37.729073,81
2021-09-23 21:15:37.729089,67
2021-09-23 21:15:37.729097,40
2021-09-23 21:15:37.729103,26
2021-09-23 21:15:37.729109,21
2021-09-23 21:15:37.729115,7
2021-09-23 21:15:37.729121,-36
2021-09-23 21:15:37.729126,-67
2021-09-23 21:15:37.729132,-76
2021-09-23 21:15:37.729138,-69
2021-09-23 21:15:37.729144,-62
2021-09-23 21:15:37.729150,-81
2021-09-23 21:15:37.729156,-88
2021-09-23 21:15:37.729162,-79
2021-09-23 21:15:37.729167,-62
2021-09-23 21:15:37.729173,-28
2021-09-23 21:15:37.729179,-24
2021-09-23 21:15:37.729185,-33
2021-09-23 21:15:37.729190,-28
2021-09-23 21:15:37.729196,-31
2021-09-23 21:15:37.729202,-33
2021-09-23 21:15:37.729208,-26
2021-09-23 21:15:37.729214,-24
2021-09-23 21:15:37.729219,-36
2021-09-23 21:15:37.729225,-38
2021-09-23 21:15:37.729231,-24
2021-09-23 21:15:37.729237,-9
2021-09-23 21:15:37.729242,-16
2021-09-23 21:15:37.729248,-16
2021-09-23 21:15:37.729254,-16
2021-09-23 21:15:38.132776,-26
2021-09-23 21:15:38.132795,-31
2021-09-23 21:15:38.132802,-40
2021-09-23 21:15:38.132808,-74
2021-09-23 21:15:38.132814,-96
2021-09-23 21:15:38.132821,-81
2021-09-23 21:15:38.132826,-64
2021-09-23 21:15:38.132833,-55
2021-09-23 21:15:38.132839,-38
2021-09-23 21:15:38.132845,-24
2021-09-23 21:15:38.132851,-31
2021-09-23 21:15:38.132857,-43
2021-09-23 21:15:38.132863,-36
2021-09-23 21:15:38.132869,-9
2021-09-23 21:15:38.132875,2
2021-09-23 21:15:38.132882,-7
2021-09-23 21:15:38.132888,-12
2021-09-23 21:15:38.132893,-19
2021-09-23 21:15:38.132899,-40
2021-09-23 21:15:38.132905,-50
2021-09-23 21:15:38.132911,-55
2021-09-23 21:15:38.132917,-79
2021-09-23 21:15:38.132923,-96
2021-09-23 21:15:38.132928,-88
2021-09-23 21:15:38.132934,-60
2021-09-23 21:15:38.132940,57
2021-09-23 21:15:38.132946,319
2021-09-23 21:15:38.132952,656
2021-09-23 21:15:38.132958,666
2021-09-23 21:15:38.132964,-26
2021-09-23 21:15:38.223445,-620
2021-09-23 21:15:38.223461,-331
2021-09-23 21:15:38.223469,-21
2021-09-23 21:15:38.223475,-151
2021-09-23 21:15:38.223481,-141
2021-09-23 21:15:38.223487,-36
2021-09-23 21:15:38.223492,-69
2021-09-23 21:15:38.223498,-69
2021-09-23 21:15:38.223504,-9
2021-09-23 21:15:38.223511,0
2021-09-23 21:15:38.223516,-7
2021-09-23 21:15:38.223522,16
2021-09-23 21:15:38.223528,26
2021-09-23 21:15:38.223533,21
2021-09-23 21:15:38.223539,36
2021-09-23 21:15:38.223545,52
2021-09-23 21:15:38.223551,52
2021-09-23 21:15:38.223557,62
2021-09-23 21:15:38.223563,74
2021-09-23 21:15:38.223568,76
2021-09-23 21:15:38.223574,93
2021-09-23 21:15:38.223580,120
2021-09-23 21:15:38.223586,127
2021-09-23 21:15:38.223591,113
2021-09-23 21:15:38.223597,98
2021-09-23 21:15:38.223603,101
2021-09-23 21:15:38.223609,105
2021-09-23 21:15:38.223614,103
2021-09-23 21:15:38.223620,86
2021-09-23 21:15:38.223626,55
2021-09-23 21:15:38.404071,26
2021-09-23 21:15:38.404087,-7
2021-09-23 21:15:38.404094,-45
2021-09-23 21:15:38.404100,-69
2021-09-23 21:15:38.404106,-98
2021-09-23 21:15:38.404112,-153
2021-09-23 21:15:38.404118,-187
2021-09-23 21:15:38.404124,-165
2021-09-23 21:15:38.404130,-149
2021-09-23 21:15:38.404135,-156
2021-09-23 21:15:38.404141,-151
2021-09-23 21:15:38.404147,-129
2021-09-23 21:15:38.404153,-113
2021-09-23 21:15:38.404158,-105
2021-09-23 21:15:38.404164,-72
2021-09-23 21:15:38.404170,-24
2021-09-23 21:15:38.404175,-40
2021-09-23 21:15:38.404181,-52
2021-09-23 21:15:38.404187,-7
2021-09-23 21:15:38.404192,-9
2021-09-23 21:15:38.404198,-48
2021-09-23 21:15:38.404204,-38
2021-09-23 21:15:38.404209,-28
2021-09-23 21:15:38.404215,-52
2021-09-23 21:15:38.404221,-55
2021-09-23 21:15:38.404227,-33
2021-09-23 21:15:38.404232,-31
2021-09-23 21:15:38.404238,-91
2021-09-23 21:15:38.404244,-141
2021-09-23 21:15:38.404250,-110
2021-09-23 21:15:38.629151,-76
2021-09-23 21:15:38.629169,-79
2021-09-23 21:15:38.629176,-72
2021-09-23 21:15:38.629182,-67
2021-09-23 21:15:38.629188,-86
2021-09-23 21:15:38.629194,-108
2021-09-23 21:15:38.629200,-117
2021-09-23 21:15:38.629206,-117
2021-09-23 21:15:38.629212,-110
2021-09-23 21:15:38.629218,-101
2021-09-23 21:15:38.629224,-108
2021-09-23 21:15:38.629230,-101
2021-09-23 21:15:38.629236,-36
2021-09-23 21:15:38.629242,132
2021-09-23 21:15:38.629248,425
2021-09-23 21:15:38.629254,692
2021-09-23 21:15:38.629260,396
2021-09-23 21:15:38.629265,-449
2021-09-23 21:15:38.629271,-661
2021-09-23 21:15:38.629277,-161
2021-09-23 21:15:38.629283,-45
2021-09-23 21:15:38.629288,-187
2021-09-23 21:15:38.629294,-91
2021-09-23 21:15:38.629300,-28
2021-09-23 21:15:38.629305,-81
2021-09-23 21:15:38.629311,-62
2021-09-23 21:15:38.629317,-24
2021-09-23 21:15:38.629323,-33
2021-09-23 21:15:38.629329,-28
2021-09-23 21:15:38.629334,-9
2021-09-23 21:15:38.944184,-2
2021-09-23 21:15:38.944203,4
2021-09-23 21:15:38.944210,19
2021-09-23 21:15:38.944216,24
2021-09-23 21:15:38.944222,19
2021-09-23 21:15:38.944228,38
2021-09-23 21:15:38.944234,67
2021-09-23 21:15:38.944239,76
2021-09-23 21:15:38.944248,79
2021-09-23 21:15:38.944254,88
2021-09-23 21:15:38.944260,98
2021-09-23 21:15:38.944266,108
2021-09-23 21:15:38.944271,110
2021-09-23 21:15:38.944277,105
2021-09-23 21:15:38.944283,93
2021-09-23 21:15:38.944288,67
2021-09-23 21:15:38.944294,40
2021-09-23 21:15:38.944300,9
2021-09-23 21:15:38.944306,-31
2021-09-23 21:15:38.944312,-72
2021-09-23 21:15:38.944317,-93
2021-09-23 21:15:38.944323,-108
2021-09-23 21:15:38.944329,-120
2021-09-23 21:15:38.944335,-115
2021-09-23 21:15:38.944340,-115
2021-09-23 21:15:38.944346,-125
2021-09-23 21:15:38.944352,-115
2021-09-23 21:15:38.944357,-103
2021-09-23 21:15:38.944363,-105
2021-09-23 21:15:38.944369,-108
2021-09-23 21:15:39.124144,-93
2021-09-23 21:15:39.124162,-74
2021-09-23 21:15:39.124169,-69
2021-09-23 21:15:39.124175,-72
2021-09-23 21:15:39.124181,-62
2021-09-23 21:15:39.124187,-48
2021-09-23 21:15:39.124193,-48
2021-09-23 21:15:39.124199,-43
2021-09-23 21:15:39.124205,-36
2021-09-23 21:15:39.124210,-45
2021-09-23 21:15:39.124216,-60
2021-09-23 21:15:39.124222,-57
2021-09-23 21:15:39.124228,-52
2021-09-23 21:15:39.124234,-55
2021-09-23 21:15:39.124240,-52
2021-09-23 21:15:39.124246,-50
2021-09-23 21:15:39.124251,-55
2021-09-23 21:15:39.124257,-55
2021-09-23 21:15:39.124263,-50
2021-09-23 21:15:39.124269,-50
2021-09-23 21:15:39.124275,-43
2021-09-23 21:15:39.124281,-31
2021-09-23 21:15:39.124286,-19
2021-09-23 21:15:39.124292,-24
2021-09-23 21:15:39.124298,-31
2021-09-23 21:15:39.124304,-40
2021-09-23 21:15:39.124309,-55
2021-09-23 21:15:39.124315,-69
2021-09-23 21:15:39.124321,-64
2021-09-23 21:15:39.124327,-48
2021-09-23 21:15:39.349158,-40
2021-09-23 21:15:39.349176,-38
2021-09-23 21:15:39.349183,19
2021-09-23 21:15:39.349189,214
2021-09-23 21:15:39.349195,560
2021-09-23 21:15:39.349201,812
2021-09-23 21:15:39.349207,389
2021-09-23 21:15:39.349213,-454
2021-09-23 21:15:39.349218,-526
2021-09-23 21:15:39.349225,-79
2021-09-23 21:15:39.349231,-67
2021-09-23 21:15:39.349237,-165
2021-09-23 21:15:39.349242,-62
2021-09-23 21:15:39.349248,-48
2021-09-23 21:15:39.349257,-96
2021-09-23 21:15:39.349263,-60
2021-09-23 21:15:39.349269,-33
2021-09-23 21:15:39.349275,-43
2021-09-23 21:15:39.349280,-26
2021-09-23 21:15:39.349286,-9
2021-09-23 21:15:39.349292,-16
2021-09-23 21:15:39.349298,-9
2021-09-23 21:15:39.349303,12
2021-09-23 21:15:39.349309,21
2021-09-23 21:15:39.349315,28
2021-09-23 21:15:39.349320,43
2021-09-23 21:15:39.349326,52
2021-09-23 21:15:39.349331,57
2021-09-23 21:15:39.349337,72
2021-09-23 21:15:39.349343,93
2021-09-23 21:15:39.574188,103
2021-09-23 21:15:39.574206,105
2021-09-23 21:15:39.574214,108
2021-09-23 21:15:39.574220,96
2021-09-23 21:15:39.574226,84
2021-09-23 21:15:39.574232,74
2021-09-23 21:15:39.574238,55
2021-09-23 21:15:39.574243,19
2021-09-23 21:15:39.574249,-24
2021-09-23 21:15:39.574255,-57
2021-09-23 21:15:39.574261,-86
2021-09-23 21:15:39.574266,-101
2021-09-23 21:15:39.574272,-103
2021-09-23 21:15:39.574278,-117
2021-09-23 21:15:39.574284,-129
2021-09-23 21:15:39.574289,-127
2021-09-23 21:15:39.574295,-113
2021-09-23 21:15:39.574301,-105
2021-09-23 21:15:39.574307,-110
2021-09-23 21:15:39.574313,-105
2021-09-23 21:15:39.574318,-91
2021-09-23 21:15:39.574324,-81
2021-09-23 21:15:39.574330,-79
2021-09-23 21:15:39.574335,-69
2021-09-23 21:15:39.574341,-62
2021-09-23 21:15:39.574347,-52
2021-09-23 21:15:39.574352,-48
2021-09-23 21:15:39.574358,-48
2021-09-23 21:15:39.574364,-38
2021-09-23 21:15:39.574370,-26
2021-09-23 21:15:39.799109,-24
2021-09-23 21:15:39.799126,-38
2021-09-23 21:15:39.799133,-48
2021-09-23 21:15:39.799140,-40
2021-09-23 21:15:39.799145,-38
2021-09-23 21:15:39.799151,-43
2021-09-23 21:15:39.799157,-45
2021-09-23 21:15:39.799163,-48
2021-09-23 21:15:39.799169,-43
2021-09-23 21:15:39.799174,-33
2021-09-23 21:15:39.799180,-28
2021-09-23 21:15:39.799186,-31
2021-09-23 21:15:39.799192,-40
2021-09-23 21:15:39.799198,-33
2021-09-23 21:15:39.799203,-19
2021-09-23 21:15:39.799209,-12
2021-09-23 21:15:39.799215,-12
2021-09-23 21:15:39.799221,-21
2021-09-23 21:15:39.799227,-40
2021-09-23 21:15:39.799233,-60
2021-09-23 21:15:39.799238,-60
2021-09-23 21:15:39.799244,-43
2021-09-23 21:15:39.799250,-40
2021-09-23 21:15:39.799256,-40
2021-09-23 21:15:39.799261,-14
2021-09-23 21:15:39.799267,93
2021-09-23 21:15:39.799273,351
2021-09-23 21:15:39.799279,721
2021-09-23 21:15:39.799285,786
2021-09-23 21:15:39.799290,120
2021-09-23 21:15:40.067851,-514
2021-09-23 21:15:40.067869,-298
2021-09-23 21:15:40.067876,-4
2021-09-23 21:15:40.067882,-103
2021-09-23 21:15:40.067888,-91
2021-09-23 21:15:40.067894,4
2021-09-23 21:15:40.067900,-26
2021-09-23 21:15:40.067905,-21
2021-09-23 21:15:40.067911,19
2021-09-23 21:15:40.067917,7
2021-09-23 21:15:40.067923,7
2021-09-23 21:15:40.067929,16
2021-09-23 21:15:40.067934,2
2021-09-23 21:15:40.067940,14
2021-09-23 21:15:40.067946,48
2021-09-23 21:15:40.067952,50
2021-09-23 21:15:40.067958,48
2021-09-23 21:15:40.067964,67
2021-09-23 21:15:40.067969,79
2021-09-23 21:15:40.067975,72
2021-09-23 21:15:40.067981,72
2021-09-23 21:15:40.067987,88
2021-09-23 21:15:40.067993,108
2021-09-23 21:15:40.067999,117
2021-09-23 21:15:40.068004,117
2021-09-23 21:15:40.068010,110
2021-09-23 21:15:40.068016,105
2021-09-23 21:15:40.068022,96
2021-09-23 21:15:40.068028,84
2021-09-23 21:15:40.068033,57
2021-09-23 21:15:40.249129,16
2021-09-23 21:15:40.249146,-9
2021-09-23 21:15:40.249154,-28
2021-09-23 21:15:40.249160,-52
2021-09-23 21:15:40.249166,-64
2021-09-23 21:15:40.249172,-72
2021-09-23 21:15:40.249178,-79
2021-09-23 21:15:40.249183,-79
2021-09-23 21:15:40.249189,-76
2021-09-23 21:15:40.249195,-81
2021-09-23 21:15:40.249201,-81
2021-09-23 21:15:40.249207,-84
2021-09-23 21:15:40.249213,-88
2021-09-23 21:15:40.249219,-86
2021-09-23 21:15:40.249225,-86
2021-09-23 21:15:40.249230,-86
2021-09-23 21:15:40.249236,-84
2021-09-23 21:15:40.249242,-81
2021-09-23 21:15:40.249248,-81
2021-09-23 21:15:40.249254,-76
2021-09-23 21:15:40.249259,-74
2021-09-23 21:15:40.249265,-74
2021-09-23 21:15:40.249271,-69
2021-09-23 21:15:40.249276,-62
2021-09-23 21:15:40.249282,-57
2021-09-23 21:15:40.249288,-45
2021-09-23 21:15:40.249294,-33
2021-09-23 21:15:40.249299,-33
2021-09-23 21:15:40.249305,-33
2021-09-23 21:15:40.249311,-28
2021-09-23 21:15:40.474167,-31
2021-09-23 21:15:40.474185,-33
2021-09-23 21:15:40.474192,-26
2021-09-23 21:15:40.474198,-31
2021-09-23 21:15:40.474204,-43
2021-09-23 21:15:40.474210,-40
2021-09-23 21:15:40.474216,-33
2021-09-23 21:15:40.474222,-33
2021-09-23 21:15:40.474228,-31
2021-09-23 21:15:40.474234,-31
2021-09-23 21:15:40.474239,-33
2021-09-23 21:15:40.474245,-26
2021-09-23 21:15:40.474251,-9
2021-09-23 21:15:40.474257,4
2021-09-23 21:15:40.474263,2
2021-09-23 21:15:40.474269,-12
2021-09-23 21:15:40.474274,-26
2021-09-23 21:15:40.474280,-33
2021-09-23 21:15:40.474286,-28
2021-09-23 21:15:40.474292,-16
2021-09-23 21:15:40.474297,-12
2021-09-23 21:15:40.474303,-9
2021-09-23 21:15:40.474309,38
2021-09-23 21:15:40.474315,211
2021-09-23 21:15:40.474320,562
2021-09-23 21:15:40.474326,880
2021-09-23 21:15:40.474332,553
2021-09-23 21:15:40.474337,-271
2021-09-23 21:15:40.474343,-444
2021-09-23 21:15:40.474349,-69
2021-09-23 21:15:40.699223,-55
2021-09-23 21:15:40.699241,-170
2021-09-23 21:15:40.699249,-76
2021-09-23 21:15:40.699255,-48
2021-09-23 21:15:40.699261,-98
2021-09-23 21:15:40.699267,-67
2021-09-23 21:15:40.699273,-28
2021-09-23 21:15:40.699279,-40
2021-09-23 21:15:40.699285,-36
2021-09-23 21:15:40.699290,-28
2021-09-23 21:15:40.699296,-33
2021-09-23 21:15:40.699302,-24
2021-09-23 21:15:40.699308,-2
2021-09-23 21:15:40.699314,2
2021-09-23 21:15:40.699320,4
2021-09-23 21:15:40.699326,14
2021-09-23 21:15:40.699331,21
2021-09-23 21:15:40.699337,28
2021-09-23 21:15:40.699343,45
2021-09-23 21:15:40.699349,57
2021-09-23 21:15:40.699354,64
2021-09-23 21:15:40.699360,74
2021-09-23 21:15:40.699366,81
2021-09-23 21:15:40.699372,81
2021-09-23 21:15:40.699377,69
2021-09-23 21:15:40.699383,52
2021-09-23 21:15:40.699389,33
2021-09-23 21:15:40.699395,9
2021-09-23 21:15:40.699400,-21
2021-09-23 21:15:40.699407,-45
2021-09-23 21:15:40.969198,-64
2021-09-23 21:15:40.969217,-76
2021-09-23 21:15:40.969224,-88
2021-09-23 21:15:40.969230,-103
2021-09-23 21:15:40.969236,-101
2021-09-23 21:15:40.969242,-91
2021-09-23 21:15:40.969248,-91
2021-09-23 21:15:40.969253,-91
2021-09-23 21:15:40.969259,-91
2021-09-23 21:15:40.969265,-98
2021-09-23 21:15:40.969271,-105
2021-09-23 21:15:40.969277,-101
2021-09-23 21:15:40.969283,-91
2021-09-23 21:15:40.969288,-84
2021-09-23 21:15:40.969294,-88
2021-09-23 21:15:40.969300,-91
2021-09-23 21:15:40.969306,-74
2021-09-23 21:15:40.969312,-62
2021-09-23 21:15:40.969318,-57
2021-09-23 21:15:40.969323,-50
2021-09-23 21:15:40.969329,-50
2021-09-23 21:15:40.969335,-50
2021-09-23 21:15:40.969340,-45
2021-09-23 21:15:40.969346,-38
2021-09-23 21:15:40.969352,-36
2021-09-23 21:15:40.969357,-36
2021-09-23 21:15:40.969363,-45
2021-09-23 21:15:40.969369,-57
2021-09-23 21:15:40.969374,-57
2021-09-23 21:15:40.969380,-55
2021-09-23 21:15:41.194180,-55
2021-09-23 21:15:41.194198,-52
2021-09-23 21:15:41.194205,-50
2021-09-23 21:15:41.194211,-57
2021-09-23 21:15:41.194217,-55
2021-09-23 21:15:41.194223,-40
2021-09-23 21:15:41.194229,-31
2021-09-23 21:15:41.194235,-40
2021-09-23 21:15:41.194241,-55
2021-09-23 21:15:41.194247,-52
2021-09-23 21:15:41.194253,-40
2021-09-23 21:15:41.194259,-31
2021-09-23 21:15:41.194265,-16
2021-09-23 21:15:41.194271,-7
2021-09-23 21:15:41.194276,-9
2021-09-23 21:15:41.194282,-19
2021-09-23 21:15:41.194288,-28
2021-09-23 21:15:41.194294,-38
2021-09-23 21:15:41.194300,-36
2021-09-23 21:15:41.194306,-19
2021-09-23 21:15:41.194312,-16
2021-09-23 21:15:41.194317,-19
2021-09-23 21:15:41.194323,16
2021-09-23 21:15:41.194329,146
2021-09-23 21:15:41.194335,408
2021-09-23 21:15:41.194341,755
2021-09-23 21:15:41.194346,740
2021-09-23 21:15:41.194352,21
2021-09-23 21:15:41.194358,-514
2021-09-23 21:15:41.194364,-226
2021-09-23 21:15:41.419178,9
2021-09-23 21:15:41.419197,-127
2021-09-23 21:15:41.419203,-120
2021-09-23 21:15:41.419210,-26
2021-09-23 21:15:41.419216,-48
2021-09-23 21:15:41.419222,-57
2021-09-23 21:15:41.419228,-21
2021-09-23 21:15:41.419233,-24
2021-09-23 21:15:41.419239,-33
2021-09-23 21:15:41.419245,-14
2021-09-23 21:15:41.419251,0
2021-09-23 21:15:41.419257,2
2021-09-23 21:15:41.419262,9
2021-09-23 21:15:41.419268,12
2021-09-23 21:15:41.419274,7
2021-09-23 21:15:41.419280,16
2021-09-23 21:15:41.419285,31
2021-09-23 21:15:41.419291,43
2021-09-23 21:15:41.419297,50
2021-09-23 21:15:41.419303,57
2021-09-23 21:15:41.419308,67
2021-09-23 21:15:41.419314,79
2021-09-23 21:15:41.419320,84
2021-09-23 21:15:41.419326,81
2021-09-23 21:15:41.419331,81
2021-09-23 21:15:41.419337,72
2021-09-23 21:15:41.419343,52
2021-09-23 21:15:41.419348,36
2021-09-23 21:15:41.419354,16
2021-09-23 21:15:41.419360,-7
2021-09-23 21:15:41.644147,-31
2021-09-23 21:15:41.644165,-57
2021-09-23 21:15:41.644172,-84
2021-09-23 21:15:41.644178,-98
2021-09-23 21:15:41.644184,-101
2021-09-23 21:15:41.644190,-96
2021-09-23 21:15:41.644196,-98
2021-09-23 21:15:41.644202,-101
2021-09-23 21:15:41.644208,-98
2021-09-23 21:15:41.644214,-96
2021-09-23 21:15:41.644220,-96
2021-09-23 21:15:41.644226,-84
2021-09-23 21:15:41.644232,-81
2021-09-23 21:15:41.644237,-84
2021-09-23 21:15:41.644243,-81
2021-09-23 21:15:41.644249,-72
2021-09-23 21:15:41.644255,-62
2021-09-23 21:15:41.644261,-60
2021-09-23 21:15:41.644267,-57
2021-09-23 21:15:41.644272,-57
2021-09-23 21:15:41.644278,-57
2021-09-23 21:15:41.644284,-55
2021-09-23 21:15:41.644290,-55
2021-09-23 21:15:41.644295,-52
2021-09-23 21:15:41.644301,-48
2021-09-23 21:15:41.644307,-45
2021-09-23 21:15:41.644312,-48
2021-09-23 21:15:41.644318,-50
2021-09-23 21:15:41.644324,-45
2021-09-23 21:15:41.644330,-40
2021-09-23 21:15:41.914175,-43
2021-09-23 21:15:41.914193,-45
2021-09-23 21:15:41.914200,-43
2021-09-23 21:15:41.914206,-40
2021-09-23 21:15:41.914212,-43
2021-09-23 21:15:41.914217,-45
2021-09-23 21:15:41.914223,-50
2021-09-23 21:15:41.914229,-50
2021-09-23 21:15:41.914235,-38
2021-09-23 21:15:41.914240,-33
2021-09-23 21:15:41.914246,-38
2021-09-23 21:15:41.914252,-40
2021-09-23 21:15:41.914257,-38
2021-09-23 21:15:41.914263,-31
2021-09-23 21:15:41.914269,-21
2021-09-23 21:15:41.914275,-12
2021-09-23 21:15:41.914280,-2
2021-09-23 21:15:41.914286,-2
2021-09-23 21:15:41.914292,-14
2021-09-23 21:15:41.914300,-21
2021-09-23 21:15:41.914306,-21
2021-09-23 21:15:41.914312,-21
2021-09-23 21:15:41.914318,-19
2021-09-23 21:15:41.914324,-4
2021-09-23 21:15:41.914329,14
2021-09-23 21:15:41.914335,72
2021-09-23 21:15:41.914341,240
2021-09-23 21:15:41.914347,536
2021-09-23 21:15:41.914352,803
2021-09-23 21:15:41.914358,533
2021-09-23 21:15:42.137987,-264
2021-09-23 21:15:42.138008,-490
2021-09-23 21:15:42.138015,-72
2021-09-23 21:15:42.138022,12
2021-09-23 21:15:42.138028,-120
2021-09-23 21:15:42.138034,-40
2021-09-23 21:15:42.138039,9
2021-09-23 21:15:42.138045,-40
2021-09-23 21:15:42.138051,-36
2021-09-23 21:15:42.138057,-7
2021-09-23 21:15:42.138062,-9
2021-09-23 21:15:42.138068,-19
2021-09-23 21:15:42.138074,-2
2021-09-23 21:15:42.138080,16
2021-09-23 21:15:42.138085,19
2021-09-23 21:15:42.138091,24
2021-09-23 21:15:42.138097,31
2021-09-23 21:15:42.138103,31
2021-09-23 21:15:42.138108,36
2021-09-23 21:15:42.138114,55
2021-09-23 21:15:42.138119,67
2021-09-23 21:15:42.138125,69
2021-09-23 21:15:42.138131,72
2021-09-23 21:15:42.138136,76
2021-09-23 21:15:42.138142,88
2021-09-23 21:15:42.138148,93
2021-09-23 21:15:42.138154,79
2021-09-23 21:15:42.138160,62
2021-09-23 21:15:42.138165,60
2021-09-23 21:15:42.138171,48
2021-09-23 21:15:42.364202,28
2021-09-23 21:15:42.364219,9
2021-09-23 21:15:42.364226,-16
2021-09-23 21:15:42.364233,-48
2021-09-23 21:15:42.364239,-69
2021-09-23 21:15:42.364245,-84
2021-09-23 21:15:42.364251,-101
2021-09-23 21:15:42.364256,-108
2021-09-23 21:15:42.364262,-105
2021-09-23 21:15:42.364268,-103
2021-09-23 21:15:42.364274,-105
2021-09-23 21:15:42.364280,-110
2021-09-23 21:15:42.364285,-110
2021-09-23 21:15:42.364291,-101
2021-09-23 21:15:42.364297,-86
2021-09-23 21:15:42.364302,-74
2021-09-23 21:15:42.364308,-76
2021-09-23 21:15:42.364314,-81
2021-09-23 21:15:42.364319,-72
2021-09-23 21:15:42.364325,-55
2021-09-23 21:15:42.364331,-45
2021-09-23 21:15:42.364336,-43
2021-09-23 21:15:42.364342,-43
2021-09-23 21:15:42.364348,-40
2021-09-23 21:15:42.364353,-40
2021-09-23 21:15:42.364359,-48
2021-09-23 21:15:42.364365,-43
2021-09-23 21:15:42.364370,-36
2021-09-23 21:15:42.364376,-43
2021-09-23 21:15:42.364382,-38
2021-09-23 21:15:42.678716,-28
2021-09-23 21:15:42.678736,-33
2021-09-23 21:15:42.678743,-38
2021-09-23 21:15:42.678749,-40
2021-09-23 21:15:42.678755,-36
2021-09-23 21:15:42.678761,-31
2021-09-23 21:15:42.678767,-33
2021-09-23 21:15:42.678773,-31
2021-09-23 21:15:42.678779,-19
2021-09-23 21:15:42.678784,-26
2021-09-23 21:15:42.678790,-50
2021-09-23 21:15:42.678796,-48
2021-09-23 21:15:42.678802,-31
2021-09-23 21:15:42.678807,-38
2021-09-23 21:15:42.678813,-48
2021-09-23 21:15:42.678819,-31
2021-09-23 21:15:42.678825,-19
2021-09-23 21:15:42.678830,-16
2021-09-23 21:15:42.678836,-21
2021-09-23 21:15:42.678842,-28
2021-09-23 21:15:42.678848,-38
2021-09-23 21:15:42.678853,-50
2021-09-23 21:15:42.678859,-38
2021-09-23 21:15:42.678864,-21
2021-09-23 21:15:42.678870,-24
2021-09-23 21:15:42.678876,-2
2021-09-23 21:15:42.678882,86
2021-09-23 21:15:42.678887,295
2021-09-23 21:15:42.678893,601
2021-09-23 21:15:42.678899,697
2021-09-23 21:15:42.814335,115
2021-09-23 21:15:42.814356,-606
2021-09-23 21:15:42.814363,-447
2021-09-23 21:15:42.814369,-7
2021-09-23 21:15:42.814375,-60
2021-09-23 21:15:42.814381,-103
2021-09-23 21:15:42.814387,19
2021-09-23 21:15:42.814393,12
2021-09-23 21:15:42.814399,-28
2021-09-23 21:15:42.814405,4
2021-09-23 21:15:42.814411,14
2021-09-23 21:15:42.814416,-2
2021-09-23 21:15:42.814422,7
2021-09-23 21:15:42.814428,21
2021-09-23 21:15:42.814434,24
2021-09-23 21:15:42.814440,33
2021-09-23 21:15:42.814446,45
2021-09-23 21:15:42.814451,52
2021-09-23 21:15:42.814457,62
2021-09-23 21:15:42.814463,76
2021-09-23 21:15:42.814469,81
2021-09-23 21:15:42.814475,81
2021-09-23 21:15:42.814480,96
2021-09-23 21:15:42.814486,117
2021-09-23 21:15:42.814492,122
2021-09-23 21:15:42.814498,122
2021-09-23 21:15:42.814503,115
2021-09-23 21:15:42.814509,91
2021-09-23 21:15:42.814515,79
2021-09-23 21:15:42.814520,67
2021-09-23 21:15:43.084328,36
2021-09-23 21:15:43.084348,4
2021-09-23 21:15:43.084355,-19
2021-09-23 21:15:43.084361,-52
2021-09-23 21:15:43.084367,-81
2021-09-23 21:15:43.084373,-93
2021-09-23 21:15:43.084379,-98
2021-09-23 21:15:43.084385,-105
2021-09-23 21:15:43.084391,-122
2021-09-23 21:15:43.084397,-129
2021-09-23 21:15:43.084403,-117
2021-09-23 21:15:43.084409,-103
2021-09-23 21:15:43.084415,-98
2021-09-23 21:15:43.084420,-101
2021-09-23 21:15:43.084426,-101
2021-09-23 21:15:43.084432,-93
2021-09-23 21:15:43.084438,-79
2021-09-23 21:15:43.084444,-60
2021-09-23 21:15:43.084449,-52
2021-09-23 21:15:43.084455,-62
2021-09-23 21:15:43.084461,-60
2021-09-23 21:15:43.084467,-45
2021-09-23 21:15:43.084472,-43
2021-09-23 21:15:43.084478,-50
2021-09-23 21:15:43.084484,-43
2021-09-23 21:15:43.084490,-40
2021-09-23 21:15:43.084495,-48
2021-09-23 21:15:43.084501,-48
2021-09-23 21:15:43.084507,-40
2021-09-23 21:15:43.084513,-36
2021-09-23 21:15:43.264339,-38
2021-09-23 21:15:43.264358,-40
2021-09-23 21:15:43.264366,-43
2021-09-23 21:15:43.264372,-40
2021-09-23 21:15:43.264378,-33
2021-09-23 21:15:43.264383,-26
2021-09-23 21:15:43.264389,-24
2021-09-23 21:15:43.264395,-26
2021-09-23 21:15:43.264401,-31
2021-09-23 21:15:43.264407,-36
2021-09-23 21:15:43.264413,-31
2021-09-23 21:15:43.264419,-28
2021-09-23 21:15:43.264424,-24
2021-09-23 21:15:43.264430,-12
2021-09-23 21:15:43.264436,2
2021-09-23 21:15:43.264442,2
2021-09-23 21:15:43.264447,-4
2021-09-23 21:15:43.264453,-7
2021-09-23 21:15:43.264459,-21
2021-09-23 21:15:43.264464,-38
2021-09-23 21:15:43.264470,-36
2021-09-23 21:15:43.264476,-24
2021-09-23 21:15:43.264481,-16
2021-09-23 21:15:43.264487,0
2021-09-23 21:15:43.264493,52
2021-09-23 21:15:43.264498,214
2021-09-23 21:15:43.264504,514
2021-09-23 21:15:43.264510,788
2021-09-23 21:15:43.264516,519
2021-09-23 21:15:43.264521,-298
2021-09-23 21:15:43.489345,-541
2021-09-23 21:15:43.489367,-103
2021-09-23 21:15:43.489374,2
2021-09-23 21:15:43.489380,-132
2021-09-23 21:15:43.489387,-55
2021-09-23 21:15:43.489393,-2
2021-09-23 21:15:43.489399,-50
2021-09-23 21:15:43.489404,-43
2021-09-23 21:15:43.489410,-14
2021-09-23 21:15:43.489416,-16
2021-09-23 21:15:43.489422,-9
2021-09-23 21:15:43.489428,7
2021-09-23 21:15:43.489434,7
2021-09-23 21:15:43.489440,7
2021-09-23 21:15:43.489446,19
2021-09-23 21:15:43.489451,26
2021-09-23 21:15:43.489457,33
2021-09-23 21:15:43.489463,38
2021-09-23 21:15:43.489469,36
2021-09-23 21:15:43.489474,45
2021-09-23 21:15:43.489480,60
2021-09-23 21:15:43.489486,60
2021-09-23 21:15:43.489492,64
2021-09-23 21:15:43.489498,72
2021-09-23 21:15:43.489504,69
2021-09-23 21:15:43.489509,55
2021-09-23 21:15:43.489515,48
2021-09-23 21:15:43.489521,43
2021-09-23 21:15:43.489527,21
2021-09-23 21:15:43.489533,-2
2021-09-23 21:15:43.714329,-26
2021-09-23 21:15:43.714349,-55
2021-09-23 21:15:43.714360,-74
2021-09-23 21:15:43.714367,-79
2021-09-23 21:15:43.714373,-88
2021-09-23 21:15:43.714378,-103
2021-09-23 21:15:43.714384,-110
2021-09-23 21:15:43.714390,-105
2021-09-23 21:15:43.714396,-103
2021-09-23 21:15:43.714402,-108
2021-09-23 21:15:43.714408,-93
2021-09-23 21:15:43.714414,-81
2021-09-23 21:15:43.714419,-88
2021-09-23 21:15:43.714425,-84
2021-09-23 21:15:43.714431,-67
2021-09-23 21:15:43.714437,-60
2021-09-23 21:15:43.714442,-55
2021-09-23 21:15:43.714448,-50
2021-09-23 21:15:43.714454,-43
2021-09-23 21:15:43.714459,-40
2021-09-23 21:15:43.714465,-45
2021-09-23 21:15:43.714471,-45
2021-09-23 21:15:43.714477,-36
2021-09-23 21:15:43.714482,-31
2021-09-23 21:15:43.714488,-36
2021-09-23 21:15:43.714494,-36
2021-09-23 21:15:43.714499,-33
2021-09-23 21:15:43.714505,-33
2021-09-23 21:15:43.714511,-31
2021-09-23 21:15:43.714517,-26
2021-09-23 21:15:43.939394,-28
2021-09-23 21:15:43.939418,-24
2021-09-23 21:15:43.939425,-24
2021-09-23 21:15:43.939431,-26
2021-09-23 21:15:43.939437,-21
2021-09-23 21:15:43.939443,-24
2021-09-23 21:15:43.939448,-33
2021-09-23 21:15:43.939454,-28
2021-09-23 21:15:43.939460,-24
2021-09-23 21:15:43.939467,-21
2021-09-23 21:15:43.939473,-9
2021-09-23 21:15:43.939478,0
2021-09-23 21:15:43.939484,-2
2021-09-23 21:15:43.939490,4
2021-09-23 21:15:43.939496,2
2021-09-23 21:15:43.939502,-16
2021-09-23 21:15:43.939508,-26
2021-09-23 21:15:43.939514,-21
2021-09-23 21:15:43.939520,-16
2021-09-23 21:15:43.939525,-7
2021-09-23 21:15:43.939531,4
2021-09-23 21:15:43.939537,36
2021-09-23 21:15:43.939543,161
2021-09-23 21:15:43.939549,430
2021-09-23 21:15:43.939555,764
2021-09-23 21:15:43.939561,697
2021-09-23 21:15:43.939566,-55
2021-09-23 21:15:43.939572,-541
2021-09-23 21:15:43.939578,-199
2021-09-23 21:15:43.939583,19
2021-09-23 21:15:44.208551,-132
2021-09-23 21:15:44.208569,-105
2021-09-23 21:15:44.208576,-16
2021-09-23 21:15:44.208583,-52
2021-09-23 21:15:44.208589,-64
2021-09-23 21:15:44.208594,-28
2021-09-23 21:15:44.208600,-26
2021-09-23 21:15:44.208606,-28
2021-09-23 21:15:44.208612,-9
2021-09-23 21:15:44.208618,-2
2021-09-23 21:15:44.208624,-7
2021-09-23 21:15:44.208630,2
2021-09-23 21:15:44.208635,16
2021-09-23 21:15:44.208641,26
2021-09-23 21:15:44.208647,33
2021-09-23 21:15:44.208653,40
2021-09-23 21:15:44.208659,45
2021-09-23 21:15:44.208665,48
2021-09-23 21:15:44.208670,57
2021-09-23 21:15:44.208676,64
2021-09-23 21:15:44.208682,67
2021-09-23 21:15:44.208688,72
2021-09-23 21:15:44.208693,69
2021-09-23 21:15:44.208699,57
2021-09-23 21:15:44.208705,43
2021-09-23 21:15:44.208710,31
2021-09-23 21:15:44.208716,9
2021-09-23 21:15:44.208722,-19
2021-09-23 21:15:44.208728,-43
2021-09-23 21:15:44.208733,-64
2021-09-23 21:15:44.433531,-76
2021-09-23 21:15:44.433548,-84
2021-09-23 21:15:44.433555,-91
2021-09-23 21:15:44.433561,-98
2021-09-23 21:15:44.433567,-98
2021-09-23 21:15:44.433573,-96
2021-09-23 21:15:44.433579,-91
2021-09-23 21:15:44.433585,-86
2021-09-23 21:15:44.433591,-81
2021-09-23 21:15:44.433596,-79
2021-09-23 21:15:44.433602,-79
2021-09-23 21:15:44.433608,-76
2021-09-23 21:15:44.433614,-64
2021-09-23 21:15:44.433620,-60
2021-09-23 21:15:44.433625,-57
2021-09-23 21:15:44.433631,-50
2021-09-23 21:15:44.433637,-45
2021-09-23 21:15:44.433643,-40
2021-09-23 21:15:44.433648,-36
2021-09-23 21:15:44.433654,-31
2021-09-23 21:15:44.433659,-28
2021-09-23 21:15:44.433665,-31
2021-09-23 21:15:44.433671,-33
2021-09-23 21:15:44.433676,-31
2021-09-23 21:15:44.433682,-31
2021-09-23 21:15:44.433688,-28
2021-09-23 21:15:44.433694,-33
2021-09-23 21:15:44.433699,-40
2021-09-23 21:15:44.433705,-36
2021-09-23 21:15:44.433711,-21
2021-09-23 21:15:44.704218,-21
2021-09-23 21:15:44.704236,-26
2021-09-23 21:15:44.704243,-24
2021-09-23 21:15:44.704250,-28
2021-09-23 21:15:44.704256,-33
2021-09-23 21:15:44.704262,-36
2021-09-23 21:15:44.704267,-38
2021-09-23 21:15:44.704273,-33
2021-09-23 21:15:44.704279,-31
2021-09-23 21:15:44.704285,-40
2021-09-23 21:15:44.704291,-31
2021-09-23 21:15:44.704297,-4
2021-09-23 21:15:44.704303,4
2021-09-23 21:15:44.704308,0
2021-09-23 21:15:44.704314,-12
2021-09-23 21:15:44.704320,-28
2021-09-23 21:15:44.704326,-36
2021-09-23 21:15:44.704331,-24
2021-09-23 21:15:44.704337,-12
2021-09-23 21:15:44.704343,-7
2021-09-23 21:15:44.704349,9
2021-09-23 21:15:44.704355,67
2021-09-23 21:15:44.704361,245
2021-09-23 21:15:44.704366,562
2021-09-23 21:15:44.704372,829
2021-09-23 21:15:44.704378,500
2021-09-23 21:15:44.704384,-305
2021-09-23 21:15:44.704390,-466
2021-09-23 21:15:44.704395,-57
2021-09-23 21:15:44.704401,-21
2021-09-23 21:15:44.929188,-134
2021-09-23 21:15:44.929205,-43
2021-09-23 21:15:44.929212,-14
2021-09-23 21:15:44.929218,-72
2021-09-23 21:15:44.929224,-45
2021-09-23 21:15:44.929233,-9
2021-09-23 21:15:44.929239,-21
2021-09-23 21:15:44.929244,-19
2021-09-23 21:15:44.929250,0
2021-09-23 21:15:44.929256,7
2021-09-23 21:15:44.929262,9
2021-09-23 21:15:44.929268,19
2021-09-23 21:15:44.929273,28
2021-09-23 21:15:44.929279,33
2021-09-23 21:15:44.929285,28
2021-09-23 21:15:44.929291,33
2021-09-23 21:15:44.929297,50
2021-09-23 21:15:44.929303,57
2021-09-23 21:15:44.929308,62
2021-09-23 21:15:44.929314,69
2021-09-23 21:15:44.929320,67
2021-09-23 21:15:44.929325,64
2021-09-23 21:15:44.929331,69
2021-09-23 21:15:44.929337,67
2021-09-23 21:15:44.929343,52
2021-09-23 21:15:44.929348,36
2021-09-23 21:15:44.929354,14
2021-09-23 21:15:44.929360,-9
2021-09-23 21:15:44.929366,-33
2021-09-23 21:15:44.929371,-55
2021-09-23 21:15:45.109187,-72
2021-09-23 21:15:45.109204,-81
2021-09-23 21:15:45.109211,-88
2021-09-23 21:15:45.109217,-96
2021-09-23 21:15:45.109223,-86
2021-09-23 21:15:45.109229,-74
2021-09-23 21:15:45.109234,-79
2021-09-23 21:15:45.109240,-79
2021-09-23 21:15:45.109246,-74
2021-09-23 21:15:45.109252,-72
2021-09-23 21:15:45.109258,-69
2021-09-23 21:15:45.109263,-69
2021-09-23 21:15:45.109269,-69
2021-09-23 21:15:45.109275,-64
2021-09-23 21:15:45.109281,-60
2021-09-23 21:15:45.109287,-45
2021-09-23 21:15:45.109292,-36
2021-09-23 21:15:45.109298,-33
2021-09-23 21:15:45.109304,-28
2021-09-23 21:15:45.109309,-31
2021-09-23 21:15:45.109315,-38
2021-09-23 21:15:45.109321,-38
2021-09-23 21:15:45.109327,-31
2021-09-23 21:15:45.109332,-28
2021-09-23 21:15:45.109338,-26
2021-09-23 21:15:45.109344,-28
2021-09-23 21:15:45.109349,-33
2021-09-23 21:15:45.109355,-31
2021-09-23 21:15:45.109361,-24
2021-09-23 21:15:45.109366,-24
2021-09-23 21:15:45.334183,-21
2021-09-23 21:15:45.334200,-19
2021-09-23 21:15:45.334207,-21
2021-09-23 21:15:45.334214,-24
2021-09-23 21:15:45.334219,-19
2021-09-23 21:15:45.334225,-14
2021-09-23 21:15:45.334231,-16
2021-09-23 21:15:45.334237,-24
2021-09-23 21:15:45.334243,-26
2021-09-23 21:15:45.334248,-21
2021-09-23 21:15:45.334254,-16
2021-09-23 21:15:45.334260,-9
2021-09-23 21:15:45.334266,0
2021-09-23 21:15:45.334272,9
2021-09-23 21:15:45.334278,12
2021-09-23 21:15:45.334283,7
2021-09-23 21:15:45.334289,0
2021-09-23 21:15:45.334295,-9
2021-09-23 21:15:45.334301,-19
2021-09-23 21:15:45.334306,-16
2021-09-23 21:15:45.334312,-2
2021-09-23 21:15:45.334318,7
2021-09-23 21:15:45.334323,21
2021-09-23 21:15:45.334329,91
2021-09-23 21:15:45.334334,278
2021-09-23 21:15:45.334340,589
2021-09-23 21:15:45.334346,832
2021-09-23 21:15:45.334352,464
2021-09-23 21:15:45.334357,-339
2021-09-23 21:15:45.334363,-442
2021-09-23 21:15:45.604307,-31
2021-09-23 21:15:45.604326,-21
2021-09-23 21:15:45.604333,-125
2021-09-23 21:15:45.604339,-31
2021-09-23 21:15:45.604345,-9
2021-09-23 21:15:45.604352,-62
2021-09-23 21:15:45.604358,-43
2021-09-23 21:15:45.604364,-12
2021-09-23 21:15:45.604369,-19
2021-09-23 21:15:45.604375,-9
2021-09-23 21:15:45.604381,7
2021-09-23 21:15:45.604387,7
2021-09-23 21:15:45.604393,4
2021-09-23 21:15:45.604399,14
2021-09-23 21:15:45.604405,26
2021-09-23 21:15:45.604410,28
2021-09-23 21:15:45.604416,28
2021-09-23 21:15:45.604422,31
2021-09-23 21:15:45.604428,40
2021-09-23 21:15:45.604433,52
2021-09-23 21:15:45.604439,57
2021-09-23 21:15:45.604445,62
2021-09-23 21:15:45.604451,62
2021-09-23 21:15:45.604456,55
2021-09-23 21:15:45.604462,50
2021-09-23 21:15:45.604468,48
2021-09-23 21:15:45.604474,36
2021-09-23 21:15:45.604479,26
2021-09-23 21:15:45.604485,12
2021-09-23 21:15:45.604491,-14
2021-09-23 21:15:45.784179,-36
2021-09-23 21:15:45.784195,-48
2021-09-23 21:15:45.784202,-67
2021-09-23 21:15:45.784208,-98
2021-09-23 21:15:45.784214,-129
2021-09-23 21:15:45.784220,-132
2021-09-23 21:15:45.784226,-125
2021-09-23 21:15:45.784235,-120
2021-09-23 21:15:45.784241,-110
2021-09-23 21:15:45.784247,-105
2021-09-23 21:15:45.784252,-103
2021-09-23 21:15:45.784258,-103
2021-09-23 21:15:45.784264,-96
2021-09-23 21:15:45.784270,-88
2021-09-23 21:15:45.784276,-84
2021-09-23 21:15:45.784282,-76
2021-09-23 21:15:45.784287,-67
2021-09-23 21:15:45.784293,-67
2021-09-23 21:15:45.784299,-62
2021-09-23 21:15:45.784304,-48
2021-09-23 21:15:45.784310,-43
2021-09-23 21:15:45.784316,-48
2021-09-23 21:15:45.784322,-45
2021-09-23 21:15:45.784328,-40
2021-09-23 21:15:45.784334,-43
2021-09-23 21:15:45.784339,-40
2021-09-23 21:15:45.784345,-33
2021-09-23 21:15:45.784351,-33
2021-09-23 21:15:45.784356,-38
2021-09-23 21:15:45.784362,-38
2021-09-23 21:15:46.054218,-31
2021-09-23 21:15:46.054236,-28
2021-09-23 21:15:46.054243,-36
2021-09-23 21:15:46.054250,-33
2021-09-23 21:15:46.054255,-28
2021-09-23 21:15:46.054261,-31
2021-09-23 21:15:46.054267,-28
2021-09-23 21:15:46.054273,-16
2021-09-23 21:15:46.054279,-16
2021-09-23 21:15:46.054285,-16
2021-09-23 21:15:46.054291,-9
2021-09-23 21:15:46.054296,-2
2021-09-23 21:15:46.054302,2
2021-09-23 21:15:46.054308,2
2021-09-23 21:15:46.054314,4
2021-09-23 21:15:46.054320,12
2021-09-23 21:15:46.054326,21
2021-09-23 21:15:46.054331,26
2021-09-23 21:15:46.054337,31
2021-09-23 21:15:46.054343,33
2021-09-23 21:15:46.054348,19
2021-09-23 21:15:46.054354,0
2021-09-23 21:15:46.054360,-14
2021-09-23 21:15:46.054366,-9
2021-09-23 21:15:46.054372,4
2021-09-23 21:15:46.054377,12
2021-09-23 21:15:46.054383,38
2021-09-23 21:15:46.054389,144
2021-09-23 21:15:46.054394,389
2021-09-23 21:15:46.054400,743
2021-09-23 21:15:46.277821,856
2021-09-23 21:15:46.277838,242
2021-09-23 21:15:46.277845,-464
2021-09-23 21:15:46.277851,-303
2021-09-23 21:15:46.277857,26
2021-09-23 21:15:46.277863,-93
2021-09-23 21:15:46.277869,-129
2021-09-23 21:15:46.277874,-12
2021-09-23 21:15:46.277880,-28
2021-09-23 21:15:46.277886,-64
2021-09-23 21:15:46.277892,-28
2021-09-23 21:15:46.277898,-9
2021-09-23 21:15:46.277903,-14
2021-09-23 21:15:46.277909,-2
2021-09-23 21:15:46.277915,14
2021-09-23 21:15:46.277920,12
2021-09-23 21:15:46.277926,9
2021-09-23 21:15:46.277932,14
2021-09-23 21:15:46.277938,28
2021-09-23 21:15:46.277943,40
2021-09-23 21:15:46.277949,43
2021-09-23 21:15:46.277955,43
2021-09-23 21:15:46.277960,45
2021-09-23 21:15:46.277966,45
2021-09-23 21:15:46.277972,52
2021-09-23 21:15:46.277977,67
2021-09-23 21:15:46.277983,72
2021-09-23 21:15:46.277989,60
2021-09-23 21:15:46.277995,45
2021-09-23 21:15:46.278000,38
2021-09-23 21:15:46.549287,33
2021-09-23 21:15:46.549306,16
2021-09-23 21:15:46.549313,-9
2021-09-23 21:15:46.549320,-36
2021-09-23 21:15:46.549326,-62
2021-09-23 21:15:46.549333,-81
2021-09-23 21:15:46.549339,-91
2021-09-23 21:15:46.549345,-96
2021-09-23 21:15:46.549351,-101
2021-09-23 21:15:46.549357,-105
2021-09-23 21:15:46.549363,-108
2021-09-23 21:15:46.549369,-110
2021-09-23 21:15:46.549375,-110
2021-09-23 21:15:46.549380,-101
2021-09-23 21:15:46.549386,-88
2021-09-23 21:15:46.549392,-86
2021-09-23 21:15:46.549398,-81
2021-09-23 21:15:46.549404,-69
2021-09-23 21:15:46.549410,-64
2021-09-23 21:15:46.549415,-57
2021-09-23 21:15:46.549421,-52
2021-09-23 21:15:46.549427,-48
2021-09-23 21:15:46.549433,-48
2021-09-23 21:15:46.549438,-40
2021-09-23 21:15:46.549444,-26
2021-09-23 21:15:46.549450,-24
2021-09-23 21:15:46.549456,-38
2021-09-23 21:15:46.549462,-45
2021-09-23 21:15:46.549467,-36
2021-09-23 21:15:46.549473,-26
2021-09-23 21:15:46.729220,-24
2021-09-23 21:15:46.729238,-26
2021-09-23 21:15:46.729245,-28
2021-09-23 21:15:46.729251,-33
2021-09-23 21:15:46.729257,-33
2021-09-23 21:15:46.729263,-24
2021-09-23 21:15:46.729269,-16
2021-09-23 21:15:46.729275,-19
2021-09-23 21:15:46.729281,-26
2021-09-23 21:15:46.729287,-31
2021-09-23 21:15:46.729292,-24
2021-09-23 21:15:46.729298,-14
2021-09-23 21:15:46.729304,-14
2021-09-23 21:15:46.729310,-21
2021-09-23 21:15:46.729316,-26
2021-09-23 21:15:46.729322,-28
2021-09-23 21:15:46.729327,-16
2021-09-23 21:15:46.729333,0
2021-09-23 21:15:46.729339,12
2021-09-23 21:15:46.729345,14
2021-09-23 21:15:46.729350,0
2021-09-23 21:15:46.729356,-24
2021-09-23 21:15:46.729362,-24
2021-09-23 21:15:46.729368,-14
2021-09-23 21:15:46.729373,-12
2021-09-23 21:15:46.729379,-4
2021-09-23 21:15:46.729385,4
2021-09-23 21:15:46.729390,26
2021-09-23 21:15:46.729396,132
2021-09-23 21:15:46.729402,391
2021-09-23 21:15:46.954249,733
2021-09-23 21:15:46.954267,752
2021-09-23 21:15:46.954274,36
2021-09-23 21:15:46.954281,-661
2021-09-23 21:15:46.954287,-389
2021-09-23 21:15:46.954293,24
2021-09-23 21:15:46.954299,-74
2021-09-23 21:15:46.954305,-98
2021-09-23 21:15:46.954310,7
2021-09-23 21:15:46.954316,-19
2021-09-23 21:15:46.954322,-38
2021-09-23 21:15:46.954328,7
2021-09-23 21:15:46.954333,12
2021-09-23 21:15:46.954339,0
2021-09-23 21:15:46.954345,7
2021-09-23 21:15:46.954351,9
2021-09-23 21:15:46.954357,12
2021-09-23 21:15:46.954363,28
2021-09-23 21:15:46.954369,40
2021-09-23 21:15:46.954375,33
2021-09-23 21:15:46.954381,33
2021-09-23 21:15:46.954387,45
2021-09-23 21:15:46.954392,57
2021-09-23 21:15:46.954398,69
2021-09-23 21:15:46.954404,79
2021-09-23 21:15:46.954410,88
2021-09-23 21:15:46.954415,96
2021-09-23 21:15:46.954421,96
2021-09-23 21:15:46.954427,91
2021-09-23 21:15:46.954433,88
2021-09-23 21:15:47.179237,79
2021-09-23 21:15:47.179254,57
2021-09-23 21:15:47.179262,24
2021-09-23 21:15:47.179268,-12
2021-09-23 21:15:47.179274,-43
2021-09-23 21:15:47.179280,-57
2021-09-23 21:15:47.179286,-76
2021-09-23 21:15:47.179292,-101
2021-09-23 21:15:47.179298,-110
2021-09-23 21:15:47.179303,-120
2021-09-23 21:15:47.179309,-122
2021-09-23 21:15:47.179315,-115
2021-09-23 21:15:47.179321,-108
2021-09-23 21:15:47.179327,-115
2021-09-23 21:15:47.179333,-113
2021-09-23 21:15:47.179338,-96
2021-09-23 21:15:47.179344,-81
2021-09-23 21:15:47.179350,-69
2021-09-23 21:15:47.179356,-64
2021-09-23 21:15:47.179361,-64
2021-09-23 21:15:47.179367,-50
2021-09-23 21:15:47.179373,-38
2021-09-23 21:15:47.179378,-38
2021-09-23 21:15:47.179384,-33
2021-09-23 21:15:47.179390,-28
2021-09-23 21:15:47.179395,-28
2021-09-23 21:15:47.179401,-33
2021-09-23 21:15:47.179407,-38
2021-09-23 21:15:47.179412,-38
2021-09-23 21:15:47.179418,-31
2021-09-23 21:15:47.404195,-28
2021-09-23 21:15:47.404212,-28
2021-09-23 21:15:47.404219,-24
2021-09-23 21:15:47.404225,-24
2021-09-23 21:15:47.404231,-24
2021-09-23 21:15:47.404237,-24
2021-09-23 21:15:47.404243,-28
2021-09-23 21:15:47.404249,-36
2021-09-23 21:15:47.404255,-31
2021-09-23 21:15:47.404260,-26
2021-09-23 21:15:47.404266,-14
2021-09-23 21:15:47.404272,0
2021-09-23 21:15:47.404278,0
2021-09-23 21:15:47.404284,-2
2021-09-23 21:15:47.404290,-4
2021-09-23 21:15:47.404295,-21
2021-09-23 21:15:47.404301,-33
2021-09-23 21:15:47.404307,-31
2021-09-23 21:15:47.404313,-21
2021-09-23 21:15:47.404319,-14
2021-09-23 21:15:47.404324,-9
2021-09-23 21:15:47.404330,12
2021-09-23 21:15:47.404336,129
2021-09-23 21:15:47.404342,399
2021-09-23 21:15:47.404348,733
2021-09-23 21:15:47.404354,719
2021-09-23 21:15:47.404359,-28
2021-09-23 21:15:47.404365,-670
2021-09-23 21:15:47.404371,-341
2021-09-23 21:15:47.404377,40
2021-09-23 21:15:47.629236,-91
2021-09-23 21:15:47.629253,-103
2021-09-23 21:15:47.629261,12
2021-09-23 21:15:47.629267,-21
2021-09-23 21:15:47.629273,-40
2021-09-23 21:15:47.629279,2
2021-09-23 21:15:47.629285,-2
2021-09-23 21:15:47.629291,-7
2021-09-23 21:15:47.629296,12
2021-09-23 21:15:47.629302,7
2021-09-23 21:15:47.629308,0
2021-09-23 21:15:47.629314,14
2021-09-23 21:15:47.629320,24
2021-09-23 21:15:47.629326,26
2021-09-23 21:15:47.629332,43
2021-09-23 21:15:47.629337,52
2021-09-23 21:15:47.629343,57
2021-09-23 21:15:47.629349,74
2021-09-23 21:15:47.629355,84
2021-09-23 21:15:47.629360,84
2021-09-23 21:15:47.629366,93
2021-09-23 21:15:47.629372,101
2021-09-23 21:15:47.629377,86
2021-09-23 21:15:47.629383,69
2021-09-23 21:15:47.629388,55
2021-09-23 21:15:47.629394,38
2021-09-23 21:15:47.629399,16
2021-09-23 21:15:47.629405,-14
2021-09-23 21:15:47.629411,-48
2021-09-23 21:15:47.629417,-74
2021-09-23 21:15:47.854231,-91
2021-09-23 21:15:47.854249,-101
2021-09-23 21:15:47.854256,-105
2021-09-23 21:15:47.854262,-113
2021-09-23 21:15:47.854268,-120
2021-09-23 21:15:47.854273,-127
2021-09-23 21:15:47.854279,-117
2021-09-23 21:15:47.854285,-105
2021-09-23 21:15:47.854291,-101
2021-09-23 21:15:47.854296,-93
2021-09-23 21:15:47.854302,-81
2021-09-23 21:15:47.854308,-79
2021-09-23 21:15:47.854313,-72
2021-09-23 21:15:47.854319,-52
2021-09-23 21:15:47.854325,-43
2021-09-23 21:15:47.854330,-40
2021-09-23 21:15:47.854336,-38
2021-09-23 21:15:47.854342,-38
2021-09-23 21:15:47.854347,-38
2021-09-23 21:15:47.854353,-28
2021-09-23 21:15:47.854359,-28
2021-09-23 21:15:47.854364,-33
2021-09-23 21:15:47.854370,-33
2021-09-23 21:15:47.854375,-36
2021-09-23 21:15:47.854381,-43
2021-09-23 21:15:47.854387,-40
2021-09-23 21:15:47.854392,-36
2021-09-23 21:15:47.854398,-38
2021-09-23 21:15:47.854404,-40
2021-09-23 21:15:47.854409,-33
2021-09-23 21:15:48.168712,-33
2021-09-23 21:15:48.168730,-36
2021-09-23 21:15:48.168737,-33
2021-09-23 21:15:48.168743,-28
2021-09-23 21:15:48.168749,-16
2021-09-23 21:15:48.168755,-9
2021-09-23 21:15:48.168761,-7
2021-09-23 21:15:48.168767,-4
2021-09-23 21:15:48.168861,-9
2021-09-23 21:15:48.168868,-31
2021-09-23 21:15:48.168874,-45
2021-09-23 21:15:48.168880,-33
2021-09-23 21:15:48.168886,-14
2021-09-23 21:15:48.168892,-12
2021-09-23 21:15:48.168898,-7
2021-09-23 21:15:48.168904,45
2021-09-23 21:15:48.168910,240
2021-09-23 21:15:48.168916,591
2021-09-23 21:15:48.168922,856
2021-09-23 21:15:48.168928,464
2021-09-23 21:15:48.168934,-425
2021-09-23 21:15:48.168939,-572
2021-09-23 21:15:48.168945,-84
2021-09-23 21:15:48.168951,-28
2021-09-23 21:15:48.168956,-151
2021-09-23 21:15:48.168962,-43
2021-09-23 21:15:48.168968,-7
2021-09-23 21:15:48.168973,-67
2021-09-23 21:15:48.168979,-43
2021-09-23 21:15:48.168985,-4
2021-09-23 21:15:48.437920,-14
2021-09-23 21:15:48.437937,-7
2021-09-23 21:15:48.437944,7
2021-09-23 21:15:48.437951,7
2021-09-23 21:15:48.437957,9
2021-09-23 21:15:48.437963,19
2021-09-23 21:15:48.437969,31
2021-09-23 21:15:48.437975,45
2021-09-23 21:15:48.437981,55
2021-09-23 21:15:48.437987,55
2021-09-23 21:15:48.437993,62
2021-09-23 21:15:48.437999,84
2021-09-23 21:15:48.438005,98
2021-09-23 21:15:48.438011,103
2021-09-23 21:15:48.438017,110
2021-09-23 21:15:48.438022,103
2021-09-23 21:15:48.438028,86
2021-09-23 21:15:48.438034,76
2021-09-23 21:15:48.438040,64
2021-09-23 21:15:48.438045,43
2021-09-23 21:15:48.438051,7
2021-09-23 21:15:48.438057,-28
2021-09-23 21:15:48.438063,-52
2021-09-23 21:15:48.438068,-64
2021-09-23 21:15:48.438074,-79
2021-09-23 21:15:48.438080,-96
2021-09-23 21:15:48.438085,-103
2021-09-23 21:15:48.438091,-105
2021-09-23 21:15:48.438097,-110
2021-09-23 21:15:48.438103,-113
2021-09-23 21:15:48.574261,-110
2021-09-23 21:15:48.574278,-101
2021-09-23 21:15:48.574285,-91
2021-09-23 21:15:48.574292,-86
2021-09-23 21:15:48.574298,-79
2021-09-23 21:15:48.574304,-69
2021-09-23 21:15:48.574310,-60
2021-09-23 21:15:48.574316,-50
2021-09-23 21:15:48.574322,-50
2021-09-23 21:15:48.574328,-50
2021-09-23 21:15:48.574334,-45
2021-09-23 21:15:48.574341,-40
2021-09-23 21:15:48.574347,-38
2021-09-23 21:15:48.574352,-36
2021-09-23 21:15:48.574358,-40
2021-09-23 21:15:48.574364,-43
2021-09-23 21:15:48.574370,-38
2021-09-23 21:15:48.574376,-33
2021-09-23 21:15:48.574382,-40
2021-09-23 21:15:48.574388,-38
2021-09-23 21:15:48.574393,-38
2021-09-23 21:15:48.574399,-52
2021-09-23 21:15:48.574405,-48
2021-09-23 21:15:48.574411,-33
2021-09-23 21:15:48.574416,-33
2021-09-23 21:15:48.574422,-38
2021-09-23 21:15:48.574428,-40
2021-09-23 21:15:48.574434,-38
2021-09-23 21:15:48.574440,-28
2021-09-23 21:15:48.574445,-9
2021-09-23 21:15:48.799218,-2
2021-09-23 21:15:48.799235,-9
2021-09-23 21:15:48.799242,-16
2021-09-23 21:15:48.799248,-24
2021-09-23 21:15:48.799254,-36
2021-09-23 21:15:48.799260,-38
2021-09-23 21:15:48.799266,-26
2021-09-23 21:15:48.799271,-21
2021-09-23 21:15:48.799277,-28
2021-09-23 21:15:48.799283,-14
2021-09-23 21:15:48.799290,64
2021-09-23 21:15:48.799296,274
2021-09-23 21:15:48.799302,625
2021-09-23 21:15:48.799308,894
2021-09-23 21:15:48.799313,488
2021-09-23 21:15:48.799319,-418
2021-09-23 21:15:48.799325,-560
2021-09-23 21:15:48.799331,-72
2021-09-23 21:15:48.799337,-26
2021-09-23 21:15:48.799342,-156
2021-09-23 21:15:48.799348,-52
2021-09-23 21:15:48.799354,-12
2021-09-23 21:15:48.799360,-62
2021-09-23 21:15:48.799366,-33
2021-09-23 21:15:48.799371,2
2021-09-23 21:15:48.799377,-7
2021-09-23 21:15:48.799383,0
2021-09-23 21:15:48.799389,14
2021-09-23 21:15:48.799395,16
2021-09-23 21:15:48.799401,24
2021-09-23 21:15:49.024309,38
2021-09-23 21:15:49.024328,45
2021-09-23 21:15:49.024335,45
2021-09-23 21:15:49.024341,48
2021-09-23 21:15:49.024347,62
2021-09-23 21:15:49.024353,76
2021-09-23 21:15:49.024359,84
2021-09-23 21:15:49.024364,88
2021-09-23 21:15:49.024370,88
2021-09-23 21:15:49.024376,96
2021-09-23 21:15:49.024382,101
2021-09-23 21:15:49.024388,93
2021-09-23 21:15:49.024393,79
2021-09-23 21:15:49.024399,64
2021-09-23 21:15:49.024405,43
2021-09-23 21:15:49.024411,19
2021-09-23 21:15:49.024417,-12
2021-09-23 21:15:49.024422,-38
2021-09-23 21:15:49.024428,-64
2021-09-23 21:15:49.024434,-86
2021-09-23 21:15:49.024440,-103
