Time,ECG
2021-09-23 20:51:10.677986,31
2021-09-23 20:51:10.678003,-12
2021-09-23 20:51:10.678010,-48
2021-09-23 20:51:10.678016,-72
2021-09-23 20:51:10.678022,-96
2021-09-23 20:51:10.678028,-108
2021-09-23 20:51:10.678034,-103
2021-09-23 20:51:10.678040,-101
2021-09-23 20:51:10.678046,-113
2021-09-23 20:51:10.678052,-125
2021-09-23 20:51:10.678058,-127
2021-09-23 20:51:10.678064,-117
2021-09-23 20:51:10.678069,-108
2021-09-23 20:51:10.678075,-101
2021-09-23 20:51:10.678081,-76
2021-09-23 20:51:10.678087,-64
2021-09-23 20:51:10.678093,-74
2021-09-23 20:51:10.678099,-64
2021-09-23 20:51:10.678105,-40
2021-09-23 20:51:10.678111,-33
2021-09-23 20:51:10.678116,-33
2021-09-23 20:51:10.678122,-36
2021-09-23 20:51:10.678128,-45
2021-09-23 20:51:10.678134,-43
2021-09-23 20:51:10.678139,-33
2021-09-23 20:51:10.678145,-36
2021-09-23 20:51:10.678152,-43
2021-09-23 20:51:10.678157,-43
2021-09-23 20:51:10.678163,-48
2021-09-23 20:51:10.678169,-50
2021-09-23 20:51:10.799505,-40
2021-09-23 20:51:10.799526,-36
2021-09-23 20:51:10.799533,-38
2021-09-23 20:51:10.799539,-45
2021-09-23 20:51:10.799545,-55
2021-09-23 20:51:10.799551,-48
2021-09-23 20:51:10.799558,-31
2021-09-23 20:51:10.799564,-36
2021-09-23 20:51:10.799570,-45
2021-09-23 20:51:10.799576,-43
2021-09-23 20:51:10.799582,-48
2021-09-23 20:51:10.799587,-62
2021-09-23 20:51:10.799593,-60
2021-09-23 20:51:10.799599,-52
2021-09-23 20:51:10.799605,-57
2021-09-23 20:51:10.799611,-55
2021-09-23 20:51:10.799617,-28
2021-09-23 20:51:10.799623,21
2021-09-23 20:51:10.799629,185
2021-09-23 20:51:10.799635,603
2021-09-23 20:51:10.799640,1091
2021-09-23 20:51:10.799646,824
2021-09-23 20:51:10.799652,-182
2021-09-23 20:51:10.799657,-509
2021-09-23 20:51:10.799663,-81
2021-09-23 20:51:10.799669,-38
2021-09-23 20:51:10.799675,-221
2021-09-23 20:51:10.799680,-141
2021-09-23 20:51:10.799686,-69
2021-09-23 20:51:10.799693,-108
2021-09-23 20:51:11.113782,-93
2021-09-23 20:51:11.113813,-57
2021-09-23 20:51:11.113820,-64
2021-09-23 20:51:11.113826,-62
2021-09-23 20:51:11.113832,-38
2021-09-23 20:51:11.113838,-33
2021-09-23 20:51:11.113844,-38
2021-09-23 20:51:11.113850,-24
2021-09-23 20:51:11.113855,-9
2021-09-23 20:51:11.113861,-14
2021-09-23 20:51:11.113866,-4
2021-09-23 20:51:11.113872,21
2021-09-23 20:51:11.113878,38
2021-09-23 20:51:11.113888,43
2021-09-23 20:51:11.113894,45
2021-09-23 20:51:11.113900,45
2021-09-23 20:51:11.113906,50
2021-09-23 20:51:11.113911,72
2021-09-23 20:51:11.113917,81
2021-09-23 20:51:11.113923,69
2021-09-23 20:51:11.113928,55
2021-09-23 20:51:11.113934,40
2021-09-23 20:51:11.113939,21
2021-09-23 20:51:11.113945,-2
2021-09-23 20:51:11.113951,-28
2021-09-23 20:51:11.113956,-57
2021-09-23 20:51:11.113962,-86
2021-09-23 20:51:11.113968,-96
2021-09-23 20:51:11.113974,-88
2021-09-23 20:51:11.113981,-86
2021-09-23 20:51:11.338049,-84
2021-09-23 20:51:11.338069,-79
2021-09-23 20:51:11.338076,-88
2021-09-23 20:51:11.338083,-101
2021-09-23 20:51:11.338089,-86
2021-09-23 20:51:11.338095,-76
2021-09-23 20:51:11.338101,-81
2021-09-23 20:51:11.338107,-69
2021-09-23 20:51:11.338113,-62
2021-09-23 20:51:11.338119,-67
2021-09-23 20:51:11.338124,-64
2021-09-23 20:51:11.338130,-55
2021-09-23 20:51:11.338136,-45
2021-09-23 20:51:11.338142,-43
2021-09-23 20:51:11.338148,-60
2021-09-23 20:51:11.338154,-64
2021-09-23 20:51:11.338160,-48
2021-09-23 20:51:11.338169,-40
2021-09-23 20:51:11.338175,-45
2021-09-23 20:51:11.338180,-50
2021-09-23 20:51:11.338186,-45
2021-09-23 20:51:11.338192,-36
2021-09-23 20:51:11.338198,-26
2021-09-23 20:51:11.338204,-21
2021-09-23 20:51:11.338210,-36
2021-09-23 20:51:11.338215,-57
2021-09-23 20:51:11.338221,-57
2021-09-23 20:51:11.338227,-50
2021-09-23 20:51:11.338233,-52
2021-09-23 20:51:11.338239,-48
2021-09-23 20:51:11.519417,-43
2021-09-23 20:51:11.519439,-40
2021-09-23 20:51:11.519446,-43
2021-09-23 20:51:11.519452,-36
2021-09-23 20:51:11.519458,-14
2021-09-23 20:51:11.519464,-12
2021-09-23 20:51:11.519469,-36
2021-09-23 20:51:11.519481,-64
2021-09-23 20:51:11.519487,-64
2021-09-23 20:51:11.519493,-43
2021-09-23 20:51:11.519499,-31
2021-09-23 20:51:11.519505,-26
2021-09-23 20:51:11.519511,-7
2021-09-23 20:51:11.519517,91
2021-09-23 20:51:11.519522,384
2021-09-23 20:51:11.519528,870
2021-09-23 20:51:11.519534,1022
2021-09-23 20:51:11.519540,221
2021-09-23 20:51:11.519545,-603
2021-09-23 20:51:11.519551,-351
2021-09-23 20:51:11.519557,19
2021-09-23 20:51:11.519563,-153
2021-09-23 20:51:11.519569,-182
2021-09-23 20:51:11.519574,-38
2021-09-23 20:51:11.519580,-57
2021-09-23 20:51:11.519586,-91
2021-09-23 20:51:11.519592,-48
2021-09-23 20:51:11.519597,-33
2021-09-23 20:51:11.519603,-38
2021-09-23 20:51:11.519610,-12
2021-09-23 20:51:11.744348,2
2021-09-23 20:51:11.744367,-12
2021-09-23 20:51:11.744374,-16
2021-09-23 20:51:11.744380,2
2021-09-23 20:51:11.744386,21
2021-09-23 20:51:11.744392,26
2021-09-23 20:51:11.744398,31
2021-09-23 20:51:11.744403,48
2021-09-23 20:51:11.744409,67
2021-09-23 20:51:11.744415,67
2021-09-23 20:51:11.744421,62
2021-09-23 20:51:11.744427,79
2021-09-23 20:51:11.744432,86
2021-09-23 20:51:11.744438,69
2021-09-23 20:51:11.744444,69
2021-09-23 20:51:11.744450,72
2021-09-23 20:51:11.744456,55
2021-09-23 20:51:11.744461,36
2021-09-23 20:51:11.744467,16
2021-09-23 20:51:11.744473,-12
2021-09-23 20:51:11.744479,-48
2021-09-23 20:51:11.744485,-81
2021-09-23 20:51:11.744491,-96
2021-09-23 20:51:11.744496,-93
2021-09-23 20:51:11.744506,-86
2021-09-23 20:51:11.744512,-84
2021-09-23 20:51:11.744518,-86
2021-09-23 20:51:11.744524,-91
2021-09-23 20:51:11.744530,-84
2021-09-23 20:51:11.744535,-69
2021-09-23 20:51:12.014440,-81
2021-09-23 20:51:12.014460,-96
2021-09-23 20:51:12.014468,-76
2021-09-23 20:51:12.014474,-57
2021-09-23 20:51:12.014480,-60
2021-09-23 20:51:12.014486,-55
2021-09-23 20:51:12.014492,-50
2021-09-23 20:51:12.014498,-48
2021-09-23 20:51:12.014503,-50
2021-09-23 20:51:12.014509,-48
2021-09-23 20:51:12.014515,-43
2021-09-23 20:51:12.014521,-50
2021-09-23 20:51:12.014526,-67
2021-09-23 20:51:12.014532,-64
2021-09-23 20:51:12.014538,-50
2021-09-23 20:51:12.014544,-43
2021-09-23 20:51:12.014550,-55
2021-09-23 20:51:12.014556,-60
2021-09-23 20:51:12.014561,-45
2021-09-23 20:51:12.014567,-43
2021-09-23 20:51:12.014573,-52
2021-09-23 20:51:12.014578,-64
2021-09-23 20:51:12.014586,-67
2021-09-23 20:51:12.014592,-55
2021-09-23 20:51:12.014597,-55
2021-09-23 20:51:12.014603,-60
2021-09-23 20:51:12.014609,-55
2021-09-23 20:51:12.014614,-52
2021-09-23 20:51:12.014620,-43
2021-09-23 20:51:12.014626,-28
2021-09-23 20:51:12.239476,-26
2021-09-23 20:51:12.239496,-24
2021-09-23 20:51:12.239503,-19
2021-09-23 20:51:12.239509,-19
2021-09-23 20:51:12.239515,-26
2021-09-23 20:51:12.239521,-36
2021-09-23 20:51:12.239527,-36
2021-09-23 20:51:12.239533,-19
2021-09-23 20:51:12.239539,-7
2021-09-23 20:51:12.239545,14
2021-09-23 20:51:12.239551,125
2021-09-23 20:51:12.239557,413
2021-09-23 20:51:12.239563,887
2021-09-23 20:51:12.239569,1005
2021-09-23 20:51:12.239575,194
2021-09-23 20:51:12.239581,-567
2021-09-23 20:51:12.239587,-293
2021-09-23 20:51:12.239593,31
2021-09-23 20:51:12.239599,-141
2021-09-23 20:51:12.239605,-151
2021-09-23 20:51:12.239611,-24
2021-09-23 20:51:12.239617,-69
2021-09-23 20:51:12.239623,-93
2021-09-23 20:51:12.239629,-31
2021-09-23 20:51:12.239638,-24
2021-09-23 20:51:12.239645,-38
2021-09-23 20:51:12.239650,-24
2021-09-23 20:51:12.239656,-9
2021-09-23 20:51:12.239662,0
2021-09-23 20:51:12.239668,19
2021-09-23 20:51:12.419423,31
2021-09-23 20:51:12.419444,21
2021-09-23 20:51:12.419451,12
2021-09-23 20:51:12.419457,26
2021-09-23 20:51:12.419463,38
2021-09-23 20:51:12.419469,50
2021-09-23 20:51:12.419475,76
2021-09-23 20:51:12.419481,86
2021-09-23 20:51:12.419487,79
2021-09-23 20:51:12.419493,81
2021-09-23 20:51:12.419499,84
2021-09-23 20:51:12.419505,74
2021-09-23 20:51:12.419510,62
2021-09-23 20:51:12.419516,45
2021-09-23 20:51:12.419522,19
2021-09-23 20:51:12.419528,-7
2021-09-23 20:51:12.419534,-36
2021-09-23 20:51:12.419540,-67
2021-09-23 20:51:12.419546,-74
2021-09-23 20:51:12.419551,-67
2021-09-23 20:51:12.419557,-72
2021-09-23 20:51:12.419563,-81
2021-09-23 20:51:12.419569,-81
2021-09-23 20:51:12.419574,-76
2021-09-23 20:51:12.419580,-79
2021-09-23 20:51:12.419586,-96
2021-09-23 20:51:12.419592,-103
2021-09-23 20:51:12.419597,-98
2021-09-23 20:51:12.419603,-93
2021-09-23 20:51:12.419609,-79
2021-09-23 20:51:12.644353,-67
2021-09-23 20:51:12.644372,-69
2021-09-23 20:51:12.644379,-60
2021-09-23 20:51:12.644385,-50
2021-09-23 20:51:12.644391,-52
2021-09-23 20:51:12.644397,-50
2021-09-23 20:51:12.644403,-40
2021-09-23 20:51:12.644409,-33
2021-09-23 20:51:12.644414,-38
2021-09-23 20:51:12.644420,-45
2021-09-23 20:51:12.644426,-45
2021-09-23 20:51:12.644432,-50
2021-09-23 20:51:12.644437,-50
2021-09-23 20:51:12.644443,-45
2021-09-23 20:51:12.644449,-45
2021-09-23 20:51:12.644454,-55
2021-09-23 20:51:12.644460,-55
2021-09-23 20:51:12.644466,-40
2021-09-23 20:51:12.644472,-38
2021-09-23 20:51:12.644478,-48
2021-09-23 20:51:12.644483,-43
2021-09-23 20:51:12.644489,-36
2021-09-23 20:51:12.644495,-43
2021-09-23 20:51:12.644501,-48
2021-09-23 20:51:12.644506,-33
2021-09-23 20:51:12.644512,-14
2021-09-23 20:51:12.644518,-21
2021-09-23 20:51:12.644523,-48
2021-09-23 20:51:12.644529,-55
2021-09-23 20:51:12.644535,-33
2021-09-23 20:51:12.914427,-9
2021-09-23 20:51:12.914446,-4
2021-09-23 20:51:12.914453,-4
2021-09-23 20:51:12.914459,-16
2021-09-23 20:51:12.914465,-36
2021-09-23 20:51:12.914471,-33
2021-09-23 20:51:12.914477,-21
2021-09-23 20:51:12.914483,-12
2021-09-23 20:51:12.914488,-9
2021-09-23 20:51:12.914494,-2
2021-09-23 20:51:12.914505,60
2021-09-23 20:51:12.914511,283
2021-09-23 20:51:12.914517,721
2021-09-23 20:51:12.914523,1077
2021-09-23 20:51:12.914528,579
2021-09-23 20:51:12.914536,-442
2021-09-23 20:51:12.914542,-524
2021-09-23 20:51:12.914549,-19
2021-09-23 20:51:12.914554,-50
2021-09-23 20:51:12.914560,-189
2021-09-23 20:51:12.914566,-72
2021-09-23 20:51:12.914572,-45
2021-09-23 20:51:12.914577,-93
2021-09-23 20:51:12.914583,-50
2021-09-23 20:51:12.914589,-12
2021-09-23 20:51:12.914594,-21
2021-09-23 20:51:12.914600,-16
2021-09-23 20:51:12.914606,-16
2021-09-23 20:51:12.914612,-24
2021-09-23 20:51:12.914618,-7
2021-09-23 20:51:13.139429,4
2021-09-23 20:51:13.139451,2
2021-09-23 20:51:13.139459,12
2021-09-23 20:51:13.139466,28
2021-09-23 20:51:13.139472,36
2021-09-23 20:51:13.139478,43
2021-09-23 20:51:13.139483,55
2021-09-23 20:51:13.139488,60
2021-09-23 20:51:13.139494,55
2021-09-23 20:51:13.139499,52
2021-09-23 20:51:13.139504,55
2021-09-23 20:51:13.139509,55
2021-09-23 20:51:13.139514,55
2021-09-23 20:51:13.139519,33
2021-09-23 20:51:13.139524,0
2021-09-23 20:51:13.139529,-14
2021-09-23 20:51:13.139534,-14
2021-09-23 20:51:13.139540,-33
2021-09-23 20:51:13.139544,-60
2021-09-23 20:51:13.139549,-79
2021-09-23 20:51:13.139554,-98
2021-09-23 20:51:13.139559,-110
2021-09-23 20:51:13.139564,-98
2021-09-23 20:51:13.139570,-86
2021-09-23 20:51:13.139576,-86
2021-09-23 20:51:13.139618,-84
2021-09-23 20:51:13.139625,-81
2021-09-23 20:51:13.139632,-76
2021-09-23 20:51:13.139638,-64
2021-09-23 20:51:13.139643,-57
2021-09-23 20:51:13.453359,-48
2021-09-23 20:51:13.453380,-31
2021-09-23 20:51:13.453387,-31
2021-09-23 20:51:13.453393,-50
2021-09-23 20:51:13.453399,-60
2021-09-23 20:51:13.453405,-45
2021-09-23 20:51:13.453411,-36
2021-09-23 20:51:13.453416,-43
2021-09-23 20:51:13.453422,-55
2021-09-23 20:51:13.453428,-55
2021-09-23 20:51:13.453434,-43
2021-09-23 20:51:13.453440,-33
2021-09-23 20:51:13.453445,-40
2021-09-23 20:51:13.453451,-60
2021-09-23 20:51:13.453457,-62
2021-09-23 20:51:13.453463,-57
2021-09-23 20:51:13.453469,-60
2021-09-23 20:51:13.453475,-50
2021-09-23 20:51:13.453481,-40
2021-09-23 20:51:13.453486,-43
2021-09-23 20:51:13.453492,-43
2021-09-23 20:51:13.453498,-31
2021-09-23 20:51:13.453504,-26
2021-09-23 20:51:13.453510,-24
2021-09-23 20:51:13.453516,-21
2021-09-23 20:51:13.453522,-31
2021-09-23 20:51:13.453528,-45
2021-09-23 20:51:13.453533,-40
2021-09-23 20:51:13.453539,-28
2021-09-23 20:51:13.453545,-21
2021-09-23 20:51:13.634259,-21
2021-09-23 20:51:13.634278,-12
2021-09-23 20:51:13.634286,0
2021-09-23 20:51:13.634292,-16
2021-09-23 20:51:13.634297,-43
2021-09-23 20:51:13.634303,-33
2021-09-23 20:51:13.634309,-21
2021-09-23 20:51:13.634314,-31
2021-09-23 20:51:13.634320,-14
2021-09-23 20:51:13.634326,31
2021-09-23 20:51:13.634331,177
2021-09-23 20:51:13.634337,560
2021-09-23 20:51:13.634343,1048
2021-09-23 20:51:13.634348,877
2021-09-23 20:51:13.634354,-197
2021-09-23 20:51:13.634360,-723
2021-09-23 20:51:13.634368,-197
2021-09-23 20:51:13.634374,26
2021-09-23 20:51:13.634380,-175
2021-09-23 20:51:13.634386,-101
2021-09-23 20:51:13.634391,12
2021-09-23 20:51:13.634397,-50
2021-09-23 20:51:13.634402,-60
2021-09-23 20:51:13.634408,-9
2021-09-23 20:51:13.634414,-14
2021-09-23 20:51:13.634419,-19
2021-09-23 20:51:13.634425,12
2021-09-23 20:51:13.634431,16
2021-09-23 20:51:13.634436,12
2021-09-23 20:51:13.634442,36
2021-09-23 20:51:13.858757,57
2021-09-23 20:51:13.858775,57
2021-09-23 20:51:13.858782,62
2021-09-23 20:51:13.858789,67
2021-09-23 20:51:13.858795,72
2021-09-23 20:51:13.858801,86
2021-09-23 20:51:13.858807,98
2021-09-23 20:51:13.858813,117
2021-09-23 20:51:13.858818,132
2021-09-23 20:51:13.858824,108
2021-09-23 20:51:13.858830,74
2021-09-23 20:51:13.858836,69
2021-09-23 20:51:13.858842,52
2021-09-23 20:51:13.858848,24
2021-09-23 20:51:13.858854,12
2021-09-23 20:51:13.858860,0
2021-09-23 20:51:13.858866,-24
2021-09-23 20:51:13.858872,-52
2021-09-23 20:51:13.858878,-81
2021-09-23 20:51:13.858883,-96
2021-09-23 20:51:13.858889,-110
2021-09-23 20:51:13.858895,-127
2021-09-23 20:51:13.858901,-117
2021-09-23 20:51:13.858907,-101
2021-09-23 20:51:13.858913,-98
2021-09-23 20:51:13.858918,-91
2021-09-23 20:51:13.858924,-84
2021-09-23 20:51:13.858930,-86
2021-09-23 20:51:13.858936,-79
2021-09-23 20:51:13.858942,-67
2021-09-23 20:51:14.039456,-64
2021-09-23 20:51:14.039477,-55
2021-09-23 20:51:14.039484,-43
2021-09-23 20:51:14.039490,-38
2021-09-23 20:51:14.039496,-40
2021-09-23 20:51:14.039502,-57
2021-09-23 20:51:14.039508,-76
2021-09-23 20:51:14.039514,-74
2021-09-23 20:51:14.039520,-69
2021-09-23 20:51:14.039525,-64
2021-09-23 20:51:14.039531,-57
2021-09-23 20:51:14.039537,-55
2021-09-23 20:51:14.039543,-55
2021-09-23 20:51:14.039552,-64
2021-09-23 20:51:14.039558,-76
2021-09-23 20:51:14.039564,-72
2021-09-23 20:51:14.039570,-60
2021-09-23 20:51:14.039576,-45
2021-09-23 20:51:14.039582,-28
2021-09-23 20:51:14.039587,-19
2021-09-23 20:51:14.039593,-19
2021-09-23 20:51:14.039599,-36
2021-09-23 20:51:14.039605,-50
2021-09-23 20:51:14.039611,-50
2021-09-23 20:51:14.039617,-38
2021-09-23 20:51:14.039622,-28
2021-09-23 20:51:14.039628,-21
2021-09-23 20:51:14.039634,-2
2021-09-23 20:51:14.039640,108
2021-09-23 20:51:14.039646,423
2021-09-23 20:51:14.264378,887
2021-09-23 20:51:14.264397,935
2021-09-23 20:51:14.264404,31
2021-09-23 20:51:14.264411,-750
2021-09-23 20:51:14.264417,-375
2021-09-23 20:51:14.264423,24
2021-09-23 20:51:14.264429,-132
2021-09-23 20:51:14.264435,-117
2021-09-23 20:51:14.264441,9
2021-09-23 20:51:14.264447,-40
2021-09-23 20:51:14.264453,-72
2021-09-23 20:51:14.264459,-19
2021-09-23 20:51:14.264465,-7
2021-09-23 20:51:14.264470,-7
2021-09-23 20:51:14.264476,19
2021-09-23 20:51:14.264482,26
2021-09-23 20:51:14.264488,9
2021-09-23 20:51:14.264494,21
2021-09-23 20:51:14.264500,48
2021-09-23 20:51:14.264506,52
2021-09-23 20:51:14.264511,67
2021-09-23 20:51:14.264517,96
2021-09-23 20:51:14.264523,103
2021-09-23 20:51:14.264529,108
2021-09-23 20:51:14.264534,125
2021-09-23 20:51:14.264540,149
2021-09-23 20:51:14.264546,163
2021-09-23 20:51:14.264552,151
2021-09-23 20:51:14.264557,129
2021-09-23 20:51:14.264563,125
2021-09-23 20:51:14.489294,110
2021-09-23 20:51:14.489315,74
2021-09-23 20:51:14.489322,33
2021-09-23 20:51:14.489328,-14
2021-09-23 20:51:14.489334,-57
2021-09-23 20:51:14.489339,-88
2021-09-23 20:51:14.489345,-110
2021-09-23 20:51:14.489351,-120
2021-09-23 20:51:14.489356,-132
2021-09-23 20:51:14.489362,-149
2021-09-23 20:51:14.489368,-151
2021-09-23 20:51:14.489373,-139
2021-09-23 20:51:14.489379,-134
2021-09-23 20:51:14.489384,-132
2021-09-23 20:51:14.489390,-115
2021-09-23 20:51:14.489396,-96
2021-09-23 20:51:14.489402,-84
2021-09-23 20:51:14.489410,-74
2021-09-23 20:51:14.489416,-69
2021-09-23 20:51:14.489422,-62
2021-09-23 20:51:14.489428,-55
2021-09-23 20:51:14.489434,-67
2021-09-23 20:51:14.489439,-69
2021-09-23 20:51:14.489445,-52
2021-09-23 20:51:14.489451,-40
2021-09-23 20:51:14.489457,-36
2021-09-23 20:51:14.489463,-45
2021-09-23 20:51:14.489468,-64
2021-09-23 20:51:14.489474,-62
2021-09-23 20:51:14.489480,-45
2021-09-23 20:51:14.759583,-52
2021-09-23 20:51:14.759604,-62
2021-09-23 20:51:14.759612,-60
2021-09-23 20:51:14.759618,-55
2021-09-23 20:51:14.759624,-43
2021-09-23 20:51:14.759630,-28
2021-09-23 20:51:14.759636,-28
2021-09-23 20:51:14.759642,-31
2021-09-23 20:51:14.759648,-28
2021-09-23 20:51:14.759653,-45
2021-09-23 20:51:14.759659,-57
2021-09-23 20:51:14.759665,-48
2021-09-23 20:51:14.759675,-36
2021-09-23 20:51:14.759682,-33
2021-09-23 20:51:14.759688,-21
2021-09-23 20:51:14.759694,84
2021-09-23 20:51:14.759700,404
2021-09-23 20:51:14.759706,911
2021-09-23 20:51:14.759712,1060
2021-09-23 20:51:14.759717,206
2021-09-23 20:51:14.759723,-670
2021-09-23 20:51:14.759729,-389
2021-09-23 20:51:14.759735,24
2021-09-23 20:51:14.759741,-139
2021-09-23 20:51:14.759747,-168
2021-09-23 20:51:14.759752,-31
2021-09-23 20:51:14.759758,-57
2021-09-23 20:51:14.759764,-88
2021-09-23 20:51:14.759769,-31
2021-09-23 20:51:14.759775,-12
2021-09-23 20:51:15.074451,-26
2021-09-23 20:51:15.074471,-7
2021-09-23 20:51:15.074478,7
2021-09-23 20:51:15.074485,0
2021-09-23 20:51:15.074491,9
2021-09-23 20:51:15.074496,31
2021-09-23 20:51:15.074502,43
2021-09-23 20:51:15.074508,45
2021-09-23 20:51:15.074514,45
2021-09-23 20:51:15.074520,50
2021-09-23 20:51:15.074526,74
2021-09-23 20:51:15.074532,88
2021-09-23 20:51:15.074538,81
2021-09-23 20:51:15.074544,79
2021-09-23 20:51:15.074549,84
2021-09-23 20:51:15.074555,74
2021-09-23 20:51:15.074561,62
2021-09-23 20:51:15.074567,52
2021-09-23 20:51:15.074573,40
2021-09-23 20:51:15.074579,21
2021-09-23 20:51:15.074585,-12
2021-09-23 20:51:15.074591,-50
2021-09-23 20:51:15.074597,-72
2021-09-23 20:51:15.074603,-79
2021-09-23 20:51:15.074608,-93
2021-09-23 20:51:15.074614,-115
2021-09-23 20:51:15.074620,-120
2021-09-23 20:51:15.074625,-117
2021-09-23 20:51:15.074631,-117
2021-09-23 20:51:15.074640,-103
2021-09-23 20:51:15.209447,-76
2021-09-23 20:51:15.209467,-86
2021-09-23 20:51:15.209475,-103
2021-09-23 20:51:15.209481,-84
2021-09-23 20:51:15.209487,-55
2021-09-23 20:51:15.209493,-43
2021-09-23 20:51:15.209499,-38
2021-09-23 20:51:15.209504,-33
2021-09-23 20:51:15.209510,-26
2021-09-23 20:51:15.209516,-24
2021-09-23 20:51:15.209526,-24
2021-09-23 20:51:15.209531,-19
2021-09-23 20:51:15.209537,-26
2021-09-23 20:51:15.209543,-38
2021-09-23 20:51:15.209549,-36
2021-09-23 20:51:15.209555,-31
2021-09-23 20:51:15.209560,-50
2021-09-23 20:51:15.209566,-62
2021-09-23 20:51:15.209572,-48
2021-09-23 20:51:15.209578,-31
2021-09-23 20:51:15.209583,-19
2021-09-23 20:51:15.209589,-12
2021-09-23 20:51:15.209595,-19
2021-09-23 20:51:15.209601,-31
2021-09-23 20:51:15.209606,-40
2021-09-23 20:51:15.209612,-55
2021-09-23 20:51:15.209618,-57
2021-09-23 20:51:15.209624,-33
2021-09-23 20:51:15.209629,-19
2021-09-23 20:51:15.209635,-7
2021-09-23 20:51:15.478124,84
2021-09-23 20:51:15.478145,372
2021-09-23 20:51:15.478152,877
2021-09-23 20:51:15.478158,1147
2021-09-23 20:51:15.478164,425
2021-09-23 20:51:15.478170,-567
2021-09-23 20:51:15.478176,-447
2021-09-23 20:51:15.478182,14
2021-09-23 20:51:15.478188,-110
2021-09-23 20:51:15.478194,-185
2021-09-23 20:51:15.478200,-48
2021-09-23 20:51:15.478206,-64
2021-09-23 20:51:15.478212,-108
2021-09-23 20:51:15.478218,-50
2021-09-23 20:51:15.478224,-21
2021-09-23 20:51:15.478230,-43
2021-09-23 20:51:15.478235,-38
2021-09-23 20:51:15.478241,-21
2021-09-23 20:51:15.478247,-31
2021-09-23 20:51:15.478253,-28
2021-09-23 20:51:15.478259,-12
2021-09-23 20:51:15.478265,-4
2021-09-23 20:51:15.478271,12
2021-09-23 20:51:15.478276,38
2021-09-23 20:51:15.478282,43
2021-09-23 20:51:15.478288,48
2021-09-23 20:51:15.478294,79
2021-09-23 20:51:15.478300,98
2021-09-23 20:51:15.478305,86
2021-09-23 20:51:15.478311,91
2021-09-23 20:51:15.659370,108
2021-09-23 20:51:15.659388,96
2021-09-23 20:51:15.659396,72
2021-09-23 20:51:15.659402,62
2021-09-23 20:51:15.659408,40
2021-09-23 20:51:15.659414,7
2021-09-23 20:51:15.659420,-24
2021-09-23 20:51:15.659426,-52
2021-09-23 20:51:15.659432,-84
2021-09-23 20:51:15.659438,-98
2021-09-23 20:51:15.659443,-93
2021-09-23 20:51:15.659449,-96
2021-09-23 20:51:15.659455,-115
2021-09-23 20:51:15.659461,-117
2021-09-23 20:51:15.659467,-98
2021-09-23 20:51:15.659472,-88
2021-09-23 20:51:15.659478,-79
2021-09-23 20:51:15.659484,-64
2021-09-23 20:51:15.659490,-60
2021-09-23 20:51:15.659495,-57
2021-09-23 20:51:15.659506,-57
2021-09-23 20:51:15.659512,-52
2021-09-23 20:51:15.659517,-43
2021-09-23 20:51:15.659523,-36
2021-09-23 20:51:15.659529,-38
2021-09-23 20:51:15.659535,-43
2021-09-23 20:51:15.659540,-28
2021-09-23 20:51:15.659546,-21
2021-09-23 20:51:15.659552,-38
2021-09-23 20:51:15.659558,-52
2021-09-23 20:51:15.884478,-36
2021-09-23 20:51:15.884498,-12
2021-09-23 20:51:15.884505,-4
2021-09-23 20:51:15.884511,-12
2021-09-23 20:51:15.884517,-9
2021-09-23 20:51:15.884523,-9
2021-09-23 20:51:15.884529,-28
2021-09-23 20:51:15.884535,-38
2021-09-23 20:51:15.884541,-31
2021-09-23 20:51:15.884546,-33
2021-09-23 20:51:15.884552,-31
2021-09-23 20:51:15.884558,-14
2021-09-23 20:51:15.884563,16
2021-09-23 20:51:15.884569,182
2021-09-23 20:51:15.884575,613
2021-09-23 20:51:15.884581,1125
2021-09-23 20:51:15.884586,911
2021-09-23 20:51:15.884592,-199
2021-09-23 20:51:15.884597,-678
2021-09-23 20:51:15.884603,-156
2021-09-23 20:51:15.884609,-2
2021-09-23 20:51:15.884614,-221
2021-09-23 20:51:15.884620,-139
2021-09-23 20:51:15.884625,-48
2021-09-23 20:51:15.884631,-113
2021-09-23 20:51:15.884637,-101
2021-09-23 20:51:15.884643,-50
2021-09-23 20:51:15.884648,-57
2021-09-23 20:51:15.884654,-43
2021-09-23 20:51:15.884659,-12
2021-09-23 20:51:16.153887,-16
2021-09-23 20:51:16.153907,-26
2021-09-23 20:51:16.153914,-12
2021-09-23 20:51:16.153920,4
2021-09-23 20:51:16.153926,21
2021-09-23 20:51:16.153932,33
2021-09-23 20:51:16.153938,36
2021-09-23 20:51:16.153944,57
2021-09-23 20:51:16.153949,86
2021-09-23 20:51:16.153955,98
2021-09-23 20:51:16.153961,103
2021-09-23 20:51:16.153967,108
2021-09-23 20:51:16.153972,105
2021-09-23 20:51:16.153978,105
2021-09-23 20:51:16.153984,98
2021-09-23 20:51:16.153990,74
2021-09-23 20:51:16.153995,48
2021-09-23 20:51:16.154001,19
2021-09-23 20:51:16.154007,-24
2021-09-23 20:51:16.154013,-57
2021-09-23 20:51:16.154018,-81
2021-09-23 20:51:16.154024,-105
2021-09-23 20:51:16.154029,-115
2021-09-23 20:51:16.154035,-105
2021-09-23 20:51:16.154041,-96
2021-09-23 20:51:16.154046,-103
2021-09-23 20:51:16.154052,-113
2021-09-23 20:51:16.154058,-105
2021-09-23 20:51:16.154063,-91
2021-09-23 20:51:16.154069,-79
2021-09-23 20:51:16.334464,-67
2021-09-23 20:51:16.334485,-72
2021-09-23 20:51:16.334492,-74
2021-09-23 20:51:16.334498,-55
2021-09-23 20:51:16.334504,-38
2021-09-23 20:51:16.334510,-38
2021-09-23 20:51:16.334516,-36
2021-09-23 20:51:16.334522,-28
2021-09-23 20:51:16.334528,-26
2021-09-23 20:51:16.334534,-38
2021-09-23 20:51:16.334540,-40
2021-09-23 20:51:16.334546,-21
2021-09-23 20:51:16.334552,-7
2021-09-23 20:51:16.334557,-4
2021-09-23 20:51:16.334563,-2
2021-09-23 20:51:16.334569,-21
2021-09-23 20:51:16.334575,-40
2021-09-23 20:51:16.334581,-38
2021-09-23 20:51:16.334587,-33
2021-09-23 20:51:16.334592,-24
2021-09-23 20:51:16.334598,-16
2021-09-23 20:51:16.334604,-16
2021-09-23 20:51:16.334613,12
2021-09-23 20:51:16.334619,189
2021-09-23 20:51:16.334625,603
2021-09-23 20:51:16.334631,1060
2021-09-23 20:51:16.334637,793
2021-09-23 20:51:16.334642,-271
2021-09-23 20:51:16.334648,-658
2021-09-23 20:51:16.334654,-161
2021-09-23 20:51:16.604471,-33
2021-09-23 20:51:16.604491,-187
2021-09-23 20:51:16.604498,-91
2021-09-23 20:51:16.604504,-43
2021-09-23 20:51:16.604510,-127
2021-09-23 20:51:16.604516,-96
2021-09-23 20:51:16.604522,-33
2021-09-23 20:51:16.604528,-43
2021-09-23 20:51:16.604534,-43
2021-09-23 20:51:16.604540,-28
2021-09-23 20:51:16.604546,-28
2021-09-23 20:51:16.604551,-19
2021-09-23 20:51:16.604557,0
2021-09-23 20:51:16.604563,4
2021-09-23 20:51:16.604569,9
2021-09-23 20:51:16.604574,26
2021-09-23 20:51:16.604580,43
2021-09-23 20:51:16.604586,57
2021-09-23 20:51:16.604592,81
2021-09-23 20:51:16.604597,108
2021-09-23 20:51:16.604603,117
2021-09-23 20:51:16.604609,115
2021-09-23 20:51:16.604614,110
2021-09-23 20:51:16.604620,113
2021-09-23 20:51:16.604625,103
2021-09-23 20:51:16.604631,76
2021-09-23 20:51:16.604637,38
2021-09-23 20:51:16.604642,-9
2021-09-23 20:51:16.604648,-48
2021-09-23 20:51:16.604654,-69
2021-09-23 20:51:16.873860,-101
2021-09-23 20:51:16.873879,-120
2021-09-23 20:51:16.873886,-120
2021-09-23 20:51:16.873892,-127
2021-09-23 20:51:16.873898,-125
2021-09-23 20:51:16.873904,-115
2021-09-23 20:51:16.873910,-113
2021-09-23 20:51:16.873915,-113
2021-09-23 20:51:16.873921,-103
2021-09-23 20:51:16.873927,-108
2021-09-23 20:51:16.873932,-113
2021-09-23 20:51:16.873938,-93
2021-09-23 20:51:16.873944,-69
2021-09-23 20:51:16.873950,-60
2021-09-23 20:51:16.873955,-55
2021-09-23 20:51:16.873961,-57
2021-09-23 20:51:16.873967,-50
2021-09-23 20:51:16.873972,-40
2021-09-23 20:51:16.873978,-33
2021-09-23 20:51:16.873984,-33
2021-09-23 20:51:16.873990,-45
2021-09-23 20:51:16.873995,-40
2021-09-23 20:51:16.874001,-7
2021-09-23 20:51:16.874007,9
2021-09-23 20:51:16.874013,0
2021-09-23 20:51:16.874018,-14
2021-09-23 20:51:16.874024,-31
2021-09-23 20:51:16.874030,-36
2021-09-23 20:51:16.874036,-24
2021-09-23 20:51:16.874042,-16
2021-09-23 20:51:17.144486,-21
2021-09-23 20:51:17.144507,-7
2021-09-23 20:51:17.144514,38
2021-09-23 20:51:17.144520,194
2021-09-23 20:51:17.144526,596
2021-09-23 20:51:17.144532,1041
2021-09-23 20:51:17.144538,745
2021-09-23 20:51:17.144544,-278
2021-09-23 20:51:17.144550,-598
2021-09-23 20:51:17.144556,-113
2021-09-23 20:51:17.144562,-26
2021-09-23 20:51:17.144568,-199
2021-09-23 20:51:17.144573,-105
2021-09-23 20:51:17.144579,-40
2021-09-23 20:51:17.144585,-103
2021-09-23 20:51:17.144590,-86
2021-09-23 20:51:17.144596,-33
2021-09-23 20:51:17.144602,-40
2021-09-23 20:51:17.144608,-43
2021-09-23 20:51:17.144613,-26
2021-09-23 20:51:17.144619,-21
2021-09-23 20:51:17.144625,-16
2021-09-23 20:51:17.144631,2
2021-09-23 20:51:17.144637,21
2021-09-23 20:51:17.144643,16
2021-09-23 20:51:17.144649,14
2021-09-23 20:51:17.144654,36
2021-09-23 20:51:17.144660,62
2021-09-23 20:51:17.144666,69
2021-09-23 20:51:17.144671,67
2021-09-23 20:51:17.324472,74
2021-09-23 20:51:17.324493,93
2021-09-23 20:51:17.324500,108
2021-09-23 20:51:17.324506,96
2021-09-23 20:51:17.324512,72
2021-09-23 20:51:17.324521,57
2021-09-23 20:51:17.324527,31
2021-09-23 20:51:17.324532,-9
2021-09-23 20:51:17.324538,-45
2021-09-23 20:51:17.324544,-76
2021-09-23 20:51:17.324550,-98
2021-09-23 20:51:17.324556,-110
2021-09-23 20:51:17.324562,-120
2021-09-23 20:51:17.324568,-117
2021-09-23 20:51:17.324573,-113
2021-09-23 20:51:17.324579,-117
2021-09-23 20:51:17.324585,-113
2021-09-23 20:51:17.324594,-105
2021-09-23 20:51:17.324600,-105
2021-09-23 20:51:17.324606,-101
2021-09-23 20:51:17.324612,-84
2021-09-23 20:51:17.324618,-84
2021-09-23 20:51:17.324624,-93
2021-09-23 20:51:17.324629,-79
2021-09-23 20:51:17.324635,-60
2021-09-23 20:51:17.324641,-62
2021-09-23 20:51:17.324646,-55
2021-09-23 20:51:17.324652,-45
2021-09-23 20:51:17.324658,-50
2021-09-23 20:51:17.324664,-45
2021-09-23 20:51:17.548139,-38
2021-09-23 20:51:17.548159,-57
2021-09-23 20:51:17.548166,-60
2021-09-23 20:51:17.548172,-33
2021-09-23 20:51:17.548178,-9
2021-09-23 20:51:17.548184,-4
2021-09-23 20:51:17.548190,-12
2021-09-23 20:51:17.548196,-21
2021-09-23 20:51:17.548201,-26
2021-09-23 20:51:17.548207,-40
2021-09-23 20:51:17.548213,-57
2021-09-23 20:51:17.548219,-57
2021-09-23 20:51:17.548225,-48
2021-09-23 20:51:17.548231,-45
2021-09-23 20:51:17.548237,-12
2021-09-23 20:51:17.548242,141
2021-09-23 20:51:17.548248,533
2021-09-23 20:51:17.548254,1048
2021-09-23 20:51:17.548260,933
2021-09-23 20:51:17.548266,-38
2021-09-23 20:51:17.548271,-548
2021-09-23 20:51:17.548277,-161
2021-09-23 20:51:17.548283,-19
2021-09-23 20:51:17.548289,-202
2021-09-23 20:51:17.548294,-129
2021-09-23 20:51:17.548300,-31
2021-09-23 20:51:17.548306,-86
2021-09-23 20:51:17.548312,-88
2021-09-23 20:51:17.548317,-38
2021-09-23 20:51:17.548323,-36
2021-09-23 20:51:17.863810,-38
2021-09-23 20:51:17.863827,-26
2021-09-23 20:51:17.863834,-28
2021-09-23 20:51:17.863841,-16
2021-09-23 20:51:17.863847,4
2021-09-23 20:51:17.863853,9
2021-09-23 20:51:17.863859,2
2021-09-23 20:51:17.863864,9
2021-09-23 20:51:17.863870,31
2021-09-23 20:51:17.863876,43
2021-09-23 20:51:17.863882,43
2021-09-23 20:51:17.863888,55
2021-09-23 20:51:17.863894,64
2021-09-23 20:51:17.863900,64
2021-09-23 20:51:17.863906,72
2021-09-23 20:51:17.863912,81
2021-09-23 20:51:17.863917,79
2021-09-23 20:51:17.863923,50
2021-09-23 20:51:17.863929,21
2021-09-23 20:51:17.863935,7
2021-09-23 20:51:17.863941,-21
2021-09-23 20:51:17.863947,-64
2021-09-23 20:51:17.863953,-84
2021-09-23 20:51:17.863958,-84
2021-09-23 20:51:17.863964,-81
2021-09-23 20:51:17.863970,-84
2021-09-23 20:51:17.863976,-86
2021-09-23 20:51:17.863981,-88
2021-09-23 20:51:17.863987,-98
2021-09-23 20:51:17.863993,-108
2021-09-23 20:51:17.954507,-105
2021-09-23 20:51:17.954526,-105
2021-09-23 20:51:17.954533,-101
2021-09-23 20:51:17.954539,-91
2021-09-23 20:51:17.954545,-91
2021-09-23 20:51:17.954551,-93
2021-09-23 20:51:17.954557,-88
2021-09-23 20:51:17.954563,-84
2021-09-23 20:51:17.954569,-79
2021-09-23 20:51:17.954575,-69
2021-09-23 20:51:17.954581,-57
2021-09-23 20:51:17.954586,-55
2021-09-23 20:51:17.954592,-48
2021-09-23 20:51:17.954598,-38
2021-09-23 20:51:17.954604,-43
2021-09-23 20:51:17.954609,-38
2021-09-23 20:51:17.954615,-33
2021-09-23 20:51:17.954621,-48
2021-09-23 20:51:17.954626,-62
2021-09-23 20:51:17.954632,-45
2021-09-23 20:51:17.954638,-24
2021-09-23 20:51:17.954644,-26
2021-09-23 20:51:17.954649,-26
2021-09-23 20:51:17.954655,-12
2021-09-23 20:51:17.954661,-19
2021-09-23 20:51:17.954667,-38
2021-09-23 20:51:17.954672,-28
2021-09-23 20:51:17.954678,-16
2021-09-23 20:51:17.954684,-21
2021-09-23 20:51:17.954690,-26
2021-09-23 20:51:18.179479,-7
2021-09-23 20:51:18.179505,79
2021-09-23 20:51:18.179513,329
2021-09-23 20:51:18.179519,810
2021-09-23 20:51:18.179524,1111
2021-09-23 20:51:18.179530,488
2021-09-23 20:51:18.179536,-449
2021-09-23 20:51:18.179542,-399
2021-09-23 20:51:18.179548,14
2021-09-23 20:51:18.179554,-101
2021-09-23 20:51:18.179560,-192
2021-09-23 20:51:18.179565,-55
2021-09-23 20:51:18.179571,-48
2021-09-23 20:51:18.179578,-93
2021-09-23 20:51:18.179583,-52
2021-09-23 20:51:18.179589,-28
2021-09-23 20:51:18.179595,-43
2021-09-23 20:51:18.179601,-28
2021-09-23 20:51:18.179607,-9
2021-09-23 20:51:18.179613,-12
2021-09-23 20:51:18.179619,-7
2021-09-23 20:51:18.179624,7
2021-09-23 20:51:18.179630,12
2021-09-23 20:51:18.179636,26
2021-09-23 20:51:18.179642,40
2021-09-23 20:51:18.179647,45
2021-09-23 20:51:18.179653,67
2021-09-23 20:51:18.179659,93
2021-09-23 20:51:18.179664,96
2021-09-23 20:51:18.179670,88
2021-09-23 20:51:18.449511,91
2021-09-23 20:51:18.449532,103
2021-09-23 20:51:18.449540,96
2021-09-23 20:51:18.449546,79
2021-09-23 20:51:18.449552,62
2021-09-23 20:51:18.449558,36
2021-09-23 20:51:18.449564,2
2021-09-23 20:51:18.449570,-19
2021-09-23 20:51:18.449576,-45
2021-09-23 20:51:18.449581,-86
2021-09-23 20:51:18.449587,-98
2021-09-23 20:51:18.449593,-84
2021-09-23 20:51:18.449599,-79
2021-09-23 20:51:18.449605,-88
2021-09-23 20:51:18.449610,-91
2021-09-23 20:51:18.449616,-96
2021-09-23 20:51:18.449622,-101
2021-09-23 20:51:18.449628,-93
2021-09-23 20:51:18.449634,-84
2021-09-23 20:51:18.449640,-88
2021-09-23 20:51:18.449646,-93
2021-09-23 20:51:18.449651,-88
2021-09-23 20:51:18.449657,-93
2021-09-23 20:51:18.449663,-98
2021-09-23 20:51:18.449668,-84
2021-09-23 20:51:18.449674,-60
2021-09-23 20:51:18.449680,-57
2021-09-23 20:51:18.449685,-60
2021-09-23 20:51:18.449691,-50
2021-09-23 20:51:18.449697,-40
2021-09-23 20:51:18.674304,-40
2021-09-23 20:51:18.674323,-40
2021-09-23 20:51:18.674330,-38
2021-09-23 20:51:18.674336,-36
2021-09-23 20:51:18.674342,-36
2021-09-23 20:51:18.674348,-38
2021-09-23 20:51:18.674354,-28
2021-09-23 20:51:18.674360,-19
2021-09-23 20:51:18.674366,-24
2021-09-23 20:51:18.674372,-40
2021-09-23 20:51:18.674378,-40
2021-09-23 20:51:18.674384,-33
2021-09-23 20:51:18.674390,-31
2021-09-23 20:51:18.674396,-28
2021-09-23 20:51:18.674402,-24
2021-09-23 20:51:18.674408,-19
2021-09-23 20:51:18.674413,-2
2021-09-23 20:51:18.674419,0
2021-09-23 20:51:18.674425,-19
2021-09-23 20:51:18.674431,-26
2021-09-23 20:51:18.674437,-16
2021-09-23 20:51:18.674442,-24
2021-09-23 20:51:18.674448,-38
2021-09-23 20:51:18.674454,-19
2021-09-23 20:51:18.674460,12
2021-09-23 20:51:18.674466,86
2021-09-23 20:51:18.674472,341
2021-09-23 20:51:18.674478,810
2021-09-23 20:51:18.674483,1077
2021-09-23 20:51:18.674489,449
2021-09-23 20:51:18.899494,-456
2021-09-23 20:51:18.899514,-382
2021-09-23 20:51:18.899522,26
2021-09-23 20:51:18.899528,-91
2021-09-23 20:51:18.899534,-170
2021-09-23 20:51:18.899540,-28
2021-09-23 20:51:18.899546,-28
2021-09-23 20:51:18.899552,-81
2021-09-23 20:51:18.899558,-43
2021-09-23 20:51:18.899563,-12
2021-09-23 20:51:18.899569,-19
2021-09-23 20:51:18.899575,-9
2021-09-23 20:51:18.899581,2
2021-09-23 20:51:18.899587,-4
2021-09-23 20:51:18.899592,-9
2021-09-23 20:51:18.899598,-4
2021-09-23 20:51:18.899604,9
2021-09-23 20:51:18.899610,28
2021-09-23 20:51:18.899616,31
2021-09-23 20:51:18.899622,24
2021-09-23 20:51:18.899627,40
2021-09-23 20:51:18.899633,64
2021-09-23 20:51:18.899639,72
2021-09-23 20:51:18.899645,72
2021-09-23 20:51:18.899651,84
2021-09-23 20:51:18.899657,86
2021-09-23 20:51:18.899662,79
2021-09-23 20:51:18.899668,67
2021-09-23 20:51:18.899674,45
2021-09-23 20:51:18.899680,26
2021-09-23 20:51:19.124504,0
2021-09-23 20:51:19.124524,-36
2021-09-23 20:51:19.124531,-67
2021-09-23 20:51:19.124537,-91
2021-09-23 20:51:19.124543,-110
2021-09-23 20:51:19.124549,-103
2021-09-23 20:51:19.124555,-93
2021-09-23 20:51:19.124560,-105
2021-09-23 20:51:19.124566,-113
2021-09-23 20:51:19.124572,-113
2021-09-23 20:51:19.124578,-105
2021-09-23 20:51:19.124591,-98
2021-09-23 20:51:19.124597,-105
2021-09-23 20:51:19.124603,-105
2021-09-23 20:51:19.124609,-96
2021-09-23 20:51:19.124615,-91
2021-09-23 20:51:19.124621,-81
2021-09-23 20:51:19.124626,-84
2021-09-23 20:51:19.124632,-84
2021-09-23 20:51:19.124638,-72
2021-09-23 20:51:19.124644,-57
2021-09-23 20:51:19.124649,-52
2021-09-23 20:51:19.124655,-55
2021-09-23 20:51:19.124661,-48
2021-09-23 20:51:19.124667,-40
2021-09-23 20:51:19.124672,-36
2021-09-23 20:51:19.124678,-38
2021-09-23 20:51:19.124684,-43
2021-09-23 20:51:19.124690,-38
2021-09-23 20:51:19.124695,-26
2021-09-23 20:51:19.349500,-26
2021-09-23 20:51:19.349519,-31
2021-09-23 20:51:19.349526,-28
2021-09-23 20:51:19.349532,-24
2021-09-23 20:51:19.349538,-24
2021-09-23 20:51:19.349544,-28
2021-09-23 20:51:19.349550,-33
2021-09-23 20:51:19.349556,-26
2021-09-23 20:51:19.349562,-7
2021-09-23 20:51:19.349568,-9
2021-09-23 20:51:19.349574,-26
2021-09-23 20:51:19.349580,-26
2021-09-23 20:51:19.349586,-21
2021-09-23 20:51:19.349592,-33
2021-09-23 20:51:19.349598,-26
2021-09-23 20:51:19.349604,-7
2021-09-23 20:51:19.349610,0
2021-09-23 20:51:19.349615,12
2021-09-23 20:51:19.349621,16
2021-09-23 20:51:19.349627,0
2021-09-23 20:51:19.349633,-14
2021-09-23 20:51:19.349638,-9
2021-09-23 20:51:19.349644,0
2021-09-23 20:51:19.349650,-4
2021-09-23 20:51:19.349656,-2
2021-09-23 20:51:19.349662,40
2021-09-23 20:51:19.349668,204
2021-09-23 20:51:19.349673,586
2021-09-23 20:51:19.349679,1046
2021-09-23 20:51:19.349685,841
2021-09-23 20:51:19.618162,-156
2021-09-23 20:51:19.618182,-569
2021-09-23 20:51:19.618189,-127
2021-09-23 20:51:19.618196,-16
2021-09-23 20:51:19.618202,-189
2021-09-23 20:51:19.618207,-105
2021-09-23 20:51:19.618213,-33
2021-09-23 20:51:19.618219,-88
2021-09-23 20:51:19.618225,-74
2021-09-23 20:51:19.618231,-33
2021-09-23 20:51:19.618237,-36
2021-09-23 20:51:19.618243,-43
2021-09-23 20:51:19.618248,-40
2021-09-23 20:51:19.618254,-36
2021-09-23 20:51:19.618260,-24
2021-09-23 20:51:19.618265,-16
2021-09-23 20:51:19.618271,-9
2021-09-23 20:51:19.618277,4
2021-09-23 20:51:19.618283,16
2021-09-23 20:51:19.618289,16
2021-09-23 20:51:19.618295,26
2021-09-23 20:51:19.618300,40
2021-09-23 20:51:19.618306,52
2021-09-23 20:51:19.618312,64
2021-09-23 20:51:19.618318,67
2021-09-23 20:51:19.618324,62
2021-09-23 20:51:19.618329,62
2021-09-23 20:51:19.618335,57
2021-09-23 20:51:19.618341,50
2021-09-23 20:51:19.618347,45
2021-09-23 20:51:19.799651,21
2021-09-23 20:51:19.799673,-12
2021-09-23 20:51:19.799680,-38
2021-09-23 20:51:19.799686,-62
2021-09-23 20:51:19.799692,-79
2021-09-23 20:51:19.799698,-98
2021-09-23 20:51:19.799704,-108
2021-09-23 20:51:19.799710,-98
2021-09-23 20:51:19.799716,-84
2021-09-23 20:51:19.799721,-79
2021-09-23 20:51:19.799727,-91
2021-09-23 20:51:19.799733,-103
2021-09-23 20:51:19.799739,-103
2021-09-23 20:51:19.799745,-88
2021-09-23 20:51:19.799751,-74
2021-09-23 20:51:19.799757,-76
2021-09-23 20:51:19.799762,-79
2021-09-23 20:51:19.799768,-67
2021-09-23 20:51:19.799774,-48
2021-09-23 20:51:19.799780,-33
2021-09-23 20:51:19.799786,-33
2021-09-23 20:51:19.799791,-40
2021-09-23 20:51:19.799797,-31
2021-09-23 20:51:19.799803,-24
2021-09-23 20:51:19.799809,-24
2021-09-23 20:51:19.799814,-19
2021-09-23 20:51:19.799820,-21
2021-09-23 20:51:19.799826,-33
2021-09-23 20:51:19.799832,-36
2021-09-23 20:51:19.799837,-33
2021-09-23 20:51:20.024529,-28
2021-09-23 20:51:20.024550,-24
2021-09-23 20:51:20.024557,-21
2021-09-23 20:51:20.024563,-33
2021-09-23 20:51:20.024569,-36
2021-09-23 20:51:20.024575,-26
2021-09-23 20:51:20.024581,-28
2021-09-23 20:51:20.024587,-31
2021-09-23 20:51:20.024593,-26
2021-09-23 20:51:20.024599,-38
2021-09-23 20:51:20.024604,-60
2021-09-23 20:51:20.024610,-57
2021-09-23 20:51:20.024616,-50
2021-09-23 20:51:20.024621,-43
2021-09-23 20:51:20.024627,-38
2021-09-23 20:51:20.024633,-38
2021-09-23 20:51:20.024638,-28
2021-09-23 20:51:20.024644,-21
2021-09-23 20:51:20.024650,-19
2021-09-23 20:51:20.024655,-7
2021-09-23 20:51:20.024661,2
2021-09-23 20:51:20.024667,-7
2021-09-23 20:51:20.024673,-28
2021-09-23 20:51:20.024678,-36
2021-09-23 20:51:20.024684,-26
2021-09-23 20:51:20.024690,-14
2021-09-23 20:51:20.024695,-14
2021-09-23 20:51:20.024701,-21
2021-09-23 20:51:20.024707,14
2021-09-23 20:51:20.024712,194
2021-09-23 20:51:20.294508,598
2021-09-23 20:51:20.294527,1062
2021-09-23 20:51:20.294535,805
2021-09-23 20:51:20.294541,-254
2021-09-23 20:51:20.294547,-630
2021-09-23 20:51:20.294553,-120
2021-09-23 20:51:20.294559,-7
2021-09-23 20:51:20.294565,-194
2021-09-23 20:51:20.294579,-101
2021-09-23 20:51:20.294585,-31
2021-09-23 20:51:20.294591,-105
2021-09-23 20:51:20.294597,-86
2021-09-23 20:51:20.294603,-24
2021-09-23 20:51:20.294608,-26
2021-09-23 20:51:20.294614,-26
2021-09-23 20:51:20.294620,-9
2021-09-23 20:51:20.294626,-7
2021-09-23 20:51:20.294632,2
2021-09-23 20:51:20.294638,12
2021-09-23 20:51:20.294643,14
2021-09-23 20:51:20.294649,24
2021-09-23 20:51:20.294655,40
2021-09-23 20:51:20.294661,57
2021-09-23 20:51:20.294667,69
2021-09-23 20:51:20.294673,86
2021-09-23 20:51:20.294678,103
2021-09-23 20:51:20.294684,105
2021-09-23 20:51:20.294690,103
2021-09-23 20:51:20.294696,113
2021-09-23 20:51:20.294702,110
2021-09-23 20:51:20.519537,93
2021-09-23 20:51:20.519558,79
2021-09-23 20:51:20.519565,57
2021-09-23 20:51:20.519571,33
2021-09-23 20:51:20.519577,12
2021-09-23 20:51:20.519583,-28
2021-09-23 20:51:20.519589,-67
2021-09-23 20:51:20.519595,-67
2021-09-23 20:51:20.519601,-72
2021-09-23 20:51:20.519607,-96
2021-09-23 20:51:20.519612,-93
2021-09-23 20:51:20.519618,-84
2021-09-23 20:51:20.519623,-88
2021-09-23 20:51:20.519629,-93
2021-09-23 20:51:20.519635,-110
2021-09-23 20:51:20.519641,-125
2021-09-23 20:51:20.519646,-110
2021-09-23 20:51:20.519652,-84
2021-09-23 20:51:20.519658,-69
2021-09-23 20:51:20.519663,-67
2021-09-23 20:51:20.519669,-64
2021-09-23 20:51:20.519675,-64
2021-09-23 20:51:20.519681,-62
2021-09-23 20:51:20.519686,-52
2021-09-23 20:51:20.519692,-43
2021-09-23 20:51:20.519697,-33
2021-09-23 20:51:20.519703,-38
2021-09-23 20:51:20.519709,-45
2021-09-23 20:51:20.519715,-31
2021-09-23 20:51:20.519721,-19
2021-09-23 20:51:20.833890,-31
2021-09-23 20:51:20.833909,-33
2021-09-23 20:51:20.833916,-36
2021-09-23 20:51:20.833922,-55
2021-09-23 20:51:20.833928,-50
2021-09-23 20:51:20.833934,-38
2021-09-23 20:51:20.833940,-50
2021-09-23 20:51:20.833946,-55
2021-09-23 20:51:20.833952,-48
2021-09-23 20:51:20.833958,-52
2021-09-23 20:51:20.833964,-55
2021-09-23 20:51:20.833970,-48
2021-09-23 20:51:20.833976,-40
2021-09-23 20:51:20.833982,-43
2021-09-23 20:51:20.833987,-45
2021-09-23 20:51:20.833994,-40
2021-09-23 20:51:20.833999,-33
2021-09-23 20:51:20.834005,-38
2021-09-23 20:51:20.834011,-43
2021-09-23 20:51:20.834017,-24
2021-09-23 20:51:20.834023,-4
2021-09-23 20:51:20.834028,-4
2021-09-23 20:51:20.834034,-4
2021-09-23 20:51:20.834040,-4
2021-09-23 20:51:20.834046,-19
2021-09-23 20:51:20.834051,-33
2021-09-23 20:51:20.834057,-33
2021-09-23 20:51:20.834063,-16
2021-09-23 20:51:20.834069,2
2021-09-23 20:51:20.834074,12
2021-09-23 20:51:21.104009,31
2021-09-23 20:51:21.104031,170
2021-09-23 20:51:21.104038,538
2021-09-23 20:51:21.104044,973
2021-09-23 20:51:21.104050,791
2021-09-23 20:51:21.104056,-209
2021-09-23 20:51:21.104062,-678
2021-09-23 20:51:21.104068,-189
2021-09-23 20:51:21.104074,7
2021-09-23 20:51:21.104080,-161
2021-09-23 20:51:21.104086,-81
2021-09-23 20:51:21.104092,7
2021-09-23 20:51:21.104097,-55
2021-09-23 20:51:21.104103,-67
2021-09-23 20:51:21.104109,-28
2021-09-23 20:51:21.104115,-21
2021-09-23 20:51:21.104121,-9
2021-09-23 20:51:21.104127,7
2021-09-23 20:51:21.104133,12
2021-09-23 20:51:21.104139,19
2021-09-23 20:51:21.104144,21
2021-09-23 20:51:21.104150,28
2021-09-23 20:51:21.104156,50
2021-09-23 20:51:21.104162,64
2021-09-23 20:51:21.104168,62
2021-09-23 20:51:21.104173,67
2021-09-23 20:51:21.104179,84
2021-09-23 20:51:21.104185,105
2021-09-23 20:51:21.104191,132
2021-09-23 20:51:21.104196,149
2021-09-23 20:51:21.194555,137
2021-09-23 20:51:21.194576,125
2021-09-23 20:51:21.194583,117
2021-09-23 20:51:21.194589,101
2021-09-23 20:51:21.194595,69
2021-09-23 20:51:21.194601,33
2021-09-23 20:51:21.194607,-2
2021-09-23 20:51:21.194613,-38
2021-09-23 20:51:21.194619,-67
2021-09-23 20:51:21.194625,-86
2021-09-23 20:51:21.194630,-103
2021-09-23 20:51:21.194636,-113
2021-09-23 20:51:21.194642,-122
2021-09-23 20:51:21.194648,-127
2021-09-23 20:51:21.194654,-125
2021-09-23 20:51:21.194659,-117
2021-09-23 20:51:21.194665,-108
2021-09-23 20:51:21.194671,-105
2021-09-23 20:51:21.194677,-108
2021-09-23 20:51:21.194682,-101
2021-09-23 20:51:21.194688,-91
2021-09-23 20:51:21.194694,-84
2021-09-23 20:51:21.194700,-69
2021-09-23 20:51:21.194705,-55
2021-09-23 20:51:21.194711,-60
2021-09-23 20:51:21.194717,-62
2021-09-23 20:51:21.194723,-55
2021-09-23 20:51:21.194728,-55
2021-09-23 20:51:21.194734,-45
2021-09-23 20:51:21.194740,-33
2021-09-23 20:51:21.464454,-43
2021-09-23 20:51:21.464472,-57
2021-09-23 20:51:21.464479,-50
2021-09-23 20:51:21.464485,-38
2021-09-23 20:51:21.464491,-26
2021-09-23 20:51:21.464497,-33
2021-09-23 20:51:21.464503,-60
2021-09-23 20:51:21.464508,-62
2021-09-23 20:51:21.464514,-36
2021-09-23 20:51:21.464520,-45
2021-09-23 20:51:21.464526,-72
2021-09-23 20:51:21.464532,-67
2021-09-23 20:51:21.464538,-52
2021-09-23 20:51:21.464544,-36
2021-09-23 20:51:21.464549,-19
2021-09-23 20:51:21.464555,-19
2021-09-23 20:51:21.464561,-16
2021-09-23 20:51:21.464567,-9
2021-09-23 20:51:21.464572,-31
2021-09-23 20:51:21.464578,-52
2021-09-23 20:51:21.464584,-43
2021-09-23 20:51:21.464590,-26
2021-09-23 20:51:21.464595,-16
2021-09-23 20:51:21.464607,-4
2021-09-23 20:51:21.464613,40
2021-09-23 20:51:21.464619,209
2021-09-23 20:51:21.464625,591
2021-09-23 20:51:21.464631,1010
2021-09-23 20:51:21.464637,709
2021-09-23 20:51:21.464643,-324
2021-09-23 20:51:21.733197,-632
2021-09-23 20:51:21.733217,-108
2021-09-23 20:51:21.733224,-4
2021-09-23 20:51:21.733230,-168
2021-09-23 20:51:21.733237,-72
2021-09-23 20:51:21.733243,-21
2021-09-23 20:51:21.733249,-79
2021-09-23 20:51:21.733254,-50
2021-09-23 20:51:21.733261,-12
2021-09-23 20:51:21.733266,-31
2021-09-23 20:51:21.733272,-24
2021-09-23 20:51:21.733278,0
2021-09-23 20:51:21.733284,0
2021-09-23 20:51:21.733290,7
2021-09-23 20:51:21.733296,26
2021-09-23 20:51:21.733302,31
2021-09-23 20:51:21.733308,26
2021-09-23 20:51:21.733314,28
2021-09-23 20:51:21.733320,52
2021-09-23 20:51:21.733326,79
2021-09-23 20:51:21.733332,86
2021-09-23 20:51:21.733338,91
2021-09-23 20:51:21.733343,105
2021-09-23 20:51:21.733349,125
2021-09-23 20:51:21.733355,137
2021-09-23 20:51:21.733361,125
2021-09-23 20:51:21.733367,105
2021-09-23 20:51:21.733373,98
2021-09-23 20:51:21.733378,81
2021-09-23 20:51:21.733384,43
2021-09-23 20:51:21.958902,-9
2021-09-23 20:51:21.958922,-57
2021-09-23 20:51:21.958929,-79
2021-09-23 20:51:21.958935,-105
2021-09-23 20:51:21.958941,-141
2021-09-23 20:51:21.958947,-141
2021-09-23 20:51:21.958952,-110
2021-09-23 20:51:21.958958,-113
2021-09-23 20:51:21.958964,-137
2021-09-23 20:51:21.958970,-127
2021-09-23 20:51:21.958976,-125
2021-09-23 20:51:21.958982,-139
2021-09-23 20:51:21.958988,-125
2021-09-23 20:51:21.958994,-98
2021-09-23 20:51:21.958999,-93
2021-09-23 20:51:21.959005,-81
2021-09-23 20:51:21.959011,-74
2021-09-23 20:51:21.959016,-79
2021-09-23 20:51:21.959022,-64
2021-09-23 20:51:21.959028,-45
2021-09-23 20:51:21.959034,-48
2021-09-23 20:51:21.959040,-55
2021-09-23 20:51:21.959046,-52
2021-09-23 20:51:21.959051,-40
2021-09-23 20:51:21.959057,-31
2021-09-23 20:51:21.959063,-33
2021-09-23 20:51:21.959069,-43
2021-09-23 20:51:21.959074,-33
2021-09-23 20:51:21.959080,-21
2021-09-23 20:51:21.959086,-33
2021-09-23 20:51:22.094543,-43
2021-09-23 20:51:22.094564,-36
2021-09-23 20:51:22.094571,-43
2021-09-23 20:51:22.094577,-48
2021-09-23 20:51:22.094583,-36
2021-09-23 20:51:22.094589,-33
2021-09-23 20:51:22.094595,-33
2021-09-23 20:51:22.094601,-24
2021-09-23 20:51:22.094607,-19
2021-09-23 20:51:22.094613,-36
2021-09-23 20:51:22.094619,-43
2021-09-23 20:51:22.094625,-36
2021-09-23 20:51:22.094630,-31
2021-09-23 20:51:22.094636,-19
2021-09-23 20:51:22.094642,-12
2021-09-23 20:51:22.094648,-16
2021-09-23 20:51:22.094654,-9
2021-09-23 20:51:22.094659,4
2021-09-23 20:51:22.094665,0
2021-09-23 20:51:22.094671,-9
2021-09-23 20:51:22.094677,-12
2021-09-23 20:51:22.094683,-9
2021-09-23 20:51:22.094688,-9
2021-09-23 20:51:22.094694,-12
2021-09-23 20:51:22.094700,7
2021-09-23 20:51:22.094706,69
2021-09-23 20:51:22.094711,257
2021-09-23 20:51:22.094717,680
2021-09-23 20:51:22.094723,1113
2021-09-23 20:51:22.094729,779
2021-09-23 20:51:22.454055,-238
2021-09-23 20:51:22.454078,-519
2021-09-23 20:51:22.454085,-81
2021-09-23 20:51:22.454091,-43
2021-09-23 20:51:22.454097,-177
2021-09-23 20:51:22.454104,-72
2021-09-23 20:51:22.454110,-19
2021-09-23 20:51:22.454116,-62
2021-09-23 20:51:22.454122,-45
2021-09-23 20:51:22.454128,-26
2021-09-23 20:51:22.454134,-45
2021-09-23 20:51:22.454140,-38
2021-09-23 20:51:22.454146,-19
2021-09-23 20:51:22.454152,-19
2021-09-23 20:51:22.454158,-19
2021-09-23 20:51:22.454164,-9
2021-09-23 20:51:22.454170,4
2021-09-23 20:51:22.454176,7
2021-09-23 20:51:22.454181,14
2021-09-23 20:51:22.454187,36
2021-09-23 20:51:22.454193,48
2021-09-23 20:51:22.454199,52
2021-09-23 20:51:22.454205,62
2021-09-23 20:51:22.454211,72
2021-09-23 20:51:22.454217,74
2021-09-23 20:51:22.454223,74
2021-09-23 20:51:22.454229,76
2021-09-23 20:51:22.454235,74
2021-09-23 20:51:22.454241,55
2021-09-23 20:51:22.454247,43
2021-09-23 20:51:22.589565,28
2021-09-23 20:51:22.589585,-7
2021-09-23 20:51:22.589592,-48
2021-09-23 20:51:22.589598,-62
2021-09-23 20:51:22.589604,-64
2021-09-23 20:51:22.589610,-76
2021-09-23 20:51:22.589616,-86
2021-09-23 20:51:22.589621,-93
2021-09-23 20:51:22.589627,-122
2021-09-23 20:51:22.589633,-139
2021-09-23 20:51:22.589638,-113
2021-09-23 20:51:22.589644,-103
2021-09-23 20:51:22.589650,-105
2021-09-23 20:51:22.589655,-96
2021-09-23 20:51:22.589661,-98
2021-09-23 20:51:22.589667,-103
2021-09-23 20:51:22.589673,-86
2021-09-23 20:51:22.589679,-69
2021-09-23 20:51:22.589684,-64
2021-09-23 20:51:22.589690,-55
2021-09-23 20:51:22.589696,-45
2021-09-23 20:51:22.589701,-48
2021-09-23 20:51:22.589707,-45
2021-09-23 20:51:22.589713,-38
2021-09-23 20:51:22.589718,-36
2021-09-23 20:51:22.589724,-38
2021-09-23 20:51:22.589730,-33
2021-09-23 20:51:22.589736,-26
2021-09-23 20:51:22.589742,-19
2021-09-23 20:51:22.589747,-7
2021-09-23 20:51:22.948934,-2
2021-09-23 20:51:22.948955,-14
2021-09-23 20:51:22.948963,-33
2021-09-23 20:51:22.948969,-43
2021-09-23 20:51:22.948975,-28
2021-09-23 20:51:22.948981,-16
2021-09-23 20:51:22.948987,-19
2021-09-23 20:51:22.948993,-21
2021-09-23 20:51:22.948999,-26
2021-09-23 20:51:22.949004,-24
2021-09-23 20:51:22.949010,-9
2021-09-23 20:51:22.949017,12
2021-09-23 20:51:22.949023,9
2021-09-23 20:51:22.949028,-9
2021-09-23 20:51:22.949034,-7
2021-09-23 20:51:22.949040,-2
2021-09-23 20:51:22.949046,-19
2021-09-23 20:51:22.949052,-19
2021-09-23 20:51:22.949058,0
2021-09-23 20:51:22.949064,4
2021-09-23 20:51:22.949069,-7
2021-09-23 20:51:22.949075,12
2021-09-23 20:51:22.949081,98
2021-09-23 20:51:22.949087,353
2021-09-23 20:51:22.949093,851
2021-09-23 20:51:22.949099,1209
2021-09-23 20:51:22.949105,591
2021-09-23 20:51:22.949110,-464
2021-09-23 20:51:22.949116,-461
2021-09-23 20:51:22.949125,19
2021-09-23 20:51:23.040149,-74
2021-09-23 20:51:23.040171,-192
2021-09-23 20:51:23.040179,-48
2021-09-23 20:51:23.040185,-16
2021-09-23 20:51:23.040191,-79
2021-09-23 20:51:23.040198,-50
2021-09-23 20:51:23.040204,-16
2021-09-23 20:51:23.040210,-21
2021-09-23 20:51:23.040217,-16
2021-09-23 20:51:23.040223,-9
2021-09-23 20:51:23.040229,-7
2021-09-23 20:51:23.040235,9
2021-09-23 20:51:23.040242,24
2021-09-23 20:51:23.040248,19
2021-09-23 20:51:23.040254,12
2021-09-23 20:51:23.040260,28
2021-09-23 20:51:23.040266,64
2021-09-23 20:51:23.040273,76
2021-09-23 20:51:23.040279,69
2021-09-23 20:51:23.040285,76
2021-09-23 20:51:23.040291,103
2021-09-23 20:51:23.040297,120
2021-09-23 20:51:23.040303,117
2021-09-23 20:51:23.040310,108
2021-09-23 20:51:23.040316,91
2021-09-23 20:51:23.040322,72
2021-09-23 20:51:23.040328,50
2021-09-23 20:51:23.040335,7
2021-09-23 20:51:23.040341,-36
2021-09-23 20:51:23.040347,-62
2021-09-23 20:51:23.264519,-91
2021-09-23 20:51:23.264538,-113
2021-09-23 20:51:23.264545,-115
2021-09-23 20:51:23.264551,-115
2021-09-23 20:51:23.264557,-113
2021-09-23 20:51:23.264563,-127
2021-09-23 20:51:23.264568,-146
2021-09-23 20:51:23.264574,-132
2021-09-23 20:51:23.264580,-108
2021-09-23 20:51:23.264585,-103
2021-09-23 20:51:23.264591,-105
2021-09-23 20:51:23.264597,-101
2021-09-23 20:51:23.264602,-101
2021-09-23 20:51:23.264608,-91
2021-09-23 20:51:23.264613,-72
2021-09-23 20:51:23.264619,-76
2021-09-23 20:51:23.264625,-86
2021-09-23 20:51:23.264631,-62
2021-09-23 20:51:23.264636,-36
2021-09-23 20:51:23.264642,-28
2021-09-23 20:51:23.264648,-40
2021-09-23 20:51:23.264653,-60
2021-09-23 20:51:23.264659,-50
2021-09-23 20:51:23.264665,-26
2021-09-23 20:51:23.264670,-19
2021-09-23 20:51:23.264676,-24
2021-09-23 20:51:23.264682,-28
2021-09-23 20:51:23.264687,-38
2021-09-23 20:51:23.264693,-38
2021-09-23 20:51:23.264699,-33
2021-09-23 20:51:23.489583,-33
2021-09-23 20:51:23.489604,-28
2021-09-23 20:51:23.489611,-21
2021-09-23 20:51:23.489617,-28
2021-09-23 20:51:23.489623,-33
2021-09-23 20:51:23.489629,-31
2021-09-23 20:51:23.489635,-21
2021-09-23 20:51:23.489641,0
2021-09-23 20:51:23.489647,12
2021-09-23 20:51:23.489653,9
2021-09-23 20:51:23.489659,0
2021-09-23 20:51:23.489665,-16
2021-09-23 20:51:23.489671,-43
2021-09-23 20:51:23.489677,-38
2021-09-23 20:51:23.489683,-14
2021-09-23 20:51:23.489688,-21
2021-09-23 20:51:23.489694,-4
2021-09-23 20:51:23.489700,139
2021-09-23 20:51:23.489706,495
2021-09-23 20:51:23.489712,1017
2021-09-23 20:51:23.489718,1074
2021-09-23 20:51:23.489723,122
2021-09-23 20:51:23.489729,-663
2021-09-23 20:51:23.489735,-317
2021-09-23 20:51:23.489741,16
2021-09-23 20:51:23.489747,-163
2021-09-23 20:51:23.489753,-137
2021-09-23 20:51:23.489759,0
2021-09-23 20:51:23.489764,-52
2021-09-23 20:51:23.489770,-84
2021-09-23 20:51:23.758126,-40
2021-09-23 20:51:23.758145,-50
2021-09-23 20:51:23.758152,-50
2021-09-23 20:51:23.758159,-16
2021-09-23 20:51:23.758165,-9
2021-09-23 20:51:23.758170,-9
2021-09-23 20:51:23.758176,19
2021-09-23 20:51:23.758182,31
2021-09-23 20:51:23.758188,24
2021-09-23 20:51:23.758194,33
2021-09-23 20:51:23.758200,40
2021-09-23 20:51:23.758205,43
2021-09-23 20:51:23.758211,74
2021-09-23 20:51:23.758217,98
2021-09-23 20:51:23.758222,101
2021-09-23 20:51:23.758228,110
2021-09-23 20:51:23.758234,127
2021-09-23 20:51:23.758240,125
2021-09-23 20:51:23.758246,113
2021-09-23 20:51:23.758252,113
2021-09-23 20:51:23.758257,103
2021-09-23 20:51:23.758263,55
2021-09-23 20:51:23.758269,12
2021-09-23 20:51:23.758274,-26
2021-09-23 20:51:23.758280,-79
2021-09-23 20:51:23.758286,-101
2021-09-23 20:51:23.758291,-96
2021-09-23 20:51:23.758297,-105
2021-09-23 20:51:23.758303,-103
2021-09-23 20:51:23.758309,-103
2021-09-23 20:51:23.939554,-122
2021-09-23 20:51:23.939574,-137
2021-09-23 20:51:23.939581,-137
2021-09-23 20:51:23.939587,-134
2021-09-23 20:51:23.939593,-137
2021-09-23 20:51:23.939599,-127
2021-09-23 20:51:23.939605,-103
2021-09-23 20:51:23.939611,-79
2021-09-23 20:51:23.939617,-79
2021-09-23 20:51:23.939623,-96
2021-09-23 20:51:23.939629,-98
2021-09-23 20:51:23.939635,-88
2021-09-23 20:51:23.939641,-69
2021-09-23 20:51:23.939647,-45
2021-09-23 20:51:23.939652,-43
2021-09-23 20:51:23.939658,-48
2021-09-23 20:51:23.939664,-45
2021-09-23 20:51:23.939670,-50
2021-09-23 20:51:23.939676,-57
2021-09-23 20:51:23.939682,-43
2021-09-23 20:51:23.939688,-33
2021-09-23 20:51:23.939694,-45
2021-09-23 20:51:23.939699,-45
2021-09-23 20:51:23.939705,-24
2021-09-23 20:51:23.939711,-36
2021-09-23 20:51:23.939717,-67
2021-09-23 20:51:23.939723,-67
2021-09-23 20:51:23.939729,-57
2021-09-23 20:51:23.939734,-57
2021-09-23 20:51:23.939740,-33
2021-09-23 20:51:24.209582,-7
2021-09-23 20:51:24.209602,-7
2021-09-23 20:51:24.209609,-9
2021-09-23 20:51:24.209615,-14
2021-09-23 20:51:24.209621,-43
2021-09-23 20:51:24.209627,-69
2021-09-23 20:51:24.209633,-55
2021-09-23 20:51:24.209639,-33
2021-09-23 20:51:24.209645,-38
2021-09-23 20:51:24.209651,-33
2021-09-23 20:51:24.209656,24
2021-09-23 20:51:24.209662,204
2021-09-23 20:51:24.209668,634
2021-09-23 20:51:24.209674,1149
2021-09-23 20:51:24.209680,872
2021-09-23 20:51:24.209686,-259
2021-09-23 20:51:24.209691,-644
2021-09-23 20:51:24.209698,-115
2021-09-23 20:51:24.209703,-16
2021-09-23 20:51:24.209709,-209
2021-09-23 20:51:24.209715,-110
2021-09-23 20:51:24.209721,-31
2021-09-23 20:51:24.209726,-84
2021-09-23 20:51:24.209732,-50
2021-09-23 20:51:24.209738,4
2021-09-23 20:51:24.209744,-26
2021-09-23 20:51:24.209750,-48
2021-09-23 20:51:24.209755,-14
2021-09-23 20:51:24.209761,7
2021-09-23 20:51:24.209767,12
2021-09-23 20:51:24.523961,16
2021-09-23 20:51:24.523982,26
2021-09-23 20:51:24.523989,45
2021-09-23 20:51:24.523994,60
2021-09-23 20:51:24.524000,55
2021-09-23 20:51:24.524006,60
2021-09-23 20:51:24.524011,88
2021-09-23 20:51:24.524017,117
2021-09-23 20:51:24.524023,127
2021-09-23 20:51:24.524028,132
2021-09-23 20:51:24.524034,137
2021-09-23 20:51:24.524040,127
2021-09-23 20:51:24.524077,108
2021-09-23 20:51:24.524082,103
2021-09-23 20:51:24.524088,88
2021-09-23 20:51:24.524093,33
2021-09-23 20:51:24.524099,-24
2021-09-23 20:51:24.524104,-45
2021-09-23 20:51:24.524110,-64
2021-09-23 20:51:24.524116,-105
2021-09-23 20:51:24.524121,-125
2021-09-23 20:51:24.524127,-115
2021-09-23 20:51:24.524133,-117
2021-09-23 20:51:24.524138,-125
2021-09-23 20:51:24.524144,-108
2021-09-23 20:51:24.524150,-93
2021-09-23 20:51:24.524155,-98
2021-09-23 20:51:24.524161,-108
2021-09-23 20:51:24.524169,-101
2021-09-23 20:51:24.524175,-96
2021-09-23 20:51:24.659491,-110
2021-09-23 20:51:24.659509,-105
2021-09-23 20:51:24.659517,-88
2021-09-23 20:51:24.659523,-79
2021-09-23 20:51:24.659529,-67
2021-09-23 20:51:24.659534,-60
2021-09-23 20:51:24.659540,-74
2021-09-23 20:51:24.659547,-88
2021-09-23 20:51:24.659553,-79
2021-09-23 20:51:24.659558,-62
2021-09-23 20:51:24.659564,-62
2021-09-23 20:51:24.659570,-62
2021-09-23 20:51:24.659576,-48
2021-09-23 20:51:24.659582,-40
2021-09-23 20:51:24.659587,-43
2021-09-23 20:51:24.659593,-52
2021-09-23 20:51:24.659599,-69
2021-09-23 20:51:24.659605,-67
2021-09-23 20:51:24.659610,-45
2021-09-23 20:51:24.659616,-38
2021-09-23 20:51:24.659622,-43
2021-09-23 20:51:24.659628,-38
2021-09-23 20:51:24.659633,-36
2021-09-23 20:51:24.659639,-36
2021-09-23 20:51:24.659645,-38
2021-09-23 20:51:24.659651,-60
2021-09-23 20:51:24.659656,-57
2021-09-23 20:51:24.659662,-19
2021-09-23 20:51:24.659668,-2
2021-09-23 20:51:24.659673,-7
2021-09-23 20:51:24.929577,-4
2021-09-23 20:51:24.929598,-9
2021-09-23 20:51:24.929605,-16
2021-09-23 20:51:24.929611,-19
2021-09-23 20:51:24.929617,-14
2021-09-23 20:51:24.929623,-7
2021-09-23 20:51:24.929629,-12
2021-09-23 20:51:24.929635,43
2021-09-23 20:51:24.929641,288
2021-09-23 20:51:24.929647,776
2021-09-23 20:51:24.929653,1212
2021-09-23 20:51:24.929659,721
2021-09-23 20:51:24.929665,-401
2021-09-23 20:51:24.929670,-560
2021-09-23 20:51:24.929676,-55
2021-09-23 20:51:24.929682,-81
2021-09-23 20:51:24.929688,-211
2021-09-23 20:51:24.929694,-84
2021-09-23 20:51:24.929700,-50
2021-09-23 20:51:24.929705,-96
2021-09-23 20:51:24.929711,-55
2021-09-23 20:51:24.929717,-26
2021-09-23 20:51:24.929723,-38
2021-09-23 20:51:24.929729,-33
2021-09-23 20:51:24.929735,-12
2021-09-23 20:51:24.929740,-7
2021-09-23 20:51:24.929746,2
2021-09-23 20:51:24.929752,14
2021-09-23 20:51:24.929758,19
2021-09-23 20:51:24.929764,28
2021-09-23 20:51:25.154806,43
2021-09-23 20:51:25.154826,57
2021-09-23 20:51:25.154833,76
2021-09-23 20:51:25.154839,91
2021-09-23 20:51:25.154845,110
2021-09-23 20:51:25.154850,134
2021-09-23 20:51:25.154856,134
2021-09-23 20:51:25.154862,120
2021-09-23 20:51:25.154868,120
2021-09-23 20:51:25.154873,117
2021-09-23 20:51:25.154879,96
2021-09-23 20:51:25.154885,57
2021-09-23 20:51:25.154891,16
2021-09-23 20:51:25.154896,-14
2021-09-23 20:51:25.154902,-43
2021-09-23 20:51:25.154908,-76
2021-09-23 20:51:25.154914,-96
2021-09-23 20:51:25.154919,-103
2021-09-23 20:51:25.154925,-120
2021-09-23 20:51:25.154931,-127
2021-09-23 20:51:25.154936,-122
2021-09-23 20:51:25.154942,-117
2021-09-23 20:51:25.154948,-105
2021-09-23 20:51:25.154953,-93
2021-09-23 20:51:25.154959,-101
2021-09-23 20:51:25.154965,-110
2021-09-23 20:51:25.154971,-93
2021-09-23 20:51:25.154977,-79
2021-09-23 20:51:25.154982,-98
2021-09-23 20:51:25.154988,-108
2021-09-23 20:51:25.378964,-91
2021-09-23 20:51:25.378984,-69
2021-09-23 20:51:25.378991,-48
2021-09-23 20:51:25.378997,-50
2021-09-23 20:51:25.379003,-55
2021-09-23 20:51:25.379008,-45
2021-09-23 20:51:25.379014,-50
2021-09-23 20:51:25.379020,-60
2021-09-23 20:51:25.379026,-48
2021-09-23 20:51:25.379031,-31
2021-09-23 20:51:25.379037,-33
2021-09-23 20:51:25.379043,-43
2021-09-23 20:51:25.379049,-31
2021-09-23 20:51:25.379055,-24
2021-09-23 20:51:25.379061,-40
2021-09-23 20:51:25.379067,-48
2021-09-23 20:51:25.379073,-38
2021-09-23 20:51:25.379079,-40
2021-09-23 20:51:25.379085,-45
2021-09-23 20:51:25.379091,-40
2021-09-23 20:51:25.379097,-24
2021-09-23 20:51:25.379102,-9
2021-09-23 20:51:25.379108,-9
2021-09-23 20:51:25.379114,-4
2021-09-23 20:51:25.379120,-9
2021-09-23 20:51:25.379125,-14
2021-09-23 20:51:25.379131,-12
2021-09-23 20:51:25.379137,-19
2021-09-23 20:51:25.379143,-21
2021-09-23 20:51:25.379149,0
2021-09-23 20:51:25.559606,19
2021-09-23 20:51:25.559626,31
2021-09-23 20:51:25.559633,103
2021-09-23 20:51:25.559640,396
2021-09-23 20:51:25.559646,961
2021-09-23 20:51:25.559652,1202
2021-09-23 20:51:25.559658,367
2021-09-23 20:51:25.559664,-577
2021-09-23 20:51:25.559670,-365
2021-09-23 20:51:25.559676,26
2021-09-23 20:51:25.559681,-149
2021-09-23 20:51:25.559687,-180
2021-09-23 20:51:25.559693,-45
2021-09-23 20:51:25.559699,-74
2021-09-23 20:51:25.559705,-86
2021-09-23 20:51:25.559711,-45
2021-09-23 20:51:25.559717,-60
2021-09-23 20:51:25.559723,-57
2021-09-23 20:51:25.559729,-24
2021-09-23 20:51:25.559734,-24
2021-09-23 20:51:25.559740,-26
2021-09-23 20:51:25.559746,2
2021-09-23 20:51:25.559752,19
2021-09-23 20:51:25.559758,28
2021-09-23 20:51:25.559764,43
2021-09-23 20:51:25.559770,50
2021-09-23 20:51:25.559775,55
2021-09-23 20:51:25.559781,79
2021-09-23 20:51:25.559787,98
2021-09-23 20:51:25.559793,108
2021-09-23 20:51:25.828346,127
2021-09-23 20:51:25.828366,144
2021-09-23 20:51:25.828373,151
2021-09-23 20:51:25.828379,149
2021-09-23 20:51:25.828385,129
2021-09-23 20:51:25.828391,98
2021-09-23 20:51:25.828397,69
2021-09-23 20:51:25.828403,28
2021-09-23 20:51:25.828409,-21
2021-09-23 20:51:25.828415,-62
2021-09-23 20:51:25.828421,-84
2021-09-23 20:51:25.828427,-103
2021-09-23 20:51:25.828432,-117
2021-09-23 20:51:25.828438,-115
2021-09-23 20:51:25.828444,-115
2021-09-23 20:51:25.828449,-115
2021-09-23 20:51:25.828455,-113
2021-09-23 20:51:25.828461,-117
2021-09-23 20:51:25.828467,-122
2021-09-23 20:51:25.828473,-117
2021-09-23 20:51:25.828479,-91
2021-09-23 20:51:25.828484,-74
2021-09-23 20:51:25.828490,-91
2021-09-23 20:51:25.828496,-96
2021-09-23 20:51:25.828501,-81
2021-09-23 20:51:25.828507,-72
2021-09-23 20:51:25.828512,-67
2021-09-23 20:51:25.828518,-69
2021-09-23 20:51:25.828524,-79
2021-09-23 20:51:25.828529,-62
2021-09-23 20:51:26.054667,-40
2021-09-23 20:51:26.054690,-50
2021-09-23 20:51:26.054697,-60
2021-09-23 20:51:26.054703,-50
2021-09-23 20:51:26.054709,-52
2021-09-23 20:51:26.054714,-67
2021-09-23 20:51:26.054720,-52
2021-09-23 20:51:26.054726,-33
2021-09-23 20:51:26.054732,-45
2021-09-23 20:51:26.054737,-60
2021-09-23 20:51:26.054743,-52
2021-09-23 20:51:26.054749,-36
2021-09-23 20:51:26.054755,-43
2021-09-23 20:51:26.054761,-60
2021-09-23 20:51:26.054767,-52
2021-09-23 20:51:26.054773,-43
2021-09-23 20:51:26.054779,-33
2021-09-23 20:51:26.054784,-31
2021-09-23 20:51:26.054790,-38
2021-09-23 20:51:26.054796,-28
2021-09-23 20:51:26.054802,-21
2021-09-23 20:51:26.054807,-48
2021-09-23 20:51:26.054813,-57
2021-09-23 20:51:26.054819,-38
2021-09-23 20:51:26.054824,-28
2021-09-23 20:51:26.054830,-36
2021-09-23 20:51:26.054836,-28
2021-09-23 20:51:26.054842,12
2021-09-23 20:51:26.054848,139
2021-09-23 20:51:26.054854,512
2021-09-23 20:51:26.279609,1089
2021-09-23 20:51:26.279629,1135
2021-09-23 20:51:26.279636,144
2021-09-23 20:51:26.279642,-622
2021-09-23 20:51:26.279648,-286
2021-09-23 20:51:26.279654,-7
2021-09-23 20:51:26.279660,-185
2021-09-23 20:51:26.279666,-149
2021-09-23 20:51:26.279672,-33
2021-09-23 20:51:26.279678,-86
2021-09-23 20:51:26.279684,-93
2021-09-23 20:51:26.279690,-48
2021-09-23 20:51:26.279696,-43
2021-09-23 20:51:26.279701,-36
2021-09-23 20:51:26.279707,-31
2021-09-23 20:51:26.279713,-38
2021-09-23 20:51:26.279718,-21
2021-09-23 20:51:26.279724,-12
2021-09-23 20:51:26.279730,-7
2021-09-23 20:51:26.279736,19
2021-09-23 20:51:26.279741,33
2021-09-23 20:51:26.279747,33
2021-09-23 20:51:26.279753,48
2021-09-23 20:51:26.279762,55
2021-09-23 20:51:26.279768,69
2021-09-23 20:51:26.279774,108
2021-09-23 20:51:26.279779,120
2021-09-23 20:51:26.279785,115
2021-09-23 20:51:26.279791,141
2021-09-23 20:51:26.279797,165
2021-09-23 20:51:26.549003,137
2021-09-23 20:51:26.549025,86
2021-09-23 20:51:26.549032,40
2021-09-23 20:51:26.549038,7
2021-09-23 20:51:26.549044,-26
2021-09-23 20:51:26.549050,-55
2021-09-23 20:51:26.549056,-60
2021-09-23 20:51:26.549062,-67
2021-09-23 20:51:26.549068,-110
2021-09-23 20:51:26.549074,-151
2021-09-23 20:51:26.549080,-146
2021-09-23 20:51:26.549086,-110
2021-09-23 20:51:26.549092,-98
2021-09-23 20:51:26.549098,-120
2021-09-23 20:51:26.549104,-127
2021-09-23 20:51:26.549109,-108
2021-09-23 20:51:26.549115,-88
2021-09-23 20:51:26.549121,-79
2021-09-23 20:51:26.549127,-91
2021-09-23 20:51:26.549133,-103
2021-09-23 20:51:26.549139,-101
2021-09-23 20:51:26.549145,-96
2021-09-23 20:51:26.549150,-93
2021-09-23 20:51:26.549156,-103
2021-09-23 20:51:26.549161,-113
2021-09-23 20:51:26.549167,-98
2021-09-23 20:51:26.549173,-79
2021-09-23 20:51:26.549179,-91
2021-09-23 20:51:26.549184,-105
2021-09-23 20:51:26.549190,-72
2021-09-23 20:51:26.729620,-48
2021-09-23 20:51:26.729640,-74
2021-09-23 20:51:26.729647,-93
2021-09-23 20:51:26.729653,-72
2021-09-23 20:51:26.729659,-50
2021-09-23 20:51:26.729665,-55
2021-09-23 20:51:26.729671,-76
2021-09-23 20:51:26.729676,-76
2021-09-23 20:51:26.729682,-57
2021-09-23 20:51:26.729688,-45
2021-09-23 20:51:26.729693,-33
2021-09-23 20:51:26.729699,-26
2021-09-23 20:51:26.729704,-28
2021-09-23 20:51:26.729710,-40
2021-09-23 20:51:26.729716,-64
2021-09-23 20:51:26.729722,-57
2021-09-23 20:51:26.729727,-45
2021-09-23 20:51:26.729733,-50
2021-09-23 20:51:26.729738,-38
2021-09-23 20:51:26.729744,-28
2021-09-23 20:51:26.729749,-2
2021-09-23 20:51:26.729754,185
2021-09-23 20:51:26.729759,622
2021-09-23 20:51:26.729764,1077
2021-09-23 20:51:26.729769,747
2021-09-23 20:51:26.729775,-310
2021-09-23 20:51:26.729780,-601
2021-09-23 20:51:26.729785,-113
2021-09-23 20:51:26.729790,-55
2021-09-23 20:51:26.729795,-199
2021-09-23 20:51:26.954623,-88
2021-09-23 20:51:26.954644,-40
2021-09-23 20:51:26.954651,-88
2021-09-23 20:51:26.954656,-57
2021-09-23 20:51:26.954660,-24
2021-09-23 20:51:26.954665,-36
2021-09-23 20:51:26.954670,-48
2021-09-23 20:51:26.954675,-45
2021-09-23 20:51:26.954680,-16
2021-09-23 20:51:26.954685,4
2021-09-23 20:51:26.954690,-2
2021-09-23 20:51:26.954694,0
2021-09-23 20:51:26.954699,16
2021-09-23 20:51:26.954705,24
2021-09-23 20:51:26.954710,43
2021-09-23 20:51:26.954715,72
2021-09-23 20:51:26.954720,76
2021-09-23 20:51:26.954725,81
2021-09-23 20:51:26.954730,113
2021-09-23 20:51:26.954735,134
2021-09-23 20:51:26.954740,139
2021-09-23 20:51:26.954745,149
2021-09-23 20:51:26.954751,141
2021-09-23 20:51:26.954756,108
2021-09-23 20:51:26.954761,76
2021-09-23 20:51:26.954767,50
2021-09-23 20:51:26.954772,-9
2021-09-23 20:51:26.954778,-67
2021-09-23 20:51:26.954783,-88
2021-09-23 20:51:26.954788,-101
2021-09-23 20:51:27.179699,-115
2021-09-23 20:51:27.179720,-125
2021-09-23 20:51:27.179727,-132
2021-09-23 20:51:27.179733,-134
2021-09-23 20:51:27.179739,-115
2021-09-23 20:51:27.179745,-117
2021-09-23 20:51:27.179751,-134
2021-09-23 20:51:27.179756,-113
2021-09-23 20:51:27.179762,-93
2021-09-23 20:51:27.179768,-110
2021-09-23 20:51:27.179774,-113
2021-09-23 20:51:27.179780,-96
2021-09-23 20:51:27.179785,-98
2021-09-23 20:51:27.179791,-86
2021-09-23 20:51:27.179797,-64
2021-09-23 20:51:27.179802,-81
2021-09-23 20:51:27.179808,-103
2021-09-23 20:51:27.179814,-86
2021-09-23 20:51:27.179820,-60
2021-09-23 20:51:27.179825,-60
2021-09-23 20:51:27.179831,-67
2021-09-23 20:51:27.179837,-64
2021-09-23 20:51:27.179843,-48
2021-09-23 20:51:27.179849,-36
2021-09-23 20:51:27.179854,-40
2021-09-23 20:51:27.179860,-57
2021-09-23 20:51:27.179866,-57
2021-09-23 20:51:27.179872,-38
2021-09-23 20:51:27.179878,-36
2021-09-23 20:51:27.179884,-48
2021-09-23 20:51:27.449616,-40
2021-09-23 20:51:27.449638,-24
2021-09-23 20:51:27.449645,-26
2021-09-23 20:51:27.449651,-43
2021-09-23 20:51:27.449657,-69
2021-09-23 20:51:27.449663,-72
2021-09-23 20:51:27.449669,-33
2021-09-23 20:51:27.449674,-4
2021-09-23 20:51:27.449680,-4
2021-09-23 20:51:27.449686,-4
2021-09-23 20:51:27.449692,7
2021-09-23 20:51:27.449698,-2
2021-09-23 20:51:27.449703,-24
2021-09-23 20:51:27.449709,-21
2021-09-23 20:51:27.449715,-21
2021-09-23 20:51:27.449721,-33
2021-09-23 20:51:27.449727,-26
2021-09-23 20:51:27.449732,0
2021-09-23 20:51:27.449738,69
2021-09-23 20:51:27.449744,288
2021-09-23 20:51:27.449750,767
2021-09-23 20:51:27.449756,1212
2021-09-23 20:51:27.449761,774
2021-09-23 20:51:27.449767,-262
2021-09-23 20:51:27.449773,-444
2021-09-23 20:51:27.449778,-28
2021-09-23 20:51:27.449784,-74
2021-09-23 20:51:27.449790,-199
2021-09-23 20:51:27.449796,-69
2021-09-23 20:51:27.449801,-40
2021-09-23 20:51:27.674023,-96
2021-09-23 20:51:27.674043,-64
2021-09-23 20:51:27.674050,-38
2021-09-23 20:51:27.674056,-52
2021-09-23 20:51:27.674062,-48
2021-09-23 20:51:27.674068,-36
2021-09-23 20:51:27.674073,-33
2021-09-23 20:51:27.674079,-33
2021-09-23 20:51:27.674085,-16
2021-09-23 20:51:27.674091,-2
2021-09-23 20:51:27.674097,-9
2021-09-23 20:51:27.674102,-2
2021-09-23 20:51:27.674108,12
2021-09-23 20:51:27.674114,21
2021-09-23 20:51:27.674119,48
2021-09-23 20:51:27.674125,69
2021-09-23 20:51:27.674131,62
2021-09-23 20:51:27.674137,69
2021-09-23 20:51:27.674142,96
2021-09-23 20:51:27.674148,103
2021-09-23 20:51:27.674154,105
2021-09-23 20:51:27.674159,96
2021-09-23 20:51:27.674165,79
2021-09-23 20:51:27.674170,60
2021-09-23 20:51:27.674176,14
2021-09-23 20:51:27.674182,-33
2021-09-23 20:51:27.674187,-52
2021-09-23 20:51:27.674193,-69
2021-09-23 20:51:27.674199,-98
2021-09-23 20:51:27.674204,-96
2021-09-23 20:51:27.943252,-67
2021-09-23 20:51:27.943273,-62
2021-09-23 20:51:27.943280,-76
2021-09-23 20:51:27.943286,-79
2021-09-23 20:51:27.943292,-81
2021-09-23 20:51:27.943298,-86
2021-09-23 20:51:27.943304,-79
2021-09-23 20:51:27.943310,-86
2021-09-23 20:51:27.943316,-91
2021-09-23 20:51:27.943321,-81
2021-09-23 20:51:27.943327,-81
2021-09-23 20:51:27.943333,-84
2021-09-23 20:51:27.943339,-88
2021-09-23 20:51:27.943345,-91
2021-09-23 20:51:27.943350,-76
2021-09-23 20:51:27.943356,-69
2021-09-23 20:51:27.943362,-74
2021-09-23 20:51:27.943368,-67
2021-09-23 20:51:27.943373,-45
2021-09-23 20:51:27.943379,-33
2021-09-23 20:51:27.943385,-38
2021-09-23 20:51:27.943390,-40
2021-09-23 20:51:27.943396,-45
2021-09-23 20:51:27.943402,-48
2021-09-23 20:51:27.943407,-33
2021-09-23 20:51:27.943413,-7
2021-09-23 20:51:27.943419,-9
2021-09-23 20:51:27.943424,-33
2021-09-23 20:51:27.943430,-31
2021-09-23 20:51:27.943435,-16
2021-09-23 20:51:28.124642,-26
2021-09-23 20:51:28.124663,-31
2021-09-23 20:51:28.124670,-16
2021-09-23 20:51:28.124676,-14
2021-09-23 20:51:28.124682,-26
2021-09-23 20:51:28.124688,-24
2021-09-23 20:51:28.124694,-12
2021-09-23 20:51:28.124700,-2
2021-09-23 20:51:28.124706,-9
2021-09-23 20:51:28.124711,-14
2021-09-23 20:51:28.124717,-14
2021-09-23 20:51:28.124723,-36
2021-09-23 20:51:28.124729,-55
2021-09-23 20:51:28.124735,-31
2021-09-23 20:51:28.124740,-14
2021-09-23 20:51:28.124746,-26
2021-09-23 20:51:28.124752,-21
2021-09-23 20:51:28.124758,52
2021-09-23 20:51:28.124764,315
2021-09-23 20:51:28.124769,839
2021-09-23 20:51:28.124775,1173
2021-09-23 20:51:28.124781,572
2021-09-23 20:51:28.124786,-372
2021-09-23 20:51:28.124792,-377
2021-09-23 20:51:28.124798,-4
2021-09-23 20:51:28.124803,-110
2021-09-23 20:51:28.124809,-199
2021-09-23 20:51:28.124815,-69
2021-09-23 20:51:28.124821,-50
2021-09-23 20:51:28.124827,-79
2021-09-23 20:51:28.349624,-38
2021-09-23 20:51:28.349644,-31
2021-09-23 20:51:28.349652,-45
2021-09-23 20:51:28.349658,-24
2021-09-23 20:51:28.349664,-12
2021-09-23 20:51:28.349670,-21
2021-09-23 20:51:28.349675,-16
2021-09-23 20:51:28.349681,-19
2021-09-23 20:51:28.349687,-31
2021-09-23 20:51:28.349693,-19
2021-09-23 20:51:28.349699,7
2021-09-23 20:51:28.349704,19
2021-09-23 20:51:28.349710,21
2021-09-23 20:51:28.349716,36
2021-09-23 20:51:28.349722,57
2021-09-23 20:51:28.349728,76
2021-09-23 20:51:28.349734,84
2021-09-23 20:51:28.349743,88
2021-09-23 20:51:28.349749,91
2021-09-23 20:51:28.349755,88
2021-09-23 20:51:28.349761,79
2021-09-23 20:51:28.349767,60
2021-09-23 20:51:28.349772,26
2021-09-23 20:51:28.349778,-9
2021-09-23 20:51:28.349784,-43
2021-09-23 20:51:28.349790,-64
2021-09-23 20:51:28.349795,-72
2021-09-23 20:51:28.349802,-79
2021-09-23 20:51:28.349807,-81
2021-09-23 20:51:28.349813,-81
2021-09-23 20:51:28.574632,-88
2021-09-23 20:51:28.574652,-74
2021-09-23 20:51:28.574659,-52
2021-09-23 20:51:28.574665,-72
2021-09-23 20:51:28.574671,-101
2021-09-23 20:51:28.574677,-88
2021-09-23 20:51:28.574682,-69
2021-09-23 20:51:28.574688,-79
2021-09-23 20:51:28.574694,-103
2021-09-23 20:51:28.574700,-115
2021-09-23 20:51:28.574706,-110
2021-09-23 20:51:28.574711,-96
2021-09-23 20:51:28.574717,-91
2021-09-23 20:51:28.574723,-93
2021-09-23 20:51:28.574728,-84
2021-09-23 20:51:28.574734,-74
2021-09-23 20:51:28.574740,-84
2021-09-23 20:51:28.574745,-79
2021-09-23 20:51:28.574751,-74
2021-09-23 20:51:28.574756,-74
2021-09-23 20:51:28.574762,-60
2021-09-23 20:51:28.574768,-52
2021-09-23 20:51:28.574773,-60
2021-09-23 20:51:28.574779,-48
2021-09-23 20:51:28.574784,-40
2021-09-23 20:51:28.574790,-43
2021-09-23 20:51:28.574795,-33
2021-09-23 20:51:28.574801,-31
2021-09-23 20:51:28.574807,-43
2021-09-23 20:51:28.574813,-38
2021-09-23 20:51:28.844590,-33
2021-09-23 20:51:28.844608,-40
2021-09-23 20:51:28.844615,-24
2021-09-23 20:51:28.844622,-7
2021-09-23 20:51:28.844628,-14
2021-09-23 20:51:28.844634,-26
2021-09-23 20:51:28.844639,-45
2021-09-23 20:51:28.844645,-57
2021-09-23 20:51:28.844651,-43
2021-09-23 20:51:28.844656,-19
2021-09-23 20:51:28.844662,0
2021-09-23 20:51:28.844668,0
2021-09-23 20:51:28.844674,-16
2021-09-23 20:51:28.844679,-21
2021-09-23 20:51:28.844685,-19
2021-09-23 20:51:28.844691,-31
2021-09-23 20:51:28.844697,-33
2021-09-23 20:51:28.844703,-19
2021-09-23 20:51:28.844709,-19
2021-09-23 20:51:28.844714,-4
2021-09-23 20:51:28.844720,76
2021-09-23 20:51:28.844726,310
2021-09-23 20:51:28.844732,808
2021-09-23 20:51:28.844738,1173
2021-09-23 20:51:28.844743,598
2021-09-23 20:51:28.844749,-370
2021-09-23 20:51:28.844755,-396
2021-09-23 20:51:28.844761,2
2021-09-23 20:51:28.844766,-86
2021-09-23 20:51:28.844772,-182
2021-09-23 20:51:29.025819,-57
2021-09-23 20:51:29.025840,-43
2021-09-23 20:51:29.025847,-88
2021-09-23 20:51:29.025853,-55
2021-09-23 20:51:29.025859,-31
2021-09-23 20:51:29.025865,-38
2021-09-23 20:51:29.025871,-16
2021-09-23 20:51:29.025877,-19
2021-09-23 20:51:29.025883,-33
2021-09-23 20:51:29.025888,-2
2021-09-23 20:51:29.025894,28
2021-09-23 20:51:29.025900,0
2021-09-23 20:51:29.025906,-26
2021-09-23 20:51:29.025912,-4
2021-09-23 20:51:29.025918,14
2021-09-23 20:51:29.025923,16
2021-09-23 20:51:29.025929,24
2021-09-23 20:51:29.025935,38
2021-09-23 20:51:29.025941,50
2021-09-23 20:51:29.025946,67
2021-09-23 20:51:29.025952,81
2021-09-23 20:51:29.025958,69
2021-09-23 20:51:29.025964,38
2021-09-23 20:51:29.025969,28
2021-09-23 20:51:29.025975,26
2021-09-23 20:51:29.025981,4
2021-09-23 20:51:29.025986,-21
2021-09-23 20:51:29.025992,-33
2021-09-23 20:51:29.025998,-55
2021-09-23 20:51:29.026004,-86
2021-09-23 20:51:29.249644,-93
2021-09-23 20:51:29.249663,-101
2021-09-23 20:51:29.249671,-110
2021-09-23 20:51:29.249678,-101
2021-09-23 20:51:29.249684,-113
2021-09-23 20:51:29.249690,-149
2021-09-23 20:51:29.249697,-137
2021-09-23 20:51:29.249703,-93
2021-09-23 20:51:29.249709,-88
2021-09-23 20:51:29.249716,-101
2021-09-23 20:51:29.249722,-96
2021-09-23 20:51:29.249728,-117
2021-09-23 20:51:29.249734,-132
2021-09-23 20:51:29.249740,-105
2021-09-23 20:51:29.249746,-84
2021-09-23 20:51:29.249752,-91
2021-09-23 20:51:29.249758,-86
2021-09-23 20:51:29.249764,-76
2021-09-23 20:51:29.249770,-86
2021-09-23 20:51:29.249776,-84
2021-09-23 20:51:29.249782,-55
2021-09-23 20:51:29.249787,-36
2021-09-23 20:51:29.249793,-48
2021-09-23 20:51:29.249799,-52
2021-09-23 20:51:29.249804,-43
2021-09-23 20:51:29.249810,-45
2021-09-23 20:51:29.249816,-48
2021-09-23 20:51:29.249822,-36
2021-09-23 20:51:29.249828,-28
2021-09-23 20:51:29.249834,-36
2021-09-23 20:51:29.519661,-33
2021-09-23 20:51:29.519683,-19
2021-09-23 20:51:29.519690,-19
2021-09-23 20:51:29.519696,-28
2021-09-23 20:51:29.519702,-40
2021-09-23 20:51:29.519708,-40
2021-09-23 20:51:29.519714,-28
2021-09-23 20:51:29.519719,-24
2021-09-23 20:51:29.519725,-26
2021-09-23 20:51:29.519731,-28
2021-09-23 20:51:29.519737,-31
2021-09-23 20:51:29.519743,-21
2021-09-23 20:51:29.519748,-24
2021-09-23 20:51:29.519754,-36
2021-09-23 20:51:29.519760,-14
2021-09-23 20:51:29.519766,4
2021-09-23 20:51:29.519772,-12
2021-09-23 20:51:29.519778,-14
2021-09-23 20:51:29.519784,-7
2021-09-23 20:51:29.519789,-4
2021-09-23 20:51:29.519795,-2
2021-09-23 20:51:29.519800,-24
2021-09-23 20:51:29.519806,-57
2021-09-23 20:51:29.519812,-40
2021-09-23 20:51:29.519817,0
2021-09-23 20:51:29.519823,2
2021-09-23 20:51:29.519829,2
2021-09-23 20:51:29.519835,21
2021-09-23 20:51:29.519841,52
2021-09-23 20:51:29.519847,245
2021-09-23 20:51:29.745150,707
2021-09-23 20:51:29.745171,1079
2021-09-23 20:51:29.745179,574
2021-09-23 20:51:29.745185,-471
2021-09-23 20:51:29.745191,-565
2021-09-23 20:51:29.745197,-36
2021-09-23 20:51:29.745203,-45
2021-09-23 20:51:29.745209,-177
2021-09-23 20:51:29.745215,-60
2021-09-23 20:51:29.745221,-36
2021-09-23 20:51:29.745227,-86
2021-09-23 20:51:29.745233,-45
2021-09-23 20:51:29.745239,-12
2021-09-23 20:51:29.745245,-28
2021-09-23 20:51:29.745250,-40
2021-09-23 20:51:29.745256,-24
2021-09-23 20:51:29.745262,-9
2021-09-23 20:51:29.745268,-19
2021-09-23 20:51:29.745274,-14
2021-09-23 20:51:29.745279,12
2021-09-23 20:51:29.745285,26
2021-09-23 20:51:29.745291,31
2021-09-23 20:51:29.745297,43
2021-09-23 20:51:29.745302,57
2021-09-23 20:51:29.745308,69
2021-09-23 20:51:29.745314,79
2021-09-23 20:51:29.745320,91
2021-09-23 20:51:29.745325,101
2021-09-23 20:51:29.745331,105
2021-09-23 20:51:29.745337,113
2021-09-23 20:51:30.013289,110
2021-09-23 20:51:30.013311,98
2021-09-23 20:51:30.013318,52
2021-09-23 20:51:30.013324,2
2021-09-23 20:51:30.013330,-14
2021-09-23 20:51:30.013336,-40
2021-09-23 20:51:30.013342,-76
2021-09-23 20:51:30.013348,-91
2021-09-23 20:51:30.013354,-110
2021-09-23 20:51:30.013360,-134
2021-09-23 20:51:30.013365,-129
2021-09-23 20:51:30.013371,-127
2021-09-23 20:51:30.013377,-141
2021-09-23 20:51:30.013383,-146
2021-09-23 20:51:30.013389,-139
2021-09-23 20:51:30.013395,-132
2021-09-23 20:51:30.013401,-120
2021-09-23 20:51:30.013406,-108
2021-09-23 20:51:30.013412,-86
2021-09-23 20:51:30.013418,-74
2021-09-23 20:51:30.013424,-93
2021-09-23 20:51:30.013430,-96
2021-09-23 20:51:30.013436,-69
2021-09-23 20:51:30.013441,-52
2021-09-23 20:51:30.013447,-55
2021-09-23 20:51:30.013453,-57
2021-09-23 20:51:30.013459,-48
2021-09-23 20:51:30.013465,-36
2021-09-23 20:51:30.013471,-50
2021-09-23 20:51:30.013476,-64
2021-09-23 20:51:30.194665,-48
2021-09-23 20:51:30.194685,-31
2021-09-23 20:51:30.194692,-45
2021-09-23 20:51:30.194698,-57
2021-09-23 20:51:30.194704,-45
2021-09-23 20:51:30.194710,-40
2021-09-23 20:51:30.194716,-67
2021-09-23 20:51:30.194722,-84
2021-09-23 20:51:30.194728,-64
2021-09-23 20:51:30.194734,-31
2021-09-23 20:51:30.194740,-16
2021-09-23 20:51:30.194746,-21
2021-09-23 20:51:30.194752,-16
2021-09-23 20:51:30.194758,-24
2021-09-23 20:51:30.194763,-62
2021-09-23 20:51:30.194769,-76
2021-09-23 20:51:30.194775,-55
2021-09-23 20:51:30.194781,-36
2021-09-23 20:51:30.194787,-21
2021-09-23 20:51:30.194793,0
2021-09-23 20:51:30.194799,74
2021-09-23 20:51:30.194805,295
2021-09-23 20:51:30.194811,711
2021-09-23 20:51:30.194816,957
2021-09-23 20:51:30.194822,300
2021-09-23 20:51:30.194828,-634
2021-09-23 20:51:30.194834,-492
2021-09-23 20:51:30.194840,2
2021-09-23 20:51:30.194845,-88
2021-09-23 20:51:30.194851,-151
2021-09-23 20:51:30.419659,-7
2021-09-23 20:51:30.419679,-14
2021-09-23 20:51:30.419686,-60
2021-09-23 20:51:30.419692,-19
2021-09-23 20:51:30.419698,-9
2021-09-23 20:51:30.419704,-26
2021-09-23 20:51:30.419710,-14
2021-09-23 20:51:30.419716,-9
2021-09-23 20:51:30.419722,-16
2021-09-23 20:51:30.419728,7
2021-09-23 20:51:30.419734,38
2021-09-23 20:51:30.419740,45
2021-09-23 20:51:30.419745,40
2021-09-23 20:51:30.419751,50
2021-09-23 20:51:30.419757,64
2021-09-23 20:51:30.419763,72
2021-09-23 20:51:30.419768,88
2021-09-23 20:51:30.419774,115
2021-09-23 20:51:30.419780,132
2021-09-23 20:51:30.419785,139
2021-09-23 20:51:30.419791,134
2021-09-23 20:51:30.419797,125
2021-09-23 20:51:30.419802,108
2021-09-23 20:51:30.419808,81
2021-09-23 20:51:30.419814,48
2021-09-23 20:51:30.419819,-2
2021-09-23 20:51:30.419825,-55
2021-09-23 20:51:30.419831,-79
2021-09-23 20:51:30.419837,-96
2021-09-23 20:51:30.419843,-122
2021-09-23 20:51:30.644699,-129
2021-09-23 20:51:30.644720,-134
2021-09-23 20:51:30.644727,-144
2021-09-23 20:51:30.644733,-129
2021-09-23 20:51:30.644739,-113
2021-09-23 20:51:30.644745,-117
2021-09-23 20:51:30.644751,-122
2021-09-23 20:51:30.644757,-120
2021-09-23 20:51:30.644762,-115
2021-09-23 20:51:30.644768,-115
2021-09-23 20:51:30.644774,-113
2021-09-23 20:51:30.644780,-96
2021-09-23 20:51:30.644786,-88
2021-09-23 20:51:30.644792,-81
2021-09-23 20:51:30.644800,-72
2021-09-23 20:51:30.644806,-55
2021-09-23 20:51:30.644812,-33
2021-09-23 20:51:30.644818,-31
2021-09-23 20:51:30.644824,-38
2021-09-23 20:51:30.644830,-28
2021-09-23 20:51:30.644835,-36
2021-09-23 20:51:30.644841,-60
2021-09-23 20:51:30.644847,-64
2021-09-23 20:51:30.644853,-50
2021-09-23 20:51:30.644858,-33
2021-09-23 20:51:30.644864,-28
2021-09-23 20:51:30.644870,-24
2021-09-23 20:51:30.644876,-26
2021-09-23 20:51:30.644882,-55
2021-09-23 20:51:30.644888,-64
2021-09-23 20:51:30.869764,-33
2021-09-23 20:51:30.869784,-14
2021-09-23 20:51:30.869791,-28
2021-09-23 20:51:30.869797,-40
2021-09-23 20:51:30.869803,-26
2021-09-23 20:51:30.869809,-21
2021-09-23 20:51:30.869815,-33
2021-09-23 20:51:30.869821,-21
2021-09-23 20:51:30.869827,-2
2021-09-23 20:51:30.869833,4
2021-09-23 20:51:30.869839,7
2021-09-23 20:51:30.869845,-16
2021-09-23 20:51:30.869851,-36
2021-09-23 20:51:30.869857,-9
2021-09-23 20:51:30.869863,-2
2021-09-23 20:51:30.869868,-21
2021-09-23 20:51:30.869874,-12
2021-09-23 20:51:30.869880,45
2021-09-23 20:51:30.869886,206
2021-09-23 20:51:30.869892,613
2021-09-23 20:51:30.869898,1123
2021-09-23 20:51:30.869903,918
2021-09-23 20:51:30.869909,-96
2021-09-23 20:51:30.869915,-502
2021-09-23 20:51:30.869921,-88
2021-09-23 20:51:30.869927,-2
2021-09-23 20:51:30.869932,-175
2021-09-23 20:51:30.869938,-108
2021-09-23 20:51:30.869944,-43
2021-09-23 20:51:30.869949,-88
2021-09-23 20:51:31.094775,-79
2021-09-23 20:51:31.094796,-40
2021-09-23 20:51:31.094803,-38
2021-09-23 20:51:31.094809,-45
2021-09-23 20:51:31.094815,-31
2021-09-23 20:51:31.094820,-14
2021-09-23 20:51:31.094826,-14
2021-09-23 20:51:31.094832,-19
2021-09-23 20:51:31.094838,-16
2021-09-23 20:51:31.094843,-12
2021-09-23 20:51:31.094849,0
2021-09-23 20:51:31.094855,4
2021-09-23 20:51:31.094861,12
2021-09-23 20:51:31.094867,21
2021-09-23 20:51:31.094873,14
2021-09-23 20:51:31.094880,24
2021-09-23 20:51:31.094887,45
2021-09-23 20:51:31.094896,48
2021-09-23 20:51:31.094902,50
2021-09-23 20:51:31.094908,62
2021-09-23 20:51:31.094913,55
2021-09-23 20:51:31.094919,31
2021-09-23 20:51:31.094925,16
2021-09-23 20:51:31.094931,-12
2021-09-23 20:51:31.094937,-60
2021-09-23 20:51:31.094942,-76
2021-09-23 20:51:31.094948,-86
2021-09-23 20:51:31.094954,-103
2021-09-23 20:51:31.094960,-96
2021-09-23 20:51:31.094965,-79
2021-09-23 20:51:31.364663,-86
2021-09-23 20:51:31.364683,-86
2021-09-23 20:51:31.364690,-88
2021-09-23 20:51:31.364697,-110
2021-09-23 20:51:31.364703,-117
2021-09-23 20:51:31.364708,-110
2021-09-23 20:51:31.364714,-98
2021-09-23 20:51:31.364720,-79
2021-09-23 20:51:31.364726,-76
2021-09-23 20:51:31.364732,-93
2021-09-23 20:51:31.364738,-96
2021-09-23 20:51:31.364744,-81
2021-09-23 20:51:31.364749,-69
2021-09-23 20:51:31.364755,-52
2021-09-23 20:51:31.364761,-38
2021-09-23 20:51:31.364767,-40
2021-09-23 20:51:31.364772,-38
2021-09-23 20:51:31.364778,-40
2021-09-23 20:51:31.364784,-50
2021-09-23 20:51:31.364790,-40
2021-09-23 20:51:31.364795,-28
2021-09-23 20:51:31.364801,-33
2021-09-23 20:51:31.364807,-28
2021-09-23 20:51:31.364812,-14
2021-09-23 20:51:31.364818,-19
2021-09-23 20:51:31.364824,-19
2021-09-23 20:51:31.364830,-12
2021-09-23 20:51:31.364836,-36
2021-09-23 20:51:31.364842,-50
2021-09-23 20:51:31.364847,-24
2021-09-23 20:51:31.544686,-16
2021-09-23 20:51:31.544707,-19
2021-09-23 20:51:31.544715,2
2021-09-23 20:51:31.544721,21
2021-09-23 20:51:31.544727,7
2021-09-23 20:51:31.544733,-9
2021-09-23 20:51:31.544739,-26
2021-09-23 20:51:31.544745,-28
2021-09-23 20:51:31.544751,-7
2021-09-23 20:51:31.544756,2
2021-09-23 20:51:31.544762,2
2021-09-23 20:51:31.544768,64
2021-09-23 20:51:31.544774,307
2021-09-23 20:51:31.544779,786
2021-09-23 20:51:31.544785,1163
2021-09-23 20:51:31.544791,651
2021-09-23 20:51:31.544797,-363
2021-09-23 20:51:31.544803,-454
2021-09-23 20:51:31.544808,-2
2021-09-23 20:51:31.544814,-57
2021-09-23 20:51:31.544820,-189
2021-09-23 20:51:31.544826,-86
2021-09-23 20:51:31.544831,-62
2021-09-23 20:51:31.544837,-96
2021-09-23 20:51:31.544843,-64
2021-09-23 20:51:31.544848,-52
2021-09-23 20:51:31.544854,-60
2021-09-23 20:51:31.544860,-33
2021-09-23 20:51:31.544866,-16
2021-09-23 20:51:31.544871,-14
2021-09-23 20:51:31.860084,7
2021-09-23 20:51:31.860103,14
2021-09-23 20:51:31.860111,0
2021-09-23 20:51:31.860118,-2
2021-09-23 20:51:31.860125,9
2021-09-23 20:51:31.860132,12
2021-09-23 20:51:31.860138,14
2021-09-23 20:51:31.860144,36
2021-09-23 20:51:31.860150,67
2021-09-23 20:51:31.860156,79
2021-09-23 20:51:31.860163,79
2021-09-23 20:51:31.860169,91
2021-09-23 20:51:31.860175,93
2021-09-23 20:51:31.860181,72
2021-09-23 20:51:31.860187,48
2021-09-23 20:51:31.860194,31
2021-09-23 20:51:31.860200,4
2021-09-23 20:51:31.860206,-26
2021-09-23 20:51:31.860212,-55
2021-09-23 20:51:31.860218,-81
2021-09-23 20:51:31.860224,-96
2021-09-23 20:51:31.860230,-103
2021-09-23 20:51:31.860236,-110
2021-09-23 20:51:31.860242,-132
2021-09-23 20:51:31.860249,-137
2021-09-23 20:51:31.860255,-115
2021-09-23 20:51:31.860261,-98
2021-09-23 20:51:31.860267,-101
2021-09-23 20:51:31.860273,-101
2021-09-23 20:51:31.860280,-96
2021-09-23 20:51:32.128355,-96
2021-09-23 20:51:32.128375,-93
2021-09-23 20:51:32.128383,-98
2021-09-23 20:51:32.128389,-91
2021-09-23 20:51:32.128395,-64
2021-09-23 20:51:32.128401,-45
2021-09-23 20:51:32.128407,-40
2021-09-23 20:51:32.128412,-50
2021-09-23 20:51:32.128418,-72
2021-09-23 20:51:32.128424,-69
2021-09-23 20:51:32.128430,-31
2021-09-23 20:51:32.128436,-12
2021-09-23 20:51:32.128442,-36
2021-09-23 20:51:32.128447,-55
2021-09-23 20:51:32.128453,-40
2021-09-23 20:51:32.128459,-36
2021-09-23 20:51:32.128465,-45
2021-09-23 20:51:32.128470,-40
2021-09-23 20:51:32.128476,-24
2021-09-23 20:51:32.128482,-26
2021-09-23 20:51:32.128488,-52
2021-09-23 20:51:32.128493,-57
2021-09-23 20:51:32.128499,-33
2021-09-23 20:51:32.128505,-19
2021-09-23 20:51:32.128510,-7
2021-09-23 20:51:32.128516,0
2021-09-23 20:51:32.128522,-19
2021-09-23 20:51:32.128528,-33
2021-09-23 20:51:32.128533,-19
2021-09-23 20:51:32.128539,-31
2021-09-23 20:51:32.264597,-50
2021-09-23 20:51:32.264615,-38
2021-09-23 20:51:32.264622,-19
2021-09-23 20:51:32.264628,-2
2021-09-23 20:51:32.264635,45
2021-09-23 20:51:32.264641,202
2021-09-23 20:51:32.264647,579
2021-09-23 20:51:32.264653,1041
2021-09-23 20:51:32.264658,795
2021-09-23 20:51:32.264664,-271
2021-09-23 20:51:32.264670,-663
2021-09-23 20:51:32.264676,-144
2021-09-23 20:51:32.264682,-12
2021-09-23 20:51:32.264688,-170
2021-09-23 20:51:32.264693,-86
2021-09-23 20:51:32.264699,-52
2021-09-23 20:51:32.264705,-103
2021-09-23 20:51:32.264711,-48
2021-09-23 20:51:32.264716,0
2021-09-23 20:51:32.264722,-26
2021-09-23 20:51:32.264728,-26
2021-09-23 20:51:32.264734,0
2021-09-23 20:51:32.264740,7
2021-09-23 20:51:32.264745,12
2021-09-23 20:51:32.264751,16
2021-09-23 20:51:32.264756,19
2021-09-23 20:51:32.264762,38
2021-09-23 20:51:32.264768,57
2021-09-23 20:51:32.264773,72
2021-09-23 20:51:32.264779,84
2021-09-23 20:51:32.489705,88
2021-09-23 20:51:32.489726,98
2021-09-23 20:51:32.489734,117
2021-09-23 20:51:32.489740,122
2021-09-23 20:51:32.489746,120
2021-09-23 20:51:32.489752,115
2021-09-23 20:51:32.489757,110
2021-09-23 20:51:32.489763,93
2021-09-23 20:51:32.489769,60
2021-09-23 20:51:32.489775,28
2021-09-23 20:51:32.489781,-4
2021-09-23 20:51:32.489787,-48
2021-09-23 20:51:32.489792,-81
2021-09-23 20:51:32.489798,-96
2021-09-23 20:51:32.489804,-110
2021-09-23 20:51:32.489810,-134
2021-09-23 20:51:32.489816,-129
2021-09-23 20:51:32.489821,-110
2021-09-23 20:51:32.489827,-129
2021-09-23 20:51:32.489833,-149
2021-09-23 20:51:32.489839,-122
2021-09-23 20:51:32.489844,-88
2021-09-23 20:51:32.489850,-79
2021-09-23 20:51:32.489856,-88
2021-09-23 20:51:32.489862,-101
2021-09-23 20:51:32.489867,-84
2021-09-23 20:51:32.489873,-64
2021-09-23 20:51:32.489879,-62
2021-09-23 20:51:32.489884,-50
2021-09-23 20:51:32.489890,-43
2021-09-23 20:51:32.714687,-50
2021-09-23 20:51:32.714708,-50
2021-09-23 20:51:32.714716,-60
2021-09-23 20:51:32.714722,-76
2021-09-23 20:51:32.714728,-67
2021-09-23 20:51:32.714734,-52
2021-09-23 20:51:32.714739,-74
2021-09-23 20:51:32.714745,-86
2021-09-23 20:51:32.714751,-67
2021-09-23 20:51:32.714757,-52
2021-09-23 20:51:32.714763,-52
2021-09-23 20:51:32.714769,-57
2021-09-23 20:51:32.714774,-62
2021-09-23 20:51:32.714780,-69
2021-09-23 20:51:32.714786,-76
2021-09-23 20:51:32.714792,-62
2021-09-23 20:51:32.714797,-45
2021-09-23 20:51:32.714803,-50
2021-09-23 20:51:32.714809,-45
2021-09-23 20:51:32.714814,-21
2021-09-23 20:51:32.714820,-21
2021-09-23 20:51:32.714826,-38
2021-09-23 20:51:32.714832,-52
2021-09-23 20:51:32.714837,-55
2021-09-23 20:51:32.714843,-38
2021-09-23 20:51:32.714849,-21
2021-09-23 20:51:32.714855,-12
2021-09-23 20:51:32.714861,21
2021-09-23 20:51:32.714867,192
2021-09-23 20:51:32.714876,598
2021-09-23 20:51:32.939507,1029
2021-09-23 20:51:32.939523,685
2021-09-23 20:51:32.939527,-363
2021-09-23 20:51:32.939530,-613
2021-09-23 20:51:32.939533,-88
2021-09-23 20:51:32.939536,-38
2021-09-23 20:51:32.939540,-192
2021-09-23 20:51:32.939543,-57
2021-09-23 20:51:32.939546,-7
2021-09-23 20:51:32.939549,-88
2021-09-23 20:51:32.939552,-57
2021-09-23 20:51:32.939555,-19
2021-09-23 20:51:32.939558,-48
2021-09-23 20:51:32.939561,-28
2021-09-23 20:51:32.939564,2
2021-09-23 20:51:32.939567,-4
2021-09-23 20:51:32.939570,-4
2021-09-23 20:51:32.939573,4
2021-09-23 20:51:32.939576,19
2021-09-23 20:51:32.939579,36
2021-09-23 20:51:32.939582,38
2021-09-23 20:51:32.939585,48
2021-09-23 20:51:32.939588,79
2021-09-23 20:51:32.939592,105
2021-09-23 20:51:32.939595,117
2021-09-23 20:51:32.939598,113
2021-09-23 20:51:32.939601,98
2021-09-23 20:51:32.939604,108
2021-09-23 20:51:32.939607,129
2021-09-23 20:51:32.939610,110
2021-09-23 20:51:33.164714,76
2021-09-23 20:51:33.164734,74
2021-09-23 20:51:33.164741,45
2021-09-23 20:51:33.164747,-7
2021-09-23 20:51:33.164753,-36
2021-09-23 20:51:33.164759,-69
2021-09-23 20:51:33.164765,-113
2021-09-23 20:51:33.164770,-129
2021-09-23 20:51:33.164776,-134
2021-09-23 20:51:33.164782,-139
2021-09-23 20:51:33.164787,-144
2021-09-23 20:51:33.164793,-132
2021-09-23 20:51:33.164799,-105
2021-09-23 20:51:33.164805,-108
2021-09-23 20:51:33.164810,-134
2021-09-23 20:51:33.164816,-132
2021-09-23 20:51:33.164822,-110
2021-09-23 20:51:33.164827,-103
2021-09-23 20:51:33.164833,-91
2021-09-23 20:51:33.164842,-69
2021-09-23 20:51:33.164847,-62
2021-09-23 20:51:33.164853,-52
2021-09-23 20:51:33.164859,-36
2021-09-23 20:51:33.164864,-52
2021-09-23 20:51:33.164870,-72
2021-09-23 20:51:33.164876,-62
2021-09-23 20:51:33.164881,-48
2021-09-23 20:51:33.164887,-48
2021-09-23 20:51:33.164893,-55
2021-09-23 20:51:33.164898,-52
2021-09-23 20:51:33.389699,-55
2021-09-23 20:51:33.389718,-60
2021-09-23 20:51:33.389725,-60
2021-09-23 20:51:33.389732,-74
2021-09-23 20:51:33.389738,-76
2021-09-23 20:51:33.389743,-43
2021-09-23 20:51:33.389749,-26
2021-09-23 20:51:33.389755,-33
2021-09-23 20:51:33.389761,-33
2021-09-23 20:51:33.389767,-45
2021-09-23 20:51:33.389772,-74
2021-09-23 20:51:33.389778,-74
2021-09-23 20:51:33.389784,-48
2021-09-23 20:51:33.389789,-38
2021-09-23 20:51:33.389795,-33
2021-09-23 20:51:33.389801,-7
2021-09-23 20:51:33.389807,57
2021-09-23 20:51:33.389813,278
2021-09-23 20:51:33.389818,721
2021-09-23 20:51:33.389824,1010
2021-09-23 20:51:33.389830,406
2021-09-23 20:51:33.389836,-553
2021-09-23 20:51:33.389841,-495
2021-09-23 20:51:33.389847,-16
2021-09-23 20:51:33.389853,-93
2021-09-23 20:51:33.389858,-161
2021-09-23 20:51:33.389864,-33
2021-09-23 20:51:33.389870,-64
2021-09-23 20:51:33.389876,-101
2021-09-23 20:51:33.389881,-36
2021-09-23 20:51:33.704719,-16
2021-09-23 20:51:33.704740,-31
2021-09-23 20:51:33.704748,-24
2021-09-23 20:51:33.704754,-19
2021-09-23 20:51:33.704760,-12
2021-09-23 20:51:33.704766,12
2021-09-23 20:51:33.704772,24
2021-09-23 20:51:33.704778,12
2021-09-23 20:51:33.704784,16
2021-09-23 20:51:33.704790,28
2021-09-23 20:51:33.704795,31
2021-09-23 20:51:33.704801,55
2021-09-23 20:51:33.704807,74
2021-09-23 20:51:33.704813,72
2021-09-23 20:51:33.704819,76
2021-09-23 20:51:33.704825,81
2021-09-23 20:51:33.704830,76
2021-09-23 20:51:33.704836,86
2021-09-23 20:51:33.704842,93
2021-09-23 20:51:33.704848,74
2021-09-23 20:51:33.704854,33
2021-09-23 20:51:33.704859,-4
2021-09-23 20:51:33.704865,-50
2021-09-23 20:51:33.704871,-74
2021-09-23 20:51:33.704877,-76
2021-09-23 20:51:33.704882,-91
2021-09-23 20:51:33.704888,-110
2021-09-23 20:51:33.704894,-110
2021-09-23 20:51:33.704900,-110
2021-09-23 20:51:33.704905,-113
2021-09-23 20:51:33.929190,-108
2021-09-23 20:51:33.929211,-98
2021-09-23 20:51:33.929218,-98
2021-09-23 20:51:33.929224,-93
2021-09-23 20:51:33.929230,-81
2021-09-23 20:51:33.929236,-74
2021-09-23 20:51:33.929242,-67
2021-09-23 20:51:33.929248,-48
2021-09-23 20:51:33.929255,-40
2021-09-23 20:51:33.929261,-50
2021-09-23 20:51:33.929267,-43
2021-09-23 20:51:33.929273,-21
2021-09-23 20:51:33.929279,-16
2021-09-23 20:51:33.929284,-26
2021-09-23 20:51:33.929290,-38
2021-09-23 20:51:33.929296,-48
2021-09-23 20:51:33.929302,-45
2021-09-23 20:51:33.929308,-28
2021-09-23 20:51:33.929313,-7
2021-09-23 20:51:33.929319,-21
2021-09-23 20:51:33.929325,-57
2021-09-23 20:51:33.929331,-62
2021-09-23 20:51:33.929336,-50
2021-09-23 20:51:33.929342,-52
2021-09-23 20:51:33.929348,-67
2021-09-23 20:51:33.929353,-69
2021-09-23 20:51:33.929359,-55
2021-09-23 20:51:33.929365,-45
2021-09-23 20:51:33.929370,-48
2021-09-23 20:51:33.929376,-40
2021-09-23 20:51:34.153368,-24
2021-09-23 20:51:34.153388,-33
2021-09-23 20:51:34.153395,-50
2021-09-23 20:51:34.153402,-38
2021-09-23 20:51:34.153407,-24
2021-09-23 20:51:34.153413,-26
2021-09-23 20:51:34.153419,-28
2021-09-23 20:51:34.153425,-28
2021-09-23 20:51:34.153431,-4
2021-09-23 20:51:34.153436,137
2021-09-23 20:51:34.153442,526
2021-09-23 20:51:34.153448,1060
2021-09-23 20:51:34.153454,961
2021-09-23 20:51:34.153460,-16
2021-09-23 20:51:34.153465,-538
2021-09-23 20:51:34.153471,-151
2021-09-23 20:51:34.153477,4
2021-09-23 20:51:34.153483,-185
2021-09-23 20:51:34.153488,-141
2021-09-23 20:51:34.153494,-62
2021-09-23 20:51:34.153500,-113
2021-09-23 20:51:34.153505,-110
2021-09-23 20:51:34.153511,-60
2021-09-23 20:51:34.153516,-55
2021-09-23 20:51:34.153522,-60
2021-09-23 20:51:34.153528,-45
2021-09-23 20:51:34.153533,-38
2021-09-23 20:51:34.153539,-26
2021-09-23 20:51:34.153545,-21
2021-09-23 20:51:34.153551,-26
2021-09-23 20:51:34.379742,-7
2021-09-23 20:51:34.379762,7
2021-09-23 20:51:34.379769,-7
2021-09-23 20:51:34.379775,-2
2021-09-23 20:51:34.379781,28
2021-09-23 20:51:34.379787,40
2021-09-23 20:51:34.379793,55
2021-09-23 20:51:34.379799,69
2021-09-23 20:51:34.379804,55
2021-09-23 20:51:34.379810,38
2021-09-23 20:51:34.379816,60
2021-09-23 20:51:34.379822,76
2021-09-23 20:51:34.379827,55
2021-09-23 20:51:34.379833,9
2021-09-23 20:51:34.379839,-28
2021-09-23 20:51:34.379845,-45
2021-09-23 20:51:34.379851,-57
2021-09-23 20:51:34.379857,-64
2021-09-23 20:51:34.379863,-64
2021-09-23 20:51:34.379868,-69
2021-09-23 20:51:34.379874,-79
2021-09-23 20:51:34.379880,-81
2021-09-23 20:51:34.379885,-76
2021-09-23 20:51:34.379891,-74
2021-09-23 20:51:34.379897,-79
2021-09-23 20:51:34.379902,-79
2021-09-23 20:51:34.379908,-79
2021-09-23 20:51:34.379914,-91
2021-09-23 20:51:34.379919,-88
2021-09-23 20:51:34.379925,-67
2021-09-23 20:51:34.559644,-55
2021-09-23 20:51:34.559662,-57
2021-09-23 20:51:34.559669,-57
2021-09-23 20:51:34.559675,-52
2021-09-23 20:51:34.559681,-50
2021-09-23 20:51:34.559687,-43
2021-09-23 20:51:34.559693,-36
2021-09-23 20:51:34.559698,-31
2021-09-23 20:51:34.559704,-33
2021-09-23 20:51:34.559710,-43
2021-09-23 20:51:34.559715,-31
2021-09-23 20:51:34.559721,-21
2021-09-23 20:51:34.559727,-31
2021-09-23 20:51:34.559733,-28
2021-09-23 20:51:34.559738,-26
2021-09-23 20:51:34.559744,-26
2021-09-23 20:51:34.559750,-21
2021-09-23 20:51:34.559756,-40
2021-09-23 20:51:34.559762,-52
2021-09-23 20:51:34.559767,-33
2021-09-23 20:51:34.559773,-43
2021-09-23 20:51:34.559779,-69
2021-09-23 20:51:34.559784,-60
2021-09-23 20:51:34.559790,-31
2021-09-23 20:51:34.559796,-24
2021-09-23 20:51:34.559802,-31
2021-09-23 20:51:34.559807,-19
2021-09-23 20:51:34.559813,-21
2021-09-23 20:51:34.559819,-52
2021-09-23 20:51:34.559824,-48
2021-09-23 20:51:34.784722,-12
2021-09-23 20:51:34.784742,-21
2021-09-23 20:51:34.784749,-50
2021-09-23 20:51:34.784755,-33
2021-09-23 20:51:34.784761,21
2021-09-23 20:51:34.784767,158
2021-09-23 20:51:34.784773,536
2021-09-23 20:51:34.784779,1024
2021-09-23 20:51:34.784785,841
2021-09-23 20:51:34.784791,-122
2021-09-23 20:51:34.784797,-533
2021-09-23 20:51:34.784802,-129
2021-09-23 20:51:34.784808,-26
2021-09-23 20:51:34.784814,-202
2021-09-23 20:51:34.784820,-122
2021-09-23 20:51:34.784826,-31
2021-09-23 20:51:34.784832,-79
2021-09-23 20:51:34.784838,-79
2021-09-23 20:51:34.784843,-45
2021-09-23 20:51:34.784849,-43
2021-09-23 20:51:34.784855,-36
2021-09-23 20:51:34.784861,-24
2021-09-23 20:51:34.784866,-19
2021-09-23 20:51:34.784872,-12
2021-09-23 20:51:34.784877,-2
2021-09-23 20:51:34.784883,14
2021-09-23 20:51:34.784889,33
2021-09-23 20:51:34.784895,21
2021-09-23 20:51:34.784900,-4
2021-09-23 20:51:34.784906,14
2021-09-23 20:51:35.099128,48
2021-09-23 20:51:35.099148,48
2021-09-23 20:51:35.099155,45
2021-09-23 20:51:35.099162,67
2021-09-23 20:51:35.099168,76
2021-09-23 20:51:35.099177,67
2021-09-23 20:51:35.099184,48
2021-09-23 20:51:35.099190,28
2021-09-23 20:51:35.099196,26
2021-09-23 20:51:35.099201,14
2021-09-23 20:51:35.099207,-21
2021-09-23 20:51:35.099213,-38
2021-09-23 20:51:35.099219,-40
2021-09-23 20:51:35.099225,-48
2021-09-23 20:51:35.099230,-60
2021-09-23 20:51:35.099237,-69
2021-09-23 20:51:35.099242,-74
2021-09-23 20:51:35.099248,-79
2021-09-23 20:51:35.099254,-81
2021-09-23 20:51:35.099260,-72
2021-09-23 20:51:35.099266,-57
2021-09-23 20:51:35.099271,-62
2021-09-23 20:51:35.099277,-84
2021-09-23 20:51:35.099283,-84
2021-09-23 20:51:35.099289,-48
2021-09-23 20:51:35.099294,-36
2021-09-23 20:51:35.099300,-60
2021-09-23 20:51:35.099306,-64
2021-09-23 20:51:35.099311,-52
2021-09-23 20:51:35.099317,-36
2021-09-23 20:51:35.234631,-21
2021-09-23 20:51:35.234649,-33
2021-09-23 20:51:35.234656,-55
2021-09-23 20:51:35.234662,-43
2021-09-23 20:51:35.234668,-24
2021-09-23 20:51:35.234674,-43
2021-09-23 20:51:35.234680,-48
2021-09-23 20:51:35.234686,-26
2021-09-23 20:51:35.234691,-26
2021-09-23 20:51:35.234697,-52
2021-09-23 20:51:35.234703,-60
2021-09-23 20:51:35.234709,-33
2021-09-23 20:51:35.234714,-16
2021-09-23 20:51:35.234720,-31
2021-09-23 20:51:35.234726,-55
2021-09-23 20:51:35.234731,-60
2021-09-23 20:51:35.234737,-48
2021-09-23 20:51:35.234743,-50
2021-09-23 20:51:35.234749,-60
2021-09-23 20:51:35.234754,-55
2021-09-23 20:51:35.234760,-28
2021-09-23 20:51:35.234766,-14
2021-09-23 20:51:35.234771,-28
2021-09-23 20:51:35.234777,-28
2021-09-23 20:51:35.234783,-7
2021-09-23 20:51:35.234788,-21
2021-09-23 20:51:35.234794,-50
2021-09-23 20:51:35.234800,-43
2021-09-23 20:51:35.234806,-24
2021-09-23 20:51:35.234812,-12
2021-09-23 20:51:35.549753,-4
2021-09-23 20:51:35.549775,26
2021-09-23 20:51:35.549782,168
2021-09-23 20:51:35.549788,514
2021-09-23 20:51:35.549794,978
2021-09-23 20:51:35.549800,877
2021-09-23 20:51:35.549806,-60
2021-09-23 20:51:35.549812,-560
2021-09-23 20:51:35.549818,-156
2021-09-23 20:51:35.549824,7
2021-09-23 20:51:35.549830,-180
2021-09-23 20:51:35.549836,-134
2021-09-23 20:51:35.549842,-45
2021-09-23 20:51:35.549847,-76
2021-09-23 20:51:35.549853,-57
2021-09-23 20:51:35.549859,-21
2021-09-23 20:51:35.549865,-24
2021-09-23 20:51:35.549871,-14
2021-09-23 20:51:35.549876,-4
2021-09-23 20:51:35.549882,-16
2021-09-23 20:51:35.549888,-7
2021-09-23 20:51:35.549894,14
2021-09-23 20:51:35.549900,9
2021-09-23 20:51:35.549905,21
2021-09-23 20:51:35.549911,55
2021-09-23 20:51:35.549917,52
2021-09-23 20:51:35.549923,31
2021-09-23 20:51:35.549928,45
2021-09-23 20:51:35.549934,64
2021-09-23 20:51:35.549940,67
2021-09-23 20:51:35.729741,76
2021-09-23 20:51:35.729761,84
2021-09-23 20:51:35.729769,74
2021-09-23 20:51:35.729775,62
2021-09-23 20:51:35.729781,62
2021-09-23 20:51:35.729787,45
2021-09-23 20:51:35.729793,14
2021-09-23 20:51:35.729799,-19
2021-09-23 20:51:35.729805,-40
2021-09-23 20:51:35.729811,-57
2021-09-23 20:51:35.729817,-67
2021-09-23 20:51:35.729822,-74
2021-09-23 20:51:35.729828,-72
2021-09-23 20:51:35.729834,-64
2021-09-23 20:51:35.729839,-86
2021-09-23 20:51:35.729845,-108
2021-09-23 20:51:35.729851,-88
2021-09-23 20:51:35.729857,-62
2021-09-23 20:51:35.729863,-69
2021-09-23 20:51:35.729869,-84
2021-09-23 20:51:35.729874,-86
2021-09-23 20:51:35.729880,-79
2021-09-23 20:51:35.729886,-60
2021-09-23 20:51:35.729892,-43
2021-09-23 20:51:35.729897,-45
2021-09-23 20:51:35.729903,-52
2021-09-23 20:51:35.729909,-45
2021-09-23 20:51:35.729914,-31
2021-09-23 20:51:35.729920,-19
2021-09-23 20:51:35.729926,-19
2021-09-23 20:51:35.999759,-24
2021-09-23 20:51:35.999779,-26
2021-09-23 20:51:35.999786,-26
2021-09-23 20:51:35.999793,-26
2021-09-23 20:51:35.999799,-26
2021-09-23 20:51:35.999805,-26
2021-09-23 20:51:35.999811,-19
2021-09-23 20:51:35.999816,-19
2021-09-23 20:51:35.999822,-28
2021-09-23 20:51:35.999828,-38
2021-09-23 20:51:35.999834,-55
2021-09-23 20:51:35.999839,-64
2021-09-23 20:51:35.999845,-55
2021-09-23 20:51:35.999851,-55
2021-09-23 20:51:35.999857,-67
2021-09-23 20:51:35.999863,-62
2021-09-23 20:51:35.999869,-50
2021-09-23 20:51:35.999875,-45
2021-09-23 20:51:35.999880,-31
2021-09-23 20:51:35.999886,-19
2021-09-23 20:51:35.999892,-14
2021-09-23 20:51:35.999898,-9
2021-09-23 20:51:35.999904,-16
2021-09-23 20:51:35.999909,-31
2021-09-23 20:51:35.999915,-31
2021-09-23 20:51:35.999921,-19
2021-09-23 20:51:35.999927,-14
2021-09-23 20:51:35.999932,2
2021-09-23 20:51:35.999938,36
2021-09-23 20:51:35.999944,117
2021-09-23 20:51:36.224006,367
2021-09-23 20:51:36.224026,812
2021-09-23 20:51:36.224033,978
2021-09-23 20:51:36.224039,238
2021-09-23 20:51:36.224046,-569
2021-09-23 20:51:36.224055,-327
2021-09-23 20:51:36.224061,62
2021-09-23 20:51:36.224067,-96
2021-09-23 20:51:36.224073,-144
2021-09-23 20:51:36.224078,-14
2021-09-23 20:51:36.224084,-28
2021-09-23 20:51:36.224090,-62
2021-09-23 20:51:36.224096,-38
2021-09-23 20:51:36.224102,-36
2021-09-23 20:51:36.224108,-36
2021-09-23 20:51:36.224113,-21
2021-09-23 20:51:36.224119,-9
2021-09-23 20:51:36.224125,4
2021-09-23 20:51:36.224130,9
2021-09-23 20:51:36.224136,7
2021-09-23 20:51:36.224142,19
2021-09-23 20:51:36.224147,31
2021-09-23 20:51:36.224153,33
2021-09-23 20:51:36.224159,48
2021-09-23 20:51:36.224164,69
2021-09-23 20:51:36.224170,74
2021-09-23 20:51:36.224176,60
2021-09-23 20:51:36.224182,62
2021-09-23 20:51:36.224187,69
2021-09-23 20:51:36.224193,67
2021-09-23 20:51:36.404752,52
2021-09-23 20:51:36.404773,43
2021-09-23 20:51:36.404780,45
2021-09-23 20:51:36.404787,31
2021-09-23 20:51:36.404793,2
2021-09-23 20:51:36.404799,-9
2021-09-23 20:51:36.404805,-24
2021-09-23 20:51:36.404811,-40
2021-09-23 20:51:36.404816,-48
2021-09-23 20:51:36.404822,-55
2021-09-23 20:51:36.404828,-57
2021-09-23 20:51:36.404834,-74
2021-09-23 20:51:36.404840,-96
2021-09-23 20:51:36.404845,-86
2021-09-23 20:51:36.404851,-67
2021-09-23 20:51:36.404857,-64
2021-09-23 20:51:36.404863,-57
2021-09-23 20:51:36.404869,-45
2021-09-23 20:51:36.404874,-50
2021-09-23 20:51:36.404880,-57
2021-09-23 20:51:36.404886,-40
2021-09-23 20:51:36.404891,-33
2021-09-23 20:51:36.404897,-40
2021-09-23 20:51:36.404903,-36
2021-09-23 20:51:36.404908,-26
2021-09-23 20:51:36.404914,-24
2021-09-23 20:51:36.404920,-16
2021-09-23 20:51:36.404926,-14
2021-09-23 20:51:36.404932,-19
2021-09-23 20:51:36.404938,-33
2021-09-23 20:51:36.674745,-45
2021-09-23 20:51:36.674765,-33
2021-09-23 20:51:36.674772,-19
2021-09-23 20:51:36.674778,-28
2021-09-23 20:51:36.674784,-43
2021-09-23 20:51:36.674790,-43
2021-09-23 20:51:36.674796,-36
2021-09-23 20:51:36.674802,-33
2021-09-23 20:51:36.674807,-33
2021-09-23 20:51:36.674813,-33
2021-09-23 20:51:36.674819,-26
2021-09-23 20:51:36.674824,-31
2021-09-23 20:51:36.674833,-48
2021-09-23 20:51:36.674839,-36
2021-09-23 20:51:36.674845,-7
2021-09-23 20:51:36.674851,-4
2021-09-23 20:51:36.674856,-7
2021-09-23 20:51:36.674862,-14
2021-09-23 20:51:36.674868,-40
2021-09-23 20:51:36.674873,-50
2021-09-23 20:51:36.674879,-38
2021-09-23 20:51:36.674885,-33
2021-09-23 20:51:36.674890,-19
2021-09-23 20:51:36.674896,16
2021-09-23 20:51:36.674902,98
2021-09-23 20:51:36.674908,355
2021-09-23 20:51:36.674913,817
2021-09-23 20:51:36.674919,1012
2021-09-23 20:51:36.674925,274
2021-09-23 20:51:36.674931,-618
2021-09-23 20:51:36.899850,-411
2021-09-23 20:51:36.899872,50
2021-09-23 20:51:36.899879,-79
2021-09-23 20:51:36.899885,-149
2021-09-23 20:51:36.899891,-16
2021-09-23 20:51:36.899897,-36
2021-09-23 20:51:36.899903,-74
2021-09-23 20:51:36.899909,-14
2021-09-23 20:51:36.899915,4
2021-09-23 20:51:36.899921,-14
2021-09-23 20:51:36.899927,0
2021-09-23 20:51:36.899933,14
2021-09-23 20:51:36.899939,12
2021-09-23 20:51:36.899945,24
2021-09-23 20:51:36.899951,38
2021-09-23 20:51:36.899956,43
2021-09-23 20:51:36.899962,48
2021-09-23 20:51:36.899968,43
2021-09-23 20:51:36.899974,48
2021-09-23 20:51:36.899980,64
2021-09-23 20:51:36.899986,64
2021-09-23 20:51:36.899992,69
2021-09-23 20:51:36.899998,79
2021-09-23 20:51:36.900033,81
2021-09-23 20:51:36.900039,86
2021-09-23 20:51:36.900045,76
2021-09-23 20:51:36.900050,43
2021-09-23 20:51:36.900056,24
2021-09-23 20:51:36.900062,21
2021-09-23 20:51:36.900067,0
2021-09-23 20:51:37.079674,-28
2021-09-23 20:51:37.079692,-43
2021-09-23 20:51:37.079699,-62
2021-09-23 20:51:37.079705,-81
2021-09-23 20:51:37.079711,-101
2021-09-23 20:51:37.079717,-108
2021-09-23 20:51:37.079723,-98
2021-09-23 20:51:37.079728,-81
2021-09-23 20:51:37.079734,-72
2021-09-23 20:51:37.079740,-67
2021-09-23 20:51:37.079746,-67
2021-09-23 20:51:37.079751,-64
2021-09-23 20:51:37.079757,-55
2021-09-23 20:51:37.079763,-48
2021-09-23 20:51:37.079768,-45
2021-09-23 20:51:37.079774,-40
2021-09-23 20:51:37.079780,-40
2021-09-23 20:51:37.079785,-33
2021-09-23 20:51:37.079791,-43
2021-09-23 20:51:37.079797,-64
2021-09-23 20:51:37.079803,-67
2021-09-23 20:51:37.079808,-62
2021-09-23 20:51:37.079814,-67
2021-09-23 20:51:37.079820,-67
2021-09-23 20:51:37.079825,-62
2021-09-23 20:51:37.079831,-52
2021-09-23 20:51:37.079836,-50
2021-09-23 20:51:37.079842,-52
2021-09-23 20:51:37.079848,-67
2021-09-23 20:51:37.079853,-76
2021-09-23 20:51:37.394761,-64
2021-09-23 20:51:37.394782,-38
2021-09-23 20:51:37.394789,-28
2021-09-23 20:51:37.394795,-36
2021-09-23 20:51:37.394802,-38
2021-09-23 20:51:37.394808,-33
2021-09-23 20:51:37.394814,-33
2021-09-23 20:51:37.394820,-38
2021-09-23 20:51:37.394826,-50
2021-09-23 20:51:37.394831,-52
2021-09-23 20:51:37.394837,-33
2021-09-23 20:51:37.394843,-9
2021-09-23 20:51:37.394849,93
2021-09-23 20:51:37.394855,382
2021-09-23 20:51:37.394860,786
2021-09-23 20:51:37.394866,839
2021-09-23 20:51:37.394872,21
2021-09-23 20:51:37.394878,-774
2021-09-23 20:51:37.394884,-430
2021-09-23 20:51:37.394889,38
2021-09-23 20:51:37.394895,-108
2021-09-23 20:51:37.394901,-122
2021-09-23 20:51:37.394907,24
2021-09-23 20:51:37.394912,-19
2021-09-23 20:51:37.394918,-45
2021-09-23 20:51:37.394924,14
2021-09-23 20:51:37.394929,2
2021-09-23 20:51:37.394935,-14
2021-09-23 20:51:37.394941,24
2021-09-23 20:51:37.394946,36
2021-09-23 20:51:37.574773,36
2021-09-23 20:51:37.574793,57
2021-09-23 20:51:37.574801,69
2021-09-23 20:51:37.574807,69
2021-09-23 20:51:37.574813,76
2021-09-23 20:51:37.574819,101
2021-09-23 20:51:37.574824,122
2021-09-23 20:51:37.574830,127
2021-09-23 20:51:37.574836,132
2021-09-23 20:51:37.574842,146
2021-09-23 20:51:37.574847,156
2021-09-23 20:51:37.574853,161
2021-09-23 20:51:37.574859,153
2021-09-23 20:51:37.574864,127
2021-09-23 20:51:37.574870,98
2021-09-23 20:51:37.574876,81
2021-09-23 20:51:37.574882,48
2021-09-23 20:51:37.574887,-4
2021-09-23 20:51:37.574893,-38
2021-09-23 20:51:37.574899,-52
2021-09-23 20:51:37.574905,-79
2021-09-23 20:51:37.574910,-115
2021-09-23 20:51:37.574916,-132
2021-09-23 20:51:37.574921,-120
2021-09-23 20:51:37.574927,-113
2021-09-23 20:51:37.574933,-113
2021-09-23 20:51:37.574938,-105
2021-09-23 20:51:37.574944,-98
2021-09-23 20:51:37.574950,-93
2021-09-23 20:51:37.574956,-84
2021-09-23 20:51:37.799765,-79
2021-09-23 20:51:37.799784,-76
2021-09-23 20:51:37.799792,-62
2021-09-23 20:51:37.799798,-45
2021-09-23 20:51:37.799804,-45
2021-09-23 20:51:37.799810,-40
2021-09-23 20:51:37.799816,-28
2021-09-23 20:51:37.799821,-45
2021-09-23 20:51:37.799827,-76
2021-09-23 20:51:37.799833,-69
2021-09-23 20:51:37.799838,-50
2021-09-23 20:51:37.799844,-60
2021-09-23 20:51:37.799850,-72
2021-09-23 20:51:37.799855,-74
2021-09-23 20:51:37.799861,-84
2021-09-23 20:51:37.799867,-69
2021-09-23 20:51:37.799873,-33
2021-09-23 20:51:37.799878,-36
2021-09-23 20:51:37.799884,-48
2021-09-23 20:51:37.799890,-45
2021-09-23 20:51:37.799895,-52
2021-09-23 20:51:37.799901,-50
2021-09-23 20:51:37.799906,-43
2021-09-23 20:51:37.799912,-57
2021-09-23 20:51:37.799917,-60
2021-09-23 20:51:37.799923,-24
2021-09-23 20:51:37.799929,24
2021-09-23 20:51:37.799934,170
2021-09-23 20:51:37.799940,541
2021-09-23 20:51:37.799946,901
2021-09-23 20:51:38.024767,538
2021-09-23 20:51:38.024788,-452
2021-09-23 20:51:38.024796,-685
2021-09-23 20:51:38.024802,-132
2021-09-23 20:51:38.024808,-14
2021-09-23 20:51:38.024815,-156
2021-09-23 20:51:38.024821,-48
2021-09-23 20:51:38.024827,0
2021-09-23 20:51:38.024833,-62
2021-09-23 20:51:38.024838,-38
2021-09-23 20:51:38.024844,0
2021-09-23 20:51:38.024850,-2
2021-09-23 20:51:38.024856,12
2021-09-23 20:51:38.024862,28
2021-09-23 20:51:38.024868,19
2021-09-23 20:51:38.024874,14
2021-09-23 20:51:38.024880,43
2021-09-23 20:51:38.024886,72
2021-09-23 20:51:38.024892,62
2021-09-23 20:51:38.024898,64
2021-09-23 20:51:38.024904,93
2021-09-23 20:51:38.024909,108
2021-09-23 20:51:38.024915,120
2021-09-23 20:51:38.024921,137
2021-09-23 20:51:38.024927,125
2021-09-23 20:51:38.024933,115
2021-09-23 20:51:38.024939,122
2021-09-23 20:51:38.024944,115
2021-09-23 20:51:38.024950,101
2021-09-23 20:51:38.024956,88
2021-09-23 20:51:38.293434,52
2021-09-23 20:51:38.293453,4
2021-09-23 20:51:38.293460,-21
2021-09-23 20:51:38.293465,-43
2021-09-23 20:51:38.293470,-69
2021-09-23 20:51:38.293475,-91
2021-09-23 20:51:38.293480,-122
2021-09-23 20:51:38.293487,-139
2021-09-23 20:51:38.293492,-120
2021-09-23 20:51:38.293498,-115
2021-09-23 20:51:38.293504,-125
2021-09-23 20:51:38.293509,-103
2021-09-23 20:51:38.293516,-79
2021-09-23 20:51:38.293523,-76
2021-09-23 20:51:38.293530,-60
2021-09-23 20:51:38.293536,-36
2021-09-23 20:51:38.293544,-40
2021-09-23 20:51:38.293552,-40
2021-09-23 20:51:38.293560,-21
2021-09-23 20:51:38.293567,-26
2021-09-23 20:51:38.293575,-33
2021-09-23 20:51:38.293582,-19
2021-09-23 20:51:38.293587,-16
2021-09-23 20:51:38.293593,-31
2021-09-23 20:51:38.293600,-31
2021-09-23 20:51:38.293606,-26
2021-09-23 20:51:38.293613,-36
2021-09-23 20:51:38.293618,-43
2021-09-23 20:51:38.293624,-38
2021-09-23 20:51:38.293630,-33
2021-09-23 20:51:38.519784,-33
2021-09-23 20:51:38.519806,-28
2021-09-23 20:51:38.519813,-16
2021-09-23 20:51:38.519819,-7
2021-09-23 20:51:38.519825,-19
2021-09-23 20:51:38.519830,-43
2021-09-23 20:51:38.519836,-52
2021-09-23 20:51:38.519842,-52
2021-09-23 20:51:38.519848,-55
2021-09-23 20:51:38.519854,-55
2021-09-23 20:51:38.519860,-40
2021-09-23 20:51:38.519866,-12
2021-09-23 20:51:38.519871,115
2021-09-23 20:51:38.519877,488
2021-09-23 20:51:38.519883,964
2021-09-23 20:51:38.519889,817
2021-09-23 20:51:38.519894,-180
2021-09-23 20:51:38.519900,-678
2021-09-23 20:51:38.519906,-209
2021-09-23 20:51:38.519911,-7
2021-09-23 20:51:38.519917,-185
2021-09-23 20:51:38.519922,-113
2021-09-23 20:51:38.519928,-16
2021-09-23 20:51:38.519933,-76
2021-09-23 20:51:38.519939,-74
2021-09-23 20:51:38.519945,-28
2021-09-23 20:51:38.519950,-31
2021-09-23 20:51:38.519956,-12
2021-09-23 20:51:38.519962,12
2021-09-23 20:51:38.519967,0
2021-09-23 20:51:38.745263,-4
2021-09-23 20:51:38.745283,9
2021-09-23 20:51:38.745291,12
2021-09-23 20:51:38.745297,12
2021-09-23 20:51:38.745303,24
2021-09-23 20:51:38.745309,38
2021-09-23 20:51:38.745315,52
2021-09-23 20:51:38.745321,67
2021-09-23 20:51:38.745326,72
2021-09-23 20:51:38.745332,81
2021-09-23 20:51:38.745338,88
2021-09-23 20:51:38.745344,74
2021-09-23 20:51:38.745350,62
2021-09-23 20:51:38.745355,64
2021-09-23 20:51:38.745361,55
2021-09-23 20:51:38.745367,36
2021-09-23 20:51:38.745373,2
2021-09-23 20:51:38.745378,-43
2021-09-23 20:51:38.745384,-72
2021-09-23 20:51:38.745390,-84
2021-09-23 20:51:38.745396,-88
2021-09-23 20:51:38.745401,-98
2021-09-23 20:51:38.745407,-101
2021-09-23 20:51:38.745413,-88
2021-09-23 20:51:38.745418,-86
2021-09-23 20:51:38.745424,-88
2021-09-23 20:51:38.745430,-81
2021-09-23 20:51:38.745436,-76
2021-09-23 20:51:38.745441,-72
2021-09-23 20:51:38.745447,-52
2021-09-23 20:51:38.924885,-38
2021-09-23 20:51:38.924906,-40
2021-09-23 20:51:38.924914,-38
2021-09-23 20:51:38.924920,-26
2021-09-23 20:51:38.924926,-14
2021-09-23 20:51:38.924932,-14
2021-09-23 20:51:38.924938,-16
2021-09-23 20:51:38.924944,-12
2021-09-23 20:51:38.924950,-2
2021-09-23 20:51:38.924956,-12
2021-09-23 20:51:38.924962,-50
2021-09-23 20:51:38.924968,-62
2021-09-23 20:51:38.924973,-36
2021-09-23 20:51:38.924979,-26
2021-09-23 20:51:38.925032,-26
2021-09-23 20:51:38.925038,-14
2021-09-23 20:51:38.925044,-14
2021-09-23 20:51:38.925050,-21
2021-09-23 20:51:38.925055,-28
2021-09-23 20:51:38.925061,-45
2021-09-23 20:51:38.925067,-52
2021-09-23 20:51:38.925073,-40
2021-09-23 20:51:38.925078,-36
2021-09-23 20:51:38.925084,-40
2021-09-23 20:51:38.925090,-24
2021-09-23 20:51:38.925096,31
2021-09-23 20:51:38.925101,199
2021-09-23 20:51:38.925107,581
2021-09-23 20:51:38.925113,1043
2021-09-23 20:51:38.925119,865
2021-09-23 20:51:39.284789,-127
2021-09-23 20:51:39.284810,-579
2021-09-23 20:51:39.284817,-146
2021-09-23 20:51:39.284823,-9
2021-09-23 20:51:39.284829,-204
2021-09-23 20:51:39.284835,-141
2021-09-23 20:51:39.284841,-52
2021-09-23 20:51:39.284847,-103
2021-09-23 20:51:39.284853,-103
2021-09-23 20:51:39.284859,-62
2021-09-23 20:51:39.284865,-60
2021-09-23 20:51:39.284871,-55
2021-09-23 20:51:39.284877,-36
2021-09-23 20:51:39.284882,-33
2021-09-23 20:51:39.284888,-28
2021-09-23 20:51:39.284894,-14
2021-09-23 20:51:39.284900,-12
2021-09-23 20:51:39.284906,-16
2021-09-23 20:51:39.284911,-7
2021-09-23 20:51:39.284917,14
2021-09-23 20:51:39.284923,28
2021-09-23 20:51:39.284929,38
2021-09-23 20:51:39.284935,62
2021-09-23 20:51:39.284941,86
2021-09-23 20:51:39.284946,86
2021-09-23 20:51:39.284952,74
2021-09-23 20:51:39.284958,72
2021-09-23 20:51:39.284964,72
2021-09-23 20:51:39.284970,52
2021-09-23 20:51:39.284976,33
2021-09-23 20:51:39.509787,14
2021-09-23 20:51:39.509808,-28
2021-09-23 20:51:39.509815,-79
2021-09-23 20:51:39.509821,-93
2021-09-23 20:51:39.509827,-84
2021-09-23 20:51:39.509833,-91
2021-09-23 20:51:39.509839,-101
2021-09-23 20:51:39.509845,-101
2021-09-23 20:51:39.509944,-96
2021-09-23 20:51:39.509952,-98
2021-09-23 20:51:39.509958,-101
2021-09-23 20:51:39.509964,-88
2021-09-23 20:51:39.509970,-72
2021-09-23 20:51:39.509976,-67
2021-09-23 20:51:39.509981,-79
2021-09-23 20:51:39.509987,-84
2021-09-23 20:51:39.509993,-69
2021-09-23 20:51:39.509999,-62
2021-09-23 20:51:39.510005,-57
2021-09-23 20:51:39.510011,-38
2021-09-23 20:51:39.510016,-40
2021-09-23 20:51:39.510022,-48
2021-09-23 20:51:39.510028,-38
2021-09-23 20:51:39.510033,-31
2021-09-23 20:51:39.510039,-19
2021-09-23 20:51:39.510045,-16
2021-09-23 20:51:39.510051,-26
2021-09-23 20:51:39.510057,-19
2021-09-23 20:51:39.510063,-2
2021-09-23 20:51:39.510069,-9
2021-09-23 20:51:39.734142,-33
2021-09-23 20:51:39.734163,-43
2021-09-23 20:51:39.734170,-43
2021-09-23 20:51:39.734176,-36
2021-09-23 20:51:39.734182,-21
2021-09-23 20:51:39.734188,-9
2021-09-23 20:51:39.734194,40
2021-09-23 20:51:39.734200,223
2021-09-23 20:51:39.734207,613
2021-09-23 20:51:39.734213,1019
2021-09-23 20:51:39.734219,709
2021-09-23 20:51:39.734225,-319
2021-09-23 20:51:39.734231,-622
2021-09-23 20:51:39.734237,-110
2021-09-23 20:51:39.734242,-21
2021-09-23 20:51:39.734248,-187
2021-09-23 20:51:39.734254,-76
2021-09-23 20:51:39.734261,-7
2021-09-23 20:51:39.734267,-79
2021-09-23 20:51:39.734273,-74
2021-09-23 20:51:39.734279,-21
2021-09-23 20:51:39.734285,-19
2021-09-23 20:51:39.734291,-38
2021-09-23 20:51:39.734297,-45
2021-09-23 20:51:39.734303,-33
2021-09-23 20:51:39.734309,-12
2021-09-23 20:51:39.734315,0
2021-09-23 20:51:39.734321,12
2021-09-23 20:51:39.734327,19
2021-09-23 20:51:39.734333,19
2021-09-23 20:51:39.870010,38
2021-09-23 20:51:39.870033,64
2021-09-23 20:51:39.870040,81
2021-09-23 20:51:39.870046,98
2021-09-23 20:51:39.870051,98
2021-09-23 20:51:39.870057,91
2021-09-23 20:51:39.870062,98
2021-09-23 20:51:39.870068,91
2021-09-23 20:51:39.870074,69
2021-09-23 20:51:39.870079,43
2021-09-23 20:51:39.870085,19
2021-09-23 20:51:39.870090,-14
2021-09-23 20:51:39.870095,-55
2021-09-23 20:51:39.870101,-86
2021-09-23 20:51:39.870106,-101
2021-09-23 20:51:39.870111,-125
2021-09-23 20:51:39.870116,-153
2021-09-23 20:51:39.870121,-146
2021-09-23 20:51:39.870126,-122
2021-09-23 20:51:39.870131,-125
2021-09-23 20:51:39.870136,-139
2021-09-23 20:51:39.870141,-132
2021-09-23 20:51:39.870147,-117
2021-09-23 20:51:39.870152,-110
2021-09-23 20:51:39.870157,-96
2021-09-23 20:51:39.870162,-88
2021-09-23 20:51:39.870167,-84
2021-09-23 20:51:39.870173,-67
2021-09-23 20:51:39.870179,-55
2021-09-23 20:51:39.870184,-48
2021-09-23 20:51:40.184183,-45
2021-09-23 20:51:40.184203,-38
2021-09-23 20:51:40.184210,-24
2021-09-23 20:51:40.184216,-28
2021-09-23 20:51:40.184222,-57
2021-09-23 20:51:40.184228,-64
2021-09-23 20:51:40.184234,-52
2021-09-23 20:51:40.184240,-40
2021-09-23 20:51:40.184246,-26
2021-09-23 20:51:40.184251,-16
2021-09-23 20:51:40.184257,-14
2021-09-23 20:51:40.184263,-19
2021-09-23 20:51:40.184269,-40
2021-09-23 20:51:40.184274,-60
2021-09-23 20:51:40.184280,-52
2021-09-23 20:51:40.184285,-45
2021-09-23 20:51:40.184291,-48
2021-09-23 20:51:40.184297,-43
2021-09-23 20:51:40.184302,-7
2021-09-23 20:51:40.184308,115
2021-09-23 20:51:40.184314,454
2021-09-23 20:51:40.184320,964
2021-09-23 20:51:40.184325,990
2021-09-23 20:51:40.184331,48
2021-09-23 20:51:40.184337,-658
2021-09-23 20:51:40.184343,-281
2021-09-23 20:51:40.184348,9
2021-09-23 20:51:40.184354,-175
2021-09-23 20:51:40.184360,-161
2021-09-23 20:51:40.184366,-50
2021-09-23 20:51:40.363431,-81
2021-09-23 20:51:40.363451,-81
2021-09-23 20:51:40.363458,-33
2021-09-23 20:51:40.363465,-33
2021-09-23 20:51:40.363471,-28
2021-09-23 20:51:40.363476,-7
2021-09-23 20:51:40.363482,-7
2021-09-23 20:51:40.363488,-16
2021-09-23 20:51:40.363494,-7
2021-09-23 20:51:40.363500,4
2021-09-23 20:51:40.363506,9
2021-09-23 20:51:40.363512,14
2021-09-23 20:51:40.363517,31
2021-09-23 20:51:40.363523,62
2021-09-23 20:51:40.363529,91
2021-09-23 20:51:40.363535,93
2021-09-23 20:51:40.363541,86
