Time,ECG
2021-09-23 21:09:17.159097,24
2021-09-23 21:09:17.159114,33
2021-09-23 21:09:17.159121,21
2021-09-23 21:09:17.159127,-4
2021-09-23 21:09:17.159133,-19
2021-09-23 21:09:17.159140,-4
2021-09-23 21:09:17.159145,7
2021-09-23 21:09:17.159151,2
2021-09-23 21:09:17.159157,12
2021-09-23 21:09:17.159163,91
2021-09-23 21:09:17.159169,315
2021-09-23 21:09:17.159175,709
2021-09-23 21:09:17.159180,1002
2021-09-23 21:09:17.159186,529
2021-09-23 21:09:17.159191,-435
2021-09-23 21:09:17.159197,-560
2021-09-23 21:09:17.159203,-86
2021-09-23 21:09:17.159209,-74
2021-09-23 21:09:17.159215,-197
2021-09-23 21:09:17.159220,-79
2021-09-23 21:09:17.159226,-33
2021-09-23 21:09:17.159231,-86
2021-09-23 21:09:17.159237,-60
2021-09-23 21:09:17.159243,-28
2021-09-23 21:09:17.159248,-38
2021-09-23 21:09:17.159254,-31
2021-09-23 21:09:17.159260,-12
2021-09-23 21:09:17.159266,-9
2021-09-23 21:09:17.159272,-4
2021-09-23 21:09:17.159278,9
2021-09-23 21:09:17.429099,21
2021-09-23 21:09:17.429117,33
2021-09-23 21:09:17.429124,45
2021-09-23 21:09:17.429131,50
2021-09-23 21:09:17.429136,62
2021-09-23 21:09:17.429142,72
2021-09-23 21:09:17.429149,79
2021-09-23 21:09:17.429155,91
2021-09-23 21:09:17.429161,96
2021-09-23 21:09:17.429167,88
2021-09-23 21:09:17.429172,72
2021-09-23 21:09:17.429178,60
2021-09-23 21:09:17.429184,45
2021-09-23 21:09:17.429190,28
2021-09-23 21:09:17.429195,9
2021-09-23 21:09:17.429201,-16
2021-09-23 21:09:17.429207,-36
2021-09-23 21:09:17.429213,-52
2021-09-23 21:09:17.429219,-76
2021-09-23 21:09:17.429225,-91
2021-09-23 21:09:17.429231,-88
2021-09-23 21:09:17.429236,-84
2021-09-23 21:09:17.429242,-86
2021-09-23 21:09:17.429248,-86
2021-09-23 21:09:17.429253,-84
2021-09-23 21:09:17.429259,-79
2021-09-23 21:09:17.429264,-76
2021-09-23 21:09:17.429270,-69
2021-09-23 21:09:17.429276,-67
2021-09-23 21:09:17.429283,-64
2021-09-23 21:09:17.609046,-60
2021-09-23 21:09:17.609064,-50
2021-09-23 21:09:17.609071,-40
2021-09-23 21:09:17.609077,-33
2021-09-23 21:09:17.609083,-31
2021-09-23 21:09:17.609089,-28
2021-09-23 21:09:17.609095,-21
2021-09-23 21:09:17.609100,-9
2021-09-23 21:09:17.609106,-9
2021-09-23 21:09:17.609112,-12
2021-09-23 21:09:17.609118,-12
2021-09-23 21:09:17.609123,-14
2021-09-23 21:09:17.609129,-16
2021-09-23 21:09:17.609138,-9
2021-09-23 21:09:17.609145,-9
2021-09-23 21:09:17.609151,-14
2021-09-23 21:09:17.609156,-21
2021-09-23 21:09:17.609162,-24
2021-09-23 21:09:17.609168,-19
2021-09-23 21:09:17.609174,-16
2021-09-23 21:09:17.609180,-14
2021-09-23 21:09:17.609186,-12
2021-09-23 21:09:17.609191,-14
2021-09-23 21:09:17.609197,-14
2021-09-23 21:09:17.609203,-9
2021-09-23 21:09:17.609208,-4
2021-09-23 21:09:17.609214,-4
2021-09-23 21:09:17.609220,-4
2021-09-23 21:09:17.609225,-4
2021-09-23 21:09:17.609233,-7
2021-09-23 21:09:17.834048,-2
2021-09-23 21:09:17.834066,2
2021-09-23 21:09:17.834073,-2
2021-09-23 21:09:17.834079,-12
2021-09-23 21:09:17.834085,-16
2021-09-23 21:09:17.834091,-21
2021-09-23 21:09:17.834097,-19
2021-09-23 21:09:17.834102,-14
2021-09-23 21:09:17.834108,-12
2021-09-23 21:09:17.834114,-12
2021-09-23 21:09:17.834120,-19
2021-09-23 21:09:17.834126,-21
2021-09-23 21:09:17.834132,-7
2021-09-23 21:09:17.834138,-4
2021-09-23 21:09:17.834143,-4
2021-09-23 21:09:17.834149,9
2021-09-23 21:09:17.834155,14
2021-09-23 21:09:17.834165,-2
2021-09-23 21:09:17.834171,-19
2021-09-23 21:09:17.834177,-24
2021-09-23 21:09:17.834182,-19
2021-09-23 21:09:17.834188,-14
2021-09-23 21:09:17.834194,-7
2021-09-23 21:09:17.834200,21
2021-09-23 21:09:17.834205,141
2021-09-23 21:09:17.834211,432
2021-09-23 21:09:17.834217,844
2021-09-23 21:09:17.834223,887
2021-09-23 21:09:17.834228,96
2021-09-23 21:09:17.834234,-622
2021-09-23 21:09:18.104096,-353
2021-09-23 21:09:18.104114,-4
2021-09-23 21:09:18.104121,-129
2021-09-23 21:09:18.104127,-146
2021-09-23 21:09:18.104133,-38
2021-09-23 21:09:18.104139,-55
2021-09-23 21:09:18.104145,-64
2021-09-23 21:09:18.104155,-24
2021-09-23 21:09:18.104162,-24
2021-09-23 21:09:18.104167,-36
2021-09-23 21:09:18.104173,-19
2021-09-23 21:09:18.104179,-2
2021-09-23 21:09:18.104185,2
2021-09-23 21:09:18.104190,12
2021-09-23 21:09:18.104196,24
2021-09-23 21:09:18.104202,26
2021-09-23 21:09:18.104208,28
2021-09-23 21:09:18.104214,43
2021-09-23 21:09:18.104219,62
2021-09-23 21:09:18.104225,72
2021-09-23 21:09:18.104231,79
2021-09-23 21:09:18.104237,86
2021-09-23 21:09:18.104242,93
2021-09-23 21:09:18.104248,101
2021-09-23 21:09:18.104254,96
2021-09-23 21:09:18.104259,86
2021-09-23 21:09:18.104265,69
2021-09-23 21:09:18.104271,48
2021-09-23 21:09:18.104276,33
2021-09-23 21:09:18.104283,19
2021-09-23 21:09:18.417753,-4
2021-09-23 21:09:18.417772,-24
2021-09-23 21:09:18.417779,-38
2021-09-23 21:09:18.417785,-48
2021-09-23 21:09:18.417791,-52
2021-09-23 21:09:18.417797,-55
2021-09-23 21:09:18.417803,-55
2021-09-23 21:09:18.417808,-57
2021-09-23 21:09:18.417814,-62
2021-09-23 21:09:18.417820,-67
2021-09-23 21:09:18.417826,-64
2021-09-23 21:09:18.417831,-57
2021-09-23 21:09:18.417837,-50
2021-09-23 21:09:18.417843,-43
2021-09-23 21:09:18.417849,-45
2021-09-23 21:09:18.417855,-45
2021-09-23 21:09:18.417860,-36
2021-09-23 21:09:18.417866,-26
2021-09-23 21:09:18.417872,-24
2021-09-23 21:09:18.417877,-21
2021-09-23 21:09:18.417883,-21
2021-09-23 21:09:18.417889,-24
2021-09-23 21:09:18.417895,-21
2021-09-23 21:09:18.417901,-19
2021-09-23 21:09:18.417910,-16
2021-09-23 21:09:18.417916,-16
2021-09-23 21:09:18.417922,-19
2021-09-23 21:09:18.417928,-19
2021-09-23 21:09:18.417934,-16
2021-09-23 21:09:18.417940,-24
2021-09-23 21:09:18.554102,-31
2021-09-23 21:09:18.554122,-28
2021-09-23 21:09:18.554129,-24
2021-09-23 21:09:18.554135,-26
2021-09-23 21:09:18.554141,-26
2021-09-23 21:09:18.554147,-26
2021-09-23 21:09:18.554153,-26
2021-09-23 21:09:18.554159,-31
2021-09-23 21:09:18.554165,-45
2021-09-23 21:09:18.554170,-45
2021-09-23 21:09:18.554176,-36
2021-09-23 21:09:18.554182,-31
2021-09-23 21:09:18.554188,-31
2021-09-23 21:09:18.554194,-31
2021-09-23 21:09:18.554200,-38
2021-09-23 21:09:18.554205,-38
2021-09-23 21:09:18.554211,-31
2021-09-23 21:09:18.554217,-28
2021-09-23 21:09:18.554223,-26
2021-09-23 21:09:18.554229,-24
2021-09-23 21:09:18.554234,-28
2021-09-23 21:09:18.554240,-36
2021-09-23 21:09:18.554247,-24
2021-09-23 21:09:18.554253,-9
2021-09-23 21:09:18.554259,-9
2021-09-23 21:09:18.554265,-19
2021-09-23 21:09:18.554271,-16
2021-09-23 21:09:18.554276,-4
2021-09-23 21:09:18.554282,7
2021-09-23 21:09:18.554288,21
2021-09-23 21:09:18.779114,33
2021-09-23 21:09:18.779133,24
2021-09-23 21:09:18.779141,0
2021-09-23 21:09:18.779147,-14
2021-09-23 21:09:18.779153,-14
2021-09-23 21:09:18.779159,-2
2021-09-23 21:09:18.779165,7
2021-09-23 21:09:18.779171,16
2021-09-23 21:09:18.779177,79
2021-09-23 21:09:18.779182,293
2021-09-23 21:09:18.779188,675
2021-09-23 21:09:18.779195,964
2021-09-23 21:09:18.779201,524
2021-09-23 21:09:18.779206,-404
2021-09-23 21:09:18.779212,-538
2021-09-23 21:09:18.779218,-76
2021-09-23 21:09:18.779224,-45
2021-09-23 21:09:18.779230,-156
2021-09-23 21:09:18.779236,-52
2021-09-23 21:09:18.779242,-24
2021-09-23 21:09:18.779248,-72
2021-09-23 21:09:18.779254,-40
2021-09-23 21:09:18.779260,-14
2021-09-23 21:09:18.779266,-28
2021-09-23 21:09:18.779275,-19
2021-09-23 21:09:18.779281,-2
2021-09-23 21:09:18.779287,2
2021-09-23 21:09:18.779293,9
2021-09-23 21:09:18.779299,21
2021-09-23 21:09:18.779305,36
2021-09-23 21:09:19.004094,38
2021-09-23 21:09:19.004113,40
2021-09-23 21:09:19.004120,52
2021-09-23 21:09:19.004126,64
2021-09-23 21:09:19.004132,62
2021-09-23 21:09:19.004138,60
2021-09-23 21:09:19.004144,64
2021-09-23 21:09:19.004150,67
2021-09-23 21:09:19.004155,67
2021-09-23 21:09:19.004161,62
2021-09-23 21:09:19.004167,52
2021-09-23 21:09:19.004173,40
2021-09-23 21:09:19.004179,21
2021-09-23 21:09:19.004184,-4
2021-09-23 21:09:19.004190,-26
2021-09-23 21:09:19.004196,-40
2021-09-23 21:09:19.004202,-52
2021-09-23 21:09:19.004207,-60
2021-09-23 21:09:19.004213,-69
2021-09-23 21:09:19.004218,-76
2021-09-23 21:09:19.004224,-76
2021-09-23 21:09:19.004230,-74
2021-09-23 21:09:19.004235,-72
2021-09-23 21:09:19.004241,-72
2021-09-23 21:09:19.004246,-74
2021-09-23 21:09:19.004252,-69
2021-09-23 21:09:19.004257,-62
2021-09-23 21:09:19.004263,-60
2021-09-23 21:09:19.004269,-55
2021-09-23 21:09:19.004274,-45
2021-09-23 21:09:19.229029,-36
2021-09-23 21:09:19.229046,-31
2021-09-23 21:09:19.229053,-26
2021-09-23 21:09:19.229059,-21
2021-09-23 21:09:19.229065,-16
2021-09-23 21:09:19.229071,-19
2021-09-23 21:09:19.229077,-19
2021-09-23 21:09:19.229083,-16
2021-09-23 21:09:19.229088,-16
2021-09-23 21:09:19.229094,-21
2021-09-23 21:09:19.229100,-19
2021-09-23 21:09:19.229106,-19
2021-09-23 21:09:19.229111,-31
2021-09-23 21:09:19.229117,-38
2021-09-23 21:09:19.229123,-36
2021-09-23 21:09:19.229129,-38
2021-09-23 21:09:19.229134,-40
2021-09-23 21:09:19.229140,-33
2021-09-23 21:09:19.229146,-33
2021-09-23 21:09:19.229151,-28
2021-09-23 21:09:19.229157,-24
2021-09-23 21:09:19.229163,-24
2021-09-23 21:09:19.229168,-26
2021-09-23 21:09:19.229174,-26
2021-09-23 21:09:19.229180,-19
2021-09-23 21:09:19.229185,-21
2021-09-23 21:09:19.229191,-26
2021-09-23 21:09:19.229197,-26
2021-09-23 21:09:19.229203,-24
2021-09-23 21:09:19.229208,-21
2021-09-23 21:09:19.454020,-19
2021-09-23 21:09:19.454037,-16
2021-09-23 21:09:19.454043,-19
2021-09-23 21:09:19.454049,-16
2021-09-23 21:09:19.454055,-9
2021-09-23 21:09:19.454061,-9
2021-09-23 21:09:19.454067,-12
2021-09-23 21:09:19.454073,-7
2021-09-23 21:09:19.454079,-2
2021-09-23 21:09:19.454085,-7
2021-09-23 21:09:19.454094,-14
2021-09-23 21:09:19.454100,-4
2021-09-23 21:09:19.454106,9
2021-09-23 21:09:19.454112,4
2021-09-23 21:09:19.454118,-19
2021-09-23 21:09:19.454123,-33
2021-09-23 21:09:19.454129,-28
2021-09-23 21:09:19.454135,-14
2021-09-23 21:09:19.454141,-4
2021-09-23 21:09:19.454147,21
2021-09-23 21:09:19.454152,117
2021-09-23 21:09:19.454158,355
2021-09-23 21:09:19.454164,726
2021-09-23 21:09:19.454170,892
2021-09-23 21:09:19.454176,298
2021-09-23 21:09:19.454181,-514
2021-09-23 21:09:19.454187,-432
2021-09-23 21:09:19.454193,-21
2021-09-23 21:09:19.454199,-79
2021-09-23 21:09:19.454205,-139
2021-09-23 21:09:19.679078,-21
2021-09-23 21:09:19.679097,-19
2021-09-23 21:09:19.679104,-55
2021-09-23 21:09:19.679110,-21
2021-09-23 21:09:19.679116,-12
2021-09-23 21:09:19.679121,-26
2021-09-23 21:09:19.679127,-4
2021-09-23 21:09:19.679133,14
2021-09-23 21:09:19.679139,12
2021-09-23 21:09:19.679144,16
2021-09-23 21:09:19.679150,21
2021-09-23 21:09:19.679156,26
2021-09-23 21:09:19.679162,38
2021-09-23 21:09:19.679168,55
2021-09-23 21:09:19.679174,64
2021-09-23 21:09:19.679179,69
2021-09-23 21:09:19.679185,74
2021-09-23 21:09:19.679191,81
2021-09-23 21:09:19.679197,91
2021-09-23 21:09:19.679202,91
2021-09-23 21:09:19.679208,84
2021-09-23 21:09:19.679214,74
2021-09-23 21:09:19.679219,64
2021-09-23 21:09:19.679225,50
2021-09-23 21:09:19.679231,31
2021-09-23 21:09:19.679240,12
2021-09-23 21:09:19.679246,-2
2021-09-23 21:09:19.679251,-24
2021-09-23 21:09:19.679257,-40
2021-09-23 21:09:19.679263,-43
2021-09-23 21:09:19.904109,-48
2021-09-23 21:09:19.904127,-60
2021-09-23 21:09:19.904135,-62
2021-09-23 21:09:19.904140,-67
2021-09-23 21:09:19.904146,-76
2021-09-23 21:09:19.904152,-69
2021-09-23 21:09:19.904158,-60
2021-09-23 21:09:19.904164,-62
2021-09-23 21:09:19.904170,-62
2021-09-23 21:09:19.904176,-57
2021-09-23 21:09:19.904181,-55
2021-09-23 21:09:19.904187,-45
2021-09-23 21:09:19.904193,-36
2021-09-23 21:09:19.904199,-33
2021-09-23 21:09:19.904204,-33
2021-09-23 21:09:19.904210,-38
2021-09-23 21:09:19.904216,-36
2021-09-23 21:09:19.904222,-21
2021-09-23 21:09:19.904227,-14
2021-09-23 21:09:19.904233,-16
2021-09-23 21:09:19.904239,-19
2021-09-23 21:09:19.904244,-26
2021-09-23 21:09:19.904250,-31
2021-09-23 21:09:19.904256,-33
2021-09-23 21:09:19.904262,-31
2021-09-23 21:09:19.904267,-28
2021-09-23 21:09:19.904273,-31
2021-09-23 21:09:19.904279,-36
2021-09-23 21:09:19.904284,-33
2021-09-23 21:09:19.904290,-28
2021-09-23 21:09:20.174053,-26
2021-09-23 21:09:20.174071,-28
2021-09-23 21:09:20.174078,-38
2021-09-23 21:09:20.174084,-48
2021-09-23 21:09:20.174090,-40
2021-09-23 21:09:20.174095,-31
2021-09-23 21:09:20.174101,-31
2021-09-23 21:09:20.174107,-28
2021-09-23 21:09:20.174113,-31
2021-09-23 21:09:20.174118,-36
2021-09-23 21:09:20.174124,-33
2021-09-23 21:09:20.174130,-26
2021-09-23 21:09:20.174135,-21
2021-09-23 21:09:20.174141,-14
2021-09-23 21:09:20.174146,-12
2021-09-23 21:09:20.174152,-16
2021-09-23 21:09:20.174163,-14
2021-09-23 21:09:20.174169,-4
2021-09-23 21:09:20.174175,4
2021-09-23 21:09:20.174180,16
2021-09-23 21:09:20.174186,31
2021-09-23 21:09:20.174192,28
2021-09-23 21:09:20.174197,9
2021-09-23 21:09:20.174203,-12
2021-09-23 21:09:20.174209,-16
2021-09-23 21:09:20.174214,-4
2021-09-23 21:09:20.174220,2
2021-09-23 21:09:20.174226,9
2021-09-23 21:09:20.174231,50
2021-09-23 21:09:20.174237,187
2021-09-23 21:09:20.487764,473
2021-09-23 21:09:20.487784,822
2021-09-23 21:09:20.487791,762
2021-09-23 21:09:20.487798,-31
2021-09-23 21:09:20.487804,-598
2021-09-23 21:09:20.487810,-269
2021-09-23 21:09:20.487816,14
2021-09-23 21:09:20.487821,-115
2021-09-23 21:09:20.487827,-105
2021-09-23 21:09:20.487833,-14
2021-09-23 21:09:20.487839,-45
2021-09-23 21:09:20.487845,-48
2021-09-23 21:09:20.487851,-2
2021-09-23 21:09:20.487857,-4
2021-09-23 21:09:20.487862,-19
2021-09-23 21:09:20.487868,-4
2021-09-23 21:09:20.487874,12
2021-09-23 21:09:20.487880,16
2021-09-23 21:09:20.487886,26
2021-09-23 21:09:20.487891,31
2021-09-23 21:09:20.487897,31
2021-09-23 21:09:20.487903,36
2021-09-23 21:09:20.487909,50
2021-09-23 21:09:20.487914,62
2021-09-23 21:09:20.487920,72
2021-09-23 21:09:20.487926,76
2021-09-23 21:09:20.487932,76
2021-09-23 21:09:20.487938,79
2021-09-23 21:09:20.487943,84
2021-09-23 21:09:20.487949,76
2021-09-23 21:09:20.624070,60
2021-09-23 21:09:20.624088,43
2021-09-23 21:09:20.624095,26
2021-09-23 21:09:20.624101,12
2021-09-23 21:09:20.624106,-4
2021-09-23 21:09:20.624112,-19
2021-09-23 21:09:20.624118,-36
2021-09-23 21:09:20.624124,-57
2021-09-23 21:09:20.624129,-69
2021-09-23 21:09:20.624135,-67
2021-09-23 21:09:20.624141,-67
2021-09-23 21:09:20.624147,-64
2021-09-23 21:09:20.624152,-67
2021-09-23 21:09:20.624163,-72
2021-09-23 21:09:20.624169,-69
2021-09-23 21:09:20.624175,-55
2021-09-23 21:09:20.624180,-45
2021-09-23 21:09:20.624186,-43
2021-09-23 21:09:20.624192,-36
2021-09-23 21:09:20.624197,-33
2021-09-23 21:09:20.624203,-36
2021-09-23 21:09:20.624209,-33
2021-09-23 21:09:20.624215,-24
2021-09-23 21:09:20.624220,-16
2021-09-23 21:09:20.624226,-14
2021-09-23 21:09:20.624232,-12
2021-09-23 21:09:20.624238,-12
2021-09-23 21:09:20.624243,-16
2021-09-23 21:09:20.624249,-12
2021-09-23 21:09:20.624255,-7
2021-09-23 21:09:20.849076,-9
2021-09-23 21:09:20.849094,-12
2021-09-23 21:09:20.849101,-9
2021-09-23 21:09:20.849107,-9
2021-09-23 21:09:20.849113,-9
2021-09-23 21:09:20.849119,-14
2021-09-23 21:09:20.849125,-28
2021-09-23 21:09:20.849131,-40
2021-09-23 21:09:20.849137,-48
2021-09-23 21:09:20.849143,-38
2021-09-23 21:09:20.849148,-28
2021-09-23 21:09:20.849154,-31
2021-09-23 21:09:20.849160,-36
2021-09-23 21:09:20.849165,-38
2021-09-23 21:09:20.849171,-36
2021-09-23 21:09:20.849177,-38
2021-09-23 21:09:20.849183,-36
2021-09-23 21:09:20.849188,-26
2021-09-23 21:09:20.849194,-19
2021-09-23 21:09:20.849200,-14
2021-09-23 21:09:20.849206,-19
2021-09-23 21:09:20.849211,-24
2021-09-23 21:09:20.849217,-14
2021-09-23 21:09:20.849223,-2
2021-09-23 21:09:20.849228,-2
2021-09-23 21:09:20.849234,-9
2021-09-23 21:09:20.849240,-14
2021-09-23 21:09:20.849245,-12
2021-09-23 21:09:20.849251,-2
2021-09-23 21:09:20.849257,2
2021-09-23 21:09:21.074074,-7
2021-09-23 21:09:21.074093,-14
2021-09-23 21:09:21.074099,-21
2021-09-23 21:09:21.074106,-28
2021-09-23 21:09:21.074112,-28
2021-09-23 21:09:21.074118,-19
2021-09-23 21:09:21.074124,12
2021-09-23 21:09:21.074130,141
2021-09-23 21:09:21.074135,440
2021-09-23 21:09:21.074141,824
2021-09-23 21:09:21.074147,836
2021-09-23 21:09:21.074153,33
2021-09-23 21:09:21.074159,-692
2021-09-23 21:09:21.074165,-384
2021-09-23 21:09:21.074170,-2
2021-09-23 21:09:21.074176,-137
2021-09-23 21:09:21.074182,-141
2021-09-23 21:09:21.074193,-12
2021-09-23 21:09:21.074202,-50
2021-09-23 21:09:21.074208,-74
2021-09-23 21:09:21.074214,-21
2021-09-23 21:09:21.074219,-12
2021-09-23 21:09:21.074225,-24
2021-09-23 21:09:21.074230,0
2021-09-23 21:09:21.074236,16
2021-09-23 21:09:21.074242,26
2021-09-23 21:09:21.074247,36
2021-09-23 21:09:21.074253,43
2021-09-23 21:09:21.074259,50
2021-09-23 21:09:21.074264,64
2021-09-23 21:09:21.299071,76
2021-09-23 21:09:21.299088,81
2021-09-23 21:09:21.299095,91
2021-09-23 21:09:21.299101,101
2021-09-23 21:09:21.299107,108
2021-09-23 21:09:21.299113,101
2021-09-23 21:09:21.299119,88
2021-09-23 21:09:21.299125,86
2021-09-23 21:09:21.299131,74
2021-09-23 21:09:21.299137,52
2021-09-23 21:09:21.299143,33
2021-09-23 21:09:21.299148,9
2021-09-23 21:09:21.299154,-19
2021-09-23 21:09:21.299160,-31
2021-09-23 21:09:21.299166,-40
2021-09-23 21:09:21.299172,-57
2021-09-23 21:09:21.299178,-67
2021-09-23 21:09:21.299184,-69
2021-09-23 21:09:21.299190,-79
2021-09-23 21:09:21.299196,-81
2021-09-23 21:09:21.299201,-74
2021-09-23 21:09:21.299207,-67
2021-09-23 21:09:21.299213,-64
2021-09-23 21:09:21.299219,-57
2021-09-23 21:09:21.299225,-43
2021-09-23 21:09:21.299230,-26
2021-09-23 21:09:21.299236,-21
2021-09-23 21:09:21.299242,-14
2021-09-23 21:09:21.299247,-7
2021-09-23 21:09:21.299253,0
2021-09-23 21:09:21.524090,0
2021-09-23 21:09:21.524108,-4
2021-09-23 21:09:21.524115,-2
2021-09-23 21:09:21.524121,-2
2021-09-23 21:09:21.524128,-19
2021-09-23 21:09:21.524134,-31
2021-09-23 21:09:21.524139,-24
2021-09-23 21:09:21.524145,-12
2021-09-23 21:09:21.524151,-12
2021-09-23 21:09:21.524157,-16
2021-09-23 21:09:21.524163,-21
2021-09-23 21:09:21.524168,-26
2021-09-23 21:09:21.524174,-24
2021-09-23 21:09:21.524180,-28
2021-09-23 21:09:21.524186,-38
2021-09-23 21:09:21.524191,-45
2021-09-23 21:09:21.524197,-40
2021-09-23 21:09:21.524203,-31
2021-09-23 21:09:21.524209,-24
2021-09-23 21:09:21.524214,-26
2021-09-23 21:09:21.524220,-33
2021-09-23 21:09:21.524226,-45
2021-09-23 21:09:21.524232,-52
2021-09-23 21:09:21.524237,-55
2021-09-23 21:09:21.524243,-40
2021-09-23 21:09:21.524249,-28
2021-09-23 21:09:21.524254,-33
2021-09-23 21:09:21.524260,-38
2021-09-23 21:09:21.524266,-26
2021-09-23 21:09:21.524274,-16
2021-09-23 21:09:21.749066,-14
2021-09-23 21:09:21.749084,-7
2021-09-23 21:09:21.749091,7
2021-09-23 21:09:21.749097,-2
2021-09-23 21:09:21.749103,-38
2021-09-23 21:09:21.749109,-55
2021-09-23 21:09:21.749115,-43
2021-09-23 21:09:21.749120,-28
2021-09-23 21:09:21.749126,-19
2021-09-23 21:09:21.749132,-9
2021-09-23 21:09:21.749138,52
2021-09-23 21:09:21.749144,283
2021-09-23 21:09:21.749149,680
2021-09-23 21:09:21.749155,952
2021-09-23 21:09:21.749161,478
2021-09-23 21:09:21.749167,-512
2021-09-23 21:09:21.749172,-656
2021-09-23 21:09:21.749178,-110
2021-09-23 21:09:21.749184,-40
2021-09-23 21:09:21.749189,-170
2021-09-23 21:09:21.749195,-60
2021-09-23 21:09:21.749200,-16
2021-09-23 21:09:21.749206,-72
2021-09-23 21:09:21.749212,-40
2021-09-23 21:09:21.749217,4
2021-09-23 21:09:21.749223,-2
2021-09-23 21:09:21.749229,-2
2021-09-23 21:09:21.749234,12
2021-09-23 21:09:21.749240,19
2021-09-23 21:09:21.749246,31
2021-09-23 21:09:22.019095,48
2021-09-23 21:09:22.019113,55
2021-09-23 21:09:22.019120,64
2021-09-23 21:09:22.019126,69
2021-09-23 21:09:22.019132,69
2021-09-23 21:09:22.019138,84
2021-09-23 21:09:22.019144,98
2021-09-23 21:09:22.019150,96
2021-09-23 21:09:22.019156,91
2021-09-23 21:09:22.019162,84
2021-09-23 21:09:22.019168,84
2021-09-23 21:09:22.019174,76
2021-09-23 21:09:22.019179,62
2021-09-23 21:09:22.019185,48
2021-09-23 21:09:22.019191,33
2021-09-23 21:09:22.019197,7
2021-09-23 21:09:22.019202,-19
2021-09-23 21:09:22.019208,-26
2021-09-23 21:09:22.019214,-33
2021-09-23 21:09:22.019220,-48
2021-09-23 21:09:22.019226,-57
2021-09-23 21:09:22.019231,-64
2021-09-23 21:09:22.019237,-76
2021-09-23 21:09:22.019243,-74
2021-09-23 21:09:22.019249,-57
2021-09-23 21:09:22.019254,-50
2021-09-23 21:09:22.019260,-52
2021-09-23 21:09:22.019266,-48
2021-09-23 21:09:22.019272,-31
2021-09-23 21:09:22.019277,-12
2021-09-23 21:09:22.244035,-4
2021-09-23 21:09:22.244052,-2
2021-09-23 21:09:22.244060,0
2021-09-23 21:09:22.244066,-2
2021-09-23 21:09:22.244072,-2
2021-09-23 21:09:22.244078,7
2021-09-23 21:09:22.244084,12
2021-09-23 21:09:22.244090,7
2021-09-23 21:09:22.244096,-4
2021-09-23 21:09:22.244102,-14
2021-09-23 21:09:22.244107,-9
2021-09-23 21:09:22.244113,0
2021-09-23 21:09:22.244119,-4
2021-09-23 21:09:22.244125,-12
2021-09-23 21:09:22.244131,-16
2021-09-23 21:09:22.244136,-14
2021-09-23 21:09:22.244142,-14
2021-09-23 21:09:22.244148,-16
2021-09-23 21:09:22.244154,-16
2021-09-23 21:09:22.244159,-4
2021-09-23 21:09:22.244167,-7
2021-09-23 21:09:22.244173,-16
2021-09-23 21:09:22.244179,-9
2021-09-23 21:09:22.244185,2
2021-09-23 21:09:22.244190,7
2021-09-23 21:09:22.244196,19
2021-09-23 21:09:22.244202,21
2021-09-23 21:09:22.244208,7
2021-09-23 21:09:22.244214,-7
2021-09-23 21:09:22.244219,-14
2021-09-23 21:09:22.512789,-19
2021-09-23 21:09:22.512807,-16
2021-09-23 21:09:22.512814,-9
2021-09-23 21:09:22.512820,4
2021-09-23 21:09:22.512826,52
2021-09-23 21:09:22.512832,242
2021-09-23 21:09:22.512838,622
2021-09-23 21:09:22.512844,949
2021-09-23 21:09:22.512849,584
2021-09-23 21:09:22.512855,-459
2021-09-23 21:09:22.512861,-803
2021-09-23 21:09:22.512867,-235
2021-09-23 21:09:22.512873,-50
2021-09-23 21:09:22.512879,-199
2021-09-23 21:09:22.512885,-93
2021-09-23 21:09:22.512890,-14
2021-09-23 21:09:22.512896,-74
2021-09-23 21:09:22.512902,-52
2021-09-23 21:09:22.512908,-12
2021-09-23 21:09:22.512914,-24
2021-09-23 21:09:22.512919,-21
2021-09-23 21:09:22.512925,4
2021-09-23 21:09:22.512931,12
2021-09-23 21:09:22.512936,12
2021-09-23 21:09:22.512942,26
2021-09-23 21:09:22.512948,38
2021-09-23 21:09:22.512954,52
2021-09-23 21:09:22.512959,67
2021-09-23 21:09:22.512965,81
2021-09-23 21:09:22.512971,96
2021-09-23 21:09:22.694083,110
2021-09-23 21:09:22.694101,122
2021-09-23 21:09:22.694108,127
2021-09-23 21:09:22.694114,125
2021-09-23 21:09:22.694120,122
2021-09-23 21:09:22.694126,113
2021-09-23 21:09:22.694131,86
2021-09-23 21:09:22.694137,50
2021-09-23 21:09:22.694143,24
2021-09-23 21:09:22.694149,2
2021-09-23 21:09:22.694154,-21
2021-09-23 21:09:22.694160,-48
2021-09-23 21:09:22.694166,-72
2021-09-23 21:09:22.694172,-88
2021-09-23 21:09:22.694177,-98
2021-09-23 21:09:22.694183,-105
2021-09-23 21:09:22.694189,-108
2021-09-23 21:09:22.694195,-103
2021-09-23 21:09:22.694201,-96
2021-09-23 21:09:22.694206,-96
2021-09-23 21:09:22.694212,-91
2021-09-23 21:09:22.694218,-72
2021-09-23 21:09:22.694223,-55
2021-09-23 21:09:22.694229,-48
2021-09-23 21:09:22.694235,-40
2021-09-23 21:09:22.694240,-38
2021-09-23 21:09:22.694246,-31
2021-09-23 21:09:22.694252,-19
2021-09-23 21:09:22.694257,-9
2021-09-23 21:09:22.694263,-7
2021-09-23 21:09:22.919058,-9
2021-09-23 21:09:22.919074,-7
2021-09-23 21:09:22.919081,-9
2021-09-23 21:09:22.919087,-14
2021-09-23 21:09:22.919093,-14
2021-09-23 21:09:22.919099,-19
2021-09-23 21:09:22.919105,-31
2021-09-23 21:09:22.919110,-26
2021-09-23 21:09:22.919116,-19
2021-09-23 21:09:22.919122,-26
2021-09-23 21:09:22.919127,-26
2021-09-23 21:09:22.919133,-24
2021-09-23 21:09:22.919139,-31
2021-09-23 21:09:22.919145,-16
2021-09-23 21:09:22.919150,4
2021-09-23 21:09:22.919156,7
2021-09-23 21:09:22.919162,-4
2021-09-23 21:09:22.919168,-24
2021-09-23 21:09:22.919173,-43
2021-09-23 21:09:22.919179,-43
2021-09-23 21:09:22.919185,-33
2021-09-23 21:09:22.919190,-28
2021-09-23 21:09:22.919199,-24
2021-09-23 21:09:22.919204,-9
2021-09-23 21:09:22.919210,31
2021-09-23 21:09:22.919216,202
2021-09-23 21:09:22.919222,567
2021-09-23 21:09:22.919227,961
2021-09-23 21:09:22.919233,771
2021-09-23 21:09:22.919239,-245
2021-09-23 21:09:23.144057,-798
2021-09-23 21:09:23.144075,-298
2021-09-23 21:09:23.144082,-12
2021-09-23 21:09:23.144088,-177
2021-09-23 21:09:23.144094,-108
2021-09-23 21:09:23.144100,-4
2021-09-23 21:09:23.144106,-69
2021-09-23 21:09:23.144111,-67
2021-09-23 21:09:23.144117,-9
2021-09-23 21:09:23.144123,-19
2021-09-23 21:09:23.144128,-26
2021-09-23 21:09:23.144134,-7
2021-09-23 21:09:23.144140,4
2021-09-23 21:09:23.144146,16
2021-09-23 21:09:23.144152,28
2021-09-23 21:09:23.144157,31
2021-09-23 21:09:23.144163,40
2021-09-23 21:09:23.144169,52
2021-09-23 21:09:23.144174,57
2021-09-23 21:09:23.144180,67
2021-09-23 21:09:23.144186,81
2021-09-23 21:09:23.144191,93
2021-09-23 21:09:23.144197,103
2021-09-23 21:09:23.144203,110
2021-09-23 21:09:23.144208,105
2021-09-23 21:09:23.144214,91
2021-09-23 21:09:23.144220,76
2021-09-23 21:09:23.144225,52
2021-09-23 21:09:23.144231,19
2021-09-23 21:09:23.144237,-16
2021-09-23 21:09:23.369144,-40
2021-09-23 21:09:23.369162,-55
2021-09-23 21:09:23.369169,-74
2021-09-23 21:09:23.369175,-88
2021-09-23 21:09:23.369181,-101
2021-09-23 21:09:23.369187,-113
2021-09-23 21:09:23.369193,-117
2021-09-23 21:09:23.369199,-113
2021-09-23 21:09:23.369204,-105
2021-09-23 21:09:23.369210,-103
2021-09-23 21:09:23.369216,-105
2021-09-23 21:09:23.369222,-101
2021-09-23 21:09:23.369228,-86
2021-09-23 21:09:23.369233,-72
2021-09-23 21:09:23.369239,-62
2021-09-23 21:09:23.369245,-50
2021-09-23 21:09:23.369251,-48
2021-09-23 21:09:23.369257,-38
2021-09-23 21:09:23.369263,-24
2021-09-23 21:09:23.369269,-19
2021-09-23 21:09:23.369275,-24
2021-09-23 21:09:23.369281,-24
2021-09-23 21:09:23.369286,-28
2021-09-23 21:09:23.369292,-38
2021-09-23 21:09:23.369298,-33
2021-09-23 21:09:23.369304,-26
2021-09-23 21:09:23.369310,-28
2021-09-23 21:09:23.369316,-31
2021-09-23 21:09:23.369322,-33
2021-09-23 21:09:23.369327,-36
2021-09-23 21:09:23.639115,-38
2021-09-23 21:09:23.639133,-36
2021-09-23 21:09:23.639140,-19
2021-09-23 21:09:23.639146,-9
2021-09-23 21:09:23.639152,-14
2021-09-23 21:09:23.639158,-14
2021-09-23 21:09:23.639164,-16
2021-09-23 21:09:23.639170,-33
2021-09-23 21:09:23.639175,-45
2021-09-23 21:09:23.639181,-45
2021-09-23 21:09:23.639187,-40
2021-09-23 21:09:23.639193,-31
2021-09-23 21:09:23.639198,-14
2021-09-23 21:09:23.639204,16
2021-09-23 21:09:23.639210,151
2021-09-23 21:09:23.639216,488
2021-09-23 21:09:23.639222,940
2021-09-23 21:09:23.639228,954
2021-09-23 21:09:23.639234,38
2021-09-23 21:09:23.639239,-757
2021-09-23 21:09:23.639245,-408
2021-09-23 21:09:23.639251,-2
2021-09-23 21:09:23.639257,-149
2021-09-23 21:09:23.639263,-141
2021-09-23 21:09:23.639269,-2
2021-09-23 21:09:23.639275,-40
2021-09-23 21:09:23.639281,-64
2021-09-23 21:09:23.639287,-12
2021-09-23 21:09:23.639292,-2
2021-09-23 21:09:23.639298,-7
2021-09-23 21:09:23.864115,14
2021-09-23 21:09:23.864131,24
2021-09-23 21:09:23.864138,21
2021-09-23 21:09:23.864144,28
2021-09-23 21:09:23.864150,40
2021-09-23 21:09:23.864159,50
2021-09-23 21:09:23.864165,64
2021-09-23 21:09:23.864171,84
2021-09-23 21:09:23.864176,91
2021-09-23 21:09:23.864182,91
2021-09-23 21:09:23.864188,98
2021-09-23 21:09:23.864194,120
2021-09-23 21:09:23.864200,129
2021-09-23 21:09:23.864205,120
2021-09-23 21:09:23.864211,101
2021-09-23 21:09:23.864217,81
2021-09-23 21:09:23.864223,64
2021-09-23 21:09:23.864229,50
2021-09-23 21:09:23.864234,19
2021-09-23 21:09:23.864240,-14
2021-09-23 21:09:23.864246,-45
2021-09-23 21:09:23.864252,-72
2021-09-23 21:09:23.864257,-86
2021-09-23 21:09:23.864263,-88
2021-09-23 21:09:23.864268,-91
2021-09-23 21:09:23.864274,-96
2021-09-23 21:09:23.864280,-101
2021-09-23 21:09:23.864285,-108
2021-09-23 21:09:23.864291,-122
2021-09-23 21:09:23.864297,-125
2021-09-23 21:09:24.089204,-108
2021-09-23 21:09:24.089223,-98
2021-09-23 21:09:24.089230,-98
2021-09-23 21:09:24.089237,-88
2021-09-23 21:09:24.089243,-76
2021-09-23 21:09:24.089249,-69
2021-09-23 21:09:24.089254,-64
2021-09-23 21:09:24.089260,-60
2021-09-23 21:09:24.089266,-57
2021-09-23 21:09:24.089272,-64
2021-09-23 21:09:24.089278,-60
2021-09-23 21:09:24.089284,-43
2021-09-23 21:09:24.089290,-36
2021-09-23 21:09:24.089296,-45
2021-09-23 21:09:24.089302,-57
2021-09-23 21:09:24.089308,-57
2021-09-23 21:09:24.089314,-50
2021-09-23 21:09:24.089320,-45
2021-09-23 21:09:24.089325,-40
2021-09-23 21:09:24.089331,-40
2021-09-23 21:09:24.089337,-43
2021-09-23 21:09:24.089343,-43
2021-09-23 21:09:24.089348,-31
2021-09-23 21:09:24.089354,-19
2021-09-23 21:09:24.089360,-7
2021-09-23 21:09:24.089366,-4
2021-09-23 21:09:24.089372,-2
2021-09-23 21:09:24.089378,-2
2021-09-23 21:09:24.089383,-12
2021-09-23 21:09:24.089389,-33
2021-09-23 21:09:24.314093,-33
2021-09-23 21:09:24.314110,-14
2021-09-23 21:09:24.314117,-12
2021-09-23 21:09:24.314123,-16
2021-09-23 21:09:24.314128,12
2021-09-23 21:09:24.314134,137
2021-09-23 21:09:24.314140,454
2021-09-23 21:09:24.314146,923
2021-09-23 21:09:24.314152,1026
2021-09-23 21:09:24.314158,165
2021-09-23 21:09:24.314164,-731
2021-09-23 21:09:24.314170,-468
2021-09-23 21:09:24.314175,-14
2021-09-23 21:09:24.314181,-146
2021-09-23 21:09:24.314187,-175
2021-09-23 21:09:24.314193,-28
2021-09-23 21:09:24.314198,-50
2021-09-23 21:09:24.314204,-76
2021-09-23 21:09:24.314210,-19
2021-09-23 21:09:24.314216,-12
2021-09-23 21:09:24.314221,-31
2021-09-23 21:09:24.314227,-9
2021-09-23 21:09:24.314233,21
2021-09-23 21:09:24.314239,26
2021-09-23 21:09:24.314244,28
2021-09-23 21:09:24.314250,38
2021-09-23 21:09:24.314256,50
2021-09-23 21:09:24.314262,64
2021-09-23 21:09:24.314267,76
2021-09-23 21:09:24.314273,93
2021-09-23 21:09:24.582736,113
2021-09-23 21:09:24.582755,122
2021-09-23 21:09:24.582762,129
2021-09-23 21:09:24.582768,134
2021-09-23 21:09:24.582774,122
2021-09-23 21:09:24.582780,113
2021-09-23 21:09:24.582786,98
2021-09-23 21:09:24.582792,69
2021-09-23 21:09:24.582798,38
2021-09-23 21:09:24.582803,12
2021-09-23 21:09:24.582809,-19
2021-09-23 21:09:24.582815,-48
2021-09-23 21:09:24.582821,-69
2021-09-23 21:09:24.582827,-81
2021-09-23 21:09:24.582833,-96
2021-09-23 21:09:24.582838,-113
2021-09-23 21:09:24.582844,-110
2021-09-23 21:09:24.582850,-98
2021-09-23 21:09:24.582856,-98
2021-09-23 21:09:24.582862,-103
2021-09-23 21:09:24.582867,-101
2021-09-23 21:09:24.582873,-98
2021-09-23 21:09:24.582879,-91
2021-09-23 21:09:24.582885,-81
2021-09-23 21:09:24.582891,-76
2021-09-23 21:09:24.582897,-69
2021-09-23 21:09:24.582902,-62
2021-09-23 21:09:24.582908,-50
2021-09-23 21:09:24.582914,-40
2021-09-23 21:09:24.582920,-38
2021-09-23 21:09:24.764615,-38
2021-09-23 21:09:24.764637,-33
2021-09-23 21:09:24.764644,-31
2021-09-23 21:09:24.764650,-31
2021-09-23 21:09:24.764656,-31
2021-09-23 21:09:24.764662,-33
2021-09-23 21:09:24.764668,-45
2021-09-23 21:09:24.764674,-48
2021-09-23 21:09:24.764680,-38
2021-09-23 21:09:24.764685,-36
2021-09-23 21:09:24.764691,-45
2021-09-23 21:09:24.764697,-67
2021-09-23 21:09:24.764702,-76
2021-09-23 21:09:24.764708,-60
2021-09-23 21:09:24.764714,-43
2021-09-23 21:09:24.764719,-43
2021-09-23 21:09:24.764725,-40
2021-09-23 21:09:24.764730,-45
2021-09-23 21:09:24.764736,-67
2021-09-23 21:09:24.764742,-74
2021-09-23 21:09:24.764748,-57
2021-09-23 21:09:24.764753,-48
2021-09-23 21:09:24.764759,-48
2021-09-23 21:09:24.764764,-31
2021-09-23 21:09:24.764770,21
2021-09-23 21:09:24.764776,199
2021-09-23 21:09:24.764781,589
2021-09-23 21:09:24.764787,1014
2021-09-23 21:09:24.764793,781
2021-09-23 21:09:24.764799,-257
2021-09-23 21:09:24.989105,-721
2021-09-23 21:09:24.989123,-235
2021-09-23 21:09:24.989130,-38
2021-09-23 21:09:24.989136,-187
2021-09-23 21:09:24.989142,-105
2021-09-23 21:09:24.989148,-31
2021-09-23 21:09:24.989154,-86
2021-09-23 21:09:24.989160,-69
2021-09-23 21:09:24.989165,-21
2021-09-23 21:09:24.989171,-36
2021-09-23 21:09:24.989177,-48
2021-09-23 21:09:24.989183,-31
2021-09-23 21:09:24.989189,-24
2021-09-23 21:09:24.989194,-24
2021-09-23 21:09:24.989200,-12
2021-09-23 21:09:24.989206,7
2021-09-23 21:09:24.989211,19
2021-09-23 21:09:24.989217,28
2021-09-23 21:09:24.989223,43
2021-09-23 21:09:24.989229,60
2021-09-23 21:09:24.989234,81
2021-09-23 21:09:24.989240,96
2021-09-23 21:09:24.989246,101
2021-09-23 21:09:24.989251,110
2021-09-23 21:09:24.989257,115
2021-09-23 21:09:24.989263,110
2021-09-23 21:09:24.989268,98
2021-09-23 21:09:24.989274,76
2021-09-23 21:09:24.989280,45
2021-09-23 21:09:24.989285,9
2021-09-23 21:09:25.214068,-24
2021-09-23 21:09:25.214084,-45
2021-09-23 21:09:25.214091,-67
2021-09-23 21:09:25.214097,-81
2021-09-23 21:09:25.214103,-86
2021-09-23 21:09:25.214109,-96
2021-09-23 21:09:25.214114,-96
2021-09-23 21:09:25.214120,-84
2021-09-23 21:09:25.214126,-84
2021-09-23 21:09:25.214132,-86
2021-09-23 21:09:25.214137,-86
2021-09-23 21:09:25.214143,-86
2021-09-23 21:09:25.214149,-84
2021-09-23 21:09:25.214154,-72
2021-09-23 21:09:25.214160,-64
2021-09-23 21:09:25.214166,-67
2021-09-23 21:09:25.214171,-64
2021-09-23 21:09:25.214177,-52
2021-09-23 21:09:25.214183,-40
2021-09-23 21:09:25.214188,-33
2021-09-23 21:09:25.214194,-28
2021-09-23 21:09:25.214199,-28
2021-09-23 21:09:25.214205,-28
2021-09-23 21:09:25.214211,-26
2021-09-23 21:09:25.214217,-19
2021-09-23 21:09:25.214222,-16
2021-09-23 21:09:25.214228,-19
2021-09-23 21:09:25.214234,-19
2021-09-23 21:09:25.214239,-19
2021-09-23 21:09:25.214245,-16
2021-09-23 21:09:25.439089,-9
2021-09-23 21:09:25.439105,-9
2021-09-23 21:09:25.439112,-9
2021-09-23 21:09:25.439118,-14
2021-09-23 21:09:25.439124,-21
2021-09-23 21:09:25.439130,-16
2021-09-23 21:09:25.439135,-9
2021-09-23 21:09:25.439141,-4
2021-09-23 21:09:25.439147,0
2021-09-23 21:09:25.439153,0
2021-09-23 21:09:25.439159,-19
2021-09-23 21:09:25.439164,-38
2021-09-23 21:09:25.439170,-33
2021-09-23 21:09:25.439176,-26
2021-09-23 21:09:25.439182,-26
2021-09-23 21:09:25.439187,-21
2021-09-23 21:09:25.439193,-12
2021-09-23 21:09:25.439199,48
2021-09-23 21:09:25.439204,274
2021-09-23 21:09:25.439210,728
2021-09-23 21:09:25.439216,1082
2021-09-23 21:09:25.439221,581
2021-09-23 21:09:25.439227,-408
2021-09-23 21:09:25.439233,-519
2021-09-23 21:09:25.439239,-67
2021-09-23 21:09:25.439244,-76
2021-09-23 21:09:25.439250,-192
2021-09-23 21:09:25.439256,-79
2021-09-23 21:09:25.439261,-48
2021-09-23 21:09:25.439267,-88
2021-09-23 21:09:25.709210,-55
2021-09-23 21:09:25.709229,-24
2021-09-23 21:09:25.709236,-40
2021-09-23 21:09:25.709242,-40
2021-09-23 21:09:25.709248,-24
2021-09-23 21:09:25.709254,-16
2021-09-23 21:09:25.709260,-9
2021-09-23 21:09:25.709266,0
2021-09-23 21:09:25.709272,4
2021-09-23 21:09:25.709278,4
2021-09-23 21:09:25.709283,16
2021-09-23 21:09:25.709294,43
2021-09-23 21:09:25.709301,57
2021-09-23 21:09:25.709307,67
2021-09-23 21:09:25.709312,81
2021-09-23 21:09:25.709318,88
2021-09-23 21:09:25.709324,93
2021-09-23 21:09:25.709330,101
2021-09-23 21:09:25.709335,98
2021-09-23 21:09:25.709341,81
2021-09-23 21:09:25.709347,57
2021-09-23 21:09:25.709352,31
2021-09-23 21:09:25.709358,4
2021-09-23 21:09:25.709364,-21
2021-09-23 21:09:25.709369,-36
2021-09-23 21:09:25.709375,-48
2021-09-23 21:09:25.709381,-64
2021-09-23 21:09:25.709387,-79
2021-09-23 21:09:25.709392,-79
2021-09-23 21:09:25.709398,-69
2021-09-23 21:09:25.934081,-60
2021-09-23 21:09:25.934100,-57
2021-09-23 21:09:25.934107,-60
2021-09-23 21:09:25.934113,-67
2021-09-23 21:09:25.934119,-69
2021-09-23 21:09:25.934125,-62
2021-09-23 21:09:25.934131,-55
2021-09-23 21:09:25.934137,-55
2021-09-23 21:09:25.934142,-57
2021-09-23 21:09:25.934148,-60
2021-09-23 21:09:25.934154,-50
2021-09-23 21:09:25.934159,-43
2021-09-23 21:09:25.934165,-38
2021-09-23 21:09:25.934171,-33
2021-09-23 21:09:25.934177,-38
2021-09-23 21:09:25.934182,-45
2021-09-23 21:09:25.934188,-38
2021-09-23 21:09:25.934194,-24
2021-09-23 21:09:25.934200,-21
2021-09-23 21:09:25.934205,-21
2021-09-23 21:09:25.934211,-24
2021-09-23 21:09:25.934216,-33
2021-09-23 21:09:25.934222,-43
2021-09-23 21:09:25.934228,-40
2021-09-23 21:09:25.934233,-31
2021-09-23 21:09:25.934239,-28
2021-09-23 21:09:25.934245,-33
2021-09-23 21:09:25.934250,-33
2021-09-23 21:09:25.934256,-26
2021-09-23 21:09:25.934262,-21
2021-09-23 21:09:26.159205,-16
2021-09-23 21:09:26.159224,-9
2021-09-23 21:09:26.159231,-2
2021-09-23 21:09:26.159237,-9
2021-09-23 21:09:26.159243,-28
2021-09-23 21:09:26.159249,-38
2021-09-23 21:09:26.159255,-36
2021-09-23 21:09:26.159261,-31
2021-09-23 21:09:26.159267,-31
2021-09-23 21:09:26.159272,-24
2021-09-23 21:09:26.159278,16
2021-09-23 21:09:26.159284,168
2021-09-23 21:09:26.159290,514
2021-09-23 21:09:26.159296,959
2021-09-23 21:09:26.159301,868
2021-09-23 21:09:26.159307,-52
2021-09-23 21:09:26.159313,-620
2021-09-23 21:09:26.159319,-238
2021-09-23 21:09:26.159325,0
2021-09-23 21:09:26.159330,-168
2021-09-23 21:09:26.159336,-137
2021-09-23 21:09:26.159342,-31
2021-09-23 21:09:26.159347,-64
2021-09-23 21:09:26.159353,-74
2021-09-23 21:09:26.159359,-36
2021-09-23 21:09:26.159365,-36
2021-09-23 21:09:26.159370,-38
2021-09-23 21:09:26.159376,-19
2021-09-23 21:09:26.159382,-9
2021-09-23 21:09:26.159387,-4
2021-09-23 21:09:26.429124,2
2021-09-23 21:09:26.429141,14
2021-09-23 21:09:26.429148,26
2021-09-23 21:09:26.429154,36
2021-09-23 21:09:26.429160,48
2021-09-23 21:09:26.429166,62
2021-09-23 21:09:26.429172,74
2021-09-23 21:09:26.429177,79
2021-09-23 21:09:26.429183,88
2021-09-23 21:09:26.429189,103
2021-09-23 21:09:26.429195,108
2021-09-23 21:09:26.429201,105
2021-09-23 21:09:26.429207,93
2021-09-23 21:09:26.429213,72
2021-09-23 21:09:26.429219,45
2021-09-23 21:09:26.429225,16
2021-09-23 21:09:26.429230,-16
2021-09-23 21:09:26.429236,-38
2021-09-23 21:09:26.429242,-52
2021-09-23 21:09:26.429248,-69
2021-09-23 21:09:26.429254,-76
2021-09-23 21:09:26.429259,-74
2021-09-23 21:09:26.429265,-72
2021-09-23 21:09:26.429271,-67
2021-09-23 21:09:26.429277,-60
2021-09-23 21:09:26.429283,-67
2021-09-23 21:09:26.429289,-79
2021-09-23 21:09:26.429294,-84
2021-09-23 21:09:26.429300,-88
2021-09-23 21:09:26.429306,-84
2021-09-23 21:09:26.652806,-76
2021-09-23 21:09:26.652825,-74
2021-09-23 21:09:26.652832,-67
2021-09-23 21:09:26.652838,-60
2021-09-23 21:09:26.652844,-60
2021-09-23 21:09:26.652850,-52
2021-09-23 21:09:26.652855,-48
2021-09-23 21:09:26.652861,-45
2021-09-23 21:09:26.652867,-43
2021-09-23 21:09:26.652873,-33
2021-09-23 21:09:26.652878,-24
2021-09-23 21:09:26.652884,-21
2021-09-23 21:09:26.652890,-28
2021-09-23 21:09:26.652895,-26
2021-09-23 21:09:26.652901,-19
2021-09-23 21:09:26.652907,-16
2021-09-23 21:09:26.652913,-16
2021-09-23 21:09:26.652918,-21
2021-09-23 21:09:26.652924,-24
2021-09-23 21:09:26.652930,-21
2021-09-23 21:09:26.652936,-24
2021-09-23 21:09:26.652941,-28
2021-09-23 21:09:26.652947,-24
2021-09-23 21:09:26.652953,-26
2021-09-23 21:09:26.652958,-28
2021-09-23 21:09:26.652964,-26
2021-09-23 21:09:26.652969,-26
2021-09-23 21:09:26.652975,-28
2021-09-23 21:09:26.652981,-33
2021-09-23 21:09:26.652987,-31
2021-09-23 21:09:26.834123,-28
2021-09-23 21:09:26.834140,-21
2021-09-23 21:09:26.834147,-19
2021-09-23 21:09:26.834153,-26
2021-09-23 21:09:26.834159,-26
2021-09-23 21:09:26.834165,-16
2021-09-23 21:09:26.834171,-12
2021-09-23 21:09:26.834177,-4
2021-09-23 21:09:26.834188,2
2021-09-23 21:09:26.834194,9
2021-09-23 21:09:26.834200,2
2021-09-23 21:09:26.834205,-24
2021-09-23 21:09:26.834211,-36
2021-09-23 21:09:26.834217,-26
2021-09-23 21:09:26.834223,-16
2021-09-23 21:09:26.834229,-12
2021-09-23 21:09:26.834235,4
2021-09-23 21:09:26.834241,79
2021-09-23 21:09:26.834246,307
2021-09-23 21:09:26.834252,716
2021-09-23 21:09:26.834258,1017
2021-09-23 21:09:26.834264,541
2021-09-23 21:09:26.834270,-423
2021-09-23 21:09:26.834275,-545
2021-09-23 21:09:26.834281,-67
2021-09-23 21:09:26.834287,-52
2021-09-23 21:09:26.834292,-170
2021-09-23 21:09:26.834298,-52
2021-09-23 21:09:26.834304,-16
2021-09-23 21:09:26.834310,-67
2021-09-23 21:09:27.059168,-36
2021-09-23 21:09:27.059185,-4
2021-09-23 21:09:27.059192,-24
2021-09-23 21:09:27.059198,-26
2021-09-23 21:09:27.059204,-14
2021-09-23 21:09:27.059210,-14
2021-09-23 21:09:27.059216,-9
2021-09-23 21:09:27.059222,12
2021-09-23 21:09:27.059228,21
2021-09-23 21:09:27.059233,24
2021-09-23 21:09:27.059239,36
2021-09-23 21:09:27.059245,45
2021-09-23 21:09:27.059250,55
2021-09-23 21:09:27.059256,69
2021-09-23 21:09:27.059262,86
2021-09-23 21:09:27.059268,96
2021-09-23 21:09:27.059273,98
2021-09-23 21:09:27.059279,98
2021-09-23 21:09:27.059285,96
2021-09-23 21:09:27.059290,81
2021-09-23 21:09:27.059296,69
2021-09-23 21:09:27.059301,55
2021-09-23 21:09:27.059307,26
2021-09-23 21:09:27.059313,0
2021-09-23 21:09:27.059319,-19
2021-09-23 21:09:27.059324,-36
2021-09-23 21:09:27.059330,-57
2021-09-23 21:09:27.059336,-74
2021-09-23 21:09:27.059341,-76
2021-09-23 21:09:27.059347,-76
2021-09-23 21:09:27.329126,-69
2021-09-23 21:09:27.329143,-64
2021-09-23 21:09:27.329150,-69
2021-09-23 21:09:27.329156,-74
2021-09-23 21:09:27.329162,-74
2021-09-23 21:09:27.329168,-76
2021-09-23 21:09:27.329177,-76
2021-09-23 21:09:27.329183,-67
2021-09-23 21:09:27.329189,-62
2021-09-23 21:09:27.329195,-64
2021-09-23 21:09:27.329200,-72
2021-09-23 21:09:27.329206,-67
2021-09-23 21:09:27.329212,-57
2021-09-23 21:09:27.329218,-57
2021-09-23 21:09:27.329223,-55
2021-09-23 21:09:27.329229,-48
2021-09-23 21:09:27.329235,-43
2021-09-23 21:09:27.329240,-38
2021-09-23 21:09:27.329246,-33
2021-09-23 21:09:27.329252,-36
2021-09-23 21:09:27.329258,-36
2021-09-23 21:09:27.329264,-33
2021-09-23 21:09:27.329269,-31
2021-09-23 21:09:27.329275,-28
2021-09-23 21:09:27.329281,-26
2021-09-23 21:09:27.329286,-24
2021-09-23 21:09:27.329292,-26
2021-09-23 21:09:27.329298,-28
2021-09-23 21:09:27.329304,-24
2021-09-23 21:09:27.329309,-14
2021-09-23 21:09:27.599166,-14
2021-09-23 21:09:27.599184,-19
2021-09-23 21:09:27.599190,-14
2021-09-23 21:09:27.599196,-14
2021-09-23 21:09:27.599202,-21
2021-09-23 21:09:27.599208,-14
2021-09-23 21:09:27.599214,-9
2021-09-23 21:09:27.599219,-14
2021-09-23 21:09:27.599225,-26
2021-09-23 21:09:27.599231,-36
2021-09-23 21:09:27.599237,-38
2021-09-23 21:09:27.599243,-24
2021-09-23 21:09:27.599248,-9
2021-09-23 21:09:27.599254,-2
2021-09-23 21:09:27.599260,-14
2021-09-23 21:09:27.599266,-21
2021-09-23 21:09:27.599271,-4
2021-09-23 21:09:27.599277,9
2021-09-23 21:09:27.599283,16
2021-09-23 21:09:27.599289,24
2021-09-23 21:09:27.599294,19
2021-09-23 21:09:27.599300,-2
2021-09-23 21:09:27.599306,-21
2021-09-23 21:09:27.599312,-21
2021-09-23 21:09:27.599317,-7
2021-09-23 21:09:27.599323,0
2021-09-23 21:09:27.599329,4
2021-09-23 21:09:27.599334,36
2021-09-23 21:09:27.599340,187
2021-09-23 21:09:27.599346,526
2021-09-23 21:09:27.913619,937
2021-09-23 21:09:27.913638,872
2021-09-23 21:09:27.913645,-50
2021-09-23 21:09:27.913651,-716
2021-09-23 21:09:27.913657,-322
2021-09-23 21:09:27.913663,12
2021-09-23 21:09:27.913668,-137
2021-09-23 21:09:27.913674,-108
2021-09-23 21:09:27.913680,2
2021-09-23 21:09:27.913686,-50
2021-09-23 21:09:27.913691,-57
2021-09-23 21:09:27.913697,-4
2021-09-23 21:09:27.913703,-2
2021-09-23 21:09:27.913709,-7
2021-09-23 21:09:27.913715,12
2021-09-23 21:09:27.913720,12
2021-09-23 21:09:27.913726,12
2021-09-23 21:09:27.913732,26
2021-09-23 21:09:27.913738,38
2021-09-23 21:09:27.913744,45
2021-09-23 21:09:27.913749,55
2021-09-23 21:09:27.913755,62
2021-09-23 21:09:27.913761,74
2021-09-23 21:09:27.913767,91
2021-09-23 21:09:27.913772,103
2021-09-23 21:09:27.913778,117
2021-09-23 21:09:27.913784,120
2021-09-23 21:09:27.913789,115
2021-09-23 21:09:27.913795,108
2021-09-23 21:09:27.913801,98
2021-09-23 21:09:28.004143,79
2021-09-23 21:09:28.004161,55
2021-09-23 21:09:28.004168,31
2021-09-23 21:09:28.004174,-7
2021-09-23 21:09:28.004180,-36
2021-09-23 21:09:28.004186,-52
2021-09-23 21:09:28.004191,-72
2021-09-23 21:09:28.004197,-88
2021-09-23 21:09:28.004203,-96
2021-09-23 21:09:28.004209,-98
2021-09-23 21:09:28.004246,-96
2021-09-23 21:09:28.004255,-91
2021-09-23 21:09:28.004262,-84
2021-09-23 21:09:28.004268,-88
2021-09-23 21:09:28.004274,-105
2021-09-23 21:09:28.004280,-105
2021-09-23 21:09:28.004286,-86
2021-09-23 21:09:28.004292,-72
2021-09-23 21:09:28.004298,-67
2021-09-23 21:09:28.004303,-64
2021-09-23 21:09:28.004309,-57
2021-09-23 21:09:28.004315,-48
2021-09-23 21:09:28.004321,-38
2021-09-23 21:09:28.004330,-31
2021-09-23 21:09:28.004336,-26
2021-09-23 21:09:28.004341,-28
2021-09-23 21:09:28.004347,-31
2021-09-23 21:09:28.004353,-31
2021-09-23 21:09:28.004359,-24
2021-09-23 21:09:28.004365,-21
2021-09-23 21:09:28.274170,-24
2021-09-23 21:09:28.274187,-28
2021-09-23 21:09:28.274194,-31
2021-09-23 21:09:28.274200,-28
2021-09-23 21:09:28.274206,-24
2021-09-23 21:09:28.274212,-19
2021-09-23 21:09:28.274217,-19
2021-09-23 21:09:28.274223,-28
2021-09-23 21:09:28.274229,-31
2021-09-23 21:09:28.274234,-26
2021-09-23 21:09:28.274240,-31
2021-09-23 21:09:28.274246,-28
2021-09-23 21:09:28.274251,-21
2021-09-23 21:09:28.274257,-26
2021-09-23 21:09:28.274263,-28
2021-09-23 21:09:28.274269,-19
2021-09-23 21:09:28.274274,-12
2021-09-23 21:09:28.274280,-16
2021-09-23 21:09:28.274285,-16
2021-09-23 21:09:28.274291,-12
2021-09-23 21:09:28.274297,-14
2021-09-23 21:09:28.274302,-12
2021-09-23 21:09:28.274308,-2
2021-09-23 21:09:28.274314,0
2021-09-23 21:09:28.274319,0
2021-09-23 21:09:28.274325,2
2021-09-23 21:09:28.274331,7
2021-09-23 21:09:28.274336,9
2021-09-23 21:09:28.274342,12
2021-09-23 21:09:28.274348,16
2021-09-23 21:09:28.454168,24
2021-09-23 21:09:28.454186,26
2021-09-23 21:09:28.454193,26
2021-09-23 21:09:28.454200,40
2021-09-23 21:09:28.454206,55
2021-09-23 21:09:28.454211,43
2021-09-23 21:09:28.454217,4
2021-09-23 21:09:28.454223,-26
2021-09-23 21:09:28.454229,-19
2021-09-23 21:09:28.454235,-2
2021-09-23 21:09:28.454240,2
2021-09-23 21:09:28.454246,9
2021-09-23 21:09:28.454252,50
2021-09-23 21:09:28.454258,209
2021-09-23 21:09:28.454264,567
2021-09-23 21:09:28.454270,1005
2021-09-23 21:09:28.454276,872
2021-09-23 21:09:28.454282,-93
2021-09-23 21:09:28.454287,-654
2021-09-23 21:09:28.454293,-262
2021-09-23 21:09:28.454299,-45
2021-09-23 21:09:28.454305,-194
2021-09-23 21:09:28.454310,-132
2021-09-23 21:09:28.454316,-50
2021-09-23 21:09:28.454322,-105
2021-09-23 21:09:28.454328,-98
2021-09-23 21:09:28.454333,-48
2021-09-23 21:09:28.454339,-52
2021-09-23 21:09:28.454345,-48
2021-09-23 21:09:28.454351,-26
2021-09-23 21:09:28.767892,-24
2021-09-23 21:09:28.767910,-19
2021-09-23 21:09:28.767917,-4
2021-09-23 21:09:28.767923,2
2021-09-23 21:09:28.767929,9
2021-09-23 21:09:28.767935,19
2021-09-23 21:09:28.767941,21
2021-09-23 21:09:28.767947,36
2021-09-23 21:09:28.767952,57
2021-09-23 21:09:28.767958,69
2021-09-23 21:09:28.767964,79
2021-09-23 21:09:28.767970,81
2021-09-23 21:09:28.767976,81
2021-09-23 21:09:28.767981,79
2021-09-23 21:09:28.767987,64
2021-09-23 21:09:28.767993,48
2021-09-23 21:09:28.767999,40
2021-09-23 21:09:28.768005,21
2021-09-23 21:09:28.768011,-12
2021-09-23 21:09:28.768017,-28
2021-09-23 21:09:28.768023,-45
2021-09-23 21:09:28.768029,-69
2021-09-23 21:09:28.768034,-79
2021-09-23 21:09:28.768040,-81
2021-09-23 21:09:28.768046,-86
2021-09-23 21:09:28.768052,-84
2021-09-23 21:09:28.768058,-79
2021-09-23 21:09:28.768063,-76
2021-09-23 21:09:28.768069,-79
2021-09-23 21:09:28.768075,-74
2021-09-23 21:09:28.904175,-64
2021-09-23 21:09:28.904193,-62
2021-09-23 21:09:28.904200,-67
2021-09-23 21:09:28.904206,-60
2021-09-23 21:09:28.904212,-48
2021-09-23 21:09:28.904218,-48
2021-09-23 21:09:28.904223,-43
2021-09-23 21:09:28.904229,-24
2021-09-23 21:09:28.904235,-14
2021-09-23 21:09:28.904241,-21
2021-09-23 21:09:28.904246,-21
2021-09-23 21:09:28.904252,-14
2021-09-23 21:09:28.904258,-9
2021-09-23 21:09:28.904263,-7
2021-09-23 21:09:28.904269,-7
2021-09-23 21:09:28.904275,-9
2021-09-23 21:09:28.904281,-21
2021-09-23 21:09:28.904286,-33
2021-09-23 21:09:28.904292,-24
2021-09-23 21:09:28.904298,-14
2021-09-23 21:09:28.904303,-16
2021-09-23 21:09:28.904309,-19
2021-09-23 21:09:28.904315,-21
2021-09-23 21:09:28.904320,-21
2021-09-23 21:09:28.904326,-14
2021-09-23 21:09:28.904332,-16
2021-09-23 21:09:28.904337,-24
2021-09-23 21:09:28.904343,-28
2021-09-23 21:09:28.904349,-31
2021-09-23 21:09:28.904354,-33
2021-09-23 21:09:29.129181,-28
2021-09-23 21:09:29.129199,-19
2021-09-23 21:09:29.129206,-16
2021-09-23 21:09:29.129213,-21
2021-09-23 21:09:29.129219,-26
2021-09-23 21:09:29.129225,-26
2021-09-23 21:09:29.129231,-16
2021-09-23 21:09:29.129236,-9
2021-09-23 21:09:29.129242,-7
2021-09-23 21:09:29.129248,-12
2021-09-23 21:09:29.129254,-21
2021-09-23 21:09:29.129260,-12
2021-09-23 21:09:29.129266,0
2021-09-23 21:09:29.129272,0
2021-09-23 21:09:29.129278,9
2021-09-23 21:09:29.129284,14
2021-09-23 21:09:29.129289,-4
2021-09-23 21:09:29.129295,-31
2021-09-23 21:09:29.129301,-45
2021-09-23 21:09:29.129307,-40
2021-09-23 21:09:29.129313,-38
2021-09-23 21:09:29.129318,-36
2021-09-23 21:09:29.129324,-14
2021-09-23 21:09:29.129330,57
2021-09-23 21:09:29.129336,276
2021-09-23 21:09:29.129342,699
2021-09-23 21:09:29.129347,1106
2021-09-23 21:09:29.129353,738
2021-09-23 21:09:29.129359,-377
2021-09-23 21:09:29.129364,-714
2021-09-23 21:09:29.399218,-161
2021-09-23 21:09:29.399237,-31
2021-09-23 21:09:29.399245,-194
2021-09-23 21:09:29.399251,-101
2021-09-23 21:09:29.399257,-43
2021-09-23 21:09:29.399263,-96
2021-09-23 21:09:29.399269,-67
2021-09-23 21:09:29.399275,-21
2021-09-23 21:09:29.399281,-28
2021-09-23 21:09:29.399287,-26
2021-09-23 21:09:29.399293,-12
2021-09-23 21:09:29.399299,-7
2021-09-23 21:09:29.399305,0
2021-09-23 21:09:29.399310,16
2021-09-23 21:09:29.399316,33
2021-09-23 21:09:29.399322,40
2021-09-23 21:09:29.399328,48
2021-09-23 21:09:29.399333,72
2021-09-23 21:09:29.399339,91
2021-09-23 21:09:29.399345,103
2021-09-23 21:09:29.399351,113
2021-09-23 21:09:29.399357,122
2021-09-23 21:09:29.399362,127
2021-09-23 21:09:29.399368,132
2021-09-23 21:09:29.399374,129
2021-09-23 21:09:29.399379,117
2021-09-23 21:09:29.399385,96
2021-09-23 21:09:29.399391,67
2021-09-23 21:09:29.399396,36
2021-09-23 21:09:29.399407,12
2021-09-23 21:09:29.624193,-16
2021-09-23 21:09:29.624211,-57
2021-09-23 21:09:29.624218,-84
2021-09-23 21:09:29.624224,-91
2021-09-23 21:09:29.624230,-93
2021-09-23 21:09:29.624236,-93
2021-09-23 21:09:29.624242,-88
2021-09-23 21:09:29.624247,-91
2021-09-23 21:09:29.624253,-96
2021-09-23 21:09:29.624259,-93
2021-09-23 21:09:29.624265,-91
2021-09-23 21:09:29.624271,-86
2021-09-23 21:09:29.624276,-76
2021-09-23 21:09:29.624282,-74
2021-09-23 21:09:29.624288,-72
2021-09-23 21:09:29.624294,-64
2021-09-23 21:09:29.624300,-50
2021-09-23 21:09:29.624306,-38
2021-09-23 21:09:29.624311,-33
2021-09-23 21:09:29.624317,-31
2021-09-23 21:09:29.624323,-31
2021-09-23 21:09:29.624329,-31
2021-09-23 21:09:29.624334,-36
2021-09-23 21:09:29.624340,-36
2021-09-23 21:09:29.624346,-26
2021-09-23 21:09:29.624352,-24
2021-09-23 21:09:29.624357,-33
2021-09-23 21:09:29.624363,-36
2021-09-23 21:09:29.624369,-33
2021-09-23 21:09:29.624375,-31
2021-09-23 21:09:29.894155,-26
2021-09-23 21:09:29.894173,-21
2021-09-23 21:09:29.894180,-26
2021-09-23 21:09:29.894186,-28
2021-09-23 21:09:29.894192,-21
2021-09-23 21:09:29.894199,-16
2021-09-23 21:09:29.894205,-19
2021-09-23 21:09:29.894210,-19
2021-09-23 21:09:29.894217,-33
2021-09-23 21:09:29.894223,-45
2021-09-23 21:09:29.894228,-33
2021-09-23 21:09:29.894234,-21
2021-09-23 21:09:29.894240,-24
2021-09-23 21:09:29.894246,-31
2021-09-23 21:09:29.894252,-36
2021-09-23 21:09:29.894258,-24
2021-09-23 21:09:29.894264,2
2021-09-23 21:09:29.894270,12
2021-09-23 21:09:29.894276,14
2021-09-23 21:09:29.894282,19
2021-09-23 21:09:29.894288,-2
2021-09-23 21:09:29.894294,-36
2021-09-23 21:09:29.894300,-43
2021-09-23 21:09:29.894306,-26
2021-09-23 21:09:29.894312,-19
2021-09-23 21:09:29.894318,-16
2021-09-23 21:09:29.894324,-7
2021-09-23 21:09:29.894330,60
2021-09-23 21:09:29.894336,298
2021-09-23 21:09:29.894342,733
2021-09-23 21:09:30.074234,1060
2021-09-23 21:09:30.074253,548
2021-09-23 21:09:30.074260,-543
2021-09-23 21:09:30.074266,-694
2021-09-23 21:09:30.074272,-113
2021-09-23 21:09:30.074278,-55
2021-09-23 21:09:30.074284,-182
2021-09-23 21:09:30.074290,-55
2021-09-23 21:09:30.074296,-21
2021-09-23 21:09:30.074302,-76
2021-09-23 21:09:30.074308,-33
2021-09-23 21:09:30.074314,0
2021-09-23 21:09:30.074320,-16
2021-09-23 21:09:30.074326,-14
2021-09-23 21:09:30.074331,2
2021-09-23 21:09:30.074337,9
2021-09-23 21:09:30.074343,21
2021-09-23 21:09:30.074349,36
2021-09-23 21:09:30.074355,45
2021-09-23 21:09:30.074360,52
2021-09-23 21:09:30.074366,67
2021-09-23 21:09:30.074372,86
2021-09-23 21:09:30.074378,103
2021-09-23 21:09:30.074383,122
2021-09-23 21:09:30.074389,144
2021-09-23 21:09:30.074395,153
2021-09-23 21:09:30.074401,158
2021-09-23 21:09:30.074406,156
2021-09-23 21:09:30.074412,141
2021-09-23 21:09:30.074418,132
2021-09-23 21:09:30.299189,115
2021-09-23 21:09:30.299207,79
2021-09-23 21:09:30.299214,38
2021-09-23 21:09:30.299220,2
2021-09-23 21:09:30.299226,-31
2021-09-23 21:09:30.299232,-60
2021-09-23 21:09:30.299238,-84
2021-09-23 21:09:30.299244,-93
2021-09-23 21:09:30.299249,-93
2021-09-23 21:09:30.299255,-98
2021-09-23 21:09:30.299261,-101
2021-09-23 21:09:30.299267,-96
2021-09-23 21:09:30.299273,-96
2021-09-23 21:09:30.299279,-103
2021-09-23 21:09:30.299284,-98
2021-09-23 21:09:30.299290,-81
2021-09-23 21:09:30.299296,-72
2021-09-23 21:09:30.299302,-62
2021-09-23 21:09:30.299307,-52
2021-09-23 21:09:30.299313,-43
2021-09-23 21:09:30.299319,-36
2021-09-23 21:09:30.299325,-26
2021-09-23 21:09:30.299330,-14
2021-09-23 21:09:30.299336,-7
2021-09-23 21:09:30.299342,-4
2021-09-23 21:09:30.299348,0
2021-09-23 21:09:30.299353,2
2021-09-23 21:09:30.299359,-4
2021-09-23 21:09:30.299365,-16
2021-09-23 21:09:30.299371,-24
2021-09-23 21:09:30.524206,-19
2021-09-23 21:09:30.524224,-16
2021-09-23 21:09:30.524231,-24
2021-09-23 21:09:30.524237,-26
2021-09-23 21:09:30.524243,-21
2021-09-23 21:09:30.524249,-21
2021-09-23 21:09:30.524255,-28
2021-09-23 21:09:30.524260,-24
2021-09-23 21:09:30.524266,-16
2021-09-23 21:09:30.524272,-24
2021-09-23 21:09:30.524278,-26
2021-09-23 21:09:30.524283,-21
2021-09-23 21:09:30.524289,-28
2021-09-23 21:09:30.524295,-40
2021-09-23 21:09:30.524300,-45
2021-09-23 21:09:30.524306,-33
2021-09-23 21:09:30.524312,-19
2021-09-23 21:09:30.524317,-14
2021-09-23 21:09:30.524323,-2
2021-09-23 21:09:30.524329,14
2021-09-23 21:09:30.524334,12
2021-09-23 21:09:30.524340,-9
2021-09-23 21:09:30.524346,-26
2021-09-23 21:09:30.524352,-26
2021-09-23 21:09:30.524357,-16
2021-09-23 21:09:30.524363,-9
2021-09-23 21:09:30.524369,-4
2021-09-23 21:09:30.524374,21
2021-09-23 21:09:30.524380,153
2021-09-23 21:09:30.524386,507
2021-09-23 21:09:30.792910,1031
2021-09-23 21:09:30.792929,1132
2021-09-23 21:09:30.792936,189
2021-09-23 21:09:30.792942,-719
2021-09-23 21:09:30.792948,-420
2021-09-23 21:09:30.792954,-9
2021-09-23 21:09:30.792960,-170
2021-09-23 21:09:30.792966,-175
2021-09-23 21:09:30.792971,-33
2021-09-23 21:09:30.792977,-69
2021-09-23 21:09:30.792983,-93
2021-09-23 21:09:30.792989,-43
2021-09-23 21:09:30.792995,-36
2021-09-23 21:09:30.793000,-40
2021-09-23 21:09:30.793006,-19
2021-09-23 21:09:30.793012,-7
2021-09-23 21:09:30.793018,0
2021-09-23 21:09:30.793024,9
2021-09-23 21:09:30.793029,19
2021-09-23 21:09:30.793035,28
2021-09-23 21:09:30.793041,45
2021-09-23 21:09:30.793047,62
2021-09-23 21:09:30.793053,79
2021-09-23 21:09:30.793058,96
2021-09-23 21:09:30.793064,110
2021-09-23 21:09:30.793070,127
2021-09-23 21:09:30.793076,139
2021-09-23 21:09:30.793082,141
2021-09-23 21:09:30.793088,141
2021-09-23 21:09:30.793094,137
2021-09-23 21:09:31.019200,127
2021-09-23 21:09:31.019218,101
2021-09-23 21:09:31.019225,57
2021-09-23 21:09:31.019231,12
2021-09-23 21:09:31.019237,-26
2021-09-23 21:09:31.019243,-55
2021-09-23 21:09:31.019249,-69
2021-09-23 21:09:31.019254,-76
2021-09-23 21:09:31.019260,-81
2021-09-23 21:09:31.019266,-86
2021-09-23 21:09:31.019272,-93
2021-09-23 21:09:31.019278,-96
2021-09-23 21:09:31.019283,-86
2021-09-23 21:09:31.019289,-76
2021-09-23 21:09:31.019295,-81
2021-09-23 21:09:31.019301,-84
2021-09-23 21:09:31.019306,-76
2021-09-23 21:09:31.019312,-69
2021-09-23 21:09:31.019318,-67
2021-09-23 21:09:31.019324,-67
2021-09-23 21:09:31.019329,-62
2021-09-23 21:09:31.019335,-52
2021-09-23 21:09:31.019341,-48
2021-09-23 21:09:31.019347,-40
2021-09-23 21:09:31.019353,-28
2021-09-23 21:09:31.019358,-21
2021-09-23 21:09:31.019364,-21
2021-09-23 21:09:31.019370,-19
2021-09-23 21:09:31.019382,-19
2021-09-23 21:09:31.019388,-14
2021-09-23 21:09:31.199147,-9
2021-09-23 21:09:31.199164,-4
2021-09-23 21:09:31.199171,-7
2021-09-23 21:09:31.199177,-12
2021-09-23 21:09:31.199183,-14
2021-09-23 21:09:31.199189,-12
2021-09-23 21:09:31.199195,-7
2021-09-23 21:09:31.199201,-7
2021-09-23 21:09:31.199206,-12
2021-09-23 21:09:31.199212,-21
2021-09-23 21:09:31.199218,-24
2021-09-23 21:09:31.199224,-16
2021-09-23 21:09:31.199230,-9
2021-09-23 21:09:31.199235,-7
2021-09-23 21:09:31.199241,-12
2021-09-23 21:09:31.199247,-14
2021-09-23 21:09:31.199253,-12
2021-09-23 21:09:31.199258,-4
2021-09-23 21:09:31.199264,12
2021-09-23 21:09:31.199270,28
2021-09-23 21:09:31.199276,24
2021-09-23 21:09:31.199282,-7
2021-09-23 21:09:31.199287,-28
2021-09-23 21:09:31.199293,-24
2021-09-23 21:09:31.199299,-16
2021-09-23 21:09:31.199305,-14
2021-09-23 21:09:31.199310,-9
2021-09-23 21:09:31.199316,31
2021-09-23 21:09:31.199322,204
2021-09-23 21:09:31.199327,620
2021-09-23 21:09:31.514239,1156
2021-09-23 21:09:31.514258,1089
2021-09-23 21:09:31.514266,21
2021-09-23 21:09:31.514272,-699
2021-09-23 21:09:31.514279,-300
2021-09-23 21:09:31.514285,-19
2021-09-23 21:09:31.514291,-209
2021-09-23 21:09:31.514297,-180
2021-09-23 21:09:31.514304,-62
2021-09-23 21:09:31.514310,-110
2021-09-23 21:09:31.514316,-117
2021-09-23 21:09:31.514322,-60
2021-09-23 21:09:31.514328,-55
2021-09-23 21:09:31.514335,-60
2021-09-23 21:09:31.514341,-38
2021-09-23 21:09:31.514347,-31
2021-09-23 21:09:31.514353,-28
2021-09-23 21:09:31.514360,-12
2021-09-23 21:09:31.514366,2
2021-09-23 21:09:31.514372,12
2021-09-23 21:09:31.514378,24
2021-09-23 21:09:31.514384,36
2021-09-23 21:09:31.514390,48
2021-09-23 21:09:31.514397,64
2021-09-23 21:09:31.514403,79
2021-09-23 21:09:31.514409,81
2021-09-23 21:09:31.514415,86
2021-09-23 21:09:31.514421,96
2021-09-23 21:09:31.514427,96
2021-09-23 21:09:31.514433,88
2021-09-23 21:09:31.739205,76
2021-09-23 21:09:31.739222,60
2021-09-23 21:09:31.739229,28
2021-09-23 21:09:31.739235,-12
2021-09-23 21:09:31.739241,-38
2021-09-23 21:09:31.739247,-52
2021-09-23 21:09:31.739253,-67
2021-09-23 21:09:31.739259,-76
2021-09-23 21:09:31.739265,-86
2021-09-23 21:09:31.739270,-96
2021-09-23 21:09:31.739276,-96
2021-09-23 21:09:31.739282,-81
2021-09-23 21:09:31.739288,-74
2021-09-23 21:09:31.739293,-79
2021-09-23 21:09:31.739299,-86
2021-09-23 21:09:31.739305,-91
2021-09-23 21:09:31.739310,-84
2021-09-23 21:09:31.739316,-74
2021-09-23 21:09:31.739322,-72
2021-09-23 21:09:31.739327,-67
2021-09-23 21:09:31.739333,-67
2021-09-23 21:09:31.739339,-62
2021-09-23 21:09:31.739344,-50
2021-09-23 21:09:31.739350,-40
2021-09-23 21:09:31.739356,-36
2021-09-23 21:09:31.739361,-26
2021-09-23 21:09:31.739367,-26
2021-09-23 21:09:31.739373,-21
2021-09-23 21:09:31.739378,-14
2021-09-23 21:09:31.739384,-14
2021-09-23 21:09:32.008591,-14
2021-09-23 21:09:32.008609,-9
2021-09-23 21:09:32.008616,-12
2021-09-23 21:09:32.008622,-12
2021-09-23 21:09:32.008628,-9
2021-09-23 21:09:32.008634,-4
2021-09-23 21:09:32.008640,-2
2021-09-23 21:09:32.008646,2
2021-09-23 21:09:32.008651,0
2021-09-23 21:09:32.008657,-4
2021-09-23 21:09:32.008663,0
2021-09-23 21:09:32.008669,7
2021-09-23 21:09:32.008674,9
2021-09-23 21:09:32.008680,14
2021-09-23 21:09:32.008686,24
2021-09-23 21:09:32.008692,12
2021-09-23 21:09:32.008697,-12
2021-09-23 21:09:32.008703,-24
2021-09-23 21:09:32.008709,-14
2021-09-23 21:09:32.008714,-14
2021-09-23 21:09:32.008720,-14
2021-09-23 21:09:32.008726,4
2021-09-23 21:09:32.008732,55
2021-09-23 21:09:32.008737,233
2021-09-23 21:09:32.008743,646
2021-09-23 21:09:32.008749,1156
2021-09-23 21:09:32.008754,1005
2021-09-23 21:09:32.008760,-74
2021-09-23 21:09:32.008766,-663
2021-09-23 21:09:32.008772,-214
2021-09-23 21:09:32.144196,-2
2021-09-23 21:09:32.144213,-204
2021-09-23 21:09:32.144221,-151
2021-09-23 21:09:32.144227,-43
2021-09-23 21:09:32.144233,-91
2021-09-23 21:09:32.144239,-84
2021-09-23 21:09:32.144245,-36
2021-09-23 21:09:32.144250,-50
2021-09-23 21:09:32.144256,-60
2021-09-23 21:09:32.144262,-36
2021-09-23 21:09:32.144268,-26
2021-09-23 21:09:32.144274,-28
2021-09-23 21:09:32.144279,-21
2021-09-23 21:09:32.144285,-12
2021-09-23 21:09:32.144291,-4
2021-09-23 21:09:32.144297,9
2021-09-23 21:09:32.144302,24
2021-09-23 21:09:32.144308,40
2021-09-23 21:09:32.144314,52
2021-09-23 21:09:32.144319,67
2021-09-23 21:09:32.144325,81
2021-09-23 21:09:32.144331,93
2021-09-23 21:09:32.144337,98
2021-09-23 21:09:32.144343,98
2021-09-23 21:09:32.144349,86
2021-09-23 21:09:32.144355,67
2021-09-23 21:09:32.144360,43
2021-09-23 21:09:32.144366,12
2021-09-23 21:09:32.144372,-24
2021-09-23 21:09:32.144378,-52
2021-09-23 21:09:32.369193,-72
2021-09-23 21:09:32.369209,-88
2021-09-23 21:09:32.369216,-98
2021-09-23 21:09:32.369223,-101
2021-09-23 21:09:32.369229,-96
2021-09-23 21:09:32.369236,-96
2021-09-23 21:09:32.369242,-103
2021-09-23 21:09:32.369248,-101
2021-09-23 21:09:32.369254,-93
2021-09-23 21:09:32.369261,-93
2021-09-23 21:09:32.369267,-91
2021-09-23 21:09:32.369273,-86
2021-09-23 21:09:32.369280,-88
2021-09-23 21:09:32.369286,-84
2021-09-23 21:09:32.369292,-76
2021-09-23 21:09:32.369299,-76
2021-09-23 21:09:32.369305,-69
2021-09-23 21:09:32.369311,-55
2021-09-23 21:09:32.369317,-50
2021-09-23 21:09:32.369324,-45
2021-09-23 21:09:32.369330,-38
2021-09-23 21:09:32.369336,-33
2021-09-23 21:09:32.369342,-28
2021-09-23 21:09:32.369349,-24
2021-09-23 21:09:32.369355,-26
2021-09-23 21:09:32.369361,-21
2021-09-23 21:09:32.369367,-16
2021-09-23 21:09:32.369374,-16
2021-09-23 21:09:32.369380,-14
2021-09-23 21:09:32.369386,-12
2021-09-23 21:09:32.594215,-16
2021-09-23 21:09:32.594233,-14
2021-09-23 21:09:32.594241,-9
2021-09-23 21:09:32.594247,-2
2021-09-23 21:09:32.594252,4
2021-09-23 21:09:32.594258,7
2021-09-23 21:09:32.594264,7
2021-09-23 21:09:32.594270,2
2021-09-23 21:09:32.594276,-19
2021-09-23 21:09:32.594282,-36
2021-09-23 21:09:32.594287,-33
2021-09-23 21:09:32.594293,-26
2021-09-23 21:09:32.594299,-21
2021-09-23 21:09:32.594304,-12
2021-09-23 21:09:32.594310,21
2021-09-23 21:09:32.594316,144
2021-09-23 21:09:32.594322,468
2021-09-23 21:09:32.594327,978
2021-09-23 21:09:32.594333,1180
2021-09-23 21:09:32.594338,360
2021-09-23 21:09:32.594344,-642
2021-09-23 21:09:32.594350,-466
2021-09-23 21:09:32.594355,12
2021-09-23 21:09:32.594361,-120
2021-09-23 21:09:32.594367,-182
2021-09-23 21:09:32.594373,-31
2021-09-23 21:09:32.594378,-43
2021-09-23 21:09:32.594384,-84
2021-09-23 21:09:32.594390,-33
2021-09-23 21:09:32.594395,-14
2021-09-23 21:09:32.862856,-24
2021-09-23 21:09:32.862872,-9
2021-09-23 21:09:32.862879,4
2021-09-23 21:09:32.862886,7
2021-09-23 21:09:32.862891,9
2021-09-23 21:09:32.862897,14
2021-09-23 21:09:32.862903,28
2021-09-23 21:09:32.862909,50
2021-09-23 21:09:32.862915,62
2021-09-23 21:09:32.862921,69
2021-09-23 21:09:32.862927,76
2021-09-23 21:09:32.862933,86
2021-09-23 21:09:32.862939,108
2021-09-23 21:09:32.862944,125
2021-09-23 21:09:32.862950,127
2021-09-23 21:09:32.862956,122
2021-09-23 21:09:32.862962,105
2021-09-23 21:09:32.862968,86
2021-09-23 21:09:32.862973,62
2021-09-23 21:09:32.862979,19
2021-09-23 21:09:32.862985,-24
2021-09-23 21:09:32.862991,-52
2021-09-23 21:09:32.862996,-79
2021-09-23 21:09:32.863005,-93
2021-09-23 21:09:32.863011,-103
2021-09-23 21:09:32.863017,-110
2021-09-23 21:09:32.863022,-113
2021-09-23 21:09:32.863028,-113
2021-09-23 21:09:32.863034,-115
2021-09-23 21:09:32.863040,-115
2021-09-23 21:09:33.044304,-101
2021-09-23 21:09:33.044323,-93
2021-09-23 21:09:33.044331,-91
2021-09-23 21:09:33.044337,-93
2021-09-23 21:09:33.044343,-91
2021-09-23 21:09:33.044348,-84
2021-09-23 21:09:33.044354,-76
2021-09-23 21:09:33.044360,-72
2021-09-23 21:09:33.044366,-64
2021-09-23 21:09:33.044372,-60
2021-09-23 21:09:33.044377,-57
2021-09-23 21:09:33.044383,-52
2021-09-23 21:09:33.044389,-55
2021-09-23 21:09:33.044395,-64
2021-09-23 21:09:33.044401,-62
2021-09-23 21:09:33.044406,-52
2021-09-23 21:09:33.044412,-50
2021-09-23 21:09:33.044418,-48
2021-09-23 21:09:33.044424,-45
2021-09-23 21:09:33.044430,-40
2021-09-23 21:09:33.044436,-38
2021-09-23 21:09:33.044441,-45
2021-09-23 21:09:33.044447,-50
2021-09-23 21:09:33.044453,-38
2021-09-23 21:09:33.044458,-31
2021-09-23 21:09:33.044464,-33
2021-09-23 21:09:33.044470,-26
2021-09-23 21:09:33.044476,-21
2021-09-23 21:09:33.044481,-24
2021-09-23 21:09:33.044487,-24
2021-09-23 21:09:33.314316,-21
2021-09-23 21:09:33.314336,-9
2021-09-23 21:09:33.314343,7
2021-09-23 21:09:33.314350,7
2021-09-23 21:09:33.314356,4
2021-09-23 21:09:33.314362,9
2021-09-23 21:09:33.314368,-4
2021-09-23 21:09:33.314374,-28
2021-09-23 21:09:33.314379,-31
2021-09-23 21:09:33.314385,-16
2021-09-23 21:09:33.314391,-19
2021-09-23 21:09:33.314397,-19
2021-09-23 21:09:33.314403,9
2021-09-23 21:09:33.314408,117
2021-09-23 21:09:33.314414,406
2021-09-23 21:09:33.314420,877
2021-09-23 21:09:33.314426,1101
2021-09-23 21:09:33.314431,353
2021-09-23 21:09:33.314437,-707
2021-09-23 21:09:33.314443,-596
2021-09-23 21:09:33.314449,-33
2021-09-23 21:09:33.314454,-96
2021-09-23 21:09:33.314460,-168
2021-09-23 21:09:33.314466,-12
2021-09-23 21:09:33.314472,-21
2021-09-23 21:09:33.314477,-72
2021-09-23 21:09:33.314483,-12
2021-09-23 21:09:33.314489,7
2021-09-23 21:09:33.314495,-14
2021-09-23 21:09:33.314501,9
2021-09-23 21:09:33.539272,38
2021-09-23 21:09:33.539291,38
2021-09-23 21:09:33.539298,36
2021-09-23 21:09:33.539304,45
2021-09-23 21:09:33.539309,62
2021-09-23 21:09:33.539315,79
2021-09-23 21:09:33.539321,86
2021-09-23 21:09:33.539327,86
2021-09-23 21:09:33.539332,84
2021-09-23 21:09:33.539338,91
2021-09-23 21:09:33.539344,113
2021-09-23 21:09:33.539350,127
2021-09-23 21:09:33.539355,117
2021-09-23 21:09:33.539361,103
2021-09-23 21:09:33.539367,91
2021-09-23 21:09:33.539373,79
2021-09-23 21:09:33.539378,67
2021-09-23 21:09:33.539384,43
2021-09-23 21:09:33.539390,12
2021-09-23 21:09:33.539395,-28
2021-09-23 21:09:33.539401,-64
2021-09-23 21:09:33.539407,-79
2021-09-23 21:09:33.539413,-98
2021-09-23 21:09:33.539419,-117
2021-09-23 21:09:33.539425,-117
2021-09-23 21:09:33.539430,-115
2021-09-23 21:09:33.539436,-117
2021-09-23 21:09:33.539442,-110
2021-09-23 21:09:33.539448,-103
2021-09-23 21:09:33.539453,-108
2021-09-23 21:09:33.764213,-101
2021-09-23 21:09:33.764230,-88
2021-09-23 21:09:33.764237,-93
2021-09-23 21:09:33.764243,-96
2021-09-23 21:09:33.764249,-76
2021-09-23 21:09:33.764254,-60
2021-09-23 21:09:33.764260,-55
2021-09-23 21:09:33.764266,-52
2021-09-23 21:09:33.764272,-40
2021-09-23 21:09:33.764277,-21
2021-09-23 21:09:33.764283,-16
2021-09-23 21:09:33.764288,-14
2021-09-23 21:09:33.764294,-9
2021-09-23 21:09:33.764300,-19
2021-09-23 21:09:33.764306,-40
2021-09-23 21:09:33.764312,-52
2021-09-23 21:09:33.764317,-45
2021-09-23 21:09:33.764323,-38
2021-09-23 21:09:33.764329,-31
2021-09-23 21:09:33.764334,-24
2021-09-23 21:09:33.764340,-36
2021-09-23 21:09:33.764346,-48
2021-09-23 21:09:33.764351,-31
2021-09-23 21:09:33.764357,-28
2021-09-23 21:09:33.764363,-48
2021-09-23 21:09:33.764369,-43
2021-09-23 21:09:33.764374,-33
2021-09-23 21:09:33.764380,-48
2021-09-23 21:09:33.764386,-48
2021-09-23 21:09:33.764391,36
2021-09-23 21:09:33.989218,286
2021-09-23 21:09:33.989237,668
2021-09-23 21:09:33.989244,836
2021-09-23 21:09:33.989251,218
2021-09-23 21:09:33.989257,-719
2021-09-23 21:09:33.989263,-663
2021-09-23 21:09:33.989269,-84
2021-09-23 21:09:33.989274,-55
2021-09-23 21:09:33.989280,-144
2021-09-23 21:09:33.989286,-31
2021-09-23 21:09:33.989292,-16
2021-09-23 21:09:33.989298,-48
2021-09-23 21:09:33.989304,-12
2021-09-23 21:09:33.989310,-2
2021-09-23 21:09:33.989316,-21
2021-09-23 21:09:33.989322,4
2021-09-23 21:09:33.989330,31
2021-09-23 21:09:33.989336,21
2021-09-23 21:09:33.989342,31
2021-09-23 21:09:33.989348,48
2021-09-23 21:09:33.989354,48
2021-09-23 21:09:33.989360,62
2021-09-23 21:09:33.989366,76
2021-09-23 21:09:33.989371,98
2021-09-23 21:09:33.989380,127
2021-09-23 21:09:33.989386,132
2021-09-23 21:09:33.989392,139
2021-09-23 21:09:33.989398,149
2021-09-23 21:09:33.989404,141
2021-09-23 21:09:33.989410,149
2021-09-23 21:09:34.214282,144
2021-09-23 21:09:34.214302,88
2021-09-23 21:09:34.214309,43
2021-09-23 21:09:34.214315,16
2021-09-23 21:09:34.214321,-21
2021-09-23 21:09:34.214327,-86
2021-09-23 21:09:34.214333,-129
2021-09-23 21:09:34.214339,-134
2021-09-23 21:09:34.214345,-146
2021-09-23 21:09:34.214350,-161
2021-09-23 21:09:34.214356,-163
2021-09-23 21:09:34.214362,-165
2021-09-23 21:09:34.214367,-163
2021-09-23 21:09:34.214373,-165
2021-09-23 21:09:34.214379,-163
2021-09-23 21:09:34.214385,-149
2021-09-23 21:09:34.214390,-139
2021-09-23 21:09:34.214396,-137
2021-09-23 21:09:34.214402,-129
2021-09-23 21:09:34.214407,-113
2021-09-23 21:09:34.214413,-98
2021-09-23 21:09:34.214419,-93
2021-09-23 21:09:34.214424,-79
2021-09-23 21:09:34.214430,-72
2021-09-23 21:09:34.214436,-69
2021-09-23 21:09:34.214442,-62
2021-09-23 21:09:34.214447,-60
2021-09-23 21:09:34.214453,-62
2021-09-23 21:09:34.214459,-60
2021-09-23 21:09:34.214464,-55
2021-09-23 21:09:34.439396,-48
2021-09-23 21:09:34.439416,-38
2021-09-23 21:09:34.439423,-40
2021-09-23 21:09:34.439429,-45
2021-09-23 21:09:34.439435,-48
2021-09-23 21:09:34.439441,-67
2021-09-23 21:09:34.439447,-81
2021-09-23 21:09:34.439453,-72
2021-09-23 21:09:34.439459,-67
2021-09-23 21:09:34.439465,-74
2021-09-23 21:09:34.439471,-64
2021-09-23 21:09:34.439477,-45
2021-09-23 21:09:34.439483,16
2021-09-23 21:09:34.439488,230
2021-09-23 21:09:34.439495,644
2021-09-23 21:09:34.439501,935
2021-09-23 21:09:34.439506,411
2021-09-23 21:09:34.439512,-538
2021-09-23 21:09:34.439518,-577
2021-09-23 21:09:34.439524,-88
2021-09-23 21:09:34.439530,-93
2021-09-23 21:09:34.439535,-182
2021-09-23 21:09:34.439541,-69
2021-09-23 21:09:34.439547,-57
2021-09-23 21:09:34.439553,-93
2021-09-23 21:09:34.439559,-52
2021-09-23 21:09:34.439564,-28
2021-09-23 21:09:34.439570,-43
2021-09-23 21:09:34.439576,-28
2021-09-23 21:09:34.439581,-4
2021-09-23 21:09:34.709400,0
2021-09-23 21:09:34.709422,-2
2021-09-23 21:09:34.709429,0
2021-09-23 21:09:34.709435,12
2021-09-23 21:09:34.709441,16
2021-09-23 21:09:34.709446,21
2021-09-23 21:09:34.709452,36
2021-09-23 21:09:34.709458,57
2021-09-23 21:09:34.709464,74
2021-09-23 21:09:34.709470,88
2021-09-23 21:09:34.709476,96
2021-09-23 21:09:34.709482,91
2021-09-23 21:09:34.709487,86
2021-09-23 21:09:34.709493,81
2021-09-23 21:09:34.709499,69
2021-09-23 21:09:34.709505,38
2021-09-23 21:09:34.709511,2
2021-09-23 21:09:34.709517,-24
2021-09-23 21:09:34.709523,-43
2021-09-23 21:09:34.709528,-64
2021-09-23 21:09:34.709534,-81
2021-09-23 21:09:34.709540,-91
2021-09-23 21:09:34.709546,-96
2021-09-23 21:09:34.709552,-96
2021-09-23 21:09:34.709557,-91
2021-09-23 21:09:34.709563,-88
2021-09-23 21:09:34.709569,-91
2021-09-23 21:09:34.709575,-96
2021-09-23 21:09:34.709581,-93
2021-09-23 21:09:34.709586,-79
2021-09-23 21:09:34.932964,-60
2021-09-23 21:09:34.932983,-52
2021-09-23 21:09:34.932991,-43
2021-09-23 21:09:34.932997,-28
2021-09-23 21:09:34.933003,-26
2021-09-23 21:09:34.933009,-28
2021-09-23 21:09:34.933014,-21
2021-09-23 21:09:34.933020,-14
2021-09-23 21:09:34.933026,-16
2021-09-23 21:09:34.933032,-26
2021-09-23 21:09:34.933038,-28
2021-09-23 21:09:34.933043,-28
2021-09-23 21:09:34.933049,-24
2021-09-23 21:09:34.933055,-26
2021-09-23 21:09:34.933061,-26
2021-09-23 21:09:34.933067,-21
2021-09-23 21:09:34.933073,-21
2021-09-23 21:09:34.933081,-19
2021-09-23 21:09:34.933087,-7
2021-09-23 21:09:34.933093,-7
2021-09-23 21:09:34.933099,-31
2021-09-23 21:09:34.933105,-40
2021-09-23 21:09:34.933111,-33
2021-09-23 21:09:34.933117,-31
2021-09-23 21:09:34.933122,-33
2021-09-23 21:09:34.933128,-24
2021-09-23 21:09:34.933134,0
2021-09-23 21:09:34.933140,91
2021-09-23 21:09:34.933146,384
2021-09-23 21:09:34.933151,872
2021-09-23 21:09:35.248685,925
2021-09-23 21:09:35.248705,86
2021-09-23 21:09:35.248712,-569
2021-09-23 21:09:35.248718,-264
2021-09-23 21:09:35.248724,0
2021-09-23 21:09:35.248730,-168
2021-09-23 21:09:35.248737,-163
2021-09-23 21:09:35.248743,-57
2021-09-23 21:09:35.248749,-98
2021-09-23 21:09:35.248755,-117
2021-09-23 21:09:35.248761,-72
2021-09-23 21:09:35.248766,-60
2021-09-23 21:09:35.248772,-60
2021-09-23 21:09:35.248778,-40
2021-09-23 21:09:35.248783,-31
2021-09-23 21:09:35.248789,-36
2021-09-23 21:09:35.248795,-21
2021-09-23 21:09:35.248801,-4
2021-09-23 21:09:35.248806,2
2021-09-23 21:09:35.248812,12
2021-09-23 21:09:35.248818,21
2021-09-23 21:09:35.248823,26
2021-09-23 21:09:35.248829,38
2021-09-23 21:09:35.248835,55
2021-09-23 21:09:35.248840,69
2021-09-23 21:09:35.248846,79
2021-09-23 21:09:35.248852,76
2021-09-23 21:09:35.248858,69
2021-09-23 21:09:35.248864,62
2021-09-23 21:09:35.248869,55
2021-09-23 21:09:35.429328,38
2021-09-23 21:09:35.429346,12
2021-09-23 21:09:35.429353,-16
2021-09-23 21:09:35.429359,-43
2021-09-23 21:09:35.429365,-55
2021-09-23 21:09:35.429371,-60
2021-09-23 21:09:35.429377,-67
2021-09-23 21:09:35.429383,-67
2021-09-23 21:09:35.429388,-67
2021-09-23 21:09:35.429394,-72
2021-09-23 21:09:35.429400,-72
2021-09-23 21:09:35.429406,-67
2021-09-23 21:09:35.429411,-64
2021-09-23 21:09:35.429417,-64
2021-09-23 21:09:35.429423,-67
2021-09-23 21:09:35.429429,-72
2021-09-23 21:09:35.429435,-64
2021-09-23 21:09:35.429441,-57
2021-09-23 21:09:35.429446,-50
2021-09-23 21:09:35.429452,-48
2021-09-23 21:09:35.429458,-40
2021-09-23 21:09:35.429464,-36
2021-09-23 21:09:35.429469,-28
2021-09-23 21:09:35.429475,-19
2021-09-23 21:09:35.429481,-12
2021-09-23 21:09:35.429486,-12
2021-09-23 21:09:35.429492,-14
2021-09-23 21:09:35.429498,-16
2021-09-23 21:09:35.429504,-14
2021-09-23 21:09:35.429509,-9
2021-09-23 21:09:35.654418,2
2021-09-23 21:09:35.654440,9
2021-09-23 21:09:35.654447,9
2021-09-23 21:09:35.654454,12
2021-09-23 21:09:35.654459,9
2021-09-23 21:09:35.654465,-12
2021-09-23 21:09:35.654471,-21
2021-09-23 21:09:35.654477,-19
2021-09-23 21:09:35.654483,-21
2021-09-23 21:09:35.654489,-21
2021-09-23 21:09:35.654495,-7
2021-09-23 21:09:35.654500,26
2021-09-23 21:09:35.654506,158
2021-09-23 21:09:35.654512,490
2021-09-23 21:09:35.654518,971
2021-09-23 21:09:35.654524,1012
2021-09-23 21:09:35.654529,125
2021-09-23 21:09:35.654535,-632
2021-09-23 21:09:35.654541,-329
2021-09-23 21:09:35.654547,-2
2021-09-23 21:09:35.654553,-182
2021-09-23 21:09:35.654558,-187
2021-09-23 21:09:35.654564,-57
2021-09-23 21:09:35.654570,-86
2021-09-23 21:09:35.654576,-103
2021-09-23 21:09:35.654582,-52
2021-09-23 21:09:35.654587,-48
2021-09-23 21:09:35.654593,-55
2021-09-23 21:09:35.654599,-33
2021-09-23 21:09:35.654604,-16
2021-09-23 21:09:35.834396,-14
2021-09-23 21:09:35.834416,-4
2021-09-23 21:09:35.834424,7
2021-09-23 21:09:35.834430,12
2021-09-23 21:09:35.834436,24
2021-09-23 21:09:35.834442,45
2021-09-23 21:09:35.834448,52
2021-09-23 21:09:35.834453,60
2021-09-23 21:09:35.834459,69
2021-09-23 21:09:35.834465,79
2021-09-23 21:09:35.834471,84
2021-09-23 21:09:35.834477,84
2021-09-23 21:09:35.834483,79
2021-09-23 21:09:35.834489,64
2021-09-23 21:09:35.834495,43
2021-09-23 21:09:35.834501,21
2021-09-23 21:09:35.834506,-2
2021-09-23 21:09:35.834512,-28
2021-09-23 21:09:35.834518,-52
2021-09-23 21:09:35.834524,-69
2021-09-23 21:09:35.834530,-81
2021-09-23 21:09:35.834536,-86
2021-09-23 21:09:35.834541,-84
2021-09-23 21:09:35.834547,-76
2021-09-23 21:09:35.834553,-74
2021-09-23 21:09:35.834559,-74
2021-09-23 21:09:35.834565,-74
2021-09-23 21:09:35.834571,-74
2021-09-23 21:09:35.834576,-62
2021-09-23 21:09:35.834582,-55
2021-09-23 21:09:36.149414,-60
2021-09-23 21:09:36.149435,-55
2021-09-23 21:09:36.149442,-45
2021-09-23 21:09:36.149449,-43
2021-09-23 21:09:36.149455,-38
2021-09-23 21:09:36.149461,-31
2021-09-23 21:09:36.149467,-31
2021-09-23 21:09:36.149473,-36
2021-09-23 21:09:36.149479,-28
2021-09-23 21:09:36.149485,-21
2021-09-23 21:09:36.149491,-16
2021-09-23 21:09:36.149497,-16
2021-09-23 21:09:36.149503,-24
2021-09-23 21:09:36.149509,-21
2021-09-23 21:09:36.149515,-12
2021-09-23 21:09:36.149521,-19
2021-09-23 21:09:36.149527,-26
2021-09-23 21:09:36.149533,-24
2021-09-23 21:09:36.149539,-21
2021-09-23 21:09:36.149545,-21
2021-09-23 21:09:36.149551,-14
2021-09-23 21:09:36.149557,-2
2021-09-23 21:09:36.149562,12
2021-09-23 21:09:36.149568,12
2021-09-23 21:09:36.149574,-7
2021-09-23 21:09:36.149580,-28
2021-09-23 21:09:36.149586,-31
2021-09-23 21:09:36.149592,-21
2021-09-23 21:09:36.149598,-14
2021-09-23 21:09:36.149604,-9
2021-09-23 21:09:36.284416,9
2021-09-23 21:09:36.284436,110
2021-09-23 21:09:36.284444,401
2021-09-23 21:09:36.284450,889
2021-09-23 21:09:36.284457,1216
2021-09-23 21:09:36.284463,584
2021-09-23 21:09:36.284469,-557
2021-09-23 21:09:36.284475,-610
2021-09-23 21:09:36.284481,-40
2021-09-23 21:09:36.284487,-74
2021-09-23 21:09:36.284492,-206
2021-09-23 21:09:36.284498,-67
2021-09-23 21:09:36.284504,-48
2021-09-23 21:09:36.284510,-108
2021-09-23 21:09:36.284516,-67
2021-09-23 21:09:36.284522,-33
2021-09-23 21:09:36.284528,-40
2021-09-23 21:09:36.284533,-24
2021-09-23 21:09:36.284539,-12
2021-09-23 21:09:36.284545,-9
2021-09-23 21:09:36.284551,4
2021-09-23 21:09:36.284557,19
2021-09-23 21:09:36.284563,24
2021-09-23 21:09:36.284569,26
2021-09-23 21:09:36.284575,31
2021-09-23 21:09:36.284581,45
2021-09-23 21:09:36.284586,62
2021-09-23 21:09:36.284592,79
2021-09-23 21:09:36.284598,88
2021-09-23 21:09:36.284604,88
2021-09-23 21:09:36.509368,84
2021-09-23 21:09:36.509388,72
2021-09-23 21:09:36.509395,57
2021-09-23 21:09:36.509401,43
2021-09-23 21:09:36.509407,21
2021-09-23 21:09:36.509413,4
2021-09-23 21:09:36.509419,-7
2021-09-23 21:09:36.509425,-24
2021-09-23 21:09:36.509431,-43
2021-09-23 21:09:36.509437,-67
2021-09-23 21:09:36.509441,-81
2021-09-23 21:09:36.509446,-86
2021-09-23 21:09:36.509451,-81
2021-09-23 21:09:36.509456,-72
2021-09-23 21:09:36.509462,-62
2021-09-23 21:09:36.509467,-57
2021-09-23 21:09:36.509472,-64
2021-09-23 21:09:36.509477,-64
2021-09-23 21:09:36.509482,-50
2021-09-23 21:09:36.509487,-43
2021-09-23 21:09:36.509492,-50
2021-09-23 21:09:36.509497,-48
2021-09-23 21:09:36.509503,-40
2021-09-23 21:09:36.509508,-50
2021-09-23 21:09:36.509513,-52
2021-09-23 21:09:36.509518,-38
2021-09-23 21:09:36.509524,-31
2021-09-23 21:09:36.509529,-38
2021-09-23 21:09:36.509535,-40
2021-09-23 21:09:36.509541,-31
2021-09-23 21:09:36.734456,-24
2021-09-23 21:09:36.734477,-26
2021-09-23 21:09:36.734485,-24
2021-09-23 21:09:36.734491,-19
2021-09-23 21:09:36.734497,-26
2021-09-23 21:09:36.734503,-36
2021-09-23 21:09:36.734509,-26
2021-09-23 21:09:36.734514,-4
2021-09-23 21:09:36.734520,2
2021-09-23 21:09:36.734526,0
2021-09-23 21:09:36.734532,0
2021-09-23 21:09:36.734538,-7
2021-09-23 21:09:36.734544,-19
2021-09-23 21:09:36.734550,-28
2021-09-23 21:09:36.734556,-28
2021-09-23 21:09:36.734562,-24
2021-09-23 21:09:36.734568,-19
2021-09-23 21:09:36.734574,0
2021-09-23 21:09:36.734579,31
2021-09-23 21:09:36.734585,146
2021-09-23 21:09:36.734591,459
2021-09-23 21:09:36.734597,882
2021-09-23 21:09:36.734603,911
2021-09-23 21:09:36.734609,36
2021-09-23 21:09:36.734615,-820
2021-09-23 21:09:36.734621,-483
2021-09-23 21:09:36.734627,16
2021-09-23 21:09:36.734633,-110
2021-09-23 21:09:36.734639,-132
2021-09-23 21:09:36.734644,16
2021-09-23 21:09:37.048066,-14
2021-09-23 21:09:37.048088,-45
2021-09-23 21:09:37.048096,7
2021-09-23 21:09:37.048102,7
2021-09-23 21:09:37.048108,-7
2021-09-23 21:09:37.048114,21
2021-09-23 21:09:37.048120,40
2021-09-23 21:09:37.048126,43
2021-09-23 21:09:37.048132,45
2021-09-23 21:09:37.048137,40
2021-09-23 21:09:37.048143,48
2021-09-23 21:09:37.048149,69
2021-09-23 21:09:37.048155,79
2021-09-23 21:09:37.048161,88
2021-09-23 21:09:37.048167,103
2021-09-23 21:09:37.048172,110
2021-09-23 21:09:37.048178,110
2021-09-23 21:09:37.048184,113
2021-09-23 21:09:37.048190,110
2021-09-23 21:09:37.048196,93
2021-09-23 21:09:37.048202,64
2021-09-23 21:09:37.048208,43
2021-09-23 21:09:37.048214,24
2021-09-23 21:09:37.048220,0
2021-09-23 21:09:37.048225,-26
2021-09-23 21:09:37.048231,-50
2021-09-23 21:09:37.048237,-72
2021-09-23 21:09:37.048243,-93
2021-09-23 21:09:37.048249,-98
2021-09-23 21:09:37.048255,-96
2021-09-23 21:09:37.274458,-103
2021-09-23 21:09:37.274478,-115
2021-09-23 21:09:37.274485,-105
2021-09-23 21:09:37.274491,-96
2021-09-23 21:09:37.274497,-91
2021-09-23 21:09:37.274503,-79
2021-09-23 21:09:37.274509,-57
2021-09-23 21:09:37.274515,-45
2021-09-23 21:09:37.274521,-43
2021-09-23 21:09:37.274527,-36
2021-09-23 21:09:37.274533,-24
2021-09-23 21:09:37.274539,-28
2021-09-23 21:09:37.274545,-28
2021-09-23 21:09:37.274551,-24
2021-09-23 21:09:37.274562,-28
2021-09-23 21:09:37.274568,-36
2021-09-23 21:09:37.274574,-28
2021-09-23 21:09:37.274580,-19
2021-09-23 21:09:37.274586,-21
2021-09-23 21:09:37.274592,-28
2021-09-23 21:09:37.274598,-36
2021-09-23 21:09:37.274604,-31
2021-09-23 21:09:37.274609,-7
2021-09-23 21:09:37.274615,4
2021-09-23 21:09:37.274621,0
2021-09-23 21:09:37.274627,-2
2021-09-23 21:09:37.274633,-14
2021-09-23 21:09:37.274639,-33
2021-09-23 21:09:37.274644,-38
2021-09-23 21:09:37.274650,-28
2021-09-23 21:09:37.454423,-19
2021-09-23 21:09:37.454443,-16
2021-09-23 21:09:37.454450,-9
2021-09-23 21:09:37.454456,28
2021-09-23 21:09:37.454463,180
2021-09-23 21:09:37.454469,521
2021-09-23 21:09:37.454475,921
2021-09-23 21:09:37.454481,803
2021-09-23 21:09:37.454486,-170
2021-09-23 21:09:37.454492,-812
2021-09-23 21:09:37.454498,-346
2021-09-23 21:09:37.454504,16
2021-09-23 21:09:37.454510,-139
2021-09-23 21:09:37.454516,-96
2021-09-23 21:09:37.454522,21
2021-09-23 21:09:37.454527,-31
2021-09-23 21:09:37.454533,-38
2021-09-23 21:09:37.454539,14
2021-09-23 21:09:37.454545,16
2021-09-23 21:09:37.454551,7
2021-09-23 21:09:37.454556,21
2021-09-23 21:09:37.454562,31
2021-09-23 21:09:37.454568,38
2021-09-23 21:09:37.454574,52
2021-09-23 21:09:37.454580,64
2021-09-23 21:09:37.454585,64
2021-09-23 21:09:37.454591,72
2021-09-23 21:09:37.454597,76
2021-09-23 21:09:37.454603,69
2021-09-23 21:09:37.454609,79
2021-09-23 21:09:37.679446,93
2021-09-23 21:09:37.679465,93
2021-09-23 21:09:37.679472,84
2021-09-23 21:09:37.679479,79
2021-09-23 21:09:37.679485,72
2021-09-23 21:09:37.679490,50
2021-09-23 21:09:37.679496,19
2021-09-23 21:09:37.679502,-12
2021-09-23 21:09:37.679508,-40
2021-09-23 21:09:37.679514,-60
2021-09-23 21:09:37.679520,-76
2021-09-23 21:09:37.679526,-86
2021-09-23 21:09:37.679532,-96
2021-09-23 21:09:37.679538,-110
2021-09-23 21:09:37.679543,-122
2021-09-23 21:09:37.679549,-122
2021-09-23 21:09:37.679555,-117
2021-09-23 21:09:37.679561,-113
2021-09-23 21:09:37.679566,-103
2021-09-23 21:09:37.679572,-91
2021-09-23 21:09:37.679578,-79
2021-09-23 21:09:37.679584,-64
2021-09-23 21:09:37.679589,-48
2021-09-23 21:09:37.679595,-36
2021-09-23 21:09:37.679601,-26
2021-09-23 21:09:37.679607,-12
2021-09-23 21:09:37.679612,-7
2021-09-23 21:09:37.679618,-9
2021-09-23 21:09:37.679624,-9
2021-09-23 21:09:37.679630,-7
2021-09-23 21:09:37.949563,-16
2021-09-23 21:09:37.949582,-26
2021-09-23 21:09:37.949590,-19
2021-09-23 21:09:37.949596,-14
2021-09-23 21:09:37.949601,-19
2021-09-23 21:09:37.949607,-19
2021-09-23 21:09:37.949613,-21
2021-09-23 21:09:37.949618,-21
2021-09-23 21:09:37.949624,-12
2021-09-23 21:09:37.949630,-7
2021-09-23 21:09:37.949636,0
2021-09-23 21:09:37.949642,12
2021-09-23 21:09:37.949647,-2
2021-09-23 21:09:37.949653,-28
2021-09-23 21:09:37.949659,-33
2021-09-23 21:09:37.949664,-24
2021-09-23 21:09:37.949670,-19
2021-09-23 21:09:37.949676,-16
2021-09-23 21:09:37.949682,-4
2021-09-23 21:09:37.949688,33
2021-09-23 21:09:37.949694,170
2021-09-23 21:09:37.949699,497
2021-09-23 21:09:37.949705,961
2021-09-23 21:09:37.949711,940
2021-09-23 21:09:37.949717,31
2021-09-23 21:09:37.949723,-613
2021-09-23 21:09:37.949729,-245
2021-09-23 21:09:37.949734,31
2021-09-23 21:09:37.949740,-146
2021-09-23 21:09:37.949746,-132
2021-09-23 21:09:38.129466,-24
2021-09-23 21:09:38.129487,-64
2021-09-23 21:09:38.129494,-74
2021-09-23 21:09:38.129500,-24
2021-09-23 21:09:38.129506,-21
2021-09-23 21:09:38.129512,-31
2021-09-23 21:09:38.129518,-21
2021-09-23 21:09:38.129524,-16
2021-09-23 21:09:38.129530,-12
2021-09-23 21:09:38.129536,-4
2021-09-23 21:09:38.129541,2
2021-09-23 21:09:38.129547,4
2021-09-23 21:09:38.129553,2
2021-09-23 21:09:38.129558,7
2021-09-23 21:09:38.129564,24
2021-09-23 21:09:38.129570,33
2021-09-23 21:09:38.129576,38
2021-09-23 21:09:38.129581,45
2021-09-23 21:09:38.129587,43
2021-09-23 21:09:38.129593,40
2021-09-23 21:09:38.129598,36
2021-09-23 21:09:38.129604,24
2021-09-23 21:09:38.129609,9
2021-09-23 21:09:38.129615,-7
2021-09-23 21:09:38.129621,-24
2021-09-23 21:09:38.129626,-43
2021-09-23 21:09:38.129632,-57
2021-09-23 21:09:38.129637,-67
2021-09-23 21:09:38.129643,-72
2021-09-23 21:09:38.129649,-76
2021-09-23 21:09:38.354443,-79
2021-09-23 21:09:38.354466,-74
2021-09-23 21:09:38.354473,-72
2021-09-23 21:09:38.354480,-76
2021-09-23 21:09:38.354486,-84
2021-09-23 21:09:38.354492,-88
2021-09-23 21:09:38.354498,-84
2021-09-23 21:09:38.354504,-72
2021-09-23 21:09:38.354510,-64
2021-09-23 21:09:38.354516,-62
2021-09-23 21:09:38.354522,-57
2021-09-23 21:09:38.354528,-57
2021-09-23 21:09:38.354534,-52
2021-09-23 21:09:38.354540,-38
2021-09-23 21:09:38.354545,-31
2021-09-23 21:09:38.354551,-28
2021-09-23 21:09:38.354557,-26
2021-09-23 21:09:38.354563,-21
2021-09-23 21:09:38.354569,-16
2021-09-23 21:09:38.354575,-12
2021-09-23 21:09:38.354581,-9
2021-09-23 21:09:38.354587,-12
2021-09-23 21:09:38.354592,-12
2021-09-23 21:09:38.354598,-9
2021-09-23 21:09:38.354604,-12
2021-09-23 21:09:38.354610,-9
2021-09-23 21:09:38.354616,0
2021-09-23 21:09:38.354622,9
2021-09-23 21:09:38.354628,14
2021-09-23 21:09:38.354633,21
2021-09-23 21:09:38.579464,26
2021-09-23 21:09:38.579485,16
2021-09-23 21:09:38.579492,0
2021-09-23 21:09:38.579498,-2
2021-09-23 21:09:38.579504,0
2021-09-23 21:09:38.579510,-2
2021-09-23 21:09:38.579516,4
2021-09-23 21:09:38.579522,21
2021-09-23 21:09:38.579528,91
2021-09-23 21:09:38.579534,327
2021-09-23 21:09:38.579540,759
2021-09-23 21:09:38.579546,1034
2021-09-23 21:09:38.579552,444
2021-09-23 21:09:38.579558,-507
2021-09-23 21:09:38.579564,-490
2021-09-23 21:09:38.579570,-31
2021-09-23 21:09:38.579576,-96
2021-09-23 21:09:38.579582,-197
2021-09-23 21:09:38.579588,-76
2021-09-23 21:09:38.579594,-60
2021-09-23 21:09:38.579600,-101
2021-09-23 21:09:38.579605,-64
2021-09-23 21:09:38.579611,-45
2021-09-23 21:09:38.579617,-57
2021-09-23 21:09:38.579623,-43
2021-09-23 21:09:38.579629,-28
2021-09-23 21:09:38.579635,-26
2021-09-23 21:09:38.579640,-19
2021-09-23 21:09:38.579646,-12
2021-09-23 21:09:38.579652,-4
2021-09-23 21:09:38.849373,12
2021-09-23 21:09:38.849392,26
2021-09-23 21:09:38.849400,33
2021-09-23 21:09:38.849406,33
2021-09-23 21:09:38.849412,33
2021-09-23 21:09:38.849418,43
2021-09-23 21:09:38.849424,48
2021-09-23 21:09:38.849430,43
2021-09-23 21:09:38.849436,26
2021-09-23 21:09:38.849442,4
2021-09-23 21:09:38.849447,-9
2021-09-23 21:09:38.849453,-24
2021-09-23 21:09:38.849459,-36
2021-09-23 21:09:38.849465,-50
2021-09-23 21:09:38.849470,-67
2021-09-23 21:09:38.849476,-79
2021-09-23 21:09:38.849482,-86
2021-09-23 21:09:38.849488,-86
2021-09-23 21:09:38.849494,-84
2021-09-23 21:09:38.849499,-84
2021-09-23 21:09:38.849505,-88
2021-09-23 21:09:38.849511,-91
2021-09-23 21:09:38.849517,-86
2021-09-23 21:09:38.849523,-76
2021-09-23 21:09:38.849529,-72
2021-09-23 21:09:38.849535,-62
2021-09-23 21:09:38.849540,-55
2021-09-23 21:09:38.849546,-55
2021-09-23 21:09:38.849552,-45
2021-09-23 21:09:38.849558,-36
2021-09-23 21:09:39.118106,-33
2021-09-23 21:09:39.118128,-28
2021-09-23 21:09:39.118135,-21
2021-09-23 21:09:39.118142,-19
2021-09-23 21:09:39.118148,-21
2021-09-23 21:09:39.118154,-19
2021-09-23 21:09:39.118159,-12
2021-09-23 21:09:39.118165,-12
2021-09-23 21:09:39.118171,-19
2021-09-23 21:09:39.118177,-28
2021-09-23 21:09:39.118183,-31
2021-09-23 21:09:39.118188,-24
2021-09-23 21:09:39.118194,-19
2021-09-23 21:09:39.118200,-19
2021-09-23 21:09:39.118206,-21
2021-09-23 21:09:39.118212,-24
2021-09-23 21:09:39.118218,-19
2021-09-23 21:09:39.118223,-4
2021-09-23 21:09:39.118229,2
2021-09-23 21:09:39.118235,9
2021-09-23 21:09:39.118241,14
2021-09-23 21:09:39.118247,-2
2021-09-23 21:09:39.118253,-31
2021-09-23 21:09:39.118259,-43
2021-09-23 21:09:39.118264,-28
2021-09-23 21:09:39.118270,-19
2021-09-23 21:09:39.118276,-24
2021-09-23 21:09:39.118281,-12
2021-09-23 21:09:39.118287,62
2021-09-23 21:09:39.118293,276
2021-09-23 21:09:39.299463,675
2021-09-23 21:09:39.299483,1053
2021-09-23 21:09:39.299490,680
2021-09-23 21:09:39.299497,-464
2021-09-23 21:09:39.299503,-810
2021-09-23 21:09:39.299509,-175
2021-09-23 21:09:39.299515,4
2021-09-23 21:09:39.299521,-180
2021-09-23 21:09:39.299527,-81
2021-09-23 21:09:39.299532,2
2021-09-23 21:09:39.299538,-67
2021-09-23 21:09:39.299544,-55
2021-09-23 21:09:39.299550,-7
2021-09-23 21:09:39.299556,-28
2021-09-23 21:09:39.299562,-38
2021-09-23 21:09:39.299568,-12
2021-09-23 21:09:39.299574,2
2021-09-23 21:09:39.299580,14
2021-09-23 21:09:39.299586,31
2021-09-23 21:09:39.299592,40
2021-09-23 21:09:39.299598,52
2021-09-23 21:09:39.299604,67
2021-09-23 21:09:39.299609,67
2021-09-23 21:09:39.299615,64
2021-09-23 21:09:39.299621,81
2021-09-23 21:09:39.299627,98
2021-09-23 21:09:39.299633,86
2021-09-23 21:09:39.299639,69
2021-09-23 21:09:39.299645,67
2021-09-23 21:09:39.299651,60
2021-09-23 21:09:39.524470,36
2021-09-23 21:09:39.524492,9
2021-09-23 21:09:39.524499,-4
2021-09-23 21:09:39.524505,-14
2021-09-23 21:09:39.524511,-24
2021-09-23 21:09:39.524517,-33
2021-09-23 21:09:39.524523,-48
2021-09-23 21:09:39.524529,-67
2021-09-23 21:09:39.524535,-76
2021-09-23 21:09:39.524541,-74
2021-09-23 21:09:39.524547,-67
2021-09-23 21:09:39.524552,-62
2021-09-23 21:09:39.524558,-57
2021-09-23 21:09:39.524564,-57
2021-09-23 21:09:39.524570,-60
2021-09-23 21:09:39.524576,-50
2021-09-23 21:09:39.524582,-36
2021-09-23 21:09:39.524588,-28
2021-09-23 21:09:39.524593,-26
2021-09-23 21:09:39.524599,-21
2021-09-23 21:09:39.524605,-19
2021-09-23 21:09:39.524611,-12
2021-09-23 21:09:39.524617,-12
2021-09-23 21:09:39.524622,-16
2021-09-23 21:09:39.524628,-19
2021-09-23 21:09:39.524634,-21
2021-09-23 21:09:39.524640,-19
2021-09-23 21:09:39.524646,-16
2021-09-23 21:09:39.524652,-26
2021-09-23 21:09:39.524658,-33
2021-09-23 21:09:39.749479,-24
2021-09-23 21:09:39.749500,-21
2021-09-23 21:09:39.749508,-21
2021-09-23 21:09:39.749514,-9
2021-09-23 21:09:39.749520,7
2021-09-23 21:09:39.749526,12
2021-09-23 21:09:39.749532,-2
2021-09-23 21:09:39.749538,-21
2021-09-23 21:09:39.749543,-28
2021-09-23 21:09:39.749549,-31
2021-09-23 21:09:39.749555,-31
2021-09-23 21:09:39.749561,-24
2021-09-23 21:09:39.749567,-24
2021-09-23 21:09:39.749573,-16
2021-09-23 21:09:39.749578,62
2021-09-23 21:09:39.749584,305
2021-09-23 21:09:39.749590,694
2021-09-23 21:09:39.749596,930
2021-09-23 21:09:39.749602,382
2021-09-23 21:09:39.749611,-666
2021-09-23 21:09:39.749617,-759
2021-09-23 21:09:39.749623,-120
2021-09-23 21:09:39.749629,-31
2021-09-23 21:09:39.749634,-161
2021-09-23 21:09:39.749640,-28
2021-09-23 21:09:39.749646,16
2021-09-23 21:09:39.749652,-48
2021-09-23 21:09:39.749657,-19
2021-09-23 21:09:39.749663,14
2021-09-23 21:09:39.749669,-2
2021-09-23 21:09:39.974380,0
2021-09-23 21:09:39.974398,21
2021-09-23 21:09:39.974406,31
2021-09-23 21:09:39.974412,36
2021-09-23 21:09:39.974418,55
2021-09-23 21:09:39.974424,72
2021-09-23 21:09:39.974430,67
2021-09-23 21:09:39.974436,64
2021-09-23 21:09:39.974442,84
2021-09-23 21:09:39.974447,101
2021-09-23 21:09:39.974453,108
2021-09-23 21:09:39.974459,110
2021-09-23 21:09:39.974465,98
2021-09-23 21:09:39.974471,91
2021-09-23 21:09:39.974476,81
2021-09-23 21:09:39.974482,52
2021-09-23 21:09:39.974488,36
2021-09-23 21:09:39.974493,24
2021-09-23 21:09:39.974499,-7
2021-09-23 21:09:39.974505,-40
2021-09-23 21:09:39.974511,-52
2021-09-23 21:09:39.974516,-55
2021-09-23 21:09:39.974522,-72
2021-09-23 21:09:39.974528,-93
2021-09-23 21:09:39.974534,-96
2021-09-23 21:09:39.974539,-91
2021-09-23 21:09:39.974545,-84
2021-09-23 21:09:39.974551,-79
2021-09-23 21:09:39.974556,-72
2021-09-23 21:09:39.974562,-62
2021-09-23 21:09:40.244429,-55
2021-09-23 21:09:40.244452,-40
2021-09-23 21:09:40.244459,-28
2021-09-23 21:09:40.244465,-28
2021-09-23 21:09:40.244472,-28
2021-09-23 21:09:40.244478,-31
2021-09-23 21:09:40.244484,-31
2021-09-23 21:09:40.244490,-26
2021-09-23 21:09:40.244497,-24
2021-09-23 21:09:40.244502,-19
2021-09-23 21:09:40.244508,-26
2021-09-23 21:09:40.244515,-40
2021-09-23 21:09:40.244521,-43
2021-09-23 21:09:40.244527,-31
2021-09-23 21:09:40.244533,-24
2021-09-23 21:09:40.244539,-26
2021-09-23 21:09:40.244545,-36
2021-09-23 21:09:40.244551,-31
2021-09-23 21:09:40.244556,-4
2021-09-23 21:09:40.244562,12
2021-09-23 21:09:40.244568,0
2021-09-23 21:09:40.244574,-16
2021-09-23 21:09:40.244580,-21
2021-09-23 21:09:40.244586,-33
2021-09-23 21:09:40.244592,-40
2021-09-23 21:09:40.244598,-33
2021-09-23 21:09:40.244605,-21
2021-09-23 21:09:40.244611,-12
2021-09-23 21:09:40.244616,-4
2021-09-23 21:09:40.244622,38
2021-09-23 21:09:40.424468,226
2021-09-23 21:09:40.424489,613
2021-09-23 21:09:40.424496,964
2021-09-23 21:09:40.424502,620
2021-09-23 21:09:40.424509,-435
2021-09-23 21:09:40.424515,-791
2021-09-23 21:09:40.424521,-209
2021-09-23 21:09:40.424526,0
2021-09-23 21:09:40.424532,-153
2021-09-23 21:09:40.424538,-62
2021-09-23 21:09:40.424544,12
2021-09-23 21:09:40.424550,-45
2021-09-23 21:09:40.424556,-26
2021-09-23 21:09:40.424561,19
2021-09-23 21:09:40.424567,4
2021-09-23 21:09:40.424573,0
2021-09-23 21:09:40.424579,14
2021-09-23 21:09:40.424584,16
2021-09-23 21:09:40.424590,24
2021-09-23 21:09:40.424596,40
2021-09-23 21:09:40.424602,48
2021-09-23 21:09:40.424608,55
2021-09-23 21:09:40.424613,64
2021-09-23 21:09:40.424619,74
2021-09-23 21:09:40.424625,86
2021-09-23 21:09:40.424631,96
2021-09-23 21:09:40.424637,105
2021-09-23 21:09:40.424643,108
2021-09-23 21:09:40.424648,96
2021-09-23 21:09:40.424654,84
2021-09-23 21:09:40.649489,72
2021-09-23 21:09:40.649510,55
2021-09-23 21:09:40.649518,28
2021-09-23 21:09:40.649524,0
2021-09-23 21:09:40.649530,-28
2021-09-23 21:09:40.649536,-48
2021-09-23 21:09:40.649541,-55
2021-09-23 21:09:40.649547,-64
2021-09-23 21:09:40.649553,-91
2021-09-23 21:09:40.649559,-115
2021-09-23 21:09:40.649565,-127
2021-09-23 21:09:40.649570,-125
2021-09-23 21:09:40.649576,-113
2021-09-23 21:09:40.649582,-101
2021-09-23 21:09:40.649588,-88
2021-09-23 21:09:40.649594,-81
2021-09-23 21:09:40.649599,-72
2021-09-23 21:09:40.649605,-50
2021-09-23 21:09:40.649611,-33
2021-09-23 21:09:40.649617,-28
2021-09-23 21:09:40.649622,-28
2021-09-23 21:09:40.649628,-26
2021-09-23 21:09:40.649634,-16
2021-09-23 21:09:40.649640,-12
2021-09-23 21:09:40.649646,-21
2021-09-23 21:09:40.649651,-28
2021-09-23 21:09:40.649657,-24
2021-09-23 21:09:40.649663,-26
2021-09-23 21:09:40.649668,-31
2021-09-23 21:09:40.649674,-28
2021-09-23 21:09:40.964758,-24
2021-09-23 21:09:40.964778,-26
2021-09-23 21:09:40.964785,-26
2021-09-23 21:09:40.964792,-21
2021-09-23 21:09:40.964798,-9
2021-09-23 21:09:40.964804,2
2021-09-23 21:09:40.964810,2
2021-09-23 21:09:40.964819,-4
2021-09-23 21:09:40.964825,-24
2021-09-23 21:09:40.964831,-48
2021-09-23 21:09:40.964836,-43
2021-09-23 21:09:40.964842,-24
2021-09-23 21:09:40.964848,-24
2021-09-23 21:09:40.964854,-24
2021-09-23 21:09:40.964860,-9
2021-09-23 21:09:40.964866,60
2021-09-23 21:09:40.964872,293
2021-09-23 21:09:40.964878,723
2021-09-23 21:09:40.964884,1058
2021-09-23 21:09:40.964889,565
2021-09-23 21:09:40.964895,-536
2021-09-23 21:09:40.964901,-702
2021-09-23 21:09:40.964907,-103
2021-09-23 21:09:40.964913,-36
2021-09-23 21:09:40.964919,-175
2021-09-23 21:09:40.964925,-45
2021-09-23 21:09:40.964931,-2
2021-09-23 21:09:40.964937,-67
2021-09-23 21:09:40.964942,-31
2021-09-23 21:09:40.964948,4
2021-09-23 21:09:41.188133,-12
2021-09-23 21:09:41.188153,-2
2021-09-23 21:09:41.188160,9
2021-09-23 21:09:41.188166,4
2021-09-23 21:09:41.188172,16
2021-09-23 21:09:41.188178,36
2021-09-23 21:09:41.188184,48
2021-09-23 21:09:41.188190,57
2021-09-23 21:09:41.188196,62
2021-09-23 21:09:41.188202,67
2021-09-23 21:09:41.188207,86
2021-09-23 21:09:41.188213,103
2021-09-23 21:09:41.188219,105
2021-09-23 21:09:41.188225,103
2021-09-23 21:09:41.188231,88
2021-09-23 21:09:41.188237,67
2021-09-23 21:09:41.188242,48
2021-09-23 21:09:41.188248,38
2021-09-23 21:09:41.188254,24
2021-09-23 21:09:41.188259,-2
2021-09-23 21:09:41.188265,-33
2021-09-23 21:09:41.188271,-57
2021-09-23 21:09:41.188277,-72
2021-09-23 21:09:41.188283,-84
2021-09-23 21:09:41.188289,-88
2021-09-23 21:09:41.188294,-93
2021-09-23 21:09:41.188300,-105
2021-09-23 21:09:41.188306,-105
2021-09-23 21:09:41.188312,-96
2021-09-23 21:09:41.188317,-96
2021-09-23 21:09:41.369474,-91
2021-09-23 21:09:41.369494,-79
2021-09-23 21:09:41.369502,-72
2021-09-23 21:09:41.369508,-69
2021-09-23 21:09:41.369514,-52
2021-09-23 21:09:41.369520,-36
2021-09-23 21:09:41.369526,-33
2021-09-23 21:09:41.369532,-38
2021-09-23 21:09:41.369538,-36
2021-09-23 21:09:41.369544,-28
2021-09-23 21:09:41.369550,-24
2021-09-23 21:09:41.369556,-24
2021-09-23 21:09:41.369562,-24
2021-09-23 21:09:41.369568,-28
2021-09-23 21:09:41.369573,-33
2021-09-23 21:09:41.369579,-28
2021-09-23 21:09:41.369585,-26
2021-09-23 21:09:41.369591,-26
2021-09-23 21:09:41.369596,-24
2021-09-23 21:09:41.369602,-16
2021-09-23 21:09:41.369608,-2
2021-09-23 21:09:41.369614,4
2021-09-23 21:09:41.369620,7
2021-09-23 21:09:41.369626,2
2021-09-23 21:09:41.369632,-12
2021-09-23 21:09:41.369637,-26
2021-09-23 21:09:41.369643,-28
2021-09-23 21:09:41.369649,-21
2021-09-23 21:09:41.369655,-12
2021-09-23 21:09:41.369661,-2
2021-09-23 21:09:41.594509,12
2021-09-23 21:09:41.594531,96
2021-09-23 21:09:41.594538,370
2021-09-23 21:09:41.594544,829
2021-09-23 21:09:41.594550,1091
2021-09-23 21:09:41.594556,437
2021-09-23 21:09:41.594562,-620
2021-09-23 21:09:41.594568,-598
2021-09-23 21:09:41.594574,-43
2021-09-23 21:09:41.594580,-84
2021-09-23 21:09:41.594586,-187
2021-09-23 21:09:41.594592,-40
2021-09-23 21:09:41.594598,-26
2021-09-23 21:09:41.594604,-86
2021-09-23 21:09:41.594609,-40
2021-09-23 21:09:41.594615,-12
2021-09-23 21:09:41.594621,-31
2021-09-23 21:09:41.594627,-21
2021-09-23 21:09:41.594633,-2
2021-09-23 21:09:41.594639,2
2021-09-23 21:09:41.594645,9
2021-09-23 21:09:41.594651,4
2021-09-23 21:09:41.594656,7
2021-09-23 21:09:41.594662,28
2021-09-23 21:09:41.594668,43
2021-09-23 21:09:41.594674,50
2021-09-23 21:09:41.594680,67
2021-09-23 21:09:41.594686,84
2021-09-23 21:09:41.594691,91
2021-09-23 21:09:41.594697,93
2021-09-23 21:09:41.864401,88
2021-09-23 21:09:41.864419,79
2021-09-23 21:09:41.864426,67
2021-09-23 21:09:41.864432,38
2021-09-23 21:09:41.864438,12
2021-09-23 21:09:41.864444,-7
2021-09-23 21:09:41.864450,-38
2021-09-23 21:09:41.864455,-69
2021-09-23 21:09:41.864461,-84
2021-09-23 21:09:41.864467,-91
2021-09-23 21:09:41.864473,-93
2021-09-23 21:09:41.864479,-101
2021-09-23 21:09:41.864485,-108
2021-09-23 21:09:41.864491,-105
2021-09-23 21:09:41.864497,-101
2021-09-23 21:09:41.864502,-93
2021-09-23 21:09:41.864508,-84
2021-09-23 21:09:41.864514,-76
2021-09-23 21:09:41.864520,-76
2021-09-23 21:09:41.864525,-69
2021-09-23 21:09:41.864531,-57
2021-09-23 21:09:41.864537,-50
2021-09-23 21:09:41.864543,-43
2021-09-23 21:09:41.864548,-31
2021-09-23 21:09:41.864554,-28
2021-09-23 21:09:41.864560,-28
2021-09-23 21:09:41.864566,-21
2021-09-23 21:09:41.864571,-21
2021-09-23 21:09:41.864577,-21
2021-09-23 21:09:41.864583,-19
2021-09-23 21:09:42.045109,-12
2021-09-23 21:09:42.045128,-4
2021-09-23 21:09:42.045134,-9
2021-09-23 21:09:42.045139,-19
2021-09-23 21:09:42.045144,-21
2021-09-23 21:09:42.045149,-16
2021-09-23 21:09:42.045154,-9
2021-09-23 21:09:42.045159,2
2021-09-23 21:09:42.045164,12
2021-09-23 21:09:42.045186,19
2021-09-23 21:09:42.045191,7
2021-09-23 21:09:42.045196,-16
2021-09-23 21:09:42.045201,-31
2021-09-23 21:09:42.045206,-21
2021-09-23 21:09:42.045211,-7
2021-09-23 21:09:42.045216,-4
2021-09-23 21:09:42.045224,0
2021-09-23 21:09:42.045229,28
2021-09-23 21:09:42.045234,170
2021-09-23 21:09:42.045238,526
2021-09-23 21:09:42.045243,1022
2021-09-23 21:09:42.045248,1070
2021-09-23 21:09:42.045253,129
2021-09-23 21:09:42.045258,-697
2021-09-23 21:09:42.045262,-367
2021-09-23 21:09:42.045267,16
2021-09-23 21:09:42.045272,-151
2021-09-23 21:09:42.045277,-168
2021-09-23 21:09:42.045282,-38
2021-09-23 21:09:42.045287,-67
2021-09-23 21:09:42.269425,-88
2021-09-23 21:09:42.269443,-31
2021-09-23 21:09:42.269450,-16
2021-09-23 21:09:42.269456,-33
2021-09-23 21:09:42.269462,-28
2021-09-23 21:09:42.269468,-19
2021-09-23 21:09:42.269474,-16
2021-09-23 21:09:42.269480,-12
2021-09-23 21:09:42.269486,-7
2021-09-23 21:09:42.269492,4
2021-09-23 21:09:42.269498,14
2021-09-23 21:09:42.269504,21
2021-09-23 21:09:42.269509,38
2021-09-23 21:09:42.269515,55
2021-09-23 21:09:42.269521,67
2021-09-23 21:09:42.269527,72
2021-09-23 21:09:42.269533,72
2021-09-23 21:09:42.269539,69
2021-09-23 21:09:42.269545,62
2021-09-23 21:09:42.269551,52
2021-09-23 21:09:42.269556,38
2021-09-23 21:09:42.269562,16
2021-09-23 21:09:42.269568,-12
2021-09-23 21:09:42.269574,-38
2021-09-23 21:09:42.269579,-57
2021-09-23 21:09:42.269585,-69
2021-09-23 21:09:42.269591,-76
2021-09-23 21:09:42.269597,-88
2021-09-23 21:09:42.269602,-91
2021-09-23 21:09:42.269608,-84
2021-09-23 21:09:42.539514,-76
2021-09-23 21:09:42.539535,-79
2021-09-23 21:09:42.539543,-76
2021-09-23 21:09:42.539549,-74
2021-09-23 21:09:42.539555,-79
2021-09-23 21:09:42.539561,-72
2021-09-23 21:09:42.539566,-60
2021-09-23 21:09:42.539572,-57
2021-09-23 21:09:42.539578,-57
2021-09-23 21:09:42.539584,-60
2021-09-23 21:09:42.539590,-62
2021-09-23 21:09:42.539595,-48
2021-09-23 21:09:42.539601,-36
2021-09-23 21:09:42.539607,-33
2021-09-23 21:09:42.539613,-28
2021-09-23 21:09:42.539619,-28
2021-09-23 21:09:42.539624,-33
2021-09-23 21:09:42.539630,-28
2021-09-23 21:09:42.539636,-19
2021-09-23 21:09:42.539641,-14
2021-09-23 21:09:42.539647,-9
2021-09-23 21:09:42.539653,-14
2021-09-23 21:09:42.539659,-19
2021-09-23 21:09:42.539665,-12
2021-09-23 21:09:42.539671,2
2021-09-23 21:09:42.539677,12
2021-09-23 21:09:42.539683,16
2021-09-23 21:09:42.539688,24
2021-09-23 21:09:42.539694,16
2021-09-23 21:09:42.539700,2
2021-09-23 21:09:42.764500,-7
2021-09-23 21:09:42.764519,-4
2021-09-23 21:09:42.764527,-2
2021-09-23 21:09:42.764533,-9
2021-09-23 21:09:42.764539,-7
2021-09-23 21:09:42.764548,36
2021-09-23 21:09:42.764554,168
2021-09-23 21:09:42.764560,509
2021-09-23 21:09:42.764566,1031
2021-09-23 21:09:42.764572,1156
2021-09-23 21:09:42.764578,264
2021-09-23 21:09:42.764583,-642
2021-09-23 21:09:42.764589,-394
2021-09-23 21:09:42.764595,14
2021-09-23 21:09:42.764601,-149
2021-09-23 21:09:42.764607,-197
2021-09-23 21:09:42.764612,-50
2021-09-23 21:09:42.764618,-60
2021-09-23 21:09:42.764624,-93
2021-09-23 21:09:42.764630,-40
2021-09-23 21:09:42.764636,-26
2021-09-23 21:09:42.764641,-40
2021-09-23 21:09:42.764647,-19
2021-09-23 21:09:42.764653,-2
2021-09-23 21:09:42.764658,-7
2021-09-23 21:09:42.764664,2
2021-09-23 21:09:42.764670,9
2021-09-23 21:09:42.764676,7
2021-09-23 21:09:42.764682,19
2021-09-23 21:09:42.764687,38
2021-09-23 21:09:42.989519,50
2021-09-23 21:09:42.989541,57
2021-09-23 21:09:42.989548,67
2021-09-23 21:09:42.989554,74
2021-09-23 21:09:42.989560,79
2021-09-23 21:09:42.989566,81
2021-09-23 21:09:42.989572,76
2021-09-23 21:09:42.989578,64
2021-09-23 21:09:42.989584,43
2021-09-23 21:09:42.989589,14
2021-09-23 21:09:42.989595,-9
2021-09-23 21:09:42.989601,-33
2021-09-23 21:09:42.989607,-60
2021-09-23 21:09:42.989613,-84
2021-09-23 21:09:42.989619,-105
2021-09-23 21:09:42.989625,-113
2021-09-23 21:09:42.989631,-108
2021-09-23 21:09:42.989637,-105
2021-09-23 21:09:42.989643,-101
2021-09-23 21:09:42.989648,-96
2021-09-23 21:09:42.989654,-98
2021-09-23 21:09:42.989660,-96
2021-09-23 21:09:42.989666,-86
2021-09-23 21:09:42.989672,-79
2021-09-23 21:09:42.989678,-74
2021-09-23 21:09:42.989683,-69
2021-09-23 21:09:42.989689,-64
2021-09-23 21:09:42.989695,-62
2021-09-23 21:09:42.989701,-52
2021-09-23 21:09:42.989706,-40
2021-09-23 21:09:43.258094,-31
2021-09-23 21:09:43.258117,-26
2021-09-23 21:09:43.258125,-28
2021-09-23 21:09:43.258131,-28
2021-09-23 21:09:43.258137,-21
2021-09-23 21:09:43.258143,-14
2021-09-23 21:09:43.258149,-14
2021-09-23 21:09:43.258155,-24
2021-09-23 21:09:43.258161,-38
2021-09-23 21:09:43.258167,-45
2021-09-23 21:09:43.258173,-40
2021-09-23 21:09:43.258179,-28
2021-09-23 21:09:43.258185,-28
2021-09-23 21:09:43.258191,-36
2021-09-23 21:09:43.258197,-40
2021-09-23 21:09:43.258203,-33
2021-09-23 21:09:43.258209,-24
2021-09-23 21:09:43.258215,-9
2021-09-23 21:09:43.258221,-2
2021-09-23 21:09:43.258227,-7
2021-09-23 21:09:43.258233,-24
2021-09-23 21:09:43.258239,-36
2021-09-23 21:09:43.258245,-33
2021-09-23 21:09:43.258251,-24
2021-09-23 21:09:43.258257,-19
2021-09-23 21:09:43.258263,-14
2021-09-23 21:09:43.258270,12
2021-09-23 21:09:43.258277,137
2021-09-23 21:09:43.258283,466
2021-09-23 21:09:43.258289,983
2021-09-23 21:09:43.439508,1190
2021-09-23 21:09:43.439529,341
2021-09-23 21:09:43.439537,-711
2021-09-23 21:09:43.439543,-521
2021-09-23 21:09:43.439549,4
2021-09-23 21:09:43.439555,-117
2021-09-23 21:09:43.439561,-189
2021-09-23 21:09:43.439567,-43
2021-09-23 21:09:43.439573,-52
2021-09-23 21:09:43.439579,-93
2021-09-23 21:09:43.439585,-40
2021-09-23 21:09:43.439590,-21
2021-09-23 21:09:43.439596,-43
2021-09-23 21:09:43.439602,-36
2021-09-23 21:09:43.439608,-14
2021-09-23 21:09:43.439614,-4
2021-09-23 21:09:43.439620,0
2021-09-23 21:09:43.439626,4
2021-09-23 21:09:43.439632,12
2021-09-23 21:09:43.439637,31
2021-09-23 21:09:43.439643,45
2021-09-23 21:09:43.439649,48
2021-09-23 21:09:43.439655,55
2021-09-23 21:09:43.439661,69
2021-09-23 21:09:43.439666,81
2021-09-23 21:09:43.439672,79
2021-09-23 21:09:43.439678,74
2021-09-23 21:09:43.439684,64
2021-09-23 21:09:43.439690,52
2021-09-23 21:09:43.439695,36
2021-09-23 21:09:43.664433,19
2021-09-23 21:09:43.664452,-2
2021-09-23 21:09:43.664459,-26
2021-09-23 21:09:43.664465,-48
2021-09-23 21:09:43.664471,-60
2021-09-23 21:09:43.664477,-72
2021-09-23 21:09:43.664483,-91
2021-09-23 21:09:43.664489,-98
2021-09-23 21:09:43.664495,-91
2021-09-23 21:09:43.664501,-88
2021-09-23 21:09:43.664507,-91
2021-09-23 21:09:43.664513,-86
2021-09-23 21:09:43.664518,-81
2021-09-23 21:09:43.664524,-74
2021-09-23 21:09:43.664530,-72
2021-09-23 21:09:43.664536,-81
2021-09-23 21:09:43.664542,-79
2021-09-23 21:09:43.664547,-64
2021-09-23 21:09:43.664553,-62
2021-09-23 21:09:43.664559,-64
2021-09-23 21:09:43.664565,-60
2021-09-23 21:09:43.664570,-52
2021-09-23 21:09:43.664576,-45
2021-09-23 21:09:43.664582,-40
2021-09-23 21:09:43.664588,-40
2021-09-23 21:09:43.664594,-40
2021-09-23 21:09:43.664599,-38
2021-09-23 21:09:43.664605,-38
2021-09-23 21:09:43.664611,-36
2021-09-23 21:09:43.664616,-31
2021-09-23 21:09:43.891725,-28
2021-09-23 21:09:43.891746,-28
2021-09-23 21:09:43.891754,-26
2021-09-23 21:09:43.891760,-24
2021-09-23 21:09:43.891766,-21
2021-09-23 21:09:43.891771,-24
2021-09-23 21:09:43.891777,-28
2021-09-23 21:09:43.891783,-16
2021-09-23 21:09:43.891789,0
2021-09-23 21:09:43.891795,0
2021-09-23 21:09:43.891801,0
2021-09-23 21:09:43.891807,-4
2021-09-23 21:09:43.891812,-24
2021-09-23 21:09:43.891818,-33
2021-09-23 21:09:43.891824,-33
2021-09-23 21:09:43.891830,-31
2021-09-23 21:09:43.891835,-26
2021-09-23 21:09:43.891841,-19
2021-09-23 21:09:43.891847,2
2021-09-23 21:09:43.891853,96
2021-09-23 21:09:43.891859,363
2021-09-23 21:09:43.891865,822
2021-09-23 21:09:43.891870,1142
2021-09-23 21:09:43.891876,529
2021-09-23 21:09:43.891882,-637
2021-09-23 21:09:43.891888,-702
2021-09-23 21:09:43.891894,-72
2021-09-23 21:09:43.891900,-69
2021-09-23 21:09:43.891906,-211
2021-09-23 21:09:43.891911,-64
2021-09-23 21:09:44.114479,-28
2021-09-23 21:09:44.114501,-84
2021-09-23 21:09:44.114508,-45
2021-09-23 21:09:44.114515,-16
2021-09-23 21:09:44.114521,-33
2021-09-23 21:09:44.114527,-26
2021-09-23 21:09:44.114532,0
2021-09-23 21:09:44.114538,9
2021-09-23 21:09:44.114544,19
2021-09-23 21:09:44.114550,31
2021-09-23 21:09:44.114556,33
2021-09-23 21:09:44.114562,33
2021-09-23 21:09:44.114568,50
2021-09-23 21:09:44.114573,67
2021-09-23 21:09:44.114579,76
2021-09-23 21:09:44.114585,84
2021-09-23 21:09:44.114591,88
2021-09-23 21:09:44.114596,91
2021-09-23 21:09:44.114602,86
2021-09-23 21:09:44.114608,76
2021-09-23 21:09:44.114613,52
2021-09-23 21:09:44.114619,24
2021-09-23 21:09:44.114625,9
2021-09-23 21:09:44.114631,-9
2021-09-23 21:09:44.114636,-38
2021-09-23 21:09:44.114642,-55
2021-09-23 21:09:44.114648,-62
2021-09-23 21:09:44.114653,-76
2021-09-23 21:09:44.114659,-88
2021-09-23 21:09:44.114667,-93
2021-09-23 21:09:44.383755,-93
2021-09-23 21:09:44.383774,-91
2021-09-23 21:09:44.383781,-86
2021-09-23 21:09:44.383787,-86
2021-09-23 21:09:44.383792,-84
2021-09-23 21:09:44.383798,-69
2021-09-23 21:09:44.383803,-57
2021-09-23 21:09:44.383809,-50
2021-09-23 21:09:44.383815,-38
2021-09-23 21:09:44.383820,-38
2021-09-23 21:09:44.383826,-45
2021-09-23 21:09:44.383832,-36
2021-09-23 21:09:44.383838,-21
2021-09-23 21:09:44.383843,-16
2021-09-23 21:09:44.383849,-19
2021-09-23 21:09:44.383854,-21
2021-09-23 21:09:44.383859,-24
2021-09-23 21:09:44.383864,-24
2021-09-23 21:09:44.383869,-19
2021-09-23 21:09:44.383875,-19
2021-09-23 21:09:44.383880,-19
2021-09-23 21:09:44.383886,-16
2021-09-23 21:09:44.383892,-14
2021-09-23 21:09:44.383897,-9
2021-09-23 21:09:44.383903,-9
2021-09-23 21:09:44.383908,-16
2021-09-23 21:09:44.383914,-31
2021-09-23 21:09:44.383920,-36
2021-09-23 21:09:44.383925,-24
2021-09-23 21:09:44.383931,-9
2021-09-23 21:09:44.609608,-2
2021-09-23 21:09:44.609627,7
2021-09-23 21:09:44.609634,9
2021-09-23 21:09:44.609640,-9
2021-09-23 21:09:44.609647,-33
2021-09-23 21:09:44.609653,-36
2021-09-23 21:09:44.609659,-26
2021-09-23 21:09:44.609665,-16
2021-09-23 21:09:44.609671,-12
2021-09-23 21:09:44.609677,-2
2021-09-23 21:09:44.609683,67
2021-09-23 21:09:44.609689,305
2021-09-23 21:09:44.609695,764
2021-09-23 21:09:44.609701,1178
2021-09-23 21:09:44.609706,738
2021-09-23 21:09:44.609712,-442
2021-09-23 21:09:44.609718,-731
2021-09-23 21:09:44.609724,-134
2021-09-23 21:09:44.609730,-40
2021-09-23 21:09:44.609735,-209
2021-09-23 21:09:44.609741,-91
2021-09-23 21:09:44.609747,-33
2021-09-23 21:09:44.609753,-93
2021-09-23 21:09:44.609758,-60
2021-09-23 21:09:44.609764,-14
2021-09-23 21:09:44.609769,-33
2021-09-23 21:09:44.609775,-40
2021-09-23 21:09:44.609781,-24
2021-09-23 21:09:44.609787,-14
2021-09-23 21:09:44.609793,0
2021-09-23 21:09:44.834376,19
2021-09-23 21:09:44.834393,28
2021-09-23 21:09:44.834400,33
2021-09-23 21:09:44.834406,40
2021-09-23 21:09:44.834412,52
2021-09-23 21:09:44.834418,67
2021-09-23 21:09:44.834424,81
2021-09-23 21:09:44.834430,88
2021-09-23 21:09:44.834435,84
2021-09-23 21:09:44.834441,69
2021-09-23 21:09:44.834447,67
2021-09-23 21:09:44.834452,62
2021-09-23 21:09:44.834458,45
2021-09-23 21:09:44.834464,24
2021-09-23 21:09:44.834470,-2
2021-09-23 21:09:44.834476,-28
2021-09-23 21:09:44.834482,-50
2021-09-23 21:09:44.834487,-62
2021-09-23 21:09:44.834493,-69
2021-09-23 21:09:44.834499,-76
2021-09-23 21:09:44.834505,-86
2021-09-23 21:09:44.834510,-93
2021-09-23 21:09:44.834516,-91
2021-09-23 21:09:44.834522,-86
2021-09-23 21:09:44.834528,-81
2021-09-23 21:09:44.834534,-74
2021-09-23 21:09:44.834540,-69
2021-09-23 21:09:44.834545,-62
2021-09-23 21:09:44.834551,-48
2021-09-23 21:09:44.834557,-43
2021-09-23 21:09:45.105419,-43
2021-09-23 21:09:45.105441,-36
2021-09-23 21:09:45.105448,-31
2021-09-23 21:09:45.105454,-31
2021-09-23 21:09:45.105460,-26
2021-09-23 21:09:45.105466,-16
2021-09-23 21:09:45.105472,-14
2021-09-23 21:09:45.105478,-19
2021-09-23 21:09:45.105484,-26
2021-09-23 21:09:45.105489,-24
2021-09-23 21:09:45.105495,-19
2021-09-23 21:09:45.105501,-19
2021-09-23 21:09:45.105507,-24
2021-09-23 21:09:45.105513,-33
2021-09-23 21:09:45.105518,-38
2021-09-23 21:09:45.105524,-38
2021-09-23 21:09:45.105530,-28
2021-09-23 21:09:45.105536,-14
2021-09-23 21:09:45.105541,-4
2021-09-23 21:09:45.105547,7
2021-09-23 21:09:45.105553,7
2021-09-23 21:09:45.105559,-12
2021-09-23 21:09:45.105564,-28
2021-09-23 21:09:45.105570,-26
2021-09-23 21:09:45.105576,-19
2021-09-23 21:09:45.105581,-12
2021-09-23 21:09:45.105587,-7
2021-09-23 21:09:45.105593,16
2021-09-23 21:09:45.105598,127
2021-09-23 21:09:45.105604,435
2021-09-23 21:09:45.328014,942
2021-09-23 21:09:45.328031,1199
2021-09-23 21:09:45.328038,437
2021-09-23 21:09:45.328045,-670
2021-09-23 21:09:45.328051,-581
2021-09-23 21:09:45.328057,-24
2021-09-23 21:09:45.328063,-113
2021-09-23 21:09:45.328068,-221
2021-09-23 21:09:45.328074,-69
2021-09-23 21:09:45.328080,-57
2021-09-23 21:09:45.328086,-103
2021-09-23 21:09:45.328092,-55
2021-09-23 21:09:45.328098,-31
2021-09-23 21:09:45.328104,-50
2021-09-23 21:09:45.328109,-36
2021-09-23 21:09:45.328115,-14
2021-09-23 21:09:45.328121,-7
2021-09-23 21:09:45.328127,7
2021-09-23 21:09:45.328133,24
2021-09-23 21:09:45.328139,28
2021-09-23 21:09:45.328145,38
2021-09-23 21:09:45.328151,52
2021-09-23 21:09:45.328157,67
2021-09-23 21:09:45.328164,84
2021-09-23 21:09:45.328169,93
2021-09-23 21:09:45.328175,98
2021-09-23 21:09:45.328181,103
2021-09-23 21:09:45.328187,96
2021-09-23 21:09:45.328192,84
2021-09-23 21:09:45.328198,72
2021-09-23 21:09:45.554500,55
2021-09-23 21:09:45.554520,33
2021-09-23 21:09:45.554527,7
2021-09-23 21:09:45.554533,-24
2021-09-23 21:09:45.554539,-55
2021-09-23 21:09:45.554544,-74
2021-09-23 21:09:45.554550,-88
2021-09-23 21:09:45.554556,-101
2021-09-23 21:09:45.554562,-101
2021-09-23 21:09:45.554567,-101
2021-09-23 21:09:45.554573,-96
2021-09-23 21:09:45.554579,-86
2021-09-23 21:09:45.554585,-88
2021-09-23 21:09:45.554590,-88
2021-09-23 21:09:45.554596,-76
2021-09-23 21:09:45.554602,-69
2021-09-23 21:09:45.554607,-62
2021-09-23 21:09:45.554613,-50
2021-09-23 21:09:45.554619,-45
2021-09-23 21:09:45.554625,-40
2021-09-23 21:09:45.554630,-33
2021-09-23 21:09:45.554636,-28
2021-09-23 21:09:45.554642,-24
2021-09-23 21:09:45.554648,-19
2021-09-23 21:09:45.554653,-21
2021-09-23 21:09:45.554659,-21
2021-09-23 21:09:45.554665,-19
2021-09-23 21:09:45.554671,-16
2021-09-23 21:09:45.554676,-19
2021-09-23 21:09:45.554682,-21
2021-09-23 21:09:45.734381,-26
2021-09-23 21:09:45.734399,-31
2021-09-23 21:09:45.734406,-26
2021-09-23 21:09:45.734412,-14
2021-09-23 21:09:45.734418,0
2021-09-23 21:09:45.734424,4
2021-09-23 21:09:45.734430,4
2021-09-23 21:09:45.734436,-7
2021-09-23 21:09:45.734442,-31
2021-09-23 21:09:45.734448,-43
2021-09-23 21:09:45.734454,-38
2021-09-23 21:09:45.734460,-36
2021-09-23 21:09:45.734466,-33
2021-09-23 21:09:45.734471,-24
2021-09-23 21:09:45.734477,7
2021-09-23 21:09:45.734483,146
2021-09-23 21:09:45.734489,505
2021-09-23 21:09:45.734495,1036
2021-09-23 21:09:45.734501,1154
2021-09-23 21:09:45.734507,180
2021-09-23 21:09:45.734512,-815
2021-09-23 21:09:45.734518,-500
2021-09-23 21:09:45.734524,2
2021-09-23 21:09:45.734530,-161
2021-09-23 21:09:45.734536,-199
2021-09-23 21:09:45.734541,-40
2021-09-23 21:09:45.734547,-64
2021-09-23 21:09:45.734553,-101
2021-09-23 21:09:45.734559,-43
2021-09-23 21:09:45.734564,-31
2021-09-23 21:09:46.049416,-40
2021-09-23 21:09:46.049434,-19
2021-09-23 21:09:46.049442,0
2021-09-23 21:09:46.049448,4
2021-09-23 21:09:46.049454,14
2021-09-23 21:09:46.049460,24
2021-09-23 21:09:46.049466,31
2021-09-23 21:09:46.049472,43
2021-09-23 21:09:46.049547,52
2021-09-23 21:09:46.049554,62
2021-09-23 21:09:46.049560,74
2021-09-23 21:09:46.049566,81
2021-09-23 21:09:46.049572,84
2021-09-23 21:09:46.049577,86
2021-09-23 21:09:46.049583,81
2021-09-23 21:09:46.049589,69
2021-09-23 21:09:46.049595,52
2021-09-23 21:09:46.049601,36
2021-09-23 21:09:46.049607,16
2021-09-23 21:09:46.049612,-4
2021-09-23 21:09:46.049618,-33
2021-09-23 21:09:46.049624,-55
2021-09-23 21:09:46.049630,-72
2021-09-23 21:09:46.049636,-86
2021-09-23 21:09:46.049642,-91
2021-09-23 21:09:46.049648,-93
2021-09-23 21:09:46.049653,-93
2021-09-23 21:09:46.049659,-91
2021-09-23 21:09:46.049665,-86
2021-09-23 21:09:46.049671,-76
2021-09-23 21:09:46.184374,-67
2021-09-23 21:09:46.184390,-60
2021-09-23 21:09:46.184397,-52
2021-09-23 21:09:46.184403,-45
2021-09-23 21:09:46.184409,-36
2021-09-23 21:09:46.184415,-28
2021-09-23 21:09:46.184421,-24
2021-09-23 21:09:46.184427,-19
2021-09-23 21:09:46.184433,-16
2021-09-23 21:09:46.184439,-19
2021-09-23 21:09:46.184444,-26
2021-09-23 21:09:46.184450,-24
2021-09-23 21:09:46.184456,-28
2021-09-23 21:09:46.184461,-38
2021-09-23 21:09:46.184467,-36
2021-09-23 21:09:46.184472,-33
2021-09-23 21:09:46.184478,-50
2021-09-23 21:09:46.184484,-55
2021-09-23 21:09:46.184489,-38
2021-09-23 21:09:46.184495,-33
2021-09-23 21:09:46.184501,-38
2021-09-23 21:09:46.184507,-50
2021-09-23 21:09:46.184513,-52
2021-09-23 21:09:46.184519,-40
2021-09-23 21:09:46.184524,-24
2021-09-23 21:09:46.184530,-14
2021-09-23 21:09:46.184536,-4
2021-09-23 21:09:46.184542,4
2021-09-23 21:09:46.184548,-7
2021-09-23 21:09:46.184554,-28
2021-09-23 21:09:46.454385,-33
2021-09-23 21:09:46.454403,-28
2021-09-23 21:09:46.454411,-28
2021-09-23 21:09:46.454417,-33
2021-09-23 21:09:46.454423,-36
2021-09-23 21:09:46.454429,14
2021-09-23 21:09:46.454435,216
2021-09-23 21:09:46.454441,644
2021-09-23 21:09:46.454447,1159
2021-09-23 21:09:46.454453,995
2021-09-23 21:09:46.454459,-194
2021-09-23 21:09:46.454465,-863
2021-09-23 21:09:46.454471,-317
2021-09-23 21:09:46.454476,-14
2021-09-23 21:09:46.454482,-216
2021-09-23 21:09:46.454488,-161
2021-09-23 21:09:46.454494,-43
2021-09-23 21:09:46.454499,-96
2021-09-23 21:09:46.454505,-88
2021-09-23 21:09:46.454511,-31
2021-09-23 21:09:46.454517,-36
2021-09-23 21:09:46.454523,-40
2021-09-23 21:09:46.454528,-14
2021-09-23 21:09:46.454534,0
2021-09-23 21:09:46.454540,7
2021-09-23 21:09:46.454546,24
2021-09-23 21:09:46.454552,36
2021-09-23 21:09:46.454557,40
2021-09-23 21:09:46.454563,55
2021-09-23 21:09:46.454569,74
2021-09-23 21:09:46.679404,84
2021-09-23 21:09:46.679422,91
2021-09-23 21:09:46.679429,96
2021-09-23 21:09:46.679435,93
2021-09-23 21:09:46.679441,91
2021-09-23 21:09:46.679447,88
2021-09-23 21:09:46.679453,79
2021-09-23 21:09:46.679458,62
2021-09-23 21:09:46.679464,40
2021-09-23 21:09:46.679470,14
2021-09-23 21:09:46.679476,-7
2021-09-23 21:09:46.679482,-24
2021-09-23 21:09:46.679488,-43
2021-09-23 21:09:46.679493,-62
2021-09-23 21:09:46.679499,-86
2021-09-23 21:09:46.679505,-103
2021-09-23 21:09:46.679511,-101
2021-09-23 21:09:46.679517,-96
2021-09-23 21:09:46.679522,-98
2021-09-23 21:09:46.679528,-103
2021-09-23 21:09:46.679534,-98
2021-09-23 21:09:46.679540,-86
2021-09-23 21:09:46.679546,-72
2021-09-23 21:09:46.679552,-62
2021-09-23 21:09:46.679557,-50
2021-09-23 21:09:46.679563,-43
2021-09-23 21:09:46.679569,-40
2021-09-23 21:09:46.679575,-33
2021-09-23 21:09:46.679580,-28
2021-09-23 21:09:46.679586,-24
2021-09-23 21:09:46.904412,-16
2021-09-23 21:09:46.904430,-16
2021-09-23 21:09:46.904437,-21
2021-09-23 21:09:46.904443,-26
2021-09-23 21:09:46.904449,-24
2021-09-23 21:09:46.904455,-24
2021-09-23 21:09:46.904461,-21
2021-09-23 21:09:46.904467,-21
2021-09-23 21:09:46.904473,-33
2021-09-23 21:09:46.904479,-38
2021-09-23 21:09:46.904485,-26
2021-09-23 21:09:46.904491,-19
2021-09-23 21:09:46.904497,-21
2021-09-23 21:09:46.904503,-26
2021-09-23 21:09:46.904509,-40
2021-09-23 21:09:46.904515,-38
2021-09-23 21:09:46.904520,-24
2021-09-23 21:09:46.904526,-16
2021-09-23 21:09:46.904532,2
2021-09-23 21:09:46.904538,16
2021-09-23 21:09:46.904544,-4
2021-09-23 21:09:46.904550,-36
2021-09-23 21:09:46.904555,-43
2021-09-23 21:09:46.904561,-33
2021-09-23 21:09:46.904567,-28
2021-09-23 21:09:46.904573,-28
2021-09-23 21:09:46.904579,-19
2021-09-23 21:09:46.904584,33
2021-09-23 21:09:46.904590,230
2021-09-23 21:09:46.904596,668
2021-09-23 21:09:47.129408,1195
2021-09-23 21:09:47.129426,1002
2021-09-23 21:09:47.129433,-223
2021-09-23 21:09:47.129440,-860
2021-09-23 21:09:47.129446,-281
