Time,ECG
2021-09-23 21:12:18.142838,-19
2021-09-23 21:12:18.142856,-21
2021-09-23 21:12:18.142863,-21
2021-09-23 21:12:18.142869,-16
2021-09-23 21:12:18.142875,-12
2021-09-23 21:12:18.142881,-9
2021-09-23 21:12:18.142887,-19
2021-09-23 21:12:18.142893,-28
2021-09-23 21:12:18.142899,-26
2021-09-23 21:12:18.142905,-26
2021-09-23 21:12:18.142911,-33
2021-09-23 21:12:18.142916,-33
2021-09-23 21:12:18.142922,-36
2021-09-23 21:12:18.142928,-43
2021-09-23 21:12:18.142933,-43
2021-09-23 21:12:18.142939,-50
2021-09-23 21:12:18.142945,-60
2021-09-23 21:12:18.142951,-52
2021-09-23 21:12:18.142957,-48
2021-09-23 21:12:18.142962,-50
2021-09-23 21:12:18.142968,-48
2021-09-23 21:12:18.142974,-40
2021-09-23 21:12:18.142980,-40
2021-09-23 21:12:18.142985,-36
2021-09-23 21:12:18.142991,-36
2021-09-23 21:12:18.142997,-40
2021-09-23 21:12:18.143003,-40
2021-09-23 21:12:18.143008,-36
2021-09-23 21:12:18.143014,-36
2021-09-23 21:12:18.143020,-36
2021-09-23 21:12:18.331536,-33
2021-09-23 21:12:18.331555,-26
2021-09-23 21:12:18.331562,-14
2021-09-23 21:12:18.331568,4
2021-09-23 21:12:18.331574,14
2021-09-23 21:12:18.331580,-4
2021-09-23 21:12:18.331587,-40
2021-09-23 21:12:18.331593,-52
2021-09-23 21:12:18.331599,-40
2021-09-23 21:12:18.331605,-31
2021-09-23 21:12:18.331611,-28
2021-09-23 21:12:18.331617,-9
2021-09-23 21:12:18.331622,57
2021-09-23 21:12:18.331628,298
2021-09-23 21:12:18.331634,783
2021-09-23 21:12:18.331640,1219
2021-09-23 21:12:18.331646,759
2021-09-23 21:12:18.331652,-428
2021-09-23 21:12:18.331658,-704
2021-09-23 21:12:18.331664,-139
2021-09-23 21:12:18.331670,-67
2021-09-23 21:12:18.331675,-226
2021-09-23 21:12:18.331681,-101
2021-09-23 21:12:18.331687,-45
2021-09-23 21:12:18.331693,-103
2021-09-23 21:12:18.331699,-67
2021-09-23 21:12:18.331704,-28
2021-09-23 21:12:18.331710,-43
2021-09-23 21:12:18.331716,-36
2021-09-23 21:12:18.331723,-9
2021-09-23 21:12:18.556553,-7
2021-09-23 21:12:18.556572,4
2021-09-23 21:12:18.556579,19
2021-09-23 21:12:18.556585,24
2021-09-23 21:12:18.556591,31
2021-09-23 21:12:18.556597,40
2021-09-23 21:12:18.556603,48
2021-09-23 21:12:18.556609,64
2021-09-23 21:12:18.556615,81
2021-09-23 21:12:18.556620,84
2021-09-23 21:12:18.556626,96
2021-09-23 21:12:18.556632,103
2021-09-23 21:12:18.556638,98
2021-09-23 21:12:18.556647,93
2021-09-23 21:12:18.556654,84
2021-09-23 21:12:18.556660,67
2021-09-23 21:12:18.556666,45
2021-09-23 21:12:18.556671,26
2021-09-23 21:12:18.556677,7
2021-09-23 21:12:18.556683,-24
2021-09-23 21:12:18.556688,-62
2021-09-23 21:12:18.556694,-86
2021-09-23 21:12:18.556700,-91
2021-09-23 21:12:18.556706,-96
2021-09-23 21:12:18.556712,-108
2021-09-23 21:12:18.556717,-105
2021-09-23 21:12:18.556723,-101
2021-09-23 21:12:18.556729,-101
2021-09-23 21:12:18.556734,-96
2021-09-23 21:12:18.556742,-88
2021-09-23 21:12:18.825138,-81
2021-09-23 21:12:18.825156,-74
2021-09-23 21:12:18.825162,-62
2021-09-23 21:12:18.825168,-52
2021-09-23 21:12:18.825174,-52
2021-09-23 21:12:18.825180,-50
2021-09-23 21:12:18.825186,-40
2021-09-23 21:12:18.825192,-31
2021-09-23 21:12:18.825198,-24
2021-09-23 21:12:18.825204,-24
2021-09-23 21:12:18.825209,-28
2021-09-23 21:12:18.825215,-31
2021-09-23 21:12:18.825221,-24
2021-09-23 21:12:18.825227,-19
2021-09-23 21:12:18.825233,-21
2021-09-23 21:12:18.825238,-26
2021-09-23 21:12:18.825244,-28
2021-09-23 21:12:18.825254,-28
2021-09-23 21:12:18.825259,-31
2021-09-23 21:12:18.825265,-28
2021-09-23 21:12:18.825271,-24
2021-09-23 21:12:18.825277,-24
2021-09-23 21:12:18.825283,-28
2021-09-23 21:12:18.825289,-31
2021-09-23 21:12:18.825295,-31
2021-09-23 21:12:18.825300,-26
2021-09-23 21:12:18.825306,-21
2021-09-23 21:12:18.825312,-26
2021-09-23 21:12:18.825318,-26
2021-09-23 21:12:18.825323,-19
2021-09-23 21:12:19.006550,-14
2021-09-23 21:12:19.006570,-16
2021-09-23 21:12:19.006577,-16
2021-09-23 21:12:19.006583,-24
2021-09-23 21:12:19.006589,-36
2021-09-23 21:12:19.006595,-31
2021-09-23 21:12:19.006601,-26
2021-09-23 21:12:19.006612,-26
2021-09-23 21:12:19.006618,-26
2021-09-23 21:12:19.006624,-24
2021-09-23 21:12:19.006630,-24
2021-09-23 21:12:19.006636,-12
2021-09-23 21:12:19.006641,12
2021-09-23 21:12:19.006647,12
2021-09-23 21:12:19.006653,-16
2021-09-23 21:12:19.006659,-36
2021-09-23 21:12:19.006665,-40
2021-09-23 21:12:19.006671,-33
2021-09-23 21:12:19.006677,-16
2021-09-23 21:12:19.006682,0
2021-09-23 21:12:19.006688,24
2021-09-23 21:12:19.006694,146
2021-09-23 21:12:19.006700,505
2021-09-23 21:12:19.006705,1055
2021-09-23 21:12:19.006711,1183
2021-09-23 21:12:19.006717,218
2021-09-23 21:12:19.006723,-755
2021-09-23 21:12:19.006729,-476
2021-09-23 21:12:19.006734,-24
2021-09-23 21:12:19.006741,-173
2021-09-23 21:12:19.276626,-197
2021-09-23 21:12:19.276646,-48
2021-09-23 21:12:19.276653,-79
2021-09-23 21:12:19.276659,-115
2021-09-23 21:12:19.276665,-60
2021-09-23 21:12:19.276671,-43
2021-09-23 21:12:19.276677,-48
2021-09-23 21:12:19.276682,-28
2021-09-23 21:12:19.276688,-16
2021-09-23 21:12:19.276693,-21
2021-09-23 21:12:19.276699,-12
2021-09-23 21:12:19.276705,9
2021-09-23 21:12:19.276711,24
2021-09-23 21:12:19.276716,36
2021-09-23 21:12:19.276722,48
2021-09-23 21:12:19.276728,55
2021-09-23 21:12:19.276734,62
2021-09-23 21:12:19.276739,81
2021-09-23 21:12:19.276745,101
2021-09-23 21:12:19.276750,115
2021-09-23 21:12:19.276756,115
2021-09-23 21:12:19.276762,105
2021-09-23 21:12:19.276767,93
2021-09-23 21:12:19.276773,84
2021-09-23 21:12:19.276783,72
2021-09-23 21:12:19.276789,48
2021-09-23 21:12:19.276795,21
2021-09-23 21:12:19.276801,-9
2021-09-23 21:12:19.276806,-36
2021-09-23 21:12:19.276812,-52
2021-09-23 21:12:19.501530,-64
2021-09-23 21:12:19.501550,-76
2021-09-23 21:12:19.501557,-86
2021-09-23 21:12:19.501563,-96
2021-09-23 21:12:19.501569,-93
2021-09-23 21:12:19.501575,-86
2021-09-23 21:12:19.501581,-86
2021-09-23 21:12:19.501587,-86
2021-09-23 21:12:19.501593,-84
2021-09-23 21:12:19.501599,-81
2021-09-23 21:12:19.501604,-69
2021-09-23 21:12:19.501610,-55
2021-09-23 21:12:19.501616,-48
2021-09-23 21:12:19.501622,-40
2021-09-23 21:12:19.501627,-43
2021-09-23 21:12:19.501633,-43
2021-09-23 21:12:19.501639,-31
2021-09-23 21:12:19.501645,-14
2021-09-23 21:12:19.501651,-12
2021-09-23 21:12:19.501656,-24
2021-09-23 21:12:19.501662,-28
2021-09-23 21:12:19.501668,-24
2021-09-23 21:12:19.501675,-16
2021-09-23 21:12:19.501681,-19
2021-09-23 21:12:19.501687,-19
2021-09-23 21:12:19.501693,-21
2021-09-23 21:12:19.501699,-26
2021-09-23 21:12:19.501705,-31
2021-09-23 21:12:19.501710,-33
2021-09-23 21:12:19.501716,-36
2021-09-23 21:12:19.726519,-33
2021-09-23 21:12:19.726538,-38
2021-09-23 21:12:19.726545,-50
2021-09-23 21:12:19.726551,-43
2021-09-23 21:12:19.726557,-31
2021-09-23 21:12:19.726563,-31
2021-09-23 21:12:19.726568,-33
2021-09-23 21:12:19.726574,-38
2021-09-23 21:12:19.726580,-40
2021-09-23 21:12:19.726585,-38
2021-09-23 21:12:19.726591,-36
2021-09-23 21:12:19.726597,-36
2021-09-23 21:12:19.726603,-31
2021-09-23 21:12:19.726608,-33
2021-09-23 21:12:19.726614,-45
2021-09-23 21:12:19.726620,-38
2021-09-23 21:12:19.726625,-24
2021-09-23 21:12:19.726631,-16
2021-09-23 21:12:19.726637,-4
2021-09-23 21:12:19.726643,9
2021-09-23 21:12:19.726648,-9
2021-09-23 21:12:19.726654,-38
2021-09-23 21:12:19.726660,-45
2021-09-23 21:12:19.726665,-36
2021-09-23 21:12:19.726675,-28
2021-09-23 21:12:19.726681,-24
2021-09-23 21:12:19.726687,-2
2021-09-23 21:12:19.726693,72
2021-09-23 21:12:19.726698,312
2021-09-23 21:12:19.726704,757
2021-09-23 21:12:20.041495,1103
2021-09-23 21:12:20.041514,589
2021-09-23 21:12:20.041521,-526
2021-09-23 21:12:20.041527,-704
2021-09-23 21:12:20.041533,-129
2021-09-23 21:12:20.041539,-62
2021-09-23 21:12:20.041545,-192
2021-09-23 21:12:20.041551,-72
2021-09-23 21:12:20.041557,-31
2021-09-23 21:12:20.041562,-84
2021-09-23 21:12:20.041568,-48
2021-09-23 21:12:20.041574,-7
2021-09-23 21:12:20.041580,-21
2021-09-23 21:12:20.041586,-26
2021-09-23 21:12:20.041591,-7
2021-09-23 21:12:20.041597,4
2021-09-23 21:12:20.041603,14
2021-09-23 21:12:20.041609,31
2021-09-23 21:12:20.041614,45
2021-09-23 21:12:20.041620,50
2021-09-23 21:12:20.041626,60
2021-09-23 21:12:20.041631,76
2021-09-23 21:12:20.041637,86
2021-09-23 21:12:20.041643,98
2021-09-23 21:12:20.041648,113
2021-09-23 21:12:20.041654,129
2021-09-23 21:12:20.041659,137
2021-09-23 21:12:20.041665,134
2021-09-23 21:12:20.041671,127
2021-09-23 21:12:20.041676,115
2021-09-23 21:12:20.176389,96
2021-09-23 21:12:20.176405,72
2021-09-23 21:12:20.176411,43
2021-09-23 21:12:20.176417,4
2021-09-23 21:12:20.176423,-28
2021-09-23 21:12:20.176429,-48
2021-09-23 21:12:20.176435,-67
2021-09-23 21:12:20.176441,-88
2021-09-23 21:12:20.176446,-93
2021-09-23 21:12:20.176452,-98
2021-09-23 21:12:20.176458,-108
2021-09-23 21:12:20.176464,-108
2021-09-23 21:12:20.176469,-103
2021-09-23 21:12:20.176475,-98
2021-09-23 21:12:20.176481,-93
2021-09-23 21:12:20.176487,-81
2021-09-23 21:12:20.176492,-64
2021-09-23 21:12:20.176498,-55
2021-09-23 21:12:20.176504,-55
2021-09-23 21:12:20.176510,-43
2021-09-23 21:12:20.176515,-28
2021-09-23 21:12:20.176521,-26
2021-09-23 21:12:20.176527,-21
2021-09-23 21:12:20.176533,-14
2021-09-23 21:12:20.176538,-19
2021-09-23 21:12:20.176544,-21
2021-09-23 21:12:20.176550,-16
2021-09-23 21:12:20.176555,-16
2021-09-23 21:12:20.176561,-16
2021-09-23 21:12:20.176567,-16
2021-09-23 21:12:20.401475,-24
2021-09-23 21:12:20.401492,-24
2021-09-23 21:12:20.401499,-21
2021-09-23 21:12:20.401506,-24
2021-09-23 21:12:20.401512,-28
2021-09-23 21:12:20.401517,-43
2021-09-23 21:12:20.401523,-50
2021-09-23 21:12:20.401529,-38
2021-09-23 21:12:20.401535,-31
2021-09-23 21:12:20.401541,-31
2021-09-23 21:12:20.401551,-31
2021-09-23 21:12:20.401557,-36
2021-09-23 21:12:20.401563,-38
2021-09-23 21:12:20.401569,-31
2021-09-23 21:12:20.401575,-28
2021-09-23 21:12:20.401581,-26
2021-09-23 21:12:20.401587,-21
2021-09-23 21:12:20.401592,-16
2021-09-23 21:12:20.401598,-14
2021-09-23 21:12:20.401604,-7
2021-09-23 21:12:20.401610,-4
2021-09-23 21:12:20.401616,7
2021-09-23 21:12:20.401622,19
2021-09-23 21:12:20.401627,2
2021-09-23 21:12:20.401633,-28
2021-09-23 21:12:20.401639,-40
2021-09-23 21:12:20.401645,-33
2021-09-23 21:12:20.401651,-26
2021-09-23 21:12:20.401656,-24
2021-09-23 21:12:20.401662,-9
2021-09-23 21:12:20.671574,36
2021-09-23 21:12:20.671593,209
2021-09-23 21:12:20.671601,620
2021-09-23 21:12:20.671607,1137
2021-09-23 21:12:20.671613,1019
2021-09-23 21:12:20.671618,-88
2021-09-23 21:12:20.671624,-769
2021-09-23 21:12:20.671630,-305
2021-09-23 21:12:20.671636,-16
2021-09-23 21:12:20.671642,-204
2021-09-23 21:12:20.671648,-161
2021-09-23 21:12:20.671654,-52
2021-09-23 21:12:20.671659,-108
2021-09-23 21:12:20.671665,-113
2021-09-23 21:12:20.671671,-57
2021-09-23 21:12:20.671677,-60
2021-09-23 21:12:20.671682,-64
2021-09-23 21:12:20.671688,-36
2021-09-23 21:12:20.671694,-16
2021-09-23 21:12:20.671699,-14
2021-09-23 21:12:20.671705,-2
2021-09-23 21:12:20.671711,12
2021-09-23 21:12:20.671717,19
2021-09-23 21:12:20.671722,31
2021-09-23 21:12:20.671728,45
2021-09-23 21:12:20.671738,57
2021-09-23 21:12:20.671744,72
2021-09-23 21:12:20.671750,86
2021-09-23 21:12:20.671756,101
2021-09-23 21:12:20.671761,117
2021-09-23 21:12:20.895181,120
2021-09-23 21:12:20.895200,110
2021-09-23 21:12:20.895207,103
2021-09-23 21:12:20.895213,91
2021-09-23 21:12:20.895218,67
2021-09-23 21:12:20.895225,36
2021-09-23 21:12:20.895230,9
2021-09-23 21:12:20.895236,-21
2021-09-23 21:12:20.895242,-55
2021-09-23 21:12:20.895248,-81
2021-09-23 21:12:20.895254,-96
2021-09-23 21:12:20.895260,-101
2021-09-23 21:12:20.895266,-101
2021-09-23 21:12:20.895271,-103
2021-09-23 21:12:20.895277,-105
2021-09-23 21:12:20.895283,-110
2021-09-23 21:12:20.895289,-113
2021-09-23 21:12:20.895294,-101
2021-09-23 21:12:20.895300,-91
2021-09-23 21:12:20.895306,-86
2021-09-23 21:12:20.895312,-79
2021-09-23 21:12:20.895318,-72
2021-09-23 21:12:20.895324,-62
2021-09-23 21:12:20.895329,-50
2021-09-23 21:12:20.895335,-40
2021-09-23 21:12:20.895341,-31
2021-09-23 21:12:20.895347,-24
2021-09-23 21:12:20.895352,-26
2021-09-23 21:12:20.895358,-26
2021-09-23 21:12:20.895364,-24
2021-09-23 21:12:21.121565,-16
2021-09-23 21:12:21.121585,-14
2021-09-23 21:12:21.121592,-21
2021-09-23 21:12:21.121598,-28
2021-09-23 21:12:21.121604,-28
2021-09-23 21:12:21.121610,-21
2021-09-23 21:12:21.121616,-21
2021-09-23 21:12:21.121622,-24
2021-09-23 21:12:21.121628,-21
2021-09-23 21:12:21.121634,-28
2021-09-23 21:12:21.121639,-38
2021-09-23 21:12:21.121645,-40
2021-09-23 21:12:21.121651,-36
2021-09-23 21:12:21.121657,-28
2021-09-23 21:12:21.121662,-31
2021-09-23 21:12:21.121668,-36
2021-09-23 21:12:21.121678,-28
2021-09-23 21:12:21.121684,-31
2021-09-23 21:12:21.121690,-38
2021-09-23 21:12:21.121696,-38
2021-09-23 21:12:21.121701,-36
2021-09-23 21:12:21.121707,-36
2021-09-23 21:12:21.121713,-24
2021-09-23 21:12:21.121718,-9
2021-09-23 21:12:21.121724,-2
2021-09-23 21:12:21.121730,16
2021-09-23 21:12:21.121736,19
2021-09-23 21:12:21.121741,-9
2021-09-23 21:12:21.121747,-33
2021-09-23 21:12:21.121753,-33
2021-09-23 21:12:21.346576,-26
2021-09-23 21:12:21.346595,-21
2021-09-23 21:12:21.346602,-26
2021-09-23 21:12:21.346608,-7
2021-09-23 21:12:21.346614,105
2021-09-23 21:12:21.346620,413
2021-09-23 21:12:21.346627,925
2021-09-23 21:12:21.346633,1207
2021-09-23 21:12:21.346639,468
2021-09-23 21:12:21.346644,-634
2021-09-23 21:12:21.346650,-581
2021-09-23 21:12:21.346656,-48
2021-09-23 21:12:21.346662,-125
2021-09-23 21:12:21.346667,-223
2021-09-23 21:12:21.346673,-81
2021-09-23 21:12:21.346679,-74
2021-09-23 21:12:21.346685,-115
2021-09-23 21:12:21.346691,-60
2021-09-23 21:12:21.346696,-38
2021-09-23 21:12:21.346702,-57
2021-09-23 21:12:21.346708,-40
2021-09-23 21:12:21.346714,-21
2021-09-23 21:12:21.346719,-16
2021-09-23 21:12:21.346725,-2
2021-09-23 21:12:21.346731,16
2021-09-23 21:12:21.346737,26
2021-09-23 21:12:21.346742,31
2021-09-23 21:12:21.346748,38
2021-09-23 21:12:21.346754,55
2021-09-23 21:12:21.346759,76
2021-09-23 21:12:21.571524,91
2021-09-23 21:12:21.571541,101
2021-09-23 21:12:21.571548,115
2021-09-23 21:12:21.571555,125
2021-09-23 21:12:21.571561,120
2021-09-23 21:12:21.571567,115
2021-09-23 21:12:21.571573,108
2021-09-23 21:12:21.571579,86
2021-09-23 21:12:21.571585,55
2021-09-23 21:12:21.571590,28
2021-09-23 21:12:21.571596,0
2021-09-23 21:12:21.571602,-31
2021-09-23 21:12:21.571608,-55
2021-09-23 21:12:21.571619,-74
2021-09-23 21:12:21.571625,-96
2021-09-23 21:12:21.571631,-108
2021-09-23 21:12:21.571637,-108
2021-09-23 21:12:21.571643,-105
2021-09-23 21:12:21.571648,-101
2021-09-23 21:12:21.571654,-98
2021-09-23 21:12:21.571660,-98
2021-09-23 21:12:21.571666,-91
2021-09-23 21:12:21.571672,-81
2021-09-23 21:12:21.571678,-79
2021-09-23 21:12:21.571683,-81
2021-09-23 21:12:21.571689,-81
2021-09-23 21:12:21.571695,-67
2021-09-23 21:12:21.571701,-55
2021-09-23 21:12:21.571707,-48
2021-09-23 21:12:21.571713,-38
2021-09-23 21:12:21.796484,-36
2021-09-23 21:12:21.796502,-31
2021-09-23 21:12:21.796509,-28
2021-09-23 21:12:21.796515,-28
2021-09-23 21:12:21.796521,-28
2021-09-23 21:12:21.796527,-24
2021-09-23 21:12:21.796533,-24
2021-09-23 21:12:21.796539,-31
2021-09-23 21:12:21.796544,-36
2021-09-23 21:12:21.796550,-31
2021-09-23 21:12:21.796556,-28
2021-09-23 21:12:21.796561,-26
2021-09-23 21:12:21.796567,-28
2021-09-23 21:12:21.796573,-36
2021-09-23 21:12:21.796579,-31
2021-09-23 21:12:21.796584,-21
2021-09-23 21:12:21.796590,-21
2021-09-23 21:12:21.796595,-31
2021-09-23 21:12:21.796601,-33
2021-09-23 21:12:21.796607,-24
2021-09-23 21:12:21.796612,-21
2021-09-23 21:12:21.796618,-26
2021-09-23 21:12:21.796624,-16
2021-09-23 21:12:21.796629,-4
2021-09-23 21:12:21.796635,-7
2021-09-23 21:12:21.796640,9
2021-09-23 21:12:21.796646,26
2021-09-23 21:12:21.796652,7
2021-09-23 21:12:21.796657,-28
2021-09-23 21:12:21.796663,-36
2021-09-23 21:12:22.021659,-21
2021-09-23 21:12:22.021680,-12
2021-09-23 21:12:22.021687,-14
2021-09-23 21:12:22.021693,-2
2021-09-23 21:12:22.021699,60
2021-09-23 21:12:22.021705,271
2021-09-23 21:12:22.021711,685
2021-09-23 21:12:22.021717,1120
2021-09-23 21:12:22.021723,822
2021-09-23 21:12:22.021728,-319
2021-09-23 21:12:22.021734,-774
2021-09-23 21:12:22.021740,-226
2021-09-23 21:12:22.021746,-45
2021-09-23 21:12:22.021751,-218
2021-09-23 21:12:22.021757,-127
2021-09-23 21:12:22.021763,-40
2021-09-23 21:12:22.021769,-93
2021-09-23 21:12:22.021781,-79
2021-09-23 21:12:22.021787,-38
2021-09-23 21:12:22.021792,-50
2021-09-23 21:12:22.021798,-48
2021-09-23 21:12:22.021804,-19
2021-09-23 21:12:22.021810,-9
2021-09-23 21:12:22.021815,-4
2021-09-23 21:12:22.021821,9
2021-09-23 21:12:22.021827,21
2021-09-23 21:12:22.021833,33
2021-09-23 21:12:22.021839,50
2021-09-23 21:12:22.021844,57
2021-09-23 21:12:22.021850,55
2021-09-23 21:12:22.246936,67
2021-09-23 21:12:22.246957,91
2021-09-23 21:12:22.246964,108
2021-09-23 21:12:22.246971,122
2021-09-23 21:12:22.246977,129
2021-09-23 21:12:22.246983,115
2021-09-23 21:12:22.246989,93
2021-09-23 21:12:22.246995,81
2021-09-23 21:12:22.247001,62
2021-09-23 21:12:22.247007,31
2021-09-23 21:12:22.247013,0
2021-09-23 21:12:22.247019,-36
2021-09-23 21:12:22.247024,-69
2021-09-23 21:12:22.247030,-91
2021-09-23 21:12:22.247036,-103
2021-09-23 21:12:22.247042,-115
2021-09-23 21:12:22.247048,-110
2021-09-23 21:12:22.247054,-108
2021-09-23 21:12:22.247060,-115
2021-09-23 21:12:22.247066,-117
2021-09-23 21:12:22.247072,-117
2021-09-23 21:12:22.247078,-117
2021-09-23 21:12:22.247083,-101
2021-09-23 21:12:22.247089,-88
2021-09-23 21:12:22.247095,-81
2021-09-23 21:12:22.247101,-69
2021-09-23 21:12:22.247107,-60
2021-09-23 21:12:22.247113,-57
2021-09-23 21:12:22.247119,-50
2021-09-23 21:12:22.247125,-38
2021-09-23 21:12:22.516666,-31
2021-09-23 21:12:22.516687,-26
2021-09-23 21:12:22.516694,-21
2021-09-23 21:12:22.516700,-21
2021-09-23 21:12:22.516706,-26
2021-09-23 21:12:22.516712,-28
2021-09-23 21:12:22.516718,-28
2021-09-23 21:12:22.516724,-33
2021-09-23 21:12:22.516730,-38
2021-09-23 21:12:22.516735,-28
2021-09-23 21:12:22.516741,-24
2021-09-23 21:12:22.516747,-31
2021-09-23 21:12:22.516753,-36
2021-09-23 21:12:22.516759,-26
2021-09-23 21:12:22.516765,-21
2021-09-23 21:12:22.516771,-19
2021-09-23 21:12:22.516777,-19
2021-09-23 21:12:22.516783,-9
2021-09-23 21:12:22.516788,-2
2021-09-23 21:12:22.516794,-7
2021-09-23 21:12:22.516800,7
2021-09-23 21:12:22.516806,38
2021-09-23 21:12:22.516811,21
2021-09-23 21:12:22.516817,-14
2021-09-23 21:12:22.516823,-21
2021-09-23 21:12:22.516829,-12
2021-09-23 21:12:22.516835,-16
2021-09-23 21:12:22.516841,-16
2021-09-23 21:12:22.516846,9
2021-09-23 21:12:22.516857,48
2021-09-23 21:12:22.696644,170
2021-09-23 21:12:22.696664,492
2021-09-23 21:12:22.696671,918
2021-09-23 21:12:22.696677,889
2021-09-23 21:12:22.696683,-48
2021-09-23 21:12:22.696688,-812
2021-09-23 21:12:22.696694,-420
2021-09-23 21:12:22.696700,-4
2021-09-23 21:12:22.696706,-144
2021-09-23 21:12:22.696711,-132
2021-09-23 21:12:22.696717,-4
2021-09-23 21:12:22.696723,-48
2021-09-23 21:12:22.696729,-64
2021-09-23 21:12:22.696734,-9
2021-09-23 21:12:22.696740,0
2021-09-23 21:12:22.696746,-16
2021-09-23 21:12:22.696752,-9
2021-09-23 21:12:22.696758,7
2021-09-23 21:12:22.696763,12
2021-09-23 21:12:22.696769,16
2021-09-23 21:12:22.696775,28
2021-09-23 21:12:22.696780,40
2021-09-23 21:12:22.696786,50
2021-09-23 21:12:22.696791,69
2021-09-23 21:12:22.696797,88
2021-09-23 21:12:22.696803,98
2021-09-23 21:12:22.696809,103
2021-09-23 21:12:22.696814,117
2021-09-23 21:12:22.696820,132
2021-09-23 21:12:22.696826,144
2021-09-23 21:12:23.055314,146
2021-09-23 21:12:23.055335,134
2021-09-23 21:12:23.055342,108
2021-09-23 21:12:23.055348,74
2021-09-23 21:12:23.055354,38
2021-09-23 21:12:23.055361,0
2021-09-23 21:12:23.055367,-40
2021-09-23 21:12:23.055373,-67
2021-09-23 21:12:23.055379,-91
2021-09-23 21:12:23.055385,-115
2021-09-23 21:12:23.055391,-125
2021-09-23 21:12:23.055396,-122
2021-09-23 21:12:23.055402,-122
2021-09-23 21:12:23.055408,-120
2021-09-23 21:12:23.055414,-120
2021-09-23 21:12:23.055420,-122
2021-09-23 21:12:23.055426,-117
2021-09-23 21:12:23.055432,-101
2021-09-23 21:12:23.055437,-86
2021-09-23 21:12:23.055443,-76
2021-09-23 21:12:23.055449,-69
2021-09-23 21:12:23.055455,-60
2021-09-23 21:12:23.055461,-45
2021-09-23 21:12:23.055467,-31
2021-09-23 21:12:23.055472,-24
2021-09-23 21:12:23.055478,-16
2021-09-23 21:12:23.055484,-9
2021-09-23 21:12:23.055489,-19
2021-09-23 21:12:23.055495,-28
2021-09-23 21:12:23.055501,-19
2021-09-23 21:12:23.191545,-14
2021-09-23 21:12:23.191563,-14
2021-09-23 21:12:23.191570,-16
2021-09-23 21:12:23.191576,-24
2021-09-23 21:12:23.191582,-26
2021-09-23 21:12:23.191587,-21
2021-09-23 21:12:23.191593,-19
2021-09-23 21:12:23.191599,-19
2021-09-23 21:12:23.191605,-21
2021-09-23 21:12:23.191611,-21
2021-09-23 21:12:23.191617,-24
2021-09-23 21:12:23.191623,-28
2021-09-23 21:12:23.191628,-31
2021-09-23 21:12:23.191634,-26
2021-09-23 21:12:23.191640,-19
2021-09-23 21:12:23.191646,-19
2021-09-23 21:12:23.191652,-4
2021-09-23 21:12:23.191658,19
2021-09-23 21:12:23.191663,21
2021-09-23 21:12:23.191669,-4
2021-09-23 21:12:23.191678,-31
2021-09-23 21:12:23.191684,-36
2021-09-23 21:12:23.191690,-21
2021-09-23 21:12:23.191696,-12
2021-09-23 21:12:23.191702,-2
2021-09-23 21:12:23.191708,28
2021-09-23 21:12:23.191713,149
2021-09-23 21:12:23.191719,452
2021-09-23 21:12:23.191725,916
2021-09-23 21:12:23.191731,1026
2021-09-23 21:12:23.416676,228
2021-09-23 21:12:23.416696,-579
2021-09-23 21:12:23.416703,-363
2021-09-23 21:12:23.416709,-2
2021-09-23 21:12:23.416716,-129
2021-09-23 21:12:23.416721,-153
2021-09-23 21:12:23.416727,-31
2021-09-23 21:12:23.416733,-55
2021-09-23 21:12:23.416739,-93
2021-09-23 21:12:23.416745,-48
2021-09-23 21:12:23.416751,-28
2021-09-23 21:12:23.416757,-33
2021-09-23 21:12:23.416762,-19
2021-09-23 21:12:23.416768,-14
2021-09-23 21:12:23.416774,-21
2021-09-23 21:12:23.416780,-9
2021-09-23 21:12:23.416785,4
2021-09-23 21:12:23.416791,12
2021-09-23 21:12:23.416797,19
2021-09-23 21:12:23.416803,31
2021-09-23 21:12:23.416808,38
2021-09-23 21:12:23.416814,50
2021-09-23 21:12:23.416820,60
2021-09-23 21:12:23.416826,69
2021-09-23 21:12:23.416832,81
2021-09-23 21:12:23.416838,86
2021-09-23 21:12:23.416843,81
2021-09-23 21:12:23.416849,74
2021-09-23 21:12:23.416855,69
2021-09-23 21:12:23.416861,57
2021-09-23 21:12:23.641686,33
2021-09-23 21:12:23.641708,-2
2021-09-23 21:12:23.641715,-38
2021-09-23 21:12:23.641721,-62
2021-09-23 21:12:23.641727,-74
2021-09-23 21:12:23.641733,-86
2021-09-23 21:12:23.641739,-93
2021-09-23 21:12:23.641745,-103
2021-09-23 21:12:23.641750,-105
2021-09-23 21:12:23.641756,-103
2021-09-23 21:12:23.641762,-101
2021-09-23 21:12:23.641768,-96
2021-09-23 21:12:23.641774,-91
2021-09-23 21:12:23.641779,-96
2021-09-23 21:12:23.641785,-96
2021-09-23 21:12:23.641792,-91
2021-09-23 21:12:23.641797,-91
2021-09-23 21:12:23.641803,-93
2021-09-23 21:12:23.641809,-86
2021-09-23 21:12:23.641815,-72
2021-09-23 21:12:23.641821,-67
2021-09-23 21:12:23.641827,-60
2021-09-23 21:12:23.641832,-48
2021-09-23 21:12:23.641838,-40
2021-09-23 21:12:23.641844,-38
2021-09-23 21:12:23.641850,-33
2021-09-23 21:12:23.641855,-31
2021-09-23 21:12:23.641861,-28
2021-09-23 21:12:23.641867,-24
2021-09-23 21:12:23.641873,-16
2021-09-23 21:12:23.911671,-14
2021-09-23 21:12:23.911692,-16
2021-09-23 21:12:23.911699,-21
2021-09-23 21:12:23.911705,-26
2021-09-23 21:12:23.911711,-24
2021-09-23 21:12:23.911717,-16
2021-09-23 21:12:23.911723,-26
2021-09-23 21:12:23.911729,-28
2021-09-23 21:12:23.911734,-16
2021-09-23 21:12:23.911740,-12
2021-09-23 21:12:23.911746,4
2021-09-23 21:12:23.911751,21
2021-09-23 21:12:23.911757,2
2021-09-23 21:12:23.911763,-28
2021-09-23 21:12:23.911769,-36
2021-09-23 21:12:23.911775,-24
2021-09-23 21:12:23.911781,-14
2021-09-23 21:12:23.911787,-12
2021-09-23 21:12:23.911793,-2
2021-09-23 21:12:23.911798,50
2021-09-23 21:12:23.911804,230
2021-09-23 21:12:23.911810,608
2021-09-23 21:12:23.911819,1031
2021-09-23 21:12:23.911825,820
2021-09-23 21:12:23.911831,-163
2021-09-23 21:12:23.911837,-610
2021-09-23 21:12:23.911843,-168
2021-09-23 21:12:23.911848,4
2021-09-23 21:12:23.911854,-158
2021-09-23 21:12:23.911860,-91
2021-09-23 21:12:24.136688,-7
2021-09-23 21:12:24.136709,-52
2021-09-23 21:12:24.136716,-43
2021-09-23 21:12:24.136721,0
2021-09-23 21:12:24.136727,-9
2021-09-23 21:12:24.136733,-16
2021-09-23 21:12:24.136739,4
2021-09-23 21:12:24.136745,16
2021-09-23 21:12:24.136751,19
2021-09-23 21:12:24.136756,28
2021-09-23 21:12:24.136762,36
2021-09-23 21:12:24.136768,33
2021-09-23 21:12:24.136774,36
2021-09-23 21:12:24.136780,52
2021-09-23 21:12:24.136786,67
2021-09-23 21:12:24.136792,74
2021-09-23 21:12:24.136797,88
2021-09-23 21:12:24.136803,101
2021-09-23 21:12:24.136809,103
2021-09-23 21:12:24.136815,113
2021-09-23 21:12:24.136821,113
2021-09-23 21:12:24.136827,93
2021-09-23 21:12:24.136833,67
2021-09-23 21:12:24.136838,43
2021-09-23 21:12:24.136844,19
2021-09-23 21:12:24.136850,-12
2021-09-23 21:12:24.136856,-48
2021-09-23 21:12:24.136862,-74
2021-09-23 21:12:24.136867,-93
2021-09-23 21:12:24.136873,-108
2021-09-23 21:12:24.316590,-113
2021-09-23 21:12:24.316608,-113
2021-09-23 21:12:24.316616,-113
2021-09-23 21:12:24.316622,-115
2021-09-23 21:12:24.316628,-113
2021-09-23 21:12:24.316634,-113
2021-09-23 21:12:24.316640,-113
2021-09-23 21:12:24.316645,-110
2021-09-23 21:12:24.316651,-105
2021-09-23 21:12:24.316657,-98
2021-09-23 21:12:24.316663,-88
2021-09-23 21:12:24.316669,-86
2021-09-23 21:12:24.316675,-79
2021-09-23 21:12:24.316681,-64
2021-09-23 21:12:24.316686,-60
2021-09-23 21:12:24.316692,-60
2021-09-23 21:12:24.316698,-60
2021-09-23 21:12:24.316704,-57
2021-09-23 21:12:24.316710,-45
2021-09-23 21:12:24.316715,-36
2021-09-23 21:12:24.316721,-33
2021-09-23 21:12:24.316727,-36
2021-09-23 21:12:24.316733,-36
2021-09-23 21:12:24.316738,-33
2021-09-23 21:12:24.316744,-28
2021-09-23 21:12:24.316750,-28
2021-09-23 21:12:24.316756,-33
2021-09-23 21:12:24.316761,-31
2021-09-23 21:12:24.316767,-26
2021-09-23 21:12:24.316773,-19
2021-09-23 21:12:24.544283,-14
2021-09-23 21:12:24.544302,-9
2021-09-23 21:12:24.544310,-14
2021-09-23 21:12:24.544316,-21
2021-09-23 21:12:24.544322,-21
2021-09-23 21:12:24.544328,-14
2021-09-23 21:12:24.544334,0
2021-09-23 21:12:24.544340,21
2021-09-23 21:12:24.544346,26
2021-09-23 21:12:24.544352,-4
2021-09-23 21:12:24.544357,-43
2021-09-23 21:12:24.544363,-45
2021-09-23 21:12:24.544369,-26
2021-09-23 21:12:24.544375,-14
2021-09-23 21:12:24.544380,-12
2021-09-23 21:12:24.544386,7
2021-09-23 21:12:24.544392,105
2021-09-23 21:12:24.544398,382
2021-09-23 21:12:24.544404,841
2021-09-23 21:12:24.544410,1127
2021-09-23 21:12:24.544416,512
2021-09-23 21:12:24.544422,-541
2021-09-23 21:12:24.544428,-567
2021-09-23 21:12:24.544434,-36
2021-09-23 21:12:24.544439,-62
2021-09-23 21:12:24.544445,-170
2021-09-23 21:12:24.544451,-40
2021-09-23 21:12:24.544457,-28
2021-09-23 21:12:24.544463,-84
2021-09-23 21:12:24.544469,-38
2021-09-23 21:12:24.855899,-7
2021-09-23 21:12:24.855916,-28
2021-09-23 21:12:24.855923,-16
2021-09-23 21:12:24.855929,2
2021-09-23 21:12:24.855935,-2
2021-09-23 21:12:24.855944,9
2021-09-23 21:12:24.855950,28
2021-09-23 21:12:24.855956,43
2021-09-23 21:12:24.855962,45
2021-09-23 21:12:24.855968,48
2021-09-23 21:12:24.855974,60
2021-09-23 21:12:24.855979,79
2021-09-23 21:12:24.855985,91
2021-09-23 21:12:24.855991,103
2021-09-23 21:12:24.855997,108
2021-09-23 21:12:24.856003,108
2021-09-23 21:12:24.856009,108
2021-09-23 21:12:24.856015,101
2021-09-23 21:12:24.856021,88
2021-09-23 21:12:24.856026,79
2021-09-23 21:12:24.856032,52
2021-09-23 21:12:24.856038,14
2021-09-23 21:12:24.856044,-9
2021-09-23 21:12:24.856050,-26
2021-09-23 21:12:24.856056,-55
2021-09-23 21:12:24.856062,-79
2021-09-23 21:12:24.856068,-88
2021-09-23 21:12:24.856073,-96
2021-09-23 21:12:24.856079,-98
2021-09-23 21:12:24.856085,-98
2021-09-23 21:12:25.080171,-93
2021-09-23 21:12:25.080188,-88
2021-09-23 21:12:25.080195,-93
2021-09-23 21:12:25.080201,-93
2021-09-23 21:12:25.080207,-81
2021-09-23 21:12:25.080212,-72
2021-09-23 21:12:25.080218,-69
2021-09-23 21:12:25.080224,-64
2021-09-23 21:12:25.080230,-62
2021-09-23 21:12:25.080236,-62
2021-09-23 21:12:25.080242,-60
2021-09-23 21:12:25.080247,-52
2021-09-23 21:12:25.080253,-43
2021-09-23 21:12:25.080259,-40
2021-09-23 21:12:25.080264,-50
2021-09-23 21:12:25.080270,-60
2021-09-23 21:12:25.080276,-52
2021-09-23 21:12:25.080282,-45
2021-09-23 21:12:25.080288,-40
2021-09-23 21:12:25.080293,-43
2021-09-23 21:12:25.080299,-48
2021-09-23 21:12:25.080304,-43
2021-09-23 21:12:25.080310,-31
2021-09-23 21:12:25.080316,-36
2021-09-23 21:12:25.080321,-43
2021-09-23 21:12:25.080327,-38
2021-09-23 21:12:25.080333,-36
2021-09-23 21:12:25.080338,-33
2021-09-23 21:12:25.080344,-24
2021-09-23 21:12:25.080350,-14
2021-09-23 21:12:25.261520,-16
2021-09-23 21:12:25.261537,-14
2021-09-23 21:12:25.261544,-7
2021-09-23 21:12:25.261550,-12
2021-09-23 21:12:25.261556,-12
2021-09-23 21:12:25.261562,9
2021-09-23 21:12:25.261568,7
2021-09-23 21:12:25.261574,-24
2021-09-23 21:12:25.261580,-48
2021-09-23 21:12:25.261586,-50
2021-09-23 21:12:25.261591,-40
2021-09-23 21:12:25.261597,-28
2021-09-23 21:12:25.261603,-12
2021-09-23 21:12:25.261609,12
2021-09-23 21:12:25.261614,132
2021-09-23 21:12:25.261620,461
2021-09-23 21:12:25.261626,923
2021-09-23 21:12:25.261632,969
2021-09-23 21:12:25.261637,43
2021-09-23 21:12:25.261643,-832
2021-09-23 21:12:25.261649,-485
2021-09-23 21:12:25.261655,-4
2021-09-23 21:12:25.261660,-137
2021-09-23 21:12:25.261666,-149
2021-09-23 21:12:25.261672,-4
2021-09-23 21:12:25.261677,-33
2021-09-23 21:12:25.261683,-62
2021-09-23 21:12:25.261689,-7
2021-09-23 21:12:25.261695,2
2021-09-23 21:12:25.261700,-9
2021-09-23 21:12:25.486605,14
2021-09-23 21:12:25.486625,28
2021-09-23 21:12:25.486632,26
2021-09-23 21:12:25.486638,43
2021-09-23 21:12:25.486644,60
2021-09-23 21:12:25.486650,69
2021-09-23 21:12:25.486656,79
2021-09-23 21:12:25.486662,81
2021-09-23 21:12:25.486667,88
2021-09-23 21:12:25.486673,108
2021-09-23 21:12:25.486679,127
2021-09-23 21:12:25.486685,139
2021-09-23 21:12:25.486691,149
2021-09-23 21:12:25.486696,144
2021-09-23 21:12:25.486702,125
2021-09-23 21:12:25.486708,103
2021-09-23 21:12:25.486714,88
2021-09-23 21:12:25.486720,69
2021-09-23 21:12:25.486726,36
2021-09-23 21:12:25.486731,0
2021-09-23 21:12:25.486737,-31
2021-09-23 21:12:25.486743,-60
2021-09-23 21:12:25.486749,-76
2021-09-23 21:12:25.486755,-93
2021-09-23 21:12:25.486761,-105
2021-09-23 21:12:25.486767,-110
2021-09-23 21:12:25.486773,-113
2021-09-23 21:12:25.486779,-113
2021-09-23 21:12:25.486784,-110
2021-09-23 21:12:25.486790,-101
2021-09-23 21:12:25.755959,-98
2021-09-23 21:12:25.755982,-96
2021-09-23 21:12:25.755989,-84
2021-09-23 21:12:25.755995,-76
2021-09-23 21:12:25.756001,-67
2021-09-23 21:12:25.756007,-50
2021-09-23 21:12:25.756012,-45
2021-09-23 21:12:25.756018,-48
2021-09-23 21:12:25.756023,-48
2021-09-23 21:12:25.756029,-57
2021-09-23 21:12:25.756035,-64
2021-09-23 21:12:25.756041,-60
2021-09-23 21:12:25.756046,-60
2021-09-23 21:12:25.756052,-72
2021-09-23 21:12:25.756058,-67
2021-09-23 21:12:25.756063,-57
2021-09-23 21:12:25.756069,-60
2021-09-23 21:12:25.756075,-60
2021-09-23 21:12:25.756081,-57
2021-09-23 21:12:25.756087,-64
2021-09-23 21:12:25.756092,-69
2021-09-23 21:12:25.756098,-60
2021-09-23 21:12:25.756103,-45
2021-09-23 21:12:25.756109,-43
2021-09-23 21:12:25.756115,-48
2021-09-23 21:12:25.756120,-38
2021-09-23 21:12:25.756126,-24
2021-09-23 21:12:25.756132,-19
2021-09-23 21:12:25.756137,-9
2021-09-23 21:12:25.756143,4
2021-09-23 21:12:25.936537,-7
2021-09-23 21:12:25.936555,-33
2021-09-23 21:12:25.936562,-43
2021-09-23 21:12:25.936568,-36
2021-09-23 21:12:25.936574,-26
2021-09-23 21:12:25.936580,-24
2021-09-23 21:12:25.936585,-19
2021-09-23 21:12:25.936591,19
2021-09-23 21:12:25.936597,180
2021-09-23 21:12:25.936603,543
2021-09-23 21:12:25.936608,976
2021-09-23 21:12:25.936614,853
2021-09-23 21:12:25.936620,-168
2021-09-23 21:12:25.936626,-810
2021-09-23 21:12:25.936632,-327
2021-09-23 21:12:25.936637,7
2021-09-23 21:12:25.936643,-158
2021-09-23 21:12:25.936649,-105
2021-09-23 21:12:25.936655,12
2021-09-23 21:12:25.936661,-43
2021-09-23 21:12:25.936666,-50
2021-09-23 21:12:25.936672,-2
2021-09-23 21:12:25.936678,-7
2021-09-23 21:12:25.936683,-12
2021-09-23 21:12:25.936689,12
2021-09-23 21:12:25.936695,21
2021-09-23 21:12:25.936700,24
2021-09-23 21:12:25.936706,43
2021-09-23 21:12:25.936712,57
2021-09-23 21:12:25.936718,62
2021-09-23 21:12:26.161552,69
2021-09-23 21:12:26.161570,86
2021-09-23 21:12:26.161577,101
2021-09-23 21:12:26.161583,110
2021-09-23 21:12:26.161589,117
2021-09-23 21:12:26.161594,122
2021-09-23 21:12:26.161600,127
2021-09-23 21:12:26.161606,134
2021-09-23 21:12:26.161612,129
2021-09-23 21:12:26.161617,110
2021-09-23 21:12:26.161623,84
2021-09-23 21:12:26.161629,52
2021-09-23 21:12:26.161635,26
2021-09-23 21:12:26.161641,-2
2021-09-23 21:12:26.161647,-40
2021-09-23 21:12:26.161652,-81
2021-09-23 21:12:26.161658,-103
2021-09-23 21:12:26.161664,-110
2021-09-23 21:12:26.161670,-117
2021-09-23 21:12:26.161675,-122
2021-09-23 21:12:26.161681,-122
2021-09-23 21:12:26.161687,-122
2021-09-23 21:12:26.161693,-120
2021-09-23 21:12:26.161698,-110
2021-09-23 21:12:26.161704,-105
2021-09-23 21:12:26.161710,-101
2021-09-23 21:12:26.161716,-88
2021-09-23 21:12:26.161722,-79
2021-09-23 21:12:26.161728,-72
2021-09-23 21:12:26.161733,-60
2021-09-23 21:12:26.386548,-43
2021-09-23 21:12:26.386565,-38
2021-09-23 21:12:26.386572,-38
2021-09-23 21:12:26.386579,-38
2021-09-23 21:12:26.386585,-40
2021-09-23 21:12:26.386591,-45
2021-09-23 21:12:26.386597,-43
2021-09-23 21:12:26.386602,-40
2021-09-23 21:12:26.386608,-40
2021-09-23 21:12:26.386614,-43
2021-09-23 21:12:26.386620,-50
2021-09-23 21:12:26.386626,-52
2021-09-23 21:12:26.386632,-45
2021-09-23 21:12:26.386637,-38
2021-09-23 21:12:26.386643,-33
2021-09-23 21:12:26.386649,-33
2021-09-23 21:12:26.386655,-36
2021-09-23 21:12:26.386661,-33
2021-09-23 21:12:26.386666,-28
2021-09-23 21:12:26.386672,-26
2021-09-23 21:12:26.386677,-21
2021-09-23 21:12:26.386683,-12
2021-09-23 21:12:26.386689,-9
2021-09-23 21:12:26.386695,2
2021-09-23 21:12:26.386700,16
2021-09-23 21:12:26.386706,0
2021-09-23 21:12:26.386712,-33
2021-09-23 21:12:26.386717,-40
2021-09-23 21:12:26.386723,-28
2021-09-23 21:12:26.386728,-21
2021-09-23 21:12:26.700984,-19
2021-09-23 21:12:26.701002,2
2021-09-23 21:12:26.701009,69
2021-09-23 21:12:26.701015,259
2021-09-23 21:12:26.701021,670
2021-09-23 21:12:26.701027,1079
2021-09-23 21:12:26.701033,721
2021-09-23 21:12:26.701039,-312
2021-09-23 21:12:26.701044,-589
2021-09-23 21:12:26.701050,-108
2021-09-23 21:12:26.701056,-38
2021-09-23 21:12:26.701065,-187
2021-09-23 21:12:26.701071,-86
2021-09-23 21:12:26.701076,-26
2021-09-23 21:12:26.701082,-76
2021-09-23 21:12:26.701088,-52
2021-09-23 21:12:26.701093,-12
2021-09-23 21:12:26.701099,-19
2021-09-23 21:12:26.701105,-14
2021-09-23 21:12:26.701110,2
2021-09-23 21:12:26.701116,-2
2021-09-23 21:12:26.701122,-14
2021-09-23 21:12:26.701128,-2
2021-09-23 21:12:26.701133,14
2021-09-23 21:12:26.701139,24
2021-09-23 21:12:26.701145,36
2021-09-23 21:12:26.701150,50
2021-09-23 21:12:26.701156,57
2021-09-23 21:12:26.701162,64
2021-09-23 21:12:26.701167,72
2021-09-23 21:12:26.881535,91
2021-09-23 21:12:26.881552,101
2021-09-23 21:12:26.881559,96
2021-09-23 21:12:26.881565,84
2021-09-23 21:12:26.881571,74
2021-09-23 21:12:26.881577,67
2021-09-23 21:12:26.881583,45
2021-09-23 21:12:26.881589,12
2021-09-23 21:12:26.881595,-21
2021-09-23 21:12:26.881601,-52
2021-09-23 21:12:26.881607,-72
2021-09-23 21:12:26.881613,-79
2021-09-23 21:12:26.881619,-84
2021-09-23 21:12:26.881625,-88
2021-09-23 21:12:26.881631,-96
2021-09-23 21:12:26.881637,-103
2021-09-23 21:12:26.881643,-98
2021-09-23 21:12:26.881648,-91
2021-09-23 21:12:26.881654,-84
2021-09-23 21:12:26.881660,-81
2021-09-23 21:12:26.881666,-84
2021-09-23 21:12:26.881672,-88
2021-09-23 21:12:26.881677,-86
2021-09-23 21:12:26.881683,-74
2021-09-23 21:12:26.881689,-72
2021-09-23 21:12:26.881695,-69
2021-09-23 21:12:26.881700,-62
2021-09-23 21:12:26.881706,-57
2021-09-23 21:12:26.881712,-50
2021-09-23 21:12:26.881718,-43
2021-09-23 21:12:27.150206,-45
2021-09-23 21:12:27.150224,-50
2021-09-23 21:12:27.150232,-48
2021-09-23 21:12:27.150238,-45
2021-09-23 21:12:27.150244,-43
2021-09-23 21:12:27.150250,-38
2021-09-23 21:12:27.150256,-38
2021-09-23 21:12:27.150262,-40
2021-09-23 21:12:27.150268,-45
2021-09-23 21:12:27.150273,-48
2021-09-23 21:12:27.150279,-38
2021-09-23 21:12:27.150285,-31
2021-09-23 21:12:27.150291,-31
2021-09-23 21:12:27.150297,-36
2021-09-23 21:12:27.150303,-36
2021-09-23 21:12:27.150309,-33
2021-09-23 21:12:27.150315,-26
2021-09-23 21:12:27.150320,-12
2021-09-23 21:12:27.150326,-7
2021-09-23 21:12:27.150332,-16
2021-09-23 21:12:27.150337,-33
2021-09-23 21:12:27.150343,-40
2021-09-23 21:12:27.150349,-28
2021-09-23 21:12:27.150355,-19
2021-09-23 21:12:27.150360,-14
2021-09-23 21:12:27.150366,2
2021-09-23 21:12:27.150372,64
2021-09-23 21:12:27.150377,254
2021-09-23 21:12:27.150383,639
2021-09-23 21:12:27.150389,990
2021-09-23 21:12:27.421582,620
2021-09-23 21:12:27.421600,-372
2021-09-23 21:12:27.421607,-620
2021-09-23 21:12:27.421613,-122
2021-09-23 21:12:27.421619,-33
2021-09-23 21:12:27.421625,-175
2021-09-23 21:12:27.421631,-74
2021-09-23 21:12:27.421637,-21
2021-09-23 21:12:27.421643,-81
2021-09-23 21:12:27.421648,-62
2021-09-23 21:12:27.421654,-19
2021-09-23 21:12:27.421660,-21
2021-09-23 21:12:27.421666,-16
2021-09-23 21:12:27.421672,-4
2021-09-23 21:12:27.421677,-4
2021-09-23 21:12:27.421683,2
2021-09-23 21:12:27.421689,21
2021-09-23 21:12:27.421695,28
2021-09-23 21:12:27.421701,36
2021-09-23 21:12:27.421707,48
2021-09-23 21:12:27.421713,55
2021-09-23 21:12:27.421718,64
2021-09-23 21:12:27.421724,81
2021-09-23 21:12:27.421730,98
2021-09-23 21:12:27.421736,105
2021-09-23 21:12:27.421742,108
2021-09-23 21:12:27.421748,108
2021-09-23 21:12:27.421754,103
2021-09-23 21:12:27.421759,93
2021-09-23 21:12:27.421765,72
2021-09-23 21:12:27.601598,40
2021-09-23 21:12:27.601616,21
2021-09-23 21:12:27.601623,0
2021-09-23 21:12:27.601629,-33
2021-09-23 21:12:27.601635,-57
2021-09-23 21:12:27.601641,-72
2021-09-23 21:12:27.601647,-84
2021-09-23 21:12:27.601653,-86
2021-09-23 21:12:27.601659,-86
2021-09-23 21:12:27.601664,-88
2021-09-23 21:12:27.601670,-86
2021-09-23 21:12:27.601676,-76
2021-09-23 21:12:27.601681,-69
2021-09-23 21:12:27.601687,-64
2021-09-23 21:12:27.601693,-67
2021-09-23 21:12:27.601698,-74
2021-09-23 21:12:27.601704,-67
2021-09-23 21:12:27.601710,-52
2021-09-23 21:12:27.601715,-48
2021-09-23 21:12:27.601721,-38
2021-09-23 21:12:27.601727,-36
2021-09-23 21:12:27.601733,-45
2021-09-23 21:12:27.601738,-40
2021-09-23 21:12:27.601744,-28
2021-09-23 21:12:27.601750,-31
2021-09-23 21:12:27.601755,-33
2021-09-23 21:12:27.601761,-28
2021-09-23 21:12:27.601767,-33
2021-09-23 21:12:27.601773,-31
2021-09-23 21:12:27.601778,-28
2021-09-23 21:12:27.781560,-28
2021-09-23 21:12:27.781576,-28
2021-09-23 21:12:27.781583,-33
2021-09-23 21:12:27.781589,-36
2021-09-23 21:12:27.781595,-28
2021-09-23 21:12:27.781601,-33
2021-09-23 21:12:27.781607,-45
2021-09-23 21:12:27.781613,-33
2021-09-23 21:12:27.781625,-12
2021-09-23 21:12:27.781631,-7
2021-09-23 21:12:27.781637,-4
2021-09-23 21:12:27.781643,-7
2021-09-23 21:12:27.781649,-26
2021-09-23 21:12:27.781655,-45
2021-09-23 21:12:27.781661,-40
2021-09-23 21:12:27.781666,-21
2021-09-23 21:12:27.781672,-21
2021-09-23 21:12:27.781678,-21
2021-09-23 21:12:27.781684,16
2021-09-23 21:12:27.781689,156
2021-09-23 21:12:27.781695,447
2021-09-23 21:12:27.781701,791
2021-09-23 21:12:27.781706,719
2021-09-23 21:12:27.781712,-132
2021-09-23 21:12:27.781718,-767
2021-09-23 21:12:27.781723,-360
2021-09-23 21:12:27.781729,28
2021-09-23 21:12:27.781735,-98
2021-09-23 21:12:27.781741,-88
2021-09-23 21:12:27.781746,26
2021-09-23 21:12:28.051566,-12
2021-09-23 21:12:28.051583,-26
2021-09-23 21:12:28.051590,26
2021-09-23 21:12:28.051596,36
2021-09-23 21:12:28.051602,26
2021-09-23 21:12:28.051608,36
2021-09-23 21:12:28.051614,45
2021-09-23 21:12:28.051620,50
2021-09-23 21:12:28.051626,52
2021-09-23 21:12:28.051631,55
2021-09-23 21:12:28.051637,62
2021-09-23 21:12:28.051643,69
2021-09-23 21:12:28.051649,79
2021-09-23 21:12:28.051655,98
2021-09-23 21:12:28.051660,115
2021-09-23 21:12:28.051666,127
2021-09-23 21:12:28.051672,134
2021-09-23 21:12:28.051678,137
2021-09-23 21:12:28.051684,132
2021-09-23 21:12:28.051689,132
2021-09-23 21:12:28.051695,122
2021-09-23 21:12:28.051701,91
2021-09-23 21:12:28.051706,64
2021-09-23 21:12:28.051712,36
2021-09-23 21:12:28.051718,-2
2021-09-23 21:12:28.051723,-36
2021-09-23 21:12:28.051729,-62
2021-09-23 21:12:28.051735,-84
2021-09-23 21:12:28.051741,-101
2021-09-23 21:12:28.051746,-110
2021-09-23 21:12:28.275957,-110
2021-09-23 21:12:28.275973,-105
2021-09-23 21:12:28.275980,-101
2021-09-23 21:12:28.275986,-98
2021-09-23 21:12:28.275992,-96
2021-09-23 21:12:28.275998,-91
2021-09-23 21:12:28.276004,-81
2021-09-23 21:12:28.276010,-74
2021-09-23 21:12:28.276016,-74
2021-09-23 21:12:28.276022,-67
2021-09-23 21:12:28.276027,-57
2021-09-23 21:12:28.276033,-55
2021-09-23 21:12:28.276039,-50
2021-09-23 21:12:28.276045,-43
2021-09-23 21:12:28.276051,-50
2021-09-23 21:12:28.276057,-57
2021-09-23 21:12:28.276062,-57
2021-09-23 21:12:28.276068,-57
2021-09-23 21:12:28.276074,-57
2021-09-23 21:12:28.276080,-55
2021-09-23 21:12:28.276085,-50
2021-09-23 21:12:28.276091,-52
2021-09-23 21:12:28.276097,-62
2021-09-23 21:12:28.276103,-50
2021-09-23 21:12:28.276109,-31
2021-09-23 21:12:28.276114,-24
2021-09-23 21:12:28.276120,-24
2021-09-23 21:12:28.276126,-26
2021-09-23 21:12:28.276132,-38
2021-09-23 21:12:28.276137,-50
2021-09-23 21:12:28.456540,-48
2021-09-23 21:12:28.456556,-38
2021-09-23 21:12:28.456563,-31
2021-09-23 21:12:28.456569,-31
2021-09-23 21:12:28.456575,-7
2021-09-23 21:12:28.456581,105
2021-09-23 21:12:28.456587,377
2021-09-23 21:12:28.456592,759
2021-09-23 21:12:28.456598,824
2021-09-23 21:12:28.456604,79
2021-09-23 21:12:28.456609,-697
2021-09-23 21:12:28.456615,-449
2021-09-23 21:12:28.456621,-12
2021-09-23 21:12:28.456627,-101
2021-09-23 21:12:28.456632,-134
2021-09-23 21:12:28.456638,-19
2021-09-23 21:12:28.456644,-38
2021-09-23 21:12:28.456649,-57
2021-09-23 21:12:28.456655,-16
2021-09-23 21:12:28.456661,-12
2021-09-23 21:12:28.456666,-16
2021-09-23 21:12:28.456672,4
2021-09-23 21:12:28.456678,14
2021-09-23 21:12:28.456684,14
2021-09-23 21:12:28.456689,28
2021-09-23 21:12:28.456695,45
2021-09-23 21:12:28.456701,52
2021-09-23 21:12:28.456707,55
2021-09-23 21:12:28.456712,64
2021-09-23 21:12:28.456718,84
2021-09-23 21:12:28.726669,103
2021-09-23 21:12:28.726689,113
2021-09-23 21:12:28.726696,117
2021-09-23 21:12:28.726702,113
2021-09-23 21:12:28.726708,103
2021-09-23 21:12:28.726714,101
2021-09-23 21:12:28.726720,93
2021-09-23 21:12:28.726726,74
2021-09-23 21:12:28.726731,48
2021-09-23 21:12:28.726737,16
2021-09-23 21:12:28.726743,-9
2021-09-23 21:12:28.726749,-31
2021-09-23 21:12:28.726755,-50
2021-09-23 21:12:28.726760,-76
2021-09-23 21:12:28.726766,-108
2021-09-23 21:12:28.726772,-117
2021-09-23 21:12:28.726778,-108
2021-09-23 21:12:28.726784,-103
2021-09-23 21:12:28.726790,-108
2021-09-23 21:12:28.726795,-98
2021-09-23 21:12:28.726801,-81
2021-09-23 21:12:28.726807,-74
2021-09-23 21:12:28.726813,-67
2021-09-23 21:12:28.726818,-55
2021-09-23 21:12:28.726824,-48
2021-09-23 21:12:28.726830,-45
2021-09-23 21:12:28.726835,-36
2021-09-23 21:12:28.726841,-36
2021-09-23 21:12:28.726847,-33
2021-09-23 21:12:28.726853,-26
2021-09-23 21:12:28.951602,-26
2021-09-23 21:12:28.951620,-26
2021-09-23 21:12:28.951627,-28
2021-09-23 21:12:28.951634,-28
2021-09-23 21:12:28.951639,-26
2021-09-23 21:12:28.951645,-21
2021-09-23 21:12:28.951651,-21
2021-09-23 21:12:28.951657,-24
2021-09-23 21:12:28.951663,-33
2021-09-23 21:12:28.951668,-43
2021-09-23 21:12:28.951674,-38
2021-09-23 21:12:28.951680,-24
2021-09-23 21:12:28.951686,-21
2021-09-23 21:12:28.951692,-26
2021-09-23 21:12:28.951697,-28
2021-09-23 21:12:28.951703,-43
2021-09-23 21:12:28.951708,-60
2021-09-23 21:12:28.951714,-60
2021-09-23 21:12:28.951720,-48
2021-09-23 21:12:28.951725,-45
2021-09-23 21:12:28.951731,-40
2021-09-23 21:12:28.951737,-4
2021-09-23 21:12:28.951743,113
2021-09-23 21:12:28.951754,375
2021-09-23 21:12:28.951760,757
2021-09-23 21:12:28.951766,815
2021-09-23 21:12:28.951771,62
2021-09-23 21:12:28.951777,-642
2021-09-23 21:12:28.951783,-358
2021-09-23 21:12:28.951788,14
2021-09-23 21:12:29.220218,-110
2021-09-23 21:12:29.220236,-127
2021-09-23 21:12:29.220243,-14
2021-09-23 21:12:29.220249,-43
2021-09-23 21:12:29.220255,-60
2021-09-23 21:12:29.220261,-7
2021-09-23 21:12:29.220267,-2
2021-09-23 21:12:29.220273,-16
2021-09-23 21:12:29.220279,-4
2021-09-23 21:12:29.220285,7
2021-09-23 21:12:29.220290,9
2021-09-23 21:12:29.220296,19
2021-09-23 21:12:29.220302,36
2021-09-23 21:12:29.220308,38
2021-09-23 21:12:29.220314,33
2021-09-23 21:12:29.220320,48
2021-09-23 21:12:29.220325,67
2021-09-23 21:12:29.220331,74
2021-09-23 21:12:29.220337,76
2021-09-23 21:12:29.220343,69
2021-09-23 21:12:29.220348,64
2021-09-23 21:12:29.220354,67
2021-09-23 21:12:29.220360,67
2021-09-23 21:12:29.220366,57
2021-09-23 21:12:29.220371,43
2021-09-23 21:12:29.220377,26
2021-09-23 21:12:29.220383,7
2021-09-23 21:12:29.220389,-21
2021-09-23 21:12:29.220394,-40
2021-09-23 21:12:29.220400,-52
2021-09-23 21:12:29.401628,-64
2021-09-23 21:12:29.401647,-72
2021-09-23 21:12:29.401654,-76
2021-09-23 21:12:29.401660,-81
2021-09-23 21:12:29.401666,-81
2021-09-23 21:12:29.401672,-74
2021-09-23 21:12:29.401678,-69
2021-09-23 21:12:29.401684,-74
2021-09-23 21:12:29.401689,-69
2021-09-23 21:12:29.401695,-52
2021-09-23 21:12:29.401701,-45
2021-09-23 21:12:29.401707,-43
2021-09-23 21:12:29.401713,-43
2021-09-23 21:12:29.401719,-43
2021-09-23 21:12:29.401724,-36
2021-09-23 21:12:29.401730,-28
2021-09-23 21:12:29.401736,-24
2021-09-23 21:12:29.401742,-19
2021-09-23 21:12:29.401748,-26
2021-09-23 21:12:29.401754,-31
2021-09-23 21:12:29.401760,-26
2021-09-23 21:12:29.401765,-31
2021-09-23 21:12:29.401771,-33
2021-09-23 21:12:29.401777,-33
2021-09-23 21:12:29.401783,-36
2021-09-23 21:12:29.401789,-28
2021-09-23 21:12:29.401794,-14
2021-09-23 21:12:29.401800,-9
2021-09-23 21:12:29.401806,-9
2021-09-23 21:12:29.401812,-4
2021-09-23 21:12:29.626623,-9
2021-09-23 21:12:29.626641,-26
2021-09-23 21:12:29.626648,-36
2021-09-23 21:12:29.626654,-33
2021-09-23 21:12:29.626660,-28
2021-09-23 21:12:29.626666,-24
2021-09-23 21:12:29.626672,-14
2021-09-23 21:12:29.626678,52
2021-09-23 21:12:29.626684,259
2021-09-23 21:12:29.626690,613
2021-09-23 21:12:29.626695,880
2021-09-23 21:12:29.626701,437
2021-09-23 21:12:29.626707,-466
2021-09-23 21:12:29.626713,-555
2021-09-23 21:12:29.626719,-67
2021-09-23 21:12:29.626725,-50
2021-09-23 21:12:29.626730,-170
2021-09-23 21:12:29.626736,-60
2021-09-23 21:12:29.626742,-28
2021-09-23 21:12:29.626748,-76
2021-09-23 21:12:29.626753,-45
2021-09-23 21:12:29.626759,-12
2021-09-23 21:12:29.626765,-24
2021-09-23 21:12:29.626771,-26
2021-09-23 21:12:29.626777,-16
2021-09-23 21:12:29.626782,-12
2021-09-23 21:12:29.626788,2
2021-09-23 21:12:29.626794,12
2021-09-23 21:12:29.626800,14
2021-09-23 21:12:29.626806,21
2021-09-23 21:12:29.895879,31
2021-09-23 21:12:29.895894,45
2021-09-23 21:12:29.895898,57
2021-09-23 21:12:29.895901,64
2021-09-23 21:12:29.895904,76
2021-09-23 21:12:29.895907,79
2021-09-23 21:12:29.895910,72
2021-09-23 21:12:29.895913,67
2021-09-23 21:12:29.895916,60
2021-09-23 21:12:29.895919,43
2021-09-23 21:12:29.895923,26
2021-09-23 21:12:29.895926,4
2021-09-23 21:12:29.895929,-21
2021-09-23 21:12:29.895932,-40
2021-09-23 21:12:29.895935,-57
2021-09-23 21:12:29.895938,-74
2021-09-23 21:12:29.895941,-81
2021-09-23 21:12:29.895944,-88
2021-09-23 21:12:29.895947,-93
2021-09-23 21:12:29.895950,-81
2021-09-23 21:12:29.895953,-76
2021-09-23 21:12:29.895956,-74
2021-09-23 21:12:29.895959,-67
2021-09-23 21:12:29.895963,-60
2021-09-23 21:12:29.895966,-57
2021-09-23 21:12:29.895969,-55
2021-09-23 21:12:29.895972,-50
2021-09-23 21:12:29.895975,-45
2021-09-23 21:12:29.895978,-43
2021-09-23 21:12:29.895981,-36
2021-09-23 21:12:30.076646,-28
2021-09-23 21:12:30.076664,-28
2021-09-23 21:12:30.076671,-28
2021-09-23 21:12:30.076678,-24
2021-09-23 21:12:30.076684,-21
2021-09-23 21:12:30.076689,-24
2021-09-23 21:12:30.076695,-21
2021-09-23 21:12:30.076701,-19
2021-09-23 21:12:30.076707,-19
2021-09-23 21:12:30.076713,-21
2021-09-23 21:12:30.076718,-16
2021-09-23 21:12:30.076724,-9
2021-09-23 21:12:30.076730,-9
2021-09-23 21:12:30.076736,-9
2021-09-23 21:12:30.076742,-9
2021-09-23 21:12:30.076747,-24
2021-09-23 21:12:30.076753,-43
2021-09-23 21:12:30.076759,-40
2021-09-23 21:12:30.076765,-26
2021-09-23 21:12:30.076770,-16
2021-09-23 21:12:30.076776,-4
2021-09-23 21:12:30.076782,38
2021-09-23 21:12:30.076788,204
2021-09-23 21:12:30.076794,555
2021-09-23 21:12:30.076799,952
2021-09-23 21:12:30.076805,798
2021-09-23 21:12:30.076811,-180
2021-09-23 21:12:30.076817,-750
2021-09-23 21:12:30.076822,-278
2021-09-23 21:12:30.076828,7
2021-09-23 21:12:30.301611,-170
2021-09-23 21:12:30.301628,-127
2021-09-23 21:12:30.301636,-21
2021-09-23 21:12:30.301642,-76
2021-09-23 21:12:30.301648,-88
2021-09-23 21:12:30.301654,-40
2021-09-23 21:12:30.301660,-36
2021-09-23 21:12:30.301666,-33
2021-09-23 21:12:30.301671,-9
2021-09-23 21:12:30.301677,-4
2021-09-23 21:12:30.301683,-9
2021-09-23 21:12:30.301688,4
2021-09-23 21:12:30.301694,26
2021-09-23 21:12:30.301700,33
2021-09-23 21:12:30.301705,43
2021-09-23 21:12:30.301711,57
2021-09-23 21:12:30.301717,67
2021-09-23 21:12:30.301723,81
2021-09-23 21:12:30.301728,91
2021-09-23 21:12:30.301734,98
2021-09-23 21:12:30.301740,98
2021-09-23 21:12:30.301746,88
2021-09-23 21:12:30.301751,76
2021-09-23 21:12:30.301757,64
2021-09-23 21:12:30.301762,48
2021-09-23 21:12:30.301768,28
2021-09-23 21:12:30.301773,7
2021-09-23 21:12:30.301779,-19
2021-09-23 21:12:30.301785,-45
2021-09-23 21:12:30.301794,-62
2021-09-23 21:12:30.571690,-76
2021-09-23 21:12:30.571709,-86
2021-09-23 21:12:30.571716,-88
2021-09-23 21:12:30.571722,-98
2021-09-23 21:12:30.571728,-101
2021-09-23 21:12:30.571733,-84
2021-09-23 21:12:30.571739,-76
2021-09-23 21:12:30.571745,-64
2021-09-23 21:12:30.571751,-55
2021-09-23 21:12:30.571756,-60
2021-09-23 21:12:30.571762,-52
2021-09-23 21:12:30.571768,-36
2021-09-23 21:12:30.571773,-28
2021-09-23 21:12:30.571779,-28
2021-09-23 21:12:30.571785,-28
2021-09-23 21:12:30.571790,-33
2021-09-23 21:12:30.571796,-33
2021-09-23 21:12:30.571802,-24
2021-09-23 21:12:30.571807,-21
2021-09-23 21:12:30.571813,-21
2021-09-23 21:12:30.571818,-24
2021-09-23 21:12:30.571824,-26
2021-09-23 21:12:30.571830,-26
2021-09-23 21:12:30.571835,-19
2021-09-23 21:12:30.571841,-21
2021-09-23 21:12:30.571847,-14
2021-09-23 21:12:30.571852,4
2021-09-23 21:12:30.571858,7
2021-09-23 21:12:30.571864,2
2021-09-23 21:12:30.571870,4
2021-09-23 21:12:30.796663,-12
2021-09-23 21:12:30.796683,-33
2021-09-23 21:12:30.796690,-36
2021-09-23 21:12:30.796696,-24
2021-09-23 21:12:30.796702,-16
2021-09-23 21:12:30.796708,-9
2021-09-23 21:12:30.796713,28
2021-09-23 21:12:30.796719,197
2021-09-23 21:12:30.796725,572
2021-09-23 21:12:30.796731,985
2021-09-23 21:12:30.796736,779
2021-09-23 21:12:30.796742,-274
2021-09-23 21:12:30.796747,-803
2021-09-23 21:12:30.796753,-269
2021-09-23 21:12:30.796758,-2
2021-09-23 21:12:30.796764,-187
2021-09-23 21:12:30.796770,-115
2021-09-23 21:12:30.796776,-7
2021-09-23 21:12:30.796781,-62
2021-09-23 21:12:30.796787,-60
2021-09-23 21:12:30.796793,-16
2021-09-23 21:12:30.796799,-26
2021-09-23 21:12:30.796805,-24
2021-09-23 21:12:30.796811,0
2021-09-23 21:12:30.796816,2
2021-09-23 21:12:30.796822,0
2021-09-23 21:12:30.796827,14
2021-09-23 21:12:30.796833,26
2021-09-23 21:12:30.796839,28
2021-09-23 21:12:30.796844,43
2021-09-23 21:12:31.021645,57
2021-09-23 21:12:31.021664,69
2021-09-23 21:12:31.021671,76
2021-09-23 21:12:31.021677,79
2021-09-23 21:12:31.021683,86
2021-09-23 21:12:31.021689,88
2021-09-23 21:12:31.021694,72
2021-09-23 21:12:31.021700,55
2021-09-23 21:12:31.021706,38
2021-09-23 21:12:31.021712,19
2021-09-23 21:12:31.021718,4
2021-09-23 21:12:31.021723,-16
2021-09-23 21:12:31.021729,-40
2021-09-23 21:12:31.021735,-67
2021-09-23 21:12:31.021741,-88
2021-09-23 21:12:31.021747,-98
2021-09-23 21:12:31.021752,-108
2021-09-23 21:12:31.021758,-113
2021-09-23 21:12:31.021764,-108
2021-09-23 21:12:31.021770,-105
2021-09-23 21:12:31.021775,-96
2021-09-23 21:12:31.021781,-84
2021-09-23 21:12:31.021787,-74
2021-09-23 21:12:31.021793,-62
2021-09-23 21:12:31.021799,-52
2021-09-23 21:12:31.021804,-45
2021-09-23 21:12:31.021810,-40
2021-09-23 21:12:31.021816,-31
2021-09-23 21:12:31.021822,-19
2021-09-23 21:12:31.021827,-19
2021-09-23 21:12:31.335246,-26
2021-09-23 21:12:31.335263,-28
2021-09-23 21:12:31.335270,-26
2021-09-23 21:12:31.335276,-28
2021-09-23 21:12:31.335282,-28
2021-09-23 21:12:31.335288,-31
2021-09-23 21:12:31.335294,-40
2021-09-23 21:12:31.335300,-48
2021-09-23 21:12:31.335306,-43
2021-09-23 21:12:31.335312,-36
2021-09-23 21:12:31.335317,-26
2021-09-23 21:12:31.335323,-16
2021-09-23 21:12:31.335330,-26
2021-09-23 21:12:31.335335,-40
2021-09-23 21:12:31.335341,-36
2021-09-23 21:12:31.335347,-45
2021-09-23 21:12:31.335353,-62
2021-09-23 21:12:31.335359,-50
2021-09-23 21:12:31.335365,-38
2021-09-23 21:12:31.335371,-36
2021-09-23 21:12:31.335377,-21
2021-09-23 21:12:31.335383,21
2021-09-23 21:12:31.335389,187
2021-09-23 21:12:31.335395,555
2021-09-23 21:12:31.335400,990
2021-09-23 21:12:31.335406,863
2021-09-23 21:12:31.335412,-165
2021-09-23 21:12:31.335418,-810
2021-09-23 21:12:31.335424,-322
2021-09-23 21:12:31.335430,16
2021-09-23 21:12:31.561622,-163
2021-09-23 21:12:31.561639,-125
2021-09-23 21:12:31.561646,-2
2021-09-23 21:12:31.561652,-52
2021-09-23 21:12:31.561658,-60
2021-09-23 21:12:31.561664,-2
2021-09-23 21:12:31.561669,-7
2021-09-23 21:12:31.561675,-24
2021-09-23 21:12:31.561681,0
2021-09-23 21:12:31.561687,19
2021-09-23 21:12:31.561692,21
2021-09-23 21:12:31.561698,26
2021-09-23 21:12:31.561704,33
2021-09-23 21:12:31.561710,43
2021-09-23 21:12:31.561715,52
2021-09-23 21:12:31.561721,57
2021-09-23 21:12:31.561727,64
2021-09-23 21:12:31.561733,72
2021-09-23 21:12:31.561738,72
2021-09-23 21:12:31.561744,76
2021-09-23 21:12:31.561749,81
2021-09-23 21:12:31.561755,69
2021-09-23 21:12:31.561761,57
2021-09-23 21:12:31.561766,50
2021-09-23 21:12:31.561772,28
2021-09-23 21:12:31.561777,4
2021-09-23 21:12:31.561783,-16
2021-09-23 21:12:31.561789,-40
2021-09-23 21:12:31.561794,-60
2021-09-23 21:12:31.561800,-79
2021-09-23 21:12:31.786680,-98
2021-09-23 21:12:31.786697,-103
2021-09-23 21:12:31.786705,-108
2021-09-23 21:12:31.786711,-108
2021-09-23 21:12:31.786717,-103
2021-09-23 21:12:31.786723,-108
2021-09-23 21:12:31.786729,-105
2021-09-23 21:12:31.786734,-86
2021-09-23 21:12:31.786740,-72
2021-09-23 21:12:31.786746,-72
2021-09-23 21:12:31.786752,-64
2021-09-23 21:12:31.786758,-50
2021-09-23 21:12:31.786764,-45
2021-09-23 21:12:31.786769,-40
2021-09-23 21:12:31.786775,-36
2021-09-23 21:12:31.786781,-33
2021-09-23 21:12:31.786787,-33
2021-09-23 21:12:31.786792,-38
2021-09-23 21:12:31.786798,-50
2021-09-23 21:12:31.786804,-48
2021-09-23 21:12:31.786810,-38
2021-09-23 21:12:31.786816,-38
2021-09-23 21:12:31.786821,-48
2021-09-23 21:12:31.786827,-55
2021-09-23 21:12:31.786833,-50
2021-09-23 21:12:31.786839,-43
2021-09-23 21:12:31.786844,-31
2021-09-23 21:12:31.786850,-19
2021-09-23 21:12:31.786856,-16
2021-09-23 21:12:31.786862,-14
2021-09-23 21:12:31.921597,-14
2021-09-23 21:12:31.921614,-26
2021-09-23 21:12:31.921621,-40
2021-09-23 21:12:31.921627,-40
2021-09-23 21:12:31.921633,-28
2021-09-23 21:12:31.921639,-21
2021-09-23 21:12:31.921645,-9
2021-09-23 21:12:31.921650,55
2021-09-23 21:12:31.921656,264
2021-09-23 21:12:31.921662,680
2021-09-23 21:12:31.921668,1096
2021-09-23 21:12:31.921674,767
2021-09-23 21:12:31.921680,-363
2021-09-23 21:12:31.921686,-762
2021-09-23 21:12:31.921691,-182
2021-09-23 21:12:31.921697,-7
2021-09-23 21:12:31.921703,-192
2021-09-23 21:12:31.921709,-96
2021-09-23 21:12:31.921714,-14
2021-09-23 21:12:31.921720,-69
2021-09-23 21:12:31.921726,-48
2021-09-23 21:12:31.921732,-9
2021-09-23 21:12:31.921738,-33
2021-09-23 21:12:31.921743,-28
2021-09-23 21:12:31.921749,4
2021-09-23 21:12:31.921755,16
2021-09-23 21:12:31.921761,21
2021-09-23 21:12:31.921767,33
2021-09-23 21:12:31.921775,38
2021-09-23 21:12:31.921781,45
2021-09-23 21:12:32.236576,60
2021-09-23 21:12:32.236592,72
2021-09-23 21:12:32.236599,74
2021-09-23 21:12:32.236605,76
2021-09-23 21:12:32.236611,79
2021-09-23 21:12:32.236617,81
2021-09-23 21:12:32.236623,86
2021-09-23 21:12:32.236628,79
2021-09-23 21:12:32.236634,67
2021-09-23 21:12:32.236640,48
2021-09-23 21:12:32.236646,24
2021-09-23 21:12:32.236651,4
2021-09-23 21:12:32.236657,-19
2021-09-23 21:12:32.236663,-52
2021-09-23 21:12:32.236668,-81
2021-09-23 21:12:32.236674,-98
2021-09-23 21:12:32.236680,-110
2021-09-23 21:12:32.236686,-120
2021-09-23 21:12:32.236691,-122
2021-09-23 21:12:32.236697,-117
2021-09-23 21:12:32.236703,-115
2021-09-23 21:12:32.236708,-115
2021-09-23 21:12:32.236714,-103
2021-09-23 21:12:32.236720,-96
2021-09-23 21:12:32.236725,-93
2021-09-23 21:12:32.236731,-88
2021-09-23 21:12:32.236737,-76
2021-09-23 21:12:32.236743,-67
2021-09-23 21:12:32.236748,-60
2021-09-23 21:12:32.236754,-48
2021-09-23 21:12:32.416609,-38
2021-09-23 21:12:32.416625,-38
2021-09-23 21:12:32.416632,-38
2021-09-23 21:12:32.416638,-45
2021-09-23 21:12:32.416644,-52
2021-09-23 21:12:32.416650,-50
2021-09-23 21:12:32.416656,-40
2021-09-23 21:12:32.416662,-43
2021-09-23 21:12:32.416668,-50
2021-09-23 21:12:32.416673,-45
2021-09-23 21:12:32.416679,-36
2021-09-23 21:12:32.416685,-38
2021-09-23 21:12:32.416691,-36
2021-09-23 21:12:32.416697,-31
2021-09-23 21:12:32.416702,-24
2021-09-23 21:12:32.416708,-19
2021-09-23 21:12:32.416714,-16
2021-09-23 21:12:32.416720,-7
2021-09-23 21:12:32.416726,-2
2021-09-23 21:12:32.416731,-12
2021-09-23 21:12:32.416737,-28
2021-09-23 21:12:32.416743,-45
2021-09-23 21:12:32.416749,-40
2021-09-23 21:12:32.416754,-16
2021-09-23 21:12:32.416760,-4
2021-09-23 21:12:32.416766,21
2021-09-23 21:12:32.416771,161
2021-09-23 21:12:32.416777,509
2021-09-23 21:12:32.416783,990
2021-09-23 21:12:32.416789,1029
2021-09-23 21:12:32.641645,76
2021-09-23 21:12:32.641663,-767
2021-09-23 21:12:32.641669,-411
2021-09-23 21:12:32.641676,14
2021-09-23 21:12:32.641681,-141
2021-09-23 21:12:32.641687,-149
2021-09-23 21:12:32.641693,-12
2021-09-23 21:12:32.641699,-45
2021-09-23 21:12:32.641705,-72
2021-09-23 21:12:32.641710,-28
2021-09-23 21:12:32.641716,-19
2021-09-23 21:12:32.641722,-21
2021-09-23 21:12:32.641728,-2
2021-09-23 21:12:32.641734,12
2021-09-23 21:12:32.641740,9
2021-09-23 21:12:32.641745,14
2021-09-23 21:12:32.641751,31
2021-09-23 21:12:32.641757,36
2021-09-23 21:12:32.641763,36
2021-09-23 21:12:32.641768,45
2021-09-23 21:12:32.641774,52
2021-09-23 21:12:32.641780,60
2021-09-23 21:12:32.641786,74
2021-09-23 21:12:32.641791,84
2021-09-23 21:12:32.641797,88
2021-09-23 21:12:32.641803,81
2021-09-23 21:12:32.641808,64
2021-09-23 21:12:32.641814,50
2021-09-23 21:12:32.641820,38
2021-09-23 21:12:32.641826,16
2021-09-23 21:12:32.866633,-16
2021-09-23 21:12:32.866649,-50
2021-09-23 21:12:32.866657,-74
2021-09-23 21:12:32.866662,-91
2021-09-23 21:12:32.866668,-103
2021-09-23 21:12:32.866674,-108
2021-09-23 21:12:32.866680,-115
2021-09-23 21:12:32.866686,-125
2021-09-23 21:12:32.866692,-129
2021-09-23 21:12:32.866697,-125
2021-09-23 21:12:32.866703,-115
2021-09-23 21:12:32.866709,-105
2021-09-23 21:12:32.866715,-91
2021-09-23 21:12:32.866720,-86
2021-09-23 21:12:32.866726,-86
2021-09-23 21:12:32.866732,-72
2021-09-23 21:12:32.866738,-55
2021-09-23 21:12:32.866743,-48
2021-09-23 21:12:32.866749,-43
2021-09-23 21:12:32.866755,-40
2021-09-23 21:12:32.866761,-40
2021-09-23 21:12:32.866766,-38
2021-09-23 21:12:32.866772,-33
2021-09-23 21:12:32.866778,-28
2021-09-23 21:12:32.866784,-28
2021-09-23 21:12:32.866790,-31
2021-09-23 21:12:32.866795,-38
2021-09-23 21:12:32.866801,-33
2021-09-23 21:12:32.866807,-24
2021-09-23 21:12:32.866813,-21
2021-09-23 21:12:33.091631,-21
2021-09-23 21:12:33.091648,-24
2021-09-23 21:12:33.091655,-24
2021-09-23 21:12:33.091661,-14
2021-09-23 21:12:33.091667,-4
2021-09-23 21:12:33.091673,-2
2021-09-23 21:12:33.091679,4
2021-09-23 21:12:33.091685,2
2021-09-23 21:12:33.091691,-21
2021-09-23 21:12:33.091696,-31
2021-09-23 21:12:33.091702,-21
2021-09-23 21:12:33.091708,-12
2021-09-23 21:12:33.091714,-12
2021-09-23 21:12:33.091720,-2
2021-09-23 21:12:33.091725,55
2021-09-23 21:12:33.091731,250
2021-09-23 21:12:33.091737,627
2021-09-23 21:12:33.091743,990
2021-09-23 21:12:33.091748,670
2021-09-23 21:12:33.091754,-322
2021-09-23 21:12:33.091760,-634
2021-09-23 21:12:33.091766,-146
2021-09-23 21:12:33.091772,-31
2021-09-23 21:12:33.091778,-185
2021-09-23 21:12:33.091783,-96
2021-09-23 21:12:33.091789,-28
2021-09-23 21:12:33.091795,-76
2021-09-23 21:12:33.091800,-57
2021-09-23 21:12:33.091806,-14
2021-09-23 21:12:33.091812,-19
2021-09-23 21:12:33.360306,-16
2021-09-23 21:12:33.360323,-2
2021-09-23 21:12:33.360330,0
2021-09-23 21:12:33.360336,2
2021-09-23 21:12:33.360342,12
2021-09-23 21:12:33.360349,7
2021-09-23 21:12:33.360355,-4
2021-09-23 21:12:33.360361,4
2021-09-23 21:12:33.360366,21
2021-09-23 21:12:33.360372,31
2021-09-23 21:12:33.360378,45
2021-09-23 21:12:33.360384,62
2021-09-23 21:12:33.360390,60
2021-09-23 21:12:33.360396,55
2021-09-23 21:12:33.360401,57
2021-09-23 21:12:33.360407,52
2021-09-23 21:12:33.360413,43
2021-09-23 21:12:33.360419,28
2021-09-23 21:12:33.360424,2
2021-09-23 21:12:33.360430,-28
2021-09-23 21:12:33.360436,-55
2021-09-23 21:12:33.360441,-74
2021-09-23 21:12:33.360447,-86
2021-09-23 21:12:33.360453,-101
2021-09-23 21:12:33.360459,-113
2021-09-23 21:12:33.360465,-110
2021-09-23 21:12:33.360471,-103
2021-09-23 21:12:33.360476,-108
2021-09-23 21:12:33.360482,-108
2021-09-23 21:12:33.360488,-101
2021-09-23 21:12:33.676132,-96
2021-09-23 21:12:33.676149,-88
2021-09-23 21:12:33.676157,-81
2021-09-23 21:12:33.676163,-79
2021-09-23 21:12:33.676168,-69
2021-09-23 21:12:33.676174,-62
2021-09-23 21:12:33.676180,-57
2021-09-23 21:12:33.676186,-50
2021-09-23 21:12:33.676192,-38
2021-09-23 21:12:33.676197,-38
2021-09-23 21:12:33.676203,-33
2021-09-23 21:12:33.676209,-33
2021-09-23 21:12:33.676215,-40
2021-09-23 21:12:33.676221,-36
2021-09-23 21:12:33.676226,-28
2021-09-23 21:12:33.676232,-31
2021-09-23 21:12:33.676238,-31
2021-09-23 21:12:33.676244,-28
2021-09-23 21:12:33.676250,-21
2021-09-23 21:12:33.676255,-9
2021-09-23 21:12:33.676261,-2
2021-09-23 21:12:33.676267,2
2021-09-23 21:12:33.676273,7
2021-09-23 21:12:33.676278,4
2021-09-23 21:12:33.676284,-14
2021-09-23 21:12:33.676290,-31
2021-09-23 21:12:33.676296,-28
2021-09-23 21:12:33.676301,-19
2021-09-23 21:12:33.676307,-9
2021-09-23 21:12:33.676313,2
2021-09-23 21:12:33.766616,55
2021-09-23 21:12:33.766632,238
2021-09-23 21:12:33.766639,625
2021-09-23 21:12:33.766645,1048
2021-09-23 21:12:33.766651,810
2021-09-23 21:12:33.766657,-228
2021-09-23 21:12:33.766663,-670
2021-09-23 21:12:33.766669,-170
2021-09-23 21:12:33.766675,4
2021-09-23 21:12:33.766681,-180
2021-09-23 21:12:33.766687,-105
2021-09-23 21:12:33.766693,-19
2021-09-23 21:12:33.766699,-79
2021-09-23 21:12:33.766705,-67
2021-09-23 21:12:33.766711,-16
2021-09-23 21:12:33.766717,-26
2021-09-23 21:12:33.766723,-36
2021-09-23 21:12:33.766728,-14
2021-09-23 21:12:33.766734,-4
2021-09-23 21:12:33.766740,0
2021-09-23 21:12:33.766746,9
2021-09-23 21:12:33.766752,14
2021-09-23 21:12:33.766758,24
2021-09-23 21:12:33.766767,38
2021-09-23 21:12:33.766773,50
2021-09-23 21:12:33.766779,67
2021-09-23 21:12:33.766785,81
2021-09-23 21:12:33.766791,84
2021-09-23 21:12:33.766796,81
2021-09-23 21:12:33.766802,81
2021-09-23 21:12:33.991789,84
2021-09-23 21:12:33.991808,74
2021-09-23 21:12:33.991814,62
2021-09-23 21:12:33.991820,45
2021-09-23 21:12:33.991825,14
2021-09-23 21:12:33.991830,-16
2021-09-23 21:12:33.991836,-40
2021-09-23 21:12:33.991841,-62
2021-09-23 21:12:33.991847,-84
2021-09-23 21:12:33.991852,-103
2021-09-23 21:12:33.991857,-115
2021-09-23 21:12:33.991863,-115
2021-09-23 21:12:33.991868,-113
2021-09-23 21:12:33.991873,-105
2021-09-23 21:12:33.991879,-101
2021-09-23 21:12:33.991884,-98
2021-09-23 21:12:33.991889,-93
2021-09-23 21:12:33.991895,-79
2021-09-23 21:12:33.991900,-67
2021-09-23 21:12:33.991905,-57
2021-09-23 21:12:33.991910,-55
2021-09-23 21:12:33.991916,-48
2021-09-23 21:12:33.991921,-38
2021-09-23 21:12:33.991926,-33
2021-09-23 21:12:33.991932,-31
2021-09-23 21:12:33.991937,-26
2021-09-23 21:12:33.991942,-19
2021-09-23 21:12:33.991948,-19
2021-09-23 21:12:33.991953,-21
2021-09-23 21:12:33.991958,-21
2021-09-23 21:12:34.306825,-28
2021-09-23 21:12:34.306846,-21
2021-09-23 21:12:34.306853,-16
2021-09-23 21:12:34.306859,-28
2021-09-23 21:12:34.306865,-38
2021-09-23 21:12:34.306871,-28
2021-09-23 21:12:34.306877,-14
2021-09-23 21:12:34.306883,-2
2021-09-23 21:12:34.306889,0
2021-09-23 21:12:34.306895,2
2021-09-23 21:12:34.306901,-2
2021-09-23 21:12:34.306907,-14
2021-09-23 21:12:34.306913,-24
2021-09-23 21:12:34.306918,-21
2021-09-23 21:12:34.306924,-14
2021-09-23 21:12:34.306930,-14
2021-09-23 21:12:34.306936,0
2021-09-23 21:12:34.306941,57
2021-09-23 21:12:34.306947,252
2021-09-23 21:12:34.306953,668
2021-09-23 21:12:34.306959,1113
2021-09-23 21:12:34.306965,817
2021-09-23 21:12:34.306971,-317
2021-09-23 21:12:34.306976,-752
2021-09-23 21:12:34.306982,-182
2021-09-23 21:12:34.306988,7
2021-09-23 21:12:34.306994,-185
2021-09-23 21:12:34.307000,-98
2021-09-23 21:12:34.307006,-7
2021-09-23 21:12:34.307012,-64
2021-09-23 21:12:34.486809,-55
2021-09-23 21:12:34.486830,-16
2021-09-23 21:12:34.486837,-33
2021-09-23 21:12:34.486843,-33
2021-09-23 21:12:34.486849,-12
2021-09-23 21:12:34.486855,-7
2021-09-23 21:12:34.486861,-4
2021-09-23 21:12:34.486867,14
2021-09-23 21:12:34.486872,26
2021-09-23 21:12:34.486878,26
2021-09-23 21:12:34.486884,40
2021-09-23 21:12:34.486890,60
2021-09-23 21:12:34.486896,74
2021-09-23 21:12:34.486901,86
2021-09-23 21:12:34.486907,86
2021-09-23 21:12:34.486913,81
2021-09-23 21:12:34.486919,88
2021-09-23 21:12:34.486924,86
2021-09-23 21:12:34.486930,74
2021-09-23 21:12:34.486936,64
2021-09-23 21:12:34.486941,43
2021-09-23 21:12:34.486947,9
2021-09-23 21:12:34.486953,-19
2021-09-23 21:12:34.486959,-43
2021-09-23 21:12:34.486964,-64
2021-09-23 21:12:34.486970,-84
2021-09-23 21:12:34.486976,-98
2021-09-23 21:12:34.486982,-113
2021-09-23 21:12:34.486988,-113
2021-09-23 21:12:34.486993,-105
2021-09-23 21:12:34.756222,-98
2021-09-23 21:12:34.756243,-88
2021-09-23 21:12:34.756251,-81
2021-09-23 21:12:34.756257,-84
2021-09-23 21:12:34.756263,-79
2021-09-23 21:12:34.756269,-64
2021-09-23 21:12:34.756275,-50
2021-09-23 21:12:34.756281,-48
2021-09-23 21:12:34.756286,-50
2021-09-23 21:12:34.756292,-45
2021-09-23 21:12:34.756298,-38
2021-09-23 21:12:34.756304,-36
2021-09-23 21:12:34.756310,-33
2021-09-23 21:12:34.756316,-36
2021-09-23 21:12:34.756322,-45
2021-09-23 21:12:34.756328,-50
2021-09-23 21:12:34.756334,-43
2021-09-23 21:12:34.756340,-38
2021-09-23 21:12:34.756345,-36
2021-09-23 21:12:34.756351,-31
2021-09-23 21:12:34.756357,-31
2021-09-23 21:12:34.756363,-33
2021-09-23 21:12:34.756369,-31
2021-09-23 21:12:34.756374,-26
2021-09-23 21:12:34.756380,-26
2021-09-23 21:12:34.756386,-26
2021-09-23 21:12:34.756392,-19
2021-09-23 21:12:34.756397,-4
2021-09-23 21:12:34.756403,-7
2021-09-23 21:12:34.756409,-24
2021-09-23 21:12:34.981236,-33
2021-09-23 21:12:34.981258,-33
2021-09-23 21:12:34.981264,-33
2021-09-23 21:12:34.981271,-24
2021-09-23 21:12:34.981277,0
2021-09-23 21:12:34.981282,72
2021-09-23 21:12:34.981288,319
2021-09-23 21:12:34.981294,793
2021-09-23 21:12:34.981300,1171
2021-09-23 21:12:34.981306,627
2021-09-23 21:12:34.981312,-572
2021-09-23 21:12:34.981318,-733
2021-09-23 21:12:34.981324,-96
2021-09-23 21:12:34.981330,-57
2021-09-23 21:12:34.981335,-218
2021-09-23 21:12:34.981342,-72
2021-09-23 21:12:34.981348,-26
2021-09-23 21:12:34.981353,-101
2021-09-23 21:12:34.981359,-67
2021-09-23 21:12:34.981365,-26
2021-09-23 21:12:34.981371,-45
2021-09-23 21:12:34.981377,-38
2021-09-23 21:12:34.981383,-9
2021-09-23 21:12:34.981389,0
2021-09-23 21:12:34.981394,7
2021-09-23 21:12:34.981400,21
2021-09-23 21:12:34.981406,31
2021-09-23 21:12:34.981412,40
2021-09-23 21:12:34.981418,60
2021-09-23 21:12:34.981424,76
2021-09-23 21:12:35.161812,81
2021-09-23 21:12:35.161832,86
2021-09-23 21:12:35.161839,96
2021-09-23 21:12:35.161845,101
2021-09-23 21:12:35.161851,101
2021-09-23 21:12:35.161857,88
2021-09-23 21:12:35.161863,64
2021-09-23 21:12:35.161869,43
2021-09-23 21:12:35.161875,24
2021-09-23 21:12:35.161881,2
2021-09-23 21:12:35.161887,-16
2021-09-23 21:12:35.161892,-43
2021-09-23 21:12:35.161898,-74
2021-09-23 21:12:35.161904,-96
2021-09-23 21:12:35.161910,-101
2021-09-23 21:12:35.161916,-110
2021-09-23 21:12:35.161921,-120
2021-09-23 21:12:35.161927,-110
2021-09-23 21:12:35.161933,-101
2021-09-23 21:12:35.161939,-93
2021-09-23 21:12:35.161945,-84
2021-09-23 21:12:35.161950,-72
2021-09-23 21:12:35.161956,-62
2021-09-23 21:12:35.161962,-52
2021-09-23 21:12:35.161968,-43
2021-09-23 21:12:35.161973,-33
2021-09-23 21:12:35.161979,-28
2021-09-23 21:12:35.161985,-28
2021-09-23 21:12:35.161991,-24
2021-09-23 21:12:35.161996,-24
2021-09-23 21:12:35.475458,-36
2021-09-23 21:12:35.475478,-38
2021-09-23 21:12:35.475485,-33
2021-09-23 21:12:35.475491,-31
2021-09-23 21:12:35.475497,-28
2021-09-23 21:12:35.475503,-26
2021-09-23 21:12:35.475509,-36
2021-09-23 21:12:35.475515,-36
2021-09-23 21:12:35.475521,-31
2021-09-23 21:12:35.475527,-28
2021-09-23 21:12:35.475533,-19
2021-09-23 21:12:35.475539,-12
2021-09-23 21:12:35.475544,-16
2021-09-23 21:12:35.475550,-16
2021-09-23 21:12:35.475556,-26
2021-09-23 21:12:35.475562,-45
2021-09-23 21:12:35.475568,-45
2021-09-23 21:12:35.475574,-33
2021-09-23 21:12:35.475580,-31
2021-09-23 21:12:35.475585,-21
2021-09-23 21:12:35.475591,21
2021-09-23 21:12:35.475597,170
2021-09-23 21:12:35.475603,521
2021-09-23 21:12:35.475608,993
2021-09-23 21:12:35.475614,978
2021-09-23 21:12:35.475620,-38
2021-09-23 21:12:35.475626,-865
2021-09-23 21:12:35.475632,-423
2021-09-23 21:12:35.475638,36
2021-09-23 21:12:35.475643,-134
2021-09-23 21:12:35.656823,-132
2021-09-23 21:12:35.656844,16
2021-09-23 21:12:35.656851,-28
2021-09-23 21:12:35.656857,-55
2021-09-23 21:12:35.656863,0
2021-09-23 21:12:35.656869,-7
2021-09-23 21:12:35.656876,-26
2021-09-23 21:12:35.656882,2
2021-09-23 21:12:35.656888,21
2021-09-23 21:12:35.656894,19
2021-09-23 21:12:35.656900,33
2021-09-23 21:12:35.656906,50
2021-09-23 21:12:35.656912,55
2021-09-23 21:12:35.656918,67
2021-09-23 21:12:35.656924,84
2021-09-23 21:12:35.656930,91
2021-09-23 21:12:35.656936,96
2021-09-23 21:12:35.656942,105
2021-09-23 21:12:35.656947,113
2021-09-23 21:12:35.656953,115
2021-09-23 21:12:35.656959,108
2021-09-23 21:12:35.656965,93
2021-09-23 21:12:35.656971,79
2021-09-23 21:12:35.656977,60
2021-09-23 21:12:35.656983,33
2021-09-23 21:12:35.656989,7
2021-09-23 21:12:35.656995,-21
2021-09-23 21:12:35.657001,-45
2021-09-23 21:12:35.657007,-69
2021-09-23 21:12:35.657012,-91
2021-09-23 21:12:35.837495,-103
2021-09-23 21:12:35.837515,-105
2021-09-23 21:12:35.837523,-108
2021-09-23 21:12:35.837529,-105
2021-09-23 21:12:35.837535,-103
2021-09-23 21:12:35.837541,-98
2021-09-23 21:12:35.837547,-91
2021-09-23 21:12:35.837553,-72
2021-09-23 21:12:35.837559,-57
2021-09-23 21:12:35.837564,-52
2021-09-23 21:12:35.837570,-45
2021-09-23 21:12:35.837576,-38
2021-09-23 21:12:35.837582,-28
2021-09-23 21:12:35.837588,-26
2021-09-23 21:12:35.837594,-33
2021-09-23 21:12:35.837600,-38
2021-09-23 21:12:35.837605,-45
2021-09-23 21:12:35.837615,-50
2021-09-23 21:12:35.837621,-40
2021-09-23 21:12:35.837627,-33
2021-09-23 21:12:35.837633,-40
2021-09-23 21:12:35.837639,-45
2021-09-23 21:12:35.837645,-43
2021-09-23 21:12:35.837651,-38
2021-09-23 21:12:35.837656,-26
2021-09-23 21:12:35.837662,-7
2021-09-23 21:12:35.837668,0
2021-09-23 21:12:35.837674,-7
2021-09-23 21:12:35.837680,-9
2021-09-23 21:12:35.837686,-21
2021-09-23 21:12:36.061899,-36
2021-09-23 21:12:36.061921,-31
2021-09-23 21:12:36.061928,-21
2021-09-23 21:12:36.061934,-24
2021-09-23 21:12:36.061940,-21
2021-09-23 21:12:36.061946,19
2021-09-23 21:12:36.061952,163
2021-09-23 21:12:36.061958,517
2021-09-23 21:12:36.061964,1014
2021-09-23 21:12:36.061986,1053
2021-09-23 21:12:36.061993,50
2021-09-23 21:12:36.061999,-824
2021-09-23 21:12:36.062005,-432
2021-09-23 21:12:36.062010,21
2021-09-23 21:12:36.062016,-146
2021-09-23 21:12:36.062022,-156
2021-09-23 21:12:36.062028,-16
2021-09-23 21:12:36.062034,-55
2021-09-23 21:12:36.062048,-79
2021-09-23 21:12:36.062054,-19
2021-09-23 21:12:36.062060,-14
2021-09-23 21:12:36.062065,-28
2021-09-23 21:12:36.062071,-7
2021-09-23 21:12:36.062077,9
2021-09-23 21:12:36.062083,7
2021-09-23 21:12:36.062089,14
2021-09-23 21:12:36.062094,31
2021-09-23 21:12:36.062099,38
2021-09-23 21:12:36.062105,45
2021-09-23 21:12:36.062110,62
2021-09-23 21:12:36.332373,84
2021-09-23 21:12:36.332393,96
2021-09-23 21:12:36.332401,96
2021-09-23 21:12:36.332407,98
2021-09-23 21:12:36.332413,103
2021-09-23 21:12:36.332419,98
2021-09-23 21:12:36.332425,86
2021-09-23 21:12:36.332431,74
2021-09-23 21:12:36.332437,55
2021-09-23 21:12:36.332443,21
2021-09-23 21:12:36.332449,-12
2021-09-23 21:12:36.332455,-45
2021-09-23 21:12:36.332461,-74
2021-09-23 21:12:36.332467,-86
2021-09-23 21:12:36.332473,-101
2021-09-23 21:12:36.332479,-120
2021-09-23 21:12:36.332485,-129
2021-09-23 21:12:36.332491,-127
2021-09-23 21:12:36.332497,-129
2021-09-23 21:12:36.332503,-125
2021-09-23 21:12:36.332508,-113
2021-09-23 21:12:36.332514,-103
2021-09-23 21:12:36.332520,-93
2021-09-23 21:12:36.332526,-72
2021-09-23 21:12:36.332532,-60
2021-09-23 21:12:36.332538,-55
2021-09-23 21:12:36.332543,-48
2021-09-23 21:12:36.332549,-43
2021-09-23 21:12:36.332555,-33
2021-09-23 21:12:36.332561,-28
2021-09-23 21:12:36.556818,-26
2021-09-23 21:12:36.556839,-26
2021-09-23 21:12:36.556846,-33
2021-09-23 21:12:36.556853,-38
2021-09-23 21:12:36.556859,-28
2021-09-23 21:12:36.556865,-24
2021-09-23 21:12:36.556870,-24
2021-09-23 21:12:36.556877,-26
2021-09-23 21:12:36.556883,-33
2021-09-23 21:12:36.556888,-38
2021-09-23 21:12:36.556894,-33
2021-09-23 21:12:36.556900,-16
2021-09-23 21:12:36.556906,-2
2021-09-23 21:12:36.556912,-2
2021-09-23 21:12:36.556918,-4
2021-09-23 21:12:36.556923,-9
2021-09-23 21:12:36.556929,-24
2021-09-23 21:12:36.556935,-36
2021-09-23 21:12:36.556941,-33
2021-09-23 21:12:36.556946,-19
2021-09-23 21:12:36.556952,-16
2021-09-23 21:12:36.556958,-12
2021-09-23 21:12:36.556964,40
2021-09-23 21:12:36.556970,240
2021-09-23 21:12:36.556975,656
2021-09-23 21:12:36.556981,1139
2021-09-23 21:12:36.556987,964
2021-09-23 21:12:36.556993,-168
2021-09-23 21:12:36.556999,-795
2021-09-23 21:12:36.557004,-266
2021-09-23 21:12:36.826841,21
2021-09-23 21:12:36.826862,-177
2021-09-23 21:12:36.826869,-122
2021-09-23 21:12:36.826875,-9
2021-09-23 21:12:36.826881,-67
2021-09-23 21:12:36.826886,-62
2021-09-23 21:12:36.826892,-4
2021-09-23 21:12:36.826898,-21
2021-09-23 21:12:36.826904,-36
2021-09-23 21:12:36.826909,-4
2021-09-23 21:12:36.826915,7
2021-09-23 21:12:36.826921,2
2021-09-23 21:12:36.826927,12
2021-09-23 21:12:36.826932,16
2021-09-23 21:12:36.826938,19
2021-09-23 21:12:36.826944,36
2021-09-23 21:12:36.826950,40
2021-09-23 21:12:36.826955,40
2021-09-23 21:12:36.826961,57
2021-09-23 21:12:36.826966,76
2021-09-23 21:12:36.826972,84
2021-09-23 21:12:36.826978,86
2021-09-23 21:12:36.826983,76
2021-09-23 21:12:36.826989,57
2021-09-23 21:12:36.826994,43
2021-09-23 21:12:36.827000,31
2021-09-23 21:12:36.827005,12
2021-09-23 21:12:36.827011,-19
2021-09-23 21:12:36.827017,-52
2021-09-23 21:12:36.827022,-76
2021-09-23 21:12:37.006764,-93
2021-09-23 21:12:37.006784,-108
2021-09-23 21:12:37.006791,-120
2021-09-23 21:12:37.006797,-125
2021-09-23 21:12:37.006803,-122
2021-09-23 21:12:37.006808,-115
2021-09-23 21:12:37.006814,-105
2021-09-23 21:12:37.006820,-101
2021-09-23 21:12:37.006826,-91
2021-09-23 21:12:37.006832,-84
2021-09-23 21:12:37.006838,-81
2021-09-23 21:12:37.006844,-69
2021-09-23 21:12:37.006849,-62
2021-09-23 21:12:37.006855,-62
2021-09-23 21:12:37.006861,-52
2021-09-23 21:12:37.006867,-43
2021-09-23 21:12:37.006873,-38
2021-09-23 21:12:37.006879,-36
2021-09-23 21:12:37.006884,-40
2021-09-23 21:12:37.006890,-43
2021-09-23 21:12:37.006896,-36
2021-09-23 21:12:37.006902,-36
2021-09-23 21:12:37.006907,-40
2021-09-23 21:12:37.006913,-40
2021-09-23 21:12:37.006919,-38
2021-09-23 21:12:37.006924,-38
2021-09-23 21:12:37.006930,-36
2021-09-23 21:12:37.006936,-33
2021-09-23 21:12:37.006941,-33
2021-09-23 21:12:37.006947,-31
2021-09-23 21:12:37.231846,-24
2021-09-23 21:12:37.231867,-9
2021-09-23 21:12:37.231874,2
2021-09-23 21:12:37.231880,7
2021-09-23 21:12:37.231886,16
2021-09-23 21:12:37.231892,0
2021-09-23 21:12:37.231898,-33
2021-09-23 21:12:37.231904,-38
2021-09-23 21:12:37.231910,-21
2021-09-23 21:12:37.231916,-19
2021-09-23 21:12:37.231922,-21
2021-09-23 21:12:37.231928,-12
2021-09-23 21:12:37.231934,40
2021-09-23 21:12:37.231939,250
2021-09-23 21:12:37.231945,690
2021-09-23 21:12:37.231951,1168
2021-09-23 21:12:37.231957,896
2021-09-23 21:12:37.231963,-281
2021-09-23 21:12:37.231969,-774
2021-09-23 21:12:37.231974,-204
2021-09-23 21:12:37.231980,0
2021-09-23 21:12:37.231986,-199
2021-09-23 21:12:37.231992,-122
2021-09-23 21:12:37.231997,-31
2021-09-23 21:12:37.232003,-88
2021-09-23 21:12:37.232009,-74
2021-09-23 21:12:37.232015,-33
2021-09-23 21:12:37.232020,-50
2021-09-23 21:12:37.232026,-48
2021-09-23 21:12:37.232032,-26
2021-09-23 21:12:37.500517,-24
2021-09-23 21:12:37.500539,-14
2021-09-23 21:12:37.500547,4
2021-09-23 21:12:37.500553,14
2021-09-23 21:12:37.500560,19
2021-09-23 21:12:37.500566,31
2021-09-23 21:12:37.500572,45
2021-09-23 21:12:37.500578,57
2021-09-23 21:12:37.500584,69
2021-09-23 21:12:37.500590,79
2021-09-23 21:12:37.500595,84
2021-09-23 21:12:37.500601,84
2021-09-23 21:12:37.500607,79
2021-09-23 21:12:37.500613,72
2021-09-23 21:12:37.500619,60
2021-09-23 21:12:37.500625,43
2021-09-23 21:12:37.500631,21
2021-09-23 21:12:37.500637,-2
2021-09-23 21:12:37.500642,-33
2021-09-23 21:12:37.500648,-62
2021-09-23 21:12:37.500654,-79
2021-09-23 21:12:37.500660,-91
2021-09-23 21:12:37.500666,-103
2021-09-23 21:12:37.500672,-108
2021-09-23 21:12:37.500677,-103
2021-09-23 21:12:37.500683,-98
2021-09-23 21:12:37.500689,-98
2021-09-23 21:12:37.500695,-93
2021-09-23 21:12:37.500700,-91
2021-09-23 21:12:37.500706,-86
2021-09-23 21:12:37.726255,-74
2021-09-23 21:12:37.726275,-62
2021-09-23 21:12:37.726283,-50
2021-09-23 21:12:37.726289,-48
2021-09-23 21:12:37.726295,-50
2021-09-23 21:12:37.726301,-50
2021-09-23 21:12:37.726307,-38
2021-09-23 21:12:37.726313,-28
2021-09-23 21:12:37.726319,-28
2021-09-23 21:12:37.726325,-36
2021-09-23 21:12:37.726331,-43
2021-09-23 21:12:37.726337,-43
2021-09-23 21:12:37.726342,-33
2021-09-23 21:12:37.726348,-28
2021-09-23 21:12:37.726354,-31
2021-09-23 21:12:37.726360,-33
2021-09-23 21:12:37.726366,-33
2021-09-23 21:12:37.726371,-24
2021-09-23 21:12:37.726377,-14
2021-09-23 21:12:37.726383,-19
2021-09-23 21:12:37.726389,-24
2021-09-23 21:12:37.726395,-19
2021-09-23 21:12:37.726401,-2
2021-09-23 21:12:37.726406,7
2021-09-23 21:12:37.726412,12
2021-09-23 21:12:37.726418,28
2021-09-23 21:12:37.726424,31
2021-09-23 21:12:37.726430,-7
2021-09-23 21:12:37.726435,-40
2021-09-23 21:12:37.726441,-43
2021-09-23 21:12:37.951196,-36
2021-09-23 21:12:37.951215,-31
2021-09-23 21:12:37.951222,-21
2021-09-23 21:12:37.951228,2
2021-09-23 21:12:37.951234,115
2021-09-23 21:12:37.951240,449
2021-09-23 21:12:37.951246,976
2021-09-23 21:12:37.951252,1163
2021-09-23 21:12:37.951258,288
2021-09-23 21:12:37.951264,-745
2021-09-23 21:12:37.951270,-524
2021-09-23 21:12:37.951275,-7
2021-09-23 21:12:37.951281,-139
2021-09-23 21:12:37.951287,-199
2021-09-23 21:12:37.951293,-48
2021-09-23 21:12:37.951299,-69
2021-09-23 21:12:37.951305,-110
2021-09-23 21:12:37.951311,-52
2021-09-23 21:12:37.951317,-36
2021-09-23 21:12:37.951323,-52
2021-09-23 21:12:37.951329,-31
2021-09-23 21:12:37.951334,-12
2021-09-23 21:12:37.951340,-12
2021-09-23 21:12:37.951346,2
2021-09-23 21:12:37.951352,21
2021-09-23 21:12:37.951357,28
2021-09-23 21:12:37.951363,38
2021-09-23 21:12:37.951369,52
2021-09-23 21:12:37.951375,67
2021-09-23 21:12:37.951381,79
2021-09-23 21:12:38.176869,93
2021-09-23 21:12:38.176889,105
2021-09-23 21:12:38.176896,101
2021-09-23 21:12:38.176902,79
2021-09-23 21:12:38.176908,72
2021-09-23 21:12:38.176915,72
2021-09-23 21:12:38.176921,57
2021-09-23 21:12:38.176927,36
2021-09-23 21:12:38.176933,7
2021-09-23 21:12:38.176938,-33
2021-09-23 21:12:38.176944,-60
2021-09-23 21:12:38.176950,-72
2021-09-23 21:12:38.176956,-86
2021-09-23 21:12:38.176962,-98
2021-09-23 21:12:38.176971,-113
2021-09-23 21:12:38.176977,-117
2021-09-23 21:12:38.176983,-113
2021-09-23 21:12:38.176989,-105
2021-09-23 21:12:38.176995,-101
2021-09-23 21:12:38.177001,-96
2021-09-23 21:12:38.177007,-88
2021-09-23 21:12:38.177012,-81
2021-09-23 21:12:38.177018,-72
2021-09-23 21:12:38.177024,-60
2021-09-23 21:12:38.177030,-52
2021-09-23 21:12:38.177035,-43
2021-09-23 21:12:38.177041,-38
2021-09-23 21:12:38.177047,-38
2021-09-23 21:12:38.177053,-33
2021-09-23 21:12:38.177059,-26
2021-09-23 21:12:38.401854,-24
2021-09-23 21:12:38.401874,-26
2021-09-23 21:12:38.401881,-31
2021-09-23 21:12:38.401887,-40
2021-09-23 21:12:38.401893,-52
2021-09-23 21:12:38.401899,-52
2021-09-23 21:12:38.401905,-45
2021-09-23 21:12:38.401911,-45
2021-09-23 21:12:38.401917,-52
2021-09-23 21:12:38.401923,-52
2021-09-23 21:12:38.401928,-48
2021-09-23 21:12:38.401934,-43
2021-09-23 21:12:38.401940,-38
2021-09-23 21:12:38.401946,-38
2021-09-23 21:12:38.401952,-43
2021-09-23 21:12:38.401957,-45
2021-09-23 21:12:38.401963,-38
2021-09-23 21:12:38.401969,-38
2021-09-23 21:12:38.401975,-36
2021-09-23 21:12:38.401981,-26
2021-09-23 21:12:38.401986,-21
2021-09-23 21:12:38.401992,-16
2021-09-23 21:12:38.401998,4
2021-09-23 21:12:38.402004,21
2021-09-23 21:12:38.402010,4
2021-09-23 21:12:38.402016,-26
2021-09-23 21:12:38.402021,-43
2021-09-23 21:12:38.402027,-33
2021-09-23 21:12:38.402033,-19
2021-09-23 21:12:38.402039,-12
2021-09-23 21:12:38.626862,2
2021-09-23 21:12:38.626882,74
2021-09-23 21:12:38.626890,317
2021-09-23 21:12:38.626896,786
2021-09-23 21:12:38.626902,1207
2021-09-23 21:12:38.626908,723
2021-09-23 21:12:38.626914,-488
2021-09-23 21:12:38.626920,-735
2021-09-23 21:12:38.626926,-132
2021-09-23 21:12:38.626931,-64
2021-09-23 21:12:38.626937,-230
2021-09-23 21:12:38.626943,-103
2021-09-23 21:12:38.626949,-45
2021-09-23 21:12:38.626955,-113
2021-09-23 21:12:38.626961,-88
2021-09-23 21:12:38.626967,-43
2021-09-23 21:12:38.626973,-50
2021-09-23 21:12:38.626978,-36
2021-09-23 21:12:38.626984,-14
2021-09-23 21:12:38.626990,-9
2021-09-23 21:12:38.626995,0
2021-09-23 21:12:38.627001,12
2021-09-23 21:12:38.627007,19
2021-09-23 21:12:38.627013,33
2021-09-23 21:12:38.627019,50
2021-09-23 21:12:38.627024,57
2021-09-23 21:12:38.627030,69
2021-09-23 21:12:38.627036,86
2021-09-23 21:12:38.627042,98
2021-09-23 21:12:38.627048,103
2021-09-23 21:12:38.896262,103
2021-09-23 21:12:38.896283,98
2021-09-23 21:12:38.896290,84
2021-09-23 21:12:38.896296,72
2021-09-23 21:12:38.896302,60
2021-09-23 21:12:38.896308,45
2021-09-23 21:12:38.896314,14
2021-09-23 21:12:38.896320,-24
2021-09-23 21:12:38.896326,-52
2021-09-23 21:12:38.896332,-79
2021-09-23 21:12:38.896338,-93
2021-09-23 21:12:38.896344,-96
2021-09-23 21:12:38.896349,-108
2021-09-23 21:12:38.896355,-120
2021-09-23 21:12:38.896361,-113
2021-09-23 21:12:38.896367,-103
2021-09-23 21:12:38.896373,-101
2021-09-23 21:12:38.896379,-91
2021-09-23 21:12:38.896384,-76
2021-09-23 21:12:38.896390,-72
2021-09-23 21:12:38.896396,-69
2021-09-23 21:12:38.896403,-60
2021-09-23 21:12:38.896409,-50
2021-09-23 21:12:38.896415,-43
2021-09-23 21:12:38.896420,-38
2021-09-23 21:12:38.896426,-33
2021-09-23 21:12:38.896432,-26
2021-09-23 21:12:38.896438,-24
2021-09-23 21:12:38.896444,-21
2021-09-23 21:12:38.896450,-21
2021-09-23 21:12:39.076879,-24
2021-09-23 21:12:39.076898,-28
2021-09-23 21:12:39.076905,-33
2021-09-23 21:12:39.076911,-33
2021-09-23 21:12:39.076917,-28
2021-09-23 21:12:39.076923,-26
2021-09-23 21:12:39.076929,-28
2021-09-23 21:12:39.076935,-28
2021-09-23 21:12:39.076941,-26
2021-09-23 21:12:39.076947,-28
2021-09-23 21:12:39.076953,-33
2021-09-23 21:12:39.076959,-38
2021-09-23 21:12:39.076965,-40
2021-09-23 21:12:39.076971,-36
2021-09-23 21:12:39.076977,-31
2021-09-23 21:12:39.076983,-31
2021-09-23 21:12:39.076988,-33
2021-09-23 21:12:39.076994,-33
2021-09-23 21:12:39.077000,-33
2021-09-23 21:12:39.077006,-33
2021-09-23 21:12:39.077011,-36
2021-09-23 21:12:39.077017,-38
2021-09-23 21:12:39.077023,-26
2021-09-23 21:12:39.077029,-14
2021-09-23 21:12:39.077034,-7
2021-09-23 21:12:39.077040,12
2021-09-23 21:12:39.077046,21
2021-09-23 21:12:39.077052,0
2021-09-23 21:12:39.077058,-21
2021-09-23 21:12:39.077064,-33
2021-09-23 21:12:39.301902,-31
2021-09-23 21:12:39.301923,-16
2021-09-23 21:12:39.301930,-4
2021-09-23 21:12:39.301936,12
2021-09-23 21:12:39.301942,96
2021-09-23 21:12:39.301948,360
2021-09-23 21:12:39.301954,851
2021-09-23 21:12:39.301960,1221
2021-09-23 21:12:39.301966,620
2021-09-23 21:12:39.301972,-557
2021-09-23 21:12:39.301978,-644
2021-09-23 21:12:39.301984,-62
2021-09-23 21:12:39.301990,-84
2021-09-23 21:12:39.301996,-218
2021-09-23 21:12:39.302002,-74
2021-09-23 21:12:39.302008,-60
2021-09-23 21:12:39.302014,-120
2021-09-23 21:12:39.302019,-64
2021-09-23 21:12:39.302025,-28
2021-09-23 21:12:39.302031,-45
2021-09-23 21:12:39.302037,-31
2021-09-23 21:12:39.302043,-9
2021-09-23 21:12:39.302049,-12
2021-09-23 21:12:39.302054,0
2021-09-23 21:12:39.302060,26
2021-09-23 21:12:39.302066,38
2021-09-23 21:12:39.302072,40
2021-09-23 21:12:39.302078,48
2021-09-23 21:12:39.302083,60
2021-09-23 21:12:39.302089,74
2021-09-23 21:12:39.615520,88
2021-09-23 21:12:39.615540,101
2021-09-23 21:12:39.615547,105
2021-09-23 21:12:39.615554,103
2021-09-23 21:12:39.615560,96
2021-09-23 21:12:39.615565,79
2021-09-23 21:12:39.615572,64
2021-09-23 21:12:39.615577,55
2021-09-23 21:12:39.615583,36
2021-09-23 21:12:39.615589,9
2021-09-23 21:12:39.615595,-21
2021-09-23 21:12:39.615601,-52
2021-09-23 21:12:39.615607,-64
2021-09-23 21:12:39.615613,-69
2021-09-23 21:12:39.615619,-86
2021-09-23 21:12:39.615625,-105
2021-09-23 21:12:39.615631,-113
2021-09-23 21:12:39.615637,-110
2021-09-23 21:12:39.615643,-105
2021-09-23 21:12:39.615648,-103
2021-09-23 21:12:39.615654,-93
2021-09-23 21:12:39.615660,-86
2021-09-23 21:12:39.615666,-81
2021-09-23 21:12:39.615672,-72
2021-09-23 21:12:39.615678,-57
2021-09-23 21:12:39.615684,-48
2021-09-23 21:12:39.615690,-40
2021-09-23 21:12:39.615696,-33
2021-09-23 21:12:39.615702,-31
2021-09-23 21:12:39.615708,-31
2021-09-23 21:12:39.751869,-28
2021-09-23 21:12:39.751890,-31
2021-09-23 21:12:39.751897,-36
2021-09-23 21:12:39.751903,-38
2021-09-23 21:12:39.751909,-48
2021-09-23 21:12:39.751915,-48
2021-09-23 21:12:39.751921,-40
2021-09-23 21:12:39.751926,-40
2021-09-23 21:12:39.751932,-43
2021-09-23 21:12:39.751938,-45
2021-09-23 21:12:39.751944,-48
2021-09-23 21:12:39.751950,-48
2021-09-23 21:12:39.751955,-45
2021-09-23 21:12:39.751961,-43
2021-09-23 21:12:39.751967,-40
2021-09-23 21:12:39.751973,-36
2021-09-23 21:12:39.751979,-33
2021-09-23 21:12:39.751984,-36
2021-09-23 21:12:39.751990,-33
2021-09-23 21:12:39.751996,-31
2021-09-23 21:12:39.752001,-38
2021-09-23 21:12:39.752007,-48
2021-09-23 21:12:39.752013,-40
2021-09-23 21:12:39.752018,-31
2021-09-23 21:12:39.752024,-31
2021-09-23 21:12:39.752030,-28
2021-09-23 21:12:39.752036,-21
2021-09-23 21:12:39.752041,-26
2021-09-23 21:12:39.752047,-19
2021-09-23 21:12:39.752053,-4
2021-09-23 21:12:40.021898,4
2021-09-23 21:12:40.021919,19
2021-09-23 21:12:40.021926,26
2021-09-23 21:12:40.021932,2
2021-09-23 21:12:40.021938,-26
2021-09-23 21:12:40.021944,-31
2021-09-23 21:12:40.021950,-24
2021-09-23 21:12:40.021956,-12
2021-09-23 21:12:40.021962,-9
2021-09-23 21:12:40.021968,7
2021-09-23 21:12:40.021973,105
2021-09-23 21:12:40.021979,399
2021-09-23 21:12:40.021985,911
2021-09-23 21:12:40.021991,1238
2021-09-23 21:12:40.021996,545
2021-09-23 21:12:40.022002,-603
2021-09-23 21:12:40.022008,-596
2021-09-23 21:12:40.022014,-24
2021-09-23 21:12:40.022020,-84
2021-09-23 21:12:40.022026,-202
2021-09-23 21:12:40.022031,-50
2021-09-23 21:12:40.022038,-38
2021-09-23 21:12:40.022043,-88
2021-09-23 21:12:40.022049,-36
2021-09-23 21:12:40.022055,-7
2021-09-23 21:12:40.022061,-21
2021-09-23 21:12:40.022066,-9
2021-09-23 21:12:40.022072,9
2021-09-23 21:12:40.022078,14
2021-09-23 21:12:40.022083,26
2021-09-23 21:12:40.291913,40
2021-09-23 21:12:40.291932,50
2021-09-23 21:12:40.291939,50
2021-09-23 21:12:40.291946,50
2021-09-23 21:12:40.291952,64
2021-09-23 21:12:40.291958,88
2021-09-23 21:12:40.291964,98
2021-09-23 21:12:40.291970,105
2021-09-23 21:12:40.291976,105
2021-09-23 21:12:40.291982,98
2021-09-23 21:12:40.291988,98
2021-09-23 21:12:40.291994,91
2021-09-23 21:12:40.292000,74
2021-09-23 21:12:40.292005,60
2021-09-23 21:12:40.292011,33
2021-09-23 21:12:40.292017,2
2021-09-23 21:12:40.292023,-19
2021-09-23 21:12:40.292029,-43
2021-09-23 21:12:40.292035,-69
2021-09-23 21:12:40.292041,-81
2021-09-23 21:12:40.292047,-96
2021-09-23 21:12:40.292053,-117
2021-09-23 21:12:40.292058,-122
2021-09-23 21:12:40.292064,-115
2021-09-23 21:12:40.292070,-110
2021-09-23 21:12:40.292076,-110
2021-09-23 21:12:40.292082,-115
2021-09-23 21:12:40.292089,-110
2021-09-23 21:12:40.292095,-93
2021-09-23 21:12:40.292101,-79
2021-09-23 21:12:40.516820,-74
2021-09-23 21:12:40.516839,-67
2021-09-23 21:12:40.516846,-60
2021-09-23 21:12:40.516852,-55
2021-09-23 21:12:40.516858,-40
2021-09-23 21:12:40.516864,-28
2021-09-23 21:12:40.516870,-28
2021-09-23 21:12:40.516875,-33
2021-09-23 21:12:40.516881,-36
2021-09-23 21:12:40.516887,-33
2021-09-23 21:12:40.516893,-28
2021-09-23 21:12:40.516899,-26
2021-09-23 21:12:40.516905,-26
2021-09-23 21:12:40.516911,-36
2021-09-23 21:12:40.516917,-40
2021-09-23 21:12:40.516923,-38
2021-09-23 21:12:40.516929,-31
2021-09-23 21:12:40.516934,-24
2021-09-23 21:12:40.516940,-26
2021-09-23 21:12:40.516946,-36
2021-09-23 21:12:40.516952,-38
2021-09-23 21:12:40.516957,-28
2021-09-23 21:12:40.516963,-24
2021-09-23 21:12:40.516969,-28
2021-09-23 21:12:40.516974,-31
2021-09-23 21:12:40.516980,-26
2021-09-23 21:12:40.516986,-28
2021-09-23 21:12:40.516992,-28
2021-09-23 21:12:40.516998,-24
2021-09-23 21:12:40.517003,-19
2021-09-23 21:12:40.696882,-19
2021-09-23 21:12:40.696902,-14
2021-09-23 21:12:40.696910,-9
2021-09-23 21:12:40.696916,-9
2021-09-23 21:12:40.696922,-7
2021-09-23 21:12:40.696928,0
2021-09-23 21:12:40.696934,0
2021-09-23 21:12:40.696940,0
2021-09-23 21:12:40.696945,7
2021-09-23 21:12:40.696951,24
2021-09-23 21:12:40.696957,40
2021-09-23 21:12:40.696963,33
2021-09-23 21:12:40.696968,7
2021-09-23 21:12:40.696974,-14
2021-09-23 21:12:40.696980,-12
2021-09-23 21:12:40.696985,0
2021-09-23 21:12:40.696991,4
2021-09-23 21:12:40.696997,19
2021-09-23 21:12:40.697003,79
2021-09-23 21:12:40.697012,288
2021-09-23 21:12:40.697018,745
2021-09-23 21:12:40.697023,1228
2021-09-23 21:12:40.697029,896
2021-09-23 21:12:40.697035,-293
2021-09-23 21:12:40.697040,-719
2021-09-23 21:12:40.697046,-168
2021-09-23 21:12:40.697052,-24
2021-09-23 21:12:40.697058,-204
2021-09-23 21:12:40.697064,-103
2021-09-23 21:12:40.697069,-21
2021-09-23 21:12:40.966822,-84
2021-09-23 21:12:40.966841,-72
2021-09-23 21:12:40.966848,-36
2021-09-23 21:12:40.966854,-43
2021-09-23 21:12:40.966860,-36
2021-09-23 21:12:40.966866,-12
2021-09-23 21:12:40.966872,-12
2021-09-23 21:12:40.966878,-12
2021-09-23 21:12:40.966884,2
2021-09-23 21:12:40.966890,9
2021-09-23 21:12:40.966896,12
2021-09-23 21:12:40.966901,19
2021-09-23 21:12:40.966907,26
2021-09-23 21:12:40.966913,36
2021-09-23 21:12:40.966919,52
2021-09-23 21:12:40.966924,69
2021-09-23 21:12:40.966930,76
2021-09-23 21:12:40.966936,81
2021-09-23 21:12:40.966941,81
2021-09-23 21:12:40.966947,76
2021-09-23 21:12:40.966953,64
2021-09-23 21:12:40.966959,50
2021-09-23 21:12:40.966964,36
2021-09-23 21:12:40.966970,12
2021-09-23 21:12:40.966976,-19
2021-09-23 21:12:40.966982,-43
2021-09-23 21:12:40.966987,-69
2021-09-23 21:12:40.966993,-96
2021-09-23 21:12:40.966999,-105
2021-09-23 21:12:40.967005,-105
2021-09-23 21:12:41.146886,-110
2021-09-23 21:12:41.146906,-115
2021-09-23 21:12:41.146914,-113
2021-09-23 21:12:41.146920,-108
2021-09-23 21:12:41.146926,-105
2021-09-23 21:12:41.146931,-96
2021-09-23 21:12:41.146937,-84
2021-09-23 21:12:41.146943,-74
2021-09-23 21:12:41.146949,-67
2021-09-23 21:12:41.146954,-62
2021-09-23 21:12:41.146960,-52
2021-09-23 21:12:41.146966,-48
2021-09-23 21:12:41.146971,-48
2021-09-23 21:12:41.146977,-40
2021-09-23 21:12:41.146983,-33
2021-09-23 21:12:41.146988,-33
2021-09-23 21:12:41.146994,-28
2021-09-23 21:12:41.146999,-31
2021-09-23 21:12:41.147005,-38
2021-09-23 21:12:41.147011,-36
2021-09-23 21:12:41.147017,-28
2021-09-23 21:12:41.147023,-28
2021-09-23 21:12:41.147029,-28
2021-09-23 21:12:41.147034,-33
2021-09-23 21:12:41.147040,-31
2021-09-23 21:12:41.147046,-24
2021-09-23 21:12:41.147052,-21
2021-09-23 21:12:41.147057,-21
2021-09-23 21:12:41.147063,-21
2021-09-23 21:12:41.147069,-24
2021-09-23 21:12:41.416917,-24
2021-09-23 21:12:41.416937,-19
2021-09-23 21:12:41.416945,-14
2021-09-23 21:12:41.416951,-19
2021-09-23 21:12:41.416957,-21
2021-09-23 21:12:41.416963,-24
2021-09-23 21:12:41.416969,-26
2021-09-23 21:12:41.416975,-26
2021-09-23 21:12:41.416981,-31
2021-09-23 21:12:41.416987,-31
2021-09-23 21:12:41.416993,-31
2021-09-23 21:12:41.416999,-36
2021-09-23 21:12:41.417005,-31
2021-09-23 21:12:41.417010,-21
2021-09-23 21:12:41.417017,-26
2021-09-23 21:12:41.417023,-33
2021-09-23 21:12:41.417029,-31
2021-09-23 21:12:41.417034,-24
2021-09-23 21:12:41.417040,-19
2021-09-23 21:12:41.417046,-14
2021-09-23 21:12:41.417052,-14
2021-09-23 21:12:41.417058,-16
2021-09-23 21:12:41.417064,-12
2021-09-23 21:12:41.417070,-2
2021-09-23 21:12:41.417076,7
2021-09-23 21:12:41.417081,21
2021-09-23 21:12:41.417087,36
2021-09-23 21:12:41.417093,28
2021-09-23 21:12:41.417098,-2
2021-09-23 21:12:41.417104,-26
2021-09-23 21:12:41.685580,-31
2021-09-23 21:12:41.685599,-28
2021-09-23 21:12:41.685607,-24
2021-09-23 21:12:41.685613,-9
2021-09-23 21:12:41.685619,57
2021-09-23 21:12:41.685625,288
2021-09-23 21:12:41.685631,774
2021-09-23 21:12:41.685637,1240
2021-09-23 21:12:41.685643,815
2021-09-23 21:12:41.685649,-394
2021-09-23 21:12:41.685655,-711
2021-09-23 21:12:41.685661,-141
2021-09-23 21:12:41.685667,-60
2021-09-23 21:12:41.685673,-223
2021-09-23 21:12:41.685679,-108
2021-09-23 21:12:41.685685,-52
2021-09-23 21:12:41.685691,-113
2021-09-23 21:12:41.685697,-81
2021-09-23 21:12:41.685702,-38
2021-09-23 21:12:41.685708,-52
2021-09-23 21:12:41.685714,-40
2021-09-23 21:12:41.685720,-16
2021-09-23 21:12:41.685726,-16
2021-09-23 21:12:41.685731,-7
2021-09-23 21:12:41.685737,9
2021-09-23 21:12:41.685743,19
2021-09-23 21:12:41.685749,26
2021-09-23 21:12:41.685755,31
2021-09-23 21:12:41.685760,43
2021-09-23 21:12:41.685766,62
2021-09-23 21:12:41.866816,79
2021-09-23 21:12:41.866837,93
2021-09-23 21:12:41.866845,96
2021-09-23 21:12:41.866851,91
2021-09-23 21:12:41.866857,88
2021-09-23 21:12:41.866863,86
2021-09-23 21:12:41.866869,76
2021-09-23 21:12:41.866875,62
2021-09-23 21:12:41.866881,45
2021-09-23 21:12:41.866887,19
2021-09-23 21:12:41.866893,-9
2021-09-23 21:12:41.866898,-24
2021-09-23 21:12:41.866904,-48
2021-09-23 21:12:41.866910,-79
2021-09-23 21:12:41.866916,-101
2021-09-23 21:12:41.866922,-108
2021-09-23 21:12:41.866928,-110
2021-09-23 21:12:41.866934,-110
2021-09-23 21:12:41.866939,-110
2021-09-23 21:12:41.866945,-105
2021-09-23 21:12:41.866951,-101
2021-09-23 21:12:41.866957,-96
2021-09-23 21:12:41.866963,-86
2021-09-23 21:12:41.866968,-76
2021-09-23 21:12:41.866974,-64
2021-09-23 21:12:41.866980,-52
2021-09-23 21:12:41.866986,-50
2021-09-23 21:12:41.866991,-50
2021-09-23 21:12:41.866997,-40
2021-09-23 21:12:41.867003,-28
2021-09-23 21:12:42.181321,-24
2021-09-23 21:12:42.181341,-21
2021-09-23 21:12:42.181348,-21
2021-09-23 21:12:42.181354,-19
2021-09-23 21:12:42.181360,-19
2021-09-23 21:12:42.181366,-24
2021-09-23 21:12:42.181372,-28
2021-09-23 21:12:42.181378,-24
2021-09-23 21:12:42.181384,-26
2021-09-23 21:12:42.181390,-38
2021-09-23 21:12:42.181396,-33
2021-09-23 21:12:42.181401,-26
2021-09-23 21:12:42.181407,-33
2021-09-23 21:12:42.181413,-33
2021-09-23 21:12:42.181419,-36
2021-09-23 21:12:42.181425,-43
2021-09-23 21:12:42.181431,-40
2021-09-23 21:12:42.181437,-28
2021-09-23 21:12:42.181442,-24
2021-09-23 21:12:42.181448,-26
2021-09-23 21:12:42.181454,-26
2021-09-23 21:12:42.181460,-26
2021-09-23 21:12:42.181466,-24
2021-09-23 21:12:42.181471,-16
2021-09-23 21:12:42.181477,-14
2021-09-23 21:12:42.181483,-16
2021-09-23 21:12:42.181488,-19
2021-09-23 21:12:42.181494,-24
2021-09-23 21:12:42.181500,-24
2021-09-23 21:12:42.181506,-21
2021-09-23 21:12:42.316888,-21
2021-09-23 21:12:42.316907,-19
2021-09-23 21:12:42.316914,-21
2021-09-23 21:12:42.316920,-24
2021-09-23 21:12:42.316926,-21
2021-09-23 21:12:42.316932,-12
2021-09-23 21:12:42.316938,-9
2021-09-23 21:12:42.316944,-19
2021-09-23 21:12:42.316950,-31
2021-09-23 21:12:42.316956,-26
2021-09-23 21:12:42.316962,-12
2021-09-23 21:12:42.316968,2
2021-09-23 21:12:42.316973,21
2021-09-23 21:12:42.316979,28
2021-09-23 21:12:42.316985,7
2021-09-23 21:12:42.316991,-21
2021-09-23 21:12:42.316997,-31
2021-09-23 21:12:42.317002,-24
2021-09-23 21:12:42.317008,-14
2021-09-23 21:12:42.317014,-12
2021-09-23 21:12:42.317019,-7
2021-09-23 21:12:42.317025,74
2021-09-23 21:12:42.317031,334
2021-09-23 21:12:42.317037,827
2021-09-23 21:12:42.317043,1267
2021-09-23 21:12:42.317048,779
2021-09-23 21:12:42.317054,-428
2021-09-23 21:12:42.317060,-670
2021-09-23 21:12:42.317065,-101
2021-09-23 21:12:42.317071,-55
2021-09-23 21:12:42.541918,-214
2021-09-23 21:12:42.541939,-88
2021-09-23 21:12:42.541946,-38
2021-09-23 21:12:42.541952,-93
2021-09-23 21:12:42.541958,-62
2021-09-23 21:12:42.541964,-21
2021-09-23 21:12:42.541970,-36
2021-09-23 21:12:42.541976,-33
2021-09-23 21:12:42.541982,-14
2021-09-23 21:12:42.541988,-14
2021-09-23 21:12:42.541994,-12
2021-09-23 21:12:42.542000,7
2021-09-23 21:12:42.542005,16
2021-09-23 21:12:42.542011,19
2021-09-23 21:12:42.542017,28
2021-09-23 21:12:42.542023,45
2021-09-23 21:12:42.542029,60
2021-09-23 21:12:42.542035,74
2021-09-23 21:12:42.542040,84
2021-09-23 21:12:42.542046,93
2021-09-23 21:12:42.542052,101
2021-09-23 21:12:42.542058,103
2021-09-23 21:12:42.542063,96
2021-09-23 21:12:42.542069,88
2021-09-23 21:12:42.542075,74
2021-09-23 21:12:42.542081,55
2021-09-23 21:12:42.542087,33
2021-09-23 21:12:42.542092,9
2021-09-23 21:12:42.542098,-19
2021-09-23 21:12:42.542104,-43
2021-09-23 21:12:42.766915,-60
2021-09-23 21:12:42.766935,-67
2021-09-23 21:12:42.766942,-76
2021-09-23 21:12:42.766948,-84
2021-09-23 21:12:42.766954,-86
2021-09-23 21:12:42.766960,-86
2021-09-23 21:12:42.766966,-91
2021-09-23 21:12:42.766971,-96
2021-09-23 21:12:42.766977,-86
2021-09-23 21:12:42.766983,-76
2021-09-23 21:12:42.766989,-69
2021-09-23 21:12:42.766995,-67
2021-09-23 21:12:42.767001,-74
2021-09-23 21:12:42.767007,-69
2021-09-23 21:12:42.767013,-52
2021-09-23 21:12:42.767019,-48
2021-09-23 21:12:42.767025,-43
2021-09-23 21:12:42.767030,-36
2021-09-23 21:12:42.767036,-33
2021-09-23 21:12:42.767042,-33
2021-09-23 21:12:42.767048,-28
2021-09-23 21:12:42.767054,-28
2021-09-23 21:12:42.767059,-26
2021-09-23 21:12:42.767065,-28
2021-09-23 21:12:42.767071,-33
2021-09-23 21:12:42.767077,-43
2021-09-23 21:12:42.767083,-45
2021-09-23 21:12:42.767089,-40
2021-09-23 21:12:42.767095,-38
2021-09-23 21:12:42.767100,-38
2021-09-23 21:12:42.991926,-38
2021-09-23 21:12:42.991948,-38
2021-09-23 21:12:42.991955,-40
2021-09-23 21:12:42.991961,-48
2021-09-23 21:12:42.991967,-45
2021-09-23 21:12:42.991973,-45
2021-09-23 21:12:42.991979,-52
2021-09-23 21:12:42.991985,-48
2021-09-23 21:12:42.991990,-38
2021-09-23 21:12:42.991996,-38
2021-09-23 21:12:42.992002,-40
2021-09-23 21:12:42.992008,-43
2021-09-23 21:12:42.992014,-45
2021-09-23 21:12:42.992020,-45
2021-09-23 21:12:42.992026,-45
2021-09-23 21:12:42.992032,-38
2021-09-23 21:12:42.992038,-31
2021-09-23 21:12:42.992043,-33
2021-09-23 21:12:42.992049,-36
2021-09-23 21:12:42.992055,-33
2021-09-23 21:12:42.992060,-26
2021-09-23 21:12:42.992066,-24
2021-09-23 21:12:42.992072,-19
2021-09-23 21:12:42.992078,-16
2021-09-23 21:12:42.992084,-16
2021-09-23 21:12:42.992090,-14
2021-09-23 21:12:42.992096,-12
2021-09-23 21:12:42.992101,-2
2021-09-23 21:12:42.992107,4
2021-09-23 21:12:42.992113,16
2021-09-23 21:12:43.216944,33
2021-09-23 21:12:43.216965,33
2021-09-23 21:12:43.216972,7
2021-09-23 21:12:43.216978,-12
2021-09-23 21:12:43.216984,-19
2021-09-23 21:12:43.216990,-16
2021-09-23 21:12:43.216996,-9
2021-09-23 21:12:43.217002,9
2021-09-23 21:12:43.217007,62
2021-09-23 21:12:43.217013,250
2021-09-23 21:12:43.217019,678
2021-09-23 21:12:43.217025,1209
2021-09-23 21:12:43.217031,1048
2021-09-23 21:12:43.217037,-105
2021-09-23 21:12:43.217043,-738
2021-09-23 21:12:43.217049,-252
2021-09-23 21:12:43.217055,-14
2021-09-23 21:12:43.217060,-209
2021-09-23 21:12:43.217066,-137
2021-09-23 21:12:43.217072,-24
2021-09-23 21:12:43.217078,-79
2021-09-23 21:12:43.217083,-76
2021-09-23 21:12:43.217089,-28
2021-09-23 21:12:43.217095,-31
2021-09-23 21:12:43.217100,-31
2021-09-23 21:12:43.217106,-4
2021-09-23 21:12:43.217112,4
2021-09-23 21:12:43.217118,9
2021-09-23 21:12:43.217123,16
2021-09-23 21:12:43.217129,28
2021-09-23 21:12:43.441806,33
2021-09-23 21:12:43.441826,36
2021-09-23 21:12:43.441833,45
2021-09-23 21:12:43.441839,55
2021-09-23 21:12:43.441845,62
2021-09-23 21:12:43.441850,72
2021-09-23 21:12:43.441856,91
2021-09-23 21:12:43.441862,101
2021-09-23 21:12:43.441867,103
2021-09-23 21:12:43.441873,96
2021-09-23 21:12:43.441879,84
2021-09-23 21:12:43.441884,69
2021-09-23 21:12:43.441890,60
2021-09-23 21:12:43.441896,40
2021-09-23 21:12:43.441902,14
2021-09-23 21:12:43.441907,-14
2021-09-23 21:12:43.441913,-45
2021-09-23 21:12:43.441919,-67
2021-09-23 21:12:43.441925,-84
2021-09-23 21:12:43.441930,-96
2021-09-23 21:12:43.441936,-101
2021-09-23 21:12:43.441942,-110
2021-09-23 21:12:43.441947,-113
2021-09-23 21:12:43.441953,-105
2021-09-23 21:12:43.441959,-101
2021-09-23 21:12:43.441964,-98
2021-09-23 21:12:43.441970,-91
2021-09-23 21:12:43.441976,-84
2021-09-23 21:12:43.441982,-74
2021-09-23 21:12:43.441988,-64
2021-09-23 21:12:43.755580,-57
2021-09-23 21:12:43.755601,-48
2021-09-23 21:12:43.755608,-38
2021-09-23 21:12:43.755614,-40
2021-09-23 21:12:43.755620,-45
2021-09-23 21:12:43.755629,-36
2021-09-23 21:12:43.755635,-33
2021-09-23 21:12:43.755641,-38
2021-09-23 21:12:43.755647,-40
2021-09-23 21:12:43.755653,-50
2021-09-23 21:12:43.755659,-55
2021-09-23 21:12:43.755665,-50
2021-09-23 21:12:43.755671,-45
2021-09-23 21:12:43.755677,-45
2021-09-23 21:12:43.755683,-45
2021-09-23 21:12:43.755689,-45
2021-09-23 21:12:43.755695,-43
2021-09-23 21:12:43.755701,-38
2021-09-23 21:12:43.755706,-36
2021-09-23 21:12:43.755712,-38
2021-09-23 21:12:43.755718,-45
2021-09-23 21:12:43.755723,-48
2021-09-23 21:12:43.755729,-38
2021-09-23 21:12:43.755735,-31
2021-09-23 21:12:43.755741,-31
2021-09-23 21:12:43.755746,-28
2021-09-23 21:12:43.755752,-28
2021-09-23 21:12:43.755758,-28
2021-09-23 21:12:43.755764,-26
2021-09-23 21:12:43.755769,-19
2021-09-23 21:12:43.936936,-16
2021-09-23 21:12:43.936957,-14
2021-09-23 21:12:43.936965,-14
2021-09-23 21:12:43.936971,-16
2021-09-23 21:12:43.936977,-14
2021-09-23 21:12:43.936983,-9
2021-09-23 21:12:43.936989,-12
2021-09-23 21:12:43.936995,-21
2021-09-23 21:12:43.937001,-28
2021-09-23 21:12:43.937007,-31
2021-09-23 21:12:43.937013,-26
2021-09-23 21:12:43.937019,-16
2021-09-23 21:12:43.937025,-12
2021-09-23 21:12:43.937031,-14
2021-09-23 21:12:43.937037,-24
2021-09-23 21:12:43.937043,-21
2021-09-23 21:12:43.937048,-7
2021-09-23 21:12:43.937054,12
2021-09-23 21:12:43.937060,28
2021-09-23 21:12:43.937066,31
2021-09-23 21:12:43.937072,2
2021-09-23 21:12:43.937078,-28
2021-09-23 21:12:43.937084,-28
2021-09-23 21:12:43.937089,-14
2021-09-23 21:12:43.937095,-4
2021-09-23 21:12:43.937101,4
2021-09-23 21:12:43.937107,50
2021-09-23 21:12:43.937112,223
2021-09-23 21:12:43.937118,642
2021-09-23 21:12:43.937124,1192
2021-09-23 21:12:44.296879,1111
2021-09-23 21:12:44.296898,-16
2021-09-23 21:12:44.296905,-747
2021-09-23 21:12:44.296911,-290
2021-09-23 21:12:44.296917,9
2021-09-23 21:12:44.296923,-180
2021-09-23 21:12:44.296930,-134
2021-09-23 21:12:44.296935,-21
2021-09-23 21:12:44.296941,-84
2021-09-23 21:12:44.296947,-91
2021-09-23 21:12:44.296953,-31
2021-09-23 21:12:44.296959,-26
2021-09-23 21:12:44.296964,-31
2021-09-23 21:12:44.296970,-9
2021-09-23 21:12:44.296976,-4
2021-09-23 21:12:44.296982,-2
2021-09-23 21:12:44.296987,14
2021-09-23 21:12:44.296993,24
2021-09-23 21:12:44.296999,31
2021-09-23 21:12:44.297005,45
2021-09-23 21:12:44.297011,55
2021-09-23 21:12:44.297017,64
2021-09-23 21:12:44.297023,81
2021-09-23 21:12:44.297029,96
2021-09-23 21:12:44.297035,101
2021-09-23 21:12:44.297040,105
2021-09-23 21:12:44.297046,115
2021-09-23 21:12:44.297052,113
2021-09-23 21:12:44.297058,96
2021-09-23 21:12:44.297063,81
2021-09-23 21:12:44.431767,69
2021-09-23 21:12:44.431785,50
2021-09-23 21:12:44.431792,16
2021-09-23 21:12:44.431798,-14
2021-09-23 21:12:44.431804,-36
2021-09-23 21:12:44.431810,-57
2021-09-23 21:12:44.431816,-79
2021-09-23 21:12:44.431822,-91
2021-09-23 21:12:44.431827,-101
2021-09-23 21:12:44.431833,-108
2021-09-23 21:12:44.431839,-105
2021-09-23 21:12:44.431845,-103
2021-09-23 21:12:44.431851,-108
2021-09-23 21:12:44.431857,-115
2021-09-23 21:12:44.431863,-113
2021-09-23 21:12:44.431868,-105
2021-09-23 21:12:44.431874,-105
2021-09-23 21:12:44.431880,-98
2021-09-23 21:12:44.431886,-81
2021-09-23 21:12:44.431891,-72
2021-09-23 21:12:44.431897,-69
2021-09-23 21:12:44.431903,-60
2021-09-23 21:12:44.431909,-48
2021-09-23 21:12:44.431914,-40
2021-09-23 21:12:44.431920,-40
2021-09-23 21:12:44.431926,-43
2021-09-23 21:12:44.431931,-48
2021-09-23 21:12:44.431937,-45
2021-09-23 21:12:44.431943,-36
2021-09-23 21:12:44.431948,-38
2021-09-23 21:12:44.611822,-45
2021-09-23 21:12:44.611841,-50
2021-09-23 21:12:44.611849,-50
2021-09-23 21:12:44.611855,-45
2021-09-23 21:12:44.611861,-40
2021-09-23 21:12:44.611867,-40
2021-09-23 21:12:44.611873,-45
2021-09-23 21:12:44.611878,-48
2021-09-23 21:12:44.611884,-40
2021-09-23 21:12:44.611890,-38
2021-09-23 21:12:44.611896,-36
2021-09-23 21:12:44.611902,-28
2021-09-23 21:12:44.611908,-24
2021-09-23 21:12:44.611914,-24
2021-09-23 21:12:44.611919,-24
2021-09-23 21:12:44.611925,-24
2021-09-23 21:12:44.611931,-19
2021-09-23 21:12:44.611936,-21
2021-09-23 21:12:44.611942,-26
2021-09-23 21:12:44.611948,-21
2021-09-23 21:12:44.611954,-12
2021-09-23 21:12:44.611960,-9
2021-09-23 21:12:44.611966,-12
2021-09-23 21:12:44.611971,-9
2021-09-23 21:12:44.611977,-9
2021-09-23 21:12:44.611983,-7
2021-09-23 21:12:44.611988,-4
2021-09-23 21:12:44.611994,-2
2021-09-23 21:12:44.612000,0
2021-09-23 21:12:44.612006,4
2021-09-23 21:12:44.881174,19
2021-09-23 21:12:44.881194,38
2021-09-23 21:12:44.881202,31
2021-09-23 21:12:44.881208,0
2021-09-23 21:12:44.881214,-16
2021-09-23 21:12:44.881220,-19
2021-09-23 21:12:44.881226,-14
2021-09-23 21:12:44.881232,0
2021-09-23 21:12:44.881238,16
2021-09-23 21:12:44.881244,69
2021-09-23 21:12:44.881250,276
2021-09-23 21:12:44.881256,735
2021-09-23 21:12:44.881262,1236
2021-09-23 21:12:44.881268,940
2021-09-23 21:12:44.881274,-269
2021-09-23 21:12:44.881280,-755
2021-09-23 21:12:44.881285,-192
2021-09-23 21:12:44.881291,-14
2021-09-23 21:12:44.881297,-214
2021-09-23 21:12:44.881303,-122
2021-09-23 21:12:44.881309,-24
2021-09-23 21:12:44.881315,-84
2021-09-23 21:12:44.881321,-69
2021-09-23 21:12:44.881327,-19
2021-09-23 21:12:44.881332,-26
2021-09-23 21:12:44.881338,-24
2021-09-23 21:12:44.881344,-2
2021-09-23 21:12:44.881350,7
2021-09-23 21:12:44.881356,14
2021-09-23 21:12:44.881362,26
2021-09-23 21:12:45.106681,36
2021-09-23 21:12:45.106698,45
2021-09-23 21:12:45.106705,57
2021-09-23 21:12:45.106711,67
2021-09-23 21:12:45.106717,76
2021-09-23 21:12:45.106723,88
2021-09-23 21:12:45.106729,103
2021-09-23 21:12:45.106735,122
2021-09-23 21:12:45.106741,137
2021-09-23 21:12:45.106746,141
2021-09-23 21:12:45.106752,137
2021-09-23 21:12:45.106758,120
2021-09-23 21:12:45.106764,101
2021-09-23 21:12:45.106770,81
2021-09-23 21:12:45.106776,52
2021-09-23 21:12:45.106781,14
2021-09-23 21:12:45.106787,-21
2021-09-23 21:12:45.106793,-52
2021-09-23 21:12:45.106799,-74
2021-09-23 21:12:45.106805,-84
2021-09-23 21:12:45.106810,-88
2021-09-23 21:12:45.106816,-101
2021-09-23 21:12:45.106822,-115
2021-09-23 21:12:45.106827,-115
2021-09-23 21:12:45.106833,-103
2021-09-23 21:12:45.106839,-103
2021-09-23 21:12:45.106845,-103
2021-09-23 21:12:45.106850,-91
2021-09-23 21:12:45.106856,-81
2021-09-23 21:12:45.106862,-81
2021-09-23 21:12:45.376146,-76
2021-09-23 21:12:45.376163,-67
2021-09-23 21:12:45.376170,-69
2021-09-23 21:12:45.376176,-72
2021-09-23 21:12:45.376182,-62
2021-09-23 21:12:45.376188,-55
2021-09-23 21:12:45.376194,-50
2021-09-23 21:12:45.376200,-48
2021-09-23 21:12:45.376206,-48
2021-09-23 21:12:45.376212,-48
2021-09-23 21:12:45.376218,-48
2021-09-23 21:12:45.376224,-52
2021-09-23 21:12:45.376229,-50
2021-09-23 21:12:45.376235,-48
2021-09-23 21:12:45.376241,-43
2021-09-23 21:12:45.376246,-45
2021-09-23 21:12:45.376252,-55
2021-09-23 21:12:45.376258,-45
2021-09-23 21:12:45.376264,-31
2021-09-23 21:12:45.376270,-33
2021-09-23 21:12:45.376276,-45
2021-09-23 21:12:45.376281,-43
2021-09-23 21:12:45.376287,-33
2021-09-23 21:12:45.376293,-38
2021-09-23 21:12:45.376298,-45
2021-09-23 21:12:45.376304,-40
2021-09-23 21:12:45.376310,-33
2021-09-23 21:12:45.376315,-33
2021-09-23 21:12:45.376321,-36
2021-09-23 21:12:45.376327,-31
2021-09-23 21:12:45.556879,-24
2021-09-23 21:12:45.556900,-21
2021-09-23 21:12:45.556907,-19
2021-09-23 21:12:45.556914,-21
2021-09-23 21:12:45.556920,-19
2021-09-23 21:12:45.556925,-16
2021-09-23 21:12:45.556931,-14
2021-09-23 21:12:45.556937,-4
2021-09-23 21:12:45.556943,2
2021-09-23 21:12:45.556949,0
2021-09-23 21:12:45.556955,12
2021-09-23 21:12:45.556961,26
2021-09-23 21:12:45.556967,9
2021-09-23 21:12:45.556973,-14
2021-09-23 21:12:45.556979,-26
2021-09-23 21:12:45.556984,-26
2021-09-23 21:12:45.556990,-21
2021-09-23 21:12:45.556996,-7
2021-09-23 21:12:45.557002,28
2021-09-23 21:12:45.557008,151
2021-09-23 21:12:45.557013,461
2021-09-23 21:12:45.557019,923
2021-09-23 21:12:45.557025,1053
2021-09-23 21:12:45.557031,228
2021-09-23 21:12:45.557036,-726
2021-09-23 21:12:45.557042,-512
2021-09-23 21:12:45.557048,-9
2021-09-23 21:12:45.557054,-108
2021-09-23 21:12:45.557060,-146
2021-09-23 21:12:45.557066,2
2021-09-23 21:12:45.870474,-19
2021-09-23 21:12:45.870492,-50
2021-09-23 21:12:45.870499,2
2021-09-23 21:12:45.870505,7
2021-09-23 21:12:45.870512,-2
2021-09-23 21:12:45.870517,19
2021-09-23 21:12:45.870523,28
2021-09-23 21:12:45.870529,24
2021-09-23 21:12:45.870535,31
2021-09-23 21:12:45.870541,38
2021-09-23 21:12:45.870547,50
2021-09-23 21:12:45.870552,69
2021-09-23 21:12:45.870558,84
2021-09-23 21:12:45.870564,96
2021-09-23 21:12:45.870569,108
2021-09-23 21:12:45.870575,113
2021-09-23 21:12:45.870581,127
2021-09-23 21:12:45.870587,151
2021-09-23 21:12:45.870593,165
2021-09-23 21:12:45.870598,168
2021-09-23 21:12:45.870604,156
2021-09-23 21:12:45.870610,137
2021-09-23 21:12:45.870616,122
2021-09-23 21:12:45.870621,101
2021-09-23 21:12:45.870627,62
2021-09-23 21:12:45.870632,19
2021-09-23 21:12:45.870638,-21
2021-09-23 21:12:45.870644,-50
2021-09-23 21:12:45.870649,-74
2021-09-23 21:12:45.870655,-101
2021-09-23 21:12:46.006812,-113
2021-09-23 21:12:46.006830,-115
2021-09-23 21:12:46.006838,-122
2021-09-23 21:12:46.006844,-127
2021-09-23 21:12:46.006850,-125
2021-09-23 21:12:46.006856,-115
2021-09-23 21:12:46.006861,-110
2021-09-23 21:12:46.006867,-103
2021-09-23 21:12:46.006873,-98
2021-09-23 21:12:46.006879,-93
2021-09-23 21:12:46.006885,-72
2021-09-23 21:12:46.006891,-57
2021-09-23 21:12:46.006897,-50
2021-09-23 21:12:46.006903,-43
2021-09-23 21:12:46.006908,-43
2021-09-23 21:12:46.006914,-40
2021-09-23 21:12:46.006920,-33
2021-09-23 21:12:46.006926,-31
2021-09-23 21:12:46.006932,-36
2021-09-23 21:12:46.006937,-45
2021-09-23 21:12:46.006943,-55
2021-09-23 21:12:46.006948,-57
2021-09-23 21:12:46.006954,-55
2021-09-23 21:12:46.006960,-50
2021-09-23 21:12:46.006966,-48
2021-09-23 21:12:46.006971,-50
2021-09-23 21:12:46.006977,-48
2021-09-23 21:12:46.006983,-45
2021-09-23 21:12:46.006988,-45
2021-09-23 21:12:46.006994,-43
2021-09-23 21:12:46.277192,-38
2021-09-23 21:12:46.277209,-38
2021-09-23 21:12:46.277216,-40
2021-09-23 21:12:46.277223,-38
2021-09-23 21:12:46.277228,-31
2021-09-23 21:12:46.277234,-28
2021-09-23 21:12:46.277240,-28
2021-09-23 21:12:46.277246,-28
2021-09-23 21:12:46.277252,-28
2021-09-23 21:12:46.277258,-28
2021-09-23 21:12:46.277264,-33
2021-09-23 21:12:46.277270,-33
2021-09-23 21:12:46.277276,-24
2021-09-23 21:12:46.277281,-21
2021-09-23 21:12:46.277287,-12
2021-09-23 21:12:46.277293,9
2021-09-23 21:12:46.277299,12
2021-09-23 21:12:46.277305,-12
2021-09-23 21:12:46.277310,-33
2021-09-23 21:12:46.277316,-33
2021-09-23 21:12:46.277322,-24
2021-09-23 21:12:46.277328,-16
2021-09-23 21:12:46.277333,-4
2021-09-23 21:12:46.277339,40
2021-09-23 21:12:46.277345,218
2021-09-23 21:12:46.277351,630
2021-09-23 21:12:46.277356,1166
2021-09-23 21:12:46.277362,1098
2021-09-23 21:12:46.277368,9
2021-09-23 21:12:46.277373,-719
2021-09-23 21:12:46.456791,-290
2021-09-23 21:12:46.456809,9
2021-09-23 21:12:46.456816,-177
2021-09-23 21:12:46.456822,-144
2021-09-23 21:12:46.456828,-38
2021-09-23 21:12:46.456834,-88
2021-09-23 21:12:46.456840,-96
2021-09-23 21:12:46.456846,-48
2021-09-23 21:12:46.456852,-48
2021-09-23 21:12:46.456857,-48
2021-09-23 21:12:46.456863,-21
2021-09-23 21:12:46.456869,-12
2021-09-23 21:12:46.456875,-19
2021-09-23 21:12:46.456881,-7
2021-09-23 21:12:46.456887,12
2021-09-23 21:12:46.456893,24
2021-09-23 21:12:46.456898,36
2021-09-23 21:12:46.456904,50
2021-09-23 21:12:46.456910,60
2021-09-23 21:12:46.456916,72
2021-09-23 21:12:46.456922,91
2021-09-23 21:12:46.456927,115
2021-09-23 21:12:46.456933,132
2021-09-23 21:12:46.456939,141
2021-09-23 21:12:46.456945,144
2021-09-23 21:12:46.456950,137
2021-09-23 21:12:46.456956,127
2021-09-23 21:12:46.456962,108
2021-09-23 21:12:46.456968,81
2021-09-23 21:12:46.456973,40
2021-09-23 21:12:46.726257,-2
2021-09-23 21:12:46.726276,-36
2021-09-23 21:12:46.726283,-57
2021-09-23 21:12:46.726290,-76
2021-09-23 21:12:46.726295,-93
2021-09-23 21:12:46.726301,-101
2021-09-23 21:12:46.726307,-105
2021-09-23 21:12:46.726313,-103
2021-09-23 21:12:46.726318,-96
2021-09-23 21:12:46.726324,-98
2021-09-23 21:12:46.726330,-98
2021-09-23 21:12:46.726336,-96
2021-09-23 21:12:46.726341,-93
2021-09-23 21:12:46.726347,-86
2021-09-23 21:12:46.726352,-81
2021-09-23 21:12:46.726358,-81
2021-09-23 21:12:46.726364,-72
2021-09-23 21:12:46.726369,-60
2021-09-23 21:12:46.726375,-60
2021-09-23 21:12:46.726381,-57
2021-09-23 21:12:46.726386,-48
2021-09-23 21:12:46.726392,-40
2021-09-23 21:12:46.726398,-38
2021-09-23 21:12:46.726403,-38
2021-09-23 21:12:46.726409,-36
2021-09-23 21:12:46.726414,-33
2021-09-23 21:12:46.726420,-28
2021-09-23 21:12:46.726425,-28
2021-09-23 21:12:46.726431,-28
2021-09-23 21:12:46.726437,-28
2021-09-23 21:12:46.951821,-24
2021-09-23 21:12:46.951839,-21
2021-09-23 21:12:46.951846,-24
2021-09-23 21:12:46.951852,-31
2021-09-23 21:12:46.951858,-36
2021-09-23 21:12:46.951864,-40
2021-09-23 21:12:46.951870,-43
2021-09-23 21:12:46.951876,-40
2021-09-23 21:12:46.951969,-36
2021-09-23 21:12:46.951976,-43
2021-09-23 21:12:46.951982,-55
2021-09-23 21:12:46.951988,-57
2021-09-23 21:12:46.951994,-55
2021-09-23 21:12:46.952000,-55
2021-09-23 21:12:46.952006,-52
2021-09-23 21:12:46.952012,-40
2021-09-23 21:12:46.952017,-36
2021-09-23 21:12:46.952023,-28
2021-09-23 21:12:46.952029,-4
2021-09-23 21:12:46.952035,0
2021-09-23 21:12:46.952040,-31
2021-09-23 21:12:46.952046,-57
2021-09-23 21:12:46.952052,-52
2021-09-23 21:12:46.952058,-38
2021-09-23 21:12:46.952064,-31
2021-09-23 21:12:46.952070,-19
2021-09-23 21:12:46.952075,28
2021-09-23 21:12:46.952081,209
2021-09-23 21:12:46.952087,637
2021-09-23 21:12:46.952093,1195
2021-09-23 21:12:47.221846,1115
2021-09-23 21:12:47.221865,-21
2021-09-23 21:12:47.221872,-769
2021-09-23 21:12:47.221878,-315
2021-09-23 21:12:47.221884,-4
2021-09-23 21:12:47.221890,-199
2021-09-23 21:12:47.221896,-153
2021-09-23 21:12:47.221902,-28
2021-09-23 21:12:47.221907,-76
2021-09-23 21:12:47.221913,-86
2021-09-23 21:12:47.221919,-38
2021-09-23 21:12:47.221925,-43
2021-09-23 21:12:47.221931,-40
2021-09-23 21:12:47.221936,-12
2021-09-23 21:12:47.221942,-4
2021-09-23 21:12:47.221948,-7
2021-09-23 21:12:47.221954,7
2021-09-23 21:12:47.221959,16
2021-09-23 21:12:47.221965,24
2021-09-23 21:12:47.221971,38
2021-09-23 21:12:47.221977,52
2021-09-23 21:12:47.221982,62
2021-09-23 21:12:47.221988,76
2021-09-23 21:12:47.221994,101
2021-09-23 21:12:47.221999,127
2021-09-23 21:12:47.222005,144
2021-09-23 21:12:47.222011,153
2021-09-23 21:12:47.222016,153
2021-09-23 21:12:47.222022,139
2021-09-23 21:12:47.222028,127
2021-09-23 21:12:47.356754,120
2021-09-23 21:12:47.356771,91
2021-09-23 21:12:47.356778,45
2021-09-23 21:12:47.356784,-2
2021-09-23 21:12:47.356790,-43
2021-09-23 21:12:47.356796,-67
2021-09-23 21:12:47.356801,-88
2021-09-23 21:12:47.356807,-101
2021-09-23 21:12:47.356813,-93
2021-09-23 21:12:47.356819,-96
2021-09-23 21:12:47.356825,-108
2021-09-23 21:12:47.356830,-105
2021-09-23 21:12:47.356836,-96
2021-09-23 21:12:47.356842,-93
2021-09-23 21:12:47.356848,-88
2021-09-23 21:12:47.356853,-91
2021-09-23 21:12:47.356859,-101
2021-09-23 21:12:47.356865,-91
2021-09-23 21:12:47.356871,-69
2021-09-23 21:12:47.356876,-67
2021-09-23 21:12:47.356882,-67
2021-09-23 21:12:47.356888,-60
2021-09-23 21:12:47.356893,-55
2021-09-23 21:12:47.356899,-52
2021-09-23 21:12:47.356905,-40
2021-09-23 21:12:47.356911,-33
2021-09-23 21:12:47.356916,-36
2021-09-23 21:12:47.356922,-38
2021-09-23 21:12:47.356928,-33
2021-09-23 21:12:47.356933,-28
2021-09-23 21:12:47.626836,-28
2021-09-23 21:12:47.626853,-31
2021-09-23 21:12:47.626860,-36
2021-09-23 21:12:47.626866,-38
2021-09-23 21:12:47.626872,-40
2021-09-23 21:12:47.626878,-36
2021-09-23 21:12:47.626884,-31
2021-09-23 21:12:47.626889,-33
2021-09-23 21:12:47.626895,-38
2021-09-23 21:12:47.626901,-43
2021-09-23 21:12:47.626907,-40
2021-09-23 21:12:47.626913,-28
2021-09-23 21:12:47.626919,-24
2021-09-23 21:12:47.626925,-28
2021-09-23 21:12:47.626930,-28
2021-09-23 21:12:47.626936,-19
2021-09-23 21:12:47.626942,-9
2021-09-23 21:12:47.626947,4
2021-09-23 21:12:47.626953,24
2021-09-23 21:12:47.626959,24
2021-09-23 21:12:47.626965,-9
2021-09-23 21:12:47.626971,-43
2021-09-23 21:12:47.626976,-48
2021-09-23 21:12:47.626982,-40
2021-09-23 21:12:47.626988,-33
2021-09-23 21:12:47.626993,-28
2021-09-23 21:12:47.626999,-2
2021-09-23 21:12:47.627005,127
2021-09-23 21:12:47.627011,471
2021-09-23 21:12:47.627016,978
2021-09-23 21:12:47.895568,1089
2021-09-23 21:12:47.895587,165
2021-09-23 21:12:47.895594,-788
2021-09-23 21:12:47.895601,-502
2021-09-23 21:12:47.895607,-19
2021-09-23 21:12:47.895613,-151
2021-09-23 21:12:47.895619,-173
2021-09-23 21:12:47.895625,-24
2021-09-23 21:12:47.895631,-60
2021-09-23 21:12:47.895637,-98
2021-09-23 21:12:47.895643,-43
2021-09-23 21:12:47.895649,-28
2021-09-23 21:12:47.895655,-31
2021-09-23 21:12:47.895661,-12
2021-09-23 21:12:47.895667,-9
2021-09-23 21:12:47.895673,-9
2021-09-23 21:12:47.895679,12
2021-09-23 21:12:47.895685,28
2021-09-23 21:12:47.895691,38
2021-09-23 21:12:47.895697,50
2021-09-23 21:12:47.895703,64
2021-09-23 21:12:47.895709,69
2021-09-23 21:12:47.895715,79
