Time,ECG
2021-09-23 20:54:11.790321,-24
2021-09-23 20:54:11.790341,-24
2021-09-23 20:54:11.790347,-21
2021-09-23 20:54:11.790353,26
2021-09-23 20:54:11.790496,247
2021-09-23 20:54:11.790510,731
2021-09-23 20:54:11.790551,1202
2021-09-23 20:54:11.790560,836
2021-09-23 20:54:11.790601,-300
2021-09-23 20:54:11.790609,-639
2021-09-23 20:54:11.790614,-134
2021-09-23 20:54:11.790620,-62
2021-09-23 20:54:11.790625,-230
2021-09-23 20:54:11.790630,-122
2021-09-23 20:54:11.790670,-64
2021-09-23 20:54:11.790679,-122
2021-09-23 20:54:11.790684,-93
2021-09-23 20:54:11.790691,-45
2021-09-23 20:54:11.790696,-52
2021-09-23 20:54:11.790701,-55
2021-09-23 20:54:11.790707,-40
2021-09-23 20:54:11.790712,-31
2021-09-23 20:54:11.790718,-21
2021-09-23 20:54:11.790723,-9
2021-09-23 20:54:11.790729,-2
2021-09-23 20:54:11.790735,7
2021-09-23 20:54:11.790777,19
2021-09-23 20:54:11.790785,24
2021-09-23 20:54:11.790824,33
2021-09-23 20:54:11.790831,52
2021-09-23 20:54:12.061658,64
2021-09-23 20:54:12.061677,74
2021-09-23 20:54:12.061684,84
2021-09-23 20:54:12.061690,91
2021-09-23 20:54:12.061696,96
2021-09-23 20:54:12.061702,98
2021-09-23 20:54:12.061709,93
2021-09-23 20:54:12.061715,86
2021-09-23 20:54:12.061720,74
2021-09-23 20:54:12.061726,50
2021-09-23 20:54:12.061732,19
2021-09-23 20:54:12.061738,-9
2021-09-23 20:54:12.061744,-33
2021-09-23 20:54:12.061750,-52
2021-09-23 20:54:12.061755,-69
2021-09-23 20:54:12.061761,-88
2021-09-23 20:54:12.061767,-98
2021-09-23 20:54:12.061774,-88
2021-09-23 20:54:12.061780,-86
2021-09-23 20:54:12.061786,-86
2021-09-23 20:54:12.061791,-86
2021-09-23 20:54:12.061797,-84
2021-09-23 20:54:12.061803,-76
2021-09-23 20:54:12.061809,-74
2021-09-23 20:54:12.061815,-67
2021-09-23 20:54:12.061820,-60
2021-09-23 20:54:12.061826,-55
2021-09-23 20:54:12.061832,-52
2021-09-23 20:54:12.061838,-43
2021-09-23 20:54:12.061846,-40
2021-09-23 20:54:12.241654,-45
2021-09-23 20:54:12.241675,-36
2021-09-23 20:54:12.241683,-28
2021-09-23 20:54:12.241689,-31
2021-09-23 20:54:12.241695,-24
2021-09-23 20:54:12.241701,-12
2021-09-23 20:54:12.241707,-14
2021-09-23 20:54:12.241713,-19
2021-09-23 20:54:12.241719,-19
2021-09-23 20:54:12.241725,-31
2021-09-23 20:54:12.241730,-33
2021-09-23 20:54:12.241736,-26
2021-09-23 20:54:12.241742,-21
2021-09-23 20:54:12.241752,-26
2021-09-23 20:54:12.241758,-33
2021-09-23 20:54:12.241764,-36
2021-09-23 20:54:12.241770,-31
2021-09-23 20:54:12.241776,-28
2021-09-23 20:54:12.241782,-33
2021-09-23 20:54:12.241788,-31
2021-09-23 20:54:12.241794,-33
2021-09-23 20:54:12.241799,-38
2021-09-23 20:54:12.241805,-33
2021-09-23 20:54:12.241811,-26
2021-09-23 20:54:12.241817,-36
2021-09-23 20:54:12.241823,-33
2021-09-23 20:54:12.241829,-28
2021-09-23 20:54:12.241834,-33
2021-09-23 20:54:12.241840,-36
2021-09-23 20:54:12.241849,-26
2021-09-23 20:54:12.466704,-14
2021-09-23 20:54:12.466724,-14
2021-09-23 20:54:12.466731,-28
2021-09-23 20:54:12.466737,-38
2021-09-23 20:54:12.466742,-26
2021-09-23 20:54:12.466748,-12
2021-09-23 20:54:12.466754,-2
2021-09-23 20:54:12.466759,2
2021-09-23 20:54:12.466765,-7
2021-09-23 20:54:12.466771,-28
2021-09-23 20:54:12.466777,-48
2021-09-23 20:54:12.466782,-43
2021-09-23 20:54:12.466788,-31
2021-09-23 20:54:12.466794,-33
2021-09-23 20:54:12.466799,-36
2021-09-23 20:54:12.466805,-2
2021-09-23 20:54:12.466811,125
2021-09-23 20:54:12.466821,461
2021-09-23 20:54:12.466827,997
2021-09-23 20:54:12.466833,1173
2021-09-23 20:54:12.466838,307
2021-09-23 20:54:12.466844,-642
2021-09-23 20:54:12.466850,-416
2021-09-23 20:54:12.466856,12
2021-09-23 20:54:12.466861,-146
2021-09-23 20:54:12.466867,-192
2021-09-23 20:54:12.466872,-57
2021-09-23 20:54:12.466878,-81
2021-09-23 20:54:12.466884,-105
2021-09-23 20:54:12.466889,-45
2021-09-23 20:54:12.781380,-36
2021-09-23 20:54:12.781396,-57
2021-09-23 20:54:12.781400,-36
2021-09-23 20:54:12.781403,-14
2021-09-23 20:54:12.781406,-14
2021-09-23 20:54:12.781409,-7
2021-09-23 20:54:12.781412,7
2021-09-23 20:54:12.781419,9
2021-09-23 20:54:12.781423,14
2021-09-23 20:54:12.781426,24
2021-09-23 20:54:12.781429,38
2021-09-23 20:54:12.781432,50
2021-09-23 20:54:12.781435,55
2021-09-23 20:54:12.781438,62
2021-09-23 20:54:12.781441,74
2021-09-23 20:54:12.781444,72
2021-09-23 20:54:12.781447,72
2021-09-23 20:54:12.781450,88
2021-09-23 20:54:12.781453,88
2021-09-23 20:54:12.781456,72
2021-09-23 20:54:12.781460,62
2021-09-23 20:54:12.781463,50
2021-09-23 20:54:12.781466,26
2021-09-23 20:54:12.781469,0
2021-09-23 20:54:12.781472,-33
2021-09-23 20:54:12.781475,-60
2021-09-23 20:54:12.781478,-74
2021-09-23 20:54:12.781481,-96
2021-09-23 20:54:12.781484,-115
2021-09-23 20:54:12.781488,-108
2021-09-23 20:54:12.961736,-101
2021-09-23 20:54:12.961756,-108
2021-09-23 20:54:12.961764,-110
2021-09-23 20:54:12.961770,-105
2021-09-23 20:54:12.961775,-93
2021-09-23 20:54:12.961781,-88
2021-09-23 20:54:12.961787,-86
2021-09-23 20:54:12.961793,-81
2021-09-23 20:54:12.961799,-76
2021-09-23 20:54:12.961805,-69
2021-09-23 20:54:12.961810,-57
2021-09-23 20:54:12.961816,-55
2021-09-23 20:54:12.961822,-55
2021-09-23 20:54:12.961828,-45
2021-09-23 20:54:12.961833,-38
2021-09-23 20:54:12.961839,-45
2021-09-23 20:54:12.961845,-38
2021-09-23 20:54:12.961851,-31
2021-09-23 20:54:12.961856,-43
2021-09-23 20:54:12.961862,-38
2021-09-23 20:54:12.961868,-28
2021-09-23 20:54:12.961873,-36
2021-09-23 20:54:12.961879,-40
2021-09-23 20:54:12.961885,-43
2021-09-23 20:54:12.961896,-45
2021-09-23 20:54:12.961902,-36
2021-09-23 20:54:12.961908,-31
2021-09-23 20:54:12.961913,-38
2021-09-23 20:54:12.961919,-33
2021-09-23 20:54:12.961925,-28
2021-09-23 20:54:13.141901,-33
2021-09-23 20:54:13.141916,-36
2021-09-23 20:54:13.141920,-33
2021-09-23 20:54:13.141923,-33
2021-09-23 20:54:13.141926,-31
2021-09-23 20:54:13.141929,-33
2021-09-23 20:54:13.141932,-38
2021-09-23 20:54:13.141935,-36
2021-09-23 20:54:13.141938,-31
2021-09-23 20:54:13.141941,-31
2021-09-23 20:54:13.141944,-40
2021-09-23 20:54:13.141947,-55
2021-09-23 20:54:13.141951,-55
2021-09-23 20:54:13.141954,-43
2021-09-23 20:54:13.141957,-38
2021-09-23 20:54:13.141960,-40
2021-09-23 20:54:13.141963,-43
2021-09-23 20:54:13.141966,-40
2021-09-23 20:54:13.141969,-31
2021-09-23 20:54:13.141972,-4
2021-09-23 20:54:13.141975,4
2021-09-23 20:54:13.141978,-28
2021-09-23 20:54:13.141983,-60
2021-09-23 20:54:13.141986,-64
2021-09-23 20:54:13.141989,-52
2021-09-23 20:54:13.141992,-45
2021-09-23 20:54:13.141995,-43
2021-09-23 20:54:13.141998,-33
2021-09-23 20:54:13.142001,9
2021-09-23 20:54:13.142004,156
2021-09-23 20:54:13.501168,502
2021-09-23 20:54:13.501189,947
2021-09-23 20:54:13.501196,865
2021-09-23 20:54:13.501203,-110
2021-09-23 20:54:13.501209,-764
2021-09-23 20:54:13.501215,-339
2021-09-23 20:54:13.501221,-19
2021-09-23 20:54:13.501226,-173
2021-09-23 20:54:13.501232,-132
2021-09-23 20:54:13.501238,-19
2021-09-23 20:54:13.501244,-79
2021-09-23 20:54:13.501250,-98
2021-09-23 20:54:13.501256,-38
2021-09-23 20:54:13.501262,-21
2021-09-23 20:54:13.501268,-33
2021-09-23 20:54:13.501274,-21
2021-09-23 20:54:13.501280,-4
2021-09-23 20:54:13.501286,2
2021-09-23 20:54:13.501292,12
2021-09-23 20:54:13.501297,26
2021-09-23 20:54:13.501303,43
2021-09-23 20:54:13.501309,50
2021-09-23 20:54:13.501315,55
2021-09-23 20:54:13.501321,64
2021-09-23 20:54:13.501330,81
2021-09-23 20:54:13.501336,98
2021-09-23 20:54:13.501342,110
2021-09-23 20:54:13.501348,117
2021-09-23 20:54:13.501354,125
2021-09-23 20:54:13.501359,139
2021-09-23 20:54:13.591705,151
2021-09-23 20:54:13.591724,137
2021-09-23 20:54:13.591730,115
2021-09-23 20:54:13.591736,93
2021-09-23 20:54:13.591742,69
2021-09-23 20:54:13.591747,38
2021-09-23 20:54:13.591753,12
2021-09-23 20:54:13.591758,-19
2021-09-23 20:54:13.591763,-50
2021-09-23 20:54:13.591769,-67
2021-09-23 20:54:13.591774,-79
2021-09-23 20:54:13.591780,-96
2021-09-23 20:54:13.591785,-105
2021-09-23 20:54:13.591791,-103
2021-09-23 20:54:13.591796,-101
2021-09-23 20:54:13.591801,-101
2021-09-23 20:54:13.591807,-98
2021-09-23 20:54:13.591812,-91
2021-09-23 20:54:13.591817,-76
2021-09-23 20:54:13.591822,-62
2021-09-23 20:54:13.591828,-52
2021-09-23 20:54:13.591833,-52
2021-09-23 20:54:13.591838,-52
2021-09-23 20:54:13.591843,-40
2021-09-23 20:54:13.591849,-38
2021-09-23 20:54:13.591854,-40
2021-09-23 20:54:13.591860,-40
2021-09-23 20:54:13.591865,-52
2021-09-23 20:54:13.591870,-60
2021-09-23 20:54:13.591876,-45
2021-09-23 20:54:13.995416,-50
2021-09-23 20:54:13.995438,-60
2021-09-23 20:54:13.995445,-50
2021-09-23 20:54:13.995451,-55
2021-09-23 20:54:13.995457,-67
2021-09-23 20:54:13.995463,-60
2021-09-23 20:54:13.995469,-60
2021-09-23 20:54:13.995474,-64
2021-09-23 20:54:13.995480,-62
2021-09-23 20:54:13.995486,-72
2021-09-23 20:54:13.995492,-74
2021-09-23 20:54:13.995497,-55
2021-09-23 20:54:13.995503,-45
2021-09-23 20:54:13.995509,-48
2021-09-23 20:54:13.995515,-50
2021-09-23 20:54:13.995521,-57
2021-09-23 20:54:13.995526,-60
2021-09-23 20:54:13.995532,-52
2021-09-23 20:54:13.995538,-48
2021-09-23 20:54:13.995544,-45
2021-09-23 20:54:13.995550,-45
2021-09-23 20:54:13.995555,-28
2021-09-23 20:54:13.995561,0
2021-09-23 20:54:13.995567,0
2021-09-23 20:54:13.995573,-28
2021-09-23 20:54:13.995578,-60
2021-09-23 20:54:13.995584,-64
2021-09-23 20:54:13.995590,-50
2021-09-23 20:54:13.995596,-40
2021-09-23 20:54:13.995602,-31
2021-09-23 20:54:14.086736,0
2021-09-23 20:54:14.086756,110
2021-09-23 20:54:14.086763,384
2021-09-23 20:54:14.086769,793
2021-09-23 20:54:14.086775,887
2021-09-23 20:54:14.086781,101
2021-09-23 20:54:14.086787,-733
2021-09-23 20:54:14.086793,-466
2021-09-23 20:54:14.086799,-4
2021-09-23 20:54:14.086804,-122
2021-09-23 20:54:14.086815,-144
2021-09-23 20:54:14.086821,4
2021-09-23 20:54:14.086827,-21
2021-09-23 20:54:14.086833,-60
2021-09-23 20:54:14.086839,-12
2021-09-23 20:54:14.086845,-2
2021-09-23 20:54:14.086851,-16
2021-09-23 20:54:14.086856,0
2021-09-23 20:54:14.086862,21
2021-09-23 20:54:14.086868,28
2021-09-23 20:54:14.086874,33
2021-09-23 20:54:14.086879,36
2021-09-23 20:54:14.086885,45
2021-09-23 20:54:14.086891,57
2021-09-23 20:54:14.086896,64
2021-09-23 20:54:14.086902,74
2021-09-23 20:54:14.086908,86
2021-09-23 20:54:14.086914,108
2021-09-23 20:54:14.086919,137
2021-09-23 20:54:14.086925,146
2021-09-23 20:54:14.311767,151
2021-09-23 20:54:14.311788,163
2021-09-23 20:54:14.311795,161
2021-09-23 20:54:14.311801,139
2021-09-23 20:54:14.311807,125
2021-09-23 20:54:14.311813,117
2021-09-23 20:54:14.311819,91
2021-09-23 20:54:14.311825,38
2021-09-23 20:54:14.311831,-16
2021-09-23 20:54:14.311837,-55
2021-09-23 20:54:14.311843,-91
2021-09-23 20:54:14.311849,-115
2021-09-23 20:54:14.311855,-122
2021-09-23 20:54:14.311860,-139
2021-09-23 20:54:14.311866,-158
2021-09-23 20:54:14.311872,-158
2021-09-23 20:54:14.311878,-139
2021-09-23 20:54:14.311884,-129
2021-09-23 20:54:14.311890,-120
2021-09-23 20:54:14.311896,-108
2021-09-23 20:54:14.311902,-103
2021-09-23 20:54:14.311908,-98
2021-09-23 20:54:14.311914,-81
2021-09-23 20:54:14.311920,-60
2021-09-23 20:54:14.311926,-50
2021-09-23 20:54:14.311937,-52
2021-09-23 20:54:14.311944,-50
2021-09-23 20:54:14.311950,-38
2021-09-23 20:54:14.311955,-31
2021-09-23 20:54:14.311961,-31
2021-09-23 20:54:14.581764,-31
2021-09-23 20:54:14.581785,-28
2021-09-23 20:54:14.581792,-31
2021-09-23 20:54:14.581798,-36
2021-09-23 20:54:14.581804,-38
2021-09-23 20:54:14.581810,-38
2021-09-23 20:54:14.581816,-43
2021-09-23 20:54:14.581821,-48
2021-09-23 20:54:14.581827,-52
2021-09-23 20:54:14.581833,-48
2021-09-23 20:54:14.581839,-38
2021-09-23 20:54:14.581845,-33
2021-09-23 20:54:14.581851,-48
2021-09-23 20:54:14.581857,-60
2021-09-23 20:54:14.581862,-52
2021-09-23 20:54:14.581868,-38
2021-09-23 20:54:14.581874,-38
2021-09-23 20:54:14.581880,-31
2021-09-23 20:54:14.581886,-4
2021-09-23 20:54:14.581892,9
2021-09-23 20:54:14.581898,-9
2021-09-23 20:54:14.581904,-43
2021-09-23 20:54:14.581909,-60
2021-09-23 20:54:14.581915,-52
2021-09-23 20:54:14.581921,-43
2021-09-23 20:54:14.581926,-40
2021-09-23 20:54:14.581932,-33
2021-09-23 20:54:14.581938,9
2021-09-23 20:54:14.581943,182
2021-09-23 20:54:14.581949,562
2021-09-23 20:54:14.761639,990
2021-09-23 20:54:14.761658,805
2021-09-23 20:54:14.761665,-189
2021-09-23 20:54:14.761671,-673
2021-09-23 20:54:14.761677,-211
2021-09-23 20:54:14.761683,-12
2021-09-23 20:54:14.761689,-185
2021-09-23 20:54:14.761694,-127
2021-09-23 20:54:14.761700,-36
2021-09-23 20:54:14.761706,-84
2021-09-23 20:54:14.761711,-84
2021-09-23 20:54:14.761717,-36
2021-09-23 20:54:14.761723,-38
2021-09-23 20:54:14.761728,-48
2021-09-23 20:54:14.761734,-33
2021-09-23 20:54:14.761740,-28
2021-09-23 20:54:14.761748,-21
2021-09-23 20:54:14.761754,-7
2021-09-23 20:54:14.761760,2
2021-09-23 20:54:14.761766,9
2021-09-23 20:54:14.761771,21
2021-09-23 20:54:14.761777,31
2021-09-23 20:54:14.761783,43
2021-09-23 20:54:14.761788,50
2021-09-23 20:54:14.761794,60
2021-09-23 20:54:14.761800,86
2021-09-23 20:54:14.761805,108
2021-09-23 20:54:14.761811,117
2021-09-23 20:54:14.761817,127
2021-09-23 20:54:14.761822,134
2021-09-23 20:54:14.986766,127
2021-09-23 20:54:14.986786,110
2021-09-23 20:54:14.986793,86
2021-09-23 20:54:14.986799,57
2021-09-23 20:54:14.986805,26
2021-09-23 20:54:14.986811,-21
2021-09-23 20:54:14.986817,-62
2021-09-23 20:54:14.986823,-76
2021-09-23 20:54:14.986828,-86
2021-09-23 20:54:14.986834,-98
2021-09-23 20:54:14.986840,-108
2021-09-23 20:54:14.986845,-122
2021-09-23 20:54:14.986851,-120
2021-09-23 20:54:14.986856,-103
2021-09-23 20:54:14.986862,-105
2021-09-23 20:54:14.986868,-110
2021-09-23 20:54:14.986874,-98
2021-09-23 20:54:14.986880,-93
2021-09-23 20:54:14.986885,-91
2021-09-23 20:54:14.986891,-74
2021-09-23 20:54:14.986897,-62
2021-09-23 20:54:14.986903,-60
2021-09-23 20:54:14.986909,-50
2021-09-23 20:54:14.986914,-36
2021-09-23 20:54:14.986920,-33
2021-09-23 20:54:14.986926,-28
2021-09-23 20:54:14.986932,-24
2021-09-23 20:54:14.986937,-21
2021-09-23 20:54:14.986943,-21
2021-09-23 20:54:14.986949,-19
2021-09-23 20:54:15.256724,-19
2021-09-23 20:54:15.256743,-19
2021-09-23 20:54:15.256751,-21
2021-09-23 20:54:15.256757,-19
2021-09-23 20:54:15.256763,-21
2021-09-23 20:54:15.256769,-26
2021-09-23 20:54:15.256775,-21
2021-09-23 20:54:15.256780,-19
2021-09-23 20:54:15.256786,-19
2021-09-23 20:54:15.256792,-12
2021-09-23 20:54:15.256798,-9
2021-09-23 20:54:15.256804,-21
2021-09-23 20:54:15.256809,-36
2021-09-23 20:54:15.256819,-43
2021-09-23 20:54:15.256825,-36
2021-09-23 20:54:15.256830,-26
2021-09-23 20:54:15.256836,-16
2021-09-23 20:54:15.256842,4
2021-09-23 20:54:15.256848,12
2021-09-23 20:54:15.256854,-14
2021-09-23 20:54:15.256859,-38
2021-09-23 20:54:15.256865,-40
2021-09-23 20:54:15.256871,-38
2021-09-23 20:54:15.256877,-33
2021-09-23 20:54:15.256882,-24
2021-09-23 20:54:15.256888,-9
2021-09-23 20:54:15.256894,40
2021-09-23 20:54:15.256900,221
2021-09-23 20:54:15.256906,639
2021-09-23 20:54:15.256911,1139
2021-09-23 20:54:15.436705,942
2021-09-23 20:54:15.436725,-98
2021-09-23 20:54:15.436733,-579
2021-09-23 20:54:15.436739,-158
2021-09-23 20:54:15.436745,-36
2021-09-23 20:54:15.436750,-221
2021-09-23 20:54:15.436756,-149
2021-09-23 20:54:15.436762,-62
2021-09-23 20:54:15.436768,-113
2021-09-23 20:54:15.436774,-101
2021-09-23 20:54:15.436780,-55
2021-09-23 20:54:15.436786,-57
2021-09-23 20:54:15.436792,-52
2021-09-23 20:54:15.436798,-36
2021-09-23 20:54:15.436804,-31
2021-09-23 20:54:15.436810,-28
2021-09-23 20:54:15.436815,-21
2021-09-23 20:54:15.436821,-14
2021-09-23 20:54:15.436827,-2
2021-09-23 20:54:15.436832,4
2021-09-23 20:54:15.436838,4
2021-09-23 20:54:15.436844,7
2021-09-23 20:54:15.436850,21
2021-09-23 20:54:15.436856,43
2021-09-23 20:54:15.436862,60
2021-09-23 20:54:15.436867,76
2021-09-23 20:54:15.436873,91
2021-09-23 20:54:15.436879,93
2021-09-23 20:54:15.436885,88
2021-09-23 20:54:15.436891,96
2021-09-23 20:54:15.706689,98
2021-09-23 20:54:15.706709,79
2021-09-23 20:54:15.706716,45
2021-09-23 20:54:15.706722,4
2021-09-23 20:54:15.706728,-33
2021-09-23 20:54:15.706734,-52
2021-09-23 20:54:15.706739,-69
2021-09-23 20:54:15.706745,-91
2021-09-23 20:54:15.706751,-96
2021-09-23 20:54:15.706757,-101
2021-09-23 20:54:15.706762,-110
2021-09-23 20:54:15.706768,-105
2021-09-23 20:54:15.706774,-98
2021-09-23 20:54:15.706779,-96
2021-09-23 20:54:15.706785,-96
2021-09-23 20:54:15.706791,-98
2021-09-23 20:54:15.706796,-86
2021-09-23 20:54:15.706805,-74
2021-09-23 20:54:15.706811,-81
2021-09-23 20:54:15.706817,-98
2021-09-23 20:54:15.706822,-88
2021-09-23 20:54:15.706828,-72
2021-09-23 20:54:15.706834,-72
2021-09-23 20:54:15.706840,-72
2021-09-23 20:54:15.706845,-57
2021-09-23 20:54:15.706851,-50
2021-09-23 20:54:15.706857,-48
2021-09-23 20:54:15.706862,-40
2021-09-23 20:54:15.706868,-38
2021-09-23 20:54:15.706874,-36
2021-09-23 20:54:15.975349,-28
2021-09-23 20:54:15.975368,-24
2021-09-23 20:54:15.975376,-28
2021-09-23 20:54:15.975382,-33
2021-09-23 20:54:15.975388,-24
2021-09-23 20:54:15.975394,-16
2021-09-23 20:54:15.975400,-21
2021-09-23 20:54:15.975406,-19
2021-09-23 20:54:15.975411,-16
2021-09-23 20:54:15.975417,-31
2021-09-23 20:54:15.975423,-31
2021-09-23 20:54:15.975429,-14
2021-09-23 20:54:15.975434,-9
2021-09-23 20:54:15.975440,-14
2021-09-23 20:54:15.975446,-24
2021-09-23 20:54:15.975452,-31
2021-09-23 20:54:15.975458,-19
2021-09-23 20:54:15.975464,-2
2021-09-23 20:54:15.975469,16
2021-09-23 20:54:15.975475,31
2021-09-23 20:54:15.975481,19
2021-09-23 20:54:15.975486,-14
2021-09-23 20:54:15.975492,-26
2021-09-23 20:54:15.975498,-9
2021-09-23 20:54:15.975504,-7
2021-09-23 20:54:15.975509,-14
2021-09-23 20:54:15.975515,-9
2021-09-23 20:54:15.975521,28
2021-09-23 20:54:15.975527,180
2021-09-23 20:54:15.975533,555
2021-09-23 20:54:16.156775,1079
2021-09-23 20:54:16.156795,1094
2021-09-23 20:54:16.156802,122
2021-09-23 20:54:16.156809,-627
2021-09-23 20:54:16.156815,-276
2021-09-23 20:54:16.156821,21
2021-09-23 20:54:16.156826,-163
2021-09-23 20:54:16.156832,-151
2021-09-23 20:54:16.156838,-45
2021-09-23 20:54:16.156844,-96
2021-09-23 20:54:16.156850,-96
2021-09-23 20:54:16.156856,-36
2021-09-23 20:54:16.156862,-28
2021-09-23 20:54:16.156868,-40
2021-09-23 20:54:16.156874,-36
2021-09-23 20:54:16.156880,-28
2021-09-23 20:54:16.156885,-12
2021-09-23 20:54:16.156891,-9
2021-09-23 20:54:16.156897,-16
2021-09-23 20:54:16.156903,-9
2021-09-23 20:54:16.156909,4
2021-09-23 20:54:16.156915,12
2021-09-23 20:54:16.156921,24
2021-09-23 20:54:16.156927,40
2021-09-23 20:54:16.156932,48
2021-09-23 20:54:16.156938,45
2021-09-23 20:54:16.156944,52
2021-09-23 20:54:16.156950,69
2021-09-23 20:54:16.156955,81
2021-09-23 20:54:16.156964,86
2021-09-23 20:54:16.426766,79
2021-09-23 20:54:16.426787,72
2021-09-23 20:54:16.426793,62
2021-09-23 20:54:16.426800,45
2021-09-23 20:54:16.426806,16
2021-09-23 20:54:16.426812,-21
2021-09-23 20:54:16.426817,-60
2021-09-23 20:54:16.426823,-91
2021-09-23 20:54:16.426829,-103
2021-09-23 20:54:16.426835,-105
2021-09-23 20:54:16.426840,-110
2021-09-23 20:54:16.426846,-113
2021-09-23 20:54:16.426852,-108
2021-09-23 20:54:16.426858,-115
2021-09-23 20:54:16.426864,-117
2021-09-23 20:54:16.426870,-105
2021-09-23 20:54:16.426875,-98
2021-09-23 20:54:16.426881,-101
2021-09-23 20:54:16.426887,-93
2021-09-23 20:54:16.426893,-84
2021-09-23 20:54:16.426898,-74
2021-09-23 20:54:16.426904,-72
2021-09-23 20:54:16.426910,-62
2021-09-23 20:54:16.426915,-52
2021-09-23 20:54:16.426921,-55
2021-09-23 20:54:16.426927,-48
2021-09-23 20:54:16.426932,-36
2021-09-23 20:54:16.426938,-36
2021-09-23 20:54:16.426943,-40
2021-09-23 20:54:16.426949,-38
2021-09-23 20:54:16.651779,-33
2021-09-23 20:54:16.651799,-36
2021-09-23 20:54:16.651807,-38
2021-09-23 20:54:16.651813,-31
2021-09-23 20:54:16.651818,-21
2021-09-23 20:54:16.651824,-21
2021-09-23 20:54:16.651830,-33
2021-09-23 20:54:16.651836,-40
2021-09-23 20:54:16.651842,-36
2021-09-23 20:54:16.651848,-28
2021-09-23 20:54:16.651854,-26
2021-09-23 20:54:16.651859,-24
2021-09-23 20:54:16.651865,-26
2021-09-23 20:54:16.651871,-24
2021-09-23 20:54:16.651877,-21
2021-09-23 20:54:16.651882,-21
2021-09-23 20:54:16.651888,-12
2021-09-23 20:54:16.651894,-9
2021-09-23 20:54:16.651899,-19
2021-09-23 20:54:16.651905,-24
2021-09-23 20:54:16.651910,-19
2021-09-23 20:54:16.651916,-9
2021-09-23 20:54:16.651922,7
2021-09-23 20:54:16.651928,28
2021-09-23 20:54:16.651933,28
2021-09-23 20:54:16.651939,-2
2021-09-23 20:54:16.651945,-19
2021-09-23 20:54:16.651950,-14
2021-09-23 20:54:16.651956,-4
2021-09-23 20:54:16.651962,-12
2021-09-23 20:54:16.831739,-21
2021-09-23 20:54:16.831758,4
2021-09-23 20:54:16.831765,122
2021-09-23 20:54:16.831771,440
2021-09-23 20:54:16.831777,954
2021-09-23 20:54:16.831783,1130
2021-09-23 20:54:16.831789,288
2021-09-23 20:54:16.831795,-646
2021-09-23 20:54:16.831801,-413
2021-09-23 20:54:16.831807,19
2021-09-23 20:54:16.831813,-139
2021-09-23 20:54:16.831819,-182
2021-09-23 20:54:16.831825,-43
2021-09-23 20:54:16.831831,-69
2021-09-23 20:54:16.831837,-98
2021-09-23 20:54:16.831843,-38
2021-09-23 20:54:16.831849,-31
2021-09-23 20:54:16.831855,-50
2021-09-23 20:54:16.831861,-26
2021-09-23 20:54:16.831866,-4
2021-09-23 20:54:16.831877,-9
2021-09-23 20:54:16.831883,-4
2021-09-23 20:54:16.831889,9
2021-09-23 20:54:16.831895,16
2021-09-23 20:54:16.831901,26
2021-09-23 20:54:16.831907,43
2021-09-23 20:54:16.831913,43
2021-09-23 20:54:16.831919,45
2021-09-23 20:54:16.831925,64
2021-09-23 20:54:16.831930,81
2021-09-23 20:54:17.101863,84
2021-09-23 20:54:17.101883,84
2021-09-23 20:54:17.101890,88
2021-09-23 20:54:17.101897,91
2021-09-23 20:54:17.101902,81
2021-09-23 20:54:17.101908,67
2021-09-23 20:54:17.101914,52
2021-09-23 20:54:17.101920,40
2021-09-23 20:54:17.101926,19
2021-09-23 20:54:17.101932,-19
2021-09-23 20:54:17.101937,-64
2021-09-23 20:54:17.101943,-96
2021-09-23 20:54:17.101949,-110
2021-09-23 20:54:17.101954,-113
2021-09-23 20:54:17.101960,-117
2021-09-23 20:54:17.101966,-125
2021-09-23 20:54:17.101972,-127
2021-09-23 20:54:17.101977,-125
2021-09-23 20:54:17.101983,-120
2021-09-23 20:54:17.101989,-108
2021-09-23 20:54:17.101994,-96
2021-09-23 20:54:17.102000,-93
2021-09-23 20:54:17.102006,-91
2021-09-23 20:54:17.102011,-81
2021-09-23 20:54:17.102017,-72
2021-09-23 20:54:17.102023,-62
2021-09-23 20:54:17.102029,-50
2021-09-23 20:54:17.102034,-50
2021-09-23 20:54:17.102040,-57
2021-09-23 20:54:17.102046,-45
2021-09-23 20:54:17.326189,-33
2021-09-23 20:54:17.326208,-33
2021-09-23 20:54:17.326215,-33
2021-09-23 20:54:17.326221,-36
2021-09-23 20:54:17.326227,-36
2021-09-23 20:54:17.326233,-43
2021-09-23 20:54:17.326239,-60
2021-09-23 20:54:17.326245,-55
2021-09-23 20:54:17.326250,-38
2021-09-23 20:54:17.326256,-45
2021-09-23 20:54:17.326262,-62
2021-09-23 20:54:17.326268,-60
2021-09-23 20:54:17.326273,-43
2021-09-23 20:54:17.326279,-40
2021-09-23 20:54:17.326285,-38
2021-09-23 20:54:17.326291,-33
2021-09-23 20:54:17.326297,-40
2021-09-23 20:54:17.326303,-45
2021-09-23 20:54:17.326309,-36
2021-09-23 20:54:17.326315,-26
2021-09-23 20:54:17.326320,-26
2021-09-23 20:54:17.326326,-36
2021-09-23 20:54:17.326332,-31
2021-09-23 20:54:17.326338,-7
2021-09-23 20:54:17.326344,2
2021-09-23 20:54:17.326349,21
2021-09-23 20:54:17.326355,38
2021-09-23 20:54:17.326361,4
2021-09-23 20:54:17.326367,-38
2021-09-23 20:54:17.326373,-31
2021-09-23 20:54:17.596806,-14
2021-09-23 20:54:17.596827,-12
2021-09-23 20:54:17.596834,-7
2021-09-23 20:54:17.596840,4
2021-09-23 20:54:17.596846,60
2021-09-23 20:54:17.596852,298
2021-09-23 20:54:17.596857,740
2021-09-23 20:54:17.596863,1041
2021-09-23 20:54:17.596869,505
2021-09-23 20:54:17.596874,-548
2021-09-23 20:54:17.596880,-646
2021-09-23 20:54:17.596886,-76
2021-09-23 20:54:17.596891,-48
2021-09-23 20:54:17.596897,-175
2021-09-23 20:54:17.596903,-43
2021-09-23 20:54:17.596909,-16
2021-09-23 20:54:17.596914,-76
2021-09-23 20:54:17.596920,-43
2021-09-23 20:54:17.596926,-12
2021-09-23 20:54:17.596931,-24
2021-09-23 20:54:17.596937,-12
2021-09-23 20:54:17.596942,4
2021-09-23 20:54:17.596951,14
2021-09-23 20:54:17.596957,28
2021-09-23 20:54:17.596963,40
2021-09-23 20:54:17.596968,50
2021-09-23 20:54:17.596974,57
2021-09-23 20:54:17.596979,55
2021-09-23 20:54:17.596985,62
2021-09-23 20:54:17.596991,84
2021-09-23 20:54:17.776808,96
2021-09-23 20:54:17.776828,105
2021-09-23 20:54:17.776835,120
2021-09-23 20:54:17.776841,129
2021-09-23 20:54:17.776847,137
2021-09-23 20:54:17.776853,137
2021-09-23 20:54:17.776859,134
2021-09-23 20:54:17.776865,125
2021-09-23 20:54:17.776870,103
2021-09-23 20:54:17.776876,69
2021-09-23 20:54:17.776882,31
2021-09-23 20:54:17.776888,-9
2021-09-23 20:54:17.776894,-48
2021-09-23 20:54:17.776899,-74
2021-09-23 20:54:17.776905,-96
2021-09-23 20:54:17.776911,-120
2021-09-23 20:54:17.776917,-134
2021-09-23 20:54:17.776923,-137
2021-09-23 20:54:17.776929,-141
2021-09-23 20:54:17.776934,-137
2021-09-23 20:54:17.776940,-132
2021-09-23 20:54:17.776946,-134
2021-09-23 20:54:17.776952,-120
2021-09-23 20:54:17.776958,-101
2021-09-23 20:54:17.776963,-86
2021-09-23 20:54:17.776969,-74
2021-09-23 20:54:17.776975,-67
2021-09-23 20:54:17.776981,-64
2021-09-23 20:54:17.776986,-57
2021-09-23 20:54:17.776992,-48
2021-09-23 20:54:18.090444,-40
2021-09-23 20:54:18.090465,-38
2021-09-23 20:54:18.090472,-36
2021-09-23 20:54:18.090478,-28
2021-09-23 20:54:18.090484,-31
2021-09-23 20:54:18.090490,-36
2021-09-23 20:54:18.090495,-36
2021-09-23 20:54:18.090501,-38
2021-09-23 20:54:18.090507,-40
2021-09-23 20:54:18.090513,-43
2021-09-23 20:54:18.090518,-50
2021-09-23 20:54:18.090524,-57
2021-09-23 20:54:18.090530,-48
2021-09-23 20:54:18.090535,-36
2021-09-23 20:54:18.090541,-43
2021-09-23 20:54:18.090547,-50
2021-09-23 20:54:18.090552,-40
2021-09-23 20:54:18.090558,-36
2021-09-23 20:54:18.090564,-33
2021-09-23 20:54:18.090569,-28
2021-09-23 20:54:18.090575,-26
2021-09-23 20:54:18.090581,-31
2021-09-23 20:54:18.090587,-28
2021-09-23 20:54:18.090592,-19
2021-09-23 20:54:18.090598,0
2021-09-23 20:54:18.090604,19
2021-09-23 20:54:18.090610,26
2021-09-23 20:54:18.090616,7
2021-09-23 20:54:18.090622,-16
2021-09-23 20:54:18.090627,-24
2021-09-23 20:54:18.226847,-16
2021-09-23 20:54:18.226866,-12
2021-09-23 20:54:18.226874,-7
2021-09-23 20:54:18.226880,7
2021-09-23 20:54:18.226886,60
2021-09-23 20:54:18.226892,247
2021-09-23 20:54:18.226897,651
2021-09-23 20:54:18.226903,1086
2021-09-23 20:54:18.226909,808
2021-09-23 20:54:18.226915,-262
2021-09-23 20:54:18.226921,-670
2021-09-23 20:54:18.226926,-156
2021-09-23 20:54:18.226932,-9
2021-09-23 20:54:18.226938,-194
2021-09-23 20:54:18.226943,-105
2021-09-23 20:54:18.226949,-21
2021-09-23 20:54:18.226955,-86
2021-09-23 20:54:18.226961,-81
2021-09-23 20:54:18.226966,-38
2021-09-23 20:54:18.226972,-48
2021-09-23 20:54:18.226978,-52
2021-09-23 20:54:18.226983,-28
2021-09-23 20:54:18.226989,-9
2021-09-23 20:54:18.226995,-4
2021-09-23 20:54:18.227001,4
2021-09-23 20:54:18.227007,19
2021-09-23 20:54:18.227012,24
2021-09-23 20:54:18.227018,24
2021-09-23 20:54:18.227024,33
2021-09-23 20:54:18.227030,50
2021-09-23 20:54:18.541215,57
2021-09-23 20:54:18.541236,72
2021-09-23 20:54:18.541243,93
2021-09-23 20:54:18.541249,105
2021-09-23 20:54:18.541255,105
2021-09-23 20:54:18.541265,117
2021-09-23 20:54:18.541271,115
2021-09-23 20:54:18.541277,91
2021-09-23 20:54:18.541284,76
2021-09-23 20:54:18.541290,64
2021-09-23 20:54:18.541296,38
2021-09-23 20:54:18.541301,2
2021-09-23 20:54:18.541307,-36
2021-09-23 20:54:18.541313,-72
2021-09-23 20:54:18.541319,-101
2021-09-23 20:54:18.541326,-122
2021-09-23 20:54:18.541332,-134
2021-09-23 20:54:18.541337,-134
2021-09-23 20:54:18.541343,-132
2021-09-23 20:54:18.541349,-127
2021-09-23 20:54:18.541355,-120
2021-09-23 20:54:18.541361,-117
2021-09-23 20:54:18.541366,-117
2021-09-23 20:54:18.541372,-110
2021-09-23 20:54:18.541378,-96
2021-09-23 20:54:18.541384,-81
2021-09-23 20:54:18.541390,-74
2021-09-23 20:54:18.541396,-67
2021-09-23 20:54:18.541401,-60
2021-09-23 20:54:18.541407,-52
2021-09-23 20:54:18.676807,-36
2021-09-23 20:54:18.676826,-33
2021-09-23 20:54:18.676833,-45
2021-09-23 20:54:18.676840,-45
2021-09-23 20:54:18.676846,-31
2021-09-23 20:54:18.676851,-31
2021-09-23 20:54:18.676857,-43
2021-09-23 20:54:18.676863,-45
2021-09-23 20:54:18.676869,-40
2021-09-23 20:54:18.676875,-38
2021-09-23 20:54:18.676881,-36
2021-09-23 20:54:18.676887,-36
2021-09-23 20:54:18.676892,-38
2021-09-23 20:54:18.676898,-40
2021-09-23 20:54:18.676904,-38
2021-09-23 20:54:18.676909,-31
2021-09-23 20:54:18.676915,-33
2021-09-23 20:54:18.676921,-43
2021-09-23 20:54:18.676927,-33
2021-09-23 20:54:18.676932,-12
2021-09-23 20:54:18.676938,-9
2021-09-23 20:54:18.676944,-12
2021-09-23 20:54:18.676950,9
2021-09-23 20:54:18.676955,2
2021-09-23 20:54:18.676961,-38
2021-09-23 20:54:18.676967,-55
2021-09-23 20:54:18.676972,-43
2021-09-23 20:54:18.676978,-36
2021-09-23 20:54:18.676984,-24
2021-09-23 20:54:18.676989,-12
2021-09-23 20:54:18.901908,14
2021-09-23 20:54:18.901929,149
2021-09-23 20:54:18.901936,485
2021-09-23 20:54:18.901943,961
2021-09-23 20:54:18.901949,1000
2021-09-23 20:54:18.901955,84
2021-09-23 20:54:18.901961,-699
2021-09-23 20:54:18.901967,-351
2021-09-23 20:54:18.901973,16
2021-09-23 20:54:18.901978,-151
2021-09-23 20:54:18.901984,-151
2021-09-23 20:54:18.901990,-31
2021-09-23 20:54:18.901996,-74
2021-09-23 20:54:18.902002,-84
2021-09-23 20:54:18.902008,-31
2021-09-23 20:54:18.902014,-26
2021-09-23 20:54:18.902020,-31
2021-09-23 20:54:18.902026,-12
2021-09-23 20:54:18.902031,-4
2021-09-23 20:54:18.902037,-2
2021-09-23 20:54:18.902043,7
2021-09-23 20:54:18.902049,12
2021-09-23 20:54:18.902055,16
2021-09-23 20:54:18.902061,31
2021-09-23 20:54:18.902066,45
2021-09-23 20:54:18.902072,50
2021-09-23 20:54:18.902078,67
2021-09-23 20:54:18.902084,86
2021-09-23 20:54:18.902089,98
2021-09-23 20:54:18.902095,105
2021-09-23 20:54:19.126820,115
2021-09-23 20:54:19.126840,122
2021-09-23 20:54:19.126848,127
2021-09-23 20:54:19.126854,122
2021-09-23 20:54:19.126860,96
2021-09-23 20:54:19.126865,64
2021-09-23 20:54:19.126871,45
2021-09-23 20:54:19.126877,14
2021-09-23 20:54:19.126883,-38
2021-09-23 20:54:19.126889,-81
2021-09-23 20:54:19.126894,-103
2021-09-23 20:54:19.126900,-117
2021-09-23 20:54:19.126906,-122
2021-09-23 20:54:19.126911,-122
2021-09-23 20:54:19.126917,-125
2021-09-23 20:54:19.126923,-127
2021-09-23 20:54:19.126928,-125
2021-09-23 20:54:19.126934,-120
2021-09-23 20:54:19.126940,-113
2021-09-23 20:54:19.126946,-105
2021-09-23 20:54:19.126952,-103
2021-09-23 20:54:19.126957,-98
2021-09-23 20:54:19.126963,-81
2021-09-23 20:54:19.126969,-67
2021-09-23 20:54:19.126974,-60
2021-09-23 20:54:19.126980,-55
2021-09-23 20:54:19.126986,-55
2021-09-23 20:54:19.126992,-55
2021-09-23 20:54:19.126997,-52
2021-09-23 20:54:19.127003,-52
2021-09-23 20:54:19.396794,-48
2021-09-23 20:54:19.396819,-38
2021-09-23 20:54:19.396826,-33
2021-09-23 20:54:19.396832,-43
2021-09-23 20:54:19.396838,-60
2021-09-23 20:54:19.396844,-52
2021-09-23 20:54:19.396849,-43
2021-09-23 20:54:19.396855,-43
2021-09-23 20:54:19.396861,-33
2021-09-23 20:54:19.396867,-31
2021-09-23 20:54:19.396873,-43
2021-09-23 20:54:19.396879,-45
2021-09-23 20:54:19.396884,-40
2021-09-23 20:54:19.396890,-28
2021-09-23 20:54:19.396896,-19
2021-09-23 20:54:19.396902,-19
2021-09-23 20:54:19.396907,-2
2021-09-23 20:54:19.396913,24
2021-09-23 20:54:19.396919,9
2021-09-23 20:54:19.396925,-24
2021-09-23 20:54:19.396931,-33
2021-09-23 20:54:19.396936,-24
2021-09-23 20:54:19.396942,-19
2021-09-23 20:54:19.396948,-16
2021-09-23 20:54:19.396953,-12
2021-09-23 20:54:19.396959,45
2021-09-23 20:54:19.396965,254
2021-09-23 20:54:19.396971,673
2021-09-23 20:54:19.396976,1108
2021-09-23 20:54:19.396982,822
2021-09-23 20:54:19.666741,-223
2021-09-23 20:54:19.666759,-589
2021-09-23 20:54:19.666766,-113
2021-09-23 20:54:19.666772,-24
2021-09-23 20:54:19.666778,-194
2021-09-23 20:54:19.666784,-96
2021-09-23 20:54:19.666790,-28
2021-09-23 20:54:19.666796,-81
2021-09-23 20:54:19.666802,-62
2021-09-23 20:54:19.666808,-24
2021-09-23 20:54:19.666813,-28
2021-09-23 20:54:19.666819,-24
2021-09-23 20:54:19.666825,-9
2021-09-23 20:54:19.666831,-9
2021-09-23 20:54:19.666837,-7
2021-09-23 20:54:19.666843,-2
2021-09-23 20:54:19.666849,9
2021-09-23 20:54:19.666855,24
2021-09-23 20:54:19.666861,28
2021-09-23 20:54:19.666867,36
2021-09-23 20:54:19.666873,50
2021-09-23 20:54:19.666879,64
2021-09-23 20:54:19.666884,76
2021-09-23 20:54:19.666890,93
2021-09-23 20:54:19.666896,110
2021-09-23 20:54:19.666901,110
2021-09-23 20:54:19.666907,98
2021-09-23 20:54:19.666913,96
2021-09-23 20:54:19.666919,96
2021-09-23 20:54:19.666924,81
2021-09-23 20:54:19.846766,60
2021-09-23 20:54:19.846784,31
2021-09-23 20:54:19.846791,-9
2021-09-23 20:54:19.846797,-55
2021-09-23 20:54:19.846803,-88
2021-09-23 20:54:19.846809,-108
2021-09-23 20:54:19.846815,-115
2021-09-23 20:54:19.846821,-120
2021-09-23 20:54:19.846826,-132
2021-09-23 20:54:19.846832,-134
2021-09-23 20:54:19.846838,-122
2021-09-23 20:54:19.846844,-110
2021-09-23 20:54:19.846850,-108
2021-09-23 20:54:19.846856,-105
2021-09-23 20:54:19.846861,-110
2021-09-23 20:54:19.846867,-110
2021-09-23 20:54:19.846873,-98
2021-09-23 20:54:19.846879,-86
2021-09-23 20:54:19.846885,-79
2021-09-23 20:54:19.846890,-74
2021-09-23 20:54:19.846896,-72
2021-09-23 20:54:19.846902,-62
2021-09-23 20:54:19.846908,-52
2021-09-23 20:54:19.846914,-52
2021-09-23 20:54:19.846920,-50
2021-09-23 20:54:19.846925,-45
2021-09-23 20:54:19.846931,-48
2021-09-23 20:54:19.846937,-57
2021-09-23 20:54:19.846942,-48
2021-09-23 20:54:19.846948,-36
2021-09-23 20:54:20.115462,-43
2021-09-23 20:54:20.115483,-50
2021-09-23 20:54:20.115490,-48
2021-09-23 20:54:20.115495,-45
2021-09-23 20:54:20.115501,-31
2021-09-23 20:54:20.115507,-14
2021-09-23 20:54:20.115513,-12
2021-09-23 20:54:20.115519,-12
2021-09-23 20:54:20.115525,-14
2021-09-23 20:54:20.115531,-31
2021-09-23 20:54:20.115536,-38
2021-09-23 20:54:20.115542,-28
2021-09-23 20:54:20.115548,-28
2021-09-23 20:54:20.115554,-36
2021-09-23 20:54:20.115560,-24
2021-09-23 20:54:20.115565,19
2021-09-23 20:54:20.115571,158
2021-09-23 20:54:20.115577,502
2021-09-23 20:54:20.115583,988
2021-09-23 20:54:20.115588,1041
2021-09-23 20:54:20.115594,137
2021-09-23 20:54:20.115600,-656
2021-09-23 20:54:20.115605,-329
2021-09-23 20:54:20.115611,36
2021-09-23 20:54:20.115617,-137
2021-09-23 20:54:20.115622,-149
2021-09-23 20:54:20.115628,-19
2021-09-23 20:54:20.115634,-48
2021-09-23 20:54:20.115639,-74
2021-09-23 20:54:20.115645,-28
2021-09-23 20:54:20.296760,-21
2021-09-23 20:54:20.296777,-28
2021-09-23 20:54:20.296780,-12
2021-09-23 20:54:20.296784,4
2021-09-23 20:54:20.296787,9
2021-09-23 20:54:20.296790,16
2021-09-23 20:54:20.296793,19
2021-09-23 20:54:20.296796,28
2021-09-23 20:54:20.296799,40
2021-09-23 20:54:20.296802,38
2021-09-23 20:54:20.296805,40
2021-09-23 20:54:20.296814,57
2021-09-23 20:54:20.296818,74
2021-09-23 20:54:20.296821,86
2021-09-23 20:54:20.296824,96
2021-09-23 20:54:20.296827,110
2021-09-23 20:54:20.296830,120
2021-09-23 20:54:20.296833,117
2021-09-23 20:54:20.296836,108
2021-09-23 20:54:20.296839,86
2021-09-23 20:54:20.296842,62
2021-09-23 20:54:20.296845,36
2021-09-23 20:54:20.296848,0
2021-09-23 20:54:20.296851,-36
2021-09-23 20:54:20.296854,-67
2021-09-23 20:54:20.296858,-88
2021-09-23 20:54:20.296861,-103
2021-09-23 20:54:20.296864,-113
2021-09-23 20:54:20.296867,-113
2021-09-23 20:54:20.296870,-105
2021-09-23 20:54:20.566846,-110
2021-09-23 20:54:20.566866,-117
2021-09-23 20:54:20.566873,-117
2021-09-23 20:54:20.566879,-117
2021-09-23 20:54:20.566885,-113
2021-09-23 20:54:20.566891,-108
2021-09-23 20:54:20.566897,-110
2021-09-23 20:54:20.566902,-108
2021-09-23 20:54:20.566908,-91
2021-09-23 20:54:20.566914,-84
2021-09-23 20:54:20.566920,-79
2021-09-23 20:54:20.566925,-72
2021-09-23 20:54:20.566931,-74
2021-09-23 20:54:20.566937,-74
2021-09-23 20:54:20.566942,-67
2021-09-23 20:54:20.566948,-62
2021-09-23 20:54:20.566954,-62
2021-09-23 20:54:20.566960,-60
2021-09-23 20:54:20.566965,-57
2021-09-23 20:54:20.566971,-50
2021-09-23 20:54:20.566976,-40
2021-09-23 20:54:20.566982,-40
2021-09-23 20:54:20.566988,-50
2021-09-23 20:54:20.566993,-55
2021-09-23 20:54:20.566999,-45
2021-09-23 20:54:20.567005,-28
2021-09-23 20:54:20.567010,-16
2021-09-23 20:54:20.567016,-4
2021-09-23 20:54:20.567021,-4
2021-09-23 20:54:20.567027,-26
2021-09-23 20:54:20.836761,-33
2021-09-23 20:54:20.836780,-28
2021-09-23 20:54:20.836787,-31
2021-09-23 20:54:20.836793,-31
2021-09-23 20:54:20.836799,-26
2021-09-23 20:54:20.836804,-4
2021-09-23 20:54:20.836810,91
2021-09-23 20:54:20.836816,370
2021-09-23 20:54:20.836821,817
2021-09-23 20:54:20.836827,1036
2021-09-23 20:54:20.836832,358
2021-09-23 20:54:20.836838,-603
2021-09-23 20:54:20.836844,-495
2021-09-23 20:54:20.836850,4
2021-09-23 20:54:20.836855,-86
2021-09-23 20:54:20.836861,-182
2021-09-23 20:54:20.836867,-52
2021-09-23 20:54:20.836877,-55
2021-09-23 20:54:20.836883,-96
2021-09-23 20:54:20.836888,-45
2021-09-23 20:54:20.836893,-26
2021-09-23 20:54:20.836899,-40
2021-09-23 20:54:20.836904,-21
2021-09-23 20:54:20.836909,-7
2021-09-23 20:54:20.836915,-7
2021-09-23 20:54:20.836920,7
2021-09-23 20:54:20.836926,24
2021-09-23 20:54:20.836931,31
2021-09-23 20:54:20.836937,38
2021-09-23 20:54:20.836943,48
2021-09-23 20:54:20.971758,60
2021-09-23 20:54:20.971777,74
2021-09-23 20:54:20.971784,91
2021-09-23 20:54:20.971790,103
2021-09-23 20:54:20.971796,115
2021-09-23 20:54:20.971802,122
2021-09-23 20:54:20.971807,122
2021-09-23 20:54:20.971813,117
2021-09-23 20:54:20.971819,117
2021-09-23 20:54:20.971824,108
2021-09-23 20:54:20.971830,76
2021-09-23 20:54:20.971836,45
2021-09-23 20:54:20.971842,24
2021-09-23 20:54:20.971848,-12
2021-09-23 20:54:20.971853,-52
2021-09-23 20:54:20.971859,-72
2021-09-23 20:54:20.971865,-81
2021-09-23 20:54:20.971871,-93
2021-09-23 20:54:20.971876,-110
2021-09-23 20:54:20.971882,-120
2021-09-23 20:54:20.971888,-103
2021-09-23 20:54:20.971893,-101
2021-09-23 20:54:20.971899,-108
2021-09-23 20:54:20.971905,-98
2021-09-23 20:54:20.971911,-81
2021-09-23 20:54:20.971916,-79
2021-09-23 20:54:20.971922,-76
2021-09-23 20:54:20.971928,-67
2021-09-23 20:54:20.971933,-62
2021-09-23 20:54:20.971939,-55
2021-09-23 20:54:21.286848,-43
2021-09-23 20:54:21.286869,-33
2021-09-23 20:54:21.286876,-38
2021-09-23 20:54:21.286882,-52
2021-09-23 20:54:21.286888,-57
2021-09-23 20:54:21.286894,-50
2021-09-23 20:54:21.286900,-50
2021-09-23 20:54:21.286906,-62
2021-09-23 20:54:21.286912,-69
2021-09-23 20:54:21.286918,-76
2021-09-23 20:54:21.286924,-72
2021-09-23 20:54:21.286930,-64
2021-09-23 20:54:21.286935,-67
2021-09-23 20:54:21.286941,-69
2021-09-23 20:54:21.286947,-64
2021-09-23 20:54:21.286953,-48
2021-09-23 20:54:21.286959,-33
2021-09-23 20:54:21.286965,-28
2021-09-23 20:54:21.286971,-19
2021-09-23 20:54:21.286976,-19
2021-09-23 20:54:21.286982,-48
2021-09-23 20:54:21.286988,-74
2021-09-23 20:54:21.286994,-64
2021-09-23 20:54:21.286999,-43
2021-09-23 20:54:21.287005,-38
2021-09-23 20:54:21.287011,-24
2021-09-23 20:54:21.287016,28
2021-09-23 20:54:21.287022,199
2021-09-23 20:54:21.287028,579
2021-09-23 20:54:21.287034,1036
2021-09-23 20:54:21.466770,865
2021-09-23 20:54:21.466789,-168
2021-09-23 20:54:21.466796,-692
2021-09-23 20:54:21.466802,-209
2021-09-23 20:54:21.466808,9
2021-09-23 20:54:21.466814,-180
2021-09-23 20:54:21.466819,-113
2021-09-23 20:54:21.466825,-12
2021-09-23 20:54:21.466836,-72
2021-09-23 20:54:21.466842,-76
2021-09-23 20:54:21.466848,-26
2021-09-23 20:54:21.466853,-26
2021-09-23 20:54:21.466859,-26
2021-09-23 20:54:21.466865,2
2021-09-23 20:54:21.466870,7
2021-09-23 20:54:21.466876,-2
2021-09-23 20:54:21.466882,9
2021-09-23 20:54:21.466888,24
2021-09-23 20:54:21.466893,26
2021-09-23 20:54:21.466899,38
2021-09-23 20:54:21.466904,50
2021-09-23 20:54:21.466910,55
2021-09-23 20:54:21.466916,72
2021-09-23 20:54:21.466921,91
2021-09-23 20:54:21.466927,110
2021-09-23 20:54:21.466933,120
2021-09-23 20:54:21.466938,117
2021-09-23 20:54:21.466944,117
2021-09-23 20:54:21.466950,115
2021-09-23 20:54:21.466955,101
2021-09-23 20:54:21.781877,88
2021-09-23 20:54:21.781898,79
2021-09-23 20:54:21.781904,50
2021-09-23 20:54:21.781910,2
2021-09-23 20:54:21.781915,-33
2021-09-23 20:54:21.781921,-50
2021-09-23 20:54:21.781926,-67
2021-09-23 20:54:21.781931,-86
2021-09-23 20:54:21.781937,-103
2021-09-23 20:54:21.781942,-113
2021-09-23 20:54:21.781948,-101
2021-09-23 20:54:21.781953,-96
2021-09-23 20:54:21.781958,-103
2021-09-23 20:54:21.781964,-101
2021-09-23 20:54:21.781969,-101
2021-09-23 20:54:21.781974,-93
2021-09-23 20:54:21.781980,-74
2021-09-23 20:54:21.781985,-67
2021-09-23 20:54:21.781991,-67
2021-09-23 20:54:21.781996,-62
2021-09-23 20:54:21.782002,-62
2021-09-23 20:54:21.782007,-67
2021-09-23 20:54:21.782012,-50
2021-09-23 20:54:21.782018,-43
2021-09-23 20:54:21.782023,-50
2021-09-23 20:54:21.782028,-43
2021-09-23 20:54:21.782034,-38
2021-09-23 20:54:21.782039,-57
2021-09-23 20:54:21.782045,-67
2021-09-23 20:54:21.782050,-60
2021-09-23 20:54:21.916925,-43
2021-09-23 20:54:21.916946,-31
2021-09-23 20:54:21.916954,-26
2021-09-23 20:54:21.916960,-28
2021-09-23 20:54:21.916966,-31
2021-09-23 20:54:21.916972,-45
2021-09-23 20:54:21.916977,-74
2021-09-23 20:54:21.916983,-81
2021-09-23 20:54:21.916989,-64
2021-09-23 20:54:21.916995,-57
2021-09-23 20:54:21.917000,-52
2021-09-23 20:54:21.917006,-21
2021-09-23 20:54:21.917012,91
2021-09-23 20:54:21.917018,382
2021-09-23 20:54:21.917024,795
2021-09-23 20:54:21.917030,858
2021-09-23 20:54:21.917035,55
2021-09-23 20:54:21.917041,-755
2021-09-23 20:54:21.917047,-459
2021-09-23 20:54:21.917053,2
2021-09-23 20:54:21.917058,-125
2021-09-23 20:54:21.917064,-156
2021-09-23 20:54:21.917070,-12
2021-09-23 20:54:21.917076,-33
2021-09-23 20:54:21.917081,-76
2021-09-23 20:54:21.917087,-33
2021-09-23 20:54:21.917094,-19
2021-09-23 20:54:21.917099,-21
2021-09-23 20:54:21.917105,-4
2021-09-23 20:54:21.917111,2
2021-09-23 20:54:22.276140,14
2021-09-23 20:54:22.276161,31
2021-09-23 20:54:22.276169,45
2021-09-23 20:54:22.276175,52
2021-09-23 20:54:22.276181,57
2021-09-23 20:54:22.276187,64
2021-09-23 20:54:22.276193,76
2021-09-23 20:54:22.276198,91
2021-09-23 20:54:22.276204,110
2021-09-23 20:54:22.276210,125
2021-09-23 20:54:22.276216,149
2021-09-23 20:54:22.276222,173
2021-09-23 20:54:22.276228,158
2021-09-23 20:54:22.276234,127
2021-09-23 20:54:22.276240,117
2021-09-23 20:54:22.276245,103
2021-09-23 20:54:22.276251,69
2021-09-23 20:54:22.276257,33
2021-09-23 20:54:22.276263,-9
2021-09-23 20:54:22.276269,-57
2021-09-23 20:54:22.276274,-88
2021-09-23 20:54:22.276280,-113
2021-09-23 20:54:22.276286,-129
2021-09-23 20:54:22.276292,-125
2021-09-23 20:54:22.276297,-120
2021-09-23 20:54:22.276303,-120
2021-09-23 20:54:22.276309,-122
2021-09-23 20:54:22.276315,-117
2021-09-23 20:54:22.276321,-110
2021-09-23 20:54:22.276327,-108
2021-09-23 20:54:22.366807,-91
2021-09-23 20:54:22.366827,-72
2021-09-23 20:54:22.366834,-76
2021-09-23 20:54:22.366840,-81
2021-09-23 20:54:22.366846,-67
2021-09-23 20:54:22.366852,-62
2021-09-23 20:54:22.366858,-72
2021-09-23 20:54:22.366864,-67
2021-09-23 20:54:22.366870,-57
2021-09-23 20:54:22.366876,-55
2021-09-23 20:54:22.366882,-52
2021-09-23 20:54:22.366887,-55
2021-09-23 20:54:22.366893,-64
2021-09-23 20:54:22.366899,-64
2021-09-23 20:54:22.366905,-64
2021-09-23 20:54:22.366910,-64
2021-09-23 20:54:22.366916,-50
2021-09-23 20:54:22.366922,-38
2021-09-23 20:54:22.366928,-36
2021-09-23 20:54:22.366934,-43
2021-09-23 20:54:22.366939,-64
2021-09-23 20:54:22.366945,-74
2021-09-23 20:54:22.366951,-55
2021-09-23 20:54:22.366956,-48
2021-09-23 20:54:22.366962,-55
2021-09-23 20:54:22.366968,-45
2021-09-23 20:54:22.366973,-9
2021-09-23 20:54:22.366979,93
2021-09-23 20:54:22.366985,365
2021-09-23 20:54:22.366991,752
2021-09-23 20:54:22.591876,755
2021-09-23 20:54:22.591896,-48
2021-09-23 20:54:22.591903,-752
2021-09-23 20:54:22.591910,-423
2021-09-23 20:54:22.591915,-7
2021-09-23 20:54:22.591921,-134
2021-09-23 20:54:22.591927,-149
2021-09-23 20:54:22.591933,-16
2021-09-23 20:54:22.591939,-40
2021-09-23 20:54:22.591945,-74
2021-09-23 20:54:22.591950,-28
2021-09-23 20:54:22.591956,-19
2021-09-23 20:54:22.591962,-31
2021-09-23 20:54:22.591967,-16
2021-09-23 20:54:22.591973,2
2021-09-23 20:54:22.591979,12
2021-09-23 20:54:22.591985,24
2021-09-23 20:54:22.591990,36
2021-09-23 20:54:22.591996,43
2021-09-23 20:54:22.592002,43
2021-09-23 20:54:22.592007,48
2021-09-23 20:54:22.592013,64
2021-09-23 20:54:22.592019,88
2021-09-23 20:54:22.592031,108
2021-09-23 20:54:22.592038,120
2021-09-23 20:54:22.592044,134
2021-09-23 20:54:22.592050,144
2021-09-23 20:54:22.592055,146
2021-09-23 20:54:22.592061,141
2021-09-23 20:54:22.592067,125
2021-09-23 20:54:22.862386,108
2021-09-23 20:54:22.862431,84
2021-09-23 20:54:22.862446,43
2021-09-23 20:54:22.862458,-4
2021-09-23 20:54:22.862469,-50
2021-09-23 20:54:22.862481,-86
2021-09-23 20:54:22.862492,-96
2021-09-23 20:54:22.862502,-110
2021-09-23 20:54:22.862513,-146
2021-09-23 20:54:22.862523,-156
2021-09-23 20:54:22.862535,-141
2021-09-23 20:54:22.862546,-139
2021-09-23 20:54:22.862557,-137
2021-09-23 20:54:22.862568,-117
2021-09-23 20:54:22.862579,-101
2021-09-23 20:54:22.862587,-98
2021-09-23 20:54:22.862593,-93
2021-09-23 20:54:22.862603,-86
2021-09-23 20:54:22.862610,-76
2021-09-23 20:54:22.862616,-64
2021-09-23 20:54:22.862622,-52
2021-09-23 20:54:22.862628,-48
2021-09-23 20:54:22.862634,-55
2021-09-23 20:54:22.862640,-48
2021-09-23 20:54:22.862671,-36
2021-09-23 20:54:22.862679,-43
2021-09-23 20:54:22.862685,-48
2021-09-23 20:54:22.862691,-38
2021-09-23 20:54:22.862696,-45
2021-09-23 20:54:22.862702,-57
2021-09-23 20:54:23.086295,-48
2021-09-23 20:54:23.086315,-38
2021-09-23 20:54:23.086323,-26
2021-09-23 20:54:23.086329,-14
2021-09-23 20:54:23.086335,-12
2021-09-23 20:54:23.086341,-16
2021-09-23 20:54:23.086347,-21
2021-09-23 20:54:23.086352,-26
2021-09-23 20:54:23.086358,-38
2021-09-23 20:54:23.086369,-55
2021-09-23 20:54:23.086376,-57
2021-09-23 20:54:23.086382,-36
2021-09-23 20:54:23.086387,-16
2021-09-23 20:54:23.086393,36
2021-09-23 20:54:23.086399,245
2021-09-23 20:54:23.086405,644
2021-09-23 20:54:23.086411,971
2021-09-23 20:54:23.086417,572
2021-09-23 20:54:23.086423,-401
2021-09-23 20:54:23.086428,-591
2021-09-23 20:54:23.086434,-93
2021-09-23 20:54:23.086440,-33
2021-09-23 20:54:23.086446,-168
2021-09-23 20:54:23.086451,-76
2021-09-23 20:54:23.086457,-45
2021-09-23 20:54:23.086463,-88
2021-09-23 20:54:23.086468,-55
2021-09-23 20:54:23.086474,-31
2021-09-23 20:54:23.086480,-50
2021-09-23 20:54:23.086486,-33
2021-09-23 20:54:23.356882,-7
2021-09-23 20:54:23.356901,0
2021-09-23 20:54:23.356908,0
2021-09-23 20:54:23.356914,0
2021-09-23 20:54:23.356920,4
2021-09-23 20:54:23.356926,19
2021-09-23 20:54:23.356932,28
2021-09-23 20:54:23.356938,40
2021-09-23 20:54:23.356943,50
2021-09-23 20:54:23.356949,48
2021-09-23 20:54:23.356955,57
2021-09-23 20:54:23.356961,81
2021-09-23 20:54:23.356966,98
2021-09-23 20:54:23.356972,98
2021-09-23 20:54:23.356978,86
2021-09-23 20:54:23.356984,64
2021-09-23 20:54:23.356989,52
2021-09-23 20:54:23.356995,50
2021-09-23 20:54:23.357001,33
2021-09-23 20:54:23.357006,7
2021-09-23 20:54:23.357012,-31
2021-09-23 20:54:23.357018,-67
2021-09-23 20:54:23.357024,-86
2021-09-23 20:54:23.357030,-96
2021-09-23 20:54:23.357035,-103
2021-09-23 20:54:23.357041,-105
2021-09-23 20:54:23.357047,-105
2021-09-23 20:54:23.357053,-103
2021-09-23 20:54:23.357058,-101
2021-09-23 20:54:23.357064,-96
2021-09-23 20:54:23.536882,-81
2021-09-23 20:54:23.536903,-72
2021-09-23 20:54:23.536910,-79
2021-09-23 20:54:23.536916,-81
2021-09-23 20:54:23.536922,-64
2021-09-23 20:54:23.536928,-48
2021-09-23 20:54:23.536934,-45
2021-09-23 20:54:23.536940,-40
2021-09-23 20:54:23.536946,-28
2021-09-23 20:54:23.536952,-19
2021-09-23 20:54:23.536957,-26
2021-09-23 20:54:23.536964,-28
2021-09-23 20:54:23.536969,-14
2021-09-23 20:54:23.536975,-14
2021-09-23 20:54:23.536981,-28
2021-09-23 20:54:23.536987,-28
2021-09-23 20:54:23.536993,-24
2021-09-23 20:54:23.536998,-26
2021-09-23 20:54:23.537004,-19
2021-09-23 20:54:23.537010,-12
2021-09-23 20:54:23.537015,-14
2021-09-23 20:54:23.537021,-7
2021-09-23 20:54:23.537027,9
2021-09-23 20:54:23.537033,-2
2021-09-23 20:54:23.537038,-19
2021-09-23 20:54:23.537044,-16
2021-09-23 20:54:23.537050,-14
2021-09-23 20:54:23.537055,-19
2021-09-23 20:54:23.537061,-16
2021-09-23 20:54:23.537067,-7
2021-09-23 20:54:23.806274,40
2021-09-23 20:54:23.806295,218
2021-09-23 20:54:23.806302,608
2021-09-23 20:54:23.806308,1046
2021-09-23 20:54:23.806315,834
2021-09-23 20:54:23.806321,-134
2021-09-23 20:54:23.806327,-545
2021-09-23 20:54:23.806332,-125
2021-09-23 20:54:23.806338,-12
2021-09-23 20:54:23.806344,-182
2021-09-23 20:54:23.806350,-105
2021-09-23 20:54:23.806356,-21
2021-09-23 20:54:23.806362,-72
2021-09-23 20:54:23.806368,-67
2021-09-23 20:54:23.806374,-31
2021-09-23 20:54:23.806379,-45
2021-09-23 20:54:23.806385,-40
2021-09-23 20:54:23.806391,-19
2021-09-23 20:54:23.806397,-21
2021-09-23 20:54:23.806402,-19
2021-09-23 20:54:23.806408,-12
2021-09-23 20:54:23.806414,-12
2021-09-23 20:54:23.806420,-7
2021-09-23 20:54:23.806425,12
2021-09-23 20:54:23.806431,21
2021-09-23 20:54:23.806437,19
2021-09-23 20:54:23.806443,31
2021-09-23 20:54:23.806449,52
2021-09-23 20:54:23.806454,64
2021-09-23 20:54:23.806460,74
2021-09-23 20:54:24.031319,81
2021-09-23 20:54:24.031340,79
2021-09-23 20:54:24.031347,76
2021-09-23 20:54:24.031353,72
2021-09-23 20:54:24.031359,60
2021-09-23 20:54:24.031365,38
2021-09-23 20:54:24.031371,7
2021-09-23 20:54:24.031377,-28
2021-09-23 20:54:24.031383,-60
2021-09-23 20:54:24.031388,-81
2021-09-23 20:54:24.031394,-91
2021-09-23 20:54:24.031400,-98
2021-09-23 20:54:24.031406,-98
2021-09-23 20:54:24.031412,-98
2021-09-23 20:54:24.031418,-103
2021-09-23 20:54:24.031424,-103
2021-09-23 20:54:24.031429,-98
2021-09-23 20:54:24.031435,-93
2021-09-23 20:54:24.031441,-93
2021-09-23 20:54:24.031446,-93
2021-09-23 20:54:24.031452,-84
2021-09-23 20:54:24.031458,-79
2021-09-23 20:54:24.031464,-64
2021-09-23 20:54:24.031470,-48
2021-09-23 20:54:24.031475,-50
2021-09-23 20:54:24.031481,-55
2021-09-23 20:54:24.031487,-40
2021-09-23 20:54:24.031493,-28
2021-09-23 20:54:24.031499,-24
2021-09-23 20:54:24.031508,-19
2021-09-23 20:54:24.255855,-16
2021-09-23 20:54:24.255877,-19
2021-09-23 20:54:24.255884,-24
2021-09-23 20:54:24.255890,-28
2021-09-23 20:54:24.255896,-21
2021-09-23 20:54:24.255902,-14
2021-09-23 20:54:24.255908,-24
2021-09-23 20:54:24.255913,-33
2021-09-23 20:54:24.255919,-24
2021-09-23 20:54:24.255925,-14
2021-09-23 20:54:24.255931,-24
2021-09-23 20:54:24.255937,-28
2021-09-23 20:54:24.255943,-28
2021-09-23 20:54:24.255949,-21
2021-09-23 20:54:24.255954,-4
2021-09-23 20:54:24.255961,12
2021-09-23 20:54:24.255967,19
2021-09-23 20:54:24.255973,4
2021-09-23 20:54:24.255979,-21
2021-09-23 20:54:24.255984,-28
2021-09-23 20:54:24.255990,-24
2021-09-23 20:54:24.255996,-19
2021-09-23 20:54:24.256002,-9
2021-09-23 20:54:24.256007,19
2021-09-23 20:54:24.256014,115
2021-09-23 20:54:24.256020,389
2021-09-23 20:54:24.256025,868
2021-09-23 20:54:24.256031,1101
2021-09-23 20:54:24.256037,389
2021-09-23 20:54:24.256043,-536
2021-09-23 20:54:24.436892,-401
2021-09-23 20:54:24.436913,24
2021-09-23 20:54:24.436920,-105
2021-09-23 20:54:24.436927,-182
2021-09-23 20:54:24.436932,-55
2021-09-23 20:54:24.436938,-69
2021-09-23 20:54:24.436944,-108
2021-09-23 20:54:24.436950,-64
2021-09-23 20:54:24.436956,-57
2021-09-23 20:54:24.436962,-62
2021-09-23 20:54:24.436968,-38
2021-09-23 20:54:24.436974,-33
2021-09-23 20:54:24.436980,-38
2021-09-23 20:54:24.436985,-26
2021-09-23 20:54:24.436991,-9
2021-09-23 20:54:24.436997,0
2021-09-23 20:54:24.437002,0
2021-09-23 20:54:24.437008,7
2021-09-23 20:54:24.437014,26
2021-09-23 20:54:24.437020,36
2021-09-23 20:54:24.437025,38
2021-09-23 20:54:24.437031,48
2021-09-23 20:54:24.437037,64
2021-09-23 20:54:24.437042,72
2021-09-23 20:54:24.437048,74
2021-09-23 20:54:24.437054,79
2021-09-23 20:54:24.437060,79
2021-09-23 20:54:24.437066,67
2021-09-23 20:54:24.437071,50
2021-09-23 20:54:24.437077,26
2021-09-23 20:54:24.661813,2
2021-09-23 20:54:24.661831,-19
2021-09-23 20:54:24.661838,-40
2021-09-23 20:54:24.661844,-60
2021-09-23 20:54:24.661850,-74
2021-09-23 20:54:24.661856,-86
2021-09-23 20:54:24.661862,-93
2021-09-23 20:54:24.661868,-98
2021-09-23 20:54:24.661874,-96
2021-09-23 20:54:24.661880,-93
2021-09-23 20:54:24.661886,-98
2021-09-23 20:54:24.661891,-101
2021-09-23 20:54:24.661897,-88
2021-09-23 20:54:24.661903,-79
2021-09-23 20:54:24.661909,-76
2021-09-23 20:54:24.661915,-72
2021-09-23 20:54:24.661921,-67
2021-09-23 20:54:24.661926,-62
2021-09-23 20:54:24.661932,-52
2021-09-23 20:54:24.661938,-38
2021-09-23 20:54:24.661944,-31
2021-09-23 20:54:24.661949,-33
2021-09-23 20:54:24.661955,-36
2021-09-23 20:54:24.661961,-31
2021-09-23 20:54:24.661966,-24
2021-09-23 20:54:24.661972,-19
2021-09-23 20:54:24.661978,-16
2021-09-23 20:54:24.661983,-19
2021-09-23 20:54:24.661989,-26
2021-09-23 20:54:24.661995,-21
2021-09-23 20:54:24.886842,-21
2021-09-23 20:54:24.886861,-31
2021-09-23 20:54:24.886868,-33
2021-09-23 20:54:24.886874,-28
2021-09-23 20:54:24.886880,-33
2021-09-23 20:54:24.886886,-40
2021-09-23 20:54:24.886892,-38
2021-09-23 20:54:24.886898,-31
2021-09-23 20:54:24.886904,-38
2021-09-23 20:54:24.886910,-43
2021-09-23 20:54:24.886916,-28
2021-09-23 20:54:24.886922,-16
2021-09-23 20:54:24.886928,-16
2021-09-23 20:54:24.886934,-28
2021-09-23 20:54:24.886940,-38
2021-09-23 20:54:24.886946,-40
2021-09-23 20:54:24.886951,-38
2021-09-23 20:54:24.886957,-28
2021-09-23 20:54:24.886962,-14
2021-09-23 20:54:24.886968,16
2021-09-23 20:54:24.886974,141
2021-09-23 20:54:24.886979,454
2021-09-23 20:54:24.886985,933
2021-09-23 20:54:24.886991,1036
2021-09-23 20:54:24.886997,180
2021-09-23 20:54:24.887003,-639
2021-09-23 20:54:24.887009,-343
2021-09-23 20:54:24.887014,33
2021-09-23 20:54:24.887020,-149
2021-09-23 20:54:24.887026,-170
2021-09-23 20:54:25.246925,-26
2021-09-23 20:54:25.246946,-52
2021-09-23 20:54:25.246953,-86
2021-09-23 20:54:25.246959,-45
2021-09-23 20:54:25.246965,-43
2021-09-23 20:54:25.246970,-50
2021-09-23 20:54:25.246976,-26
2021-09-23 20:54:25.246982,-9
2021-09-23 20:54:25.246988,-9
2021-09-23 20:54:25.246994,-9
2021-09-23 20:54:25.247000,-9
2021-09-23 20:54:25.247006,2
2021-09-23 20:54:25.247011,9
2021-09-23 20:54:25.247017,16
2021-09-23 20:54:25.247023,28
2021-09-23 20:54:25.247029,36
2021-09-23 20:54:25.247035,40
2021-09-23 20:54:25.247040,55
2021-09-23 20:54:25.247046,72
2021-09-23 20:54:25.247052,74
2021-09-23 20:54:25.247057,57
2021-09-23 20:54:25.247063,50
2021-09-23 20:54:25.247069,52
2021-09-23 20:54:25.247075,45
2021-09-23 20:54:25.247080,33
2021-09-23 20:54:25.247086,26
2021-09-23 20:54:25.247092,7
2021-09-23 20:54:25.247098,-28
2021-09-23 20:54:25.247103,-52
2021-09-23 20:54:25.247109,-62
2021-09-23 20:54:25.426919,-74
2021-09-23 20:54:25.426940,-76
2021-09-23 20:54:25.426947,-79
2021-09-23 20:54:25.426954,-86
2021-09-23 20:54:25.426959,-81
2021-09-23 20:54:25.426965,-72
2021-09-23 20:54:25.426971,-74
2021-09-23 20:54:25.426977,-76
2021-09-23 20:54:25.426983,-74
2021-09-23 20:54:25.426989,-72
2021-09-23 20:54:25.426994,-67
2021-09-23 20:54:25.427000,-57
2021-09-23 20:54:25.427006,-57
2021-09-23 20:54:25.427012,-55
2021-09-23 20:54:25.427017,-52
2021-09-23 20:54:25.427023,-60
2021-09-23 20:54:25.427029,-55
2021-09-23 20:54:25.427035,-40
2021-09-23 20:54:25.427041,-36
2021-09-23 20:54:25.427047,-38
2021-09-23 20:54:25.427052,-38
2021-09-23 20:54:25.427058,-38
2021-09-23 20:54:25.427064,-36
2021-09-23 20:54:25.427070,-33
2021-09-23 20:54:25.427075,-31
2021-09-23 20:54:25.427081,-28
2021-09-23 20:54:25.427087,-38
2021-09-23 20:54:25.427093,-43
2021-09-23 20:54:25.427099,-33
2021-09-23 20:54:25.427104,-31
2021-09-23 20:54:25.651820,-26
2021-09-23 20:54:25.651839,-19
2021-09-23 20:54:25.651847,-26
2021-09-23 20:54:25.651853,-40
2021-09-23 20:54:25.651859,-38
2021-09-23 20:54:25.651865,-28
2021-09-23 20:54:25.651870,-28
2021-09-23 20:54:25.651876,-24
2021-09-23 20:54:25.651882,-12
2021-09-23 20:54:25.651888,2
2021-09-23 20:54:25.651893,7
2021-09-23 20:54:25.651899,-7
2021-09-23 20:54:25.651905,-28
2021-09-23 20:54:25.651911,-38
2021-09-23 20:54:25.651917,-40
2021-09-23 20:54:25.651923,-40
2021-09-23 20:54:25.651928,-26
2021-09-23 20:54:25.651934,2
2021-09-23 20:54:25.651940,91
2021-09-23 20:54:25.651946,351
2021-09-23 20:54:25.651951,798
2021-09-23 20:54:25.651957,1058
2021-09-23 20:54:25.651963,416
2021-09-23 20:54:25.651968,-569
2021-09-23 20:54:25.651974,-502
2021-09-23 20:54:25.651980,2
2021-09-23 20:54:25.651986,-79
2021-09-23 20:54:25.651992,-187
2021-09-23 20:54:25.652000,-45
2021-09-23 20:54:25.652006,-28
2021-09-23 20:54:25.831782,-74
2021-09-23 20:54:25.831801,-36
2021-09-23 20:54:25.831808,-14
2021-09-23 20:54:25.831814,-26
2021-09-23 20:54:25.831820,-14
2021-09-23 20:54:25.831826,4
2021-09-23 20:54:25.831832,4
2021-09-23 20:54:25.831838,7
2021-09-23 20:54:25.831844,12
2021-09-23 20:54:25.831849,19
2021-09-23 20:54:25.831855,28
2021-09-23 20:54:25.831861,43
2021-09-23 20:54:25.831866,48
2021-09-23 20:54:25.831872,45
2021-09-23 20:54:25.831878,52
2021-09-23 20:54:25.831884,62
2021-09-23 20:54:25.831889,60
2021-09-23 20:54:25.831895,55
2021-09-23 20:54:25.831901,48
2021-09-23 20:54:25.831906,40
2021-09-23 20:54:25.831912,33
2021-09-23 20:54:25.831918,31
2021-09-23 20:54:25.831923,24
2021-09-23 20:54:25.831929,9
2021-09-23 20:54:25.831935,-7
2021-09-23 20:54:25.831941,-21
2021-09-23 20:54:25.831946,-38
2021-09-23 20:54:25.831952,-57
2021-09-23 20:54:25.831958,-76
2021-09-23 20:54:25.831963,-86
2021-09-23 20:54:26.146891,-86
2021-09-23 20:54:26.146913,-84
2021-09-23 20:54:26.146920,-79
2021-09-23 20:54:26.146926,-69
2021-09-23 20:54:26.146932,-62
2021-09-23 20:54:26.146937,-57
2021-09-23 20:54:26.146943,-55
2021-09-23 20:54:26.146949,-55
2021-09-23 20:54:26.146955,-50
2021-09-23 20:54:26.146961,-38
2021-09-23 20:54:26.146966,-31
2021-09-23 20:54:26.146972,-38
2021-09-23 20:54:26.146978,-50
2021-09-23 20:54:26.146984,-43
2021-09-23 20:54:26.146989,-33
2021-09-23 20:54:26.146995,-40
2021-09-23 20:54:26.147001,-45
2021-09-23 20:54:26.147007,-33
2021-09-23 20:54:26.147012,-36
2021-09-23 20:54:26.147018,-45
2021-09-23 20:54:26.147024,-45
2021-09-23 20:54:26.147029,-36
2021-09-23 20:54:26.147035,-28
2021-09-23 20:54:26.147041,-26
2021-09-23 20:54:26.147046,-28
2021-09-23 20:54:26.147053,-36
2021-09-23 20:54:26.147058,-38
2021-09-23 20:54:26.147065,-33
2021-09-23 20:54:26.147070,-33
2021-09-23 20:54:26.147076,-40
2021-09-23 20:54:26.326189,-43
2021-09-23 20:54:26.326209,-36
2021-09-23 20:54:26.326216,-38
2021-09-23 20:54:26.326222,-43
2021-09-23 20:54:26.326228,-38
2021-09-23 20:54:26.326234,-33
2021-09-23 20:54:26.326240,-21
2021-09-23 20:54:26.326246,-2
2021-09-23 20:54:26.326252,4
2021-09-23 20:54:26.326257,-9
2021-09-23 20:54:26.326263,-26
2021-09-23 20:54:26.326269,-36
2021-09-23 20:54:26.326274,-36
2021-09-23 20:54:26.326279,-26
2021-09-23 20:54:26.326285,-16
2021-09-23 20:54:26.326291,0
2021-09-23 20:54:26.326296,79
2021-09-23 20:54:26.326302,322
2021-09-23 20:54:26.326308,750
2021-09-23 20:54:26.326313,1072
2021-09-23 20:54:26.326319,555
2021-09-23 20:54:26.326325,-505
2021-09-23 20:54:26.326331,-610
2021-09-23 20:54:26.326337,-60
2021-09-23 20:54:26.326342,-55
2021-09-23 20:54:26.326348,-189
2021-09-23 20:54:26.326354,-60
2021-09-23 20:54:26.326360,-28
2021-09-23 20:54:26.326365,-86
2021-09-23 20:54:26.326371,-50
2021-09-23 20:54:26.506938,-14
2021-09-23 20:54:26.506960,-26
2021-09-23 20:54:26.506967,-14
2021-09-23 20:54:26.506973,7
2021-09-23 20:54:26.506979,2
2021-09-23 20:54:26.506985,0
2021-09-23 20:54:26.506991,16
2021-09-23 20:54:26.506996,31
2021-09-23 20:54:26.507002,33
2021-09-23 20:54:26.507008,38
2021-09-23 20:54:26.507014,43
2021-09-23 20:54:26.507020,43
2021-09-23 20:54:26.507025,55
2021-09-23 20:54:26.507031,72
2021-09-23 20:54:26.507037,72
2021-09-23 20:54:26.507043,69
2021-09-23 20:54:26.507049,67
2021-09-23 20:54:26.507055,45
2021-09-23 20:54:26.507061,33
2021-09-23 20:54:26.507066,38
2021-09-23 20:54:26.507072,31
2021-09-23 20:54:26.507078,12
2021-09-23 20:54:26.507084,-9
2021-09-23 20:54:26.507089,-28
2021-09-23 20:54:26.507095,-43
2021-09-23 20:54:26.507101,-55
2021-09-23 20:54:26.507107,-69
2021-09-23 20:54:26.507113,-86
2021-09-23 20:54:26.507118,-98
2021-09-23 20:54:26.507124,-101
2021-09-23 20:54:26.731920,-93
2021-09-23 20:54:26.731940,-81
2021-09-23 20:54:26.731948,-69
2021-09-23 20:54:26.731954,-72
2021-09-23 20:54:26.731960,-72
2021-09-23 20:54:26.731966,-62
2021-09-23 20:54:26.731972,-45
2021-09-23 20:54:26.731977,-36
2021-09-23 20:54:26.731983,-36
2021-09-23 20:54:26.731989,-43
2021-09-23 20:54:26.731995,-52
2021-09-23 20:54:26.732001,-52
2021-09-23 20:54:26.732007,-43
2021-09-23 20:54:26.732012,-45
2021-09-23 20:54:26.732018,-52
2021-09-23 20:54:26.732024,-60
2021-09-23 20:54:26.732030,-62
2021-09-23 20:54:26.732036,-55
2021-09-23 20:54:26.732041,-50
2021-09-23 20:54:26.732047,-48
2021-09-23 20:54:26.732053,-45
2021-09-23 20:54:26.732059,-50
2021-09-23 20:54:26.732065,-52
2021-09-23 20:54:26.732070,-48
2021-09-23 20:54:26.732076,-55
2021-09-23 20:54:26.732082,-67
2021-09-23 20:54:26.732087,-62
2021-09-23 20:54:26.732093,-52
2021-09-23 20:54:26.732099,-52
2021-09-23 20:54:26.732105,-50
2021-09-23 20:54:27.046922,-45
2021-09-23 20:54:27.046942,-43
2021-09-23 20:54:27.046949,-43
2021-09-23 20:54:27.046956,-52
2021-09-23 20:54:27.046962,-50
2021-09-23 20:54:27.046968,-28
2021-09-23 20:54:27.046973,-12
2021-09-23 20:54:27.046980,-7
2021-09-23 20:54:27.046985,-19
2021-09-23 20:54:27.046991,-43
2021-09-23 20:54:27.046997,-48
2021-09-23 20:54:27.047003,-33
2021-09-23 20:54:27.047009,-28
2021-09-23 20:54:27.047014,-24
2021-09-23 20:54:27.047020,-2
2021-09-23 20:54:27.047026,88
2021-09-23 20:54:27.047032,365
2021-09-23 20:54:27.047038,820
2021-09-23 20:54:27.047043,1036
2021-09-23 20:54:27.047049,339
2021-09-23 20:54:27.047055,-637
2021-09-23 20:54:27.047061,-517
2021-09-23 20:54:27.047067,7
2021-09-23 20:54:27.047072,-69
2021-09-23 20:54:27.047078,-153
2021-09-23 20:54:27.047084,-9
2021-09-23 20:54:27.047089,-12
2021-09-23 20:54:27.047095,-67
2021-09-23 20:54:27.047101,-24
2021-09-23 20:54:27.047107,2
2021-09-23 20:54:27.226908,-4
2021-09-23 20:54:27.226927,12
2021-09-23 20:54:27.226935,26
2021-09-23 20:54:27.226941,16
2021-09-23 20:54:27.226947,26
2021-09-23 20:54:27.226953,55
2021-09-23 20:54:27.226959,62
2021-09-23 20:54:27.226965,50
2021-09-23 20:54:27.226970,50
2021-09-23 20:54:27.226976,57
2021-09-23 20:54:27.226982,64
2021-09-23 20:54:27.226988,76
2021-09-23 20:54:27.226994,91
2021-09-23 20:54:27.227000,93
2021-09-23 20:54:27.227006,81
2021-09-23 20:54:27.227012,69
2021-09-23 20:54:27.227017,62
2021-09-23 20:54:27.227023,48
2021-09-23 20:54:27.227029,33
2021-09-23 20:54:27.227035,28
2021-09-23 20:54:27.227041,12
2021-09-23 20:54:27.227046,-16
2021-09-23 20:54:27.227052,-31
2021-09-23 20:54:27.227058,-38
2021-09-23 20:54:27.227063,-52
2021-09-23 20:54:27.227070,-67
2021-09-23 20:54:27.227075,-81
2021-09-23 20:54:27.227081,-93
2021-09-23 20:54:27.227087,-93
2021-09-23 20:54:27.227093,-93
2021-09-23 20:54:27.451916,-101
2021-09-23 20:54:27.451938,-105
2021-09-23 20:54:27.451945,-98
2021-09-23 20:54:27.451951,-84
2021-09-23 20:54:27.451957,-76
2021-09-23 20:54:27.451963,-62
2021-09-23 20:54:27.451969,-48
2021-09-23 20:54:27.451974,-57
2021-09-23 20:54:27.451980,-72
2021-09-23 20:54:27.451986,-64
2021-09-23 20:54:27.451992,-48
2021-09-23 20:54:27.451997,-50
2021-09-23 20:54:27.452003,-60
2021-09-23 20:54:27.452009,-60
2021-09-23 20:54:27.452015,-60
2021-09-23 20:54:27.452021,-67
2021-09-23 20:54:27.452026,-67
2021-09-23 20:54:27.452032,-60
2021-09-23 20:54:27.452038,-57
2021-09-23 20:54:27.452044,-57
2021-09-23 20:54:27.452049,-57
2021-09-23 20:54:27.452055,-48
2021-09-23 20:54:27.452061,-40
2021-09-23 20:54:27.452070,-43
2021-09-23 20:54:27.452076,-40
2021-09-23 20:54:27.452082,-33
2021-09-23 20:54:27.452087,-40
2021-09-23 20:54:27.452093,-48
2021-09-23 20:54:27.452099,-40
2021-09-23 20:54:27.452105,-38
2021-09-23 20:54:27.676927,-36
2021-09-23 20:54:27.676947,-16
2021-09-23 20:54:27.676954,-4
2021-09-23 20:54:27.676960,-4
2021-09-23 20:54:27.676966,-9
2021-09-23 20:54:27.676972,-16
2021-09-23 20:54:27.676978,-28
2021-09-23 20:54:27.676984,-38
2021-09-23 20:54:27.676989,-40
2021-09-23 20:54:27.676995,-24
2021-09-23 20:54:27.677001,-2
2021-09-23 20:54:27.677007,31
2021-09-23 20:54:27.677012,168
2021-09-23 20:54:27.677018,488
2021-09-23 20:54:27.677024,884
2021-09-23 20:54:27.677030,795
2021-09-23 20:54:27.677036,-132
2021-09-23 20:54:27.677042,-757
2021-09-23 20:54:27.677047,-305
2021-09-23 20:54:27.677053,43
2021-09-23 20:54:27.677059,-125
2021-09-23 20:54:27.677065,-98
2021-09-23 20:54:27.677070,19
2021-09-23 20:54:27.677076,-31
2021-09-23 20:54:27.677082,-43
2021-09-23 20:54:27.677087,14
2021-09-23 20:54:27.677093,12
2021-09-23 20:54:27.677099,0
2021-09-23 20:54:27.677104,16
2021-09-23 20:54:27.677110,28
2021-09-23 20:54:27.901929,38
2021-09-23 20:54:27.901948,55
2021-09-23 20:54:27.901955,60
2021-09-23 20:54:27.901961,52
2021-09-23 20:54:27.901967,55
2021-09-23 20:54:27.901973,62
2021-09-23 20:54:27.901979,48
2021-09-23 20:54:27.901985,43
2021-09-23 20:54:27.901990,62
2021-09-23 20:54:27.901996,76
2021-09-23 20:54:27.902002,84
2021-09-23 20:54:27.902007,81
2021-09-23 20:54:27.902013,64
2021-09-23 20:54:27.902019,55
2021-09-23 20:54:27.902025,45
2021-09-23 20:54:27.902030,26
2021-09-23 20:54:27.902036,9
2021-09-23 20:54:27.902042,0
2021-09-23 20:54:27.902048,-24
2021-09-23 20:54:27.902054,-48
2021-09-23 20:54:27.902059,-60
2021-09-23 20:54:27.902065,-79
2021-09-23 20:54:27.902071,-117
2021-09-23 20:54:27.902076,-129
2021-09-23 20:54:27.902082,-117
2021-09-23 20:54:27.902088,-117
2021-09-23 20:54:27.902093,-122
2021-09-23 20:54:27.902099,-110
2021-09-23 20:54:27.902105,-91
2021-09-23 20:54:27.902111,-79
2021-09-23 20:54:28.171958,-72
2021-09-23 20:54:28.171978,-60
2021-09-23 20:54:28.171985,-50
2021-09-23 20:54:28.171991,-48
2021-09-23 20:54:28.171997,-43
2021-09-23 20:54:28.172003,-48
2021-09-23 20:54:28.172009,-64
2021-09-23 20:54:28.172014,-60
2021-09-23 20:54:28.172020,-52
2021-09-23 20:54:28.172026,-60
2021-09-23 20:54:28.172032,-60
2021-09-23 20:54:28.172037,-55
2021-09-23 20:54:28.172043,-62
2021-09-23 20:54:28.172049,-67
2021-09-23 20:54:28.172054,-55
2021-09-23 20:54:28.172060,-50
2021-09-23 20:54:28.172066,-52
2021-09-23 20:54:28.172072,-45
2021-09-23 20:54:28.172077,-50
2021-09-23 20:54:28.172083,-60
2021-09-23 20:54:28.172089,-48
2021-09-23 20:54:28.172094,-24
2021-09-23 20:54:28.172100,-14
2021-09-23 20:54:28.172105,-16
2021-09-23 20:54:28.172111,-14
2021-09-23 20:54:28.172117,-16
2021-09-23 20:54:28.172122,-36
2021-09-23 20:54:28.172128,-43
2021-09-23 20:54:28.172133,-33
2021-09-23 20:54:28.172139,-26
2021-09-23 20:54:28.395580,-19
2021-09-23 20:54:28.395600,14
2021-09-23 20:54:28.395607,117
2021-09-23 20:54:28.395613,389
2021-09-23 20:54:28.395619,791
2021-09-23 20:54:28.395625,853
2021-09-23 20:54:28.395631,72
2021-09-23 20:54:28.395637,-721
2021-09-23 20:54:28.395642,-444
2021-09-23 20:54:28.395648,14
2021-09-23 20:54:28.395654,-108
2021-09-23 20:54:28.395660,-149
2021-09-23 20:54:28.395666,-7
2021-09-23 20:54:28.395671,-21
2021-09-23 20:54:28.395677,-60
2021-09-23 20:54:28.395683,-7
2021-09-23 20:54:28.395689,2
2021-09-23 20:54:28.395694,-19
2021-09-23 20:54:28.395700,-2
2021-09-23 20:54:28.395706,21
2021-09-23 20:54:28.395712,28
2021-09-23 20:54:28.395717,33
2021-09-23 20:54:28.395723,45
2021-09-23 20:54:28.395729,52
2021-09-23 20:54:28.395735,64
2021-09-23 20:54:28.395741,84
2021-09-23 20:54:28.395747,93
2021-09-23 20:54:28.395753,96
2021-09-23 20:54:28.395758,108
2021-09-23 20:54:28.395764,122
2021-09-23 20:54:28.576950,134
2021-09-23 20:54:28.576969,139
2021-09-23 20:54:28.576977,129
2021-09-23 20:54:28.576983,115
2021-09-23 20:54:28.576989,96
2021-09-23 20:54:28.576995,72
2021-09-23 20:54:28.577001,62
2021-09-23 20:54:28.577006,36
2021-09-23 20:54:28.577012,-16
2021-09-23 20:54:28.577018,-62
2021-09-23 20:54:28.577024,-91
2021-09-23 20:54:28.577030,-115
2021-09-23 20:54:28.577036,-125
2021-09-23 20:54:28.577041,-125
2021-09-23 20:54:28.577047,-129
2021-09-23 20:54:28.577053,-134
2021-09-23 20:54:28.577059,-122
2021-09-23 20:54:28.577065,-115
2021-09-23 20:54:28.577071,-108
2021-09-23 20:54:28.577076,-86
2021-09-23 20:54:28.577082,-81
2021-09-23 20:54:28.577088,-91
2021-09-23 20:54:28.577093,-84
2021-09-23 20:54:28.577099,-67
2021-09-23 20:54:28.577105,-52
2021-09-23 20:54:28.577110,-50
2021-09-23 20:54:28.577116,-55
2021-09-23 20:54:28.577122,-52
2021-09-23 20:54:28.577128,-48
2021-09-23 20:54:28.577134,-52
2021-09-23 20:54:28.891298,-55
2021-09-23 20:54:28.891318,-45
2021-09-23 20:54:28.891325,-43
2021-09-23 20:54:28.891331,-67
2021-09-23 20:54:28.891339,-76
2021-09-23 20:54:28.891345,-67
2021-09-23 20:54:28.891351,-62
2021-09-23 20:54:28.891357,-45
2021-09-23 20:54:28.891363,-16
2021-09-23 20:54:28.891369,-19
2021-09-23 20:54:28.891374,-40
2021-09-23 20:54:28.891380,-52
2021-09-23 20:54:28.891386,-62
2021-09-23 20:54:28.891391,-69
2021-09-23 20:54:28.891397,-62
2021-09-23 20:54:28.891402,-60
2021-09-23 20:54:28.891408,-64
2021-09-23 20:54:28.891414,-48
2021-09-23 20:54:28.891420,2
2021-09-23 20:54:28.891425,163
2021-09-23 20:54:28.891431,514
2021-09-23 20:54:28.891437,875
2021-09-23 20:54:28.891442,615
2021-09-23 20:54:28.891448,-343
2021-09-23 20:54:28.891453,-716
2021-09-23 20:54:28.891459,-194
2021-09-23 20:54:28.891465,2
2021-09-23 20:54:28.891471,-156
2021-09-23 20:54:28.891476,-72
2021-09-23 20:54:28.891482,12
2021-09-23 20:54:29.071969,-45
2021-09-23 20:54:29.071988,-33
2021-09-23 20:54:29.071996,7
2021-09-23 20:54:29.072002,0
2021-09-23 20:54:29.072008,0
2021-09-23 20:54:29.072014,21
2021-09-23 20:54:29.072020,38
2021-09-23 20:54:29.072025,45
2021-09-23 20:54:29.072031,38
2021-09-23 20:54:29.072037,36
2021-09-23 20:54:29.072042,57
2021-09-23 20:54:29.072048,79
2021-09-23 20:54:29.072054,88
2021-09-23 20:54:29.072059,86
2021-09-23 20:54:29.072065,86
2021-09-23 20:54:29.072071,96
2021-09-23 20:54:29.072077,117
2021-09-23 20:54:29.072082,132
2021-09-23 20:54:29.072088,129
2021-09-23 20:54:29.072094,125
2021-09-23 20:54:29.072099,113
2021-09-23 20:54:29.072105,93
2021-09-23 20:54:29.072111,72
2021-09-23 20:54:29.072116,48
2021-09-23 20:54:29.072122,21
2021-09-23 20:54:29.072128,-14
2021-09-23 20:54:29.072133,-55
2021-09-23 20:54:29.072139,-81
2021-09-23 20:54:29.072145,-86
2021-09-23 20:54:29.072151,-88
2021-09-23 20:54:29.296938,-98
2021-09-23 20:54:29.296959,-103
2021-09-23 20:54:29.296966,-108
2021-09-23 20:54:29.296972,-105
2021-09-23 20:54:29.296978,-91
2021-09-23 20:54:29.296984,-81
2021-09-23 20:54:29.296990,-74
2021-09-23 20:54:29.296996,-64
2021-09-23 20:54:29.297002,-62
2021-09-23 20:54:29.297008,-55
2021-09-23 20:54:29.297013,-40
2021-09-23 20:54:29.297019,-31
2021-09-23 20:54:29.297025,-26
2021-09-23 20:54:29.297031,-26
2021-09-23 20:54:29.297036,-36
2021-09-23 20:54:29.297042,-38
2021-09-23 20:54:29.297048,-38
2021-09-23 20:54:29.297053,-50
2021-09-23 20:54:29.297059,-55
2021-09-23 20:54:29.297065,-52
2021-09-23 20:54:29.297071,-64
2021-09-23 20:54:29.297076,-81
2021-09-23 20:54:29.297082,-81
2021-09-23 20:54:29.297088,-67
2021-09-23 20:54:29.297093,-64
2021-09-23 20:54:29.297099,-67
2021-09-23 20:54:29.297104,-69
2021-09-23 20:54:29.297110,-60
2021-09-23 20:54:29.297116,-40
2021-09-23 20:54:29.297121,-33
2021-09-23 20:54:29.566954,-24
2021-09-23 20:54:29.566975,-19
2021-09-23 20:54:29.566982,-40
2021-09-23 20:54:29.566988,-57
2021-09-23 20:54:29.566994,-48
2021-09-23 20:54:29.567000,-31
2021-09-23 20:54:29.567005,-26
2021-09-23 20:54:29.567011,-26
2021-09-23 20:54:29.567017,4
2021-09-23 20:54:29.567023,149
2021-09-23 20:54:29.567029,485
2021-09-23 20:54:29.567035,966
2021-09-23 20:54:29.567040,995
2021-09-23 20:54:29.567047,84
2021-09-23 20:54:29.567053,-644
2021-09-23 20:54:29.567058,-295
2021-09-23 20:54:29.567064,28
2021-09-23 20:54:29.567080,-153
2021-09-23 20:54:29.567086,-156
2021-09-23 20:54:29.567092,-36
2021-09-23 20:54:29.567098,-79
2021-09-23 20:54:29.567104,-96
2021-09-23 20:54:29.567109,-28
2021-09-23 20:54:29.567115,-19
2021-09-23 20:54:29.567121,-36
2021-09-23 20:54:29.567127,-16
2021-09-23 20:54:29.567133,4
2021-09-23 20:54:29.567139,7
2021-09-23 20:54:29.567145,7
2021-09-23 20:54:29.567150,19
2021-09-23 20:54:29.746976,28
2021-09-23 20:54:29.746997,31
2021-09-23 20:54:29.747005,40
2021-09-23 20:54:29.747011,55
2021-09-23 20:54:29.747017,69
2021-09-23 20:54:29.747023,81
2021-09-23 20:54:29.747028,84
2021-09-23 20:54:29.747034,81
2021-09-23 20:54:29.747040,84
2021-09-23 20:54:29.747046,88
2021-09-23 20:54:29.747052,86
2021-09-23 20:54:29.747058,79
2021-09-23 20:54:29.747063,64
2021-09-23 20:54:29.747069,48
2021-09-23 20:54:29.747075,28
2021-09-23 20:54:29.747080,0
2021-09-23 20:54:29.747086,-26
2021-09-23 20:54:29.747092,-43
2021-09-23 20:54:29.747098,-57
2021-09-23 20:54:29.747104,-81
2021-09-23 20:54:29.747110,-98
2021-09-23 20:54:29.747115,-96
2021-09-23 20:54:29.747121,-84
2021-09-23 20:54:29.747127,-79
2021-09-23 20:54:29.747132,-81
2021-09-23 20:54:29.747138,-76
2021-09-23 20:54:29.747144,-74
2021-09-23 20:54:29.747149,-81
2021-09-23 20:54:29.747155,-76
2021-09-23 20:54:29.747161,-69
2021-09-23 20:54:30.106371,-74
2021-09-23 20:54:30.106391,-67
2021-09-23 20:54:30.106398,-52
2021-09-23 20:54:30.106404,-48
2021-09-23 20:54:30.106410,-48
2021-09-23 20:54:30.106416,-45
2021-09-23 20:54:30.106421,-48
2021-09-23 20:54:30.106427,-45
2021-09-23 20:54:30.106433,-36
2021-09-23 20:54:30.106439,-33
2021-09-23 20:54:30.106444,-38
2021-09-23 20:54:30.106450,-36
2021-09-23 20:54:30.106456,-33
2021-09-23 20:54:30.106461,-33
2021-09-23 20:54:30.106467,-36
2021-09-23 20:54:30.106473,-40
2021-09-23 20:54:30.106479,-40
2021-09-23 20:54:30.106485,-43
2021-09-23 20:54:30.106490,-52
2021-09-23 20:54:30.106496,-43
2021-09-23 20:54:30.106502,-26
2021-09-23 20:54:30.106507,-24
2021-09-23 20:54:30.106513,-16
2021-09-23 20:54:30.106519,-12
2021-09-23 20:54:30.106524,-26
2021-09-23 20:54:30.106530,-48
2021-09-23 20:54:30.106535,-43
2021-09-23 20:54:30.106541,-28
2021-09-23 20:54:30.106547,-24
2021-09-23 20:54:30.106553,-19
2021-09-23 20:54:30.196840,14
2021-09-23 20:54:30.196856,146
2021-09-23 20:54:30.196863,476
2021-09-23 20:54:30.196869,976
2021-09-23 20:54:30.196875,1101
2021-09-23 20:54:30.196881,247
2021-09-23 20:54:30.196887,-591
2021-09-23 20:54:30.196893,-324
2021-09-23 20:54:30.196899,38
2021-09-23 20:54:30.196905,-137
2021-09-23 20:54:30.196911,-163
2021-09-23 20:54:30.196916,-28
2021-09-23 20:54:30.196922,-55
2021-09-23 20:54:30.196928,-76
2021-09-23 20:54:30.196933,-21
2021-09-23 20:54:30.196939,-14
2021-09-23 20:54:30.196945,-31
2021-09-23 20:54:30.196951,-26
2021-09-23 20:54:30.196956,-9
2021-09-23 20:54:30.196962,2
2021-09-23 20:54:30.196968,12
2021-09-23 20:54:30.196973,19
2021-09-23 20:54:30.196979,26
2021-09-23 20:54:30.196985,33
2021-09-23 20:54:30.196990,40
2021-09-23 20:54:30.196996,52
2021-09-23 20:54:30.197002,62
2021-09-23 20:54:30.197007,67
2021-09-23 20:54:30.197013,76
2021-09-23 20:54:30.197019,81
2021-09-23 20:54:30.645486,91
2021-09-23 20:54:30.645507,93
2021-09-23 20:54:30.645545,74
2021-09-23 20:54:30.645552,57
2021-09-23 20:54:30.645558,55
2021-09-23 20:54:30.645564,38
2021-09-23 20:54:30.645573,12
2021-09-23 20:54:30.645580,-14
2021-09-23 20:54:30.645585,-40
2021-09-23 20:54:30.645623,-64
2021-09-23 20:54:30.645635,-91
2021-09-23 20:54:30.645642,-105
2021-09-23 20:54:30.645648,-103
2021-09-23 20:54:30.645654,-93
2021-09-23 20:54:30.645659,-91
2021-09-23 20:54:30.645665,-93
2021-09-23 20:54:30.645671,-91
2021-09-23 20:54:30.645677,-88
2021-09-23 20:54:30.645683,-84
2021-09-23 20:54:30.645689,-72
2021-09-23 20:54:30.645694,-62
2021-09-23 20:54:30.645700,-62
2021-09-23 20:54:30.645706,-67
2021-09-23 20:54:30.645711,-60
2021-09-23 20:54:30.645717,-40
2021-09-23 20:54:30.645723,-38
2021-09-23 20:54:30.645728,-43
2021-09-23 20:54:30.645734,-38
2021-09-23 20:54:30.645740,-38
2021-09-23 20:54:30.645745,-40
2021-09-23 20:54:30.736963,-31
2021-09-23 20:54:30.736983,-24
2021-09-23 20:54:30.736991,-28
2021-09-23 20:54:30.736997,-40
2021-09-23 20:54:30.737003,-38
2021-09-23 20:54:30.737009,-26
2021-09-23 20:54:30.737015,-24
2021-09-23 20:54:30.737021,-24
2021-09-23 20:54:30.737027,-21
2021-09-23 20:54:30.737033,-24
2021-09-23 20:54:30.737039,-26
2021-09-23 20:54:30.737044,-26
2021-09-23 20:54:30.737050,-16
2021-09-23 20:54:30.737056,-12
2021-09-23 20:54:30.737062,-12
2021-09-23 20:54:30.737068,-28
2021-09-23 20:54:30.737074,-52
2021-09-23 20:54:30.737079,-55
2021-09-23 20:54:30.737085,-45
2021-09-23 20:54:30.737091,-40
2021-09-23 20:54:30.737096,-28
2021-09-23 20:54:30.737102,-19
2021-09-23 20:54:30.737107,-9
2021-09-23 20:54:30.737113,-4
2021-09-23 20:54:30.737119,-24
2021-09-23 20:54:30.737125,-40
2021-09-23 20:54:30.737130,-33
2021-09-23 20:54:30.737136,-26
2021-09-23 20:54:30.737142,-31
2021-09-23 20:54:30.737147,-26
2021-09-23 20:54:30.916941,14
2021-09-23 20:54:30.916961,151
2021-09-23 20:54:30.916968,492
2021-09-23 20:54:30.916974,1005
2021-09-23 20:54:30.916980,1089
2021-09-23 20:54:30.916986,173
2021-09-23 20:54:30.916992,-639
2021-09-23 20:54:30.916998,-324
2021-09-23 20:54:30.917004,14
2021-09-23 20:54:30.917010,-175
2021-09-23 20:54:30.917015,-177
2021-09-23 20:54:30.917021,-36
2021-09-23 20:54:30.917027,-72
2021-09-23 20:54:30.917033,-98
2021-09-23 20:54:30.917039,-40
2021-09-23 20:54:30.917045,-33
2021-09-23 20:54:30.917051,-45
2021-09-23 20:54:30.917057,-21
2021-09-23 20:54:30.917062,-4
2021-09-23 20:54:30.917068,-4
2021-09-23 20:54:30.917074,0
2021-09-23 20:54:30.917080,2
2021-09-23 20:54:30.917086,12
2021-09-23 20:54:30.917091,28
2021-09-23 20:54:30.917097,38
2021-09-23 20:54:30.917103,43
2021-09-23 20:54:30.917109,50
2021-09-23 20:54:30.917115,57
2021-09-23 20:54:30.917121,69
2021-09-23 20:54:30.917126,76
2021-09-23 20:54:31.186973,72
2021-09-23 20:54:31.186994,74
2021-09-23 20:54:31.187001,74
2021-09-23 20:54:31.187008,64
2021-09-23 20:54:31.187014,55
2021-09-23 20:54:31.187019,48
2021-09-23 20:54:31.187025,31
2021-09-23 20:54:31.187031,7
2021-09-23 20:54:31.187037,-24
2021-09-23 20:54:31.187043,-52
2021-09-23 20:54:31.187049,-64
2021-09-23 20:54:31.187055,-72
2021-09-23 20:54:31.187061,-79
2021-09-23 20:54:31.187067,-88
2021-09-23 20:54:31.187073,-96
2021-09-23 20:54:31.187079,-93
2021-09-23 20:54:31.187085,-81
2021-09-23 20:54:31.187090,-74
2021-09-23 20:54:31.187096,-69
2021-09-23 20:54:31.187102,-64
2021-09-23 20:54:31.187107,-62
2021-09-23 20:54:31.187113,-55
2021-09-23 20:54:31.187119,-45
2021-09-23 20:54:31.187124,-40
2021-09-23 20:54:31.187130,-40
2021-09-23 20:54:31.187136,-38
2021-09-23 20:54:31.187141,-36
2021-09-23 20:54:31.187147,-31
2021-09-23 20:54:31.187153,-26
2021-09-23 20:54:31.187158,-24
2021-09-23 20:54:31.367041,-21
2021-09-23 20:54:31.367086,-21
2021-09-23 20:54:31.367093,-26
2021-09-23 20:54:31.367100,-28
2021-09-23 20:54:31.367106,-31
2021-09-23 20:54:31.367111,-31
2021-09-23 20:54:31.367117,-28
2021-09-23 20:54:31.367123,-31
2021-09-23 20:54:31.367129,-31
2021-09-23 20:54:31.367135,-26
2021-09-23 20:54:31.367140,-31
2021-09-23 20:54:31.367146,-43
2021-09-23 20:54:31.367152,-43
2021-09-23 20:54:31.367158,-45
2021-09-23 20:54:31.367164,-50
2021-09-23 20:54:31.367170,-45
2021-09-23 20:54:31.367175,-36
2021-09-23 20:54:31.367181,-38
2021-09-23 20:54:31.367186,-43
2021-09-23 20:54:31.367192,-50
2021-09-23 20:54:31.367198,-52
2021-09-23 20:54:31.367204,-50
2021-09-23 20:54:31.367210,-45
2021-09-23 20:54:31.367215,-26
2021-09-23 20:54:31.367221,-9
2021-09-23 20:54:31.367227,-2
2021-09-23 20:54:31.367233,-4
2021-09-23 20:54:31.367238,-21
2021-09-23 20:54:31.367244,-31
2021-09-23 20:54:31.367250,-26
2021-09-23 20:54:31.681962,-21
2021-09-23 20:54:31.681982,-16
2021-09-23 20:54:31.681990,-2
2021-09-23 20:54:31.681996,33
2021-09-23 20:54:31.682002,177
2021-09-23 20:54:31.682008,550
2021-09-23 20:54:31.682014,1050
2021-09-23 20:54:31.682020,997
2021-09-23 20:54:31.682026,-12
2021-09-23 20:54:31.682032,-685
2021-09-23 20:54:31.682038,-254
2021-09-23 20:54:31.682044,31
2021-09-23 20:54:31.682050,-170
2021-09-23 20:54:31.682056,-144
2021-09-23 20:54:31.682062,-26
2021-09-23 20:54:31.682068,-69
2021-09-23 20:54:31.682074,-76
2021-09-23 20:54:31.682080,-26
2021-09-23 20:54:31.682086,-26
2021-09-23 20:54:31.682092,-31
2021-09-23 20:54:31.682098,-4
2021-09-23 20:54:31.682104,0
2021-09-23 20:54:31.682109,4
2021-09-23 20:54:31.682115,21
2021-09-23 20:54:31.682121,28
2021-09-23 20:54:31.682127,31
2021-09-23 20:54:31.682133,38
2021-09-23 20:54:31.682139,52
2021-09-23 20:54:31.682145,64
2021-09-23 20:54:31.682150,64
2021-09-23 20:54:31.861809,67
2021-09-23 20:54:31.861826,84
2021-09-23 20:54:31.861833,96
2021-09-23 20:54:31.861840,93
2021-09-23 20:54:31.861847,84
2021-09-23 20:54:31.861853,76
2021-09-23 20:54:31.861859,64
2021-09-23 20:54:31.861865,55
2021-09-23 20:54:31.861872,45
2021-09-23 20:54:31.861878,26
2021-09-23 20:54:31.861884,7
2021-09-23 20:54:31.861891,-21
2021-09-23 20:54:31.861897,-48
2021-09-23 20:54:31.861903,-60
2021-09-23 20:54:31.861918,-64
2021-09-23 20:54:31.861924,-81
2021-09-23 20:54:31.861931,-88
2021-09-23 20:54:31.861937,-88
2021-09-23 20:54:31.861943,-93
2021-09-23 20:54:31.861949,-101
2021-09-23 20:54:31.861955,-96
2021-09-23 20:54:31.861961,-84
2021-09-23 20:54:31.861968,-81
2021-09-23 20:54:31.861974,-81
2021-09-23 20:54:31.861980,-74
2021-09-23 20:54:31.861986,-62
2021-09-23 20:54:31.861992,-52
2021-09-23 20:54:31.861999,-50
2021-09-23 20:54:31.862005,-52
2021-09-23 20:54:31.862011,-43
2021-09-23 20:54:32.087005,-40
2021-09-23 20:54:32.087025,-48
2021-09-23 20:54:32.087032,-50
2021-09-23 20:54:32.087038,-48
2021-09-23 20:54:32.087044,-52
2021-09-23 20:54:32.087050,-60
2021-09-23 20:54:32.087056,-55
2021-09-23 20:54:32.087061,-45
2021-09-23 20:54:32.087067,-50
2021-09-23 20:54:32.087073,-52
2021-09-23 20:54:32.087079,-55
2021-09-23 20:54:32.087085,-62
2021-09-23 20:54:32.087091,-62
2021-09-23 20:54:32.087097,-52
2021-09-23 20:54:32.087102,-50
2021-09-23 20:54:32.087108,-50
2021-09-23 20:54:32.087114,-45
2021-09-23 20:54:32.087120,-50
2021-09-23 20:54:32.087125,-55
2021-09-23 20:54:32.087131,-45
2021-09-23 20:54:32.087137,-33
2021-09-23 20:54:32.087142,-36
2021-09-23 20:54:32.087148,-40
2021-09-23 20:54:32.087154,-38
2021-09-23 20:54:32.087159,-36
2021-09-23 20:54:32.087165,-33
2021-09-23 20:54:32.087171,-28
2021-09-23 20:54:32.087177,-12
2021-09-23 20:54:32.087183,4
2021-09-23 20:54:32.087188,9
2021-09-23 20:54:32.266912,0
2021-09-23 20:54:32.266931,-14
2021-09-23 20:54:32.266938,-24
2021-09-23 20:54:32.266944,-21
2021-09-23 20:54:32.266950,-16
2021-09-23 20:54:32.266956,-12
2021-09-23 20:54:32.266962,4
2021-09-23 20:54:32.266967,69
2021-09-23 20:54:32.266973,288
2021-09-23 20:54:32.266979,728
2021-09-23 20:54:32.266985,1135
2021-09-23 20:54:32.266991,719
2021-09-23 20:54:32.266997,-379
2021-09-23 20:54:32.267003,-615
2021-09-23 20:54:32.267009,-67
2021-09-23 20:54:32.267015,-19
2021-09-23 20:54:32.267021,-187
2021-09-23 20:54:32.267026,-74
2021-09-23 20:54:32.267032,-21
2021-09-23 20:54:32.267038,-79
2021-09-23 20:54:32.267044,-50
2021-09-23 20:54:32.267049,-12
2021-09-23 20:54:32.267055,-24
2021-09-23 20:54:32.267061,-21
2021-09-23 20:54:32.267067,0
2021-09-23 20:54:32.267072,0
2021-09-23 20:54:32.267078,-2
2021-09-23 20:54:32.267084,9
2021-09-23 20:54:32.267090,14
2021-09-23 20:54:32.267096,21
2021-09-23 20:54:32.535670,43
2021-09-23 20:54:32.535691,57
2021-09-23 20:54:32.535699,50
2021-09-23 20:54:32.535705,40
2021-09-23 20:54:32.535711,48
2021-09-23 20:54:32.535716,62
2021-09-23 20:54:32.535722,69
2021-09-23 20:54:32.535728,72
2021-09-23 20:54:32.535734,69
2021-09-23 20:54:32.535740,57
2021-09-23 20:54:32.535746,43
2021-09-23 20:54:32.535752,28
2021-09-23 20:54:32.535758,19
2021-09-23 20:54:32.535764,-2
2021-09-23 20:54:32.535770,-33
2021-09-23 20:54:32.535775,-64
2021-09-23 20:54:32.535781,-84
2021-09-23 20:54:32.535787,-101
2021-09-23 20:54:32.535793,-113
2021-09-23 20:54:32.535799,-113
2021-09-23 20:54:32.535805,-122
2021-09-23 20:54:32.535810,-134
2021-09-23 20:54:32.535816,-125
2021-09-23 20:54:32.535822,-105
2021-09-23 20:54:32.535828,-96
2021-09-23 20:54:32.535834,-91
2021-09-23 20:54:32.535839,-86
2021-09-23 20:54:32.535845,-81
2021-09-23 20:54:32.535851,-64
2021-09-23 20:54:32.535857,-52
2021-09-23 20:54:32.806984,-52
2021-09-23 20:54:32.807004,-55
2021-09-23 20:54:32.807011,-48
2021-09-23 20:54:32.807017,-45
2021-09-23 20:54:32.807023,-50
2021-09-23 20:54:32.807029,-48
2021-09-23 20:54:32.807036,-45
2021-09-23 20:54:32.807041,-48
2021-09-23 20:54:32.807047,-48
2021-09-23 20:54:32.807053,-55
2021-09-23 20:54:32.807059,-60
2021-09-23 20:54:32.807065,-52
2021-09-23 20:54:32.807071,-45
2021-09-23 20:54:32.807076,-48
2021-09-23 20:54:32.807082,-55
2021-09-23 20:54:32.807088,-52
2021-09-23 20:54:32.807094,-43
2021-09-23 20:54:32.807099,-43
2021-09-23 20:54:32.807105,-45
2021-09-23 20:54:32.807111,-43
2021-09-23 20:54:32.807116,-43
2021-09-23 20:54:32.807122,-40
2021-09-23 20:54:32.807128,-28
2021-09-23 20:54:32.807133,-24
2021-09-23 20:54:32.807139,-28
2021-09-23 20:54:32.807145,-28
2021-09-23 20:54:32.807151,-28
2021-09-23 20:54:32.807156,-36
2021-09-23 20:54:32.807162,-24
2021-09-23 20:54:32.807168,2
2021-09-23 20:54:32.989142,4
2021-09-23 20:54:32.989157,-2
2021-09-23 20:54:32.989162,-14
2021-09-23 20:54:32.989165,-38
2021-09-23 20:54:32.989168,-45
2021-09-23 20:54:32.989171,-28
2021-09-23 20:54:32.989175,-21
2021-09-23 20:54:32.989178,-16
2021-09-23 20:54:32.989181,-4
2021-09-23 20:54:32.989184,52
2021-09-23 20:54:32.989187,278
2021-09-23 20:54:32.989190,697
2021-09-23 20:54:32.989193,1007
2021-09-23 20:54:32.989196,521
2021-09-23 20:54:32.989199,-517
2021-09-23 20:54:32.989203,-654
2021-09-23 20:54:32.989206,-91
2021-09-23 20:54:32.989209,-40
2021-09-23 20:54:32.989212,-170
2021-09-23 20:54:32.989215,-52
2021-09-23 20:54:32.989219,-21
2021-09-23 20:54:32.989222,-79
2021-09-23 20:54:32.989225,-43
2021-09-23 20:54:32.989228,-9
2021-09-23 20:54:32.989231,-21
2021-09-23 20:54:32.989235,-7
2021-09-23 20:54:32.989238,9
2021-09-23 20:54:32.989241,7
2021-09-23 20:54:32.989244,12
2021-09-23 20:54:32.989247,26
2021-09-23 20:54:33.302014,40
2021-09-23 20:54:33.302034,45
2021-09-23 20:54:33.302041,50
2021-09-23 20:54:33.302047,62
2021-09-23 20:54:33.302053,81
2021-09-23 20:54:33.302059,98
2021-09-23 20:54:33.302065,105
2021-09-23 20:54:33.302071,98
2021-09-23 20:54:33.302077,91
2021-09-23 20:54:33.302083,96
2021-09-23 20:54:33.302089,88
2021-09-23 20:54:33.302095,74
2021-09-23 20:54:33.302101,67
2021-09-23 20:54:33.302106,48
2021-09-23 20:54:33.302112,14
2021-09-23 20:54:33.302118,-7
2021-09-23 20:54:33.302124,-31
2021-09-23 20:54:33.302130,-76
2021-09-23 20:54:33.302135,-105
2021-09-23 20:54:33.302141,-113
2021-09-23 20:54:33.302147,-125
2021-09-23 20:54:33.302152,-137
2021-09-23 20:54:33.302158,-144
2021-09-23 20:54:33.302164,-139
2021-09-23 20:54:33.302169,-122
2021-09-23 20:54:33.302175,-110
2021-09-23 20:54:33.302181,-108
2021-09-23 20:54:33.302187,-101
2021-09-23 20:54:33.302192,-88
2021-09-23 20:54:33.302198,-69
2021-09-23 20:54:33.436987,-50
2021-09-23 20:54:33.437007,-45
2021-09-23 20:54:33.437014,-43
2021-09-23 20:54:33.437020,-36
2021-09-23 20:54:33.437026,-33
2021-09-23 20:54:33.437032,-38
2021-09-23 20:54:33.437038,-55
2021-09-23 20:54:33.437043,-74
2021-09-23 20:54:33.437049,-69
2021-09-23 20:54:33.437055,-55
2021-09-23 20:54:33.437061,-55
2021-09-23 20:54:33.437067,-57
2021-09-23 20:54:33.437072,-50
2021-09-23 20:54:33.437078,-50
2021-09-23 20:54:33.437084,-50
2021-09-23 20:54:33.437090,-43
2021-09-23 20:54:33.437096,-38
2021-09-23 20:54:33.437102,-45
2021-09-23 20:54:33.437107,-48
2021-09-23 20:54:33.437113,-45
2021-09-23 20:54:33.437118,-50
2021-09-23 20:54:33.437124,-50
2021-09-23 20:54:33.437130,-31
2021-09-23 20:54:33.437135,-12
2021-09-23 20:54:33.437141,-9
2021-09-23 20:54:33.437147,-26
2021-09-23 20:54:33.437152,-40
2021-09-23 20:54:33.437158,-45
2021-09-23 20:54:33.437164,-40
2021-09-23 20:54:33.437169,-33
2021-09-23 20:54:33.797025,-33
2021-09-23 20:54:33.797046,-24
2021-09-23 20:54:33.797054,7
2021-09-23 20:54:33.797060,103
2021-09-23 20:54:33.797066,370
2021-09-23 20:54:33.797072,776
2021-09-23 20:54:33.797078,856
2021-09-23 20:54:33.797083,84
2021-09-23 20:54:33.797089,-735
2021-09-23 20:54:33.797095,-471
2021-09-23 20:54:33.797101,9
2021-09-23 20:54:33.797106,-88
2021-09-23 20:54:33.797112,-122
2021-09-23 20:54:33.797118,9
2021-09-23 20:54:33.797124,-24
2021-09-23 20:54:33.797130,-69
2021-09-23 20:54:33.797135,-14
2021-09-23 20:54:33.797141,4
2021-09-23 20:54:33.797147,-9
2021-09-23 20:54:33.797152,7
2021-09-23 20:54:33.797158,31
2021-09-23 20:54:33.797164,33
2021-09-23 20:54:33.797169,31
2021-09-23 20:54:33.797175,38
2021-09-23 20:54:33.797181,48
2021-09-23 20:54:33.797186,64
2021-09-23 20:54:33.797192,79
2021-09-23 20:54:33.797197,86
2021-09-23 20:54:33.797203,103
2021-09-23 20:54:33.797209,115
2021-09-23 20:54:33.886873,120
2021-09-23 20:54:33.886890,139
2021-09-23 20:54:33.886898,149
2021-09-23 20:54:33.886904,137
2021-09-23 20:54:33.886910,129
2021-09-23 20:54:33.886916,113
2021-09-23 20:54:33.886922,79
2021-09-23 20:54:33.886928,60
2021-09-23 20:54:33.886933,33
2021-09-23 20:54:33.886939,-16
2021-09-23 20:54:33.886945,-64
2021-09-23 20:54:33.886951,-96
2021-09-23 20:54:33.886957,-120
2021-09-23 20:54:33.886963,-137
2021-09-23 20:54:33.886968,-141
2021-09-23 20:54:33.886974,-146
2021-09-23 20:54:33.886980,-151
2021-09-23 20:54:33.886986,-146
2021-09-23 20:54:33.886992,-134
2021-09-23 20:54:33.886997,-117
2021-09-23 20:54:33.887003,-113
2021-09-23 20:54:33.887009,-103
2021-09-23 20:54:33.887014,-88
2021-09-23 20:54:33.887020,-81
2021-09-23 20:54:33.887025,-76
2021-09-23 20:54:33.887031,-62
2021-09-23 20:54:33.887037,-55
2021-09-23 20:54:33.887043,-57
2021-09-23 20:54:33.887048,-62
2021-09-23 20:54:33.887054,-55
2021-09-23 20:54:34.112094,-48
2021-09-23 20:54:34.112116,-52
2021-09-23 20:54:34.112123,-64
2021-09-23 20:54:34.112129,-69
2021-09-23 20:54:34.112135,-62
2021-09-23 20:54:34.112141,-55
2021-09-23 20:54:34.112147,-57
2021-09-23 20:54:34.112152,-60
2021-09-23 20:54:34.112158,-57
2021-09-23 20:54:34.112164,-57
2021-09-23 20:54:34.112170,-60
2021-09-23 20:54:34.112176,-50
2021-09-23 20:54:34.112181,-33
2021-09-23 20:54:34.112187,-19
2021-09-23 20:54:34.112193,-12
2021-09-23 20:54:34.112199,-14
2021-09-23 20:54:34.112205,-36
2021-09-23 20:54:34.112211,-60
2021-09-23 20:54:34.112216,-52
2021-09-23 20:54:34.112222,-33
2021-09-23 20:54:34.112228,-31
2021-09-23 20:54:34.112233,-24
2021-09-23 20:54:34.112239,12
2021-09-23 20:54:34.112245,146
2021-09-23 20:54:34.112251,468
2021-09-23 20:54:34.112257,880
2021-09-23 20:54:34.112263,815
2021-09-23 20:54:34.112268,-84
2021-09-23 20:54:34.112274,-707
2021-09-23 20:54:34.112280,-298
2021-09-23 20:54:34.337087,21
2021-09-23 20:54:34.337108,-134
2021-09-23 20:54:34.337116,-103
2021-09-23 20:54:34.337122,7
2021-09-23 20:54:34.337128,-45
2021-09-23 20:54:34.337134,-60
2021-09-23 20:54:34.337140,-7
2021-09-23 20:54:34.337145,0
2021-09-23 20:54:34.337151,-4
2021-09-23 20:54:34.337157,7
2021-09-23 20:54:34.337163,7
2021-09-23 20:54:34.337168,12
2021-09-23 20:54:34.337174,36
2021-09-23 20:54:34.337180,50
2021-09-23 20:54:34.337186,50
2021-09-23 20:54:34.337191,52
2021-09-23 20:54:34.337197,60
2021-09-23 20:54:34.337203,64
2021-09-23 20:54:34.337208,72
2021-09-23 20:54:34.337222,98
2021-09-23 20:54:34.337228,117
2021-09-23 20:54:34.337234,113
2021-09-23 20:54:34.337240,113
2021-09-23 20:54:34.337246,117
2021-09-23 20:54:34.337251,122
2021-09-23 20:54:34.337257,117
2021-09-23 20:54:34.337263,96
2021-09-23 20:54:34.337269,64
2021-09-23 20:54:34.337275,26
2021-09-23 20:54:34.337280,-24
2021-09-23 20:54:34.650675,-57
2021-09-23 20:54:34.650695,-74
2021-09-23 20:54:34.650702,-98
2021-09-23 20:54:34.650709,-132
2021-09-23 20:54:34.650714,-144
2021-09-23 20:54:34.650720,-137
2021-09-23 20:54:34.650726,-132
2021-09-23 20:54:34.650732,-125
2021-09-23 20:54:34.650738,-117
2021-09-23 20:54:34.650743,-122
2021-09-23 20:54:34.650749,-122
2021-09-23 20:54:34.650755,-105
2021-09-23 20:54:34.650761,-86
2021-09-23 20:54:34.650766,-79
2021-09-23 20:54:34.650772,-74
2021-09-23 20:54:34.650778,-67
2021-09-23 20:54:34.650784,-52
2021-09-23 20:54:34.650789,-40
2021-09-23 20:54:34.650795,-33
2021-09-23 20:54:34.650800,-33
2021-09-23 20:54:34.650806,-38
2021-09-23 20:54:34.650812,-38
2021-09-23 20:54:34.650817,-31
2021-09-23 20:54:34.650823,-24
2021-09-23 20:54:34.650828,-26
2021-09-23 20:54:34.650834,-31
2021-09-23 20:54:34.650840,-33
2021-09-23 20:54:34.650845,-36
2021-09-23 20:54:34.650851,-26
2021-09-23 20:54:34.650856,-14
2021-09-23 20:54:34.832107,-24
2021-09-23 20:54:34.832129,-33
2021-09-23 20:54:34.832136,-28
2021-09-23 20:54:34.832142,-36
2021-09-23 20:54:34.832148,-36
2021-09-23 20:54:34.832154,-9
2021-09-23 20:54:34.832160,12
2021-09-23 20:54:34.832165,14
2021-09-23 20:54:34.832171,-4
2021-09-23 20:54:34.832177,-28
2021-09-23 20:54:34.832183,-28
2021-09-23 20:54:34.832189,-9
2021-09-23 20:54:34.832194,-7
2021-09-23 20:54:34.832200,-14
2021-09-23 20:54:34.832206,-7
2021-09-23 20:54:34.832212,45
2021-09-23 20:54:34.832217,250
2021-09-23 20:54:34.832223,702
2021-09-23 20:54:34.832229,1166
2021-09-23 20:54:34.832235,848
2021-09-23 20:54:34.832240,-214
2021-09-23 20:54:34.832246,-548
2021-09-23 20:54:34.832252,-81
2021-09-23 20:54:34.832258,-31
2021-09-23 20:54:34.832263,-211
2021-09-23 20:54:34.832269,-105
2021-09-23 20:54:34.832275,-38
2021-09-23 20:54:34.832281,-93
2021-09-23 20:54:34.832286,-69
2021-09-23 20:54:34.832292,-24
2021-09-23 20:54:35.057052,-33
2021-09-23 20:54:35.057076,-31
2021-09-23 20:54:35.057084,-9
2021-09-23 20:54:35.057090,-4
2021-09-23 20:54:35.057096,-2
2021-09-23 20:54:35.057102,9
2021-09-23 20:54:35.057108,14
2021-09-23 20:54:35.057115,21
2021-09-23 20:54:35.057121,24
2021-09-23 20:54:35.057127,24
2021-09-23 20:54:35.057133,40
2021-09-23 20:54:35.057138,62
2021-09-23 20:54:35.057144,74
2021-09-23 20:54:35.057150,72
2021-09-23 20:54:35.057156,76
2021-09-23 20:54:35.057162,88
2021-09-23 20:54:35.057168,91
2021-09-23 20:54:35.057174,81
2021-09-23 20:54:35.057180,74
2021-09-23 20:54:35.057186,64
2021-09-23 20:54:35.057192,45
2021-09-23 20:54:35.057197,14
2021-09-23 20:54:35.057204,-19
2021-09-23 20:54:35.057209,-48
2021-09-23 20:54:35.057215,-72
2021-09-23 20:54:35.057221,-86
2021-09-23 20:54:35.057227,-91
2021-09-23 20:54:35.057232,-91
2021-09-23 20:54:35.057238,-86
2021-09-23 20:54:35.057244,-88
2021-09-23 20:54:35.327023,-96
2021-09-23 20:54:35.327044,-88
2021-09-23 20:54:35.327051,-81
2021-09-23 20:54:35.327057,-86
2021-09-23 20:54:35.327063,-93
2021-09-23 20:54:35.327069,-101
2021-09-23 20:54:35.327075,-96
2021-09-23 20:54:35.327081,-88
2021-09-23 20:54:35.327087,-88
2021-09-23 20:54:35.327092,-81
2021-09-23 20:54:35.327098,-69
2021-09-23 20:54:35.327104,-60
2021-09-23 20:54:35.327110,-60
2021-09-23 20:54:35.327116,-67
2021-09-23 20:54:35.327122,-60
2021-09-23 20:54:35.327128,-55
2021-09-23 20:54:35.327133,-52
2021-09-23 20:54:35.327139,-40
2021-09-23 20:54:35.327145,-36
2021-09-23 20:54:35.327151,-50
2021-09-23 20:54:35.327156,-57
2021-09-23 20:54:35.327162,-45
2021-09-23 20:54:35.327168,-38
2021-09-23 20:54:35.327174,-36
2021-09-23 20:54:35.327179,-28
2021-09-23 20:54:35.327186,-26
2021-09-23 20:54:35.327191,-31
2021-09-23 20:54:35.327197,-36
2021-09-23 20:54:35.327203,-36
2021-09-23 20:54:35.327208,-38
2021-09-23 20:54:35.507054,-38
2021-09-23 20:54:35.507075,-33
2021-09-23 20:54:35.507083,-19
2021-09-23 20:54:35.507089,-2
2021-09-23 20:54:35.507094,-2
2021-09-23 20:54:35.507100,-21
2021-09-23 20:54:35.507106,-33
2021-09-23 20:54:35.507112,-28
2021-09-23 20:54:35.507118,-21
2021-09-23 20:54:35.507124,-19
2021-09-23 20:54:35.507129,-7
2021-09-23 20:54:35.507135,40
2021-09-23 20:54:35.507141,204
2021-09-23 20:54:35.507147,601
2021-09-23 20:54:35.507153,1113
2021-09-23 20:54:35.507159,983
2021-09-23 20:54:35.507165,-57
2021-09-23 20:54:35.507171,-622
2021-09-23 20:54:35.507176,-185
2021-09-23 20:54:35.507182,4
2021-09-23 20:54:35.507188,-192
2021-09-23 20:54:35.507194,-132
2021-09-23 20:54:35.507199,-28
2021-09-23 20:54:35.507205,-79
2021-09-23 20:54:35.507211,-74
2021-09-23 20:54:35.507217,-16
2021-09-23 20:54:35.507222,-19
2021-09-23 20:54:35.507228,-33
2021-09-23 20:54:35.507234,-14
2021-09-23 20:54:35.507240,-2
2021-09-23 20:54:35.822041,-4
2021-09-23 20:54:35.822061,7
2021-09-23 20:54:35.822069,21
2021-09-23 20:54:35.822075,26
2021-09-23 20:54:35.822081,33
2021-09-23 20:54:35.822087,43
2021-09-23 20:54:35.822093,48
2021-09-23 20:54:35.822099,62
2021-09-23 20:54:35.822104,74
2021-09-23 20:54:35.822110,72
2021-09-23 20:54:35.822116,76
2021-09-23 20:54:35.822122,86
2021-09-23 20:54:35.822128,81
2021-09-23 20:54:35.822134,79
2021-09-23 20:54:35.822139,76
2021-09-23 20:54:35.822145,64
2021-09-23 20:54:35.822151,48
2021-09-23 20:54:35.822157,21
2021-09-23 20:54:35.822163,-9
2021-09-23 20:54:35.822168,-31
2021-09-23 20:54:35.822174,-50
2021-09-23 20:54:35.822180,-79
2021-09-23 20:54:35.822186,-98
2021-09-23 20:54:35.822191,-101
2021-09-23 20:54:35.822197,-98
2021-09-23 20:54:35.822203,-96
2021-09-23 20:54:35.822209,-98
2021-09-23 20:54:35.822214,-93
2021-09-23 20:54:35.822220,-81
2021-09-23 20:54:35.822226,-79
2021-09-23 20:54:35.956995,-76
2021-09-23 20:54:35.957014,-74
2021-09-23 20:54:35.957021,-72
2021-09-23 20:54:35.957027,-62
2021-09-23 20:54:35.957033,-62
2021-09-23 20:54:35.957039,-67
2021-09-23 20:54:35.957044,-69
2021-09-23 20:54:35.957050,-62
2021-09-23 20:54:35.957056,-55
2021-09-23 20:54:35.957062,-52
2021-09-23 20:54:35.957067,-52
2021-09-23 20:54:35.957073,-62
2021-09-23 20:54:35.957079,-64
2021-09-23 20:54:35.957085,-52
2021-09-23 20:54:35.957091,-48
2021-09-23 20:54:35.957096,-52
2021-09-23 20:54:35.957102,-52
2021-09-23 20:54:35.957108,-55
2021-09-23 20:54:35.957114,-55
2021-09-23 20:54:35.957119,-50
2021-09-23 20:54:35.957125,-50
2021-09-23 20:54:35.957131,-50
2021-09-23 20:54:35.957136,-48
2021-09-23 20:54:35.957142,-48
2021-09-23 20:54:35.957148,-45
2021-09-23 20:54:35.957154,-36
2021-09-23 20:54:35.957159,-31
2021-09-23 20:54:35.957165,-36
2021-09-23 20:54:35.957171,-40
2021-09-23 20:54:35.957176,-43
2021-09-23 20:54:36.317039,-45
2021-09-23 20:54:36.317060,-38
2021-09-23 20:54:36.317067,-24
2021-09-23 20:54:36.317073,-14
2021-09-23 20:54:36.317079,-9
2021-09-23 20:54:36.317085,0
2021-09-23 20:54:36.317091,-7
2021-09-23 20:54:36.317096,-26
2021-09-23 20:54:36.317102,-28
2021-09-23 20:54:36.317108,-24
2021-09-23 20:54:36.317114,-31
2021-09-23 20:54:36.317119,-21
2021-09-23 20:54:36.317125,4
2021-09-23 20:54:36.317131,86
2021-09-23 20:54:36.317136,353
2021-09-23 20:54:36.317142,851
2021-09-23 20:54:36.317148,1171
2021-09-23 20:54:36.317153,519
2021-09-23 20:54:36.317159,-529
2021-09-23 20:54:36.317165,-500
2021-09-23 20:54:36.317170,0
2021-09-23 20:54:36.317176,-88
2021-09-23 20:54:36.317182,-197
2021-09-23 20:54:36.317187,-48
2021-09-23 20:54:36.317193,-36
2021-09-23 20:54:36.317199,-86
2021-09-23 20:54:36.317204,-40
2021-09-23 20:54:36.317210,-19
2021-09-23 20:54:36.317216,-40
2021-09-23 20:54:36.317222,-24
2021-09-23 20:54:36.497059,7
2021-09-23 20:54:36.497079,9
2021-09-23 20:54:36.497087,9
2021-09-23 20:54:36.497093,9
2021-09-23 20:54:36.497098,9
2021-09-23 20:54:36.497104,26
2021-09-23 20:54:36.497110,40
2021-09-23 20:54:36.497116,48
2021-09-23 20:54:36.497121,55
2021-09-23 20:54:36.497127,64
2021-09-23 20:54:36.497133,67
2021-09-23 20:54:36.497138,72
2021-09-23 20:54:36.497144,81
2021-09-23 20:54:36.497150,86
2021-09-23 20:54:36.497155,79
2021-09-23 20:54:36.497161,64
2021-09-23 20:54:36.497167,57
2021-09-23 20:54:36.497172,52
2021-09-23 20:54:36.497178,38
2021-09-23 20:54:36.497184,12
2021-09-23 20:54:36.497190,-12
2021-09-23 20:54:36.497195,-40
2021-09-23 20:54:36.497201,-62
2021-09-23 20:54:36.497207,-79
2021-09-23 20:54:36.497212,-96
2021-09-23 20:54:36.497218,-96
2021-09-23 20:54:36.497224,-98
2021-09-23 20:54:36.497230,-105
2021-09-23 20:54:36.497235,-98
2021-09-23 20:54:36.497241,-88
2021-09-23 20:54:36.720708,-91
2021-09-23 20:54:36.720729,-86
2021-09-23 20:54:36.720737,-76
2021-09-23 20:54:36.720743,-72
2021-09-23 20:54:36.720749,-67
2021-09-23 20:54:36.720755,-57
2021-09-23 20:54:36.720761,-48
2021-09-23 20:54:36.720767,-45
2021-09-23 20:54:36.720772,-55
2021-09-23 20:54:36.720778,-67
2021-09-23 20:54:36.720784,-60
2021-09-23 20:54:36.720790,-45
2021-09-23 20:54:36.720795,-52
2021-09-23 20:54:36.720801,-62
2021-09-23 20:54:36.720807,-62
2021-09-23 20:54:36.720812,-62
2021-09-23 20:54:36.720818,-52
2021-09-23 20:54:36.720824,-55
2021-09-23 20:54:36.720830,-67
2021-09-23 20:54:36.720835,-69
2021-09-23 20:54:36.720841,-67
2021-09-23 20:54:36.720847,-69
2021-09-23 20:54:36.720852,-64
2021-09-23 20:54:36.720858,-55
2021-09-23 20:54:36.720864,-52
2021-09-23 20:54:36.720869,-50
2021-09-23 20:54:36.720875,-43
2021-09-23 20:54:36.720881,-40
2021-09-23 20:54:36.720887,-43
2021-09-23 20:54:36.720892,-40
2021-09-23 20:54:36.901936,-38
2021-09-23 20:54:36.901955,-40
2021-09-23 20:54:36.901962,-38
2021-09-23 20:54:36.901968,-33
2021-09-23 20:54:36.901974,-28
2021-09-23 20:54:36.901980,-28
2021-09-23 20:54:36.901985,-28
2021-09-23 20:54:36.901991,-33
2021-09-23 20:54:36.901997,-36
2021-09-23 20:54:36.902002,-24
2021-09-23 20:54:36.902008,-2
2021-09-23 20:54:36.902014,7
2021-09-23 20:54:36.902020,0
2021-09-23 20:54:36.902025,-21
2021-09-23 20:54:36.902031,-43
2021-09-23 20:54:36.902037,-40
2021-09-23 20:54:36.902042,-36
2021-09-23 20:54:36.902048,-36
2021-09-23 20:54:36.902054,-26
2021-09-23 20:54:36.902060,4
2021-09-23 20:54:36.902066,161
2021-09-23 20:54:36.902071,545
2021-09-23 20:54:36.902077,1010
2021-09-23 20:54:36.902083,870
2021-09-23 20:54:36.902088,-158
2021-09-23 20:54:36.902094,-726
2021-09-23 20:54:36.902100,-240
2021-09-23 20:54:36.902105,12
2021-09-23 20:54:36.902111,-170
2021-09-23 20:54:36.902117,-115
2021-09-23 20:54:37.127062,-12
2021-09-23 20:54:37.127087,-62
2021-09-23 20:54:37.127095,-57
2021-09-23 20:54:37.127101,-9
2021-09-23 20:54:37.127107,-16
2021-09-23 20:54:37.127113,-16
2021-09-23 20:54:37.127118,9
2021-09-23 20:54:37.127124,9
2021-09-23 20:54:37.127130,0
2021-09-23 20:54:37.127136,9
2021-09-23 20:54:37.127141,31
2021-09-23 20:54:37.127147,45
2021-09-23 20:54:37.127153,50
2021-09-23 20:54:37.127159,48
2021-09-23 20:54:37.127165,52
2021-09-23 20:54:37.127171,67
2021-09-23 20:54:37.127176,84
2021-09-23 20:54:37.127182,79
2021-09-23 20:54:37.127188,76
2021-09-23 20:54:37.127194,91
2021-09-23 20:54:37.127199,93
2021-09-23 20:54:37.127205,74
2021-09-23 20:54:37.127211,57
2021-09-23 20:54:37.127216,48
2021-09-23 20:54:37.127222,31
2021-09-23 20:54:37.127228,12
2021-09-23 20:54:37.127234,-9
2021-09-23 20:54:37.127239,-40
2021-09-23 20:54:37.127245,-62
2021-09-23 20:54:37.127251,-76
2021-09-23 20:54:37.396462,-93
2021-09-23 20:54:37.396483,-108
2021-09-23 20:54:37.396490,-117
2021-09-23 20:54:37.396496,-122
2021-09-23 20:54:37.396502,-117
2021-09-23 20:54:37.396512,-110
2021-09-23 20:54:37.396518,-108
2021-09-23 20:54:37.396524,-103
2021-09-23 20:54:37.396529,-98
2021-09-23 20:54:37.396535,-93
2021-09-23 20:54:37.396541,-79
2021-09-23 20:54:37.396546,-69
2021-09-23 20:54:37.396552,-69
2021-09-23 20:54:37.396558,-64
2021-09-23 20:54:37.396563,-48
2021-09-23 20:54:37.396569,-43
2021-09-23 20:54:37.396575,-50
2021-09-23 20:54:37.396581,-50
2021-09-23 20:54:37.396587,-50
2021-09-23 20:54:37.396592,-52
2021-09-23 20:54:37.396598,-52
2021-09-23 20:54:37.396604,-57
2021-09-23 20:54:37.396609,-67
2021-09-23 20:54:37.396615,-72
2021-09-23 20:54:37.396621,-72
2021-09-23 20:54:37.396626,-64
2021-09-23 20:54:37.396632,-57
2021-09-23 20:54:37.396638,-55
2021-09-23 20:54:37.396644,-52
2021-09-23 20:54:37.396650,-52
2021-09-23 20:54:37.621461,-55
2021-09-23 20:54:37.621482,-43
2021-09-23 20:54:37.621489,-38
2021-09-23 20:54:37.621495,-50
2021-09-23 20:54:37.621501,-48
2021-09-23 20:54:37.621507,-33
2021-09-23 20:54:37.621513,-36
2021-09-23 20:54:37.621519,-36
2021-09-23 20:54:37.621524,-26
2021-09-23 20:54:37.621530,-31
2021-09-23 20:54:37.621536,-38
2021-09-23 20:54:37.621542,-36
2021-09-23 20:54:37.621548,-36
2021-09-23 20:54:37.621553,-26
2021-09-23 20:54:37.621559,-4
2021-09-23 20:54:37.621565,4
2021-09-23 20:54:37.621570,4
2021-09-23 20:54:37.621576,-2
2021-09-23 20:54:37.621582,-19
2021-09-23 20:54:37.621588,-33
2021-09-23 20:54:37.621593,-31
2021-09-23 20:54:37.621599,-9
2021-09-23 20:54:37.621605,-2
2021-09-23 20:54:37.621611,7
2021-09-23 20:54:37.621616,74
2021-09-23 20:54:37.621623,288
2021-09-23 20:54:37.621628,685
2021-09-23 20:54:37.621634,995
2021-09-23 20:54:37.621640,519
2021-09-23 20:54:37.621646,-490
2021-09-23 20:54:37.802083,-606
2021-09-23 20:54:37.802102,-57
2021-09-23 20:54:37.802110,-26
2021-09-23 20:54:37.802116,-153
2021-09-23 20:54:37.802123,-31
2021-09-23 20:54:37.802129,-7
2021-09-23 20:54:37.802135,-64
2021-09-23 20:54:37.802141,-28
2021-09-23 20:54:37.802148,2
2021-09-23 20:54:37.802154,-7
2021-09-23 20:54:37.802160,-2
2021-09-23 20:54:37.802166,9
2021-09-23 20:54:37.802172,7
2021-09-23 20:54:37.802178,9
2021-09-23 20:54:37.802184,28
2021-09-23 20:54:37.802190,43
2021-09-23 20:54:37.802197,43
2021-09-23 20:54:37.802203,50
2021-09-23 20:54:37.802209,67
2021-09-23 20:54:37.802215,81
2021-09-23 20:54:37.802221,91
2021-09-23 20:54:37.802227,98
2021-09-23 20:54:37.802233,98
2021-09-23 20:54:37.802239,98
2021-09-23 20:54:37.802245,103
2021-09-23 20:54:37.802251,103
2021-09-23 20:54:37.802257,88
2021-09-23 20:54:37.802264,67
2021-09-23 20:54:37.802270,43
2021-09-23 20:54:37.802276,24
2021-09-23 20:54:38.071481,2
2021-09-23 20:54:38.071502,-36
2021-09-23 20:54:38.071509,-62
2021-09-23 20:54:38.071516,-76
2021-09-23 20:54:38.071522,-103
2021-09-23 20:54:38.071528,-129
2021-09-23 20:54:38.071534,-129
2021-09-23 20:54:38.071539,-125
2021-09-23 20:54:38.071545,-132
2021-09-23 20:54:38.071551,-129
2021-09-23 20:54:38.071557,-122
2021-09-23 20:54:38.071563,-117
2021-09-23 20:54:38.071569,-105
2021-09-23 20:54:38.071575,-84
2021-09-23 20:54:38.071581,-72
2021-09-23 20:54:38.071587,-62
2021-09-23 20:54:38.071593,-57
2021-09-23 20:54:38.071599,-52
2021-09-23 20:54:38.071605,-40
2021-09-23 20:54:38.071611,-28
2021-09-23 20:54:38.071617,-28
2021-09-23 20:54:38.071622,-36
2021-09-23 20:54:38.071628,-38
2021-09-23 20:54:38.071634,-33
2021-09-23 20:54:38.071640,-26
2021-09-23 20:54:38.071646,-28
2021-09-23 20:54:38.071652,-36
2021-09-23 20:54:38.071657,-33
2021-09-23 20:54:38.071663,-28
2021-09-23 20:54:38.071669,-36
2021-09-23 20:54:38.297063,-43
2021-09-23 20:54:38.297084,-33
2021-09-23 20:54:38.297091,-28
2021-09-23 20:54:38.297097,-43
2021-09-23 20:54:38.297104,-50
2021-09-23 20:54:38.297109,-40
2021-09-23 20:54:38.297115,-28
2021-09-23 20:54:38.297121,-21
2021-09-23 20:54:38.297127,-24
2021-09-23 20:54:38.297132,-33
2021-09-23 20:54:38.297138,-40
2021-09-23 20:54:38.297144,-31
2021-09-23 20:54:38.297150,-24
2021-09-23 20:54:38.297155,-19
2021-09-23 20:54:38.297161,-14
2021-09-23 20:54:38.297167,-21
2021-09-23 20:54:38.297173,-28
2021-09-23 20:54:38.297179,-21
2021-09-23 20:54:38.297184,-19
2021-09-23 20:54:38.297190,-9
2021-09-23 20:54:38.297196,4
2021-09-23 20:54:38.297202,12
2021-09-23 20:54:38.297208,14
2021-09-23 20:54:38.297214,16
2021-09-23 20:54:38.297219,0
2021-09-23 20:54:38.297225,-12
2021-09-23 20:54:38.297231,-7
2021-09-23 20:54:38.297237,-7
2021-09-23 20:54:38.297246,-4
2021-09-23 20:54:38.297252,12
2021-09-23 20:54:38.522100,52
2021-09-23 20:54:38.522122,221
2021-09-23 20:54:38.522129,606
2021-09-23 20:54:38.522135,1053
2021-09-23 20:54:38.522141,863
2021-09-23 20:54:38.522147,-161
2021-09-23 20:54:38.522153,-666
2021-09-23 20:54:38.522158,-197
2021-09-23 20:54:38.522164,-7
2021-09-23 20:54:38.522170,-192
2021-09-23 20:54:38.522176,-122
2021-09-23 20:54:38.522181,-24
2021-09-23 20:54:38.522187,-69
2021-09-23 20:54:38.522193,-67
2021-09-23 20:54:38.522199,-36
2021-09-23 20:54:38.522204,-48
2021-09-23 20:54:38.522210,-43
2021-09-23 20:54:38.522216,-26
2021-09-23 20:54:38.522221,-19
2021-09-23 20:54:38.522227,-9
2021-09-23 20:54:38.522232,-4
2021-09-23 20:54:38.522238,2
2021-09-23 20:54:38.522244,14
2021-09-23 20:54:38.522249,26
2021-09-23 20:54:38.522255,38
2021-09-23 20:54:38.522261,48
2021-09-23 20:54:38.522266,48
2021-09-23 20:54:38.522272,57
2021-09-23 20:54:38.522278,81
2021-09-23 20:54:38.522284,93
2021-09-23 20:54:38.790784,91
2021-09-23 20:54:38.790807,96
2021-09-23 20:54:38.790814,91
2021-09-23 20:54:38.790820,72
2021-09-23 20:54:38.790826,57
2021-09-23 20:54:38.790832,48
2021-09-23 20:54:38.790837,26
2021-09-23 20:54:38.790843,-9
2021-09-23 20:54:38.790849,-48
2021-09-23 20:54:38.790855,-69
2021-09-23 20:54:38.790861,-81
2021-09-23 20:54:38.790867,-93
2021-09-23 20:54:38.790872,-98
2021-09-23 20:54:38.790878,-105
2021-09-23 20:54:38.790884,-115
2021-09-23 20:54:38.790890,-115
2021-09-23 20:54:38.790895,-105
2021-09-23 20:54:38.790901,-98
2021-09-23 20:54:38.790907,-93
2021-09-23 20:54:38.790912,-79
2021-09-23 20:54:38.790918,-72
2021-09-23 20:54:38.790924,-64
2021-09-23 20:54:38.790930,-48
2021-09-23 20:54:38.790935,-43
2021-09-23 20:54:38.790941,-45
2021-09-23 20:54:38.790947,-36
2021-09-23 20:54:38.790953,-26
2021-09-23 20:54:38.790958,-26
2021-09-23 20:54:38.790964,-24
2021-09-23 20:54:38.790970,-19
2021-09-23 20:54:39.017147,-21
2021-09-23 20:54:39.017172,-24
2021-09-23 20:54:39.017179,-24
2021-09-23 20:54:39.017185,-28
2021-09-23 20:54:39.017191,-24
2021-09-23 20:54:39.017197,-21
2021-09-23 20:54:39.017203,-26
2021-09-23 20:54:39.017209,-38
2021-09-23 20:54:39.017215,-48
2021-09-23 20:54:39.017221,-60
2021-09-23 20:54:39.017227,-55
2021-09-23 20:54:39.017232,-40
2021-09-23 20:54:39.017238,-38
2021-09-23 20:54:39.017244,-48
2021-09-23 20:54:39.017250,-48
2021-09-23 20:54:39.017256,-43
2021-09-23 20:54:39.017262,-38
2021-09-23 20:54:39.017267,-31
2021-09-23 20:54:39.017273,-24
2021-09-23 20:54:39.017279,-26
2021-09-23 20:54:39.017284,-26
2021-09-23 20:54:39.017290,-21
2021-09-23 20:54:39.017296,-21
2021-09-23 20:54:39.017302,-19
2021-09-23 20:54:39.017308,-14
2021-09-23 20:54:39.017314,-19
2021-09-23 20:54:39.017319,-33
2021-09-23 20:54:39.017325,-31
2021-09-23 20:54:39.017331,-9
2021-09-23 20:54:39.017337,9
2021-09-23 20:54:39.197080,14
2021-09-23 20:54:39.197101,9
2021-09-23 20:54:39.197109,-4
2021-09-23 20:54:39.197115,-21
2021-09-23 20:54:39.197121,-19
2021-09-23 20:54:39.197130,-9
2021-09-23 20:54:39.197136,2
2021-09-23 20:54:39.197142,4
2021-09-23 20:54:39.197148,19
2021-09-23 20:54:39.197154,141
2021-09-23 20:54:39.197159,478
2021-09-23 20:54:39.197165,969
2021-09-23 20:54:39.197171,1058
2021-09-23 20:54:39.197177,177
2021-09-23 20:54:39.197183,-656
2021-09-23 20:54:39.197189,-370
2021-09-23 20:54:39.197195,7
2021-09-23 20:54:39.197201,-153
2021-09-23 20:54:39.197207,-173
2021-09-23 20:54:39.197212,-45
2021-09-23 20:54:39.197218,-76
2021-09-23 20:54:39.197224,-101
2021-09-23 20:54:39.197229,-48
2021-09-23 20:54:39.197235,-33
2021-09-23 20:54:39.197241,-40
2021-09-23 20:54:39.197246,-24
2021-09-23 20:54:39.197252,-12
2021-09-23 20:54:39.197258,-4
2021-09-23 20:54:39.197263,2
2021-09-23 20:54:39.197269,4
2021-09-23 20:54:39.467091,12
2021-09-23 20:54:39.467111,33
2021-09-23 20:54:39.467118,43
2021-09-23 20:54:39.467124,43
2021-09-23 20:54:39.467130,55
2021-09-23 20:54:39.467136,76
2021-09-23 20:54:39.467142,74
2021-09-23 20:54:39.467148,76
2021-09-23 20:54:39.467154,91
2021-09-23 20:54:39.467160,101
2021-09-23 20:54:39.467166,96
2021-09-23 20:54:39.467171,74
2021-09-23 20:54:39.467177,43
2021-09-23 20:54:39.467183,36
2021-09-23 20:54:39.467189,24
2021-09-23 20:54:39.467194,-14
2021-09-23 20:54:39.467200,-40
2021-09-23 20:54:39.467206,-60
2021-09-23 20:54:39.467212,-81
2021-09-23 20:54:39.467217,-93
2021-09-23 20:54:39.467223,-103
2021-09-23 20:54:39.467228,-115
2021-09-23 20:54:39.467234,-108
2021-09-23 20:54:39.467240,-96
2021-09-23 20:54:39.467246,-98
2021-09-23 20:54:39.467251,-103
2021-09-23 20:54:39.467257,-91
2021-09-23 20:54:39.467263,-81
2021-09-23 20:54:39.467268,-76
2021-09-23 20:54:39.467274,-67
2021-09-23 20:54:39.692100,-57
2021-09-23 20:54:39.692121,-45
2021-09-23 20:54:39.692128,-43
2021-09-23 20:54:39.692134,-40
2021-09-23 20:54:39.692140,-33
2021-09-23 20:54:39.692146,-36
2021-09-23 20:54:39.692152,-40
2021-09-23 20:54:39.692158,-26
2021-09-23 20:54:39.692164,-16
2021-09-23 20:54:39.692170,-24
2021-09-23 20:54:39.692175,-26
2021-09-23 20:54:39.692181,-28
2021-09-23 20:54:39.692187,-38
2021-09-23 20:54:39.692193,-33
2021-09-23 20:54:39.692198,-24
2021-09-23 20:54:39.692204,-28
2021-09-23 20:54:39.692210,-36
2021-09-23 20:54:39.692215,-31
2021-09-23 20:54:39.692221,-26
2021-09-23 20:54:39.692227,-26
2021-09-23 20:54:39.692233,-26
2021-09-23 20:54:39.692238,-21
2021-09-23 20:54:39.692244,-24
2021-09-23 20:54:39.692249,-24
2021-09-23 20:54:39.692255,-12
2021-09-23 20:54:39.692261,-7
2021-09-23 20:54:39.692267,-12
2021-09-23 20:54:39.692272,-14
2021-09-23 20:54:39.692278,-16
2021-09-23 20:54:39.692284,-16
2021-09-23 20:54:39.872096,-12
2021-09-23 20:54:39.872116,-7
2021-09-23 20:54:39.872123,-12
2021-09-23 20:54:39.872129,-21
2021-09-23 20:54:39.872135,-24
2021-09-23 20:54:39.872141,-12
2021-09-23 20:54:39.872146,9
2021-09-23 20:54:39.872152,26
2021-09-23 20:54:39.872158,31
2021-09-23 20:54:39.872164,16
2021-09-23 20:54:39.872169,-9
2021-09-23 20:54:39.872175,-21
2021-09-23 20:54:39.872181,-19
2021-09-23 20:54:39.872187,-19
2021-09-23 20:54:39.872192,-26
2021-09-23 20:54:39.872198,-31
2021-09-23 20:54:39.872204,0
2021-09-23 20:54:39.872210,149
2021-09-23 20:54:39.872215,502
2021-09-23 20:54:39.872221,961
2021-09-23 20:54:39.872227,918
2021-09-23 20:54:39.872232,-36
2021-09-23 20:54:39.872238,-719
2021-09-23 20:54:39.872244,-322
2021-09-23 20:54:39.872250,-12
2021-09-23 20:54:39.872256,-187
2021-09-23 20:54:39.872262,-165
2021-09-23 20:54:39.872267,-50
2021-09-23 20:54:39.872273,-91
2021-09-23 20:54:39.872279,-93
2021-09-23 20:54:40.097107,-38
2021-09-23 20:54:40.097128,-36
2021-09-23 20:54:40.097135,-45
2021-09-23 20:54:40.097141,-28
2021-09-23 20:54:40.097147,-24
2021-09-23 20:54:40.097153,-19
2021-09-23 20:54:40.097159,2
2021-09-23 20:54:40.097165,12
2021-09-23 20:54:40.097171,16
2021-09-23 20:54:40.097177,26
2021-09-23 20:54:40.097182,26
2021-09-23 20:54:40.097188,28
2021-09-23 20:54:40.097194,50
2021-09-23 20:54:40.097200,69
2021-09-23 20:54:40.097206,79
2021-09-23 20:54:40.097211,91
2021-09-23 20:54:40.097217,101
2021-09-23 20:54:40.097223,103
2021-09-23 20:54:40.097229,93
2021-09-23 20:54:40.097234,84
2021-09-23 20:54:40.097240,79
2021-09-23 20:54:40.097246,60
2021-09-23 20:54:40.097252,33
2021-09-23 20:54:40.097257,14
2021-09-23 20:54:40.097263,-7
2021-09-23 20:54:40.097269,-33
2021-09-23 20:54:40.097275,-55
2021-09-23 20:54:40.097281,-79
2021-09-23 20:54:40.097286,-96
2021-09-23 20:54:40.097292,-91
2021-09-23 20:54:40.457048,-88
2021-09-23 20:54:40.457067,-91
2021-09-23 20:54:40.457074,-91
2021-09-23 20:54:40.457080,-91
2021-09-23 20:54:40.457086,-81
2021-09-23 20:54:40.457092,-67
2021-09-23 20:54:40.457098,-62
2021-09-23 20:54:40.457104,-60
2021-09-23 20:54:40.457110,-57
2021-09-23 20:54:40.457116,-57
2021-09-23 20:54:40.457122,-48
2021-09-23 20:54:40.457127,-33
2021-09-23 20:54:40.457133,-28
2021-09-23 20:54:40.457139,-24
2021-09-23 20:54:40.457145,-21
2021-09-23 20:54:40.457152,-19
2021-09-23 20:54:40.457157,-14
2021-09-23 20:54:40.457163,-19
2021-09-23 20:54:40.457169,-38
2021-09-23 20:54:40.457175,-43
2021-09-23 20:54:40.457181,-28
2021-09-23 20:54:40.457187,-33
2021-09-23 20:54:40.457193,-36
2021-09-23 20:54:40.457198,-21
2021-09-23 20:54:40.457204,-21
2021-09-23 20:54:40.457210,-36
2021-09-23 20:54:40.457216,-40
2021-09-23 20:54:40.457222,-31
2021-09-23 20:54:40.457227,-31
2021-09-23 20:54:40.457233,-36
2021-09-23 20:54:40.636444,-33
2021-09-23 20:54:40.636464,-26
2021-09-23 20:54:40.636471,-26
2021-09-23 20:54:40.636477,-28
2021-09-23 20:54:40.636483,-24
2021-09-23 20:54:40.636489,-19
2021-09-23 20:54:40.636495,-21
2021-09-23 20:54:40.636501,-21
2021-09-23 20:54:40.636592,-16
2021-09-23 20:54:40.636599,-21
2021-09-23 20:54:40.636605,-26
2021-09-23 20:54:40.636611,-16
2021-09-23 20:54:40.636617,-16
2021-09-23 20:54:40.636623,-26
2021-09-23 20:54:40.636629,-21
2021-09-23 20:54:40.636635,-4
2021-09-23 20:54:40.636641,9
2021-09-23 20:54:40.636647,12
2021-09-23 20:54:40.636653,7
2021-09-23 20:54:40.636659,-14
2021-09-23 20:54:40.636665,-45
2021-09-23 20:54:40.636670,-52
2021-09-23 20:54:40.636676,-31
2021-09-23 20:54:40.636682,-16
2021-09-23 20:54:40.636688,-9
2021-09-23 20:54:40.636694,43
2021-09-23 20:54:40.636700,247
2021-09-23 20:54:40.636706,673
2021-09-23 20:54:40.636712,1079
2021-09-23 20:54:40.636718,716
2021-09-23 20:54:40.861288,-339
2021-09-23 20:54:40.861306,-630
2021-09-23 20:54:40.861314,-122
2021-09-23 20:54:40.861320,-40
2021-09-23 20:54:40.861326,-194
2021-09-23 20:54:40.861332,-84
2021-09-23 20:54:40.861338,-21
2021-09-23 20:54:40.861343,-84
2021-09-23 20:54:40.861349,-72
2021-09-23 20:54:40.861355,-31
2021-09-23 20:54:40.861361,-33
2021-09-23 20:54:40.861366,-28
2021-09-23 20:54:40.861372,-14
2021-09-23 20:54:40.861378,-12
2021-09-23 20:54:40.861384,-7
2021-09-23 20:54:40.861389,9
2021-09-23 20:54:40.861395,24
2021-09-23 20:54:40.861401,31
2021-09-23 20:54:40.861407,38
2021-09-23 20:54:40.861413,40
2021-09-23 20:54:40.861419,48
2021-09-23 20:54:40.861424,64
2021-09-23 20:54:40.861430,76
2021-09-23 20:54:40.861436,79
2021-09-23 20:54:40.861442,86
2021-09-23 20:54:40.861447,93
2021-09-23 20:54:40.861453,96
2021-09-23 20:54:40.861459,93
2021-09-23 20:54:40.861464,86
2021-09-23 20:54:40.861470,67
2021-09-23 20:54:41.042184,48
2021-09-23 20:54:41.042204,26
2021-09-23 20:54:41.042212,0
2021-09-23 20:54:41.042218,-36
2021-09-23 20:54:41.042225,-69
2021-09-23 20:54:41.042231,-84
2021-09-23 20:54:41.042237,-93
2021-09-23 20:54:41.042243,-103
2021-09-23 20:54:41.042249,-105
2021-09-23 20:54:41.042255,-98
2021-09-23 20:54:41.042261,-93
2021-09-23 20:54:41.042267,-93
2021-09-23 20:54:41.042274,-98
2021-09-23 20:54:41.042282,-96
2021-09-23 20:54:41.042290,-84
2021-09-23 20:54:41.042296,-76
2021-09-23 20:54:41.042302,-64
2021-09-23 20:54:41.042308,-55
2021-09-23 20:54:41.042314,-57
2021-09-23 20:54:41.042319,-52
2021-09-23 20:54:41.042326,-38
2021-09-23 20:54:41.042331,-31
2021-09-23 20:54:41.042337,-38
2021-09-23 20:54:41.042343,-36
2021-09-23 20:54:41.042349,-26
2021-09-23 20:54:41.042355,-26
2021-09-23 20:54:41.042361,-33
2021-09-23 20:54:41.042366,-38
2021-09-23 20:54:41.042372,-36
2021-09-23 20:54:41.042378,-28
2021-09-23 20:54:41.312094,-26
2021-09-23 20:54:41.312114,-31
2021-09-23 20:54:41.312122,-26
2021-09-23 20:54:41.312128,-21
2021-09-23 20:54:41.312134,-24
2021-09-23 20:54:41.312139,-33
2021-09-23 20:54:41.312145,-36
2021-09-23 20:54:41.312151,-31
2021-09-23 20:54:41.312157,-33
2021-09-23 20:54:41.312163,-36
2021-09-23 20:54:41.312169,-26
2021-09-23 20:54:41.312174,-21
2021-09-23 20:54:41.312180,-36
2021-09-23 20:54:41.312186,-40
2021-09-23 20:54:41.312192,-28
2021-09-23 20:54:41.312198,-21
2021-09-23 20:54:41.312203,-31
2021-09-23 20:54:41.312209,-33
2021-09-23 20:54:41.312215,-24
2021-09-23 20:54:41.312220,-21
2021-09-23 20:54:41.312226,-24
2021-09-23 20:54:41.312232,-21
2021-09-23 20:54:41.312238,-7
2021-09-23 20:54:41.312244,7
2021-09-23 20:54:41.312250,4
2021-09-23 20:54:41.312255,2
2021-09-23 20:54:41.312261,-9
2021-09-23 20:54:41.312267,-38
2021-09-23 20:54:41.312272,-52
2021-09-23 20:54:41.312278,-40
2021-09-23 20:54:41.492137,-26
2021-09-23 20:54:41.492159,-16
2021-09-23 20:54:41.492166,-2
2021-09-23 20:54:41.492172,57
2021-09-23 20:54:41.492178,281
2021-09-23 20:54:41.492184,711
2021-09-23 20:54:41.492190,1029
2021-09-23 20:54:41.492196,538
2021-09-23 20:54:41.492202,-471
2021-09-23 20:54:41.492208,-606
2021-09-23 20:54:41.492214,-86
2021-09-23 20:54:41.492220,-57
2021-09-23 20:54:41.492225,-185
2021-09-23 20:54:41.492231,-57
2021-09-23 20:54:41.492237,-19
2021-09-23 20:54:41.492243,-76
2021-09-23 20:54:41.492249,-50
2021-09-23 20:54:41.492255,-21
2021-09-23 20:54:41.492261,-28
2021-09-23 20:54:41.492266,-16
2021-09-23 20:54:41.492272,0
2021-09-23 20:54:41.492278,4
2021-09-23 20:54:41.492284,16
2021-09-23 20:54:41.492289,31
2021-09-23 20:54:41.492295,43
