Time,ECG
2021-09-23 21:03:15.039080,-84
2021-09-23 21:03:15.039100,-76
2021-09-23 21:03:15.039108,-108
2021-09-23 21:03:15.039115,-101
2021-09-23 21:03:15.039121,-84
2021-09-23 21:03:15.039128,-84
2021-09-23 21:03:15.039134,-60
2021-09-23 21:03:15.039140,-57
2021-09-23 21:03:15.039147,-103
2021-09-23 21:03:15.039153,-98
2021-09-23 21:03:15.039160,-45
2021-09-23 21:03:15.039166,-28
2021-09-23 21:03:15.039172,-31
2021-09-23 21:03:15.039179,-7
2021-09-23 21:03:15.039185,7
2021-09-23 21:03:15.039191,-38
2021-09-23 21:03:15.039198,-72
2021-09-23 21:03:15.039204,-45
2021-09-23 21:03:15.039211,-31
2021-09-23 21:03:15.039217,-40
2021-09-23 21:03:15.039223,-33
2021-09-23 21:03:15.039229,-9
2021-09-23 21:03:15.039235,0
2021-09-23 21:03:15.039241,-28
2021-09-23 21:03:15.039247,-69
2021-09-23 21:03:15.039254,-50
2021-09-23 21:03:15.039265,-4
2021-09-23 21:03:15.039271,-7
2021-09-23 21:03:15.039278,-14
2021-09-23 21:03:15.039284,14
2021-09-23 21:03:15.352690,19
2021-09-23 21:03:15.352710,-28
2021-09-23 21:03:15.352718,-40
2021-09-23 21:03:15.352724,-16
2021-09-23 21:03:15.352730,-21
2021-09-23 21:03:15.352736,-26
2021-09-23 21:03:15.352743,-9
2021-09-23 21:03:15.352748,-2
2021-09-23 21:03:15.352754,12
2021-09-23 21:03:15.352760,28
2021-09-23 21:03:15.352766,24
2021-09-23 21:03:15.352772,7
2021-09-23 21:03:15.352778,-2
2021-09-23 21:03:15.352784,4
2021-09-23 21:03:15.352790,-2
2021-09-23 21:03:15.352795,-36
2021-09-23 21:03:15.352801,-33
2021-09-23 21:03:15.352808,19
2021-09-23 21:03:15.352814,182
2021-09-23 21:03:15.352819,577
2021-09-23 21:03:15.352825,1096
2021-09-23 21:03:15.352831,1034
2021-09-23 21:03:15.352836,14
2021-09-23 21:03:15.352842,-675
2021-09-23 21:03:15.352848,-286
2021-09-23 21:03:15.352854,-7
2021-09-23 21:03:15.352859,-175
2021-09-23 21:03:15.352865,-141
2021-09-23 21:03:15.352871,-36
2021-09-23 21:03:15.352878,-72
2021-09-23 21:03:15.578483,-69
2021-09-23 21:03:15.578506,-24
2021-09-23 21:03:15.578514,-19
2021-09-23 21:03:15.578520,-28
2021-09-23 21:03:15.578526,-33
2021-09-23 21:03:15.578532,-26
2021-09-23 21:03:15.578538,-9
2021-09-23 21:03:15.578544,-14
2021-09-23 21:03:15.578550,-9
2021-09-23 21:03:15.578556,19
2021-09-23 21:03:15.578561,24
2021-09-23 21:03:15.578567,24
2021-09-23 21:03:15.578573,57
2021-09-23 21:03:15.578582,79
2021-09-23 21:03:15.578588,69
2021-09-23 21:03:15.578594,84
2021-09-23 21:03:15.578600,113
2021-09-23 21:03:15.578606,129
2021-09-23 21:03:15.578612,122
2021-09-23 21:03:15.578618,84
2021-09-23 21:03:15.578624,79
2021-09-23 21:03:15.578629,88
2021-09-23 21:03:15.578635,40
2021-09-23 21:03:15.578641,-12
2021-09-23 21:03:15.578647,-26
2021-09-23 21:03:15.578652,-43
2021-09-23 21:03:15.578658,-69
2021-09-23 21:03:15.578664,-86
2021-09-23 21:03:15.578670,-101
2021-09-23 21:03:15.578677,-120
2021-09-23 21:03:15.759004,-125
2021-09-23 21:03:15.759022,-108
2021-09-23 21:03:15.759029,-108
2021-09-23 21:03:15.759035,-110
2021-09-23 21:03:15.759040,-81
2021-09-23 21:03:15.759046,-72
2021-09-23 21:03:15.759052,-86
2021-09-23 21:03:15.759058,-76
2021-09-23 21:03:15.759064,-72
2021-09-23 21:03:15.759070,-91
2021-09-23 21:03:15.759076,-93
2021-09-23 21:03:15.759081,-52
2021-09-23 21:03:15.759087,-26
2021-09-23 21:03:15.759093,-28
2021-09-23 21:03:15.759099,-26
2021-09-23 21:03:15.759104,-19
2021-09-23 21:03:15.759110,-24
2021-09-23 21:03:15.759120,-43
2021-09-23 21:03:15.759126,-52
2021-09-23 21:03:15.759132,-40
2021-09-23 21:03:15.759137,-28
2021-09-23 21:03:15.759143,-31
2021-09-23 21:03:15.759149,-24
2021-09-23 21:03:15.759154,-14
2021-09-23 21:03:15.759160,-26
2021-09-23 21:03:15.759166,-33
2021-09-23 21:03:15.759172,-26
2021-09-23 21:03:15.759178,-33
2021-09-23 21:03:15.759184,-43
2021-09-23 21:03:15.759189,-31
2021-09-23 21:03:15.984096,-26
2021-09-23 21:03:15.984116,-31
2021-09-23 21:03:15.984123,-21
2021-09-23 21:03:15.984129,-2
2021-09-23 21:03:15.984136,21
2021-09-23 21:03:15.984142,36
2021-09-23 21:03:15.984148,4
2021-09-23 21:03:15.984159,-33
2021-09-23 21:03:15.984165,-36
2021-09-23 21:03:15.984171,-19
2021-09-23 21:03:15.984177,-7
2021-09-23 21:03:15.984183,-12
2021-09-23 21:03:15.984189,-19
2021-09-23 21:03:15.984195,9
2021-09-23 21:03:15.984200,168
2021-09-23 21:03:15.984206,555
2021-09-23 21:03:15.984212,1079
2021-09-23 21:03:15.984218,1053
2021-09-23 21:03:15.984224,28
2021-09-23 21:03:15.984230,-685
2021-09-23 21:03:15.984235,-286
2021-09-23 21:03:15.984241,-21
2021-09-23 21:03:15.984247,-218
2021-09-23 21:03:15.984253,-156
2021-09-23 21:03:15.984258,-24
2021-09-23 21:03:15.984264,-86
2021-09-23 21:03:15.984270,-93
2021-09-23 21:03:15.984276,-33
2021-09-23 21:03:15.984282,-33
2021-09-23 21:03:15.984288,-26
2021-09-23 21:03:16.209107,-4
2021-09-23 21:03:16.209152,-16
2021-09-23 21:03:16.209160,-14
2021-09-23 21:03:16.209166,4
2021-09-23 21:03:16.209172,4
2021-09-23 21:03:16.209178,9
2021-09-23 21:03:16.209184,19
2021-09-23 21:03:16.209190,28
2021-09-23 21:03:16.209196,48
2021-09-23 21:03:16.209202,62
2021-09-23 21:03:16.209207,84
2021-09-23 21:03:16.209213,120
2021-09-23 21:03:16.209219,125
2021-09-23 21:03:16.209225,93
2021-09-23 21:03:16.209231,86
2021-09-23 21:03:16.209237,91
2021-09-23 21:03:16.209243,74
2021-09-23 21:03:16.209248,52
2021-09-23 21:03:16.209254,36
2021-09-23 21:03:16.209260,9
2021-09-23 21:03:16.209266,-26
2021-09-23 21:03:16.209272,-50
2021-09-23 21:03:16.209277,-67
2021-09-23 21:03:16.209283,-91
2021-09-23 21:03:16.209293,-120
2021-09-23 21:03:16.209299,-129
2021-09-23 21:03:16.209305,-129
2021-09-23 21:03:16.209311,-132
2021-09-23 21:03:16.209317,-120
2021-09-23 21:03:16.209323,-108
2021-09-23 21:03:16.434072,-108
2021-09-23 21:03:16.434094,-98
2021-09-23 21:03:16.434101,-74
2021-09-23 21:03:16.434107,-81
2021-09-23 21:03:16.434113,-101
2021-09-23 21:03:16.434118,-84
2021-09-23 21:03:16.434124,-76
2021-09-23 21:03:16.434130,-76
2021-09-23 21:03:16.434136,-52
2021-09-23 21:03:16.434142,-40
2021-09-23 21:03:16.434148,-45
2021-09-23 21:03:16.434154,-38
2021-09-23 21:03:16.434160,-21
2021-09-23 21:03:16.434166,-16
2021-09-23 21:03:16.434171,-45
2021-09-23 21:03:16.434177,-57
2021-09-23 21:03:16.434183,-38
2021-09-23 21:03:16.434189,-33
2021-09-23 21:03:16.434195,-45
2021-09-23 21:03:16.434201,-45
2021-09-23 21:03:16.434206,-43
2021-09-23 21:03:16.434212,-38
2021-09-23 21:03:16.434220,-19
2021-09-23 21:03:16.434226,-21
2021-09-23 21:03:16.434232,-40
2021-09-23 21:03:16.434238,-43
2021-09-23 21:03:16.434244,-28
2021-09-23 21:03:16.434249,-21
2021-09-23 21:03:16.434255,-24
2021-09-23 21:03:16.434261,-28
2021-09-23 21:03:16.659053,-31
2021-09-23 21:03:16.659071,-9
2021-09-23 21:03:16.659079,4
2021-09-23 21:03:16.659085,-2
2021-09-23 21:03:16.659091,2
2021-09-23 21:03:16.659097,-9
2021-09-23 21:03:16.659103,-43
2021-09-23 21:03:16.659109,-33
2021-09-23 21:03:16.659114,-14
2021-09-23 21:03:16.659120,-24
2021-09-23 21:03:16.659126,-7
2021-09-23 21:03:16.659132,33
2021-09-23 21:03:16.659138,153
2021-09-23 21:03:16.659144,492
2021-09-23 21:03:16.659150,1031
2021-09-23 21:03:16.659156,1159
2021-09-23 21:03:16.659161,233
2021-09-23 21:03:16.659167,-658
2021-09-23 21:03:16.659173,-375
2021-09-23 21:03:16.659179,9
2021-09-23 21:03:16.659184,-163
2021-09-23 21:03:16.659190,-163
2021-09-23 21:03:16.659196,-16
2021-09-23 21:03:16.659201,-64
2021-09-23 21:03:16.659210,-91
2021-09-23 21:03:16.659216,-21
2021-09-23 21:03:16.659222,-28
2021-09-23 21:03:16.659228,-60
2021-09-23 21:03:16.659234,-26
2021-09-23 21:03:16.659239,-2
2021-09-23 21:03:16.973511,-4
2021-09-23 21:03:16.973533,2
2021-09-23 21:03:16.973540,14
2021-09-23 21:03:16.973546,31
2021-09-23 21:03:16.973552,33
2021-09-23 21:03:16.973557,12
2021-09-23 21:03:16.973563,28
2021-09-23 21:03:16.973569,69
2021-09-23 21:03:16.973575,84
2021-09-23 21:03:16.973581,91
2021-09-23 21:03:16.973587,105
2021-09-23 21:03:16.973593,98
2021-09-23 21:03:16.973598,96
2021-09-23 21:03:16.973604,115
2021-09-23 21:03:16.973610,96
2021-09-23 21:03:16.973615,36
2021-09-23 21:03:16.973621,7
2021-09-23 21:03:16.973627,2
2021-09-23 21:03:16.973632,-28
2021-09-23 21:03:16.973638,-69
2021-09-23 21:03:16.973644,-93
2021-09-23 21:03:16.973650,-101
2021-09-23 21:03:16.973655,-110
2021-09-23 21:03:16.973661,-117
2021-09-23 21:03:16.973667,-125
2021-09-23 21:03:16.973672,-132
2021-09-23 21:03:16.973678,-137
2021-09-23 21:03:16.973684,-139
2021-09-23 21:03:16.973689,-129
2021-09-23 21:03:16.973695,-108
2021-09-23 21:03:17.109187,-101
2021-09-23 21:03:17.109209,-91
2021-09-23 21:03:17.109216,-79
2021-09-23 21:03:17.109222,-86
2021-09-23 21:03:17.109229,-86
2021-09-23 21:03:17.109235,-62
2021-09-23 21:03:17.109241,-62
2021-09-23 21:03:17.109246,-72
2021-09-23 21:03:17.109252,-55
2021-09-23 21:03:17.109258,-52
2021-09-23 21:03:17.109264,-72
2021-09-23 21:03:17.109270,-57
2021-09-23 21:03:17.109275,-21
2021-09-23 21:03:17.109281,-24
2021-09-23 21:03:17.109287,-45
2021-09-23 21:03:17.109293,-45
2021-09-23 21:03:17.109299,-45
2021-09-23 21:03:17.109304,-50
2021-09-23 21:03:17.109310,-57
2021-09-23 21:03:17.109315,-55
2021-09-23 21:03:17.109321,-36
2021-09-23 21:03:17.109327,-24
2021-09-23 21:03:17.109332,-40
2021-09-23 21:03:17.109338,-48
2021-09-23 21:03:17.109344,-28
2021-09-23 21:03:17.109350,-12
2021-09-23 21:03:17.109355,-21
2021-09-23 21:03:17.109361,-24
2021-09-23 21:03:17.109366,2
2021-09-23 21:03:17.109372,19
2021-09-23 21:03:17.513380,2
2021-09-23 21:03:17.513401,-24
2021-09-23 21:03:17.513408,-31
2021-09-23 21:03:17.513414,-26
2021-09-23 21:03:17.513420,-26
2021-09-23 21:03:17.513426,-26
2021-09-23 21:03:17.513432,-24
2021-09-23 21:03:17.513438,-14
2021-09-23 21:03:17.513443,31
2021-09-23 21:03:17.513449,250
2021-09-23 21:03:17.513460,745
2021-09-23 21:03:17.513466,1175
2021-09-23 21:03:17.513472,680
2021-09-23 21:03:17.513478,-449
2021-09-23 21:03:17.513484,-622
2021-09-23 21:03:17.513490,-76
2021-09-23 21:03:17.513496,-72
2021-09-23 21:03:17.513501,-228
2021-09-23 21:03:17.513507,-81
2021-09-23 21:03:17.513513,-31
2021-09-23 21:03:17.513518,-96
2021-09-23 21:03:17.513524,-57
2021-09-23 21:03:17.513530,-9
2021-09-23 21:03:17.513536,-14
2021-09-23 21:03:17.513542,0
2021-09-23 21:03:17.513548,4
2021-09-23 21:03:17.513553,-24
2021-09-23 21:03:17.513559,-28
2021-09-23 21:03:17.513565,0
2021-09-23 21:03:17.513571,19
2021-09-23 21:03:17.604089,24
2021-09-23 21:03:17.604110,33
2021-09-23 21:03:17.604118,45
2021-09-23 21:03:17.604124,62
2021-09-23 21:03:17.604130,88
2021-09-23 21:03:17.604135,108
2021-09-23 21:03:17.604141,110
2021-09-23 21:03:17.604147,117
2021-09-23 21:03:17.604153,132
2021-09-23 21:03:17.604159,122
2021-09-23 21:03:17.604164,93
2021-09-23 21:03:17.604170,86
2021-09-23 21:03:17.604176,76
2021-09-23 21:03:17.604182,28
2021-09-23 21:03:17.604187,-28
2021-09-23 21:03:17.604193,-72
2021-09-23 21:03:17.604199,-105
2021-09-23 21:03:17.604205,-125
2021-09-23 21:03:17.604211,-125
2021-09-23 21:03:17.604217,-122
2021-09-23 21:03:17.604223,-127
2021-09-23 21:03:17.604229,-132
2021-09-23 21:03:17.604235,-122
2021-09-23 21:03:17.604241,-108
2021-09-23 21:03:17.604247,-105
2021-09-23 21:03:17.604256,-125
2021-09-23 21:03:17.604262,-134
2021-09-23 21:03:17.604268,-115
2021-09-23 21:03:17.604274,-98
2021-09-23 21:03:17.604279,-96
2021-09-23 21:03:17.874102,-79
2021-09-23 21:03:17.874123,-64
2021-09-23 21:03:17.874130,-69
2021-09-23 21:03:17.874136,-62
2021-09-23 21:03:17.874142,-45
2021-09-23 21:03:17.874148,-33
2021-09-23 21:03:17.874153,-28
2021-09-23 21:03:17.874159,-31
2021-09-23 21:03:17.874165,-40
2021-09-23 21:03:17.874171,-40
2021-09-23 21:03:17.874176,-31
2021-09-23 21:03:17.874182,-28
2021-09-23 21:03:17.874188,-38
2021-09-23 21:03:17.874193,-48
2021-09-23 21:03:17.874199,-38
2021-09-23 21:03:17.874205,-26
2021-09-23 21:03:17.874210,-26
2021-09-23 21:03:17.874216,-24
2021-09-23 21:03:17.874222,-21
2021-09-23 21:03:17.874227,-33
2021-09-23 21:03:17.874233,-48
2021-09-23 21:03:17.874239,-36
2021-09-23 21:03:17.874244,-9
2021-09-23 21:03:17.874250,4
2021-09-23 21:03:17.874256,19
2021-09-23 21:03:17.874262,26
2021-09-23 21:03:17.874267,0
2021-09-23 21:03:17.874273,-26
2021-09-23 21:03:17.874279,-9
2021-09-23 21:03:17.874285,14
2021-09-23 21:03:18.053973,4
2021-09-23 21:03:18.053993,-9
2021-09-23 21:03:18.054000,2
2021-09-23 21:03:18.054006,50
2021-09-23 21:03:18.054012,206
2021-09-23 21:03:18.054018,593
2021-09-23 21:03:18.054024,1094
2021-09-23 21:03:18.054030,997
2021-09-23 21:03:18.054036,24
2021-09-23 21:03:18.054042,-550
2021-09-23 21:03:18.054048,-185
2021-09-23 21:03:18.054054,4
2021-09-23 21:03:18.054060,-175
2021-09-23 21:03:18.054065,-139
2021-09-23 21:03:18.054071,-36
2021-09-23 21:03:18.054077,-62
2021-09-23 21:03:18.054086,-76
2021-09-23 21:03:18.054092,-55
2021-09-23 21:03:18.054098,-48
2021-09-23 21:03:18.054104,-40
2021-09-23 21:03:18.054110,-24
2021-09-23 21:03:18.054115,-7
2021-09-23 21:03:18.054121,7
2021-09-23 21:03:18.054127,12
2021-09-23 21:03:18.054133,4
2021-09-23 21:03:18.054139,12
2021-09-23 21:03:18.054144,26
2021-09-23 21:03:18.054150,28
2021-09-23 21:03:18.054156,40
2021-09-23 21:03:18.054162,62
2021-09-23 21:03:18.369174,74
2021-09-23 21:03:18.369194,91
2021-09-23 21:03:18.369201,103
2021-09-23 21:03:18.369207,101
2021-09-23 21:03:18.369213,105
2021-09-23 21:03:18.369219,110
2021-09-23 21:03:18.369225,93
2021-09-23 21:03:18.369231,72
2021-09-23 21:03:18.369237,55
2021-09-23 21:03:18.369243,21
2021-09-23 21:03:18.369249,-9
2021-09-23 21:03:18.369255,-24
2021-09-23 21:03:18.369261,-64
2021-09-23 21:03:18.369267,-120
2021-09-23 21:03:18.369272,-132
2021-09-23 21:03:18.369279,-115
2021-09-23 21:03:18.369284,-113
2021-09-23 21:03:18.369290,-110
2021-09-23 21:03:18.369296,-105
2021-09-23 21:03:18.369302,-103
2021-09-23 21:03:18.369307,-93
2021-09-23 21:03:18.369313,-91
2021-09-23 21:03:18.369319,-96
2021-09-23 21:03:18.369324,-93
2021-09-23 21:03:18.369330,-84
2021-09-23 21:03:18.369336,-76
2021-09-23 21:03:18.369342,-67
2021-09-23 21:03:18.369348,-62
2021-09-23 21:03:18.369353,-48
2021-09-23 21:03:18.369359,-36
2021-09-23 21:03:18.548542,-40
2021-09-23 21:03:18.548564,-48
2021-09-23 21:03:18.548571,-45
2021-09-23 21:03:18.548577,-31
2021-09-23 21:03:18.548583,-19
2021-09-23 21:03:18.548589,-36
2021-09-23 21:03:18.548594,-52
2021-09-23 21:03:18.548600,-48
2021-09-23 21:03:18.548606,-33
2021-09-23 21:03:18.548612,-24
2021-09-23 21:03:18.548618,-16
2021-09-23 21:03:18.548623,-16
2021-09-23 21:03:18.548629,-24
2021-09-23 21:03:18.548640,-36
2021-09-23 21:03:18.548646,-48
2021-09-23 21:03:18.548652,-45
2021-09-23 21:03:18.548657,-31
2021-09-23 21:03:18.548663,-26
2021-09-23 21:03:18.548669,-14
2021-09-23 21:03:18.548675,9
2021-09-23 21:03:18.548681,7
2021-09-23 21:03:18.548687,-12
2021-09-23 21:03:18.548692,-14
2021-09-23 21:03:18.548698,-24
2021-09-23 21:03:18.548704,-36
2021-09-23 21:03:18.548709,-28
2021-09-23 21:03:18.548715,-9
2021-09-23 21:03:18.548721,-4
2021-09-23 21:03:18.548727,0
2021-09-23 21:03:18.548732,48
2021-09-23 21:03:18.729097,235
2021-09-23 21:03:18.729118,651
2021-09-23 21:03:18.729125,1137
2021-09-23 21:03:18.729131,930
2021-09-23 21:03:18.729137,-163
2021-09-23 21:03:18.729143,-666
2021-09-23 21:03:18.729149,-177
2021-09-23 21:03:18.729155,-7
2021-09-23 21:03:18.729160,-189
2021-09-23 21:03:18.729166,-96
2021-09-23 21:03:18.729172,-9
2021-09-23 21:03:18.729178,-88
2021-09-23 21:03:18.729184,-76
2021-09-23 21:03:18.729190,-16
2021-09-23 21:03:18.729196,-21
2021-09-23 21:03:18.729202,-19
2021-09-23 21:03:18.729207,4
2021-09-23 21:03:18.729213,4
2021-09-23 21:03:18.729219,4
2021-09-23 21:03:18.729225,16
2021-09-23 21:03:18.729230,21
2021-09-23 21:03:18.729236,31
2021-09-23 21:03:18.729242,50
2021-09-23 21:03:18.729248,64
2021-09-23 21:03:18.729254,72
2021-09-23 21:03:18.729259,86
2021-09-23 21:03:18.729265,117
2021-09-23 21:03:18.729271,137
2021-09-23 21:03:18.729277,120
2021-09-23 21:03:18.729282,103
2021-09-23 21:03:18.999113,113
2021-09-23 21:03:18.999134,115
2021-09-23 21:03:18.999141,93
2021-09-23 21:03:18.999147,67
2021-09-23 21:03:18.999153,38
2021-09-23 21:03:18.999159,7
2021-09-23 21:03:18.999165,-24
2021-09-23 21:03:18.999171,-60
2021-09-23 21:03:18.999179,-86
2021-09-23 21:03:18.999184,-101
2021-09-23 21:03:18.999190,-122
2021-09-23 21:03:18.999196,-120
2021-09-23 21:03:18.999202,-98
2021-09-23 21:03:18.999207,-96
2021-09-23 21:03:18.999213,-113
2021-09-23 21:03:18.999219,-120
2021-09-23 21:03:18.999225,-108
2021-09-23 21:03:18.999236,-108
2021-09-23 21:03:18.999242,-110
2021-09-23 21:03:18.999248,-96
2021-09-23 21:03:18.999253,-88
2021-09-23 21:03:18.999259,-103
2021-09-23 21:03:18.999265,-93
2021-09-23 21:03:18.999270,-64
2021-09-23 21:03:18.999276,-60
2021-09-23 21:03:18.999282,-64
2021-09-23 21:03:18.999288,-60
2021-09-23 21:03:18.999294,-60
2021-09-23 21:03:18.999300,-57
2021-09-23 21:03:18.999305,-48
2021-09-23 21:03:19.224127,-40
2021-09-23 21:03:19.224149,-40
2021-09-23 21:03:19.224156,-52
2021-09-23 21:03:19.224162,-64
2021-09-23 21:03:19.224168,-60
2021-09-23 21:03:19.224174,-60
2021-09-23 21:03:19.224180,-60
2021-09-23 21:03:19.224186,-40
2021-09-23 21:03:19.224191,-28
2021-09-23 21:03:19.224197,-36
2021-09-23 21:03:19.224203,-28
2021-09-23 21:03:19.224209,-7
2021-09-23 21:03:19.224215,-12
2021-09-23 21:03:19.224221,-33
2021-09-23 21:03:19.224227,-48
2021-09-23 21:03:19.224233,-50
2021-09-23 21:03:19.224238,-43
2021-09-23 21:03:19.224244,-31
2021-09-23 21:03:19.224250,-16
2021-09-23 21:03:19.224256,28
2021-09-23 21:03:19.224262,209
2021-09-23 21:03:19.224267,606
2021-09-23 21:03:19.224273,1046
2021-09-23 21:03:19.224279,786
2021-09-23 21:03:19.224285,-278
2021-09-23 21:03:19.224290,-680
2021-09-23 21:03:19.224296,-165
2021-09-23 21:03:19.224302,-21
2021-09-23 21:03:19.224307,-185
2021-09-23 21:03:19.224313,-93
2021-09-23 21:03:19.492985,-24
2021-09-23 21:03:19.493007,-74
2021-09-23 21:03:19.493014,-62
2021-09-23 21:03:19.493020,-16
2021-09-23 21:03:19.493026,-16
2021-09-23 21:03:19.493031,-12
2021-09-23 21:03:19.493037,4
2021-09-23 21:03:19.493043,-2
2021-09-23 21:03:19.493049,-4
2021-09-23 21:03:19.493055,21
2021-09-23 21:03:19.493061,38
2021-09-23 21:03:19.493101,43
2021-09-23 21:03:19.493107,64
2021-09-23 21:03:19.493113,84
2021-09-23 21:03:19.493119,81
2021-09-23 21:03:19.493125,88
2021-09-23 21:03:19.493131,117
2021-09-23 21:03:19.493137,144
2021-09-23 21:03:19.493142,151
2021-09-23 21:03:19.493148,153
2021-09-23 21:03:19.493154,149
2021-09-23 21:03:19.493160,134
2021-09-23 21:03:19.493165,101
2021-09-23 21:03:19.493171,50
2021-09-23 21:03:19.493177,12
2021-09-23 21:03:19.493183,-31
2021-09-23 21:03:19.493188,-88
2021-09-23 21:03:19.493194,-117
2021-09-23 21:03:19.493200,-120
2021-09-23 21:03:19.493211,-132
2021-09-23 21:03:19.674111,-137
2021-09-23 21:03:19.674132,-127
2021-09-23 21:03:19.674139,-127
2021-09-23 21:03:19.674145,-132
2021-09-23 21:03:19.674151,-122
2021-09-23 21:03:19.674157,-115
2021-09-23 21:03:19.674163,-110
2021-09-23 21:03:19.674169,-105
2021-09-23 21:03:19.674174,-101
2021-09-23 21:03:19.674180,-91
2021-09-23 21:03:19.674186,-81
2021-09-23 21:03:19.674192,-76
2021-09-23 21:03:19.674197,-62
2021-09-23 21:03:19.674203,-55
2021-09-23 21:03:19.674209,-57
2021-09-23 21:03:19.674214,-60
2021-09-23 21:03:19.674220,-50
2021-09-23 21:03:19.674226,-43
2021-09-23 21:03:19.674231,-40
2021-09-23 21:03:19.674237,-40
2021-09-23 21:03:19.674242,-40
2021-09-23 21:03:19.674248,-40
2021-09-23 21:03:19.674253,-40
2021-09-23 21:03:19.674259,-33
2021-09-23 21:03:19.674265,-33
2021-09-23 21:03:19.674271,-43
2021-09-23 21:03:19.674276,-40
2021-09-23 21:03:19.674282,-26
2021-09-23 21:03:19.674288,-21
2021-09-23 21:03:19.674294,-12
2021-09-23 21:03:19.899089,-12
2021-09-23 21:03:19.899109,-33
2021-09-23 21:03:19.899116,-45
2021-09-23 21:03:19.899122,-28
2021-09-23 21:03:19.899128,-16
2021-09-23 21:03:19.899134,-19
2021-09-23 21:03:19.899139,-12
2021-09-23 21:03:19.899145,4
2021-09-23 21:03:19.899151,115
2021-09-23 21:03:19.899157,454
2021-09-23 21:03:19.899163,947
2021-09-23 21:03:19.899169,928
2021-09-23 21:03:19.899175,24
2021-09-23 21:03:19.899181,-586
2021-09-23 21:03:19.899186,-238
2021-09-23 21:03:19.899192,2
2021-09-23 21:03:19.899198,-156
2021-09-23 21:03:19.899204,-125
2021-09-23 21:03:19.899209,-24
2021-09-23 21:03:19.899215,-72
2021-09-23 21:03:19.899221,-74
2021-09-23 21:03:19.899226,-28
2021-09-23 21:03:19.899232,-33
2021-09-23 21:03:19.899237,-33
2021-09-23 21:03:19.899243,-16
2021-09-23 21:03:19.899249,-16
2021-09-23 21:03:19.899254,-7
2021-09-23 21:03:19.899260,16
2021-09-23 21:03:19.899265,16
2021-09-23 21:03:19.899271,-7
2021-09-23 21:03:20.124121,-4
2021-09-23 21:03:20.124142,26
2021-09-23 21:03:20.124149,38
2021-09-23 21:03:20.124155,38
2021-09-23 21:03:20.124162,50
2021-09-23 21:03:20.124168,67
2021-09-23 21:03:20.124174,74
2021-09-23 21:03:20.124179,79
2021-09-23 21:03:20.124185,81
2021-09-23 21:03:20.124191,69
2021-09-23 21:03:20.124197,55
2021-09-23 21:03:20.124203,36
2021-09-23 21:03:20.124209,7
2021-09-23 21:03:20.124215,-24
2021-09-23 21:03:20.124221,-45
2021-09-23 21:03:20.124226,-64
2021-09-23 21:03:20.124232,-76
2021-09-23 21:03:20.124238,-84
2021-09-23 21:03:20.124244,-88
2021-09-23 21:03:20.124249,-88
2021-09-23 21:03:20.124258,-86
2021-09-23 21:03:20.124265,-81
2021-09-23 21:03:20.124271,-84
2021-09-23 21:03:20.124279,-93
2021-09-23 21:03:20.124287,-96
2021-09-23 21:03:20.124293,-84
2021-09-23 21:03:20.124299,-72
2021-09-23 21:03:20.124304,-64
2021-09-23 21:03:20.124310,-60
2021-09-23 21:03:20.124316,-57
2021-09-23 21:03:20.439135,-50
2021-09-23 21:03:20.439155,-40
2021-09-23 21:03:20.439162,-40
2021-09-23 21:03:20.439168,-36
2021-09-23 21:03:20.439174,-33
2021-09-23 21:03:20.439180,-48
2021-09-23 21:03:20.439186,-48
2021-09-23 21:03:20.439192,-36
2021-09-23 21:03:20.439197,-36
2021-09-23 21:03:20.439203,-36
2021-09-23 21:03:20.439209,-38
2021-09-23 21:03:20.439215,-48
2021-09-23 21:03:20.439221,-57
2021-09-23 21:03:20.439226,-60
2021-09-23 21:03:20.439232,-52
2021-09-23 21:03:20.439238,-40
2021-09-23 21:03:20.439244,-31
2021-09-23 21:03:20.439250,-19
2021-09-23 21:03:20.439255,-19
2021-09-23 21:03:20.439261,-40
2021-09-23 21:03:20.439267,-50
2021-09-23 21:03:20.439272,-36
2021-09-23 21:03:20.439278,-28
2021-09-23 21:03:20.439284,-28
2021-09-23 21:03:20.439289,-19
2021-09-23 21:03:20.439295,12
2021-09-23 21:03:20.439301,125
2021-09-23 21:03:20.439307,420
2021-09-23 21:03:20.439313,882
2021-09-23 21:03:20.439319,906
2021-09-23 21:03:20.618536,79
2021-09-23 21:03:20.618556,-509
2021-09-23 21:03:20.618563,-189
2021-09-23 21:03:20.618569,19
2021-09-23 21:03:20.618575,-175
2021-09-23 21:03:20.618581,-151
2021-09-23 21:03:20.618587,-45
2021-09-23 21:03:20.618593,-86
2021-09-23 21:03:20.618599,-86
2021-09-23 21:03:20.618604,-38
2021-09-23 21:03:20.618610,-48
2021-09-23 21:03:20.618616,-50
2021-09-23 21:03:20.618622,-21
2021-09-23 21:03:20.618627,-19
2021-09-23 21:03:20.618633,-24
2021-09-23 21:03:20.618639,-9
2021-09-23 21:03:20.618645,2
2021-09-23 21:03:20.618651,0
2021-09-23 21:03:20.618657,7
2021-09-23 21:03:20.618662,26
2021-09-23 21:03:20.618668,43
2021-09-23 21:03:20.618674,48
2021-09-23 21:03:20.618679,43
2021-09-23 21:03:20.618685,52
2021-09-23 21:03:20.618691,74
2021-09-23 21:03:20.618696,81
2021-09-23 21:03:20.618702,72
2021-09-23 21:03:20.618708,64
2021-09-23 21:03:20.618714,57
2021-09-23 21:03:20.618719,45
2021-09-23 21:03:20.799189,21
2021-09-23 21:03:20.799209,-9
2021-09-23 21:03:20.799216,-40
2021-09-23 21:03:20.799222,-55
2021-09-23 21:03:20.799228,-67
2021-09-23 21:03:20.799234,-93
2021-09-23 21:03:20.799239,-110
2021-09-23 21:03:20.799245,-96
2021-09-23 21:03:20.799251,-84
2021-09-23 21:03:20.799257,-98
2021-09-23 21:03:20.799263,-108
2021-09-23 21:03:20.799269,-96
2021-09-23 21:03:20.799275,-79
2021-09-23 21:03:20.799280,-72
2021-09-23 21:03:20.799286,-76
2021-09-23 21:03:20.799292,-86
2021-09-23 21:03:20.799297,-88
2021-09-23 21:03:20.799303,-72
2021-09-23 21:03:20.799309,-52
2021-09-23 21:03:20.799315,-48
2021-09-23 21:03:20.799320,-48
2021-09-23 21:03:20.799326,-48
2021-09-23 21:03:20.799335,-43
2021-09-23 21:03:20.799341,-33
2021-09-23 21:03:20.799347,-24
2021-09-23 21:03:20.799353,-24
2021-09-23 21:03:20.799358,-26
2021-09-23 21:03:20.799364,-24
2021-09-23 21:03:20.799370,-19
2021-09-23 21:03:20.799375,-28
2021-09-23 21:03:21.069542,-33
2021-09-23 21:03:21.069560,-24
2021-09-23 21:03:21.069567,-24
2021-09-23 21:03:21.069573,-45
2021-09-23 21:03:21.069579,-52
2021-09-23 21:03:21.069585,-40
2021-09-23 21:03:21.069591,-36
2021-09-23 21:03:21.069596,-28
2021-09-23 21:03:21.069602,-26
2021-09-23 21:03:21.069608,-45
2021-09-23 21:03:21.069614,-72
2021-09-23 21:03:21.069620,-69
2021-09-23 21:03:21.069625,-52
2021-09-23 21:03:21.069632,-48
2021-09-23 21:03:21.069637,-55
2021-09-23 21:03:21.069643,-48
2021-09-23 21:03:21.069649,4
2021-09-23 21:03:21.069655,175
2021-09-23 21:03:21.069661,531
2021-09-23 21:03:21.069667,921
2021-09-23 21:03:21.069673,680
2021-09-23 21:03:21.069678,-240
2021-09-23 21:03:21.069684,-555
2021-09-23 21:03:21.069690,-105
2021-09-23 21:03:21.069695,-12
2021-09-23 21:03:21.069701,-175
2021-09-23 21:03:21.069707,-91
2021-09-23 21:03:21.069712,-31
2021-09-23 21:03:21.069718,-93
2021-09-23 21:03:21.069724,-72
2021-09-23 21:03:21.339144,-24
2021-09-23 21:03:21.339165,-33
2021-09-23 21:03:21.339172,-33
2021-09-23 21:03:21.339178,-12
2021-09-23 21:03:21.339184,-9
2021-09-23 21:03:21.339190,-9
2021-09-23 21:03:21.339195,12
2021-09-23 21:03:21.339201,21
2021-09-23 21:03:21.339207,12
2021-09-23 21:03:21.339213,2
2021-09-23 21:03:21.339219,7
2021-09-23 21:03:21.339224,28
2021-09-23 21:03:21.339230,40
2021-09-23 21:03:21.339236,40
2021-09-23 21:03:21.339242,38
2021-09-23 21:03:21.339247,38
2021-09-23 21:03:21.339253,45
2021-09-23 21:03:21.339259,48
2021-09-23 21:03:21.339265,36
2021-09-23 21:03:21.339271,24
2021-09-23 21:03:21.339277,14
2021-09-23 21:03:21.339282,4
2021-09-23 21:03:21.339288,-24
2021-09-23 21:03:21.339294,-50
2021-09-23 21:03:21.339299,-57
2021-09-23 21:03:21.339305,-64
2021-09-23 21:03:21.339311,-76
2021-09-23 21:03:21.339317,-81
2021-09-23 21:03:21.339323,-81
2021-09-23 21:03:21.339328,-79
2021-09-23 21:03:21.608428,-76
2021-09-23 21:03:21.608448,-76
2021-09-23 21:03:21.608455,-79
2021-09-23 21:03:21.608461,-72
2021-09-23 21:03:21.608467,-57
2021-09-23 21:03:21.608473,-50
2021-09-23 21:03:21.608479,-52
2021-09-23 21:03:21.608485,-45
2021-09-23 21:03:21.608491,-38
2021-09-23 21:03:21.608496,-38
2021-09-23 21:03:21.608502,-36
2021-09-23 21:03:21.608508,-28
2021-09-23 21:03:21.608514,-31
2021-09-23 21:03:21.608519,-38
2021-09-23 21:03:21.608525,-45
2021-09-23 21:03:21.608531,-45
2021-09-23 21:03:21.608537,-57
2021-09-23 21:03:21.608542,-69
2021-09-23 21:03:21.608548,-60
2021-09-23 21:03:21.608554,-57
2021-09-23 21:03:21.608559,-64
2021-09-23 21:03:21.608565,-62
2021-09-23 21:03:21.608571,-52
2021-09-23 21:03:21.608576,-55
2021-09-23 21:03:21.608582,-60
2021-09-23 21:03:21.608588,-52
2021-09-23 21:03:21.608594,-43
2021-09-23 21:03:21.608599,-36
2021-09-23 21:03:21.608605,-26
2021-09-23 21:03:21.608611,-14
2021-09-23 21:03:21.744128,-21
2021-09-23 21:03:21.744149,-43
2021-09-23 21:03:21.744156,-43
2021-09-23 21:03:21.744162,-33
2021-09-23 21:03:21.744167,-31
2021-09-23 21:03:21.744177,-31
2021-09-23 21:03:21.744183,-14
2021-09-23 21:03:21.744189,38
2021-09-23 21:03:21.744194,218
2021-09-23 21:03:21.744200,598
2021-09-23 21:03:21.744206,921
2021-09-23 21:03:21.744212,490
2021-09-23 21:03:21.744217,-420
2021-09-23 21:03:21.744223,-505
2021-09-23 21:03:21.744229,-33
2021-09-23 21:03:21.744235,-43
2021-09-23 21:03:21.744241,-177
2021-09-23 21:03:21.744247,-64
2021-09-23 21:03:21.744253,-33
2021-09-23 21:03:21.744258,-91
2021-09-23 21:03:21.744264,-52
2021-09-23 21:03:21.744269,-19
2021-09-23 21:03:21.744275,-40
2021-09-23 21:03:21.744281,-33
2021-09-23 21:03:21.744286,-7
2021-09-23 21:03:21.744292,-12
2021-09-23 21:03:21.744298,-7
2021-09-23 21:03:21.744304,12
2021-09-23 21:03:21.744309,21
2021-09-23 21:03:21.744315,24
2021-09-23 21:03:21.969138,33
2021-09-23 21:03:21.969157,38
2021-09-23 21:03:21.969165,45
2021-09-23 21:03:21.969171,52
2021-09-23 21:03:21.969176,52
2021-09-23 21:03:21.969182,52
2021-09-23 21:03:21.969188,48
2021-09-23 21:03:21.969194,38
2021-09-23 21:03:21.969200,36
2021-09-23 21:03:21.969206,31
2021-09-23 21:03:21.969212,19
2021-09-23 21:03:21.969217,4
2021-09-23 21:03:21.969223,-14
2021-09-23 21:03:21.969229,-28
2021-09-23 21:03:21.969235,-43
2021-09-23 21:03:21.969241,-67
2021-09-23 21:03:21.969247,-79
2021-09-23 21:03:21.969253,-72
2021-09-23 21:03:21.969258,-69
2021-09-23 21:03:21.969264,-72
2021-09-23 21:03:21.969270,-72
2021-09-23 21:03:21.969276,-79
2021-09-23 21:03:21.969281,-76
2021-09-23 21:03:21.969287,-62
2021-09-23 21:03:21.969293,-57
2021-09-23 21:03:21.969299,-62
2021-09-23 21:03:21.969305,-43
2021-09-23 21:03:21.969311,-31
2021-09-23 21:03:21.969316,-40
2021-09-23 21:03:21.969322,-40
2021-09-23 21:03:22.194248,-31
2021-09-23 21:03:22.194268,-24
2021-09-23 21:03:22.194276,-14
2021-09-23 21:03:22.194282,-14
2021-09-23 21:03:22.194288,-24
2021-09-23 21:03:22.194294,-24
2021-09-23 21:03:22.194300,-31
2021-09-23 21:03:22.194306,-33
2021-09-23 21:03:22.194312,-28
2021-09-23 21:03:22.194317,-24
2021-09-23 21:03:22.194323,-21
2021-09-23 21:03:22.194329,-26
2021-09-23 21:03:22.194335,-36
2021-09-23 21:03:22.194341,-40
2021-09-23 21:03:22.194347,-38
2021-09-23 21:03:22.194352,-36
2021-09-23 21:03:22.194358,-28
2021-09-23 21:03:22.194364,-24
2021-09-23 21:03:22.194370,-33
2021-09-23 21:03:22.194375,-38
2021-09-23 21:03:22.194381,-24
2021-09-23 21:03:22.194387,-2
2021-09-23 21:03:22.194393,2
2021-09-23 21:03:22.194399,-4
2021-09-23 21:03:22.194404,-14
2021-09-23 21:03:22.194410,-28
2021-09-23 21:03:22.194416,-38
2021-09-23 21:03:22.194421,-28
2021-09-23 21:03:22.194427,-19
2021-09-23 21:03:22.194433,-9
2021-09-23 21:03:22.419136,64
2021-09-23 21:03:22.419156,293
2021-09-23 21:03:22.419163,685
2021-09-23 21:03:22.419170,937
2021-09-23 21:03:22.419176,416
2021-09-23 21:03:22.419182,-492
2021-09-23 21:03:22.419187,-502
2021-09-23 21:03:22.419193,-12
2021-09-23 21:03:22.419199,-43
2021-09-23 21:03:22.419205,-158
2021-09-23 21:03:22.419211,-36
2021-09-23 21:03:22.419217,-21
2021-09-23 21:03:22.419223,-81
2021-09-23 21:03:22.419228,-40
2021-09-23 21:03:22.419234,-12
2021-09-23 21:03:22.419240,-36
2021-09-23 21:03:22.419246,-19
2021-09-23 21:03:22.419252,21
2021-09-23 21:03:22.419257,26
2021-09-23 21:03:22.419263,19
2021-09-23 21:03:22.419269,24
2021-09-23 21:03:22.419275,31
2021-09-23 21:03:22.419281,28
2021-09-23 21:03:22.419287,28
2021-09-23 21:03:22.419292,45
2021-09-23 21:03:22.419298,55
2021-09-23 21:03:22.419304,48
2021-09-23 21:03:22.419309,40
2021-09-23 21:03:22.419315,33
2021-09-23 21:03:22.419321,28
2021-09-23 21:03:22.644162,26
2021-09-23 21:03:22.644185,14
2021-09-23 21:03:22.644193,2
2021-09-23 21:03:22.644199,-2
2021-09-23 21:03:22.644205,-19
2021-09-23 21:03:22.644210,-36
2021-09-23 21:03:22.644216,-36
2021-09-23 21:03:22.644222,-40
2021-09-23 21:03:22.644227,-52
2021-09-23 21:03:22.644233,-64
2021-09-23 21:03:22.644239,-72
2021-09-23 21:03:22.644245,-62
2021-09-23 21:03:22.644250,-50
2021-09-23 21:03:22.644256,-60
2021-09-23 21:03:22.644262,-64
2021-09-23 21:03:22.644267,-45
2021-09-23 21:03:22.644273,-38
2021-09-23 21:03:22.644279,-43
2021-09-23 21:03:22.644284,-36
2021-09-23 21:03:22.644290,-21
2021-09-23 21:03:22.644296,-16
2021-09-23 21:03:22.644302,-16
2021-09-23 21:03:22.644308,-21
2021-09-23 21:03:22.644313,-28
2021-09-23 21:03:22.644319,-24
2021-09-23 21:03:22.644325,-12
2021-09-23 21:03:22.644330,-14
2021-09-23 21:03:22.644336,-26
2021-09-23 21:03:22.644342,-24
2021-09-23 21:03:22.644348,-7
2021-09-23 21:03:22.914153,-16
2021-09-23 21:03:22.914174,-36
2021-09-23 21:03:22.914181,-31
2021-09-23 21:03:22.914188,-26
2021-09-23 21:03:22.914194,-36
2021-09-23 21:03:22.914199,-33
2021-09-23 21:03:22.914205,-28
2021-09-23 21:03:22.914211,-28
2021-09-23 21:03:22.914217,-28
2021-09-23 21:03:22.914223,-45
2021-09-23 21:03:22.914228,-50
2021-09-23 21:03:22.914234,-24
2021-09-23 21:03:22.914240,2
2021-09-23 21:03:22.914246,9
2021-09-23 21:03:22.914252,0
2021-09-23 21:03:22.914257,-24
2021-09-23 21:03:22.914263,-40
2021-09-23 21:03:22.914269,-33
2021-09-23 21:03:22.914274,-24
2021-09-23 21:03:22.914280,-21
2021-09-23 21:03:22.914286,-21
2021-09-23 21:03:22.914291,40
2021-09-23 21:03:22.914297,262
2021-09-23 21:03:22.914303,646
2021-09-23 21:03:22.914308,957
2021-09-23 21:03:22.914314,541
2021-09-23 21:03:22.914320,-492
2021-09-23 21:03:22.914326,-702
2021-09-23 21:03:22.914331,-108
2021-09-23 21:03:22.914337,-12
2021-09-23 21:03:23.183663,-175
2021-09-23 21:03:23.183683,-52
2021-09-23 21:03:23.183690,9
2021-09-23 21:03:23.183696,-67
2021-09-23 21:03:23.183703,-62
2021-09-23 21:03:23.183709,-16
2021-09-23 21:03:23.183715,-12
2021-09-23 21:03:23.183721,-9
2021-09-23 21:03:23.183727,-2
2021-09-23 21:03:23.183733,-2
2021-09-23 21:03:23.183738,14
2021-09-23 21:03:23.183744,36
2021-09-23 21:03:23.183750,45
2021-09-23 21:03:23.183756,45
2021-09-23 21:03:23.183762,43
2021-09-23 21:03:23.183768,48
2021-09-23 21:03:23.183775,62
2021-09-23 21:03:23.183782,69
2021-09-23 21:03:23.183787,69
2021-09-23 21:03:23.183794,69
2021-09-23 21:03:23.183801,64
2021-09-23 21:03:23.183807,50
2021-09-23 21:03:23.183813,31
2021-09-23 21:03:23.183819,12
2021-09-23 21:03:23.183825,4
2021-09-23 21:03:23.183831,7
2021-09-23 21:03:23.183836,-9
2021-09-23 21:03:23.183843,-36
2021-09-23 21:03:23.183849,-43
2021-09-23 21:03:23.183855,-48
2021-09-23 21:03:23.364185,-60
2021-09-23 21:03:23.364205,-64
2021-09-23 21:03:23.364212,-62
2021-09-23 21:03:23.364218,-62
2021-09-23 21:03:23.364224,-52
2021-09-23 21:03:23.364230,-40
2021-09-23 21:03:23.364236,-36
2021-09-23 21:03:23.364241,-33
2021-09-23 21:03:23.364247,-38
2021-09-23 21:03:23.364253,-45
2021-09-23 21:03:23.364258,-33
2021-09-23 21:03:23.364264,-9
2021-09-23 21:03:23.364270,-7
2021-09-23 21:03:23.364276,-28
2021-09-23 21:03:23.364282,-38
2021-09-23 21:03:23.364287,-26
2021-09-23 21:03:23.364293,-21
2021-09-23 21:03:23.364299,-33
2021-09-23 21:03:23.364305,-43
2021-09-23 21:03:23.364311,-40
2021-09-23 21:03:23.364316,-40
2021-09-23 21:03:23.364322,-48
2021-09-23 21:03:23.364328,-57
2021-09-23 21:03:23.364334,-48
2021-09-23 21:03:23.364340,-31
2021-09-23 21:03:23.364345,-26
2021-09-23 21:03:23.364351,-21
2021-09-23 21:03:23.364357,-12
2021-09-23 21:03:23.364362,-19
2021-09-23 21:03:23.364368,-33
2021-09-23 21:03:23.632804,-45
2021-09-23 21:03:23.632825,-45
2021-09-23 21:03:23.632832,-38
2021-09-23 21:03:23.632838,-40
2021-09-23 21:03:23.632844,-38
2021-09-23 21:03:23.632850,-24
2021-09-23 21:03:23.632855,16
2021-09-23 21:03:23.632861,185
2021-09-23 21:03:23.632867,560
2021-09-23 21:03:23.632873,935
2021-09-23 21:03:23.632879,704
2021-09-23 21:03:23.632888,-331
2021-09-23 21:03:23.632894,-882
2021-09-23 21:03:23.632900,-334
2021-09-23 21:03:23.632906,-7
2021-09-23 21:03:23.632912,-187
2021-09-23 21:03:23.632917,-129
2021-09-23 21:03:23.632923,-12
2021-09-23 21:03:23.632929,-72
2021-09-23 21:03:23.632935,-69
2021-09-23 21:03:23.632941,-4
2021-09-23 21:03:23.632947,-12
2021-09-23 21:03:23.632953,-28
2021-09-23 21:03:23.632958,-12
2021-09-23 21:03:23.632964,12
2021-09-23 21:03:23.632970,14
2021-09-23 21:03:23.632976,9
2021-09-23 21:03:23.632981,26
2021-09-23 21:03:23.632987,57
2021-09-23 21:03:23.632993,76
2021-09-23 21:03:23.814161,69
2021-09-23 21:03:23.814181,62
2021-09-23 21:03:23.814189,76
2021-09-23 21:03:23.814195,93
2021-09-23 21:03:23.814201,103
2021-09-23 21:03:23.814207,96
2021-09-23 21:03:23.814212,86
2021-09-23 21:03:23.814218,67
2021-09-23 21:03:23.814224,36
2021-09-23 21:03:23.814230,16
2021-09-23 21:03:23.814236,9
2021-09-23 21:03:23.814242,-4
2021-09-23 21:03:23.814248,-33
2021-09-23 21:03:23.814253,-67
2021-09-23 21:03:23.814259,-88
2021-09-23 21:03:23.814265,-103
2021-09-23 21:03:23.814271,-105
2021-09-23 21:03:23.814277,-101
2021-09-23 21:03:23.814282,-108
2021-09-23 21:03:23.814288,-105
2021-09-23 21:03:23.814294,-84
2021-09-23 21:03:23.814300,-64
2021-09-23 21:03:23.814305,-57
2021-09-23 21:03:23.814311,-57
2021-09-23 21:03:23.814317,-52
2021-09-23 21:03:23.814322,-38
2021-09-23 21:03:23.814328,-26
2021-09-23 21:03:23.814334,-26
2021-09-23 21:03:23.814339,-26
2021-09-23 21:03:23.814345,-19
2021-09-23 21:03:24.083456,-19
2021-09-23 21:03:24.083475,-26
2021-09-23 21:03:24.083482,-38
2021-09-23 21:03:24.083488,-45
2021-09-23 21:03:24.083494,-36
2021-09-23 21:03:24.083500,-36
2021-09-23 21:03:24.083506,-67
2021-09-23 21:03:24.083512,-79
2021-09-23 21:03:24.083518,-43
2021-09-23 21:03:24.083523,-16
2021-09-23 21:03:24.083529,-24
2021-09-23 21:03:24.083535,-40
2021-09-23 21:03:24.083541,-55
2021-09-23 21:03:24.083546,-64
2021-09-23 21:03:24.083552,-69
2021-09-23 21:03:24.083558,-72
2021-09-23 21:03:24.083564,-64
2021-09-23 21:03:24.083570,-64
2021-09-23 21:03:24.083576,-43
2021-09-23 21:03:24.083581,81
2021-09-23 21:03:24.083587,365
2021-09-23 21:03:24.083593,747
2021-09-23 21:03:24.083599,894
2021-09-23 21:03:24.083605,221
2021-09-23 21:03:24.083610,-682
2021-09-23 21:03:24.083616,-543
2021-09-23 21:03:24.083622,-31
2021-09-23 21:03:24.083628,-101
2021-09-23 21:03:24.083633,-168
2021-09-23 21:03:24.083639,-28
2021-09-23 21:03:24.264100,-38
2021-09-23 21:03:24.264118,-88
2021-09-23 21:03:24.264125,-50
2021-09-23 21:03:24.264131,-38
2021-09-23 21:03:24.264137,-57
2021-09-23 21:03:24.264143,-45
2021-09-23 21:03:24.264149,-24
2021-09-23 21:03:24.264155,-19
2021-09-23 21:03:24.264160,-12
2021-09-23 21:03:24.264166,0
2021-09-23 21:03:24.264172,19
2021-09-23 21:03:24.264178,28
2021-09-23 21:03:24.264184,28
2021-09-23 21:03:24.264189,33
2021-09-23 21:03:24.264195,33
2021-09-23 21:03:24.264201,33
2021-09-23 21:03:24.264207,43
2021-09-23 21:03:24.264213,43
2021-09-23 21:03:24.264219,31
2021-09-23 21:03:24.264224,26
2021-09-23 21:03:24.264230,19
2021-09-23 21:03:24.264236,7
2021-09-23 21:03:24.264242,0
2021-09-23 21:03:24.264248,-16
2021-09-23 21:03:24.264253,-43
2021-09-23 21:03:24.264259,-48
2021-09-23 21:03:24.264265,-52
2021-09-23 21:03:24.264271,-74
2021-09-23 21:03:24.264277,-86
2021-09-23 21:03:24.264283,-84
2021-09-23 21:03:24.489187,-74
2021-09-23 21:03:24.489208,-74
2021-09-23 21:03:24.489215,-74
2021-09-23 21:03:24.489221,-64
2021-09-23 21:03:24.489227,-62
2021-09-23 21:03:24.489233,-67
2021-09-23 21:03:24.489239,-50
2021-09-23 21:03:24.489245,-33
2021-09-23 21:03:24.489250,-31
2021-09-23 21:03:24.489256,-31
2021-09-23 21:03:24.489262,-24
2021-09-23 21:03:24.489268,-24
2021-09-23 21:03:24.489273,-31
2021-09-23 21:03:24.489279,-33
2021-09-23 21:03:24.489285,-28
2021-09-23 21:03:24.489291,-24
2021-09-23 21:03:24.489297,-28
2021-09-23 21:03:24.489302,-40
2021-09-23 21:03:24.489308,-45
2021-09-23 21:03:24.489314,-43
2021-09-23 21:03:24.489319,-40
2021-09-23 21:03:24.489325,-43
2021-09-23 21:03:24.489330,-36
2021-09-23 21:03:24.489336,-16
2021-09-23 21:03:24.489341,-16
2021-09-23 21:03:24.489351,-31
2021-09-23 21:03:24.489357,-45
2021-09-23 21:03:24.489362,-43
2021-09-23 21:03:24.489368,-38
2021-09-23 21:03:24.489374,-40
2021-09-23 21:03:24.804174,-28
2021-09-23 21:03:24.804194,-2
2021-09-23 21:03:24.804201,113
2021-09-23 21:03:24.804207,442
2021-09-23 21:03:24.804213,935
2021-09-23 21:03:24.804219,1070
2021-09-23 21:03:24.804225,206
2021-09-23 21:03:24.804231,-709
2021-09-23 21:03:24.804245,-430
2021-09-23 21:03:24.804251,16
2021-09-23 21:03:24.804257,-153
2021-09-23 21:03:24.804262,-199
2021-09-23 21:03:24.804268,-50
2021-09-23 21:03:24.804274,-69
2021-09-23 21:03:24.804280,-108
2021-09-23 21:03:24.804286,-64
2021-09-23 21:03:24.804291,-55
2021-09-23 21:03:24.804297,-55
2021-09-23 21:03:24.804303,-28
2021-09-23 21:03:24.804308,-21
2021-09-23 21:03:24.804314,-36
2021-09-23 21:03:24.804320,-24
2021-09-23 21:03:24.804326,4
2021-09-23 21:03:24.804331,16
2021-09-23 21:03:24.804337,26
2021-09-23 21:03:24.804343,38
2021-09-23 21:03:24.804348,40
2021-09-23 21:03:24.804354,33
2021-09-23 21:03:24.804360,43
2021-09-23 21:03:24.804366,55
2021-09-23 21:03:24.984193,57
2021-09-23 21:03:24.984215,50
2021-09-23 21:03:24.984222,33
2021-09-23 21:03:24.984228,12
2021-09-23 21:03:24.984234,7
2021-09-23 21:03:24.984240,2
2021-09-23 21:03:24.984246,-14
2021-09-23 21:03:24.984252,-28
2021-09-23 21:03:24.984257,-48
2021-09-23 21:03:24.984263,-74
2021-09-23 21:03:24.984269,-93
2021-09-23 21:03:24.984274,-96
2021-09-23 21:03:24.984280,-96
2021-09-23 21:03:24.984285,-98
2021-09-23 21:03:24.984291,-103
2021-09-23 21:03:24.984297,-98
2021-09-23 21:03:24.984303,-76
2021-09-23 21:03:24.984308,-62
2021-09-23 21:03:24.984314,-57
2021-09-23 21:03:24.984320,-50
2021-09-23 21:03:24.984325,-50
2021-09-23 21:03:24.984331,-62
2021-09-23 21:03:24.984336,-55
2021-09-23 21:03:24.984342,-38
2021-09-23 21:03:24.984348,-40
2021-09-23 21:03:24.984353,-48
2021-09-23 21:03:24.984359,-45
2021-09-23 21:03:24.984365,-45
2021-09-23 21:03:24.984370,-52
2021-09-23 21:03:24.984376,-55
2021-09-23 21:03:25.209260,-62
2021-09-23 21:03:25.209281,-60
2021-09-23 21:03:25.209288,-36
2021-09-23 21:03:25.209294,-19
2021-09-23 21:03:25.209301,-21
2021-09-23 21:03:25.209307,-19
2021-09-23 21:03:25.209313,-26
2021-09-23 21:03:25.209319,-52
2021-09-23 21:03:25.209325,-57
2021-09-23 21:03:25.209331,-43
2021-09-23 21:03:25.209336,-38
2021-09-23 21:03:25.209342,-33
2021-09-23 21:03:25.209348,-12
2021-09-23 21:03:25.209354,74
2021-09-23 21:03:25.209360,348
2021-09-23 21:03:25.209368,829
2021-09-23 21:03:25.209375,1113
2021-09-23 21:03:25.209381,425
2021-09-23 21:03:25.209387,-668
2021-09-23 21:03:25.209393,-613
2021-09-23 21:03:25.209399,-28
2021-09-23 21:03:25.209405,-91
2021-09-23 21:03:25.209411,-209
2021-09-23 21:03:25.209417,-55
2021-09-23 21:03:25.209423,-38
2021-09-23 21:03:25.209429,-88
2021-09-23 21:03:25.209434,-40
2021-09-23 21:03:25.209440,-16
2021-09-23 21:03:25.209446,-38
2021-09-23 21:03:25.209452,-19
2021-09-23 21:03:25.479241,7
2021-09-23 21:03:25.479262,9
2021-09-23 21:03:25.479269,16
2021-09-23 21:03:25.479275,28
2021-09-23 21:03:25.479281,38
2021-09-23 21:03:25.479287,48
2021-09-23 21:03:25.479293,50
2021-09-23 21:03:25.479299,50
2021-09-23 21:03:25.479305,50
2021-09-23 21:03:25.479311,64
2021-09-23 21:03:25.479316,74
2021-09-23 21:03:25.479322,67
2021-09-23 21:03:25.479328,62
2021-09-23 21:03:25.479334,52
2021-09-23 21:03:25.479339,24
2021-09-23 21:03:25.479345,4
2021-09-23 21:03:25.479351,-2
2021-09-23 21:03:25.479357,-21
2021-09-23 21:03:25.479362,-50
2021-09-23 21:03:25.479368,-76
2021-09-23 21:03:25.479374,-93
2021-09-23 21:03:25.479379,-103
2021-09-23 21:03:25.479385,-103
2021-09-23 21:03:25.479391,-113
2021-09-23 21:03:25.479397,-127
2021-09-23 21:03:25.479402,-129
2021-09-23 21:03:25.479408,-115
2021-09-23 21:03:25.479414,-96
2021-09-23 21:03:25.479420,-79
2021-09-23 21:03:25.479426,-69
2021-09-23 21:03:25.747841,-64
2021-09-23 21:03:25.747862,-52
2021-09-23 21:03:25.747869,-48
2021-09-23 21:03:25.747875,-57
2021-09-23 21:03:25.747881,-52
2021-09-23 21:03:25.747887,-36
2021-09-23 21:03:25.747893,-40
2021-09-23 21:03:25.747898,-62
2021-09-23 21:03:25.747904,-64
2021-09-23 21:03:25.747910,-57
2021-09-23 21:03:25.747916,-55
2021-09-23 21:03:25.747922,-52
2021-09-23 21:03:25.747927,-43
2021-09-23 21:03:25.747933,-28
2021-09-23 21:03:25.747939,-14
2021-09-23 21:03:25.747945,-19
2021-09-23 21:03:25.747950,-52
2021-09-23 21:03:25.747956,-72
2021-09-23 21:03:25.747962,-72
2021-09-23 21:03:25.747967,-72
2021-09-23 21:03:25.747973,-55
2021-09-23 21:03:25.747979,-28
2021-09-23 21:03:25.747985,-21
2021-09-23 21:03:25.747990,45
2021-09-23 21:03:25.747996,300
2021-09-23 21:03:25.748002,755
2021-09-23 21:03:25.748007,1074
2021-09-23 21:03:25.748013,497
2021-09-23 21:03:25.748019,-589
2021-09-23 21:03:25.748025,-630
2021-09-23 21:03:25.929195,-38
2021-09-23 21:03:25.929216,-60
2021-09-23 21:03:25.929223,-197
2021-09-23 21:03:25.929229,-52
2021-09-23 21:03:25.929234,-21
2021-09-23 21:03:25.929240,-76
2021-09-23 21:03:25.929246,-40
2021-09-23 21:03:25.929252,-14
2021-09-23 21:03:25.929258,-38
2021-09-23 21:03:25.929264,-28
2021-09-23 21:03:25.929269,-4
2021-09-23 21:03:25.929273,-7
2021-09-23 21:03:25.929278,-12
2021-09-23 21:03:25.929283,9
2021-09-23 21:03:25.929288,36
2021-09-23 21:03:25.929293,43
2021-09-23 21:03:25.929298,52
2021-09-23 21:03:25.929303,67
2021-09-23 21:03:25.929309,64
2021-09-23 21:03:25.929314,69
2021-09-23 21:03:25.929320,93
2021-09-23 21:03:25.929326,101
2021-09-23 21:03:25.929332,88
2021-09-23 21:03:25.929346,79
2021-09-23 21:03:25.929351,69
2021-09-23 21:03:25.929356,52
2021-09-23 21:03:25.929362,24
2021-09-23 21:03:25.929367,-9
2021-09-23 21:03:25.929373,-38
2021-09-23 21:03:25.929378,-74
2021-09-23 21:03:26.109177,-103
2021-09-23 21:03:26.109198,-103
2021-09-23 21:03:26.109205,-108
2021-09-23 21:03:26.109211,-134
2021-09-23 21:03:26.109217,-132
2021-09-23 21:03:26.109223,-115
2021-09-23 21:03:26.109229,-125
2021-09-23 21:03:26.109235,-134
2021-09-23 21:03:26.109241,-117
2021-09-23 21:03:26.109247,-108
2021-09-23 21:03:26.109253,-110
2021-09-23 21:03:26.109259,-101
2021-09-23 21:03:26.109264,-81
2021-09-23 21:03:26.109270,-67
2021-09-23 21:03:26.109276,-50
2021-09-23 21:03:26.109282,-40
2021-09-23 21:03:26.109288,-52
2021-09-23 21:03:26.109294,-67
2021-09-23 21:03:26.109300,-67
2021-09-23 21:03:26.109305,-69
2021-09-23 21:03:26.109311,-72
2021-09-23 21:03:26.109317,-60
2021-09-23 21:03:26.109323,-38
2021-09-23 21:03:26.109328,-38
2021-09-23 21:03:26.109334,-45
2021-09-23 21:03:26.109340,-40
2021-09-23 21:03:26.109346,-55
2021-09-23 21:03:26.109352,-79
2021-09-23 21:03:26.109358,-74
2021-09-23 21:03:26.109364,-55
2021-09-23 21:03:26.334187,-45
2021-09-23 21:03:26.334207,-33
2021-09-23 21:03:26.334214,12
2021-09-23 21:03:26.334220,194
2021-09-23 21:03:26.334226,584
2021-09-23 21:03:26.334232,985
2021-09-23 21:03:26.334238,719
2021-09-23 21:03:26.334244,-322
2021-09-23 21:03:26.334250,-733
2021-09-23 21:03:26.334256,-192
2021-09-23 21:03:26.334261,-4
2021-09-23 21:03:26.334267,-187
2021-09-23 21:03:26.334273,-105
2021-09-23 21:03:26.334278,-26
2021-09-23 21:03:26.334284,-84
2021-09-23 21:03:26.334290,-60
2021-09-23 21:03:26.334296,-16
2021-09-23 21:03:26.334301,-38
2021-09-23 21:03:26.334307,-28
2021-09-23 21:03:26.334312,4
2021-09-23 21:03:26.334318,7
2021-09-23 21:03:26.334323,16
2021-09-23 21:03:26.334329,38
2021-09-23 21:03:26.334335,40
2021-09-23 21:03:26.334340,48
2021-09-23 21:03:26.334346,64
2021-09-23 21:03:26.334352,76
2021-09-23 21:03:26.334357,91
2021-09-23 21:03:26.334363,105
2021-09-23 21:03:26.334369,115
2021-09-23 21:03:26.559238,129
2021-09-23 21:03:26.559258,129
2021-09-23 21:03:26.559266,113
2021-09-23 21:03:26.559272,101
2021-09-23 21:03:26.559278,81
2021-09-23 21:03:26.559284,36
2021-09-23 21:03:26.559290,7
2021-09-23 21:03:26.559296,-7
2021-09-23 21:03:26.559302,-38
2021-09-23 21:03:26.559307,-69
2021-09-23 21:03:26.559313,-88
2021-09-23 21:03:26.559319,-108
2021-09-23 21:03:26.559325,-120
2021-09-23 21:03:26.559331,-120
2021-09-23 21:03:26.559337,-129
2021-09-23 21:03:26.559342,-146
2021-09-23 21:03:26.559348,-134
2021-09-23 21:03:26.559354,-108
2021-09-23 21:03:26.559360,-98
2021-09-23 21:03:26.559366,-101
2021-09-23 21:03:26.559371,-96
2021-09-23 21:03:26.559377,-91
2021-09-23 21:03:26.559383,-79
2021-09-23 21:03:26.559389,-64
2021-09-23 21:03:26.559395,-67
2021-09-23 21:03:26.559401,-62
2021-09-23 21:03:26.559407,-52
2021-09-23 21:03:26.559412,-57
2021-09-23 21:03:26.559418,-64
2021-09-23 21:03:26.559424,-57
2021-09-23 21:03:26.829712,-52
2021-09-23 21:03:26.829732,-52
2021-09-23 21:03:26.829739,-48
2021-09-23 21:03:26.829745,-48
2021-09-23 21:03:26.829751,-50
2021-09-23 21:03:26.829757,-40
2021-09-23 21:03:26.829763,-38
2021-09-23 21:03:26.829769,-60
2021-09-23 21:03:26.829774,-72
2021-09-23 21:03:26.829780,-62
2021-09-23 21:03:26.829786,-45
2021-09-23 21:03:26.829792,-38
2021-09-23 21:03:26.829797,-7
2021-09-23 21:03:26.829803,146
2021-09-23 21:03:26.829809,492
2021-09-23 21:03:26.829815,952
2021-09-23 21:03:26.829821,954
2021-09-23 21:03:26.829827,28
2021-09-23 21:03:26.829833,-673
2021-09-23 21:03:26.829839,-283
2021-09-23 21:03:26.829844,28
2021-09-23 21:03:26.829850,-173
2021-09-23 21:03:26.829856,-161
2021-09-23 21:03:26.829862,-26
2021-09-23 21:03:26.829867,-62
2021-09-23 21:03:26.829873,-84
2021-09-23 21:03:26.829879,-38
2021-09-23 21:03:26.829884,-36
2021-09-23 21:03:26.829890,-38
2021-09-23 21:03:26.829896,-14
2021-09-23 21:03:27.054311,-4
2021-09-23 21:03:27.054332,0
2021-09-23 21:03:27.054340,9
2021-09-23 21:03:27.054346,21
2021-09-23 21:03:27.054352,43
2021-09-23 21:03:27.054358,55
2021-09-23 21:03:27.054364,45
2021-09-23 21:03:27.054370,50
2021-09-23 21:03:27.054376,74
2021-09-23 21:03:27.054381,96
2021-09-23 21:03:27.054387,103
2021-09-23 21:03:27.054393,96
2021-09-23 21:03:27.054399,103
2021-09-23 21:03:27.054405,110
2021-09-23 21:03:27.054411,84
2021-09-23 21:03:27.054417,52
2021-09-23 21:03:27.054423,36
2021-09-23 21:03:27.054429,12
2021-09-23 21:03:27.054435,-28
2021-09-23 21:03:27.054441,-64
2021-09-23 21:03:27.054446,-98
2021-09-23 21:03:27.054452,-122
2021-09-23 21:03:27.054458,-120
2021-09-23 21:03:27.054464,-98
2021-09-23 21:03:27.054469,-91
2021-09-23 21:03:27.054475,-108
2021-09-23 21:03:27.054481,-117
2021-09-23 21:03:27.054487,-110
2021-09-23 21:03:27.054492,-105
2021-09-23 21:03:27.054498,-108
2021-09-23 21:03:27.279222,-98
2021-09-23 21:03:27.279242,-81
2021-09-23 21:03:27.279249,-72
2021-09-23 21:03:27.279256,-74
2021-09-23 21:03:27.279261,-74
2021-09-23 21:03:27.279267,-69
2021-09-23 21:03:27.279273,-74
2021-09-23 21:03:27.279279,-79
2021-09-23 21:03:27.279285,-67
2021-09-23 21:03:27.279291,-64
2021-09-23 21:03:27.279297,-67
2021-09-23 21:03:27.279302,-57
2021-09-23 21:03:27.279308,-69
2021-09-23 21:03:27.279314,-81
2021-09-23 21:03:27.279320,-57
2021-09-23 21:03:27.279326,-43
2021-09-23 21:03:27.279331,-55
2021-09-23 21:03:27.279337,-36
2021-09-23 21:03:27.279347,-16
2021-09-23 21:03:27.279354,-55
2021-09-23 21:03:27.279360,-86
2021-09-23 21:03:27.279365,-64
2021-09-23 21:03:27.279371,-43
2021-09-23 21:03:27.279377,-40
2021-09-23 21:03:27.279383,-26
2021-09-23 21:03:27.279389,21
2021-09-23 21:03:27.279395,202
2021-09-23 21:03:27.279400,613
2021-09-23 21:03:27.279406,1060
2021-09-23 21:03:27.279415,810
2021-09-23 21:03:27.504281,-202
2021-09-23 21:03:27.504301,-589
2021-09-23 21:03:27.504309,-125
2021-09-23 21:03:27.504315,-19
2021-09-23 21:03:27.504321,-206
2021-09-23 21:03:27.504326,-115
2021-09-23 21:03:27.504332,-33
2021-09-23 21:03:27.504338,-91
2021-09-23 21:03:27.504344,-76
2021-09-23 21:03:27.504350,-36
2021-09-23 21:03:27.504356,-43
2021-09-23 21:03:27.504362,-33
2021-09-23 21:03:27.504367,-24
2021-09-23 21:03:27.504373,-28
2021-09-23 21:03:27.504379,-16
2021-09-23 21:03:27.504385,0
2021-09-23 21:03:27.504391,9
2021-09-23 21:03:27.504397,28
2021-09-23 21:03:27.504403,36
2021-09-23 21:03:27.504408,45
2021-09-23 21:03:27.504414,72
2021-09-23 21:03:27.504420,91
2021-09-23 21:03:27.504426,91
2021-09-23 21:03:27.504431,103
2021-09-23 21:03:27.504437,117
2021-09-23 21:03:27.504443,110
2021-09-23 21:03:27.504449,93
2021-09-23 21:03:27.504454,74
2021-09-23 21:03:27.504460,52
2021-09-23 21:03:27.504466,31
2021-09-23 21:03:27.818500,0
2021-09-23 21:03:27.818520,-48
2021-09-23 21:03:27.818527,-86
2021-09-23 21:03:27.818533,-103
2021-09-23 21:03:27.818539,-108
2021-09-23 21:03:27.818544,-108
2021-09-23 21:03:27.818550,-115
2021-09-23 21:03:27.818556,-122
2021-09-23 21:03:27.818562,-122
2021-09-23 21:03:27.818568,-122
2021-09-23 21:03:27.818574,-122
2021-09-23 21:03:27.818580,-117
2021-09-23 21:03:27.818586,-110
2021-09-23 21:03:27.818592,-101
2021-09-23 21:03:27.818598,-93
2021-09-23 21:03:27.818604,-98
2021-09-23 21:03:27.818610,-98
2021-09-23 21:03:27.818616,-88
2021-09-23 21:03:27.818622,-84
2021-09-23 21:03:27.818627,-84
2021-09-23 21:03:27.818633,-69
2021-09-23 21:03:27.818639,-62
2021-09-23 21:03:27.818645,-60
2021-09-23 21:03:27.818650,-60
2021-09-23 21:03:27.818656,-64
2021-09-23 21:03:27.818662,-62
2021-09-23 21:03:27.818668,-48
2021-09-23 21:03:27.818674,-45
2021-09-23 21:03:27.818679,-55
2021-09-23 21:03:27.818685,-55
2021-09-23 21:03:27.954236,-50
2021-09-23 21:03:27.954258,-43
2021-09-23 21:03:27.954265,-24
2021-09-23 21:03:27.954271,-24
2021-09-23 21:03:27.954277,-28
2021-09-23 21:03:27.954283,-26
2021-09-23 21:03:27.954288,-38
2021-09-23 21:03:27.954294,-50
2021-09-23 21:03:27.954300,-38
2021-09-23 21:03:27.954306,-21
2021-09-23 21:03:27.954312,-24
2021-09-23 21:03:27.954318,-40
2021-09-23 21:03:27.954323,-14
2021-09-23 21:03:27.954329,127
2021-09-23 21:03:27.954335,440
2021-09-23 21:03:27.954341,894
2021-09-23 21:03:27.954347,995
2021-09-23 21:03:27.954353,187
2021-09-23 21:03:27.954358,-603
2021-09-23 21:03:27.954364,-339
2021-09-23 21:03:27.954370,31
2021-09-23 21:03:27.954376,-122
2021-09-23 21:03:27.954381,-153
2021-09-23 21:03:27.954387,-26
2021-09-23 21:03:27.954393,-48
2021-09-23 21:03:27.954399,-74
2021-09-23 21:03:27.954405,-28
2021-09-23 21:03:27.954410,-26
2021-09-23 21:03:27.954416,-43
2021-09-23 21:03:27.954422,-16
2021-09-23 21:03:28.179177,7
2021-09-23 21:03:28.179196,2
2021-09-23 21:03:28.179203,-2
2021-09-23 21:03:28.179209,9
2021-09-23 21:03:28.179215,16
2021-09-23 21:03:28.179221,24
2021-09-23 21:03:28.179227,40
2021-09-23 21:03:28.179233,50
2021-09-23 21:03:28.179239,64
2021-09-23 21:03:28.179245,88
2021-09-23 21:03:28.179251,88
2021-09-23 21:03:28.179257,81
2021-09-23 21:03:28.179263,103
2021-09-23 21:03:28.179268,108
2021-09-23 21:03:28.179274,81
2021-09-23 21:03:28.179280,64
2021-09-23 21:03:28.179286,50
2021-09-23 21:03:28.179292,14
2021-09-23 21:03:28.179298,-24
2021-09-23 21:03:28.179303,-52
2021-09-23 21:03:28.179309,-84
2021-09-23 21:03:28.179315,-108
2021-09-23 21:03:28.179321,-110
2021-09-23 21:03:28.179326,-110
2021-09-23 21:03:28.179332,-110
2021-09-23 21:03:28.179338,-101
2021-09-23 21:03:28.179343,-91
2021-09-23 21:03:28.179349,-96
2021-09-23 21:03:28.179355,-108
2021-09-23 21:03:28.179361,-110
2021-09-23 21:03:28.448547,-105
2021-09-23 21:03:28.448568,-103
2021-09-23 21:03:28.448575,-103
2021-09-23 21:03:28.448581,-96
2021-09-23 21:03:28.448587,-93
2021-09-23 21:03:28.448593,-98
2021-09-23 21:03:28.448599,-81
2021-09-23 21:03:28.448605,-57
2021-09-23 21:03:28.448610,-62
2021-09-23 21:03:28.448616,-79
2021-09-23 21:03:28.448622,-67
2021-09-23 21:03:28.448628,-55
2021-09-23 21:03:28.448633,-60
2021-09-23 21:03:28.448639,-55
2021-09-23 21:03:28.448645,-50
2021-09-23 21:03:28.448650,-62
2021-09-23 21:03:28.448656,-67
2021-09-23 21:03:28.448662,-45
2021-09-23 21:03:28.448668,-28
2021-09-23 21:03:28.448673,-36
2021-09-23 21:03:28.448679,-40
2021-09-23 21:03:28.448685,-40
2021-09-23 21:03:28.448690,-40
2021-09-23 21:03:28.448696,-28
2021-09-23 21:03:28.448702,-24
2021-09-23 21:03:28.448708,-33
2021-09-23 21:03:28.448713,-38
2021-09-23 21:03:28.448719,-16
2021-09-23 21:03:28.448725,19
2021-09-23 21:03:28.448731,24
2021-09-23 21:03:28.718665,-19
2021-09-23 21:03:28.718688,-36
2021-09-23 21:03:28.718695,-14
2021-09-23 21:03:28.718701,-12
2021-09-23 21:03:28.718707,-26
2021-09-23 21:03:28.718713,-9
2021-09-23 21:03:28.718719,45
2021-09-23 21:03:28.718725,206
2021-09-23 21:03:28.718731,567
2021-09-23 21:03:28.718737,976
2021-09-23 21:03:28.718743,752
2021-09-23 21:03:28.718748,-202
2021-09-23 21:03:28.718754,-586
2021-09-23 21:03:28.718760,-141
2021-09-23 21:03:28.718766,-24
2021-09-23 21:03:28.718772,-206
2021-09-23 21:03:28.718778,-120
2021-09-23 21:03:28.718784,-33
2021-09-23 21:03:28.718789,-84
2021-09-23 21:03:28.718795,-60
2021-09-23 21:03:28.718801,-16
2021-09-23 21:03:28.718807,-38
2021-09-23 21:03:28.718812,-38
2021-09-23 21:03:28.718818,-9
2021-09-23 21:03:28.718823,-2
2021-09-23 21:03:28.718829,-2
2021-09-23 21:03:28.718835,4
2021-09-23 21:03:28.718841,19
2021-09-23 21:03:28.718846,36
2021-09-23 21:03:28.718852,36
2021-09-23 21:03:28.944189,33
2021-09-23 21:03:28.944209,60
2021-09-23 21:03:28.944217,86
2021-09-23 21:03:28.944223,98
2021-09-23 21:03:28.944229,103
2021-09-23 21:03:28.944235,115
2021-09-23 21:03:28.944242,122
2021-09-23 21:03:28.944248,120
2021-09-23 21:03:28.944254,108
2021-09-23 21:03:28.944260,84
2021-09-23 21:03:28.944266,45
2021-09-23 21:03:28.944272,19
2021-09-23 21:03:28.944278,-9
2021-09-23 21:03:28.944284,-60
2021-09-23 21:03:28.944290,-108
2021-09-23 21:03:28.944296,-125
2021-09-23 21:03:28.944302,-125
2021-09-23 21:03:28.944307,-120
2021-09-23 21:03:28.944313,-108
2021-09-23 21:03:28.944319,-108
2021-09-23 21:03:28.944325,-120
2021-09-23 21:03:28.944331,-125
2021-09-23 21:03:28.944337,-122
2021-09-23 21:03:28.944343,-117
2021-09-23 21:03:28.944349,-103
2021-09-23 21:03:28.944355,-98
2021-09-23 21:03:28.944361,-110
2021-09-23 21:03:28.944367,-98
2021-09-23 21:03:28.944376,-67
2021-09-23 21:03:28.944382,-64
2021-09-23 21:03:29.124073,-60
2021-09-23 21:03:29.124092,-38
2021-09-23 21:03:29.124099,-40
2021-09-23 21:03:29.124105,-57
2021-09-23 21:03:29.124111,-45
2021-09-23 21:03:29.124117,-26
2021-09-23 21:03:29.124123,-26
2021-09-23 21:03:29.124129,-36
2021-09-23 21:03:29.124135,-31
2021-09-23 21:03:29.124140,-26
2021-09-23 21:03:29.124146,-36
2021-09-23 21:03:29.124152,-33
2021-09-23 21:03:29.124158,-24
2021-09-23 21:03:29.124163,-38
2021-09-23 21:03:29.124169,-50
2021-09-23 21:03:29.124175,-40
2021-09-23 21:03:29.124181,-43
2021-09-23 21:03:29.124186,-48
2021-09-23 21:03:29.124192,-33
2021-09-23 21:03:29.124198,-31
2021-09-23 21:03:29.124204,-40
2021-09-23 21:03:29.124209,-33
2021-09-23 21:03:29.124215,-31
2021-09-23 21:03:29.124221,-45
2021-09-23 21:03:29.124227,-36
2021-09-23 21:03:29.124233,-7
2021-09-23 21:03:29.124238,9
2021-09-23 21:03:29.124244,12
2021-09-23 21:03:29.124250,0
2021-09-23 21:03:29.124256,-21
2021-09-23 21:03:29.438614,-24
2021-09-23 21:03:29.438636,-9
2021-09-23 21:03:29.438643,-7
2021-09-23 21:03:29.438649,-2
2021-09-23 21:03:29.438655,19
2021-09-23 21:03:29.438661,88
2021-09-23 21:03:29.438667,317
2021-09-23 21:03:29.438673,740
2021-09-23 21:03:29.438679,1029
2021-09-23 21:03:29.438684,473
2021-09-23 21:03:29.438690,-524
2021-09-23 21:03:29.438696,-550
2021-09-23 21:03:29.438702,-31
2021-09-23 21:03:29.438708,-64
2021-09-23 21:03:29.438713,-182
2021-09-23 21:03:29.438719,-45
2021-09-23 21:03:29.438725,-16
2021-09-23 21:03:29.438731,-64
2021-09-23 21:03:29.438737,-40
2021-09-23 21:03:29.438743,-26
2021-09-23 21:03:29.438748,-33
2021-09-23 21:03:29.438754,-19
2021-09-23 21:03:29.438760,-9
2021-09-23 21:03:29.438766,-2
2021-09-23 21:03:29.438772,4
2021-09-23 21:03:29.438777,12
2021-09-23 21:03:29.438783,21
2021-09-23 21:03:29.438789,31
2021-09-23 21:03:29.438795,38
2021-09-23 21:03:29.438800,55
2021-09-23 21:03:29.618645,69
2021-09-23 21:03:29.618666,79
2021-09-23 21:03:29.618673,101
2021-09-23 21:03:29.618679,108
2021-09-23 21:03:29.618685,98
2021-09-23 21:03:29.618691,98
2021-09-23 21:03:29.618697,108
2021-09-23 21:03:29.618703,103
2021-09-23 21:03:29.618709,67
2021-09-23 21:03:29.618715,31
2021-09-23 21:03:29.618721,19
2021-09-23 21:03:29.618727,2
2021-09-23 21:03:29.618733,-40
2021-09-23 21:03:29.618739,-76
2021-09-23 21:03:29.618745,-86
2021-09-23 21:03:29.618751,-96
2021-09-23 21:03:29.618757,-103
2021-09-23 21:03:29.618763,-101
2021-09-23 21:03:29.618769,-105
2021-09-23 21:03:29.618775,-125
2021-09-23 21:03:29.618781,-127
2021-09-23 21:03:29.618787,-108
2021-09-23 21:03:29.618792,-98
2021-09-23 21:03:29.618798,-93
2021-09-23 21:03:29.618804,-81
2021-09-23 21:03:29.618810,-79
2021-09-23 21:03:29.618816,-69
2021-09-23 21:03:29.618822,-52
2021-09-23 21:03:29.618828,-43
2021-09-23 21:03:29.618833,-38
2021-09-23 21:03:29.842767,-33
2021-09-23 21:03:29.842788,-31
2021-09-23 21:03:29.842795,-33
2021-09-23 21:03:29.842801,-26
2021-09-23 21:03:29.842807,-16
2021-09-23 21:03:29.842813,-38
2021-09-23 21:03:29.842819,-48
2021-09-23 21:03:29.842826,-21
2021-09-23 21:03:29.842832,-21
2021-09-23 21:03:29.842837,-38
2021-09-23 21:03:29.842843,-26
2021-09-23 21:03:29.842849,-26
2021-09-23 21:03:29.842855,-40
2021-09-23 21:03:29.842861,-24
2021-09-23 21:03:29.842867,-16
2021-09-23 21:03:29.842873,-38
2021-09-23 21:03:29.842879,-33
2021-09-23 21:03:29.842885,-12
2021-09-23 21:03:29.842890,-19
2021-09-23 21:03:29.842896,-38
2021-09-23 21:03:29.842902,-38
2021-09-23 21:03:29.842908,-16
2021-09-23 21:03:29.842914,-9
2021-09-23 21:03:29.842920,-24
2021-09-23 21:03:29.842926,-33
2021-09-23 21:03:29.842932,-38
2021-09-23 21:03:29.842938,-33
2021-09-23 21:03:29.842943,-14
2021-09-23 21:03:29.842949,-12
2021-09-23 21:03:29.842955,-19
2021-09-23 21:03:30.024332,-12
2021-09-23 21:03:30.024352,-14
2021-09-23 21:03:30.024360,-26
2021-09-23 21:03:30.024366,-14
2021-09-23 21:03:30.024372,-19
2021-09-23 21:03:30.024378,-55
2021-09-23 21:03:30.024384,-50
2021-09-23 21:03:30.024390,-16
2021-09-23 21:03:30.024396,-2
2021-09-23 21:03:30.024402,9
2021-09-23 21:03:30.024408,81
2021-09-23 21:03:30.024414,315
2021-09-23 21:03:30.024420,771
2021-09-23 21:03:30.024426,1038
2021-09-23 21:03:30.024432,399
2021-09-23 21:03:30.024438,-524
2021-09-23 21:03:30.024444,-447
2021-09-23 21:03:30.024450,-7
2021-09-23 21:03:30.024456,-91
2021-09-23 21:03:30.024461,-177
2021-09-23 21:03:30.024467,-60
2021-09-23 21:03:30.024473,-45
2021-09-23 21:03:30.024478,-81
2021-09-23 21:03:30.024484,-55
2021-09-23 21:03:30.024490,-40
2021-09-23 21:03:30.024495,-52
2021-09-23 21:03:30.024501,-45
2021-09-23 21:03:30.024507,-26
2021-09-23 21:03:30.024513,-16
2021-09-23 21:03:30.024519,-9
2021-09-23 21:03:30.293698,9
2021-09-23 21:03:30.293717,21
2021-09-23 21:03:30.293725,9
2021-09-23 21:03:30.293731,19
2021-09-23 21:03:30.293737,38
2021-09-23 21:03:30.293743,43
2021-09-23 21:03:30.293749,67
2021-09-23 21:03:30.293755,103
2021-09-23 21:03:30.293761,101
2021-09-23 21:03:30.293767,79
2021-09-23 21:03:30.293773,72
2021-09-23 21:03:30.293779,69
2021-09-23 21:03:30.293785,74
2021-09-23 21:03:30.293791,84
2021-09-23 21:03:30.293797,55
2021-09-23 21:03:30.293802,2
2021-09-23 21:03:30.293808,-28
2021-09-23 21:03:30.293814,-36
2021-09-23 21:03:30.293820,-38
2021-09-23 21:03:30.293826,-52
2021-09-23 21:03:30.293831,-84
2021-09-23 21:03:30.293837,-93
2021-09-23 21:03:30.293843,-81
2021-09-23 21:03:30.293849,-84
2021-09-23 21:03:30.293855,-81
2021-09-23 21:03:30.293860,-79
2021-09-23 21:03:30.293866,-84
2021-09-23 21:03:30.293872,-76
2021-09-23 21:03:30.293878,-76
2021-09-23 21:03:30.293883,-79
2021-09-23 21:03:30.563661,-69
2021-09-23 21:03:30.563680,-69
2021-09-23 21:03:30.563688,-57
2021-09-23 21:03:30.563694,-40
2021-09-23 21:03:30.563700,-52
2021-09-23 21:03:30.563706,-48
2021-09-23 21:03:30.563712,-19
2021-09-23 21:03:30.563718,-7
2021-09-23 21:03:30.563724,-12
2021-09-23 21:03:30.563730,-36
2021-09-23 21:03:30.563736,-57
2021-09-23 21:03:30.563742,-45
2021-09-23 21:03:30.563748,-36
2021-09-23 21:03:30.563754,-52
2021-09-23 21:03:30.563760,-52
2021-09-23 21:03:30.563766,-36
2021-09-23 21:03:30.563771,-28
2021-09-23 21:03:30.563777,-33
2021-09-23 21:03:30.563783,-36
2021-09-23 21:03:30.563789,-28
2021-09-23 21:03:30.563795,-21
2021-09-23 21:03:30.563801,-26
2021-09-23 21:03:30.563807,-26
2021-09-23 21:03:30.563812,-12
2021-09-23 21:03:30.563818,-7
2021-09-23 21:03:30.563824,-14
2021-09-23 21:03:30.563830,-21
2021-09-23 21:03:30.563836,-31
2021-09-23 21:03:30.563842,-26
2021-09-23 21:03:30.563847,-26
2021-09-23 21:03:30.744306,-40
2021-09-23 21:03:30.744327,-33
2021-09-23 21:03:30.744335,-21
2021-09-23 21:03:30.744341,-38
2021-09-23 21:03:30.744347,-21
2021-09-23 21:03:30.744353,19
2021-09-23 21:03:30.744359,7
2021-09-23 21:03:30.744365,-28
2021-09-23 21:03:30.744371,-40
2021-09-23 21:03:30.744377,-21
2021-09-23 21:03:30.744382,-2
2021-09-23 21:03:30.744388,-9
2021-09-23 21:03:30.744394,-7
2021-09-23 21:03:30.744400,33
2021-09-23 21:03:30.744406,153
2021-09-23 21:03:30.744412,461
2021-09-23 21:03:30.744417,952
2021-09-23 21:03:30.744423,1074
2021-09-23 21:03:30.744429,218
2021-09-23 21:03:30.744435,-642
2021-09-23 21:03:30.744441,-365
2021-09-23 21:03:30.744447,40
2021-09-23 21:03:30.744452,-125
2021-09-23 21:03:30.744462,-158
2021-09-23 21:03:30.744468,-21
2021-09-23 21:03:30.744474,-43
2021-09-23 21:03:30.744479,-69
2021-09-23 21:03:30.744485,-14
2021-09-23 21:03:30.744491,0
2021-09-23 21:03:30.744497,-9
2021-09-23 21:03:30.969276,9
2021-09-23 21:03:30.969295,16
2021-09-23 21:03:30.969302,0
2021-09-23 21:03:30.969308,9
2021-09-23 21:03:30.969314,36
2021-09-23 21:03:30.969320,38
2021-09-23 21:03:30.969326,45
2021-09-23 21:03:30.969332,60
2021-09-23 21:03:30.969338,69
2021-09-23 21:03:30.969344,96
2021-09-23 21:03:30.969350,117
2021-09-23 21:03:30.969355,115
2021-09-23 21:03:30.969361,110
2021-09-23 21:03:30.969367,101
2021-09-23 21:03:30.969373,88
2021-09-23 21:03:30.969378,96
2021-09-23 21:03:30.969384,103
2021-09-23 21:03:30.969390,91
2021-09-23 21:03:30.969396,69
2021-09-23 21:03:30.969401,45
2021-09-23 21:03:30.969407,2
2021-09-23 21:03:30.969413,-55
2021-09-23 21:03:30.969419,-72
2021-09-23 21:03:30.969424,-72
2021-09-23 21:03:30.969430,-98
2021-09-23 21:03:30.969436,-105
2021-09-23 21:03:30.969442,-98
2021-09-23 21:03:30.969447,-110
2021-09-23 21:03:30.969453,-108
2021-09-23 21:03:30.969459,-101
2021-09-23 21:03:31.194308,-101
2021-09-23 21:03:31.194328,-93
2021-09-23 21:03:31.194335,-79
2021-09-23 21:03:31.194341,-69
2021-09-23 21:03:31.194347,-69
2021-09-23 21:03:31.194353,-74
2021-09-23 21:03:31.194359,-69
2021-09-23 21:03:31.194365,-72
2021-09-23 21:03:31.194371,-84
2021-09-23 21:03:31.194376,-74
2021-09-23 21:03:31.194382,-48
2021-09-23 21:03:31.194388,-52
2021-09-23 21:03:31.194394,-69
2021-09-23 21:03:31.194399,-60
2021-09-23 21:03:31.194405,-50
2021-09-23 21:03:31.194411,-57
2021-09-23 21:03:31.194417,-52
2021-09-23 21:03:31.194423,-43
2021-09-23 21:03:31.194428,-62
2021-09-23 21:03:31.194435,-64
2021-09-23 21:03:31.194440,-40
2021-09-23 21:03:31.194446,-36
2021-09-23 21:03:31.194452,-33
2021-09-23 21:03:31.194458,-26
2021-09-23 21:03:31.194463,-36
2021-09-23 21:03:31.194469,-40
2021-09-23 21:03:31.194475,-24
2021-09-23 21:03:31.194481,-7
2021-09-23 21:03:31.194487,-9
2021-09-23 21:03:31.194492,-28
2021-09-23 21:03:31.464193,-36
2021-09-23 21:03:31.464212,-21
2021-09-23 21:03:31.464219,-12
2021-09-23 21:03:31.464225,-16
2021-09-23 21:03:31.464231,-24
2021-09-23 21:03:31.464237,-28
2021-09-23 21:03:31.464243,-36
2021-09-23 21:03:31.464249,-12
2021-09-23 21:03:31.464255,19
2021-09-23 21:03:31.464261,4
2021-09-23 21:03:31.464267,-7
2021-09-23 21:03:31.464272,2
2021-09-23 21:03:31.464279,-16
2021-09-23 21:03:31.464284,-31
2021-09-23 21:03:31.464290,-21
2021-09-23 21:03:31.464296,-14
2021-09-23 21:03:31.464302,4
2021-09-23 21:03:31.464307,7
2021-09-23 21:03:31.464313,31
2021-09-23 21:03:31.464319,240
2021-09-23 21:03:31.464325,668
2021-09-23 21:03:31.464331,1101
2021-09-23 21:03:31.464336,810
2021-09-23 21:03:31.464342,-334
2021-09-23 21:03:31.464348,-791
2021-09-23 21:03:31.464354,-202
2021-09-23 21:03:31.464359,4
2021-09-23 21:03:31.464365,-175
2021-09-23 21:03:31.464371,-72
2021-09-23 21:03:31.464376,21
2021-09-23 21:03:31.644209,-48
2021-09-23 21:03:31.644228,-40
2021-09-23 21:03:31.644236,-4
2021-09-23 21:03:31.644242,-24
2021-09-23 21:03:31.644248,0
2021-09-23 21:03:31.644254,43
2021-09-23 21:03:31.644260,38
2021-09-23 21:03:31.644266,36
2021-09-23 21:03:31.644272,57
2021-09-23 21:03:31.644278,64
2021-09-23 21:03:31.644284,52
2021-09-23 21:03:31.644290,45
2021-09-23 21:03:31.644295,52
2021-09-23 21:03:31.644301,60
2021-09-23 21:03:31.644307,84
2021-09-23 21:03:31.644312,115
2021-09-23 21:03:31.644318,110
2021-09-23 21:03:31.644324,91
2021-09-23 21:03:31.644330,110
2021-09-23 21:03:31.644336,125
2021-09-23 21:03:31.644342,101
2021-09-23 21:03:31.644347,74
2021-09-23 21:03:31.644353,48
2021-09-23 21:03:31.644359,14
2021-09-23 21:03:31.644365,-9
2021-09-23 21:03:31.644370,-31
2021-09-23 21:03:31.644376,-67
2021-09-23 21:03:31.644382,-91
2021-09-23 21:03:31.644388,-113
2021-09-23 21:03:31.644393,-129
2021-09-23 21:03:31.957927,-115
2021-09-23 21:03:31.957946,-101
2021-09-23 21:03:31.957954,-117
2021-09-23 21:03:31.957960,-125
2021-09-23 21:03:31.957966,-113
2021-09-23 21:03:31.957972,-98
2021-09-23 21:03:31.957978,-96
2021-09-23 21:03:31.957984,-86
2021-09-23 21:03:31.957990,-67
2021-09-23 21:03:31.957995,-64
2021-09-23 21:03:31.958001,-74
2021-09-23 21:03:31.958007,-67
2021-09-23 21:03:31.958013,-43
2021-09-23 21:03:31.958019,-19
2021-09-23 21:03:31.958025,-28
2021-09-23 21:03:31.958031,-60
2021-09-23 21:03:31.958037,-57
2021-09-23 21:03:31.958042,-24
2021-09-23 21:03:31.958048,-24
2021-09-23 21:03:31.958054,-50
2021-09-23 21:03:31.958060,-55
2021-09-23 21:03:31.958066,-43
2021-09-23 21:03:31.958072,-45
2021-09-23 21:03:31.958078,-52
2021-09-23 21:03:31.958084,-31
2021-09-23 21:03:31.958089,-16
2021-09-23 21:03:31.958095,-28
2021-09-23 21:03:31.958101,-31
2021-09-23 21:03:31.958107,-19
2021-09-23 21:03:31.958113,-31
2021-09-23 21:03:32.228738,-45
2021-09-23 21:03:32.228759,-14
2021-09-23 21:03:32.228766,21
2021-09-23 21:03:32.228773,14
2021-09-23 21:03:32.228779,-12
2021-09-23 21:03:32.228785,-38
2021-09-23 21:03:32.228792,-45
2021-09-23 21:03:32.228798,-24
2021-09-23 21:03:32.228805,-14
2021-09-23 21:03:32.228811,-21
2021-09-23 21:03:32.228816,-2
2021-09-23 21:03:32.228822,69
2021-09-23 21:03:32.228828,269
2021-09-23 21:03:32.228834,646
2021-09-23 21:03:32.228840,985
2021-09-23 21:03:32.228846,601
2021-09-23 21:03:32.228852,-442
2021-09-23 21:03:32.228858,-709
2021-09-23 21:03:32.228864,-153
2021-09-23 21:03:32.228870,-43
2021-09-23 21:03:32.228876,-187
2021-09-23 21:03:32.228882,-64
2021-09-23 21:03:32.228887,4
2021-09-23 21:03:32.228893,-50
2021-09-23 21:03:32.228899,-21
2021-09-23 21:03:32.228905,16
2021-09-23 21:03:32.228911,2
2021-09-23 21:03:32.228917,-9
2021-09-23 21:03:32.228923,7
2021-09-23 21:03:32.228929,26
2021-09-23 21:03:32.409286,38
2021-09-23 21:03:32.409307,48
2021-09-23 21:03:32.409314,57
2021-09-23 21:03:32.409320,67
2021-09-23 21:03:32.409326,64
2021-09-23 21:03:32.409332,76
2021-09-23 21:03:32.409338,88
2021-09-23 21:03:32.409344,91
2021-09-23 21:03:32.409349,125
2021-09-23 21:03:32.409355,151
2021-09-23 21:03:32.409361,127
2021-09-23 21:03:32.409367,110
2021-09-23 21:03:32.409373,120
2021-09-23 21:03:32.409379,122
2021-09-23 21:03:32.409384,93
2021-09-23 21:03:32.409390,40
2021-09-23 21:03:32.409396,2
2021-09-23 21:03:32.409402,-24
2021-09-23 21:03:32.409407,-55
2021-09-23 21:03:32.409413,-84
2021-09-23 21:03:32.409419,-110
2021-09-23 21:03:32.409425,-129
2021-09-23 21:03:32.409431,-129
2021-09-23 21:03:32.409436,-129
2021-09-23 21:03:32.409442,-141
2021-09-23 21:03:32.409448,-137
2021-09-23 21:03:32.409454,-115
2021-09-23 21:03:32.409460,-113
2021-09-23 21:03:32.409466,-108
2021-09-23 21:03:32.409471,-79
2021-09-23 21:03:32.633682,-62
2021-09-23 21:03:32.633703,-67
2021-09-23 21:03:32.633710,-43
2021-09-23 21:03:32.633716,-14
2021-09-23 21:03:32.633722,-26
2021-09-23 21:03:32.633728,-26
2021-09-23 21:03:32.633734,0
2021-09-23 21:03:32.633739,-7
2021-09-23 21:03:32.633745,-31
2021-09-23 21:03:32.633751,-21
2021-09-23 21:03:32.633757,-2
2021-09-23 21:03:32.633762,-14
2021-09-23 21:03:32.633768,-26
2021-09-23 21:03:32.633774,-24
2021-09-23 21:03:32.633779,-26
2021-09-23 21:03:32.633785,-28
2021-09-23 21:03:32.633791,-24
2021-09-23 21:03:32.633797,-14
2021-09-23 21:03:32.633802,-9
2021-09-23 21:03:32.633808,-24
2021-09-23 21:03:32.633814,-40
2021-09-23 21:03:32.633819,-36
2021-09-23 21:03:32.633825,-31
2021-09-23 21:03:32.633831,-40
2021-09-23 21:03:32.633836,-31
2021-09-23 21:03:32.633842,-4
2021-09-23 21:03:32.633848,0
2021-09-23 21:03:32.633853,-16
2021-09-23 21:03:32.633859,-24
2021-09-23 21:03:32.633865,-12
2021-09-23 21:03:32.814367,-7
2021-09-23 21:03:32.814387,-16
2021-09-23 21:03:32.814394,-9
2021-09-23 21:03:32.814400,0
2021-09-23 21:03:32.814406,21
2021-09-23 21:03:32.814412,180
2021-09-23 21:03:32.814418,565
2021-09-23 21:03:32.814424,1026
2021-09-23 21:03:32.814430,916
2021-09-23 21:03:32.814436,-26
2021-09-23 21:03:32.814442,-574
2021-09-23 21:03:32.814447,-163
2021-09-23 21:03:32.814453,57
2021-09-23 21:03:32.814459,-161
2021-09-23 21:03:32.814465,-156
2021-09-23 21:03:32.814471,-31
2021-09-23 21:03:32.814477,-57
2021-09-23 21:03:32.814486,-76
2021-09-23 21:03:32.814492,-26
2021-09-23 21:03:32.814498,-19
2021-09-23 21:03:32.814504,-28
2021-09-23 21:03:32.814510,-12
2021-09-23 21:03:32.814515,-2
2021-09-23 21:03:32.814521,-4
2021-09-23 21:03:32.814527,-2
2021-09-23 21:03:32.814533,4
2021-09-23 21:03:32.814539,19
2021-09-23 21:03:32.814545,40
2021-09-23 21:03:32.814550,72
2021-09-23 21:03:32.814556,81
2021-09-23 21:03:33.039335,72
2021-09-23 21:03:33.039350,86
2021-09-23 21:03:33.039354,101
2021-09-23 21:03:33.039357,96
2021-09-23 21:03:33.039361,86
2021-09-23 21:03:33.039364,96
2021-09-23 21:03:33.039367,113
2021-09-23 21:03:33.039370,88
2021-09-23 21:03:33.039373,52
2021-09-23 21:03:33.039376,28
2021-09-23 21:03:33.039379,-4
2021-09-23 21:03:33.039382,-43
2021-09-23 21:03:33.039386,-64
2021-09-23 21:03:33.039389,-81
2021-09-23 21:03:33.039392,-93
2021-09-23 21:03:33.039395,-88
2021-09-23 21:03:33.039398,-86
2021-09-23 21:03:33.039401,-96
2021-09-23 21:03:33.039404,-120
2021-09-23 21:03:33.039407,-120
2021-09-23 21:03:33.039410,-101
2021-09-23 21:03:33.039413,-96
2021-09-23 21:03:33.039416,-101
2021-09-23 21:03:33.039419,-86
2021-09-23 21:03:33.039423,-76
2021-09-23 21:03:33.039426,-74
2021-09-23 21:03:33.039429,-64
2021-09-23 21:03:33.039432,-64
2021-09-23 21:03:33.039435,-60
2021-09-23 21:03:33.039438,-48
2021-09-23 21:03:33.264323,-52
2021-09-23 21:03:33.264341,-48
2021-09-23 21:03:33.264349,-28
2021-09-23 21:03:33.264356,-24
2021-09-23 21:03:33.264362,-38
2021-09-23 21:03:33.264369,-48
2021-09-23 21:03:33.264375,-40
2021-09-23 21:03:33.264382,-40
2021-09-23 21:03:33.264388,-50
2021-09-23 21:03:33.264395,-55
2021-09-23 21:03:33.264401,-45
2021-09-23 21:03:33.264407,-28
2021-09-23 21:03:33.264413,-4
2021-09-23 21:03:33.264420,9
2021-09-23 21:03:33.264426,-19
2021-09-23 21:03:33.264432,-45
2021-09-23 21:03:33.264438,-33
2021-09-23 21:03:33.264445,-36
2021-09-23 21:03:33.264451,-50
2021-09-23 21:03:33.264457,-31
2021-09-23 21:03:33.264463,-7
2021-09-23 21:03:33.264469,-2
2021-09-23 21:03:33.264475,12
2021-09-23 21:03:33.264482,14
2021-09-23 21:03:33.264488,-12
2021-09-23 21:03:33.264494,-21
2021-09-23 21:03:33.264500,-14
2021-09-23 21:03:33.264506,-16
2021-09-23 21:03:33.264512,-4
2021-09-23 21:03:33.264519,24
2021-09-23 21:03:33.489300,96
2021-09-23 21:03:33.489320,358
2021-09-23 21:03:33.489327,860
2021-09-23 21:03:33.489333,1226
2021-09-23 21:03:33.489339,634
2021-09-23 21:03:33.489345,-476
2021-09-23 21:03:33.489351,-536
2021-09-23 21:03:33.489357,-9
2021-09-23 21:03:33.489363,-79
2021-09-23 21:03:33.489369,-206
2021-09-23 21:03:33.489374,-50
2021-09-23 21:03:33.489380,-28
2021-09-23 21:03:33.489386,-93
2021-09-23 21:03:33.489392,-43
2021-09-23 21:03:33.489397,-14
2021-09-23 21:03:33.489403,-31
2021-09-23 21:03:33.489409,-2
2021-09-23 21:03:33.489414,14
2021-09-23 21:03:33.489420,4
2021-09-23 21:03:33.489426,24
2021-09-23 21:03:33.489431,28
2021-09-23 21:03:33.489437,2
2021-09-23 21:03:33.489443,16
2021-09-23 21:03:33.489448,50
2021-09-23 21:03:33.489454,50
2021-09-23 21:03:33.489460,72
2021-09-23 21:03:33.489465,115
2021-09-23 21:03:33.489471,125
2021-09-23 21:03:33.489477,120
2021-09-23 21:03:33.489483,115
2021-09-23 21:03:33.714311,93
2021-09-23 21:03:33.714331,91
2021-09-23 21:03:33.714339,98
2021-09-23 21:03:33.714345,76
2021-09-23 21:03:33.714351,52
2021-09-23 21:03:33.714357,26
2021-09-23 21:03:33.714363,-33
2021-09-23 21:03:33.714369,-84
2021-09-23 21:03:33.714375,-79
2021-09-23 21:03:33.714380,-84
2021-09-23 21:03:33.714386,-134
2021-09-23 21:03:33.714392,-153
2021-09-23 21:03:33.714398,-129
2021-09-23 21:03:33.714403,-113
2021-09-23 21:03:33.714409,-117
2021-09-23 21:03:33.714415,-115
2021-09-23 21:03:33.714421,-108
2021-09-23 21:03:33.714426,-122
2021-09-23 21:03:33.714432,-127
2021-09-23 21:03:33.714438,-93
2021-09-23 21:03:33.714444,-81
2021-09-23 21:03:33.714450,-96
2021-09-23 21:03:33.714455,-84
2021-09-23 21:03:33.714461,-52
2021-09-23 21:03:33.714467,-43
2021-09-23 21:03:33.714473,-64
2021-09-23 21:03:33.714478,-69
2021-09-23 21:03:33.714484,-55
2021-09-23 21:03:33.714490,-55
2021-09-23 21:03:33.714496,-57
2021-09-23 21:03:33.983442,-52
2021-09-23 21:03:33.983462,-43
2021-09-23 21:03:33.983470,-50
2021-09-23 21:03:33.983476,-55
2021-09-23 21:03:33.983482,-43
2021-09-23 21:03:33.983488,-36
2021-09-23 21:03:33.983494,-38
2021-09-23 21:03:33.983500,-38
2021-09-23 21:03:33.983506,-50
2021-09-23 21:03:33.983512,-69
2021-09-23 21:03:33.983518,-60
2021-09-23 21:03:33.983524,-31
2021-09-23 21:03:33.983529,-19
2021-09-23 21:03:33.983535,-9
2021-09-23 21:03:33.983541,-2
2021-09-23 21:03:33.983547,-7
2021-09-23 21:03:33.983553,-21
2021-09-23 21:03:33.983559,-48
2021-09-23 21:03:33.983565,-45
2021-09-23 21:03:33.983571,-16
2021-09-23 21:03:33.983577,-12
2021-09-23 21:03:33.983583,-16
2021-09-23 21:03:33.983589,21
2021-09-23 21:03:33.983595,149
2021-09-23 21:03:33.983600,449
2021-09-23 21:03:33.983607,930
2021-09-23 21:03:33.983612,1062
2021-09-23 21:03:33.983619,173
2021-09-23 21:03:33.983625,-747
2021-09-23 21:03:33.983631,-442
2021-09-23 21:03:34.209313,24
2021-09-23 21:03:34.209333,-125
2021-09-23 21:03:34.209341,-153
2021-09-23 21:03:34.209348,-14
2021-09-23 21:03:34.209355,-48
2021-09-23 21:03:34.209361,-86
2021-09-23 21:03:34.209368,-28
2021-09-23 21:03:34.209374,0
2021-09-23 21:03:34.209381,-2
2021-09-23 21:03:34.209387,0
2021-09-23 21:03:34.209393,-7
2021-09-23 21:03:34.209400,-7
2021-09-23 21:03:34.209406,4
2021-09-23 21:03:34.209413,14
2021-09-23 21:03:34.209419,31
2021-09-23 21:03:34.209425,45
2021-09-23 21:03:34.209432,45
2021-09-23 21:03:34.209438,60
2021-09-23 21:03:34.209445,86
2021-09-23 21:03:34.209451,98
2021-09-23 21:03:34.209457,117
2021-09-23 21:03:34.209464,134
2021-09-23 21:03:34.209470,122
2021-09-23 21:03:34.209476,110
2021-09-23 21:03:34.209483,120
2021-09-23 21:03:34.209489,101
2021-09-23 21:03:34.209495,52
2021-09-23 21:03:34.209501,16
2021-09-23 21:03:34.209508,-9
2021-09-23 21:03:34.209514,-50
2021-09-23 21:03:34.434456,-72
2021-09-23 21:03:34.434478,-76
2021-09-23 21:03:34.434485,-96
2021-09-23 21:03:34.434491,-115
2021-09-23 21:03:34.434497,-125
2021-09-23 21:03:34.434503,-127
2021-09-23 21:03:34.434509,-117
2021-09-23 21:03:34.434515,-105
2021-09-23 21:03:34.434521,-117
2021-09-23 21:03:34.434527,-117
2021-09-23 21:03:34.434533,-76
2021-09-23 21:03:34.434539,-67
2021-09-23 21:03:34.434545,-110
2021-09-23 21:03:34.434551,-105
2021-09-23 21:03:34.434557,-55
2021-09-23 21:03:34.434562,-48
2021-09-23 21:03:34.434568,-64
2021-09-23 21:03:34.434574,-57
2021-09-23 21:03:34.434580,-36
2021-09-23 21:03:34.434585,-31
2021-09-23 21:03:34.434591,-57
2021-09-23 21:03:34.434597,-79
2021-09-23 21:03:34.434603,-57
2021-09-23 21:03:34.434609,-40
2021-09-23 21:03:34.434615,-50
2021-09-23 21:03:34.434620,-50
2021-09-23 21:03:34.434626,-52
2021-09-23 21:03:34.434632,-57
2021-09-23 21:03:34.434638,-36
2021-09-23 21:03:34.434644,-26
2021-09-23 21:03:34.659306,-50
2021-09-23 21:03:34.659325,-64
2021-09-23 21:03:34.659332,-62
2021-09-23 21:03:34.659339,-45
2021-09-23 21:03:34.659345,-24
2021-09-23 21:03:34.659350,-26
2021-09-23 21:03:34.659356,-26
2021-09-23 21:03:34.659362,0
2021-09-23 21:03:34.659368,-14
2021-09-23 21:03:34.659374,-57
2021-09-23 21:03:34.659380,-52
2021-09-23 21:03:34.659386,-26
2021-09-23 21:03:34.659392,-24
2021-09-23 21:03:34.659398,-28
2021-09-23 21:03:34.659403,-9
2021-09-23 21:03:34.659409,93
2021-09-23 21:03:34.659415,375
2021-09-23 21:03:34.659421,841
2021-09-23 21:03:34.659427,1106
2021-09-23 21:03:34.659432,447
2021-09-23 21:03:34.659438,-569
2021-09-23 21:03:34.659444,-526
2021-09-23 21:03:34.659450,-9
2021-09-23 21:03:34.659455,-79
2021-09-23 21:03:34.659461,-192
2021-09-23 21:03:34.659467,-69
2021-09-23 21:03:34.659472,-60
2021-09-23 21:03:34.659478,-91
2021-09-23 21:03:34.659484,-33
2021-09-23 21:03:34.659490,-12
2021-09-23 21:03:34.884856,-31
2021-09-23 21:03:34.884877,-9
2021-09-23 21:03:34.884884,7
2021-09-23 21:03:34.884890,0
2021-09-23 21:03:34.884896,2
2021-09-23 21:03:34.884902,12
2021-09-23 21:03:34.884908,12
2021-09-23 21:03:34.884914,14
2021-09-23 21:03:34.884919,38
2021-09-23 21:03:34.884925,64
2021-09-23 21:03:34.884931,79
2021-09-23 21:03:34.884936,101
2021-09-23 21:03:34.884942,113
2021-09-23 21:03:34.884948,96
2021-09-23 21:03:34.884954,79
2021-09-23 21:03:34.884960,91
2021-09-23 21:03:34.884965,105
2021-09-23 21:03:34.884971,96
2021-09-23 21:03:34.884977,67
2021-09-23 21:03:34.884983,40
2021-09-23 21:03:34.884989,21
2021-09-23 21:03:34.884994,-4
2021-09-23 21:03:34.885000,-48
2021-09-23 21:03:34.885006,-69
2021-09-23 21:03:34.885012,-69
2021-09-23 21:03:34.885017,-84
2021-09-23 21:03:34.885023,-93
2021-09-23 21:03:34.885029,-91
2021-09-23 21:03:34.885035,-91
2021-09-23 21:03:34.885041,-91
2021-09-23 21:03:35.154381,-88
2021-09-23 21:03:35.154402,-96
2021-09-23 21:03:35.154410,-101
2021-09-23 21:03:35.154416,-88
2021-09-23 21:03:35.154422,-72
2021-09-23 21:03:35.154428,-76
2021-09-23 21:03:35.154434,-79
2021-09-23 21:03:35.154440,-64
2021-09-23 21:03:35.154446,-60
2021-09-23 21:03:35.154452,-64
2021-09-23 21:03:35.154457,-74
2021-09-23 21:03:35.154463,-79
2021-09-23 21:03:35.154469,-57
2021-09-23 21:03:35.154475,-43
2021-09-23 21:03:35.154484,-57
2021-09-23 21:03:35.154490,-60
2021-09-23 21:03:35.154495,-48
2021-09-23 21:03:35.154501,-60
2021-09-23 21:03:35.154507,-84
2021-09-23 21:03:35.154513,-62
2021-09-23 21:03:35.154519,-31
2021-09-23 21:03:35.154524,-24
2021-09-23 21:03:35.154530,-14
2021-09-23 21:03:35.154536,-24
2021-09-23 21:03:35.154541,-72
2021-09-23 21:03:35.154547,-96
2021-09-23 21:03:35.154553,-62
2021-09-23 21:03:35.154559,-50
2021-09-23 21:03:35.154565,-60
2021-09-23 21:03:35.154570,-31
2021-09-23 21:03:35.334322,36
2021-09-23 21:03:35.334343,211
2021-09-23 21:03:35.334351,586
2021-09-23 21:03:35.334357,969
2021-09-23 21:03:35.334363,642
2021-09-23 21:03:35.334369,-399
2021-09-23 21:03:35.334375,-709
2021-09-23 21:03:35.334381,-158
2021-09-23 21:03:35.334386,-19
2021-09-23 21:03:35.334392,-168
2021-09-23 21:03:35.334398,-67
2021-09-23 21:03:35.334404,2
2021-09-23 21:03:35.334410,-62
2021-09-23 21:03:35.334415,-62
2021-09-23 21:03:35.334421,-21
2021-09-23 21:03:35.334427,-14
2021-09-23 21:03:35.334433,-19
2021-09-23 21:03:35.334439,-7
2021-09-23 21:03:35.334445,9
2021-09-23 21:03:35.334450,31
2021-09-23 21:03:35.334456,45
2021-09-23 21:03:35.334462,31
2021-09-23 21:03:35.334468,28
2021-09-23 21:03:35.334474,60
2021-09-23 21:03:35.334479,74
2021-09-23 21:03:35.334485,76
2021-09-23 21:03:35.334491,103
2021-09-23 21:03:35.334496,129
2021-09-23 21:03:35.334502,127
2021-09-23 21:03:35.334508,113
2021-09-23 21:03:35.648731,117
2021-09-23 21:03:35.648752,125
2021-09-23 21:03:35.648759,103
2021-09-23 21:03:35.648766,67
2021-09-23 21:03:35.648772,48
2021-09-23 21:03:35.648778,16
2021-09-23 21:03:35.648784,-31
2021-09-23 21:03:35.648790,-60
2021-09-23 21:03:35.648796,-79
2021-09-23 21:03:35.648802,-105
2021-09-23 21:03:35.648808,-110
2021-09-23 21:03:35.648814,-105
2021-09-23 21:03:35.648820,-122
2021-09-23 21:03:35.648826,-129
2021-09-23 21:03:35.648832,-98
2021-09-23 21:03:35.648837,-81
2021-09-23 21:03:35.648843,-101
2021-09-23 21:03:35.648849,-105
2021-09-23 21:03:35.648855,-84
2021-09-23 21:03:35.648861,-52
2021-09-23 21:03:35.648867,-48
2021-09-23 21:03:35.648872,-55
2021-09-23 21:03:35.648878,-26
2021-09-23 21:03:35.648884,-4
2021-09-23 21:03:35.648889,-12
2021-09-23 21:03:35.648895,-21
2021-09-23 21:03:35.648901,-21
2021-09-23 21:03:35.648907,-19
2021-09-23 21:03:35.648913,-19
2021-09-23 21:03:35.648918,-33
2021-09-23 21:03:35.784321,-45
2021-09-23 21:03:35.784342,-24
2021-09-23 21:03:35.784349,-21
2021-09-23 21:03:35.784355,-62
2021-09-23 21:03:35.784361,-67
2021-09-23 21:03:35.784367,-43
2021-09-23 21:03:35.784373,-38
2021-09-23 21:03:35.784379,-16
2021-09-23 21:03:35.784385,2
2021-09-23 21:03:35.784391,-33
2021-09-23 21:03:35.784397,-72
2021-09-23 21:03:35.784402,-62
2021-09-23 21:03:35.784408,-38
2021-09-23 21:03:35.784414,-36
2021-09-23 21:03:35.784420,-26
2021-09-23 21:03:35.784426,-4
2021-09-23 21:03:35.784432,72
2021-09-23 21:03:35.784437,341
2021-09-23 21:03:35.784443,788
2021-09-23 21:03:35.784449,971
2021-09-23 21:03:35.784455,312
2021-09-23 21:03:35.784461,-533
2021-09-23 21:03:35.784467,-406
2021-09-23 21:03:35.784472,9
2021-09-23 21:03:35.784478,-101
2021-09-23 21:03:35.784483,-173
2021-09-23 21:03:35.784489,-45
2021-09-23 21:03:35.784496,-50
2021-09-23 21:03:35.784502,-86
2021-09-23 21:03:35.784507,-38
2021-09-23 21:03:36.097994,-4
2021-09-23 21:03:36.098016,-7
2021-09-23 21:03:36.098023,-26
2021-09-23 21:03:36.098029,-28
2021-09-23 21:03:36.098035,-4
2021-09-23 21:03:36.098041,9
2021-09-23 21:03:36.098047,9
2021-09-23 21:03:36.098053,21
2021-09-23 21:03:36.098059,38
2021-09-23 21:03:36.098065,28
2021-09-23 21:03:36.098070,26
2021-09-23 21:03:36.098076,60
2021-09-23 21:03:36.098082,86
2021-09-23 21:03:36.098088,64
2021-09-23 21:03:36.098093,50
2021-09-23 21:03:36.098099,74
2021-09-23 21:03:36.098105,86
2021-09-23 21:03:36.098111,62
2021-09-23 21:03:36.098117,43
2021-09-23 21:03:36.098122,38
2021-09-23 21:03:36.098128,36
2021-09-23 21:03:36.098134,7
2021-09-23 21:03:36.098140,-50
2021-09-23 21:03:36.098145,-76
2021-09-23 21:03:36.098151,-60
2021-09-23 21:03:36.098157,-52
2021-09-23 21:03:36.098163,-72
2021-09-23 21:03:36.098169,-81
2021-09-23 21:03:36.098175,-76
2021-09-23 21:03:36.098180,-69
2021-09-23 21:03:36.324340,-72
2021-09-23 21:03:36.324361,-79
2021-09-23 21:03:36.324368,-88
2021-09-23 21:03:36.324374,-88
2021-09-23 21:03:36.324380,-79
2021-09-23 21:03:36.324386,-81
2021-09-23 21:03:36.324392,-86
2021-09-23 21:03:36.324398,-67
2021-09-23 21:03:36.324404,-48
2021-09-23 21:03:36.324409,-52
2021-09-23 21:03:36.324415,-64
2021-09-23 21:03:36.324421,-52
2021-09-23 21:03:36.324427,-31
2021-09-23 21:03:36.324432,-36
2021-09-23 21:03:36.324438,-45
2021-09-23 21:03:36.324444,-50
2021-09-23 21:03:36.324450,-55
2021-09-23 21:03:36.324456,-43
2021-09-23 21:03:36.324462,-28
2021-09-23 21:03:36.324468,-36
2021-09-23 21:03:36.324473,-43
2021-09-23 21:03:36.324479,-48
2021-09-23 21:03:36.324485,-52
2021-09-23 21:03:36.324491,-31
2021-09-23 21:03:36.324497,-9
2021-09-23 21:03:36.324503,-16
2021-09-23 21:03:36.324508,-16
2021-09-23 21:03:36.324514,-16
2021-09-23 21:03:36.324520,-48
2021-09-23 21:03:36.324526,-48
2021-09-23 21:03:36.504433,-9
2021-09-23 21:03:36.504455,-4
2021-09-23 21:03:36.504462,-26
2021-09-23 21:03:36.504468,-16
2021-09-23 21:03:36.504475,76
2021-09-23 21:03:36.504480,367
2021-09-23 21:03:36.504486,868
2021-09-23 21:03:36.504492,1180
2021-09-23 21:03:36.504498,500
2021-09-23 21:03:36.504504,-625
2021-09-23 21:03:36.504510,-593
2021-09-23 21:03:36.504516,-12
2021-09-23 21:03:36.504522,-93
2021-09-23 21:03:36.504528,-233
2021-09-23 21:03:36.504534,-69
2021-09-23 21:03:36.504540,-40
2021-09-23 21:03:36.504546,-103
2021-09-23 21:03:36.504551,-55
2021-09-23 21:03:36.504557,-21
2021-09-23 21:03:36.504563,-31
2021-09-23 21:03:36.504569,-31
2021-09-23 21:03:36.504575,-31
2021-09-23 21:03:36.504581,-24
2021-09-23 21:03:36.504586,0
2021-09-23 21:03:36.504592,19
2021-09-23 21:03:36.504598,31
2021-09-23 21:03:36.504604,38
2021-09-23 21:03:36.504610,45
2021-09-23 21:03:36.504616,60
2021-09-23 21:03:36.504621,74
2021-09-23 21:03:36.729345,84
2021-09-23 21:03:36.729366,91
2021-09-23 21:03:36.729374,91
2021-09-23 21:03:36.729380,91
2021-09-23 21:03:36.729386,86
2021-09-23 21:03:36.729392,72
2021-09-23 21:03:36.729398,69
2021-09-23 21:03:36.729404,52
2021-09-23 21:03:36.729410,19
2021-09-23 21:03:36.729416,2
2021-09-23 21:03:36.729421,-19
2021-09-23 21:03:36.729427,-67
2021-09-23 21:03:36.729433,-101
2021-09-23 21:03:36.729439,-110
2021-09-23 21:03:36.729445,-117
2021-09-23 21:03:36.729450,-127
2021-09-23 21:03:36.729456,-110
2021-09-23 21:03:36.729462,-86
2021-09-23 21:03:36.729468,-81
2021-09-23 21:03:36.729474,-93
2021-09-23 21:03:36.729480,-98
2021-09-23 21:03:36.729485,-88
2021-09-23 21:03:36.729491,-74
2021-09-23 21:03:36.729497,-60
2021-09-23 21:03:36.729505,-52
2021-09-23 21:03:36.729511,-60
2021-09-23 21:03:36.729517,-62
2021-09-23 21:03:36.729523,-38
2021-09-23 21:03:36.729528,-26
2021-09-23 21:03:36.729534,-38
2021-09-23 21:03:36.999364,-45
2021-09-23 21:03:36.999385,-38
2021-09-23 21:03:36.999392,-43
2021-09-23 21:03:36.999398,-43
2021-09-23 21:03:36.999405,-28
2021-09-23 21:03:36.999411,-31
2021-09-23 21:03:36.999417,-45
2021-09-23 21:03:36.999422,-57
2021-09-23 21:03:36.999428,-45
2021-09-23 21:03:36.999434,-12
2021-09-23 21:03:36.999440,-2
2021-09-23 21:03:36.999446,-19
2021-09-23 21:03:36.999452,-36
2021-09-23 21:03:36.999457,-48
2021-09-23 21:03:36.999463,-55
2021-09-23 21:03:36.999469,-45
2021-09-23 21:03:36.999475,-33
2021-09-23 21:03:36.999480,-33
2021-09-23 21:03:36.999486,-26
2021-09-23 21:03:36.999492,2
2021-09-23 21:03:36.999498,103
2021-09-23 21:03:36.999504,401
2021-09-23 21:03:36.999509,887
2021-09-23 21:03:36.999515,1046
2021-09-23 21:03:36.999521,204
2021-09-23 21:03:36.999527,-750
2021-09-23 21:03:36.999532,-488
2021-09-23 21:03:36.999538,12
2021-09-23 21:03:36.999544,-125
2021-09-23 21:03:36.999550,-175
2021-09-23 21:03:37.179250,-45
2021-09-23 21:03:37.179269,-74
2021-09-23 21:03:37.179276,-103
2021-09-23 21:03:37.179282,-45
2021-09-23 21:03:37.179289,-19
2021-09-23 21:03:37.179295,-26
2021-09-23 21:03:37.179301,-31
2021-09-23 21:03:37.179307,-28
2021-09-23 21:03:37.179312,-4
2021-09-23 21:03:37.179318,16
2021-09-23 21:03:37.179324,19
2021-09-23 21:03:37.179330,21
2021-09-23 21:03:37.179336,28
2021-09-23 21:03:37.179342,48
2021-09-23 21:03:37.179348,72
2021-09-23 21:03:37.179354,86
2021-09-23 21:03:37.179359,84
2021-09-23 21:03:37.179365,79
2021-09-23 21:03:37.179371,76
2021-09-23 21:03:37.179377,74
2021-09-23 21:03:37.179383,72
2021-09-23 21:03:37.179388,48
2021-09-23 21:03:37.179394,21
2021-09-23 21:03:37.179400,7
2021-09-23 21:03:37.179406,-21
2021-09-23 21:03:37.179412,-55
2021-09-23 21:03:37.179417,-76
2021-09-23 21:03:37.179423,-84
2021-09-23 21:03:37.179429,-88
2021-09-23 21:03:37.179435,-113
2021-09-23 21:03:37.449346,-125
2021-09-23 21:03:37.449367,-108
2021-09-23 21:03:37.449374,-108
2021-09-23 21:03:37.449380,-125
2021-09-23 21:03:37.449386,-129
2021-09-23 21:03:37.449392,-120
2021-09-23 21:03:37.449398,-103
2021-09-23 21:03:37.449404,-81
2021-09-23 21:03:37.449410,-62
2021-09-23 21:03:37.449415,-57
2021-09-23 21:03:37.449421,-50
2021-09-23 21:03:37.449427,-48
2021-09-23 21:03:37.449433,-57
2021-09-23 21:03:37.449439,-55
2021-09-23 21:03:37.449444,-38
2021-09-23 21:03:37.449450,-38
2021-09-23 21:03:37.449456,-50
2021-09-23 21:03:37.449462,-55
2021-09-23 21:03:37.449468,-43
2021-09-23 21:03:37.449474,-28
2021-09-23 21:03:37.449480,-40
2021-09-23 21:03:37.449485,-57
2021-09-23 21:03:37.449491,-45
2021-09-23 21:03:37.449497,-26
2021-09-23 21:03:37.449503,-26
2021-09-23 21:03:37.449509,-26
2021-09-23 21:03:37.449514,-19
2021-09-23 21:03:37.449520,-26
2021-09-23 21:03:37.449526,-40
2021-09-23 21:03:37.449532,-45
2021-09-23 21:03:37.629359,-40
2021-09-23 21:03:37.629380,-38
2021-09-23 21:03:37.629387,-28
2021-09-23 21:03:37.629393,-16
2021-09-23 21:03:37.629401,4
2021-09-23 21:03:37.629407,146
2021-09-23 21:03:37.629413,507
2021-09-23 21:03:37.629419,964
2021-09-23 21:03:37.629425,865
2021-09-23 21:03:37.629431,-141
2021-09-23 21:03:37.629437,-767
2021-09-23 21:03:37.629443,-288
2021-09-23 21:03:37.629449,14
2021-09-23 21:03:37.629455,-170
2021-09-23 21:03:37.629460,-117
2021-09-23 21:03:37.629466,-9
2021-09-23 21:03:37.629472,-72
2021-09-23 21:03:37.629478,-64
2021-09-23 21:03:37.629484,-14
2021-09-23 21:03:37.629493,-33
2021-09-23 21:03:37.629499,-38
2021-09-23 21:03:37.629505,-7
2021-09-23 21:03:37.629511,-7
2021-09-23 21:03:37.629516,-14
2021-09-23 21:03:37.629522,4
2021-09-23 21:03:37.629528,26
2021-09-23 21:03:37.629534,28
2021-09-23 21:03:37.629539,31
2021-09-23 21:03:37.629545,48
2021-09-23 21:03:37.629551,57
2021-09-23 21:03:37.854359,69
2021-09-23 21:03:37.854380,96
2021-09-23 21:03:37.854387,113
2021-09-23 21:03:37.854393,96
2021-09-23 21:03:37.854399,81
2021-09-23 21:03:37.854405,93
2021-09-23 21:03:37.854410,81
2021-09-23 21:03:37.854417,40
2021-09-23 21:03:37.854423,14
2021-09-23 21:03:37.854428,-4
2021-09-23 21:03:37.854434,-40
2021-09-23 21:03:37.854440,-81
2021-09-23 21:03:37.854446,-105
2021-09-23 21:03:37.854452,-105
2021-09-23 21:03:37.854457,-105
2021-09-23 21:03:37.854463,-122
2021-09-23 21:03:37.854469,-134
2021-09-23 21:03:37.854475,-132
2021-09-23 21:03:37.854481,-120
2021-09-23 21:03:37.854487,-101
2021-09-23 21:03:37.854492,-96
2021-09-23 21:03:37.854498,-101
2021-09-23 21:03:37.854504,-86
2021-09-23 21:03:37.854509,-60
2021-09-23 21:03:37.854516,-52
2021-09-23 21:03:37.854521,-48
2021-09-23 21:03:37.854527,-36
2021-09-23 21:03:37.854533,-33
2021-09-23 21:03:37.854539,-33
2021-09-23 21:03:37.854544,-28
2021-09-23 21:03:38.168659,-36
2021-09-23 21:03:38.168679,-38
2021-09-23 21:03:38.168687,-31
2021-09-23 21:03:38.168693,-38
2021-09-23 21:03:38.168699,-52
2021-09-23 21:03:38.168705,-52
2021-09-23 21:03:38.168711,-45
2021-09-23 21:03:38.168717,-48
2021-09-23 21:03:38.168723,-33
2021-09-23 21:03:38.168729,-7
2021-09-23 21:03:38.168735,-12
2021-09-23 21:03:38.168740,-21
2021-09-23 21:03:38.168746,-21
2021-09-23 21:03:38.168752,-45
2021-09-23 21:03:38.168758,-57
2021-09-23 21:03:38.168763,-43
2021-09-23 21:03:38.168769,-24
2021-09-23 21:03:38.168775,-14
2021-09-23 21:03:38.168781,-7
2021-09-23 21:03:38.168786,38
2021-09-23 21:03:38.168792,228
2021-09-23 21:03:38.168798,630
2021-09-23 21:03:38.168804,1050
2021-09-23 21:03:38.168810,781
2021-09-23 21:03:38.168816,-254
2021-09-23 21:03:38.168822,-634
2021-09-23 21:03:38.168827,-132
2021-09-23 21:03:38.168834,-12
2021-09-23 21:03:38.168839,-199
2021-09-23 21:03:38.168845,-101
2021-09-23 21:03:38.349360,-19
2021-09-23 21:03:38.349382,-103
2021-09-23 21:03:38.349389,-103
2021-09-23 21:03:38.349395,-48
2021-09-23 21:03:38.349401,-48
2021-09-23 21:03:38.349407,-36
2021-09-23 21:03:38.349413,-2
2021-09-23 21:03:38.349419,-7
2021-09-23 21:03:38.349425,-21
2021-09-23 21:03:38.349431,0
2021-09-23 21:03:38.349436,26
2021-09-23 21:03:38.349442,33
2021-09-23 21:03:38.349448,28
2021-09-23 21:03:38.349454,26
2021-09-23 21:03:38.349460,33
2021-09-23 21:03:38.349466,50
2021-09-23 21:03:38.349472,72
2021-09-23 21:03:38.349477,74
2021-09-23 21:03:38.349483,72
2021-09-23 21:03:38.349489,84
2021-09-23 21:03:38.349495,84
2021-09-23 21:03:38.349501,64
2021-09-23 21:03:38.349507,33
2021-09-23 21:03:38.349512,4
2021-09-23 21:03:38.349518,-12
2021-09-23 21:03:38.349524,-43
2021-09-23 21:03:38.349530,-91
2021-09-23 21:03:38.349536,-108
2021-09-23 21:03:38.349542,-103
2021-09-23 21:03:38.349548,-103
2021-09-23 21:03:38.618771,-91
2021-09-23 21:03:38.618791,-86
2021-09-23 21:03:38.618799,-115
2021-09-23 21:03:38.618805,-134
2021-09-23 21:03:38.618811,-115
2021-09-23 21:03:38.618817,-93
2021-09-23 21:03:38.618823,-96
2021-09-23 21:03:38.618829,-103
2021-09-23 21:03:38.618835,-91
2021-09-23 21:03:38.618841,-72
2021-09-23 21:03:38.618847,-57
2021-09-23 21:03:38.618853,-60
2021-09-23 21:03:38.618859,-67
2021-09-23 21:03:38.618864,-55
2021-09-23 21:03:38.618870,-43
2021-09-23 21:03:38.618876,-50
2021-09-23 21:03:38.618882,-57
2021-09-23 21:03:38.618888,-45
2021-09-23 21:03:38.618894,-28
2021-09-23 21:03:38.618900,-28
2021-09-23 21:03:38.618906,-45
2021-09-23 21:03:38.618911,-48
2021-09-23 21:03:38.618917,-33
2021-09-23 21:03:38.618923,-24
2021-09-23 21:03:38.618929,-33
2021-09-23 21:03:38.618934,-36
2021-09-23 21:03:38.618940,-19
2021-09-23 21:03:38.618946,-9
2021-09-23 21:03:38.618952,-12
2021-09-23 21:03:38.618957,2
2021-09-23 21:03:38.844373,12
2021-09-23 21:03:38.844394,-9
2021-09-23 21:03:38.844402,-31
2021-09-23 21:03:38.844408,-24
2021-09-23 21:03:38.844414,-24
2021-09-23 21:03:38.844420,-38
2021-09-23 21:03:38.844426,-40
2021-09-23 21:03:38.844432,-19
2021-09-23 21:03:38.844438,50
2021-09-23 21:03:38.844444,266
2021-09-23 21:03:38.844449,699
2021-09-23 21:03:38.844455,1084
2021-09-23 21:03:38.844461,654
2021-09-23 21:03:38.844467,-379
2021-09-23 21:03:38.844473,-569
2021-09-23 21:03:38.844478,-86
2021-09-23 21:03:38.844484,-69
2021-09-23 21:03:38.844490,-192
2021-09-23 21:03:38.844495,-64
2021-09-23 21:03:38.844501,-31
2021-09-23 21:03:38.844507,-91
2021-09-23 21:03:38.844513,-55
2021-09-23 21:03:38.844518,-21
2021-09-23 21:03:38.844524,-31
2021-09-23 21:03:38.844530,-31
2021-09-23 21:03:38.844536,-19
2021-09-23 21:03:38.844541,-9
2021-09-23 21:03:38.844547,4
2021-09-23 21:03:38.844553,9
2021-09-23 21:03:38.844559,4
2021-09-23 21:03:39.024402,19
2021-09-23 21:03:39.024424,33
2021-09-23 21:03:39.024431,26
2021-09-23 21:03:39.024437,40
2021-09-23 21:03:39.024443,69
2021-09-23 21:03:39.024450,72
2021-09-23 21:03:39.024455,76
2021-09-23 21:03:39.024461,91
2021-09-23 21:03:39.024467,76
2021-09-23 21:03:39.024473,60
2021-09-23 21:03:39.024479,72
2021-09-23 21:03:39.024485,62
2021-09-23 21:03:39.024490,9
2021-09-23 21:03:39.024496,-26
2021-09-23 21:03:39.024502,-33
2021-09-23 21:03:39.024508,-64
2021-09-23 21:03:39.024514,-96
2021-09-23 21:03:39.024519,-98
2021-09-23 21:03:39.024525,-101
2021-09-23 21:03:39.024531,-101
2021-09-23 21:03:39.024537,-84
2021-09-23 21:03:39.024542,-91
2021-09-23 21:03:39.024548,-115
2021-09-23 21:03:39.024554,-113
2021-09-23 21:03:39.024559,-98
2021-09-23 21:03:39.024565,-91
2021-09-23 21:03:39.024571,-86
2021-09-23 21:03:39.024577,-76
2021-09-23 21:03:39.024582,-69
2021-09-23 21:03:39.024588,-69
2021-09-23 21:03:39.294465,-62
2021-09-23 21:03:39.294485,-52
2021-09-23 21:03:39.294493,-62
2021-09-23 21:03:39.294499,-55
2021-09-23 21:03:39.294505,-28
2021-09-23 21:03:39.294511,-26
2021-09-23 21:03:39.294517,-33
2021-09-23 21:03:39.294523,-24
2021-09-23 21:03:39.294529,-31
2021-09-23 21:03:39.294534,-57
2021-09-23 21:03:39.294540,-52
2021-09-23 21:03:39.294546,-40
2021-09-23 21:03:39.294551,-62
2021-09-23 21:03:39.294557,-67
2021-09-23 21:03:39.294563,-36
2021-09-23 21:03:39.294568,-24
2021-09-23 21:03:39.294574,-33
2021-09-23 21:03:39.294580,-48
2021-09-23 21:03:39.294586,-52
2021-09-23 21:03:39.294592,-36
2021-09-23 21:03:39.294597,-16
2021-09-23 21:03:39.294603,-9
2021-09-23 21:03:39.294609,-2
2021-09-23 21:03:39.294615,4
2021-09-23 21:03:39.294620,4
2021-09-23 21:03:39.294626,-14
2021-09-23 21:03:39.294632,-31
2021-09-23 21:03:39.294638,-21
2021-09-23 21:03:39.294644,-24
2021-09-23 21:03:39.294650,-26
2021-09-23 21:03:39.474398,12
2021-09-23 21:03:39.474420,117
2021-09-23 21:03:39.474428,384
2021-09-23 21:03:39.474434,848
2021-09-23 21:03:39.474440,1019
2021-09-23 21:03:39.474446,278
2021-09-23 21:03:39.474452,-548
2021-09-23 21:03:39.474457,-351
2021-09-23 21:03:39.474463,24
2021-09-23 21:03:39.474470,-117
2021-09-23 21:03:39.474475,-156
2021-09-23 21:03:39.474481,-24
2021-09-23 21:03:39.474487,-48
2021-09-23 21:03:39.474493,-81
2021-09-23 21:03:39.474499,-28
2021-09-23 21:03:39.474505,-26
2021-09-23 21:03:39.474511,-62
2021-09-23 21:03:39.474516,-50
2021-09-23 21:03:39.474522,-14
2021-09-23 21:03:39.474528,-12
2021-09-23 21:03:39.474534,-21
2021-09-23 21:03:39.474540,-7
2021-09-23 21:03:39.474546,19
2021-09-23 21:03:39.474552,21
2021-09-23 21:03:39.474558,19
2021-09-23 21:03:39.474564,40
2021-09-23 21:03:39.474569,57
2021-09-23 21:03:39.474575,52
2021-09-23 21:03:39.474581,62
2021-09-23 21:03:39.474587,88
2021-09-23 21:03:39.699409,101
2021-09-23 21:03:39.699430,93
2021-09-23 21:03:39.699437,79
2021-09-23 21:03:39.699444,60
2021-09-23 21:03:39.699450,45
2021-09-23 21:03:39.699456,31
2021-09-23 21:03:39.699461,-9
2021-09-23 21:03:39.699467,-50
2021-09-23 21:03:39.699473,-60
2021-09-23 21:03:39.699479,-76
2021-09-23 21:03:39.699485,-105
2021-09-23 21:03:39.699491,-103
2021-09-23 21:03:39.699497,-88
2021-09-23 21:03:39.699502,-96
2021-09-23 21:03:39.699508,-115
2021-09-23 21:03:39.699514,-127
2021-09-23 21:03:39.699520,-122
2021-09-23 21:03:39.699526,-122
2021-09-23 21:03:39.699531,-122
2021-09-23 21:03:39.699537,-110
2021-09-23 21:03:39.699543,-98
2021-09-23 21:03:39.699549,-88
2021-09-23 21:03:39.699555,-74
2021-09-23 21:03:39.699561,-76
2021-09-23 21:03:39.699566,-81
2021-09-23 21:03:39.699572,-62
2021-09-23 21:03:39.699578,-38
2021-09-23 21:03:39.699584,-28
2021-09-23 21:03:39.699590,-28
2021-09-23 21:03:39.699595,-33
2021-09-23 21:03:40.058936,-31
2021-09-23 21:03:40.058971,-26
2021-09-23 21:03:40.058978,-28
2021-09-23 21:03:40.058984,-38
2021-09-23 21:03:40.058990,-43
2021-09-23 21:03:40.058996,-21
2021-09-23 21:03:40.059002,-12
2021-09-23 21:03:40.059008,-31
2021-09-23 21:03:40.059014,-33
2021-09-23 21:03:40.059019,-33
2021-09-23 21:03:40.059025,-40
2021-09-23 21:03:40.059031,-36
2021-09-23 21:03:40.059037,-21
2021-09-23 21:03:40.059043,-9
2021-09-23 21:03:40.059049,-9
2021-09-23 21:03:40.059055,-28
2021-09-23 21:03:40.059062,-36
2021-09-23 21:03:40.059068,-16
2021-09-23 21:03:40.059074,-16
2021-09-23 21:03:40.059080,-40
2021-09-23 21:03:40.059086,-36
2021-09-23 21:03:40.059121,-16
2021-09-23 21:03:40.059127,-12
2021-09-23 21:03:40.059132,-7
2021-09-23 21:03:40.059138,24
2021-09-23 21:03:40.059144,26
2021-09-23 21:03:40.059150,-19
2021-09-23 21:03:40.059156,-40
2021-09-23 21:03:40.059162,-14
2021-09-23 21:03:40.059168,4
2021-09-23 21:03:40.283086,4
2021-09-23 21:03:40.283115,7
2021-09-23 21:03:40.283150,62
2021-09-23 21:03:40.283160,264
2021-09-23 21:03:40.283164,678
2021-09-23 21:03:40.283173,1048
2021-09-23 21:03:40.283176,632
2021-09-23 21:03:40.283179,-360
2021-09-23 21:03:40.283189,-545
2021-09-23 21:03:40.283193,-67
2021-09-23 21:03:40.283196,-43
2021-09-23 21:03:40.283205,-189
2021-09-23 21:03:40.283208,-79
2021-09-23 21:03:40.283211,-31
2021-09-23 21:03:40.283221,-81
2021-09-23 21:03:40.283224,-52
2021-09-23 21:03:40.283227,-21
2021-09-23 21:03:40.283237,-31
2021-09-23 21:03:40.283241,-24
2021-09-23 21:03:40.283250,-21
2021-09-23 21:03:40.283254,-31
2021-09-23 21:03:40.283257,-21
2021-09-23 21:03:40.283266,-7
2021-09-23 21:03:40.283269,12
2021-09-23 21:03:40.283272,26
2021-09-23 21:03:40.283282,14
2021-09-23 21:03:40.283285,24
2021-09-23 21:03:40.283288,55
2021-09-23 21:03:40.283297,64
2021-09-23 21:03:40.283300,64
2021-09-23 21:03:40.464333,81
2021-09-23 21:03:40.464352,86
2021-09-23 21:03:40.464359,72
2021-09-23 21:03:40.464365,67
2021-09-23 21:03:40.464371,64
2021-09-23 21:03:40.464377,55
2021-09-23 21:03:40.464383,38
2021-09-23 21:03:40.464388,14
2021-09-23 21:03:40.464394,-9
2021-09-23 21:03:40.464400,-21
2021-09-23 21:03:40.464406,-38
2021-09-23 21:03:40.464412,-64
2021-09-23 21:03:40.464418,-69
2021-09-23 21:03:40.464424,-72
2021-09-23 21:03:40.464429,-84
2021-09-23 21:03:40.464435,-91
2021-09-23 21:03:40.464441,-93
2021-09-23 21:03:40.464447,-81
2021-09-23 21:03:40.464452,-57
2021-09-23 21:03:40.464458,-67
2021-09-23 21:03:40.464464,-88
2021-09-23 21:03:40.464469,-76
2021-09-23 21:03:40.464475,-57
2021-09-23 21:03:40.464481,-55
2021-09-23 21:03:40.464487,-55
2021-09-23 21:03:40.464492,-40
2021-09-23 21:03:40.464498,-33
2021-09-23 21:03:40.464504,-36
2021-09-23 21:03:40.464509,-19
2021-09-23 21:03:40.464515,2
2021-09-23 21:03:40.689311,-4
2021-09-23 21:03:40.689331,-19
2021-09-23 21:03:40.689339,-31
2021-09-23 21:03:40.689345,-33
2021-09-23 21:03:40.689350,-12
2021-09-23 21:03:40.689360,2
2021-09-23 21:03:40.689366,-26
2021-09-23 21:03:40.689372,-48
2021-09-23 21:03:40.689378,-26
2021-09-23 21:03:40.689383,-7
2021-09-23 21:03:40.689389,-24
2021-09-23 21:03:40.689395,-21
2021-09-23 21:03:40.689400,-12
2021-09-23 21:03:40.689406,-21
2021-09-23 21:03:40.689412,-21
2021-09-23 21:03:40.689418,-16
2021-09-23 21:03:40.689423,-24
2021-09-23 21:03:40.689429,-21
2021-09-23 21:03:40.689435,-14
2021-09-23 21:03:40.689441,-31
2021-09-23 21:03:40.689446,-48
2021-09-23 21:03:40.689452,-38
2021-09-23 21:03:40.689457,-24
2021-09-23 21:03:40.689463,-31
2021-09-23 21:03:40.689469,-43
2021-09-23 21:03:40.689474,-45
2021-09-23 21:03:40.689480,-45
2021-09-23 21:03:40.689486,-38
2021-09-23 21:03:40.689491,-24
2021-09-23 21:03:40.689497,-19
2021-09-23 21:03:40.869470,-14
2021-09-23 21:03:40.869494,-12
2021-09-23 21:03:40.869501,-26
2021-09-23 21:03:40.869507,-43
2021-09-23 21:03:40.869513,-33
2021-09-23 21:03:40.869519,-19
2021-09-23 21:03:40.869525,-19
2021-09-23 21:03:40.869530,-21
2021-09-23 21:03:40.869536,16
2021-09-23 21:03:40.869542,182
2021-09-23 21:03:40.869548,545
2021-09-23 21:03:40.869554,969
2021-09-23 21:03:40.869559,786
2021-09-23 21:03:40.869565,-173
2021-09-23 21:03:40.869571,-618
2021-09-23 21:03:40.869577,-170
2021-09-23 21:03:40.869583,0
2021-09-23 21:03:40.869588,-170
2021-09-23 21:03:40.869594,-103
2021-09-23 21:03:40.869600,-21
2021-09-23 21:03:40.869606,-74
2021-09-23 21:03:40.869612,-50
2021-09-23 21:03:40.869617,9
2021-09-23 21:03:40.869623,-7
2021-09-23 21:03:40.869629,-26
2021-09-23 21:03:40.869635,-2
2021-09-23 21:03:40.869640,7
2021-09-23 21:03:40.869646,2
2021-09-23 21:03:40.869652,16
2021-09-23 21:03:40.869658,21
2021-09-23 21:03:41.094474,14
2021-09-23 21:03:41.094497,36
2021-09-23 21:03:41.094504,67
2021-09-23 21:03:41.094510,76
2021-09-23 21:03:41.094516,79
2021-09-23 21:03:41.094522,76
2021-09-23 21:03:41.094528,79
2021-09-23 21:03:41.094534,91
2021-09-23 21:03:41.094540,88
2021-09-23 21:03:41.094546,67
2021-09-23 21:03:41.094552,60
2021-09-23 21:03:41.094558,50
2021-09-23 21:03:41.094563,40
2021-09-23 21:03:41.094569,43
2021-09-23 21:03:41.094575,19
2021-09-23 21:03:41.094581,-24
2021-09-23 21:03:41.094587,-50
2021-09-23 21:03:41.094593,-81
2021-09-23 21:03:41.094599,-93
2021-09-23 21:03:41.094605,-79
2021-09-23 21:03:41.094611,-74
2021-09-23 21:03:41.094617,-84
2021-09-23 21:03:41.094623,-72
2021-09-23 21:03:41.094628,-60
2021-09-23 21:03:41.094634,-69
2021-09-23 21:03:41.094640,-76
2021-09-23 21:03:41.094646,-79
2021-09-23 21:03:41.094652,-76
2021-09-23 21:03:41.094658,-57
2021-09-23 21:03:41.094663,-45
2021-09-23 21:03:41.319510,-40
2021-09-23 21:03:41.319531,-33
2021-09-23 21:03:41.319538,-50
2021-09-23 21:03:41.319544,-72
2021-09-23 21:03:41.319550,-62
2021-09-23 21:03:41.319556,-50
2021-09-23 21:03:41.319562,-57
2021-09-23 21:03:41.319568,-55
2021-09-23 21:03:41.319574,-50
2021-09-23 21:03:41.319579,-52
2021-09-23 21:03:41.319585,-50
2021-09-23 21:03:41.319591,-57
2021-09-23 21:03:41.319597,-57
2021-09-23 21:03:41.319603,-55
2021-09-23 21:03:41.319608,-57
2021-09-23 21:03:41.319614,-45
2021-09-23 21:03:41.319620,-33
2021-09-23 21:03:41.319626,-36
2021-09-23 21:03:41.319632,-38
2021-09-23 21:03:41.319637,-36
2021-09-23 21:03:41.319643,-33
2021-09-23 21:03:41.319649,-31
2021-09-23 21:03:41.319654,-33
2021-09-23 21:03:41.319660,-31
2021-09-23 21:03:41.319666,-19
2021-09-23 21:03:41.319671,-12
2021-09-23 21:03:41.319677,-12
2021-09-23 21:03:41.319683,-14
2021-09-23 21:03:41.319688,-14
2021-09-23 21:03:41.319694,-19
2021-09-23 21:03:41.589680,-28
2021-09-23 21:03:41.589700,-16
2021-09-23 21:03:41.589707,7
2021-09-23 21:03:41.589714,14
2021-09-23 21:03:41.589720,7
2021-09-23 21:03:41.589726,14
2021-09-23 21:03:41.589731,24
2021-09-23 21:03:41.589737,-4
2021-09-23 21:03:41.589742,-43
2021-09-23 21:03:41.589748,-31
2021-09-23 21:03:41.589754,-4
2021-09-23 21:03:41.589760,2
2021-09-23 21:03:41.589765,16
2021-09-23 21:03:41.589771,84
2021-09-23 21:03:41.589777,293
2021-09-23 21:03:41.589783,687
2021-09-23 21:03:41.589789,1007
2021-09-23 21:03:41.589794,555
2021-09-23 21:03:41.589800,-435
2021-09-23 21:03:41.589805,-560
2021-09-23 21:03:41.589811,-36
2021-09-23 21:03:41.589816,-12
2021-09-23 21:03:41.589822,-156
2021-09-23 21:03:41.589828,-36
2021-09-23 21:03:41.589834,12
2021-09-23 21:03:41.589840,-43
2021-09-23 21:03:41.589845,-14
2021-09-23 21:03:41.589851,24
2021-09-23 21:03:41.589857,7
2021-09-23 21:03:41.589863,0
2021-09-23 21:03:41.814433,9
2021-09-23 21:03:41.814453,16
2021-09-23 21:03:41.814461,21
2021-09-23 21:03:41.814467,14
2021-09-23 21:03:41.814473,14
2021-09-23 21:03:41.814478,48
2021-09-23 21:03:41.814484,62
2021-09-23 21:03:41.814490,55
2021-09-23 21:03:41.814496,62
2021-09-23 21:03:41.814502,55
2021-09-23 21:03:41.814508,43
2021-09-23 21:03:41.814513,74
2021-09-23 21:03:41.814519,98
2021-09-23 21:03:41.814525,76
2021-09-23 21:03:41.814531,52
2021-09-23 21:03:41.814537,45
2021-09-23 21:03:41.814543,33
2021-09-23 21:03:41.814549,16
2021-09-23 21:03:41.814555,-7
2021-09-23 21:03:41.814560,-40
2021-09-23 21:03:41.814566,-60
2021-09-23 21:03:41.814572,-69
2021-09-23 21:03:41.814577,-81
2021-09-23 21:03:41.814583,-93
2021-09-23 21:03:41.814589,-101
2021-09-23 21:03:41.814595,-105
2021-09-23 21:03:41.814600,-101
2021-09-23 21:03:41.814606,-98
2021-09-23 21:03:41.814612,-103
2021-09-23 21:03:41.814618,-86
2021-09-23 21:03:42.039715,-62
2021-09-23 21:03:42.039736,-67
2021-09-23 21:03:42.039744,-79
2021-09-23 21:03:42.039750,-72
2021-09-23 21:03:42.039756,-52
2021-09-23 21:03:42.039763,-43
2021-09-23 21:03:42.039769,-36
2021-09-23 21:03:42.039776,-24
2021-09-23 21:03:42.039782,-24
2021-09-23 21:03:42.039792,-28
2021-09-23 21:03:42.039798,-14
2021-09-23 21:03:42.039804,-14
2021-09-23 21:03:42.039810,-40
2021-09-23 21:03:42.039816,-48
2021-09-23 21:03:42.039822,-31
2021-09-23 21:03:42.039828,-31
2021-09-23 21:03:42.039834,-36
2021-09-23 21:03:42.039840,-31
2021-09-23 21:03:42.039846,-26
2021-09-23 21:03:42.039852,-21
2021-09-23 21:03:42.039857,-14
2021-09-23 21:03:42.039863,-24
2021-09-23 21:03:42.039869,-36
2021-09-23 21:03:42.039875,-21
2021-09-23 21:03:42.039881,-4
2021-09-23 21:03:42.039886,-12
2021-09-23 21:03:42.039892,-26
2021-09-23 21:03:42.039898,-21
2021-09-23 21:03:42.039904,-4
2021-09-23 21:03:42.039910,-2
2021-09-23 21:03:42.308173,2
2021-09-23 21:03:42.308222,9
2021-09-23 21:03:42.308229,-4
2021-09-23 21:03:42.308235,-21
2021-09-23 21:03:42.308242,-7
2021-09-23 21:03:42.308248,12
2021-09-23 21:03:42.308254,24
2021-09-23 21:03:42.308260,19
2021-09-23 21:03:42.308266,-2
2021-09-23 21:03:42.308271,-14
2021-09-23 21:03:42.308277,0
2021-09-23 21:03:42.308283,7
2021-09-23 21:03:42.308289,-2
2021-09-23 21:03:42.308295,-2
2021-09-23 21:03:42.308301,31
2021-09-23 21:03:42.308307,182
2021-09-23 21:03:42.308313,548
2021-09-23 21:03:42.308319,1034
2021-09-23 21:03:42.308324,995
2021-09-23 21:03:42.308330,-4
2021-09-23 21:03:42.308336,-728
2021-09-23 21:03:42.308342,-305
2021-09-23 21:03:42.308348,31
2021-09-23 21:03:42.308354,-161
2021-09-23 21:03:42.308360,-151
2021-09-23 21:03:42.308366,-38
2021-09-23 21:03:42.308371,-74
2021-09-23 21:03:42.308377,-67
2021-09-23 21:03:42.308383,-24
2021-09-23 21:03:42.308389,-40
2021-09-23 21:03:42.489357,-40
2021-09-23 21:03:42.489377,-12
2021-09-23 21:03:42.489384,-9
2021-09-23 21:03:42.489389,-12
2021-09-23 21:03:42.489395,9
2021-09-23 21:03:42.489400,28
2021-09-23 21:03:42.489405,24
2021-09-23 21:03:42.489411,16
2021-09-23 21:03:42.489416,24
2021-09-23 21:03:42.489422,40
2021-09-23 21:03:42.489428,52
2021-09-23 21:03:42.489433,60
2021-09-23 21:03:42.489439,57
2021-09-23 21:03:42.489444,55
2021-09-23 21:03:42.489450,57
2021-09-23 21:03:42.489456,50
2021-09-23 21:03:42.489461,38
2021-09-23 21:03:42.489467,28
2021-09-23 21:03:42.489472,9
2021-09-23 21:03:42.489477,-12
2021-09-23 21:03:42.489482,-28
2021-09-23 21:03:42.489487,-57
2021-09-23 21:03:42.489492,-81
2021-09-23 21:03:42.489497,-81
2021-09-23 21:03:42.489502,-88
2021-09-23 21:03:42.489508,-113
2021-09-23 21:03:42.489513,-120
2021-09-23 21:03:42.489519,-110
2021-09-23 21:03:42.489525,-103
2021-09-23 21:03:42.489530,-98
2021-09-23 21:03:42.714502,-79
2021-09-23 21:03:42.714523,-67
2021-09-23 21:03:42.714530,-67
2021-09-23 21:03:42.714536,-62
2021-09-23 21:03:42.714542,-50
2021-09-23 21:03:42.714548,-60
2021-09-23 21:03:42.714554,-67
2021-09-23 21:03:42.714559,-52
2021-09-23 21:03:42.714565,-50
2021-09-23 21:03:42.714571,-62
2021-09-23 21:03:42.714577,-55
2021-09-23 21:03:42.714583,-45
2021-09-23 21:03:42.714588,-52
2021-09-23 21:03:42.714594,-50
2021-09-23 21:03:42.714600,-38
2021-09-23 21:03:42.714606,-38
2021-09-23 21:03:42.714612,-48
2021-09-23 21:03:42.714617,-55
2021-09-23 21:03:42.714623,-48
2021-09-23 21:03:42.714629,-38
2021-09-23 21:03:42.714634,-43
2021-09-23 21:03:42.714640,-64
2021-09-23 21:03:42.714646,-74
2021-09-23 21:03:42.714651,-57
2021-09-23 21:03:42.714657,-45
2021-09-23 21:03:42.714663,-40
2021-09-23 21:03:42.714668,-31
2021-09-23 21:03:42.714674,-21
2021-09-23 21:03:42.714680,-16
2021-09-23 21:03:42.714686,-24
2021-09-23 21:03:42.983798,-40
2021-09-23 21:03:42.983819,-31
2021-09-23 21:03:42.983826,-12
2021-09-23 21:03:42.983832,-9
2021-09-23 21:03:42.983837,-14
2021-09-23 21:03:42.983843,-12
2021-09-23 21:03:42.983849,98
2021-09-23 21:03:42.983855,423
2021-09-23 21:03:42.983861,836
2021-09-23 21:03:42.983866,841
2021-09-23 21:03:42.983872,-38
2021-09-23 21:03:42.983878,-853
2021-09-23 21:03:42.983884,-495
2021-09-23 21:03:42.983889,-4
2021-09-23 21:03:42.983895,-122
2021-09-23 21:03:42.983901,-125
2021-09-23 21:03:42.983907,2
2021-09-23 21:03:42.983912,-52
2021-09-23 21:03:42.983918,-76
2021-09-23 21:03:42.983924,0
2021-09-23 21:03:42.983930,12
2021-09-23 21:03:42.983935,-16
2021-09-23 21:03:42.983941,2
2021-09-23 21:03:42.983947,26
2021-09-23 21:03:42.983953,26
2021-09-23 21:03:42.983958,36
2021-09-23 21:03:42.983964,55
2021-09-23 21:03:42.983970,76
2021-09-23 21:03:42.983975,84
2021-09-23 21:03:42.983981,79
2021-09-23 21:03:43.164453,81
2021-09-23 21:03:43.164474,105
2021-09-23 21:03:43.164482,134
2021-09-23 21:03:43.164488,151
2021-09-23 21:03:43.164494,151
2021-09-23 21:03:43.164500,146
2021-09-23 21:03:43.164506,134
2021-09-23 21:03:43.164511,110
2021-09-23 21:03:43.164517,86
2021-09-23 21:03:43.164523,57
2021-09-23 21:03:43.164529,19
2021-09-23 21:03:43.164535,-26
2021-09-23 21:03:43.164541,-74
2021-09-23 21:03:43.164547,-113
2021-09-23 21:03:43.164552,-134
2021-09-23 21:03:43.164558,-144
2021-09-23 21:03:43.164564,-149
2021-09-23 21:03:43.164570,-149
2021-09-23 21:03:43.164576,-144
2021-09-23 21:03:43.164582,-134
2021-09-23 21:03:43.164588,-120
2021-09-23 21:03:43.164594,-113
2021-09-23 21:03:43.164599,-117
2021-09-23 21:03:43.164605,-110
2021-09-23 21:03:43.164611,-79
2021-09-23 21:03:43.164617,-60
2021-09-23 21:03:43.164623,-69
2021-09-23 21:03:43.164628,-76
2021-09-23 21:03:43.164634,-55
2021-09-23 21:03:43.164640,-50
2021-09-23 21:03:43.389444,-62
2021-09-23 21:03:43.389465,-52
2021-09-23 21:03:43.389472,-43
2021-09-23 21:03:43.389478,-55
2021-09-23 21:03:43.389484,-62
2021-09-23 21:03:43.389490,-55
2021-09-23 21:03:43.389496,-48
2021-09-23 21:03:43.389501,-50
2021-09-23 21:03:43.389507,-52
2021-09-23 21:03:43.389513,-57
2021-09-23 21:03:43.389518,-60
2021-09-23 21:03:43.389524,-33
2021-09-23 21:03:43.389530,-16
2021-09-23 21:03:43.389535,-36
2021-09-23 21:03:43.389541,-52
2021-09-23 21:03:43.389547,-57
2021-09-23 21:03:43.389553,-64
2021-09-23 21:03:43.389559,-57
2021-09-23 21:03:43.389564,-38
2021-09-23 21:03:43.389570,-33
2021-09-23 21:03:43.389576,-21
2021-09-23 21:03:43.389582,36
2021-09-23 21:03:43.389588,233
2021-09-23 21:03:43.389594,632
2021-09-23 21:03:43.389599,1017
2021-09-23 21:03:43.389605,658
2021-09-23 21:03:43.389611,-420
2021-09-23 21:03:43.389617,-735
2021-09-23 21:03:43.389623,-151
2021-09-23 21:03:43.389628,-7
2021-09-23 21:03:43.659435,-175
2021-09-23 21:03:43.659455,-64
2021-09-23 21:03:43.659462,4
2021-09-23 21:03:43.659468,-69
2021-09-23 21:03:43.659474,-55
2021-09-23 21:03:43.659479,-2
2021-09-23 21:03:43.659485,-9
2021-09-23 21:03:43.659492,-2
2021-09-23 21:03:43.659497,24
2021-09-23 21:03:43.659504,19
2021-09-23 21:03:43.659509,16
2021-09-23 21:03:43.659515,26
2021-09-23 21:03:43.659521,36
2021-09-23 21:03:43.659527,60
2021-09-23 21:03:43.659533,81
2021-09-23 21:03:43.659538,76
2021-09-23 21:03:43.659544,69
2021-09-23 21:03:43.659550,88
2021-09-23 21:03:43.659555,113
2021-09-23 21:03:43.659561,120
2021-09-23 21:03:43.659567,113
2021-09-23 21:03:43.659573,101
2021-09-23 21:03:43.659579,96
2021-09-23 21:03:43.659584,91
2021-09-23 21:03:43.659590,69
2021-09-23 21:03:43.659596,40
2021-09-23 21:03:43.659602,12
2021-09-23 21:03:43.659607,-19
2021-09-23 21:03:43.659613,-52
2021-09-23 21:03:43.659619,-84
2021-09-23 21:03:43.884491,-103
2021-09-23 21:03:43.884512,-110
2021-09-23 21:03:43.884520,-141
2021-09-23 21:03:43.884526,-168
2021-09-23 21:03:43.884532,-151
2021-09-23 21:03:43.884537,-132
2021-09-23 21:03:43.884544,-132
2021-09-23 21:03:43.884549,-115
2021-09-23 21:03:43.884650,-98
2021-09-23 21:03:43.884657,-96
2021-09-23 21:03:43.884663,-88
2021-09-23 21:03:43.884669,-62
2021-09-23 21:03:43.884675,-45
2021-09-23 21:03:43.884681,-45
2021-09-23 21:03:43.884687,-45
2021-09-23 21:03:43.884692,-48
2021-09-23 21:03:43.884698,-52
2021-09-23 21:03:43.884704,-50
2021-09-23 21:03:43.884710,-45
2021-09-23 21:03:43.884716,-50
2021-09-23 21:03:43.884722,-52
2021-09-23 21:03:43.884727,-50
2021-09-23 21:03:43.884733,-55
2021-09-23 21:03:43.884739,-55
2021-09-23 21:03:43.884744,-57
2021-09-23 21:03:43.884750,-64
2021-09-23 21:03:43.884756,-60
2021-09-23 21:03:43.884762,-33
2021-09-23 21:03:43.884768,-16
2021-09-23 21:03:43.884774,-14
2021-09-23 21:03:44.109421,-14
2021-09-23 21:03:44.109442,-21
2021-09-23 21:03:44.109449,-40
2021-09-23 21:03:44.109455,-43
2021-09-23 21:03:44.109461,-24
2021-09-23 21:03:44.109467,-14
2021-09-23 21:03:44.109472,-14
2021-09-23 21:03:44.109478,36
2021-09-23 21:03:44.109484,242
2021-09-23 21:03:44.109490,690
2021-09-23 21:03:44.109496,1171
2021-09-23 21:03:44.109502,870
2021-09-23 21:03:44.109508,-271
2021-09-23 21:03:44.109514,-685
2021-09-23 21:03:44.109519,-151
2021-09-23 21:03:44.109525,-19
2021-09-23 21:03:44.109531,-199
2021-09-23 21:03:44.109537,-96
2021-09-23 21:03:44.109543,-16
2021-09-23 21:03:44.109548,-74
2021-09-23 21:03:44.109554,-62
2021-09-23 21:03:44.109560,-36
2021-09-23 21:03:44.109566,-40
2021-09-23 21:03:44.109571,-21
2021-09-23 21:03:44.109577,-2
2021-09-23 21:03:44.109583,-7
2021-09-23 21:03:44.109589,-2
2021-09-23 21:03:44.109594,19
2021-09-23 21:03:44.109600,36
2021-09-23 21:03:44.109606,48
2021-09-23 21:03:44.378128,69
2021-09-23 21:03:44.378149,84
2021-09-23 21:03:44.378156,74
2021-09-23 21:03:44.378163,72
2021-09-23 21:03:44.378169,103
2021-09-23 21:03:44.378175,122
2021-09-23 21:03:44.378181,108
2021-09-23 21:03:44.378186,96
2021-09-23 21:03:44.378192,84
2021-09-23 21:03:44.378198,62
2021-09-23 21:03:44.378204,50
2021-09-23 21:03:44.378210,43
2021-09-23 21:03:44.378216,7
2021-09-23 21:03:44.378222,-36
2021-09-23 21:03:44.378228,-57
2021-09-23 21:03:44.378234,-79
2021-09-23 21:03:44.378240,-101
2021-09-23 21:03:44.378245,-93
2021-09-23 21:03:44.378251,-91
2021-09-23 21:03:44.378257,-103
2021-09-23 21:03:44.378263,-105
2021-09-23 21:03:44.378269,-96
2021-09-23 21:03:44.378275,-98
2021-09-23 21:03:44.378281,-108
2021-09-23 21:03:44.378287,-101
2021-09-23 21:03:44.378292,-86
2021-09-23 21:03:44.378298,-76
2021-09-23 21:03:44.378304,-64
2021-09-23 21:03:44.378310,-55
2021-09-23 21:03:44.378316,-50
2021-09-23 21:03:44.559469,-45
2021-09-23 21:03:44.559490,-38
2021-09-23 21:03:44.559497,-33
2021-09-23 21:03:44.559503,-26
2021-09-23 21:03:44.559509,-21
2021-09-23 21:03:44.559515,-24
2021-09-23 21:03:44.559521,-36
2021-09-23 21:03:44.559527,-55
2021-09-23 21:03:44.559532,-67
2021-09-23 21:03:44.559538,-64
2021-09-23 21:03:44.559544,-57
2021-09-23 21:03:44.559550,-52
2021-09-23 21:03:44.559556,-50
2021-09-23 21:03:44.559561,-40
2021-09-23 21:03:44.559567,-31
2021-09-23 21:03:44.559573,-24
2021-09-23 21:03:44.559579,-36
2021-09-23 21:03:44.559584,-50
2021-09-23 21:03:44.559590,-45
2021-09-23 21:03:44.559596,-36
2021-09-23 21:03:44.559602,-38
2021-09-23 21:03:44.559608,-33
2021-09-23 21:03:44.559613,-4
2021-09-23 21:03:44.559619,79
2021-09-23 21:03:44.559625,339
2021-09-23 21:03:44.559631,839
2021-09-23 21:03:44.559637,1161
2021-09-23 21:03:44.559642,512
2021-09-23 21:03:44.559648,-517
2021-09-23 21:03:44.559654,-490
2021-09-23 21:03:44.829518,-7
2021-09-23 21:03:44.829538,-93
2021-09-23 21:03:44.829546,-202
2021-09-23 21:03:44.829552,-55
2021-09-23 21:03:44.829558,-31
2021-09-23 21:03:44.829564,-93
2021-09-23 21:03:44.829570,-74
2021-09-23 21:03:44.829576,-45
2021-09-23 21:03:44.829582,-43
2021-09-23 21:03:44.829587,-31
2021-09-23 21:03:44.829593,-12
2021-09-23 21:03:44.829599,-4
2021-09-23 21:03:44.829605,-4
2021-09-23 21:03:44.829611,7
2021-09-23 21:03:44.829617,16
2021-09-23 21:03:44.829623,14
2021-09-23 21:03:44.829629,24
2021-09-23 21:03:44.829634,40
2021-09-23 21:03:44.829640,48
2021-09-23 21:03:44.829646,67
2021-09-23 21:03:44.829652,91
2021-09-23 21:03:44.829658,93
2021-09-23 21:03:44.829663,88
