Time,ECG
2021-09-23 20:57:12.964296,-19
2021-09-23 20:57:12.964316,-31
2021-09-23 20:57:12.964323,-43
2021-09-23 20:57:12.964329,-43
2021-09-23 20:57:12.964335,-38
2021-09-23 20:57:12.964341,-21
2021-09-23 20:57:12.964347,16
2021-09-23 20:57:12.964353,125
2021-09-23 20:57:12.964359,432
2021-09-23 20:57:12.964366,916
2021-09-23 20:57:12.964372,1038
2021-09-23 20:57:12.964407,197
2021-09-23 20:57:12.964413,-651
2021-09-23 20:57:12.964419,-375
2021-09-23 20:57:12.964425,21
2021-09-23 20:57:12.964431,-161
2021-09-23 20:57:12.964436,-192
2021-09-23 20:57:12.964443,-33
2021-09-23 20:57:12.964449,-57
2021-09-23 20:57:12.964454,-98
2021-09-23 20:57:12.964460,-45
2021-09-23 20:57:12.964466,-33
2021-09-23 20:57:12.964472,-50
2021-09-23 20:57:12.964478,-36
2021-09-23 20:57:12.964484,-14
2021-09-23 20:57:12.964489,-2
2021-09-23 20:57:12.964496,7
2021-09-23 20:57:12.964502,12
2021-09-23 20:57:12.964508,14
2021-09-23 20:57:12.964513,26
2021-09-23 20:57:13.190677,36
2021-09-23 20:57:13.190697,43
2021-09-23 20:57:13.190701,60
2021-09-23 20:57:13.190704,67
2021-09-23 20:57:13.190707,76
2021-09-23 20:57:13.190710,93
2021-09-23 20:57:13.190714,96
2021-09-23 20:57:13.190717,88
2021-09-23 20:57:13.190720,74
2021-09-23 20:57:13.190723,50
2021-09-23 20:57:13.190726,33
2021-09-23 20:57:13.190729,12
2021-09-23 20:57:13.190732,-16
2021-09-23 20:57:13.190736,-52
2021-09-23 20:57:13.190739,-91
2021-09-23 20:57:13.190742,-110
2021-09-23 20:57:13.190745,-101
2021-09-23 20:57:13.190748,-93
2021-09-23 20:57:13.190751,-101
2021-09-23 20:57:13.190754,-103
2021-09-23 20:57:13.190757,-98
2021-09-23 20:57:13.190760,-93
2021-09-23 20:57:13.190763,-86
2021-09-23 20:57:13.190767,-74
2021-09-23 20:57:13.190770,-72
2021-09-23 20:57:13.190772,-76
2021-09-23 20:57:13.190775,-74
2021-09-23 20:57:13.190778,-64
2021-09-23 20:57:13.190781,-50
2021-09-23 20:57:13.190786,-43
2021-09-23 20:57:13.503512,-40
2021-09-23 20:57:13.503531,-26
2021-09-23 20:57:13.503538,-21
2021-09-23 20:57:13.503552,-28
2021-09-23 20:57:13.503558,-24
2021-09-23 20:57:13.503564,-14
2021-09-23 20:57:13.503570,-19
2021-09-23 20:57:13.503576,-31
2021-09-23 20:57:13.503582,-28
2021-09-23 20:57:13.503587,-19
2021-09-23 20:57:13.503593,-14
2021-09-23 20:57:13.503599,-16
2021-09-23 20:57:13.503605,-26
2021-09-23 20:57:13.503614,-43
2021-09-23 20:57:13.503620,-45
2021-09-23 20:57:13.503625,-38
2021-09-23 20:57:13.503631,-36
2021-09-23 20:57:13.503637,-19
2021-09-23 20:57:13.503643,-7
2021-09-23 20:57:13.503648,-33
2021-09-23 20:57:13.503654,-50
2021-09-23 20:57:13.503660,-31
2021-09-23 20:57:13.503665,-19
2021-09-23 20:57:13.503671,-28
2021-09-23 20:57:13.503677,-21
2021-09-23 20:57:13.503683,9
2021-09-23 20:57:13.503689,120
2021-09-23 20:57:13.503695,449
2021-09-23 20:57:13.503700,957
2021-09-23 20:57:13.503708,1046
2021-09-23 20:57:13.684083,180
2021-09-23 20:57:13.684101,-620
2021-09-23 20:57:13.684109,-329
2021-09-23 20:57:13.684115,31
2021-09-23 20:57:13.684121,-156
2021-09-23 20:57:13.684127,-185
2021-09-23 20:57:13.684133,-43
2021-09-23 20:57:13.684138,-69
2021-09-23 20:57:13.684144,-98
2021-09-23 20:57:13.684150,-50
2021-09-23 20:57:13.684156,-36
2021-09-23 20:57:13.684162,-40
2021-09-23 20:57:13.684168,-21
2021-09-23 20:57:13.684174,-9
2021-09-23 20:57:13.684179,-19
2021-09-23 20:57:13.684185,-21
2021-09-23 20:57:13.684191,-2
2021-09-23 20:57:13.684201,26
2021-09-23 20:57:13.684207,33
2021-09-23 20:57:13.684213,36
2021-09-23 20:57:13.684219,60
2021-09-23 20:57:13.684225,79
2021-09-23 20:57:13.684230,84
2021-09-23 20:57:13.684236,101
2021-09-23 20:57:13.684242,115
2021-09-23 20:57:13.684248,101
2021-09-23 20:57:13.684254,86
2021-09-23 20:57:13.684259,91
2021-09-23 20:57:13.684265,86
2021-09-23 20:57:13.684271,55
2021-09-23 20:57:13.909104,26
2021-09-23 20:57:13.909124,-2
2021-09-23 20:57:13.909132,-52
2021-09-23 20:57:13.909138,-88
2021-09-23 20:57:13.909143,-86
2021-09-23 20:57:13.909149,-79
2021-09-23 20:57:13.909155,-98
2021-09-23 20:57:13.909166,-120
2021-09-23 20:57:13.909173,-108
2021-09-23 20:57:13.909179,-96
2021-09-23 20:57:13.909184,-108
2021-09-23 20:57:13.909190,-115
2021-09-23 20:57:13.909196,-108
2021-09-23 20:57:13.909202,-96
2021-09-23 20:57:13.909208,-86
2021-09-23 20:57:13.909214,-81
2021-09-23 20:57:13.909220,-69
2021-09-23 20:57:13.909226,-55
2021-09-23 20:57:13.909231,-57
2021-09-23 20:57:13.909237,-62
2021-09-23 20:57:13.909243,-60
2021-09-23 20:57:13.909249,-64
2021-09-23 20:57:13.909255,-62
2021-09-23 20:57:13.909261,-55
2021-09-23 20:57:13.909266,-50
2021-09-23 20:57:13.909272,-52
2021-09-23 20:57:13.909278,-52
2021-09-23 20:57:13.909283,-36
2021-09-23 20:57:13.909289,-28
2021-09-23 20:57:13.909295,-45
2021-09-23 20:57:14.134174,-48
2021-09-23 20:57:14.134195,-31
2021-09-23 20:57:14.134202,-19
2021-09-23 20:57:14.134208,-26
2021-09-23 20:57:14.134214,-40
2021-09-23 20:57:14.134220,-40
2021-09-23 20:57:14.134226,-38
2021-09-23 20:57:14.134231,-43
2021-09-23 20:57:14.134237,-40
2021-09-23 20:57:14.134243,-28
2021-09-23 20:57:14.134249,-14
2021-09-23 20:57:14.134255,-7
2021-09-23 20:57:14.134261,-19
2021-09-23 20:57:14.134267,-38
2021-09-23 20:57:14.134273,-43
2021-09-23 20:57:14.134279,-36
2021-09-23 20:57:14.134285,-33
2021-09-23 20:57:14.134290,-38
2021-09-23 20:57:14.134296,-26
2021-09-23 20:57:14.134302,38
2021-09-23 20:57:14.134307,230
2021-09-23 20:57:14.134313,618
2021-09-23 20:57:14.134319,1038
2021-09-23 20:57:14.134325,733
2021-09-23 20:57:14.134335,-391
2021-09-23 20:57:14.134342,-774
2021-09-23 20:57:14.134347,-175
2021-09-23 20:57:14.134353,-12
2021-09-23 20:57:14.134359,-192
2021-09-23 20:57:14.134365,-79
2021-09-23 20:57:14.357825,4
2021-09-23 20:57:14.357845,-72
2021-09-23 20:57:14.357853,-64
2021-09-23 20:57:14.357859,-12
2021-09-23 20:57:14.357864,-16
2021-09-23 20:57:14.357870,-21
2021-09-23 20:57:14.357876,-4
2021-09-23 20:57:14.357882,9
2021-09-23 20:57:14.357887,16
2021-09-23 20:57:14.357893,19
2021-09-23 20:57:14.357899,26
2021-09-23 20:57:14.357904,36
2021-09-23 20:57:14.357910,55
2021-09-23 20:57:14.357915,79
2021-09-23 20:57:14.357921,93
2021-09-23 20:57:14.357927,96
2021-09-23 20:57:14.357933,103
2021-09-23 20:57:14.357939,117
2021-09-23 20:57:14.357944,125
2021-09-23 20:57:14.357950,122
2021-09-23 20:57:14.357956,108
2021-09-23 20:57:14.357961,93
2021-09-23 20:57:14.357968,69
2021-09-23 20:57:14.357974,43
2021-09-23 20:57:14.357980,19
2021-09-23 20:57:14.357985,-19
2021-09-23 20:57:14.357991,-60
2021-09-23 20:57:14.357997,-81
2021-09-23 20:57:14.358003,-105
2021-09-23 20:57:14.358008,-129
2021-09-23 20:57:14.539186,-127
2021-09-23 20:57:14.539206,-120
2021-09-23 20:57:14.539213,-117
2021-09-23 20:57:14.539219,-115
2021-09-23 20:57:14.539224,-122
2021-09-23 20:57:14.539230,-122
2021-09-23 20:57:14.539236,-88
2021-09-23 20:57:14.539242,-64
2021-09-23 20:57:14.539248,-74
2021-09-23 20:57:14.539253,-76
2021-09-23 20:57:14.539259,-62
2021-09-23 20:57:14.539265,-52
2021-09-23 20:57:14.539271,-48
2021-09-23 20:57:14.539277,-52
2021-09-23 20:57:14.539282,-50
2021-09-23 20:57:14.539288,-43
2021-09-23 20:57:14.539294,-38
2021-09-23 20:57:14.539300,-40
2021-09-23 20:57:14.539305,-50
2021-09-23 20:57:14.539311,-55
2021-09-23 20:57:14.539317,-50
2021-09-23 20:57:14.539322,-55
2021-09-23 20:57:14.539328,-57
2021-09-23 20:57:14.539334,-48
2021-09-23 20:57:14.539344,-43
2021-09-23 20:57:14.539350,-36
2021-09-23 20:57:14.539356,-26
2021-09-23 20:57:14.539361,-31
2021-09-23 20:57:14.539367,-33
2021-09-23 20:57:14.539373,-21
2021-09-23 20:57:14.764198,-28
2021-09-23 20:57:14.764218,-50
2021-09-23 20:57:14.764225,-45
2021-09-23 20:57:14.764232,-36
2021-09-23 20:57:14.764238,-52
2021-09-23 20:57:14.764244,-55
2021-09-23 20:57:14.764250,-24
2021-09-23 20:57:14.764255,48
2021-09-23 20:57:14.764261,271
2021-09-23 20:57:14.764267,687
2021-09-23 20:57:14.764273,949
2021-09-23 20:57:14.764279,334
2021-09-23 20:57:14.764285,-670
2021-09-23 20:57:14.764291,-603
2021-09-23 20:57:14.764297,-38
2021-09-23 20:57:14.764303,-105
2021-09-23 20:57:14.764309,-206
2021-09-23 20:57:14.764315,-40
2021-09-23 20:57:14.764321,-33
2021-09-23 20:57:14.764327,-101
2021-09-23 20:57:14.764333,-50
2021-09-23 20:57:14.764339,-21
2021-09-23 20:57:14.764344,-38
2021-09-23 20:57:14.764350,-12
2021-09-23 20:57:14.764356,14
2021-09-23 20:57:14.764362,4
2021-09-23 20:57:14.764368,7
2021-09-23 20:57:14.764374,26
2021-09-23 20:57:14.764379,40
2021-09-23 20:57:14.764385,57
2021-09-23 20:57:15.034106,67
2021-09-23 20:57:15.034124,72
2021-09-23 20:57:15.034131,86
2021-09-23 20:57:15.034137,101
2021-09-23 20:57:15.034143,113
2021-09-23 20:57:15.034149,129
2021-09-23 20:57:15.034155,134
2021-09-23 20:57:15.034161,120
2021-09-23 20:57:15.034167,98
2021-09-23 20:57:15.034172,76
2021-09-23 20:57:15.034178,52
2021-09-23 20:57:15.034184,16
2021-09-23 20:57:15.034190,-24
2021-09-23 20:57:15.034196,-64
2021-09-23 20:57:15.034202,-103
2021-09-23 20:57:15.034207,-127
2021-09-23 20:57:15.034213,-132
2021-09-23 20:57:15.034219,-139
2021-09-23 20:57:15.034225,-144
2021-09-23 20:57:15.034231,-139
2021-09-23 20:57:15.034237,-132
2021-09-23 20:57:15.034242,-127
2021-09-23 20:57:15.034248,-122
2021-09-23 20:57:15.034254,-115
2021-09-23 20:57:15.034260,-98
2021-09-23 20:57:15.034266,-84
2021-09-23 20:57:15.034271,-84
2021-09-23 20:57:15.034277,-79
2021-09-23 20:57:15.034283,-60
2021-09-23 20:57:15.034289,-43
2021-09-23 20:57:15.259132,-33
2021-09-23 20:57:15.259150,-31
2021-09-23 20:57:15.259157,-38
2021-09-23 20:57:15.259163,-33
2021-09-23 20:57:15.259169,-21
2021-09-23 20:57:15.259175,-21
2021-09-23 20:57:15.259180,-36
2021-09-23 20:57:15.259186,-38
2021-09-23 20:57:15.259192,-36
2021-09-23 20:57:15.259198,-45
2021-09-23 20:57:15.259210,-50
2021-09-23 20:57:15.259216,-48
2021-09-23 20:57:15.259222,-28
2021-09-23 20:57:15.259228,-14
2021-09-23 20:57:15.259233,-26
2021-09-23 20:57:15.259239,-26
2021-09-23 20:57:15.259245,-14
2021-09-23 20:57:15.259250,-26
2021-09-23 20:57:15.259256,-40
2021-09-23 20:57:15.259262,-43
2021-09-23 20:57:15.259267,-43
2021-09-23 20:57:15.259273,-38
2021-09-23 20:57:15.259279,-28
2021-09-23 20:57:15.259285,-2
2021-09-23 20:57:15.259290,96
2021-09-23 20:57:15.259296,387
2021-09-23 20:57:15.259302,872
2021-09-23 20:57:15.259308,1019
2021-09-23 20:57:15.259313,216
2021-09-23 20:57:15.259319,-610
2021-09-23 20:57:15.484195,-363
2021-09-23 20:57:15.484216,19
2021-09-23 20:57:15.484223,-134
2021-09-23 20:57:15.484229,-168
2021-09-23 20:57:15.484235,-36
2021-09-23 20:57:15.484241,-50
2021-09-23 20:57:15.484246,-86
2021-09-23 20:57:15.484252,-62
2021-09-23 20:57:15.484258,-60
2021-09-23 20:57:15.484264,-67
2021-09-23 20:57:15.484270,-48
2021-09-23 20:57:15.484276,-31
2021-09-23 20:57:15.484282,-26
2021-09-23 20:57:15.484287,-24
2021-09-23 20:57:15.484293,-14
2021-09-23 20:57:15.484299,-4
2021-09-23 20:57:15.484305,7
2021-09-23 20:57:15.484311,21
2021-09-23 20:57:15.484317,36
2021-09-23 20:57:15.484322,43
2021-09-23 20:57:15.484328,50
2021-09-23 20:57:15.484334,60
2021-09-23 20:57:15.484339,76
2021-09-23 20:57:15.484345,88
2021-09-23 20:57:15.484351,86
2021-09-23 20:57:15.484361,72
2021-09-23 20:57:15.484366,52
2021-09-23 20:57:15.484372,36
2021-09-23 20:57:15.484378,14
2021-09-23 20:57:15.484384,-16
2021-09-23 20:57:15.754257,-52
2021-09-23 20:57:15.754278,-81
2021-09-23 20:57:15.754286,-86
2021-09-23 20:57:15.754292,-79
2021-09-23 20:57:15.754299,-84
2021-09-23 20:57:15.754305,-88
2021-09-23 20:57:15.754311,-88
2021-09-23 20:57:15.754317,-84
2021-09-23 20:57:15.754323,-88
2021-09-23 20:57:15.754328,-96
2021-09-23 20:57:15.754334,-84
2021-09-23 20:57:15.754340,-72
2021-09-23 20:57:15.754346,-79
2021-09-23 20:57:15.754351,-76
2021-09-23 20:57:15.754357,-57
2021-09-23 20:57:15.754363,-52
2021-09-23 20:57:15.754369,-55
2021-09-23 20:57:15.754374,-43
2021-09-23 20:57:15.754380,-31
2021-09-23 20:57:15.754386,-26
2021-09-23 20:57:15.754391,-21
2021-09-23 20:57:15.754397,-24
2021-09-23 20:57:15.754403,-28
2021-09-23 20:57:15.754408,-28
2021-09-23 20:57:15.754414,-33
2021-09-23 20:57:15.754420,-40
2021-09-23 20:57:15.754426,-43
2021-09-23 20:57:15.754431,-45
2021-09-23 20:57:15.754437,-28
2021-09-23 20:57:15.754443,-4
2021-09-23 20:57:15.934073,0
2021-09-23 20:57:15.934092,0
2021-09-23 20:57:15.934099,-7
2021-09-23 20:57:15.934105,-28
2021-09-23 20:57:15.934111,-33
2021-09-23 20:57:15.934117,-31
2021-09-23 20:57:15.934123,-33
2021-09-23 20:57:15.934129,-31
2021-09-23 20:57:15.934135,-12
2021-09-23 20:57:15.934140,33
2021-09-23 20:57:15.934146,197
2021-09-23 20:57:15.934152,593
2021-09-23 20:57:15.934158,1053
2021-09-23 20:57:15.934164,820
2021-09-23 20:57:15.934170,-168
2021-09-23 20:57:15.934175,-545
2021-09-23 20:57:15.934185,-108
2021-09-23 20:57:15.934191,-14
2021-09-23 20:57:15.934197,-211
2021-09-23 20:57:15.934203,-137
2021-09-23 20:57:15.934209,-48
2021-09-23 20:57:15.934214,-96
2021-09-23 20:57:15.934220,-88
2021-09-23 20:57:15.934226,-52
2021-09-23 20:57:15.934232,-60
2021-09-23 20:57:15.934239,-55
2021-09-23 20:57:15.934245,-38
2021-09-23 20:57:15.934250,-40
2021-09-23 20:57:15.934256,-33
2021-09-23 20:57:15.934262,-14
2021-09-23 20:57:16.159212,-7
2021-09-23 20:57:16.159233,-7
2021-09-23 20:57:16.159240,9
2021-09-23 20:57:16.159246,28
2021-09-23 20:57:16.159252,40
2021-09-23 20:57:16.159258,36
2021-09-23 20:57:16.159264,31
2021-09-23 20:57:16.159270,62
2021-09-23 20:57:16.159275,88
2021-09-23 20:57:16.159281,76
2021-09-23 20:57:16.159287,72
2021-09-23 20:57:16.159292,64
2021-09-23 20:57:16.159298,38
2021-09-23 20:57:16.159304,14
2021-09-23 20:57:16.159310,-12
2021-09-23 20:57:16.159316,-43
2021-09-23 20:57:16.159322,-67
2021-09-23 20:57:16.159327,-79
2021-09-23 20:57:16.159333,-88
2021-09-23 20:57:16.159339,-101
2021-09-23 20:57:16.159345,-98
2021-09-23 20:57:16.159350,-91
2021-09-23 20:57:16.159356,-96
2021-09-23 20:57:16.159362,-103
2021-09-23 20:57:16.159367,-98
2021-09-23 20:57:16.159373,-86
2021-09-23 20:57:16.159379,-74
2021-09-23 20:57:16.159384,-76
2021-09-23 20:57:16.159390,-86
2021-09-23 20:57:16.159396,-81
2021-09-23 20:57:16.427858,-57
2021-09-23 20:57:16.427879,-40
2021-09-23 20:57:16.427886,-45
2021-09-23 20:57:16.427892,-50
2021-09-23 20:57:16.427898,-45
2021-09-23 20:57:16.427903,-33
2021-09-23 20:57:16.427909,-14
2021-09-23 20:57:16.427915,-24
2021-09-23 20:57:16.427921,-38
2021-09-23 20:57:16.427926,-33
2021-09-23 20:57:16.427932,-24
2021-09-23 20:57:16.427938,-19
2021-09-23 20:57:16.427943,-14
2021-09-23 20:57:16.427955,-24
2021-09-23 20:57:16.427961,-33
2021-09-23 20:57:16.427967,-21
2021-09-23 20:57:16.427972,-9
2021-09-23 20:57:16.427978,-7
2021-09-23 20:57:16.427984,-2
2021-09-23 20:57:16.427990,0
2021-09-23 20:57:16.427996,-16
2021-09-23 20:57:16.428001,-33
2021-09-23 20:57:16.428007,-38
2021-09-23 20:57:16.428013,-31
2021-09-23 20:57:16.428018,-21
2021-09-23 20:57:16.428024,-14
2021-09-23 20:57:16.428030,-2
2021-09-23 20:57:16.428036,52
2021-09-23 20:57:16.428042,257
2021-09-23 20:57:16.428047,697
2021-09-23 20:57:16.609294,1161
2021-09-23 20:57:16.609314,832
2021-09-23 20:57:16.609322,-303
2021-09-23 20:57:16.609328,-644
2021-09-23 20:57:16.609334,-96
2021-09-23 20:57:16.609340,-24
2021-09-23 20:57:16.609346,-218
2021-09-23 20:57:16.609352,-98
2021-09-23 20:57:16.609357,-38
2021-09-23 20:57:16.609363,-120
2021-09-23 20:57:16.609369,-96
2021-09-23 20:57:16.609375,-48
2021-09-23 20:57:16.609381,-57
2021-09-23 20:57:16.609387,-38
2021-09-23 20:57:16.609392,-12
2021-09-23 20:57:16.609398,-14
2021-09-23 20:57:16.609404,-12
2021-09-23 20:57:16.609410,2
2021-09-23 20:57:16.609415,14
2021-09-23 20:57:16.609421,26
2021-09-23 20:57:16.609427,31
2021-09-23 20:57:16.609433,36
2021-09-23 20:57:16.609438,60
2021-09-23 20:57:16.609444,93
2021-09-23 20:57:16.609450,103
2021-09-23 20:57:16.609456,105
2021-09-23 20:57:16.609461,108
2021-09-23 20:57:16.609467,101
2021-09-23 20:57:16.609503,93
2021-09-23 20:57:16.609508,86
2021-09-23 20:57:16.879211,67
2021-09-23 20:57:16.879231,28
2021-09-23 20:57:16.879238,-7
2021-09-23 20:57:16.879244,-33
2021-09-23 20:57:16.879250,-57
2021-09-23 20:57:16.879256,-76
2021-09-23 20:57:16.879262,-93
2021-09-23 20:57:16.879268,-113
2021-09-23 20:57:16.879274,-115
2021-09-23 20:57:16.879280,-113
2021-09-23 20:57:16.879286,-108
2021-09-23 20:57:16.879291,-98
2021-09-23 20:57:16.879297,-86
2021-09-23 20:57:16.879303,-79
2021-09-23 20:57:16.879309,-81
2021-09-23 20:57:16.879315,-88
2021-09-23 20:57:16.879320,-74
2021-09-23 20:57:16.879331,-57
2021-09-23 20:57:16.879337,-50
2021-09-23 20:57:16.879343,-43
2021-09-23 20:57:16.879349,-43
2021-09-23 20:57:16.879355,-40
2021-09-23 20:57:16.879361,-33
2021-09-23 20:57:16.879366,-33
2021-09-23 20:57:16.879372,-40
2021-09-23 20:57:16.879378,-43
2021-09-23 20:57:16.879383,-45
2021-09-23 20:57:16.879389,-48
2021-09-23 20:57:16.879395,-43
2021-09-23 20:57:16.879401,-33
2021-09-23 20:57:17.104219,-31
2021-09-23 20:57:17.104234,-36
2021-09-23 20:57:17.104239,-48
2021-09-23 20:57:17.104242,-50
2021-09-23 20:57:17.104245,-26
2021-09-23 20:57:17.104248,-14
2021-09-23 20:57:17.104252,-16
2021-09-23 20:57:17.104255,-9
2021-09-23 20:57:17.104258,-24
2021-09-23 20:57:17.104261,-48
2021-09-23 20:57:17.104264,-40
2021-09-23 20:57:17.104267,-31
2021-09-23 20:57:17.104270,-36
2021-09-23 20:57:17.104273,-38
2021-09-23 20:57:17.104276,-33
2021-09-23 20:57:17.104279,4
2021-09-23 20:57:17.104282,175
2021-09-23 20:57:17.104285,565
2021-09-23 20:57:17.104288,1050
2021-09-23 20:57:17.104292,909
2021-09-23 20:57:17.104295,-177
2021-09-23 20:57:17.104298,-759
2021-09-23 20:57:17.104301,-226
2021-09-23 20:57:17.104304,31
2021-09-23 20:57:17.104307,-185
2021-09-23 20:57:17.104310,-122
2021-09-23 20:57:17.104313,-7
2021-09-23 20:57:17.104316,-76
2021-09-23 20:57:17.104319,-88
2021-09-23 20:57:17.104322,-28
2021-09-23 20:57:17.374220,-26
2021-09-23 20:57:17.374239,-36
2021-09-23 20:57:17.374246,-14
2021-09-23 20:57:17.374252,-2
2021-09-23 20:57:17.374258,-4
2021-09-23 20:57:17.374264,9
2021-09-23 20:57:17.374270,28
2021-09-23 20:57:17.374276,38
2021-09-23 20:57:17.374281,36
2021-09-23 20:57:17.374287,36
2021-09-23 20:57:17.374293,48
2021-09-23 20:57:17.374299,62
2021-09-23 20:57:17.374305,79
2021-09-23 20:57:17.374311,91
2021-09-23 20:57:17.374316,88
2021-09-23 20:57:17.374322,93
2021-09-23 20:57:17.374328,86
2021-09-23 20:57:17.374334,57
2021-09-23 20:57:17.374340,43
2021-09-23 20:57:17.374345,24
2021-09-23 20:57:17.374351,-16
2021-09-23 20:57:17.374357,-45
2021-09-23 20:57:17.374363,-62
2021-09-23 20:57:17.374368,-88
2021-09-23 20:57:17.374374,-105
2021-09-23 20:57:17.374380,-103
2021-09-23 20:57:17.374386,-110
2021-09-23 20:57:17.374391,-125
2021-09-23 20:57:17.374397,-115
2021-09-23 20:57:17.374408,-103
2021-09-23 20:57:17.689009,-105
2021-09-23 20:57:17.689031,-110
2021-09-23 20:57:17.689038,-103
2021-09-23 20:57:17.689043,-84
2021-09-23 20:57:17.689049,-69
2021-09-23 20:57:17.689054,-62
2021-09-23 20:57:17.689060,-48
2021-09-23 20:57:17.689065,-36
2021-09-23 20:57:17.689071,-40
2021-09-23 20:57:17.689076,-45
2021-09-23 20:57:17.689081,-38
2021-09-23 20:57:17.689087,-36
2021-09-23 20:57:17.689092,-45
2021-09-23 20:57:17.689098,-48
2021-09-23 20:57:17.689103,-50
2021-09-23 20:57:17.689108,-50
2021-09-23 20:57:17.689114,-40
2021-09-23 20:57:17.689119,-36
2021-09-23 20:57:17.689125,-45
2021-09-23 20:57:17.689130,-55
2021-09-23 20:57:17.689135,-55
2021-09-23 20:57:17.689141,-45
2021-09-23 20:57:17.689146,-21
2021-09-23 20:57:17.689152,-7
2021-09-23 20:57:17.689157,-14
2021-09-23 20:57:17.689162,-21
2021-09-23 20:57:17.689167,-36
2021-09-23 20:57:17.689173,-43
2021-09-23 20:57:17.689179,-26
2021-09-23 20:57:17.689184,-19
2021-09-23 20:57:17.824220,-24
2021-09-23 20:57:17.824239,-16
2021-09-23 20:57:17.824247,-2
2021-09-23 20:57:17.824253,72
2021-09-23 20:57:17.824259,315
2021-09-23 20:57:17.824265,755
2021-09-23 20:57:17.824271,1060
2021-09-23 20:57:17.824277,466
2021-09-23 20:57:17.824283,-586
2021-09-23 20:57:17.824289,-584
2021-09-23 20:57:17.824294,-19
2021-09-23 20:57:17.824300,-62
2021-09-23 20:57:17.824306,-197
2021-09-23 20:57:17.824312,-62
2021-09-23 20:57:17.824318,-26
2021-09-23 20:57:17.824324,-74
2021-09-23 20:57:17.824330,-50
2021-09-23 20:57:17.824335,-31
2021-09-23 20:57:17.824341,-33
2021-09-23 20:57:17.824347,-14
2021-09-23 20:57:17.824353,-9
2021-09-23 20:57:17.824358,-14
2021-09-23 20:57:17.824364,2
2021-09-23 20:57:17.824370,7
2021-09-23 20:57:17.824375,12
2021-09-23 20:57:17.824381,31
2021-09-23 20:57:17.824387,52
2021-09-23 20:57:17.824393,62
2021-09-23 20:57:17.824399,76
2021-09-23 20:57:17.824404,96
2021-09-23 20:57:18.004342,105
2021-09-23 20:57:18.004363,108
2021-09-23 20:57:18.004371,101
2021-09-23 20:57:18.004378,88
2021-09-23 20:57:18.004384,79
2021-09-23 20:57:18.004390,60
2021-09-23 20:57:18.004397,33
2021-09-23 20:57:18.004403,2
2021-09-23 20:57:18.004409,-38
2021-09-23 20:57:18.004415,-72
2021-09-23 20:57:18.004421,-93
2021-09-23 20:57:18.004428,-113
2021-09-23 20:57:18.004434,-132
2021-09-23 20:57:18.004440,-144
2021-09-23 20:57:18.004447,-141
2021-09-23 20:57:18.004453,-127
2021-09-23 20:57:18.004459,-125
2021-09-23 20:57:18.004495,-134
2021-09-23 20:57:18.004501,-127
2021-09-23 20:57:18.004509,-103
2021-09-23 20:57:18.004519,-91
2021-09-23 20:57:18.004525,-91
2021-09-23 20:57:18.004531,-84
2021-09-23 20:57:18.004536,-67
2021-09-23 20:57:18.004542,-48
2021-09-23 20:57:18.004548,-28
2021-09-23 20:57:18.004554,-28
2021-09-23 20:57:18.004560,-43
2021-09-23 20:57:18.004566,-43
2021-09-23 20:57:18.004572,-33
2021-09-23 20:57:18.229252,-31
2021-09-23 20:57:18.229273,-36
2021-09-23 20:57:18.229280,-38
2021-09-23 20:57:18.229286,-31
2021-09-23 20:57:18.229292,-26
2021-09-23 20:57:18.229298,-45
2021-09-23 20:57:18.229304,-60
2021-09-23 20:57:18.229310,-40
2021-09-23 20:57:18.229316,-14
2021-09-23 20:57:18.229322,-16
2021-09-23 20:57:18.229328,-19
2021-09-23 20:57:18.229334,-12
2021-09-23 20:57:18.229340,-21
2021-09-23 20:57:18.229345,-48
2021-09-23 20:57:18.229351,-57
2021-09-23 20:57:18.229357,-48
2021-09-23 20:57:18.229363,-43
2021-09-23 20:57:18.229369,-31
2021-09-23 20:57:18.229374,-4
2021-09-23 20:57:18.229380,33
2021-09-23 20:57:18.229386,204
2021-09-23 20:57:18.229392,630
2021-09-23 20:57:18.229397,1094
2021-09-23 20:57:18.229403,786
2021-09-23 20:57:18.229409,-317
2021-09-23 20:57:18.229414,-663
2021-09-23 20:57:18.229420,-115
2021-09-23 20:57:18.229426,-19
2021-09-23 20:57:18.229432,-202
2021-09-23 20:57:18.229438,-86
2021-09-23 20:57:18.498430,-21
2021-09-23 20:57:18.498448,-86
2021-09-23 20:57:18.498455,-55
2021-09-23 20:57:18.498461,-19
2021-09-23 20:57:18.498467,-43
2021-09-23 20:57:18.498473,-38
2021-09-23 20:57:18.498479,-14
2021-09-23 20:57:18.498484,-7
2021-09-23 20:57:18.498490,-4
2021-09-23 20:57:18.498496,-4
2021-09-23 20:57:18.498502,-4
2021-09-23 20:57:18.498508,9
2021-09-23 20:57:18.498513,24
2021-09-23 20:57:18.498519,26
2021-09-23 20:57:18.498525,38
2021-09-23 20:57:18.498531,55
2021-09-23 20:57:18.498537,60
2021-09-23 20:57:18.498542,76
2021-09-23 20:57:18.498548,91
2021-09-23 20:57:18.498554,81
2021-09-23 20:57:18.498560,64
2021-09-23 20:57:18.498565,48
2021-09-23 20:57:18.498571,33
2021-09-23 20:57:18.498576,7
2021-09-23 20:57:18.498582,-28
2021-09-23 20:57:18.498588,-55
2021-09-23 20:57:18.498594,-72
2021-09-23 20:57:18.498599,-98
2021-09-23 20:57:18.498605,-117
2021-09-23 20:57:18.498610,-122
2021-09-23 20:57:18.724251,-120
2021-09-23 20:57:18.724272,-122
2021-09-23 20:57:18.724279,-120
2021-09-23 20:57:18.724285,-125
2021-09-23 20:57:18.724291,-117
2021-09-23 20:57:18.724297,-96
2021-09-23 20:57:18.724303,-91
2021-09-23 20:57:18.724308,-96
2021-09-23 20:57:18.724314,-79
2021-09-23 20:57:18.724320,-74
2021-09-23 20:57:18.724326,-76
2021-09-23 20:57:18.724332,-64
2021-09-23 20:57:18.724337,-48
2021-09-23 20:57:18.724343,-33
2021-09-23 20:57:18.724349,-36
2021-09-23 20:57:18.724355,-55
2021-09-23 20:57:18.724360,-55
2021-09-23 20:57:18.724366,-45
2021-09-23 20:57:18.724372,-50
2021-09-23 20:57:18.724378,-45
2021-09-23 20:57:18.724383,-38
2021-09-23 20:57:18.724389,-50
2021-09-23 20:57:18.724399,-60
2021-09-23 20:57:18.724405,-57
2021-09-23 20:57:18.724410,-52
2021-09-23 20:57:18.724416,-45
2021-09-23 20:57:18.724422,-31
2021-09-23 20:57:18.724428,-19
2021-09-23 20:57:18.724433,-12
2021-09-23 20:57:18.724439,-2
2021-09-23 20:57:18.949146,-2
2021-09-23 20:57:18.949166,-24
2021-09-23 20:57:18.949173,-43
2021-09-23 20:57:18.949179,-43
2021-09-23 20:57:18.949186,-33
2021-09-23 20:57:18.949192,-19
2021-09-23 20:57:18.949198,-9
2021-09-23 20:57:18.949204,4
2021-09-23 20:57:18.949210,93
2021-09-23 20:57:18.949215,399
2021-09-23 20:57:18.949221,923
2021-09-23 20:57:18.949227,1144
2021-09-23 20:57:18.949233,336
2021-09-23 20:57:18.949239,-630
2021-09-23 20:57:18.949245,-432
2021-09-23 20:57:18.949251,9
2021-09-23 20:57:18.949256,-134
2021-09-23 20:57:18.949262,-189
2021-09-23 20:57:18.949268,-52
2021-09-23 20:57:18.949274,-69
2021-09-23 20:57:18.949279,-108
2021-09-23 20:57:18.949285,-62
2021-09-23 20:57:18.949291,-48
2021-09-23 20:57:18.949297,-60
2021-09-23 20:57:18.949303,-45
2021-09-23 20:57:18.949309,-33
2021-09-23 20:57:18.949314,-40
2021-09-23 20:57:18.949320,-31
2021-09-23 20:57:18.949326,-4
2021-09-23 20:57:18.949332,12
2021-09-23 20:57:19.174256,16
2021-09-23 20:57:19.174276,36
2021-09-23 20:57:19.174283,55
2021-09-23 20:57:19.174289,62
2021-09-23 20:57:19.174295,72
2021-09-23 20:57:19.174301,88
2021-09-23 20:57:19.174307,88
2021-09-23 20:57:19.174313,81
2021-09-23 20:57:19.174318,79
2021-09-23 20:57:19.174324,72
2021-09-23 20:57:19.174330,67
2021-09-23 20:57:19.174336,50
2021-09-23 20:57:19.174341,9
2021-09-23 20:57:19.174347,-33
2021-09-23 20:57:19.174353,-60
2021-09-23 20:57:19.174359,-88
2021-09-23 20:57:19.174365,-110
2021-09-23 20:57:19.174371,-110
2021-09-23 20:57:19.174377,-108
2021-09-23 20:57:19.174382,-115
2021-09-23 20:57:19.174388,-120
2021-09-23 20:57:19.174394,-117
2021-09-23 20:57:19.174400,-115
2021-09-23 20:57:19.174406,-110
2021-09-23 20:57:19.174412,-108
2021-09-23 20:57:19.174417,-105
2021-09-23 20:57:19.174423,-88
2021-09-23 20:57:19.174429,-76
2021-09-23 20:57:19.174435,-76
2021-09-23 20:57:19.174440,-62
2021-09-23 20:57:19.399218,-55
2021-09-23 20:57:19.399239,-62
2021-09-23 20:57:19.399246,-52
2021-09-23 20:57:19.399252,-38
2021-09-23 20:57:19.399258,-38
2021-09-23 20:57:19.399264,-36
2021-09-23 20:57:19.399270,-38
2021-09-23 20:57:19.399275,-48
2021-09-23 20:57:19.399281,-40
2021-09-23 20:57:19.399287,-33
2021-09-23 20:57:19.399293,-40
2021-09-23 20:57:19.399299,-36
2021-09-23 20:57:19.399305,-24
2021-09-23 20:57:19.399310,-38
2021-09-23 20:57:19.399316,-55
2021-09-23 20:57:19.399322,-45
2021-09-23 20:57:19.399328,-26
2021-09-23 20:57:19.399334,-16
2021-09-23 20:57:19.399339,-9
2021-09-23 20:57:19.399345,-7
2021-09-23 20:57:19.399351,-16
2021-09-23 20:57:19.399357,-21
2021-09-23 20:57:19.399362,-28
2021-09-23 20:57:19.399368,-43
2021-09-23 20:57:19.399374,-48
2021-09-23 20:57:19.399380,-45
2021-09-23 20:57:19.399385,-33
2021-09-23 20:57:19.399391,26
2021-09-23 20:57:19.399397,238
2021-09-23 20:57:19.399402,687
2021-09-23 20:57:19.624259,1137
2021-09-23 20:57:19.624280,759
2021-09-23 20:57:19.624287,-358
2021-09-23 20:57:19.624293,-637
2021-09-23 20:57:19.624300,-91
2021-09-23 20:57:19.624311,-31
2021-09-23 20:57:19.624317,-214
2021-09-23 20:57:19.624323,-108
2021-09-23 20:57:19.624329,-45
2021-09-23 20:57:19.624335,-101
2021-09-23 20:57:19.624341,-76
2021-09-23 20:57:19.624346,-48
2021-09-23 20:57:19.624352,-67
2021-09-23 20:57:19.624359,-50
2021-09-23 20:57:19.624365,-19
2021-09-23 20:57:19.624371,-26
2021-09-23 20:57:19.624376,-24
2021-09-23 20:57:19.624382,-2
2021-09-23 20:57:19.624388,7
2021-09-23 20:57:19.624394,14
2021-09-23 20:57:19.624400,36
2021-09-23 20:57:19.624406,55
2021-09-23 20:57:19.624411,67
2021-09-23 20:57:19.624417,79
2021-09-23 20:57:19.624423,91
2021-09-23 20:57:19.624429,101
2021-09-23 20:57:19.624434,93
2021-09-23 20:57:19.624440,86
2021-09-23 20:57:19.624446,98
2021-09-23 20:57:19.624452,91
2021-09-23 20:57:19.849268,55
2021-09-23 20:57:19.849289,31
2021-09-23 20:57:19.849296,2
2021-09-23 20:57:19.849302,-45
2021-09-23 20:57:19.849308,-72
2021-09-23 20:57:19.849314,-86
2021-09-23 20:57:19.849320,-103
2021-09-23 20:57:19.849326,-115
2021-09-23 20:57:19.849332,-113
2021-09-23 20:57:19.849337,-108
2021-09-23 20:57:19.849343,-108
2021-09-23 20:57:19.849349,-120
2021-09-23 20:57:19.849355,-125
2021-09-23 20:57:19.849360,-108
2021-09-23 20:57:19.849366,-96
2021-09-23 20:57:19.849372,-98
2021-09-23 20:57:19.849378,-88
2021-09-23 20:57:19.849384,-74
2021-09-23 20:57:19.849389,-57
2021-09-23 20:57:19.849395,-43
2021-09-23 20:57:19.849400,-55
2021-09-23 20:57:19.849406,-60
2021-09-23 20:57:19.849412,-40
2021-09-23 20:57:19.849417,-33
2021-09-23 20:57:19.849423,-33
2021-09-23 20:57:19.849429,-26
2021-09-23 20:57:19.849435,-19
2021-09-23 20:57:19.849440,-24
2021-09-23 20:57:19.849446,-40
2021-09-23 20:57:19.849452,-55
2021-09-23 20:57:20.075954,-55
2021-09-23 20:57:20.075975,-50
2021-09-23 20:57:20.075982,-45
2021-09-23 20:57:20.075988,-48
2021-09-23 20:57:20.075994,-50
2021-09-23 20:57:20.076000,-45
2021-09-23 20:57:20.076007,-38
2021-09-23 20:57:20.076013,-38
2021-09-23 20:57:20.076019,-40
2021-09-23 20:57:20.076024,-40
2021-09-23 20:57:20.076030,-40
2021-09-23 20:57:20.076036,-38
2021-09-23 20:57:20.076042,-21
2021-09-23 20:57:20.076048,-7
2021-09-23 20:57:20.076054,-12
2021-09-23 20:57:20.076060,-26
2021-09-23 20:57:20.076066,-36
2021-09-23 20:57:20.076071,-38
2021-09-23 20:57:20.076077,-31
2021-09-23 20:57:20.076083,-24
2021-09-23 20:57:20.076089,-7
2021-09-23 20:57:20.076095,52
2021-09-23 20:57:20.076100,274
2021-09-23 20:57:20.076106,747
2021-09-23 20:57:20.076112,1190
2021-09-23 20:57:20.076117,755
2021-09-23 20:57:20.076123,-370
2021-09-23 20:57:20.076129,-610
2021-09-23 20:57:20.076135,-91
2021-09-23 20:57:20.076141,-64
2021-09-23 20:57:20.299255,-216
2021-09-23 20:57:20.299275,-93
2021-09-23 20:57:20.299282,-43
2021-09-23 20:57:20.299288,-103
2021-09-23 20:57:20.299294,-84
2021-09-23 20:57:20.299299,-50
2021-09-23 20:57:20.299305,-55
2021-09-23 20:57:20.299311,-43
2021-09-23 20:57:20.299317,-26
2021-09-23 20:57:20.299322,-28
2021-09-23 20:57:20.299328,-28
2021-09-23 20:57:20.299334,-7
2021-09-23 20:57:20.299340,7
2021-09-23 20:57:20.299346,21
2021-09-23 20:57:20.299352,38
2021-09-23 20:57:20.299357,45
2021-09-23 20:57:20.299363,50
2021-09-23 20:57:20.299369,67
2021-09-23 20:57:20.299374,84
2021-09-23 20:57:20.299380,96
2021-09-23 20:57:20.299386,108
2021-09-23 20:57:20.299392,115
2021-09-23 20:57:20.299398,105
2021-09-23 20:57:20.299404,88
2021-09-23 20:57:20.299410,84
2021-09-23 20:57:20.299415,64
2021-09-23 20:57:20.299421,14
2021-09-23 20:57:20.299427,-28
2021-09-23 20:57:20.299433,-48
2021-09-23 20:57:20.299439,-64
2021-09-23 20:57:20.612906,-81
2021-09-23 20:57:20.612929,-88
2021-09-23 20:57:20.612936,-98
2021-09-23 20:57:20.612943,-115
2021-09-23 20:57:20.612948,-120
2021-09-23 20:57:20.612954,-108
2021-09-23 20:57:20.612960,-110
2021-09-23 20:57:20.612966,-117
2021-09-23 20:57:20.612971,-110
2021-09-23 20:57:20.612977,-103
2021-09-23 20:57:20.612983,-101
2021-09-23 20:57:20.612989,-84
2021-09-23 20:57:20.612995,-74
2021-09-23 20:57:20.613001,-72
2021-09-23 20:57:20.613007,-64
2021-09-23 20:57:20.613012,-57
2021-09-23 20:57:20.613018,-50
2021-09-23 20:57:20.613024,-40
2021-09-23 20:57:20.613030,-38
2021-09-23 20:57:20.613035,-36
2021-09-23 20:57:20.613041,-31
2021-09-23 20:57:20.613047,-36
2021-09-23 20:57:20.613052,-36
2021-09-23 20:57:20.613058,-31
2021-09-23 20:57:20.613064,-26
2021-09-23 20:57:20.613070,-19
2021-09-23 20:57:20.613075,-16
2021-09-23 20:57:20.613081,-24
2021-09-23 20:57:20.613087,-31
2021-09-23 20:57:20.613092,-31
2021-09-23 20:57:20.794265,-31
2021-09-23 20:57:20.794285,-31
2021-09-23 20:57:20.794291,-26
2021-09-23 20:57:20.794297,-28
2021-09-23 20:57:20.794304,-40
2021-09-23 20:57:20.794309,-40
2021-09-23 20:57:20.794315,-24
2021-09-23 20:57:20.794321,-16
2021-09-23 20:57:20.794327,-16
2021-09-23 20:57:20.794333,-24
2021-09-23 20:57:20.794338,-16
2021-09-23 20:57:20.794344,2
2021-09-23 20:57:20.794350,-4
2021-09-23 20:57:20.794356,-36
2021-09-23 20:57:20.794362,-52
2021-09-23 20:57:20.794368,-43
2021-09-23 20:57:20.794373,-33
2021-09-23 20:57:20.794379,-36
2021-09-23 20:57:20.794385,-21
2021-09-23 20:57:20.794391,72
2021-09-23 20:57:20.794397,336
2021-09-23 20:57:20.794403,836
2021-09-23 20:57:20.794408,1199
2021-09-23 20:57:20.794414,584
2021-09-23 20:57:20.794420,-502
2021-09-23 20:57:20.794426,-521
2021-09-23 20:57:20.794431,-16
2021-09-23 20:57:20.794437,-101
2021-09-23 20:57:20.794443,-214
2021-09-23 20:57:20.794449,-60
2021-09-23 20:57:21.109274,-43
2021-09-23 20:57:21.109296,-101
2021-09-23 20:57:21.109303,-50
2021-09-23 20:57:21.109309,-21
2021-09-23 20:57:21.109315,-40
2021-09-23 20:57:21.109321,-31
2021-09-23 20:57:21.109327,-16
2021-09-23 20:57:21.109333,-21
2021-09-23 20:57:21.109338,-16
2021-09-23 20:57:21.109344,-4
2021-09-23 20:57:21.109350,2
2021-09-23 20:57:21.109356,21
2021-09-23 20:57:21.109362,33
2021-09-23 20:57:21.109368,24
2021-09-23 20:57:21.109373,31
2021-09-23 20:57:21.109379,60
2021-09-23 20:57:21.109385,76
2021-09-23 20:57:21.109391,88
2021-09-23 20:57:21.109397,98
2021-09-23 20:57:21.109403,93
2021-09-23 20:57:21.109409,76
2021-09-23 20:57:21.109414,64
2021-09-23 20:57:21.109420,62
2021-09-23 20:57:21.109426,45
2021-09-23 20:57:21.109431,9
2021-09-23 20:57:21.109437,-21
2021-09-23 20:57:21.109443,-48
2021-09-23 20:57:21.109449,-72
2021-09-23 20:57:21.109454,-91
2021-09-23 20:57:21.109460,-98
2021-09-23 20:57:21.244285,-101
2021-09-23 20:57:21.244307,-96
2021-09-23 20:57:21.244314,-91
2021-09-23 20:57:21.244320,-86
2021-09-23 20:57:21.244326,-84
2021-09-23 20:57:21.244332,-76
2021-09-23 20:57:21.244337,-72
2021-09-23 20:57:21.244343,-79
2021-09-23 20:57:21.244349,-86
2021-09-23 20:57:21.244354,-81
2021-09-23 20:57:21.244360,-64
2021-09-23 20:57:21.244366,-52
2021-09-23 20:57:21.244371,-52
2021-09-23 20:57:21.244377,-48
2021-09-23 20:57:21.244383,-36
2021-09-23 20:57:21.244389,-31
2021-09-23 20:57:21.244395,-40
2021-09-23 20:57:21.244400,-48
2021-09-23 20:57:21.244406,-40
2021-09-23 20:57:21.244412,-31
2021-09-23 20:57:21.244417,-31
2021-09-23 20:57:21.244423,-38
2021-09-23 20:57:21.244428,-40
2021-09-23 20:57:21.244434,-28
2021-09-23 20:57:21.244439,-24
2021-09-23 20:57:21.244445,-26
2021-09-23 20:57:21.244451,-33
2021-09-23 20:57:21.244457,-36
2021-09-23 20:57:21.244462,-26
2021-09-23 20:57:21.244468,-24
2021-09-23 20:57:21.514281,-38
2021-09-23 20:57:21.514303,-36
2021-09-23 20:57:21.514310,-24
2021-09-23 20:57:21.514316,-36
2021-09-23 20:57:21.514322,-40
2021-09-23 20:57:21.514328,-24
2021-09-23 20:57:21.514334,-24
2021-09-23 20:57:21.514340,-40
2021-09-23 20:57:21.514345,-38
2021-09-23 20:57:21.514351,-40
2021-09-23 20:57:21.514357,-55
2021-09-23 20:57:21.514366,-43
2021-09-23 20:57:21.514372,-16
2021-09-23 20:57:21.514378,-9
2021-09-23 20:57:21.514384,-12
2021-09-23 20:57:21.514390,-24
2021-09-23 20:57:21.514395,-38
2021-09-23 20:57:21.514401,-40
2021-09-23 20:57:21.514407,-40
2021-09-23 20:57:21.514412,-43
2021-09-23 20:57:21.514418,-31
2021-09-23 20:57:21.514424,-9
2021-09-23 20:57:21.514429,36
2021-09-23 20:57:21.514436,223
2021-09-23 20:57:21.514441,670
2021-09-23 20:57:21.514447,1168
2021-09-23 20:57:21.514453,872
2021-09-23 20:57:21.514459,-240
2021-09-23 20:57:21.514464,-625
2021-09-23 20:57:21.514470,-122
2021-09-23 20:57:21.694267,-24
2021-09-23 20:57:21.694287,-189
2021-09-23 20:57:21.694294,-84
2021-09-23 20:57:21.694300,-26
2021-09-23 20:57:21.694306,-96
2021-09-23 20:57:21.694312,-81
2021-09-23 20:57:21.694318,-43
2021-09-23 20:57:21.694324,-45
2021-09-23 20:57:21.694330,-33
2021-09-23 20:57:21.694336,-4
2021-09-23 20:57:21.694342,7
2021-09-23 20:57:21.694348,4
2021-09-23 20:57:21.694354,7
2021-09-23 20:57:21.694359,16
2021-09-23 20:57:21.694365,16
2021-09-23 20:57:21.694371,21
2021-09-23 20:57:21.694377,48
2021-09-23 20:57:21.694383,67
2021-09-23 20:57:21.694389,76
2021-09-23 20:57:21.694394,84
2021-09-23 20:57:21.694400,96
2021-09-23 20:57:21.694406,105
2021-09-23 20:57:21.694412,105
2021-09-23 20:57:21.694417,93
2021-09-23 20:57:21.694423,84
2021-09-23 20:57:21.694428,84
2021-09-23 20:57:21.694434,76
2021-09-23 20:57:21.694440,45
2021-09-23 20:57:21.694445,-2
2021-09-23 20:57:21.694451,-40
2021-09-23 20:57:21.919281,-57
2021-09-23 20:57:21.919301,-62
2021-09-23 20:57:21.919308,-81
2021-09-23 20:57:21.919314,-103
2021-09-23 20:57:21.919320,-108
2021-09-23 20:57:21.919326,-110
2021-09-23 20:57:21.919331,-103
2021-09-23 20:57:21.919337,-88
2021-09-23 20:57:21.919343,-96
2021-09-23 20:57:21.919349,-103
2021-09-23 20:57:21.919355,-93
2021-09-23 20:57:21.919360,-88
2021-09-23 20:57:21.919366,-86
2021-09-23 20:57:21.919372,-74
2021-09-23 20:57:21.919378,-72
2021-09-23 20:57:21.919384,-84
2021-09-23 20:57:21.919389,-79
2021-09-23 20:57:21.919395,-69
2021-09-23 20:57:21.919401,-64
2021-09-23 20:57:21.919407,-55
2021-09-23 20:57:21.919412,-57
2021-09-23 20:57:21.919418,-64
2021-09-23 20:57:21.919423,-55
2021-09-23 20:57:21.919429,-55
2021-09-23 20:57:21.919435,-74
2021-09-23 20:57:21.919440,-74
2021-09-23 20:57:21.919446,-62
2021-09-23 20:57:21.919452,-67
2021-09-23 20:57:21.919457,-72
2021-09-23 20:57:21.919463,-60
2021-09-23 20:57:22.144788,-48
2021-09-23 20:57:22.144809,-48
2021-09-23 20:57:22.144817,-45
2021-09-23 20:57:22.144823,-52
2021-09-23 20:57:22.144829,-62
2021-09-23 20:57:22.144835,-55
2021-09-23 20:57:22.144841,-48
2021-09-23 20:57:22.144846,-48
2021-09-23 20:57:22.144852,-48
2021-09-23 20:57:22.144858,-45
2021-09-23 20:57:22.144864,-43
2021-09-23 20:57:22.144870,-33
2021-09-23 20:57:22.144876,-36
2021-09-23 20:57:22.144882,-38
2021-09-23 20:57:22.144888,-33
2021-09-23 20:57:22.144893,-19
2021-09-23 20:57:22.144899,-21
2021-09-23 20:57:22.144905,-21
2021-09-23 20:57:22.144911,7
2021-09-23 20:57:22.144917,19
2021-09-23 20:57:22.144923,-7
2021-09-23 20:57:22.144929,-33
2021-09-23 20:57:22.144934,-38
2021-09-23 20:57:22.144940,-24
2021-09-23 20:57:22.144946,-4
2021-09-23 20:57:22.144952,-4
2021-09-23 20:57:22.144957,-2
2021-09-23 20:57:22.144963,79
2021-09-23 20:57:22.144969,348
2021-09-23 20:57:22.144975,844
2021-09-23 20:57:22.414272,1204
2021-09-23 20:57:22.414292,608
2021-09-23 20:57:22.414300,-473
2021-09-23 20:57:22.414306,-517
2021-09-23 20:57:22.414312,-16
2021-09-23 20:57:22.414318,-79
2021-09-23 20:57:22.414323,-197
2021-09-23 20:57:22.414329,-57
2021-09-23 20:57:22.414335,-38
2021-09-23 20:57:22.414340,-101
2021-09-23 20:57:22.414346,-60
2021-09-23 20:57:22.414352,-16
2021-09-23 20:57:22.414357,-28
2021-09-23 20:57:22.414363,-24
2021-09-23 20:57:22.414369,2
2021-09-23 20:57:22.414374,7
2021-09-23 20:57:22.414380,7
2021-09-23 20:57:22.414386,12
2021-09-23 20:57:22.414392,14
2021-09-23 20:57:22.414397,26
2021-09-23 20:57:22.414403,48
2021-09-23 20:57:22.414409,50
2021-09-23 20:57:22.414415,52
2021-09-23 20:57:22.414420,81
2021-09-23 20:57:22.414426,110
2021-09-23 20:57:22.414432,115
2021-09-23 20:57:22.414438,120
2021-09-23 20:57:22.414444,120
2021-09-23 20:57:22.414449,103
2021-09-23 20:57:22.414455,91
2021-09-23 20:57:22.683043,76
2021-09-23 20:57:22.683062,55
2021-09-23 20:57:22.683069,21
2021-09-23 20:57:22.683075,-24
2021-09-23 20:57:22.683081,-50
2021-09-23 20:57:22.683087,-60
2021-09-23 20:57:22.683093,-76
2021-09-23 20:57:22.683098,-96
2021-09-23 20:57:22.683107,-110
2021-09-23 20:57:22.683114,-122
2021-09-23 20:57:22.683119,-117
2021-09-23 20:57:22.683125,-108
2021-09-23 20:57:22.683131,-103
2021-09-23 20:57:22.683137,-98
2021-09-23 20:57:22.683142,-96
2021-09-23 20:57:22.683148,-103
2021-09-23 20:57:22.683154,-101
2021-09-23 20:57:22.683159,-88
2021-09-23 20:57:22.683165,-79
2021-09-23 20:57:22.683171,-76
2021-09-23 20:57:22.683176,-76
2021-09-23 20:57:22.683182,-62
2021-09-23 20:57:22.683188,-40
2021-09-23 20:57:22.683194,-31
2021-09-23 20:57:22.683200,-36
2021-09-23 20:57:22.683205,-28
2021-09-23 20:57:22.683211,-33
2021-09-23 20:57:22.683217,-48
2021-09-23 20:57:22.683222,-31
2021-09-23 20:57:22.683228,-14
2021-09-23 20:57:22.864195,-14
2021-09-23 20:57:22.864213,-9
2021-09-23 20:57:22.864220,-4
2021-09-23 20:57:22.864226,-16
2021-09-23 20:57:22.864232,-21
2021-09-23 20:57:22.864238,-12
2021-09-23 20:57:22.864244,-12
2021-09-23 20:57:22.864250,-19
2021-09-23 20:57:22.864256,-21
2021-09-23 20:57:22.864261,-19
2021-09-23 20:57:22.864267,-7
2021-09-23 20:57:22.864273,-4
2021-09-23 20:57:22.864279,-14
2021-09-23 20:57:22.864284,-19
2021-09-23 20:57:22.864290,-12
2021-09-23 20:57:22.864296,-12
2021-09-23 20:57:22.864302,-19
2021-09-23 20:57:22.864307,-14
2021-09-23 20:57:22.864313,0
2021-09-23 20:57:22.864319,4
2021-09-23 20:57:22.864324,-14
2021-09-23 20:57:22.864330,-24
2021-09-23 20:57:22.864336,-9
2021-09-23 20:57:22.864342,2
2021-09-23 20:57:22.864347,7
2021-09-23 20:57:22.864353,12
2021-09-23 20:57:22.864358,16
2021-09-23 20:57:22.864364,16
2021-09-23 20:57:22.864370,-2
2021-09-23 20:57:22.864376,-14
2021-09-23 20:57:23.089301,-4
2021-09-23 20:57:23.089322,-2
2021-09-23 20:57:23.089328,2
2021-09-23 20:57:23.089334,26
2021-09-23 20:57:23.089339,103
2021-09-23 20:57:23.089344,367
2021-09-23 20:57:23.089349,887
2021-09-23 20:57:23.089354,1243
2021-09-23 20:57:23.089359,591
2021-09-23 20:57:23.089363,-492
2021-09-23 20:57:23.089368,-505
2021-09-23 20:57:23.089373,-21
2021-09-23 20:57:23.089378,-103
2021-09-23 20:57:23.089383,-211
2021-09-23 20:57:23.089387,-72
2021-09-23 20:57:23.089392,-52
2021-09-23 20:57:23.089397,-108
2021-09-23 20:57:23.089401,-72
2021-09-23 20:57:23.089406,-38
2021-09-23 20:57:23.089411,-38
2021-09-23 20:57:23.089415,-33
2021-09-23 20:57:23.089420,-24
2021-09-23 20:57:23.089425,-12
2021-09-23 20:57:23.089430,9
2021-09-23 20:57:23.089434,14
2021-09-23 20:57:23.089440,9
2021-09-23 20:57:23.089445,19
2021-09-23 20:57:23.089451,31
2021-09-23 20:57:23.089456,43
2021-09-23 20:57:23.089490,50
2021-09-23 20:57:23.359322,62
2021-09-23 20:57:23.359341,76
2021-09-23 20:57:23.359348,93
2021-09-23 20:57:23.359354,103
2021-09-23 20:57:23.359359,105
2021-09-23 20:57:23.359365,98
2021-09-23 20:57:23.359371,81
2021-09-23 20:57:23.359377,64
2021-09-23 20:57:23.359383,55
2021-09-23 20:57:23.359389,26
2021-09-23 20:57:23.359395,-16
2021-09-23 20:57:23.359400,-50
2021-09-23 20:57:23.359406,-74
2021-09-23 20:57:23.359412,-84
2021-09-23 20:57:23.359418,-96
2021-09-23 20:57:23.359424,-110
2021-09-23 20:57:23.359429,-105
2021-09-23 20:57:23.359435,-91
2021-09-23 20:57:23.359441,-91
2021-09-23 20:57:23.359447,-88
2021-09-23 20:57:23.359452,-81
2021-09-23 20:57:23.359458,-74
2021-09-23 20:57:23.359464,-76
2021-09-23 20:57:23.359470,-81
2021-09-23 20:57:23.359476,-72
2021-09-23 20:57:23.359482,-57
2021-09-23 20:57:23.359487,-57
2021-09-23 20:57:23.359493,-52
2021-09-23 20:57:23.359499,-38
2021-09-23 20:57:23.359504,-36
2021-09-23 20:57:23.539345,-38
2021-09-23 20:57:23.539367,-24
2021-09-23 20:57:23.539375,-12
2021-09-23 20:57:23.539381,-26
2021-09-23 20:57:23.539387,-28
2021-09-23 20:57:23.539393,-19
2021-09-23 20:57:23.539399,-21
2021-09-23 20:57:23.539405,-16
2021-09-23 20:57:23.539441,-9
2021-09-23 20:57:23.539447,-19
2021-09-23 20:57:23.539453,-26
2021-09-23 20:57:23.539458,-14
2021-09-23 20:57:23.539464,-14
2021-09-23 20:57:23.539470,-19
2021-09-23 20:57:23.539476,-19
2021-09-23 20:57:23.539481,-19
2021-09-23 20:57:23.539487,-19
2021-09-23 20:57:23.539493,-24
2021-09-23 20:57:23.539499,-28
2021-09-23 20:57:23.539504,-14
2021-09-23 20:57:23.539510,-7
2021-09-23 20:57:23.539516,-16
2021-09-23 20:57:23.539521,-16
2021-09-23 20:57:23.539527,-7
2021-09-23 20:57:23.539532,-4
2021-09-23 20:57:23.539538,-2
2021-09-23 20:57:23.539544,-2
2021-09-23 20:57:23.539549,-9
2021-09-23 20:57:23.539555,-14
2021-09-23 20:57:23.539561,-9
2021-09-23 20:57:23.808706,7
2021-09-23 20:57:23.808726,26
2021-09-23 20:57:23.808733,38
2021-09-23 20:57:23.808739,36
2021-09-23 20:57:23.808745,2
2021-09-23 20:57:23.808751,-33
2021-09-23 20:57:23.808757,-36
2021-09-23 20:57:23.808762,-24
2021-09-23 20:57:23.808768,-14
2021-09-23 20:57:23.808774,-4
2021-09-23 20:57:23.808780,16
2021-09-23 20:57:23.808786,122
2021-09-23 20:57:23.808792,452
2021-09-23 20:57:23.808798,1010
2021-09-23 20:57:23.808804,1199
2021-09-23 20:57:23.808810,324
2021-09-23 20:57:23.808816,-620
2021-09-23 20:57:23.808821,-387
2021-09-23 20:57:23.808827,21
2021-09-23 20:57:23.808833,-146
2021-09-23 20:57:23.808839,-189
2021-09-23 20:57:23.808844,-45
2021-09-23 20:57:23.808850,-69
2021-09-23 20:57:23.808860,-105
2021-09-23 20:57:23.808866,-50
2021-09-23 20:57:23.808872,-40
2021-09-23 20:57:23.808878,-57
2021-09-23 20:57:23.808883,-33
2021-09-23 20:57:23.808889,-19
2021-09-23 20:57:23.808895,-21
2021-09-23 20:57:23.989598,-7
2021-09-23 20:57:23.989620,4
2021-09-23 20:57:23.989628,9
2021-09-23 20:57:23.989634,21
2021-09-23 20:57:23.989640,31
2021-09-23 20:57:23.989646,33
2021-09-23 20:57:23.989652,43
2021-09-23 20:57:23.989657,67
2021-09-23 20:57:23.989663,91
2021-09-23 20:57:23.989668,98
2021-09-23 20:57:23.989674,98
2021-09-23 20:57:23.989679,101
2021-09-23 20:57:23.989685,101
2021-09-23 20:57:23.989690,84
2021-09-23 20:57:23.989696,69
2021-09-23 20:57:23.989702,57
2021-09-23 20:57:23.989707,21
2021-09-23 20:57:23.989713,-31
2021-09-23 20:57:23.989718,-64
2021-09-23 20:57:23.989724,-74
2021-09-23 20:57:23.989730,-86
2021-09-23 20:57:23.989736,-103
2021-09-23 20:57:23.989741,-113
2021-09-23 20:57:23.989747,-108
2021-09-23 20:57:23.989753,-103
2021-09-23 20:57:23.989759,-101
2021-09-23 20:57:23.989764,-96
2021-09-23 20:57:23.989770,-88
2021-09-23 20:57:23.989776,-84
2021-09-23 20:57:23.989781,-76
2021-09-23 20:57:24.259269,-64
2021-09-23 20:57:24.259287,-62
2021-09-23 20:57:24.259294,-64
2021-09-23 20:57:24.259300,-72
2021-09-23 20:57:24.259306,-81
2021-09-23 20:57:24.259312,-64
2021-09-23 20:57:24.259318,-43
2021-09-23 20:57:24.259324,-38
2021-09-23 20:57:24.259329,-31
2021-09-23 20:57:24.259335,-28
2021-09-23 20:57:24.259341,-33
2021-09-23 20:57:24.259347,-26
2021-09-23 20:57:24.259352,-24
2021-09-23 20:57:24.259359,-24
2021-09-23 20:57:24.259365,-26
2021-09-23 20:57:24.259370,-26
2021-09-23 20:57:24.259376,-26
2021-09-23 20:57:24.259382,-26
2021-09-23 20:57:24.259388,-24
2021-09-23 20:57:24.259393,-16
2021-09-23 20:57:24.259399,-9
2021-09-23 20:57:24.259405,-12
2021-09-23 20:57:24.259411,-21
2021-09-23 20:57:24.259416,-21
2021-09-23 20:57:24.259422,-9
2021-09-23 20:57:24.259427,-2
2021-09-23 20:57:24.259433,-12
2021-09-23 20:57:24.259439,-24
2021-09-23 20:57:24.259444,-16
2021-09-23 20:57:24.259450,-2
2021-09-23 20:57:24.484360,2
2021-09-23 20:57:24.484380,0
2021-09-23 20:57:24.484388,-12
2021-09-23 20:57:24.484393,-19
2021-09-23 20:57:24.484399,-14
2021-09-23 20:57:24.484405,-14
2021-09-23 20:57:24.484411,-16
2021-09-23 20:57:24.484417,-16
2021-09-23 20:57:24.484423,-24
2021-09-23 20:57:24.484428,-16
2021-09-23 20:57:24.484434,2
2021-09-23 20:57:24.484440,16
2021-09-23 20:57:24.484446,28
2021-09-23 20:57:24.484452,21
2021-09-23 20:57:24.484457,-14
2021-09-23 20:57:24.484463,-40
2021-09-23 20:57:24.484469,-33
2021-09-23 20:57:24.484475,-24
2021-09-23 20:57:24.484481,-16
2021-09-23 20:57:24.484486,-2
2021-09-23 20:57:24.484492,31
2021-09-23 20:57:24.484498,180
2021-09-23 20:57:24.484504,586
2021-09-23 20:57:24.484510,1135
2021-09-23 20:57:24.484515,1041
2021-09-23 20:57:24.484521,-48
2021-09-23 20:57:24.484527,-682
2021-09-23 20:57:24.484533,-235
2021-09-23 20:57:24.484538,-14
2021-09-23 20:57:24.484544,-211
2021-09-23 20:57:24.798589,-149
2021-09-23 20:57:24.798609,-38
2021-09-23 20:57:24.798616,-96
2021-09-23 20:57:24.798622,-91
2021-09-23 20:57:24.798628,-33
2021-09-23 20:57:24.798634,-43
2021-09-23 20:57:24.798640,-55
2021-09-23 20:57:24.798646,-40
2021-09-23 20:57:24.798651,-40
2021-09-23 20:57:24.798657,-36
2021-09-23 20:57:24.798663,-4
2021-09-23 20:57:24.798669,12
2021-09-23 20:57:24.798675,16
2021-09-23 20:57:24.798680,33
2021-09-23 20:57:24.798686,36
2021-09-23 20:57:24.798692,38
2021-09-23 20:57:24.798698,57
2021-09-23 20:57:24.798704,76
2021-09-23 20:57:24.798709,88
2021-09-23 20:57:24.798715,101
2021-09-23 20:57:24.798721,105
2021-09-23 20:57:24.798727,105
2021-09-23 20:57:24.798733,93
2021-09-23 20:57:24.798739,86
2021-09-23 20:57:24.798744,86
2021-09-23 20:57:24.798750,67
2021-09-23 20:57:24.798756,19
2021-09-23 20:57:24.798762,-24
2021-09-23 20:57:24.798768,-38
2021-09-23 20:57:24.798774,-45
2021-09-23 20:57:24.934306,-72
2021-09-23 20:57:24.934326,-96
2021-09-23 20:57:24.934334,-91
2021-09-23 20:57:24.934340,-79
2021-09-23 20:57:24.934346,-76
2021-09-23 20:57:24.934351,-72
2021-09-23 20:57:24.934357,-69
2021-09-23 20:57:24.934363,-84
2021-09-23 20:57:24.934369,-91
2021-09-23 20:57:24.934374,-81
2021-09-23 20:57:24.934380,-74
2021-09-23 20:57:24.934386,-62
2021-09-23 20:57:24.934392,-55
2021-09-23 20:57:24.934398,-50
2021-09-23 20:57:24.934403,-38
2021-09-23 20:57:24.934409,-36
2021-09-23 20:57:24.934415,-38
2021-09-23 20:57:24.934421,-26
2021-09-23 20:57:24.934426,-19
2021-09-23 20:57:24.934432,-26
2021-09-23 20:57:24.934438,-28
2021-09-23 20:57:24.934443,-26
2021-09-23 20:57:24.934449,-12
2021-09-23 20:57:24.934455,4
2021-09-23 20:57:24.934461,-12
2021-09-23 20:57:24.934467,-38
2021-09-23 20:57:24.934472,-26
2021-09-23 20:57:24.934478,-14
2021-09-23 20:57:24.934484,-28
2021-09-23 20:57:24.934489,-40
2021-09-23 20:57:25.159354,-31
2021-09-23 20:57:25.159375,-21
2021-09-23 20:57:25.159382,-16
2021-09-23 20:57:25.159389,-16
2021-09-23 20:57:25.159395,-26
2021-09-23 20:57:25.159401,-26
2021-09-23 20:57:25.159406,-31
2021-09-23 20:57:25.159412,-36
2021-09-23 20:57:25.159418,-33
2021-09-23 20:57:25.159424,-31
2021-09-23 20:57:25.159430,-26
2021-09-23 20:57:25.159436,-16
2021-09-23 20:57:25.159442,-26
2021-09-23 20:57:25.159448,-48
2021-09-23 20:57:25.159454,-43
2021-09-23 20:57:25.159460,-16
2021-09-23 20:57:25.159465,2
2021-09-23 20:57:25.159471,12
2021-09-23 20:57:25.159477,7
2021-09-23 20:57:25.159483,-9
2021-09-23 20:57:25.159488,-31
2021-09-23 20:57:25.159494,-38
2021-09-23 20:57:25.159500,-28
2021-09-23 20:57:25.159506,-21
2021-09-23 20:57:25.159511,-28
2021-09-23 20:57:25.159517,-19
2021-09-23 20:57:25.159523,55
2021-09-23 20:57:25.159529,290
2021-09-23 20:57:25.159534,769
2021-09-23 20:57:25.159543,1192
2021-09-23 20:57:25.474343,714
2021-09-23 20:57:25.474364,-399
2021-09-23 20:57:25.474371,-581
2021-09-23 20:57:25.474377,-67
2021-09-23 20:57:25.474383,-67
2021-09-23 20:57:25.474389,-214
2021-09-23 20:57:25.474394,-88
2021-09-23 20:57:25.474400,-50
2021-09-23 20:57:25.474406,-101
2021-09-23 20:57:25.474412,-60
2021-09-23 20:57:25.474418,-19
2021-09-23 20:57:25.474424,-40
2021-09-23 20:57:25.474429,-48
2021-09-23 20:57:25.474436,-31
2021-09-23 20:57:25.474441,-19
2021-09-23 20:57:25.474447,-14
2021-09-23 20:57:25.474453,2
2021-09-23 20:57:25.474459,16
2021-09-23 20:57:25.474464,24
2021-09-23 20:57:25.474470,36
2021-09-23 20:57:25.474476,50
2021-09-23 20:57:25.474481,57
2021-09-23 20:57:25.474487,74
2021-09-23 20:57:25.474493,96
2021-09-23 20:57:25.474498,113
2021-09-23 20:57:25.474504,120
2021-09-23 20:57:25.474509,120
2021-09-23 20:57:25.474515,115
2021-09-23 20:57:25.474521,105
2021-09-23 20:57:25.474527,98
2021-09-23 20:57:25.609345,86
2021-09-23 20:57:25.609366,57
2021-09-23 20:57:25.609373,19
2021-09-23 20:57:25.609380,-21
2021-09-23 20:57:25.609386,-55
2021-09-23 20:57:25.609392,-79
2021-09-23 20:57:25.609398,-91
2021-09-23 20:57:25.609404,-88
2021-09-23 20:57:25.609409,-96
2021-09-23 20:57:25.609415,-105
2021-09-23 20:57:25.609421,-96
2021-09-23 20:57:25.609427,-93
2021-09-23 20:57:25.609433,-96
2021-09-23 20:57:25.609439,-88
2021-09-23 20:57:25.609445,-88
2021-09-23 20:57:25.609450,-101
2021-09-23 20:57:25.609456,-86
2021-09-23 20:57:25.609462,-67
2021-09-23 20:57:25.609468,-60
2021-09-23 20:57:25.609474,-60
2021-09-23 20:57:25.609480,-52
2021-09-23 20:57:25.609486,-43
2021-09-23 20:57:25.609491,-48
2021-09-23 20:57:25.609497,-43
2021-09-23 20:57:25.609503,-26
2021-09-23 20:57:25.609509,-26
2021-09-23 20:57:25.609515,-36
2021-09-23 20:57:25.609521,-26
2021-09-23 20:57:25.609526,-16
2021-09-23 20:57:25.609532,-24
2021-09-23 20:57:25.879544,-33
2021-09-23 20:57:25.879563,-28
2021-09-23 20:57:25.879571,-24
2021-09-23 20:57:25.879577,-19
2021-09-23 20:57:25.879583,-16
2021-09-23 20:57:25.879589,-26
2021-09-23 20:57:25.879595,-26
2021-09-23 20:57:25.879600,-21
2021-09-23 20:57:25.879606,-21
2021-09-23 20:57:25.879612,-19
2021-09-23 20:57:25.879618,-19
2021-09-23 20:57:25.879624,-26
2021-09-23 20:57:25.879630,-31
2021-09-23 20:57:25.879635,-24
2021-09-23 20:57:25.879641,-28
2021-09-23 20:57:25.879647,-28
2021-09-23 20:57:25.879653,-7
2021-09-23 20:57:25.879659,-4
2021-09-23 20:57:25.879665,-24
2021-09-23 20:57:25.879670,-19
2021-09-23 20:57:25.879676,-7
2021-09-23 20:57:25.879682,-7
2021-09-23 20:57:25.879688,7
2021-09-23 20:57:25.879694,28
2021-09-23 20:57:25.879699,19
2021-09-23 20:57:25.879705,-9
2021-09-23 20:57:25.879715,-21
2021-09-23 20:57:25.879720,-21
2021-09-23 20:57:25.879726,-26
2021-09-23 20:57:25.879732,-19
2021-09-23 20:57:26.103748,-2
2021-09-23 20:57:26.103768,16
2021-09-23 20:57:26.103775,151
2021-09-23 20:57:26.103781,514
2021-09-23 20:57:26.103787,1046
2021-09-23 20:57:26.103793,1113
2021-09-23 20:57:26.103799,165
2021-09-23 20:57:26.103805,-639
2021-09-23 20:57:26.103811,-310
2021-09-23 20:57:26.103817,16
2021-09-23 20:57:26.103823,-180
2021-09-23 20:57:26.103829,-182
2021-09-23 20:57:26.103835,-36
2021-09-23 20:57:26.103841,-67
2021-09-23 20:57:26.103847,-103
2021-09-23 20:57:26.103853,-62
2021-09-23 20:57:26.103859,-48
2021-09-23 20:57:26.103864,-45
2021-09-23 20:57:26.103870,-26
2021-09-23 20:57:26.103876,-26
2021-09-23 20:57:26.103882,-31
2021-09-23 20:57:26.103888,-19
2021-09-23 20:57:26.103894,-2
2021-09-23 20:57:26.103900,9
2021-09-23 20:57:26.103906,19
2021-09-23 20:57:26.103912,33
2021-09-23 20:57:26.103917,52
2021-09-23 20:57:26.103923,64
2021-09-23 20:57:26.103929,81
2021-09-23 20:57:26.103934,98
2021-09-23 20:57:26.329348,115
2021-09-23 20:57:26.329368,120
2021-09-23 20:57:26.329375,103
2021-09-23 20:57:26.329381,88
2021-09-23 20:57:26.329387,88
2021-09-23 20:57:26.329394,84
2021-09-23 20:57:26.329399,62
2021-09-23 20:57:26.329405,21
2021-09-23 20:57:26.329411,-24
2021-09-23 20:57:26.329417,-57
2021-09-23 20:57:26.329423,-76
2021-09-23 20:57:26.329429,-88
2021-09-23 20:57:26.329435,-91
2021-09-23 20:57:26.329440,-86
2021-09-23 20:57:26.329446,-93
2021-09-23 20:57:26.329452,-108
2021-09-23 20:57:26.329458,-108
2021-09-23 20:57:26.329463,-91
2021-09-23 20:57:26.329469,-79
2021-09-23 20:57:26.329475,-81
2021-09-23 20:57:26.329481,-79
2021-09-23 20:57:26.329487,-76
2021-09-23 20:57:26.329492,-69
2021-09-23 20:57:26.329498,-62
2021-09-23 20:57:26.329504,-52
2021-09-23 20:57:26.329509,-45
2021-09-23 20:57:26.329515,-31
2021-09-23 20:57:26.329521,-26
2021-09-23 20:57:26.329526,-33
2021-09-23 20:57:26.329532,-31
2021-09-23 20:57:26.554373,-21
2021-09-23 20:57:26.554393,-12
2021-09-23 20:57:26.554400,-14
2021-09-23 20:57:26.554436,-19
2021-09-23 20:57:26.554442,-16
2021-09-23 20:57:26.554448,-16
2021-09-23 20:57:26.554454,-14
2021-09-23 20:57:26.554460,-14
2021-09-23 20:57:26.554466,-26
2021-09-23 20:57:26.554472,-28
2021-09-23 20:57:26.554477,-14
2021-09-23 20:57:26.554483,-9
2021-09-23 20:57:26.554489,-14
2021-09-23 20:57:26.554495,-14
2021-09-23 20:57:26.554502,-21
2021-09-23 20:57:26.554508,-33
2021-09-23 20:57:26.554514,-38
2021-09-23 20:57:26.554519,-43
2021-09-23 20:57:26.554525,-40
2021-09-23 20:57:26.554531,-31
2021-09-23 20:57:26.554537,-19
2021-09-23 20:57:26.554543,-21
2021-09-23 20:57:26.554549,-36
2021-09-23 20:57:26.554555,-43
2021-09-23 20:57:26.554560,-40
2021-09-23 20:57:26.554566,-36
2021-09-23 20:57:26.554572,-31
2021-09-23 20:57:26.554578,-16
2021-09-23 20:57:26.554583,-2
2021-09-23 20:57:26.554589,16
2021-09-23 20:57:26.822980,31
2021-09-23 20:57:26.823000,12
2021-09-23 20:57:26.823008,-38
2021-09-23 20:57:26.823014,-55
2021-09-23 20:57:26.823020,-33
2021-09-23 20:57:26.823026,-33
2021-09-23 20:57:26.823032,-36
2021-09-23 20:57:26.823038,-12
2021-09-23 20:57:26.823044,69
2021-09-23 20:57:26.823050,336
2021-09-23 20:57:26.823056,848
2021-09-23 20:57:26.823062,1221
2021-09-23 20:57:26.823068,615
2021-09-23 20:57:26.823073,-502
2021-09-23 20:57:26.823079,-572
2021-09-23 20:57:26.823085,-45
2021-09-23 20:57:26.823091,-91
2021-09-23 20:57:26.823097,-223
2021-09-23 20:57:26.823103,-81
2021-09-23 20:57:26.823109,-45
2021-09-23 20:57:26.823115,-101
2021-09-23 20:57:26.823120,-74
2021-09-23 20:57:26.823126,-48
2021-09-23 20:57:26.823132,-50
2021-09-23 20:57:26.823138,-28
2021-09-23 20:57:26.823144,-7
2021-09-23 20:57:26.823150,-16
2021-09-23 20:57:26.823156,-19
2021-09-23 20:57:26.823165,4
2021-09-23 20:57:26.823171,28
2021-09-23 20:57:27.004338,31
2021-09-23 20:57:27.004359,31
2021-09-23 20:57:27.004366,45
2021-09-23 20:57:27.004373,57
2021-09-23 20:57:27.004379,72
2021-09-23 20:57:27.004385,91
2021-09-23 20:57:27.004391,101
2021-09-23 20:57:27.004397,103
2021-09-23 20:57:27.004402,108
2021-09-23 20:57:27.004408,105
2021-09-23 20:57:27.004414,93
2021-09-23 20:57:27.004419,81
2021-09-23 20:57:27.004425,64
2021-09-23 20:57:27.004431,28
2021-09-23 20:57:27.004437,-16
2021-09-23 20:57:27.004444,-43
2021-09-23 20:57:27.004450,-52
2021-09-23 20:57:27.004455,-67
2021-09-23 20:57:27.004461,-88
2021-09-23 20:57:27.004467,-96
2021-09-23 20:57:27.004472,-91
2021-09-23 20:57:27.004478,-91
2021-09-23 20:57:27.004484,-103
2021-09-23 20:57:27.004490,-113
2021-09-23 20:57:27.004496,-105
2021-09-23 20:57:27.004502,-93
2021-09-23 20:57:27.004508,-93
2021-09-23 20:57:27.004514,-91
2021-09-23 20:57:27.004520,-84
2021-09-23 20:57:27.004525,-81
2021-09-23 20:57:27.273689,-79
2021-09-23 20:57:27.273707,-62
2021-09-23 20:57:27.273715,-50
2021-09-23 20:57:27.273721,-52
2021-09-23 20:57:27.273727,-43
2021-09-23 20:57:27.273732,-26
2021-09-23 20:57:27.273738,-33
2021-09-23 20:57:27.273744,-38
2021-09-23 20:57:27.273750,-31
2021-09-23 20:57:27.273755,-33
2021-09-23 20:57:27.273761,-28
2021-09-23 20:57:27.273767,-28
2021-09-23 20:57:27.273772,-45
2021-09-23 20:57:27.273778,-40
2021-09-23 20:57:27.273784,-28
2021-09-23 20:57:27.273790,-33
2021-09-23 20:57:27.273795,-31
2021-09-23 20:57:27.273801,-24
2021-09-23 20:57:27.273807,-28
2021-09-23 20:57:27.273812,-28
2021-09-23 20:57:27.273818,-21
2021-09-23 20:57:27.273824,-14
2021-09-23 20:57:27.273829,-7
2021-09-23 20:57:27.273835,-12
2021-09-23 20:57:27.273841,-26
2021-09-23 20:57:27.273846,-26
2021-09-23 20:57:27.273852,-16
2021-09-23 20:57:27.273858,-24
2021-09-23 20:57:27.273863,-28
2021-09-23 20:57:27.273869,-24
2021-09-23 20:57:27.457821,-21
2021-09-23 20:57:27.457839,-14
2021-09-23 20:57:27.457843,-7
2021-09-23 20:57:27.457846,-16
2021-09-23 20:57:27.457849,-21
2021-09-23 20:57:27.457852,-14
2021-09-23 20:57:27.457855,0
2021-09-23 20:57:27.457858,19
2021-09-23 20:57:27.457862,28
2021-09-23 20:57:27.457865,9
2021-09-23 20:57:27.457868,-24
2021-09-23 20:57:27.457871,-43
2021-09-23 20:57:27.457874,-40
2021-09-23 20:57:27.457877,-28
2021-09-23 20:57:27.457880,-24
2021-09-23 20:57:27.457883,-14
2021-09-23 20:57:27.457886,43
2021-09-23 20:57:27.457889,262
2021-09-23 20:57:27.457893,721
2021-09-23 20:57:27.457896,1185
2021-09-23 20:57:27.457899,827
2021-09-23 20:57:27.457902,-295
2021-09-23 20:57:27.457907,-627
2021-09-23 20:57:27.457912,-117
2021-09-23 20:57:27.457917,-48
2021-09-23 20:57:27.457922,-211
2021-09-23 20:57:27.457927,-101
2021-09-23 20:57:27.457933,-45
2021-09-23 20:57:27.457938,-108
2021-09-23 20:57:27.457944,-84
2021-09-23 20:57:27.724369,-36
2021-09-23 20:57:27.724390,-36
2021-09-23 20:57:27.724397,-48
2021-09-23 20:57:27.724403,-48
2021-09-23 20:57:27.724409,-38
2021-09-23 20:57:27.724415,-24
2021-09-23 20:57:27.724421,-12
2021-09-23 20:57:27.724427,0
2021-09-23 20:57:27.724433,9
2021-09-23 20:57:27.724438,16
2021-09-23 20:57:27.724444,28
2021-09-23 20:57:27.724450,43
2021-09-23 20:57:27.724456,55
2021-09-23 20:57:27.724462,67
2021-09-23 20:57:27.724468,86
2021-09-23 20:57:27.724474,101
2021-09-23 20:57:27.724480,101
2021-09-23 20:57:27.724486,98
2021-09-23 20:57:27.724491,101
2021-09-23 20:57:27.724497,81
2021-09-23 20:57:27.724503,52
2021-09-23 20:57:27.724509,33
2021-09-23 20:57:27.724515,16
2021-09-23 20:57:27.724521,-14
2021-09-23 20:57:27.724527,-55
2021-09-23 20:57:27.724532,-76
2021-09-23 20:57:27.724538,-81
2021-09-23 20:57:27.724544,-88
2021-09-23 20:57:27.724550,-91
2021-09-23 20:57:27.724556,-86
2021-09-23 20:57:27.949334,-84
2021-09-23 20:57:27.949354,-84
2021-09-23 20:57:27.949361,-84
2021-09-23 20:57:27.949367,-84
2021-09-23 20:57:27.949373,-86
2021-09-23 20:57:27.949379,-79
2021-09-23 20:57:27.949385,-62
2021-09-23 20:57:27.949391,-52
2021-09-23 20:57:27.949397,-52
2021-09-23 20:57:27.949403,-48
2021-09-23 20:57:27.949408,-40
2021-09-23 20:57:27.949414,-31
2021-09-23 20:57:27.949420,-26
2021-09-23 20:57:27.949426,-31
2021-09-23 20:57:27.949432,-31
2021-09-23 20:57:27.949438,-24
2021-09-23 20:57:27.949444,-28
2021-09-23 20:57:27.949449,-26
2021-09-23 20:57:27.949455,-16
2021-09-23 20:57:27.949461,-16
2021-09-23 20:57:27.949467,-24
2021-09-23 20:57:27.949473,-21
2021-09-23 20:57:27.949478,-12
2021-09-23 20:57:27.949484,-9
2021-09-23 20:57:27.949490,-21
2021-09-23 20:57:27.949496,-21
2021-09-23 20:57:27.949502,-14
2021-09-23 20:57:27.949508,-19
2021-09-23 20:57:27.949513,-24
2021-09-23 20:57:27.949519,-14
2021-09-23 20:57:28.219354,-4
2021-09-23 20:57:28.219374,2
2021-09-23 20:57:28.219381,-2
2021-09-23 20:57:28.219388,-21
2021-09-23 20:57:28.219393,-31
2021-09-23 20:57:28.219399,-24
2021-09-23 20:57:28.219406,-26
2021-09-23 20:57:28.219412,-36
2021-09-23 20:57:28.219417,-38
2021-09-23 20:57:28.219423,-33
2021-09-23 20:57:28.219429,-19
2021-09-23 20:57:28.219434,2
2021-09-23 20:57:28.219440,26
2021-09-23 20:57:28.219446,16
2021-09-23 20:57:28.219452,-16
2021-09-23 20:57:28.219457,-43
2021-09-23 20:57:28.219463,-45
2021-09-23 20:57:28.219469,-31
2021-09-23 20:57:28.219475,-16
2021-09-23 20:57:28.219480,-19
2021-09-23 20:57:28.219486,-9
2021-09-23 20:57:28.219492,84
2021-09-23 20:57:28.219497,384
2021-09-23 20:57:28.219503,901
2021-09-23 20:57:28.219509,1171
2021-09-23 20:57:28.219514,435
2021-09-23 20:57:28.219520,-581
2021-09-23 20:57:28.219526,-483
2021-09-23 20:57:28.219532,-7
2021-09-23 20:57:28.219537,-117
2021-09-23 20:57:28.399355,-206
2021-09-23 20:57:28.399375,-60
2021-09-23 20:57:28.399382,-55
2021-09-23 20:57:28.399388,-105
2021-09-23 20:57:28.399394,-55
2021-09-23 20:57:28.399400,-16
2021-09-23 20:57:28.399406,-33
2021-09-23 20:57:28.399412,-33
2021-09-23 20:57:28.399418,-24
2021-09-23 20:57:28.399423,-19
2021-09-23 20:57:28.399429,-7
2021-09-23 20:57:28.399435,7
2021-09-23 20:57:28.399441,12
2021-09-23 20:57:28.399446,16
2021-09-23 20:57:28.399452,33
2021-09-23 20:57:28.399458,48
2021-09-23 20:57:28.399464,64
2021-09-23 20:57:28.399470,81
2021-09-23 20:57:28.399475,101
2021-09-23 20:57:28.399481,108
2021-09-23 20:57:28.399487,101
2021-09-23 20:57:28.399493,96
2021-09-23 20:57:28.399498,105
2021-09-23 20:57:28.399505,105
2021-09-23 20:57:28.399510,84
2021-09-23 20:57:28.399516,60
2021-09-23 20:57:28.399522,31
2021-09-23 20:57:28.399528,-2
2021-09-23 20:57:28.399534,-31
2021-09-23 20:57:28.399539,-55
2021-09-23 20:57:28.624384,-74
2021-09-23 20:57:28.624405,-88
2021-09-23 20:57:28.624413,-93
2021-09-23 20:57:28.624419,-91
2021-09-23 20:57:28.624425,-86
2021-09-23 20:57:28.624430,-88
2021-09-23 20:57:28.624436,-88
2021-09-23 20:57:28.624442,-81
2021-09-23 20:57:28.624448,-84
2021-09-23 20:57:28.624454,-103
2021-09-23 20:57:28.624460,-108
2021-09-23 20:57:28.624466,-88
2021-09-23 20:57:28.624471,-76
2021-09-23 20:57:28.624477,-74
2021-09-23 20:57:28.624483,-72
2021-09-23 20:57:28.624489,-55
2021-09-23 20:57:28.624495,-38
2021-09-23 20:57:28.624501,-38
2021-09-23 20:57:28.624507,-33
2021-09-23 20:57:28.624512,-28
2021-09-23 20:57:28.624518,-36
2021-09-23 20:57:28.624524,-45
2021-09-23 20:57:28.624530,-38
2021-09-23 20:57:28.624539,-19
2021-09-23 20:57:28.624545,-21
2021-09-23 20:57:28.624551,-31
2021-09-23 20:57:28.624556,-24
2021-09-23 20:57:28.624562,-14
2021-09-23 20:57:28.624568,-16
2021-09-23 20:57:28.624574,-16
2021-09-23 20:57:28.893022,-14
2021-09-23 20:57:28.893042,-19
2021-09-23 20:57:28.893049,-21
2021-09-23 20:57:28.893056,-12
2021-09-23 20:57:28.893061,-9
2021-09-23 20:57:28.893067,-12
2021-09-23 20:57:28.893073,-9
2021-09-23 20:57:28.893079,-9
2021-09-23 20:57:28.893084,-19
2021-09-23 20:57:28.893090,-26
2021-09-23 20:57:28.893096,-19
2021-09-23 20:57:28.893101,-16
2021-09-23 20:57:28.893107,-36
2021-09-23 20:57:28.893113,-45
2021-09-23 20:57:28.893119,-28
2021-09-23 20:57:28.893125,-16
2021-09-23 20:57:28.893131,-7
2021-09-23 20:57:28.893136,21
2021-09-23 20:57:28.893142,21
2021-09-23 20:57:28.893148,-12
2021-09-23 20:57:28.893153,-31
2021-09-23 20:57:28.893159,-28
2021-09-23 20:57:28.893165,-19
2021-09-23 20:57:28.893171,-14
2021-09-23 20:57:28.893177,-14
2021-09-23 20:57:28.893182,9
2021-09-23 20:57:28.893188,139
2021-09-23 20:57:28.893194,478
2021-09-23 20:57:28.893199,1007
2021-09-23 20:57:28.893205,1132
2021-09-23 20:57:29.119389,221
2021-09-23 20:57:29.119410,-658
2021-09-23 20:57:29.119417,-367
2021-09-23 20:57:29.119423,16
2021-09-23 20:57:29.119429,-153
2021-09-23 20:57:29.119435,-173
2021-09-23 20:57:29.119441,-48
2021-09-23 20:57:29.119447,-81
2021-09-23 20:57:29.119453,-103
2021-09-23 20:57:29.119459,-50
2021-09-23 20:57:29.119465,-38
2021-09-23 20:57:29.119470,-48
2021-09-23 20:57:29.119476,-38
2021-09-23 20:57:29.119482,-28
2021-09-23 20:57:29.119488,-33
2021-09-23 20:57:29.119494,-40
2021-09-23 20:57:29.119499,-19
2021-09-23 20:57:29.119505,4
2021-09-23 20:57:29.119511,7
2021-09-23 20:57:29.119517,7
2021-09-23 20:57:29.119523,19
2021-09-23 20:57:29.119529,40
2021-09-23 20:57:29.119534,74
2021-09-23 20:57:29.119540,88
2021-09-23 20:57:29.119546,81
2021-09-23 20:57:29.119552,96
2021-09-23 20:57:29.119557,110
2021-09-23 20:57:29.119563,98
2021-09-23 20:57:29.119569,88
2021-09-23 20:57:29.119574,72
2021-09-23 20:57:29.299379,43
2021-09-23 20:57:29.299400,19
2021-09-23 20:57:29.299407,-12
2021-09-23 20:57:29.299414,-45
2021-09-23 20:57:29.299420,-57
2021-09-23 20:57:29.299426,-64
2021-09-23 20:57:29.299432,-86
2021-09-23 20:57:29.299438,-98
2021-09-23 20:57:29.299444,-93
2021-09-23 20:57:29.299449,-96
2021-09-23 20:57:29.299455,-98
2021-09-23 20:57:29.299461,-91
2021-09-23 20:57:29.299467,-88
2021-09-23 20:57:29.299473,-84
2021-09-23 20:57:29.299479,-72
2021-09-23 20:57:29.299485,-67
2021-09-23 20:57:29.299490,-72
2021-09-23 20:57:29.299496,-69
2021-09-23 20:57:29.299502,-60
2021-09-23 20:57:29.299508,-52
2021-09-23 20:57:29.299514,-48
2021-09-23 20:57:29.299520,-43
2021-09-23 20:57:29.299526,-28
2021-09-23 20:57:29.299531,-24
2021-09-23 20:57:29.299537,-28
2021-09-23 20:57:29.299543,-24
2021-09-23 20:57:29.299549,-14
2021-09-23 20:57:29.299555,-21
2021-09-23 20:57:29.299561,-24
2021-09-23 20:57:29.299566,-16
2021-09-23 20:57:29.524387,-14
2021-09-23 20:57:29.524408,-24
2021-09-23 20:57:29.524416,-21
2021-09-23 20:57:29.524422,-9
2021-09-23 20:57:29.524427,-16
2021-09-23 20:57:29.524433,-28
2021-09-23 20:57:29.524439,-24
2021-09-23 20:57:29.524445,-16
2021-09-23 20:57:29.524451,-16
2021-09-23 20:57:29.524457,-14
2021-09-23 20:57:29.524462,-9
2021-09-23 20:57:29.524468,-14
2021-09-23 20:57:29.524474,-19
2021-09-23 20:57:29.524480,-12
2021-09-23 20:57:29.524486,-7
2021-09-23 20:57:29.524491,-16
2021-09-23 20:57:29.524497,-16
2021-09-23 20:57:29.524503,-12
2021-09-23 20:57:29.524508,-14
2021-09-23 20:57:29.524514,-12
2021-09-23 20:57:29.524520,7
2021-09-23 20:57:29.524525,4
2021-09-23 20:57:29.524531,-26
2021-09-23 20:57:29.524537,-43
2021-09-23 20:57:29.524543,-33
2021-09-23 20:57:29.524549,-21
2021-09-23 20:57:29.524554,-21
2021-09-23 20:57:29.524560,-16
2021-09-23 20:57:29.524566,2
2021-09-23 20:57:29.524571,74
2021-09-23 20:57:29.749394,339
2021-09-23 20:57:29.749415,853
2021-09-23 20:57:29.749422,1202
2021-09-23 20:57:29.749428,577
2021-09-23 20:57:29.749434,-519
2021-09-23 20:57:29.749440,-557
2021-09-23 20:57:29.749446,-45
2021-09-23 20:57:29.749452,-108
2021-09-23 20:57:29.749457,-218
2021-09-23 20:57:29.749463,-74
2021-09-23 20:57:29.749469,-64
2021-09-23 20:57:29.749475,-117
2021-09-23 20:57:29.749481,-60
2021-09-23 20:57:29.749486,-33
2021-09-23 20:57:29.749492,-60
2021-09-23 20:57:29.749498,-45
2021-09-23 20:57:29.749503,-21
2021-09-23 20:57:29.749509,-16
2021-09-23 20:57:29.749515,-12
2021-09-23 20:57:29.749520,2
2021-09-23 20:57:29.749526,12
2021-09-23 20:57:29.749531,16
2021-09-23 20:57:29.749537,26
2021-09-23 20:57:29.749543,43
2021-09-23 20:57:29.749548,64
2021-09-23 20:57:29.749554,76
2021-09-23 20:57:29.749560,84
2021-09-23 20:57:29.749566,98
2021-09-23 20:57:29.749572,110
2021-09-23 20:57:29.749577,108
2021-09-23 20:57:30.019340,101
2021-09-23 20:57:30.019359,96
2021-09-23 20:57:30.019366,91
2021-09-23 20:57:30.019372,67
2021-09-23 20:57:30.019378,26
2021-09-23 20:57:30.019384,-7
2021-09-23 20:57:30.019390,-31
2021-09-23 20:57:30.019396,-55
2021-09-23 20:57:30.019402,-74
2021-09-23 20:57:30.019408,-96
2021-09-23 20:57:30.019414,-108
2021-09-23 20:57:30.019420,-101
2021-09-23 20:57:30.019426,-96
2021-09-23 20:57:30.019431,-101
2021-09-23 20:57:30.019437,-98
2021-09-23 20:57:30.019443,-93
2021-09-23 20:57:30.019449,-88
2021-09-23 20:57:30.019455,-74
2021-09-23 20:57:30.019461,-69
2021-09-23 20:57:30.019467,-69
2021-09-23 20:57:30.019473,-52
2021-09-23 20:57:30.019479,-43
2021-09-23 20:57:30.019484,-50
2021-09-23 20:57:30.019490,-48
2021-09-23 20:57:30.019496,-24
2021-09-23 20:57:30.019502,-19
2021-09-23 20:57:30.019507,-40
2021-09-23 20:57:30.019513,-50
2021-09-23 20:57:30.019519,-33
2021-09-23 20:57:30.019525,-24
2021-09-23 20:57:30.289326,-24
2021-09-23 20:57:30.289345,-24
2021-09-23 20:57:30.289352,-24
2021-09-23 20:57:30.289358,-26
2021-09-23 20:57:30.289364,-26
2021-09-23 20:57:30.289370,-19
2021-09-23 20:57:30.289376,-16
2021-09-23 20:57:30.289381,-19
2021-09-23 20:57:30.289387,-21
2021-09-23 20:57:30.289393,-21
2021-09-23 20:57:30.289398,-24
2021-09-23 20:57:30.289404,-21
2021-09-23 20:57:30.289410,-14
2021-09-23 20:57:30.289415,-14
2021-09-23 20:57:30.289421,-24
2021-09-23 20:57:30.289427,-26
2021-09-23 20:57:30.289432,-7
2021-09-23 20:57:30.289438,12
2021-09-23 20:57:30.289444,31
2021-09-23 20:57:30.289449,28
2021-09-23 20:57:30.289455,-2
2021-09-23 20:57:30.289461,-31
2021-09-23 20:57:30.289466,-26
2021-09-23 20:57:30.289472,-14
2021-09-23 20:57:30.289478,-21
2021-09-23 20:57:30.289483,-26
2021-09-23 20:57:30.289489,-4
2021-09-23 20:57:30.289495,91
2021-09-23 20:57:30.289501,372
2021-09-23 20:57:30.289506,872
2021-09-23 20:57:30.469395,1156
2021-09-23 20:57:30.469415,456
2021-09-23 20:57:30.469422,-562
2021-09-23 20:57:30.469428,-485
2021-09-23 20:57:30.469434,-7
2021-09-23 20:57:30.469440,-101
2021-09-23 20:57:30.469446,-173
2021-09-23 20:57:30.469452,-40
2021-09-23 20:57:30.469457,-64
2021-09-23 20:57:30.469463,-110
2021-09-23 20:57:30.469469,-50
2021-09-23 20:57:30.469475,-28
2021-09-23 20:57:30.469480,-48
2021-09-23 20:57:30.469486,-33
2021-09-23 20:57:30.469492,-19
2021-09-23 20:57:30.469498,-12
2021-09-23 20:57:30.469504,0
2021-09-23 20:57:30.469510,14
2021-09-23 20:57:30.469515,16
2021-09-23 20:57:30.469521,16
2021-09-23 20:57:30.469527,21
2021-09-23 20:57:30.469533,38
2021-09-23 20:57:30.469538,72
2021-09-23 20:57:30.469544,93
2021-09-23 20:57:30.469549,98
2021-09-23 20:57:30.469555,101
2021-09-23 20:57:30.469561,105
2021-09-23 20:57:30.469567,105
2021-09-23 20:57:30.469573,96
2021-09-23 20:57:30.469578,86
2021-09-23 20:57:30.694402,74
2021-09-23 20:57:30.694423,52
2021-09-23 20:57:30.694430,9
2021-09-23 20:57:30.694436,-38
2021-09-23 20:57:30.694442,-60
2021-09-23 20:57:30.694448,-69
2021-09-23 20:57:30.694454,-101
2021-09-23 20:57:30.694460,-132
2021-09-23 20:57:30.694466,-129
2021-09-23 20:57:30.694472,-122
2021-09-23 20:57:30.694477,-127
2021-09-23 20:57:30.694483,-122
2021-09-23 20:57:30.694489,-115
2021-09-23 20:57:30.694495,-120
2021-09-23 20:57:30.694501,-110
2021-09-23 20:57:30.694507,-93
2021-09-23 20:57:30.694512,-88
2021-09-23 20:57:30.694525,-88
2021-09-23 20:57:30.694531,-76
2021-09-23 20:57:30.694537,-57
2021-09-23 20:57:30.694542,-57
2021-09-23 20:57:30.694548,-57
2021-09-23 20:57:30.694554,-43
2021-09-23 20:57:30.694560,-33
2021-09-23 20:57:30.694566,-31
2021-09-23 20:57:30.694571,-28
2021-09-23 20:57:30.694577,-26
2021-09-23 20:57:30.694583,-26
2021-09-23 20:57:30.694589,-28
2021-09-23 20:57:30.694594,-31
2021-09-23 20:57:30.963047,-31
2021-09-23 20:57:30.963066,-33
2021-09-23 20:57:30.963073,-36
2021-09-23 20:57:30.963079,-36
2021-09-23 20:57:30.963085,-31
2021-09-23 20:57:30.963091,-21
2021-09-23 20:57:30.963097,-26
2021-09-23 20:57:30.963103,-33
2021-09-23 20:57:30.963109,-28
2021-09-23 20:57:30.963114,-24
2021-09-23 20:57:30.963120,-24
2021-09-23 20:57:30.963126,-28
2021-09-23 20:57:30.963132,-38
2021-09-23 20:57:30.963137,-33
2021-09-23 20:57:30.963143,-7
2021-09-23 20:57:30.963149,4
2021-09-23 20:57:30.963155,12
2021-09-23 20:57:30.963160,19
2021-09-23 20:57:30.963166,0
2021-09-23 20:57:30.963172,-24
2021-09-23 20:57:30.963178,-31
2021-09-23 20:57:30.963183,-21
2021-09-23 20:57:30.963189,-12
2021-09-23 20:57:30.963194,-4
2021-09-23 20:57:30.963200,7
2021-09-23 20:57:30.963206,84
2021-09-23 20:57:30.963211,336
2021-09-23 20:57:30.963217,820
2021-09-23 20:57:30.963223,1199
2021-09-23 20:57:30.963229,656
2021-09-23 20:57:31.144431,-454
2021-09-23 20:57:31.144451,-565
2021-09-23 20:57:31.144459,-38
2021-09-23 20:57:31.144465,-69
2021-09-23 20:57:31.144471,-204
2021-09-23 20:57:31.144477,-69
2021-09-23 20:57:31.144483,-48
2021-09-23 20:57:31.144489,-105
2021-09-23 20:57:31.144495,-67
2021-09-23 20:57:31.144501,-45
2021-09-23 20:57:31.144507,-57
2021-09-23 20:57:31.144513,-43
2021-09-23 20:57:31.144519,-33
2021-09-23 20:57:31.144525,-38
2021-09-23 20:57:31.144530,-33
2021-09-23 20:57:31.144536,-19
2021-09-23 20:57:31.144542,-7
2021-09-23 20:57:31.144548,0
2021-09-23 20:57:31.144554,9
2021-09-23 20:57:31.144559,28
2021-09-23 20:57:31.144565,48
2021-09-23 20:57:31.144571,62
2021-09-23 20:57:31.144577,69
2021-09-23 20:57:31.144583,69
2021-09-23 20:57:31.144588,84
2021-09-23 20:57:31.144594,98
2021-09-23 20:57:31.144600,86
2021-09-23 20:57:31.144606,74
2021-09-23 20:57:31.144612,72
2021-09-23 20:57:31.144617,55
2021-09-23 20:57:31.414404,26
2021-09-23 20:57:31.414424,-7
2021-09-23 20:57:31.414431,-52
2021-09-23 20:57:31.414437,-96
2021-09-23 20:57:31.414443,-117
2021-09-23 20:57:31.414449,-132
2021-09-23 20:57:31.414455,-129
2021-09-23 20:57:31.414461,-115
2021-09-23 20:57:31.414466,-110
2021-09-23 20:57:31.414472,-108
2021-09-23 20:57:31.414478,-110
2021-09-23 20:57:31.414484,-120
2021-09-23 20:57:31.414490,-113
2021-09-23 20:57:31.414496,-91
2021-09-23 20:57:31.414501,-91
2021-09-23 20:57:31.414507,-98
2021-09-23 20:57:31.414513,-86
2021-09-23 20:57:31.414519,-69
2021-09-23 20:57:31.414525,-62
2021-09-23 20:57:31.414530,-50
2021-09-23 20:57:31.414536,-36
2021-09-23 20:57:31.414542,-38
2021-09-23 20:57:31.414547,-38
2021-09-23 20:57:31.414553,-28
2021-09-23 20:57:31.414559,-28
2021-09-23 20:57:31.414565,-28
2021-09-23 20:57:31.414570,-21
2021-09-23 20:57:31.414576,-28
2021-09-23 20:57:31.414582,-43
2021-09-23 20:57:31.414587,-38
2021-09-23 20:57:31.594525,-21
2021-09-23 20:57:31.594545,-21
2021-09-23 20:57:31.594552,-26
2021-09-23 20:57:31.594558,-19
2021-09-23 20:57:31.594564,-19
2021-09-23 20:57:31.594570,-24
2021-09-23 20:57:31.594577,-16
2021-09-23 20:57:31.594582,-16
2021-09-23 20:57:31.594589,-31
2021-09-23 20:57:31.594594,-31
2021-09-23 20:57:31.594600,-24
2021-09-23 20:57:31.594606,-24
2021-09-23 20:57:31.594612,-16
2021-09-23 20:57:31.594618,-4
2021-09-23 20:57:31.594624,0
2021-09-23 20:57:31.594629,-4
2021-09-23 20:57:31.594635,-4
2021-09-23 20:57:31.594641,-19
2021-09-23 20:57:31.594647,-43
2021-09-23 20:57:31.594653,-43
2021-09-23 20:57:31.594658,-24
2021-09-23 20:57:31.594664,-19
2021-09-23 20:57:31.594669,-28
2021-09-23 20:57:31.594675,-12
2021-09-23 20:57:31.594681,79
2021-09-23 20:57:31.594687,348
2021-09-23 20:57:31.594692,844
2021-09-23 20:57:31.594698,1202
2021-09-23 20:57:31.594704,596
2021-09-23 20:57:31.594709,-497
2021-09-23 20:57:31.954478,-533
2021-09-23 20:57:31.954499,-4
2021-09-23 20:57:31.954507,-69
2021-09-23 20:57:31.954513,-209
2021-09-23 20:57:31.954518,-76
2021-09-23 20:57:31.954524,-60
2021-09-23 20:57:31.954530,-117
2021-09-23 20:57:31.954536,-69
2021-09-23 20:57:31.954542,-40
2021-09-23 20:57:31.954548,-69
2021-09-23 20:57:31.954554,-57
2021-09-23 20:57:31.954560,-14
2021-09-23 20:57:31.954566,-7
2021-09-23 20:57:31.954571,-16
2021-09-23 20:57:31.954577,-7
2021-09-23 20:57:31.954584,2
2021-09-23 20:57:31.954589,12
2021-09-23 20:57:31.954595,31
2021-09-23 20:57:31.954601,43
2021-09-23 20:57:31.954607,50
2021-09-23 20:57:31.954613,64
2021-09-23 20:57:31.954619,74
2021-09-23 20:57:31.954624,84
2021-09-23 20:57:31.954630,88
2021-09-23 20:57:31.954636,91
2021-09-23 20:57:31.954642,86
2021-09-23 20:57:31.954648,76
2021-09-23 20:57:31.954653,67
2021-09-23 20:57:31.954659,43
2021-09-23 20:57:31.954665,12
2021-09-23 20:57:32.089553,-19
2021-09-23 20:57:32.089572,-52
2021-09-23 20:57:32.089580,-84
2021-09-23 20:57:32.089586,-101
2021-09-23 20:57:32.089592,-103
2021-09-23 20:57:32.089597,-108
2021-09-23 20:57:32.089603,-110
2021-09-23 20:57:32.089609,-105
2021-09-23 20:57:32.089615,-115
2021-09-23 20:57:32.089621,-125
2021-09-23 20:57:32.089627,-108
2021-09-23 20:57:32.089633,-93
2021-09-23 20:57:32.089638,-91
2021-09-23 20:57:32.089644,-88
2021-09-23 20:57:32.089650,-96
2021-09-23 20:57:32.089656,-93
2021-09-23 20:57:32.089662,-67
2021-09-23 20:57:32.089668,-55
2021-09-23 20:57:32.089674,-55
2021-09-23 20:57:32.089679,-50
2021-09-23 20:57:32.089686,-55
2021-09-23 20:57:32.089692,-62
2021-09-23 20:57:32.089698,-48
2021-09-23 20:57:32.089704,-36
2021-09-23 20:57:32.089710,-45
2021-09-23 20:57:32.089716,-50
2021-09-23 20:57:32.089721,-55
2021-09-23 20:57:32.089727,-57
2021-09-23 20:57:32.089733,-40
2021-09-23 20:57:32.089739,-31
2021-09-23 20:57:32.314420,-38
2021-09-23 20:57:32.314441,-38
2021-09-23 20:57:32.314448,-33
2021-09-23 20:57:32.314454,-28
2021-09-23 20:57:32.314460,-33
2021-09-23 20:57:32.314466,-40
2021-09-23 20:57:32.314472,-33
2021-09-23 20:57:32.314478,-28
2021-09-23 20:57:32.314484,-28
2021-09-23 20:57:32.314490,-21
2021-09-23 20:57:32.314495,-2
2021-09-23 20:57:32.314501,4
2021-09-23 20:57:32.314507,-9
2021-09-23 20:57:32.314513,-36
2021-09-23 20:57:32.314519,-52
2021-09-23 20:57:32.314525,-43
2021-09-23 20:57:32.314531,-38
2021-09-23 20:57:32.314537,-38
2021-09-23 20:57:32.314542,-19
2021-09-23 20:57:32.314548,26
2021-09-23 20:57:32.314554,170
2021-09-23 20:57:32.314560,543
2021-09-23 20:57:32.314566,1067
2021-09-23 20:57:32.314572,1038
2021-09-23 20:57:32.314578,24
2021-09-23 20:57:32.314584,-678
2021-09-23 20:57:32.314590,-266
2021-09-23 20:57:32.314596,19
2021-09-23 20:57:32.314601,-177
2021-09-23 20:57:32.314607,-146
2021-09-23 20:57:32.539435,-16
2021-09-23 20:57:32.539456,-64
2021-09-23 20:57:32.539463,-74
2021-09-23 20:57:32.539469,-19
2021-09-23 20:57:32.539475,-19
2021-09-23 20:57:32.539481,-19
2021-09-23 20:57:32.539487,2
2021-09-23 20:57:32.539492,-2
2021-09-23 20:57:32.539498,-14
2021-09-23 20:57:32.539504,-2
2021-09-23 20:57:32.539510,12
2021-09-23 20:57:32.539516,21
2021-09-23 20:57:32.539522,33
2021-09-23 20:57:32.539528,43
2021-09-23 20:57:32.539533,57
2021-09-23 20:57:32.539539,76
2021-09-23 20:57:32.539545,81
2021-09-23 20:57:32.539551,86
2021-09-23 20:57:32.539557,105
2021-09-23 20:57:32.539562,117
2021-09-23 20:57:32.539568,113
2021-09-23 20:57:32.539574,101
2021-09-23 20:57:32.539580,91
2021-09-23 20:57:32.539586,81
2021-09-23 20:57:32.539591,52
2021-09-23 20:57:32.539597,-4
2021-09-23 20:57:32.539603,-60
2021-09-23 20:57:32.539609,-91
2021-09-23 20:57:32.539615,-108
2021-09-23 20:57:32.539620,-125
2021-09-23 20:57:32.764432,-132
2021-09-23 20:57:32.764452,-117
2021-09-23 20:57:32.764459,-115
2021-09-23 20:57:32.764465,-127
2021-09-23 20:57:32.764471,-120
2021-09-23 20:57:32.764477,-110
2021-09-23 20:57:32.764483,-113
2021-09-23 20:57:32.764489,-113
2021-09-23 20:57:32.764495,-103
2021-09-23 20:57:32.764500,-101
2021-09-23 20:57:32.764506,-98
2021-09-23 20:57:32.764513,-86
2021-09-23 20:57:32.764519,-72
2021-09-23 20:57:32.764524,-67
2021-09-23 20:57:32.764530,-62
2021-09-23 20:57:32.764536,-64
2021-09-23 20:57:32.764542,-57
2021-09-23 20:57:32.764548,-40
2021-09-23 20:57:32.764554,-43
2021-09-23 20:57:32.764560,-52
2021-09-23 20:57:32.764566,-45
2021-09-23 20:57:32.764572,-40
2021-09-23 20:57:32.764578,-40
2021-09-23 20:57:32.764583,-38
2021-09-23 20:57:32.764589,-33
2021-09-23 20:57:32.764595,-31
2021-09-23 20:57:32.764601,-26
2021-09-23 20:57:32.764606,-33
2021-09-23 20:57:32.764612,-40
2021-09-23 20:57:32.764618,-31
2021-09-23 20:57:33.033244,-16
2021-09-23 20:57:33.033265,-14
2021-09-23 20:57:33.033273,-16
2021-09-23 20:57:33.033279,-21
2021-09-23 20:57:33.033285,-16
2021-09-23 20:57:33.033291,-7
2021-09-23 20:57:33.033297,-14
2021-09-23 20:57:33.033303,-12
2021-09-23 20:57:33.033309,12
2021-09-23 20:57:33.033315,14
2021-09-23 20:57:33.033320,-4
2021-09-23 20:57:33.033326,-21
2021-09-23 20:57:33.033332,-28
2021-09-23 20:57:33.033338,-21
2021-09-23 20:57:33.033353,-14
2021-09-23 20:57:33.033359,-12
2021-09-23 20:57:33.033365,-4
2021-09-23 20:57:33.033371,60
2021-09-23 20:57:33.033377,303
2021-09-23 20:57:33.033383,803
2021-09-23 20:57:33.033389,1231
2021-09-23 20:57:33.033395,731
2021-09-23 20:57:33.033401,-404
2021-09-23 20:57:33.033407,-567
2021-09-23 20:57:33.033413,-40
2021-09-23 20:57:33.033419,-55
2021-09-23 20:57:33.033425,-206
2021-09-23 20:57:33.033431,-72
2021-09-23 20:57:33.033436,-26
2021-09-23 20:57:33.033442,-86
2021-09-23 20:57:33.214462,-50
2021-09-23 20:57:33.214482,-14
2021-09-23 20:57:33.214489,-43
2021-09-23 20:57:33.214496,-45
2021-09-23 20:57:33.214502,-14
2021-09-23 20:57:33.214507,-16
2021-09-23 20:57:33.214513,-24
2021-09-23 20:57:33.214519,-2
2021-09-23 20:57:33.214525,21
2021-09-23 20:57:33.214530,26
2021-09-23 20:57:33.214536,26
2021-09-23 20:57:33.214542,36
2021-09-23 20:57:33.214548,50
2021-09-23 20:57:33.214554,67
2021-09-23 20:57:33.214559,76
2021-09-23 20:57:33.214565,84
2021-09-23 20:57:33.214571,96
2021-09-23 20:57:33.214576,98
2021-09-23 20:57:33.214582,86
2021-09-23 20:57:33.214588,81
2021-09-23 20:57:33.214594,72
2021-09-23 20:57:33.214600,50
2021-09-23 20:57:33.214605,26
2021-09-23 20:57:33.214611,-9
2021-09-23 20:57:33.214616,-43
2021-09-23 20:57:33.214622,-62
2021-09-23 20:57:33.214628,-81
2021-09-23 20:57:33.214634,-98
2021-09-23 20:57:33.214639,-103
2021-09-23 20:57:33.214645,-105
2021-09-23 20:57:33.440503,-110
2021-09-23 20:57:33.440525,-110
2021-09-23 20:57:33.440531,-105
2021-09-23 20:57:33.440536,-105
2021-09-23 20:57:33.440541,-105
2021-09-23 20:57:33.440578,-103
2021-09-23 20:57:33.440583,-98
2021-09-23 20:57:33.440588,-86
2021-09-23 20:57:33.440593,-74
2021-09-23 20:57:33.440598,-79
2021-09-23 20:57:33.440603,-84
2021-09-23 20:57:33.440608,-74
2021-09-23 20:57:33.440613,-57
2021-09-23 20:57:33.440618,-50
2021-09-23 20:57:33.440623,-52
2021-09-23 20:57:33.440628,-48
2021-09-23 20:57:33.440633,-40
2021-09-23 20:57:33.440637,-33
2021-09-23 20:57:33.440642,-31
2021-09-23 20:57:33.440648,-36
2021-09-23 20:57:33.440654,-45
2021-09-23 20:57:33.440661,-50
2021-09-23 20:57:33.440667,-38
2021-09-23 20:57:33.440672,-28
2021-09-23 20:57:33.440677,-36
2021-09-23 20:57:33.440682,-40
2021-09-23 20:57:33.440687,-36
2021-09-23 20:57:33.440692,-36
2021-09-23 20:57:33.440698,-33
2021-09-23 20:57:33.440703,-24
2021-09-23 20:57:33.754448,-24
2021-09-23 20:57:33.754469,-19
2021-09-23 20:57:33.754476,-2
2021-09-23 20:57:33.754482,14
2021-09-23 20:57:33.754489,9
2021-09-23 20:57:33.754494,-12
2021-09-23 20:57:33.754500,-33
2021-09-23 20:57:33.754506,-43
2021-09-23 20:57:33.754512,-40
2021-09-23 20:57:33.754518,-43
2021-09-23 20:57:33.754524,-40
2021-09-23 20:57:33.754529,-12
2021-09-23 20:57:33.754535,69
2021-09-23 20:57:33.754541,331
2021-09-23 20:57:33.754547,839
2021-09-23 20:57:33.754553,1226
2021-09-23 20:57:33.754559,675
2021-09-23 20:57:33.754565,-423
2021-09-23 20:57:33.754570,-526
2021-09-23 20:57:33.754576,-14
2021-09-23 20:57:33.754582,-67
2021-09-23 20:57:33.754588,-218
2021-09-23 20:57:33.754594,-84
2021-09-23 20:57:33.754600,-50
2021-09-23 20:57:33.754605,-117
2021-09-23 20:57:33.754611,-79
2021-09-23 20:57:33.754617,-28
2021-09-23 20:57:33.754623,-40
2021-09-23 20:57:33.754629,-38
2021-09-23 20:57:33.754635,-16
2021-09-23 20:57:33.934292,-9
2021-09-23 20:57:33.934313,2
2021-09-23 20:57:33.934320,14
2021-09-23 20:57:33.934326,12
2021-09-23 20:57:33.934332,21
2021-09-23 20:57:33.934338,40
2021-09-23 20:57:33.934344,57
2021-09-23 20:57:33.934350,74
2021-09-23 20:57:33.934355,86
2021-09-23 20:57:33.934361,86
2021-09-23 20:57:33.934367,91
2021-09-23 20:57:33.934373,96
2021-09-23 20:57:33.934379,101
2021-09-23 20:57:33.934384,105
2021-09-23 20:57:33.934390,98
2021-09-23 20:57:33.934396,76
2021-09-23 20:57:33.934402,55
2021-09-23 20:57:33.934408,31
2021-09-23 20:57:33.934414,-4
2021-09-23 20:57:33.934420,-43
2021-09-23 20:57:33.934426,-72
2021-09-23 20:57:33.934431,-96
2021-09-23 20:57:33.934437,-101
2021-09-23 20:57:33.934443,-103
2021-09-23 20:57:33.934449,-110
2021-09-23 20:57:33.934455,-120
2021-09-23 20:57:33.934461,-122
2021-09-23 20:57:33.934467,-117
2021-09-23 20:57:33.934472,-117
2021-09-23 20:57:33.934478,-117
2021-09-23 20:57:34.203881,-108
2021-09-23 20:57:34.203902,-101
2021-09-23 20:57:34.203909,-105
2021-09-23 20:57:34.203915,-103
2021-09-23 20:57:34.203921,-86
2021-09-23 20:57:34.203927,-69
2021-09-23 20:57:34.203933,-67
2021-09-23 20:57:34.203939,-74
2021-09-23 20:57:34.203945,-74
2021-09-23 20:57:34.203951,-67
2021-09-23 20:57:34.203957,-57
2021-09-23 20:57:34.203962,-52
2021-09-23 20:57:34.203968,-52
2021-09-23 20:57:34.203974,-64
2021-09-23 20:57:34.203980,-79
2021-09-23 20:57:34.203986,-69
2021-09-23 20:57:34.203992,-52
2021-09-23 20:57:34.203997,-57
2021-09-23 20:57:34.204003,-60
2021-09-23 20:57:34.204009,-60
2021-09-23 20:57:34.204015,-67
2021-09-23 20:57:34.204021,-67
2021-09-23 20:57:34.204027,-50
2021-09-23 20:57:34.204033,-36
2021-09-23 20:57:34.204038,-24
2021-09-23 20:57:34.204044,-9
2021-09-23 20:57:34.204050,-7
2021-09-23 20:57:34.204056,-21
2021-09-23 20:57:34.204062,-43
2021-09-23 20:57:34.204067,-50
2021-09-23 20:57:34.473862,-43
2021-09-23 20:57:34.473882,-38
2021-09-23 20:57:34.473889,-40
2021-09-23 20:57:34.473895,-38
2021-09-23 20:57:34.473901,-16
2021-09-23 20:57:34.473907,62
2021-09-23 20:57:34.473913,303
2021-09-23 20:57:34.473919,767
2021-09-23 20:57:34.473924,1173
2021-09-23 20:57:34.473930,699
2021-09-23 20:57:34.473936,-430
2021-09-23 20:57:34.473941,-618
2021-09-23 20:57:34.473947,-72
2021-09-23 20:57:34.473953,-74
2021-09-23 20:57:34.473959,-226
2021-09-23 20:57:34.473964,-79
2021-09-23 20:57:34.473970,-38
2021-09-23 20:57:34.473976,-101
2021-09-23 20:57:34.473981,-60
2021-09-23 20:57:34.473987,-24
2021-09-23 20:57:34.473993,-48
2021-09-23 20:57:34.473999,-36
2021-09-23 20:57:34.474004,-4
2021-09-23 20:57:34.474010,0
2021-09-23 20:57:34.474016,-4
2021-09-23 20:57:34.474022,9
2021-09-23 20:57:34.474028,31
2021-09-23 20:57:34.474033,38
2021-09-23 20:57:34.474039,40
2021-09-23 20:57:34.474045,52
2021-09-23 20:57:34.609452,69
2021-09-23 20:57:34.609473,86
2021-09-23 20:57:34.609480,98
2021-09-23 20:57:34.609486,101
2021-09-23 20:57:34.609492,113
2021-09-23 20:57:34.609498,125
2021-09-23 20:57:34.609504,113
2021-09-23 20:57:34.609510,93
2021-09-23 20:57:34.609515,84
2021-09-23 20:57:34.609521,64
2021-09-23 20:57:34.609527,21
2021-09-23 20:57:34.609533,-28
2021-09-23 20:57:34.609539,-55
2021-09-23 20:57:34.609546,-74
2021-09-23 20:57:34.609552,-105
2021-09-23 20:57:34.609557,-122
2021-09-23 20:57:34.609563,-117
2021-09-23 20:57:34.609569,-115
2021-09-23 20:57:34.609575,-115
2021-09-23 20:57:34.609581,-120
2021-09-23 20:57:34.609587,-129
2021-09-23 20:57:34.609592,-120
2021-09-23 20:57:34.609599,-105
2021-09-23 20:57:34.609604,-103
2021-09-23 20:57:34.609610,-105
2021-09-23 20:57:34.609616,-103
2021-09-23 20:57:34.609622,-96
2021-09-23 20:57:34.609628,-86
2021-09-23 20:57:34.609634,-79
2021-09-23 20:57:34.609639,-72
2021-09-23 20:57:34.878869,-64
2021-09-23 20:57:34.878888,-60
2021-09-23 20:57:34.878895,-57
2021-09-23 20:57:34.878901,-57
2021-09-23 20:57:34.878907,-64
2021-09-23 20:57:34.878913,-72
2021-09-23 20:57:34.878919,-62
2021-09-23 20:57:34.878925,-52
2021-09-23 20:57:34.878931,-57
2021-09-23 20:57:34.878937,-57
2021-09-23 20:57:34.878942,-45
2021-09-23 20:57:34.878948,-52
2021-09-23 20:57:34.878954,-64
2021-09-23 20:57:34.878960,-57
2021-09-23 20:57:34.878966,-43
2021-09-23 20:57:34.878972,-45
2021-09-23 20:57:34.878977,-52
2021-09-23 20:57:34.878983,-52
2021-09-23 20:57:34.878989,-50
2021-09-23 20:57:34.878995,-33
2021-09-23 20:57:34.879001,-19
2021-09-23 20:57:34.879006,-7
2021-09-23 20:57:34.879012,7
2021-09-23 20:57:34.879018,4
2021-09-23 20:57:34.879024,-16
2021-09-23 20:57:34.879029,-28
2021-09-23 20:57:34.879035,-33
2021-09-23 20:57:34.879041,-36
2021-09-23 20:57:34.879046,-28
2021-09-23 20:57:34.879052,-19
2021-09-23 20:57:35.148102,0
2021-09-23 20:57:35.148124,98
2021-09-23 20:57:35.148131,382
2021-09-23 20:57:35.148137,877
2021-09-23 20:57:35.148144,1185
2021-09-23 20:57:35.148149,505
2021-09-23 20:57:35.148156,-577
2021-09-23 20:57:35.148161,-531
2021-09-23 20:57:35.148167,-12
2021-09-23 20:57:35.148173,-108
2021-09-23 20:57:35.148179,-204
2021-09-23 20:57:35.148185,-52
2021-09-23 20:57:35.148191,-50
2021-09-23 20:57:35.148197,-93
2021-09-23 20:57:35.148202,-40
2021-09-23 20:57:35.148208,-24
2021-09-23 20:57:35.148214,-40
2021-09-23 20:57:35.148220,-21
2021-09-23 20:57:35.148226,0
2021-09-23 20:57:35.148231,-4
2021-09-23 20:57:35.148237,4
2021-09-23 20:57:35.148243,28
2021-09-23 20:57:35.148249,36
2021-09-23 20:57:35.148255,36
2021-09-23 20:57:35.148260,48
2021-09-23 20:57:35.148266,57
2021-09-23 20:57:35.148272,62
2021-09-23 20:57:35.148277,74
2021-09-23 20:57:35.148283,91
2021-09-23 20:57:35.148289,96
2021-09-23 20:57:35.373867,103
2021-09-23 20:57:35.373888,108
2021-09-23 20:57:35.373896,103
2021-09-23 20:57:35.373902,93
2021-09-23 20:57:35.373908,84
2021-09-23 20:57:35.373914,62
2021-09-23 20:57:35.373919,21
2021-09-23 20:57:35.373925,-21
2021-09-23 20:57:35.373931,-52
2021-09-23 20:57:35.373937,-76
2021-09-23 20:57:35.373943,-103
2021-09-23 20:57:35.373948,-115
2021-09-23 20:57:35.373954,-110
2021-09-23 20:57:35.373960,-110
2021-09-23 20:57:35.373966,-110
2021-09-23 20:57:35.373971,-110
2021-09-23 20:57:35.373977,-117
2021-09-23 20:57:35.373983,-120
2021-09-23 20:57:35.373989,-101
2021-09-23 20:57:35.373994,-88
2021-09-23 20:57:35.374000,-86
2021-09-23 20:57:35.374006,-81
2021-09-23 20:57:35.374012,-76
2021-09-23 20:57:35.374017,-72
2021-09-23 20:57:35.374023,-62
2021-09-23 20:57:35.374029,-57
2021-09-23 20:57:35.374035,-60
2021-09-23 20:57:35.374041,-57
2021-09-23 20:57:35.374046,-52
2021-09-23 20:57:35.374052,-45
2021-09-23 20:57:35.599376,-43
2021-09-23 20:57:35.599395,-55
2021-09-23 20:57:35.599403,-62
2021-09-23 20:57:35.599409,-57
2021-09-23 20:57:35.599415,-60
2021-09-23 20:57:35.599421,-60
2021-09-23 20:57:35.599426,-52
2021-09-23 20:57:35.599432,-52
2021-09-23 20:57:35.599438,-57
2021-09-23 20:57:35.599444,-57
2021-09-23 20:57:35.599450,-48
2021-09-23 20:57:35.599456,-45
2021-09-23 20:57:35.599462,-52
2021-09-23 20:57:35.599468,-45
2021-09-23 20:57:35.599473,-36
2021-09-23 20:57:35.599479,-36
2021-09-23 20:57:35.599485,-40
2021-09-23 20:57:35.599491,-43
2021-09-23 20:57:35.599497,-38
2021-09-23 20:57:35.599509,-28
2021-09-23 20:57:35.599515,-19
2021-09-23 20:57:35.599521,-7
2021-09-23 20:57:35.599526,12
2021-09-23 20:57:35.599532,14
2021-09-23 20:57:35.599538,-19
2021-09-23 20:57:35.599544,-43
2021-09-23 20:57:35.599549,-31
2021-09-23 20:57:35.599555,-24
2021-09-23 20:57:35.599561,-19
2021-09-23 20:57:35.599567,-7
2021-09-23 20:57:35.824470,7
2021-09-23 20:57:35.824490,101
2021-09-23 20:57:35.824497,418
2021-09-23 20:57:35.824503,949
2021-09-23 20:57:35.824509,1159
2021-09-23 20:57:35.824515,319
2021-09-23 20:57:35.824521,-661
2021-09-23 20:57:35.824527,-435
2021-09-23 20:57:35.824533,24
2021-09-23 20:57:35.824539,-141
2021-09-23 20:57:35.824545,-204
2021-09-23 20:57:35.824550,-50
2021-09-23 20:57:35.824556,-64
2021-09-23 20:57:35.824562,-108
2021-09-23 20:57:35.824568,-55
2021-09-23 20:57:35.824574,-33
2021-09-23 20:57:35.824580,-38
2021-09-23 20:57:35.824585,-16
2021-09-23 20:57:35.824591,-4
2021-09-23 20:57:35.824597,-4
2021-09-23 20:57:35.824603,-9
2021-09-23 20:57:35.824609,-7
2021-09-23 20:57:35.824614,16
2021-09-23 20:57:35.824620,36
2021-09-23 20:57:35.824626,38
2021-09-23 20:57:35.824632,52
2021-09-23 20:57:35.824637,69
2021-09-23 20:57:35.824643,81
2021-09-23 20:57:35.824649,101
2021-09-23 20:57:35.824655,110
2021-09-23 20:57:36.049972,105
2021-09-23 20:57:36.050020,101
2021-09-23 20:57:36.050036,96
2021-09-23 20:57:36.050046,74
2021-09-23 20:57:36.050053,55
2021-09-23 20:57:36.050064,45
2021-09-23 20:57:36.050071,24
2021-09-23 20:57:36.050077,-9
2021-09-23 20:57:36.050083,-45
2021-09-23 20:57:36.050136,-72
2021-09-23 20:57:36.050180,-79
2021-09-23 20:57:36.050333,-96
2021-09-23 20:57:36.050338,-122
2021-09-23 20:57:36.050342,-120
2021-09-23 20:57:36.050345,-115
2021-09-23 20:57:36.050348,-115
2021-09-23 20:57:36.050351,-108
2021-09-23 20:57:36.050354,-103
2021-09-23 20:57:36.050358,-103
2021-09-23 20:57:36.050361,-101
2021-09-23 20:57:36.050364,-98
2021-09-23 20:57:36.050367,-88
2021-09-23 20:57:36.050370,-81
2021-09-23 20:57:36.050373,-84
2021-09-23 20:57:36.050376,-76
2021-09-23 20:57:36.050379,-62
2021-09-23 20:57:36.050382,-60
2021-09-23 20:57:36.050385,-60
2021-09-23 20:57:36.050388,-50
2021-09-23 20:57:36.050391,-40
2021-09-23 20:57:36.273897,-40
2021-09-23 20:57:36.273918,-40
2021-09-23 20:57:36.273925,-48
2021-09-23 20:57:36.273931,-52
2021-09-23 20:57:36.273937,-45
2021-09-23 20:57:36.273943,-43
2021-09-23 20:57:36.273949,-55
2021-09-23 20:57:36.273954,-67
2021-09-23 20:57:36.273960,-62
2021-09-23 20:57:36.273966,-55
2021-09-23 20:57:36.273971,-52
2021-09-23 20:57:36.273977,-43
2021-09-23 20:57:36.273983,-48
2021-09-23 20:57:36.273989,-52
2021-09-23 20:57:36.273994,-48
2021-09-23 20:57:36.274000,-45
2021-09-23 20:57:36.274006,-48
2021-09-23 20:57:36.274012,-38
2021-09-23 20:57:36.274018,-33
2021-09-23 20:57:36.274023,-38
2021-09-23 20:57:36.274029,-45
2021-09-23 20:57:36.274035,-36
2021-09-23 20:57:36.274040,-14
2021-09-23 20:57:36.274046,-9
2021-09-23 20:57:36.274052,2
2021-09-23 20:57:36.274057,19
2021-09-23 20:57:36.274063,0
2021-09-23 20:57:36.274069,-31
2021-09-23 20:57:36.274075,-33
2021-09-23 20:57:36.274081,-21
2021-09-23 20:57:36.544502,-14
2021-09-23 20:57:36.544524,-7
2021-09-23 20:57:36.544531,4
2021-09-23 20:57:36.544538,50
2021-09-23 20:57:36.544544,257
2021-09-23 20:57:36.544549,719
2021-09-23 20:57:36.544555,1212
2021-09-23 20:57:36.544561,904
2021-09-23 20:57:36.544567,-254
2021-09-23 20:57:36.544572,-658
2021-09-23 20:57:36.544578,-117
2021-09-23 20:57:36.544584,-7
2021-09-23 20:57:36.544590,-204
2021-09-23 20:57:36.544596,-110
2021-09-23 20:57:36.544602,-28
2021-09-23 20:57:36.544607,-86
2021-09-23 20:57:36.544613,-79
2021-09-23 20:57:36.544619,-33
2021-09-23 20:57:36.544624,-28
2021-09-23 20:57:36.544630,-26
2021-09-23 20:57:36.544636,-14
2021-09-23 20:57:36.544642,-2
2021-09-23 20:57:36.544647,2
2021-09-23 20:57:36.544654,4
2021-09-23 20:57:36.544659,16
2021-09-23 20:57:36.544665,36
2021-09-23 20:57:36.544671,43
2021-09-23 20:57:36.544677,50
2021-09-23 20:57:36.544682,67
2021-09-23 20:57:36.544688,81
2021-09-23 20:57:36.679479,93
2021-09-23 20:57:36.679499,103
2021-09-23 20:57:36.679506,105
2021-09-23 20:57:36.679513,101
2021-09-23 20:57:36.679519,103
2021-09-23 20:57:36.679524,96
2021-09-23 20:57:36.679531,72
2021-09-23 20:57:36.679536,52
2021-09-23 20:57:36.679542,36
2021-09-23 20:57:36.679548,4
2021-09-23 20:57:36.679554,-31
2021-09-23 20:57:36.679559,-45
2021-09-23 20:57:36.679565,-64
2021-09-23 20:57:36.679570,-93
2021-09-23 20:57:36.679576,-103
2021-09-23 20:57:36.679582,-105
2021-09-23 20:57:36.679588,-113
2021-09-23 20:57:36.679594,-122
2021-09-23 20:57:36.679599,-120
2021-09-23 20:57:36.679605,-110
2021-09-23 20:57:36.679610,-108
2021-09-23 20:57:36.679616,-115
2021-09-23 20:57:36.679621,-108
2021-09-23 20:57:36.679627,-98
2021-09-23 20:57:36.679633,-93
2021-09-23 20:57:36.679638,-79
2021-09-23 20:57:36.679644,-67
2021-09-23 20:57:36.679650,-57
2021-09-23 20:57:36.679655,-57
2021-09-23 20:57:36.679661,-60
2021-09-23 20:57:36.948852,-57
2021-09-23 20:57:36.948872,-45
2021-09-23 20:57:36.948879,-43
2021-09-23 20:57:36.948885,-48
2021-09-23 20:57:36.948891,-50
2021-09-23 20:57:36.948897,-50
2021-09-23 20:57:36.948903,-48
2021-09-23 20:57:36.948909,-38
2021-09-23 20:57:36.948915,-38
2021-09-23 20:57:36.948920,-43
2021-09-23 20:57:36.948926,-43
2021-09-23 20:57:36.948932,-48
2021-09-23 20:57:36.948938,-52
2021-09-23 20:57:36.948944,-48
2021-09-23 20:57:36.948950,-40
2021-09-23 20:57:36.948955,-31
2021-09-23 20:57:36.948961,-31
2021-09-23 20:57:36.948967,-33
2021-09-23 20:57:36.948972,-33
2021-09-23 20:57:36.948978,-33
2021-09-23 20:57:36.948984,-36
2021-09-23 20:57:36.948989,-21
2021-09-23 20:57:36.948995,-12
2021-09-23 20:57:36.949001,-24
2021-09-23 20:57:36.949006,-33
2021-09-23 20:57:36.949012,-24
2021-09-23 20:57:36.949018,-12
2021-09-23 20:57:36.949023,-7
2021-09-23 20:57:36.949029,-2
2021-09-23 20:57:36.949035,16
2021-09-23 20:57:37.173796,31
2021-09-23 20:57:37.173816,19
2021-09-23 20:57:37.173823,-9
2021-09-23 20:57:37.173829,-24
2021-09-23 20:57:37.173835,-24
2021-09-23 20:57:37.173841,-16
2021-09-23 20:57:37.173847,-7
2021-09-23 20:57:37.173853,4
2021-09-23 20:57:37.173859,45
2021-09-23 20:57:37.173865,199
2021-09-23 20:57:37.173871,572
2021-09-23 20:57:37.173877,1077
2021-09-23 20:57:37.173883,1005
2021-09-23 20:57:37.173889,-28
2021-09-23 20:57:37.173895,-668
2021-09-23 20:57:37.173900,-228
2021-09-23 20:57:37.173906,16
2021-09-23 20:57:37.173912,-182
2021-09-23 20:57:37.173918,-127
2021-09-23 20:57:37.173924,-16
2021-09-23 20:57:37.173930,-86
2021-09-23 20:57:37.173935,-101
2021-09-23 20:57:37.173941,-52
2021-09-23 20:57:37.173947,-55
2021-09-23 20:57:37.173953,-57
2021-09-23 20:57:37.173959,-38
2021-09-23 20:57:37.173965,-26
2021-09-23 20:57:37.173970,-19
2021-09-23 20:57:37.173976,-7
2021-09-23 20:57:37.173982,-4
2021-09-23 20:57:37.399505,0
2021-09-23 20:57:37.399526,19
2021-09-23 20:57:37.399533,36
2021-09-23 20:57:37.399539,36
2021-09-23 20:57:37.399545,38
2021-09-23 20:57:37.399551,55
2021-09-23 20:57:37.399557,79
2021-09-23 20:57:37.399563,93
2021-09-23 20:57:37.399568,91
2021-09-23 20:57:37.399574,76
2021-09-23 20:57:37.399580,64
2021-09-23 20:57:37.399586,60
2021-09-23 20:57:37.399592,52
2021-09-23 20:57:37.399597,33
2021-09-23 20:57:37.399603,0
2021-09-23 20:57:37.399609,-43
2021-09-23 20:57:37.399615,-79
2021-09-23 20:57:37.399621,-86
2021-09-23 20:57:37.399626,-86
2021-09-23 20:57:37.399632,-98
2021-09-23 20:57:37.399638,-117
2021-09-23 20:57:37.399644,-125
2021-09-23 20:57:37.399649,-120
2021-09-23 20:57:37.399655,-115
2021-09-23 20:57:37.399661,-120
2021-09-23 20:57:37.399667,-117
2021-09-23 20:57:37.399672,-108
2021-09-23 20:57:37.399678,-105
2021-09-23 20:57:37.399684,-101
2021-09-23 20:57:37.399690,-91
2021-09-23 20:57:37.624508,-79
2021-09-23 20:57:37.624529,-67
2021-09-23 20:57:37.624536,-60
2021-09-23 20:57:37.624543,-62
2021-09-23 20:57:37.624549,-57
2021-09-23 20:57:37.624555,-40
2021-09-23 20:57:37.624560,-38
2021-09-23 20:57:37.624566,-45
2021-09-23 20:57:37.624572,-45
2021-09-23 20:57:37.624578,-50
2021-09-23 20:57:37.624584,-48
2021-09-23 20:57:37.624590,-38
2021-09-23 20:57:37.624596,-38
2021-09-23 20:57:37.624601,-38
2021-09-23 20:57:37.624607,-40
2021-09-23 20:57:37.624613,-40
2021-09-23 20:57:37.624619,-28
2021-09-23 20:57:37.624624,-21
2021-09-23 20:57:37.624630,-38
2021-09-23 20:57:37.624636,-45
2021-09-23 20:57:37.624642,-31
2021-09-23 20:57:37.624647,-28
2021-09-23 20:57:37.624653,-33
2021-09-23 20:57:37.624659,-21
2021-09-23 20:57:37.624665,-21
2021-09-23 20:57:37.624671,-43
2021-09-23 20:57:37.624676,-50
2021-09-23 20:57:37.624682,-40
2021-09-23 20:57:37.624688,-31
2021-09-23 20:57:37.624694,-21
2021-09-23 20:57:37.893906,-2
2021-09-23 20:57:37.893927,16
2021-09-23 20:57:37.893934,14
2021-09-23 20:57:37.893940,-12
2021-09-23 20:57:37.893946,-26
2021-09-23 20:57:37.893952,-26
2021-09-23 20:57:37.893958,-16
2021-09-23 20:57:37.893964,-4
2021-09-23 20:57:37.893970,-9
2021-09-23 20:57:37.893976,-7
2021-09-23 20:57:37.893981,103
2021-09-23 20:57:37.893987,425
2021-09-23 20:57:37.893993,952
2021-09-23 20:57:37.893999,1219
2021-09-23 20:57:37.894005,435
2021-09-23 20:57:37.894010,-627
2021-09-23 20:57:37.894016,-485
2021-09-23 20:57:37.894022,16
2021-09-23 20:57:37.894028,-125
2021-09-23 20:57:37.894034,-209
2021-09-23 20:57:37.894040,-48
2021-09-23 20:57:37.894045,-50
2021-09-23 20:57:37.894051,-103
2021-09-23 20:57:37.894056,-57
2021-09-23 20:57:37.894062,-33
2021-09-23 20:57:37.894068,-43
2021-09-23 20:57:37.894074,-33
2021-09-23 20:57:37.894079,-19
2021-09-23 20:57:37.894085,-14
2021-09-23 20:57:37.894091,0
2021-09-23 20:57:38.074487,16
2021-09-23 20:57:38.074506,21
2021-09-23 20:57:38.074513,21
2021-09-23 20:57:38.074519,33
2021-09-23 20:57:38.074525,48
2021-09-23 20:57:38.074531,57
2021-09-23 20:57:38.074537,64
2021-09-23 20:57:38.074543,74
2021-09-23 20:57:38.074549,86
2021-09-23 20:57:38.074554,96
2021-09-23 20:57:38.074560,98
2021-09-23 20:57:38.074566,98
2021-09-23 20:57:38.074572,86
2021-09-23 20:57:38.074577,60
2021-09-23 20:57:38.074583,33
2021-09-23 20:57:38.074589,12
2021-09-23 20:57:38.074595,-21
2021-09-23 20:57:38.074600,-62
2021-09-23 20:57:38.074606,-93
2021-09-23 20:57:38.074612,-108
2021-09-23 20:57:38.074618,-115
2021-09-23 20:57:38.074623,-115
2021-09-23 20:57:38.074629,-120
2021-09-23 20:57:38.074635,-122
2021-09-23 20:57:38.074640,-108
2021-09-23 20:57:38.074646,-105
2021-09-23 20:57:38.074652,-117
2021-09-23 20:57:38.074657,-113
2021-09-23 20:57:38.074663,-98
2021-09-23 20:57:38.074669,-93
2021-09-23 20:57:38.299498,-96
2021-09-23 20:57:38.299519,-81
2021-09-23 20:57:38.299526,-67
2021-09-23 20:57:38.299532,-69
2021-09-23 20:57:38.299538,-60
2021-09-23 20:57:38.299544,-43
2021-09-23 20:57:38.299550,-38
2021-09-23 20:57:38.299556,-52
2021-09-23 20:57:38.299561,-67
2021-09-23 20:57:38.299567,-60
2021-09-23 20:57:38.299573,-40
2021-09-23 20:57:38.299579,-33
2021-09-23 20:57:38.299585,-43
2021-09-23 20:57:38.299590,-43
2021-09-23 20:57:38.299596,-31
2021-09-23 20:57:38.299602,-43
2021-09-23 20:57:38.299608,-52
2021-09-23 20:57:38.299613,-40
2021-09-23 20:57:38.299619,-43
2021-09-23 20:57:38.299625,-48
2021-09-23 20:57:38.299630,-36
2021-09-23 20:57:38.299636,-28
2021-09-23 20:57:38.299642,-33
2021-09-23 20:57:38.299647,-31
2021-09-23 20:57:38.299653,-26
2021-09-23 20:57:38.299659,-21
2021-09-23 20:57:38.299664,-14
2021-09-23 20:57:38.299670,7
2021-09-23 20:57:38.299676,26
2021-09-23 20:57:38.299682,19
2021-09-23 20:57:38.569536,-14
2021-09-23 20:57:38.569556,-38
2021-09-23 20:57:38.569563,-38
2021-09-23 20:57:38.569569,-31
2021-09-23 20:57:38.569575,-28
2021-09-23 20:57:38.569584,-21
2021-09-23 20:57:38.569590,-4
2021-09-23 20:57:38.569596,81
2021-09-23 20:57:38.569602,360
2021-09-23 20:57:38.569608,827
2021-09-23 20:57:38.569613,1050
2021-09-23 20:57:38.569619,327
2021-09-23 20:57:38.569625,-656
2021-09-23 20:57:38.569631,-514
2021-09-23 20:57:38.569637,-14
2021-09-23 20:57:38.569642,-117
2021-09-23 20:57:38.569648,-187
2021-09-23 20:57:38.569654,-45
2021-09-23 20:57:38.569660,-55
2021-09-23 20:57:38.569665,-84
2021-09-23 20:57:38.569671,-26
2021-09-23 20:57:38.569676,-21
2021-09-23 20:57:38.569682,-45
2021-09-23 20:57:38.569688,-19
2021-09-23 20:57:38.569693,4
2021-09-23 20:57:38.569699,4
2021-09-23 20:57:38.569705,9
2021-09-23 20:57:38.569711,19
2021-09-23 20:57:38.569717,31
2021-09-23 20:57:38.569722,43
2021-09-23 20:57:38.749508,50
2021-09-23 20:57:38.749529,60
2021-09-23 20:57:38.749536,69
2021-09-23 20:57:38.749543,79
2021-09-23 20:57:38.749549,91
2021-09-23 20:57:38.749555,103
2021-09-23 20:57:38.749561,105
2021-09-23 20:57:38.749566,105
2021-09-23 20:57:38.749572,93
2021-09-23 20:57:38.749578,79
2021-09-23 20:57:38.749584,67
2021-09-23 20:57:38.749590,36
2021-09-23 20:57:38.749596,-14
2021-09-23 20:57:38.749601,-55
2021-09-23 20:57:38.749607,-86
2021-09-23 20:57:38.749613,-113
2021-09-23 20:57:38.749618,-129
2021-09-23 20:57:38.749624,-141
2021-09-23 20:57:38.749630,-144
2021-09-23 20:57:38.749635,-137
2021-09-23 20:57:38.749641,-134
2021-09-23 20:57:38.749647,-137
2021-09-23 20:57:38.749652,-129
2021-09-23 20:57:38.749658,-117
2021-09-23 20:57:38.749664,-110
2021-09-23 20:57:38.749670,-108
2021-09-23 20:57:38.749675,-103
2021-09-23 20:57:38.749681,-93
2021-09-23 20:57:38.749686,-79
2021-09-23 20:57:38.749692,-60
2021-09-23 20:57:38.974520,-48
2021-09-23 20:57:38.974541,-43
2021-09-23 20:57:38.974548,-33
2021-09-23 20:57:38.974554,-24
2021-09-23 20:57:38.974560,-33
2021-09-23 20:57:38.974566,-50
2021-09-23 20:57:38.974572,-52
2021-09-23 20:57:38.974577,-40
2021-09-23 20:57:38.974583,-38
2021-09-23 20:57:38.974589,-55
2021-09-23 20:57:38.974595,-55
2021-09-23 20:57:38.974600,-45
2021-09-23 20:57:38.974606,-43
2021-09-23 20:57:38.974612,-45
2021-09-23 20:57:38.974617,-36
2021-09-23 20:57:38.974623,-26
2021-09-23 20:57:38.974629,-28
2021-09-23 20:57:38.974635,-31
2021-09-23 20:57:38.974640,-24
2021-09-23 20:57:38.974646,-21
2021-09-23 20:57:38.974651,-28
2021-09-23 20:57:38.974657,-24
2021-09-23 20:57:38.974663,-9
2021-09-23 20:57:38.974668,4
2021-09-23 20:57:38.974674,19
2021-09-23 20:57:38.974680,19
2021-09-23 20:57:38.974686,-4
2021-09-23 20:57:38.974691,-40
2021-09-23 20:57:38.974697,-50
2021-09-23 20:57:38.974703,-28
2021-09-23 20:57:39.333048,-16
2021-09-23 20:57:39.333069,-12
2021-09-23 20:57:39.333077,16
2021-09-23 20:57:39.333083,98
2021-09-23 20:57:39.333089,353
2021-09-23 20:57:39.333095,841
2021-09-23 20:57:39.333101,1111
2021-09-23 20:57:39.333107,442
2021-09-23 20:57:39.333113,-478
2021-09-23 20:57:39.333118,-396
2021-09-23 20:57:39.333124,-2
2021-09-23 20:57:39.333130,-132
2021-09-23 20:57:39.333136,-216
2021-09-23 20:57:39.333142,-84
2021-09-23 20:57:39.333148,-81
2021-09-23 20:57:39.333154,-125
2021-09-23 20:57:39.333160,-86
2021-09-23 20:57:39.333166,-62
2021-09-23 20:57:39.333171,-64
2021-09-23 20:57:39.333177,-50
2021-09-23 20:57:39.333183,-31
2021-09-23 20:57:39.333189,-26
2021-09-23 20:57:39.333195,-21
2021-09-23 20:57:39.333201,-19
2021-09-23 20:57:39.333206,-9
2021-09-23 20:57:39.333212,7
2021-09-23 20:57:39.333218,12
2021-09-23 20:57:39.333224,19
2021-09-23 20:57:39.333230,36
2021-09-23 20:57:39.333235,50
2021-09-23 20:57:39.469524,50
2021-09-23 20:57:39.469546,55
2021-09-23 20:57:39.469554,74
2021-09-23 20:57:39.469561,67
2021-09-23 20:57:39.469567,52
2021-09-23 20:57:39.469573,72
2021-09-23 20:57:39.469579,76
2021-09-23 20:57:39.469585,38
2021-09-23 20:57:39.469591,-9
2021-09-23 20:57:39.469597,-38
2021-09-23 20:57:39.469603,-60
2021-09-23 20:57:39.469609,-88
2021-09-23 20:57:39.469615,-101
2021-09-23 20:57:39.469621,-96
2021-09-23 20:57:39.469627,-105
2021-09-23 20:57:39.469633,-122
2021-09-23 20:57:39.469639,-129
2021-09-23 20:57:39.469644,-115
2021-09-23 20:57:39.469650,-96
2021-09-23 20:57:39.469656,-96
2021-09-23 20:57:39.469662,-108
2021-09-23 20:57:39.469668,-101
2021-09-23 20:57:39.469674,-86
2021-09-23 20:57:39.469680,-88
2021-09-23 20:57:39.469685,-86
2021-09-23 20:57:39.469691,-74
2021-09-23 20:57:39.469697,-74
2021-09-23 20:57:39.469703,-76
2021-09-23 20:57:39.469709,-74
2021-09-23 20:57:39.469715,-60
2021-09-23 20:57:39.739527,-40
2021-09-23 20:57:39.739547,-36
2021-09-23 20:57:39.739555,-50
2021-09-23 20:57:39.739561,-57
2021-09-23 20:57:39.739567,-43
2021-09-23 20:57:39.739573,-36
2021-09-23 20:57:39.739579,-40
2021-09-23 20:57:39.739585,-40
2021-09-23 20:57:39.739591,-43
2021-09-23 20:57:39.739597,-52
2021-09-23 20:57:39.739603,-50
2021-09-23 20:57:39.739609,-40
2021-09-23 20:57:39.739615,-36
2021-09-23 20:57:39.739621,-36
2021-09-23 20:57:39.739627,-33
2021-09-23 20:57:39.739633,-33
2021-09-23 20:57:39.739639,-38
2021-09-23 20:57:39.739645,-64
2021-09-23 20:57:39.739650,-81
2021-09-23 20:57:39.739656,-67
2021-09-23 20:57:39.739662,-55
2021-09-23 20:57:39.739668,-50
2021-09-23 20:57:39.739674,-38
2021-09-23 20:57:39.739680,0
2021-09-23 20:57:39.739685,149
2021-09-23 20:57:39.739691,485
2021-09-23 20:57:39.739697,880
2021-09-23 20:57:39.739703,721
2021-09-23 20:57:39.739709,-233
2021-09-23 20:57:39.739715,-728
2021-09-23 20:57:39.919521,-240
2021-09-23 20:57:39.919541,9
2021-09-23 20:57:39.919549,-163
2021-09-23 20:57:39.919555,-108
2021-09-23 20:57:39.919561,-2
2021-09-23 20:57:39.919567,-60
2021-09-23 20:57:39.919573,-64
2021-09-23 20:57:39.919578,-9
2021-09-23 20:57:39.919584,-24
2021-09-23 20:57:39.919590,-36
2021-09-23 20:57:39.919596,0
2021-09-23 20:57:39.919601,16
2021-09-23 20:57:39.919607,12
2021-09-23 20:57:39.919613,19
2021-09-23 20:57:39.919619,31
2021-09-23 20:57:39.919625,33
2021-09-23 20:57:39.919630,33
2021-09-23 20:57:39.919636,50
2021-09-23 20:57:39.919642,72
2021-09-23 20:57:39.919647,81
2021-09-23 20:57:39.919653,86
2021-09-23 20:57:39.919659,113
2021-09-23 20:57:39.919665,132
2021-09-23 20:57:39.919670,132
2021-09-23 20:57:39.919676,127
2021-09-23 20:57:39.919682,120
2021-09-23 20:57:39.919687,101
2021-09-23 20:57:39.919693,64
2021-09-23 20:57:39.919699,21
2021-09-23 20:57:39.919705,-19
2021-09-23 20:57:40.234517,-57
2021-09-23 20:57:40.234537,-88
2021-09-23 20:57:40.234545,-113
2021-09-23 20:57:40.234551,-129
2021-09-23 20:57:40.234557,-141
2021-09-23 20:57:40.234563,-139
2021-09-23 20:57:40.234568,-137
2021-09-23 20:57:40.234574,-144
2021-09-23 20:57:40.234580,-141
2021-09-23 20:57:40.234586,-129
2021-09-23 20:57:40.234591,-120
2021-09-23 20:57:40.234597,-115
2021-09-23 20:57:40.234603,-110
2021-09-23 20:57:40.234609,-115
2021-09-23 20:57:40.234614,-110
2021-09-23 20:57:40.234620,-98
2021-09-23 20:57:40.234626,-91
2021-09-23 20:57:40.234632,-79
2021-09-23 20:57:40.234637,-64
2021-09-23 20:57:40.234643,-64
2021-09-23 20:57:40.234649,-64
2021-09-23 20:57:40.234655,-48
2021-09-23 20:57:40.234661,-40
2021-09-23 20:57:40.234667,-60
2021-09-23 20:57:40.234673,-74
2021-09-23 20:57:40.234678,-64
2021-09-23 20:57:40.234684,-60
2021-09-23 20:57:40.234690,-62
2021-09-23 20:57:40.234695,-60
2021-09-23 20:57:40.234701,-55
2021-09-23 20:57:40.369536,-62
2021-09-23 20:57:40.369557,-60
2021-09-23 20:57:40.369564,-36
2021-09-23 20:57:40.369570,-24
2021-09-23 20:57:40.369576,-21
2021-09-23 20:57:40.369582,-14
2021-09-23 20:57:40.369588,-19
2021-09-23 20:57:40.369593,-38
2021-09-23 20:57:40.369599,-45
2021-09-23 20:57:40.369605,-43
2021-09-23 20:57:40.369611,-31
2021-09-23 20:57:40.369616,-24
2021-09-23 20:57:40.369622,-14
2021-09-23 20:57:40.369628,45
2021-09-23 20:57:40.369634,245
2021-09-23 20:57:40.369640,666
2021-09-23 20:57:40.369646,1043
2021-09-23 20:57:40.369651,618
2021-09-23 20:57:40.369657,-353
2021-09-23 20:57:40.369663,-490
2021-09-23 20:57:40.369668,-38
2021-09-23 20:57:40.369674,-48
2021-09-23 20:57:40.369680,-170
2021-09-23 20:57:40.369685,-62
2021-09-23 20:57:40.369691,-36
2021-09-23 20:57:40.369697,-79
2021-09-23 20:57:40.369703,-48
2021-09-23 20:57:40.369708,-36
2021-09-23 20:57:40.369714,-40
2021-09-23 20:57:40.369720,-21
2021-09-23 20:57:40.594530,-16
2021-09-23 20:57:40.594550,-24
2021-09-23 20:57:40.594557,-12
2021-09-23 20:57:40.594563,2
2021-09-23 20:57:40.594569,12
2021-09-23 20:57:40.594575,24
2021-09-23 20:57:40.594580,24
2021-09-23 20:57:40.594586,24
2021-09-23 20:57:40.594592,40
2021-09-23 20:57:40.594598,57
2021-09-23 20:57:40.594604,64
2021-09-23 20:57:40.594609,74
2021-09-23 20:57:40.594615,84
2021-09-23 20:57:40.594621,91
2021-09-23 20:57:40.594627,86
2021-09-23 20:57:40.594632,74
2021-09-23 20:57:40.594638,67
2021-09-23 20:57:40.594644,52
2021-09-23 20:57:40.594650,19
2021-09-23 20:57:40.594655,-26
2021-09-23 20:57:40.594661,-62
2021-09-23 20:57:40.594667,-84
2021-09-23 20:57:40.594672,-93
2021-09-23 20:57:40.594678,-103
2021-09-23 20:57:40.594684,-98
2021-09-23 20:57:40.594690,-88
2021-09-23 20:57:40.594695,-88
2021-09-23 20:57:40.594701,-98
2021-09-23 20:57:40.594707,-108
2021-09-23 20:57:40.594712,-113
2021-09-23 20:57:40.863846,-110
2021-09-23 20:57:40.863863,-98
2021-09-23 20:57:40.863871,-84
2021-09-23 20:57:40.863877,-79
2021-09-23 20:57:40.863883,-81
2021-09-23 20:57:40.863889,-86
2021-09-23 20:57:40.863895,-79
2021-09-23 20:57:40.863900,-72
2021-09-23 20:57:40.863906,-64
2021-09-23 20:57:40.863912,-64
2021-09-23 20:57:40.863918,-69
2021-09-23 20:57:40.863924,-72
2021-09-23 20:57:40.863929,-60
2021-09-23 20:57:40.863935,-50
2021-09-23 20:57:40.863941,-62
2021-09-23 20:57:40.863947,-69
2021-09-23 20:57:40.863952,-62
2021-09-23 20:57:40.863958,-57
2021-09-23 20:57:40.863964,-48
2021-09-23 20:57:40.863969,-31
2021-09-23 20:57:40.863975,-21
2021-09-23 20:57:40.863981,-19
2021-09-23 20:57:40.863987,-26
2021-09-23 20:57:40.863992,-45
2021-09-23 20:57:40.863998,-50
2021-09-23 20:57:40.864004,-36
2021-09-23 20:57:40.864010,-33
2021-09-23 20:57:40.864016,-31
2021-09-23 20:57:40.864022,-7
2021-09-23 20:57:40.864027,48
2021-09-23 20:57:41.089524,226
2021-09-23 20:57:41.089543,646
2021-09-23 20:57:41.089550,1053
2021-09-23 20:57:41.089557,654
2021-09-23 20:57:41.089563,-329
2021-09-23 20:57:41.089569,-490
2021-09-23 20:57:41.089575,-19
2021-09-23 20:57:41.089581,-33
2021-09-23 20:57:41.089587,-194
2021-09-23 20:57:41.089592,-84
2021-09-23 20:57:41.089598,-38
2021-09-23 20:57:41.089604,-91
2021-09-23 20:57:41.089610,-57
2021-09-23 20:57:41.089616,-24
2021-09-23 20:57:41.089621,-33
2021-09-23 20:57:41.089627,-26
2021-09-23 20:57:41.089633,-12
2021-09-23 20:57:41.089639,-24
2021-09-23 20:57:41.089645,-21
2021-09-23 20:57:41.089651,2
2021-09-23 20:57:41.089656,21
2021-09-23 20:57:41.089662,24
2021-09-23 20:57:41.089668,26
2021-09-23 20:57:41.089674,33
2021-09-23 20:57:41.089679,40
2021-09-23 20:57:41.089685,50
2021-09-23 20:57:41.089691,67
2021-09-23 20:57:41.089697,74
2021-09-23 20:57:41.089702,76
2021-09-23 20:57:41.089708,84
2021-09-23 20:57:41.358199,86
2021-09-23 20:57:41.358219,81
2021-09-23 20:57:41.358227,67
2021-09-23 20:57:41.358233,31
2021-09-23 20:57:41.358239,-16
2021-09-23 20:57:41.358245,-50
2021-09-23 20:57:41.358250,-57
2021-09-23 20:57:41.358256,-69
2021-09-23 20:57:41.358262,-91
2021-09-23 20:57:41.358268,-98
2021-09-23 20:57:41.358274,-93
2021-09-23 20:57:41.358279,-84
2021-09-23 20:57:41.358285,-81
2021-09-23 20:57:41.358291,-91
2021-09-23 20:57:41.358297,-96
2021-09-23 20:57:41.358302,-96
2021-09-23 20:57:41.358308,-88
2021-09-23 20:57:41.358314,-84
2021-09-23 20:57:41.358319,-76
2021-09-23 20:57:41.358325,-64
2021-09-23 20:57:41.358331,-62
2021-09-23 20:57:41.358337,-69
2021-09-23 20:57:41.358342,-55
2021-09-23 20:57:41.358348,-40
2021-09-23 20:57:41.358354,-40
2021-09-23 20:57:41.358360,-36
2021-09-23 20:57:41.358365,-31
2021-09-23 20:57:41.358371,-33
2021-09-23 20:57:41.358377,-36
2021-09-23 20:57:41.358383,-33
2021-09-23 20:57:41.539528,-28
2021-09-23 20:57:41.539549,-31
2021-09-23 20:57:41.539556,-38
2021-09-23 20:57:41.539563,-45
2021-09-23 20:57:41.539569,-36
2021-09-23 20:57:41.539575,-19
2021-09-23 20:57:41.539581,-7
2021-09-23 20:57:41.539586,2
2021-09-23 20:57:41.539592,-12
2021-09-23 20:57:41.539598,-50
2021-09-23 20:57:41.539604,-55
2021-09-23 20:57:41.539610,-36
2021-09-23 20:57:41.539616,-36
2021-09-23 20:57:41.539622,-31
2021-09-23 20:57:41.539628,-21
2021-09-23 20:57:41.539634,2
2021-09-23 20:57:41.539640,153
2021-09-23 20:57:41.539646,538
2021-09-23 20:57:41.539652,988
2021-09-23 20:57:41.539658,808
2021-09-23 20:57:41.539664,-141
2021-09-23 20:57:41.539669,-562
2021-09-23 20:57:41.539675,-125
2021-09-23 20:57:41.539681,16
2021-09-23 20:57:41.539687,-168
2021-09-23 20:57:41.539692,-105
2021-09-23 20:57:41.539698,-16
2021-09-23 20:57:41.539704,-72
2021-09-23 20:57:41.539710,-74
2021-09-23 20:57:41.539716,-33
2021-09-23 20:57:41.764554,-43
2021-09-23 20:57:41.764573,-48
2021-09-23 20:57:41.764580,-26
2021-09-23 20:57:41.764587,-16
2021-09-23 20:57:41.764593,-7
2021-09-23 20:57:41.764598,12
2021-09-23 20:57:41.764604,16
2021-09-23 20:57:41.764610,16
2021-09-23 20:57:41.764699,16
2021-09-23 20:57:41.764706,26
2021-09-23 20:57:41.764712,36
2021-09-23 20:57:41.764718,45
2021-09-23 20:57:41.764723,52
2021-09-23 20:57:41.764729,57
2021-09-23 20:57:41.764735,60
2021-09-23 20:57:41.764741,62
2021-09-23 20:57:41.764747,69
2021-09-23 20:57:41.764753,64
2021-09-23 20:57:41.764759,43
2021-09-23 20:57:41.764764,19
2021-09-23 20:57:41.764770,0
2021-09-23 20:57:41.764776,-28
2021-09-23 20:57:41.764782,-57
2021-09-23 20:57:41.764788,-72
2021-09-23 20:57:41.764793,-76
2021-09-23 20:57:41.764799,-84
2021-09-23 20:57:41.764805,-91
2021-09-23 20:57:41.764811,-91
2021-09-23 20:57:41.764817,-91
2021-09-23 20:57:41.764822,-93
2021-09-23 20:57:41.989556,-84
2021-09-23 20:57:41.989575,-86
2021-09-23 20:57:41.989583,-93
2021-09-23 20:57:41.989589,-84
2021-09-23 20:57:41.989595,-64
2021-09-23 20:57:41.989601,-57
2021-09-23 20:57:41.989607,-50
2021-09-23 20:57:41.989613,-52
2021-09-23 20:57:41.989619,-67
2021-09-23 20:57:41.989625,-64
2021-09-23 20:57:41.989631,-45
2021-09-23 20:57:41.989636,-31
2021-09-23 20:57:41.989642,-33
2021-09-23 20:57:41.989648,-48
2021-09-23 20:57:41.989654,-50
2021-09-23 20:57:41.989660,-31
2021-09-23 20:57:41.989665,-21
2021-09-23 20:57:41.989671,-31
2021-09-23 20:57:41.989677,-38
2021-09-23 20:57:41.989683,-40
2021-09-23 20:57:41.989688,-50
2021-09-23 20:57:41.989694,-38
2021-09-23 20:57:41.989700,-16
2021-09-23 20:57:41.989706,-9
2021-09-23 20:57:41.989711,-9
2021-09-23 20:57:41.989717,-12
2021-09-23 20:57:41.989723,-19
2021-09-23 20:57:41.989729,-28
2021-09-23 20:57:41.989735,-33
2021-09-23 20:57:41.989741,-26
2021-09-23 20:57:42.214559,-24
2021-09-23 20:57:42.214580,-16
2021-09-23 20:57:42.214587,19
2021-09-23 20:57:42.214593,170
2021-09-23 20:57:42.214600,538
2021-09-23 20:57:42.214606,995
2021-09-23 20:57:42.214611,860
2021-09-23 20:57:42.214617,-202
2021-09-23 20:57:42.214623,-824
2021-09-23 20:57:42.214629,-293
2021-09-23 20:57:42.214635,19
2021-09-23 20:57:42.214640,-187
2021-09-23 20:57:42.214646,-132
2021-09-23 20:57:42.214652,-9
2021-09-23 20:57:42.214658,-74
2021-09-23 20:57:42.214663,-96
2021-09-23 20:57:42.214669,-45
2021-09-23 20:57:42.214675,-38
2021-09-23 20:57:42.214681,-55
2021-09-23 20:57:42.214686,-40
2021-09-23 20:57:42.214692,-21
2021-09-23 20:57:42.214698,-14
2021-09-23 20:57:42.214704,4
2021-09-23 20:57:42.214710,33
2021-09-23 20:57:42.214716,38
2021-09-23 20:57:42.214721,31
2021-09-23 20:57:42.214727,40
2021-09-23 20:57:42.214733,69
2021-09-23 20:57:42.214739,81
2021-09-23 20:57:42.214744,91
2021-09-23 20:57:42.439548,105
2021-09-23 20:57:42.439569,108
2021-09-23 20:57:42.439576,105
2021-09-23 20:57:42.439582,103
2021-09-23 20:57:42.439588,86
2021-09-23 20:57:42.439594,57
2021-09-23 20:57:42.439600,21
2021-09-23 20:57:42.439606,-2
2021-09-23 20:57:42.439612,-26
2021-09-23 20:57:42.439618,-62
2021-09-23 20:57:42.439624,-86
2021-09-23 20:57:42.439630,-105
2021-09-23 20:57:42.439636,-134
2021-09-23 20:57:42.439642,-132
2021-09-23 20:57:42.439647,-117
2021-09-23 20:57:42.439653,-129
2021-09-23 20:57:42.439659,-132
2021-09-23 20:57:42.439665,-108
2021-09-23 20:57:42.439671,-96
2021-09-23 20:57:42.439676,-93
2021-09-23 20:57:42.439683,-76
2021-09-23 20:57:42.439688,-69
2021-09-23 20:57:42.439694,-74
2021-09-23 20:57:42.439700,-55
2021-09-23 20:57:42.439706,-31
2021-09-23 20:57:42.439712,-36
2021-09-23 20:57:42.439718,-45
2021-09-23 20:57:42.439723,-43
2021-09-23 20:57:42.439729,-38
2021-09-23 20:57:42.439735,-38
2021-09-23 20:57:42.664489,-43
2021-09-23 20:57:42.664507,-40
2021-09-23 20:57:42.664514,-33
2021-09-23 20:57:42.664520,-19
2021-09-23 20:57:42.664526,-16
2021-09-23 20:57:42.664532,-38
2021-09-23 20:57:42.664538,-55
2021-09-23 20:57:42.664544,-57
2021-09-23 20:57:42.664550,-62
2021-09-23 20:57:42.664556,-62
2021-09-23 20:57:42.664562,-55
2021-09-23 20:57:42.664568,-52
2021-09-23 20:57:42.664574,-50
2021-09-23 20:57:42.664580,-4
2021-09-23 20:57:42.664586,163
2021-09-23 20:57:42.664592,500
2021-09-23 20:57:42.664598,810
