Time,ECG
2021-09-23 21:18:20.266616,-36
2021-09-23 21:18:20.266634,-72
2021-09-23 21:18:20.266641,-96
2021-09-23 21:18:20.266647,-57
2021-09-23 21:18:20.266653,-52
2021-09-23 21:18:20.266659,-62
2021-09-23 21:18:20.266665,-48
2021-09-23 21:18:20.266670,-33
2021-09-23 21:18:20.266676,-33
2021-09-23 21:18:20.266682,-28
2021-09-23 21:18:20.266687,-21
2021-09-23 21:18:20.266693,-21
2021-09-23 21:18:20.266699,-19
2021-09-23 21:18:20.266704,-4
2021-09-23 21:18:20.266710,0
2021-09-23 21:18:20.266716,-2
2021-09-23 21:18:20.266721,2
2021-09-23 21:18:20.266727,4
2021-09-23 21:18:20.266733,4
2021-09-23 21:18:20.266739,9
2021-09-23 21:18:20.266744,4
2021-09-23 21:18:20.266750,-4
2021-09-23 21:18:20.266755,-16
2021-09-23 21:18:20.266761,-33
2021-09-23 21:18:20.266767,-43
2021-09-23 21:18:20.266772,-48
2021-09-23 21:18:20.266778,-52
2021-09-23 21:18:20.266784,-55
2021-09-23 21:18:20.266790,-55
2021-09-23 21:18:20.266796,-50
2021-09-23 21:18:20.495742,-52
2021-09-23 21:18:20.495760,-55
2021-09-23 21:18:20.495767,-52
2021-09-23 21:18:20.495774,-60
2021-09-23 21:18:20.495780,-74
2021-09-23 21:18:20.495786,-76
2021-09-23 21:18:20.495792,-62
2021-09-23 21:18:20.495798,-50
2021-09-23 21:18:20.495804,-43
2021-09-23 21:18:20.495810,-38
2021-09-23 21:18:20.495816,-36
2021-09-23 21:18:20.495822,-36
2021-09-23 21:18:20.495828,-28
2021-09-23 21:18:20.495834,-16
2021-09-23 21:18:20.495839,-14
2021-09-23 21:18:20.495845,-16
2021-09-23 21:18:20.495851,-14
2021-09-23 21:18:20.495857,-12
2021-09-23 21:18:20.495863,-9
2021-09-23 21:18:20.495869,-7
2021-09-23 21:18:20.495874,-9
2021-09-23 21:18:20.495880,-14
2021-09-23 21:18:20.495886,-14
2021-09-23 21:18:20.495891,-12
2021-09-23 21:18:20.495897,-12
2021-09-23 21:18:20.495902,-9
2021-09-23 21:18:20.495908,-9
2021-09-23 21:18:20.495914,-12
2021-09-23 21:18:20.495920,-9
2021-09-23 21:18:20.495927,-9
2021-09-23 21:18:20.676416,-7
2021-09-23 21:18:20.676433,-2
2021-09-23 21:18:20.676440,-4
2021-09-23 21:18:20.676446,-24
2021-09-23 21:18:20.676452,-33
2021-09-23 21:18:20.676458,-28
2021-09-23 21:18:20.676464,-31
2021-09-23 21:18:20.676470,-31
2021-09-23 21:18:20.676475,-24
2021-09-23 21:18:20.676481,-28
2021-09-23 21:18:20.676487,-38
2021-09-23 21:18:20.676493,-31
2021-09-23 21:18:20.676499,-21
2021-09-23 21:18:20.676508,-19
2021-09-23 21:18:20.676515,-16
2021-09-23 21:18:20.676520,-19
2021-09-23 21:18:20.676526,-24
2021-09-23 21:18:20.676532,-16
2021-09-23 21:18:20.676538,-9
2021-09-23 21:18:20.676544,-7
2021-09-23 21:18:20.676549,-4
2021-09-23 21:18:20.676555,-9
2021-09-23 21:18:20.676561,-12
2021-09-23 21:18:20.676567,-4
2021-09-23 21:18:20.676573,2
2021-09-23 21:18:20.676578,2
2021-09-23 21:18:20.676584,4
2021-09-23 21:18:20.676590,4
2021-09-23 21:18:20.676596,2
2021-09-23 21:18:20.676603,4
2021-09-23 21:18:20.991327,12
2021-09-23 21:18:20.991345,21
2021-09-23 21:18:20.991352,31
2021-09-23 21:18:20.991358,33
2021-09-23 21:18:20.991364,21
2021-09-23 21:18:20.991370,4
2021-09-23 21:18:20.991376,-9
2021-09-23 21:18:20.991382,-7
2021-09-23 21:18:20.991388,-4
2021-09-23 21:18:20.991393,-12
2021-09-23 21:18:20.991399,2
2021-09-23 21:18:20.991405,79
2021-09-23 21:18:20.991411,266
2021-09-23 21:18:20.991417,601
2021-09-23 21:18:20.991423,899
2021-09-23 21:18:20.991428,567
2021-09-23 21:18:20.991434,-324
2021-09-23 21:18:20.991444,-548
2021-09-23 21:18:20.991450,-105
2021-09-23 21:18:20.991455,-33
2021-09-23 21:18:20.991461,-158
2021-09-23 21:18:20.991467,-72
2021-09-23 21:18:20.991473,-21
2021-09-23 21:18:20.991479,-60
2021-09-23 21:18:20.991484,-36
2021-09-23 21:18:20.991490,-4
2021-09-23 21:18:20.991496,-19
2021-09-23 21:18:20.991501,-21
2021-09-23 21:18:20.991507,-4
2021-09-23 21:18:20.991513,0
2021-09-23 21:18:21.171272,0
2021-09-23 21:18:21.171288,2
2021-09-23 21:18:21.171295,2
2021-09-23 21:18:21.171301,4
2021-09-23 21:18:21.171307,12
2021-09-23 21:18:21.171313,24
2021-09-23 21:18:21.171319,28
2021-09-23 21:18:21.171329,26
2021-09-23 21:18:21.171335,21
2021-09-23 21:18:21.171340,12
2021-09-23 21:18:21.171346,4
2021-09-23 21:18:21.171352,0
2021-09-23 21:18:21.171358,-4
2021-09-23 21:18:21.171364,-14
2021-09-23 21:18:21.171370,-33
2021-09-23 21:18:21.171376,-52
2021-09-23 21:18:21.171381,-60
2021-09-23 21:18:21.171387,-62
2021-09-23 21:18:21.171393,-64
2021-09-23 21:18:21.171399,-67
2021-09-23 21:18:21.171404,-76
2021-09-23 21:18:21.171410,-81
2021-09-23 21:18:21.171416,-76
2021-09-23 21:18:21.171422,-69
2021-09-23 21:18:21.171428,-67
2021-09-23 21:18:21.171433,-69
2021-09-23 21:18:21.171439,-67
2021-09-23 21:18:21.171445,-62
2021-09-23 21:18:21.171450,-50
2021-09-23 21:18:21.171457,-40
2021-09-23 21:18:21.441332,-33
2021-09-23 21:18:21.441350,-26
2021-09-23 21:18:21.441357,-21
2021-09-23 21:18:21.441363,-19
2021-09-23 21:18:21.441369,-12
2021-09-23 21:18:21.441375,-2
2021-09-23 21:18:21.441381,2
2021-09-23 21:18:21.441387,-4
2021-09-23 21:18:21.441392,-14
2021-09-23 21:18:21.441398,-14
2021-09-23 21:18:21.441404,-12
2021-09-23 21:18:21.441410,-14
2021-09-23 21:18:21.441416,-24
2021-09-23 21:18:21.441421,-31
2021-09-23 21:18:21.441427,-33
2021-09-23 21:18:21.441433,-31
2021-09-23 21:18:21.441439,-28
2021-09-23 21:18:21.441444,-24
2021-09-23 21:18:21.441450,-21
2021-09-23 21:18:21.441456,-19
2021-09-23 21:18:21.441461,-19
2021-09-23 21:18:21.441467,-19
2021-09-23 21:18:21.441473,-16
2021-09-23 21:18:21.441479,-12
2021-09-23 21:18:21.441489,-9
2021-09-23 21:18:21.441495,-9
2021-09-23 21:18:21.441501,-12
2021-09-23 21:18:21.441506,-9
2021-09-23 21:18:21.441512,-4
2021-09-23 21:18:21.441518,-2
2021-09-23 21:18:21.621341,-2
2021-09-23 21:18:21.621359,-2
2021-09-23 21:18:21.621366,-2
2021-09-23 21:18:21.621372,0
2021-09-23 21:18:21.621378,2
2021-09-23 21:18:21.621384,7
2021-09-23 21:18:21.621390,4
2021-09-23 21:18:21.621396,-4
2021-09-23 21:18:21.621402,-9
2021-09-23 21:18:21.621408,-7
2021-09-23 21:18:21.621413,2
2021-09-23 21:18:21.621419,4
2021-09-23 21:18:21.621425,4
2021-09-23 21:18:21.621431,-2
2021-09-23 21:18:21.621436,-14
2021-09-23 21:18:21.621442,-19
2021-09-23 21:18:21.621448,-9
2021-09-23 21:18:21.621454,-7
2021-09-23 21:18:21.621460,-7
2021-09-23 21:18:21.621465,-2
2021-09-23 21:18:21.621471,4
2021-09-23 21:18:21.621477,24
2021-09-23 21:18:21.621484,28
2021-09-23 21:18:21.621490,12
2021-09-23 21:18:21.621496,-9
2021-09-23 21:18:21.621502,-16
2021-09-23 21:18:21.621508,-9
2021-09-23 21:18:21.621513,0
2021-09-23 21:18:21.621519,9
2021-09-23 21:18:21.621525,45
2021-09-23 21:18:21.934986,153
2021-09-23 21:18:21.935005,413
2021-09-23 21:18:21.935012,781
2021-09-23 21:18:21.935018,863
2021-09-23 21:18:21.935025,170
2021-09-23 21:18:21.935031,-572
2021-09-23 21:18:21.935037,-375
2021-09-23 21:18:21.935043,-2
2021-09-23 21:18:21.935048,-101
2021-09-23 21:18:21.935054,-125
2021-09-23 21:18:21.935060,-16
2021-09-23 21:18:21.935066,-40
2021-09-23 21:18:21.935072,-69
2021-09-23 21:18:21.935078,-26
2021-09-23 21:18:21.935084,-14
2021-09-23 21:18:21.935089,-26
2021-09-23 21:18:21.935095,-16
2021-09-23 21:18:21.935101,-9
2021-09-23 21:18:21.935107,-7
2021-09-23 21:18:21.935113,2
2021-09-23 21:18:21.935119,9
2021-09-23 21:18:21.935125,12
2021-09-23 21:18:21.935131,19
2021-09-23 21:18:21.935137,26
2021-09-23 21:18:21.935146,28
2021-09-23 21:18:21.935152,28
2021-09-23 21:18:21.935158,28
2021-09-23 21:18:21.935163,26
2021-09-23 21:18:21.935169,19
2021-09-23 21:18:21.935175,19
2021-09-23 21:18:22.071356,16
2021-09-23 21:18:22.071373,2
2021-09-23 21:18:22.071380,-12
2021-09-23 21:18:22.071386,-26
2021-09-23 21:18:22.071392,-40
2021-09-23 21:18:22.071398,-57
2021-09-23 21:18:22.071404,-69
2021-09-23 21:18:22.071409,-67
2021-09-23 21:18:22.071415,-62
2021-09-23 21:18:22.071421,-67
2021-09-23 21:18:22.071427,-69
2021-09-23 21:18:22.071433,-74
2021-09-23 21:18:22.071439,-84
2021-09-23 21:18:22.071444,-76
2021-09-23 21:18:22.071450,-67
2021-09-23 21:18:22.071456,-64
2021-09-23 21:18:22.071462,-57
2021-09-23 21:18:22.071468,-48
2021-09-23 21:18:22.071474,-45
2021-09-23 21:18:22.071479,-48
2021-09-23 21:18:22.071485,-45
2021-09-23 21:18:22.071491,-38
2021-09-23 21:18:22.071497,-33
2021-09-23 21:18:22.071502,-31
2021-09-23 21:18:22.071508,-26
2021-09-23 21:18:22.071514,-21
2021-09-23 21:18:22.071520,-16
2021-09-23 21:18:22.071526,-19
2021-09-23 21:18:22.071532,-19
2021-09-23 21:18:22.071537,-24
2021-09-23 21:18:22.296283,-24
2021-09-23 21:18:22.296300,-21
2021-09-23 21:18:22.296306,-21
2021-09-23 21:18:22.296313,-21
2021-09-23 21:18:22.296319,-24
2021-09-23 21:18:22.296325,-28
2021-09-23 21:18:22.296331,-28
2021-09-23 21:18:22.296336,-24
2021-09-23 21:18:22.296342,-24
2021-09-23 21:18:22.296348,-24
2021-09-23 21:18:22.296354,-24
2021-09-23 21:18:22.296360,-28
2021-09-23 21:18:22.296366,-26
2021-09-23 21:18:22.296372,-21
2021-09-23 21:18:22.296378,-19
2021-09-23 21:18:22.296384,-16
2021-09-23 21:18:22.296389,-14
2021-09-23 21:18:22.296395,-14
2021-09-23 21:18:22.296401,-12
2021-09-23 21:18:22.296407,-12
2021-09-23 21:18:22.296413,-14
2021-09-23 21:18:22.296419,-16
2021-09-23 21:18:22.296424,-14
2021-09-23 21:18:22.296430,-14
2021-09-23 21:18:22.296436,-14
2021-09-23 21:18:22.296442,-7
2021-09-23 21:18:22.296448,-2
2021-09-23 21:18:22.296454,-2
2021-09-23 21:18:22.296460,-7
2021-09-23 21:18:22.296465,-2
2021-09-23 21:18:22.521350,7
2021-09-23 21:18:22.521368,4
2021-09-23 21:18:22.521375,0
2021-09-23 21:18:22.521382,-2
2021-09-23 21:18:22.521387,2
2021-09-23 21:18:22.521393,12
2021-09-23 21:18:22.521399,31
2021-09-23 21:18:22.521405,43
2021-09-23 21:18:22.521411,28
2021-09-23 21:18:22.521417,-2
2021-09-23 21:18:22.521427,-21
2021-09-23 21:18:22.521433,-14
2021-09-23 21:18:22.521439,0
2021-09-23 21:18:22.521445,7
2021-09-23 21:18:22.521450,24
2021-09-23 21:18:22.521456,88
2021-09-23 21:18:22.521462,286
2021-09-23 21:18:22.521468,634
2021-09-23 21:18:22.521474,928
2021-09-23 21:18:22.521480,565
2021-09-23 21:18:22.521486,-355
2021-09-23 21:18:22.521492,-567
2021-09-23 21:18:22.521498,-98
2021-09-23 21:18:22.521503,-24
2021-09-23 21:18:22.521509,-146
2021-09-23 21:18:22.521515,-52
2021-09-23 21:18:22.521521,-16
2021-09-23 21:18:22.521526,-69
2021-09-23 21:18:22.521532,-40
2021-09-23 21:18:22.521538,-4
2021-09-23 21:18:22.791317,-16
2021-09-23 21:18:22.791333,-4
2021-09-23 21:18:22.791340,12
2021-09-23 21:18:22.791346,2
2021-09-23 21:18:22.791352,-2
2021-09-23 21:18:22.791358,7
2021-09-23 21:18:22.791363,16
2021-09-23 21:18:22.791369,26
2021-09-23 21:18:22.791374,31
2021-09-23 21:18:22.791380,24
2021-09-23 21:18:22.791386,24
2021-09-23 21:18:22.791392,38
2021-09-23 21:18:22.791397,43
2021-09-23 21:18:22.791403,36
2021-09-23 21:18:22.791409,38
2021-09-23 21:18:22.791414,33
2021-09-23 21:18:22.791420,19
2021-09-23 21:18:22.791425,12
2021-09-23 21:18:22.791431,0
2021-09-23 21:18:22.791437,-19
2021-09-23 21:18:22.791442,-40
2021-09-23 21:18:22.791448,-55
2021-09-23 21:18:22.791453,-62
2021-09-23 21:18:22.791459,-64
2021-09-23 21:18:22.791464,-67
2021-09-23 21:18:22.791474,-74
2021-09-23 21:18:22.791480,-81
2021-09-23 21:18:22.791485,-84
2021-09-23 21:18:22.791491,-81
2021-09-23 21:18:22.791497,-74
2021-09-23 21:18:23.016424,-69
2021-09-23 21:18:23.016442,-67
2021-09-23 21:18:23.016449,-55
2021-09-23 21:18:23.016455,-45
2021-09-23 21:18:23.016461,-40
2021-09-23 21:18:23.016467,-31
2021-09-23 21:18:23.016473,-26
2021-09-23 21:18:23.016479,-21
2021-09-23 21:18:23.016485,-19
2021-09-23 21:18:23.016490,-24
2021-09-23 21:18:23.016496,-19
2021-09-23 21:18:23.016502,-9
2021-09-23 21:18:23.016508,-9
2021-09-23 21:18:23.016514,-14
2021-09-23 21:18:23.016520,-26
2021-09-23 21:18:23.016525,-38
2021-09-23 21:18:23.016531,-31
2021-09-23 21:18:23.016537,-24
2021-09-23 21:18:23.016542,-26
2021-09-23 21:18:23.016548,-26
2021-09-23 21:18:23.016554,-26
2021-09-23 21:18:23.016559,-28
2021-09-23 21:18:23.016565,-26
2021-09-23 21:18:23.016571,-21
2021-09-23 21:18:23.016577,-21
2021-09-23 21:18:23.016583,-21
2021-09-23 21:18:23.016588,-19
2021-09-23 21:18:23.016594,-24
2021-09-23 21:18:23.016600,-19
2021-09-23 21:18:23.016605,-14
2021-09-23 21:18:23.241385,-19
2021-09-23 21:18:23.241404,-26
2021-09-23 21:18:23.241411,-33
2021-09-23 21:18:23.241417,-33
2021-09-23 21:18:23.241423,-28
2021-09-23 21:18:23.241429,-19
2021-09-23 21:18:23.241435,-12
2021-09-23 21:18:23.241441,-19
2021-09-23 21:18:23.241447,-28
2021-09-23 21:18:23.241453,-24
2021-09-23 21:18:23.241459,-21
2021-09-23 21:18:23.241464,-19
2021-09-23 21:18:23.241470,-7
2021-09-23 21:18:23.241476,-4
2021-09-23 21:18:23.241482,-16
2021-09-23 21:18:23.241488,-16
2021-09-23 21:18:23.241496,-7
2021-09-23 21:18:23.241503,0
2021-09-23 21:18:23.241508,7
2021-09-23 21:18:23.241514,21
2021-09-23 21:18:23.241520,33
2021-09-23 21:18:23.241526,24
2021-09-23 21:18:23.241531,0
2021-09-23 21:18:23.241537,-19
2021-09-23 21:18:23.241543,-12
2021-09-23 21:18:23.241549,0
2021-09-23 21:18:23.241554,4
2021-09-23 21:18:23.241560,14
2021-09-23 21:18:23.241566,55
2021-09-23 21:18:23.241572,214
2021-09-23 21:18:23.467320,541
2021-09-23 21:18:23.467340,889
2021-09-23 21:18:23.467346,709
2021-09-23 21:18:23.467352,-216
2021-09-23 21:18:23.467357,-707
2021-09-23 21:18:23.467363,-240
2021-09-23 21:18:23.467368,12
2021-09-23 21:18:23.467373,-146
2021-09-23 21:18:23.467379,-88
2021-09-23 21:18:23.467384,7
2021-09-23 21:18:23.467389,-43
2021-09-23 21:18:23.467394,-43
2021-09-23 21:18:23.467399,4
2021-09-23 21:18:23.467404,2
2021-09-23 21:18:23.467422,-7
2021-09-23 21:18:23.467428,12
2021-09-23 21:18:23.467434,24
2021-09-23 21:18:23.467439,24
2021-09-23 21:18:23.467444,28
2021-09-23 21:18:23.467450,38
2021-09-23 21:18:23.467456,50
2021-09-23 21:18:23.467461,52
2021-09-23 21:18:23.467467,60
2021-09-23 21:18:23.467472,67
2021-09-23 21:18:23.467478,69
2021-09-23 21:18:23.467483,76
2021-09-23 21:18:23.467488,81
2021-09-23 21:18:23.467494,76
2021-09-23 21:18:23.467499,76
2021-09-23 21:18:23.467504,72
2021-09-23 21:18:23.691414,45
2021-09-23 21:18:23.691430,16
2021-09-23 21:18:23.691438,-2
2021-09-23 21:18:23.691443,-12
2021-09-23 21:18:23.691448,-21
2021-09-23 21:18:23.691453,-36
2021-09-23 21:18:23.691458,-55
2021-09-23 21:18:23.691464,-74
2021-09-23 21:18:23.691469,-81
2021-09-23 21:18:23.691475,-81
2021-09-23 21:18:23.691481,-86
2021-09-23 21:18:23.691487,-88
2021-09-23 21:18:23.691492,-91
2021-09-23 21:18:23.691502,-91
2021-09-23 21:18:23.691507,-86
2021-09-23 21:18:23.691513,-79
2021-09-23 21:18:23.691518,-72
2021-09-23 21:18:23.691524,-64
2021-09-23 21:18:23.691529,-57
2021-09-23 21:18:23.691534,-45
2021-09-23 21:18:23.691540,-38
2021-09-23 21:18:23.691545,-36
2021-09-23 21:18:23.691551,-31
2021-09-23 21:18:23.691556,-26
2021-09-23 21:18:23.691561,-28
2021-09-23 21:18:23.691567,-26
2021-09-23 21:18:23.691572,-21
2021-09-23 21:18:23.691578,-31
2021-09-23 21:18:23.691584,-38
2021-09-23 21:18:23.691589,-31
2021-09-23 21:18:24.005857,-28
2021-09-23 21:18:24.005878,-36
2021-09-23 21:18:24.005885,-38
2021-09-23 21:18:24.005891,-48
2021-09-23 21:18:24.005897,-48
2021-09-23 21:18:24.005903,-38
2021-09-23 21:18:24.005909,-40
2021-09-23 21:18:24.005914,-48
2021-09-23 21:18:24.005920,-43
2021-09-23 21:18:24.005926,-38
2021-09-23 21:18:24.005932,-36
2021-09-23 21:18:24.005937,-36
2021-09-23 21:18:24.005943,-40
2021-09-23 21:18:24.005949,-36
2021-09-23 21:18:24.005955,-28
2021-09-23 21:18:24.005961,-31
2021-09-23 21:18:24.005966,-33
2021-09-23 21:18:24.005972,-24
2021-09-23 21:18:24.005977,-16
2021-09-23 21:18:24.005983,-14
2021-09-23 21:18:24.005989,-19
2021-09-23 21:18:24.005995,-16
2021-09-23 21:18:24.006001,-4
2021-09-23 21:18:24.006006,7
2021-09-23 21:18:24.006012,12
2021-09-23 21:18:24.006018,26
2021-09-23 21:18:24.006024,31
2021-09-23 21:18:24.006029,14
2021-09-23 21:18:24.006035,-9
2021-09-23 21:18:24.006041,-19
2021-09-23 21:18:24.141327,-9
2021-09-23 21:18:24.141344,-2
2021-09-23 21:18:24.141351,2
2021-09-23 21:18:24.141357,14
2021-09-23 21:18:24.141363,57
2021-09-23 21:18:24.141369,223
2021-09-23 21:18:24.141375,550
2021-09-23 21:18:24.141381,856
2021-09-23 21:18:24.141387,596
2021-09-23 21:18:24.141393,-317
2021-09-23 21:18:24.141399,-699
2021-09-23 21:18:24.141405,-216
2021-09-23 21:18:24.141411,-7
2021-09-23 21:18:24.141417,-151
2021-09-23 21:18:24.141422,-79
2021-09-23 21:18:24.141428,2
2021-09-23 21:18:24.141434,-50
2021-09-23 21:18:24.141445,-45
2021-09-23 21:18:24.141451,-2
2021-09-23 21:18:24.141456,-2
2021-09-23 21:18:24.141462,-2
2021-09-23 21:18:24.141468,16
2021-09-23 21:18:24.141474,21
2021-09-23 21:18:24.141480,21
2021-09-23 21:18:24.141486,33
2021-09-23 21:18:24.141492,45
2021-09-23 21:18:24.141497,52
2021-09-23 21:18:24.141503,60
2021-09-23 21:18:24.141509,62
2021-09-23 21:18:24.141515,69
2021-09-23 21:18:24.366288,81
2021-09-23 21:18:24.366305,86
2021-09-23 21:18:24.366312,84
2021-09-23 21:18:24.366318,81
2021-09-23 21:18:24.366324,79
2021-09-23 21:18:24.366330,67
2021-09-23 21:18:24.366336,57
2021-09-23 21:18:24.366342,43
2021-09-23 21:18:24.366348,19
2021-09-23 21:18:24.366354,-4
2021-09-23 21:18:24.366359,-24
2021-09-23 21:18:24.366365,-40
2021-09-23 21:18:24.366371,-45
2021-09-23 21:18:24.366377,-50
2021-09-23 21:18:24.366383,-60
2021-09-23 21:18:24.366388,-72
2021-09-23 21:18:24.366394,-81
2021-09-23 21:18:24.366400,-81
2021-09-23 21:18:24.366406,-76
2021-09-23 21:18:24.366411,-74
2021-09-23 21:18:24.366417,-74
2021-09-23 21:18:24.366423,-72
2021-09-23 21:18:24.366429,-62
2021-09-23 21:18:24.366435,-45
2021-09-23 21:18:24.366440,-33
2021-09-23 21:18:24.366446,-26
2021-09-23 21:18:24.366452,-14
2021-09-23 21:18:24.366458,-9
2021-09-23 21:18:24.366464,-7
2021-09-23 21:18:24.366470,-2
2021-09-23 21:18:24.636464,0
2021-09-23 21:18:24.636482,-2
2021-09-23 21:18:24.636489,-4
2021-09-23 21:18:24.636496,-12
2021-09-23 21:18:24.636501,-24
2021-09-23 21:18:24.636508,-24
2021-09-23 21:18:24.636513,-24
2021-09-23 21:18:24.636519,-33
2021-09-23 21:18:24.636525,-45
2021-09-23 21:18:24.636531,-57
2021-09-23 21:18:24.636537,-60
2021-09-23 21:18:24.636543,-48
2021-09-23 21:18:24.636548,-43
2021-09-23 21:18:24.636554,-48
2021-09-23 21:18:24.636560,-50
2021-09-23 21:18:24.636565,-48
2021-09-23 21:18:24.636571,-40
2021-09-23 21:18:24.636577,-40
2021-09-23 21:18:24.636583,-40
2021-09-23 21:18:24.636588,-45
2021-09-23 21:18:24.636594,-50
2021-09-23 21:18:24.636600,-48
2021-09-23 21:18:24.636605,-45
2021-09-23 21:18:24.636611,-38
2021-09-23 21:18:24.636617,-31
2021-09-23 21:18:24.636622,-28
2021-09-23 21:18:24.636628,-28
2021-09-23 21:18:24.636634,-26
2021-09-23 21:18:24.636639,-16
2021-09-23 21:18:24.636648,0
2021-09-23 21:18:24.861476,14
2021-09-23 21:18:24.861498,19
2021-09-23 21:18:24.861505,7
2021-09-23 21:18:24.861511,-19
2021-09-23 21:18:24.861517,-31
2021-09-23 21:18:24.861523,-21
2021-09-23 21:18:24.861529,-9
2021-09-23 21:18:24.861535,-4
2021-09-23 21:18:24.861541,2
2021-09-23 21:18:24.861546,52
2021-09-23 21:18:24.861552,240
2021-09-23 21:18:24.861558,579
2021-09-23 21:18:24.861564,896
2021-09-23 21:18:24.861583,596
2021-09-23 21:18:24.861590,-319
2021-09-23 21:18:24.861596,-598
2021-09-23 21:18:24.861602,-139
2021-09-23 21:18:24.861608,-33
2021-09-23 21:18:24.861614,-168
2021-09-23 21:18:24.861620,-79
2021-09-23 21:18:24.861626,-24
2021-09-23 21:18:24.861632,-74
2021-09-23 21:18:24.861646,-52
2021-09-23 21:18:24.861652,-9
2021-09-23 21:18:24.861658,-16
2021-09-23 21:18:24.861664,-14
2021-09-23 21:18:24.861670,0
2021-09-23 21:18:24.861676,4
2021-09-23 21:18:24.861689,9
2021-09-23 21:18:24.861696,19
2021-09-23 21:18:25.086427,28
2021-09-23 21:18:25.086445,31
2021-09-23 21:18:25.086452,33
2021-09-23 21:18:25.086458,43
2021-09-23 21:18:25.086464,52
2021-09-23 21:18:25.086470,57
2021-09-23 21:18:25.086476,62
2021-09-23 21:18:25.086481,60
2021-09-23 21:18:25.086487,52
2021-09-23 21:18:25.086493,48
2021-09-23 21:18:25.086499,48
2021-09-23 21:18:25.086504,43
2021-09-23 21:18:25.086510,24
2021-09-23 21:18:25.086516,-2
2021-09-23 21:18:25.086522,-21
2021-09-23 21:18:25.086528,-26
2021-09-23 21:18:25.086533,-28
2021-09-23 21:18:25.086539,-38
2021-09-23 21:18:25.086545,-45
2021-09-23 21:18:25.086551,-50
2021-09-23 21:18:25.086556,-57
2021-09-23 21:18:25.086562,-64
2021-09-23 21:18:25.086568,-67
2021-09-23 21:18:25.086573,-67
2021-09-23 21:18:25.086579,-74
2021-09-23 21:18:25.086585,-79
2021-09-23 21:18:25.086590,-67
2021-09-23 21:18:25.086596,-57
2021-09-23 21:18:25.086602,-50
2021-09-23 21:18:25.086607,-40
2021-09-23 21:18:25.311273,-36
2021-09-23 21:18:25.311289,-36
2021-09-23 21:18:25.311296,-28
2021-09-23 21:18:25.311302,-21
2021-09-23 21:18:25.311308,-16
2021-09-23 21:18:25.311314,-14
2021-09-23 21:18:25.311320,-14
2021-09-23 21:18:25.311326,-19
2021-09-23 21:18:25.311332,-28
2021-09-23 21:18:25.311337,-31
2021-09-23 21:18:25.311343,-33
2021-09-23 21:18:25.311349,-33
2021-09-23 21:18:25.311354,-28
2021-09-23 21:18:25.311360,-33
2021-09-23 21:18:25.311366,-40
2021-09-23 21:18:25.311372,-45
2021-09-23 21:18:25.311377,-43
2021-09-23 21:18:25.311383,-40
2021-09-23 21:18:25.311389,-40
2021-09-23 21:18:25.311395,-38
2021-09-23 21:18:25.311404,-36
2021-09-23 21:18:25.311409,-33
2021-09-23 21:18:25.311415,-28
2021-09-23 21:18:25.311421,-26
2021-09-23 21:18:25.311427,-28
2021-09-23 21:18:25.311432,-31
2021-09-23 21:18:25.311438,-31
2021-09-23 21:18:25.311444,-31
2021-09-23 21:18:25.311450,-26
2021-09-23 21:18:25.311456,-21
2021-09-23 21:18:25.536431,-28
2021-09-23 21:18:25.536450,-33
2021-09-23 21:18:25.536457,-26
2021-09-23 21:18:25.536463,-14
2021-09-23 21:18:25.536468,-7
2021-09-23 21:18:25.536475,7
2021-09-23 21:18:25.536481,12
2021-09-23 21:18:25.536487,-2
2021-09-23 21:18:25.536492,-19
2021-09-23 21:18:25.536498,-36
2021-09-23 21:18:25.536504,-36
2021-09-23 21:18:25.536510,-26
2021-09-23 21:18:25.536516,-21
2021-09-23 21:18:25.536522,-16
2021-09-23 21:18:25.536528,31
2021-09-23 21:18:25.536533,182
2021-09-23 21:18:25.536539,478
2021-09-23 21:18:25.536545,834
2021-09-23 21:18:25.536551,769
2021-09-23 21:18:25.536556,-38
2021-09-23 21:18:25.536562,-591
2021-09-23 21:18:25.536568,-257
2021-09-23 21:18:25.536574,-12
2021-09-23 21:18:25.536579,-151
2021-09-23 21:18:25.536585,-122
2021-09-23 21:18:25.536591,-26
2021-09-23 21:18:25.536597,-64
2021-09-23 21:18:25.536603,-69
2021-09-23 21:18:25.536608,-21
2021-09-23 21:18:25.536614,-26
2021-09-23 21:18:25.761335,-43
2021-09-23 21:18:25.761351,-21
2021-09-23 21:18:25.761358,-9
2021-09-23 21:18:25.761364,-12
2021-09-23 21:18:25.761370,-2
2021-09-23 21:18:25.761376,7
2021-09-23 21:18:25.761382,4
2021-09-23 21:18:25.761388,12
2021-09-23 21:18:25.761393,21
2021-09-23 21:18:25.761399,26
2021-09-23 21:18:25.761405,31
2021-09-23 21:18:25.761411,38
2021-09-23 21:18:25.761416,38
2021-09-23 21:18:25.761422,40
2021-09-23 21:18:25.761428,43
2021-09-23 21:18:25.761434,40
2021-09-23 21:18:25.761440,31
2021-09-23 21:18:25.761445,19
2021-09-23 21:18:25.761451,2
2021-09-23 21:18:25.761457,-12
2021-09-23 21:18:25.761463,-19
2021-09-23 21:18:25.761468,-28
2021-09-23 21:18:25.761474,-40
2021-09-23 21:18:25.761480,-52
2021-09-23 21:18:25.761486,-55
2021-09-23 21:18:25.761492,-48
2021-09-23 21:18:25.761497,-50
2021-09-23 21:18:25.761503,-57
2021-09-23 21:18:25.761509,-60
2021-09-23 21:18:25.761514,-60
2021-09-23 21:18:26.075035,-60
2021-09-23 21:18:26.075053,-50
2021-09-23 21:18:26.075060,-40
2021-09-23 21:18:26.075066,-40
2021-09-23 21:18:26.075072,-40
2021-09-23 21:18:26.075078,-38
2021-09-23 21:18:26.075084,-36
2021-09-23 21:18:26.075089,-28
2021-09-23 21:18:26.075095,-19
2021-09-23 21:18:26.075101,-19
2021-09-23 21:18:26.075107,-19
2021-09-23 21:18:26.075113,-24
2021-09-23 21:18:26.075119,-21
2021-09-23 21:18:26.075125,-12
2021-09-23 21:18:26.075130,-9
2021-09-23 21:18:26.075136,-14
2021-09-23 21:18:26.075142,-16
2021-09-23 21:18:26.075148,-16
2021-09-23 21:18:26.075154,-14
2021-09-23 21:18:26.075159,-12
2021-09-23 21:18:26.075165,-14
2021-09-23 21:18:26.075171,-19
2021-09-23 21:18:26.075180,-24
2021-09-23 21:18:26.075186,-21
2021-09-23 21:18:26.075192,-19
2021-09-23 21:18:26.075198,-24
2021-09-23 21:18:26.075203,-24
2021-09-23 21:18:26.075209,-19
2021-09-23 21:18:26.075215,-19
2021-09-23 21:18:26.075221,-19
2021-09-23 21:18:26.211465,-16
2021-09-23 21:18:26.211485,-14
2021-09-23 21:18:26.211492,-12
2021-09-23 21:18:26.211498,-12
2021-09-23 21:18:26.211504,-12
2021-09-23 21:18:26.211510,-19
2021-09-23 21:18:26.211516,-19
2021-09-23 21:18:26.211522,-9
2021-09-23 21:18:26.211527,-12
2021-09-23 21:18:26.211533,-24
2021-09-23 21:18:26.211539,-28
2021-09-23 21:18:26.211545,-24
2021-09-23 21:18:26.211550,-14
2021-09-23 21:18:26.211556,-4
2021-09-23 21:18:26.211562,9
2021-09-23 21:18:26.211568,4
2021-09-23 21:18:26.211573,-24
2021-09-23 21:18:26.211579,-43
2021-09-23 21:18:26.211585,-40
2021-09-23 21:18:26.211591,-28
2021-09-23 21:18:26.211596,-24
2021-09-23 21:18:26.211602,-24
2021-09-23 21:18:26.211608,-2
2021-09-23 21:18:26.211614,96
2021-09-23 21:18:26.211619,348
2021-09-23 21:18:26.211625,752
2021-09-23 21:18:26.211631,964
2021-09-23 21:18:26.211637,365
2021-09-23 21:18:26.211642,-512
2021-09-23 21:18:26.211648,-456
2021-09-23 21:18:26.481967,-28
2021-09-23 21:18:26.481985,-98
2021-09-23 21:18:26.481990,-170
2021-09-23 21:18:26.481996,-57
2021-09-23 21:18:26.482001,-60
2021-09-23 21:18:26.482006,-88
2021-09-23 21:18:26.482010,-43
2021-09-23 21:18:26.482015,-26
2021-09-23 21:18:26.482020,-36
2021-09-23 21:18:26.482025,-31
2021-09-23 21:18:26.482030,-21
2021-09-23 21:18:26.482035,-14
2021-09-23 21:18:26.482040,-2
2021-09-23 21:18:26.482044,7
2021-09-23 21:18:26.482049,9
2021-09-23 21:18:26.482054,12
2021-09-23 21:18:26.482059,16
2021-09-23 21:18:26.482063,28
2021-09-23 21:18:26.482069,40
2021-09-23 21:18:26.482074,45
2021-09-23 21:18:26.482079,45
2021-09-23 21:18:26.482085,48
2021-09-23 21:18:26.482091,48
2021-09-23 21:18:26.482097,48
2021-09-23 21:18:26.482102,40
2021-09-23 21:18:26.482108,24
2021-09-23 21:18:26.482113,4
2021-09-23 21:18:26.482118,-9
2021-09-23 21:18:26.482124,-16
2021-09-23 21:18:26.482128,-19
2021-09-23 21:18:26.706466,-26
2021-09-23 21:18:26.706486,-33
2021-09-23 21:18:26.706493,-40
2021-09-23 21:18:26.706499,-48
2021-09-23 21:18:26.706504,-48
2021-09-23 21:18:26.706511,-48
2021-09-23 21:18:26.706516,-48
2021-09-23 21:18:26.706522,-48
2021-09-23 21:18:26.706528,-50
2021-09-23 21:18:26.706534,-57
2021-09-23 21:18:26.706540,-60
2021-09-23 21:18:26.706546,-57
2021-09-23 21:18:26.706552,-50
2021-09-23 21:18:26.706558,-40
2021-09-23 21:18:26.706563,-40
2021-09-23 21:18:26.706569,-48
2021-09-23 21:18:26.706575,-38
2021-09-23 21:18:26.706581,-21
2021-09-23 21:18:26.706587,-21
2021-09-23 21:18:26.706592,-16
2021-09-23 21:18:26.706598,-9
2021-09-23 21:18:26.706604,-14
2021-09-23 21:18:26.706610,-14
2021-09-23 21:18:26.706615,-9
2021-09-23 21:18:26.706621,-9
2021-09-23 21:18:26.706627,-4
2021-09-23 21:18:26.706632,-9
2021-09-23 21:18:26.706638,-19
2021-09-23 21:18:26.706644,-19
2021-09-23 21:18:26.706649,-12
2021-09-23 21:18:26.931373,-9
2021-09-23 21:18:26.931390,-14
2021-09-23 21:18:26.931397,-16
2021-09-23 21:18:26.931404,-14
2021-09-23 21:18:26.931410,-9
2021-09-23 21:18:26.931419,-4
2021-09-23 21:18:26.931425,-2
2021-09-23 21:18:26.931431,-4
2021-09-23 21:18:26.931436,-16
2021-09-23 21:18:26.931442,-24
2021-09-23 21:18:26.931448,-14
2021-09-23 21:18:26.931454,-9
2021-09-23 21:18:26.931460,-12
2021-09-23 21:18:26.931466,-14
2021-09-23 21:18:26.931471,-19
2021-09-23 21:18:26.931477,-19
2021-09-23 21:18:26.931483,-12
2021-09-23 21:18:26.931489,-12
2021-09-23 21:18:26.931494,-9
2021-09-23 21:18:26.931500,-4
2021-09-23 21:18:26.931506,-7
2021-09-23 21:18:26.931512,-14
2021-09-23 21:18:26.931517,-14
2021-09-23 21:18:26.931523,-7
2021-09-23 21:18:26.931529,0
2021-09-23 21:18:26.931535,7
2021-09-23 21:18:26.931541,14
2021-09-23 21:18:26.931547,16
2021-09-23 21:18:26.931553,2
2021-09-23 21:18:26.931558,-26
2021-09-23 21:18:27.156443,-38
2021-09-23 21:18:27.156463,-26
2021-09-23 21:18:27.156470,-21
2021-09-23 21:18:27.156476,-19
2021-09-23 21:18:27.156482,2
2021-09-23 21:18:27.156488,72
2021-09-23 21:18:27.156494,274
2021-09-23 21:18:27.156500,656
2021-09-23 21:18:27.156506,1031
2021-09-23 21:18:27.156511,716
2021-09-23 21:18:27.156517,-257
2021-09-23 21:18:27.156523,-555
2021-09-23 21:18:27.156529,-115
2021-09-23 21:18:27.156535,-50
2021-09-23 21:18:27.156541,-202
2021-09-23 21:18:27.156546,-108
2021-09-23 21:18:27.156552,-55
2021-09-23 21:18:27.156558,-113
2021-09-23 21:18:27.156564,-86
2021-09-23 21:18:27.156570,-45
2021-09-23 21:18:27.156575,-60
2021-09-23 21:18:27.156581,-52
2021-09-23 21:18:27.156587,-28
2021-09-23 21:18:27.156593,-21
2021-09-23 21:18:27.156598,-21
2021-09-23 21:18:27.156604,-9
2021-09-23 21:18:27.156610,-4
2021-09-23 21:18:27.156616,2
2021-09-23 21:18:27.156621,12
2021-09-23 21:18:27.156627,21
2021-09-23 21:18:27.426380,26
2021-09-23 21:18:27.426394,26
2021-09-23 21:18:27.426399,26
2021-09-23 21:18:27.426402,28
2021-09-23 21:18:27.426405,33
2021-09-23 21:18:27.426408,31
2021-09-23 21:18:27.426411,19
2021-09-23 21:18:27.426414,4
2021-09-23 21:18:27.426417,-4
2021-09-23 21:18:27.426420,-14
2021-09-23 21:18:27.426423,-26
2021-09-23 21:18:27.426426,-36
2021-09-23 21:18:27.426429,-45
2021-09-23 21:18:27.426432,-57
2021-09-23 21:18:27.426435,-64
2021-09-23 21:18:27.426438,-62
2021-09-23 21:18:27.426441,-57
2021-09-23 21:18:27.426444,-55
2021-09-23 21:18:27.426447,-57
2021-09-23 21:18:27.426451,-60
2021-09-23 21:18:27.426454,-55
2021-09-23 21:18:27.426457,-50
2021-09-23 21:18:27.426460,-50
2021-09-23 21:18:27.426463,-43
2021-09-23 21:18:27.426466,-40
2021-09-23 21:18:27.426469,-38
2021-09-23 21:18:27.426471,-28
2021-09-23 21:18:27.426475,-24
2021-09-23 21:18:27.426477,-16
2021-09-23 21:18:27.426480,-12
2021-09-23 21:18:27.651507,-9
2021-09-23 21:18:27.651526,-4
2021-09-23 21:18:27.651533,-2
2021-09-23 21:18:27.651539,-9
2021-09-23 21:18:27.651545,-14
2021-09-23 21:18:27.651550,-14
2021-09-23 21:18:27.651556,-12
2021-09-23 21:18:27.651562,-9
2021-09-23 21:18:27.651568,-9
2021-09-23 21:18:27.651574,-9
2021-09-23 21:18:27.651579,-9
2021-09-23 21:18:27.651585,-9
2021-09-23 21:18:27.651591,-12
2021-09-23 21:18:27.651597,-12
2021-09-23 21:18:27.651602,-14
2021-09-23 21:18:27.651608,-19
2021-09-23 21:18:27.651614,-16
2021-09-23 21:18:27.651620,-16
2021-09-23 21:18:27.651625,-24
2021-09-23 21:18:27.651631,-19
2021-09-23 21:18:27.651637,-12
2021-09-23 21:18:27.651642,-16
2021-09-23 21:18:27.651648,-28
2021-09-23 21:18:27.651654,-31
2021-09-23 21:18:27.651660,-24
2021-09-23 21:18:27.651666,-19
2021-09-23 21:18:27.651671,-21
2021-09-23 21:18:27.651677,-19
2021-09-23 21:18:27.651683,-16
2021-09-23 21:18:27.651688,-21
2021-09-23 21:18:27.831408,-26
2021-09-23 21:18:27.831430,-24
2021-09-23 21:18:27.831437,-26
2021-09-23 21:18:27.831443,-28
2021-09-23 21:18:27.831449,-24
2021-09-23 21:18:27.831455,-21
2021-09-23 21:18:27.831460,-28
2021-09-23 21:18:27.831466,-28
2021-09-23 21:18:27.831472,-24
2021-09-23 21:18:27.831478,-16
2021-09-23 21:18:27.831484,-4
2021-09-23 21:18:27.831490,7
2021-09-23 21:18:27.831496,16
2021-09-23 21:18:27.831502,7
2021-09-23 21:18:27.831508,-19
2021-09-23 21:18:27.831514,-36
2021-09-23 21:18:27.831519,-31
2021-09-23 21:18:27.831525,-24
2021-09-23 21:18:27.831531,-16
2021-09-23 21:18:27.831537,-2
2021-09-23 21:18:27.831543,50
2021-09-23 21:18:27.831548,221
2021-09-23 21:18:27.831554,589
2021-09-23 21:18:27.831560,1036
2021-09-23 21:18:27.831566,923
2021-09-23 21:18:27.831571,-52
2021-09-23 21:18:27.831577,-637
2021-09-23 21:18:27.831583,-228
2021-09-23 21:18:27.831588,-2
2021-09-23 21:18:27.831594,-177
2021-09-23 21:18:28.190122,-127
2021-09-23 21:18:28.190141,-24
2021-09-23 21:18:28.190148,-69
2021-09-23 21:18:28.190154,-69
2021-09-23 21:18:28.190160,-28
2021-09-23 21:18:28.190166,-38
2021-09-23 21:18:28.190172,-38
2021-09-23 21:18:28.190177,-16
2021-09-23 21:18:28.190183,-16
2021-09-23 21:18:28.190189,-21
2021-09-23 21:18:28.190195,-16
2021-09-23 21:18:28.190201,-14
2021-09-23 21:18:28.190206,-2
2021-09-23 21:18:28.190212,14
2021-09-23 21:18:28.190218,24
2021-09-23 21:18:28.190224,26
2021-09-23 21:18:28.190230,31
2021-09-23 21:18:28.190235,36
2021-09-23 21:18:28.190241,40
2021-09-23 21:18:28.190247,45
2021-09-23 21:18:28.190252,45
2021-09-23 21:18:28.190258,36
2021-09-23 21:18:28.190264,21
2021-09-23 21:18:28.190269,4
2021-09-23 21:18:28.190275,-9
2021-09-23 21:18:28.190281,-26
2021-09-23 21:18:28.190286,-38
2021-09-23 21:18:28.190292,-52
2021-09-23 21:18:28.190298,-69
2021-09-23 21:18:28.190304,-74
2021-09-23 21:18:28.281376,-69
2021-09-23 21:18:28.281394,-72
2021-09-23 21:18:28.281400,-74
2021-09-23 21:18:28.281406,-84
2021-09-23 21:18:28.281412,-93
2021-09-23 21:18:28.281418,-86
2021-09-23 21:18:28.281424,-74
2021-09-23 21:18:28.281430,-69
2021-09-23 21:18:28.281436,-64
2021-09-23 21:18:28.281441,-64
2021-09-23 21:18:28.281447,-62
2021-09-23 21:18:28.281453,-52
2021-09-23 21:18:28.281459,-40
2021-09-23 21:18:28.281464,-36
2021-09-23 21:18:28.281470,-33
2021-09-23 21:18:28.281476,-33
2021-09-23 21:18:28.281482,-33
2021-09-23 21:18:28.281487,-26
2021-09-23 21:18:28.281493,-24
2021-09-23 21:18:28.281499,-26
2021-09-23 21:18:28.281504,-33
2021-09-23 21:18:28.281510,-43
2021-09-23 21:18:28.281516,-43
2021-09-23 21:18:28.281521,-36
2021-09-23 21:18:28.281527,-36
2021-09-23 21:18:28.281532,-38
2021-09-23 21:18:28.281538,-40
2021-09-23 21:18:28.281543,-40
2021-09-23 21:18:28.281549,-36
2021-09-23 21:18:28.281555,-28
2021-09-23 21:18:28.685812,-28
2021-09-23 21:18:28.685831,-31
2021-09-23 21:18:28.685838,-33
2021-09-23 21:18:28.685844,-43
2021-09-23 21:18:28.685850,-48
2021-09-23 21:18:28.685856,-40
2021-09-23 21:18:28.685862,-38
2021-09-23 21:18:28.685868,-43
2021-09-23 21:18:28.685874,-45
2021-09-23 21:18:28.685879,-50
2021-09-23 21:18:28.685885,-52
2021-09-23 21:18:28.685891,-50
2021-09-23 21:18:28.685897,-48
2021-09-23 21:18:28.685902,-45
2021-09-23 21:18:28.685908,-48
2021-09-23 21:18:28.685914,-45
2021-09-23 21:18:28.685920,-36
2021-09-23 21:18:28.685925,-31
2021-09-23 21:18:28.685931,-36
2021-09-23 21:18:28.685937,-31
2021-09-23 21:18:28.685943,-19
2021-09-23 21:18:28.685948,-12
2021-09-23 21:18:28.685954,-2
2021-09-23 21:18:28.685960,19
2021-09-23 21:18:28.685966,24
2021-09-23 21:18:28.685972,-7
2021-09-23 21:18:28.685977,-36
2021-09-23 21:18:28.685983,-33
2021-09-23 21:18:28.685989,-16
2021-09-23 21:18:28.685995,-9
2021-09-23 21:18:28.777096,-7
2021-09-23 21:18:28.777115,14
2021-09-23 21:18:28.777122,113
2021-09-23 21:18:28.777129,365
2021-09-23 21:18:28.777135,759
2021-09-23 21:18:28.777141,964
2021-09-23 21:18:28.777147,339
2021-09-23 21:18:28.777153,-644
2021-09-23 21:18:28.777158,-606
2021-09-23 21:18:28.777164,-67
2021-09-23 21:18:28.777170,-86
2021-09-23 21:18:28.777179,-173
2021-09-23 21:18:28.777185,-36
2021-09-23 21:18:28.777191,-26
2021-09-23 21:18:28.777197,-74
2021-09-23 21:18:28.777203,-33
2021-09-23 21:18:28.777209,-4
2021-09-23 21:18:28.777215,-12
2021-09-23 21:18:28.777221,-4
2021-09-23 21:18:28.777227,4
2021-09-23 21:18:28.777232,7
2021-09-23 21:18:28.777238,19
2021-09-23 21:18:28.777244,38
2021-09-23 21:18:28.777250,48
2021-09-23 21:18:28.777256,52
2021-09-23 21:18:28.777262,60
2021-09-23 21:18:28.777268,60
2021-09-23 21:18:28.777274,60
2021-09-23 21:18:28.777280,72
2021-09-23 21:18:28.777286,81
2021-09-23 21:18:29.001382,88
2021-09-23 21:18:29.001399,86
2021-09-23 21:18:29.001406,72
2021-09-23 21:18:29.001412,62
2021-09-23 21:18:29.001417,60
2021-09-23 21:18:29.001423,43
2021-09-23 21:18:29.001429,16
2021-09-23 21:18:29.001435,-2
2021-09-23 21:18:29.001441,-21
2021-09-23 21:18:29.001446,-33
2021-09-23 21:18:29.001451,-36
2021-09-23 21:18:29.001457,-48
2021-09-23 21:18:29.001463,-62
2021-09-23 21:18:29.001468,-69
2021-09-23 21:18:29.001474,-81
2021-09-23 21:18:29.001480,-93
2021-09-23 21:18:29.001486,-93
2021-09-23 21:18:29.001491,-84
2021-09-23 21:18:29.001497,-72
2021-09-23 21:18:29.001503,-64
2021-09-23 21:18:29.001508,-48
2021-09-23 21:18:29.001513,-28
2021-09-23 21:18:29.001518,-21
2021-09-23 21:18:29.001524,-12
2021-09-23 21:18:29.001530,-2
2021-09-23 21:18:29.001535,-2
2021-09-23 21:18:29.001541,0
2021-09-23 21:18:29.001546,0
2021-09-23 21:18:29.001552,-4
2021-09-23 21:18:29.001557,-12
2021-09-23 21:18:29.226454,-19
2021-09-23 21:18:29.226472,-24
2021-09-23 21:18:29.226479,-26
2021-09-23 21:18:29.226485,-28
2021-09-23 21:18:29.226491,-24
2021-09-23 21:18:29.226496,-14
2021-09-23 21:18:29.226502,-14
2021-09-23 21:18:29.226508,-19
2021-09-23 21:18:29.226514,-16
2021-09-23 21:18:29.226520,-24
2021-09-23 21:18:29.226525,-38
2021-09-23 21:18:29.226531,-38
2021-09-23 21:18:29.226537,-43
2021-09-23 21:18:29.226543,-50
2021-09-23 21:18:29.226549,-43
2021-09-23 21:18:29.226555,-38
2021-09-23 21:18:29.226560,-38
2021-09-23 21:18:29.226566,-36
2021-09-23 21:18:29.226572,-43
2021-09-23 21:18:29.226578,-43
2021-09-23 21:18:29.226583,-24
2021-09-23 21:18:29.226589,-14
2021-09-23 21:18:29.226595,-7
2021-09-23 21:18:29.226600,14
2021-09-23 21:18:29.226606,7
2021-09-23 21:18:29.226611,-28
2021-09-23 21:18:29.226617,-48
2021-09-23 21:18:29.226623,-36
2021-09-23 21:18:29.226629,-21
2021-09-23 21:18:29.226634,-21
2021-09-23 21:18:29.495797,-14
2021-09-23 21:18:29.495815,16
2021-09-23 21:18:29.495822,129
2021-09-23 21:18:29.495828,394
2021-09-23 21:18:29.495834,764
2021-09-23 21:18:29.495840,844
2021-09-23 21:18:29.495846,110
2021-09-23 21:18:29.495853,-721
2021-09-23 21:18:29.495859,-497
2021-09-23 21:18:29.495865,-9
2021-09-23 21:18:29.495871,-91
2021-09-23 21:18:29.495877,-134
2021-09-23 21:18:29.495882,-2
2021-09-23 21:18:29.495888,-14
2021-09-23 21:18:29.495894,-48
2021-09-23 21:18:29.495900,-7
2021-09-23 21:18:29.495906,9
2021-09-23 21:18:29.495912,2
2021-09-23 21:18:29.495918,16
2021-09-23 21:18:29.495923,28
2021-09-23 21:18:29.495929,24
2021-09-23 21:18:29.495935,31
2021-09-23 21:18:29.495941,48
2021-09-23 21:18:29.495947,55
2021-09-23 21:18:29.495953,57
2021-09-23 21:18:29.495959,69
2021-09-23 21:18:29.495964,81
2021-09-23 21:18:29.495970,93
2021-09-23 21:18:29.495976,103
2021-09-23 21:18:29.495982,101
2021-09-23 21:18:29.676411,101
2021-09-23 21:18:29.676429,115
2021-09-23 21:18:29.676436,120
2021-09-23 21:18:29.676442,101
2021-09-23 21:18:29.676448,79
2021-09-23 21:18:29.676454,60
2021-09-23 21:18:29.676460,38
2021-09-23 21:18:29.676466,21
2021-09-23 21:18:29.676472,0
2021-09-23 21:18:29.676478,-24
2021-09-23 21:18:29.676484,-38
2021-09-23 21:18:29.676490,-52
2021-09-23 21:18:29.676496,-67
2021-09-23 21:18:29.676502,-81
2021-09-23 21:18:29.676508,-98
2021-09-23 21:18:29.676513,-113
2021-09-23 21:18:29.676519,-115
2021-09-23 21:18:29.676525,-105
2021-09-23 21:18:29.676531,-91
2021-09-23 21:18:29.676537,-79
2021-09-23 21:18:29.676543,-67
2021-09-23 21:18:29.676549,-55
2021-09-23 21:18:29.676554,-48
2021-09-23 21:18:29.676560,-40
2021-09-23 21:18:29.676566,-28
2021-09-23 21:18:29.676572,-16
2021-09-23 21:18:29.676578,-16
2021-09-23 21:18:29.676583,-16
2021-09-23 21:18:29.676589,-16
2021-09-23 21:18:29.676595,-16
2021-09-23 21:18:29.901385,-16
2021-09-23 21:18:29.901403,-19
2021-09-23 21:18:29.901409,-24
2021-09-23 21:18:29.901415,-31
2021-09-23 21:18:29.901421,-38
2021-09-23 21:18:29.901427,-38
2021-09-23 21:18:29.901433,-33
2021-09-23 21:18:29.901438,-31
2021-09-23 21:18:29.901449,-36
2021-09-23 21:18:29.901455,-38
2021-09-23 21:18:29.901461,-38
2021-09-23 21:18:29.901466,-40
2021-09-23 21:18:29.901472,-38
2021-09-23 21:18:29.901478,-28
2021-09-23 21:18:29.901483,-24
2021-09-23 21:18:29.901489,-28
2021-09-23 21:18:29.901495,-33
2021-09-23 21:18:29.901500,-33
2021-09-23 21:18:29.901506,-21
2021-09-23 21:18:29.901512,-14
2021-09-23 21:18:29.901517,-12
2021-09-23 21:18:29.901523,-2
2021-09-23 21:18:29.901529,0
2021-09-23 21:18:29.901534,-19
2021-09-23 21:18:29.901540,-48
2021-09-23 21:18:29.901545,-52
2021-09-23 21:18:29.901551,-36
2021-09-23 21:18:29.901556,-31
2021-09-23 21:18:29.901562,-31
2021-09-23 21:18:29.901568,-7
2021-09-23 21:18:30.170031,72
2021-09-23 21:18:30.170048,288
2021-09-23 21:18:30.170055,675
2021-09-23 21:18:30.170061,985
2021-09-23 21:18:30.170067,569
2021-09-23 21:18:30.170073,-404
2021-09-23 21:18:30.170079,-589
2021-09-23 21:18:30.170085,-98
2021-09-23 21:18:30.170091,-52
2021-09-23 21:18:30.170096,-192
2021-09-23 21:18:30.170102,-86
2021-09-23 21:18:30.170108,-33
2021-09-23 21:18:30.170114,-81
2021-09-23 21:18:30.170120,-55
2021-09-23 21:18:30.170126,-21
2021-09-23 21:18:30.170132,-36
2021-09-23 21:18:30.170137,-31
2021-09-23 21:18:30.170143,-4
2021-09-23 21:18:30.170149,2
2021-09-23 21:18:30.170155,2
2021-09-23 21:18:30.170160,7
2021-09-23 21:18:30.170166,2
2021-09-23 21:18:30.170172,4
2021-09-23 21:18:30.170178,21
2021-09-23 21:18:30.170183,31
2021-09-23 21:18:30.170189,33
2021-09-23 21:18:30.170195,38
2021-09-23 21:18:30.170201,43
2021-09-23 21:18:30.170206,48
2021-09-23 21:18:30.170212,55
2021-09-23 21:18:30.396365,57
2021-09-23 21:18:30.396381,52
2021-09-23 21:18:30.396388,40
2021-09-23 21:18:30.396395,19
2021-09-23 21:18:30.396401,2
2021-09-23 21:18:30.396407,-2
2021-09-23 21:18:30.396413,-12
2021-09-23 21:18:30.396419,-26
2021-09-23 21:18:30.396425,-43
2021-09-23 21:18:30.396430,-64
2021-09-23 21:18:30.396436,-72
2021-09-23 21:18:30.396442,-69
2021-09-23 21:18:30.396448,-74
2021-09-23 21:18:30.396454,-76
2021-09-23 21:18:30.396460,-79
2021-09-23 21:18:30.396466,-81
2021-09-23 21:18:30.396472,-74
2021-09-23 21:18:30.396477,-62
2021-09-23 21:18:30.396483,-52
2021-09-23 21:18:30.396489,-45
2021-09-23 21:18:30.396495,-43
2021-09-23 21:18:30.396500,-38
2021-09-23 21:18:30.396506,-31
2021-09-23 21:18:30.396512,-21
2021-09-23 21:18:30.396518,-14
2021-09-23 21:18:30.396524,-9
2021-09-23 21:18:30.396530,-7
2021-09-23 21:18:30.396536,-12
2021-09-23 21:18:30.396541,-16
2021-09-23 21:18:30.396547,-16
2021-09-23 21:18:30.666544,-14
2021-09-23 21:18:30.666562,-14
2021-09-23 21:18:30.666569,-16
2021-09-23 21:18:30.666576,-19
2021-09-23 21:18:30.666581,-16
2021-09-23 21:18:30.666587,-12
2021-09-23 21:18:30.666593,-7
2021-09-23 21:18:30.666599,-9
2021-09-23 21:18:30.666604,-19
2021-09-23 21:18:30.666610,-21
2021-09-23 21:18:30.666616,-12
2021-09-23 21:18:30.666622,-7
2021-09-23 21:18:30.666628,-12
2021-09-23 21:18:30.666634,-16
2021-09-23 21:18:30.666639,-19
2021-09-23 21:18:30.666645,-19
2021-09-23 21:18:30.666651,-12
2021-09-23 21:18:30.666657,4
2021-09-23 21:18:30.666663,21
2021-09-23 21:18:30.666669,14
2021-09-23 21:18:30.666675,-16
2021-09-23 21:18:30.666681,-36
2021-09-23 21:18:30.666686,-24
2021-09-23 21:18:30.666692,-9
2021-09-23 21:18:30.666698,-7
2021-09-23 21:18:30.666704,0
2021-09-23 21:18:30.666710,24
2021-09-23 21:18:30.666715,129
2021-09-23 21:18:30.666721,420
2021-09-23 21:18:30.666727,860
2021-09-23 21:18:30.846417,1002
2021-09-23 21:18:30.846433,283
2021-09-23 21:18:30.846441,-553
2021-09-23 21:18:30.846447,-396
2021-09-23 21:18:30.846453,-16
2021-09-23 21:18:30.846459,-137
2021-09-23 21:18:30.846465,-185
2021-09-23 21:18:30.846471,-64
2021-09-23 21:18:30.846477,-81
2021-09-23 21:18:30.846483,-113
2021-09-23 21:18:30.846488,-60
2021-09-23 21:18:30.846494,-43
2021-09-23 21:18:30.846500,-57
2021-09-23 21:18:30.846505,-40
2021-09-23 21:18:30.846511,-28
2021-09-23 21:18:30.846517,-26
2021-09-23 21:18:30.846523,-14
2021-09-23 21:18:30.846528,-2
2021-09-23 21:18:30.846534,0
2021-09-23 21:18:30.846540,0
2021-09-23 21:18:30.846545,2
2021-09-23 21:18:30.846551,14
2021-09-23 21:18:30.846557,24
2021-09-23 21:18:30.846563,31
2021-09-23 21:18:30.846568,40
2021-09-23 21:18:30.846574,45
2021-09-23 21:18:30.846580,45
2021-09-23 21:18:30.846586,43
2021-09-23 21:18:30.846591,40
2021-09-23 21:18:30.846597,33
2021-09-23 21:18:31.071430,16
2021-09-23 21:18:31.071448,0
2021-09-23 21:18:31.071455,-19
2021-09-23 21:18:31.071461,-36
2021-09-23 21:18:31.071467,-45
2021-09-23 21:18:31.071473,-52
2021-09-23 21:18:31.071478,-64
2021-09-23 21:18:31.071484,-74
2021-09-23 21:18:31.071490,-76
2021-09-23 21:18:31.071496,-79
2021-09-23 21:18:31.071502,-81
2021-09-23 21:18:31.071507,-76
2021-09-23 21:18:31.071513,-76
2021-09-23 21:18:31.071519,-81
2021-09-23 21:18:31.071524,-76
2021-09-23 21:18:31.071530,-67
2021-09-23 21:18:31.071536,-60
2021-09-23 21:18:31.071541,-50
2021-09-23 21:18:31.071547,-48
2021-09-23 21:18:31.071553,-45
2021-09-23 21:18:31.071558,-36
2021-09-23 21:18:31.071564,-26
2021-09-23 21:18:31.071570,-21
2021-09-23 21:18:31.071579,-19
2021-09-23 21:18:31.071585,-16
2021-09-23 21:18:31.071590,-14
2021-09-23 21:18:31.071596,-12
2021-09-23 21:18:31.071602,-12
2021-09-23 21:18:31.071608,-9
2021-09-23 21:18:31.071613,-9
2021-09-23 21:18:31.341507,-12
2021-09-23 21:18:31.341523,-14
2021-09-23 21:18:31.341531,-21
2021-09-23 21:18:31.341537,-31
2021-09-23 21:18:31.341543,-33
2021-09-23 21:18:31.341549,-28
2021-09-23 21:18:31.341555,-31
2021-09-23 21:18:31.341560,-36
2021-09-23 21:18:31.341566,-36
2021-09-23 21:18:31.341572,-28
2021-09-23 21:18:31.341578,-16
2021-09-23 21:18:31.341584,-14
2021-09-23 21:18:31.341589,-4
2021-09-23 21:18:31.341595,14
2021-09-23 21:18:31.341601,7
2021-09-23 21:18:31.341606,-21
2021-09-23 21:18:31.341612,-31
2021-09-23 21:18:31.341618,-21
2021-09-23 21:18:31.341624,-14
2021-09-23 21:18:31.341629,-12
2021-09-23 21:18:31.341635,0
2021-09-23 21:18:31.341641,38
2021-09-23 21:18:31.341647,175
2021-09-23 21:18:31.341653,480
2021-09-23 21:18:31.341659,887
2021-09-23 21:18:31.341664,913
2021-09-23 21:18:31.341670,108
2021-09-23 21:18:31.341676,-584
2021-09-23 21:18:31.341682,-283
2021-09-23 21:18:31.341687,28
2021-09-23 21:18:31.521455,-134
2021-09-23 21:18:31.521473,-137
2021-09-23 21:18:31.521480,-19
2021-09-23 21:18:31.521486,-52
2021-09-23 21:18:31.521492,-69
2021-09-23 21:18:31.521498,-21
2021-09-23 21:18:31.521504,-21
2021-09-23 21:18:31.521510,-31
2021-09-23 21:18:31.521516,-7
2021-09-23 21:18:31.521522,4
2021-09-23 21:18:31.521528,2
2021-09-23 21:18:31.521534,4
2021-09-23 21:18:31.521540,9
2021-09-23 21:18:31.521545,16
2021-09-23 21:18:31.521551,24
2021-09-23 21:18:31.521557,24
2021-09-23 21:18:31.521563,24
2021-09-23 21:18:31.521568,26
2021-09-23 21:18:31.521574,26
2021-09-23 21:18:31.521580,31
2021-09-23 21:18:31.521586,40
2021-09-23 21:18:31.521592,38
2021-09-23 21:18:31.521597,31
2021-09-23 21:18:31.521603,24
2021-09-23 21:18:31.521609,12
2021-09-23 21:18:31.521615,-2
2021-09-23 21:18:31.521621,-14
2021-09-23 21:18:31.521626,-26
2021-09-23 21:18:31.521632,-40
2021-09-23 21:18:31.521638,-52
2021-09-23 21:18:31.791615,-60
2021-09-23 21:18:31.791628,-64
2021-09-23 21:18:31.791632,-69
2021-09-23 21:18:31.791636,-81
2021-09-23 21:18:31.791639,-88
2021-09-23 21:18:31.791642,-91
2021-09-23 21:18:31.791645,-88
2021-09-23 21:18:31.791648,-93
2021-09-23 21:18:31.791651,-101
2021-09-23 21:18:31.791654,-98
2021-09-23 21:18:31.791657,-93
2021-09-23 21:18:31.791660,-91
2021-09-23 21:18:31.791663,-76
2021-09-23 21:18:31.791666,-64
2021-09-23 21:18:31.791669,-62
2021-09-23 21:18:31.791672,-57
2021-09-23 21:18:31.791675,-52
2021-09-23 21:18:31.791678,-45
2021-09-23 21:18:31.791682,-38
2021-09-23 21:18:31.791685,-38
2021-09-23 21:18:31.791688,-38
2021-09-23 21:18:31.791691,-36
2021-09-23 21:18:31.791694,-36
2021-09-23 21:18:31.791697,-31
2021-09-23 21:18:31.791700,-26
2021-09-23 21:18:31.791703,-24
2021-09-23 21:18:31.791706,-24
2021-09-23 21:18:31.791709,-24
2021-09-23 21:18:31.791712,-21
2021-09-23 21:18:31.791715,-19
2021-09-23 21:18:32.015832,-21
2021-09-23 21:18:32.015850,-21
2021-09-23 21:18:32.015857,-16
2021-09-23 21:18:32.015863,-14
2021-09-23 21:18:32.015869,-14
2021-09-23 21:18:32.015875,7
2021-09-23 21:18:32.015881,24
2021-09-23 21:18:32.015887,4
2021-09-23 21:18:32.015892,-21
2021-09-23 21:18:32.015898,-28
2021-09-23 21:18:32.015904,-24
2021-09-23 21:18:32.015910,-21
2021-09-23 21:18:32.015915,-16
2021-09-23 21:18:32.015921,4
2021-09-23 21:18:32.015926,57
2021-09-23 21:18:32.015932,221
2021-09-23 21:18:32.015938,562
2021-09-23 21:18:32.015943,949
2021-09-23 21:18:32.015949,786
2021-09-23 21:18:32.015955,-149
2021-09-23 21:18:32.015960,-642
2021-09-23 21:18:32.015966,-206
2021-09-23 21:18:32.015972,7
2021-09-23 21:18:32.015977,-158
2021-09-23 21:18:32.015983,-98
2021-09-23 21:18:32.015989,-7
2021-09-23 21:18:32.015994,-57
2021-09-23 21:18:32.016000,-55
2021-09-23 21:18:32.016006,-7
2021-09-23 21:18:32.016012,-7
2021-09-23 21:18:32.330084,-7
2021-09-23 21:18:32.330101,12
2021-09-23 21:18:32.330108,19
2021-09-23 21:18:32.330114,14
2021-09-23 21:18:32.330120,24
2021-09-23 21:18:32.330126,36
2021-09-23 21:18:32.330132,43
2021-09-23 21:18:32.330138,50
2021-09-23 21:18:32.330144,57
2021-09-23 21:18:32.330149,52
2021-09-23 21:18:32.330155,57
2021-09-23 21:18:32.330161,67
2021-09-23 21:18:32.330167,60
2021-09-23 21:18:32.330173,45
2021-09-23 21:18:32.330179,36
2021-09-23 21:18:32.330185,28
2021-09-23 21:18:32.330190,16
2021-09-23 21:18:32.330196,9
2021-09-23 21:18:32.330202,2
2021-09-23 21:18:32.330208,-12
2021-09-23 21:18:32.330214,-24
2021-09-23 21:18:32.330219,-36
2021-09-23 21:18:32.330225,-48
2021-09-23 21:18:32.330231,-57
2021-09-23 21:18:32.330237,-67
2021-09-23 21:18:32.330242,-72
2021-09-23 21:18:32.330248,-79
2021-09-23 21:18:32.330254,-84
2021-09-23 21:18:32.330259,-76
2021-09-23 21:18:32.330265,-76
2021-09-23 21:18:32.466442,-76
2021-09-23 21:18:32.466458,-64
2021-09-23 21:18:32.466466,-57
2021-09-23 21:18:32.466472,-60
2021-09-23 21:18:32.466478,-52
2021-09-23 21:18:32.466484,-43
2021-09-23 21:18:32.466489,-38
2021-09-23 21:18:32.466495,-40
2021-09-23 21:18:32.466501,-43
2021-09-23 21:18:32.466507,-45
2021-09-23 21:18:32.466513,-43
2021-09-23 21:18:32.466518,-43
2021-09-23 21:18:32.466524,-45
2021-09-23 21:18:32.466530,-40
2021-09-23 21:18:32.466536,-40
2021-09-23 21:18:32.466568,-48
2021-09-23 21:18:32.466579,-43
2021-09-23 21:18:32.466586,-38
2021-09-23 21:18:32.466590,-36
2021-09-23 21:18:32.466593,-36
2021-09-23 21:18:32.466596,-48
2021-09-23 21:18:32.466600,-52
2021-09-23 21:18:32.466603,-33
2021-09-23 21:18:32.466606,-26
2021-09-23 21:18:32.466609,-38
2021-09-23 21:18:32.466612,-38
2021-09-23 21:18:32.466615,-19
2021-09-23 21:18:32.466618,-9
2021-09-23 21:18:32.466622,-7
2021-09-23 21:18:32.466631,12
2021-09-23 21:18:32.691530,21
2021-09-23 21:18:32.691547,-4
2021-09-23 21:18:32.691555,-31
2021-09-23 21:18:32.691561,-31
2021-09-23 21:18:32.691567,-24
2021-09-23 21:18:32.691573,-16
2021-09-23 21:18:32.691578,-9
2021-09-23 21:18:32.691584,0
2021-09-23 21:18:32.691590,48
2021-09-23 21:18:32.691596,233
2021-09-23 21:18:32.691602,577
2021-09-23 21:18:32.691608,887
2021-09-23 21:18:32.691614,610
2021-09-23 21:18:32.691619,-358
2021-09-23 21:18:32.691625,-745
2021-09-23 21:18:32.691631,-211
2021-09-23 21:18:32.691637,-2
2021-09-23 21:18:32.691643,-168
2021-09-23 21:18:32.691649,-93
2021-09-23 21:18:32.691654,-12
2021-09-23 21:18:32.691660,-67
2021-09-23 21:18:32.691666,-57
2021-09-23 21:18:32.691672,-7
2021-09-23 21:18:32.691677,-7
2021-09-23 21:18:32.691683,-12
2021-09-23 21:18:32.691689,2
2021-09-23 21:18:32.691695,14
2021-09-23 21:18:32.691701,21
2021-09-23 21:18:32.691707,33
2021-09-23 21:18:32.691712,43
2021-09-23 21:18:32.916456,50
2021-09-23 21:18:32.916473,52
2021-09-23 21:18:32.916480,60
2021-09-23 21:18:32.916486,67
2021-09-23 21:18:32.916492,72
2021-09-23 21:18:32.916498,79
2021-09-23 21:18:32.916504,81
2021-09-23 21:18:32.916509,67
2021-09-23 21:18:32.916515,57
2021-09-23 21:18:32.916521,55
2021-09-23 21:18:32.916527,45
2021-09-23 21:18:32.916532,24
2021-09-23 21:18:32.916538,-2
2021-09-23 21:18:32.916544,-21
2021-09-23 21:18:32.916550,-28
2021-09-23 21:18:32.916555,-38
2021-09-23 21:18:32.916561,-50
2021-09-23 21:18:32.916567,-67
2021-09-23 21:18:32.916573,-79
2021-09-23 21:18:32.916578,-86
2021-09-23 21:18:32.916584,-88
2021-09-23 21:18:32.916590,-86
2021-09-23 21:18:32.916595,-81
2021-09-23 21:18:32.916601,-72
2021-09-23 21:18:32.916607,-64
2021-09-23 21:18:32.916612,-57
2021-09-23 21:18:32.916618,-45
2021-09-23 21:18:32.916624,-40
2021-09-23 21:18:32.916630,-38
2021-09-23 21:18:32.916635,-36
2021-09-23 21:18:33.141438,-38
2021-09-23 21:18:33.141456,-36
2021-09-23 21:18:33.141463,-31
2021-09-23 21:18:33.141469,-36
2021-09-23 21:18:33.141475,-38
2021-09-23 21:18:33.141481,-38
2021-09-23 21:18:33.141487,-48
2021-09-23 21:18:33.141493,-52
2021-09-23 21:18:33.141498,-48
2021-09-23 21:18:33.141504,-45
2021-09-23 21:18:33.141510,-50
2021-09-23 21:18:33.141516,-52
2021-09-23 21:18:33.141522,-55
2021-09-23 21:18:33.141528,-52
2021-09-23 21:18:33.141534,-45
2021-09-23 21:18:33.141540,-40
2021-09-23 21:18:33.141545,-43
2021-09-23 21:18:33.141551,-45
2021-09-23 21:18:33.141557,-38
2021-09-23 21:18:33.141563,-24
2021-09-23 21:18:33.141569,-19
2021-09-23 21:18:33.141575,-19
2021-09-23 21:18:33.141581,0
2021-09-23 21:18:33.141586,-2
2021-09-23 21:18:33.141592,-43
2021-09-23 21:18:33.141598,-64
2021-09-23 21:18:33.141604,-52
2021-09-23 21:18:33.141609,-38
2021-09-23 21:18:33.141615,-36
2021-09-23 21:18:33.141621,-33
2021-09-23 21:18:33.366373,-9
2021-09-23 21:18:33.366389,76
2021-09-23 21:18:33.366397,303
2021-09-23 21:18:33.366403,661
2021-09-23 21:18:33.366409,896
2021-09-23 21:18:33.366415,406
2021-09-23 21:18:33.366421,-560
2021-09-23 21:18:33.366427,-637
2021-09-23 21:18:33.366433,-76
2021-09-23 21:18:33.366439,-43
2021-09-23 21:18:33.366444,-165
2021-09-23 21:18:33.366450,-43
2021-09-23 21:18:33.366456,-14
2021-09-23 21:18:33.366462,-69
2021-09-23 21:18:33.366467,-31
2021-09-23 21:18:33.366473,0
2021-09-23 21:18:33.366479,-12
2021-09-23 21:18:33.366485,-2
2021-09-23 21:18:33.366490,19
2021-09-23 21:18:33.366496,26
2021-09-23 21:18:33.366502,28
2021-09-23 21:18:33.366508,38
2021-09-23 21:18:33.366513,40
2021-09-23 21:18:33.366519,40
2021-09-23 21:18:33.366525,52
2021-09-23 21:18:33.366531,64
2021-09-23 21:18:33.366536,67
2021-09-23 21:18:33.366542,72
2021-09-23 21:18:33.366548,76
2021-09-23 21:18:33.366553,79
2021-09-23 21:18:33.636385,74
2021-09-23 21:18:33.636403,67
2021-09-23 21:18:33.636410,57
2021-09-23 21:18:33.636416,38
2021-09-23 21:18:33.636422,19
2021-09-23 21:18:33.636428,0
2021-09-23 21:18:33.636434,-9
2021-09-23 21:18:33.636440,-14
2021-09-23 21:18:33.636445,-26
2021-09-23 21:18:33.636451,-48
2021-09-23 21:18:33.636457,-64
2021-09-23 21:18:33.636463,-79
2021-09-23 21:18:33.636469,-84
2021-09-23 21:18:33.636475,-84
2021-09-23 21:18:33.636481,-86
2021-09-23 21:18:33.636486,-79
2021-09-23 21:18:33.636492,-69
2021-09-23 21:18:33.636498,-57
2021-09-23 21:18:33.636504,-48
2021-09-23 21:18:33.636509,-38
2021-09-23 21:18:33.636515,-28
2021-09-23 21:18:33.636521,-26
2021-09-23 21:18:33.636527,-21
2021-09-23 21:18:33.636532,-14
2021-09-23 21:18:33.636538,-19
2021-09-23 21:18:33.636544,-28
2021-09-23 21:18:33.636549,-33
2021-09-23 21:18:33.636555,-36
2021-09-23 21:18:33.636561,-45
2021-09-23 21:18:33.636567,-52
2021-09-23 21:18:33.816501,-57
2021-09-23 21:18:33.816519,-60
2021-09-23 21:18:33.816526,-57
2021-09-23 21:18:33.816532,-60
2021-09-23 21:18:33.816538,-62
2021-09-23 21:18:33.816544,-57
2021-09-23 21:18:33.816550,-52
2021-09-23 21:18:33.816556,-52
2021-09-23 21:18:33.816562,-50
2021-09-23 21:18:33.816568,-52
2021-09-23 21:18:33.816574,-52
2021-09-23 21:18:33.816580,-38
2021-09-23 21:18:33.816586,-36
2021-09-23 21:18:33.816591,-38
2021-09-23 21:18:33.816597,-33
2021-09-23 21:18:33.816603,-24
2021-09-23 21:18:33.816609,-24
2021-09-23 21:18:33.816614,-14
2021-09-23 21:18:33.816620,7
2021-09-23 21:18:33.816626,9
2021-09-23 21:18:33.816632,-14
2021-09-23 21:18:33.816637,-38
2021-09-23 21:18:33.816643,-40
2021-09-23 21:18:33.816649,-28
2021-09-23 21:18:33.816655,-21
2021-09-23 21:18:33.816660,-14
2021-09-23 21:18:33.816666,4
2021-09-23 21:18:33.816672,72
2021-09-23 21:18:33.816678,295
2021-09-23 21:18:33.816683,692
2021-09-23 21:18:34.086567,997
2021-09-23 21:18:34.086586,553
2021-09-23 21:18:34.086593,-459
2021-09-23 21:18:34.086599,-634
2021-09-23 21:18:34.086605,-101
2021-09-23 21:18:34.086612,-45
2021-09-23 21:18:34.086618,-185
2021-09-23 21:18:34.086624,-62
2021-09-23 21:18:34.086630,-14
2021-09-23 21:18:34.086636,-74
2021-09-23 21:18:34.086642,-50
2021-09-23 21:18:34.086647,-9
2021-09-23 21:18:34.086653,-16
2021-09-23 21:18:34.086659,-9
2021-09-23 21:18:34.086665,9
2021-09-23 21:18:34.086671,9
2021-09-23 21:18:34.086677,14
2021-09-23 21:18:34.086683,28
2021-09-23 21:18:34.086689,38
2021-09-23 21:18:34.086695,48
2021-09-23 21:18:34.086701,52
2021-09-23 21:18:34.086707,52
2021-09-23 21:18:34.086712,60
2021-09-23 21:18:34.086718,72
2021-09-23 21:18:34.086724,76
2021-09-23 21:18:34.086730,79
2021-09-23 21:18:34.086735,74
2021-09-23 21:18:34.086741,62
2021-09-23 21:18:34.086755,48
2021-09-23 21:18:34.086761,31
2021-09-23 21:18:34.355236,19
2021-09-23 21:18:34.355253,9
2021-09-23 21:18:34.355260,-4
2021-09-23 21:18:34.355267,-21
2021-09-23 21:18:34.355273,-24
2021-09-23 21:18:34.355279,-36
2021-09-23 21:18:34.355284,-64
2021-09-23 21:18:34.355290,-81
2021-09-23 21:18:34.355296,-86
2021-09-23 21:18:34.355302,-96
2021-09-23 21:18:34.355308,-93
2021-09-23 21:18:34.355313,-79
2021-09-23 21:18:34.355319,-74
2021-09-23 21:18:34.355325,-67
2021-09-23 21:18:34.355331,-67
2021-09-23 21:18:34.355336,-69
2021-09-23 21:18:34.355342,-50
2021-09-23 21:18:34.355348,-36
2021-09-23 21:18:34.355353,-36
2021-09-23 21:18:34.355359,-33
2021-09-23 21:18:34.355364,-33
2021-09-23 21:18:34.355370,-36
2021-09-23 21:18:34.355376,-38
2021-09-23 21:18:34.355381,-36
2021-09-23 21:18:34.355387,-36
2021-09-23 21:18:34.355393,-43
2021-09-23 21:18:34.355398,-48
2021-09-23 21:18:34.355404,-48
2021-09-23 21:18:34.355410,-43
2021-09-23 21:18:34.355416,-43
2021-09-23 21:18:34.536495,-45
2021-09-23 21:18:34.536513,-50
2021-09-23 21:18:34.536520,-52
2021-09-23 21:18:34.536526,-52
2021-09-23 21:18:34.536532,-45
2021-09-23 21:18:34.536538,-38
2021-09-23 21:18:34.536544,-36
2021-09-23 21:18:34.536550,-36
2021-09-23 21:18:34.536556,-45
2021-09-23 21:18:34.536561,-45
2021-09-23 21:18:34.536567,-31
2021-09-23 21:18:34.536573,-16
2021-09-23 21:18:34.536579,-16
2021-09-23 21:18:34.536585,-7
2021-09-23 21:18:34.536591,0
2021-09-23 21:18:34.536596,-9
2021-09-23 21:18:34.536602,-28
2021-09-23 21:18:34.536608,-40
2021-09-23 21:18:34.536614,-40
2021-09-23 21:18:34.536620,-26
2021-09-23 21:18:34.536625,-19
2021-09-23 21:18:34.536631,-16
2021-09-23 21:18:34.536637,12
2021-09-23 21:18:34.536643,122
2021-09-23 21:18:34.536649,391
2021-09-23 21:18:34.536654,781
2021-09-23 21:18:34.536660,928
2021-09-23 21:18:34.536666,252
2021-09-23 21:18:34.536672,-632
2021-09-23 21:18:34.536677,-480
2021-09-23 21:18:34.761498,2
2021-09-23 21:18:34.761516,-81
2021-09-23 21:18:34.761523,-151
2021-09-23 21:18:34.761530,-21
2021-09-23 21:18:34.761536,-26
2021-09-23 21:18:34.761543,-60
2021-09-23 21:18:34.761549,-19
2021-09-23 21:18:34.761556,-7
2021-09-23 21:18:34.761562,-14
2021-09-23 21:18:34.761568,2
2021-09-23 21:18:34.761574,9
2021-09-23 21:18:34.761580,0
2021-09-23 21:18:34.761587,2
2021-09-23 21:18:34.761593,14
2021-09-23 21:18:34.761599,19
2021-09-23 21:18:34.761605,26
2021-09-23 21:18:34.761612,43
2021-09-23 21:18:34.761618,52
2021-09-23 21:18:34.761624,60
2021-09-23 21:18:34.761630,62
2021-09-23 21:18:34.761636,64
2021-09-23 21:18:34.761643,67
2021-09-23 21:18:34.761649,67
2021-09-23 21:18:34.761655,64
2021-09-23 21:18:34.761661,50
2021-09-23 21:18:34.761667,33
2021-09-23 21:18:34.761674,24
2021-09-23 21:18:34.761680,12
2021-09-23 21:18:34.761686,-2
2021-09-23 21:18:34.761693,-12
2021-09-23 21:18:34.986519,-28
2021-09-23 21:18:34.986536,-50
2021-09-23 21:18:34.986543,-67
2021-09-23 21:18:34.986549,-79
2021-09-23 21:18:34.986555,-86
2021-09-23 21:18:34.986561,-91
2021-09-23 21:18:34.986567,-98
2021-09-23 21:18:34.986573,-101
2021-09-23 21:18:34.986579,-88
2021-09-23 21:18:34.986585,-74
2021-09-23 21:18:34.986590,-64
2021-09-23 21:18:34.986596,-60
2021-09-23 21:18:34.986602,-57
2021-09-23 21:18:34.986608,-52
2021-09-23 21:18:34.986614,-40
2021-09-23 21:18:34.986620,-31
2021-09-23 21:18:34.986625,-31
2021-09-23 21:18:34.986631,-36
2021-09-23 21:18:34.986637,-43
2021-09-23 21:18:34.986643,-45
2021-09-23 21:18:34.986648,-45
2021-09-23 21:18:34.986654,-45
2021-09-23 21:18:34.986660,-48
2021-09-23 21:18:34.986665,-48
2021-09-23 21:18:34.986671,-40
2021-09-23 21:18:34.986677,-36
2021-09-23 21:18:34.986682,-43
2021-09-23 21:18:34.986688,-48
2021-09-23 21:18:34.986694,-40
2021-09-23 21:18:34.986699,-38
2021-09-23 21:18:35.256486,-38
2021-09-23 21:18:35.256503,-36
2021-09-23 21:18:35.256510,-31
2021-09-23 21:18:35.256516,-31
2021-09-23 21:18:35.256522,-26
2021-09-23 21:18:35.256528,-26
2021-09-23 21:18:35.256534,-40
2021-09-23 21:18:35.256540,-45
2021-09-23 21:18:35.256546,-33
2021-09-23 21:18:35.256552,-21
2021-09-23 21:18:35.256558,-14
2021-09-23 21:18:35.256564,-12
2021-09-23 21:18:35.256570,-2
2021-09-23 21:18:35.256576,4
2021-09-23 21:18:35.256581,-9
2021-09-23 21:18:35.256587,-36
2021-09-23 21:18:35.256593,-48
2021-09-23 21:18:35.256599,-40
2021-09-23 21:18:35.256605,-31
2021-09-23 21:18:35.256611,-24
2021-09-23 21:18:35.256616,-12
2021-09-23 21:18:35.256622,38
2021-09-23 21:18:35.256628,211
2021-09-23 21:18:35.256634,548
2021-09-23 21:18:35.256640,916
2021-09-23 21:18:35.256646,743
2021-09-23 21:18:35.256651,-206
2021-09-23 21:18:35.256657,-694
2021-09-23 21:18:35.256663,-221
2021-09-23 21:18:35.256669,9
2021-09-23 21:18:35.481462,-161
2021-09-23 21:18:35.481479,-91
2021-09-23 21:18:35.481486,9
2021-09-23 21:18:35.481492,-45
2021-09-23 21:18:35.481499,-48
2021-09-23 21:18:35.481505,-4
2021-09-23 21:18:35.481510,-4
2021-09-23 21:18:35.481516,0
2021-09-23 21:18:35.481522,12
2021-09-23 21:18:35.481528,2
2021-09-23 21:18:35.481534,2
2021-09-23 21:18:35.481540,24
2021-09-23 21:18:35.481545,38
2021-09-23 21:18:35.481551,43
2021-09-23 21:18:35.481557,55
2021-09-23 21:18:35.481563,64
2021-09-23 21:18:35.481568,62
2021-09-23 21:18:35.481574,57
2021-09-23 21:18:35.481580,64
2021-09-23 21:18:35.481585,76
2021-09-23 21:18:35.481591,84
2021-09-23 21:18:35.481597,81
2021-09-23 21:18:35.481602,72
2021-09-23 21:18:35.481608,60
2021-09-23 21:18:35.481614,45
2021-09-23 21:18:35.481620,26
2021-09-23 21:18:35.481625,4
2021-09-23 21:18:35.481631,-9
2021-09-23 21:18:35.481637,-14
2021-09-23 21:18:35.481643,-26
2021-09-23 21:18:35.663371,-45
2021-09-23 21:18:35.663390,-57
2021-09-23 21:18:35.663397,-72
2021-09-23 21:18:35.663403,-84
2021-09-23 21:18:35.663409,-81
2021-09-23 21:18:35.663415,-74
2021-09-23 21:18:35.663420,-72
2021-09-23 21:18:35.663426,-62
2021-09-23 21:18:35.663432,-55
2021-09-23 21:18:35.663438,-55
2021-09-23 21:18:35.663444,-52
2021-09-23 21:18:35.663450,-50
2021-09-23 21:18:35.663456,-45
2021-09-23 21:18:35.663461,-33
2021-09-23 21:18:35.663467,-33
2021-09-23 21:18:35.663473,-40
2021-09-23 21:18:35.663479,-43
2021-09-23 21:18:35.663484,-40
2021-09-23 21:18:35.663490,-33
2021-09-23 21:18:35.663496,-26
2021-09-23 21:18:35.663502,-33
2021-09-23 21:18:35.663507,-43
2021-09-23 21:18:35.663513,-45
2021-09-23 21:18:35.663519,-52
2021-09-23 21:18:35.663525,-55
2021-09-23 21:18:35.663530,-45
2021-09-23 21:18:35.663536,-40
2021-09-23 21:18:35.663542,-45
2021-09-23 21:18:35.663547,-45
2021-09-23 21:18:35.663553,-45
2021-09-23 21:18:35.976501,-40
2021-09-23 21:18:35.976518,-28
2021-09-23 21:18:35.976525,-21
2021-09-23 21:18:35.976531,-26
2021-09-23 21:18:35.976538,-40
2021-09-23 21:18:35.976544,-31
2021-09-23 21:18:35.976550,-7
2021-09-23 21:18:35.976555,4
2021-09-23 21:18:35.976562,9
2021-09-23 21:18:35.976568,4
2021-09-23 21:18:35.976574,-14
2021-09-23 21:18:35.976580,-31
2021-09-23 21:18:35.976586,-43
2021-09-23 21:18:35.976592,-38
2021-09-23 21:18:35.976597,-28
2021-09-23 21:18:35.976603,-28
2021-09-23 21:18:35.976609,-16
2021-09-23 21:18:35.976615,26
2021-09-23 21:18:35.976621,185
2021-09-23 21:18:35.976626,509
2021-09-23 21:18:35.976632,827
2021-09-23 21:18:35.976638,596
2021-09-23 21:18:35.976644,-307
2021-09-23 21:18:35.976655,-704
2021-09-23 21:18:35.976661,-206
2021-09-23 21:18:35.976667,24
2021-09-23 21:18:35.976673,-122
2021-09-23 21:18:35.976679,-50
2021-09-23 21:18:35.976685,28
2021-09-23 21:18:35.976691,-24
2021-09-23 21:18:36.156514,-9
2021-09-23 21:18:36.156531,33
2021-09-23 21:18:36.156538,21
2021-09-23 21:18:36.156544,14
2021-09-23 21:18:36.156550,40
2021-09-23 21:18:36.156556,52
2021-09-23 21:18:36.156562,50
2021-09-23 21:18:36.156568,62
2021-09-23 21:18:36.156574,72
2021-09-23 21:18:36.156580,69
2021-09-23 21:18:36.156586,76
2021-09-23 21:18:36.156592,84
2021-09-23 21:18:36.156598,98
2021-09-23 21:18:36.156603,115
2021-09-23 21:18:36.156609,120
2021-09-23 21:18:36.156615,117
2021-09-23 21:18:36.156621,122
2021-09-23 21:18:36.156627,120
2021-09-23 21:18:36.156633,108
2021-09-23 21:18:36.156639,91
2021-09-23 21:18:36.156644,64
2021-09-23 21:18:36.156650,33
2021-09-23 21:18:36.156656,16
2021-09-23 21:18:36.156662,4
2021-09-23 21:18:36.156668,-16
2021-09-23 21:18:36.156674,-43
2021-09-23 21:18:36.156680,-64
2021-09-23 21:18:36.156685,-79
2021-09-23 21:18:36.156691,-93
2021-09-23 21:18:36.156697,-113
2021-09-23 21:18:36.560153,-115
2021-09-23 21:18:36.560171,-108
2021-09-23 21:18:36.560178,-110
2021-09-23 21:18:36.560184,-108
2021-09-23 21:18:36.560190,-93
2021-09-23 21:18:36.560196,-84
2021-09-23 21:18:36.560202,-76
2021-09-23 21:18:36.560208,-69
2021-09-23 21:18:36.560214,-69
2021-09-23 21:18:36.560220,-60
2021-09-23 21:18:36.560225,-40
2021-09-23 21:18:36.560231,-33
2021-09-23 21:18:36.560237,-36
2021-09-23 21:18:36.560243,-40
2021-09-23 21:18:36.560249,-43
2021-09-23 21:18:36.560255,-48
2021-09-23 21:18:36.560260,-48
2021-09-23 21:18:36.560266,-50
2021-09-23 21:18:36.560272,-57
2021-09-23 21:18:36.560278,-57
2021-09-23 21:18:36.560283,-55
2021-09-23 21:18:36.560289,-55
2021-09-23 21:18:36.560294,-52
2021-09-23 21:18:36.560300,-45
2021-09-23 21:18:36.560306,-40
2021-09-23 21:18:36.560312,-36
2021-09-23 21:18:36.560318,-33
2021-09-23 21:18:36.560323,-36
2021-09-23 21:18:36.560329,-40
2021-09-23 21:18:36.560335,-24
2021-09-23 21:18:36.650823,-4
2021-09-23 21:18:36.650839,0
2021-09-23 21:18:36.650846,7
2021-09-23 21:18:36.650853,19
2021-09-23 21:18:36.650859,7
2021-09-23 21:18:36.650864,-19
2021-09-23 21:18:36.650870,-31
2021-09-23 21:18:36.650876,-26
2021-09-23 21:18:36.650882,-21
2021-09-23 21:18:36.650888,-19
2021-09-23 21:18:36.650894,-4
2021-09-23 21:18:36.650900,55
2021-09-23 21:18:36.650905,211
2021-09-23 21:18:36.650911,500
2021-09-23 21:18:36.650917,817
2021-09-23 21:18:36.650923,644
2021-09-23 21:18:36.650928,-173
2021-09-23 21:18:36.650934,-541
2021-09-23 21:18:36.650940,-149
2021-09-23 21:18:36.650946,-2
2021-09-23 21:18:36.650951,-146
2021-09-23 21:18:36.650957,-91
2021-09-23 21:18:36.650963,-21
2021-09-23 21:18:36.650969,-64
2021-09-23 21:18:36.650975,-55
2021-09-23 21:18:36.650980,-14
2021-09-23 21:18:36.650986,-19
2021-09-23 21:18:36.650992,-21
2021-09-23 21:18:36.650997,-2
2021-09-23 21:18:36.651003,7
2021-09-23 21:18:36.875880,7
2021-09-23 21:18:36.875896,7
2021-09-23 21:18:36.875903,16
2021-09-23 21:18:36.875909,24
2021-09-23 21:18:36.875915,21
2021-09-23 21:18:36.875921,24
2021-09-23 21:18:36.875927,36
2021-09-23 21:18:36.875933,40
2021-09-23 21:18:36.875938,48
2021-09-23 21:18:36.875944,60
2021-09-23 21:18:36.875950,69
2021-09-23 21:18:36.875956,62
2021-09-23 21:18:36.875962,50
2021-09-23 21:18:36.875967,43
2021-09-23 21:18:36.875973,40
2021-09-23 21:18:36.875979,28
2021-09-23 21:18:36.875985,14
2021-09-23 21:18:36.875991,2
2021-09-23 21:18:36.875997,-19
2021-09-23 21:18:36.876002,-43
2021-09-23 21:18:36.876008,-55
2021-09-23 21:18:36.876014,-67
2021-09-23 21:18:36.876019,-76
2021-09-23 21:18:36.876025,-76
2021-09-23 21:18:36.876031,-79
2021-09-23 21:18:36.876037,-79
2021-09-23 21:18:36.876042,-76
2021-09-23 21:18:36.876048,-76
2021-09-23 21:18:36.876054,-79
2021-09-23 21:18:36.876060,-76
2021-09-23 21:18:37.056491,-72
2021-09-23 21:18:37.056509,-64
2021-09-23 21:18:37.056516,-57
2021-09-23 21:18:37.056522,-50
2021-09-23 21:18:37.056528,-45
2021-09-23 21:18:37.056534,-40
2021-09-23 21:18:37.056540,-38
2021-09-23 21:18:37.056547,-33
2021-09-23 21:18:37.056552,-28
2021-09-23 21:18:37.056558,-28
2021-09-23 21:18:37.056564,-26
2021-09-23 21:18:37.056570,-33
2021-09-23 21:18:37.056576,-38
2021-09-23 21:18:37.056582,-36
2021-09-23 21:18:37.056588,-31
2021-09-23 21:18:37.056594,-33
2021-09-23 21:18:37.056599,-28
2021-09-23 21:18:37.056605,-26
2021-09-23 21:18:37.056611,-28
2021-09-23 21:18:37.056617,-21
2021-09-23 21:18:37.056622,-14
2021-09-23 21:18:37.056628,-21
2021-09-23 21:18:37.056634,-24
2021-09-23 21:18:37.056640,-16
2021-09-23 21:18:37.056646,-12
2021-09-23 21:18:37.056651,-7
2021-09-23 21:18:37.056657,12
2021-09-23 21:18:37.056663,26
2021-09-23 21:18:37.056669,19
2021-09-23 21:18:37.056675,-7
2021-09-23 21:18:37.281503,-24
2021-09-23 21:18:37.281520,-14
2021-09-23 21:18:37.281528,-4
2021-09-23 21:18:37.281534,-7
2021-09-23 21:18:37.281540,-2
2021-09-23 21:18:37.281546,28
2021-09-23 21:18:37.281552,129
2021-09-23 21:18:37.281559,365
2021-09-23 21:18:37.281564,728
2021-09-23 21:18:37.281570,820
2021-09-23 21:18:37.281576,173
2021-09-23 21:18:37.281582,-492
2021-09-23 21:18:37.281588,-298
2021-09-23 21:18:37.281594,14
2021-09-23 21:18:37.281600,-105
2021-09-23 21:18:37.281606,-137
2021-09-23 21:18:37.281611,-24
2021-09-23 21:18:37.281617,-33
2021-09-23 21:18:37.281623,-57
2021-09-23 21:18:37.281629,-19
2021-09-23 21:18:37.281635,-7
2021-09-23 21:18:37.281641,-12
2021-09-23 21:18:37.281647,4
2021-09-23 21:18:37.281653,14
2021-09-23 21:18:37.281659,9
2021-09-23 21:18:37.281664,12
2021-09-23 21:18:37.281670,19
2021-09-23 21:18:37.281676,24
2021-09-23 21:18:37.281682,31
2021-09-23 21:18:37.281688,40
2021-09-23 21:18:37.596554,50
2021-09-23 21:18:37.596571,60
2021-09-23 21:18:37.596578,67
2021-09-23 21:18:37.596585,69
2021-09-23 21:18:37.596591,69
2021-09-23 21:18:37.596596,72
2021-09-23 21:18:37.596602,72
2021-09-23 21:18:37.596608,62
2021-09-23 21:18:37.596614,48
2021-09-23 21:18:37.596620,33
2021-09-23 21:18:37.596626,19
2021-09-23 21:18:37.596631,0
2021-09-23 21:18:37.596637,-14
2021-09-23 21:18:37.596643,-28
2021-09-23 21:18:37.596648,-40
2021-09-23 21:18:37.596654,-52
2021-09-23 21:18:37.596660,-62
2021-09-23 21:18:37.596665,-67
2021-09-23 21:18:37.596671,-67
2021-09-23 21:18:37.596677,-64
2021-09-23 21:18:37.596682,-62
2021-09-23 21:18:37.596688,-64
2021-09-23 21:18:37.596694,-72
2021-09-23 21:18:37.596699,-72
2021-09-23 21:18:37.596705,-69
2021-09-23 21:18:37.596711,-69
2021-09-23 21:18:37.596717,-64
2021-09-23 21:18:37.596722,-62
2021-09-23 21:18:37.596728,-57
2021-09-23 21:18:37.596734,-50
2021-09-23 21:18:37.776618,-40
2021-09-23 21:18:37.776635,-36
2021-09-23 21:18:37.776642,-33
2021-09-23 21:18:37.776648,-40
2021-09-23 21:18:37.776655,-45
2021-09-23 21:18:37.776661,-38
2021-09-23 21:18:37.776667,-31
2021-09-23 21:18:37.776673,-31
2021-09-23 21:18:37.776678,-28
2021-09-23 21:18:37.776685,-31
2021-09-23 21:18:37.776690,-33
2021-09-23 21:18:37.776696,-28
2021-09-23 21:18:37.776702,-19
2021-09-23 21:18:37.776708,-16
2021-09-23 21:18:37.776714,-21
2021-09-23 21:18:37.776720,-28
2021-09-23 21:18:37.776726,-31
2021-09-23 21:18:37.776732,-24
2021-09-23 21:18:37.776738,-19
2021-09-23 21:18:37.776744,-14
2021-09-23 21:18:37.776750,-12
2021-09-23 21:18:37.776755,-14
2021-09-23 21:18:37.776761,-7
2021-09-23 21:18:37.776767,16
2021-09-23 21:18:37.776773,24
2021-09-23 21:18:37.776779,0
2021-09-23 21:18:37.776785,-19
2021-09-23 21:18:37.776791,-24
2021-09-23 21:18:37.776797,-16
2021-09-23 21:18:37.776803,-14
2021-09-23 21:18:38.001564,-19
2021-09-23 21:18:38.001582,0
2021-09-23 21:18:38.001589,60
2021-09-23 21:18:38.001596,209
2021-09-23 21:18:38.001601,500
2021-09-23 21:18:38.001607,810
2021-09-23 21:18:38.001613,591
2021-09-23 21:18:38.001619,-206
2021-09-23 21:18:38.001625,-490
2021-09-23 21:18:38.001631,-108
2021-09-23 21:18:38.001637,-4
2021-09-23 21:18:38.001643,-132
2021-09-23 21:18:38.001649,-60
2021-09-23 21:18:38.001654,-2
2021-09-23 21:18:38.001660,-52
2021-09-23 21:18:38.001666,-45
2021-09-23 21:18:38.001672,-7
2021-09-23 21:18:38.001680,-4
2021-09-23 21:18:38.001686,-2
2021-09-23 21:18:38.001692,14
2021-09-23 21:18:38.001698,16
2021-09-23 21:18:38.001704,14
2021-09-23 21:18:38.001710,26
2021-09-23 21:18:38.001715,36
2021-09-23 21:18:38.001721,40
2021-09-23 21:18:38.001727,48
2021-09-23 21:18:38.001733,52
2021-09-23 21:18:38.001739,55
2021-09-23 21:18:38.001745,67
2021-09-23 21:18:38.001750,76
2021-09-23 21:18:38.270941,79
2021-09-23 21:18:38.270958,74
2021-09-23 21:18:38.270966,57
2021-09-23 21:18:38.270972,40
2021-09-23 21:18:38.270978,43
2021-09-23 21:18:38.270984,43
2021-09-23 21:18:38.270989,28
2021-09-23 21:18:38.270995,7
2021-09-23 21:18:38.271001,-14
2021-09-23 21:18:38.271006,-31
2021-09-23 21:18:38.271012,-38
2021-09-23 21:18:38.271018,-43
2021-09-23 21:18:38.271024,-52
2021-09-23 21:18:38.271029,-62
2021-09-23 21:18:38.271035,-74
2021-09-23 21:18:38.271041,-76
2021-09-23 21:18:38.271047,-69
2021-09-23 21:18:38.271053,-69
2021-09-23 21:18:38.271058,-69
2021-09-23 21:18:38.271064,-67
2021-09-23 21:18:38.271070,-74
2021-09-23 21:18:38.271076,-84
2021-09-23 21:18:38.271081,-74
2021-09-23 21:18:38.271087,-60
2021-09-23 21:18:38.271093,-57
2021-09-23 21:18:38.271098,-55
2021-09-23 21:18:38.271104,-52
2021-09-23 21:18:38.271110,-45
2021-09-23 21:18:38.271116,-40
2021-09-23 21:18:38.271122,-40
2021-09-23 21:18:38.495234,-38
2021-09-23 21:18:38.495253,-33
2021-09-23 21:18:38.495260,-36
2021-09-23 21:18:38.495266,-45
2021-09-23 21:18:38.495272,-48
2021-09-23 21:18:38.495278,-40
2021-09-23 21:18:38.495284,-38
2021-09-23 21:18:38.495290,-48
2021-09-23 21:18:38.495296,-55
2021-09-23 21:18:38.495302,-48
2021-09-23 21:18:38.495308,-40
2021-09-23 21:18:38.495314,-33
2021-09-23 21:18:38.495319,-33
2021-09-23 21:18:38.495325,-38
2021-09-23 21:18:38.495331,-36
2021-09-23 21:18:38.495337,-28
2021-09-23 21:18:38.495342,-24
2021-09-23 21:18:38.495348,-19
2021-09-23 21:18:38.495354,-24
2021-09-23 21:18:38.495360,-26
2021-09-23 21:18:38.495365,-16
2021-09-23 21:18:38.495371,-9
2021-09-23 21:18:38.495377,-4
2021-09-23 21:18:38.495383,14
2021-09-23 21:18:38.495388,26
2021-09-23 21:18:38.495394,9
2021-09-23 21:18:38.495400,-14
2021-09-23 21:18:38.495406,-24
2021-09-23 21:18:38.495412,-14
2021-09-23 21:18:38.495417,-2
2021-09-23 21:18:38.676576,0
2021-09-23 21:18:38.676592,4
2021-09-23 21:18:38.676600,48
2021-09-23 21:18:38.676606,187
2021-09-23 21:18:38.676612,454
2021-09-23 21:18:38.676618,764
2021-09-23 21:18:38.676624,680
2021-09-23 21:18:38.676630,-79
2021-09-23 21:18:38.676636,-586
2021-09-23 21:18:38.676642,-235
2021-09-23 21:18:38.676647,24
2021-09-23 21:18:38.676653,-115
2021-09-23 21:18:38.676659,-93
2021-09-23 21:18:38.676665,-7
2021-09-23 21:18:38.676670,-45
2021-09-23 21:18:38.676676,-50
2021-09-23 21:18:38.676682,-4
2021-09-23 21:18:38.676688,0
2021-09-23 21:18:38.676693,-9
2021-09-23 21:18:38.676699,7
2021-09-23 21:18:38.676705,21
2021-09-23 21:18:38.676711,21
2021-09-23 21:18:38.676716,28
2021-09-23 21:18:38.676722,40
2021-09-23 21:18:38.676728,43
2021-09-23 21:18:38.676733,48
2021-09-23 21:18:38.676739,55
2021-09-23 21:18:38.676745,45
2021-09-23 21:18:38.676751,40
2021-09-23 21:18:38.676756,45
2021-09-23 21:18:38.901518,40
2021-09-23 21:18:38.901535,36
2021-09-23 21:18:38.901542,38
2021-09-23 21:18:38.901549,38
2021-09-23 21:18:38.901554,33
2021-09-23 21:18:38.901560,16
2021-09-23 21:18:38.901566,-2
2021-09-23 21:18:38.901572,-14
2021-09-23 21:18:38.901578,-26
2021-09-23 21:18:38.901584,-48
2021-09-23 21:18:38.901590,-60
2021-09-23 21:18:38.901596,-62
2021-09-23 21:18:38.901601,-84
2021-09-23 21:18:38.901607,-103
2021-09-23 21:18:38.901612,-101
2021-09-23 21:18:38.901618,-103
2021-09-23 21:18:38.901624,-117
2021-09-23 21:18:38.901630,-115
2021-09-23 21:18:38.901636,-105
2021-09-23 21:18:38.901641,-110
2021-09-23 21:18:38.901647,-105
2021-09-23 21:18:38.901653,-86
2021-09-23 21:18:38.901659,-76
2021-09-23 21:18:38.901664,-79
2021-09-23 21:18:38.901670,-79
2021-09-23 21:18:38.901676,-67
2021-09-23 21:18:38.901681,-55
2021-09-23 21:18:38.901687,-40
2021-09-23 21:18:38.901693,-36
2021-09-23 21:18:38.901698,-38
2021-09-23 21:18:39.126551,-40
2021-09-23 21:18:39.126570,-36
2021-09-23 21:18:39.126577,-31
2021-09-23 21:18:39.126583,-31
2021-09-23 21:18:39.126589,-31
2021-09-23 21:18:39.126595,-36
2021-09-23 21:18:39.126601,-38
2021-09-23 21:18:39.126607,-33
2021-09-23 21:18:39.126613,-26
2021-09-23 21:18:39.126619,-28
2021-09-23 21:18:39.126625,-33
2021-09-23 21:18:39.126631,-38
2021-09-23 21:18:39.126637,-38
2021-09-23 21:18:39.126643,-28
2021-09-23 21:18:39.126649,-26
2021-09-23 21:18:39.126654,-24
2021-09-23 21:18:39.126660,-16
2021-09-23 21:18:39.126666,-16
2021-09-23 21:18:39.126672,-19
2021-09-23 21:18:39.126678,-9
2021-09-23 21:18:39.126683,2
2021-09-23 21:18:39.126689,9
2021-09-23 21:18:39.126695,19
2021-09-23 21:18:39.126700,28
2021-09-23 21:18:39.126706,19
2021-09-23 21:18:39.126712,0
2021-09-23 21:18:39.126718,-12
2021-09-23 21:18:39.126723,-9
2021-09-23 21:18:39.126729,2
2021-09-23 21:18:39.126735,4
2021-09-23 21:18:39.351505,7
2021-09-23 21:18:39.351522,45
2021-09-23 21:18:39.351529,156
2021-09-23 21:18:39.351536,377
2021-09-23 21:18:39.351542,651
2021-09-23 21:18:39.351548,627
2021-09-23 21:18:39.351554,-40
2021-09-23 21:18:39.351560,-646
2021-09-23 21:18:39.351566,-372
2021-09-23 21:18:39.351572,-7
2021-09-23 21:18:39.351577,-96
2021-09-23 21:18:39.351583,-101
2021-09-23 21:18:39.351589,4
2021-09-23 21:18:39.351595,-24
2021-09-23 21:18:39.351601,-43
2021-09-23 21:18:39.351606,-2
2021-09-23 21:18:39.351612,0
2021-09-23 21:18:39.351618,-2
2021-09-23 21:18:39.351624,19
2021-09-23 21:18:39.351630,31
2021-09-23 21:18:39.351635,33
2021-09-23 21:18:39.351641,43
2021-09-23 21:18:39.351647,52
2021-09-23 21:18:39.351653,62
2021-09-23 21:18:39.351658,64
2021-09-23 21:18:39.351664,72
2021-09-23 21:18:39.351670,76
2021-09-23 21:18:39.351676,76
2021-09-23 21:18:39.351681,72
2021-09-23 21:18:39.351687,79
2021-09-23 21:18:39.621528,86
2021-09-23 21:18:39.621547,81
2021-09-23 21:18:39.621554,74
2021-09-23 21:18:39.621560,57
2021-09-23 21:18:39.621566,38
2021-09-23 21:18:39.621572,28
2021-09-23 21:18:39.621578,21
2021-09-23 21:18:39.621584,4
2021-09-23 21:18:39.621590,-14
2021-09-23 21:18:39.621596,-38
2021-09-23 21:18:39.621602,-52
2021-09-23 21:18:39.621608,-62
2021-09-23 21:18:39.621613,-79
2021-09-23 21:18:39.621619,-88
2021-09-23 21:18:39.621625,-93
2021-09-23 21:18:39.621631,-101
2021-09-23 21:18:39.621637,-96
2021-09-23 21:18:39.621642,-84
2021-09-23 21:18:39.621648,-74
2021-09-23 21:18:39.621654,-64
2021-09-23 21:18:39.621659,-50
2021-09-23 21:18:39.621665,-40
2021-09-23 21:18:39.621671,-38
2021-09-23 21:18:39.621677,-24
2021-09-23 21:18:39.621683,-16
2021-09-23 21:18:39.621688,-19
2021-09-23 21:18:39.621694,-21
2021-09-23 21:18:39.621700,-26
2021-09-23 21:18:39.621706,-26
2021-09-23 21:18:39.621711,-21
2021-09-23 21:18:39.891543,-24
2021-09-23 21:18:39.891561,-24
2021-09-23 21:18:39.891568,-26
2021-09-23 21:18:39.891574,-33
2021-09-23 21:18:39.891580,-36
2021-09-23 21:18:39.891586,-33
2021-09-23 21:18:39.891592,-33
2021-09-23 21:18:39.891597,-31
2021-09-23 21:18:39.891603,-36
2021-09-23 21:18:39.891609,-45
2021-09-23 21:18:39.891615,-40
2021-09-23 21:18:39.891620,-28
2021-09-23 21:18:39.891626,-24
2021-09-23 21:18:39.891632,-24
2021-09-23 21:18:39.891638,-31
2021-09-23 21:18:39.891643,-38
2021-09-23 21:18:39.891649,-28
2021-09-23 21:18:39.891655,-19
2021-09-23 21:18:39.891661,-12
2021-09-23 21:18:39.891667,12
2021-09-23 21:18:39.891673,12
2021-09-23 21:18:39.891679,-21
2021-09-23 21:18:39.891684,-43
2021-09-23 21:18:39.891690,-45
2021-09-23 21:18:39.891696,-40
2021-09-23 21:18:39.891702,-43
2021-09-23 21:18:39.891708,-45
2021-09-23 21:18:39.891714,-12
2021-09-23 21:18:39.891720,91
2021-09-23 21:18:39.891725,286
2021-09-23 21:18:40.206574,560
2021-09-23 21:18:40.206591,661
2021-09-23 21:18:40.206599,158
2021-09-23 21:18:40.206605,-497
2021-09-23 21:18:40.206611,-379
2021-09-23 21:18:40.206617,-4
2021-09-23 21:18:40.206623,-64
2021-09-23 21:18:40.206629,-115
2021-09-23 21:18:40.206635,-14
2021-09-23 21:18:40.206641,-21
2021-09-23 21:18:40.206647,-48
2021-09-23 21:18:40.206652,-4
2021-09-23 21:18:40.206658,9
2021-09-23 21:18:40.206664,4
2021-09-23 21:18:40.206670,9
2021-09-23 21:18:40.206676,14
2021-09-23 21:18:40.206682,21
2021-09-23 21:18:40.206687,31
2021-09-23 21:18:40.206693,31
2021-09-23 21:18:40.206699,24
2021-09-23 21:18:40.206705,24
2021-09-23 21:18:40.206711,28
2021-09-23 21:18:40.206716,31
2021-09-23 21:18:40.206722,38
2021-09-23 21:18:40.206728,48
2021-09-23 21:18:40.206734,50
2021-09-23 21:18:40.206739,45
2021-09-23 21:18:40.206745,40
2021-09-23 21:18:40.206751,40
2021-09-23 21:18:40.206757,38
2021-09-23 21:18:40.296509,26
2021-09-23 21:18:40.296525,14
2021-09-23 21:18:40.296532,-2
2021-09-23 21:18:40.296538,-19
2021-09-23 21:18:40.296544,-26
2021-09-23 21:18:40.296550,-33
2021-09-23 21:18:40.296556,-50
2021-09-23 21:18:40.296562,-69
2021-09-23 21:18:40.296568,-86
2021-09-23 21:18:40.296573,-93
2021-09-23 21:18:40.296579,-91
2021-09-23 21:18:40.296585,-86
2021-09-23 21:18:40.296591,-81
2021-09-23 21:18:40.296596,-84
2021-09-23 21:18:40.296605,-88
2021-09-23 21:18:40.296611,-84
2021-09-23 21:18:40.296617,-72
2021-09-23 21:18:40.296622,-62
2021-09-23 21:18:40.296628,-55
2021-09-23 21:18:40.296634,-48
2021-09-23 21:18:40.296639,-50
2021-09-23 21:18:40.296645,-48
2021-09-23 21:18:40.296651,-40
2021-09-23 21:18:40.296656,-33
2021-09-23 21:18:40.296662,-33
2021-09-23 21:18:40.296668,-38
2021-09-23 21:18:40.296674,-38
2021-09-23 21:18:40.296680,-36
2021-09-23 21:18:40.296686,-36
2021-09-23 21:18:40.296691,-31
2021-09-23 21:18:40.565229,-26
2021-09-23 21:18:40.565247,-36
2021-09-23 21:18:40.565254,-40
2021-09-23 21:18:40.565260,-33
2021-09-23 21:18:40.565266,-33
2021-09-23 21:18:40.565272,-31
2021-09-23 21:18:40.565278,-31
2021-09-23 21:18:40.565284,-31
2021-09-23 21:18:40.565290,-28
2021-09-23 21:18:40.565296,-26
2021-09-23 21:18:40.565302,-28
2021-09-23 21:18:40.565307,-24
2021-09-23 21:18:40.565313,-16
2021-09-23 21:18:40.565319,-12
2021-09-23 21:18:40.565325,4
2021-09-23 21:18:40.565331,19
2021-09-23 21:18:40.565337,12
2021-09-23 21:18:40.565343,-9
2021-09-23 21:18:40.565349,-24
2021-09-23 21:18:40.565354,-21
2021-09-23 21:18:40.565360,-4
2021-09-23 21:18:40.565366,-4
2021-09-23 21:18:40.565372,-2
2021-09-23 21:18:40.565378,52
2021-09-23 21:18:40.565384,218
2021-09-23 21:18:40.565390,514
2021-09-23 21:18:40.565395,820
2021-09-23 21:18:40.565402,666
2021-09-23 21:18:40.565408,-149
2021-09-23 21:18:40.565414,-586
2021-09-23 21:18:40.746578,-180
2021-09-23 21:18:40.746595,36
2021-09-23 21:18:40.746603,-120
2021-09-23 21:18:40.746609,-69
2021-09-23 21:18:40.746615,26
2021-09-23 21:18:40.746620,-26
2021-09-23 21:18:40.746627,-36
2021-09-23 21:18:40.746632,2
2021-09-23 21:18:40.746638,7
2021-09-23 21:18:40.746644,7
2021-09-23 21:18:40.746650,24
2021-09-23 21:18:40.746656,31
2021-09-23 21:18:40.746662,31
2021-09-23 21:18:40.746667,33
2021-09-23 21:18:40.746673,48
2021-09-23 21:18:40.746679,57
2021-09-23 21:18:40.746685,60
2021-09-23 21:18:40.746690,64
2021-09-23 21:18:40.746696,74
2021-09-23 21:18:40.746702,76
2021-09-23 21:18:40.746707,62
2021-09-23 21:18:40.746713,60
2021-09-23 21:18:40.746719,79
2021-09-23 21:18:40.746725,79
2021-09-23 21:18:40.746730,57
2021-09-23 21:18:40.746736,48
2021-09-23 21:18:40.746742,45
2021-09-23 21:18:40.746748,28
2021-09-23 21:18:40.746753,7
2021-09-23 21:18:40.746759,-4
2021-09-23 21:18:41.015944,-21
2021-09-23 21:18:41.015961,-43
2021-09-23 21:18:41.015968,-60
2021-09-23 21:18:41.015975,-79
2021-09-23 21:18:41.015981,-91
2021-09-23 21:18:41.015987,-96
2021-09-23 21:18:41.015992,-93
2021-09-23 21:18:41.015998,-84
2021-09-23 21:18:41.016004,-79
2021-09-23 21:18:41.016010,-76
2021-09-23 21:18:41.016016,-69
2021-09-23 21:18:41.016022,-72
2021-09-23 21:18:41.016027,-67
2021-09-23 21:18:41.016033,-52
2021-09-23 21:18:41.016039,-52
2021-09-23 21:18:41.016045,-55
2021-09-23 21:18:41.016050,-48
2021-09-23 21:18:41.016056,-48
2021-09-23 21:18:41.016062,-48
2021-09-23 21:18:41.016068,-38
2021-09-23 21:18:41.016074,-28
2021-09-23 21:18:41.016080,-36
2021-09-23 21:18:41.016085,-38
2021-09-23 21:18:41.016091,-31
2021-09-23 21:18:41.016097,-31
2021-09-23 21:18:41.016103,-28
2021-09-23 21:18:41.016109,-26
2021-09-23 21:18:41.016115,-33
2021-09-23 21:18:41.016120,-33
2021-09-23 21:18:41.016126,-28
2021-09-23 21:18:41.196529,-19
2021-09-23 21:18:41.196546,-7
2021-09-23 21:18:41.196553,2
2021-09-23 21:18:41.196560,14
2021-09-23 21:18:41.196566,9
2021-09-23 21:18:41.196572,-19
2021-09-23 21:18:41.196578,-36
2021-09-23 21:18:41.196584,-36
2021-09-23 21:18:41.196589,-31
2021-09-23 21:18:41.196595,-26
2021-09-23 21:18:41.196601,-24
2021-09-23 21:18:41.196607,-7
2021-09-23 21:18:41.196613,55
2021-09-23 21:18:41.196619,223
2021-09-23 21:18:41.196625,505
2021-09-23 21:18:41.196631,728
2021-09-23 21:18:41.196637,430
2021-09-23 21:18:41.196643,-399
2021-09-23 21:18:41.196649,-651
2021-09-23 21:18:41.196654,-158
2021-09-23 21:18:41.196660,7
2021-09-23 21:18:41.196666,-113
2021-09-23 21:18:41.196672,-26
2021-09-23 21:18:41.196677,31
2021-09-23 21:18:41.196683,-19
2021-09-23 21:18:41.196689,-12
2021-09-23 21:18:41.196695,9
2021-09-23 21:18:41.196701,0
2021-09-23 21:18:41.196706,7
2021-09-23 21:18:41.196712,24
2021-09-23 21:18:41.421524,31
2021-09-23 21:18:41.421541,40
2021-09-23 21:18:41.421548,48
2021-09-23 21:18:41.421554,48
2021-09-23 21:18:41.421560,50
2021-09-23 21:18:41.421566,67
2021-09-23 21:18:41.421572,76
2021-09-23 21:18:41.421578,79
2021-09-23 21:18:41.421584,91
2021-09-23 21:18:41.421590,96
2021-09-23 21:18:41.421596,91
2021-09-23 21:18:41.421602,88
2021-09-23 21:18:41.421607,86
2021-09-23 21:18:41.421613,74
2021-09-23 21:18:41.421619,60
2021-09-23 21:18:41.421625,48
2021-09-23 21:18:41.421630,28
2021-09-23 21:18:41.421636,9
2021-09-23 21:18:41.421642,-9
2021-09-23 21:18:41.421647,-28
2021-09-23 21:18:41.421653,-45
2021-09-23 21:18:41.421659,-72
2021-09-23 21:18:41.421665,-86
2021-09-23 21:18:41.421671,-81
2021-09-23 21:18:41.421676,-79
2021-09-23 21:18:41.421682,-81
2021-09-23 21:18:41.421688,-79
2021-09-23 21:18:41.421693,-79
2021-09-23 21:18:41.421699,-69
2021-09-23 21:18:41.421705,-60
2021-09-23 21:18:41.736009,-57
2021-09-23 21:18:41.736029,-55
2021-09-23 21:18:41.736036,-45
2021-09-23 21:18:41.736042,-45
2021-09-23 21:18:41.736048,-50
2021-09-23 21:18:41.736054,-38
2021-09-23 21:18:41.736060,-26
2021-09-23 21:18:41.736066,-33
2021-09-23 21:18:41.736072,-45
2021-09-23 21:18:41.736078,-52
2021-09-23 21:18:41.736084,-50
2021-09-23 21:18:41.736090,-48
2021-09-23 21:18:41.736095,-50
2021-09-23 21:18:41.736101,-52
2021-09-23 21:18:41.736107,-48
2021-09-23 21:18:41.736113,-48
2021-09-23 21:18:41.736119,-43
2021-09-23 21:18:41.736125,-38
2021-09-23 21:18:41.736131,-33
2021-09-23 21:18:41.736136,-31
2021-09-23 21:18:41.736142,-40
2021-09-23 21:18:41.736148,-38
2021-09-23 21:18:41.736154,-24
2021-09-23 21:18:41.736159,-12
2021-09-23 21:18:41.736165,7
2021-09-23 21:18:41.736171,9
2021-09-23 21:18:41.736177,-19
2021-09-23 21:18:41.736183,-43
2021-09-23 21:18:41.736189,-38
2021-09-23 21:18:41.736195,-21
2021-09-23 21:18:41.916558,-21
2021-09-23 21:18:41.916576,-28
2021-09-23 21:18:41.916583,-12
2021-09-23 21:18:41.916590,69
2021-09-23 21:18:41.916596,288
2021-09-23 21:18:41.916602,637
2021-09-23 21:18:41.916608,841
2021-09-23 21:18:41.916614,339
2021-09-23 21:18:41.916620,-536
2021-09-23 21:18:41.916626,-538
2021-09-23 21:18:41.916631,-33
2021-09-23 21:18:41.916637,-43
2021-09-23 21:18:41.916643,-156
2021-09-23 21:18:41.916649,-38
2021-09-23 21:18:41.916655,-26
2021-09-23 21:18:41.916660,-79
2021-09-23 21:18:41.916666,-28
2021-09-23 21:18:41.916672,9
2021-09-23 21:18:41.916678,-4
2021-09-23 21:18:41.916683,2
2021-09-23 21:18:41.916689,16
2021-09-23 21:18:41.916695,12
2021-09-23 21:18:41.916701,21
2021-09-23 21:18:41.916706,43
2021-09-23 21:18:41.916712,48
2021-09-23 21:18:41.916718,52
2021-09-23 21:18:41.916724,60
2021-09-23 21:18:41.916730,64
2021-09-23 21:18:41.916736,74
2021-09-23 21:18:41.916741,76
2021-09-23 21:18:42.186661,79
2021-09-23 21:18:42.186680,81
2021-09-23 21:18:42.186687,76
2021-09-23 21:18:42.186693,69
2021-09-23 21:18:42.186699,52
2021-09-23 21:18:42.186705,33
2021-09-23 21:18:42.186711,33
2021-09-23 21:18:42.186717,21
2021-09-23 21:18:42.186723,-7
2021-09-23 21:18:42.186729,-24
2021-09-23 21:18:42.186735,-26
2021-09-23 21:18:42.186740,-38
2021-09-23 21:18:42.186746,-60
2021-09-23 21:18:42.186752,-79
2021-09-23 21:18:42.186758,-88
2021-09-23 21:18:42.186763,-84
2021-09-23 21:18:42.186769,-74
2021-09-23 21:18:42.186775,-64
2021-09-23 21:18:42.186781,-57
2021-09-23 21:18:42.186787,-55
2021-09-23 21:18:42.186793,-50
2021-09-23 21:18:42.186798,-40
2021-09-23 21:18:42.186804,-36
2021-09-23 21:18:42.186810,-33
2021-09-23 21:18:42.186815,-26
2021-09-23 21:18:42.186821,-28
2021-09-23 21:18:42.186827,-36
2021-09-23 21:18:42.186833,-33
2021-09-23 21:18:42.186839,-33
2021-09-23 21:18:42.186844,-33
2021-09-23 21:18:42.366556,-38
2021-09-23 21:18:42.366572,-45
2021-09-23 21:18:42.366579,-50
2021-09-23 21:18:42.366586,-52
2021-09-23 21:18:42.366592,-45
2021-09-23 21:18:42.366598,-38
2021-09-23 21:18:42.366604,-50
2021-09-23 21:18:42.366609,-64
2021-09-23 21:18:42.366615,-64
2021-09-23 21:18:42.366621,-52
2021-09-23 21:18:42.366627,-36
2021-09-23 21:18:42.366633,-21
2021-09-23 21:18:42.366639,-21
2021-09-23 21:18:42.366645,-24
2021-09-23 21:18:42.366650,-31
2021-09-23 21:18:42.366656,-52
2021-09-23 21:18:42.366662,-72
2021-09-23 21:18:42.366668,-62
2021-09-23 21:18:42.366674,-50
2021-09-23 21:18:42.366680,-50
2021-09-23 21:18:42.366685,-40
2021-09-23 21:18:42.366691,-7
2021-09-23 21:18:42.366697,101
2021-09-23 21:18:42.366703,363
2021-09-23 21:18:42.366709,690
2021-09-23 21:18:42.366715,721
2021-09-23 21:18:42.366720,21
2021-09-23 21:18:42.366726,-743
2021-09-23 21:18:42.366732,-502
2021-09-23 21:18:42.366738,-14
2021-09-23 21:18:42.635266,-81
2021-09-23 21:18:42.635284,-115
2021-09-23 21:18:42.635291,19
2021-09-23 21:18:42.635297,-2
2021-09-23 21:18:42.635303,-33
2021-09-23 21:18:42.635309,14
2021-09-23 21:18:42.635315,7
2021-09-23 21:18:42.635321,-14
2021-09-23 21:18:42.635327,7
2021-09-23 21:18:42.635333,19
2021-09-23 21:18:42.635339,21
2021-09-23 21:18:42.635345,40
2021-09-23 21:18:42.635351,52
2021-09-23 21:18:42.635356,64
2021-09-23 21:18:42.635362,81
2021-09-23 21:18:42.635368,93
2021-09-23 21:18:42.635374,103
2021-09-23 21:18:42.635379,103
2021-09-23 21:18:42.635385,88
2021-09-23 21:18:42.635391,98
2021-09-23 21:18:42.635397,122
2021-09-23 21:18:42.635403,125
2021-09-23 21:18:42.635409,105
2021-09-23 21:18:42.635414,86
2021-09-23 21:18:42.635420,69
2021-09-23 21:18:42.635426,43
2021-09-23 21:18:42.635431,12
2021-09-23 21:18:42.635437,-14
2021-09-23 21:18:42.635443,-40
2021-09-23 21:18:42.635449,-57
2021-09-23 21:18:42.861600,-69
2021-09-23 21:18:42.861619,-86
2021-09-23 21:18:42.861626,-101
2021-09-23 21:18:42.861632,-110
2021-09-23 21:18:42.861638,-108
2021-09-23 21:18:42.861645,-105
2021-09-23 21:18:42.861650,-103
2021-09-23 21:18:42.861657,-91
2021-09-23 21:18:42.861663,-74
2021-09-23 21:18:42.861669,-62
2021-09-23 21:18:42.861675,-62
2021-09-23 21:18:42.861681,-64
2021-09-23 21:18:42.861687,-57
2021-09-23 21:18:42.861693,-50
2021-09-23 21:18:42.861699,-57
2021-09-23 21:18:42.861705,-55
2021-09-23 21:18:42.861711,-52
2021-09-23 21:18:42.861717,-52
2021-09-23 21:18:42.861723,-48
2021-09-23 21:18:42.861732,-48
2021-09-23 21:18:42.861738,-45
2021-09-23 21:18:42.861744,-48
2021-09-23 21:18:42.861750,-50
2021-09-23 21:18:42.861756,-50
2021-09-23 21:18:42.861762,-52
2021-09-23 21:18:42.861769,-43
2021-09-23 21:18:42.861775,-28
2021-09-23 21:18:42.861781,-26
2021-09-23 21:18:42.861787,-26
2021-09-23 21:18:42.861793,-31
2021-09-23 21:18:43.041557,-40
2021-09-23 21:18:43.041575,-48
2021-09-23 21:18:43.041583,-45
2021-09-23 21:18:43.041589,-31
2021-09-23 21:18:43.041595,-26
2021-09-23 21:18:43.041601,-26
2021-09-23 21:18:43.041606,-4
2021-09-23 21:18:43.041612,67
2021-09-23 21:18:43.041618,250
2021-09-23 21:18:43.041624,569
2021-09-23 21:18:43.041630,844
2021-09-23 21:18:43.041636,500
2021-09-23 21:18:43.041642,-360
2021-09-23 21:18:43.041648,-545
2021-09-23 21:18:43.041654,-91
2021-09-23 21:18:43.041659,-19
2021-09-23 21:18:43.041665,-139
2021-09-23 21:18:43.041671,-50
2021-09-23 21:18:43.041677,-4
2021-09-23 21:18:43.041682,-50
2021-09-23 21:18:43.041688,-28
2021-09-23 21:18:43.041694,0
2021-09-23 21:18:43.041700,-7
2021-09-23 21:18:43.041705,0
2021-09-23 21:18:43.041711,19
2021-09-23 21:18:43.041717,21
2021-09-23 21:18:43.041723,28
2021-09-23 21:18:43.041728,38
2021-09-23 21:18:43.041734,38
2021-09-23 21:18:43.041740,48
2021-09-23 21:18:43.266638,60
2021-09-23 21:18:43.266654,69
2021-09-23 21:18:43.266661,74
2021-09-23 21:18:43.266668,74
2021-09-23 21:18:43.266674,74
2021-09-23 21:18:43.266680,76
2021-09-23 21:18:43.266686,81
2021-09-23 21:18:43.266692,81
2021-09-23 21:18:43.266698,69
2021-09-23 21:18:43.266704,52
2021-09-23 21:18:43.266710,38
2021-09-23 21:18:43.266716,26
2021-09-23 21:18:43.266722,12
2021-09-23 21:18:43.266727,-12
2021-09-23 21:18:43.266733,-38
2021-09-23 21:18:43.266739,-60
2021-09-23 21:18:43.266745,-72
2021-09-23 21:18:43.266751,-72
2021-09-23 21:18:43.266757,-81
2021-09-23 21:18:43.266763,-93
2021-09-23 21:18:43.266769,-96
2021-09-23 21:18:43.266775,-88
2021-09-23 21:18:43.266780,-81
2021-09-23 21:18:43.266786,-72
2021-09-23 21:18:43.266792,-62
2021-09-23 21:18:43.266798,-50
2021-09-23 21:18:43.266803,-43
2021-09-23 21:18:43.266809,-38
2021-09-23 21:18:43.266815,-31
2021-09-23 21:18:43.266821,-24
2021-09-23 21:18:43.536600,-14
2021-09-23 21:18:43.536618,-7
2021-09-23 21:18:43.536625,-9
2021-09-23 21:18:43.536631,-21
2021-09-23 21:18:43.536637,-28
2021-09-23 21:18:43.536643,-21
2021-09-23 21:18:43.536649,-16
2021-09-23 21:18:43.536655,-21
2021-09-23 21:18:43.536661,-28
2021-09-23 21:18:43.536667,-36
2021-09-23 21:18:43.536673,-38
2021-09-23 21:18:43.536679,-33
2021-09-23 21:18:43.536685,-31
2021-09-23 21:18:43.536690,-26
2021-09-23 21:18:43.536696,-16
2021-09-23 21:18:43.536702,-12
2021-09-23 21:18:43.536708,-9
2021-09-23 21:18:43.536714,-7
2021-09-23 21:18:43.536720,-14
2021-09-23 21:18:43.536726,-26
2021-09-23 21:18:43.536732,-33
2021-09-23 21:18:43.536738,-28
2021-09-23 21:18:43.536743,-26
2021-09-23 21:18:43.536749,-24
2021-09-23 21:18:43.536755,-4
2021-09-23 21:18:43.536761,50
2021-09-23 21:18:43.536767,204
2021-09-23 21:18:43.536773,502
2021-09-23 21:18:43.536779,800
2021-09-23 21:18:43.536785,543
2021-09-23 21:18:43.761591,-259
2021-09-23 21:18:43.761607,-488
2021-09-23 21:18:43.761615,-86
2021-09-23 21:18:43.761621,-19
2021-09-23 21:18:43.761627,-151
2021-09-23 21:18:43.761632,-67
2021-09-23 21:18:43.761638,-12
2021-09-23 21:18:43.761644,-55
2021-09-23 21:18:43.761650,-48
2021-09-23 21:18:43.761656,-21
2021-09-23 21:18:43.761662,-21
2021-09-23 21:18:43.761668,-9
2021-09-23 21:18:43.761674,7
2021-09-23 21:18:43.761680,9
2021-09-23 21:18:43.761686,7
2021-09-23 21:18:43.761692,12
2021-09-23 21:18:43.761698,21
2021-09-23 21:18:43.761704,31
2021-09-23 21:18:43.761710,33
2021-09-23 21:18:43.761716,36
2021-09-23 21:18:43.761722,38
2021-09-23 21:18:43.761727,43
2021-09-23 21:18:43.761733,55
2021-09-23 21:18:43.761739,64
2021-09-23 21:18:43.761745,69
2021-09-23 21:18:43.761750,60
2021-09-23 21:18:43.761756,40
2021-09-23 21:18:43.761762,28
2021-09-23 21:18:43.761768,24
2021-09-23 21:18:43.761774,12
2021-09-23 21:18:44.031695,-2
2021-09-23 21:18:44.031715,-16
2021-09-23 21:18:44.031722,-36
2021-09-23 21:18:44.031728,-50
2021-09-23 21:18:44.031734,-55
2021-09-23 21:18:44.031740,-57
2021-09-23 21:18:44.031746,-64
2021-09-23 21:18:44.031752,-74
2021-09-23 21:18:44.031757,-81
2021-09-23 21:18:44.031763,-79
2021-09-23 21:18:44.031769,-67
2021-09-23 21:18:44.031775,-60
2021-09-23 21:18:44.031780,-57
2021-09-23 21:18:44.031786,-57
2021-09-23 21:18:44.031792,-55
2021-09-23 21:18:44.031798,-52
2021-09-23 21:18:44.031804,-45
2021-09-23 21:18:44.031809,-38
2021-09-23 21:18:44.031815,-26
2021-09-23 21:18:44.031821,-21
2021-09-23 21:18:44.031826,-28
2021-09-23 21:18:44.031832,-33
2021-09-23 21:18:44.031838,-28
2021-09-23 21:18:44.031843,-24
2021-09-23 21:18:44.031849,-24
2021-09-23 21:18:44.031855,-26
2021-09-23 21:18:44.031860,-26
2021-09-23 21:18:44.031866,-24
2021-09-23 21:18:44.031872,-19
2021-09-23 21:18:44.031878,-14
2021-09-23 21:18:44.211605,-16
2021-09-23 21:18:44.211622,-19
2021-09-23 21:18:44.211629,-21
2021-09-23 21:18:44.211635,-24
2021-09-23 21:18:44.211641,-12
2021-09-23 21:18:44.211647,0
2021-09-23 21:18:44.211653,9
2021-09-23 21:18:44.211659,12
2021-09-23 21:18:44.211664,-2
2021-09-23 21:18:44.211670,-26
2021-09-23 21:18:44.211676,-28
2021-09-23 21:18:44.211682,-16
2021-09-23 21:18:44.211688,-12
2021-09-23 21:18:44.211693,-24
2021-09-23 21:18:44.211699,-9
2021-09-23 21:18:44.211704,45
2021-09-23 21:18:44.211710,185
2021-09-23 21:18:44.211716,449
2021-09-23 21:18:44.211721,743
2021-09-23 21:18:44.211727,598
2021-09-23 21:18:44.211733,-173
2021-09-23 21:18:44.211739,-584
2021-09-23 21:18:44.211744,-204
2021-09-23 21:18:44.211750,-7
2021-09-23 21:18:44.211755,-149
2021-09-23 21:18:44.211761,-103
2021-09-23 21:18:44.211767,-21
2021-09-23 21:18:44.211772,-62
2021-09-23 21:18:44.211778,-57
2021-09-23 21:18:44.211784,-14
2021-09-23 21:18:44.436552,-19
2021-09-23 21:18:44.436569,-33
2021-09-23 21:18:44.436576,-16
2021-09-23 21:18:44.436582,-2
2021-09-23 21:18:44.436588,-4
2021-09-23 21:18:44.436594,4
2021-09-23 21:18:44.436600,9
2021-09-23 21:18:44.436606,9
2021-09-23 21:18:44.436612,21
2021-09-23 21:18:44.436618,33
2021-09-23 21:18:44.436624,38
2021-09-23 21:18:44.436630,43
2021-09-23 21:18:44.436636,45
2021-09-23 21:18:44.436641,48
2021-09-23 21:18:44.436647,52
2021-09-23 21:18:44.436653,50
2021-09-23 21:18:44.436659,45
2021-09-23 21:18:44.436664,36
2021-09-23 21:18:44.436670,24
2021-09-23 21:18:44.436676,14
2021-09-23 21:18:44.436681,-2
2021-09-23 21:18:44.436687,-19
2021-09-23 21:18:44.436693,-33
2021-09-23 21:18:44.436699,-45
2021-09-23 21:18:44.436704,-57
2021-09-23 21:18:44.436710,-72
2021-09-23 21:18:44.436716,-76
2021-09-23 21:18:44.436721,-76
2021-09-23 21:18:44.436727,-74
2021-09-23 21:18:44.436733,-72
2021-09-23 21:18:44.705313,-69
2021-09-23 21:18:44.705332,-62
2021-09-23 21:18:44.705339,-52
2021-09-23 21:18:44.705345,-48
2021-09-23 21:18:44.705351,-43
2021-09-23 21:18:44.705357,-40
2021-09-23 21:18:44.705363,-38
2021-09-23 21:18:44.705369,-28
2021-09-23 21:18:44.705375,-21
2021-09-23 21:18:44.705380,-21
2021-09-23 21:18:44.705386,-19
2021-09-23 21:18:44.705392,-21
2021-09-23 21:18:44.705398,-26
2021-09-23 21:18:44.705403,-21
2021-09-23 21:18:44.705409,-16
2021-09-23 21:18:44.705415,-19
2021-09-23 21:18:44.705421,-16
2021-09-23 21:18:44.705426,-14
2021-09-23 21:18:44.705432,-19
2021-09-23 21:18:44.705438,-16
2021-09-23 21:18:44.705444,-12
2021-09-23 21:18:44.705449,-19
2021-09-23 21:18:44.705455,-24
2021-09-23 21:18:44.705460,-19
2021-09-23 21:18:44.705466,-14
2021-09-23 21:18:44.705472,-14
2021-09-23 21:18:44.705478,-19
2021-09-23 21:18:44.705483,-21
2021-09-23 21:18:44.705489,-16
2021-09-23 21:18:44.705495,-2
2021-09-23 21:18:44.886579,16
2021-09-23 21:18:44.886596,24
2021-09-23 21:18:44.886603,2
2021-09-23 21:18:44.886609,-26
2021-09-23 21:18:44.886615,-33
2021-09-23 21:18:44.886621,-31
2021-09-23 21:18:44.886627,-38
2021-09-23 21:18:44.886633,-43
2021-09-23 21:18:44.886638,-19
2021-09-23 21:18:44.886644,43
2021-09-23 21:18:44.886650,202
2021-09-23 21:18:44.886656,483
2021-09-23 21:18:44.886662,721
2021-09-23 21:18:44.886668,413
2021-09-23 21:18:44.886674,-377
2021-09-23 21:18:44.886680,-550
2021-09-23 21:18:44.886686,-110
2021-09-23 21:18:44.886691,-31
2021-09-23 21:18:44.886697,-151
2021-09-23 21:18:44.886703,-64
2021-09-23 21:18:44.886709,-14
2021-09-23 21:18:44.886715,-60
2021-09-23 21:18:44.886721,-45
2021-09-23 21:18:44.886726,-12
2021-09-23 21:18:44.886732,-12
2021-09-23 21:18:44.886738,-7
2021-09-23 21:18:44.886744,9
2021-09-23 21:18:44.886750,14
2021-09-23 21:18:44.886756,19
2021-09-23 21:18:44.886761,26
2021-09-23 21:18:45.111603,26
2021-09-23 21:18:45.111620,33
2021-09-23 21:18:45.111628,45
2021-09-23 21:18:45.111634,40
2021-09-23 21:18:45.111640,40
2021-09-23 21:18:45.111646,48
2021-09-23 21:18:45.111652,60
2021-09-23 21:18:45.111658,62
2021-09-23 21:18:45.111664,60
2021-09-23 21:18:45.111670,50
2021-09-23 21:18:45.111675,31
2021-09-23 21:18:45.111681,19
2021-09-23 21:18:45.111687,16
2021-09-23 21:18:45.111693,4
2021-09-23 21:18:45.111699,-7
2021-09-23 21:18:45.111705,-21
2021-09-23 21:18:45.111711,-38
2021-09-23 21:18:45.111716,-48
2021-09-23 21:18:45.111722,-52
2021-09-23 21:18:45.111728,-57
2021-09-23 21:18:45.111734,-60
2021-09-23 21:18:45.111739,-67
2021-09-23 21:18:45.111745,-67
2021-09-23 21:18:45.111751,-62
2021-09-23 21:18:45.111757,-50
2021-09-23 21:18:45.111762,-43
2021-09-23 21:18:45.111768,-38
2021-09-23 21:18:45.111774,-33
2021-09-23 21:18:45.111780,-28
2021-09-23 21:18:45.111786,-26
2021-09-23 21:18:45.381571,-19
2021-09-23 21:18:45.381589,-16
2021-09-23 21:18:45.381596,-19
2021-09-23 21:18:45.381602,-28
2021-09-23 21:18:45.381608,-28
2021-09-23 21:18:45.381614,-19
2021-09-23 21:18:45.381620,-19
2021-09-23 21:18:45.381626,-21
2021-09-23 21:18:45.381632,-19
2021-09-23 21:18:45.381637,-26
2021-09-23 21:18:45.381643,-28
2021-09-23 21:18:45.381649,-26
2021-09-23 21:18:45.381655,-40
2021-09-23 21:18:45.381661,-48
2021-09-23 21:18:45.381666,-43
2021-09-23 21:18:45.381672,-43
2021-09-23 21:18:45.381678,-43
2021-09-23 21:18:45.381684,-36
2021-09-23 21:18:45.381690,-31
2021-09-23 21:18:45.381696,-28
2021-09-23 21:18:45.381702,-24
2021-09-23 21:18:45.381707,-24
2021-09-23 21:18:45.381713,-24
2021-09-23 21:18:45.381719,-19
2021-09-23 21:18:45.381725,-14
2021-09-23 21:18:45.381730,-4
2021-09-23 21:18:45.381736,0
2021-09-23 21:18:45.381742,4
2021-09-23 21:18:45.381748,12
2021-09-23 21:18:45.381754,0
2021-09-23 21:18:45.606706,-31
2021-09-23 21:18:45.606725,-48
2021-09-23 21:18:45.606732,-45
2021-09-23 21:18:45.606738,-45
2021-09-23 21:18:45.606745,-45
2021-09-23 21:18:45.606751,-21
2021-09-23 21:18:45.606757,36
2021-09-23 21:18:45.606763,192
2021-09-23 21:18:45.606769,471
2021-09-23 21:18:45.606775,750
2021-09-23 21:18:45.606780,567
2021-09-23 21:18:45.606786,-254
2021-09-23 21:18:45.606792,-666
2021-09-23 21:18:45.606798,-223
2021-09-23 21:18:45.606804,2
2021-09-23 21:18:45.606810,-151
2021-09-23 21:18:45.606816,-98
2021-09-23 21:18:45.606822,-7
2021-09-23 21:18:45.606828,-55
2021-09-23 21:18:45.606834,-50
2021-09-23 21:18:45.606839,-7
2021-09-23 21:18:45.606845,-12
2021-09-23 21:18:45.606851,-12
2021-09-23 21:18:45.606857,7
2021-09-23 21:18:45.606863,14
2021-09-23 21:18:45.606869,19
2021-09-23 21:18:45.606874,26
2021-09-23 21:18:45.606880,31
2021-09-23 21:18:45.606886,38
2021-09-23 21:18:45.606892,50
2021-09-23 21:18:45.876620,57
2021-09-23 21:18:45.876637,57
2021-09-23 21:18:45.876644,60
2021-09-23 21:18:45.876650,62
2021-09-23 21:18:45.876656,62
2021-09-23 21:18:45.876682,57
2021-09-23 21:18:45.876689,45
2021-09-23 21:18:45.876695,33
2021-09-23 21:18:45.876700,12
2021-09-23 21:18:45.876706,-7
2021-09-23 21:18:45.876712,-9
2021-09-23 21:18:45.876718,-12
2021-09-23 21:18:45.876724,-31
2021-09-23 21:18:45.876730,-38
2021-09-23 21:18:45.876736,-40
2021-09-23 21:18:45.876742,-48
2021-09-23 21:18:45.876748,-62
2021-09-23 21:18:45.876753,-79
2021-09-23 21:18:45.876759,-88
2021-09-23 21:18:45.876765,-81
2021-09-23 21:18:45.876770,-72
2021-09-23 21:18:45.876776,-69
2021-09-23 21:18:45.876782,-57
2021-09-23 21:18:45.876787,-40
2021-09-23 21:18:45.876793,-40
2021-09-23 21:18:45.876799,-38
2021-09-23 21:18:45.876805,-26
2021-09-23 21:18:45.876810,-19
2021-09-23 21:18:45.876816,-19
2021-09-23 21:18:45.876822,-19
2021-09-23 21:18:46.056605,-19
2021-09-23 21:18:46.056623,-21
2021-09-23 21:18:46.056630,-28
2021-09-23 21:18:46.056636,-28
2021-09-23 21:18:46.056642,-24
2021-09-23 21:18:46.056648,-26
2021-09-23 21:18:46.056654,-24
2021-09-23 21:18:46.056660,-28
2021-09-23 21:18:46.056666,-36
2021-09-23 21:18:46.056673,-31
2021-09-23 21:18:46.056678,-24
2021-09-23 21:18:46.056684,-24
2021-09-23 21:18:46.056690,-28
2021-09-23 21:18:46.056696,-33
2021-09-23 21:18:46.056702,-33
2021-09-23 21:18:46.056707,-28
2021-09-23 21:18:46.056713,-28
2021-09-23 21:18:46.056719,-31
2021-09-23 21:18:46.056725,-33
2021-09-23 21:18:46.056731,-38
2021-09-23 21:18:46.056736,-48
2021-09-23 21:18:46.056742,-48
2021-09-23 21:18:46.056748,-38
2021-09-23 21:18:46.056754,-31
2021-09-23 21:18:46.056759,-24
2021-09-23 21:18:46.056765,-4
2021-09-23 21:18:46.056771,14
2021-09-23 21:18:46.056776,2
2021-09-23 21:18:46.056782,-28
2021-09-23 21:18:46.056788,-40
2021-09-23 21:18:46.326601,-33
2021-09-23 21:18:46.326618,-26
2021-09-23 21:18:46.326625,-19
2021-09-23 21:18:46.326631,-7
2021-09-23 21:18:46.326637,33
2021-09-23 21:18:46.326643,187
2021-09-23 21:18:46.326649,485
2021-09-23 21:18:46.326654,800
2021-09-23 21:18:46.326660,639
2021-09-23 21:18:46.326666,-238
2021-09-23 21:18:46.326672,-731
2021-09-23 21:18:46.326677,-278
2021-09-23 21:18:46.326683,-12
2021-09-23 21:18:46.326689,-175
2021-09-23 21:18:46.326695,-129
2021-09-23 21:18:46.326701,-21
2021-09-23 21:18:46.326707,-60
2021-09-23 21:18:46.326712,-52
2021-09-23 21:18:46.326718,2
2021-09-23 21:18:46.326724,7
2021-09-23 21:18:46.326730,2
2021-09-23 21:18:46.326735,21
2021-09-23 21:18:46.326741,33
2021-09-23 21:18:46.326747,36
2021-09-23 21:18:46.326753,33
2021-09-23 21:18:46.326759,40
2021-09-23 21:18:46.326764,55
2021-09-23 21:18:46.326771,60
2021-09-23 21:18:46.326777,69
2021-09-23 21:18:46.326782,76
2021-09-23 21:18:46.506636,79
2021-09-23 21:18:46.506654,81
2021-09-23 21:18:46.506662,79
2021-09-23 21:18:46.506668,72
2021-09-23 21:18:46.506674,69
2021-09-23 21:18:46.506680,57
2021-09-23 21:18:46.506686,38
2021-09-23 21:18:46.506692,26
2021-09-23 21:18:46.506698,16
2021-09-23 21:18:46.506704,4
2021-09-23 21:18:46.506710,-14
2021-09-23 21:18:46.506716,-38
2021-09-23 21:18:46.506722,-62
2021-09-23 21:18:46.506727,-64
2021-09-23 21:18:46.506733,-60
2021-09-23 21:18:46.506739,-67
2021-09-23 21:18:46.506745,-74
2021-09-23 21:18:46.506751,-76
2021-09-23 21:18:46.506757,-76
2021-09-23 21:18:46.506762,-69
2021-09-23 21:18:46.506768,-62
2021-09-23 21:18:46.506774,-57
2021-09-23 21:18:46.506780,-52
2021-09-23 21:18:46.506786,-52
2021-09-23 21:18:46.506792,-48
2021-09-23 21:18:46.506797,-38
2021-09-23 21:18:46.506803,-33
2021-09-23 21:18:46.506809,-31
2021-09-23 21:18:46.506815,-31
2021-09-23 21:18:46.506821,-33
2021-09-23 21:18:46.820353,-28
2021-09-23 21:18:46.820372,-28
2021-09-23 21:18:46.820379,-33
2021-09-23 21:18:46.820385,-40
2021-09-23 21:18:46.820391,-45
2021-09-23 21:18:46.820397,-52
2021-09-23 21:18:46.820403,-52
2021-09-23 21:18:46.820409,-50
2021-09-23 21:18:46.820415,-55
2021-09-23 21:18:46.820421,-62
2021-09-23 21:18:46.820426,-64
2021-09-23 21:18:46.820432,-67
2021-09-23 21:18:46.820438,-64
2021-09-23 21:18:46.820444,-60
2021-09-23 21:18:46.820450,-60
2021-09-23 21:18:46.820456,-60
2021-09-23 21:18:46.820461,-60
2021-09-23 21:18:46.820468,-55
2021-09-23 21:18:46.820473,-43
2021-09-23 21:18:46.820479,-38
2021-09-23 21:18:46.820485,-38
2021-09-23 21:18:46.820491,-33
2021-09-23 21:18:46.820497,-26
2021-09-23 21:18:46.820503,-21
2021-09-23 21:18:46.820508,-14
2021-09-23 21:18:46.820514,12
2021-09-23 21:18:46.820520,16
2021-09-23 21:18:46.820526,-19
2021-09-23 21:18:46.820532,-40
2021-09-23 21:18:46.820537,-48
2021-09-23 21:18:46.956617,-45
2021-09-23 21:18:46.956634,-31
2021-09-23 21:18:46.956642,-21
2021-09-23 21:18:46.956648,-4
2021-09-23 21:18:46.956654,88
2021-09-23 21:18:46.956660,360
2021-09-23 21:18:46.956666,776
2021-09-23 21:18:46.956672,961
2021-09-23 21:18:46.956678,286
2021-09-23 21:18:46.956683,-707
2021-09-23 21:18:46.956689,-618
2021-09-23 21:18:46.956695,-48
2021-09-23 21:18:46.956701,-93
2021-09-23 21:18:46.956707,-180
2021-09-23 21:18:46.956713,-31
2021-09-23 21:18:46.956719,-31
2021-09-23 21:18:46.956725,-84
2021-09-23 21:18:46.956730,-31
2021-09-23 21:18:46.956736,-2
2021-09-23 21:18:46.956742,-16
2021-09-23 21:18:46.956748,-4
2021-09-23 21:18:46.956754,19
2021-09-23 21:18:46.956760,24
2021-09-23 21:18:46.956765,28
2021-09-23 21:18:46.956771,40
2021-09-23 21:18:46.956777,50
2021-09-23 21:18:46.956783,60
2021-09-23 21:18:46.956789,67
2021-09-23 21:18:46.956794,69
2021-09-23 21:18:46.956800,81
2021-09-23 21:18:47.226658,88
2021-09-23 21:18:47.226676,91
2021-09-23 21:18:47.226683,93
2021-09-23 21:18:47.226690,81
2021-09-23 21:18:47.226696,62
2021-09-23 21:18:47.226702,50
2021-09-23 21:18:47.226707,33
2021-09-23 21:18:47.226713,16
2021-09-23 21:18:47.226719,0
2021-09-23 21:18:47.226725,-21
2021-09-23 21:18:47.226731,-36
2021-09-23 21:18:47.226737,-45
2021-09-23 21:18:47.226743,-60
2021-09-23 21:18:47.226749,-74
2021-09-23 21:18:47.226754,-84
2021-09-23 21:18:47.226760,-93
2021-09-23 21:18:47.226766,-93
2021-09-23 21:18:47.226772,-88
2021-09-23 21:18:47.226777,-86
2021-09-23 21:18:47.226783,-79
2021-09-23 21:18:47.226789,-67
2021-09-23 21:18:47.226794,-67
2021-09-23 21:18:47.226800,-67
2021-09-23 21:18:47.226806,-57
2021-09-23 21:18:47.226811,-43
2021-09-23 21:18:47.226817,-28
2021-09-23 21:18:47.226823,-26
2021-09-23 21:18:47.226829,-33
2021-09-23 21:18:47.226834,-33
2021-09-23 21:18:47.226840,-28
2021-09-23 21:18:47.451591,-26
2021-09-23 21:18:47.451609,-28
2021-09-23 21:18:47.451616,-36
2021-09-23 21:18:47.451623,-40
2021-09-23 21:18:47.451629,-43
2021-09-23 21:18:47.451635,-50
2021-09-23 21:18:47.451641,-52
2021-09-23 21:18:47.451647,-50
2021-09-23 21:18:47.451653,-52
2021-09-23 21:18:47.451658,-57
2021-09-23 21:18:47.451664,-52
2021-09-23 21:18:47.451670,-43
2021-09-23 21:18:47.451676,-45
2021-09-23 21:18:47.451682,-45
2021-09-23 21:18:47.451687,-38
2021-09-23 21:18:47.451693,-48
2021-09-23 21:18:47.451699,-48
2021-09-23 21:18:47.451705,-36
2021-09-23 21:18:47.451711,-28
2021-09-23 21:18:47.451716,-24
2021-09-23 21:18:47.451722,-26
2021-09-23 21:18:47.451728,-12
2021-09-23 21:18:47.451734,12
2021-09-23 21:18:47.451740,4
2021-09-23 21:18:47.451745,-24
2021-09-23 21:18:47.451751,-45
2021-09-23 21:18:47.451757,-43
2021-09-23 21:18:47.451763,-28
2021-09-23 21:18:47.451769,-19
2021-09-23 21:18:47.451775,-9
2021-09-23 21:18:47.676680,26
2021-09-23 21:18:47.676698,161
2021-09-23 21:18:47.676705,456
2021-09-23 21:18:47.676711,827
2021-09-23 21:18:47.676717,824
2021-09-23 21:18:47.676723,-24
2021-09-23 21:18:47.676729,-812
2021-09-23 21:18:47.676735,-456
2021-09-23 21:18:47.676741,16
2021-09-23 21:18:47.676747,-110
2021-09-23 21:18:47.676753,-122
2021-09-23 21:18:47.676759,21
2021-09-23 21:18:47.676765,-9
2021-09-23 21:18:47.676771,-45
2021-09-23 21:18:47.676777,-7
2021-09-23 21:18:47.676783,0
2021-09-23 21:18:47.676788,0
2021-09-23 21:18:47.676794,31
2021-09-23 21:18:47.676800,50
2021-09-23 21:18:47.676806,52
2021-09-23 21:18:47.676812,62
2021-09-23 21:18:47.676818,64
2021-09-23 21:18:47.676823,62
2021-09-23 21:18:47.676829,76
2021-09-23 21:18:47.676835,91
2021-09-23 21:18:47.676841,96
2021-09-23 21:18:47.676846,96
2021-09-23 21:18:47.676852,105
2021-09-23 21:18:47.676858,125
2021-09-23 21:18:47.676864,125
2021-09-23 21:18:47.901634,113
2021-09-23 21:18:47.901652,108
2021-09-23 21:18:47.901659,93
2021-09-23 21:18:47.901665,74
2021-09-23 21:18:47.901671,62
2021-09-23 21:18:47.901677,43
2021-09-23 21:18:47.901683,19
2021-09-23 21:18:47.901689,-14
2021-09-23 21:18:47.901695,-48
2021-09-23 21:18:47.901701,-67
2021-09-23 21:18:47.901707,-81
2021-09-23 21:18:47.901712,-105
2021-09-23 21:18:47.901718,-129
2021-09-23 21:18:47.901724,-134
2021-09-23 21:18:47.901730,-129
2021-09-23 21:18:47.901735,-125
2021-09-23 21:18:47.901741,-113
2021-09-23 21:18:47.901747,-91
2021-09-23 21:18:47.901753,-79
2021-09-23 21:18:47.901759,-79
2021-09-23 21:18:47.901764,-64
2021-09-23 21:18:47.901770,-45
2021-09-23 21:18:47.901776,-38
2021-09-23 21:18:47.901781,-38
2021-09-23 21:18:47.901787,-38
2021-09-23 21:18:47.901793,-40
2021-09-23 21:18:47.901798,-38
2021-09-23 21:18:47.901804,-38
2021-09-23 21:18:47.901810,-40
2021-09-23 21:18:47.901816,-38
2021-09-23 21:18:48.126697,-38
2021-09-23 21:18:48.126716,-38
2021-09-23 21:18:48.126723,-38
2021-09-23 21:18:48.126729,-43
2021-09-23 21:18:48.126735,-38
2021-09-23 21:18:48.126741,-33
2021-09-23 21:18:48.126747,-38
2021-09-23 21:18:48.126753,-40
2021-09-23 21:18:48.126759,-38
2021-09-23 21:18:48.126764,-28
2021-09-23 21:18:48.126770,-14
2021-09-23 21:18:48.126776,-9
2021-09-23 21:18:48.126782,0
2021-09-23 21:18:48.126788,12
2021-09-23 21:18:48.126793,9
2021-09-23 21:18:48.126799,-14
2021-09-23 21:18:48.126805,-33
2021-09-23 21:18:48.126810,-28
2021-09-23 21:18:48.126816,-21
2021-09-23 21:18:48.126822,-19
2021-09-23 21:18:48.126828,-12
2021-09-23 21:18:48.126833,9
2021-09-23 21:18:48.126839,98
2021-09-23 21:18:48.126845,343
2021-09-23 21:18:48.126851,692
2021-09-23 21:18:48.126857,822
2021-09-23 21:18:48.126862,221
2021-09-23 21:18:48.126868,-661
2021-09-23 21:18:48.126874,-589
2021-09-23 21:18:48.126880,-48
2021-09-23 21:18:48.396639,-45
2021-09-23 21:18:48.396655,-122
2021-09-23 21:18:48.396662,14
2021-09-23 21:18:48.396668,24
2021-09-23 21:18:48.396674,-26
2021-09-23 21:18:48.396679,9
2021-09-23 21:18:48.396685,26
2021-09-23 21:18:48.396691,9
2021-09-23 21:18:48.396697,28
2021-09-23 21:18:48.396703,50
2021-09-23 21:18:48.396709,50
2021-09-23 21:18:48.396715,55
2021-09-23 21:18:48.396720,62
2021-09-23 21:18:48.396726,72
2021-09-23 21:18:48.396732,84
2021-09-23 21:18:48.396737,93
2021-09-23 21:18:48.396743,103
2021-09-23 21:18:48.396749,101
2021-09-23 21:18:48.396754,101
2021-09-23 21:18:48.396760,113
2021-09-23 21:18:48.396766,113
2021-09-23 21:18:48.396771,115
2021-09-23 21:18:48.396777,115
2021-09-23 21:18:48.396783,103
2021-09-23 21:18:48.396789,91
2021-09-23 21:18:48.396794,76
2021-09-23 21:18:48.396800,57
2021-09-23 21:18:48.396806,19
2021-09-23 21:18:48.396812,-16
2021-09-23 21:18:48.396817,-40
2021-09-23 21:18:48.576718,-60
2021-09-23 21:18:48.576736,-76
2021-09-23 21:18:48.576743,-88
2021-09-23 21:18:48.576749,-105
2021-09-23 21:18:48.576755,-120
2021-09-23 21:18:48.576761,-134
2021-09-23 21:18:48.576767,-129
2021-09-23 21:18:48.576773,-117
2021-09-23 21:18:48.576779,-108
2021-09-23 21:18:48.576784,-96
2021-09-23 21:18:48.576790,-76
2021-09-23 21:18:48.576796,-62
2021-09-23 21:18:48.576802,-48
2021-09-23 21:18:48.576808,-36
2021-09-23 21:18:48.576814,-26
2021-09-23 21:18:48.576819,-24
2021-09-23 21:18:48.576825,-28
2021-09-23 21:18:48.576831,-33
2021-09-23 21:18:48.576837,-33
2021-09-23 21:18:48.576842,-28
2021-09-23 21:18:48.576848,-31
2021-09-23 21:18:48.576854,-36
2021-09-23 21:18:48.576859,-33
2021-09-23 21:18:48.576865,-31
2021-09-23 21:18:48.576871,-33
2021-09-23 21:18:48.576876,-31
2021-09-23 21:18:48.576882,-26
2021-09-23 21:18:48.576888,-26
2021-09-23 21:18:48.576894,-26
2021-09-23 21:18:48.576900,-28
2021-09-23 21:18:48.845310,-33
2021-09-23 21:18:48.845329,-31
2021-09-23 21:18:48.845336,-19
2021-09-23 21:18:48.845343,-14
2021-09-23 21:18:48.845349,-12
2021-09-23 21:18:48.845355,7
2021-09-23 21:18:48.845361,9
2021-09-23 21:18:48.845367,-19
2021-09-23 21:18:48.845372,-36
2021-09-23 21:18:48.845378,-33
2021-09-23 21:18:48.845384,-31
2021-09-23 21:18:48.845390,-26
2021-09-23 21:18:48.845396,-16
2021-09-23 21:18:48.845402,12
2021-09-23 21:18:48.845407,122
2021-09-23 21:18:48.845413,391
2021-09-23 21:18:48.845419,810
2021-09-23 21:18:48.845425,988
2021-09-23 21:18:48.845431,329
2021-09-23 21:18:48.845437,-536
2021-09-23 21:18:48.845442,-413
2021-09-23 21:18:48.845448,9
2021-09-23 21:18:48.845454,-101
2021-09-23 21:18:48.845459,-175
2021-09-23 21:18:48.845465,-40
2021-09-23 21:18:48.845471,-38
2021-09-23 21:18:48.845477,-74
2021-09-23 21:18:48.845483,-33
2021-09-23 21:18:48.845488,-16
2021-09-23 21:18:48.845494,-21
2021-09-23 21:18:49.116093,-2
2021-09-23 21:18:49.116111,14
2021-09-23 21:18:49.116119,7
2021-09-23 21:18:49.116125,0
2021-09-23 21:18:49.116131,12
2021-09-23 21:18:49.116137,26
2021-09-23 21:18:49.116143,40
2021-09-23 21:18:49.116149,55
2021-09-23 21:18:49.116240,60
2021-09-23 21:18:49.116247,64
2021-09-23 21:18:49.116253,72
2021-09-23 21:18:49.116259,84
2021-09-23 21:18:49.116265,98
2021-09-23 21:18:49.116271,105
2021-09-23 21:18:49.116277,103
2021-09-23 21:18:49.116283,86
2021-09-23 21:18:49.116289,67
2021-09-23 21:18:49.116295,57
2021-09-23 21:18:49.116301,40
2021-09-23 21:18:49.116307,12
2021-09-23 21:18:49.116313,-19
2021-09-23 21:18:49.116319,-48
2021-09-23 21:18:49.116325,-67
2021-09-23 21:18:49.116330,-74
2021-09-23 21:18:49.116336,-79
2021-09-23 21:18:49.116342,-84
2021-09-23 21:18:49.116348,-88
2021-09-23 21:18:49.116354,-93
2021-09-23 21:18:49.116359,-86
2021-09-23 21:18:49.116365,-76
2021-09-23 21:18:49.296722,-76
2021-09-23 21:18:49.296741,-76
2021-09-23 21:18:49.296748,-76
2021-09-23 21:18:49.296754,-74
2021-09-23 21:18:49.296761,-74
2021-09-23 21:18:49.296767,-67
2021-09-23 21:18:49.296773,-57
2021-09-23 21:18:49.296779,-55
2021-09-23 21:18:49.296785,-55
2021-09-23 21:18:49.296791,-60
2021-09-23 21:18:49.296797,-55
2021-09-23 21:18:49.296803,-45
2021-09-23 21:18:49.296809,-45
2021-09-23 21:18:49.296815,-43
2021-09-23 21:18:49.296821,-43
2021-09-23 21:18:49.296827,-52
2021-09-23 21:18:49.296832,-48
2021-09-23 21:18:49.296838,-38
2021-09-23 21:18:49.296844,-36
2021-09-23 21:18:49.296850,-40
2021-09-23 21:18:49.296856,-38
2021-09-23 21:18:49.296862,-36
2021-09-23 21:18:49.296867,-40
2021-09-23 21:18:49.296873,-36
2021-09-23 21:18:49.296879,-16
2021-09-23 21:18:49.296885,-7
2021-09-23 21:18:49.296890,-2
2021-09-23 21:18:49.296896,4
2021-09-23 21:18:49.296902,0
2021-09-23 21:18:49.296908,-24
2021-09-23 21:18:49.566753,-43
2021-09-23 21:18:49.566771,-43
2021-09-23 21:18:49.566778,-40
2021-09-23 21:18:49.566784,-38
2021-09-23 21:18:49.566790,-24
2021-09-23 21:18:49.566796,-7
2021-09-23 21:18:49.566802,45
2021-09-23 21:18:49.566808,247
2021-09-23 21:18:49.566814,622
2021-09-23 21:18:49.566820,985
2021-09-23 21:18:49.566826,690
2021-09-23 21:18:49.566831,-341
2021-09-23 21:18:49.566837,-707
2021-09-23 21:18:49.566843,-175
2021-09-23 21:18:49.566849,-24
2021-09-23 21:18:49.566855,-192
2021-09-23 21:18:49.566861,-88
2021-09-23 21:18:49.566867,-7
2021-09-23 21:18:49.566873,-67
2021-09-23 21:18:49.566878,-48
2021-09-23 21:18:49.566884,-2
2021-09-23 21:18:49.566890,-16
2021-09-23 21:18:49.566896,-12
2021-09-23 21:18:49.566901,19
2021-09-23 21:18:49.566907,26
2021-09-23 21:18:49.566913,24
2021-09-23 21:18:49.566919,31
2021-09-23 21:18:49.566924,48
2021-09-23 21:18:49.566930,64
2021-09-23 21:18:49.566936,74
2021-09-23 21:18:49.746658,84
2021-09-23 21:18:49.746675,93
2021-09-23 21:18:49.746682,105
2021-09-23 21:18:49.746688,115
2021-09-23 21:18:49.746694,127
2021-09-23 21:18:49.746700,141
2021-09-23 21:18:49.746706,134
2021-09-23 21:18:49.746711,120
2021-09-23 21:18:49.746717,108
2021-09-23 21:18:49.746723,91
2021-09-23 21:18:49.746729,72
2021-09-23 21:18:49.746735,52
2021-09-23 21:18:49.746741,21
2021-09-23 21:18:49.746746,-21
2021-09-23 21:18:49.746752,-60
2021-09-23 21:18:49.746758,-79
2021-09-23 21:18:49.746764,-86
2021-09-23 21:18:49.746770,-96
2021-09-23 21:18:49.746775,-103
2021-09-23 21:18:49.746781,-110
2021-09-23 21:18:49.746787,-108
2021-09-23 21:18:49.746793,-101
2021-09-23 21:18:49.746798,-96
2021-09-23 21:18:49.746804,-84
2021-09-23 21:18:49.746810,-76
2021-09-23 21:18:49.746815,-76
2021-09-23 21:18:49.746821,-64
2021-09-23 21:18:49.746827,-52
2021-09-23 21:18:49.746833,-48
2021-09-23 21:18:49.746839,-45
2021-09-23 21:18:50.061810,-48
2021-09-23 21:18:50.061829,-52
2021-09-23 21:18:50.061836,-67
2021-09-23 21:18:50.061842,-79
2021-09-23 21:18:50.061848,-72
2021-09-23 21:18:50.061855,-74
2021-09-23 21:18:50.061860,-81
2021-09-23 21:18:50.061866,-74
2021-09-23 21:18:50.061872,-62
2021-09-23 21:18:50.061878,-64
2021-09-23 21:18:50.061884,-72
2021-09-23 21:18:50.061890,-69
2021-09-23 21:18:50.061896,-67
2021-09-23 21:18:50.061902,-69
2021-09-23 21:18:50.061907,-64
2021-09-23 21:18:50.061913,-57
2021-09-23 21:18:50.061919,-52
2021-09-23 21:18:50.061925,-50
2021-09-23 21:18:50.061930,-52
2021-09-23 21:18:50.061936,-45
2021-09-23 21:18:50.061941,-36
2021-09-23 21:18:50.061947,-26
2021-09-23 21:18:50.061953,-7
2021-09-23 21:18:50.061958,14
2021-09-23 21:18:50.061964,4
2021-09-23 21:18:50.061970,-24
2021-09-23 21:18:50.061976,-43
2021-09-23 21:18:50.061981,-43
2021-09-23 21:18:50.061987,-33
2021-09-23 21:18:50.061993,-26
2021-09-23 21:18:50.196655,-21
2021-09-23 21:18:50.196671,2
2021-09-23 21:18:50.196678,98
2021-09-23 21:18:50.196685,343
2021-09-23 21:18:50.196691,738
2021-09-23 21:18:50.196697,983
2021-09-23 21:18:50.196703,401
2021-09-23 21:18:50.196709,-598
2021-09-23 21:18:50.196714,-598
2021-09-23 21:18:50.196720,-52
2021-09-23 21:18:50.196726,-62
