Time,ECG
2021-09-23 20:42:10.297148,4944
2021-09-23 20:42:10.297167,4973
2021-09-23 20:42:10.297174,4843
2021-09-23 20:42:10.297180,4833
2021-09-23 20:42:10.297186,4840
2021-09-23 20:42:10.297205,4706
2021-09-23 20:42:10.297212,4722
2021-09-23 20:42:10.297218,4631
2021-09-23 20:42:10.297224,4573
2021-09-23 20:42:10.297231,4588
2021-09-23 20:42:10.297237,4453
2021-09-23 20:42:10.297244,4482
2021-09-23 20:42:10.297250,4429
2021-09-23 20:42:10.297256,4323
2021-09-23 20:42:10.297262,4369
2021-09-23 20:42:10.297268,4256
2021-09-23 20:42:10.522138,4242
2021-09-23 20:42:10.522159,4261
2021-09-23 20:42:10.522166,4160
2021-09-23 20:42:10.522172,4201
2021-09-23 20:42:10.522179,4109
2021-09-23 20:42:10.522185,4049
2021-09-23 20:42:10.522191,4071
2021-09-23 20:42:10.522197,3919
2021-09-23 20:42:10.522203,3934
2021-09-23 20:42:10.522209,3898
2021-09-23 20:42:10.522216,3794
2021-09-23 20:42:10.522222,3871
2021-09-23 20:42:10.522228,3878
2021-09-23 20:42:10.522234,4177
2021-09-23 20:42:10.522240,4756
2021-09-23 20:42:10.522246,4915
2021-09-23 20:42:10.522252,4160
2021-09-23 20:42:10.522258,3020
2021-09-23 20:42:10.522264,3056
2021-09-23 20:42:10.522270,3599
2021-09-23 20:42:10.522277,3328
2021-09-23 20:42:10.522283,3244
2021-09-23 20:42:10.522289,3407
2021-09-23 20:42:10.522295,3272
2021-09-23 20:42:10.522301,3289
2021-09-23 20:42:10.522307,3282
2021-09-23 20:42:10.522313,3248
2021-09-23 20:42:10.522319,3248
2021-09-23 20:42:10.522326,3162
2021-09-23 20:42:10.522332,3227
2021-09-23 20:42:10.790806,3181
2021-09-23 20:42:10.790827,3119
2021-09-23 20:42:10.790835,3181
2021-09-23 20:42:10.790841,3082
2021-09-23 20:42:10.790847,3097
2021-09-23 20:42:10.790854,3102
2021-09-23 20:42:10.790860,3018
2021-09-23 20:42:10.790866,3068
2021-09-23 20:42:10.790872,2996
2021-09-23 20:42:10.790878,2996
2021-09-23 20:42:10.790884,3018
2021-09-23 20:42:10.790890,2900
2021-09-23 20:42:10.790896,2936
2021-09-23 20:42:10.790905,2861
2021-09-23 20:42:10.790911,2789
2021-09-23 20:42:10.790917,2837
2021-09-23 20:42:10.790923,2710
2021-09-23 20:42:10.790929,2710
2021-09-23 20:42:10.790935,2683
2021-09-23 20:42:10.790941,2568
2021-09-23 20:42:10.790948,2601
2021-09-23 20:42:10.790954,2503
2021-09-23 20:42:10.790960,2491
2021-09-23 20:42:10.790966,2520
2021-09-23 20:42:10.790972,2402
2021-09-23 20:42:10.790978,2443
2021-09-23 20:42:10.790984,2385
2021-09-23 20:42:10.790994,2327
2021-09-23 20:42:10.791000,2385
2021-09-23 20:42:10.791006,2294
2021-09-23 20:42:10.972114,2332
2021-09-23 20:42:10.972137,2318
2021-09-23 20:42:10.972148,2236
2021-09-23 20:42:10.972151,2306
2021-09-23 20:42:10.972161,2226
2021-09-23 20:42:10.972164,2246
2021-09-23 20:42:10.972167,2277
2021-09-23 20:42:10.972177,2171
2021-09-23 20:42:10.972180,2222
2021-09-23 20:42:10.972183,2157
2021-09-23 20:42:10.972192,2130
2021-09-23 20:42:10.972196,2178
2021-09-23 20:42:10.972199,2041
2021-09-23 20:42:10.972211,2087
2021-09-23 20:42:10.972214,2075
2021-09-23 20:42:10.972222,1976
2021-09-23 20:42:10.972227,2039
2021-09-23 20:42:10.972230,1964
2021-09-23 20:42:10.972238,1988
2021-09-23 20:42:10.972258,1998
2021-09-23 20:42:10.972261,1882
2021-09-23 20:42:10.972272,1957
2021-09-23 20:42:10.972275,1899
2021-09-23 20:42:10.972278,1870
2021-09-23 20:42:10.972287,1935
2021-09-23 20:42:10.972291,1825
2021-09-23 20:42:10.972299,1885
2021-09-23 20:42:10.972303,1885
2021-09-23 20:42:10.972306,1781
2021-09-23 20:42:10.972316,1813
2021-09-23 20:42:11.197131,1717
2021-09-23 20:42:11.197154,1741
2021-09-23 20:42:11.197161,1781
2021-09-23 20:42:11.197168,1673
2021-09-23 20:42:11.197174,1748
2021-09-23 20:42:11.197180,1781
2021-09-23 20:42:11.197186,2048
2021-09-23 20:42:11.197192,2707
2021-09-23 20:42:11.197198,2984
2021-09-23 20:42:11.197205,2258
2021-09-23 20:42:11.197211,1070
2021-09-23 20:42:11.197217,1055
2021-09-23 20:42:11.197223,1635
2021-09-23 20:42:11.197229,1416
2021-09-23 20:42:11.197236,1334
2021-09-23 20:42:11.197242,1515
2021-09-23 20:42:11.197248,1404
2021-09-23 20:42:11.197254,1445
2021-09-23 20:42:11.197260,1445
2021-09-23 20:42:11.197267,1421
2021-09-23 20:42:11.197273,1474
2021-09-23 20:42:11.197282,1368
2021-09-23 20:42:11.197288,1507
2021-09-23 20:42:11.197294,1524
2021-09-23 20:42:11.197301,1279
2021-09-23 20:42:11.197307,1531
2021-09-23 20:42:11.197313,1498
2021-09-23 20:42:11.197319,1245
2021-09-23 20:42:11.197325,1628
2021-09-23 20:42:11.197331,1399
2021-09-23 20:42:11.422126,1279
2021-09-23 20:42:11.422148,1757
2021-09-23 20:42:11.422155,1255
2021-09-23 20:42:11.422162,1349
2021-09-23 20:42:11.422168,1673
2021-09-23 20:42:11.422174,1103
2021-09-23 20:42:11.422180,1469
2021-09-23 20:42:11.422186,1414
2021-09-23 20:42:11.422192,1091
2021-09-23 20:42:11.422208,1546
2021-09-23 20:42:11.422215,1195
2021-09-23 20:42:11.422221,1180
2021-09-23 20:42:11.422227,1329
2021-09-23 20:42:11.422235,997
2021-09-23 20:42:11.422241,1264
2021-09-23 20:42:11.422247,1103
2021-09-23 20:42:11.422253,964
2021-09-23 20:42:11.422260,1173
2021-09-23 20:42:11.422266,930
2021-09-23 20:42:11.422272,1086
2021-09-23 20:42:11.422278,1084
2021-09-23 20:42:11.422284,918
2021-09-23 20:42:11.422290,1139
2021-09-23 20:42:11.422296,937
2021-09-23 20:42:11.422302,971
2021-09-23 20:42:11.422308,1248
2021-09-23 20:42:11.422314,1577
2021-09-23 20:42:11.422321,2075
2021-09-23 20:42:11.422327,1769
2021-09-23 20:42:11.422333,1515
2021-09-23 20:42:11.692113,1382
2021-09-23 20:42:11.692133,690
2021-09-23 20:42:11.692140,586
2021-09-23 20:42:11.692147,894
2021-09-23 20:42:11.692153,1084
2021-09-23 20:42:11.692159,1111
2021-09-23 20:42:11.692165,887
2021-09-23 20:42:11.692171,1005
2021-09-23 20:42:11.692182,1036
2021-09-23 20:42:11.692188,714
2021-09-23 20:42:11.692194,714
2021-09-23 20:42:11.692200,863
2021-09-23 20:42:11.692206,947
2021-09-23 20:42:11.692212,887
2021-09-23 20:42:11.692218,661
2021-09-23 20:42:11.692224,738
2021-09-23 20:42:11.692230,863
2021-09-23 20:42:11.692237,805
2021-09-23 20:42:11.692243,793
2021-09-23 20:42:11.692249,747
2021-09-23 20:42:11.692255,788
2021-09-23 20:42:11.692261,743
2021-09-23 20:42:11.692267,608
2021-09-23 20:42:11.692274,543
2021-09-23 20:42:11.692280,336
2021-09-23 20:42:11.692286,437
2021-09-23 20:42:11.692292,658
2021-09-23 20:42:11.692298,310
2021-09-23 20:42:11.692304,161
2021-09-23 20:42:11.692320,598
2021-09-23 20:42:11.960741,1163
2021-09-23 20:42:11.960761,1565
2021-09-23 20:42:11.960768,1034
2021-09-23 20:42:11.960775,45
2021-09-23 20:42:11.960781,120
2021-09-23 20:42:11.960787,632
2021-09-23 20:42:11.960795,541
2021-09-23 20:42:11.960801,372
2021-09-23 20:42:11.960807,495
2021-09-23 20:42:11.960813,490
2021-09-23 20:42:11.960819,365
2021-09-23 20:42:11.960825,459
2021-09-23 20:42:11.960831,517
2021-09-23 20:42:11.960837,454
2021-09-23 20:42:11.960843,466
2021-09-23 20:42:11.960849,459
2021-09-23 20:42:11.960855,456
2021-09-23 20:42:11.960861,461
2021-09-23 20:42:11.960866,440
2021-09-23 20:42:11.960872,468
2021-09-23 20:42:11.960878,461
2021-09-23 20:42:11.960884,428
2021-09-23 20:42:11.960890,387
2021-09-23 20:42:11.960896,404
2021-09-23 20:42:11.960902,538
2021-09-23 20:42:11.960908,538
2021-09-23 20:42:11.960915,473
2021-09-23 20:42:11.960921,519
2021-09-23 20:42:11.960927,524
2021-09-23 20:42:11.960932,497
2021-09-23 20:42:12.187121,492
2021-09-23 20:42:12.187141,478
2021-09-23 20:42:12.187149,459
2021-09-23 20:42:12.187155,411
2021-09-23 20:42:12.187161,379
2021-09-23 20:42:12.187167,367
2021-09-23 20:42:12.187173,324
2021-09-23 20:42:12.187179,281
2021-09-23 20:42:12.187191,250
2021-09-23 20:42:12.187197,278
2021-09-23 20:42:12.187203,310
2021-09-23 20:42:12.187209,286
2021-09-23 20:42:12.187215,300
2021-09-23 20:42:12.187221,315
2021-09-23 20:42:12.187227,278
2021-09-23 20:42:12.187233,278
2021-09-23 20:42:12.187239,300
2021-09-23 20:42:12.187245,276
2021-09-23 20:42:12.187252,276
2021-09-23 20:42:12.187265,348
2021-09-23 20:42:12.187271,367
2021-09-23 20:42:12.187277,329
2021-09-23 20:42:12.187283,343
2021-09-23 20:42:12.187289,372
2021-09-23 20:42:12.187295,343
2021-09-23 20:42:12.187301,341
2021-09-23 20:42:12.187307,351
2021-09-23 20:42:12.187313,324
2021-09-23 20:42:12.187319,319
2021-09-23 20:42:12.187325,286
2021-09-23 20:42:12.367045,221
2021-09-23 20:42:12.367065,274
2021-09-23 20:42:12.367072,358
2021-09-23 20:42:12.367079,331
2021-09-23 20:42:12.367085,319
2021-09-23 20:42:12.367091,353
2021-09-23 20:42:12.367097,324
2021-09-23 20:42:12.367103,271
2021-09-23 20:42:12.367109,250
2021-09-23 20:42:12.367115,177
2021-09-23 20:42:12.367121,161
2021-09-23 20:42:12.367127,329
2021-09-23 20:42:12.367133,406
2021-09-23 20:42:12.367139,305
2021-09-23 20:42:12.367147,288
2021-09-23 20:42:12.367153,437
2021-09-23 20:42:12.367159,728
2021-09-23 20:42:12.367166,1202
2021-09-23 20:42:12.367172,1459
2021-09-23 20:42:12.367178,630
2021-09-23 20:42:12.367184,-420
2021-09-23 20:42:12.367190,-144
2021-09-23 20:42:12.367196,379
2021-09-23 20:42:12.367202,185
2021-09-23 20:42:12.367209,129
2021-09-23 20:42:12.367215,295
2021-09-23 20:42:12.367221,245
2021-09-23 20:42:12.367227,177
2021-09-23 20:42:12.367233,223
2021-09-23 20:42:12.367239,254
2021-09-23 20:42:12.592268,283
2021-09-23 20:42:12.592289,319
2021-09-23 20:42:12.592296,310
2021-09-23 20:42:12.592303,290
2021-09-23 20:42:12.592309,312
2021-09-23 20:42:12.592315,341
2021-09-23 20:42:12.592321,343
2021-09-23 20:42:12.592327,355
2021-09-23 20:42:12.592334,365
2021-09-23 20:42:12.592340,358
2021-09-23 20:42:12.592347,370
2021-09-23 20:42:12.592354,391
2021-09-23 20:42:12.592361,389
2021-09-23 20:42:12.592366,389
2021-09-23 20:42:12.592373,406
2021-09-23 20:42:12.592379,399
2021-09-23 20:42:12.592385,370
2021-09-23 20:42:12.592391,341
2021-09-23 20:42:12.592396,310
2021-09-23 20:42:12.592403,286
2021-09-23 20:42:12.592409,278
2021-09-23 20:42:12.592415,252
2021-09-23 20:42:12.592421,199
2021-09-23 20:42:12.592427,151
2021-09-23 20:42:12.592438,103
2021-09-23 20:42:12.592445,31
2021-09-23 20:42:12.592451,-7
2021-09-23 20:42:12.592457,14
2021-09-23 20:42:12.592463,64
2021-09-23 20:42:12.592469,96
2021-09-23 20:42:12.860751,103
2021-09-23 20:42:12.860770,146
2021-09-23 20:42:12.860777,211
2021-09-23 20:42:12.860784,221
2021-09-23 20:42:12.860790,158
2021-09-23 20:42:12.860797,98
2021-09-23 20:42:12.860803,127
2021-09-23 20:42:12.860809,168
2021-09-23 20:42:12.860815,122
2021-09-23 20:42:12.860821,67
2021-09-23 20:42:12.860827,88
2021-09-23 20:42:12.860833,103
2021-09-23 20:42:12.860839,117
2021-09-23 20:42:12.860846,226
2021-09-23 20:42:12.860852,300
2021-09-23 20:42:12.860858,252
2021-09-23 20:42:12.860864,218
2021-09-23 20:42:12.860870,238
2021-09-23 20:42:12.860876,233
2021-09-23 20:42:12.860882,230
2021-09-23 20:42:12.860888,245
2021-09-23 20:42:12.860895,257
2021-09-23 20:42:12.860901,247
2021-09-23 20:42:12.860907,218
2021-09-23 20:42:12.860913,202
2021-09-23 20:42:12.860919,206
2021-09-23 20:42:12.860925,214
2021-09-23 20:42:12.860932,216
2021-09-23 20:42:12.860938,223
2021-09-23 20:42:12.860952,221
2021-09-23 20:42:13.042147,250
2021-09-23 20:42:13.042167,473
2021-09-23 20:42:13.042174,971
2021-09-23 20:42:13.042181,1313
2021-09-23 20:42:13.042187,637
2021-09-23 20:42:13.042194,-444
2021-09-23 20:42:13.042200,-360
2021-09-23 20:42:13.042206,197
2021-09-23 20:42:13.042212,103
2021-09-23 20:42:13.042223,2
2021-09-23 20:42:13.042229,151
2021-09-23 20:42:13.042236,146
2021-09-23 20:42:13.042250,101
2021-09-23 20:42:13.042257,158
2021-09-23 20:42:13.042263,180
2021-09-23 20:42:13.042269,153
2021-09-23 20:42:13.042275,156
2021-09-23 20:42:13.042281,185
2021-09-23 20:42:13.042287,204
2021-09-23 20:42:13.042294,211
2021-09-23 20:42:13.042300,211
2021-09-23 20:42:13.042306,218
2021-09-23 20:42:13.042312,189
2021-09-23 20:42:13.042318,141
2021-09-23 20:42:13.042324,197
2021-09-23 20:42:13.042330,300
2021-09-23 20:42:13.042337,290
2021-09-23 20:42:13.042343,259
2021-09-23 20:42:13.042349,283
2021-09-23 20:42:13.042355,283
2021-09-23 20:42:13.312157,264
2021-09-23 20:42:13.312179,264
2021-09-23 20:42:13.312186,259
2021-09-23 20:42:13.312192,226
2021-09-23 20:42:13.312198,163
2021-09-23 20:42:13.312204,98
2021-09-23 20:42:13.312210,7
2021-09-23 20:42:13.312216,-113
2021-09-23 20:42:13.312223,-141
2021-09-23 20:42:13.312229,-96
2021-09-23 20:42:13.312235,-122
2021-09-23 20:42:13.312241,-163
2021-09-23 20:42:13.312247,-144
2021-09-23 20:42:13.312254,-115
2021-09-23 20:42:13.312260,-86
2021-09-23 20:42:13.312266,-28
2021-09-23 20:42:13.312272,55
2021-09-23 20:42:13.312278,146
2021-09-23 20:42:13.312284,194
2021-09-23 20:42:13.312300,185
2021-09-23 20:42:13.312306,151
2021-09-23 20:42:13.312312,141
2021-09-23 20:42:13.312318,182
2021-09-23 20:42:13.312324,209
2021-09-23 20:42:13.312330,182
2021-09-23 20:42:13.312336,153
2021-09-23 20:42:13.312342,132
2021-09-23 20:42:13.312348,105
2021-09-23 20:42:13.312354,108
2021-09-23 20:42:13.312360,101
2021-09-23 20:42:13.492165,84
2021-09-23 20:42:13.492187,125
2021-09-23 20:42:13.492194,158
2021-09-23 20:42:13.492200,139
2021-09-23 20:42:13.492206,144
2021-09-23 20:42:13.492212,163
2021-09-23 20:42:13.492218,151
2021-09-23 20:42:13.492224,137
2021-09-23 20:42:13.492230,125
2021-09-23 20:42:13.492236,91
2021-09-23 20:42:13.492242,62
2021-09-23 20:42:13.492248,48
2021-09-23 20:42:13.492254,64
2021-09-23 20:42:13.492260,165
2021-09-23 20:42:13.492266,343
2021-09-23 20:42:13.492272,680
2021-09-23 20:42:13.492278,1139
2021-09-23 20:42:13.492283,969
2021-09-23 20:42:13.492289,-98
2021-09-23 20:42:13.492295,-584
2021-09-23 20:42:13.492301,-62
2021-09-23 20:42:13.492307,120
2021-09-23 20:42:13.492313,-81
2021-09-23 20:42:13.492319,0
2021-09-23 20:42:13.492325,103
2021-09-23 20:42:13.492331,43
2021-09-23 20:42:13.492337,50
2021-09-23 20:42:13.492343,88
2021-09-23 20:42:13.492349,72
2021-09-23 20:42:13.492355,74
2021-09-23 20:42:13.762157,96
2021-09-23 20:42:13.762179,98
2021-09-23 20:42:13.762186,103
2021-09-23 20:42:13.762193,122
2021-09-23 20:42:13.762199,132
2021-09-23 20:42:13.762205,127
2021-09-23 20:42:13.762212,129
2021-09-23 20:42:13.762218,137
2021-09-23 20:42:13.762224,139
2021-09-23 20:42:13.762230,146
2021-09-23 20:42:13.762236,168
2021-09-23 20:42:13.762242,185
2021-09-23 20:42:13.762249,175
2021-09-23 20:42:13.762255,149
2021-09-23 20:42:13.762261,146
2021-09-23 20:42:13.762267,146
2021-09-23 20:42:13.762273,122
2021-09-23 20:42:13.762279,110
2021-09-23 20:42:13.762285,108
2021-09-23 20:42:13.762291,91
2021-09-23 20:42:13.762297,62
2021-09-23 20:42:13.762303,33
2021-09-23 20:42:13.762310,21
2021-09-23 20:42:13.762316,19
2021-09-23 20:42:13.762322,12
2021-09-23 20:42:13.762328,9
2021-09-23 20:42:13.762334,9
2021-09-23 20:42:13.762344,9
2021-09-23 20:42:13.762350,28
2021-09-23 20:42:13.762356,50
2021-09-23 20:42:14.030761,43
2021-09-23 20:42:14.030781,31
2021-09-23 20:42:14.030788,38
2021-09-23 20:42:14.030794,57
2021-09-23 20:42:14.030800,76
2021-09-23 20:42:14.030807,93
2021-09-23 20:42:14.030813,98
2021-09-23 20:42:14.030819,98
2021-09-23 20:42:14.030825,96
2021-09-23 20:42:14.030831,96
2021-09-23 20:42:14.030837,96
2021-09-23 20:42:14.030843,91
2021-09-23 20:42:14.030849,91
2021-09-23 20:42:14.030855,93
2021-09-23 20:42:14.030861,81
2021-09-23 20:42:14.030867,64
2021-09-23 20:42:14.030873,62
2021-09-23 20:42:14.030879,74
2021-09-23 20:42:14.030894,88
2021-09-23 20:42:14.030901,86
2021-09-23 20:42:14.030907,81
2021-09-23 20:42:14.030913,86
2021-09-23 20:42:14.030919,76
2021-09-23 20:42:14.030925,64
2021-09-23 20:42:14.030931,67
2021-09-23 20:42:14.030937,69
2021-09-23 20:42:14.030943,62
2021-09-23 20:42:14.030949,62
2021-09-23 20:42:14.030955,98
2021-09-23 20:42:14.030964,283
2021-09-23 20:42:14.212147,709
2021-09-23 20:42:14.212169,1183
2021-09-23 20:42:14.212176,921
2021-09-23 20:42:14.212183,-149
2021-09-23 20:42:14.212189,-545
2021-09-23 20:42:14.212195,-50
2021-09-23 20:42:14.212201,62
2021-09-23 20:42:14.212207,-117
2021-09-23 20:42:14.212213,-16
2021-09-23 20:42:14.212219,69
2021-09-23 20:42:14.212226,16
2021-09-23 20:42:14.212232,33
2021-09-23 20:42:14.212238,76
2021-09-23 20:42:14.212244,52
2021-09-23 20:42:14.212250,28
2021-09-23 20:42:14.212257,43
2021-09-23 20:42:14.212263,67
2021-09-23 20:42:14.212269,76
2021-09-23 20:42:14.212275,64
2021-09-23 20:42:14.212281,76
2021-09-23 20:42:14.212288,105
2021-09-23 20:42:14.212294,110
2021-09-23 20:42:14.212300,108
2021-09-23 20:42:14.212306,129
2021-09-23 20:42:14.212312,151
2021-09-23 20:42:14.212318,153
2021-09-23 20:42:14.212324,153
2021-09-23 20:42:14.212331,158
2021-09-23 20:42:14.212337,153
2021-09-23 20:42:14.212343,137
2021-09-23 20:42:14.437183,120
2021-09-23 20:42:14.437211,108
2021-09-23 20:42:14.437219,103
2021-09-23 20:42:14.437225,91
2021-09-23 20:42:14.437232,69
2021-09-23 20:42:14.437238,45
2021-09-23 20:42:14.437244,14
2021-09-23 20:42:14.437250,-12
2021-09-23 20:42:14.437257,-14
2021-09-23 20:42:14.437263,-9
2021-09-23 20:42:14.437269,-7
2021-09-23 20:42:14.437275,-9
2021-09-23 20:42:14.437281,-21
2021-09-23 20:42:14.437287,-31
2021-09-23 20:42:14.437293,-19
2021-09-23 20:42:14.437299,4
2021-09-23 20:42:14.437306,16
2021-09-23 20:42:14.437312,16
2021-09-23 20:42:14.437318,19
2021-09-23 20:42:14.437333,28
2021-09-23 20:42:14.437340,38
2021-09-23 20:42:14.437346,45
2021-09-23 20:42:14.437352,57
2021-09-23 20:42:14.437358,67
2021-09-23 20:42:14.437364,74
2021-09-23 20:42:14.437370,84
2021-09-23 20:42:14.437376,93
2021-09-23 20:42:14.437383,72
2021-09-23 20:42:14.437389,31
2021-09-23 20:42:14.437395,12
2021-09-23 20:42:14.751549,38
2021-09-23 20:42:14.751570,86
2021-09-23 20:42:14.751577,91
2021-09-23 20:42:14.751583,88
2021-09-23 20:42:14.751590,115
2021-09-23 20:42:14.751596,117
2021-09-23 20:42:14.751602,79
2021-09-23 20:42:14.751608,60
2021-09-23 20:42:14.751614,74
2021-09-23 20:42:14.751621,91
2021-09-23 20:42:14.751627,96
2021-09-23 20:42:14.751633,108
2021-09-23 20:42:14.751639,216
2021-09-23 20:42:14.751646,531
2021-09-23 20:42:14.751652,1024
2021-09-23 20:42:14.751658,1151
2021-09-23 20:42:14.751664,254
2021-09-23 20:42:14.751671,-670
2021-09-23 20:42:14.751677,-411
2021-09-23 20:42:14.751683,24
2021-09-23 20:42:14.751689,-108
2021-09-23 20:42:14.751695,-93
2021-09-23 20:42:14.751701,110
2021-09-23 20:42:14.751708,96
2021-09-23 20:42:14.751714,26
2021-09-23 20:42:14.751720,69
2021-09-23 20:42:14.751726,81
2021-09-23 20:42:14.751732,62
2021-09-23 20:42:14.751738,88
2021-09-23 20:42:14.751744,105
2021-09-23 20:42:14.887215,93
2021-09-23 20:42:14.887242,113
2021-09-23 20:42:14.887249,134
2021-09-23 20:42:14.887256,127
2021-09-23 20:42:14.887262,141
2021-09-23 20:42:14.887268,163
2021-09-23 20:42:14.887274,163
2021-09-23 20:42:14.887280,163
2021-09-23 20:42:14.887287,170
2021-09-23 20:42:14.887304,180
2021-09-23 20:42:14.887311,185
2021-09-23 20:42:14.887317,175
2021-09-23 20:42:14.887323,163
2021-09-23 20:42:14.887333,151
2021-09-23 20:42:14.887339,122
2021-09-23 20:42:14.887345,96
2021-09-23 20:42:14.887351,79
2021-09-23 20:42:14.887357,45
2021-09-23 20:42:14.887363,12
2021-09-23 20:42:14.887369,-4
2021-09-23 20:42:14.887375,-36
2021-09-23 20:42:14.887381,-86
2021-09-23 20:42:14.887387,-127
2021-09-23 20:42:14.887393,-144
2021-09-23 20:42:14.887403,-141
2021-09-23 20:42:14.887409,-117
2021-09-23 20:42:14.887416,-79
2021-09-23 20:42:14.887422,-43
2021-09-23 20:42:14.887428,-40
2021-09-23 20:42:14.887434,-50
2021-09-23 20:42:15.112188,-4
2021-09-23 20:42:15.112210,76
2021-09-23 20:42:15.112218,103
2021-09-23 20:42:15.112224,81
2021-09-23 20:42:15.112230,76
2021-09-23 20:42:15.112236,72
2021-09-23 20:42:15.112243,62
2021-09-23 20:42:15.112249,72
2021-09-23 20:42:15.112255,79
2021-09-23 20:42:15.112261,67
2021-09-23 20:42:15.112267,45
2021-09-23 20:42:15.112273,48
2021-09-23 20:42:15.112279,72
2021-09-23 20:42:15.112285,84
2021-09-23 20:42:15.112291,72
2021-09-23 20:42:15.112297,79
2021-09-23 20:42:15.112303,91
2021-09-23 20:42:15.112309,64
2021-09-23 20:42:15.112315,45
2021-09-23 20:42:15.112322,67
2021-09-23 20:42:15.112327,52
2021-09-23 20:42:15.112334,31
2021-09-23 20:42:15.112340,60
2021-09-23 20:42:15.112346,86
2021-09-23 20:42:15.112352,185
2021-09-23 20:42:15.112358,517
2021-09-23 20:42:15.112364,1014
2021-09-23 20:42:15.112370,1038
2021-09-23 20:42:15.112376,96
2021-09-23 20:42:15.112392,-608
2021-09-23 20:42:15.337169,-199
2021-09-23 20:42:15.337191,125
2021-09-23 20:42:15.337198,-72
2021-09-23 20:42:15.337205,-81
2021-09-23 20:42:15.337211,24
2021-09-23 20:42:15.337217,7
2021-09-23 20:42:15.337224,16
2021-09-23 20:42:15.337230,76
2021-09-23 20:42:15.337236,76
2021-09-23 20:42:15.337242,33
2021-09-23 20:42:15.337248,43
2021-09-23 20:42:15.337254,101
2021-09-23 20:42:15.337260,110
2021-09-23 20:42:15.337266,81
2021-09-23 20:42:15.337272,91
2021-09-23 20:42:15.337278,108
2021-09-23 20:42:15.337284,108
2021-09-23 20:42:15.337290,125
2021-09-23 20:42:15.337297,139
2021-09-23 20:42:15.337303,134
2021-09-23 20:42:15.337309,134
2021-09-23 20:42:15.337315,127
2021-09-23 20:42:15.337321,139
2021-09-23 20:42:15.337327,180
2021-09-23 20:42:15.337333,173
2021-09-23 20:42:15.337339,110
2021-09-23 20:42:15.337345,69
2021-09-23 20:42:15.337351,88
2021-09-23 20:42:15.337357,125
2021-09-23 20:42:15.337363,101
2021-09-23 20:42:15.607249,36
2021-09-23 20:42:15.607291,-14
2021-09-23 20:42:15.607299,-55
2021-09-23 20:42:15.607305,-64
2021-09-23 20:42:15.607326,-40
2021-09-23 20:42:15.607332,-69
2021-09-23 20:42:15.607339,-161
2021-09-23 20:42:15.607345,-211
2021-09-23 20:42:15.607351,-223
2021-09-23 20:42:15.607357,-216
2021-09-23 20:42:15.607363,-146
2021-09-23 20:42:15.607369,-38
2021-09-23 20:42:15.607376,14
2021-09-23 20:42:15.607382,62
2021-09-23 20:42:15.607388,108
2021-09-23 20:42:15.607394,101
2021-09-23 20:42:15.607401,86
2021-09-23 20:42:15.607407,69
2021-09-23 20:42:15.607413,33
2021-09-23 20:42:15.607420,62
2021-09-23 20:42:15.607455,120
2021-09-23 20:42:15.607461,88
2021-09-23 20:42:15.607467,24
2021-09-23 20:42:15.607474,9
2021-09-23 20:42:15.607479,28
2021-09-23 20:42:15.607485,50
2021-09-23 20:42:15.607491,43
2021-09-23 20:42:15.607497,33
2021-09-23 20:42:15.607503,48
2021-09-23 20:42:15.607509,52
2021-09-23 20:42:15.832169,50
2021-09-23 20:42:15.832190,67
2021-09-23 20:42:15.832197,79
2021-09-23 20:42:15.832204,55
2021-09-23 20:42:15.832210,28
2021-09-23 20:42:15.832216,24
2021-09-23 20:42:15.832222,-16
2021-09-23 20:42:15.832228,4
2021-09-23 20:42:15.832234,269
2021-09-23 20:42:15.832240,694
2021-09-23 20:42:15.832246,906
2021-09-23 20:42:15.832252,307
2021-09-23 20:42:15.832258,-649
2021-09-23 20:42:15.832264,-651
2021-09-23 20:42:15.832270,-117
2021-09-23 20:42:15.832277,-98
2021-09-23 20:42:15.832283,-182
2021-09-23 20:42:15.832289,64
2021-09-23 20:42:15.832295,197
2021-09-23 20:42:15.832301,72
2021-09-23 20:42:15.832307,55
2021-09-23 20:42:15.832313,117
2021-09-23 20:42:15.832319,72
2021-09-23 20:42:15.832325,52
2021-09-23 20:42:15.832331,93
2021-09-23 20:42:15.832338,50
2021-09-23 20:42:15.832344,21
2021-09-23 20:42:15.832350,110
2021-09-23 20:42:15.832356,146
2021-09-23 20:42:15.832362,88
2021-09-23 20:42:16.100881,101
2021-09-23 20:42:16.100903,141
2021-09-23 20:42:16.100910,127
2021-09-23 20:42:16.100917,122
2021-09-23 20:42:16.100923,117
2021-09-23 20:42:16.100929,125
2021-09-23 20:42:16.100935,168
2021-09-23 20:42:16.100941,165
2021-09-23 20:42:16.100947,120
2021-09-23 20:42:16.100960,115
2021-09-23 20:42:16.100966,117
2021-09-23 20:42:16.100972,67
2021-09-23 20:42:16.100978,9
2021-09-23 20:42:16.100984,-19
2021-09-23 20:42:16.100990,-12
2021-09-23 20:42:16.100996,4
2021-09-23 20:42:16.101002,2
2021-09-23 20:42:16.101008,-9
2021-09-23 20:42:16.101014,-31
2021-09-23 20:42:16.101020,-67
2021-09-23 20:42:16.101026,-81
2021-09-23 20:42:16.101032,-38
2021-09-23 20:42:16.101038,19
2021-09-23 20:42:16.101044,24
2021-09-23 20:42:16.101050,7
2021-09-23 20:42:16.101056,-7
2021-09-23 20:42:16.101062,-52
2021-09-23 20:42:16.101068,-64
2021-09-23 20:42:16.101074,16
2021-09-23 20:42:16.101080,79
2021-09-23 20:42:16.327192,52
2021-09-23 20:42:16.327213,38
2021-09-23 20:42:16.327220,38
2021-09-23 20:42:16.327226,-21
2021-09-23 20:42:16.327232,-28
2021-09-23 20:42:16.327239,57
2021-09-23 20:42:16.327248,52
2021-09-23 20:42:16.327254,2
2021-09-23 20:42:16.327260,40
2021-09-23 20:42:16.327266,67
2021-09-23 20:42:16.327272,19
2021-09-23 20:42:16.327278,14
2021-09-23 20:42:16.327284,52
2021-09-23 20:42:16.327290,50
2021-09-23 20:42:16.327296,9
2021-09-23 20:42:16.327301,14
2021-09-23 20:42:16.327307,60
2021-09-23 20:42:16.327313,38
2021-09-23 20:42:16.327319,4
2021-09-23 20:42:16.327325,113
2021-09-23 20:42:16.327331,420
2021-09-23 20:42:16.327337,853
2021-09-23 20:42:16.327343,933
2021-09-23 20:42:16.327349,153
2021-09-23 20:42:16.327355,-572
2021-09-23 20:42:16.327361,-310
2021-09-23 20:42:16.327367,62
2021-09-23 20:42:16.327373,-12
2021-09-23 20:42:16.327379,-52
2021-09-23 20:42:16.327394,0
2021-09-23 20:42:16.507182,-14
2021-09-23 20:42:16.507204,-7
2021-09-23 20:42:16.507211,43
2021-09-23 20:42:16.507218,43
2021-09-23 20:42:16.507224,21
2021-09-23 20:42:16.507231,36
2021-09-23 20:42:16.507237,60
2021-09-23 20:42:16.507243,69
2021-09-23 20:42:16.507249,57
2021-09-23 20:42:16.507255,48
2021-09-23 20:42:16.507261,91
2021-09-23 20:42:16.507268,122
2021-09-23 20:42:16.507274,103
2021-09-23 20:42:16.507280,120
2021-09-23 20:42:16.507286,149
2021-09-23 20:42:16.507292,144
2021-09-23 20:42:16.507298,137
2021-09-23 20:42:16.507304,149
2021-09-23 20:42:16.507310,168
2021-09-23 20:42:16.507316,141
2021-09-23 20:42:16.507322,93
2021-09-23 20:42:16.507329,120
2021-09-23 20:42:16.507335,137
2021-09-23 20:42:16.507341,62
2021-09-23 20:42:16.507347,-7
2021-09-23 20:42:16.507353,4
2021-09-23 20:42:16.507359,26
2021-09-23 20:42:16.507365,-26
2021-09-23 20:42:16.507371,-21
2021-09-23 20:42:16.507377,36
2021-09-23 20:42:16.732209,-28
2021-09-23 20:42:16.732231,-105
2021-09-23 20:42:16.732238,-93
2021-09-23 20:42:16.732246,-79
2021-09-23 20:42:16.732253,-57
2021-09-23 20:42:16.732259,-2
2021-09-23 20:42:16.732265,0
2021-09-23 20:42:16.732271,-40
2021-09-23 20:42:16.732277,-33
2021-09-23 20:42:16.732283,-14
2021-09-23 20:42:16.732288,0
2021-09-23 20:42:16.732294,24
2021-09-23 20:42:16.732301,26
2021-09-23 20:42:16.732307,19
2021-09-23 20:42:16.732313,-4
2021-09-23 20:42:16.732319,-21
2021-09-23 20:42:16.732325,16
2021-09-23 20:42:16.732332,26
2021-09-23 20:42:16.732338,12
2021-09-23 20:42:16.732344,31
2021-09-23 20:42:16.732350,12
2021-09-23 20:42:16.732356,-26
2021-09-23 20:42:16.732363,19
2021-09-23 20:42:16.732369,55
2021-09-23 20:42:16.732375,12
2021-09-23 20:42:16.732381,-9
2021-09-23 20:42:16.732387,14
2021-09-23 20:42:16.732393,24
2021-09-23 20:42:16.732399,38
2021-09-23 20:42:16.732405,64
2021-09-23 20:42:17.002219,199
2021-09-23 20:42:17.002240,603
2021-09-23 20:42:17.002248,995
2021-09-23 20:42:17.002254,639
2021-09-23 20:42:17.002260,-310
2021-09-23 20:42:17.002266,-548
2021-09-23 20:42:17.002273,-86
2021-09-23 20:42:17.002279,12
2021-09-23 20:42:17.002285,-81
2021-09-23 20:42:17.002291,-14
2021-09-23 20:42:17.002297,-24
2021-09-23 20:42:17.002303,-64
2021-09-23 20:42:17.002309,-16
2021-09-23 20:42:17.002315,-4
2021-09-23 20:42:17.002321,-38
2021-09-23 20:42:17.002327,2
2021-09-23 20:42:17.002333,72
2021-09-23 20:42:17.002339,60
2021-09-23 20:42:17.002345,40
2021-09-23 20:42:17.002354,72
2021-09-23 20:42:17.002360,93
2021-09-23 20:42:17.002366,81
2021-09-23 20:42:17.002372,74
2021-09-23 20:42:17.002378,93
2021-09-23 20:42:17.002384,120
2021-09-23 20:42:17.002390,117
2021-09-23 20:42:17.002396,115
2021-09-23 20:42:17.002402,158
2021-09-23 20:42:17.002408,177
2021-09-23 20:42:17.002414,146
2021-09-23 20:42:17.272207,117
2021-09-23 20:42:17.272227,108
2021-09-23 20:42:17.272235,96
2021-09-23 20:42:17.272241,48
2021-09-23 20:42:17.272247,7
2021-09-23 20:42:17.272253,36
2021-09-23 20:42:17.272259,43
2021-09-23 20:42:17.272266,-16
2021-09-23 20:42:17.272272,-43
2021-09-23 20:42:17.272288,-33
2021-09-23 20:42:17.272294,-57
2021-09-23 20:42:17.272300,-79
2021-09-23 20:42:17.272306,-52
2021-09-23 20:42:17.272313,-48
2021-09-23 20:42:17.272319,-69
2021-09-23 20:42:17.272325,-36
2021-09-23 20:42:17.272331,-2
2021-09-23 20:42:17.272337,-24
2021-09-23 20:42:17.272343,-31
2021-09-23 20:42:17.272349,-4
2021-09-23 20:42:17.272355,12
2021-09-23 20:42:17.272361,-16
2021-09-23 20:42:17.272367,-36
2021-09-23 20:42:17.272373,0
2021-09-23 20:42:17.272379,-7
2021-09-23 20:42:17.272385,-14
2021-09-23 20:42:17.272391,36
2021-09-23 20:42:17.272398,36
2021-09-23 20:42:17.272404,2
2021-09-23 20:42:17.272410,38
2021-09-23 20:42:17.497195,57
2021-09-23 20:42:17.497216,9
2021-09-23 20:42:17.497224,33
2021-09-23 20:42:17.497230,72
2021-09-23 20:42:17.497237,12
2021-09-23 20:42:17.497243,-21
2021-09-23 20:42:17.497249,2
2021-09-23 20:42:17.497255,4
2021-09-23 20:42:17.497261,4
2021-09-23 20:42:17.497267,12
2021-09-23 20:42:17.497273,28
2021-09-23 20:42:17.497279,129
2021-09-23 20:42:17.497285,401
2021-09-23 20:42:17.497291,832
2021-09-23 20:42:17.497297,889
2021-09-23 20:42:17.497303,60
2021-09-23 20:42:17.497309,-625
2021-09-23 20:42:17.497315,-281
2021-09-23 20:42:17.497321,45
2021-09-23 20:42:17.497327,-98
2021-09-23 20:42:17.497333,-64
2021-09-23 20:42:17.497339,62
2021-09-23 20:42:17.497345,19
2021-09-23 20:42:17.497351,-2
2021-09-23 20:42:17.497357,36
2021-09-23 20:42:17.497363,21
2021-09-23 20:42:17.497369,36
2021-09-23 20:42:17.497375,86
2021-09-23 20:42:17.497381,67
2021-09-23 20:42:17.497398,50
2021-09-23 20:42:17.722205,101
2021-09-23 20:42:17.722226,103
2021-09-23 20:42:17.722233,48
2021-09-23 20:42:17.722240,40
2021-09-23 20:42:17.722246,43
2021-09-23 20:42:17.722252,12
2021-09-23 20:42:17.722259,21
2021-09-23 20:42:17.722265,57
2021-09-23 20:42:17.722271,48
2021-09-23 20:42:17.722277,31
2021-09-23 20:42:17.722283,43
2021-09-23 20:42:17.722289,48
2021-09-23 20:42:17.722295,64
2021-09-23 20:42:17.722301,81
2021-09-23 20:42:17.722308,48
2021-09-23 20:42:17.722314,-4
2021-09-23 20:42:17.722320,-4
2021-09-23 20:42:17.722327,28
2021-09-23 20:42:17.722333,28
2021-09-23 20:42:17.722339,16
2021-09-23 20:42:17.722345,14
2021-09-23 20:42:17.722351,2
2021-09-23 20:42:17.722357,-9
2021-09-23 20:42:17.722363,-9
2021-09-23 20:42:17.722369,-38
2021-09-23 20:42:17.722375,-55
2021-09-23 20:42:17.722381,-21
2021-09-23 20:42:17.722387,-36
2021-09-23 20:42:17.722393,-79
2021-09-23 20:42:17.722399,-81
2021-09-23 20:42:17.947215,-117
2021-09-23 20:42:17.947237,-146
2021-09-23 20:42:17.947245,-93
2021-09-23 20:42:17.947251,-50
2021-09-23 20:42:17.947257,-40
2021-09-23 20:42:17.947263,-24
2021-09-23 20:42:17.947270,-28
2021-09-23 20:42:17.947276,-69
2021-09-23 20:42:17.947282,-115
2021-09-23 20:42:17.947288,-108
2021-09-23 20:42:17.947294,-55
2021-09-23 20:42:17.947300,-7
2021-09-23 20:42:17.947306,-12
2021-09-23 20:42:17.947313,-36
2021-09-23 20:42:17.947319,-21
2021-09-23 20:42:17.947340,-36
2021-09-23 20:42:17.947347,-79
2021-09-23 20:42:17.947353,-69
2021-09-23 20:42:17.947359,-31
2021-09-23 20:42:17.947371,-33
2021-09-23 20:42:17.947377,-57
2021-09-23 20:42:17.947384,-43
2021-09-23 20:42:17.947390,50
2021-09-23 20:42:17.947396,317
2021-09-23 20:42:17.947402,759
2021-09-23 20:42:17.947408,966
2021-09-23 20:42:17.947414,336
2021-09-23 20:42:17.947420,-538
2021-09-23 20:42:17.947426,-464
2021-09-23 20:42:17.947432,-24
2021-09-23 20:42:18.170875,-76
2021-09-23 20:42:18.170896,-151
2021-09-23 20:42:18.170903,-33
2021-09-23 20:42:18.170910,-2
2021-09-23 20:42:18.170916,-33
2021-09-23 20:42:18.170922,-31
2021-09-23 20:42:18.170928,0
2021-09-23 20:42:18.170934,21
2021-09-23 20:42:18.170940,-12
2021-09-23 20:42:18.170946,-9
2021-09-23 20:42:18.170952,60
2021-09-23 20:42:18.170958,84
2021-09-23 20:42:18.170964,28
2021-09-23 20:42:18.170970,16
2021-09-23 20:42:18.170976,67
2021-09-23 20:42:18.170982,72
2021-09-23 20:42:18.170988,64
2021-09-23 20:42:18.170994,96
2021-09-23 20:42:18.171000,127
2021-09-23 20:42:18.171006,146
2021-09-23 20:42:18.171012,144
2021-09-23 20:42:18.171018,115
2021-09-23 20:42:18.171023,105
2021-09-23 20:42:18.171029,105
2021-09-23 20:42:18.171035,98
2021-09-23 20:42:18.171041,76
2021-09-23 20:42:18.171047,40
2021-09-23 20:42:18.171053,2
2021-09-23 20:42:18.171059,-12
2021-09-23 20:42:18.171065,-14
2021-09-23 20:42:18.352216,-12
2021-09-23 20:42:18.352236,-24
2021-09-23 20:42:18.352243,-76
2021-09-23 20:42:18.352250,-105
2021-09-23 20:42:18.352256,-67
2021-09-23 20:42:18.352262,-24
2021-09-23 20:42:18.352268,-31
2021-09-23 20:42:18.352275,-48
2021-09-23 20:42:18.352281,-36
2021-09-23 20:42:18.352297,-24
2021-09-23 20:42:18.352304,-14
2021-09-23 20:42:18.352310,-9
2021-09-23 20:42:18.352316,2
2021-09-23 20:42:18.352322,31
2021-09-23 20:42:18.352328,33
2021-09-23 20:42:18.352334,-9
2021-09-23 20:42:18.352340,-24
2021-09-23 20:42:18.352346,0
2021-09-23 20:42:18.352352,2
2021-09-23 20:42:18.352358,-19
2021-09-23 20:42:18.352364,-38
2021-09-23 20:42:18.352370,-33
2021-09-23 20:42:18.352376,7
2021-09-23 20:42:18.352382,21
2021-09-23 20:42:18.352388,-2
2021-09-23 20:42:18.352394,-4
2021-09-23 20:42:18.352400,12
2021-09-23 20:42:18.352406,16
2021-09-23 20:42:18.352412,7
2021-09-23 20:42:18.352418,-12
2021-09-23 20:42:18.577297,-21
2021-09-23 20:42:18.577341,-2
2021-09-23 20:42:18.577349,7
2021-09-23 20:42:18.577355,-9
2021-09-23 20:42:18.577361,14
2021-09-23 20:42:18.577367,180
2021-09-23 20:42:18.577374,548
2021-09-23 20:42:18.577380,978
2021-09-23 20:42:18.577386,817
2021-09-23 20:42:18.577392,-134
2021-09-23 20:42:18.577398,-618
2021-09-23 20:42:18.577404,-197
2021-09-23 20:42:18.577410,0
2021-09-23 20:42:18.577416,-120
2021-09-23 20:42:18.577452,-38
2021-09-23 20:42:18.577458,26
2021-09-23 20:42:18.577464,-33
2021-09-23 20:42:18.577470,-48
2021-09-23 20:42:18.577476,-12
2021-09-23 20:42:18.577483,24
2021-09-23 20:42:18.577489,31
2021-09-23 20:42:18.577495,21
2021-09-23 20:42:18.577501,21
2021-09-23 20:42:18.577507,24
2021-09-23 20:42:18.577513,28
2021-09-23 20:42:18.577519,62
2021-09-23 20:42:18.577525,96
2021-09-23 20:42:18.577531,98
2021-09-23 20:42:18.577537,96
2021-09-23 20:42:18.577544,86
2021-09-23 20:42:18.847228,93
2021-09-23 20:42:18.847249,141
2021-09-23 20:42:18.847257,161
2021-09-23 20:42:18.847263,139
2021-09-23 20:42:18.847269,127
2021-09-23 20:42:18.847275,108
2021-09-23 20:42:18.847281,103
2021-09-23 20:42:18.847287,113
2021-09-23 20:42:18.847293,81
2021-09-23 20:42:18.847299,19
2021-09-23 20:42:18.847305,4
2021-09-23 20:42:18.847311,7
2021-09-23 20:42:18.847317,-19
2021-09-23 20:42:18.847323,-19
2021-09-23 20:42:18.847329,7
2021-09-23 20:42:18.847336,-21
2021-09-23 20:42:18.847342,-79
2021-09-23 20:42:18.847348,-67
2021-09-23 20:42:18.847363,-21
2021-09-23 20:42:18.847369,-19
2021-09-23 20:42:18.847375,19
2021-09-23 20:42:18.847381,101
2021-09-23 20:42:18.847388,88
2021-09-23 20:42:18.847394,24
2021-09-23 20:42:18.847400,72
2021-09-23 20:42:18.847414,153
2021-09-23 20:42:18.847420,125
2021-09-23 20:42:18.847426,62
2021-09-23 20:42:18.847432,69
2021-09-23 20:42:18.847438,86
2021-09-23 20:42:19.027240,81
2021-09-23 20:42:19.027262,91
2021-09-23 20:42:19.027270,101
2021-09-23 20:42:19.027276,76
2021-09-23 20:42:19.027282,45
2021-09-23 20:42:19.027288,40
2021-09-23 20:42:19.027294,67
2021-09-23 20:42:19.027300,74
2021-09-23 20:42:19.027307,72
2021-09-23 20:42:19.027313,96
2021-09-23 20:42:19.027319,98
2021-09-23 20:42:19.027326,60
2021-09-23 20:42:19.027332,60
2021-09-23 20:42:19.027338,93
2021-09-23 20:42:19.027344,72
2021-09-23 20:42:19.027350,26
2021-09-23 20:42:19.027356,40
2021-09-23 20:42:19.027362,81
2021-09-23 20:42:19.027369,88
2021-09-23 20:42:19.027384,151
2021-09-23 20:42:19.027391,423
2021-09-23 20:42:19.027397,858
2021-09-23 20:42:19.027403,1010
2021-09-23 20:42:19.027409,324
2021-09-23 20:42:19.027415,-490
2021-09-23 20:42:19.027421,-319
2021-09-23 20:42:19.027427,76
2021-09-23 20:42:19.027433,-33
2021-09-23 20:42:19.027440,-67
2021-09-23 20:42:19.027446,55
2021-09-23 20:42:19.297233,33
2021-09-23 20:42:19.297254,9
2021-09-23 20:42:19.297261,50
2021-09-23 20:42:19.297268,21
2021-09-23 20:42:19.297274,2
2021-09-23 20:42:19.297280,79
2021-09-23 20:42:19.297286,125
2021-09-23 20:42:19.297292,98
2021-09-23 20:42:19.297298,81
2021-09-23 20:42:19.297307,74
2021-09-23 20:42:19.297313,88
2021-09-23 20:42:19.297319,125
2021-09-23 20:42:19.297325,113
2021-09-23 20:42:19.297331,103
2021-09-23 20:42:19.297337,137
2021-09-23 20:42:19.297344,146
2021-09-23 20:42:19.297350,153
2021-09-23 20:42:19.297356,180
2021-09-23 20:42:19.297362,163
2021-09-23 20:42:19.297368,141
2021-09-23 20:42:19.297374,161
2021-09-23 20:42:19.297380,144
2021-09-23 20:42:19.297386,91
2021-09-23 20:42:19.297391,84
2021-09-23 20:42:19.297397,76
2021-09-23 20:42:19.297403,24
2021-09-23 20:42:19.297409,-2
2021-09-23 20:42:19.297415,-7
2021-09-23 20:42:19.297422,-31
2021-09-23 20:42:19.297428,-26
2021-09-23 20:42:19.566606,-4
2021-09-23 20:42:19.566626,-9
2021-09-23 20:42:19.566633,-26
2021-09-23 20:42:19.566639,-24
2021-09-23 20:42:19.566646,-33
2021-09-23 20:42:19.566652,-55
2021-09-23 20:42:19.566658,-19
2021-09-23 20:42:19.566664,26
2021-09-23 20:42:19.566670,2
2021-09-23 20:42:19.566676,-12
2021-09-23 20:42:19.566683,12
2021-09-23 20:42:19.566689,4
2021-09-23 20:42:19.566694,-2
2021-09-23 20:42:19.566700,14
2021-09-23 20:42:19.566706,9
2021-09-23 20:42:19.566714,12
2021-09-23 20:42:19.566720,14
2021-09-23 20:42:19.566726,2
2021-09-23 20:42:19.566732,2
2021-09-23 20:42:19.566738,7
2021-09-23 20:42:19.566745,21
2021-09-23 20:42:19.566750,36
2021-09-23 20:42:19.566756,19
2021-09-23 20:42:19.566762,0
2021-09-23 20:42:19.566768,16
2021-09-23 20:42:19.566774,24
2021-09-23 20:42:19.566781,-4
2021-09-23 20:42:19.566787,-16
2021-09-23 20:42:19.566793,31
2021-09-23 20:42:19.566798,62
2021-09-23 20:42:19.747248,28
2021-09-23 20:42:19.747270,2
2021-09-23 20:42:19.747278,4
2021-09-23 20:42:19.747284,24
2021-09-23 20:42:19.747290,36
2021-09-23 20:42:19.747296,36
2021-09-23 20:42:19.747302,134
2021-09-23 20:42:19.747308,454
2021-09-23 20:42:19.747315,921
2021-09-23 20:42:19.747321,964
2021-09-23 20:42:19.747327,103
2021-09-23 20:42:19.747333,-618
2021-09-23 20:42:19.747339,-254
2021-09-23 20:42:19.747345,110
2021-09-23 20:42:19.747351,-98
2021-09-23 20:42:19.747357,-117
2021-09-23 20:42:19.747363,50
2021-09-23 20:42:19.747369,9
2021-09-23 20:42:19.747375,-64
2021-09-23 20:42:19.747381,-7
2021-09-23 20:42:19.747388,67
2021-09-23 20:42:19.747394,76
2021-09-23 20:42:19.747399,48
2021-09-23 20:42:19.747405,45
2021-09-23 20:42:19.747420,57
2021-09-23 20:42:19.747427,62
2021-09-23 20:42:19.747433,67
2021-09-23 20:42:19.747440,7
2021-09-23 20:42:19.747446,-84
2021-09-23 20:42:19.747455,-48
2021-09-23 20:42:19.972243,19
2021-09-23 20:42:19.972263,-31
2021-09-23 20:42:19.972271,-40
2021-09-23 20:42:19.972277,45
2021-09-23 20:42:19.972283,64
2021-09-23 20:42:19.972289,21
2021-09-23 20:42:19.972295,24
2021-09-23 20:42:19.972301,52
2021-09-23 20:42:19.972307,7
2021-09-23 20:42:19.972313,-74
2021-09-23 20:42:19.972319,-76
2021-09-23 20:42:19.972325,-31
2021-09-23 20:42:19.972331,-62
2021-09-23 20:42:19.972337,-125
2021-09-23 20:42:19.972343,-129
2021-09-23 20:42:19.972349,-132
2021-09-23 20:42:19.972355,-144
2021-09-23 20:42:19.972361,-93
2021-09-23 20:42:19.972367,-64
2021-09-23 20:42:19.972373,-132
2021-09-23 20:42:19.972380,-156
2021-09-23 20:42:19.972385,-103
2021-09-23 20:42:19.972394,-84
2021-09-23 20:42:19.972400,-122
2021-09-23 20:42:19.972406,-115
2021-09-23 20:42:19.972412,-62
2021-09-23 20:42:19.972418,-52
2021-09-23 20:42:19.972424,-48
2021-09-23 20:42:19.972430,-28
2021-09-23 20:42:19.972436,-64
2021-09-23 20:42:20.241066,-86
2021-09-23 20:42:20.241086,-50
2021-09-23 20:42:20.241093,-2
2021-09-23 20:42:20.241099,96
2021-09-23 20:42:20.241104,177
2021-09-23 20:42:20.241110,151
2021-09-23 20:42:20.241116,96
2021-09-23 20:42:20.241122,81
2021-09-23 20:42:20.241127,84
2021-09-23 20:42:20.241133,40
2021-09-23 20:42:20.241139,-55
2021-09-23 20:42:20.241146,-84
2021-09-23 20:42:20.241152,-14
2021-09-23 20:42:20.241158,50
2021-09-23 20:42:20.241164,67
2021-09-23 20:42:20.241171,93
2021-09-23 20:42:20.241176,144
2021-09-23 20:42:20.241183,158
2021-09-23 20:42:20.241189,98
2021-09-23 20:42:20.241205,62
2021-09-23 20:42:20.241212,93
2021-09-23 20:42:20.241218,86
2021-09-23 20:42:20.241224,48
2021-09-23 20:42:20.241230,72
2021-09-23 20:42:20.241234,103
2021-09-23 20:42:20.241239,96
2021-09-23 20:42:20.241244,149
2021-09-23 20:42:20.241249,360
2021-09-23 20:42:20.241254,735
2021-09-23 20:42:20.241259,1002
2021-09-23 20:42:20.466662,500
2021-09-23 20:42:20.466682,-418
2021-09-23 20:42:20.466689,-420
2021-09-23 20:42:20.466696,55
2021-09-23 20:42:20.466702,-7
2021-09-23 20:42:20.466708,-110
2021-09-23 20:42:20.466714,48
2021-09-23 20:42:20.466720,64
2021-09-23 20:42:20.466726,-2
2021-09-23 20:42:20.466732,38
2021-09-23 20:42:20.466739,57
2021-09-23 20:42:20.466745,19
2021-09-23 20:42:20.466751,31
2021-09-23 20:42:20.466757,55
2021-09-23 20:42:20.466763,43
2021-09-23 20:42:20.466769,38
2021-09-23 20:42:20.466775,40
2021-09-23 20:42:20.466781,52
2021-09-23 20:42:20.466787,86
2021-09-23 20:42:20.466793,84
2021-09-23 20:42:20.466799,88
2021-09-23 20:42:20.466805,117
2021-09-23 20:42:20.466811,105
2021-09-23 20:42:20.466817,105
2021-09-23 20:42:20.466823,120
2021-09-23 20:42:20.466829,105
2021-09-23 20:42:20.466835,110
2021-09-23 20:42:20.466841,132
2021-09-23 20:42:20.466847,108
2021-09-23 20:42:20.466853,86
2021-09-23 20:42:20.692258,91
2021-09-23 20:42:20.692279,64
2021-09-23 20:42:20.692286,7
2021-09-23 20:42:20.692293,-16
2021-09-23 20:42:20.692299,-36
2021-09-23 20:42:20.692306,-84
2021-09-23 20:42:20.692312,-67
2021-09-23 20:42:20.692318,-4
2021-09-23 20:42:20.692324,-4
2021-09-23 20:42:20.692330,-31
2021-09-23 20:42:20.692336,-38
2021-09-23 20:42:20.692342,-57
2021-09-23 20:42:20.692349,-57
2021-09-23 20:42:20.692355,-31
2021-09-23 20:42:20.692361,-45
2021-09-23 20:42:20.692367,-40
2021-09-23 20:42:20.692373,16
2021-09-23 20:42:20.692379,26
2021-09-23 20:42:20.692385,14
2021-09-23 20:42:20.692391,21
2021-09-23 20:42:20.692398,0
2021-09-23 20:42:20.692404,-14
2021-09-23 20:42:20.692410,36
2021-09-23 20:42:20.692416,16
2021-09-23 20:42:20.692422,-91
2021-09-23 20:42:20.692429,-115
2021-09-23 20:42:20.692435,-91
2021-09-23 20:42:20.692441,-108
2021-09-23 20:42:20.692447,-81
2021-09-23 20:42:20.692453,-26
2021-09-23 20:42:20.872231,-28
2021-09-23 20:42:20.872251,-43
2021-09-23 20:42:20.872259,-31
2021-09-23 20:42:20.872265,-40
2021-09-23 20:42:20.872271,-60
2021-09-23 20:42:20.872278,-36
2021-09-23 20:42:20.872284,-16
2021-09-23 20:42:20.872290,-28
2021-09-23 20:42:20.872296,-21
2021-09-23 20:42:20.872302,16
2021-09-23 20:42:20.872308,40
2021-09-23 20:42:20.872314,28
2021-09-23 20:42:20.872320,2
2021-09-23 20:42:20.872326,7
2021-09-23 20:42:20.872332,36
2021-09-23 20:42:20.872338,21
2021-09-23 20:42:20.872344,-2
2021-09-23 20:42:20.872351,21
2021-09-23 20:42:20.872357,48
2021-09-23 20:42:20.872363,98
2021-09-23 20:42:20.872369,343
2021-09-23 20:42:20.872375,808
2021-09-23 20:42:20.872381,1029
2021-09-23 20:42:20.872387,341
2021-09-23 20:42:20.872393,-562
2021-09-23 20:42:20.872399,-428
2021-09-23 20:42:20.872405,33
2021-09-23 20:42:20.872411,-76
2021-09-23 20:42:20.872417,-168
2021-09-23 20:42:20.872430,-21
2021-09-23 20:42:21.187288,-31
2021-09-23 20:42:21.187310,-93
2021-09-23 20:42:21.187317,-36
2021-09-23 20:42:21.187323,-14
2021-09-23 20:42:21.187330,-26
2021-09-23 20:42:21.187336,26
2021-09-23 20:42:21.187342,98
2021-09-23 20:42:21.187348,105
2021-09-23 20:42:21.187354,43
2021-09-23 20:42:21.187360,26
2021-09-23 20:42:21.187366,40
2021-09-23 20:42:21.187372,7
2021-09-23 20:42:21.187378,9
2021-09-23 20:42:21.187384,60
2021-09-23 20:42:21.187390,69
2021-09-23 20:42:21.187396,69
2021-09-23 20:42:21.187403,86
2021-09-23 20:42:21.187409,88
2021-09-23 20:42:21.187415,105
2021-09-23 20:42:21.187421,105
2021-09-23 20:42:21.187427,76
2021-09-23 20:42:21.187433,74
2021-09-23 20:42:21.187439,55
2021-09-23 20:42:21.187445,-7
2021-09-23 20:42:21.187451,-14
2021-09-23 20:42:21.187457,24
2021-09-23 20:42:21.187463,-4
2021-09-23 20:42:21.187469,-64
2021-09-23 20:42:21.187475,-52
2021-09-23 20:42:21.187481,-28
2021-09-23 20:42:21.367282,-33
2021-09-23 20:42:21.367302,-9
2021-09-23 20:42:21.367309,9
2021-09-23 20:42:21.367316,-19
2021-09-23 20:42:21.367322,-24
2021-09-23 20:42:21.367328,7
2021-09-23 20:42:21.367334,16
2021-09-23 20:42:21.367372,12
2021-09-23 20:42:21.367379,19
2021-09-23 20:42:21.367385,21
2021-09-23 20:42:21.367391,16
2021-09-23 20:42:21.367397,16
2021-09-23 20:42:21.367403,26
2021-09-23 20:42:21.367409,48
2021-09-23 20:42:21.367415,62
2021-09-23 20:42:21.367421,45
2021-09-23 20:42:21.367427,40
2021-09-23 20:42:21.367433,55
2021-09-23 20:42:21.367439,74
2021-09-23 20:42:21.367451,72
2021-09-23 20:42:21.367457,14
2021-09-23 20:42:21.367463,-24
2021-09-23 20:42:21.367469,7
2021-09-23 20:42:21.367475,33
2021-09-23 20:42:21.367481,28
2021-09-23 20:42:21.367487,21
2021-09-23 20:42:21.367493,24
2021-09-23 20:42:21.367499,31
2021-09-23 20:42:21.367505,26
2021-09-23 20:42:21.367511,48
2021-09-23 20:42:21.637341,64
2021-09-23 20:42:21.637363,24
2021-09-23 20:42:21.637370,9
2021-09-23 20:42:21.637377,24
2021-09-23 20:42:21.637383,9
2021-09-23 20:42:21.637389,16
2021-09-23 20:42:21.637396,50
2021-09-23 20:42:21.637402,43
2021-09-23 20:42:21.637408,33
2021-09-23 20:42:21.637414,52
2021-09-23 20:42:21.637420,45
2021-09-23 20:42:21.637427,28
2021-09-23 20:42:21.637433,31
2021-09-23 20:42:21.637440,9
2021-09-23 20:42:21.637446,-40
2021-09-23 20:42:21.637452,-4
2021-09-23 20:42:21.637458,86
2021-09-23 20:42:21.637464,214
2021-09-23 20:42:21.637471,574
2021-09-23 20:42:21.637477,1041
2021-09-23 20:42:21.637483,776
2021-09-23 20:42:21.637489,-254
2021-09-23 20:42:21.637495,-601
2021-09-23 20:42:21.637501,-105
2021-09-23 20:42:21.637507,4
2021-09-23 20:42:21.637513,-173
2021-09-23 20:42:21.637548,-76
2021-09-23 20:42:21.637555,4
2021-09-23 20:42:21.637561,-14
2021-09-23 20:42:21.637567,31
2021-09-23 20:42:21.817261,43
2021-09-23 20:42:21.817282,16
2021-09-23 20:42:21.817290,-12
2021-09-23 20:42:21.817296,-52
2021-09-23 20:42:21.817302,14
2021-09-23 20:42:21.817308,127
2021-09-23 20:42:21.817314,86
2021-09-23 20:42:21.817320,-4
2021-09-23 20:42:21.817327,28
2021-09-23 20:42:21.817341,86
2021-09-23 20:42:21.817348,76
2021-09-23 20:42:21.817354,79
2021-09-23 20:42:21.817360,88
2021-09-23 20:42:21.817366,110
2021-09-23 20:42:21.817372,134
2021-09-23 20:42:21.817378,86
2021-09-23 20:42:21.817384,64
2021-09-23 20:42:21.817390,122
2021-09-23 20:42:21.817396,110
2021-09-23 20:42:21.817402,48
2021-09-23 20:42:21.817408,96
2021-09-23 20:42:21.817414,110
2021-09-23 20:42:21.817420,-9
2021-09-23 20:42:21.817426,-48
2021-09-23 20:42:21.817432,9
2021-09-23 20:42:21.817438,-12
2021-09-23 20:42:21.817444,-48
2021-09-23 20:42:21.817450,-36
2021-09-23 20:42:21.817456,-50
2021-09-23 20:42:21.817462,-43
2021-09-23 20:42:22.042277,-9
2021-09-23 20:42:22.042298,-31
2021-09-23 20:42:22.042305,-62
2021-09-23 20:42:22.042312,-38
2021-09-23 20:42:22.042318,-19
2021-09-23 20:42:22.042324,-31
2021-09-23 20:42:22.042330,7
2021-09-23 20:42:22.042336,38
2021-09-23 20:42:22.042342,-4
2021-09-23 20:42:22.042349,7
2021-09-23 20:42:22.042354,48
2021-09-23 20:42:22.042361,-9
2021-09-23 20:42:22.042367,-33
2021-09-23 20:42:22.042373,57
2021-09-23 20:42:22.042379,81
2021-09-23 20:42:22.042385,-2
2021-09-23 20:42:22.042391,-43
2021-09-23 20:42:22.042397,-14
2021-09-23 20:42:22.042403,-2
2021-09-23 20:42:22.042410,-26
2021-09-23 20:42:22.042416,-24
2021-09-23 20:42:22.042422,19
2021-09-23 20:42:22.042428,14
2021-09-23 20:42:22.042434,-7
2021-09-23 20:42:22.042440,21
2021-09-23 20:42:22.042446,4
2021-09-23 20:42:22.042452,-19
2021-09-23 20:42:22.042458,33
2021-09-23 20:42:22.042464,74
2021-09-23 20:42:22.042480,52
2021-09-23 20:42:22.310896,24
2021-09-23 20:42:22.310916,7
2021-09-23 20:42:22.310923,-9
2021-09-23 20:42:22.310929,12
2021-09-23 20:42:22.310936,33
2021-09-23 20:42:22.310942,0
2021-09-23 20:42:22.310947,4
2021-09-23 20:42:22.310953,57
2021-09-23 20:42:22.310959,129
2021-09-23 20:42:22.310965,389
2021-09-23 20:42:22.310971,875
2021-09-23 20:42:22.310977,906
2021-09-23 20:42:22.310983,4
2021-09-23 20:42:22.310989,-613
2021-09-23 20:42:22.310995,-206
2021-09-23 20:42:22.311001,36
2021-09-23 20:42:22.311007,-151
2021-09-23 20:42:22.311013,-81
2021-09-23 20:42:22.311019,19
2021-09-23 20:42:22.311025,-50
2021-09-23 20:42:22.311031,-26
2021-09-23 20:42:22.311037,40
2021-09-23 20:42:22.311043,28
2021-09-23 20:42:22.311049,2
2021-09-23 20:42:22.311055,-2
2021-09-23 20:42:22.311061,33
2021-09-23 20:42:22.311067,91
2021-09-23 20:42:22.311073,76
2021-09-23 20:42:22.311079,50
2021-09-23 20:42:22.311085,91
2021-09-23 20:42:22.492279,113
2021-09-23 20:42:22.492300,96
2021-09-23 20:42:22.492307,115
2021-09-23 20:42:22.492313,139
2021-09-23 20:42:22.492319,134
2021-09-23 20:42:22.492325,117
2021-09-23 20:42:22.492331,122
2021-09-23 20:42:22.492337,139
2021-09-23 20:42:22.492343,134
2021-09-23 20:42:22.492349,113
2021-09-23 20:42:22.492355,72
2021-09-23 20:42:22.492361,38
2021-09-23 20:42:22.492367,52
2021-09-23 20:42:22.492373,48
2021-09-23 20:42:22.492378,-2
2021-09-23 20:42:22.492384,-9
2021-09-23 20:42:22.492390,14
2021-09-23 20:42:22.492396,-26
2021-09-23 20:42:22.492402,-69
2021-09-23 20:42:22.492418,-64
2021-09-23 20:42:22.492428,-79
2021-09-23 20:42:22.492434,-86
2021-09-23 20:42:22.492440,-55
2021-09-23 20:42:22.492446,-28
2021-09-23 20:42:22.492451,-26
2021-09-23 20:42:22.492457,-55
2021-09-23 20:42:22.492463,-57
2021-09-23 20:42:22.492469,-24
2021-09-23 20:42:22.492475,-2
2021-09-23 20:42:22.492481,16
2021-09-23 20:42:22.717295,26
2021-09-23 20:42:22.717317,52
2021-09-23 20:42:22.717324,105
2021-09-23 20:42:22.717331,64
2021-09-23 20:42:22.717337,-26
2021-09-23 20:42:22.717343,-9
2021-09-23 20:42:22.717349,36
2021-09-23 20:42:22.717355,26
2021-09-23 20:42:22.717361,12
2021-09-23 20:42:22.717367,-4
2021-09-23 20:42:22.717373,-26
2021-09-23 20:42:22.717379,4
2021-09-23 20:42:22.717385,45
2021-09-23 20:42:22.717417,26
2021-09-23 20:42:22.717424,-19
2021-09-23 20:42:22.717430,-55
2021-09-23 20:42:22.717436,-64
2021-09-23 20:42:22.717442,-19
2021-09-23 20:42:22.717448,0
2021-09-23 20:42:22.717454,-45
2021-09-23 20:42:22.717460,-16
2021-09-23 20:42:22.717466,55
2021-09-23 20:42:22.717472,24
2021-09-23 20:42:22.717478,-19
2021-09-23 20:42:22.717484,-16
2021-09-23 20:42:22.717490,-55
2021-09-23 20:42:22.717496,-64
2021-09-23 20:42:22.717502,-24
2021-09-23 20:42:22.717508,-28
2021-09-23 20:42:22.717514,-26
2021-09-23 20:42:22.942300,98
2021-09-23 20:42:22.942323,418
2021-09-23 20:42:22.942330,860
2021-09-23 20:42:22.942337,791
2021-09-23 20:42:22.942343,-115
2021-09-23 20:42:22.942349,-637
2021-09-23 20:42:22.942355,-242
2021-09-23 20:42:22.942361,-36
2021-09-23 20:42:22.942367,-165
2021-09-23 20:42:22.942383,-117
2021-09-23 20:42:22.942389,-48
2021-09-23 20:42:22.942395,-67
2021-09-23 20:42:22.942402,-67
2021-09-23 20:42:22.942408,-60
2021-09-23 20:42:22.942414,-64
2021-09-23 20:42:22.942420,-60
2021-09-23 20:42:22.942426,-28
2021-09-23 20:42:22.942432,16
2021-09-23 20:42:22.942438,40
2021-09-23 20:42:22.942444,43
2021-09-23 20:42:22.942450,12
2021-09-23 20:42:22.942485,-14
2021-09-23 20:42:22.942491,26
2021-09-23 20:42:22.942497,45
2021-09-23 20:42:22.942503,19
2021-09-23 20:42:22.942509,105
2021-09-23 20:42:22.942515,192
2021-09-23 20:42:22.942521,127
2021-09-23 20:42:22.942527,62
2021-09-23 20:42:22.942532,72
2021-09-23 20:42:23.212291,88
2021-09-23 20:42:23.212313,101
2021-09-23 20:42:23.212320,48
2021-09-23 20:42:23.212326,14
2021-09-23 20:42:23.212332,79
2021-09-23 20:42:23.212339,52
2021-09-23 20:42:23.212344,-52
2021-09-23 20:42:23.212351,-12
2021-09-23 20:42:23.212357,60
2021-09-23 20:42:23.212363,-19
2021-09-23 20:42:23.212369,-98
2021-09-23 20:42:23.212375,-72
2021-09-23 20:42:23.212381,-28
2021-09-23 20:42:23.212387,-36
2021-09-23 20:42:23.212393,-52
2021-09-23 20:42:23.212399,-50
2021-09-23 20:42:23.212405,-19
2021-09-23 20:42:23.212411,16
2021-09-23 20:42:23.212417,-4
2021-09-23 20:42:23.212423,-36
2021-09-23 20:42:23.212429,-2
2021-09-23 20:42:23.212435,33
2021-09-23 20:42:23.212441,-4
2021-09-23 20:42:23.212447,-19
2021-09-23 20:42:23.212453,52
2021-09-23 20:42:23.212459,43
2021-09-23 20:42:23.212465,-33
2021-09-23 20:42:23.212471,-26
2021-09-23 20:42:23.212477,16
2021-09-23 20:42:23.212493,36
2021-09-23 20:42:23.437225,26
2021-09-23 20:42:23.437246,-4
2021-09-23 20:42:23.437254,-21
2021-09-23 20:42:23.437260,-26
2021-09-23 20:42:23.437266,2
2021-09-23 20:42:23.437272,60
2021-09-23 20:42:23.437278,36
2021-09-23 20:42:23.437284,-12
2021-09-23 20:42:23.437290,14
2021-09-23 20:42:23.437296,12
2021-09-23 20:42:23.437301,-33
2021-09-23 20:42:23.437307,-33
2021-09-23 20:42:23.437313,14
2021-09-23 20:42:23.437319,55
2021-09-23 20:42:23.437325,26
2021-09-23 20:42:23.437331,-19
2021-09-23 20:42:23.437337,16
2021-09-23 20:42:23.437343,40
2021-09-23 20:42:23.437349,-26
2021-09-23 20:42:23.437355,-48
2021-09-23 20:42:23.437361,19
2021-09-23 20:42:23.437367,40
2021-09-23 20:42:23.437373,4
2021-09-23 20:42:23.437379,4
2021-09-23 20:42:23.437385,141
2021-09-23 20:42:23.437391,488
2021-09-23 20:42:23.437397,918
2021-09-23 20:42:23.437403,810
2021-09-23 20:42:23.437409,-74
2021-09-23 20:42:23.437415,-548
2021-09-23 20:42:23.662383,-132
2021-09-23 20:42:23.662404,67
2021-09-23 20:42:23.662411,-132
2021-09-23 20:42:23.662418,-120
2021-09-23 20:42:23.662424,2
2021-09-23 20:42:23.662430,-19
2021-09-23 20:42:23.662436,-36
2021-09-23 20:42:23.662443,19
2021-09-23 20:42:23.662449,26
2021-09-23 20:42:23.662455,19
2021-09-23 20:42:23.662461,21
2021-09-23 20:42:23.662467,-9
2021-09-23 20:42:23.662473,2
2021-09-23 20:42:23.662479,31
2021-09-23 20:42:23.662515,14
2021-09-23 20:42:23.662521,31
2021-09-23 20:42:23.662527,84
2021-09-23 20:42:23.662534,101
2021-09-23 20:42:23.662540,91
2021-09-23 20:42:23.662546,81
2021-09-23 20:42:23.662552,72
2021-09-23 20:42:23.662558,88
2021-09-23 20:42:23.662564,129
2021-09-23 20:42:23.662570,146
2021-09-23 20:42:23.662576,127
2021-09-23 20:42:23.662582,110
2021-09-23 20:42:23.662588,98
2021-09-23 20:42:23.662594,93
2021-09-23 20:42:23.662600,57
2021-09-23 20:42:23.662606,-2
2021-09-23 20:42:23.887163,7
2021-09-23 20:42:23.887185,26
2021-09-23 20:42:23.887193,-38
2021-09-23 20:42:23.887199,-88
2021-09-23 20:42:23.887206,-48
2021-09-23 20:42:23.887212,14
2021-09-23 20:42:23.887218,-2
2021-09-23 20:42:23.887224,-57
2021-09-23 20:42:23.887230,-36
2021-09-23 20:42:23.887237,-12
2021-09-23 20:42:23.887243,-40
2021-09-23 20:42:23.887249,-40
2021-09-23 20:42:23.887255,-28
2021-09-23 20:42:23.887261,-31
2021-09-23 20:42:23.887267,9
2021-09-23 20:42:23.887274,36
2021-09-23 20:42:23.887280,0
2021-09-23 20:42:23.887286,-9
2021-09-23 20:42:23.887292,-12
2021-09-23 20:42:23.887298,-19
2021-09-23 20:42:23.887304,14
2021-09-23 20:42:23.887310,31
2021-09-23 20:42:23.887316,28
2021-09-23 20:42:23.887322,9
2021-09-23 20:42:23.887328,-16
2021-09-23 20:42:23.887334,7
2021-09-23 20:42:23.887340,7
2021-09-23 20:42:23.887347,-9
2021-09-23 20:42:23.887353,0
2021-09-23 20:42:23.887359,-36
2021-09-23 20:42:24.112311,-36
2021-09-23 20:42:24.112332,14
2021-09-23 20:42:24.112340,9
2021-09-23 20:42:24.112346,2
2021-09-23 20:42:24.112352,31
2021-09-23 20:42:24.112358,14
2021-09-23 20:42:24.112364,-4
2021-09-23 20:42:24.112378,19
2021-09-23 20:42:24.112384,4
2021-09-23 20:42:24.112396,-16
2021-09-23 20:42:24.112403,4
2021-09-23 20:42:24.112409,9
2021-09-23 20:42:24.112415,0
2021-09-23 20:42:24.112421,4
2021-09-23 20:42:24.112427,79
2021-09-23 20:42:24.112433,341
2021-09-23 20:42:24.112439,755
2021-09-23 20:42:24.112445,949
2021-09-23 20:42:24.112451,355
2021-09-23 20:42:24.112457,-495
2021-09-23 20:42:24.112463,-411
2021-09-23 20:42:24.112469,33
2021-09-23 20:42:24.112475,-31
2021-09-23 20:42:24.112481,-86
2021-09-23 20:42:24.112487,48
2021-09-23 20:42:24.112493,26
2021-09-23 20:42:24.112499,-38
2021-09-23 20:42:24.112505,-4
2021-09-23 20:42:24.112511,36
2021-09-23 20:42:24.112517,76
2021-09-23 20:42:24.380942,96
2021-09-23 20:42:24.380964,81
2021-09-23 20:42:24.380971,93
2021-09-23 20:42:24.380978,67
2021-09-23 20:42:24.380984,16
2021-09-23 20:42:24.380990,67
2021-09-23 20:42:24.380996,125
2021-09-23 20:42:24.381002,110
2021-09-23 20:42:24.381008,98
2021-09-23 20:42:24.381014,108
2021-09-23 20:42:24.381021,120
2021-09-23 20:42:24.381027,134
2021-09-23 20:42:24.381036,122
2021-09-23 20:42:24.381042,125
2021-09-23 20:42:24.381048,168
2021-09-23 20:42:24.381054,153
2021-09-23 20:42:24.381060,88
2021-09-23 20:42:24.381066,76
2021-09-23 20:42:24.381072,76
2021-09-23 20:42:24.381078,45
2021-09-23 20:42:24.381084,26
2021-09-23 20:42:24.381090,-9
2021-09-23 20:42:24.381096,-33
2021-09-23 20:42:24.381102,-2
2021-09-23 20:42:24.381108,-21
2021-09-23 20:42:24.381114,-60
2021-09-23 20:42:24.381120,-26
2021-09-23 20:42:24.381126,-2
2021-09-23 20:42:24.381132,-36
2021-09-23 20:42:24.381144,-57
2021-09-23 20:42:24.562234,-52
2021-09-23 20:42:24.562253,-52
2021-09-23 20:42:24.562260,-24
2021-09-23 20:42:24.562266,26
2021-09-23 20:42:24.562273,7
2021-09-23 20:42:24.562279,-26
2021-09-23 20:42:24.562285,28
2021-09-23 20:42:24.562290,64
2021-09-23 20:42:24.562296,9
2021-09-23 20:42:24.562302,-38
2021-09-23 20:42:24.562308,-38
2021-09-23 20:42:24.562315,-7
2021-09-23 20:42:24.562320,16
2021-09-23 20:42:24.562326,-14
2021-09-23 20:42:24.562332,-26
2021-09-23 20:42:24.562338,33
2021-09-23 20:42:24.562345,57
2021-09-23 20:42:24.562351,21
2021-09-23 20:42:24.562357,2
2021-09-23 20:42:24.562363,-28
2021-09-23 20:42:24.562369,-38
2021-09-23 20:42:24.562375,0
2021-09-23 20:42:24.562381,-9
2021-09-23 20:42:24.562387,-36
2021-09-23 20:42:24.562393,2
2021-09-23 20:42:24.562399,38
2021-09-23 20:42:24.562405,36
2021-09-23 20:42:24.562411,50
2021-09-23 20:42:24.562417,52
2021-09-23 20:42:24.562423,-14
2021-09-23 20:42:24.832312,-38
2021-09-23 20:42:24.832334,31
2021-09-23 20:42:24.832341,52
2021-09-23 20:42:24.832348,-21
2021-09-23 20:42:24.832354,-64
2021-09-23 20:42:24.832361,-9
2021-09-23 20:42:24.832367,103
2021-09-23 20:42:24.832373,283
2021-09-23 20:42:24.832379,615
2021-09-23 20:42:24.832385,954
2021-09-23 20:42:24.832391,630
2021-09-23 20:42:24.832398,-298
2021-09-23 20:42:24.832404,-536
2021-09-23 20:42:24.832410,-93
2021-09-23 20:42:24.832416,-19
2021-09-23 20:42:24.832422,-149
2021-09-23 20:42:24.832428,-57
2021-09-23 20:42:24.832435,12
2021-09-23 20:42:24.832441,-12
2021-09-23 20:42:24.832456,9
2021-09-23 20:42:24.832462,16
2021-09-23 20:42:24.832469,-14
2021-09-23 20:42:24.832475,7
2021-09-23 20:42:24.832481,33
2021-09-23 20:42:24.832487,28
2021-09-23 20:42:24.832493,48
2021-09-23 20:42:24.832498,57
2021-09-23 20:42:24.832504,43
2021-09-23 20:42:24.832511,60
2021-09-23 20:42:24.832517,110
2021-09-23 20:42:25.057230,110
2021-09-23 20:42:25.057248,69
2021-09-23 20:42:25.057256,81
2021-09-23 20:42:25.057262,125
2021-09-23 20:42:25.057268,115
2021-09-23 20:42:25.057275,69
2021-09-23 20:42:25.057281,76
2021-09-23 20:42:25.057287,86
2021-09-23 20:42:25.057293,69
2021-09-23 20:42:25.057299,74
2021-09-23 20:42:25.057305,81
2021-09-23 20:42:25.057311,45
2021-09-23 20:42:25.057317,-7
2021-09-23 20:42:25.057323,-26
2021-09-23 20:42:25.057329,-24
2021-09-23 20:42:25.057335,-36
2021-09-23 20:42:25.057341,-36
2021-09-23 20:42:25.057347,-31
2021-09-23 20:42:25.057353,-52
2021-09-23 20:42:25.057359,-60
2021-09-23 20:42:25.057365,-43
2021-09-23 20:42:25.057371,-36
2021-09-23 20:42:25.057377,-31
2021-09-23 20:42:25.057382,-43
2021-09-23 20:42:25.057388,-74
2021-09-23 20:42:25.057394,-14
2021-09-23 20:42:25.057400,81
2021-09-23 20:42:25.057406,48
2021-09-23 20:42:25.057412,-2
2021-09-23 20:42:25.057418,28
2021-09-23 20:42:25.327290,21
2021-09-23 20:42:25.327311,-21
2021-09-23 20:42:25.327318,-9
2021-09-23 20:42:25.327325,48
2021-09-23 20:42:25.327331,50
2021-09-23 20:42:25.327337,21
2021-09-23 20:42:25.327343,28
2021-09-23 20:42:25.327349,16
2021-09-23 20:42:25.327355,-21
2021-09-23 20:42:25.327370,-31
2021-09-23 20:42:25.327377,0
2021-09-23 20:42:25.327383,38
2021-09-23 20:42:25.327389,33
2021-09-23 20:42:25.327395,0
2021-09-23 20:42:25.327401,-7
2021-09-23 20:42:25.327407,0
2021-09-23 20:42:25.327412,-2
2021-09-23 20:42:25.327418,-7
2021-09-23 20:42:25.327424,-12
2021-09-23 20:42:25.327430,-43
2021-09-23 20:42:25.327436,-76
2021-09-23 20:42:25.327442,-24
2021-09-23 20:42:25.327448,60
2021-09-23 20:42:25.327454,45
2021-09-23 20:42:25.327460,4
2021-09-23 20:42:25.327466,24
2021-09-23 20:42:25.327472,38
2021-09-23 20:42:25.327478,28
2021-09-23 20:42:25.327484,19
2021-09-23 20:42:25.327490,4
2021-09-23 20:42:25.552264,-4
2021-09-23 20:42:25.552284,7
2021-09-23 20:42:25.552291,36
2021-09-23 20:42:25.552298,72
2021-09-23 20:42:25.552304,214
2021-09-23 20:42:25.552310,543
2021-09-23 20:42:25.552316,925
2021-09-23 20:42:25.552322,793
2021-09-23 20:42:25.552329,-52
2021-09-23 20:42:25.552335,-490
2021-09-23 20:42:25.552341,-134
2021-09-23 20:42:25.552347,7
2021-09-23 20:42:25.552353,-144
2021-09-23 20:42:25.552359,-91
2021-09-23 20:42:25.552365,-24
2021-09-23 20:42:25.552372,-52
2021-09-23 20:42:25.552378,-19
2021-09-23 20:42:25.552384,4
2021-09-23 20:42:25.552390,-40
2021-09-23 20:42:25.552396,-31
2021-09-23 20:42:25.552402,7
2021-09-23 20:42:25.552408,14
2021-09-23 20:42:25.552414,38
2021-09-23 20:42:25.552421,57
2021-09-23 20:42:25.552427,33
2021-09-23 20:42:25.552433,28
2021-09-23 20:42:25.552439,43
2021-09-23 20:42:25.552445,40
2021-09-23 20:42:25.552451,60
2021-09-23 20:42:25.552458,88
2021-09-23 20:42:25.822336,98
2021-09-23 20:42:25.822359,103
2021-09-23 20:42:25.822367,103
2021-09-23 20:42:25.822374,105
2021-09-23 20:42:25.822381,127
2021-09-23 20:42:25.822387,110
2021-09-23 20:42:25.822394,40
2021-09-23 20:42:25.822400,19
2021-09-23 20:42:25.822407,48
2021-09-23 20:42:25.822413,45
2021-09-23 20:42:25.822420,12
2021-09-23 20:42:25.822426,4
2021-09-23 20:42:25.822433,-9
2021-09-23 20:42:25.822439,-48
2021-09-23 20:42:25.822446,-33
2021-09-23 20:42:25.822452,4
2021-09-23 20:42:25.822459,-16
2021-09-23 20:42:25.822465,-84
2021-09-23 20:42:25.822472,-98
2021-09-23 20:42:25.822478,-52
2021-09-23 20:42:25.822485,-38
2021-09-23 20:42:25.822491,-28
2021-09-23 20:42:25.822497,12
2021-09-23 20:42:25.822504,24
2021-09-23 20:42:25.822510,2
2021-09-23 20:42:25.822516,-9
2021-09-23 20:42:25.822523,0
2021-09-23 20:42:25.822529,9
2021-09-23 20:42:25.822536,-4
2021-09-23 20:42:25.822542,-2
2021-09-23 20:42:25.957253,21
2021-09-23 20:42:25.957273,14
2021-09-23 20:42:25.957280,2
2021-09-23 20:42:25.957287,36
2021-09-23 20:42:25.957293,62
2021-09-23 20:42:25.957299,45
2021-09-23 20:42:25.957305,21
2021-09-23 20:42:25.957312,7
2021-09-23 20:42:25.957318,9
2021-09-23 20:42:25.957324,14
2021-09-23 20:42:25.957330,9
2021-09-23 20:42:25.957336,9
2021-09-23 20:42:25.957343,7
2021-09-23 20:42:25.957349,21
2021-09-23 20:42:25.957355,62
2021-09-23 20:42:25.957361,48
2021-09-23 20:42:25.957367,4
2021-09-23 20:42:25.957373,2
2021-09-23 20:42:25.957379,-21
2021-09-23 20:42:25.957394,-93
2021-09-23 20:42:25.957401,-84
2021-09-23 20:42:25.957407,16
2021-09-23 20:42:25.957413,52
2021-09-23 20:42:25.957420,21
2021-09-23 20:42:25.957426,24
2021-09-23 20:42:25.957432,33
2021-09-23 20:42:25.957438,9
2021-09-23 20:42:25.957444,-33
2021-09-23 20:42:25.957450,-43
2021-09-23 20:42:25.957456,7
2021-09-23 20:42:26.226764,40
2021-09-23 20:42:26.226786,26
2021-09-23 20:42:26.226793,108
2021-09-23 20:42:26.226800,404
2021-09-23 20:42:26.226806,798
2021-09-23 20:42:26.226812,853
2021-09-23 20:42:26.226818,149
2021-09-23 20:42:26.226836,-591
2021-09-23 20:42:26.226842,-420
2021-09-23 20:42:26.226848,-45
2021-09-23 20:42:26.226854,-113
2021-09-23 20:42:26.226860,-139
2021-09-23 20:42:26.226866,-33
2021-09-23 20:42:26.226872,-33
2021-09-23 20:42:26.226878,-36
2021-09-23 20:42:26.226884,2
2021-09-23 20:42:26.226890,0
2021-09-23 20:42:26.226896,-16
2021-09-23 20:42:26.226902,-4
2021-09-23 20:42:26.226908,7
2021-09-23 20:42:26.226914,7
2021-09-23 20:42:26.226920,7
2021-09-23 20:42:26.226926,12
2021-09-23 20:42:26.226932,21
2021-09-23 20:42:26.226938,31
2021-09-23 20:42:26.226944,38
2021-09-23 20:42:26.226950,40
2021-09-23 20:42:26.226956,57
2021-09-23 20:42:26.226962,88
2021-09-23 20:42:26.226968,93
2021-09-23 20:42:26.451036,62
2021-09-23 20:42:26.451061,50
2021-09-23 20:42:26.451068,64
2021-09-23 20:42:26.451075,50
2021-09-23 20:42:26.451081,33
2021-09-23 20:42:26.451087,28
2021-09-23 20:42:26.451093,14
2021-09-23 20:42:26.451100,-4
2021-09-23 20:42:26.451106,-16
2021-09-23 20:42:26.451122,-21
2021-09-23 20:42:26.451129,-26
2021-09-23 20:42:26.451136,-40
2021-09-23 20:42:26.451142,-48
2021-09-23 20:42:26.451148,-50
2021-09-23 20:42:26.451154,-76
2021-09-23 20:42:26.451160,-103
2021-09-23 20:42:26.451167,-125
2021-09-23 20:42:26.451173,-125
2021-09-23 20:42:26.451179,-86
2021-09-23 20:42:26.451185,-43
2021-09-23 20:42:26.451191,-26
2021-09-23 20:42:26.451198,-33
2021-09-23 20:42:26.451204,-36
2021-09-23 20:42:26.451210,-38
2021-09-23 20:42:26.451217,-43
2021-09-23 20:42:26.451224,-36
2021-09-23 20:42:26.451230,-19
2021-09-23 20:42:26.451236,-12
2021-09-23 20:42:26.451243,-9
2021-09-23 20:42:26.451249,-16
2021-09-23 20:42:26.632427,-21
2021-09-23 20:42:26.632449,-21
2021-09-23 20:42:26.632457,-38
2021-09-23 20:42:26.632463,-50
2021-09-23 20:42:26.632469,-14
2021-09-23 20:42:26.632476,19
2021-09-23 20:42:26.632482,2
2021-09-23 20:42:26.632488,-7
2021-09-23 20:42:26.632494,4
2021-09-23 20:42:26.632500,-7
2021-09-23 20:42:26.632507,-21
2021-09-23 20:42:26.632513,-7
2021-09-23 20:42:26.632549,12
2021-09-23 20:42:26.632555,26
2021-09-23 20:42:26.632562,31
2021-09-23 20:42:26.632568,9
2021-09-23 20:42:26.632574,-7
2021-09-23 20:42:26.632580,2
2021-09-23 20:42:26.632586,12
2021-09-23 20:42:26.632592,16
2021-09-23 20:42:26.632598,19
2021-09-23 20:42:26.632604,21
2021-09-23 20:42:26.632610,28
2021-09-23 20:42:26.632616,45
2021-09-23 20:42:26.632622,45
2021-09-23 20:42:26.632628,21
2021-09-23 20:42:26.632635,9
2021-09-23 20:42:26.632640,16
2021-09-23 20:42:26.632647,31
2021-09-23 20:42:26.632673,43
2021-09-23 20:42:26.902358,50
2021-09-23 20:42:26.902379,79
2021-09-23 20:42:26.902387,221
2021-09-23 20:42:26.902393,560
2021-09-23 20:42:26.902399,1002
2021-09-23 20:42:26.902405,928
2021-09-23 20:42:26.902411,-14
2021-09-23 20:42:26.902417,-598
2021-09-23 20:42:26.902424,-202
2021-09-23 20:42:26.902430,31
2021-09-23 20:42:26.902435,-132
2021-09-23 20:42:26.902441,-79
2021-09-23 20:42:26.902447,24
2021-09-23 20:42:26.902454,-19
2021-09-23 20:42:26.902460,-26
2021-09-23 20:42:26.902466,7
2021-09-23 20:42:26.902472,4
2021-09-23 20:42:26.902478,7
2021-09-23 20:42:26.902483,33
2021-09-23 20:42:26.902489,43
2021-09-23 20:42:26.902495,36
2021-09-23 20:42:26.902501,43
2021-09-23 20:42:26.902507,60
2021-09-23 20:42:26.902513,69
2021-09-23 20:42:26.902519,81
2021-09-23 20:42:26.902525,93
2021-09-23 20:42:26.902531,91
2021-09-23 20:42:26.902537,88
2021-09-23 20:42:26.902543,91
2021-09-23 20:42:26.902549,81
2021-09-23 20:42:27.127351,86
2021-09-23 20:42:27.127373,101
2021-09-23 20:42:27.127381,84
2021-09-23 20:42:27.127388,52
2021-09-23 20:42:27.127394,43
2021-09-23 20:42:27.127401,40
2021-09-23 20:42:27.127407,36
2021-09-23 20:42:27.127414,28
2021-09-23 20:42:27.127420,-2
2021-09-23 20:42:27.127427,-36
2021-09-23 20:42:27.127433,-33
2021-09-23 20:42:27.127439,-33
2021-09-23 20:42:27.127445,-45
2021-09-23 20:42:27.127451,-50
2021-09-23 20:42:27.127458,-57
2021-09-23 20:42:27.127463,-60
2021-09-23 20:42:27.127469,-33
2021-09-23 20:42:27.127476,-24
2021-09-23 20:42:27.127482,-36
2021-09-23 20:42:27.127495,-26
2021-09-23 20:42:27.127502,-12
2021-09-23 20:42:27.127508,-4
2021-09-23 20:42:27.127514,2
2021-09-23 20:42:27.127520,2
2021-09-23 20:42:27.127526,0
2021-09-23 20:42:27.127532,2
2021-09-23 20:42:27.127538,2
2021-09-23 20:42:27.127544,0
2021-09-23 20:42:27.127550,-7
2021-09-23 20:42:27.127556,-21
2021-09-23 20:42:27.352333,-19
2021-09-23 20:42:27.352353,-2
2021-09-23 20:42:27.352360,-4
2021-09-23 20:42:27.352367,-16
2021-09-23 20:42:27.352373,-14
2021-09-23 20:42:27.352379,-19
2021-09-23 20:42:27.352385,-36
2021-09-23 20:42:27.352391,-57
2021-09-23 20:42:27.352397,-55
2021-09-23 20:42:27.352403,-9
2021-09-23 20:42:27.352409,19
2021-09-23 20:42:27.352416,14
2021-09-23 20:42:27.352422,19
2021-09-23 20:42:27.352428,12
2021-09-23 20:42:27.352433,-16
2021-09-23 20:42:27.352439,-14
2021-09-23 20:42:27.352445,0
2021-09-23 20:42:27.352451,4
2021-09-23 20:42:27.352457,7
2021-09-23 20:42:27.352463,-2
2021-09-23 20:42:27.352469,-16
2021-09-23 20:42:27.352475,-9
2021-09-23 20:42:27.352481,-4
2021-09-23 20:42:27.352487,-4
2021-09-23 20:42:27.352493,26
2021-09-23 20:42:27.352499,48
2021-09-23 20:42:27.352505,38
2021-09-23 20:42:27.352511,24
2021-09-23 20:42:27.352517,9
2021-09-23 20:42:27.352523,0
2021-09-23 20:42:27.622312,0
2021-09-23 20:42:27.622333,12
2021-09-23 20:42:27.622340,24
2021-09-23 20:42:27.622347,55
2021-09-23 20:42:27.622353,218
2021-09-23 20:42:27.622359,625
2021-09-23 20:42:27.622365,1135
2021-09-23 20:42:27.622371,901
2021-09-23 20:42:27.622377,-202
2021-09-23 20:42:27.622383,-615
2021-09-23 20:42:27.622390,-132
2021-09-23 20:42:27.622396,-31
2021-09-23 20:42:27.622402,-206
2021-09-23 20:42:27.622408,-120
2021-09-23 20:42:27.622414,-79
2021-09-23 20:42:27.622420,-180
2021-09-23 20:42:27.622426,-170
2021-09-23 20:42:27.622432,-122
2021-09-23 20:42:27.622439,-153
2021-09-23 20:42:27.622445,-156
2021-09-23 20:42:27.622451,-108
2021-09-23 20:42:27.622457,-84
2021-09-23 20:42:27.622463,-74
2021-09-23 20:42:27.622469,-52
2021-09-23 20:42:27.622475,-33
2021-09-23 20:42:27.622481,-26
2021-09-23 20:42:27.622487,-21
2021-09-23 20:42:27.622493,-2
2021-09-23 20:42:27.622499,14
2021-09-23 20:42:27.622505,19
2021-09-23 20:42:27.802330,26
2021-09-23 20:42:27.802351,36
2021-09-23 20:42:27.802358,40
2021-09-23 20:42:27.802365,48
2021-09-23 20:42:27.802371,45
2021-09-23 20:42:27.802377,24
2021-09-23 20:42:27.802383,-2
2021-09-23 20:42:27.802389,-12
2021-09-23 20:42:27.802395,-16
2021-09-23 20:42:27.802401,-36
2021-09-23 20:42:27.802407,-48
2021-09-23 20:42:27.802413,-50
2021-09-23 20:42:27.802420,-72
2021-09-23 20:42:27.802426,-91
2021-09-23 20:42:27.802432,-91
2021-09-23 20:42:27.802438,-93
2021-09-23 20:42:27.802444,-103
2021-09-23 20:42:27.802450,-105
2021-09-23 20:42:27.802456,-96
2021-09-23 20:42:27.802462,-81
2021-09-23 20:42:27.802468,-72
2021-09-23 20:42:27.802474,-64
2021-09-23 20:42:27.802480,-50
2021-09-23 20:42:27.802486,-36
2021-09-23 20:42:27.802492,-38
2021-09-23 20:42:27.802498,-31
2021-09-23 20:42:27.802504,-16
2021-09-23 20:42:27.802510,-21
2021-09-23 20:42:27.802516,-28
2021-09-23 20:42:27.802528,-24
2021-09-23 20:42:28.027345,-19
2021-09-23 20:42:28.027367,-26
2021-09-23 20:42:28.027375,-38
2021-09-23 20:42:28.027381,-43
2021-09-23 20:42:28.027388,-36
2021-09-23 20:42:28.027394,-33
2021-09-23 20:42:28.027400,-38
2021-09-23 20:42:28.027406,-48
2021-09-23 20:42:28.027413,-48
2021-09-23 20:42:28.027427,-52
2021-09-23 20:42:28.027433,-67
2021-09-23 20:42:28.027440,-57
2021-09-23 20:42:28.027446,-40
2021-09-23 20:42:28.027452,-43
2021-09-23 20:42:28.027458,-40
2021-09-23 20:42:28.027464,-31
2021-09-23 20:42:28.027471,-36
2021-09-23 20:42:28.027522,-55
2021-09-23 20:42:28.027533,-50
2021-09-23 20:42:28.027540,-28
2021-09-23 20:42:28.027546,-16
2021-09-23 20:42:28.027553,-7
2021-09-23 20:42:28.027573,24
2021-09-23 20:42:28.027580,161
2021-09-23 20:42:28.027586,526
2021-09-23 20:42:28.027592,1007
2021-09-23 20:42:28.027598,880
2021-09-23 20:42:28.027604,-175
2021-09-23 20:42:28.027611,-750
2021-09-23 20:42:28.027617,-240
2021-09-23 20:42:28.252348,24
2021-09-23 20:42:28.252369,-151
2021-09-23 20:42:28.252376,-76
2021-09-23 20:42:28.252383,21
2021-09-23 20:42:28.252389,-40
2021-09-23 20:42:28.252395,-40
2021-09-23 20:42:28.252402,2
2021-09-23 20:42:28.252408,-16
2021-09-23 20:42:28.252414,-21
2021-09-23 20:42:28.252420,12
2021-09-23 20:42:28.252426,14
2021-09-23 20:42:28.252432,4
2021-09-23 20:42:28.252438,28
2021-09-23 20:42:28.252444,50
2021-09-23 20:42:28.252450,50
2021-09-23 20:42:28.252456,62
2021-09-23 20:42:28.252462,74
2021-09-23 20:42:28.252467,84
2021-09-23 20:42:28.252473,93
2021-09-23 20:42:28.252488,103
2021-09-23 20:42:28.252495,113
2021-09-23 20:42:28.252501,110
2021-09-23 20:42:28.252507,96
2021-09-23 20:42:28.252513,84
2021-09-23 20:42:28.252519,69
2021-09-23 20:42:28.252525,50
2021-09-23 20:42:28.252531,31
2021-09-23 20:42:28.252537,9
2021-09-23 20:42:28.252543,-12
2021-09-23 20:42:28.252549,-43
2021-09-23 20:42:28.521004,-72
2021-09-23 20:42:28.521025,-79
2021-09-23 20:42:28.521032,-86
2021-09-23 20:42:28.521039,-103
2021-09-23 20:42:28.521045,-115
2021-09-23 20:42:28.521051,-120
2021-09-23 20:42:28.521057,-117
2021-09-23 20:42:28.521063,-105
2021-09-23 20:42:28.521069,-96
2021-09-23 20:42:28.521075,-91
2021-09-23 20:42:28.521081,-81
2021-09-23 20:42:28.521087,-57
2021-09-23 20:42:28.521093,-45
2021-09-23 20:42:28.521099,-45
2021-09-23 20:42:28.521105,-40
2021-09-23 20:42:28.521111,-33
2021-09-23 20:42:28.521118,-31
2021-09-23 20:42:28.521131,-33
2021-09-23 20:42:28.521138,-33
2021-09-23 20:42:28.521144,-28
2021-09-23 20:42:28.521150,-40
2021-09-23 20:42:28.521156,-52
2021-09-23 20:42:28.521163,-45
2021-09-23 20:42:28.521169,-40
2021-09-23 20:42:28.521175,-43
2021-09-23 20:42:28.521181,-33
2021-09-23 20:42:28.521187,-24
2021-09-23 20:42:28.521193,-28
2021-09-23 20:42:28.521199,-33
2021-09-23 20:42:28.521205,-28
2021-09-23 20:42:28.747355,-31
2021-09-23 20:42:28.747377,-31
2021-09-23 20:42:28.747385,-12
2021-09-23 20:42:28.747391,-9
2021-09-23 20:42:28.747398,-19
2021-09-23 20:42:28.747404,-7
2021-09-23 20:42:28.747411,7
2021-09-23 20:42:28.747417,-9
2021-09-23 20:42:28.747423,-28
2021-09-23 20:42:28.747429,-33
2021-09-23 20:42:28.747436,-24
2021-09-23 20:42:28.747442,-12
2021-09-23 20:42:28.747448,4
2021-09-23 20:42:28.747454,33
2021-09-23 20:42:28.747460,182
2021-09-23 20:42:28.747466,562
2021-09-23 20:42:28.747473,1036
2021-09-23 20:42:28.747479,921
2021-09-23 20:42:28.747485,-50
2021-09-23 20:42:28.747491,-596
2021-09-23 20:42:28.747497,-177
2021-09-23 20:42:28.747503,26
2021-09-23 20:42:28.747509,-163
2021-09-23 20:42:28.747515,-120
2021-09-23 20:42:28.747521,-26
2021-09-23 20:42:28.747527,-60
2021-09-23 20:42:28.747533,-50
2021-09-23 20:42:28.747539,-16
2021-09-23 20:42:28.747545,-26
2021-09-23 20:42:28.747552,-26
2021-09-23 20:42:28.972303,0
2021-09-23 20:42:28.972323,9
2021-09-23 20:42:28.972330,9
2021-09-23 20:42:28.972336,19
2021-09-23 20:42:28.972343,26
2021-09-23 20:42:28.972349,33
2021-09-23 20:42:28.972355,52
2021-09-23 20:42:28.972361,72
2021-09-23 20:42:28.972367,76
2021-09-23 20:42:28.972373,62
2021-09-23 20:42:28.972379,60
2021-09-23 20:42:28.972385,86
2021-09-23 20:42:28.972391,98
2021-09-23 20:42:28.972397,86
2021-09-23 20:42:28.972403,72
2021-09-23 20:42:28.972409,57
2021-09-23 20:42:28.972415,50
2021-09-23 20:42:28.972421,38
2021-09-23 20:42:28.972427,24
2021-09-23 20:42:28.972433,12
2021-09-23 20:42:28.972439,-12
2021-09-23 20:42:28.972445,-45
2021-09-23 20:42:28.972451,-74
2021-09-23 20:42:28.972457,-81
2021-09-23 20:42:28.972463,-74
2021-09-23 20:42:28.972469,-79
2021-09-23 20:42:28.972475,-91
2021-09-23 20:42:28.972481,-81
2021-09-23 20:42:28.972487,-60
2021-09-23 20:42:28.972500,-50
2021-09-23 20:42:29.197389,-50
2021-09-23 20:42:29.197410,-45
2021-09-23 20:42:29.197418,-38
2021-09-23 20:42:29.197425,-40
2021-09-23 20:42:29.197431,-31
2021-09-23 20:42:29.197437,-16
2021-09-23 20:42:29.197443,-16
2021-09-23 20:42:29.197449,-24
2021-09-23 20:42:29.197455,-21
2021-09-23 20:42:29.197462,-21
2021-09-23 20:42:29.197468,-33
2021-09-23 20:42:29.197474,-33
2021-09-23 20:42:29.197480,-24
2021-09-23 20:42:29.197486,-19
2021-09-23 20:42:29.197492,-28
2021-09-23 20:42:29.197498,-43
2021-09-23 20:42:29.197504,-50
2021-09-23 20:42:29.197510,-43
2021-09-23 20:42:29.197516,-38
2021-09-23 20:42:29.197522,-26
2021-09-23 20:42:29.197529,-2
2021-09-23 20:42:29.197534,-4
2021-09-23 20:42:29.197540,-19
2021-09-23 20:42:29.197546,-4
2021-09-23 20:42:29.197552,-7
2021-09-23 20:42:29.197558,-48
2021-09-23 20:42:29.197564,-50
2021-09-23 20:42:29.197570,-21
2021-09-23 20:42:29.197576,-19
2021-09-23 20:42:29.197582,-19
2021-09-23 20:42:29.422291,12
2021-09-23 20:42:29.422311,108
2021-09-23 20:42:29.422319,382
2021-09-23 20:42:29.422325,851
2021-09-23 20:42:29.422332,1082
2021-09-23 20:42:29.422338,360
2021-09-23 20:42:29.422344,-644
2021-09-23 20:42:29.422350,-538
2021-09-23 20:42:29.422356,-16
2021-09-23 20:42:29.422362,-91
2021-09-23 20:42:29.422368,-165
2021-09-23 20:42:29.422375,-2
2021-09-23 20:42:29.422381,7
2021-09-23 20:42:29.422387,-55
2021-09-23 20:42:29.422393,-33
2021-09-23 20:42:29.422399,-16
2021-09-23 20:42:29.422405,-16
2021-09-23 20:42:29.422411,7
2021-09-23 20:42:29.422417,9
2021-09-23 20:42:29.422430,-12
2021-09-23 20:42:29.422437,4
2021-09-23 20:42:29.422446,36
2021-09-23 20:42:29.422452,57
2021-09-23 20:42:29.422458,74
2021-09-23 20:42:29.422464,72
2021-09-23 20:42:29.422470,69
2021-09-23 20:42:29.422476,84
2021-09-23 20:42:29.422482,93
2021-09-23 20:42:29.422488,110
2021-09-23 20:42:29.422494,137
2021-09-23 20:42:29.647542,139
2021-09-23 20:42:29.647562,120
2021-09-23 20:42:29.647569,115
2021-09-23 20:42:29.647575,101
2021-09-23 20:42:29.647581,62
2021-09-23 20:42:29.647586,19
2021-09-23 20:42:29.647592,2
2021-09-23 20:42:29.647598,2
2021-09-23 20:42:29.647604,-14
2021-09-23 20:42:29.647610,-26
2021-09-23 20:42:29.647616,-12
2021-09-23 20:42:29.647622,-24
2021-09-23 20:42:29.647628,-72
2021-09-23 20:42:29.647634,-91
2021-09-23 20:42:29.647640,-69
2021-09-23 20:42:29.647646,-67
2021-09-23 20:42:29.647652,-72
2021-09-23 20:42:29.647658,-60
2021-09-23 20:42:29.647664,-74
2021-09-23 20:42:29.647670,-101
2021-09-23 20:42:29.647676,-81
2021-09-23 20:42:29.647682,-55
2021-09-23 20:42:29.647688,-40
2021-09-23 20:42:29.647694,-16
2021-09-23 20:42:29.647700,-19
2021-09-23 20:42:29.647706,-48
2021-09-23 20:42:29.647712,-31
2021-09-23 20:42:29.647718,4
2021-09-23 20:42:29.647724,21
2021-09-23 20:42:29.647730,26
2021-09-23 20:42:29.872930,-16
2021-09-23 20:42:29.872949,-64
2021-09-23 20:42:29.872957,-28
2021-09-23 20:42:29.872963,-2
2021-09-23 20:42:29.872970,-26
2021-09-23 20:42:29.872976,7
2021-09-23 20:42:29.872982,62
2021-09-23 20:42:29.872988,52
2021-09-23 20:42:29.872993,21
2021-09-23 20:42:29.873000,28
2021-09-23 20:42:29.873006,26
2021-09-23 20:42:29.873012,-16
2021-09-23 20:42:29.873018,-36
2021-09-23 20:42:29.873024,26
2021-09-23 20:42:29.873029,76
2021-09-23 20:42:29.873035,88
2021-09-23 20:42:29.873041,266
2021-09-23 20:42:29.873047,668
2021-09-23 20:42:29.873053,1014
2021-09-23 20:42:29.873059,673
2021-09-23 20:42:29.873064,-312
2021-09-23 20:42:29.873070,-596
2021-09-23 20:42:29.873075,-76
2021-09-23 20:42:29.873080,40
2021-09-23 20:42:29.873085,-110
2021-09-23 20:42:29.873091,-12
2021-09-23 20:42:29.873097,33
2021-09-23 20:42:29.873103,-45
2021-09-23 20:42:29.873108,16
2021-09-23 20:42:29.873114,86
2021-09-23 20:42:30.097454,26
2021-09-23 20:42:30.097474,43
2021-09-23 20:42:30.097482,101
2021-09-23 20:42:30.097488,14
2021-09-23 20:42:30.097495,-16
2021-09-23 20:42:30.097501,84
2021-09-23 20:42:30.097507,108
2021-09-23 20:42:30.097513,88
2021-09-23 20:42:30.097519,127
2021-09-23 20:42:30.097525,110
2021-09-23 20:42:30.097531,67
2021-09-23 20:42:30.097537,122
2021-09-23 20:42:30.097543,156
2021-09-23 20:42:30.097549,127
2021-09-23 20:42:30.097555,117
2021-09-23 20:42:30.097562,125
2021-09-23 20:42:30.097568,182
2021-09-23 20:42:30.097574,192
2021-09-23 20:42:30.097580,60
2021-09-23 20:42:30.097586,12
2021-09-23 20:42:30.097592,60
2021-09-23 20:42:30.097598,7
2021-09-23 20:42:30.097604,-40
2021-09-23 20:42:30.097610,-19
2021-09-23 20:42:30.097616,-64
2021-09-23 20:42:30.097622,-151
2021-09-23 20:42:30.097628,-134
2021-09-23 20:42:30.097634,-64
2021-09-23 20:42:30.097640,-81
2021-09-23 20:42:30.097654,-125
2021-09-23 20:42:30.322373,-79
2021-09-23 20:42:30.322395,-26
2021-09-23 20:42:30.322402,-74
2021-09-23 20:42:30.322409,-98
2021-09-23 20:42:30.322415,-28
2021-09-23 20:42:30.322421,12
2021-09-23 20:42:30.322427,16
2021-09-23 20:42:30.322433,7
2021-09-23 20:42:30.322440,-9
2021-09-23 20:42:30.322446,7
2021-09-23 20:42:30.322452,33
2021-09-23 20:42:30.322458,57
2021-09-23 20:42:30.322464,31
2021-09-23 20:42:30.322470,-81
2021-09-23 20:42:30.322476,-88
2021-09-23 20:42:30.322482,40
2021-09-23 20:42:30.322488,57
2021-09-23 20:42:30.322494,-28
2021-09-23 20:42:30.322501,-4
2021-09-23 20:42:30.322507,26
2021-09-23 20:42:30.322513,-16
2021-09-23 20:42:30.322519,-31
2021-09-23 20:42:30.322525,-33
2021-09-23 20:42:30.322531,-19
2021-09-23 20:42:30.322537,38
2021-09-23 20:42:30.322543,48
2021-09-23 20:42:30.322549,24
2021-09-23 20:42:30.322563,218
2021-09-23 20:42:30.322578,694
2021-09-23 20:42:30.322584,1036
2021-09-23 20:42:30.636163,495
2021-09-23 20:42:30.636185,-565
2021-09-23 20:42:30.636192,-649
2021-09-23 20:42:30.636198,-81
2021-09-23 20:42:30.636205,-50
2021-09-23 20:42:30.636211,-146
2021-09-23 20:42:30.636217,-12
2021-09-23 20:42:30.636223,21
2021-09-23 20:42:30.636229,-19
2021-09-23 20:42:30.636235,-16
2021-09-23 20:42:30.636241,-14
2021-09-23 20:42:30.636247,7
2021-09-23 20:42:30.636254,40
2021-09-23 20:42:30.636260,45
2021-09-23 20:42:30.636266,55
2021-09-23 20:42:30.636272,52
2021-09-23 20:42:30.636278,36
2021-09-23 20:42:30.636284,86
2021-09-23 20:42:30.636290,127
2021-09-23 20:42:30.636296,98
2021-09-23 20:42:30.636303,105
2021-09-23 20:42:30.636309,144
2021-09-23 20:42:30.636315,156
2021-09-23 20:42:30.636321,168
2021-09-23 20:42:30.636327,185
2021-09-23 20:42:30.636333,189
2021-09-23 20:42:30.636339,194
2021-09-23 20:42:30.636346,168
2021-09-23 20:42:30.636352,132
2021-09-23 20:42:30.636358,98
2021-09-23 20:42:30.862399,40
2021-09-23 20:42:30.862420,9
2021-09-23 20:42:30.862427,-2
2021-09-23 20:42:30.862434,-62
2021-09-23 20:42:30.862440,-108
2021-09-23 20:42:30.862447,-96
2021-09-23 20:42:30.862453,-105
2021-09-23 20:42:30.862459,-144
2021-09-23 20:42:30.862465,-132
2021-09-23 20:42:30.862471,-120
2021-09-23 20:42:30.862477,-139
2021-09-23 20:42:30.862483,-113
2021-09-23 20:42:30.862489,-76
2021-09-23 20:42:30.862495,-79
2021-09-23 20:42:30.862501,-57
2021-09-23 20:42:30.862508,-24
2021-09-23 20:42:30.862514,-21
2021-09-23 20:42:30.862520,-33
2021-09-23 20:42:30.862526,-21
2021-09-23 20:42:30.862532,4
2021-09-23 20:42:30.862538,-9
2021-09-23 20:42:30.862544,-48
2021-09-23 20:42:30.862550,-19
2021-09-23 20:42:30.862556,9
2021-09-23 20:42:30.862562,-40
2021-09-23 20:42:30.862569,-52
2021-09-23 20:42:30.862575,-2
2021-09-23 20:42:30.862581,-12
2021-09-23 20:42:30.862587,-31
2021-09-23 20:42:30.862593,16
2021-09-23 20:42:31.042418,28
2021-09-23 20:42:31.042440,-14
2021-09-23 20:42:31.042448,-19
2021-09-23 20:42:31.042454,-19
2021-09-23 20:42:31.042460,-40
2021-09-23 20:42:31.042467,-9
2021-09-23 20:42:31.042473,28
2021-09-23 20:42:31.042479,12
2021-09-23 20:42:31.042484,28
2021-09-23 20:42:31.042498,182
2021-09-23 20:42:31.042504,529
2021-09-23 20:42:31.042511,1048
2021-09-23 20:42:31.042517,1185
2021-09-23 20:42:31.042523,230
2021-09-23 20:42:31.042529,-743
2021-09-23 20:42:31.042535,-413
2021-09-23 20:42:31.042541,69
2021-09-23 20:42:31.042547,-93
2021-09-23 20:42:31.042553,-134
2021-09-23 20:42:31.042559,0
2021-09-23 20:42:31.042565,-40
2021-09-23 20:42:31.042571,-81
2021-09-23 20:42:31.042577,2
2021-09-23 20:42:31.042582,48
2021-09-23 20:42:31.042588,19
2021-09-23 20:42:31.042594,31
2021-09-23 20:42:31.042600,60
2021-09-23 20:42:31.042606,24
2021-09-23 20:42:31.042613,0
2021-09-23 20:42:31.042619,60
2021-09-23 20:42:31.311763,91
2021-09-23 20:42:31.311784,64
2021-09-23 20:42:31.311792,96
2021-09-23 20:42:31.311798,132
2021-09-23 20:42:31.311804,120
2021-09-23 20:42:31.311810,134
2021-09-23 20:42:31.311816,177
2021-09-23 20:42:31.311822,175
2021-09-23 20:42:31.311828,156
2021-09-23 20:42:31.311834,146
2021-09-23 20:42:31.311841,129
2021-09-23 20:42:31.311847,125
2021-09-23 20:42:31.311853,134
2021-09-23 20:42:31.311859,96
2021-09-23 20:42:31.311865,2
2021-09-23 20:42:31.311871,-43
2021-09-23 20:42:31.311877,-4
2021-09-23 20:42:31.311883,-9
2021-09-23 20:42:31.311890,-76
2021-09-23 20:42:31.311896,-105
2021-09-23 20:42:31.311902,-86
2021-09-23 20:42:31.311908,-69
2021-09-23 20:42:31.311914,-57
2021-09-23 20:42:31.311920,-31
2021-09-23 20:42:31.311926,7
2021-09-23 20:42:31.311932,-28
2021-09-23 20:42:31.311938,-96
2021-09-23 20:42:31.311944,-48
2021-09-23 20:42:31.311950,19
2021-09-23 20:42:31.311963,0
2021-09-23 20:42:31.537410,-12
2021-09-23 20:42:31.537431,14
2021-09-23 20:42:31.537439,19
2021-09-23 20:42:31.537446,21
2021-09-23 20:42:31.537453,45
2021-09-23 20:42:31.537460,12
2021-09-23 20:42:31.537467,-55
2021-09-23 20:42:31.537473,-36
2021-09-23 20:42:31.537480,21
2021-09-23 20:42:31.537486,16
2021-09-23 20:42:31.537492,9
2021-09-23 20:42:31.537499,64
2021-09-23 20:42:31.537505,62
2021-09-23 20:42:31.537511,-24
2021-09-23 20:42:31.537518,-19
2021-09-23 20:42:31.537524,55
2021-09-23 20:42:31.537531,52
2021-09-23 20:42:31.537538,-12
2021-09-23 20:42:31.537544,-19
2021-09-23 20:42:31.537550,21
2021-09-23 20:42:31.537557,-9
2021-09-23 20:42:31.537563,-26
2021-09-23 20:42:31.537569,185
2021-09-23 20:42:31.537576,649
2021-09-23 20:42:31.537583,1156
2021-09-23 20:42:31.537589,1012
2021-09-23 20:42:31.537595,-86
2021-09-23 20:42:31.537602,-711
2021-09-23 20:42:31.537609,-233
2021-09-23 20:42:31.537615,21
2021-09-23 20:42:31.717397,-144
2021-09-23 20:42:31.717418,-62
2021-09-23 20:42:31.717426,14
2021-09-23 20:42:31.717432,-64
2021-09-23 20:42:31.717438,-21
2021-09-23 20:42:31.717444,55
2021-09-23 20:42:31.717451,48
2021-09-23 20:42:31.717457,43
2021-09-23 20:42:31.717463,7
2021-09-23 20:42:31.717469,-14
2021-09-23 20:42:31.717475,60
2021-09-23 20:42:31.717481,93
2021-09-23 20:42:31.717487,36
2021-09-23 20:42:31.717493,36
2021-09-23 20:42:31.717499,98
2021-09-23 20:42:31.717505,113
2021-09-23 20:42:31.717511,129
2021-09-23 20:42:31.717517,163
2021-09-23 20:42:31.717523,129
2021-09-23 20:42:31.717529,132
2021-09-23 20:42:31.717536,187
2021-09-23 20:42:31.717542,211
2021-09-23 20:42:31.717548,202
2021-09-23 20:42:31.717554,151
2021-09-23 20:42:31.717560,98
2021-09-23 20:42:31.717566,64
2021-09-23 20:42:31.717572,43
2021-09-23 20:42:31.717578,31
2021-09-23 20:42:31.717584,-24
2021-09-23 20:42:31.717590,-88
2021-09-23 20:42:31.942411,-86
2021-09-23 20:42:31.942432,-69
2021-09-23 20:42:31.942440,-91
2021-09-23 20:42:31.942446,-96
2021-09-23 20:42:31.942452,-81
2021-09-23 20:42:31.942458,-98
2021-09-23 20:42:31.942464,-86
2021-09-23 20:42:31.942470,-60
2021-09-23 20:42:31.942476,-93
2021-09-23 20:42:31.942483,-110
2021-09-23 20:42:31.942489,-67
2021-09-23 20:42:31.942504,-48
2021-09-23 20:42:31.942510,-48
2021-09-23 20:42:31.942516,-2
2021-09-23 20:42:31.942522,19
2021-09-23 20:42:31.942528,-21
2021-09-23 20:42:31.942534,-26
2021-09-23 20:42:31.942540,14
2021-09-23 20:42:31.942546,21
2021-09-23 20:42:31.942552,-9
2021-09-23 20:42:31.942558,-19
2021-09-23 20:42:31.942564,0
2021-09-23 20:42:31.942570,7
2021-09-23 20:42:31.942576,24
2021-09-23 20:42:31.942581,19
2021-09-23 20:42:31.942587,-28
2021-09-23 20:42:31.942593,-28
2021-09-23 20:42:31.942599,16
2021-09-23 20:42:31.942605,16
2021-09-23 20:42:31.942611,24
2021-09-23 20:42:32.167400,43
2021-09-23 20:42:32.167421,19
2021-09-23 20:42:32.167428,9
2021-09-23 20:42:32.167435,9
2021-09-23 20:42:32.167441,-14
2021-09-23 20:42:32.167448,0
2021-09-23 20:42:32.167454,48
2021-09-23 20:42:32.167460,55
2021-09-23 20:42:32.167466,110
2021-09-23 20:42:32.167480,437
2021-09-23 20:42:32.167487,1050
2021-09-23 20:42:32.167493,1368
2021-09-23 20:42:32.167499,548
2021-09-23 20:42:32.167505,-601
2021-09-23 20:42:32.167511,-514
2021-09-23 20:42:32.167517,4
2021-09-23 20:42:32.167524,-103
2021-09-23 20:42:32.167530,-187
2021-09-23 20:42:32.167536,-28
2021-09-23 20:42:32.167542,-14
2021-09-23 20:42:32.167548,-24
2021-09-23 20:42:32.167554,36
2021-09-23 20:42:32.167560,19
2021-09-23 20:42:32.167566,-31
2021-09-23 20:42:32.167572,-19
2021-09-23 20:42:32.167578,45
2021-09-23 20:42:32.167584,74
2021-09-23 20:42:32.167589,48
2021-09-23 20:42:32.167595,38
2021-09-23 20:42:32.167601,40
2021-09-23 20:42:32.437434,50
2021-09-23 20:42:32.437456,88
2021-09-23 20:42:32.437463,115
2021-09-23 20:42:32.437470,105
2021-09-23 20:42:32.437476,110
2021-09-23 20:42:32.437482,144
2021-09-23 20:42:32.437488,168
2021-09-23 20:42:32.437494,194
2021-09-23 20:42:32.437500,209
2021-09-23 20:42:32.437506,161
2021-09-23 20:42:32.437512,132
2021-09-23 20:42:32.437518,149
2021-09-23 20:42:32.437524,96
2021-09-23 20:42:32.437531,24
2021-09-23 20:42:32.437537,0
2021-09-23 20:42:32.437543,-43
2021-09-23 20:42:32.437549,-84
2021-09-23 20:42:32.437556,-67
2021-09-23 20:42:32.437562,-57
2021-09-23 20:42:32.437568,-64
2021-09-23 20:42:32.437574,-55
2021-09-23 20:42:32.437580,-62
2021-09-23 20:42:32.437586,-76
2021-09-23 20:42:32.437592,-69
2021-09-23 20:42:32.437598,-76
2021-09-23 20:42:32.437604,-84
2021-09-23 20:42:32.437610,-57
2021-09-23 20:42:32.437616,-38
2021-09-23 20:42:32.437623,-40
2021-09-23 20:42:32.437634,-31
2021-09-23 20:42:32.705927,-14
2021-09-23 20:42:32.705949,-9
2021-09-23 20:42:32.705956,-28
2021-09-23 20:42:32.705963,-28
2021-09-23 20:42:32.705969,-16
2021-09-23 20:42:32.705975,-24
2021-09-23 20:42:32.705982,-9
2021-09-23 20:42:32.705988,4
2021-09-23 20:42:32.705994,-2
2021-09-23 20:42:32.706000,0
2021-09-23 20:42:32.706006,12
2021-09-23 20:42:32.706012,2
2021-09-23 20:42:32.706018,-14
2021-09-23 20:42:32.706024,-9
2021-09-23 20:42:32.706031,-12
2021-09-23 20:42:32.706037,-26
2021-09-23 20:42:32.706043,-9
2021-09-23 20:42:32.706049,-4
2021-09-23 20:42:32.706055,-19
2021-09-23 20:42:32.706061,9
2021-09-23 20:42:32.706067,24
2021-09-23 20:42:32.706073,0
2021-09-23 20:42:32.706079,26
2021-09-23 20:42:32.706085,60
2021-09-23 20:42:32.706092,24
2021-09-23 20:42:32.706098,12
2021-09-23 20:42:32.706104,36
2021-09-23 20:42:32.706110,19
2021-09-23 20:42:32.706116,9
2021-09-23 20:42:32.706122,43
2021-09-23 20:42:32.932442,64
2021-09-23 20:42:32.932463,38
2021-09-23 20:42:32.932471,24
2021-09-23 20:42:32.932477,146
2021-09-23 20:42:32.932483,509
2021-09-23 20:42:32.932489,1156
2021-09-23 20:42:32.932496,1548
2021-09-23 20:42:32.932502,714
2021-09-23 20:42:32.932508,-543
2021-09-23 20:42:32.932514,-500
2021-09-23 20:42:32.932520,38
2021-09-23 20:42:32.932525,-62
2021-09-23 20:42:32.932532,-137
2021-09-23 20:42:32.932538,-24
2021-09-23 20:42:32.932544,-91
2021-09-23 20:42:32.932550,-117
2021-09-23 20:42:32.932556,-9
2021-09-23 20:42:32.932562,7
2021-09-23 20:42:32.932568,-36
2021-09-23 20:42:32.932574,-16
2021-09-23 20:42:32.932580,26
2021-09-23 20:42:32.932586,31
2021-09-23 20:42:32.932592,48
2021-09-23 20:42:32.932598,93
2021-09-23 20:42:32.932604,79
2021-09-23 20:42:32.932610,28
2021-09-23 20:42:32.932616,79
2021-09-23 20:42:32.932622,141
2021-09-23 20:42:32.932628,108
2021-09-23 20:42:32.932634,108
2021-09-23 20:42:33.112421,158
2021-09-23 20:42:33.112442,165
2021-09-23 20:42:33.112450,158
2021-09-23 20:42:33.112478,168
2021-09-23 20:42:33.112485,170
2021-09-23 20:42:33.112491,170
2021-09-23 20:42:33.112497,122
2021-09-23 20:42:33.112503,43
2021-09-23 20:42:33.112509,45
2021-09-23 20:42:33.112515,62
2021-09-23 20:42:33.112521,12
2021-09-23 20:42:33.112527,-9
2021-09-23 20:42:33.112533,14
2021-09-23 20:42:33.112539,-16
2021-09-23 20:42:33.112545,-69
2021-09-23 20:42:33.112551,-45
2021-09-23 20:42:33.112557,-9
2021-09-23 20:42:33.112563,-36
2021-09-23 20:42:33.112569,-57
2021-09-23 20:42:33.112575,-33
2021-09-23 20:42:33.112581,-52
2021-09-23 20:42:33.112587,-91
2021-09-23 20:42:33.112593,-60
2021-09-23 20:42:33.112599,-31
2021-09-23 20:42:33.112605,-45
2021-09-23 20:42:33.112611,-31
2021-09-23 20:42:33.112616,2
2021-09-23 20:42:33.112623,-9
2021-09-23 20:42:33.112628,-28
2021-09-23 20:42:33.112634,-4
2021-09-23 20:42:33.382504,7
2021-09-23 20:42:33.382525,4
2021-09-23 20:42:33.382532,12
2021-09-23 20:42:33.382539,16
2021-09-23 20:42:33.382546,16
2021-09-23 20:42:33.382552,21
2021-09-23 20:42:33.382557,14
2021-09-23 20:42:33.382562,2
2021-09-23 20:42:33.382567,12
2021-09-23 20:42:33.382609,24
2021-09-23 20:42:33.382614,24
2021-09-23 20:42:33.382619,33
2021-09-23 20:42:33.382624,24
2021-09-23 20:42:33.382629,-9
2021-09-23 20:42:33.382634,-9
2021-09-23 20:42:33.382642,19
2021-09-23 20:42:33.382648,21
2021-09-23 20:42:33.382653,16
2021-09-23 20:42:33.382658,28
2021-09-23 20:42:33.382663,21
2021-09-23 20:42:33.382669,2
2021-09-23 20:42:33.382675,-7
2021-09-23 20:42:33.382680,-7
2021-09-23 20:42:33.382687,-12
2021-09-23 20:42:33.382693,-2
2021-09-23 20:42:33.382699,28
2021-09-23 20:42:33.382704,57
2021-09-23 20:42:33.382709,50
2021-09-23 20:42:33.382714,31
2021-09-23 20:42:33.382719,0
2021-09-23 20:42:33.562425,-28
2021-09-23 20:42:33.562445,-9
2021-09-23 20:42:33.562453,26
2021-09-23 20:42:33.562460,19
2021-09-23 20:42:33.562466,4
2021-09-23 20:42:33.562472,9
2021-09-23 20:42:33.562478,98
2021-09-23 20:42:33.562484,435
2021-09-23 20:42:33.562490,1034
2021-09-23 20:42:33.562497,1305
2021-09-23 20:42:33.562503,461
2021-09-23 20:42:33.562509,-596
2021-09-23 20:42:33.562515,-461
2021-09-23 20:42:33.562521,-12
2021-09-23 20:42:33.562527,-105
2021-09-23 20:42:33.562533,-122
2021-09-23 20:42:33.562539,2
2021-09-23 20:42:33.562546,-31
2021-09-23 20:42:33.562552,-48
2021-09-23 20:42:33.562558,26
2021-09-23 20:42:33.562564,12
2021-09-23 20:42:33.562570,-48
2021-09-23 20:42:33.562576,-21
2021-09-23 20:42:33.562582,4
2021-09-23 20:42:33.562588,-16
2021-09-23 20:42:33.562594,-2
2021-09-23 20:42:33.562600,38
2021-09-23 20:42:33.562606,55
2021-09-23 20:42:33.562612,57
2021-09-23 20:42:33.562625,67
2021-09-23 20:42:33.787424,74
2021-09-23 20:42:33.787445,88
2021-09-23 20:42:33.787453,110
2021-09-23 20:42:33.787459,125
2021-09-23 20:42:33.787465,117
2021-09-23 20:42:33.787471,108
2021-09-23 20:42:33.787477,96
2021-09-23 20:42:33.787483,60
2021-09-23 20:42:33.787489,40
2021-09-23 20:42:33.787495,69
2021-09-23 20:42:33.787502,76
2021-09-23 20:42:33.787508,24
2021-09-23 20:42:33.787514,-19
2021-09-23 20:42:33.787520,-28
2021-09-23 20:42:33.787526,-50
2021-09-23 20:42:33.787532,-76
2021-09-23 20:42:33.787538,-79
2021-09-23 20:42:33.787544,-69
2021-09-23 20:42:33.787550,-60
2021-09-23 20:42:33.787556,-69
2021-09-23 20:42:33.787562,-93
2021-09-23 20:42:33.787568,-81
2021-09-23 20:42:33.787574,-50
2021-09-23 20:42:33.787580,-45
2021-09-23 20:42:33.787586,-45
2021-09-23 20:42:33.787592,-45
2021-09-23 20:42:33.787598,-69
2021-09-23 20:42:33.787604,-88
2021-09-23 20:42:33.787610,-84
2021-09-23 20:42:33.787616,-86
2021-09-23 20:42:34.012445,-81
2021-09-23 20:42:34.012468,-64
2021-09-23 20:42:34.012476,-52
2021-09-23 20:42:34.012482,-40
2021-09-23 20:42:34.012488,-31
2021-09-23 20:42:34.012495,-43
2021-09-23 20:42:34.012501,-55
2021-09-23 20:42:34.012507,-50
2021-09-23 20:42:34.012513,-62
2021-09-23 20:42:34.012519,-86
2021-09-23 20:42:34.012525,-86
2021-09-23 20:42:34.012531,-67
2021-09-23 20:42:34.012537,-48
2021-09-23 20:42:34.012543,-45
2021-09-23 20:42:34.012549,-43
2021-09-23 20:42:34.012555,-26
2021-09-23 20:42:34.012561,-12
2021-09-23 20:42:34.012567,-38
2021-09-23 20:42:34.012573,-84
2021-09-23 20:42:34.012579,-98
2021-09-23 20:42:34.012585,-74
2021-09-23 20:42:34.012591,-62
2021-09-23 20:42:34.012597,-57
2021-09-23 20:42:34.012603,-38
2021-09-23 20:42:34.012609,-21
2021-09-23 20:42:34.012615,-4
2021-09-23 20:42:34.012621,-19
2021-09-23 20:42:34.012627,-57
2021-09-23 20:42:34.012633,-69
2021-09-23 20:42:34.012639,-50
2021-09-23 20:42:34.281838,-38
2021-09-23 20:42:34.281858,-38
2021-09-23 20:42:34.281866,-38
2021-09-23 20:42:34.281872,-2
2021-09-23 20:42:34.281879,214
2021-09-23 20:42:34.281885,709
2021-09-23 20:42:34.281891,1161
2021-09-23 20:42:34.281897,776
2021-09-23 20:42:34.281903,-305
2021-09-23 20:42:34.281909,-625
2021-09-23 20:42:34.281915,-170
2021-09-23 20:42:34.281921,-91
2021-09-23 20:42:34.281927,-218
2021-09-23 20:42:34.281933,-117
2021-09-23 20:42:34.281939,-57
2021-09-23 20:42:34.281946,-105
2021-09-23 20:42:34.281952,-86
2021-09-23 20:42:34.281958,-48
2021-09-23 20:42:34.281964,-55
2021-09-23 20:42:34.281970,-38
2021-09-23 20:42:34.281976,-16
2021-09-23 20:42:34.281988,-26
2021-09-23 20:42:34.281995,-19
2021-09-23 20:42:34.282001,9
2021-09-23 20:42:34.282007,19
2021-09-23 20:42:34.282013,19
2021-09-23 20:42:34.282019,31
2021-09-23 20:42:34.282025,38
2021-09-23 20:42:34.282031,45
2021-09-23 20:42:34.282037,69
2021-09-23 20:42:34.507458,96
2021-09-23 20:42:34.507480,113
2021-09-23 20:42:34.507488,125
2021-09-23 20:42:34.507494,127
2021-09-23 20:42:34.507501,120
2021-09-23 20:42:34.507507,110
2021-09-23 20:42:34.507513,91
2021-09-23 20:42:34.507519,72
2021-09-23 20:42:34.507525,50
2021-09-23 20:42:34.507539,19
2021-09-23 20:42:34.507546,-12
2021-09-23 20:42:34.507552,-40
2021-09-23 20:42:34.507558,-50
2021-09-23 20:42:34.507564,-45
2021-09-23 20:42:34.507570,-48
2021-09-23 20:42:34.507576,-64
2021-09-23 20:42:34.507582,-69
2021-09-23 20:42:34.507588,-62
2021-09-23 20:42:34.507595,-52
2021-09-23 20:42:34.507601,-60
2021-09-23 20:42:34.507607,-67
2021-09-23 20:42:34.507613,-60
2021-09-23 20:42:34.507619,-45
2021-09-23 20:42:34.507625,-55
2021-09-23 20:42:34.507631,-79
2021-09-23 20:42:34.507637,-64
2021-09-23 20:42:34.507643,-38
2021-09-23 20:42:34.507649,-45
2021-09-23 20:42:34.507655,-48
2021-09-23 20:42:34.507661,-38
2021-09-23 20:42:34.776106,-36
2021-09-23 20:42:34.776127,-26
2021-09-23 20:42:34.776135,-19
2021-09-23 20:42:34.776141,-26
2021-09-23 20:42:34.776148,-28
2021-09-23 20:42:34.776154,-9
2021-09-23 20:42:34.776160,4
2021-09-23 20:42:34.776167,-2
2021-09-23 20:42:34.776173,-28
2021-09-23 20:42:34.776179,-43
2021-09-23 20:42:34.776185,-33
2021-09-23 20:42:34.776191,-26
2021-09-23 20:42:34.776197,-26
2021-09-23 20:42:34.776203,-33
2021-09-23 20:42:34.776209,-43
2021-09-23 20:42:34.776215,-33
2021-09-23 20:42:34.776221,-24
2021-09-23 20:42:34.776227,-36
2021-09-23 20:42:34.776234,-45
2021-09-23 20:42:34.776240,-50
2021-09-23 20:42:34.776246,-50
2021-09-23 20:42:34.776252,-33
2021-09-23 20:42:34.776258,-26
2021-09-23 20:42:34.776264,-33
2021-09-23 20:42:34.776271,-19
2021-09-23 20:42:34.776277,-4
2021-09-23 20:42:34.776283,-28
2021-09-23 20:42:34.776289,-43
2021-09-23 20:42:34.776295,-33
2021-09-23 20:42:34.776301,-28
2021-09-23 20:42:34.957450,-26
2021-09-23 20:42:34.957471,-19
2021-09-23 20:42:34.957479,0
2021-09-23 20:42:34.957485,161
2021-09-23 20:42:34.957492,598
2021-09-23 20:42:34.957498,1171
2021-09-23 20:42:34.957504,1115
2021-09-23 20:42:34.957510,28
2021-09-23 20:42:34.957516,-699
2021-09-23 20:42:34.957522,-298
2021-09-23 20:42:34.957528,-28
2021-09-23 20:42:34.957534,-216
2021-09-23 20:42:34.957540,-175
2021-09-23 20:42:34.957546,-62
2021-09-23 20:42:34.957552,-105
2021-09-23 20:42:34.957559,-96
2021-09-23 20:42:34.957565,-40
2021-09-23 20:42:34.957571,-36
2021-09-23 20:42:34.957577,-31
2021-09-23 20:42:34.957583,-19
2021-09-23 20:42:34.957589,-40
2021-09-23 20:42:34.957595,-52
2021-09-23 20:42:34.957601,-21
2021-09-23 20:42:34.957607,2
2021-09-23 20:42:34.957613,9
2021-09-23 20:42:34.957619,33
2021-09-23 20:42:34.957626,45
2021-09-23 20:42:34.957632,38
2021-09-23 20:42:34.957638,55
2021-09-23 20:42:34.957644,81
2021-09-23 20:42:35.227449,93
2021-09-23 20:42:35.227470,105
2021-09-23 20:42:35.227478,117
2021-09-23 20:42:35.227485,108
2021-09-23 20:42:35.227491,93
2021-09-23 20:42:35.227497,91
2021-09-23 20:42:35.227503,74
2021-09-23 20:42:35.227509,43
2021-09-23 20:42:35.227515,26
2021-09-23 20:42:35.227521,0
2021-09-23 20:42:35.227528,-36
2021-09-23 20:42:35.227533,-48
2021-09-23 20:42:35.227539,-69
2021-09-23 20:42:35.227546,-101
2021-09-23 20:42:35.227552,-93
2021-09-23 20:42:35.227557,-74
2021-09-23 20:42:35.227564,-98
2021-09-23 20:42:35.227570,-137
2021-09-23 20:42:35.227576,-137
2021-09-23 20:42:35.227588,-113
2021-09-23 20:42:35.227595,-93
2021-09-23 20:42:35.227601,-91
2021-09-23 20:42:35.227607,-93
2021-09-23 20:42:35.227613,-84
2021-09-23 20:42:35.227619,-69
2021-09-23 20:42:35.227625,-60
2021-09-23 20:42:35.227631,-55
2021-09-23 20:42:35.227649,-50
2021-09-23 20:42:35.227656,-48
2021-09-23 20:42:35.227662,-52
2021-09-23 20:42:35.407372,-74
2021-09-23 20:42:35.407393,-103
2021-09-23 20:42:35.407401,-88
2021-09-23 20:42:35.407407,-48
2021-09-23 20:42:35.407413,-57
2021-09-23 20:42:35.407420,-96
2021-09-23 20:42:35.407426,-79
2021-09-23 20:42:35.407432,-24
2021-09-23 20:42:35.407438,19
2021-09-23 20:42:35.407444,31
2021-09-23 20:42:35.407450,24
2021-09-23 20:42:35.407457,26
2021-09-23 20:42:35.407463,14
2021-09-23 20:42:35.407469,-2
2021-09-23 20:42:35.407475,2
2021-09-23 20:42:35.407481,9
2021-09-23 20:42:35.407488,19
2021-09-23 20:42:35.407494,31
2021-09-23 20:42:35.407500,33
2021-09-23 20:42:35.407506,38
2021-09-23 20:42:35.407512,14
2021-09-23 20:42:35.407518,-19
2021-09-23 20:42:35.407524,-9
2021-09-23 20:42:35.407530,2
2021-09-23 20:42:35.407536,-7
2021-09-23 20:42:35.407542,4
2021-09-23 20:42:35.407548,33
2021-09-23 20:42:35.407555,45
2021-09-23 20:42:35.407561,144
2021-09-23 20:42:35.407567,466
2021-09-23 20:42:35.721845,988
2021-09-23 20:42:35.721866,1127
2021-09-23 20:42:35.721873,262
2021-09-23 20:42:35.721880,-615
2021-09-23 20:42:35.721886,-420
2021-09-23 20:42:35.721893,-93
2021-09-23 20:42:35.721899,-209
2021-09-23 20:42:35.721905,-197
2021-09-23 20:42:35.721911,-76
2021-09-23 20:42:35.721918,-72
2021-09-23 20:42:35.721924,-60
2021-09-23 20:42:35.721930,-19
2021-09-23 20:42:35.721936,-24
2021-09-23 20:42:35.721943,-36
2021-09-23 20:42:35.721949,-12
2021-09-23 20:42:35.721955,9
2021-09-23 20:42:35.721961,-4
2021-09-23 20:42:35.721967,-26
2021-09-23 20:42:35.721973,-4
2021-09-23 20:42:35.721979,38
2021-09-23 20:42:35.721986,40
2021-09-23 20:42:35.721992,19
2021-09-23 20:42:35.721998,21
2021-09-23 20:42:35.722004,50
2021-09-23 20:42:35.722010,62
2021-09-23 20:42:35.722016,50
2021-09-23 20:42:35.722022,67
2021-09-23 20:42:35.722028,79
2021-09-23 20:42:35.722035,57
2021-09-23 20:42:35.722041,50
2021-09-23 20:42:35.902465,50
2021-09-23 20:42:35.902487,40
2021-09-23 20:42:35.902494,24
2021-09-23 20:42:35.902501,-28
2021-09-23 20:42:35.902507,-101
2021-09-23 20:42:35.902513,-125
2021-09-23 20:42:35.902519,-96
2021-09-23 20:42:35.902525,-88
2021-09-23 20:42:35.902531,-132
2021-09-23 20:42:35.902537,-161
2021-09-23 20:42:35.902543,-141
2021-09-23 20:42:35.902550,-125
2021-09-23 20:42:35.902555,-132
2021-09-23 20:42:35.902568,-134
2021-09-23 20:42:35.902574,-113
2021-09-23 20:42:35.902581,-108
2021-09-23 20:42:35.902587,-129
2021-09-23 20:42:35.902593,-132
2021-09-23 20:42:35.902599,-108
2021-09-23 20:42:35.902613,-98
2021-09-23 20:42:35.902620,-96
2021-09-23 20:42:35.902626,-84
2021-09-23 20:42:35.902632,-74
2021-09-23 20:42:35.902638,-64
2021-09-23 20:42:35.902644,-62
2021-09-23 20:42:35.902650,-67
2021-09-23 20:42:35.902656,-64
2021-09-23 20:42:35.902662,-55
2021-09-23 20:42:35.902669,-57
2021-09-23 20:42:35.902679,-86
2021-09-23 20:42:36.082467,-74
2021-09-23 20:42:36.082488,-12
2021-09-23 20:42:36.082496,4
2021-09-23 20:42:36.082502,-28
2021-09-23 20:42:36.082509,-43
2021-09-23 20:42:36.082515,-52
2021-09-23 20:42:36.082521,-69
2021-09-23 20:42:36.082527,-60
2021-09-23 20:42:36.082533,-52
2021-09-23 20:42:36.082540,-55
2021-09-23 20:42:36.082546,-38
2021-09-23 20:42:36.082552,-9
2021-09-23 20:42:36.082558,9
2021-09-23 20:42:36.082564,14
2021-09-23 20:42:36.082570,-7
2021-09-23 20:42:36.082576,-33
2021-09-23 20:42:36.082583,-62
2021-09-23 20:42:36.082589,-84
2021-09-23 20:42:36.082595,-33
2021-09-23 20:42:36.082601,38
2021-09-23 20:42:36.082607,40
2021-09-23 20:42:36.082613,81
2021-09-23 20:42:36.082619,319
2021-09-23 20:42:36.082625,776
2021-09-23 20:42:36.082631,1118
2021-09-23 20:42:36.082637,598
2021-09-23 20:42:36.082643,-375
2021-09-23 20:42:36.082649,-435
2021-09-23 20:42:36.082655,-38
2021-09-23 20:42:36.082661,-110
2021-09-23 20:42:36.352477,-113
2021-09-23 20:42:36.352497,79
2021-09-23 20:42:36.352505,7
2021-09-23 20:42:36.352512,-115
2021-09-23 20:42:36.352519,-19
2021-09-23 20:42:36.352525,43
2021-09-23 20:42:36.352532,-24
2021-09-23 20:42:36.352539,-19
2021-09-23 20:42:36.352545,43
2021-09-23 20:42:36.352552,2
2021-09-23 20:42:36.352558,-52
2021-09-23 20:42:36.352564,4
2021-09-23 20:42:36.352570,72
2021-09-23 20:42:36.352576,69
2021-09-23 20:42:36.352582,72
2021-09-23 20:42:36.352588,43
2021-09-23 20:42:36.352594,-31
2021-09-23 20:42:36.352601,-26
2021-09-23 20:42:36.352607,38
2021-09-23 20:42:36.352618,60
2021-09-23 20:42:36.352625,43
2021-09-23 20:42:36.352631,31
2021-09-23 20:42:36.352638,40
2021-09-23 20:42:36.352644,36
2021-09-23 20:42:36.352650,24
2021-09-23 20:42:36.352656,38
2021-09-23 20:42:36.352662,19
2021-09-23 20:42:36.352668,-38
2021-09-23 20:42:36.352674,-45
2021-09-23 20:42:36.352680,-48
2021-09-23 20:42:36.577538,-127
2021-09-23 20:42:36.577558,-170
2021-09-23 20:42:36.577565,-122
2021-09-23 20:42:36.577571,-110
2021-09-23 20:42:36.577578,-108
2021-09-23 20:42:36.577584,-69
2021-09-23 20:42:36.577590,-84
2021-09-23 20:42:36.577625,-98
2021-09-23 20:42:36.577631,-96
2021-09-23 20:42:36.577637,-113
2021-09-23 20:42:36.577643,-38
2021-09-23 20:42:36.577649,48
2021-09-23 20:42:36.577655,14
2021-09-23 20:42:36.577661,-9
2021-09-23 20:42:36.577668,-4
2021-09-23 20:42:36.577674,-16
2021-09-23 20:42:36.577680,-19
2021-09-23 20:42:36.577686,-45
2021-09-23 20:42:36.577692,-86
2021-09-23 20:42:36.577698,-69
2021-09-23 20:42:36.577705,-57
2021-09-23 20:42:36.577711,-60
2021-09-23 20:42:36.577717,-19
2021-09-23 20:42:36.577723,12
2021-09-23 20:42:36.577729,24
2021-09-23 20:42:36.577735,48
2021-09-23 20:42:36.577741,43
2021-09-23 20:42:36.577748,33
2021-09-23 20:42:36.577754,14
2021-09-23 20:42:36.577760,-88
2021-09-23 20:42:36.846130,-110
2021-09-23 20:42:36.846151,57
2021-09-23 20:42:36.846159,105
2021-09-23 20:42:36.846165,9
2021-09-23 20:42:36.846171,38
2021-09-23 20:42:36.846177,110
2021-09-23 20:42:36.846183,48
2021-09-23 20:42:36.846189,-69
2021-09-23 20:42:36.846195,-57
2021-09-23 20:42:36.846202,24
2021-09-23 20:42:36.846208,14
2021-09-23 20:42:36.846214,-9
2021-09-23 20:42:36.846220,93
2021-09-23 20:42:36.846226,377
2021-09-23 20:42:36.846232,769
2021-09-23 20:42:36.846238,937
2021-09-23 20:42:36.846244,408
2021-09-23 20:42:36.846250,-322
2021-09-23 20:42:36.846256,-300
2021-09-23 20:42:36.846262,-19
2021-09-23 20:42:36.846268,-103
2021-09-23 20:42:36.846274,-151
2021-09-23 20:42:36.846280,-50
2021-09-23 20:42:36.846286,-21
2021-09-23 20:42:36.846292,-7
2021-09-23 20:42:36.846298,50
2021-09-23 20:42:36.846304,69
2021-09-23 20:42:36.846310,52
2021-09-23 20:42:36.846316,31
2021-09-23 20:42:36.846322,-2
2021-09-23 20:42:37.027475,-19
2021-09-23 20:42:37.027497,-9
2021-09-23 20:42:37.027504,-14
2021-09-23 20:42:37.027510,-9
2021-09-23 20:42:37.027516,-2
2021-09-23 20:42:37.027522,-16
2021-09-23 20:42:37.027529,28
2021-09-23 20:42:37.027535,93
2021-09-23 20:42:37.027541,81
2021-09-23 20:42:37.027547,64
2021-09-23 20:42:37.027553,103
2021-09-23 20:42:37.027559,117
2021-09-23 20:42:37.027565,76
2021-09-23 20:42:37.027571,67
2021-09-23 20:42:37.027577,79
2021-09-23 20:42:37.027583,26
2021-09-23 20:42:37.027589,-14
2021-09-23 20:42:37.027595,-4
2021-09-23 20:42:37.027601,-38
2021-09-23 20:42:37.027607,-55
2021-09-23 20:42:37.027613,-28
2021-09-23 20:42:37.027619,-69
2021-09-23 20:42:37.027625,-110
2021-09-23 20:42:37.027631,-84
2021-09-23 20:42:37.027637,-64
2021-09-23 20:42:37.027643,-60
2021-09-23 20:42:37.027649,-69
2021-09-23 20:42:37.027655,-88
2021-09-23 20:42:37.027661,-86
2021-09-23 20:42:37.027667,-84
2021-09-23 20:42:37.253013,-93
2021-09-23 20:42:37.253041,-76
2021-09-23 20:42:37.253050,-45
2021-09-23 20:42:37.253056,-33
2021-09-23 20:42:37.253063,-21
2021-09-23 20:42:37.253069,-19
2021-09-23 20:42:37.253075,-55
2021-09-23 20:42:37.253081,-72
2021-09-23 20:42:37.253087,-52
2021-09-23 20:42:37.253094,-57
2021-09-23 20:42:37.253100,-55
2021-09-23 20:42:37.253106,-24
2021-09-23 20:42:37.253112,-31
2021-09-23 20:42:37.253118,-57
2021-09-23 20:42:37.253124,-38
2021-09-23 20:42:37.253131,-12
2021-09-23 20:42:37.253137,-28
2021-09-23 20:42:37.253143,-38
2021-09-23 20:42:37.253149,0
2021-09-23 20:42:37.253155,7
2021-09-23 20:42:37.253161,-43
2021-09-23 20:42:37.253167,-52
2021-09-23 20:42:37.253173,-14
2021-09-23 20:42:37.253180,0
2021-09-23 20:42:37.253186,7
2021-09-23 20:42:37.253192,26
2021-09-23 20:42:37.253198,-4
2021-09-23 20:42:37.253204,-64
2021-09-23 20:42:37.253210,-55
2021-09-23 20:42:37.253216,-7
2021-09-23 20:42:37.477499,0
2021-09-23 20:42:37.477520,4
2021-09-23 20:42:37.477527,24
2021-09-23 20:42:37.477533,108
2021-09-23 20:42:37.477540,348
2021-09-23 20:42:37.477546,716
2021-09-23 20:42:37.477552,916
2021-09-23 20:42:37.477558,389
2021-09-23 20:42:37.477564,-440
2021-09-23 20:42:37.477570,-413
2021-09-23 20:42:37.477576,-26
2021-09-23 20:42:37.477582,-108
2021-09-23 20:42:37.477588,-163
2021-09-23 20:42:37.477594,-26
2021-09-23 20:42:37.477600,7
2021-09-23 20:42:37.477606,19
2021-09-23 20:42:37.477612,19
2021-09-23 20:42:37.477618,2
2021-09-23 20:42:37.477624,21
2021-09-23 20:42:37.477640,12
2021-09-23 20:42:37.477646,12
2021-09-23 20:42:37.477652,43
2021-09-23 20:42:37.477658,43
2021-09-23 20:42:37.477664,45
2021-09-23 20:42:37.477671,55
2021-09-23 20:42:37.477677,7
2021-09-23 20:42:37.477683,14
2021-09-23 20:42:37.477689,134
2021-09-23 20:42:37.477695,125
2021-09-23 20:42:37.477701,31
2021-09-23 20:42:37.702563,96
2021-09-23 20:42:37.702585,170
2021-09-23 20:42:37.702593,108
2021-09-23 20:42:37.702599,96
2021-09-23 20:42:37.702606,141
2021-09-23 20:42:37.702612,96
2021-09-23 20:42:37.702618,36
2021-09-23 20:42:37.702624,62
2021-09-23 20:42:37.702630,55
2021-09-23 20:42:37.702636,-12
2021-09-23 20:42:37.702642,-50
2021-09-23 20:42:37.702648,-43
2021-09-23 20:42:37.702655,-24
2021-09-23 20:42:37.702661,-60
2021-09-23 20:42:37.702667,-129
2021-09-23 20:42:37.702673,-86
2021-09-23 20:42:37.702679,-19
2021-09-23 20:42:37.702686,-57
2021-09-23 20:42:37.702692,-52
2021-09-23 20:42:37.702698,-4
2021-09-23 20:42:37.702704,-57
2021-09-23 20:42:37.702710,-101
2021-09-23 20:42:37.702716,-26
2021-09-23 20:42:37.702722,-7
2021-09-23 20:42:37.702728,-88
2021-09-23 20:42:37.702734,-45
2021-09-23 20:42:37.702740,69
2021-09-23 20:42:37.702746,9
2021-09-23 20:42:37.702753,-81
2021-09-23 20:42:37.702759,-9
2021-09-23 20:42:37.927526,0
2021-09-23 20:42:37.927549,-96
2021-09-23 20:42:37.927556,-40
2021-09-23 20:42:37.927562,16
2021-09-23 20:42:37.927569,-62
2021-09-23 20:42:37.927575,-64
2021-09-23 20:42:37.927581,-19
2021-09-23 20:42:37.927587,-72
2021-09-23 20:42:37.927593,-67
2021-09-23 20:42:37.927599,0
2021-09-23 20:42:37.927606,-21
2021-09-23 20:42:37.927612,-57
2021-09-23 20:42:37.927618,-26
2021-09-23 20:42:37.927624,2
2021-09-23 20:42:37.927630,-24
2021-09-23 20:42:37.927635,-69
2021-09-23 20:42:37.927640,-79
2021-09-23 20:42:37.927645,-72
2021-09-23 20:42:37.927650,-60
2021-09-23 20:42:37.927655,9
2021-09-23 20:42:37.927660,60
2021-09-23 20:42:37.927666,64
2021-09-23 20:42:37.927671,202
2021-09-23 20:42:37.927676,529
2021-09-23 20:42:37.927681,860
2021-09-23 20:42:37.927686,579
2021-09-23 20:42:37.927691,-355
2021-09-23 20:42:37.927696,-625
2021-09-23 20:42:37.927702,-91
2021-09-23 20:42:37.927708,19
2021-09-23 20:42:38.241882,-158
2021-09-23 20:42:38.241904,-55
2021-09-23 20:42:38.241912,16
2021-09-23 20:42:38.241918,-64
2021-09-23 20:42:38.241924,-62
2021-09-23 20:42:38.241931,-26
2021-09-23 20:42:38.241937,-12
2021-09-23 20:42:38.241943,24
2021-09-23 20:42:38.241949,-4
2021-09-23 20:42:38.241954,-57
2021-09-23 20:42:38.241960,-16
2021-09-23 20:42:38.241966,33
2021-09-23 20:42:38.241972,28
2021-09-23 20:42:38.241978,31
2021-09-23 20:42:38.241985,57
2021-09-23 20:42:38.241997,76
2021-09-23 20:42:38.242003,93
2021-09-23 20:42:38.242010,91
2021-09-23 20:42:38.242016,79
2021-09-23 20:42:38.242022,113
2021-09-23 20:42:38.242028,108
2021-09-23 20:42:38.242034,50
2021-09-23 20:42:38.242040,76
2021-09-23 20:42:38.242046,108
2021-09-23 20:42:38.242051,57
2021-09-23 20:42:38.242057,21
2021-09-23 20:42:38.242063,16
2021-09-23 20:42:38.242069,-9
2021-09-23 20:42:38.242076,-36
2021-09-23 20:42:38.242085,-38
2021-09-23 20:42:38.467665,-43
2021-09-23 20:42:38.467687,-69
2021-09-23 20:42:38.467694,-57
2021-09-23 20:42:38.467701,-48
2021-09-23 20:42:38.467707,-105
2021-09-23 20:42:38.467713,-110
2021-09-23 20:42:38.467719,-50
2021-09-23 20:42:38.467725,-38
2021-09-23 20:42:38.467731,-45
2021-09-23 20:42:38.467737,-28
2021-09-23 20:42:38.467743,-16
2021-09-23 20:42:38.467749,-2
2021-09-23 20:42:38.467755,0
2021-09-23 20:42:38.467762,-19
2021-09-23 20:42:38.467768,-31
2021-09-23 20:42:38.467774,-24
2021-09-23 20:42:38.467780,-16
2021-09-23 20:42:38.467786,-2
2021-09-23 20:42:38.467792,4
2021-09-23 20:42:38.467798,-9
2021-09-23 20:42:38.467804,-31
2021-09-23 20:42:38.467810,-48
2021-09-23 20:42:38.467816,-57
2021-09-23 20:42:38.467822,-38
2021-09-23 20:42:38.467828,-9
2021-09-23 20:42:38.467833,-19
2021-09-23 20:42:38.467839,-40
2021-09-23 20:42:38.467846,-16
2021-09-23 20:42:38.467852,-14
2021-09-23 20:42:38.467858,-24
2021-09-23 20:42:38.647450,48
2021-09-23 20:42:38.647474,84
2021-09-23 20:42:38.647482,-4
2021-09-23 20:42:38.647488,-79
2021-09-23 20:42:38.647495,-26
2021-09-23 20:42:38.647501,28
2021-09-23 20:42:38.647507,-28
2021-09-23 20:42:38.647513,-50
2021-09-23 20:42:38.647519,62
2021-09-23 20:42:38.647525,276
2021-09-23 20:42:38.647531,615
2021-09-23 20:42:38.647537,829
2021-09-23 20:42:38.647543,300
2021-09-23 20:42:38.647550,-507
2021-09-23 20:42:38.647556,-442
2021-09-23 20:42:38.647562,-19
2021-09-23 20:42:38.647568,-52
2021-09-23 20:42:38.647574,-120
2021-09-23 20:42:38.647580,-38
2021-09-23 20:42:38.647586,-55
2021-09-23 20:42:38.647592,-64
2021-09-23 20:42:38.647599,2
2021-09-23 20:42:38.647605,2
2021-09-23 20:42:38.647611,-31
2021-09-23 20:42:38.647617,-40
2021-09-23 20:42:38.647623,-31
2021-09-23 20:42:38.647628,-2
2021-09-23 20:42:38.647634,19
2021-09-23 20:42:38.647640,48
2021-09-23 20:42:38.647646,69
2021-09-23 20:42:38.961089,72
2021-09-23 20:42:38.961108,79
2021-09-23 20:42:38.961116,69
2021-09-23 20:42:38.961122,67
2021-09-23 20:42:38.961129,93
2021-09-23 20:42:38.961135,98
2021-09-23 20:42:38.961141,62
2021-09-23 20:42:38.961147,43
2021-09-23 20:42:38.961153,86
2021-09-23 20:42:38.961159,103
2021-09-23 20:42:38.961165,31
2021-09-23 20:42:38.961171,2
2021-09-23 20:42:38.961177,50
2021-09-23 20:42:38.961184,-4
2021-09-23 20:42:38.961190,-110
2021-09-23 20:42:38.961196,-72
2021-09-23 20:42:38.961202,-9
2021-09-23 20:42:38.961209,-64
2021-09-23 20:42:38.961215,-88
2021-09-23 20:42:38.961221,-33
2021-09-23 20:42:38.961227,-57
2021-09-23 20:42:38.961233,-113
2021-09-23 20:42:38.961239,-55
2021-09-23 20:42:38.961245,-9
2021-09-23 20:42:38.961251,-55
2021-09-23 20:42:38.961257,-33
2021-09-23 20:42:38.961263,19
2021-09-23 20:42:38.961269,-26
2021-09-23 20:42:38.961275,-40
2021-09-23 20:42:38.961281,12
2021-09-23 20:42:39.142507,9
2021-09-23 20:42:39.142529,-7
2021-09-23 20:42:39.142536,-21
2021-09-23 20:42:39.142543,-28
2021-09-23 20:42:39.142549,14
2021-09-23 20:42:39.142555,31
2021-09-23 20:42:39.142561,-21
2021-09-23 20:42:39.142567,-48
2021-09-23 20:42:39.142573,-14
2021-09-23 20:42:39.142587,19
2021-09-23 20:42:39.142594,26
2021-09-23 20:42:39.142600,-7
2021-09-23 20:42:39.142607,-62
2021-09-23 20:42:39.142613,-36
2021-09-23 20:42:39.142619,12
2021-09-23 20:42:39.142625,-14
2021-09-23 20:42:39.142631,-33
2021-09-23 20:42:39.142637,-31
2021-09-23 20:42:39.142643,-45
2021-09-23 20:42:39.142649,-38
2021-09-23 20:42:39.142655,-9
2021-09-23 20:42:39.142665,-9
2021-09-23 20:42:39.142747,-2
2021-09-23 20:42:39.142754,36
2021-09-23 20:42:39.142760,101
2021-09-23 20:42:39.142766,351
2021-09-23 20:42:39.142773,808
2021-09-23 20:42:39.142779,805
2021-09-23 20:42:39.142785,-57
2021-09-23 20:42:39.142791,-627
2021-09-23 20:42:39.367518,-230
2021-09-23 20:42:39.367540,26
2021-09-23 20:42:39.367547,-149
2021-09-23 20:42:39.367554,-125
2021-09-23 20:42:39.367560,-31
2021-09-23 20:42:39.367566,-60
2021-09-23 20:42:39.367572,-50
2021-09-23 20:42:39.367579,4
2021-09-23 20:42:39.367585,31
2021-09-23 20:42:39.367591,-2
2021-09-23 20:42:39.367597,-26
2021-09-23 20:42:39.367603,-9
2021-09-23 20:42:39.367609,-24
2021-09-23 20:42:39.367615,-31
2021-09-23 20:42:39.367621,31
2021-09-23 20:42:39.367627,67
2021-09-23 20:42:39.367633,38
2021-09-23 20:42:39.367639,43
2021-09-23 20:42:39.367645,86
2021-09-23 20:42:39.367651,79
2021-09-23 20:42:39.367657,60
2021-09-23 20:42:39.367663,76
2021-09-23 20:42:39.367669,96
2021-09-23 20:42:39.367675,96
2021-09-23 20:42:39.367680,74
2021-09-23 20:42:39.367686,52
2021-09-23 20:42:39.367692,48
2021-09-23 20:42:39.367698,38
2021-09-23 20:42:39.367704,-21
2021-09-23 20:42:39.367721,-84
2021-09-23 20:42:39.547525,-50
2021-09-23 20:42:39.547545,-4
2021-09-23 20:42:39.547552,-69
2021-09-23 20:42:39.547559,-113
2021-09-23 20:42:39.547565,-64
2021-09-23 20:42:39.547571,-55
2021-09-23 20:42:39.547577,-96
2021-09-23 20:42:39.547583,-93
2021-09-23 20:42:39.547590,-74
2021-09-23 20:42:39.547596,-45
2021-09-23 20:42:39.547602,16
2021-09-23 20:42:39.547608,-2
2021-09-23 20:42:39.547614,-57
2021-09-23 20:42:39.547621,-21
2021-09-23 20:42:39.547627,-7
2021-09-23 20:42:39.547633,-45
2021-09-23 20:42:39.547639,-38
2021-09-23 20:42:39.547645,-12
2021-09-23 20:42:39.547651,-21
2021-09-23 20:42:39.547657,-52
2021-09-23 20:42:39.547662,-52
2021-09-23 20:42:39.547668,-26
2021-09-23 20:42:39.547674,-36
2021-09-23 20:42:39.547680,-55
2021-09-23 20:42:39.547686,-9
2021-09-23 20:42:39.547692,19
2021-09-23 20:42:39.547698,-40
2021-09-23 20:42:39.547704,-48
2021-09-23 20:42:39.547710,28
2021-09-23 20:42:39.547716,7
2021-09-23 20:42:39.773005,-55
2021-09-23 20:42:39.773025,-2
2021-09-23 20:42:39.773033,14
2021-09-23 20:42:39.773039,-52
2021-09-23 20:42:39.773046,-26
2021-09-23 20:42:39.773052,48
2021-09-23 20:42:39.773058,9
2021-09-23 20:42:39.773064,-48
2021-09-23 20:42:39.773070,24
2021-09-23 20:42:39.773076,180
2021-09-23 20:42:39.773082,442
2021-09-23 20:42:39.773088,810
2021-09-23 20:42:39.773094,682
2021-09-23 20:42:39.773101,-206
2021-09-23 20:42:39.773107,-625
2021-09-23 20:42:39.773113,-141
2021-09-23 20:42:39.773119,55
2021-09-23 20:42:39.773125,-151
2021-09-23 20:42:39.773131,-105
2021-09-23 20:42:39.773137,-12
2021-09-23 20:42:39.773144,-74
2021-09-23 20:42:39.773150,-50
2021-09-23 20:42:39.773156,24
2021-09-23 20:42:39.773162,2
2021-09-23 20:42:39.773168,-12
2021-09-23 20:42:39.773174,19
2021-09-23 20:42:39.773180,14
2021-09-23 20:42:39.773187,-19
2021-09-23 20:42:39.773193,-19
2021-09-23 20:42:39.773199,19
2021-09-23 20:42:40.042525,28
2021-09-23 20:42:40.042547,45
2021-09-23 20:42:40.042555,79
2021-09-23 20:42:40.042561,64
2021-09-23 20:42:40.042568,57
2021-09-23 20:42:40.042574,96
2021-09-23 20:42:40.042580,105
2021-09-23 20:42:40.042587,79
2021-09-23 20:42:40.042593,52
2021-09-23 20:42:40.042599,12
2021-09-23 20:42:40.042605,-14
2021-09-23 20:42:40.042611,-2
2021-09-23 20:42:40.042617,12
2021-09-23 20:42:40.042623,24
2021-09-23 20:42:40.042629,0
2021-09-23 20:42:40.042635,-81
2021-09-23 20:42:40.042641,-98
2021-09-23 20:42:40.042648,-76
2021-09-23 20:42:40.042653,-115
2021-09-23 20:42:40.042659,-110
2021-09-23 20:42:40.042665,-55
2021-09-23 20:42:40.042672,-74
2021-09-23 20:42:40.042677,-117
2021-09-23 20:42:40.042683,-74
2021-09-23 20:42:40.042689,-21
2021-09-23 20:42:40.042695,-38
2021-09-23 20:42:40.042701,-64
2021-09-23 20:42:40.042718,-64
2021-09-23 20:42:40.042725,-57
2021-09-23 20:42:40.042731,-43
2021-09-23 20:42:40.267508,-4
2021-09-23 20:42:40.267529,7
2021-09-23 20:42:40.267537,-33
2021-09-23 20:42:40.267543,-57
2021-09-23 20:42:40.267549,-43
2021-09-23 20:42:40.267555,-50
2021-09-23 20:42:40.267562,-33
2021-09-23 20:42:40.267567,9
2021-09-23 20:42:40.267574,-9
2021-09-23 20:42:40.267589,-36
2021-09-23 20:42:40.267596,-31
2021-09-23 20:42:40.267602,-43
2021-09-23 20:42:40.267608,-4
2021-09-23 20:42:40.267614,57
2021-09-23 20:42:40.267620,12
2021-09-23 20:42:40.267626,-62
2021-09-23 20:42:40.267632,-40
2021-09-23 20:42:40.267638,-21
2021-09-23 20:42:40.267644,-28
2021-09-23 20:42:40.267650,-2
2021-09-23 20:42:40.267656,-9
2021-09-23 20:42:40.267662,-62
2021-09-23 20:42:40.267668,-12
2021-09-23 20:42:40.267674,223
2021-09-23 20:42:40.267680,610
2021-09-23 20:42:40.267686,916
2021-09-23 20:42:40.267692,485
2021-09-23 20:42:40.267698,-459
2021-09-23 20:42:40.267704,-589
2021-09-23 20:42:40.267710,-91
