Time,ECG
2021-09-23 21:06:16.138110,-12
2021-09-23 21:06:16.138129,19
2021-09-23 21:06:16.138136,31
2021-09-23 21:06:16.138142,19
2021-09-23 21:06:16.138147,45
2021-09-23 21:06:16.138153,72
2021-09-23 21:06:16.138159,62
2021-09-23 21:06:16.138164,67
2021-09-23 21:06:16.138170,115
2021-09-23 21:06:16.138175,134
2021-09-23 21:06:16.138181,132
2021-09-23 21:06:16.138186,141
2021-09-23 21:06:16.138191,120
2021-09-23 21:06:16.138197,86
2021-09-23 21:06:16.138202,74
2021-09-23 21:06:16.138208,48
2021-09-23 21:06:16.138213,-2
2021-09-23 21:06:16.138218,-40
2021-09-23 21:06:16.138224,-55
2021-09-23 21:06:16.138229,-64
2021-09-23 21:06:16.138234,-79
2021-09-23 21:06:16.138239,-93
2021-09-23 21:06:16.138245,-105
2021-09-23 21:06:16.138251,-115
2021-09-23 21:06:16.138256,-117
2021-09-23 21:06:16.138261,-115
2021-09-23 21:06:16.138267,-115
2021-09-23 21:06:16.138273,-115
2021-09-23 21:06:16.138278,-101
2021-09-23 21:06:16.138283,-93
2021-09-23 21:06:16.211368,-103
2021-09-23 21:06:16.211386,-93
2021-09-23 21:06:16.211393,-64
2021-09-23 21:06:16.211399,-62
2021-09-23 21:06:16.211405,-64
2021-09-23 21:06:16.211411,-31
2021-09-23 21:06:16.211418,-9
2021-09-23 21:06:16.211424,-31
2021-09-23 21:06:16.211430,-38
2021-09-23 21:06:16.211436,-19
2021-09-23 21:06:16.211441,-26
2021-09-23 21:06:16.211447,-50
2021-09-23 21:06:16.211453,-69
2021-09-23 21:06:16.211459,-74
2021-09-23 21:06:16.211465,-55
2021-09-23 21:06:16.211471,-40
2021-09-23 21:06:16.211477,-55
2021-09-23 21:06:16.211483,-64
2021-09-23 21:06:16.211489,-52
2021-09-23 21:06:16.211495,-52
2021-09-23 21:06:16.211501,-60
2021-09-23 21:06:16.211506,-48
2021-09-23 21:06:16.211512,-40
2021-09-23 21:06:16.211518,-60
2021-09-23 21:06:16.211524,-43
2021-09-23 21:06:16.211529,-7
2021-09-23 21:06:16.211535,-12
2021-09-23 21:06:16.211541,-33
2021-09-23 21:06:16.211547,-45
2021-09-23 21:06:16.211554,-57
2021-09-23 21:06:16.436387,-55
2021-09-23 21:06:16.436406,-38
2021-09-23 21:06:16.436413,-33
2021-09-23 21:06:16.436419,-21
2021-09-23 21:06:16.436425,50
2021-09-23 21:06:16.436431,293
2021-09-23 21:06:16.436437,762
2021-09-23 21:06:16.436443,1127
2021-09-23 21:06:16.436449,579
2021-09-23 21:06:16.436454,-531
2021-09-23 21:06:16.436460,-656
2021-09-23 21:06:16.436466,-105
2021-09-23 21:06:16.436472,-91
2021-09-23 21:06:16.436481,-206
2021-09-23 21:06:16.436487,-62
2021-09-23 21:06:16.436493,-36
2021-09-23 21:06:16.436498,-105
2021-09-23 21:06:16.436504,-57
2021-09-23 21:06:16.436510,-7
2021-09-23 21:06:16.436515,-16
2021-09-23 21:06:16.436521,-9
2021-09-23 21:06:16.436527,-9
2021-09-23 21:06:16.436532,-19
2021-09-23 21:06:16.436538,16
2021-09-23 21:06:16.436544,40
2021-09-23 21:06:16.436549,33
2021-09-23 21:06:16.436555,45
2021-09-23 21:06:16.436561,69
2021-09-23 21:06:16.436566,79
2021-09-23 21:06:16.436573,93
2021-09-23 21:06:16.706411,127
2021-09-23 21:06:16.706429,156
2021-09-23 21:06:16.706436,141
2021-09-23 21:06:16.706443,115
2021-09-23 21:06:16.706448,110
2021-09-23 21:06:16.706454,101
2021-09-23 21:06:16.706460,79
2021-09-23 21:06:16.706466,45
2021-09-23 21:06:16.706472,4
2021-09-23 21:06:16.706478,-26
2021-09-23 21:06:16.706484,-52
2021-09-23 21:06:16.706490,-76
2021-09-23 21:06:16.706496,-86
2021-09-23 21:06:16.706502,-101
2021-09-23 21:06:16.706508,-120
2021-09-23 21:06:16.706513,-132
2021-09-23 21:06:16.706519,-139
2021-09-23 21:06:16.706527,-153
2021-09-23 21:06:16.706533,-156
2021-09-23 21:06:16.706539,-129
2021-09-23 21:06:16.706544,-113
2021-09-23 21:06:16.706550,-110
2021-09-23 21:06:16.706556,-93
2021-09-23 21:06:16.706561,-72
2021-09-23 21:06:16.706567,-64
2021-09-23 21:06:16.706573,-62
2021-09-23 21:06:16.706578,-60
2021-09-23 21:06:16.706584,-48
2021-09-23 21:06:16.706590,-31
2021-09-23 21:06:16.706595,-24
2021-09-23 21:06:16.931393,-33
2021-09-23 21:06:16.931411,-36
2021-09-23 21:06:16.931418,-26
2021-09-23 21:06:16.931424,-31
2021-09-23 21:06:16.931430,-50
2021-09-23 21:06:16.931436,-60
2021-09-23 21:06:16.931442,-48
2021-09-23 21:06:16.931453,-43
2021-09-23 21:06:16.931459,-60
2021-09-23 21:06:16.931465,-69
2021-09-23 21:06:16.931470,-62
2021-09-23 21:06:16.931476,-48
2021-09-23 21:06:16.931482,-40
2021-09-23 21:06:16.931488,-48
2021-09-23 21:06:16.931494,-57
2021-09-23 21:06:16.931499,-64
2021-09-23 21:06:16.931505,-67
2021-09-23 21:06:16.931511,-48
2021-09-23 21:06:16.931516,-16
2021-09-23 21:06:16.931522,-7
2021-09-23 21:06:16.931528,-16
2021-09-23 21:06:16.931534,-21
2021-09-23 21:06:16.931539,-36
2021-09-23 21:06:16.931545,-52
2021-09-23 21:06:16.931551,-50
2021-09-23 21:06:16.931557,-19
2021-09-23 21:06:16.931562,-2
2021-09-23 21:06:16.931568,-9
2021-09-23 21:06:16.931574,16
2021-09-23 21:06:16.931580,170
2021-09-23 21:06:17.201360,541
2021-09-23 21:06:17.201378,1074
2021-09-23 21:06:17.201385,1115
2021-09-23 21:06:17.201391,156
2021-09-23 21:06:17.201397,-644
2021-09-23 21:06:17.201403,-329
2021-09-23 21:06:17.201408,4
2021-09-23 21:06:17.201414,-173
2021-09-23 21:06:17.201420,-175
2021-09-23 21:06:17.201426,-38
2021-09-23 21:06:17.201431,-72
2021-09-23 21:06:17.201437,-101
2021-09-23 21:06:17.201443,-50
2021-09-23 21:06:17.201449,-45
2021-09-23 21:06:17.201455,-57
2021-09-23 21:06:17.201460,-40
2021-09-23 21:06:17.201466,-28
2021-09-23 21:06:17.201472,-12
2021-09-23 21:06:17.201478,9
2021-09-23 21:06:17.201483,12
2021-09-23 21:06:17.201489,14
2021-09-23 21:06:17.201495,33
2021-09-23 21:06:17.201501,48
2021-09-23 21:06:17.201507,55
2021-09-23 21:06:17.201516,74
2021-09-23 21:06:17.201522,91
2021-09-23 21:06:17.201528,96
2021-09-23 21:06:17.201534,101
2021-09-23 21:06:17.201540,110
2021-09-23 21:06:17.201545,113
2021-09-23 21:06:17.381538,88
2021-09-23 21:06:17.381565,57
2021-09-23 21:06:17.381570,50
2021-09-23 21:06:17.381579,19
2021-09-23 21:06:17.381583,-36
2021-09-23 21:06:17.381586,-69
2021-09-23 21:06:17.381596,-76
2021-09-23 21:06:17.381599,-79
2021-09-23 21:06:17.381602,-96
2021-09-23 21:06:17.381611,-117
2021-09-23 21:06:17.381615,-103
2021-09-23 21:06:17.381623,-88
2021-09-23 21:06:17.381627,-96
2021-09-23 21:06:17.381630,-103
2021-09-23 21:06:17.381639,-125
2021-09-23 21:06:17.381643,-127
2021-09-23 21:06:17.381646,-98
2021-09-23 21:06:17.381655,-93
2021-09-23 21:06:17.381658,-105
2021-09-23 21:06:17.381661,-86
2021-09-23 21:06:17.381670,-74
2021-09-23 21:06:17.381674,-81
2021-09-23 21:06:17.381678,-60
2021-09-23 21:06:17.381688,-36
2021-09-23 21:06:17.381691,-45
2021-09-23 21:06:17.381694,-45
2021-09-23 21:06:17.381704,-19
2021-09-23 21:06:17.381707,-26
2021-09-23 21:06:17.381710,-55
2021-09-23 21:06:17.381719,-50
2021-09-23 21:06:17.695813,-36
2021-09-23 21:06:17.695831,-38
2021-09-23 21:06:17.695837,-43
2021-09-23 21:06:17.695843,-43
2021-09-23 21:06:17.695849,-45
2021-09-23 21:06:17.695855,-52
2021-09-23 21:06:17.695861,-57
2021-09-23 21:06:17.695867,-50
2021-09-23 21:06:17.695873,-40
2021-09-23 21:06:17.695879,-43
2021-09-23 21:06:17.695885,-50
2021-09-23 21:06:17.695891,-48
2021-09-23 21:06:17.695897,-40
2021-09-23 21:06:17.695902,-55
2021-09-23 21:06:17.695908,-72
2021-09-23 21:06:17.695914,-55
2021-09-23 21:06:17.695920,-28
2021-09-23 21:06:17.695926,-21
2021-09-23 21:06:17.695932,-33
2021-09-23 21:06:17.695937,-28
2021-09-23 21:06:17.695943,-2
2021-09-23 21:06:17.695949,-4
2021-09-23 21:06:17.695955,-31
2021-09-23 21:06:17.695960,-36
2021-09-23 21:06:17.695969,-28
2021-09-23 21:06:17.695975,-24
2021-09-23 21:06:17.695981,-7
2021-09-23 21:06:17.695987,19
2021-09-23 21:06:17.695993,134
2021-09-23 21:06:17.695999,483
2021-09-23 21:06:17.920117,1019
2021-09-23 21:06:17.920136,1139
2021-09-23 21:06:17.920143,216
2021-09-23 21:06:17.920149,-702
2021-09-23 21:06:17.920155,-425
2021-09-23 21:06:17.920160,7
2021-09-23 21:06:17.920166,-146
2021-09-23 21:06:17.920171,-177
2021-09-23 21:06:17.920177,-38
2021-09-23 21:06:17.920182,-76
2021-09-23 21:06:17.920187,-110
2021-09-23 21:06:17.920193,-40
2021-09-23 21:06:17.920198,-28
2021-09-23 21:06:17.920204,-48
2021-09-23 21:06:17.920209,-12
2021-09-23 21:06:17.920215,9
2021-09-23 21:06:17.920220,-12
2021-09-23 21:06:17.920226,-9
2021-09-23 21:06:17.920231,12
2021-09-23 21:06:17.920237,21
2021-09-23 21:06:17.920242,28
2021-09-23 21:06:17.920248,43
2021-09-23 21:06:17.920253,72
2021-09-23 21:06:17.920258,98
2021-09-23 21:06:17.920264,103
2021-09-23 21:06:17.920269,113
2021-09-23 21:06:17.920275,122
2021-09-23 21:06:17.920281,110
2021-09-23 21:06:17.920286,88
2021-09-23 21:06:17.920292,76
2021-09-23 21:06:18.146925,69
2021-09-23 21:06:18.146943,50
2021-09-23 21:06:18.146950,9
2021-09-23 21:06:18.146956,-19
2021-09-23 21:06:18.146962,-38
2021-09-23 21:06:18.146968,-72
2021-09-23 21:06:18.146974,-98
2021-09-23 21:06:18.146979,-101
2021-09-23 21:06:18.146985,-98
2021-09-23 21:06:18.146991,-103
2021-09-23 21:06:18.146997,-110
2021-09-23 21:06:18.147002,-117
2021-09-23 21:06:18.147008,-115
2021-09-23 21:06:18.147014,-113
2021-09-23 21:06:18.147020,-105
2021-09-23 21:06:18.147026,-101
2021-09-23 21:06:18.147032,-101
2021-09-23 21:06:18.147038,-93
2021-09-23 21:06:18.147043,-72
2021-09-23 21:06:18.147049,-60
2021-09-23 21:06:18.147055,-62
2021-09-23 21:06:18.147061,-67
2021-09-23 21:06:18.147066,-60
2021-09-23 21:06:18.147072,-43
2021-09-23 21:06:18.147078,-45
2021-09-23 21:06:18.147083,-62
2021-09-23 21:06:18.147089,-60
2021-09-23 21:06:18.147095,-57
2021-09-23 21:06:18.147100,-60
2021-09-23 21:06:18.147106,-48
2021-09-23 21:06:18.281375,-45
2021-09-23 21:06:18.281392,-62
2021-09-23 21:06:18.281399,-55
2021-09-23 21:06:18.281405,-33
2021-09-23 21:06:18.281411,-45
2021-09-23 21:06:18.281417,-67
2021-09-23 21:06:18.281422,-48
2021-09-23 21:06:18.281428,-33
2021-09-23 21:06:18.281434,-60
2021-09-23 21:06:18.281440,-74
2021-09-23 21:06:18.281451,-55
2021-09-23 21:06:18.281457,-48
2021-09-23 21:06:18.281463,-38
2021-09-23 21:06:18.281469,-33
2021-09-23 21:06:18.281475,-48
2021-09-23 21:06:18.281481,-43
2021-09-23 21:06:18.281487,-33
2021-09-23 21:06:18.281493,-40
2021-09-23 21:06:18.281499,-24
2021-09-23 21:06:18.281504,0
2021-09-23 21:06:18.281510,-9
2021-09-23 21:06:18.281516,-24
2021-09-23 21:06:18.281522,-28
2021-09-23 21:06:18.281528,-40
2021-09-23 21:06:18.281534,-43
2021-09-23 21:06:18.281539,-26
2021-09-23 21:06:18.281545,-16
2021-09-23 21:06:18.281551,-7
2021-09-23 21:06:18.281557,62
2021-09-23 21:06:18.281563,317
2021-09-23 21:06:18.506412,774
2021-09-23 21:06:18.506429,1098
2021-09-23 21:06:18.506436,562
2021-09-23 21:06:18.506442,-521
2021-09-23 21:06:18.506448,-666
2021-09-23 21:06:18.506454,-120
2021-09-23 21:06:18.506460,-72
2021-09-23 21:06:18.506466,-180
2021-09-23 21:06:18.506472,-52
2021-09-23 21:06:18.506477,-24
2021-09-23 21:06:18.506483,-84
2021-09-23 21:06:18.506489,-43
2021-09-23 21:06:18.506495,-12
2021-09-23 21:06:18.506500,-28
2021-09-23 21:06:18.506506,-4
2021-09-23 21:06:18.506512,16
2021-09-23 21:06:18.506517,2
2021-09-23 21:06:18.506523,16
2021-09-23 21:06:18.506529,48
2021-09-23 21:06:18.506535,45
2021-09-23 21:06:18.506540,33
2021-09-23 21:06:18.506546,57
2021-09-23 21:06:18.506552,98
2021-09-23 21:06:18.506557,115
2021-09-23 21:06:18.506563,113
2021-09-23 21:06:18.506574,117
2021-09-23 21:06:18.506580,129
2021-09-23 21:06:18.506585,137
2021-09-23 21:06:18.506591,127
2021-09-23 21:06:18.506597,101
2021-09-23 21:06:18.776461,69
2021-09-23 21:06:18.776479,50
2021-09-23 21:06:18.776486,28
2021-09-23 21:06:18.776492,-16
2021-09-23 21:06:18.776498,-55
2021-09-23 21:06:18.776504,-79
2021-09-23 21:06:18.776510,-98
2021-09-23 21:06:18.776516,-105
2021-09-23 21:06:18.776522,-115
2021-09-23 21:06:18.776528,-149
2021-09-23 21:06:18.776534,-161
2021-09-23 21:06:18.776540,-144
2021-09-23 21:06:18.776545,-139
2021-09-23 21:06:18.776551,-139
2021-09-23 21:06:18.776557,-120
2021-09-23 21:06:18.776563,-101
2021-09-23 21:06:18.776568,-101
2021-09-23 21:06:18.776574,-96
2021-09-23 21:06:18.776580,-79
2021-09-23 21:06:18.776585,-69
2021-09-23 21:06:18.776591,-72
2021-09-23 21:06:18.776597,-72
2021-09-23 21:06:18.776603,-60
2021-09-23 21:06:18.776608,-40
2021-09-23 21:06:18.776614,-36
2021-09-23 21:06:18.776620,-43
2021-09-23 21:06:18.776626,-45
2021-09-23 21:06:18.776631,-43
2021-09-23 21:06:18.776637,-48
2021-09-23 21:06:18.776643,-57
2021-09-23 21:06:19.046452,-55
2021-09-23 21:06:19.046471,-52
2021-09-23 21:06:19.046479,-57
2021-09-23 21:06:19.046485,-60
2021-09-23 21:06:19.046491,-48
2021-09-23 21:06:19.046497,-31
2021-09-23 21:06:19.046503,-28
2021-09-23 21:06:19.046509,-36
2021-09-23 21:06:19.046515,-43
2021-09-23 21:06:19.046520,-50
2021-09-23 21:06:19.046526,-40
2021-09-23 21:06:19.046532,-31
2021-09-23 21:06:19.046538,-40
2021-09-23 21:06:19.046544,-40
2021-09-23 21:06:19.046549,-28
2021-09-23 21:06:19.046555,-26
2021-09-23 21:06:19.046565,-12
2021-09-23 21:06:19.046571,2
2021-09-23 21:06:19.046577,-12
2021-09-23 21:06:19.046583,-28
2021-09-23 21:06:19.046589,-31
2021-09-23 21:06:19.046595,-40
2021-09-23 21:06:19.046600,-38
2021-09-23 21:06:19.046606,-7
2021-09-23 21:06:19.046612,50
2021-09-23 21:06:19.046621,238
2021-09-23 21:06:19.046627,658
2021-09-23 21:06:19.046633,1132
2021-09-23 21:06:19.046639,858
2021-09-23 21:06:19.046645,-271
2021-09-23 21:06:19.270815,-726
2021-09-23 21:06:19.270833,-197
2021-09-23 21:06:19.270840,-14
2021-09-23 21:06:19.270846,-182
2021-09-23 21:06:19.270852,-103
2021-09-23 21:06:19.270858,-16
2021-09-23 21:06:19.270864,-57
2021-09-23 21:06:19.270870,-52
2021-09-23 21:06:19.270876,-26
2021-09-23 21:06:19.270882,-33
2021-09-23 21:06:19.270888,-24
2021-09-23 21:06:19.270894,0
2021-09-23 21:06:19.270899,7
2021-09-23 21:06:19.270905,7
2021-09-23 21:06:19.270911,28
2021-09-23 21:06:19.270917,48
2021-09-23 21:06:19.270922,36
2021-09-23 21:06:19.270928,43
2021-09-23 21:06:19.270934,67
2021-09-23 21:06:19.270940,69
2021-09-23 21:06:19.270946,84
2021-09-23 21:06:19.270951,117
2021-09-23 21:06:19.270957,129
2021-09-23 21:06:19.270963,125
2021-09-23 21:06:19.270969,120
2021-09-23 21:06:19.270974,105
2021-09-23 21:06:19.270980,79
2021-09-23 21:06:19.270986,55
2021-09-23 21:06:19.270992,21
2021-09-23 21:06:19.270997,-24
2021-09-23 21:06:19.451433,-55
2021-09-23 21:06:19.451451,-76
2021-09-23 21:06:19.451459,-96
2021-09-23 21:06:19.451465,-110
2021-09-23 21:06:19.451471,-117
2021-09-23 21:06:19.451477,-120
2021-09-23 21:06:19.451482,-122
2021-09-23 21:06:19.451488,-127
2021-09-23 21:06:19.451494,-122
2021-09-23 21:06:19.451500,-127
2021-09-23 21:06:19.451506,-132
2021-09-23 21:06:19.451511,-108
2021-09-23 21:06:19.451517,-86
2021-09-23 21:06:19.451526,-91
2021-09-23 21:06:19.451532,-91
2021-09-23 21:06:19.451538,-81
2021-09-23 21:06:19.451544,-69
2021-09-23 21:06:19.451549,-52
2021-09-23 21:06:19.451555,-50
2021-09-23 21:06:19.451561,-50
2021-09-23 21:06:19.451567,-40
2021-09-23 21:06:19.451573,-43
2021-09-23 21:06:19.451578,-48
2021-09-23 21:06:19.451584,-38
2021-09-23 21:06:19.451590,-43
2021-09-23 21:06:19.451596,-57
2021-09-23 21:06:19.451602,-64
2021-09-23 21:06:19.451607,-64
2021-09-23 21:06:19.451613,-45
2021-09-23 21:06:19.451619,-28
2021-09-23 21:06:19.676479,-38
2021-09-23 21:06:19.676498,-45
2021-09-23 21:06:19.676505,-48
2021-09-23 21:06:19.676511,-50
2021-09-23 21:06:19.676517,-33
2021-09-23 21:06:19.676523,-26
2021-09-23 21:06:19.676529,-36
2021-09-23 21:06:19.676535,-38
2021-09-23 21:06:19.676541,-45
2021-09-23 21:06:19.676546,-55
2021-09-23 21:06:19.676552,-28
2021-09-23 21:06:19.676558,2
2021-09-23 21:06:19.676564,-7
2021-09-23 21:06:19.676569,-9
2021-09-23 21:06:19.676575,-2
2021-09-23 21:06:19.676581,-26
2021-09-23 21:06:19.676587,-48
2021-09-23 21:06:19.676593,-33
2021-09-23 21:06:19.676598,-26
2021-09-23 21:06:19.676604,-26
2021-09-23 21:06:19.676610,2
2021-09-23 21:06:19.676615,45
2021-09-23 21:06:19.676621,180
2021-09-23 21:06:19.676627,555
2021-09-23 21:06:19.676633,1060
2021-09-23 21:06:19.676639,981
2021-09-23 21:06:19.676644,-69
2021-09-23 21:06:19.676650,-755
2021-09-23 21:06:19.676656,-322
2021-09-23 21:06:19.676661,-24
2021-09-23 21:06:19.990102,-177
2021-09-23 21:06:19.990121,-125
2021-09-23 21:06:19.990129,-33
2021-09-23 21:06:19.990135,-88
2021-09-23 21:06:19.990140,-67
2021-09-23 21:06:19.990146,-16
2021-09-23 21:06:19.990152,-43
2021-09-23 21:06:19.990158,-33
2021-09-23 21:06:19.990164,2
2021-09-23 21:06:19.990170,-4
2021-09-23 21:06:19.990176,-7
2021-09-23 21:06:19.990182,9
2021-09-23 21:06:19.990187,14
2021-09-23 21:06:19.990193,31
2021-09-23 21:06:19.990199,52
2021-09-23 21:06:19.990205,67
2021-09-23 21:06:19.990211,93
2021-09-23 21:06:19.990219,101
2021-09-23 21:06:19.990225,103
2021-09-23 21:06:19.990231,122
2021-09-23 21:06:19.990237,125
2021-09-23 21:06:19.990243,115
2021-09-23 21:06:19.990248,117
2021-09-23 21:06:19.990254,103
2021-09-23 21:06:19.990260,72
2021-09-23 21:06:19.990266,48
2021-09-23 21:06:19.990271,19
2021-09-23 21:06:19.990277,-26
2021-09-23 21:06:19.990283,-72
2021-09-23 21:06:19.990289,-93
2021-09-23 21:06:20.126487,-101
2021-09-23 21:06:20.126505,-105
2021-09-23 21:06:20.126512,-132
2021-09-23 21:06:20.126518,-158
2021-09-23 21:06:20.126524,-146
2021-09-23 21:06:20.126530,-127
2021-09-23 21:06:20.126536,-129
2021-09-23 21:06:20.126542,-141
2021-09-23 21:06:20.126548,-141
2021-09-23 21:06:20.126554,-122
2021-09-23 21:06:20.126560,-103
2021-09-23 21:06:20.126566,-81
2021-09-23 21:06:20.126572,-64
2021-09-23 21:06:20.126578,-76
2021-09-23 21:06:20.126584,-88
2021-09-23 21:06:20.126590,-67
2021-09-23 21:06:20.126595,-40
2021-09-23 21:06:20.126601,-45
2021-09-23 21:06:20.126607,-50
2021-09-23 21:06:20.126612,-38
2021-09-23 21:06:20.126618,-43
2021-09-23 21:06:20.126624,-50
2021-09-23 21:06:20.126630,-50
2021-09-23 21:06:20.126635,-60
2021-09-23 21:06:20.126641,-38
2021-09-23 21:06:20.126647,-12
2021-09-23 21:06:20.126653,-36
2021-09-23 21:06:20.126659,-60
2021-09-23 21:06:20.126665,-45
2021-09-23 21:06:20.126671,-43
2021-09-23 21:06:20.351447,-55
2021-09-23 21:06:20.351467,-45
2021-09-23 21:06:20.351474,-24
2021-09-23 21:06:20.351480,-36
2021-09-23 21:06:20.351486,-45
2021-09-23 21:06:20.351492,-36
2021-09-23 21:06:20.351498,-38
2021-09-23 21:06:20.351504,-50
2021-09-23 21:06:20.351510,-52
2021-09-23 21:06:20.351516,-45
2021-09-23 21:06:20.351521,-40
2021-09-23 21:06:20.351527,-26
2021-09-23 21:06:20.351533,21
2021-09-23 21:06:20.351539,189
2021-09-23 21:06:20.351545,557
2021-09-23 21:06:20.351550,1017
2021-09-23 21:06:20.351556,877
2021-09-23 21:06:20.351562,-173
2021-09-23 21:06:20.351568,-764
2021-09-23 21:06:20.351574,-286
2021-09-23 21:06:20.351580,-16
2021-09-23 21:06:20.351585,-187
2021-09-23 21:06:20.351591,-117
2021-09-23 21:06:20.351597,-2
2021-09-23 21:06:20.351603,-55
2021-09-23 21:06:20.351608,-57
2021-09-23 21:06:20.351614,-2
2021-09-23 21:06:20.351619,-2
2021-09-23 21:06:20.351625,-12
2021-09-23 21:06:20.351634,-2
2021-09-23 21:06:20.621503,7
2021-09-23 21:06:20.621522,36
2021-09-23 21:06:20.621529,52
2021-09-23 21:06:20.621535,28
2021-09-23 21:06:20.621541,26
2021-09-23 21:06:20.621547,60
2021-09-23 21:06:20.621553,88
2021-09-23 21:06:20.621559,115
2021-09-23 21:06:20.621565,132
2021-09-23 21:06:20.621571,132
2021-09-23 21:06:20.621577,144
2021-09-23 21:06:20.621582,149
2021-09-23 21:06:20.621588,132
2021-09-23 21:06:20.621594,127
2021-09-23 21:06:20.621600,108
2021-09-23 21:06:20.621606,55
2021-09-23 21:06:20.621612,21
2021-09-23 21:06:20.621617,0
2021-09-23 21:06:20.621623,-50
2021-09-23 21:06:20.621629,-86
2021-09-23 21:06:20.621635,-86
2021-09-23 21:06:20.621640,-101
2021-09-23 21:06:20.621646,-127
2021-09-23 21:06:20.621652,-137
2021-09-23 21:06:20.621658,-132
2021-09-23 21:06:20.621663,-127
2021-09-23 21:06:20.621669,-132
2021-09-23 21:06:20.621675,-134
2021-09-23 21:06:20.621681,-122
2021-09-23 21:06:20.621686,-113
2021-09-23 21:06:20.846469,-108
2021-09-23 21:06:20.846488,-91
2021-09-23 21:06:20.846495,-72
2021-09-23 21:06:20.846501,-81
2021-09-23 21:06:20.846507,-81
2021-09-23 21:06:20.846513,-55
2021-09-23 21:06:20.846519,-55
2021-09-23 21:06:20.846525,-69
2021-09-23 21:06:20.846531,-60
2021-09-23 21:06:20.846537,-52
2021-09-23 21:06:20.846543,-60
2021-09-23 21:06:20.846549,-60
2021-09-23 21:06:20.846555,-52
2021-09-23 21:06:20.846561,-55
2021-09-23 21:06:20.846567,-69
2021-09-23 21:06:20.846572,-72
2021-09-23 21:06:20.846578,-55
2021-09-23 21:06:20.846584,-52
2021-09-23 21:06:20.846589,-60
2021-09-23 21:06:20.846595,-48
2021-09-23 21:06:20.846601,-43
2021-09-23 21:06:20.846607,-55
2021-09-23 21:06:20.846612,-52
2021-09-23 21:06:20.846618,-33
2021-09-23 21:06:20.846624,-33
2021-09-23 21:06:20.846629,-40
2021-09-23 21:06:20.846635,-38
2021-09-23 21:06:20.846641,-24
2021-09-23 21:06:20.846646,-7
2021-09-23 21:06:20.846652,-2
2021-09-23 21:06:21.071486,0
2021-09-23 21:06:21.071504,-4
2021-09-23 21:06:21.071511,-26
2021-09-23 21:06:21.071517,-38
2021-09-23 21:06:21.071523,-21
2021-09-23 21:06:21.071529,-9
2021-09-23 21:06:21.071535,-2
2021-09-23 21:06:21.071541,21
2021-09-23 21:06:21.071546,141
2021-09-23 21:06:21.071552,483
2021-09-23 21:06:21.071558,995
2021-09-23 21:06:21.071564,1086
2021-09-23 21:06:21.071570,180
2021-09-23 21:06:21.071575,-687
2021-09-23 21:06:21.071581,-418
2021-09-23 21:06:21.071587,-24
2021-09-23 21:06:21.071593,-158
2021-09-23 21:06:21.071599,-161
2021-09-23 21:06:21.071604,-31
2021-09-23 21:06:21.071610,-69
2021-09-23 21:06:21.071619,-96
2021-09-23 21:06:21.071625,-26
2021-09-23 21:06:21.071631,-14
2021-09-23 21:06:21.071637,-33
2021-09-23 21:06:21.071642,-7
2021-09-23 21:06:21.071649,9
2021-09-23 21:06:21.071654,-4
2021-09-23 21:06:21.071660,9
2021-09-23 21:06:21.071666,40
2021-09-23 21:06:21.071672,48
2021-09-23 21:06:21.341444,52
2021-09-23 21:06:21.341462,81
2021-09-23 21:06:21.341469,96
2021-09-23 21:06:21.341476,98
2021-09-23 21:06:21.341482,120
2021-09-23 21:06:21.341487,144
2021-09-23 21:06:21.341493,146
2021-09-23 21:06:21.341499,137
2021-09-23 21:06:21.341505,120
2021-09-23 21:06:21.341511,91
2021-09-23 21:06:21.341517,55
2021-09-23 21:06:21.341522,14
2021-09-23 21:06:21.341528,-19
2021-09-23 21:06:21.341534,-40
2021-09-23 21:06:21.341540,-64
2021-09-23 21:06:21.341545,-91
2021-09-23 21:06:21.341551,-103
2021-09-23 21:06:21.341557,-115
2021-09-23 21:06:21.341563,-137
2021-09-23 21:06:21.341568,-141
2021-09-23 21:06:21.341574,-129
2021-09-23 21:06:21.341580,-117
2021-09-23 21:06:21.341586,-108
2021-09-23 21:06:21.341591,-110
2021-09-23 21:06:21.341597,-113
2021-09-23 21:06:21.341603,-101
2021-09-23 21:06:21.341609,-101
2021-09-23 21:06:21.341615,-103
2021-09-23 21:06:21.341621,-79
2021-09-23 21:06:21.341626,-69
2021-09-23 21:06:21.566470,-81
2021-09-23 21:06:21.566488,-72
2021-09-23 21:06:21.566496,-50
2021-09-23 21:06:21.566502,-45
2021-09-23 21:06:21.566508,-40
2021-09-23 21:06:21.566513,-38
2021-09-23 21:06:21.566519,-57
2021-09-23 21:06:21.566525,-76
2021-09-23 21:06:21.566531,-62
2021-09-23 21:06:21.566537,-36
2021-09-23 21:06:21.566543,-36
2021-09-23 21:06:21.566549,-52
2021-09-23 21:06:21.566554,-57
2021-09-23 21:06:21.566560,-50
2021-09-23 21:06:21.566566,-43
2021-09-23 21:06:21.566572,-38
2021-09-23 21:06:21.566577,-33
2021-09-23 21:06:21.566583,-50
2021-09-23 21:06:21.566589,-74
2021-09-23 21:06:21.566594,-52
2021-09-23 21:06:21.566600,-24
2021-09-23 21:06:21.566606,-21
2021-09-23 21:06:21.566612,-12
2021-09-23 21:06:21.566617,-4
2021-09-23 21:06:21.566623,-14
2021-09-23 21:06:21.566629,-28
2021-09-23 21:06:21.566635,-38
2021-09-23 21:06:21.566640,-36
2021-09-23 21:06:21.566646,-19
2021-09-23 21:06:21.566652,-7
2021-09-23 21:06:21.836426,21
2021-09-23 21:06:21.836444,161
2021-09-23 21:06:21.836451,509
2021-09-23 21:06:21.836457,983
2021-09-23 21:06:21.836463,981
2021-09-23 21:06:21.836469,14
2021-09-23 21:06:21.836475,-776
2021-09-23 21:06:21.836480,-413
2021-09-23 21:06:21.836486,-19
2021-09-23 21:06:21.836492,-149
2021-09-23 21:06:21.836498,-137
2021-09-23 21:06:21.836503,-28
2021-09-23 21:06:21.836509,-72
2021-09-23 21:06:21.836515,-72
2021-09-23 21:06:21.836521,-9
2021-09-23 21:06:21.836526,-24
2021-09-23 21:06:21.836532,-57
2021-09-23 21:06:21.836538,-36
2021-09-23 21:06:21.836544,-9
2021-09-23 21:06:21.836550,-2
2021-09-23 21:06:21.836556,12
2021-09-23 21:06:21.836561,28
2021-09-23 21:06:21.836571,31
2021-09-23 21:06:21.836577,48
2021-09-23 21:06:21.836583,84
2021-09-23 21:06:21.836589,103
2021-09-23 21:06:21.836594,117
2021-09-23 21:06:21.836600,141
2021-09-23 21:06:21.836606,144
2021-09-23 21:06:21.836612,134
2021-09-23 21:06:22.105761,146
2021-09-23 21:06:22.105779,151
2021-09-23 21:06:22.105786,115
2021-09-23 21:06:22.105792,81
2021-09-23 21:06:22.105798,57
2021-09-23 21:06:22.105804,14
2021-09-23 21:06:22.105810,-36
2021-09-23 21:06:22.105816,-52
2021-09-23 21:06:22.105822,-69
2021-09-23 21:06:22.105828,-96
2021-09-23 21:06:22.105833,-108
2021-09-23 21:06:22.105839,-125
2021-09-23 21:06:22.105845,-134
2021-09-23 21:06:22.105851,-113
2021-09-23 21:06:22.105856,-110
2021-09-23 21:06:22.105862,-132
2021-09-23 21:06:22.105868,-125
2021-09-23 21:06:22.105874,-98
2021-09-23 21:06:22.105880,-93
2021-09-23 21:06:22.105886,-86
2021-09-23 21:06:22.105891,-67
2021-09-23 21:06:22.105897,-62
2021-09-23 21:06:22.105902,-64
2021-09-23 21:06:22.105908,-48
2021-09-23 21:06:22.105914,-24
2021-09-23 21:06:22.105920,-31
2021-09-23 21:06:22.105925,-45
2021-09-23 21:06:22.105931,-33
2021-09-23 21:06:22.105937,-33
2021-09-23 21:06:22.105943,-52
2021-09-23 21:06:22.196400,-57
2021-09-23 21:06:22.196417,-50
2021-09-23 21:06:22.196424,-50
2021-09-23 21:06:22.196430,-48
2021-09-23 21:06:22.196436,-40
2021-09-23 21:06:22.196442,-38
2021-09-23 21:06:22.196448,-38
2021-09-23 21:06:22.196454,-31
2021-09-23 21:06:22.196460,-28
2021-09-23 21:06:22.196466,-40
2021-09-23 21:06:22.196472,-55
2021-09-23 21:06:22.196478,-55
2021-09-23 21:06:22.196483,-45
2021-09-23 21:06:22.196489,-33
2021-09-23 21:06:22.196495,-19
2021-09-23 21:06:22.196501,-16
2021-09-23 21:06:22.196506,-19
2021-09-23 21:06:22.196512,-16
2021-09-23 21:06:22.196518,-16
2021-09-23 21:06:22.196524,-36
2021-09-23 21:06:22.196529,-60
2021-09-23 21:06:22.196535,-60
2021-09-23 21:06:22.196541,-45
2021-09-23 21:06:22.196546,-28
2021-09-23 21:06:22.196552,21
2021-09-23 21:06:22.196558,221
2021-09-23 21:06:22.196564,654
2021-09-23 21:06:22.196570,1130
2021-09-23 21:06:22.196576,901
2021-09-23 21:06:22.196582,-194
2021-09-23 21:06:22.466516,-719
2021-09-23 21:06:22.466535,-245
2021-09-23 21:06:22.466542,-40
2021-09-23 21:06:22.466548,-202
2021-09-23 21:06:22.466554,-132
2021-09-23 21:06:22.466560,-45
2021-09-23 21:06:22.466566,-96
2021-09-23 21:06:22.466572,-84
2021-09-23 21:06:22.466578,-40
2021-09-23 21:06:22.466583,-55
2021-09-23 21:06:22.466589,-62
2021-09-23 21:06:22.466595,-28
2021-09-23 21:06:22.466601,-12
2021-09-23 21:06:22.466607,-2
2021-09-23 21:06:22.466612,19
2021-09-23 21:06:22.466618,24
2021-09-23 21:06:22.466624,26
2021-09-23 21:06:22.466630,43
2021-09-23 21:06:22.466635,57
2021-09-23 21:06:22.466641,81
2021-09-23 21:06:22.466647,108
2021-09-23 21:06:22.466653,113
2021-09-23 21:06:22.466658,113
2021-09-23 21:06:22.466664,149
2021-09-23 21:06:22.466670,153
2021-09-23 21:06:22.466675,115
2021-09-23 21:06:22.466681,88
2021-09-23 21:06:22.466687,72
2021-09-23 21:06:22.466693,31
2021-09-23 21:06:22.466698,-2
2021-09-23 21:06:22.691468,-24
2021-09-23 21:06:22.691487,-52
2021-09-23 21:06:22.691494,-81
2021-09-23 21:06:22.691500,-88
2021-09-23 21:06:22.691506,-91
2021-09-23 21:06:22.691518,-103
2021-09-23 21:06:22.691524,-105
2021-09-23 21:06:22.691530,-101
2021-09-23 21:06:22.691536,-120
2021-09-23 21:06:22.691541,-132
2021-09-23 21:06:22.691547,-108
2021-09-23 21:06:22.691553,-96
2021-09-23 21:06:22.691559,-105
2021-09-23 21:06:22.691565,-88
2021-09-23 21:06:22.691570,-72
2021-09-23 21:06:22.691576,-76
2021-09-23 21:06:22.691582,-72
2021-09-23 21:06:22.691587,-57
2021-09-23 21:06:22.691593,-43
2021-09-23 21:06:22.691599,-33
2021-09-23 21:06:22.691604,-40
2021-09-23 21:06:22.691610,-60
2021-09-23 21:06:22.691616,-57
2021-09-23 21:06:22.691621,-45
2021-09-23 21:06:22.691627,-48
2021-09-23 21:06:22.691633,-50
2021-09-23 21:06:22.691638,-64
2021-09-23 21:06:22.691644,-84
2021-09-23 21:06:22.691649,-67
2021-09-23 21:06:22.691655,-48
2021-09-23 21:06:22.916446,-62
2021-09-23 21:06:22.916464,-69
2021-09-23 21:06:22.916471,-60
2021-09-23 21:06:22.916477,-62
2021-09-23 21:06:22.916483,-74
2021-09-23 21:06:22.916489,-67
2021-09-23 21:06:22.916495,-50
2021-09-23 21:06:22.916501,-40
2021-09-23 21:06:22.916507,-26
2021-09-23 21:06:22.916513,-9
2021-09-23 21:06:22.916519,-16
2021-09-23 21:06:22.916524,-50
2021-09-23 21:06:22.916530,-67
2021-09-23 21:06:22.916536,-57
2021-09-23 21:06:22.916542,-50
2021-09-23 21:06:22.916548,-50
2021-09-23 21:06:22.916553,-33
2021-09-23 21:06:22.916559,36
2021-09-23 21:06:22.916565,271
2021-09-23 21:06:22.916571,723
2021-09-23 21:06:22.916576,1135
2021-09-23 21:06:22.916582,750
2021-09-23 21:06:22.916588,-375
2021-09-23 21:06:22.916594,-702
2021-09-23 21:06:22.916599,-158
2021-09-23 21:06:22.916605,-62
2021-09-23 21:06:22.916611,-226
2021-09-23 21:06:22.916617,-86
2021-09-23 21:06:22.916622,-14
2021-09-23 21:06:22.916628,-93
2021-09-23 21:06:23.141486,-60
2021-09-23 21:06:23.141505,2
2021-09-23 21:06:23.141512,-14
2021-09-23 21:06:23.141518,-24
2021-09-23 21:06:23.141524,0
2021-09-23 21:06:23.141530,2
2021-09-23 21:06:23.141536,4
2021-09-23 21:06:23.141542,21
2021-09-23 21:06:23.141548,31
2021-09-23 21:06:23.141554,38
2021-09-23 21:06:23.141559,57
2021-09-23 21:06:23.141565,84
2021-09-23 21:06:23.141571,101
2021-09-23 21:06:23.141576,117
2021-09-23 21:06:23.141582,134
2021-09-23 21:06:23.141588,134
2021-09-23 21:06:23.141593,134
2021-09-23 21:06:23.141599,153
2021-09-23 21:06:23.141605,151
2021-09-23 21:06:23.141611,105
2021-09-23 21:06:23.141616,60
2021-09-23 21:06:23.141622,26
2021-09-23 21:06:23.141628,-16
2021-09-23 21:06:23.141634,-50
2021-09-23 21:06:23.141639,-62
2021-09-23 21:06:23.141645,-72
2021-09-23 21:06:23.141651,-88
2021-09-23 21:06:23.141656,-108
2021-09-23 21:06:23.141662,-120
2021-09-23 21:06:23.141668,-117
2021-09-23 21:06:23.366522,-110
2021-09-23 21:06:23.366540,-105
2021-09-23 21:06:23.366548,-110
2021-09-23 21:06:23.366554,-120
2021-09-23 21:06:23.366560,-122
2021-09-23 21:06:23.366565,-105
2021-09-23 21:06:23.366571,-86
2021-09-23 21:06:23.366577,-86
2021-09-23 21:06:23.366583,-88
2021-09-23 21:06:23.366589,-84
2021-09-23 21:06:23.366594,-62
2021-09-23 21:06:23.366600,-55
2021-09-23 21:06:23.366606,-60
2021-09-23 21:06:23.366612,-52
2021-09-23 21:06:23.366618,-45
2021-09-23 21:06:23.366623,-43
2021-09-23 21:06:23.366629,-36
2021-09-23 21:06:23.366635,-40
2021-09-23 21:06:23.366641,-52
2021-09-23 21:06:23.366646,-48
2021-09-23 21:06:23.366652,-48
2021-09-23 21:06:23.366658,-62
2021-09-23 21:06:23.366664,-57
2021-09-23 21:06:23.366669,-40
2021-09-23 21:06:23.366675,-45
2021-09-23 21:06:23.366680,-48
2021-09-23 21:06:23.366686,-43
2021-09-23 21:06:23.366692,-31
2021-09-23 21:06:23.366697,-21
2021-09-23 21:06:23.366703,-28
2021-09-23 21:06:23.591465,-36
2021-09-23 21:06:23.591489,-31
2021-09-23 21:06:23.591497,-38
2021-09-23 21:06:23.591503,-38
2021-09-23 21:06:23.591509,-28
2021-09-23 21:06:23.591515,-33
2021-09-23 21:06:23.591521,-40
2021-09-23 21:06:23.591527,-7
2021-09-23 21:06:23.591533,72
2021-09-23 21:06:23.591538,290
2021-09-23 21:06:23.591544,757
2021-09-23 21:06:23.591550,1149
2021-09-23 21:06:23.591556,634
2021-09-23 21:06:23.591562,-468
2021-09-23 21:06:23.591567,-625
2021-09-23 21:06:23.591573,-88
2021-09-23 21:06:23.591579,-55
2021-09-23 21:06:23.591585,-189
2021-09-23 21:06:23.591590,-72
2021-09-23 21:06:23.591596,-28
2021-09-23 21:06:23.591602,-86
2021-09-23 21:06:23.591608,-57
2021-09-23 21:06:23.591613,-26
2021-09-23 21:06:23.591619,-40
2021-09-23 21:06:23.591625,-19
2021-09-23 21:06:23.591630,9
2021-09-23 21:06:23.591636,0
2021-09-23 21:06:23.591642,4
2021-09-23 21:06:23.591648,31
2021-09-23 21:06:23.591653,36
2021-09-23 21:06:23.816431,28
2021-09-23 21:06:23.816447,50
2021-09-23 21:06:23.816454,76
2021-09-23 21:06:23.816460,86
2021-09-23 21:06:23.816466,101
2021-09-23 21:06:23.816472,115
2021-09-23 21:06:23.816478,120
2021-09-23 21:06:23.816484,125
2021-09-23 21:06:23.816489,117
2021-09-23 21:06:23.816495,96
2021-09-23 21:06:23.816501,64
2021-09-23 21:06:23.816507,31
2021-09-23 21:06:23.816513,12
2021-09-23 21:06:23.816518,-12
2021-09-23 21:06:23.816524,-55
2021-09-23 21:06:23.816530,-93
2021-09-23 21:06:23.816536,-98
2021-09-23 21:06:23.816542,-96
2021-09-23 21:06:23.816548,-110
2021-09-23 21:06:23.816554,-108
2021-09-23 21:06:23.816559,-93
2021-09-23 21:06:23.816565,-96
2021-09-23 21:06:23.816571,-110
2021-09-23 21:06:23.816576,-101
2021-09-23 21:06:23.816582,-81
2021-09-23 21:06:23.816588,-93
2021-09-23 21:06:23.816593,-103
2021-09-23 21:06:23.816599,-86
2021-09-23 21:06:23.816605,-69
2021-09-23 21:06:23.816611,-62
2021-09-23 21:06:24.085218,-50
2021-09-23 21:06:24.085237,-31
2021-09-23 21:06:24.085244,-28
2021-09-23 21:06:24.085250,-48
2021-09-23 21:06:24.085256,-55
2021-09-23 21:06:24.085261,-33
2021-09-23 21:06:24.085267,-28
2021-09-23 21:06:24.085273,-33
2021-09-23 21:06:24.085279,-21
2021-09-23 21:06:24.085285,-24
2021-09-23 21:06:24.085290,-43
2021-09-23 21:06:24.085296,-52
2021-09-23 21:06:24.085302,-52
2021-09-23 21:06:24.085307,-52
2021-09-23 21:06:24.085313,-43
2021-09-23 21:06:24.085319,-31
2021-09-23 21:06:24.085325,-31
2021-09-23 21:06:24.085330,-21
2021-09-23 21:06:24.085336,-7
2021-09-23 21:06:24.085342,-9
2021-09-23 21:06:24.085347,-36
2021-09-23 21:06:24.085353,-45
2021-09-23 21:06:24.085359,-36
2021-09-23 21:06:24.085364,-28
2021-09-23 21:06:24.085370,-21
2021-09-23 21:06:24.085376,7
2021-09-23 21:06:24.085382,79
2021-09-23 21:06:24.085388,319
2021-09-23 21:06:24.085393,800
2021-09-23 21:06:24.085399,1156
2021-09-23 21:06:24.311454,589
2021-09-23 21:06:24.311472,-461
2021-09-23 21:06:24.311479,-531
2021-09-23 21:06:24.311486,-45
2021-09-23 21:06:24.311492,-88
2021-09-23 21:06:24.311498,-204
2021-09-23 21:06:24.311504,-64
2021-09-23 21:06:24.311510,-33
2021-09-23 21:06:24.311515,-91
2021-09-23 21:06:24.311521,-74
2021-09-23 21:06:24.311527,-48
2021-09-23 21:06:24.311533,-45
2021-09-23 21:06:24.311539,-31
2021-09-23 21:06:24.311545,-24
2021-09-23 21:06:24.311550,-28
2021-09-23 21:06:24.311556,-16
2021-09-23 21:06:24.311562,7
2021-09-23 21:06:24.311568,19
2021-09-23 21:06:24.311574,16
2021-09-23 21:06:24.311579,31
2021-09-23 21:06:24.311585,60
2021-09-23 21:06:24.311591,76
2021-09-23 21:06:24.311596,93
2021-09-23 21:06:24.311602,125
2021-09-23 21:06:24.311608,137
2021-09-23 21:06:24.311614,134
2021-09-23 21:06:24.311619,122
2021-09-23 21:06:24.311625,101
2021-09-23 21:06:24.311631,88
2021-09-23 21:06:24.311636,67
2021-09-23 21:06:24.536487,19
2021-09-23 21:06:24.536505,-28
2021-09-23 21:06:24.536512,-60
2021-09-23 21:06:24.536518,-76
2021-09-23 21:06:24.536524,-81
2021-09-23 21:06:24.536530,-79
2021-09-23 21:06:24.536536,-86
2021-09-23 21:06:24.536541,-98
2021-09-23 21:06:24.536547,-115
2021-09-23 21:06:24.536553,-127
2021-09-23 21:06:24.536559,-117
2021-09-23 21:06:24.536570,-108
2021-09-23 21:06:24.536576,-101
2021-09-23 21:06:24.536582,-93
2021-09-23 21:06:24.536587,-96
2021-09-23 21:06:24.536593,-93
2021-09-23 21:06:24.536599,-72
2021-09-23 21:06:24.536605,-55
2021-09-23 21:06:24.536611,-57
2021-09-23 21:06:24.536616,-55
2021-09-23 21:06:24.536622,-57
2021-09-23 21:06:24.536628,-55
2021-09-23 21:06:24.536633,-43
2021-09-23 21:06:24.536639,-36
2021-09-23 21:06:24.536645,-28
2021-09-23 21:06:24.536650,-21
2021-09-23 21:06:24.536656,-28
2021-09-23 21:06:24.536662,-38
2021-09-23 21:06:24.536668,-38
2021-09-23 21:06:24.536673,-38
2021-09-23 21:06:24.761470,-26
2021-09-23 21:06:24.761487,-14
2021-09-23 21:06:24.761494,-28
2021-09-23 21:06:24.761500,-48
2021-09-23 21:06:24.761506,-31
2021-09-23 21:06:24.761512,-14
2021-09-23 21:06:24.761518,-19
2021-09-23 21:06:24.761524,-19
2021-09-23 21:06:24.761530,-16
2021-09-23 21:06:24.761536,-21
2021-09-23 21:06:24.761542,-31
2021-09-23 21:06:24.761547,-50
2021-09-23 21:06:24.761553,-69
2021-09-23 21:06:24.761559,-62
2021-09-23 21:06:24.761564,-48
2021-09-23 21:06:24.761570,-45
2021-09-23 21:06:24.761576,-31
2021-09-23 21:06:24.761582,24
2021-09-23 21:06:24.761588,214
2021-09-23 21:06:24.761594,603
2021-09-23 21:06:24.761599,1017
2021-09-23 21:06:24.761605,767
2021-09-23 21:06:24.761611,-312
2021-09-23 21:06:24.761617,-786
2021-09-23 21:06:24.761623,-245
2021-09-23 21:06:24.761628,-19
2021-09-23 21:06:24.761634,-197
2021-09-23 21:06:24.761640,-120
2021-09-23 21:06:24.761646,-14
2021-09-23 21:06:24.761652,-57
2021-09-23 21:06:24.986470,-62
2021-09-23 21:06:24.986488,-26
2021-09-23 21:06:24.986495,-24
2021-09-23 21:06:24.986501,-19
2021-09-23 21:06:24.986507,0
2021-09-23 21:06:24.986513,4
2021-09-23 21:06:24.986519,14
2021-09-23 21:06:24.986524,33
2021-09-23 21:06:24.986530,38
2021-09-23 21:06:24.986536,40
2021-09-23 21:06:24.986541,60
2021-09-23 21:06:24.986547,84
2021-09-23 21:06:24.986553,88
2021-09-23 21:06:24.986559,96
2021-09-23 21:06:24.986564,113
2021-09-23 21:06:24.986570,127
2021-09-23 21:06:24.986576,132
2021-09-23 21:06:24.986581,125
2021-09-23 21:06:24.986587,101
2021-09-23 21:06:24.986593,72
2021-09-23 21:06:24.986598,52
2021-09-23 21:06:24.986604,21
2021-09-23 21:06:24.986609,-9
2021-09-23 21:06:24.986615,-31
2021-09-23 21:06:24.986621,-64
2021-09-23 21:06:24.986626,-88
2021-09-23 21:06:24.986632,-86
2021-09-23 21:06:24.986637,-91
2021-09-23 21:06:24.986643,-105
2021-09-23 21:06:24.986649,-108
2021-09-23 21:06:25.211414,-105
2021-09-23 21:06:25.211430,-96
2021-09-23 21:06:25.211437,-86
2021-09-23 21:06:25.211443,-81
2021-09-23 21:06:25.211449,-72
2021-09-23 21:06:25.211455,-55
2021-09-23 21:06:25.211460,-55
2021-09-23 21:06:25.211466,-45
2021-09-23 21:06:25.211472,-24
2021-09-23 21:06:25.211478,-26
2021-09-23 21:06:25.211483,-33
2021-09-23 21:06:25.211489,-19
2021-09-23 21:06:25.211495,-12
2021-09-23 21:06:25.211500,-31
2021-09-23 21:06:25.211506,-57
2021-09-23 21:06:25.211512,-57
2021-09-23 21:06:25.211518,-43
2021-09-23 21:06:25.211523,-38
2021-09-23 21:06:25.211529,-43
2021-09-23 21:06:25.211535,-40
2021-09-23 21:06:25.211540,-36
2021-09-23 21:06:25.211546,-28
2021-09-23 21:06:25.211552,-26
2021-09-23 21:06:25.211557,-31
2021-09-23 21:06:25.211563,-24
2021-09-23 21:06:25.211569,-14
2021-09-23 21:06:25.211575,-26
2021-09-23 21:06:25.211580,-52
2021-09-23 21:06:25.211586,-81
2021-09-23 21:06:25.211592,-103
2021-09-23 21:06:25.436445,-103
2021-09-23 21:06:25.436466,-86
2021-09-23 21:06:25.436471,-69
2021-09-23 21:06:25.436477,-48
2021-09-23 21:06:25.436482,72
2021-09-23 21:06:25.436488,391
2021-09-23 21:06:25.436493,822
2021-09-23 21:06:25.436499,820
2021-09-23 21:06:25.436504,-91
2021-09-23 21:06:25.436509,-853
2021-09-23 21:06:25.436514,-466
2021-09-23 21:06:25.436519,-40
2021-09-23 21:06:25.436525,-180
2021-09-23 21:06:25.436530,-165
2021-09-23 21:06:25.436536,-28
2021-09-23 21:06:25.436541,-69
2021-09-23 21:06:25.436546,-101
2021-09-23 21:06:25.436552,-48
2021-09-23 21:06:25.436557,-36
2021-09-23 21:06:25.436562,-45
2021-09-23 21:06:25.436567,-19
2021-09-23 21:06:25.436572,4
2021-09-23 21:06:25.436577,-4
2021-09-23 21:06:25.436582,0
2021-09-23 21:06:25.436588,28
2021-09-23 21:06:25.436594,43
2021-09-23 21:06:25.436599,62
2021-09-23 21:06:25.436605,93
2021-09-23 21:06:25.436610,108
2021-09-23 21:06:25.436615,110
2021-09-23 21:06:25.661480,129
2021-09-23 21:06:25.661496,151
2021-09-23 21:06:25.661503,153
2021-09-23 21:06:25.661509,134
2021-09-23 21:06:25.661515,103
2021-09-23 21:06:25.661522,67
2021-09-23 21:06:25.661528,43
2021-09-23 21:06:25.661534,19
2021-09-23 21:06:25.661543,-24
2021-09-23 21:06:25.661549,-57
2021-09-23 21:06:25.661555,-69
2021-09-23 21:06:25.661560,-101
2021-09-23 21:06:25.661566,-132
2021-09-23 21:06:25.661572,-132
2021-09-23 21:06:25.661578,-132
2021-09-23 21:06:25.661584,-137
2021-09-23 21:06:25.661589,-134
2021-09-23 21:06:25.661595,-134
2021-09-23 21:06:25.661601,-127
2021-09-23 21:06:25.661607,-96
2021-09-23 21:06:25.661613,-74
2021-09-23 21:06:25.661619,-64
2021-09-23 21:06:25.661624,-55
2021-09-23 21:06:25.661630,-52
2021-09-23 21:06:25.661636,-45
2021-09-23 21:06:25.661641,-28
2021-09-23 21:06:25.661647,-24
2021-09-23 21:06:25.661653,-28
2021-09-23 21:06:25.661658,-36
2021-09-23 21:06:25.661664,-33
2021-09-23 21:06:25.886456,-21
2021-09-23 21:06:25.886473,-28
2021-09-23 21:06:25.886480,-45
2021-09-23 21:06:25.886486,-40
2021-09-23 21:06:25.886492,-36
2021-09-23 21:06:25.886498,-40
2021-09-23 21:06:25.886504,-48
2021-09-23 21:06:25.886509,-60
2021-09-23 21:06:25.886515,-50
2021-09-23 21:06:25.886521,-40
2021-09-23 21:06:25.886527,-57
2021-09-23 21:06:25.886533,-55
2021-09-23 21:06:25.886538,-31
2021-09-23 21:06:25.886544,-21
2021-09-23 21:06:25.886550,-26
2021-09-23 21:06:25.886556,-28
2021-09-23 21:06:25.886562,-31
2021-09-23 21:06:25.886568,-36
2021-09-23 21:06:25.886573,-36
2021-09-23 21:06:25.886579,-33
2021-09-23 21:06:25.886584,-38
2021-09-23 21:06:25.886590,-38
2021-09-23 21:06:25.886596,-33
2021-09-23 21:06:25.886602,-9
2021-09-23 21:06:25.886607,93
2021-09-23 21:06:25.886613,387
2021-09-23 21:06:25.886619,880
2021-09-23 21:06:25.886625,1101
2021-09-23 21:06:25.886631,360
2021-09-23 21:06:25.886636,-615
2021-09-23 21:06:26.200051,-505
2021-09-23 21:06:26.200067,-38
2021-09-23 21:06:26.200074,-125
2021-09-23 21:06:26.200080,-194
2021-09-23 21:06:26.200086,-64
2021-09-23 21:06:26.200092,-67
2021-09-23 21:06:26.200098,-98
2021-09-23 21:06:26.200104,-45
2021-09-23 21:06:26.200110,-24
2021-09-23 21:06:26.200116,-48
2021-09-23 21:06:26.200122,-45
2021-09-23 21:06:26.200128,-16
2021-09-23 21:06:26.200133,0
2021-09-23 21:06:26.200139,-2
2021-09-23 21:06:26.200145,-2
2021-09-23 21:06:26.200151,14
2021-09-23 21:06:26.200157,38
2021-09-23 21:06:26.200162,60
2021-09-23 21:06:26.200168,64
2021-09-23 21:06:26.200174,64
2021-09-23 21:06:26.200180,93
2021-09-23 21:06:26.200185,125
2021-09-23 21:06:26.200191,122
2021-09-23 21:06:26.200197,105
2021-09-23 21:06:26.200203,98
2021-09-23 21:06:26.200208,93
2021-09-23 21:06:26.200214,67
2021-09-23 21:06:26.200220,28
2021-09-23 21:06:26.200226,0
2021-09-23 21:06:26.200231,-26
2021-09-23 21:06:26.381474,-48
2021-09-23 21:06:26.381491,-50
2021-09-23 21:06:26.381498,-67
2021-09-23 21:06:26.381504,-91
2021-09-23 21:06:26.381510,-101
2021-09-23 21:06:26.381516,-105
2021-09-23 21:06:26.381522,-108
2021-09-23 21:06:26.381528,-101
2021-09-23 21:06:26.381534,-93
2021-09-23 21:06:26.381540,-103
2021-09-23 21:06:26.381546,-98
2021-09-23 21:06:26.381552,-76
2021-09-23 21:06:26.381558,-64
2021-09-23 21:06:26.381563,-57
2021-09-23 21:06:26.381569,-52
2021-09-23 21:06:26.381575,-62
2021-09-23 21:06:26.381581,-60
2021-09-23 21:06:26.381586,-48
2021-09-23 21:06:26.381592,-43
2021-09-23 21:06:26.381598,-31
2021-09-23 21:06:26.381604,-19
2021-09-23 21:06:26.381610,-33
2021-09-23 21:06:26.381615,-38
2021-09-23 21:06:26.381621,-19
2021-09-23 21:06:26.381627,-16
2021-09-23 21:06:26.381633,-45
2021-09-23 21:06:26.381639,-50
2021-09-23 21:06:26.381645,-33
2021-09-23 21:06:26.381651,-21
2021-09-23 21:06:26.381657,-19
2021-09-23 21:06:26.606484,-26
2021-09-23 21:06:26.606501,-40
2021-09-23 21:06:26.606508,-50
2021-09-23 21:06:26.606514,-40
2021-09-23 21:06:26.606520,-28
2021-09-23 21:06:26.606526,-21
2021-09-23 21:06:26.606532,2
2021-09-23 21:06:26.606538,16
2021-09-23 21:06:26.606544,-9
2021-09-23 21:06:26.606550,-40
2021-09-23 21:06:26.606556,-38
2021-09-23 21:06:26.606562,-24
2021-09-23 21:06:26.606568,-16
2021-09-23 21:06:26.606574,-21
2021-09-23 21:06:26.606580,-26
2021-09-23 21:06:26.606585,45
2021-09-23 21:06:26.606591,310
2021-09-23 21:06:26.606597,776
2021-09-23 21:06:26.606603,1135
2021-09-23 21:06:26.606609,618
2021-09-23 21:06:26.606615,-476
2021-09-23 21:06:26.606621,-630
2021-09-23 21:06:26.606626,-98
2021-09-23 21:06:26.606632,-84
2021-09-23 21:06:26.606638,-221
2021-09-23 21:06:26.606644,-84
2021-09-23 21:06:26.606649,-40
2021-09-23 21:06:26.606655,-101
2021-09-23 21:06:26.606661,-60
2021-09-23 21:06:26.606667,-21
2021-09-23 21:06:26.831470,-45
2021-09-23 21:06:26.831487,-33
2021-09-23 21:06:26.831494,-4
2021-09-23 21:06:26.831500,-16
2021-09-23 21:06:26.831506,-9
2021-09-23 21:06:26.831512,26
2021-09-23 21:06:26.831518,36
2021-09-23 21:06:26.831524,26
2021-09-23 21:06:26.831530,48
2021-09-23 21:06:26.831536,84
2021-09-23 21:06:26.831541,93
2021-09-23 21:06:26.831547,84
2021-09-23 21:06:26.831553,88
2021-09-23 21:06:26.831559,93
2021-09-23 21:06:26.831565,88
2021-09-23 21:06:26.831571,74
2021-09-23 21:06:26.831576,52
2021-09-23 21:06:26.831582,43
2021-09-23 21:06:26.831588,31
2021-09-23 21:06:26.831594,0
2021-09-23 21:06:26.831600,-36
2021-09-23 21:06:26.831605,-72
2021-09-23 21:06:26.831611,-91
2021-09-23 21:06:26.831620,-88
2021-09-23 21:06:26.831625,-96
2021-09-23 21:06:26.831631,-115
2021-09-23 21:06:26.831637,-129
2021-09-23 21:06:26.831643,-127
2021-09-23 21:06:26.831648,-113
2021-09-23 21:06:26.831654,-108
2021-09-23 21:06:27.056497,-117
2021-09-23 21:06:27.056515,-110
2021-09-23 21:06:27.056523,-84
2021-09-23 21:06:27.056529,-72
2021-09-23 21:06:27.056535,-69
2021-09-23 21:06:27.056541,-67
2021-09-23 21:06:27.056547,-67
2021-09-23 21:06:27.056553,-67
2021-09-23 21:06:27.056559,-60
2021-09-23 21:06:27.056565,-48
2021-09-23 21:06:27.056571,-40
2021-09-23 21:06:27.056577,-38
2021-09-23 21:06:27.056582,-26
2021-09-23 21:06:27.056588,-24
2021-09-23 21:06:27.056594,-38
2021-09-23 21:06:27.056600,-50
2021-09-23 21:06:27.056606,-55
2021-09-23 21:06:27.056612,-48
2021-09-23 21:06:27.056618,-43
2021-09-23 21:06:27.056624,-50
2021-09-23 21:06:27.056630,-43
2021-09-23 21:06:27.056636,-31
2021-09-23 21:06:27.056642,-28
2021-09-23 21:06:27.056648,-26
2021-09-23 21:06:27.056654,-33
2021-09-23 21:06:27.056660,-38
2021-09-23 21:06:27.056665,-36
2021-09-23 21:06:27.056671,-33
2021-09-23 21:06:27.056677,-21
2021-09-23 21:06:27.056683,0
2021-09-23 21:06:27.281483,2
2021-09-23 21:06:27.281500,-9
2021-09-23 21:06:27.281507,-16
2021-09-23 21:06:27.281513,-33
2021-09-23 21:06:27.281519,-43
2021-09-23 21:06:27.281525,-40
2021-09-23 21:06:27.281531,-38
2021-09-23 21:06:27.281537,-33
2021-09-23 21:06:27.281543,-24
2021-09-23 21:06:27.281549,0
2021-09-23 21:06:27.281555,139
2021-09-23 21:06:27.281560,478
2021-09-23 21:06:27.281566,918
2021-09-23 21:06:27.281572,882
2021-09-23 21:06:27.281578,-72
2021-09-23 21:06:27.281584,-788
2021-09-23 21:06:27.281589,-384
2021-09-23 21:06:27.281595,-26
2021-09-23 21:06:27.281601,-185
2021-09-23 21:06:27.281607,-156
2021-09-23 21:06:27.281613,-21
2021-09-23 21:06:27.281618,-74
2021-09-23 21:06:27.281624,-96
2021-09-23 21:06:27.281630,-31
2021-09-23 21:06:27.281635,-28
2021-09-23 21:06:27.281641,-43
2021-09-23 21:06:27.281647,-7
2021-09-23 21:06:27.281652,9
2021-09-23 21:06:27.281658,2
2021-09-23 21:06:27.281664,9
2021-09-23 21:06:27.641560,31
2021-09-23 21:06:27.641579,50
2021-09-23 21:06:27.641586,60
2021-09-23 21:06:27.641592,57
2021-09-23 21:06:27.641598,74
2021-09-23 21:06:27.641604,108
2021-09-23 21:06:27.641610,115
2021-09-23 21:06:27.641616,110
2021-09-23 21:06:27.641621,105
2021-09-23 21:06:27.641627,98
2021-09-23 21:06:27.641633,86
2021-09-23 21:06:27.641639,64
2021-09-23 21:06:27.641645,40
2021-09-23 21:06:27.641650,16
2021-09-23 21:06:27.641656,-9
2021-09-23 21:06:27.641662,-36
2021-09-23 21:06:27.641668,-64
2021-09-23 21:06:27.641674,-84
2021-09-23 21:06:27.641679,-93
2021-09-23 21:06:27.641685,-105
2021-09-23 21:06:27.641691,-122
2021-09-23 21:06:27.641697,-125
2021-09-23 21:06:27.641702,-105
2021-09-23 21:06:27.641708,-96
2021-09-23 21:06:27.641714,-96
2021-09-23 21:06:27.641720,-84
2021-09-23 21:06:27.641725,-74
2021-09-23 21:06:27.641731,-64
2021-09-23 21:06:27.641737,-55
2021-09-23 21:06:27.641743,-50
2021-09-23 21:06:27.731506,-31
2021-09-23 21:06:27.731523,-9
2021-09-23 21:06:27.731528,-12
2021-09-23 21:06:27.731533,-16
2021-09-23 21:06:27.731538,-19
2021-09-23 21:06:27.731543,-24
2021-09-23 21:06:27.731548,-14
2021-09-23 21:06:27.731553,-16
2021-09-23 21:06:27.731558,-33
2021-09-23 21:06:27.731562,-31
2021-09-23 21:06:27.731567,-28
2021-09-23 21:06:27.731572,-33
2021-09-23 21:06:27.731577,-24
2021-09-23 21:06:27.731582,-21
2021-09-23 21:06:27.731587,-31
2021-09-23 21:06:27.731592,-33
2021-09-23 21:06:27.731597,-38
2021-09-23 21:06:27.731603,-45
2021-09-23 21:06:27.731608,-38
2021-09-23 21:06:27.731613,-24
2021-09-23 21:06:27.731619,-19
2021-09-23 21:06:27.731624,-14
2021-09-23 21:06:27.731629,-7
2021-09-23 21:06:27.731633,-16
2021-09-23 21:06:27.731639,-26
2021-09-23 21:06:27.731645,-24
2021-09-23 21:06:27.731651,-43
2021-09-23 21:06:27.731657,-69
2021-09-23 21:06:27.731662,-69
2021-09-23 21:06:27.731667,-48
2021-09-23 21:06:28.001577,-33
2021-09-23 21:06:28.001596,-14
2021-09-23 21:06:28.001603,67
2021-09-23 21:06:28.001610,312
2021-09-23 21:06:28.001616,750
2021-09-23 21:06:28.001622,1058
2021-09-23 21:06:28.001628,473
2021-09-23 21:06:28.001634,-584
2021-09-23 21:06:28.001640,-639
2021-09-23 21:06:28.001645,-122
2021-09-23 21:06:28.001651,-127
2021-09-23 21:06:28.001657,-204
2021-09-23 21:06:28.001663,-55
2021-09-23 21:06:28.001669,-31
2021-09-23 21:06:28.001675,-86
2021-09-23 21:06:28.001681,-57
2021-09-23 21:06:28.001687,-38
2021-09-23 21:06:28.001692,-43
2021-09-23 21:06:28.001698,-19
2021-09-23 21:06:28.001704,7
2021-09-23 21:06:28.001710,2
2021-09-23 21:06:28.001716,2
2021-09-23 21:06:28.001722,24
2021-09-23 21:06:28.001728,38
2021-09-23 21:06:28.001734,50
2021-09-23 21:06:28.001740,79
2021-09-23 21:06:28.001745,96
2021-09-23 21:06:28.001751,98
2021-09-23 21:06:28.001757,113
2021-09-23 21:06:28.001762,134
2021-09-23 21:06:28.270173,144
2021-09-23 21:06:28.270190,139
2021-09-23 21:06:28.270197,120
2021-09-23 21:06:28.270203,81
2021-09-23 21:06:28.270209,52
2021-09-23 21:06:28.270215,45
2021-09-23 21:06:28.270221,24
2021-09-23 21:06:28.270227,-24
2021-09-23 21:06:28.270233,-60
2021-09-23 21:06:28.270238,-81
2021-09-23 21:06:28.270244,-98
2021-09-23 21:06:28.270250,-105
2021-09-23 21:06:28.270256,-101
2021-09-23 21:06:28.270262,-93
2021-09-23 21:06:28.270267,-105
2021-09-23 21:06:28.270273,-125
2021-09-23 21:06:28.270279,-110
2021-09-23 21:06:28.270285,-84
2021-09-23 21:06:28.270291,-84
2021-09-23 21:06:28.270297,-86
2021-09-23 21:06:28.270302,-69
2021-09-23 21:06:28.270308,-50
2021-09-23 21:06:28.270314,-31
2021-09-23 21:06:28.270320,-26
2021-09-23 21:06:28.270325,-33
2021-09-23 21:06:28.270331,-28
2021-09-23 21:06:28.270337,-9
2021-09-23 21:06:28.270343,-9
2021-09-23 21:06:28.270349,-33
2021-09-23 21:06:28.270357,-43
2021-09-23 21:06:28.451477,-43
2021-09-23 21:06:28.451493,-43
2021-09-23 21:06:28.451500,-38
2021-09-23 21:06:28.451506,-38
2021-09-23 21:06:28.451513,-38
2021-09-23 21:06:28.451519,-33
2021-09-23 21:06:28.451524,-38
2021-09-23 21:06:28.451530,-38
2021-09-23 21:06:28.451536,-33
2021-09-23 21:06:28.451542,-38
2021-09-23 21:06:28.451548,-45
2021-09-23 21:06:28.451553,-48
2021-09-23 21:06:28.451559,-36
2021-09-23 21:06:28.451564,-40
2021-09-23 21:06:28.451570,-64
2021-09-23 21:06:28.451576,-62
2021-09-23 21:06:28.451582,-45
2021-09-23 21:06:28.451587,-48
2021-09-23 21:06:28.451593,-52
2021-09-23 21:06:28.451599,-40
2021-09-23 21:06:28.451605,-21
2021-09-23 21:06:28.451610,-14
2021-09-23 21:06:28.451616,-33
2021-09-23 21:06:28.451622,-55
2021-09-23 21:06:28.451627,-45
2021-09-23 21:06:28.451633,-31
2021-09-23 21:06:28.451638,-40
2021-09-23 21:06:28.451644,-38
2021-09-23 21:06:28.451650,-9
2021-09-23 21:06:28.451656,88
2021-09-23 21:06:28.676547,372
2021-09-23 21:06:28.676564,875
2021-09-23 21:06:28.676571,1149
2021-09-23 21:06:28.676578,440
2021-09-23 21:06:28.676584,-606
2021-09-23 21:06:28.676590,-543
2021-09-23 21:06:28.676596,-38
2021-09-23 21:06:28.676602,-110
2021-09-23 21:06:28.676607,-189
2021-09-23 21:06:28.676613,-50
2021-09-23 21:06:28.676619,-55
2021-09-23 21:06:28.676625,-93
2021-09-23 21:06:28.676631,-38
2021-09-23 21:06:28.676637,-38
2021-09-23 21:06:28.676642,-69
2021-09-23 21:06:28.676648,-31
2021-09-23 21:06:28.676654,9
2021-09-23 21:06:28.676659,-2
2021-09-23 21:06:28.676665,-7
2021-09-23 21:06:28.676671,19
2021-09-23 21:06:28.676677,33
2021-09-23 21:06:28.676682,40
2021-09-23 21:06:28.676688,57
2021-09-23 21:06:28.676694,74
2021-09-23 21:06:28.676699,84
2021-09-23 21:06:28.676705,101
2021-09-23 21:06:28.676711,129
2021-09-23 21:06:28.676717,141
2021-09-23 21:06:28.676722,127
2021-09-23 21:06:28.676728,110
2021-09-23 21:06:28.901542,98
2021-09-23 21:06:28.901559,81
2021-09-23 21:06:28.901566,55
2021-09-23 21:06:28.901573,12
2021-09-23 21:06:28.901579,-31
2021-09-23 21:06:28.901584,-45
2021-09-23 21:06:28.901590,-69
2021-09-23 21:06:28.901596,-103
2021-09-23 21:06:28.901602,-110
2021-09-23 21:06:28.901608,-108
2021-09-23 21:06:28.901614,-103
2021-09-23 21:06:28.901620,-105
2021-09-23 21:06:28.901626,-125
2021-09-23 21:06:28.901631,-120
2021-09-23 21:06:28.901637,-101
2021-09-23 21:06:28.901643,-105
2021-09-23 21:06:28.901649,-113
2021-09-23 21:06:28.901655,-93
2021-09-23 21:06:28.901660,-69
2021-09-23 21:06:28.901666,-69
2021-09-23 21:06:28.901672,-69
2021-09-23 21:06:28.901678,-55
2021-09-23 21:06:28.901683,-43
2021-09-23 21:06:28.901689,-43
2021-09-23 21:06:28.901695,-40
2021-09-23 21:06:28.901700,-33
2021-09-23 21:06:28.901706,-40
2021-09-23 21:06:28.901712,-40
2021-09-23 21:06:28.901718,-28
2021-09-23 21:06:28.901723,-21
2021-09-23 21:06:29.171001,-31
2021-09-23 21:06:29.171019,-52
2021-09-23 21:06:29.171026,-60
2021-09-23 21:06:29.171035,-40
2021-09-23 21:06:29.171041,-38
2021-09-23 21:06:29.171046,-60
2021-09-23 21:06:29.171052,-72
2021-09-23 21:06:29.171058,-57
2021-09-23 21:06:29.171064,-40
2021-09-23 21:06:29.171070,-45
2021-09-23 21:06:29.171076,-52
2021-09-23 21:06:29.171082,-50
2021-09-23 21:06:29.171087,-38
2021-09-23 21:06:29.171093,-28
2021-09-23 21:06:29.171099,-26
2021-09-23 21:06:29.171105,-26
2021-09-23 21:06:29.171111,-28
2021-09-23 21:06:29.171117,-45
2021-09-23 21:06:29.171123,-55
2021-09-23 21:06:29.171128,-50
2021-09-23 21:06:29.171134,-50
2021-09-23 21:06:29.171140,-45
2021-09-23 21:06:29.171145,-14
2021-09-23 21:06:29.171151,45
2021-09-23 21:06:29.171157,233
2021-09-23 21:06:29.171163,644
2021-09-23 21:06:29.171169,1060
2021-09-23 21:06:29.171174,707
2021-09-23 21:06:29.171180,-396
2021-09-23 21:06:29.171186,-731
2021-09-23 21:06:29.351556,-168
2021-09-23 21:06:29.351575,-24
2021-09-23 21:06:29.351583,-182
2021-09-23 21:06:29.351589,-81
2021-09-23 21:06:29.351595,-4
2021-09-23 21:06:29.351601,-60
2021-09-23 21:06:29.351607,-43
2021-09-23 21:06:29.351613,2
2021-09-23 21:06:29.351620,0
2021-09-23 21:06:29.351626,-12
2021-09-23 21:06:29.351631,-4
2021-09-23 21:06:29.351637,0
2021-09-23 21:06:29.351643,2
2021-09-23 21:06:29.351649,7
2021-09-23 21:06:29.351655,28
2021-09-23 21:06:29.351660,62
2021-09-23 21:06:29.351666,81
2021-09-23 21:06:29.351672,84
2021-09-23 21:06:29.351678,101
2021-09-23 21:06:29.351684,120
2021-09-23 21:06:29.351689,122
2021-09-23 21:06:29.351695,132
2021-09-23 21:06:29.351701,141
2021-09-23 21:06:29.351706,127
2021-09-23 21:06:29.351712,108
2021-09-23 21:06:29.351718,96
2021-09-23 21:06:29.351724,67
2021-09-23 21:06:29.351729,16
2021-09-23 21:06:29.351735,-26
2021-09-23 21:06:29.351741,-43
2021-09-23 21:06:29.576577,-57
2021-09-23 21:06:29.576595,-79
2021-09-23 21:06:29.576603,-101
2021-09-23 21:06:29.576609,-115
2021-09-23 21:06:29.576615,-122
2021-09-23 21:06:29.576621,-127
2021-09-23 21:06:29.576627,-137
2021-09-23 21:06:29.576633,-139
2021-09-23 21:06:29.576639,-117
2021-09-23 21:06:29.576645,-93
2021-09-23 21:06:29.576651,-98
2021-09-23 21:06:29.576657,-105
2021-09-23 21:06:29.576662,-79
2021-09-23 21:06:29.576668,-57
2021-09-23 21:06:29.576674,-57
2021-09-23 21:06:29.576680,-60
2021-09-23 21:06:29.576686,-52
2021-09-23 21:06:29.576691,-43
2021-09-23 21:06:29.576697,-26
2021-09-23 21:06:29.576703,-16
2021-09-23 21:06:29.576709,-31
2021-09-23 21:06:29.576715,-40
2021-09-23 21:06:29.576720,-43
2021-09-23 21:06:29.576726,-57
2021-09-23 21:06:29.576732,-69
2021-09-23 21:06:29.576737,-60
2021-09-23 21:06:29.576743,-45
2021-09-23 21:06:29.576749,-52
2021-09-23 21:06:29.576754,-64
2021-09-23 21:06:29.576760,-45
2021-09-23 21:06:29.845974,-26
2021-09-23 21:06:29.845993,-33
2021-09-23 21:06:29.846000,-52
2021-09-23 21:06:29.846006,-62
2021-09-23 21:06:29.846013,-60
2021-09-23 21:06:29.846018,-40
2021-09-23 21:06:29.846025,-14
2021-09-23 21:06:29.846030,-7
2021-09-23 21:06:29.846036,-19
2021-09-23 21:06:29.846042,-28
2021-09-23 21:06:29.846048,-45
2021-09-23 21:06:29.846053,-45
2021-09-23 21:06:29.846059,-24
2021-09-23 21:06:29.846065,-19
2021-09-23 21:06:29.846070,-38
2021-09-23 21:06:29.846076,-33
2021-09-23 21:06:29.846082,45
2021-09-23 21:06:29.846088,286
2021-09-23 21:06:29.846094,733
2021-09-23 21:06:29.846100,1101
2021-09-23 21:06:29.846105,610
2021-09-23 21:06:29.846111,-468
2021-09-23 21:06:29.846117,-642
2021-09-23 21:06:29.846122,-117
2021-09-23 21:06:29.846128,-76
2021-09-23 21:06:29.846134,-192
2021-09-23 21:06:29.846140,-74
2021-09-23 21:06:29.846146,-45
2021-09-23 21:06:29.846155,-98
2021-09-23 21:06:29.846161,-55
2021-09-23 21:06:30.071545,-12
2021-09-23 21:06:30.071564,-21
2021-09-23 21:06:30.071571,-24
2021-09-23 21:06:30.071577,-21
2021-09-23 21:06:30.071583,-12
2021-09-23 21:06:30.071589,9
2021-09-23 21:06:30.071595,24
2021-09-23 21:06:30.071601,36
2021-09-23 21:06:30.071607,50
2021-09-23 21:06:30.071613,48
2021-09-23 21:06:30.071619,62
2021-09-23 21:06:30.071625,93
2021-09-23 21:06:30.071631,113
2021-09-23 21:06:30.071637,129
2021-09-23 21:06:30.071643,137
2021-09-23 21:06:30.071649,127
2021-09-23 21:06:30.071654,122
2021-09-23 21:06:30.071660,110
2021-09-23 21:06:30.071666,93
2021-09-23 21:06:30.071672,76
2021-09-23 21:06:30.071678,28
2021-09-23 21:06:30.071683,-31
2021-09-23 21:06:30.071689,-43
2021-09-23 21:06:30.071695,-45
2021-09-23 21:06:30.071701,-79
2021-09-23 21:06:30.071707,-101
2021-09-23 21:06:30.071713,-108
2021-09-23 21:06:30.071718,-120
2021-09-23 21:06:30.071724,-117
2021-09-23 21:06:30.071730,-108
2021-09-23 21:06:30.340185,-103
2021-09-23 21:06:30.340203,-103
2021-09-23 21:06:30.340210,-108
2021-09-23 21:06:30.340216,-103
2021-09-23 21:06:30.340222,-74
2021-09-23 21:06:30.340228,-50
2021-09-23 21:06:30.340234,-45
2021-09-23 21:06:30.340240,-48
2021-09-23 21:06:30.340246,-45
2021-09-23 21:06:30.340252,-40
2021-09-23 21:06:30.340258,-40
2021-09-23 21:06:30.340263,-40
2021-09-23 21:06:30.340269,-31
2021-09-23 21:06:30.340275,-36
2021-09-23 21:06:30.340281,-55
2021-09-23 21:06:30.340287,-57
2021-09-23 21:06:30.340293,-45
2021-09-23 21:06:30.340298,-40
2021-09-23 21:06:30.340304,-40
2021-09-23 21:06:30.340310,-43
2021-09-23 21:06:30.340316,-57
2021-09-23 21:06:30.340321,-64
2021-09-23 21:06:30.340327,-55
2021-09-23 21:06:30.340333,-50
2021-09-23 21:06:30.340339,-55
2021-09-23 21:06:30.340344,-52
2021-09-23 21:06:30.340350,-45
2021-09-23 21:06:30.340356,-50
2021-09-23 21:06:30.340362,-50
2021-09-23 21:06:30.340368,-33
2021-09-23 21:06:30.521506,-38
2021-09-23 21:06:30.521523,-52
2021-09-23 21:06:30.521530,-38
2021-09-23 21:06:30.521536,-21
2021-09-23 21:06:30.521542,-19
2021-09-23 21:06:30.521548,-14
2021-09-23 21:06:30.521554,-19
2021-09-23 21:06:30.521560,-33
2021-09-23 21:06:30.521566,-33
2021-09-23 21:06:30.521571,-21
2021-09-23 21:06:30.521577,-14
2021-09-23 21:06:30.521583,-9
2021-09-23 21:06:30.521588,12
2021-09-23 21:06:30.521594,120
2021-09-23 21:06:30.521600,444
2021-09-23 21:06:30.521606,981
2021-09-23 21:06:30.521612,1147
2021-09-23 21:06:30.521617,281
2021-09-23 21:06:30.521623,-646
2021-09-23 21:06:30.521629,-428
2021-09-23 21:06:30.521634,0
2021-09-23 21:06:30.521640,-120
2021-09-23 21:06:30.521646,-161
2021-09-23 21:06:30.521652,-45
2021-09-23 21:06:30.521657,-64
2021-09-23 21:06:30.521663,-81
2021-09-23 21:06:30.521669,-28
2021-09-23 21:06:30.521674,-14
2021-09-23 21:06:30.521680,-36
2021-09-23 21:06:30.521686,-28
2021-09-23 21:06:30.791561,0
2021-09-23 21:06:30.791578,12
2021-09-23 21:06:30.791585,9
2021-09-23 21:06:30.791591,14
2021-09-23 21:06:30.791597,28
2021-09-23 21:06:30.791603,52
2021-09-23 21:06:30.791609,67
2021-09-23 21:06:30.791615,67
2021-09-23 21:06:30.791621,74
2021-09-23 21:06:30.791627,108
2021-09-23 21:06:30.791633,141
2021-09-23 21:06:30.791638,144
2021-09-23 21:06:30.791644,125
2021-09-23 21:06:30.791650,105
2021-09-23 21:06:30.791656,91
2021-09-23 21:06:30.791662,74
2021-09-23 21:06:30.791668,52
2021-09-23 21:06:30.791673,24
2021-09-23 21:06:30.791679,-16
2021-09-23 21:06:30.791685,-50
2021-09-23 21:06:30.791691,-64
2021-09-23 21:06:30.791697,-79
2021-09-23 21:06:30.791702,-98
2021-09-23 21:06:30.791708,-101
2021-09-23 21:06:30.791714,-96
2021-09-23 21:06:30.791720,-105
2021-09-23 21:06:30.791726,-120
2021-09-23 21:06:30.791732,-113
2021-09-23 21:06:30.791738,-101
2021-09-23 21:06:30.791743,-98
2021-09-23 21:06:31.015943,-103
2021-09-23 21:06:31.015961,-93
2021-09-23 21:06:31.015968,-72
2021-09-23 21:06:31.015974,-55
2021-09-23 21:06:31.015980,-60
2021-09-23 21:06:31.015986,-64
2021-09-23 21:06:31.015992,-57
2021-09-23 21:06:31.015998,-52
2021-09-23 21:06:31.016004,-45
2021-09-23 21:06:31.016010,-48
2021-09-23 21:06:31.016016,-60
2021-09-23 21:06:31.016021,-57
2021-09-23 21:06:31.016027,-40
2021-09-23 21:06:31.016033,-43
2021-09-23 21:06:31.016039,-52
2021-09-23 21:06:31.016045,-55
2021-09-23 21:06:31.016051,-60
2021-09-23 21:06:31.016057,-52
2021-09-23 21:06:31.016062,-45
2021-09-23 21:06:31.016068,-60
2021-09-23 21:06:31.016074,-60
2021-09-23 21:06:31.016079,-36
2021-09-23 21:06:31.016085,-28
2021-09-23 21:06:31.016091,-43
2021-09-23 21:06:31.016097,-48
2021-09-23 21:06:31.016103,-36
2021-09-23 21:06:31.016109,-43
2021-09-23 21:06:31.016115,-48
2021-09-23 21:06:31.016120,-31
2021-09-23 21:06:31.016126,-28
2021-09-23 21:06:31.285918,-33
2021-09-23 21:06:31.285934,-14
2021-09-23 21:06:31.285942,2
2021-09-23 21:06:31.285948,2
2021-09-23 21:06:31.285954,-14
2021-09-23 21:06:31.285960,-33
2021-09-23 21:06:31.285966,-40
2021-09-23 21:06:31.285971,-43
2021-09-23 21:06:31.285977,-43
2021-09-23 21:06:31.285983,-26
2021-09-23 21:06:31.285989,2
2021-09-23 21:06:31.285995,36
2021-09-23 21:06:31.286000,185
2021-09-23 21:06:31.286006,577
2021-09-23 21:06:31.286012,1058
2021-09-23 21:06:31.286018,911
2021-09-23 21:06:31.286023,-141
2021-09-23 21:06:31.286029,-733
2021-09-23 21:06:31.286035,-266
2021-09-23 21:06:31.286041,0
2021-09-23 21:06:31.286046,-158
2021-09-23 21:06:31.286052,-108
2021-09-23 21:06:31.286057,-16
2021-09-23 21:06:31.286063,-74
2021-09-23 21:06:31.286069,-72
2021-09-23 21:06:31.286074,-9
2021-09-23 21:06:31.286080,-9
2021-09-23 21:06:31.286086,-14
2021-09-23 21:06:31.286091,-4
2021-09-23 21:06:31.286097,-2
2021-09-23 21:06:31.421531,19
2021-09-23 21:06:31.421548,45
2021-09-23 21:06:31.421556,36
2021-09-23 21:06:31.421562,28
2021-09-23 21:06:31.421568,57
2021-09-23 21:06:31.421574,79
2021-09-23 21:06:31.421580,81
2021-09-23 21:06:31.421586,96
2021-09-23 21:06:31.421592,120
2021-09-23 21:06:31.421598,129
2021-09-23 21:06:31.421604,132
2021-09-23 21:06:31.421609,129
2021-09-23 21:06:31.421615,117
2021-09-23 21:06:31.421621,101
2021-09-23 21:06:31.421626,69
2021-09-23 21:06:31.421632,26
2021-09-23 21:06:31.421638,-16
2021-09-23 21:06:31.421644,-48
2021-09-23 21:06:31.421650,-67
2021-09-23 21:06:31.421656,-79
2021-09-23 21:06:31.421662,-96
2021-09-23 21:06:31.421668,-103
2021-09-23 21:06:31.421673,-108
2021-09-23 21:06:31.421679,-120
2021-09-23 21:06:31.421685,-113
2021-09-23 21:06:31.421691,-98
2021-09-23 21:06:31.421696,-105
2021-09-23 21:06:31.421702,-115
2021-09-23 21:06:31.421708,-98
2021-09-23 21:06:31.421714,-79
2021-09-23 21:06:31.691555,-72
2021-09-23 21:06:31.691572,-62
2021-09-23 21:06:31.691579,-50
2021-09-23 21:06:31.691585,-52
2021-09-23 21:06:31.691591,-60
2021-09-23 21:06:31.691597,-52
2021-09-23 21:06:31.691603,-48
2021-09-23 21:06:31.691609,-57
2021-09-23 21:06:31.691615,-52
2021-09-23 21:06:31.691621,-43
2021-09-23 21:06:31.691627,-60
2021-09-23 21:06:31.691632,-67
2021-09-23 21:06:31.691638,-50
2021-09-23 21:06:31.691644,-50
2021-09-23 21:06:31.691650,-55
2021-09-23 21:06:31.691656,-45
2021-09-23 21:06:31.691662,-40
2021-09-23 21:06:31.691667,-45
2021-09-23 21:06:31.691673,-45
2021-09-23 21:06:31.691679,-40
2021-09-23 21:06:31.691685,-38
2021-09-23 21:06:31.691691,-43
2021-09-23 21:06:31.691697,-45
2021-09-23 21:06:31.691705,-28
2021-09-23 21:06:31.691711,-4
2021-09-23 21:06:31.691717,0
2021-09-23 21:06:31.691723,-2
2021-09-23 21:06:31.691729,-4
2021-09-23 21:06:31.691734,-19
2021-09-23 21:06:31.691740,-36
2021-09-23 21:06:31.916522,-38
2021-09-23 21:06:31.916539,-21
2021-09-23 21:06:31.916546,-4
2021-09-23 21:06:31.916553,2
2021-09-23 21:06:31.916559,69
2021-09-23 21:06:31.916565,324
2021-09-23 21:06:31.916571,779
2021-09-23 21:06:31.916577,1123
2021-09-23 21:06:31.916583,608
2021-09-23 21:06:31.916589,-483
2021-09-23 21:06:31.916595,-642
2021-09-23 21:06:31.916601,-93
2021-09-23 21:06:31.916607,-57
2021-09-23 21:06:31.916613,-194
2021-09-23 21:06:31.916619,-74
2021-09-23 21:06:31.916625,-40
2021-09-23 21:06:31.916631,-88
2021-09-23 21:06:31.916636,-43
2021-09-23 21:06:31.916642,-16
2021-09-23 21:06:31.916648,-43
2021-09-23 21:06:31.916654,-28
2021-09-23 21:06:31.916659,4
2021-09-23 21:06:31.916665,2
2021-09-23 21:06:31.916671,0
2021-09-23 21:06:31.916677,21
2021-09-23 21:06:31.916683,43
2021-09-23 21:06:31.916688,52
2021-09-23 21:06:31.916694,67
2021-09-23 21:06:31.916700,79
2021-09-23 21:06:31.916706,98
2021-09-23 21:06:32.186552,122
2021-09-23 21:06:32.186569,141
2021-09-23 21:06:32.186576,146
2021-09-23 21:06:32.186582,144
2021-09-23 21:06:32.186588,141
2021-09-23 21:06:32.186594,120
2021-09-23 21:06:32.186600,86
2021-09-23 21:06:32.186606,72
2021-09-23 21:06:32.186612,45
2021-09-23 21:06:32.186618,-28
2021-09-23 21:06:32.186624,-76
2021-09-23 21:06:32.186630,-79
2021-09-23 21:06:32.186635,-86
2021-09-23 21:06:32.186641,-101
2021-09-23 21:06:32.186647,-122
2021-09-23 21:06:32.186653,-137
2021-09-23 21:06:32.186659,-127
2021-09-23 21:06:32.186664,-115
2021-09-23 21:06:32.186670,-115
2021-09-23 21:06:32.186676,-113
2021-09-23 21:06:32.186681,-105
2021-09-23 21:06:32.186687,-81
2021-09-23 21:06:32.186693,-74
2021-09-23 21:06:32.186698,-91
2021-09-23 21:06:32.186704,-79
2021-09-23 21:06:32.186710,-57
2021-09-23 21:06:32.186716,-62
2021-09-23 21:06:32.186722,-55
2021-09-23 21:06:32.186727,-40
2021-09-23 21:06:32.186733,-48
2021-09-23 21:06:32.410202,-55
2021-09-23 21:06:32.410219,-45
2021-09-23 21:06:32.410226,-38
2021-09-23 21:06:32.410232,-43
2021-09-23 21:06:32.410238,-40
2021-09-23 21:06:32.410244,-31
2021-09-23 21:06:32.410250,-38
2021-09-23 21:06:32.410256,-45
2021-09-23 21:06:32.410262,-40
2021-09-23 21:06:32.410268,-48
2021-09-23 21:06:32.410274,-67
2021-09-23 21:06:32.410279,-69
2021-09-23 21:06:32.410285,-57
2021-09-23 21:06:32.410291,-36
2021-09-23 21:06:32.410297,-12
2021-09-23 21:06:32.410303,-28
2021-09-23 21:06:32.410308,-43
2021-09-23 21:06:32.410314,-14
2021-09-23 21:06:32.410320,-31
2021-09-23 21:06:32.410326,-101
2021-09-23 21:06:32.410331,-93
2021-09-23 21:06:32.410337,-28
2021-09-23 21:06:32.410343,-21
2021-09-23 21:06:32.410348,-43
2021-09-23 21:06:32.410354,-12
2021-09-23 21:06:32.410360,93
2021-09-23 21:06:32.410366,348
2021-09-23 21:06:32.410372,779
2021-09-23 21:06:32.410378,1017
2021-09-23 21:06:32.410383,355
2021-09-23 21:06:32.681565,-620
2021-09-23 21:06:32.681583,-529
2021-09-23 21:06:32.681590,-2
2021-09-23 21:06:32.681596,-74
2021-09-23 21:06:32.681602,-197
2021-09-23 21:06:32.681608,-52
2021-09-23 21:06:32.681614,-24
2021-09-23 21:06:32.681619,-98
2021-09-23 21:06:32.681625,-84
2021-09-23 21:06:32.681631,-43
2021-09-23 21:06:32.681637,-36
2021-09-23 21:06:32.681643,-19
2021-09-23 21:06:32.681648,-14
2021-09-23 21:06:32.681654,-24
2021-09-23 21:06:32.681660,-2
2021-09-23 21:06:32.681666,14
2021-09-23 21:06:32.681672,21
2021-09-23 21:06:32.681678,52
2021-09-23 21:06:32.681683,67
2021-09-23 21:06:32.681689,69
2021-09-23 21:06:32.681695,103
2021-09-23 21:06:32.681701,120
2021-09-23 21:06:32.681706,120
2021-09-23 21:06:32.681712,139
2021-09-23 21:06:32.681718,134
2021-09-23 21:06:32.681724,103
2021-09-23 21:06:32.681729,86
2021-09-23 21:06:32.681735,69
2021-09-23 21:06:32.681741,50
2021-09-23 21:06:32.681747,21
2021-09-23 21:06:32.861036,-28
2021-09-23 21:06:32.861054,-60
2021-09-23 21:06:32.861062,-67
2021-09-23 21:06:32.861068,-79
2021-09-23 21:06:32.861074,-86
2021-09-23 21:06:32.861080,-76
2021-09-23 21:06:32.861086,-76
2021-09-23 21:06:32.861092,-72
2021-09-23 21:06:32.861097,-64
2021-09-23 21:06:32.861103,-84
2021-09-23 21:06:32.861109,-105
2021-09-23 21:06:32.861115,-91
2021-09-23 21:06:32.861121,-62
2021-09-23 21:06:32.861127,-45
2021-09-23 21:06:32.861132,-36
2021-09-23 21:06:32.861138,-36
2021-09-23 21:06:32.861144,-31
2021-09-23 21:06:32.861150,-24
2021-09-23 21:06:32.861155,-28
2021-09-23 21:06:32.861161,-36
2021-09-23 21:06:32.861167,-31
2021-09-23 21:06:32.861172,-33
2021-09-23 21:06:32.861178,-40
2021-09-23 21:06:32.861184,-40
2021-09-23 21:06:32.861190,-48
2021-09-23 21:06:32.861195,-57
2021-09-23 21:06:32.861201,-55
2021-09-23 21:06:32.861207,-50
2021-09-23 21:06:32.861213,-50
2021-09-23 21:06:32.861219,-57
2021-09-23 21:06:33.041576,-55
2021-09-23 21:06:33.041593,-43
2021-09-23 21:06:33.041600,-40
2021-09-23 21:06:33.041607,-40
2021-09-23 21:06:33.041613,-28
2021-09-23 21:06:33.041619,-26
2021-09-23 21:06:33.041625,-26
2021-09-23 21:06:33.041631,-16
2021-09-23 21:06:33.041637,-21
2021-09-23 21:06:33.041642,-36
2021-09-23 21:06:33.041648,-45
2021-09-23 21:06:33.041654,-48
2021-09-23 21:06:33.041660,-36
2021-09-23 21:06:33.041666,-24
2021-09-23 21:06:33.041672,-24
2021-09-23 21:06:33.041677,14
2021-09-23 21:06:33.041683,221
2021-09-23 21:06:33.041689,632
2021-09-23 21:06:33.041695,1014
2021-09-23 21:06:33.041701,668
2021-09-23 21:06:33.041707,-401
2021-09-23 21:06:33.041713,-740
2021-09-23 21:06:33.041718,-194
2021-09-23 21:06:33.041724,-33
2021-09-23 21:06:33.041730,-173
2021-09-23 21:06:33.041736,-88
2021-09-23 21:06:33.041742,-40
2021-09-23 21:06:33.041747,-86
2021-09-23 21:06:33.041753,-52
2021-09-23 21:06:33.041759,-4
2021-09-23 21:06:33.266584,-12
2021-09-23 21:06:33.266602,-7
2021-09-23 21:06:33.266609,14
2021-09-23 21:06:33.266615,16
2021-09-23 21:06:33.266621,4
2021-09-23 21:06:33.266627,4
2021-09-23 21:06:33.266633,26
2021-09-23 21:06:33.266639,60
2021-09-23 21:06:33.266645,79
2021-09-23 21:06:33.266651,84
2021-09-23 21:06:33.266657,86
2021-09-23 21:06:33.266663,91
2021-09-23 21:06:33.266668,105
2021-09-23 21:06:33.266674,129
2021-09-23 21:06:33.266680,144
2021-09-23 21:06:33.266686,139
2021-09-23 21:06:33.266691,108
2021-09-23 21:06:33.266697,88
2021-09-23 21:06:33.266703,81
2021-09-23 21:06:33.266709,50
2021-09-23 21:06:33.266714,2
2021-09-23 21:06:33.266720,-43
2021-09-23 21:06:33.266726,-79
2021-09-23 21:06:33.266731,-103
2021-09-23 21:06:33.266737,-125
2021-09-23 21:06:33.266743,-127
2021-09-23 21:06:33.266749,-122
2021-09-23 21:06:33.266754,-146
2021-09-23 21:06:33.266760,-158
2021-09-23 21:06:33.266766,-139
2021-09-23 21:06:33.491573,-141
2021-09-23 21:06:33.491591,-139
2021-09-23 21:06:33.491598,-108
2021-09-23 21:06:33.491604,-98
2021-09-23 21:06:33.491610,-110
2021-09-23 21:06:33.491616,-86
2021-09-23 21:06:33.491622,-57
2021-09-23 21:06:33.491628,-74
2021-09-23 21:06:33.491634,-79
2021-09-23 21:06:33.491640,-62
2021-09-23 21:06:33.491646,-67
2021-09-23 21:06:33.491652,-74
2021-09-23 21:06:33.491658,-50
2021-09-23 21:06:33.491664,-38
2021-09-23 21:06:33.491669,-64
2021-09-23 21:06:33.491675,-79
2021-09-23 21:06:33.491681,-69
2021-09-23 21:06:33.491687,-60
2021-09-23 21:06:33.491693,-43
2021-09-23 21:06:33.491698,-31
2021-09-23 21:06:33.491704,-33
2021-09-23 21:06:33.491710,-43
2021-09-23 21:06:33.491715,-57
2021-09-23 21:06:33.491721,-74
2021-09-23 21:06:33.491727,-64
2021-09-23 21:06:33.491732,-45
2021-09-23 21:06:33.491738,-40
2021-09-23 21:06:33.491743,-43
2021-09-23 21:06:33.491749,-26
2021-09-23 21:06:33.491755,67
2021-09-23 21:06:33.761569,331
2021-09-23 21:06:33.761585,752
2021-09-23 21:06:33.761593,899
2021-09-23 21:06:33.761599,158
2021-09-23 21:06:33.761605,-747
2021-09-23 21:06:33.761611,-555
2021-09-23 21:06:33.761617,-21
2021-09-23 21:06:33.761623,-76
2021-09-23 21:06:33.761629,-141
2021-09-23 21:06:33.761635,-9
2021-09-23 21:06:33.761641,-4
2021-09-23 21:06:33.761646,-36
2021-09-23 21:06:33.761652,9
2021-09-23 21:06:33.761658,21
2021-09-23 21:06:33.761664,7
2021-09-23 21:06:33.761670,26
2021-09-23 21:06:33.761676,45
2021-09-23 21:06:33.761685,50
2021-09-23 21:06:33.761691,60
2021-09-23 21:06:33.761697,72
2021-09-23 21:06:33.761703,86
2021-09-23 21:06:33.761708,101
2021-09-23 21:06:33.761714,110
2021-09-23 21:06:33.761720,139
2021-09-23 21:06:33.761726,177
2021-09-23 21:06:33.761731,199
2021-09-23 21:06:33.761737,204
2021-09-23 21:06:33.761743,204
2021-09-23 21:06:33.761749,185
2021-09-23 21:06:33.761755,161
2021-09-23 21:06:33.986678,129
2021-09-23 21:06:33.986698,93
2021-09-23 21:06:33.986705,55
2021-09-23 21:06:33.986711,-16
2021-09-23 21:06:33.986717,-79
2021-09-23 21:06:33.986723,-86
2021-09-23 21:06:33.986730,-81
2021-09-23 21:06:33.986736,-103
2021-09-23 21:06:33.986742,-137
2021-09-23 21:06:33.986748,-156
2021-09-23 21:06:33.986754,-146
2021-09-23 21:06:33.986760,-132
2021-09-23 21:06:33.986765,-127
2021-09-23 21:06:33.986771,-125
2021-09-23 21:06:33.986777,-134
2021-09-23 21:06:33.986783,-132
2021-09-23 21:06:33.986789,-113
2021-09-23 21:06:33.986795,-103
2021-09-23 21:06:33.986800,-98
2021-09-23 21:06:33.986806,-81
2021-09-23 21:06:33.986812,-67
2021-09-23 21:06:33.986818,-67
2021-09-23 21:06:33.986824,-57
2021-09-23 21:06:33.986830,-38
2021-09-23 21:06:33.986836,-43
2021-09-23 21:06:33.986842,-64
2021-09-23 21:06:33.986848,-62
2021-09-23 21:06:33.986853,-48
2021-09-23 21:06:33.986859,-55
2021-09-23 21:06:33.986865,-64
2021-09-23 21:06:34.211695,-69
2021-09-23 21:06:34.211714,-52
2021-09-23 21:06:34.211722,-19
2021-09-23 21:06:34.211728,-24
2021-09-23 21:06:34.211734,-43
2021-09-23 21:06:34.211740,-33
2021-09-23 21:06:34.211746,-36
2021-09-23 21:06:34.211752,-72
2021-09-23 21:06:34.211758,-84
2021-09-23 21:06:34.211764,-55
2021-09-23 21:06:34.211769,-50
2021-09-23 21:06:34.211775,-64
2021-09-23 21:06:34.211781,-52
2021-09-23 21:06:34.211787,16
2021-09-23 21:06:34.211793,242
2021-09-23 21:06:34.211799,666
2021-09-23 21:06:34.211804,973
2021-09-23 21:06:34.211810,456
2021-09-23 21:06:34.211816,-550
2021-09-23 21:06:34.211822,-654
2021-09-23 21:06:34.211828,-161
2021-09-23 21:06:34.211833,-149
2021-09-23 21:06:34.211839,-245
2021-09-23 21:06:34.211845,-120
2021-09-23 21:06:34.211851,-98
2021-09-23 21:06:34.211856,-153
2021-09-23 21:06:34.211862,-113
2021-09-23 21:06:34.211868,-72
2021-09-23 21:06:34.211874,-79
2021-09-23 21:06:34.211879,-62
2021-09-23 21:06:34.525245,-40
2021-09-23 21:06:34.525264,-50
2021-09-23 21:06:34.525272,-55
2021-09-23 21:06:34.525278,-36
2021-09-23 21:06:34.525284,-14
2021-09-23 21:06:34.525290,-7
2021-09-23 21:06:34.525296,-12
2021-09-23 21:06:34.525302,2
2021-09-23 21:06:34.525308,33
2021-09-23 21:06:34.525314,52
2021-09-23 21:06:34.525319,72
2021-09-23 21:06:34.525325,96
2021-09-23 21:06:34.525331,91
2021-09-23 21:06:34.525337,67
2021-09-23 21:06:34.525343,45
2021-09-23 21:06:34.525348,31
2021-09-23 21:06:34.525354,12
2021-09-23 21:06:34.525360,-31
2021-09-23 21:06:34.525366,-76
2021-09-23 21:06:34.525371,-93
2021-09-23 21:06:34.525377,-108
2021-09-23 21:06:34.525383,-134
2021-09-23 21:06:34.525388,-137
2021-09-23 21:06:34.525394,-122
2021-09-23 21:06:34.525400,-120
2021-09-23 21:06:34.525406,-125
2021-09-23 21:06:34.525412,-127
2021-09-23 21:06:34.525418,-127
2021-09-23 21:06:34.525424,-117
2021-09-23 21:06:34.525429,-110
2021-09-23 21:06:34.750980,-103
2021-09-23 21:06:34.750998,-91
2021-09-23 21:06:34.751005,-84
2021-09-23 21:06:34.751011,-72
2021-09-23 21:06:34.751017,-57
2021-09-23 21:06:34.751023,-62
2021-09-23 21:06:34.751028,-67
2021-09-23 21:06:34.751034,-52
2021-09-23 21:06:34.751040,-45
2021-09-23 21:06:34.751046,-52
2021-09-23 21:06:34.751052,-48
2021-09-23 21:06:34.751057,-36
2021-09-23 21:06:34.751063,-36
2021-09-23 21:06:34.751069,-31
2021-09-23 21:06:34.751075,-24
2021-09-23 21:06:34.751080,-36
2021-09-23 21:06:34.751086,-26
2021-09-23 21:06:34.751092,-2
2021-09-23 21:06:34.751097,-16
2021-09-23 21:06:34.751103,-26
2021-09-23 21:06:34.751108,-19
2021-09-23 21:06:34.751114,-33
2021-09-23 21:06:34.751120,-48
2021-09-23 21:06:34.751125,-31
2021-09-23 21:06:34.751131,-21
2021-09-23 21:06:34.751137,-24
2021-09-23 21:06:34.751142,-19
2021-09-23 21:06:34.751148,28
2021-09-23 21:06:34.751154,214
2021-09-23 21:06:34.751159,615
2021-09-23 21:06:34.931568,1041
2021-09-23 21:06:34.931585,795
2021-09-23 21:06:34.931592,-235
2021-09-23 21:06:34.931598,-675
2021-09-23 21:06:34.931604,-199
2021-09-23 21:06:34.931610,-24
2021-09-23 21:06:34.931616,-192
2021-09-23 21:06:34.931621,-117
2021-09-23 21:06:34.931627,-26
2021-09-23 21:06:34.931633,-76
2021-09-23 21:06:34.931639,-76
2021-09-23 21:06:34.931645,-50
2021-09-23 21:06:34.931650,-64
2021-09-23 21:06:34.931656,-52
2021-09-23 21:06:34.931662,-21
2021-09-23 21:06:34.931668,-16
2021-09-23 21:06:34.931674,-16
2021-09-23 21:06:34.931680,-9
2021-09-23 21:06:34.931685,0
2021-09-23 21:06:34.931691,19
2021-09-23 21:06:34.931697,40
2021-09-23 21:06:34.931703,57
2021-09-23 21:06:34.931709,86
2021-09-23 21:06:34.931714,113
2021-09-23 21:06:34.931720,122
2021-09-23 21:06:34.931726,127
2021-09-23 21:06:34.931732,129
2021-09-23 21:06:34.931738,125
2021-09-23 21:06:34.931743,117
2021-09-23 21:06:34.931749,98
2021-09-23 21:06:35.111600,55
2021-09-23 21:06:35.111618,7
2021-09-23 21:06:35.111625,-31
2021-09-23 21:06:35.111631,-57
2021-09-23 21:06:35.111637,-74
2021-09-23 21:06:35.111643,-88
2021-09-23 21:06:35.111649,-101
2021-09-23 21:06:35.111655,-115
2021-09-23 21:06:35.111661,-125
2021-09-23 21:06:35.111667,-113
2021-09-23 21:06:35.111673,-108
2021-09-23 21:06:35.111679,-117
2021-09-23 21:06:35.111684,-110
2021-09-23 21:06:35.111690,-103
2021-09-23 21:06:35.111696,-103
2021-09-23 21:06:35.111702,-86
2021-09-23 21:06:35.111708,-72
2021-09-23 21:06:35.111714,-72
2021-09-23 21:06:35.111719,-62
2021-09-23 21:06:35.111725,-52
2021-09-23 21:06:35.111731,-57
2021-09-23 21:06:35.111737,-60
2021-09-23 21:06:35.111743,-43
2021-09-23 21:06:35.111749,-28
2021-09-23 21:06:35.111754,-28
2021-09-23 21:06:35.111760,-26
2021-09-23 21:06:35.111766,-19
2021-09-23 21:06:35.111771,-16
2021-09-23 21:06:35.111777,-16
2021-09-23 21:06:35.111783,-16
2021-09-23 21:06:35.381609,-24
2021-09-23 21:06:35.381627,-24
2021-09-23 21:06:35.381634,-9
2021-09-23 21:06:35.381641,0
2021-09-23 21:06:35.381647,-4
2021-09-23 21:06:35.381653,-4
2021-09-23 21:06:35.381659,0
2021-09-23 21:06:35.381665,-4
2021-09-23 21:06:35.381671,-26
2021-09-23 21:06:35.381677,-45
2021-09-23 21:06:35.381683,-38
2021-09-23 21:06:35.381689,-28
2021-09-23 21:06:35.381694,-21
2021-09-23 21:06:35.381700,7
2021-09-23 21:06:35.381706,81
2021-09-23 21:06:35.381712,303
2021-09-23 21:06:35.381718,740
2021-09-23 21:06:35.381724,1082
2021-09-23 21:06:35.381730,572
2021-09-23 21:06:35.381736,-471
2021-09-23 21:06:35.381742,-603
2021-09-23 21:06:35.381748,-86
2021-09-23 21:06:35.381754,-67
2021-09-23 21:06:35.381759,-202
2021-09-23 21:06:35.381765,-88
2021-09-23 21:06:35.381771,-36
2021-09-23 21:06:35.381777,-76
2021-09-23 21:06:35.381783,-52
2021-09-23 21:06:35.381788,-26
2021-09-23 21:06:35.381794,-40
2021-09-23 21:06:35.606703,-26
2021-09-23 21:06:35.606722,-2
2021-09-23 21:06:35.606729,2
2021-09-23 21:06:35.606735,2
2021-09-23 21:06:35.606741,2
2021-09-23 21:06:35.606747,12
2021-09-23 21:06:35.606753,26
2021-09-23 21:06:35.606759,40
2021-09-23 21:06:35.606765,64
2021-09-23 21:06:35.606771,88
2021-09-23 21:06:35.606776,101
2021-09-23 21:06:35.606782,113
2021-09-23 21:06:35.606788,129
2021-09-23 21:06:35.606794,132
2021-09-23 21:06:35.606799,122
2021-09-23 21:06:35.606805,91
2021-09-23 21:06:35.606811,55
2021-09-23 21:06:35.606817,26
2021-09-23 21:06:35.606823,0
2021-09-23 21:06:35.606829,-33
2021-09-23 21:06:35.606835,-69
2021-09-23 21:06:35.606841,-86
2021-09-23 21:06:35.606846,-88
2021-09-23 21:06:35.606852,-93
2021-09-23 21:06:35.606858,-105
2021-09-23 21:06:35.606863,-103
2021-09-23 21:06:35.606869,-103
2021-09-23 21:06:35.606875,-98
2021-09-23 21:06:35.606881,-93
2021-09-23 21:06:35.606886,-101
2021-09-23 21:06:35.921591,-103
2021-09-23 21:06:35.921608,-79
2021-09-23 21:06:35.921615,-62
2021-09-23 21:06:35.921621,-69
2021-09-23 21:06:35.921627,-69
2021-09-23 21:06:35.921633,-52
2021-09-23 21:06:35.921639,-48
2021-09-23 21:06:35.921645,-45
2021-09-23 21:06:35.921651,-38
2021-09-23 21:06:35.921657,-28
2021-09-23 21:06:35.921663,-16
2021-09-23 21:06:35.921669,-14
2021-09-23 21:06:35.921674,-14
2021-09-23 21:06:35.921680,-12
2021-09-23 21:06:35.921686,-26
2021-09-23 21:06:35.921692,-40
2021-09-23 21:06:35.921698,-28
2021-09-23 21:06:35.921703,-24
2021-09-23 21:06:35.921709,-26
2021-09-23 21:06:35.921715,-14
2021-09-23 21:06:35.921721,-16
2021-09-23 21:06:35.921726,-21
2021-09-23 21:06:35.921732,-12
2021-09-23 21:06:35.921738,-19
2021-09-23 21:06:35.921744,-38
2021-09-23 21:06:35.921750,-31
2021-09-23 21:06:35.921756,-14
2021-09-23 21:06:35.921761,-7
2021-09-23 21:06:35.921767,-14
2021-09-23 21:06:35.921773,0
2021-09-23 21:06:36.056681,26
2021-09-23 21:06:36.056701,4
2021-09-23 21:06:36.056708,-24
2021-09-23 21:06:36.056714,-19
2021-09-23 21:06:36.056720,-16
2021-09-23 21:06:36.056727,-7
2021-09-23 21:06:36.056733,9
2021-09-23 21:06:36.056739,33
2021-09-23 21:06:36.056745,151
2021-09-23 21:06:36.056751,500
2021-09-23 21:06:36.056757,993
2021-09-23 21:06:36.056763,978
2021-09-23 21:06:36.056769,76
2021-09-23 21:06:36.056775,-569
2021-09-23 21:06:36.056784,-242
2021-09-23 21:06:36.056791,12
2021-09-23 21:06:36.056797,-153
2021-09-23 21:06:36.056803,-137
2021-09-23 21:06:36.056809,-24
2021-09-23 21:06:36.056815,-62
2021-09-23 21:06:36.056821,-79
2021-09-23 21:06:36.056827,-24
2021-09-23 21:06:36.056833,-2
2021-09-23 21:06:36.056839,-14
2021-09-23 21:06:36.056845,-19
2021-09-23 21:06:36.056851,-26
2021-09-23 21:06:36.056857,-24
2021-09-23 21:06:36.056863,-12
2021-09-23 21:06:36.056869,-9
2021-09-23 21:06:36.056875,0
2021-09-23 21:06:36.281626,26
2021-09-23 21:06:36.281644,45
2021-09-23 21:06:36.281651,57
2021-09-23 21:06:36.281657,76
2021-09-23 21:06:36.281663,98
2021-09-23 21:06:36.281668,110
2021-09-23 21:06:36.281674,113
2021-09-23 21:06:36.281680,108
2021-09-23 21:06:36.281686,96
2021-09-23 21:06:36.281691,93
2021-09-23 21:06:36.281697,76
2021-09-23 21:06:36.281703,31
2021-09-23 21:06:36.281709,0
2021-09-23 21:06:36.281714,-9
2021-09-23 21:06:36.281720,-50
2021-09-23 21:06:36.281726,-96
2021-09-23 21:06:36.281732,-98
2021-09-23 21:06:36.281737,-86
2021-09-23 21:06:36.281743,-91
2021-09-23 21:06:36.281749,-98
2021-09-23 21:06:36.281754,-103
2021-09-23 21:06:36.281760,-103
2021-09-23 21:06:36.281766,-103
2021-09-23 21:06:36.281772,-96
2021-09-23 21:06:36.281777,-88
2021-09-23 21:06:36.281783,-81
2021-09-23 21:06:36.281789,-74
2021-09-23 21:06:36.281795,-74
2021-09-23 21:06:36.281800,-74
2021-09-23 21:06:36.281806,-62
2021-09-23 21:06:36.595284,-69
2021-09-23 21:06:36.595301,-67
2021-09-23 21:06:36.595308,-40
2021-09-23 21:06:36.595314,-31
2021-09-23 21:06:36.595320,-45
2021-09-23 21:06:36.595326,-36
2021-09-23 21:06:36.595332,-9
2021-09-23 21:06:36.595337,-28
2021-09-23 21:06:36.595343,-40
2021-09-23 21:06:36.595349,-7
2021-09-23 21:06:36.595355,-2
2021-09-23 21:06:36.595361,-28
2021-09-23 21:06:36.595366,-40
2021-09-23 21:06:36.595372,-28
2021-09-23 21:06:36.595378,-12
2021-09-23 21:06:36.595383,-12
2021-09-23 21:06:36.595389,-26
2021-09-23 21:06:36.595395,-28
2021-09-23 21:06:36.595401,-16
2021-09-23 21:06:36.595406,-14
2021-09-23 21:06:36.595412,-19
2021-09-23 21:06:36.595418,-12
2021-09-23 21:06:36.595424,-2
2021-09-23 21:06:36.595429,2
2021-09-23 21:06:36.595435,-4
2021-09-23 21:06:36.595441,-21
2021-09-23 21:06:36.595447,-24
2021-09-23 21:06:36.595453,2
2021-09-23 21:06:36.595459,21
2021-09-23 21:06:36.595464,28
2021-09-23 21:06:36.776602,26
2021-09-23 21:06:36.776619,9
2021-09-23 21:06:36.776626,-4
2021-09-23 21:06:36.776632,-7
2021-09-23 21:06:36.776638,-4
2021-09-23 21:06:36.776644,-9
2021-09-23 21:06:36.776650,-21
2021-09-23 21:06:36.776656,2
2021-09-23 21:06:36.776662,105
2021-09-23 21:06:36.776668,343
2021-09-23 21:06:36.776674,803
2021-09-23 21:06:36.776680,1204
2021-09-23 21:06:36.776686,680
2021-09-23 21:06:36.776692,-454
2021-09-23 21:06:36.776698,-608
2021-09-23 21:06:36.776703,-88
2021-09-23 21:06:36.776709,-98
2021-09-23 21:06:36.776715,-216
2021-09-23 21:06:36.776721,-67
2021-09-23 21:06:36.776726,-36
2021-09-23 21:06:36.776732,-98
2021-09-23 21:06:36.776738,-62
2021-09-23 21:06:36.776744,-31
2021-09-23 21:06:36.776750,-52
2021-09-23 21:06:36.776756,-48
2021-09-23 21:06:36.776762,-14
2021-09-23 21:06:36.776768,-4
2021-09-23 21:06:36.776773,-4
2021-09-23 21:06:36.776779,19
2021-09-23 21:06:36.776785,38
2021-09-23 21:06:36.956612,40
2021-09-23 21:06:36.956630,55
2021-09-23 21:06:36.956637,76
2021-09-23 21:06:36.956643,86
2021-09-23 21:06:36.956649,91
2021-09-23 21:06:36.956655,108
2021-09-23 21:06:36.956661,115
2021-09-23 21:06:36.956667,110
2021-09-23 21:06:36.956673,115
2021-09-23 21:06:36.956679,125
2021-09-23 21:06:36.956685,86
2021-09-23 21:06:36.956691,31
2021-09-23 21:06:36.956697,19
2021-09-23 21:06:36.956703,14
2021-09-23 21:06:36.956710,-26
2021-09-23 21:06:36.956716,-69
2021-09-23 21:06:36.956722,-84
2021-09-23 21:06:36.956741,-91
2021-09-23 21:06:36.956747,-91
2021-09-23 21:06:36.956753,-91
2021-09-23 21:06:36.956759,-98
2021-09-23 21:06:36.956765,-96
2021-09-23 21:06:36.956771,-88
2021-09-23 21:06:36.956777,-98
2021-09-23 21:06:36.956783,-98
2021-09-23 21:06:36.956797,-84
2021-09-23 21:06:36.956803,-74
2021-09-23 21:06:36.956809,-69
2021-09-23 21:06:36.956815,-50
2021-09-23 21:06:36.956821,-31
2021-09-23 21:06:37.226616,-33
2021-09-23 21:06:37.226633,-45
2021-09-23 21:06:37.226640,-38
2021-09-23 21:06:37.226647,-26
2021-09-23 21:06:37.226653,-28
2021-09-23 21:06:37.226659,-40
2021-09-23 21:06:37.226665,-38
2021-09-23 21:06:37.226671,-21
2021-09-23 21:06:37.226677,-12
2021-09-23 21:06:37.226683,-19
2021-09-23 21:06:37.226688,-26
2021-09-23 21:06:37.226694,-33
2021-09-23 21:06:37.226700,-40
2021-09-23 21:06:37.226706,-33
2021-09-23 21:06:37.226711,-31
2021-09-23 21:06:37.226717,-38
2021-09-23 21:06:37.226723,-36
2021-09-23 21:06:37.226729,-26
2021-09-23 21:06:37.226735,-24
2021-09-23 21:06:37.226740,-21
2021-09-23 21:06:37.226746,-16
2021-09-23 21:06:37.226752,-21
2021-09-23 21:06:37.226758,-21
2021-09-23 21:06:37.226764,-14
2021-09-23 21:06:37.226769,-14
2021-09-23 21:06:37.226775,-24
2021-09-23 21:06:37.226781,-26
2021-09-23 21:06:37.226786,-19
2021-09-23 21:06:37.226792,-28
2021-09-23 21:06:37.226798,-45
2021-09-23 21:06:37.406509,-38
2021-09-23 21:06:37.406526,-21
2021-09-23 21:06:37.406533,-14
2021-09-23 21:06:37.406539,-9
2021-09-23 21:06:37.406545,-2
2021-09-23 21:06:37.406551,4
2021-09-23 21:06:37.406557,2
2021-09-23 21:06:37.406563,-16
2021-09-23 21:06:37.406568,-33
2021-09-23 21:06:37.406574,-33
2021-09-23 21:06:37.406580,-26
2021-09-23 21:06:37.406586,-24
2021-09-23 21:06:37.406592,-16
2021-09-23 21:06:37.406598,19
2021-09-23 21:06:37.406603,141
2021-09-23 21:06:37.406609,459
2021-09-23 21:06:37.406615,949
2021-09-23 21:06:37.406621,1031
2021-09-23 21:06:37.406627,110
2021-09-23 21:06:37.406633,-747
2021-09-23 21:06:37.406638,-428
2021-09-23 21:06:37.406644,-7
2021-09-23 21:06:37.406650,-141
2021-09-23 21:06:37.406656,-137
2021-09-23 21:06:37.406661,-4
2021-09-23 21:06:37.406667,-43
2021-09-23 21:06:37.406673,-74
2021-09-23 21:06:37.406679,-26
2021-09-23 21:06:37.406684,-14
2021-09-23 21:06:37.406690,-19
2021-09-23 21:06:37.676622,7
2021-09-23 21:06:37.676640,28
2021-09-23 21:06:37.676647,26
2021-09-23 21:06:37.676653,28
2021-09-23 21:06:37.676659,36
2021-09-23 21:06:37.676665,43
2021-09-23 21:06:37.676671,62
2021-09-23 21:06:37.676677,74
2021-09-23 21:06:37.676683,76
2021-09-23 21:06:37.676689,103
2021-09-23 21:06:37.676694,134
2021-09-23 21:06:37.676700,134
2021-09-23 21:06:37.676706,137
2021-09-23 21:06:37.676712,141
2021-09-23 21:06:37.676718,122
2021-09-23 21:06:37.676723,91
2021-09-23 21:06:37.676729,79
2021-09-23 21:06:37.676735,62
2021-09-23 21:06:37.676741,31
2021-09-23 21:06:37.676746,2
2021-09-23 21:06:37.676752,-24
2021-09-23 21:06:37.676758,-48
2021-09-23 21:06:37.676763,-64
2021-09-23 21:06:37.676769,-81
2021-09-23 21:06:37.676775,-93
2021-09-23 21:06:37.676781,-91
2021-09-23 21:06:37.676786,-96
2021-09-23 21:06:37.676792,-101
2021-09-23 21:06:37.676798,-93
2021-09-23 21:06:37.676804,-88
2021-09-23 21:06:37.901622,-72
2021-09-23 21:06:37.901639,-60
2021-09-23 21:06:37.901646,-69
2021-09-23 21:06:37.901652,-67
2021-09-23 21:06:37.901658,-48
2021-09-23 21:06:37.901664,-38
2021-09-23 21:06:37.901670,-26
2021-09-23 21:06:37.901676,-12
2021-09-23 21:06:37.901681,-19
2021-09-23 21:06:37.901687,-26
2021-09-23 21:06:37.901693,-24
2021-09-23 21:06:37.901698,-36
2021-09-23 21:06:37.901704,-45
2021-09-23 21:06:37.901709,-31
2021-09-23 21:06:37.901715,-28
2021-09-23 21:06:37.901721,-57
2021-09-23 21:06:37.901726,-81
2021-09-23 21:06:37.901732,-79
2021-09-23 21:06:37.901738,-60
2021-09-23 21:06:37.901744,-48
2021-09-23 21:06:37.901749,-57
2021-09-23 21:06:37.901755,-64
2021-09-23 21:06:37.901761,-57
2021-09-23 21:06:37.901766,-50
2021-09-23 21:06:37.901772,-45
2021-09-23 21:06:37.901778,-36
2021-09-23 21:06:37.901784,-33
2021-09-23 21:06:37.901790,-43
2021-09-23 21:06:37.901796,-40
2021-09-23 21:06:37.901801,-31
2021-09-23 21:06:38.126645,-24
2021-09-23 21:06:38.126662,-16
2021-09-23 21:06:38.126669,-4
2021-09-23 21:06:38.126675,0
2021-09-23 21:06:38.126681,-9
2021-09-23 21:06:38.126687,-24
2021-09-23 21:06:38.126693,-38
2021-09-23 21:06:38.126699,-36
2021-09-23 21:06:38.126705,-26
2021-09-23 21:06:38.126711,-19
2021-09-23 21:06:38.126717,-9
2021-09-23 21:06:38.126723,28
2021-09-23 21:06:38.126728,182
2021-09-23 21:06:38.126734,543
2021-09-23 21:06:38.126740,1005
2021-09-23 21:06:38.126746,906
2021-09-23 21:06:38.126752,-120
2021-09-23 21:06:38.126758,-769
2021-09-23 21:06:38.126764,-312
2021-09-23 21:06:38.126769,-2
2021-09-23 21:06:38.126775,-156
2021-09-23 21:06:38.126780,-110
2021-09-23 21:06:38.126786,-2
2021-09-23 21:06:38.126792,-43
2021-09-23 21:06:38.126798,-43
2021-09-23 21:06:38.126804,-4
2021-09-23 21:06:38.126810,-16
2021-09-23 21:06:38.126815,-4
2021-09-23 21:06:38.126821,40
2021-09-23 21:06:38.126827,45
2021-09-23 21:06:38.351594,26
2021-09-23 21:06:38.351612,36
2021-09-23 21:06:38.351619,57
2021-09-23 21:06:38.351625,60
2021-09-23 21:06:38.351631,74
2021-09-23 21:06:38.351637,103
2021-09-23 21:06:38.351643,117
2021-09-23 21:06:38.351649,125
2021-09-23 21:06:38.351655,149
2021-09-23 21:06:38.351661,165
2021-09-23 21:06:38.351667,156
2021-09-23 21:06:38.351672,153
2021-09-23 21:06:38.351678,146
2021-09-23 21:06:38.351684,113
2021-09-23 21:06:38.351690,72
2021-09-23 21:06:38.351696,48
2021-09-23 21:06:38.351701,24
2021-09-23 21:06:38.351707,-7
2021-09-23 21:06:38.351713,-36
2021-09-23 21:06:38.351719,-72
2021-09-23 21:06:38.351725,-105
2021-09-23 21:06:38.351730,-115
2021-09-23 21:06:38.351736,-115
2021-09-23 21:06:38.351742,-127
2021-09-23 21:06:38.351748,-137
2021-09-23 21:06:38.351754,-132
2021-09-23 21:06:38.351760,-115
2021-09-23 21:06:38.351765,-108
2021-09-23 21:06:38.351771,-103
2021-09-23 21:06:38.351777,-88
2021-09-23 21:06:38.665374,-79
2021-09-23 21:06:38.665392,-79
2021-09-23 21:06:38.665399,-72
2021-09-23 21:06:38.665405,-57
2021-09-23 21:06:38.665411,-45
2021-09-23 21:06:38.665417,-36
2021-09-23 21:06:38.665423,-28
2021-09-23 21:06:38.665428,-45
2021-09-23 21:06:38.665434,-62
2021-09-23 21:06:38.665440,-45
2021-09-23 21:06:38.665446,-24
2021-09-23 21:06:38.665452,-38
2021-09-23 21:06:38.665457,-52
2021-09-23 21:06:38.665463,-48
2021-09-23 21:06:38.665469,-48
2021-09-23 21:06:38.665475,-45
2021-09-23 21:06:38.665481,-31
2021-09-23 21:06:38.665486,-24
2021-09-23 21:06:38.665492,-38
2021-09-23 21:06:38.665501,-45
2021-09-23 21:06:38.665507,-33
2021-09-23 21:06:38.665513,-16
2021-09-23 21:06:38.665519,-16
2021-09-23 21:06:38.665525,-28
2021-09-23 21:06:38.665530,-24
2021-09-23 21:06:38.665536,-9
2021-09-23 21:06:38.665542,-14
2021-09-23 21:06:38.665548,-21
2021-09-23 21:06:38.665554,-16
2021-09-23 21:06:38.665559,-9
2021-09-23 21:06:38.801654,0
2021-09-23 21:06:38.801672,14
2021-09-23 21:06:38.801679,31
2021-09-23 21:06:38.801685,33
2021-09-23 21:06:38.801691,14
2021-09-23 21:06:38.801697,-4
2021-09-23 21:06:38.801703,-19
2021-09-23 21:06:38.801709,-24
2021-09-23 21:06:38.801715,-4
2021-09-23 21:06:38.801721,7
2021-09-23 21:06:38.801727,9
2021-09-23 21:06:38.801733,93
2021-09-23 21:06:38.801738,387
2021-09-23 21:06:38.801744,887
2021-09-23 21:06:38.801750,1168
2021-09-23 21:06:38.801756,468
2021-09-23 21:06:38.801761,-591
2021-09-23 21:06:38.801767,-543
2021-09-23 21:06:38.801773,-31
2021-09-23 21:06:38.801778,-103
2021-09-23 21:06:38.801784,-189
2021-09-23 21:06:38.801790,-36
2021-09-23 21:06:38.801796,-33
2021-09-23 21:06:38.801801,-79
2021-09-23 21:06:38.801807,-14
2021-09-23 21:06:38.801812,2
2021-09-23 21:06:38.801818,-38
2021-09-23 21:06:38.801824,-24
2021-09-23 21:06:38.801829,-7
2021-09-23 21:06:38.801835,-12
2021-09-23 21:06:39.026704,4
2021-09-23 21:06:39.026724,31
2021-09-23 21:06:39.026731,38
2021-09-23 21:06:39.026737,45
2021-09-23 21:06:39.026743,62
2021-09-23 21:06:39.026749,69
2021-09-23 21:06:39.026755,84
2021-09-23 21:06:39.026761,115
2021-09-23 21:06:39.026767,137
2021-09-23 21:06:39.026773,127
2021-09-23 21:06:39.026778,113
2021-09-23 21:06:39.026784,105
2021-09-23 21:06:39.026790,96
2021-09-23 21:06:39.026795,74
2021-09-23 21:06:39.026801,52
2021-09-23 21:06:39.026807,19
2021-09-23 21:06:39.026812,-24
2021-09-23 21:06:39.026818,-60
2021-09-23 21:06:39.026824,-79
2021-09-23 21:06:39.026830,-91
2021-09-23 21:06:39.026835,-105
2021-09-23 21:06:39.026841,-127
2021-09-23 21:06:39.026847,-132
2021-09-23 21:06:39.026853,-120
2021-09-23 21:06:39.026859,-108
2021-09-23 21:06:39.026865,-105
2021-09-23 21:06:39.026871,-108
2021-09-23 21:06:39.026876,-105
2021-09-23 21:06:39.026882,-91
2021-09-23 21:06:39.026888,-76
2021-09-23 21:06:39.296863,-74
2021-09-23 21:06:39.296882,-69
2021-09-23 21:06:39.296890,-57
2021-09-23 21:06:39.296896,-45
2021-09-23 21:06:39.296902,-28
2021-09-23 21:06:39.296908,-24
2021-09-23 21:06:39.296914,-28
2021-09-23 21:06:39.296919,-28
2021-09-23 21:06:39.296925,-24
2021-09-23 21:06:39.296931,-24
2021-09-23 21:06:39.296937,-31
2021-09-23 21:06:39.296942,-38
2021-09-23 21:06:39.296948,-38
2021-09-23 21:06:39.296954,-26
2021-09-23 21:06:39.296960,-26
2021-09-23 21:06:39.296966,-45
2021-09-23 21:06:39.296971,-50
2021-09-23 21:06:39.296977,-31
2021-09-23 21:06:39.296983,-21
2021-09-23 21:06:39.296989,-21
2021-09-23 21:06:39.296995,-16
2021-09-23 21:06:39.297000,-19
2021-09-23 21:06:39.297006,-28
2021-09-23 21:06:39.297012,-21
2021-09-23 21:06:39.297017,-7
2021-09-23 21:06:39.297023,-9
2021-09-23 21:06:39.297029,-14
2021-09-23 21:06:39.297035,-16
2021-09-23 21:06:39.297040,-9
2021-09-23 21:06:39.297046,-2
2021-09-23 21:06:39.566730,-4
2021-09-23 21:06:39.566749,4
2021-09-23 21:06:39.566756,28
2021-09-23 21:06:39.566762,21
2021-09-23 21:06:39.566768,7
2021-09-23 21:06:39.566774,12
2021-09-23 21:06:39.566780,4
2021-09-23 21:06:39.566786,-4
2021-09-23 21:06:39.566792,-4
2021-09-23 21:06:39.566797,-19
2021-09-23 21:06:39.566803,-21
2021-09-23 21:06:39.566809,9
2021-09-23 21:06:39.566815,57
2021-09-23 21:06:39.566820,230
2021-09-23 21:06:39.566826,646
2021-09-23 21:06:39.566832,1130
2021-09-23 21:06:39.566838,921
2021-09-23 21:06:39.566844,-175
2021-09-23 21:06:39.566850,-709
2021-09-23 21:06:39.566855,-228
2021-09-23 21:06:39.566861,-33
2021-09-23 21:06:39.566867,-211
2021-09-23 21:06:39.566872,-122
2021-09-23 21:06:39.566878,-24
2021-09-23 21:06:39.566884,-76
2021-09-23 21:06:39.566889,-52
2021-09-23 21:06:39.566895,-4
2021-09-23 21:06:39.566901,-33
2021-09-23 21:06:39.566907,-38
2021-09-23 21:06:39.566912,-2
2021-09-23 21:06:39.791161,14
2021-09-23 21:06:39.791180,9
2021-09-23 21:06:39.791187,12
2021-09-23 21:06:39.791194,33
2021-09-23 21:06:39.791200,60
2021-09-23 21:06:39.791206,60
2021-09-23 21:06:39.791211,62
2021-09-23 21:06:39.791217,81
2021-09-23 21:06:39.791223,91
2021-09-23 21:06:39.791229,101
2021-09-23 21:06:39.791234,120
2021-09-23 21:06:39.791240,122
2021-09-23 21:06:39.791245,117
2021-09-23 21:06:39.791251,122
2021-09-23 21:06:39.791257,108
2021-09-23 21:06:39.791263,62
2021-09-23 21:06:39.791269,24
2021-09-23 21:06:39.791274,4
2021-09-23 21:06:39.791280,-26
2021-09-23 21:06:39.791286,-64
2021-09-23 21:06:39.791291,-81
2021-09-23 21:06:39.791297,-93
2021-09-23 21:06:39.791303,-115
2021-09-23 21:06:39.791308,-120
2021-09-23 21:06:39.791314,-108
2021-09-23 21:06:39.791320,-110
2021-09-23 21:06:39.791325,-120
2021-09-23 21:06:39.791331,-115
2021-09-23 21:06:39.791337,-101
2021-09-23 21:06:39.791342,-88
2021-09-23 21:06:40.061146,-86
2021-09-23 21:06:40.061165,-84
2021-09-23 21:06:40.061172,-79
2021-09-23 21:06:40.061178,-62
2021-09-23 21:06:40.061185,-45
2021-09-23 21:06:40.061191,-36
2021-09-23 21:06:40.061197,-38
2021-09-23 21:06:40.061203,-48
2021-09-23 21:06:40.061208,-55
2021-09-23 21:06:40.061214,-50
2021-09-23 21:06:40.061220,-52
2021-09-23 21:06:40.061226,-48
2021-09-23 21:06:40.061232,-40
2021-09-23 21:06:40.061238,-50
2021-09-23 21:06:40.061244,-64
2021-09-23 21:06:40.061250,-60
2021-09-23 21:06:40.061256,-52
2021-09-23 21:06:40.061261,-57
2021-09-23 21:06:40.061267,-55
2021-09-23 21:06:40.061273,-45
2021-09-23 21:06:40.061279,-50
2021-09-23 21:06:40.061284,-50
2021-09-23 21:06:40.061290,-38
2021-09-23 21:06:40.061296,-33
2021-09-23 21:06:40.061302,-36
2021-09-23 21:06:40.061308,-33
2021-09-23 21:06:40.061313,-31
2021-09-23 21:06:40.061319,-31
2021-09-23 21:06:40.061325,-26
2021-09-23 21:06:40.061331,-16
2021-09-23 21:06:40.196651,-24
2021-09-23 21:06:40.196668,-28
2021-09-23 21:06:40.196675,-2
2021-09-23 21:06:40.196682,16
2021-09-23 21:06:40.196688,16
2021-09-23 21:06:40.196694,14
2021-09-23 21:06:40.196700,9
2021-09-23 21:06:40.196706,0
2021-09-23 21:06:40.196712,-14
2021-09-23 21:06:40.196718,-21
2021-09-23 21:06:40.196723,-12
2021-09-23 21:06:40.196729,-7
2021-09-23 21:06:40.196735,-2
2021-09-23 21:06:40.196741,52
2021-09-23 21:06:40.196747,252
2021-09-23 21:06:40.196753,639
2021-09-23 21:06:40.196759,1065
2021-09-23 21:06:40.196764,829
2021-09-23 21:06:40.196770,-238
2021-09-23 21:06:40.196776,-716
2021-09-23 21:06:40.196782,-216
2021-09-23 21:06:40.196788,-9
2021-09-23 21:06:40.196794,-175
2021-09-23 21:06:40.196799,-105
2021-09-23 21:06:40.196805,-19
2021-09-23 21:06:40.196811,-60
2021-09-23 21:06:40.196817,-45
2021-09-23 21:06:40.196823,2
2021-09-23 21:06:40.196829,-2
2021-09-23 21:06:40.196834,-12
2021-09-23 21:06:40.421670,12
2021-09-23 21:06:40.421688,28
2021-09-23 21:06:40.421695,26
2021-09-23 21:06:40.421701,31
2021-09-23 21:06:40.421707,50
2021-09-23 21:06:40.421713,52
2021-09-23 21:06:40.421719,43
2021-09-23 21:06:40.421725,57
2021-09-23 21:06:40.421731,91
2021-09-23 21:06:40.421737,113
2021-09-23 21:06:40.421742,127
2021-09-23 21:06:40.421748,149
2021-09-23 21:06:40.421754,149
2021-09-23 21:06:40.421760,132
2021-09-23 21:06:40.421766,105
2021-09-23 21:06:40.421771,76
2021-09-23 21:06:40.421777,62
2021-09-23 21:06:40.421783,40
2021-09-23 21:06:40.421789,0
2021-09-23 21:06:40.421794,-31
2021-09-23 21:06:40.421800,-79
2021-09-23 21:06:40.421806,-120
2021-09-23 21:06:40.421812,-113
2021-09-23 21:06:40.421818,-110
2021-09-23 21:06:40.421824,-127
2021-09-23 21:06:40.421829,-132
2021-09-23 21:06:40.421835,-125
2021-09-23 21:06:40.421841,-110
2021-09-23 21:06:40.421847,-103
2021-09-23 21:06:40.421852,-108
2021-09-23 21:06:40.690398,-110
2021-09-23 21:06:40.690417,-110
2021-09-23 21:06:40.690424,-103
2021-09-23 21:06:40.690430,-72
2021-09-23 21:06:40.690436,-52
2021-09-23 21:06:40.690442,-62
2021-09-23 21:06:40.690448,-67
2021-09-23 21:06:40.690454,-52
2021-09-23 21:06:40.690460,-45
2021-09-23 21:06:40.690466,-52
2021-09-23 21:06:40.690472,-43
2021-09-23 21:06:40.690478,-33
2021-09-23 21:06:40.690483,-52
2021-09-23 21:06:40.690489,-72
2021-09-23 21:06:40.690495,-52
2021-09-23 21:06:40.690501,-33
2021-09-23 21:06:40.690507,-38
2021-09-23 21:06:40.690513,-45
2021-09-23 21:06:40.690518,-43
2021-09-23 21:06:40.690524,-40
2021-09-23 21:06:40.690530,-40
2021-09-23 21:06:40.690535,-28
2021-09-23 21:06:40.690541,-14
2021-09-23 21:06:40.690547,-2
2021-09-23 21:06:40.690553,28
2021-09-23 21:06:40.690558,52
2021-09-23 21:06:40.690564,40
2021-09-23 21:06:40.690570,16
2021-09-23 21:06:40.690576,7
2021-09-23 21:06:40.690582,0
2021-09-23 21:06:40.916659,-7
2021-09-23 21:06:40.916677,0
2021-09-23 21:06:40.916684,33
2021-09-23 21:06:40.916690,96
2021-09-23 21:06:40.916696,276
2021-09-23 21:06:40.916702,658
2021-09-23 21:06:40.916708,976
2021-09-23 21:06:40.916714,505
2021-09-23 21:06:40.916720,-519
2021-09-23 21:06:40.916726,-654
2021-09-23 21:06:40.916731,-93
2021-09-23 21:06:40.916737,-38
2021-09-23 21:06:40.916743,-156
2021-09-23 21:06:40.916749,-14
2021-09-23 21:06:40.916755,16
2021-09-23 21:06:40.916760,-57
2021-09-23 21:06:40.916766,-31
2021-09-23 21:06:40.916772,7
2021-09-23 21:06:40.916778,14
2021-09-23 21:06:40.916784,40
2021-09-23 21:06:40.916789,40
2021-09-23 21:06:40.916795,19
2021-09-23 21:06:40.916800,28
2021-09-23 21:06:40.916809,62
2021-09-23 21:06:40.916815,79
2021-09-23 21:06:40.916821,88
2021-09-23 21:06:40.916827,98
2021-09-23 21:06:40.916832,115
2021-09-23 21:06:40.916838,158
2021-09-23 21:06:40.916844,192
2021-09-23 21:06:41.186747,187
2021-09-23 21:06:41.186765,214
2021-09-23 21:06:41.186772,235
2021-09-23 21:06:41.186778,204
2021-09-23 21:06:41.186784,175
2021-09-23 21:06:41.186790,144
2021-09-23 21:06:41.186796,101
2021-09-23 21:06:41.186802,57
2021-09-23 21:06:41.186808,12
2021-09-23 21:06:41.186814,-38
2021-09-23 21:06:41.186820,-79
2021-09-23 21:06:41.186825,-113
2021-09-23 21:06:41.186831,-132
2021-09-23 21:06:41.186837,-134
2021-09-23 21:06:41.186843,-134
2021-09-23 21:06:41.186848,-134
2021-09-23 21:06:41.186854,-132
2021-09-23 21:06:41.186860,-141
2021-09-23 21:06:41.186866,-156
2021-09-23 21:06:41.186872,-144
2021-09-23 21:06:41.186878,-132
2021-09-23 21:06:41.186883,-132
2021-09-23 21:06:41.186889,-115
2021-09-23 21:06:41.186895,-110
2021-09-23 21:06:41.186901,-113
2021-09-23 21:06:41.186906,-76
2021-09-23 21:06:41.186912,-52
2021-09-23 21:06:41.186918,-96
2021-09-23 21:06:41.186924,-120
2021-09-23 21:06:41.186930,-84
2021-09-23 21:06:41.366662,-74
2021-09-23 21:06:41.366679,-76
2021-09-23 21:06:41.366686,-40
2021-09-23 21:06:41.366692,-40
2021-09-23 21:06:41.366698,-88
2021-09-23 21:06:41.366705,-88
2021-09-23 21:06:41.366710,-57
2021-09-23 21:06:41.366716,-62
2021-09-23 21:06:41.366722,-57
2021-09-23 21:06:41.366728,-40
2021-09-23 21:06:41.366734,-48
2021-09-23 21:06:41.366740,-48
2021-09-23 21:06:41.366745,-45
2021-09-23 21:06:41.366751,-52
2021-09-23 21:06:41.366757,-86
2021-09-23 21:06:41.366763,-120
2021-09-23 21:06:41.366768,-108
2021-09-23 21:06:41.366774,-84
2021-09-23 21:06:41.366780,-69
2021-09-23 21:06:41.366785,-21
2021-09-23 21:06:41.366791,146
2021-09-23 21:06:41.366797,502
2021-09-23 21:06:41.366803,805
2021-09-23 21:06:41.366809,353
2021-09-23 21:06:41.366814,-610
2021-09-23 21:06:41.366820,-709
2021-09-23 21:06:41.366826,-177
2021-09-23 21:06:41.366832,-132
2021-09-23 21:06:41.366837,-226
2021-09-23 21:06:41.366843,-81
2021-09-23 21:06:41.591706,-50
2021-09-23 21:06:41.591724,-113
2021-09-23 21:06:41.591731,-91
2021-09-23 21:06:41.591737,-72
2021-09-23 21:06:41.591744,-79
2021-09-23 21:06:41.591753,-60
2021-09-23 21:06:41.591759,-36
2021-09-23 21:06:41.591765,-26
2021-09-23 21:06:41.591771,-33
2021-09-23 21:06:41.591776,-28
2021-09-23 21:06:41.591782,-2
2021-09-23 21:06:41.591788,21
2021-09-23 21:06:41.591794,36
2021-09-23 21:06:41.591800,55
2021-09-23 21:06:41.591806,69
2021-09-23 21:06:41.591811,76
2021-09-23 21:06:41.591817,101
2021-09-23 21:06:41.591823,146
2021-09-23 21:06:41.591829,170
2021-09-23 21:06:41.591835,156
2021-09-23 21:06:41.591841,132
2021-09-23 21:06:41.591846,96
2021-09-23 21:06:41.591852,43
2021-09-23 21:06:41.591858,-14
2021-09-23 21:06:41.591864,-64
2021-09-23 21:06:41.591869,-98
2021-09-23 21:06:41.591875,-129
2021-09-23 21:06:41.591881,-151
2021-09-23 21:06:41.591887,-146
2021-09-23 21:06:41.591892,-151
2021-09-23 21:06:41.816680,-173
2021-09-23 21:06:41.816697,-175
2021-09-23 21:06:41.816704,-156
2021-09-23 21:06:41.816710,-146
2021-09-23 21:06:41.816716,-141
2021-09-23 21:06:41.816722,-137
2021-09-23 21:06:41.816728,-149
2021-09-23 21:06:41.816734,-146
2021-09-23 21:06:41.816739,-122
2021-09-23 21:06:41.816745,-113
2021-09-23 21:06:41.816751,-96
2021-09-23 21:06:41.816757,-45
2021-09-23 21:06:41.816762,-19
2021-09-23 21:06:41.816768,-31
2021-09-23 21:06:41.816774,-43
2021-09-23 21:06:41.816780,-57
2021-09-23 21:06:41.816785,-79
2021-09-23 21:06:41.816791,-74
2021-09-23 21:06:41.816797,-48
2021-09-23 21:06:41.816803,-33
2021-09-23 21:06:41.816808,-43
2021-09-23 21:06:41.816814,-57
2021-09-23 21:06:41.816820,-69
2021-09-23 21:06:41.816826,-69
2021-09-23 21:06:41.816831,-43
2021-09-23 21:06:41.816837,-21
2021-09-23 21:06:41.816843,-19
2021-09-23 21:06:41.816849,-7
2021-09-23 21:06:41.816855,12
2021-09-23 21:06:41.816861,14
2021-09-23 21:06:42.041722,-9
2021-09-23 21:06:42.041741,-45
2021-09-23 21:06:42.041748,-57
2021-09-23 21:06:42.041754,-55
2021-09-23 21:06:42.041760,-48
2021-09-23 21:06:42.041766,-31
2021-09-23 21:06:42.041772,-16
2021-09-23 21:06:42.041778,7
2021-09-23 21:06:42.041784,165
2021-09-23 21:06:42.041790,577
2021-09-23 21:06:42.041799,1050
2021-09-23 21:06:42.041805,844
2021-09-23 21:06:42.041828,-165
2021-09-23 21:06:42.041835,-627
2021-09-23 21:06:42.041840,-204
2021-09-23 21:06:42.041846,-52
2021-09-23 21:06:42.041852,-204
2021-09-23 21:06:42.041858,-120
2021-09-23 21:06:42.041864,-48
2021-09-23 21:06:42.041869,-127
2021-09-23 21:06:42.041875,-132
2021-09-23 21:06:42.041881,-72
2021-09-23 21:06:42.041887,-57
2021-09-23 21:06:42.041892,-57
2021-09-23 21:06:42.041898,-45
2021-09-23 21:06:42.041904,-36
2021-09-23 21:06:42.041910,-21
2021-09-23 21:06:42.041915,-7
2021-09-23 21:06:42.041921,-2
2021-09-23 21:06:42.041927,-9
2021-09-23 21:06:42.266801,0
2021-09-23 21:06:42.266819,43
2021-09-23 21:06:42.266827,69
2021-09-23 21:06:42.266833,62
2021-09-23 21:06:42.266839,86
2021-09-23 21:06:42.266845,132
2021-09-23 21:06:42.266851,125
2021-09-23 21:06:42.266857,81
2021-09-23 21:06:42.266862,67
2021-09-23 21:06:42.266868,74
2021-09-23 21:06:42.266874,62
2021-09-23 21:06:42.266880,43
2021-09-23 21:06:42.266885,21
2021-09-23 21:06:42.266891,-19
2021-09-23 21:06:42.266897,-72
2021-09-23 21:06:42.266903,-96
2021-09-23 21:06:42.266909,-79
2021-09-23 21:06:42.266914,-74
2021-09-23 21:06:42.266920,-101
2021-09-23 21:06:42.266925,-115
2021-09-23 21:06:42.266931,-98
2021-09-23 21:06:42.266937,-84
2021-09-23 21:06:42.266942,-79
2021-09-23 21:06:42.266948,-76
2021-09-23 21:06:42.266954,-76
2021-09-23 21:06:42.266959,-81
2021-09-23 21:06:42.266965,-86
2021-09-23 21:06:42.266971,-69
2021-09-23 21:06:42.266976,-48
2021-09-23 21:06:42.266982,-45
2021-09-23 21:06:42.491730,-45
2021-09-23 21:06:42.491749,-26
2021-09-23 21:06:42.491756,-7
2021-09-23 21:06:42.491763,-14
2021-09-23 21:06:42.491769,-24
2021-09-23 21:06:42.491775,-19
2021-09-23 21:06:42.491782,-14
2021-09-23 21:06:42.491788,-26
2021-09-23 21:06:42.491794,-48
2021-09-23 21:06:42.491800,-50
2021-09-23 21:06:42.491806,-50
2021-09-23 21:06:42.491812,-64
2021-09-23 21:06:42.491818,-60
2021-09-23 21:06:42.491824,-36
2021-09-23 21:06:42.491830,-19
2021-09-23 21:06:42.491836,-9
2021-09-23 21:06:42.491842,-24
2021-09-23 21:06:42.491847,-52
2021-09-23 21:06:42.491853,-57
2021-09-23 21:06:42.491859,-36
2021-09-23 21:06:42.491865,-28
2021-09-23 21:06:42.491871,-33
2021-09-23 21:06:42.491877,-9
2021-09-23 21:06:42.491883,86
2021-09-23 21:06:42.491889,353
2021-09-23 21:06:42.491895,839
2021-09-23 21:06:42.491901,1183
2021-09-23 21:06:42.491907,606
2021-09-23 21:06:42.491913,-468
2021-09-23 21:06:42.491919,-562
2021-09-23 21:06:42.760360,-60
2021-09-23 21:06:42.760377,-76
2021-09-23 21:06:42.760384,-194
2021-09-23 21:06:42.760390,-67
2021-09-23 21:06:42.760396,-48
2021-09-23 21:06:42.760403,-105
2021-09-23 21:06:42.760409,-60
2021-09-23 21:06:42.760415,-33
2021-09-23 21:06:42.760421,-64
2021-09-23 21:06:42.760426,-60
2021-09-23 21:06:42.760432,-38
2021-09-23 21:06:42.760438,-43
2021-09-23 21:06:42.760444,-24
2021-09-23 21:06:42.760450,12
2021-09-23 21:06:42.760456,19
2021-09-23 21:06:42.760462,24
2021-09-23 21:06:42.760467,55
2021-09-23 21:06:42.760473,69
2021-09-23 21:06:42.760479,76
2021-09-23 21:06:42.760484,113
2021-09-23 21:06:42.760490,132
2021-09-23 21:06:42.760496,120
2021-09-23 21:06:42.760502,125
2021-09-23 21:06:42.760508,132
2021-09-23 21:06:42.760514,108
2021-09-23 21:06:42.760519,84
2021-09-23 21:06:42.760525,64
2021-09-23 21:06:42.760531,26
2021-09-23 21:06:42.760537,-4
2021-09-23 21:06:42.760543,-33
2021-09-23 21:06:42.941679,-67
2021-09-23 21:06:42.941696,-79
2021-09-23 21:06:42.941703,-81
2021-09-23 21:06:42.941709,-103
2021-09-23 21:06:42.941715,-105
2021-09-23 21:06:42.941721,-86
2021-09-23 21:06:42.941727,-84
2021-09-23 21:06:42.941733,-88
2021-09-23 21:06:42.941739,-79
2021-09-23 21:06:42.941745,-81
2021-09-23 21:06:42.941751,-105
2021-09-23 21:06:42.941757,-110
2021-09-23 21:06:42.941763,-98
2021-09-23 21:06:42.941769,-105
2021-09-23 21:06:42.941775,-105
2021-09-23 21:06:42.941781,-86
2021-09-23 21:06:42.941787,-74
2021-09-23 21:06:42.941793,-67
2021-09-23 21:06:42.941799,-55
2021-09-23 21:06:42.941805,-48
2021-09-23 21:06:42.941811,-50
2021-09-23 21:06:42.941816,-36
2021-09-23 21:06:42.941822,-28
2021-09-23 21:06:42.941827,-38
2021-09-23 21:06:42.941833,-38
2021-09-23 21:06:42.941839,-40
2021-09-23 21:06:42.941845,-60
2021-09-23 21:06:42.941850,-55
2021-09-23 21:06:42.941856,-24
2021-09-23 21:06:42.941862,-16
2021-09-23 21:06:43.256713,-28
2021-09-23 21:06:43.256731,-26
2021-09-23 21:06:43.256738,-14
2021-09-23 21:06:43.256744,-4
2021-09-23 21:06:43.256750,2
2021-09-23 21:06:43.256756,2
2021-09-23 21:06:43.256762,-12
2021-09-23 21:06:43.256768,-26
2021-09-23 21:06:43.256774,-40
2021-09-23 21:06:43.256780,-50
2021-09-23 21:06:43.256785,-48
2021-09-23 21:06:43.256791,-40
2021-09-23 21:06:43.256797,-19
2021-09-23 21:06:43.256802,74
2021-09-23 21:06:43.256808,331
2021-09-23 21:06:43.256814,776
2021-09-23 21:06:43.256820,1108
2021-09-23 21:06:43.256825,555
2021-09-23 21:06:43.256831,-526
2021-09-23 21:06:43.256837,-618
2021-09-23 21:06:43.256843,-88
2021-09-23 21:06:43.256848,-98
2021-09-23 21:06:43.256854,-209
2021-09-23 21:06:43.256860,-74
2021-09-23 21:06:43.256866,-43
2021-09-23 21:06:43.256872,-81
2021-09-23 21:06:43.256877,-50
2021-09-23 21:06:43.256883,-26
2021-09-23 21:06:43.256889,-33
2021-09-23 21:06:43.256895,-21
2021-09-23 21:06:43.436663,2
2021-09-23 21:06:43.436680,14
2021-09-23 21:06:43.436687,12
2021-09-23 21:06:43.436694,19
2021-09-23 21:06:43.436700,28
2021-09-23 21:06:43.436706,45
2021-09-23 21:06:43.436712,62
2021-09-23 21:06:43.436718,86
2021-09-23 21:06:43.436724,113
2021-09-23 21:06:43.436730,120
2021-09-23 21:06:43.436736,127
2021-09-23 21:06:43.436741,144
2021-09-23 21:06:43.436747,139
2021-09-23 21:06:43.436753,113
2021-09-23 21:06:43.436759,86
2021-09-23 21:06:43.436764,50
2021-09-23 21:06:43.436770,26
2021-09-23 21:06:43.436776,26
2021-09-23 21:06:43.436782,2
2021-09-23 21:06:43.436788,-55
2021-09-23 21:06:43.436794,-91
2021-09-23 21:06:43.436800,-96
2021-09-23 21:06:43.436805,-101
2021-09-23 21:06:43.436811,-110
2021-09-23 21:06:43.436817,-113
2021-09-23 21:06:43.436822,-117
2021-09-23 21:06:43.436828,-122
2021-09-23 21:06:43.436834,-103
2021-09-23 21:06:43.436840,-79
2021-09-23 21:06:43.436846,-84
2021-09-23 21:06:43.661773,-81
2021-09-23 21:06:43.661790,-55
2021-09-23 21:06:43.661797,-45
2021-09-23 21:06:43.661803,-52
2021-09-23 21:06:43.661809,-43
2021-09-23 21:06:43.661815,-31
2021-09-23 21:06:43.661821,-33
2021-09-23 21:06:43.661827,-33
2021-09-23 21:06:43.661833,-26
2021-09-23 21:06:43.661838,-16
2021-09-23 21:06:43.661845,-26
2021-09-23 21:06:43.661850,-36
2021-09-23 21:06:43.661856,-12
2021-09-23 21:06:43.661862,-4
2021-09-23 21:06:43.661868,-45
2021-09-23 21:06:43.661874,-57
2021-09-23 21:06:43.661880,-12
2021-09-23 21:06:43.661886,9
2021-09-23 21:06:43.661892,-4
2021-09-23 21:06:43.661897,-4
2021-09-23 21:06:43.661903,-7
2021-09-23 21:06:43.661909,-40
2021-09-23 21:06:43.661915,-50
2021-09-23 21:06:43.661920,-24
2021-09-23 21:06:43.661926,-16
2021-09-23 21:06:43.661932,-26
2021-09-23 21:06:43.661938,-12
2021-09-23 21:06:43.661944,48
2021-09-23 21:06:43.661950,228
2021-09-23 21:06:43.661955,603
2021-09-23 21:06:43.886696,1022
2021-09-23 21:06:43.886713,812
2021-09-23 21:06:43.886720,-218
2021-09-23 21:06:43.886727,-702
2021-09-23 21:06:43.886733,-218
2021-09-23 21:06:43.886739,-4
2021-09-23 21:06:43.886745,-144
2021-09-23 21:06:43.886751,-57
2021-09-23 21:06:43.886756,2
2021-09-23 21:06:43.886762,-74
2021-09-23 21:06:43.886768,-67
2021-09-23 21:06:43.886774,-14
2021-09-23 21:06:43.886780,-9
2021-09-23 21:06:43.886785,-14
2021-09-23 21:06:43.886791,-16
2021-09-23 21:06:43.886797,-19
2021-09-23 21:06:43.886803,12
2021-09-23 21:06:43.886809,45
2021-09-23 21:06:43.886814,36
2021-09-23 21:06:43.886820,26
2021-09-23 21:06:43.886826,60
2021-09-23 21:06:43.886832,88
2021-09-23 21:06:43.886837,98
2021-09-23 21:06:43.886843,101
2021-09-23 21:06:43.886849,96
2021-09-23 21:06:43.886854,96
2021-09-23 21:06:43.886860,117
2021-09-23 21:06:43.886866,120
2021-09-23 21:06:43.886871,86
2021-09-23 21:06:43.886877,55
2021-09-23 21:06:44.156833,33
2021-09-23 21:06:44.156852,9
2021-09-23 21:06:44.156859,-31
2021-09-23 21:06:44.156866,-72
2021-09-23 21:06:44.156871,-81
2021-09-23 21:06:44.156877,-86
2021-09-23 21:06:44.156884,-96
2021-09-23 21:06:44.156890,-98
2021-09-23 21:06:44.156895,-110
2021-09-23 21:06:44.156901,-110
2021-09-23 21:06:44.156907,-103
2021-09-23 21:06:44.156913,-105
2021-09-23 21:06:44.156919,-115
2021-09-23 21:06:44.156925,-110
2021-09-23 21:06:44.156931,-88
2021-09-23 21:06:44.156937,-60
2021-09-23 21:06:44.156943,-40
2021-09-23 21:06:44.156949,-40
2021-09-23 21:06:44.156955,-50
2021-09-23 21:06:44.156961,-48
2021-09-23 21:06:44.156967,-33
2021-09-23 21:06:44.156973,-16
2021-09-23 21:06:44.156979,-16
2021-09-23 21:06:44.156985,-40
2021-09-23 21:06:44.156991,-40
2021-09-23 21:06:44.156997,-14
2021-09-23 21:06:44.157002,-12
2021-09-23 21:06:44.157008,-28
2021-09-23 21:06:44.157014,-36
2021-09-23 21:06:44.157020,-31
2021-09-23 21:06:44.336641,-33
2021-09-23 21:06:44.336658,-26
2021-09-23 21:06:44.336665,-12
2021-09-23 21:06:44.336671,-16
2021-09-23 21:06:44.336678,-14
2021-09-23 21:06:44.336684,7
2021-09-23 21:06:44.336690,16
2021-09-23 21:06:44.336696,14
2021-09-23 21:06:44.336702,7
2021-09-23 21:06:44.336707,-12
2021-09-23 21:06:44.336713,-24
2021-09-23 21:06:44.336719,-19
2021-09-23 21:06:44.336725,-2
2021-09-23 21:06:44.336731,2
2021-09-23 21:06:44.336737,-7
2021-09-23 21:06:44.336743,14
2021-09-23 21:06:44.336748,146
2021-09-23 21:06:44.336754,456
2021-09-23 21:06:44.336760,923
2021-09-23 21:06:44.336766,1055
2021-09-23 21:06:44.336772,216
2021-09-23 21:06:44.336777,-666
2021-09-23 21:06:44.336783,-406
2021-09-23 21:06:44.336789,21
2021-09-23 21:06:44.336795,-127
2021-09-23 21:06:44.336801,-158
2021-09-23 21:06:44.336806,-12
2021-09-23 21:06:44.336812,-28
2021-09-23 21:06:44.336818,-52
2021-09-23 21:06:44.336824,-7
2021-09-23 21:06:44.563139,-24
2021-09-23 21:06:44.563156,-48
2021-09-23 21:06:44.563163,-19
2021-09-23 21:06:44.563169,-4
2021-09-23 21:06:44.563175,-16
2021-09-23 21:06:44.563181,0
2021-09-23 21:06:44.563187,24
2021-09-23 21:06:44.563193,36
2021-09-23 21:06:44.563199,60
2021-09-23 21:06:44.563205,79
2021-09-23 21:06:44.563211,72
2021-09-23 21:06:44.563217,64
2021-09-23 21:06:44.563223,84
2021-09-23 21:06:44.563228,101
2021-09-23 21:06:44.563234,98
2021-09-23 21:06:44.563240,101
2021-09-23 21:06:44.563246,103
2021-09-23 21:06:44.563251,79
2021-09-23 21:06:44.563257,57
2021-09-23 21:06:44.563263,55
2021-09-23 21:06:44.563268,28
2021-09-23 21:06:44.563274,-24
2021-09-23 21:06:44.563280,-57
2021-09-23 21:06:44.563285,-67
2021-09-23 21:06:44.563291,-69
2021-09-23 21:06:44.563297,-86
2021-09-23 21:06:44.563303,-101
2021-09-23 21:06:44.563308,-91
2021-09-23 21:06:44.563314,-76
2021-09-23 21:06:44.563320,-91
2021-09-23 21:06:44.830335,-93
2021-09-23 21:06:44.830352,-62
2021-09-23 21:06:44.830360,-60
2021-09-23 21:06:44.830366,-72
2021-09-23 21:06:44.830372,-48
2021-09-23 21:06:44.830378,-28
2021-09-23 21:06:44.830383,-33
2021-09-23 21:06:44.830389,-33
2021-09-23 21:06:44.830482,-14
2021-09-23 21:06:44.830489,-7
2021-09-23 21:06:44.830495,-28
2021-09-23 21:06:44.830501,-31
2021-09-23 21:06:44.830507,-16
2021-09-23 21:06:44.830513,-19
2021-09-23 21:06:44.830519,-21
2021-09-23 21:06:44.830525,-14
2021-09-23 21:06:44.830530,-16
2021-09-23 21:06:44.830536,-12
2021-09-23 21:06:44.830542,-2
2021-09-23 21:06:44.830548,-2
2021-09-23 21:06:44.830554,-16
2021-09-23 21:06:44.830560,-16
2021-09-23 21:06:44.830565,2
2021-09-23 21:06:44.830571,7
2021-09-23 21:06:44.830577,-4
2021-09-23 21:06:44.830583,7
2021-09-23 21:06:44.830589,19
2021-09-23 21:06:44.830595,16
2021-09-23 21:06:44.830600,16
2021-09-23 21:06:44.830606,19
2021-09-23 21:06:45.056767,16
2021-09-23 21:06:45.056785,9
2021-09-23 21:06:45.056792,2
2021-09-23 21:06:45.056799,-14
2021-09-23 21:06:45.056805,-28
2021-09-23 21:06:45.056811,-16
2021-09-23 21:06:45.056817,7
2021-09-23 21:06:45.056823,43
2021-09-23 21:06:45.056829,214
2021-09-23 21:06:45.056835,622
2021-09-23 21:06:45.056841,1074
2021-09-23 21:06:45.056847,846
2021-09-23 21:06:45.056853,-204
2021-09-23 21:06:45.056859,-673
2021-09-23 21:06:45.056865,-187
2021-09-23 21:06:45.056871,-4
2021-09-23 21:06:45.056876,-185
2021-09-23 21:06:45.056882,-115
2021-09-23 21:06:45.056888,-14
2021-09-23 21:06:45.056894,-50
2021-09-23 21:06:45.056900,-43
2021-09-23 21:06:45.056906,-9
2021-09-23 21:06:45.056912,-16
2021-09-23 21:06:45.056917,-9
2021-09-23 21:06:45.056923,19
2021-09-23 21:06:45.056929,26
2021-09-23 21:06:45.056935,24
2021-09-23 21:06:45.056941,28
2021-09-23 21:06:45.056947,45
2021-09-23 21:06:45.056953,72
2021-09-23 21:06:45.281734,76
2021-09-23 21:06:45.281751,76
2021-09-23 21:06:45.281758,96
2021-09-23 21:06:45.281764,125
2021-09-23 21:06:45.281770,137
2021-09-23 21:06:45.281776,132
2021-09-23 21:06:45.281782,127
2021-09-23 21:06:45.281788,132
2021-09-23 21:06:45.281794,108
2021-09-23 21:06:45.281799,69
2021-09-23 21:06:45.281805,57
2021-09-23 21:06:45.281811,45
2021-09-23 21:06:45.281817,16
2021-09-23 21:06:45.281823,-16
2021-09-23 21:06:45.281829,-55
2021-09-23 21:06:45.281835,-67
2021-09-23 21:06:45.281841,-55
2021-09-23 21:06:45.281847,-72
2021-09-23 21:06:45.281852,-79
2021-09-23 21:06:45.281858,-62
2021-09-23 21:06:45.281864,-69
2021-09-23 21:06:45.281870,-81
2021-09-23 21:06:45.281876,-62
2021-09-23 21:06:45.281881,-45
2021-09-23 21:06:45.281887,-43
2021-09-23 21:06:45.281893,-33
2021-09-23 21:06:45.281899,-24
2021-09-23 21:06:45.281905,-16
2021-09-23 21:06:45.281911,-4
2021-09-23 21:06:45.281917,7
2021-09-23 21:06:45.506757,19
2021-09-23 21:06:45.506775,16
2021-09-23 21:06:45.506782,0
2021-09-23 21:06:45.506788,2
2021-09-23 21:06:45.506794,24
2021-09-23 21:06:45.506801,19
2021-09-23 21:06:45.506807,2
2021-09-23 21:06:45.506813,-9
2021-09-23 21:06:45.506819,-12
2021-09-23 21:06:45.506825,-4
2021-09-23 21:06:45.506831,-4
2021-09-23 21:06:45.506837,-9
2021-09-23 21:06:45.506843,-12
2021-09-23 21:06:45.506849,-14
2021-09-23 21:06:45.506855,-16
2021-09-23 21:06:45.506860,-9
2021-09-23 21:06:45.506866,-9
2021-09-23 21:06:45.506872,-14
2021-09-23 21:06:45.506878,2
2021-09-23 21:06:45.506884,9
2021-09-23 21:06:45.506890,-9
2021-09-23 21:06:45.506896,-14
2021-09-23 21:06:45.506902,-2
2021-09-23 21:06:45.506907,4
2021-09-23 21:06:45.506913,16
2021-09-23 21:06:45.506919,21
2021-09-23 21:06:45.506925,9
2021-09-23 21:06:45.506930,2
2021-09-23 21:06:45.506936,2
2021-09-23 21:06:45.506942,2
2021-09-23 21:06:45.776836,9
2021-09-23 21:06:45.776855,14
2021-09-23 21:06:45.776862,16
2021-09-23 21:06:45.776868,33
2021-09-23 21:06:45.776874,103
2021-09-23 21:06:45.776881,343
2021-09-23 21:06:45.776886,805
2021-09-23 21:06:45.776892,1123
2021-09-23 21:06:45.776898,529
2021-09-23 21:06:45.776904,-526
2021-09-23 21:06:45.776910,-577
2021-09-23 21:06:45.776916,-57
2021-09-23 21:06:45.776921,-74
2021-09-23 21:06:45.776927,-187
