Time,ECG
2021-09-24 14:59:00.138753,116
2021-09-24 14:59:00.138776,116
2021-09-24 14:59:00.138784,114
2021-09-24 14:59:00.138791,111
2021-09-24 14:59:00.138798,114
2021-09-24 14:59:00.138804,114
2021-09-24 14:59:00.138811,114
2021-09-24 14:59:00.138817,111
2021-09-24 14:59:00.138824,99
2021-09-24 14:59:00.138830,94
2021-09-24 14:59:00.138837,97
2021-09-24 14:59:00.138844,99
2021-09-24 14:59:00.138850,97
2021-09-24 14:59:00.138857,89
2021-09-24 14:59:00.138863,85
2021-09-24 14:59:00.138870,82
2021-09-24 14:59:00.138877,82
2021-09-24 14:59:00.138883,87
2021-09-24 14:59:00.138890,87
2021-09-24 14:59:00.138896,80
2021-09-24 14:59:00.138903,68
2021-09-24 14:59:00.138909,68
2021-09-24 14:59:00.138916,72
2021-09-24 14:59:00.138923,72
2021-09-24 14:59:00.138929,72
2021-09-24 14:59:00.138936,70
2021-09-24 14:59:00.138942,58
2021-09-24 14:59:00.138949,46
2021-09-24 14:59:00.138955,48
2021-09-24 14:59:00.138962,53
2021-09-24 14:59:00.319094,55
2021-09-24 14:59:00.319116,55
2021-09-24 14:59:00.319124,48
2021-09-24 14:59:00.319131,31
2021-09-24 14:59:00.319137,17
2021-09-24 14:59:00.319144,14
2021-09-24 14:59:00.319151,14
2021-09-24 14:59:00.319157,4
2021-09-24 14:59:00.319164,-4
2021-09-24 14:59:00.319170,7
2021-09-24 14:59:00.319177,26
2021-09-24 14:59:00.319184,41
2021-09-24 14:59:00.319190,43
2021-09-24 14:59:00.319197,34
2021-09-24 14:59:00.319203,26
2021-09-24 14:59:00.319210,26
2021-09-24 14:59:00.319216,26
2021-09-24 14:59:00.319223,29
2021-09-24 14:59:00.319230,29
2021-09-24 14:59:00.319236,24
2021-09-24 14:59:00.319243,7
2021-09-24 14:59:00.319249,-26
2021-09-24 14:59:00.319256,-121
2021-09-24 14:59:00.319263,-347
2021-09-24 14:59:00.319269,-551
2021-09-24 14:59:00.319276,-444
2021-09-24 14:59:00.319282,-29
2021-09-24 14:59:00.319289,454
2021-09-24 14:59:00.319296,590
2021-09-24 14:59:00.319302,269
2021-09-24 14:59:00.587888,53
2021-09-24 14:59:00.587912,82
2021-09-24 14:59:00.587920,4
2021-09-24 14:59:00.587927,-92
2021-09-24 14:59:00.587934,-65
2021-09-24 14:59:00.587940,-55
2021-09-24 14:59:00.587947,-102
2021-09-24 14:59:00.587953,-114
2021-09-24 14:59:00.587960,-106
2021-09-24 14:59:00.587966,-121
2021-09-24 14:59:00.587973,-140
2021-09-24 14:59:00.587979,-148
2021-09-24 14:59:00.587986,-165
2021-09-24 14:59:00.587992,-189
2021-09-24 14:59:00.587998,-201
2021-09-24 14:59:00.588005,-213
2021-09-24 14:59:00.588042,-238
2021-09-24 14:59:00.588049,-267
2021-09-24 14:59:00.588056,-298
2021-09-24 14:59:00.588062,-330
2021-09-24 14:59:00.588069,-364
2021-09-24 14:59:00.588075,-405
2021-09-24 14:59:00.588082,-439
2021-09-24 14:59:00.588088,-459
2021-09-24 14:59:00.588095,-471
2021-09-24 14:59:00.588101,-471
2021-09-24 14:59:00.588108,-451
2021-09-24 14:59:00.588114,-408
2021-09-24 14:59:00.588121,-330
2021-09-24 14:59:00.588127,-221
2021-09-24 14:59:00.769289,-106
2021-09-24 14:59:00.769312,0
2021-09-24 14:59:00.769320,82
2021-09-24 14:59:00.769327,143
2021-09-24 14:59:00.769334,191
2021-09-24 14:59:00.769340,221
2021-09-24 14:59:00.769347,223
2021-09-24 14:59:00.769353,228
2021-09-24 14:59:00.769360,233
2021-09-24 14:59:00.769366,225
2021-09-24 14:59:00.769373,216
2021-09-24 14:59:00.769380,211
2021-09-24 14:59:00.769386,196
2021-09-24 14:59:00.769393,191
2021-09-24 14:59:00.769399,189
2021-09-24 14:59:00.769406,182
2021-09-24 14:59:00.769412,172
2021-09-24 14:59:00.769419,165
2021-09-24 14:59:00.769426,153
2021-09-24 14:59:00.769432,140
2021-09-24 14:59:00.769439,128
2021-09-24 14:59:00.769445,121
2021-09-24 14:59:00.769452,116
2021-09-24 14:59:00.769458,109
2021-09-24 14:59:00.769465,104
2021-09-24 14:59:00.769471,102
2021-09-24 14:59:00.769478,102
2021-09-24 14:59:00.769484,99
2021-09-24 14:59:00.769491,102
2021-09-24 14:59:00.769498,102
2021-09-24 14:59:00.994275,102
2021-09-24 14:59:00.994297,104
2021-09-24 14:59:00.994305,106
2021-09-24 14:59:00.994312,106
2021-09-24 14:59:00.994319,109
2021-09-24 14:59:00.994326,102
2021-09-24 14:59:00.994332,94
2021-09-24 14:59:00.994339,102
2021-09-24 14:59:00.994346,102
2021-09-24 14:59:00.994352,94
2021-09-24 14:59:00.994359,92
2021-09-24 14:59:00.994366,87
2021-09-24 14:59:00.994373,85
2021-09-24 14:59:00.994379,85
2021-09-24 14:59:00.994386,80
2021-09-24 14:59:00.994392,75
2021-09-24 14:59:00.994399,72
2021-09-24 14:59:00.994406,72
2021-09-24 14:59:00.994412,70
2021-09-24 14:59:00.994419,72
2021-09-24 14:59:00.994426,72
2021-09-24 14:59:00.994432,65
2021-09-24 14:59:00.994445,55
2021-09-24 14:59:00.994452,53
2021-09-24 14:59:00.994459,58
2021-09-24 14:59:00.994466,58
2021-09-24 14:59:00.994472,55
2021-09-24 14:59:00.994479,55
2021-09-24 14:59:00.994485,53
2021-09-24 14:59:00.994492,51
2021-09-24 14:59:01.219334,55
2021-09-24 14:59:01.219358,55
2021-09-24 14:59:01.219366,58
2021-09-24 14:59:01.219373,53
2021-09-24 14:59:01.219380,38
2021-09-24 14:59:01.219386,17
2021-09-24 14:59:01.219393,7
2021-09-24 14:59:01.219399,12
2021-09-24 14:59:01.219406,7
2021-09-24 14:59:01.219412,-2
2021-09-24 14:59:01.219419,-2
2021-09-24 14:59:01.219425,7
2021-09-24 14:59:01.219432,26
2021-09-24 14:59:01.219438,41
2021-09-24 14:59:01.219445,36
2021-09-24 14:59:01.219451,34
2021-09-24 14:59:01.219458,36
2021-09-24 14:59:01.219464,38
2021-09-24 14:59:01.219471,43
2021-09-24 14:59:01.219477,46
2021-09-24 14:59:01.219484,41
2021-09-24 14:59:01.219490,29
2021-09-24 14:59:01.219497,-2
2021-09-24 14:59:01.219503,-63
2021-09-24 14:59:01.219510,-223
2021-09-24 14:59:01.219516,-480
2021-09-24 14:59:01.219523,-575
2021-09-24 14:59:01.219529,-318
2021-09-24 14:59:01.219536,177
2021-09-24 14:59:01.219542,575
2021-09-24 14:59:01.444383,466
2021-09-24 14:59:01.444414,114
2021-09-24 14:59:01.444426,46
2021-09-24 14:59:01.444437,48
2021-09-24 14:59:01.444447,-77
2021-09-24 14:59:01.444457,-111
2021-09-24 14:59:01.444467,-68
2021-09-24 14:59:01.444478,-92
2021-09-24 14:59:01.444488,-121
2021-09-24 14:59:01.444498,-121
2021-09-24 14:59:01.444508,-133
2021-09-24 14:59:01.444518,-145
2021-09-24 14:59:01.444529,-148
2021-09-24 14:59:01.444539,-155
2021-09-24 14:59:01.444549,-174
2021-09-24 14:59:01.444559,-194
2021-09-24 14:59:01.444569,-211
2021-09-24 14:59:01.444579,-228
2021-09-24 14:59:01.444590,-255
2021-09-24 14:59:01.444600,-281
2021-09-24 14:59:01.444624,-308
2021-09-24 14:59:01.444635,-347
2021-09-24 14:59:01.444645,-381
2021-09-24 14:59:01.444655,-415
2021-09-24 14:59:01.444665,-446
2021-09-24 14:59:01.444676,-473
2021-09-24 14:59:01.444686,-493
2021-09-24 14:59:01.444696,-493
2021-09-24 14:59:01.444706,-461
2021-09-24 14:59:01.444716,-400
2021-09-24 14:59:01.714309,-308
2021-09-24 14:59:01.714334,-196
2021-09-24 14:59:01.714342,-87
2021-09-24 14:59:01.714349,2
2021-09-24 14:59:01.714356,80
2021-09-24 14:59:01.714363,143
2021-09-24 14:59:01.714369,184
2021-09-24 14:59:01.714376,204
2021-09-24 14:59:01.714383,208
2021-09-24 14:59:01.714395,201
2021-09-24 14:59:01.714406,196
2021-09-24 14:59:01.714416,199
2021-09-24 14:59:01.714426,194
2021-09-24 14:59:01.714436,179
2021-09-24 14:59:01.714446,162
2021-09-24 14:59:01.714456,155
2021-09-24 14:59:01.714467,153
2021-09-24 14:59:01.714477,148
2021-09-24 14:59:01.714488,143
2021-09-24 14:59:01.714498,138
2021-09-24 14:59:01.714508,126
2021-09-24 14:59:01.714519,111
2021-09-24 14:59:01.714531,106
2021-09-24 14:59:01.714542,106
2021-09-24 14:59:01.714553,102
2021-09-24 14:59:01.714565,97
2021-09-24 14:59:01.714576,89
2021-09-24 14:59:01.714587,80
2021-09-24 14:59:01.714597,75
2021-09-24 14:59:01.714609,77
2021-09-24 14:59:01.939382,80
2021-09-24 14:59:01.939403,82
2021-09-24 14:59:01.939411,82
2021-09-24 14:59:01.939418,82
2021-09-24 14:59:01.939425,89
2021-09-24 14:59:01.939431,92
2021-09-24 14:59:01.939438,92
2021-09-24 14:59:01.939445,92
2021-09-24 14:59:01.939451,85
2021-09-24 14:59:01.939458,72
2021-09-24 14:59:01.939465,70
2021-09-24 14:59:01.939471,75
2021-09-24 14:59:01.939478,75
2021-09-24 14:59:01.939485,70
2021-09-24 14:59:01.939491,60
2021-09-24 14:59:01.939498,58
2021-09-24 14:59:01.939504,60
2021-09-24 14:59:01.939511,63
2021-09-24 14:59:01.939518,65
2021-09-24 14:59:01.939524,65
2021-09-24 14:59:01.939531,60
2021-09-24 14:59:01.939537,60
2021-09-24 14:59:01.939544,60
2021-09-24 14:59:01.939550,63
2021-09-24 14:59:01.939557,63
2021-09-24 14:59:01.939564,60
2021-09-24 14:59:01.939570,58
2021-09-24 14:59:01.939577,58
2021-09-24 14:59:01.939593,60
2021-09-24 14:59:01.939611,55
2021-09-24 14:59:02.164589,51
2021-09-24 14:59:02.164612,46
2021-09-24 14:59:02.164620,43
2021-09-24 14:59:02.164627,41
2021-09-24 14:59:02.164634,41
2021-09-24 14:59:02.164640,38
2021-09-24 14:59:02.164647,38
2021-09-24 14:59:02.164654,38
2021-09-24 14:59:02.164660,26
2021-09-24 14:59:02.164667,14
2021-09-24 14:59:02.164673,4
2021-09-24 14:59:02.164680,0
2021-09-24 14:59:02.164687,4
2021-09-24 14:59:02.164693,-4
2021-09-24 14:59:02.164700,-14
2021-09-24 14:59:02.164707,2
2021-09-24 14:59:02.164713,24
2021-09-24 14:59:02.164720,36
2021-09-24 14:59:02.164726,36
2021-09-24 14:59:02.164733,24
2021-09-24 14:59:02.164739,21
2021-09-24 14:59:02.164746,26
2021-09-24 14:59:02.164752,29
2021-09-24 14:59:02.164759,31
2021-09-24 14:59:02.164765,29
2021-09-24 14:59:02.164772,19
2021-09-24 14:59:02.164778,9
2021-09-24 14:59:02.164785,-19
2021-09-24 14:59:02.164791,-92
2021-09-24 14:59:02.164798,-272
2021-09-24 14:59:02.389340,-522
2021-09-24 14:59:02.389363,-573
2021-09-24 14:59:02.389371,-272
2021-09-24 14:59:02.389378,245
2021-09-24 14:59:02.389384,583
2021-09-24 14:59:02.389391,381
2021-09-24 14:59:02.389398,58
2021-09-24 14:59:02.389405,38
2021-09-24 14:59:02.389411,19
2021-09-24 14:59:02.389418,-97
2021-09-24 14:59:02.389425,-104
2021-09-24 14:59:02.389431,-75
2021-09-24 14:59:02.389438,-114
2021-09-24 14:59:02.389445,-143
2021-09-24 14:59:02.389451,-138
2021-09-24 14:59:02.389458,-150
2021-09-24 14:59:02.389465,-170
2021-09-24 14:59:02.389471,-172
2021-09-24 14:59:02.389478,-182
2021-09-24 14:59:02.389485,-199
2021-09-24 14:59:02.389491,-211
2021-09-24 14:59:02.389498,-223
2021-09-24 14:59:02.389505,-242
2021-09-24 14:59:02.389511,-264
2021-09-24 14:59:02.389518,-289
2021-09-24 14:59:02.389525,-318
2021-09-24 14:59:02.389531,-352
2021-09-24 14:59:02.389538,-388
2021-09-24 14:59:02.389544,-422
2021-09-24 14:59:02.389551,-449
2021-09-24 14:59:02.702905,-473
2021-09-24 14:59:02.702961,-480
2021-09-24 14:59:02.702969,-471
2021-09-24 14:59:02.702976,-442
2021-09-24 14:59:02.702983,-388
2021-09-24 14:59:02.702990,-298
2021-09-24 14:59:02.702997,-191
2021-09-24 14:59:02.703004,-82
2021-09-24 14:59:02.703011,17
2021-09-24 14:59:02.703018,94
2021-09-24 14:59:02.703025,153
2021-09-24 14:59:02.703032,187
2021-09-24 14:59:02.703039,199
2021-09-24 14:59:02.703046,206
2021-09-24 14:59:02.703053,213
2021-09-24 14:59:02.703060,208
2021-09-24 14:59:02.703067,204
2021-09-24 14:59:02.703074,199
2021-09-24 14:59:02.703081,191
2021-09-24 14:59:02.703088,184
2021-09-24 14:59:02.703095,179
2021-09-24 14:59:02.703102,167
2021-09-24 14:59:02.703109,157
2021-09-24 14:59:02.703116,153
2021-09-24 14:59:02.703123,136
2021-09-24 14:59:02.703130,119
2021-09-24 14:59:02.703137,116
2021-09-24 14:59:02.703144,109
2021-09-24 14:59:02.703151,97
2021-09-24 14:59:02.703158,92
2021-09-24 14:59:02.839298,94
2021-09-24 14:59:02.839323,94
2021-09-24 14:59:02.839331,89
2021-09-24 14:59:02.839338,85
2021-09-24 14:59:02.839345,85
2021-09-24 14:59:02.839352,85
2021-09-24 14:59:02.839359,82
2021-09-24 14:59:02.839366,80
2021-09-24 14:59:02.839373,82
2021-09-24 14:59:02.839380,85
2021-09-24 14:59:02.839387,77
2021-09-24 14:59:02.839394,70
2021-09-24 14:59:02.839401,75
2021-09-24 14:59:02.839408,82
2021-09-24 14:59:02.839415,77
2021-09-24 14:59:02.839422,68
2021-09-24 14:59:02.839429,63
2021-09-24 14:59:02.839436,58
2021-09-24 14:59:02.839443,55
2021-09-24 14:59:02.839450,58
2021-09-24 14:59:02.839456,60
2021-09-24 14:59:02.839463,58
2021-09-24 14:59:02.839470,55
2021-09-24 14:59:02.839477,60
2021-09-24 14:59:02.839484,63
2021-09-24 14:59:02.839491,58
2021-09-24 14:59:02.839498,55
2021-09-24 14:59:02.839505,55
2021-09-24 14:59:02.839512,48
2021-09-24 14:59:02.839519,46
2021-09-24 14:59:03.108896,46
2021-09-24 14:59:03.108918,48
2021-09-24 14:59:03.108927,48
2021-09-24 14:59:03.108934,43
2021-09-24 14:59:03.108942,36
2021-09-24 14:59:03.108949,31
2021-09-24 14:59:03.108956,34
2021-09-24 14:59:03.108963,26
2021-09-24 14:59:03.108970,4
2021-09-24 14:59:03.108978,-14
2021-09-24 14:59:03.108994,-14
2021-09-24 14:59:03.109002,-17
2021-09-24 14:59:03.109009,-21
2021-09-24 14:59:03.109016,-12
2021-09-24 14:59:03.109023,4
2021-09-24 14:59:03.109030,21
2021-09-24 14:59:03.109038,26
2021-09-24 14:59:03.109045,24
2021-09-24 14:59:03.109052,24
2021-09-24 14:59:03.109059,26
2021-09-24 14:59:03.109066,29
2021-09-24 14:59:03.109073,26
2021-09-24 14:59:03.109080,24
2021-09-24 14:59:03.109087,19
2021-09-24 14:59:03.109095,12
2021-09-24 14:59:03.109102,-9
2021-09-24 14:59:03.109109,-60
2021-09-24 14:59:03.109116,-196
2021-09-24 14:59:03.109123,-451
2021-09-24 14:59:03.109130,-597
2021-09-24 14:59:03.289284,-388
2021-09-24 14:59:03.289306,123
2021-09-24 14:59:03.289314,566
2021-09-24 14:59:03.289321,476
2021-09-24 14:59:03.289328,99
2021-09-24 14:59:03.289335,19
2021-09-24 14:59:03.289342,53
2021-09-24 14:59:03.289348,-72
2021-09-24 14:59:03.289355,-140
2021-09-24 14:59:03.289362,-106
2021-09-24 14:59:03.289368,-128
2021-09-24 14:59:03.289375,-167
2021-09-24 14:59:03.289382,-160
2021-09-24 14:59:03.289389,-157
2021-09-24 14:59:03.289397,-174
2021-09-24 14:59:03.289403,-191
2021-09-24 14:59:03.289410,-201
2021-09-24 14:59:03.289417,-208
2021-09-24 14:59:03.289423,-218
2021-09-24 14:59:03.289430,-230
2021-09-24 14:59:03.289436,-250
2021-09-24 14:59:03.289443,-276
2021-09-24 14:59:03.289449,-298
2021-09-24 14:59:03.289456,-325
2021-09-24 14:59:03.289462,-357
2021-09-24 14:59:03.289469,-395
2021-09-24 14:59:03.289476,-434
2021-09-24 14:59:03.289482,-466
2021-09-24 14:59:03.289489,-480
2021-09-24 14:59:03.289495,-480
2021-09-24 14:59:03.604295,-471
2021-09-24 14:59:03.604318,-449
2021-09-24 14:59:03.604326,-400
2021-09-24 14:59:03.604333,-323
2021-09-24 14:59:03.604340,-216
2021-09-24 14:59:03.604346,-94
2021-09-24 14:59:03.604353,7
2021-09-24 14:59:03.604359,87
2021-09-24 14:59:03.604366,145
2021-09-24 14:59:03.604372,177
2021-09-24 14:59:03.604379,201
2021-09-24 14:59:03.604385,218
2021-09-24 14:59:03.604392,216
2021-09-24 14:59:03.604398,206
2021-09-24 14:59:03.604405,206
2021-09-24 14:59:03.604411,201
2021-09-24 14:59:03.604418,194
2021-09-24 14:59:03.604425,189
2021-09-24 14:59:03.604431,179
2021-09-24 14:59:03.604438,172
2021-09-24 14:59:03.604444,165
2021-09-24 14:59:03.604451,153
2021-09-24 14:59:03.604457,138
2021-09-24 14:59:03.604464,133
2021-09-24 14:59:03.604470,126
2021-09-24 14:59:03.604477,121
2021-09-24 14:59:03.604483,114
2021-09-24 14:59:03.604490,104
2021-09-24 14:59:03.604496,99
2021-09-24 14:59:03.604503,102
2021-09-24 14:59:03.829215,102
2021-09-24 14:59:03.829238,102
2021-09-24 14:59:03.829246,99
2021-09-24 14:59:03.829253,97
2021-09-24 14:59:03.829260,89
2021-09-24 14:59:03.829266,80
2021-09-24 14:59:03.829273,75
2021-09-24 14:59:03.829280,80
2021-09-24 14:59:03.829286,77
2021-09-24 14:59:03.829293,65
2021-09-24 14:59:03.829299,68
2021-09-24 14:59:03.829306,75
2021-09-24 14:59:03.829312,75
2021-09-24 14:59:03.829319,72
2021-09-24 14:59:03.829325,65
2021-09-24 14:59:03.829332,55
2021-09-24 14:59:03.829338,60
2021-09-24 14:59:03.829345,70
2021-09-24 14:59:03.829351,70
2021-09-24 14:59:03.829358,65
2021-09-24 14:59:03.829365,55
2021-09-24 14:59:03.829371,48
2021-09-24 14:59:03.829378,53
2021-09-24 14:59:03.829384,60
2021-09-24 14:59:03.829391,60
2021-09-24 14:59:03.829397,60
2021-09-24 14:59:03.829404,51
2021-09-24 14:59:03.829411,34
2021-09-24 14:59:03.829417,24
2021-09-24 14:59:03.829424,31
2021-09-24 14:59:04.009268,29
2021-09-24 14:59:04.009292,14
2021-09-24 14:59:04.009300,17
2021-09-24 14:59:04.009306,38
2021-09-24 14:59:04.009313,55
2021-09-24 14:59:04.009319,55
2021-09-24 14:59:04.009326,48
2021-09-24 14:59:04.009333,48
2021-09-24 14:59:04.009339,51
2021-09-24 14:59:04.009346,51
2021-09-24 14:59:04.009353,51
2021-09-24 14:59:04.009359,53
2021-09-24 14:59:04.009366,51
2021-09-24 14:59:04.009372,34
2021-09-24 14:59:04.009379,0
2021-09-24 14:59:04.009386,-60
2021-09-24 14:59:04.009393,-204
2021-09-24 14:59:04.009399,-437
2021-09-24 14:59:04.009406,-527
2021-09-24 14:59:04.009412,-264
2021-09-24 14:59:04.009419,247
2021-09-24 14:59:04.009425,629
2021-09-24 14:59:04.009432,483
2021-09-24 14:59:04.009439,121
2021-09-24 14:59:04.009445,58
2021-09-24 14:59:04.009452,68
2021-09-24 14:59:04.009458,-60
2021-09-24 14:59:04.009465,-109
2021-09-24 14:59:04.009471,-72
2021-09-24 14:59:04.009478,-92
2021-09-24 14:59:04.234310,-119
2021-09-24 14:59:04.234342,-116
2021-09-24 14:59:04.234355,-123
2021-09-24 14:59:04.234365,-136
2021-09-24 14:59:04.234375,-138
2021-09-24 14:59:04.234385,-145
2021-09-24 14:59:04.234395,-167
2021-09-24 14:59:04.234405,-194
2021-09-24 14:59:04.234416,-208
2021-09-24 14:59:04.234426,-230
2021-09-24 14:59:04.234436,-269
2021-09-24 14:59:04.234446,-303
2021-09-24 14:59:04.234456,-332
2021-09-24 14:59:04.234466,-371
2021-09-24 14:59:04.234476,-415
2021-09-24 14:59:04.234486,-449
2021-09-24 14:59:04.234496,-476
2021-09-24 14:59:04.234506,-490
2021-09-24 14:59:04.234516,-500
2021-09-24 14:59:04.234526,-495
2021-09-24 14:59:04.234536,-459
2021-09-24 14:59:04.234546,-391
2021-09-24 14:59:04.234556,-291
2021-09-24 14:59:04.234566,-177
2021-09-24 14:59:04.234576,-65
2021-09-24 14:59:04.234586,29
2021-09-24 14:59:04.234596,104
2021-09-24 14:59:04.234607,157
2021-09-24 14:59:04.234617,194
2021-09-24 14:59:04.234627,216
2021-09-24 14:59:04.459365,221
2021-09-24 14:59:04.459389,221
2021-09-24 14:59:04.459397,218
2021-09-24 14:59:04.459403,216
2021-09-24 14:59:04.459410,211
2021-09-24 14:59:04.459417,206
2021-09-24 14:59:04.459423,194
2021-09-24 14:59:04.459430,179
2021-09-24 14:59:04.459437,174
2021-09-24 14:59:04.459443,167
2021-09-24 14:59:04.459450,157
2021-09-24 14:59:04.459456,143
2021-09-24 14:59:04.459463,126
2021-09-24 14:59:04.459470,116
2021-09-24 14:59:04.459476,116
2021-09-24 14:59:04.459483,109
2021-09-24 14:59:04.459489,102
2021-09-24 14:59:04.459496,99
2021-09-24 14:59:04.459502,97
2021-09-24 14:59:04.459509,94
2021-09-24 14:59:04.459516,87
2021-09-24 14:59:04.459522,82
2021-09-24 14:59:04.459529,85
2021-09-24 14:59:04.459535,92
2021-09-24 14:59:04.459542,92
2021-09-24 14:59:04.459549,89
2021-09-24 14:59:04.459555,92
2021-09-24 14:59:04.459562,89
2021-09-24 14:59:04.459568,92
2021-09-24 14:59:04.459575,94
2021-09-24 14:59:04.727832,92
2021-09-24 14:59:04.727854,92
2021-09-24 14:59:04.727861,92
2021-09-24 14:59:04.727868,89
2021-09-24 14:59:04.727875,87
2021-09-24 14:59:04.727881,82
2021-09-24 14:59:04.727888,75
2021-09-24 14:59:04.727894,75
2021-09-24 14:59:04.727901,77
2021-09-24 14:59:04.727907,75
2021-09-24 14:59:04.727914,72
2021-09-24 14:59:04.727920,65
2021-09-24 14:59:04.727927,58
2021-09-24 14:59:04.727934,63
2021-09-24 14:59:04.727940,65
2021-09-24 14:59:04.727946,55
2021-09-24 14:59:04.727953,41
2021-09-24 14:59:04.727960,41
2021-09-24 14:59:04.727966,43
2021-09-24 14:59:04.727973,31
2021-09-24 14:59:04.727979,14
2021-09-24 14:59:04.727986,12
2021-09-24 14:59:04.727992,12
2021-09-24 14:59:04.727999,0
2021-09-24 14:59:04.728005,0
2021-09-24 14:59:04.728012,14
2021-09-24 14:59:04.728018,31
2021-09-24 14:59:04.728025,43
2021-09-24 14:59:04.728031,43
2021-09-24 14:59:04.728038,38
2021-09-24 14:59:04.909443,43
2021-09-24 14:59:04.909475,48
2021-09-24 14:59:04.909487,46
2021-09-24 14:59:04.909497,41
2021-09-24 14:59:04.909507,38
2021-09-24 14:59:04.909518,26
2021-09-24 14:59:04.909528,7
2021-09-24 14:59:04.909538,-34
2021-09-24 14:59:04.909548,-155
2021-09-24 14:59:04.909558,-400
2021-09-24 14:59:04.909568,-563
2021-09-24 14:59:04.909623,-383
2021-09-24 14:59:04.909643,80
2021-09-24 14:59:04.909696,536
2021-09-24 14:59:04.909712,556
2021-09-24 14:59:04.909728,201
2021-09-24 14:59:04.909745,53
2021-09-24 14:59:04.909795,82
2021-09-24 14:59:04.909868,-17
2021-09-24 14:59:04.909883,-89
2021-09-24 14:59:04.909900,-55
2021-09-24 14:59:04.909907,-68
2021-09-24 14:59:04.909914,-104
2021-09-24 14:59:04.909920,-109
2021-09-24 14:59:04.909927,-116
2021-09-24 14:59:04.909933,-136
2021-09-24 14:59:04.909940,-143
2021-09-24 14:59:04.909946,-150
2021-09-24 14:59:04.909953,-165
2021-09-24 14:59:04.909959,-177
2021-09-24 14:59:05.178714,-187
2021-09-24 14:59:05.178737,-206
2021-09-24 14:59:05.178745,-228
2021-09-24 14:59:05.178752,-259
2021-09-24 14:59:05.178759,-301
2021-09-24 14:59:05.178766,-337
2021-09-24 14:59:05.178772,-371
2021-09-24 14:59:05.178779,-408
2021-09-24 14:59:05.178785,-446
2021-09-24 14:59:05.178792,-483
2021-09-24 14:59:05.178799,-502
2021-09-24 14:59:05.178805,-500
2021-09-24 14:59:05.178812,-476
2021-09-24 14:59:05.178818,-422
2021-09-24 14:59:05.178825,-332
2021-09-24 14:59:05.178832,-223
2021-09-24 14:59:05.178838,-109
2021-09-24 14:59:05.178845,-2
2021-09-24 14:59:05.178852,85
2021-09-24 14:59:05.178858,143
2021-09-24 14:59:05.178865,182
2021-09-24 14:59:05.178872,199
2021-09-24 14:59:05.178878,196
2021-09-24 14:59:05.178885,196
2021-09-24 14:59:05.178891,201
2021-09-24 14:59:05.178898,199
2021-09-24 14:59:05.178905,191
2021-09-24 14:59:05.178911,182
2021-09-24 14:59:05.178918,177
2021-09-24 14:59:05.178924,177
2021-09-24 14:59:05.404419,172
2021-09-24 14:59:05.404443,165
2021-09-24 14:59:05.404451,155
2021-09-24 14:59:05.404458,138
2021-09-24 14:59:05.404464,126
2021-09-24 14:59:05.404471,121
2021-09-24 14:59:05.404477,119
2021-09-24 14:59:05.404484,114
2021-09-24 14:59:05.404490,104
2021-09-24 14:59:05.404497,89
2021-09-24 14:59:05.404504,82
2021-09-24 14:59:05.404510,85
2021-09-24 14:59:05.404517,85
2021-09-24 14:59:05.404524,82
2021-09-24 14:59:05.404530,85
2021-09-24 14:59:05.404537,80
2021-09-24 14:59:05.404543,80
2021-09-24 14:59:05.404550,85
2021-09-24 14:59:05.404556,89
2021-09-24 14:59:05.404563,89
2021-09-24 14:59:05.404569,89
2021-09-24 14:59:05.404576,85
2021-09-24 14:59:05.404582,85
2021-09-24 14:59:05.404588,89
2021-09-24 14:59:05.404595,87
2021-09-24 14:59:05.404601,89
2021-09-24 14:59:05.404608,87
2021-09-24 14:59:05.404615,80
2021-09-24 14:59:05.404621,75
2021-09-24 14:59:05.404628,72
2021-09-24 14:59:05.629438,75
2021-09-24 14:59:05.629463,75
2021-09-24 14:59:05.629472,70
2021-09-24 14:59:05.629479,65
2021-09-24 14:59:05.629486,65
2021-09-24 14:59:05.629493,68
2021-09-24 14:59:05.629504,68
2021-09-24 14:59:05.629512,72
2021-09-24 14:59:05.629519,68
2021-09-24 14:59:05.629526,53
2021-09-24 14:59:05.629533,43
2021-09-24 14:59:05.629540,31
2021-09-24 14:59:05.629547,29
2021-09-24 14:59:05.629554,34
2021-09-24 14:59:05.629561,21
2021-09-24 14:59:05.629568,7
2021-09-24 14:59:05.629575,24
2021-09-24 14:59:05.629582,48
2021-09-24 14:59:05.629589,58
2021-09-24 14:59:05.629596,60
2021-09-24 14:59:05.629603,55
2021-09-24 14:59:05.629610,51
2021-09-24 14:59:05.629617,55
2021-09-24 14:59:05.629624,60
2021-09-24 14:59:05.629631,60
2021-09-24 14:59:05.629638,58
2021-09-24 14:59:05.629645,48
2021-09-24 14:59:05.629652,24
2021-09-24 14:59:05.629659,-21
2021-09-24 14:59:05.629666,-111
2021-09-24 14:59:05.854331,-327
2021-09-24 14:59:05.854355,-558
2021-09-24 14:59:05.854363,-490
2021-09-24 14:59:05.854370,-77
2021-09-24 14:59:05.854377,432
2021-09-24 14:59:05.854383,602
2021-09-24 14:59:05.854390,289
2021-09-24 14:59:05.854397,48
2021-09-24 14:59:05.854403,68
2021-09-24 14:59:05.854410,-4
2021-09-24 14:59:05.854416,-102
2021-09-24 14:59:05.854423,-75
2021-09-24 14:59:05.854429,-65
2021-09-24 14:59:05.854436,-109
2021-09-24 14:59:05.854442,-121
2021-09-24 14:59:05.854449,-119
2021-09-24 14:59:05.854455,-131
2021-09-24 14:59:05.854462,-140
2021-09-24 14:59:05.854469,-143
2021-09-24 14:59:05.854475,-157
2021-09-24 14:59:05.854481,-174
2021-09-24 14:59:05.854488,-187
2021-09-24 14:59:05.854494,-199
2021-09-24 14:59:05.854501,-216
2021-09-24 14:59:05.854507,-242
2021-09-24 14:59:05.854514,-274
2021-09-24 14:59:05.854530,-310
2021-09-24 14:59:05.854538,-352
2021-09-24 14:59:05.854545,-393
2021-09-24 14:59:05.854552,-429
2021-09-24 14:59:06.079260,-456
2021-09-24 14:59:06.079299,-476
2021-09-24 14:59:06.079307,-483
2021-09-24 14:59:06.079314,-471
2021-09-24 14:59:06.079320,-420
2021-09-24 14:59:06.079327,-327
2021-09-24 14:59:06.079334,-221
2021-09-24 14:59:06.079340,-109
2021-09-24 14:59:06.079347,-4
2021-09-24 14:59:06.079354,85
2021-09-24 14:59:06.079360,150
2021-09-24 14:59:06.079367,194
2021-09-24 14:59:06.079374,213
2021-09-24 14:59:06.079380,213
2021-09-24 14:59:06.079387,208
2021-09-24 14:59:06.079394,208
2021-09-24 14:59:06.079400,201
2021-09-24 14:59:06.079407,191
2021-09-24 14:59:06.079414,189
2021-09-24 14:59:06.079420,182
2021-09-24 14:59:06.079427,174
2021-09-24 14:59:06.079434,165
2021-09-24 14:59:06.079441,157
2021-09-24 14:59:06.079447,153
2021-09-24 14:59:06.079454,143
2021-09-24 14:59:06.079461,131
2021-09-24 14:59:06.079467,123
2021-09-24 14:59:06.079474,114
2021-09-24 14:59:06.079481,106
2021-09-24 14:59:06.079487,102
2021-09-24 14:59:06.304321,92
2021-09-24 14:59:06.304346,87
2021-09-24 14:59:06.304354,82
2021-09-24 14:59:06.304361,75
2021-09-24 14:59:06.304367,60
2021-09-24 14:59:06.304374,48
2021-09-24 14:59:06.304381,46
2021-09-24 14:59:06.304387,48
2021-09-24 14:59:06.304394,51
2021-09-24 14:59:06.304401,53
2021-09-24 14:59:06.304407,58
2021-09-24 14:59:06.304414,58
2021-09-24 14:59:06.304420,51
2021-09-24 14:59:06.304427,48
2021-09-24 14:59:06.304433,51
2021-09-24 14:59:06.304440,53
2021-09-24 14:59:06.304446,53
2021-09-24 14:59:06.304453,55
2021-09-24 14:59:06.304460,53
2021-09-24 14:59:06.304466,53
2021-09-24 14:59:06.304473,53
2021-09-24 14:59:06.304479,53
2021-09-24 14:59:06.304486,53
2021-09-24 14:59:06.304492,53
2021-09-24 14:59:06.304499,51
2021-09-24 14:59:06.304505,53
2021-09-24 14:59:06.304512,53
2021-09-24 14:59:06.304519,53
2021-09-24 14:59:06.304526,53
2021-09-24 14:59:06.304532,51
2021-09-24 14:59:06.618953,48
2021-09-24 14:59:06.619014,51
2021-09-24 14:59:06.619026,55
2021-09-24 14:59:06.619037,55
2021-09-24 14:59:06.619047,51
2021-09-24 14:59:06.619057,31
2021-09-24 14:59:06.619067,7
2021-09-24 14:59:06.619077,0
2021-09-24 14:59:06.619087,7
2021-09-24 14:59:06.619097,2
2021-09-24 14:59:06.619107,0
2021-09-24 14:59:06.619117,9
2021-09-24 14:59:06.619127,19
2021-09-24 14:59:06.619137,34
2021-09-24 14:59:06.619147,38
2021-09-24 14:59:06.619157,34
2021-09-24 14:59:06.619167,38
2021-09-24 14:59:06.619177,41
2021-09-24 14:59:06.619187,38
2021-09-24 14:59:06.619197,41
2021-09-24 14:59:06.619207,43
2021-09-24 14:59:06.619217,38
2021-09-24 14:59:06.619227,29
2021-09-24 14:59:06.619237,0
2021-09-24 14:59:06.619247,-75
2021-09-24 14:59:06.619257,-264
2021-09-24 14:59:06.619267,-512
2021-09-24 14:59:06.619277,-529
2021-09-24 14:59:06.619287,-187
2021-09-24 14:59:06.619297,340
2021-09-24 14:59:06.843566,629
2021-09-24 14:59:06.843591,386
2021-09-24 14:59:06.843598,85
2021-09-24 14:59:06.843605,85
2021-09-24 14:59:06.843612,48
2021-09-24 14:59:06.843618,-72
2021-09-24 14:59:06.843625,-70
2021-09-24 14:59:06.843631,-43
2021-09-24 14:59:06.843638,-82
2021-09-24 14:59:06.843644,-114
2021-09-24 14:59:06.843651,-126
2021-09-24 14:59:06.843657,-143
2021-09-24 14:59:06.843664,-150
2021-09-24 14:59:06.843670,-150
2021-09-24 14:59:06.843677,-162
2021-09-24 14:59:06.843683,-179
2021-09-24 14:59:06.843690,-191
2021-09-24 14:59:06.843696,-206
2021-09-24 14:59:06.843703,-225
2021-09-24 14:59:06.843709,-247
2021-09-24 14:59:06.843716,-274
2021-09-24 14:59:06.843722,-308
2021-09-24 14:59:06.843729,-347
2021-09-24 14:59:06.843735,-386
2021-09-24 14:59:06.843742,-420
2021-09-24 14:59:06.843748,-451
2021-09-24 14:59:06.843755,-478
2021-09-24 14:59:06.843761,-488
2021-09-24 14:59:06.843768,-476
2021-09-24 14:59:06.843774,-432
2021-09-24 14:59:06.979275,-357
2021-09-24 14:59:06.979299,-250
2021-09-24 14:59:06.979307,-131
2021-09-24 14:59:06.979313,-24
2021-09-24 14:59:06.979320,58
2021-09-24 14:59:06.979327,123
2021-09-24 14:59:06.979333,179
2021-09-24 14:59:06.979340,208
2021-09-24 14:59:06.979346,221
2021-09-24 14:59:06.979353,225
2021-09-24 14:59:06.979359,225
2021-09-24 14:59:06.979366,213
2021-09-24 14:59:06.979372,204
2021-09-24 14:59:06.979379,199
2021-09-24 14:59:06.979385,187
2021-09-24 14:59:06.979392,167
2021-09-24 14:59:06.979398,153
2021-09-24 14:59:06.979405,148
2021-09-24 14:59:06.979411,143
2021-09-24 14:59:06.979418,133
2021-09-24 14:59:06.979424,121
2021-09-24 14:59:06.979431,109
2021-09-24 14:59:06.979437,94
2021-09-24 14:59:06.979444,89
2021-09-24 14:59:06.979450,87
2021-09-24 14:59:06.979457,82
2021-09-24 14:59:06.979463,77
2021-09-24 14:59:06.979470,72
2021-09-24 14:59:06.979477,68
2021-09-24 14:59:06.979483,68
2021-09-24 14:59:07.294435,70
2021-09-24 14:59:07.294460,72
2021-09-24 14:59:07.294468,70
2021-09-24 14:59:07.294475,63
2021-09-24 14:59:07.294482,58
2021-09-24 14:59:07.294488,63
2021-09-24 14:59:07.294495,68
2021-09-24 14:59:07.294502,68
2021-09-24 14:59:07.294508,65
2021-09-24 14:59:07.294515,58
2021-09-24 14:59:07.294521,51
2021-09-24 14:59:07.294528,53
2021-09-24 14:59:07.294535,53
2021-09-24 14:59:07.294541,46
2021-09-24 14:59:07.294550,38
2021-09-24 14:59:07.294558,31
2021-09-24 14:59:07.294566,24
2021-09-24 14:59:07.294573,29
2021-09-24 14:59:07.294579,34
2021-09-24 14:59:07.294586,34
2021-09-24 14:59:07.294592,34
2021-09-24 14:59:07.294662,29
2021-09-24 14:59:07.294677,29
2021-09-24 14:59:07.294685,34
2021-09-24 14:59:07.294692,36
2021-09-24 14:59:07.294698,36
2021-09-24 14:59:07.294705,36
2021-09-24 14:59:07.294711,31
2021-09-24 14:59:07.294718,31
2021-09-24 14:59:07.294725,36
2021-09-24 14:59:07.518872,38
2021-09-24 14:59:07.518897,38
2021-09-24 14:59:07.518905,38
2021-09-24 14:59:07.518912,36
2021-09-24 14:59:07.518919,29
2021-09-24 14:59:07.518926,14
2021-09-24 14:59:07.518933,7
2021-09-24 14:59:07.518940,14
2021-09-24 14:59:07.518947,7
2021-09-24 14:59:07.518953,-12
2021-09-24 14:59:07.518960,0
2021-09-24 14:59:07.518967,24
2021-09-24 14:59:07.518974,36
2021-09-24 14:59:07.519013,43
2021-09-24 14:59:07.519020,41
2021-09-24 14:59:07.519027,34
2021-09-24 14:59:07.519034,34
2021-09-24 14:59:07.519040,41
2021-09-24 14:59:07.519047,43
2021-09-24 14:59:07.519054,41
2021-09-24 14:59:07.519061,34
2021-09-24 14:59:07.519067,26
2021-09-24 14:59:07.519074,17
2021-09-24 14:59:07.519081,-14
2021-09-24 14:59:07.519088,-109
2021-09-24 14:59:07.519094,-330
2021-09-24 14:59:07.519101,-553
2021-09-24 14:59:07.519108,-483
2021-09-24 14:59:07.519115,-63
2021-09-24 14:59:07.519121,456
2021-09-24 14:59:07.698972,609
2021-09-24 14:59:07.698995,284
2021-09-24 14:59:07.699003,58
2021-09-24 14:59:07.699010,89
2021-09-24 14:59:07.699016,17
2021-09-24 14:59:07.699023,-80
2021-09-24 14:59:07.699030,-58
2021-09-24 14:59:07.699036,-53
2021-09-24 14:59:07.699043,-99
2021-09-24 14:59:07.699049,-106
2021-09-24 14:59:07.699056,-99
2021-09-24 14:59:07.699063,-109
2021-09-24 14:59:07.699069,-121
2021-09-24 14:59:07.699076,-131
2021-09-24 14:59:07.699083,-153
2021-09-24 14:59:07.699089,-174
2021-09-24 14:59:07.699096,-189
2021-09-24 14:59:07.699102,-211
2021-09-24 14:59:07.699109,-238
2021-09-24 14:59:07.699115,-259
2021-09-24 14:59:07.699122,-293
2021-09-24 14:59:07.699129,-340
2021-09-24 14:59:07.699135,-383
2021-09-24 14:59:07.699142,-410
2021-09-24 14:59:07.699148,-442
2021-09-24 14:59:07.699155,-476
2021-09-24 14:59:07.699162,-493
2021-09-24 14:59:07.699168,-490
2021-09-24 14:59:07.699175,-471
2021-09-24 14:59:07.699181,-422
2021-09-24 14:59:07.923759,-344
2021-09-24 14:59:07.923778,-245
2021-09-24 14:59:07.923786,-133
2021-09-24 14:59:07.923792,-26
2021-09-24 14:59:07.923799,63
2021-09-24 14:59:07.923805,128
2021-09-24 14:59:07.923812,170
2021-09-24 14:59:07.923818,187
2021-09-24 14:59:07.923824,194
2021-09-24 14:59:07.923830,201
2021-09-24 14:59:07.923837,204
2021-09-24 14:59:07.923843,201
2021-09-24 14:59:07.923849,196
2021-09-24 14:59:07.923856,184
2021-09-24 14:59:07.923862,174
2021-09-24 14:59:07.923868,172
2021-09-24 14:59:07.923874,167
2021-09-24 14:59:07.923881,160
2021-09-24 14:59:07.923887,150
2021-09-24 14:59:07.923893,136
2021-09-24 14:59:07.923899,121
2021-09-24 14:59:07.923906,114
2021-09-24 14:59:07.923912,114
2021-09-24 14:59:07.923918,109
2021-09-24 14:59:07.923924,99
2021-09-24 14:59:07.923930,94
2021-09-24 14:59:07.923937,92
2021-09-24 14:59:07.923943,89
2021-09-24 14:59:07.923949,92
2021-09-24 14:59:07.923955,97
2021-09-24 14:59:08.149305,94
2021-09-24 14:59:08.149329,89
2021-09-24 14:59:08.149337,92
2021-09-24 14:59:08.149344,92
2021-09-24 14:59:08.149351,89
2021-09-24 14:59:08.149357,99
2021-09-24 14:59:08.149364,97
2021-09-24 14:59:08.149371,82
2021-09-24 14:59:08.149377,80
2021-09-24 14:59:08.149384,85
2021-09-24 14:59:08.149391,85
2021-09-24 14:59:08.149398,85
2021-09-24 14:59:08.149404,75
2021-09-24 14:59:08.149411,68
2021-09-24 14:59:08.149418,72
2021-09-24 14:59:08.149424,75
2021-09-24 14:59:08.149431,68
2021-09-24 14:59:08.149437,70
2021-09-24 14:59:08.149444,72
2021-09-24 14:59:08.149450,68
2021-09-24 14:59:08.149457,68
2021-09-24 14:59:08.149464,60
2021-09-24 14:59:08.149470,55
2021-09-24 14:59:08.149477,58
2021-09-24 14:59:08.149484,55
2021-09-24 14:59:08.149490,51
2021-09-24 14:59:08.149497,53
2021-09-24 14:59:08.149504,48
2021-09-24 14:59:08.149510,36
2021-09-24 14:59:08.149517,34
2021-09-24 14:59:08.418811,38
2021-09-24 14:59:08.418833,43
2021-09-24 14:59:08.418841,41
2021-09-24 14:59:08.418848,31
2021-09-24 14:59:08.418854,14
2021-09-24 14:59:08.418861,4
2021-09-24 14:59:08.418868,2
2021-09-24 14:59:08.418874,0
2021-09-24 14:59:08.418881,0
2021-09-24 14:59:08.418888,7
2021-09-24 14:59:08.418894,31
2021-09-24 14:59:08.418901,43
2021-09-24 14:59:08.418907,34
2021-09-24 14:59:08.418914,29
2021-09-24 14:59:08.418920,38
2021-09-24 14:59:08.418927,41
2021-09-24 14:59:08.418934,38
2021-09-24 14:59:08.418940,36
2021-09-24 14:59:08.418947,41
2021-09-24 14:59:08.418953,43
2021-09-24 14:59:08.418960,38
2021-09-24 14:59:08.418967,17
2021-09-24 14:59:08.418973,-34
2021-09-24 14:59:08.418980,-155
2021-09-24 14:59:08.418986,-395
2021-09-24 14:59:08.418993,-553
2021-09-24 14:59:08.419032,-378
2021-09-24 14:59:08.419038,94
2021-09-24 14:59:08.419045,563
2021-09-24 14:59:08.419052,553
2021-09-24 14:59:08.599183,184
2021-09-24 14:59:08.599214,65
2021-09-24 14:59:08.599232,104
2021-09-24 14:59:08.599245,-12
2021-09-24 14:59:08.599255,-87
2021-09-24 14:59:08.599267,-58
2021-09-24 14:59:08.599280,-75
2021-09-24 14:59:08.599292,-109
2021-09-24 14:59:08.599304,-104
2021-09-24 14:59:08.599317,-109
2021-09-24 14:59:08.599329,-131
2021-09-24 14:59:08.599341,-148
2021-09-24 14:59:08.599353,-155
2021-09-24 14:59:08.599364,-162
2021-09-24 14:59:08.599376,-177
2021-09-24 14:59:08.599388,-196
2021-09-24 14:59:08.599401,-213
2021-09-24 14:59:08.599418,-235
2021-09-24 14:59:08.599430,-262
2021-09-24 14:59:08.599441,-289
2021-09-24 14:59:08.599453,-320
2021-09-24 14:59:08.599465,-359
2021-09-24 14:59:08.599478,-403
2021-09-24 14:59:08.599490,-439
2021-09-24 14:59:08.599501,-461
2021-09-24 14:59:08.599513,-478
2021-09-24 14:59:08.599525,-485
2021-09-24 14:59:08.599537,-459
2021-09-24 14:59:08.599549,-398
2021-09-24 14:59:08.599560,-313
2021-09-24 14:59:08.867959,-201
2021-09-24 14:59:08.868014,-87
2021-09-24 14:59:08.868022,4
2021-09-24 14:59:08.868029,72
2021-09-24 14:59:08.868036,119
2021-09-24 14:59:08.868043,155
2021-09-24 14:59:08.868049,187
2021-09-24 14:59:08.868056,206
2021-09-24 14:59:08.868063,206
2021-09-24 14:59:08.868070,201
2021-09-24 14:59:08.868077,191
2021-09-24 14:59:08.868084,189
2021-09-24 14:59:08.868091,189
2021-09-24 14:59:08.868097,182
2021-09-24 14:59:08.868104,172
2021-09-24 14:59:08.868111,165
2021-09-24 14:59:08.868118,153
2021-09-24 14:59:08.868125,140
2021-09-24 14:59:08.868131,136
2021-09-24 14:59:08.868138,133
2021-09-24 14:59:08.868155,123
2021-09-24 14:59:08.868163,111
2021-09-24 14:59:08.868170,106
2021-09-24 14:59:08.868177,104
2021-09-24 14:59:08.868184,102
2021-09-24 14:59:08.868191,102
2021-09-24 14:59:08.868198,102
2021-09-24 14:59:08.868204,97
2021-09-24 14:59:08.868211,94
2021-09-24 14:59:08.868218,94
2021-09-24 14:59:09.139352,97
2021-09-24 14:59:09.139374,99
2021-09-24 14:59:09.139382,99
2021-09-24 14:59:09.139389,92
2021-09-24 14:59:09.139395,82
2021-09-24 14:59:09.139402,87
2021-09-24 14:59:09.139408,94
2021-09-24 14:59:09.139415,94
2021-09-24 14:59:09.139421,89
2021-09-24 14:59:09.139428,82
2021-09-24 14:59:09.139434,72
2021-09-24 14:59:09.139441,77
2021-09-24 14:59:09.139447,85
2021-09-24 14:59:09.139454,80
2021-09-24 14:59:09.139460,75
2021-09-24 14:59:09.139467,75
2021-09-24 14:59:09.139473,72
2021-09-24 14:59:09.139479,72
2021-09-24 14:59:09.139486,77
2021-09-24 14:59:09.139492,80
2021-09-24 14:59:09.139499,75
2021-09-24 14:59:09.139505,70
2021-09-24 14:59:09.139512,68
2021-09-24 14:59:09.139518,70
2021-09-24 14:59:09.139524,75
2021-09-24 14:59:09.139531,72
2021-09-24 14:59:09.139537,60
2021-09-24 14:59:09.139544,41
2021-09-24 14:59:09.139550,36
2021-09-24 14:59:09.139557,38
2021-09-24 14:59:09.319348,26
2021-09-24 14:59:09.319370,24
2021-09-24 14:59:09.319378,34
2021-09-24 14:59:09.319385,43
2021-09-24 14:59:09.319391,58
2021-09-24 14:59:09.319398,68
2021-09-24 14:59:09.319405,63
2021-09-24 14:59:09.319412,60
2021-09-24 14:59:09.319418,58
2021-09-24 14:59:09.319425,46
2021-09-24 14:59:09.319431,46
2021-09-24 14:59:09.319438,55
2021-09-24 14:59:09.319444,53
2021-09-24 14:59:09.319451,41
2021-09-24 14:59:09.319457,4
2021-09-24 14:59:09.319464,-60
2021-09-24 14:59:09.319471,-194
2021-09-24 14:59:09.319477,-422
2021-09-24 14:59:09.319483,-522
2021-09-24 14:59:09.319490,-264
2021-09-24 14:59:09.319497,245
2021-09-24 14:59:09.319503,619
2021-09-24 14:59:09.319510,483
2021-09-24 14:59:09.319516,133
2021-09-24 14:59:09.319523,72
2021-09-24 14:59:09.319529,85
2021-09-24 14:59:09.319536,-43
2021-09-24 14:59:09.319542,-97
2021-09-24 14:59:09.319549,-65
2021-09-24 14:59:09.319555,-85
2021-09-24 14:59:09.544353,-111
2021-09-24 14:59:09.544375,-111
2021-09-24 14:59:09.544383,-131
2021-09-24 14:59:09.544390,-148
2021-09-24 14:59:09.544397,-145
2021-09-24 14:59:09.544403,-153
2021-09-24 14:59:09.544410,-170
2021-09-24 14:59:09.544417,-182
2021-09-24 14:59:09.544423,-204
2021-09-24 14:59:09.544430,-230
2021-09-24 14:59:09.544437,-245
2021-09-24 14:59:09.544443,-267
2021-09-24 14:59:09.544450,-301
2021-09-24 14:59:09.544457,-340
2021-09-24 14:59:09.544463,-386
2021-09-24 14:59:09.544470,-429
2021-09-24 14:59:09.544477,-456
2021-09-24 14:59:09.544483,-476
2021-09-24 14:59:09.544490,-485
2021-09-24 14:59:09.544497,-473
2021-09-24 14:59:09.544504,-444
2021-09-24 14:59:09.544510,-383
2021-09-24 14:59:09.544517,-284
2021-09-24 14:59:09.544524,-167
2021-09-24 14:59:09.544530,-55
2021-09-24 14:59:09.544537,38
2021-09-24 14:59:09.544544,111
2021-09-24 14:59:09.544551,162
2021-09-24 14:59:09.544557,196
2021-09-24 14:59:09.544564,216
2021-09-24 14:59:09.769400,225
2021-09-24 14:59:09.769423,225
2021-09-24 14:59:09.769430,218
2021-09-24 14:59:09.769437,211
2021-09-24 14:59:09.769444,204
2021-09-24 14:59:09.769451,196
2021-09-24 14:59:09.769457,189
2021-09-24 14:59:09.769464,177
2021-09-24 14:59:09.769470,157
2021-09-24 14:59:09.769477,145
2021-09-24 14:59:09.769483,143
2021-09-24 14:59:09.769490,138
2021-09-24 14:59:09.769496,128
2021-09-24 14:59:09.769503,109
2021-09-24 14:59:09.769510,87
2021-09-24 14:59:09.769516,72
2021-09-24 14:59:09.769523,72
2021-09-24 14:59:09.769529,75
2021-09-24 14:59:09.769536,72
2021-09-24 14:59:09.769542,72
2021-09-24 14:59:09.769549,75
2021-09-24 14:59:09.769555,72
2021-09-24 14:59:09.769562,75
2021-09-24 14:59:09.769569,82
2021-09-24 14:59:09.769575,82
2021-09-24 14:59:09.769582,82
2021-09-24 14:59:09.769588,80
2021-09-24 14:59:09.769595,80
2021-09-24 14:59:09.769601,82
2021-09-24 14:59:09.769608,85
2021-09-24 14:59:09.994473,85
2021-09-24 14:59:09.994497,80
2021-09-24 14:59:09.994505,82
2021-09-24 14:59:09.994526,80
2021-09-24 14:59:09.994534,77
2021-09-24 14:59:09.994541,72
2021-09-24 14:59:09.994548,63
2021-09-24 14:59:09.994555,53
2021-09-24 14:59:09.994561,58
2021-09-24 14:59:09.994568,60
2021-09-24 14:59:09.994575,58
2021-09-24 14:59:09.994582,58
2021-09-24 14:59:09.994589,53
2021-09-24 14:59:09.994596,46
2021-09-24 14:59:09.994603,46
2021-09-24 14:59:09.994610,53
2021-09-24 14:59:09.994617,55
2021-09-24 14:59:09.994623,55
2021-09-24 14:59:09.994630,51
2021-09-24 14:59:09.994637,46
2021-09-24 14:59:09.994644,48
2021-09-24 14:59:09.994651,53
2021-09-24 14:59:09.994658,51
2021-09-24 14:59:09.994665,51
2021-09-24 14:59:09.994671,48
2021-09-24 14:59:09.994678,46
2021-09-24 14:59:09.994685,36
2021-09-24 14:59:09.994692,19
2021-09-24 14:59:09.994699,12
2021-09-24 14:59:09.994706,19
2021-09-24 14:59:10.219443,14
2021-09-24 14:59:10.219475,7
2021-09-24 14:59:10.219489,17
2021-09-24 14:59:10.219499,34
2021-09-24 14:59:10.219511,46
2021-09-24 14:59:10.219522,48
2021-09-24 14:59:10.219533,34
2021-09-24 14:59:10.219545,29
2021-09-24 14:59:10.219556,31
2021-09-24 14:59:10.219568,29
2021-09-24 14:59:10.219580,29
2021-09-24 14:59:10.219590,24
2021-09-24 14:59:10.219601,19
2021-09-24 14:59:10.219613,12
2021-09-24 14:59:10.219625,-17
2021-09-24 14:59:10.219637,-89
2021-09-24 14:59:10.219650,-264
2021-09-24 14:59:10.219662,-500
2021-09-24 14:59:10.219671,-522
2021-09-24 14:59:10.219677,-213
2021-09-24 14:59:10.219684,269
2021-09-24 14:59:10.219690,575
2021-09-24 14:59:10.219697,383
2021-09-24 14:59:10.219703,68
2021-09-24 14:59:10.219710,46
2021-09-24 14:59:10.219716,29
2021-09-24 14:59:10.219723,-89
2021-09-24 14:59:10.219729,-106
2021-09-24 14:59:10.219736,-77
2021-09-24 14:59:10.219742,-109
2021-09-24 14:59:10.444300,-128
2021-09-24 14:59:10.444324,-119
2021-09-24 14:59:10.444332,-128
2021-09-24 14:59:10.444339,-143
2021-09-24 14:59:10.444345,-148
2021-09-24 14:59:10.444352,-162
2021-09-24 14:59:10.444358,-179
2021-09-24 14:59:10.444365,-187
2021-09-24 14:59:10.444371,-201
2021-09-24 14:59:10.444378,-228
2021-09-24 14:59:10.444384,-262
2021-09-24 14:59:10.444391,-296
2021-09-24 14:59:10.444397,-332
2021-09-24 14:59:10.444404,-366
2021-09-24 14:59:10.444410,-403
2021-09-24 14:59:10.444417,-439
2021-09-24 14:59:10.444423,-466
2021-09-24 14:59:10.444430,-485
2021-09-24 14:59:10.444436,-490
2021-09-24 14:59:10.444443,-476
2021-09-24 14:59:10.444449,-444
2021-09-24 14:59:10.444456,-383
2021-09-24 14:59:10.444462,-289
2021-09-24 14:59:10.444469,-172
2021-09-24 14:59:10.444475,-63
2021-09-24 14:59:10.444482,34
2021-09-24 14:59:10.444488,111
2021-09-24 14:59:10.444495,162
2021-09-24 14:59:10.444501,191
2021-09-24 14:59:10.444508,208
2021-09-24 14:59:10.669361,221
2021-09-24 14:59:10.669383,225
2021-09-24 14:59:10.669390,223
2021-09-24 14:59:10.669397,213
2021-09-24 14:59:10.669403,204
2021-09-24 14:59:10.669410,191
2021-09-24 14:59:10.669416,189
2021-09-24 14:59:10.669423,189
2021-09-24 14:59:10.669429,179
2021-09-24 14:59:10.669436,165
2021-09-24 14:59:10.669442,150
2021-09-24 14:59:10.669449,133
2021-09-24 14:59:10.669455,123
2021-09-24 14:59:10.669462,119
2021-09-24 14:59:10.669468,111
2021-09-24 14:59:10.669474,104
2021-09-24 14:59:10.669481,97
2021-09-24 14:59:10.669487,94
2021-09-24 14:59:10.669494,92
2021-09-24 14:59:10.669500,92
2021-09-24 14:59:10.669507,92
2021-09-24 14:59:10.669513,92
2021-09-24 14:59:10.669520,92
2021-09-24 14:59:10.669526,94
2021-09-24 14:59:10.669533,94
2021-09-24 14:59:10.669539,89
2021-09-24 14:59:10.669545,80
2021-09-24 14:59:10.669552,80
2021-09-24 14:59:10.669558,80
2021-09-24 14:59:10.669565,80
2021-09-24 14:59:10.983044,85
2021-09-24 14:59:10.983069,85
2021-09-24 14:59:10.983077,82
2021-09-24 14:59:10.983084,75
2021-09-24 14:59:10.983091,68
2021-09-24 14:59:10.983098,68
2021-09-24 14:59:10.983105,70
2021-09-24 14:59:10.983112,72
2021-09-24 14:59:10.983119,70
2021-09-24 14:59:10.983126,65
2021-09-24 14:59:10.983133,58
2021-09-24 14:59:10.983140,60
2021-09-24 14:59:10.983147,65
2021-09-24 14:59:10.983154,63
2021-09-24 14:59:10.983160,51
2021-09-24 14:59:10.983167,46
2021-09-24 14:59:10.983174,48
2021-09-24 14:59:10.983181,51
2021-09-24 14:59:10.983188,51
2021-09-24 14:59:10.983195,53
2021-09-24 14:59:10.983202,53
2021-09-24 14:59:10.983209,48
2021-09-24 14:59:10.983216,46
2021-09-24 14:59:10.983223,51
2021-09-24 14:59:10.983230,53
2021-09-24 14:59:10.983237,53
2021-09-24 14:59:10.983243,53
2021-09-24 14:59:10.983250,48
2021-09-24 14:59:10.983257,51
2021-09-24 14:59:10.983264,48
2021-09-24 14:59:11.209274,34
2021-09-24 14:59:11.209296,21
2021-09-24 14:59:11.209304,19
2021-09-24 14:59:11.209311,12
2021-09-24 14:59:11.209318,2
2021-09-24 14:59:11.209324,9
2021-09-24 14:59:11.209331,26
2021-09-24 14:59:11.209337,41
2021-09-24 14:59:11.209344,46
2021-09-24 14:59:11.209350,38
2021-09-24 14:59:11.209357,36
2021-09-24 14:59:11.209363,43
2021-09-24 14:59:11.209370,46
2021-09-24 14:59:11.209376,46
2021-09-24 14:59:11.209383,48
2021-09-24 14:59:11.209389,43
2021-09-24 14:59:11.209396,34
2021-09-24 14:59:11.209402,17
2021-09-24 14:59:11.209408,-21
2021-09-24 14:59:11.209415,-128
2021-09-24 14:59:11.209421,-366
2021-09-24 14:59:11.209428,-553
2021-09-24 14:59:11.209434,-417
2021-09-24 14:59:11.209441,12
2021-09-24 14:59:11.209447,480
2021-09-24 14:59:11.209454,573
2021-09-24 14:59:11.209460,235
2021-09-24 14:59:11.209467,43
2021-09-24 14:59:11.209473,77
2021-09-24 14:59:11.209480,-2
2021-09-24 14:59:11.389430,-92
2021-09-24 14:59:11.389455,-75
2021-09-24 14:59:11.389463,-85
2021-09-24 14:59:11.389470,-119
2021-09-24 14:59:11.389477,-116
2021-09-24 14:59:11.389483,-114
2021-09-24 14:59:11.389490,-126
2021-09-24 14:59:11.389496,-133
2021-09-24 14:59:11.389503,-143
2021-09-24 14:59:11.389509,-160
2021-09-24 14:59:11.389516,-174
2021-09-24 14:59:11.389522,-187
2021-09-24 14:59:11.389529,-208
2021-09-24 14:59:11.389535,-235
2021-09-24 14:59:11.389542,-267
2021-09-24 14:59:11.389548,-296
2021-09-24 14:59:11.389555,-325
2021-09-24 14:59:11.389561,-361
2021-09-24 14:59:11.389568,-403
2021-09-24 14:59:11.389574,-444
2021-09-24 14:59:11.389581,-473
2021-09-24 14:59:11.389587,-490
2021-09-24 14:59:11.389594,-485
2021-09-24 14:59:11.389600,-463
2021-09-24 14:59:11.389606,-420
2021-09-24 14:59:11.389613,-344
2021-09-24 14:59:11.389619,-240
2021-09-24 14:59:11.389626,-126
2021-09-24 14:59:11.389632,-19
2021-09-24 14:59:11.389639,70
2021-09-24 14:59:11.659419,140
2021-09-24 14:59:11.659440,187
2021-09-24 14:59:11.659448,208
2021-09-24 14:59:11.659455,221
2021-09-24 14:59:11.659462,228
2021-09-24 14:59:11.659468,230
2021-09-24 14:59:11.659475,228
2021-09-24 14:59:11.659481,218
2021-09-24 14:59:11.659487,204
2021-09-24 14:59:11.659494,201
2021-09-24 14:59:11.659500,199
2021-09-24 14:59:11.659506,189
2021-09-24 14:59:11.659513,179
2021-09-24 14:59:11.659519,165
2021-09-24 14:59:11.659526,148
2021-09-24 14:59:11.659532,143
2021-09-24 14:59:11.659538,138
2021-09-24 14:59:11.659545,131
2021-09-24 14:59:11.659551,126
2021-09-24 14:59:11.659557,121
2021-09-24 14:59:11.659564,109
2021-09-24 14:59:11.659570,99
2021-09-24 14:59:11.659577,102
2021-09-24 14:59:11.659583,104
2021-09-24 14:59:11.659589,104
2021-09-24 14:59:11.659596,102
2021-09-24 14:59:11.659602,102
2021-09-24 14:59:11.659608,106
2021-09-24 14:59:11.659615,106
2021-09-24 14:59:11.659621,109
2021-09-24 14:59:11.839359,106
2021-09-24 14:59:11.839381,104
2021-09-24 14:59:11.839389,104
2021-09-24 14:59:11.839395,102
2021-09-24 14:59:11.839402,102
2021-09-24 14:59:11.839409,104
2021-09-24 14:59:11.839415,97
2021-09-24 14:59:11.839422,85
2021-09-24 14:59:11.839428,80
2021-09-24 14:59:11.839435,82
2021-09-24 14:59:11.839442,82
2021-09-24 14:59:11.839448,82
2021-09-24 14:59:11.839455,77
2021-09-24 14:59:11.839461,68
2021-09-24 14:59:11.839468,68
2021-09-24 14:59:11.839474,70
2021-09-24 14:59:11.839481,68
2021-09-24 14:59:11.839487,65
2021-09-24 14:59:11.839494,60
2021-09-24 14:59:11.839500,53
2021-09-24 14:59:11.839517,55
2021-09-24 14:59:11.839524,53
2021-09-24 14:59:11.839530,46
2021-09-24 14:59:11.839537,41
2021-09-24 14:59:11.839543,43
2021-09-24 14:59:11.839550,43
2021-09-24 14:59:11.839556,43
2021-09-24 14:59:11.839563,43
2021-09-24 14:59:11.839569,43
2021-09-24 14:59:11.839575,46
2021-09-24 14:59:12.064399,48
2021-09-24 14:59:12.064423,51
2021-09-24 14:59:12.064431,46
2021-09-24 14:59:12.064438,36
2021-09-24 14:59:12.064445,17
2021-09-24 14:59:12.064452,12
2021-09-24 14:59:12.064459,14
2021-09-24 14:59:12.064465,7
2021-09-24 14:59:12.064472,2
2021-09-24 14:59:12.064479,14
2021-09-24 14:59:12.064486,31
2021-09-24 14:59:12.064493,43
2021-09-24 14:59:12.064499,41
2021-09-24 14:59:12.064506,34
2021-09-24 14:59:12.064513,38
2021-09-24 14:59:12.064519,43
2021-09-24 14:59:12.064526,41
2021-09-24 14:59:12.064533,41
2021-09-24 14:59:12.064540,41
2021-09-24 14:59:12.064546,43
2021-09-24 14:59:12.064553,36
2021-09-24 14:59:12.064560,4
2021-09-24 14:59:12.064567,-63
2021-09-24 14:59:12.064573,-240
2021-09-24 14:59:12.064580,-500
2021-09-24 14:59:12.064587,-556
2021-09-24 14:59:12.064593,-252
2021-09-24 14:59:12.064600,262
2021-09-24 14:59:12.064607,600
2021-09-24 14:59:12.064614,415
2021-09-24 14:59:12.288973,92
2021-09-24 14:59:12.288994,65
2021-09-24 14:59:12.289002,53
2021-09-24 14:59:12.289010,-68
2021-09-24 14:59:12.289016,-87
2021-09-24 14:59:12.289023,-60
2021-09-24 14:59:12.289030,-97
2021-09-24 14:59:12.289036,-114
2021-09-24 14:59:12.289043,-111
2021-09-24 14:59:12.289049,-131
2021-09-24 14:59:12.289056,-150
2021-09-24 14:59:12.289063,-165
2021-09-24 14:59:12.289069,-184
2021-09-24 14:59:12.289076,-201
2021-09-24 14:59:12.289082,-216
2021-09-24 14:59:12.289089,-228
2021-09-24 14:59:12.289095,-245
2021-09-24 14:59:12.289102,-267
2021-09-24 14:59:12.289108,-291
2021-09-24 14:59:12.289115,-318
2021-09-24 14:59:12.289121,-352
2021-09-24 14:59:12.289128,-388
2021-09-24 14:59:12.289134,-422
2021-09-24 14:59:12.289141,-451
2021-09-24 14:59:12.289147,-468
2021-09-24 14:59:12.289154,-471
2021-09-24 14:59:12.289160,-471
2021-09-24 14:59:12.289167,-446
2021-09-24 14:59:12.289173,-386
2021-09-24 14:59:12.289180,-296
2021-09-24 14:59:12.514334,-184
2021-09-24 14:59:12.514358,-68
2021-09-24 14:59:12.514366,29
2021-09-24 14:59:12.514373,102
2021-09-24 14:59:12.514379,155
2021-09-24 14:59:12.514385,189
2021-09-24 14:59:12.514392,208
2021-09-24 14:59:12.514398,218
2021-09-24 14:59:12.514405,223
2021-09-24 14:59:12.514411,218
2021-09-24 14:59:12.514418,208
2021-09-24 14:59:12.514424,201
2021-09-24 14:59:12.514430,204
2021-09-24 14:59:12.514437,201
2021-09-24 14:59:12.514443,189
2021-09-24 14:59:12.514450,179
2021-09-24 14:59:12.514456,167
2021-09-24 14:59:12.514462,157
2021-09-24 14:59:12.514469,150
2021-09-24 14:59:12.514475,143
2021-09-24 14:59:12.514482,136
2021-09-24 14:59:12.514488,126
2021-09-24 14:59:12.514495,119
2021-09-24 14:59:12.514501,116
2021-09-24 14:59:12.514507,114
2021-09-24 14:59:12.514514,109
2021-09-24 14:59:12.514520,106
2021-09-24 14:59:12.514527,102
2021-09-24 14:59:12.514533,99
2021-09-24 14:59:12.514540,102
2021-09-24 14:59:12.783808,109
2021-09-24 14:59:12.783831,109
2021-09-24 14:59:12.783839,102
2021-09-24 14:59:12.783846,94
2021-09-24 14:59:12.783852,92
2021-09-24 14:59:12.783859,97
2021-09-24 14:59:12.783865,97
2021-09-24 14:59:12.783872,92
2021-09-24 14:59:12.783878,92
2021-09-24 14:59:12.783884,85
2021-09-24 14:59:12.783891,72
2021-09-24 14:59:12.783897,70
2021-09-24 14:59:12.783904,80
2021-09-24 14:59:12.783910,85
2021-09-24 14:59:12.783917,80
2021-09-24 14:59:12.783923,72
2021-09-24 14:59:12.783930,68
2021-09-24 14:59:12.783936,72
2021-09-24 14:59:12.783943,70
2021-09-24 14:59:12.783949,55
2021-09-24 14:59:12.783956,51
2021-09-24 14:59:12.783962,53
2021-09-24 14:59:12.783968,48
2021-09-24 14:59:12.783975,48
2021-09-24 14:59:12.783981,55
2021-09-24 14:59:12.783988,55
2021-09-24 14:59:12.783994,46
2021-09-24 14:59:12.784001,41
2021-09-24 14:59:12.784007,46
2021-09-24 14:59:12.784014,46
2021-09-24 14:59:13.052939,38
2021-09-24 14:59:13.052964,34
2021-09-24 14:59:13.052972,34
2021-09-24 14:59:13.052979,24
2021-09-24 14:59:13.052986,12
2021-09-24 14:59:13.052993,7
2021-09-24 14:59:13.053000,2
2021-09-24 14:59:13.053007,4
2021-09-24 14:59:13.053014,-4
2021-09-24 14:59:13.053021,-21
2021-09-24 14:59:13.053028,-12
2021-09-24 14:59:13.053035,17
2021-09-24 14:59:13.053041,31
2021-09-24 14:59:13.053048,29
2021-09-24 14:59:13.053055,24
2021-09-24 14:59:13.053062,17
2021-09-24 14:59:13.053069,14
2021-09-24 14:59:13.053076,24
2021-09-24 14:59:13.053083,29
2021-09-24 14:59:13.053089,24
2021-09-24 14:59:13.053097,17
2021-09-24 14:59:13.053104,2
2021-09-24 14:59:13.053110,-24
2021-09-24 14:59:13.053117,-97
2021-09-24 14:59:13.053124,-284
2021-09-24 14:59:13.053131,-522
2021-09-24 14:59:13.053138,-536
2021-09-24 14:59:13.053145,-194
2021-09-24 14:59:13.053152,344
2021-09-24 14:59:13.053159,619
2021-09-24 14:59:13.234399,347
2021-09-24 14:59:13.234422,51
2021-09-24 14:59:13.234430,55
2021-09-24 14:59:13.234437,12
2021-09-24 14:59:13.234443,-106
2021-09-24 14:59:13.234450,-109
2021-09-24 14:59:13.234456,-89
2021-09-24 14:59:13.234463,-126
2021-09-24 14:59:13.234469,-145
2021-09-24 14:59:13.234476,-145
2021-09-24 14:59:13.234482,-153
2021-09-24 14:59:13.234489,-157
2021-09-24 14:59:13.234496,-162
2021-09-24 14:59:13.234502,-174
2021-09-24 14:59:13.234509,-201
2021-09-24 14:59:13.234515,-218
2021-09-24 14:59:13.234522,-225
2021-09-24 14:59:13.234528,-240
2021-09-24 14:59:13.234535,-262
2021-09-24 14:59:13.234541,-284
2021-09-24 14:59:13.234548,-315
2021-09-24 14:59:13.234554,-352
2021-09-24 14:59:13.234561,-386
2021-09-24 14:59:13.234567,-415
2021-09-24 14:59:13.234574,-442
2021-09-24 14:59:13.234580,-468
2021-09-24 14:59:13.234586,-485
2021-09-24 14:59:13.234593,-471
2021-09-24 14:59:13.234599,-432
2021-09-24 14:59:13.234606,-369
2021-09-24 14:59:13.504432,-267
2021-09-24 14:59:13.504456,-150
2021-09-24 14:59:13.504464,-51
2021-09-24 14:59:13.504470,34
2021-09-24 14:59:13.504477,106
2021-09-24 14:59:13.504484,162
2021-09-24 14:59:13.504490,196
2021-09-24 14:59:13.504497,211
2021-09-24 14:59:13.504503,211
2021-09-24 14:59:13.504510,208
2021-09-24 14:59:13.504516,216
2021-09-24 14:59:13.504523,221
2021-09-24 14:59:13.504530,216
2021-09-24 14:59:13.504536,204
2021-09-24 14:59:13.504542,191
2021-09-24 14:59:13.504549,182
2021-09-24 14:59:13.504555,174
2021-09-24 14:59:13.504639,165
2021-09-24 14:59:13.504646,155
2021-09-24 14:59:13.504653,143
2021-09-24 14:59:13.504659,131
2021-09-24 14:59:13.504666,126
2021-09-24 14:59:13.504672,123
2021-09-24 14:59:13.504679,116
2021-09-24 14:59:13.504685,109
2021-09-24 14:59:13.504692,109
2021-09-24 14:59:13.504698,109
2021-09-24 14:59:13.504704,106
2021-09-24 14:59:13.504711,106
2021-09-24 14:59:13.504717,106
2021-09-24 14:59:13.684042,106
2021-09-24 14:59:13.684064,106
2021-09-24 14:59:13.684072,106
2021-09-24 14:59:13.684079,106
2021-09-24 14:59:13.684085,106
2021-09-24 14:59:13.684092,104
2021-09-24 14:59:13.684098,102
2021-09-24 14:59:13.684105,94
2021-09-24 14:59:13.684111,94
2021-09-24 14:59:13.684117,94
2021-09-24 14:59:13.684124,92
2021-09-24 14:59:13.684130,92
2021-09-24 14:59:13.684137,87
2021-09-24 14:59:13.684144,77
2021-09-24 14:59:13.684150,77
2021-09-24 14:59:13.684157,80
2021-09-24 14:59:13.684163,75
2021-09-24 14:59:13.684170,77
2021-09-24 14:59:13.684176,75
2021-09-24 14:59:13.684183,60
2021-09-24 14:59:13.684189,60
2021-09-24 14:59:13.684196,68
2021-09-24 14:59:13.684202,63
2021-09-24 14:59:13.684209,60
2021-09-24 14:59:13.684215,63
2021-09-24 14:59:13.684222,65
2021-09-24 14:59:13.684228,65
2021-09-24 14:59:13.684235,51
2021-09-24 14:59:13.684241,34
2021-09-24 14:59:13.684248,29
2021-09-24 14:59:13.909434,29
2021-09-24 14:59:13.909463,14
2021-09-24 14:59:13.909472,9
2021-09-24 14:59:13.909479,26
2021-09-24 14:59:13.909486,43
2021-09-24 14:59:13.909503,53
2021-09-24 14:59:13.909510,48
2021-09-24 14:59:13.909517,38
2021-09-24 14:59:13.909524,36
2021-09-24 14:59:13.909531,34
2021-09-24 14:59:13.909538,34
2021-09-24 14:59:13.909544,36
2021-09-24 14:59:13.909551,29
2021-09-24 14:59:13.909558,21
2021-09-24 14:59:13.909565,7
2021-09-24 14:59:13.909572,-38
2021-09-24 14:59:13.909579,-121
2021-09-24 14:59:13.909586,-308
2021-09-24 14:59:13.909592,-517
2021-09-24 14:59:13.909599,-454
2021-09-24 14:59:13.909606,-46
2021-09-24 14:59:13.909613,466
2021-09-24 14:59:13.909620,626
2021-09-24 14:59:13.909627,298
2021-09-24 14:59:13.909633,55
2021-09-24 14:59:13.909640,89
2021-09-24 14:59:13.909647,24
2021-09-24 14:59:13.909654,-94
2021-09-24 14:59:13.909661,-85
2021-09-24 14:59:13.909668,-65
2021-09-24 14:59:14.134349,-102
2021-09-24 14:59:14.134373,-119
2021-09-24 14:59:14.134380,-114
2021-09-24 14:59:14.134387,-131
2021-09-24 14:59:14.134394,-150
2021-09-24 14:59:14.134400,-165
2021-09-24 14:59:14.134407,-177
2021-09-24 14:59:14.134413,-187
2021-09-24 14:59:14.134420,-201
2021-09-24 14:59:14.134426,-223
2021-09-24 14:59:14.134433,-247
2021-09-24 14:59:14.134440,-276
2021-09-24 14:59:14.134446,-306
2021-09-24 14:59:14.134453,-330
2021-09-24 14:59:14.134459,-366
2021-09-24 14:59:14.134466,-405
2021-09-24 14:59:14.134472,-437
2021-09-24 14:59:14.134479,-459
2021-09-24 14:59:14.134485,-466
2021-09-24 14:59:14.134492,-461
2021-09-24 14:59:14.134499,-444
2021-09-24 14:59:14.134505,-405
2021-09-24 14:59:14.134512,-332
2021-09-24 14:59:14.134518,-233
2021-09-24 14:59:14.134525,-116
2021-09-24 14:59:14.134531,-9
2021-09-24 14:59:14.134538,75
2021-09-24 14:59:14.134544,140
2021-09-24 14:59:14.134551,189
2021-09-24 14:59:14.134557,218
2021-09-24 14:59:14.403539,233
2021-09-24 14:59:14.403563,242
2021-09-24 14:59:14.403572,245
2021-09-24 14:59:14.403579,238
2021-09-24 14:59:14.403586,233
2021-09-24 14:59:14.403593,221
2021-09-24 14:59:14.403599,201
2021-09-24 14:59:14.403606,187
2021-09-24 14:59:14.403613,179
2021-09-24 14:59:14.403619,167
2021-09-24 14:59:14.403626,150
2021-09-24 14:59:14.403633,136
2021-09-24 14:59:14.403639,128
2021-09-24 14:59:14.403646,119
2021-09-24 14:59:14.403653,111
2021-09-24 14:59:14.403660,102
2021-09-24 14:59:14.403667,97
2021-09-24 14:59:14.403673,94
2021-09-24 14:59:14.403680,97
2021-09-24 14:59:14.403687,97
2021-09-24 14:59:14.403694,94
2021-09-24 14:59:14.403724,97
2021-09-24 14:59:14.403740,99
2021-09-24 14:59:14.403752,99
2021-09-24 14:59:14.403763,102
2021-09-24 14:59:14.403773,104
2021-09-24 14:59:14.403783,104
2021-09-24 14:59:14.403795,99
2021-09-24 14:59:14.403807,99
2021-09-24 14:59:14.403819,102
2021-09-24 14:59:14.628821,102
2021-09-24 14:59:14.628853,102
2021-09-24 14:59:14.628865,102
2021-09-24 14:59:14.628875,94
2021-09-24 14:59:14.628885,85
2021-09-24 14:59:14.628895,85
2021-09-24 14:59:14.628905,87
2021-09-24 14:59:14.628915,85
2021-09-24 14:59:14.628925,82
2021-09-24 14:59:14.628935,77
2021-09-24 14:59:14.628945,68
2021-09-24 14:59:14.628955,68
2021-09-24 14:59:14.628965,75
2021-09-24 14:59:14.628975,72
2021-09-24 14:59:14.628985,65
2021-09-24 14:59:14.628995,55
2021-09-24 14:59:14.629005,48
2021-09-24 14:59:14.629015,53
2021-09-24 14:59:14.629025,60
2021-09-24 14:59:14.629035,63
2021-09-24 14:59:14.629045,63
2021-09-24 14:59:14.629055,60
2021-09-24 14:59:14.629065,58
2021-09-24 14:59:14.629075,53
2021-09-24 14:59:14.629085,36
2021-09-24 14:59:14.629095,29
2021-09-24 14:59:14.629118,36
2021-09-24 14:59:14.629129,29
2021-09-24 14:59:14.629139,17
2021-09-24 14:59:14.629149,31
2021-09-24 14:59:14.854485,53
2021-09-24 14:59:14.854509,65
2021-09-24 14:59:14.854517,63
2021-09-24 14:59:14.854523,51
2021-09-24 14:59:14.854530,48
2021-09-24 14:59:14.854537,55
2021-09-24 14:59:14.854543,60
2021-09-24 14:59:14.854550,60
2021-09-24 14:59:14.854556,58
2021-09-24 14:59:14.854563,51
2021-09-24 14:59:14.854569,34
2021-09-24 14:59:14.854576,-4
2021-09-24 14:59:14.854583,-97
2021-09-24 14:59:14.854589,-313
2021-09-24 14:59:14.854596,-531
2021-09-24 14:59:14.854602,-461
2021-09-24 14:59:14.854609,-68
2021-09-24 14:59:14.854616,422
2021-09-24 14:59:14.854622,597
2021-09-24 14:59:14.854629,298
2021-09-24 14:59:14.854635,51
2021-09-24 14:59:14.854642,70
2021-09-24 14:59:14.854648,7
2021-09-24 14:59:14.854655,-99
2021-09-24 14:59:14.854661,-80
2021-09-24 14:59:14.854668,-63
2021-09-24 14:59:14.854674,-99
2021-09-24 14:59:14.854681,-111
2021-09-24 14:59:14.854687,-104
2021-09-24 14:59:14.854694,-114
2021-09-24 14:59:15.168096,-126
2021-09-24 14:59:15.168118,-128
2021-09-24 14:59:15.168126,-143
2021-09-24 14:59:15.168133,-162
2021-09-24 14:59:15.168139,-177
2021-09-24 14:59:15.168146,-191
2021-09-24 14:59:15.168152,-216
2021-09-24 14:59:15.168159,-245
2021-09-24 14:59:15.168165,-281
2021-09-24 14:59:15.168172,-320
2021-09-24 14:59:15.168179,-349
2021-09-24 14:59:15.168185,-378
2021-09-24 14:59:15.168192,-412
2021-09-24 14:59:15.168198,-442
2021-09-24 14:59:15.168205,-463
2021-09-24 14:59:15.168211,-471
2021-09-24 14:59:15.168218,-449
2021-09-24 14:59:15.168224,-405
2021-09-24 14:59:15.168231,-342
2021-09-24 14:59:15.168237,-247
2021-09-24 14:59:15.168244,-138
2021-09-24 14:59:15.168251,-31
2021-09-24 14:59:15.168257,63
2021-09-24 14:59:15.168264,138
2021-09-24 14:59:15.168270,184
2021-09-24 14:59:15.168277,213
2021-09-24 14:59:15.168283,228
2021-09-24 14:59:15.168290,233
2021-09-24 14:59:15.168296,235
2021-09-24 14:59:15.168303,235
2021-09-24 14:59:15.304064,233
2021-09-24 14:59:15.304085,228
2021-09-24 14:59:15.304093,218
2021-09-24 14:59:15.304100,206
2021-09-24 14:59:15.304106,201
2021-09-24 14:59:15.304113,199
2021-09-24 14:59:15.304120,189
2021-09-24 14:59:15.304126,179
2021-09-24 14:59:15.304132,170
2021-09-24 14:59:15.304139,157
2021-09-24 14:59:15.304145,150
2021-09-24 14:59:15.304152,148
2021-09-24 14:59:15.304158,140
2021-09-24 14:59:15.304165,128
2021-09-24 14:59:15.304171,116
2021-09-24 14:59:15.304178,111
2021-09-24 14:59:15.304185,114
2021-09-24 14:59:15.304191,114
2021-09-24 14:59:15.304198,106
2021-09-24 14:59:15.304204,89
2021-09-24 14:59:15.304211,80
2021-09-24 14:59:15.304217,80
2021-09-24 14:59:15.304224,80
2021-09-24 14:59:15.304230,82
2021-09-24 14:59:15.304236,85
2021-09-24 14:59:15.304243,85
2021-09-24 14:59:15.304250,85
2021-09-24 14:59:15.304256,87
2021-09-24 14:59:15.304263,94
2021-09-24 14:59:15.304269,94
2021-09-24 14:59:15.529453,94
2021-09-24 14:59:15.529484,92
2021-09-24 14:59:15.529496,92
2021-09-24 14:59:15.529506,92
2021-09-24 14:59:15.529516,92
2021-09-24 14:59:15.529526,92
2021-09-24 14:59:15.529536,87
2021-09-24 14:59:15.529546,80
2021-09-24 14:59:15.529556,77
2021-09-24 14:59:15.529566,80
2021-09-24 14:59:15.529576,80
2021-09-24 14:59:15.529586,80
2021-09-24 14:59:15.529596,77
2021-09-24 14:59:15.529606,68
2021-09-24 14:59:15.529616,65
2021-09-24 14:59:15.529626,70
2021-09-24 14:59:15.529636,72
2021-09-24 14:59:15.529646,70
2021-09-24 14:59:15.529656,68
2021-09-24 14:59:15.529666,65
2021-09-24 14:59:15.529676,68
2021-09-24 14:59:15.529686,70
2021-09-24 14:59:15.529696,68
2021-09-24 14:59:15.529706,53
2021-09-24 14:59:15.529716,31
2021-09-24 14:59:15.529726,24
2021-09-24 14:59:15.529735,31
2021-09-24 14:59:15.529746,31
2021-09-24 14:59:15.529756,21
2021-09-24 14:59:15.529766,24
2021-09-24 14:59:15.754149,36
2021-09-24 14:59:15.754170,53
2021-09-24 14:59:15.754178,58
2021-09-24 14:59:15.754185,53
2021-09-24 14:59:15.754192,53
2021-09-24 14:59:15.754198,55
2021-09-24 14:59:15.754205,51
2021-09-24 14:59:15.754211,48
2021-09-24 14:59:15.754218,55
2021-09-24 14:59:15.754224,53
2021-09-24 14:59:15.754240,43
2021-09-24 14:59:15.754247,17
2021-09-24 14:59:15.754253,-53
2021-09-24 14:59:15.754260,-225
2021-09-24 14:59:15.754266,-468
2021-09-24 14:59:15.754273,-519
2021-09-24 14:59:15.754279,-228
2021-09-24 14:59:15.754286,274
2021-09-24 14:59:15.754292,617
2021-09-24 14:59:15.754299,449
2021-09-24 14:59:15.754305,123
2021-09-24 14:59:15.754312,85
2021-09-24 14:59:15.754318,70
2021-09-24 14:59:15.754325,-53
2021-09-24 14:59:15.754332,-85
2021-09-24 14:59:15.754338,-70
2021-09-24 14:59:15.754345,-99
2021-09-24 14:59:15.754351,-116
2021-09-24 14:59:15.754358,-111
2021-09-24 14:59:15.754364,-121
2021-09-24 14:59:15.979485,-136
2021-09-24 14:59:15.979515,-138
2021-09-24 14:59:15.979527,-145
2021-09-24 14:59:15.979537,-162
2021-09-24 14:59:15.979547,-174
2021-09-24 14:59:15.979557,-191
2021-09-24 14:59:15.979566,-216
2021-09-24 14:59:15.979576,-240
2021-09-24 14:59:15.979586,-264
2021-09-24 14:59:15.979596,-296
2021-09-24 14:59:15.979605,-337
2021-09-24 14:59:15.979615,-383
2021-09-24 14:59:15.979625,-422
2021-09-24 14:59:15.979635,-446
2021-09-24 14:59:15.979644,-463
2021-09-24 14:59:15.979654,-473
2021-09-24 14:59:15.979664,-466
2021-09-24 14:59:15.979674,-437
2021-09-24 14:59:15.979683,-378
2021-09-24 14:59:15.979693,-286
2021-09-24 14:59:15.979703,-174
2021-09-24 14:59:15.979712,-65
2021-09-24 14:59:15.979722,34
2021-09-24 14:59:15.979732,111
2021-09-24 14:59:15.979742,167
2021-09-24 14:59:15.979752,208
2021-09-24 14:59:15.979761,225
2021-09-24 14:59:15.979771,223
2021-09-24 14:59:15.979781,223
2021-09-24 14:59:15.979791,223
2021-09-24 14:59:16.294443,221
2021-09-24 14:59:16.294466,216
2021-09-24 14:59:16.294474,213
2021-09-24 14:59:16.294481,204
2021-09-24 14:59:16.294487,191
2021-09-24 14:59:16.294494,177
2021-09-24 14:59:16.294500,167
2021-09-24 14:59:16.294507,165
2021-09-24 14:59:16.294513,155
2021-09-24 14:59:16.294520,140
2021-09-24 14:59:16.294526,131
2021-09-24 14:59:16.294532,119
2021-09-24 14:59:16.294539,114
2021-09-24 14:59:16.294545,114
2021-09-24 14:59:16.294552,111
2021-09-24 14:59:16.294558,106
2021-09-24 14:59:16.294565,102
2021-09-24 14:59:16.294571,102
2021-09-24 14:59:16.294578,104
2021-09-24 14:59:16.294584,106
2021-09-24 14:59:16.294591,109
2021-09-24 14:59:16.294597,106
2021-09-24 14:59:16.294604,106
2021-09-24 14:59:16.294610,109
2021-09-24 14:59:16.294617,109
2021-09-24 14:59:16.294623,111
2021-09-24 14:59:16.294630,111
2021-09-24 14:59:16.294636,109
2021-09-24 14:59:16.294643,104
2021-09-24 14:59:16.294649,97
2021-09-24 14:59:16.429461,85
2021-09-24 14:59:16.429486,85
2021-09-24 14:59:16.429494,87
2021-09-24 14:59:16.429501,82
2021-09-24 14:59:16.429508,77
2021-09-24 14:59:16.429515,75
2021-09-24 14:59:16.429522,77
2021-09-24 14:59:16.429529,80
2021-09-24 14:59:16.429535,77
2021-09-24 14:59:16.429542,75
2021-09-24 14:59:16.429549,70
2021-09-24 14:59:16.429556,70
2021-09-24 14:59:16.429563,75
2021-09-24 14:59:16.429569,72
2021-09-24 14:59:16.429576,70
2021-09-24 14:59:16.429583,68
2021-09-24 14:59:16.429590,58
2021-09-24 14:59:16.429597,55
2021-09-24 14:59:16.429603,63
2021-09-24 14:59:16.429610,65
2021-09-24 14:59:16.429617,60
2021-09-24 14:59:16.429624,53
2021-09-24 14:59:16.429631,46
2021-09-24 14:59:16.429638,51
2021-09-24 14:59:16.429645,55
2021-09-24 14:59:16.429651,58
2021-09-24 14:59:16.429658,55
2021-09-24 14:59:16.429665,43
2021-09-24 14:59:16.429672,24
2021-09-24 14:59:16.429679,17
2021-09-24 14:59:16.744464,21
2021-09-24 14:59:16.744488,14
2021-09-24 14:59:16.744496,2
2021-09-24 14:59:16.744502,4
2021-09-24 14:59:16.744509,17
2021-09-24 14:59:16.744515,34
2021-09-24 14:59:16.744522,43
2021-09-24 14:59:16.744529,43
2021-09-24 14:59:16.744535,41
2021-09-24 14:59:16.744542,34
2021-09-24 14:59:16.744548,29
2021-09-24 14:59:16.744555,36
2021-09-24 14:59:16.744561,38
2021-09-24 14:59:16.744568,38
2021-09-24 14:59:16.744574,36
2021-09-24 14:59:16.744581,12
2021-09-24 14:59:16.744587,-38
2021-09-24 14:59:16.744594,-167
2021-09-24 14:59:16.744601,-408
2021-09-24 14:59:16.744607,-546
2021-09-24 14:59:16.744614,-342
2021-09-24 14:59:16.744620,131
2021-09-24 14:59:16.744627,561
2021-09-24 14:59:16.744633,522
2021-09-24 14:59:16.744640,167
2021-09-24 14:59:16.744647,55
2021-09-24 14:59:16.744653,80
2021-09-24 14:59:16.744660,-31
2021-09-24 14:59:16.744666,-89
2021-09-24 14:59:16.744673,-53
2021-09-24 14:59:16.923991,-65
2021-09-24 14:59:16.924013,-97
2021-09-24 14:59:16.924021,-97
2021-09-24 14:59:16.924027,-111
2021-09-24 14:59:16.924034,-136
2021-09-24 14:59:16.924040,-148
2021-09-24 14:59:16.924046,-155
2021-09-24 14:59:16.924053,-167
2021-09-24 14:59:16.924059,-189
2021-09-24 14:59:16.924066,-216
2021-09-24 14:59:16.924073,-230
2021-09-24 14:59:16.924079,-250
2021-09-24 14:59:16.924086,-279
2021-09-24 14:59:16.924092,-303
2021-09-24 14:59:16.924098,-337
2021-09-24 14:59:16.924105,-381
2021-09-24 14:59:16.924111,-412
2021-09-24 14:59:16.924118,-437
2021-09-24 14:59:16.924124,-459
2021-09-24 14:59:16.924131,-471
2021-09-24 14:59:16.924137,-476
2021-09-24 14:59:16.924143,-459
2021-09-24 14:59:16.924150,-403
2021-09-24 14:59:16.924156,-318
2021-09-24 14:59:16.924163,-213
2021-09-24 14:59:16.924169,-104
2021-09-24 14:59:16.924176,-4
2021-09-24 14:59:16.924182,75
2021-09-24 14:59:16.924189,143
2021-09-24 14:59:16.924195,189
2021-09-24 14:59:17.238206,216
2021-09-24 14:59:17.238229,228
2021-09-24 14:59:17.238237,230
2021-09-24 14:59:17.238243,225
2021-09-24 14:59:17.238250,223
2021-09-24 14:59:17.238256,216
2021-09-24 14:59:17.238263,206
2021-09-24 14:59:17.238269,196
2021-09-24 14:59:17.238276,182
2021-09-24 14:59:17.238282,170
2021-09-24 14:59:17.238289,165
2021-09-24 14:59:17.238295,160
2021-09-24 14:59:17.238302,148
2021-09-24 14:59:17.238308,133
2021-09-24 14:59:17.238315,121
2021-09-24 14:59:17.238321,111
2021-09-24 14:59:17.238328,109
2021-09-24 14:59:17.238334,106
2021-09-24 14:59:17.238340,102
2021-09-24 14:59:17.238347,99
2021-09-24 14:59:17.238353,94
2021-09-24 14:59:17.238360,94
2021-09-24 14:59:17.238366,99
2021-09-24 14:59:17.238373,102
2021-09-24 14:59:17.238379,104
2021-09-24 14:59:17.238386,104
2021-09-24 14:59:17.238392,102
2021-09-24 14:59:17.238399,102
2021-09-24 14:59:17.238405,104
2021-09-24 14:59:17.238412,104
2021-09-24 14:59:17.374003,104
2021-09-24 14:59:17.374023,102
2021-09-24 14:59:17.374029,97
2021-09-24 14:59:17.374035,94
2021-09-24 14:59:17.374040,97
2021-09-24 14:59:17.374045,97
2021-09-24 14:59:17.374052,92
2021-09-24 14:59:17.374058,85
2021-09-24 14:59:17.374063,80
2021-09-24 14:59:17.374068,77
2021-09-24 14:59:17.374073,68
2021-09-24 14:59:17.374078,60
2021-09-24 14:59:17.374084,60
2021-09-24 14:59:17.374089,55
2021-09-24 14:59:17.374094,48
2021-09-24 14:59:17.374099,51
2021-09-24 14:59:17.374104,55
2021-09-24 14:59:17.374109,53
2021-09-24 14:59:17.374114,46
2021-09-24 14:59:17.374120,41
2021-09-24 14:59:17.374125,38
2021-09-24 14:59:17.374130,38
2021-09-24 14:59:17.374135,43
2021-09-24 14:59:17.374140,46
2021-09-24 14:59:17.374145,41
2021-09-24 14:59:17.374150,38
2021-09-24 14:59:17.374156,38
2021-09-24 14:59:17.374161,38
2021-09-24 14:59:17.374166,38
2021-09-24 14:59:17.374171,41
2021-09-24 14:59:17.644126,41
2021-09-24 14:59:17.644147,38
2021-09-24 14:59:17.644155,43
2021-09-24 14:59:17.644162,41
2021-09-24 14:59:17.644168,31
2021-09-24 14:59:17.644174,17
2021-09-24 14:59:17.644181,2
2021-09-24 14:59:17.644187,2
2021-09-24 14:59:17.644194,2
2021-09-24 14:59:17.644200,-12
2021-09-24 14:59:17.644207,-9
2021-09-24 14:59:17.644213,12
2021-09-24 14:59:17.644219,24
2021-09-24 14:59:17.644226,19
2021-09-24 14:59:17.644232,19
2021-09-24 14:59:17.644239,19
2021-09-24 14:59:17.644245,19
2021-09-24 14:59:17.644251,19
2021-09-24 14:59:17.644258,19
2021-09-24 14:59:17.644264,19
2021-09-24 14:59:17.644277,21
2021-09-24 14:59:17.644284,14
2021-09-24 14:59:17.644291,-7
2021-09-24 14:59:17.644297,-58
2021-09-24 14:59:17.644304,-201
2021-09-24 14:59:17.644310,-451
2021-09-24 14:59:17.644317,-570
2021-09-24 14:59:17.644323,-337
2021-09-24 14:59:17.644330,157
2021-09-24 14:59:17.644336,568
2021-09-24 14:59:17.869482,476
2021-09-24 14:59:17.869506,131
2021-09-24 14:59:17.869514,51
2021-09-24 14:59:17.869521,55
2021-09-24 14:59:17.869527,-70
2021-09-24 14:59:17.869534,-121
2021-09-24 14:59:17.869540,-92
2021-09-24 14:59:17.869557,-109
2021-09-24 14:59:17.869563,-131
2021-09-24 14:59:17.869570,-128
2021-09-24 14:59:17.869576,-140
2021-09-24 14:59:17.869583,-160
2021-09-24 14:59:17.869589,-165
2021-09-24 14:59:17.869596,-165
2021-09-24 14:59:17.869602,-177
2021-09-24 14:59:17.869609,-194
2021-09-24 14:59:17.869615,-221
2021-09-24 14:59:17.869622,-255
2021-09-24 14:59:17.869628,-279
2021-09-24 14:59:17.869635,-291
2021-09-24 14:59:17.869641,-315
2021-09-24 14:59:17.869647,-352
2021-09-24 14:59:17.869654,-386
2021-09-24 14:59:17.869660,-420
2021-09-24 14:59:17.869667,-449
2021-09-24 14:59:17.869673,-466
2021-09-24 14:59:17.869680,-473
2021-09-24 14:59:17.869686,-466
2021-09-24 14:59:17.869692,-439
2021-09-24 14:59:17.869699,-391
2021-09-24 14:59:18.049492,-313
2021-09-24 14:59:18.049516,-204
2021-09-24 14:59:18.049524,-94
2021-09-24 14:59:18.049531,0
2021-09-24 14:59:18.049538,82
2021-09-24 14:59:18.049545,145
2021-09-24 14:59:18.049552,187
2021-09-24 14:59:18.049559,211
2021-09-24 14:59:18.049566,223
2021-09-24 14:59:18.049573,223
2021-09-24 14:59:18.049580,221
2021-09-24 14:59:18.049587,221
2021-09-24 14:59:18.049594,221
2021-09-24 14:59:18.049601,211
2021-09-24 14:59:18.049608,191
2021-09-24 14:59:18.049615,184
2021-09-24 14:59:18.049622,174
2021-09-24 14:59:18.049629,160
2021-09-24 14:59:18.049636,150
2021-09-24 14:59:18.049642,150
2021-09-24 14:59:18.049649,138
2021-09-24 14:59:18.049656,123
2021-09-24 14:59:18.049663,114
2021-09-24 14:59:18.049670,111
2021-09-24 14:59:18.049677,109
2021-09-24 14:59:18.049684,109
2021-09-24 14:59:18.049691,104
2021-09-24 14:59:18.049698,102
2021-09-24 14:59:18.049705,104
2021-09-24 14:59:18.049712,104
2021-09-24 14:59:18.274500,104
2021-09-24 14:59:18.274532,111
2021-09-24 14:59:18.274544,109
2021-09-24 14:59:18.274554,102
2021-09-24 14:59:18.274564,94
2021-09-24 14:59:18.274574,94
2021-09-24 14:59:18.274584,97
2021-09-24 14:59:18.274594,99
2021-09-24 14:59:18.274604,97
2021-09-24 14:59:18.274613,92
2021-09-24 14:59:18.274623,85
2021-09-24 14:59:18.274633,82
2021-09-24 14:59:18.274643,85
2021-09-24 14:59:18.274653,82
2021-09-24 14:59:18.274663,82
2021-09-24 14:59:18.274673,77
2021-09-24 14:59:18.274682,65
2021-09-24 14:59:18.274692,65
2021-09-24 14:59:18.274702,70
2021-09-24 14:59:18.274712,70
2021-09-24 14:59:18.274722,72
2021-09-24 14:59:18.274732,70
2021-09-24 14:59:18.274742,58
2021-09-24 14:59:18.274752,51
2021-09-24 14:59:18.274762,55
2021-09-24 14:59:18.274772,55
2021-09-24 14:59:18.274782,53
2021-09-24 14:59:18.274792,51
2021-09-24 14:59:18.274802,53
2021-09-24 14:59:18.274812,55
2021-09-24 14:59:18.544477,55
2021-09-24 14:59:18.544501,55
2021-09-24 14:59:18.544509,58
2021-09-24 14:59:18.544516,53
2021-09-24 14:59:18.544522,48
2021-09-24 14:59:18.544529,48
2021-09-24 14:59:18.544535,43
2021-09-24 14:59:18.544542,34
2021-09-24 14:59:18.544548,21
2021-09-24 14:59:18.544555,17
2021-09-24 14:59:18.544561,12
2021-09-24 14:59:18.544568,7
2021-09-24 14:59:18.544574,9
2021-09-24 14:59:18.544581,21
2021-09-24 14:59:18.544587,36
2021-09-24 14:59:18.544594,38
2021-09-24 14:59:18.544600,36
2021-09-24 14:59:18.544607,34
2021-09-24 14:59:18.544613,34
2021-09-24 14:59:18.544620,31
2021-09-24 14:59:18.544626,34
2021-09-24 14:59:18.544633,31
2021-09-24 14:59:18.544639,29
2021-09-24 14:59:18.544645,31
2021-09-24 14:59:18.544652,19
2021-09-24 14:59:18.544658,-19
2021-09-24 14:59:18.544665,-114
2021-09-24 14:59:18.544672,-332
2021-09-24 14:59:18.544678,-529
2021-09-24 14:59:18.544685,-429
2021-09-24 14:59:18.769469,-9
2021-09-24 14:59:18.769490,488
2021-09-24 14:59:18.769499,585
2021-09-24 14:59:18.769505,223
2021-09-24 14:59:18.769512,29
2021-09-24 14:59:18.769518,82
2021-09-24 14:59:18.769525,0
2021-09-24 14:59:18.769532,-102
2021-09-24 14:59:18.769538,-82
2021-09-24 14:59:18.769545,-82
2021-09-24 14:59:18.769551,-114
2021-09-24 14:59:18.769558,-111
2021-09-24 14:59:18.769564,-111
2021-09-24 14:59:18.769571,-128
2021-09-24 14:59:18.769577,-143
2021-09-24 14:59:18.769584,-157
2021-09-24 14:59:18.769590,-170
2021-09-24 14:59:18.769597,-177
2021-09-24 14:59:18.769603,-187
2021-09-24 14:59:18.769610,-208
2021-09-24 14:59:18.769616,-238
2021-09-24 14:59:18.769623,-259
2021-09-24 14:59:18.769629,-284
2021-09-24 14:59:18.769636,-313
2021-09-24 14:59:18.769642,-342
2021-09-24 14:59:18.769649,-371
2021-09-24 14:59:18.769655,-412
2021-09-24 14:59:18.769662,-449
2021-09-24 14:59:18.769668,-463
2021-09-24 14:59:18.769675,-454
2021-09-24 14:59:18.994562,-432
2021-09-24 14:59:18.994585,-393
2021-09-24 14:59:18.994593,-325
2021-09-24 14:59:18.994599,-230
2021-09-24 14:59:18.994606,-116
2021-09-24 14:59:18.994612,-7
2021-09-24 14:59:18.994619,77
2021-09-24 14:59:18.994625,143
2021-09-24 14:59:18.994632,184
2021-09-24 14:59:18.994638,211
2021-09-24 14:59:18.994644,228
2021-09-24 14:59:18.994651,235
2021-09-24 14:59:18.994657,240
2021-09-24 14:59:18.994663,235
2021-09-24 14:59:18.994670,221
2021-09-24 14:59:18.994676,208
2021-09-24 14:59:18.994683,208
2021-09-24 14:59:18.994689,204
2021-09-24 14:59:18.994695,191
2021-09-24 14:59:18.994702,177
2021-09-24 14:59:18.994708,167
2021-09-24 14:59:18.994714,153
2021-09-24 14:59:18.994721,140
2021-09-24 14:59:18.994727,136
2021-09-24 14:59:18.994733,136
2021-09-24 14:59:18.994740,128
2021-09-24 14:59:18.994746,123
2021-09-24 14:59:18.994752,119
2021-09-24 14:59:18.994759,116
2021-09-24 14:59:18.994765,119
2021-09-24 14:59:19.263233,119
2021-09-24 14:59:19.263256,116
2021-09-24 14:59:19.263264,116
2021-09-24 14:59:19.263272,116
2021-09-24 14:59:19.263278,116
2021-09-24 14:59:19.263285,121
2021-09-24 14:59:19.263291,121
2021-09-24 14:59:19.263298,109
2021-09-24 14:59:19.263304,102
2021-09-24 14:59:19.263311,109
2021-09-24 14:59:19.263318,111
2021-09-24 14:59:19.263324,111
2021-09-24 14:59:19.263331,111
2021-09-24 14:59:19.263337,102
2021-09-24 14:59:19.263344,92
2021-09-24 14:59:19.263351,92
2021-09-24 14:59:19.263357,97
2021-09-24 14:59:19.263364,94
2021-09-24 14:59:19.263370,94
2021-09-24 14:59:19.263377,92
2021-09-24 14:59:19.263383,87
2021-09-24 14:59:19.263390,82
2021-09-24 14:59:19.263397,85
2021-09-24 14:59:19.263403,82
2021-09-24 14:59:19.263410,70
2021-09-24 14:59:19.263416,65
2021-09-24 14:59:19.263423,70
2021-09-24 14:59:19.263429,70
2021-09-24 14:59:19.263436,70
2021-09-24 14:59:19.263442,72
2021-09-24 14:59:19.444455,70
2021-09-24 14:59:19.444480,65
2021-09-24 14:59:19.444488,60
2021-09-24 14:59:19.444495,53
2021-09-24 14:59:19.444501,51
2021-09-24 14:59:19.444508,51
2021-09-24 14:59:19.444514,31
2021-09-24 14:59:19.444521,7
2021-09-24 14:59:19.444527,14
2021-09-24 14:59:19.444534,19
2021-09-24 14:59:19.444540,7
2021-09-24 14:59:19.444547,7
2021-09-24 14:59:19.444553,14
2021-09-24 14:59:19.444560,21
2021-09-24 14:59:19.444566,34
2021-09-24 14:59:19.444573,34
2021-09-24 14:59:19.444580,29
2021-09-24 14:59:19.444586,38
2021-09-24 14:59:19.444593,38
2021-09-24 14:59:19.444599,34
2021-09-24 14:59:19.444606,38
2021-09-24 14:59:19.444612,41
2021-09-24 14:59:19.444618,34
2021-09-24 14:59:19.444625,7
2021-09-24 14:59:19.444631,-51
2021-09-24 14:59:19.444638,-184
2021-09-24 14:59:19.444645,-422
2021-09-24 14:59:19.444651,-536
2021-09-24 14:59:19.444658,-296
2021-09-24 14:59:19.444665,194
2021-09-24 14:59:19.669607,578
2021-09-24 14:59:19.669632,471
2021-09-24 14:59:19.669640,123
2021-09-24 14:59:19.669647,46
2021-09-24 14:59:19.669654,63
2021-09-24 14:59:19.669660,-60
2021-09-24 14:59:19.669667,-121
2021-09-24 14:59:19.669673,-87
2021-09-24 14:59:19.669680,-102
2021-09-24 14:59:19.669687,-133
2021-09-24 14:59:19.669693,-128
2021-09-24 14:59:19.669700,-133
2021-09-24 14:59:19.669706,-150
2021-09-24 14:59:19.669713,-155
2021-09-24 14:59:19.669719,-160
2021-09-24 14:59:19.669726,-174
2021-09-24 14:59:19.669732,-184
2021-09-24 14:59:19.669739,-196
2021-09-24 14:59:19.669745,-218
2021-09-24 14:59:19.669752,-238
2021-09-24 14:59:19.669759,-257
2021-09-24 14:59:19.669765,-284
2021-09-24 14:59:19.669772,-318
2021-09-24 14:59:19.669778,-354
2021-09-24 14:59:19.669785,-388
2021-09-24 14:59:19.669791,-415
2021-09-24 14:59:19.669798,-432
2021-09-24 14:59:19.669804,-444
2021-09-24 14:59:19.669811,-446
2021-09-24 14:59:19.669817,-420
2021-09-24 14:59:19.894511,-366
2021-09-24 14:59:19.894534,-284
2021-09-24 14:59:19.894542,-179
2021-09-24 14:59:19.894548,-70
2021-09-24 14:59:19.894555,26
2021-09-24 14:59:19.894561,102
2021-09-24 14:59:19.894568,157
2021-09-24 14:59:19.894574,199
2021-09-24 14:59:19.894581,216
2021-09-24 14:59:19.894587,213
2021-09-24 14:59:19.894594,211
2021-09-24 14:59:19.894600,208
2021-09-24 14:59:19.894606,204
2021-09-24 14:59:19.894613,206
2021-09-24 14:59:19.894619,204
2021-09-24 14:59:19.894625,191
2021-09-24 14:59:19.894632,184
2021-09-24 14:59:19.894638,174
2021-09-24 14:59:19.894644,167
2021-09-24 14:59:19.894651,160
2021-09-24 14:59:19.894658,150
2021-09-24 14:59:19.894664,140
2021-09-24 14:59:19.894670,131
2021-09-24 14:59:19.894677,121
2021-09-24 14:59:19.894683,119
2021-09-24 14:59:19.894689,121
2021-09-24 14:59:19.894696,121
2021-09-24 14:59:19.894702,114
2021-09-24 14:59:19.894708,109
2021-09-24 14:59:19.894715,106
2021-09-24 14:59:20.164544,99
2021-09-24 14:59:20.164575,97
2021-09-24 14:59:20.164587,102
2021-09-24 14:59:20.164597,102
2021-09-24 14:59:20.164607,92
2021-09-24 14:59:20.164617,87
2021-09-24 14:59:20.164627,89
2021-09-24 14:59:20.164637,94
2021-09-24 14:59:20.164647,92
2021-09-24 14:59:20.164657,87
2021-09-24 14:59:20.164667,80
2021-09-24 14:59:20.164677,72
2021-09-24 14:59:20.164687,75
2021-09-24 14:59:20.164697,77
2021-09-24 14:59:20.164707,75
2021-09-24 14:59:20.164717,72
2021-09-24 14:59:20.164726,70
2021-09-24 14:59:20.164736,68
2021-09-24 14:59:20.164746,68
2021-09-24 14:59:20.164756,70
2021-09-24 14:59:20.164766,68
2021-09-24 14:59:20.164775,63
2021-09-24 14:59:20.164785,60
2021-09-24 14:59:20.164795,60
2021-09-24 14:59:20.164805,63
2021-09-24 14:59:20.164814,63
2021-09-24 14:59:20.164824,60
2021-09-24 14:59:20.164834,58
2021-09-24 14:59:20.164844,55
2021-09-24 14:59:20.164854,55
2021-09-24 14:59:20.389620,55
2021-09-24 14:59:20.389653,51
2021-09-24 14:59:20.389665,43
2021-09-24 14:59:20.389675,38
2021-09-24 14:59:20.389685,36
2021-09-24 14:59:20.389695,41
2021-09-24 14:59:20.389705,38
2021-09-24 14:59:20.389715,21
2021-09-24 14:59:20.389725,9
2021-09-24 14:59:20.389735,12
2021-09-24 14:59:20.389745,7
2021-09-24 14:59:20.389755,0
2021-09-24 14:59:20.389767,7
2021-09-24 14:59:20.389777,17
2021-09-24 14:59:20.389787,21
2021-09-24 14:59:20.389797,17
2021-09-24 14:59:20.389807,9
2021-09-24 14:59:20.389817,7
2021-09-24 14:59:20.389827,12
2021-09-24 14:59:20.389837,17
2021-09-24 14:59:20.389847,12
2021-09-24 14:59:20.389857,7
2021-09-24 14:59:20.389867,9
2021-09-24 14:59:20.389877,2
2021-09-24 14:59:20.389919,-29
2021-09-24 14:59:20.389930,-97
2021-09-24 14:59:20.389940,-272
2021-09-24 14:59:20.389950,-512
2021-09-24 14:59:20.389960,-529
2021-09-24 14:59:20.389970,-199
2021-09-24 14:59:20.614464,303
2021-09-24 14:59:20.614488,597
2021-09-24 14:59:20.614495,383
2021-09-24 14:59:20.614502,68
2021-09-24 14:59:20.614508,41
2021-09-24 14:59:20.614515,12
2021-09-24 14:59:20.614521,-104
2021-09-24 14:59:20.614528,-114
2021-09-24 14:59:20.614534,-94
2021-09-24 14:59:20.614541,-136
2021-09-24 14:59:20.614547,-150
2021-09-24 14:59:20.614554,-138
2021-09-24 14:59:20.614560,-150
2021-09-24 14:59:20.614567,-167
2021-09-24 14:59:20.614573,-172
2021-09-24 14:59:20.614580,-189
2021-09-24 14:59:20.614586,-199
2021-09-24 14:59:20.614592,-201
2021-09-24 14:59:20.614599,-216
2021-09-24 14:59:20.614605,-235
2021-09-24 14:59:20.614612,-259
2021-09-24 14:59:20.614618,-286
2021-09-24 14:59:20.614625,-313
2021-09-24 14:59:20.614631,-342
2021-09-24 14:59:20.614638,-378
2021-09-24 14:59:20.614644,-412
2021-09-24 14:59:20.614651,-444
2021-09-24 14:59:20.614657,-466
2021-09-24 14:59:20.614664,-468
2021-09-24 14:59:20.614670,-456
2021-09-24 14:59:20.929174,-425
2021-09-24 14:59:20.929198,-366
2021-09-24 14:59:20.929205,-281
2021-09-24 14:59:20.929212,-174
2021-09-24 14:59:20.929219,-60
2021-09-24 14:59:20.929225,36
2021-09-24 14:59:20.929232,106
2021-09-24 14:59:20.929238,155
2021-09-24 14:59:20.929245,187
2021-09-24 14:59:20.929251,201
2021-09-24 14:59:20.929258,211
2021-09-24 14:59:20.929264,218
2021-09-24 14:59:20.929271,218
2021-09-24 14:59:20.929277,211
2021-09-24 14:59:20.929284,199
2021-09-24 14:59:20.929290,187
2021-09-24 14:59:20.929297,184
2021-09-24 14:59:20.929303,179
2021-09-24 14:59:20.929310,170
2021-09-24 14:59:20.929316,157
2021-09-24 14:59:20.929323,138
2021-09-24 14:59:20.929329,123
2021-09-24 14:59:20.929336,123
2021-09-24 14:59:20.929342,119
2021-09-24 14:59:20.929348,109
2021-09-24 14:59:20.929355,102
2021-09-24 14:59:20.929361,94
2021-09-24 14:59:20.929368,89
2021-09-24 14:59:20.929374,89
2021-09-24 14:59:20.929381,89
2021-09-24 14:59:21.064509,89
2021-09-24 14:59:21.064532,87
2021-09-24 14:59:21.064540,87
2021-09-24 14:59:21.064547,87
2021-09-24 14:59:21.064553,89
2021-09-24 14:59:21.064560,92
2021-09-24 14:59:21.064566,92
2021-09-24 14:59:21.064573,89
2021-09-24 14:59:21.064579,82
2021-09-24 14:59:21.064586,77
2021-09-24 14:59:21.064592,82
2021-09-24 14:59:21.064599,87
2021-09-24 14:59:21.064606,85
2021-09-24 14:59:21.064612,75
2021-09-24 14:59:21.064619,68
2021-09-24 14:59:21.064625,68
2021-09-24 14:59:21.064632,68
2021-09-24 14:59:21.064638,68
2021-09-24 14:59:21.064645,68
2021-09-24 14:59:21.064651,60
2021-09-24 14:59:21.064658,55
2021-09-24 14:59:21.064665,55
2021-09-24 14:59:21.064671,58
2021-09-24 14:59:21.064678,58
2021-09-24 14:59:21.064684,51
2021-09-24 14:59:21.064691,46
2021-09-24 14:59:21.064697,41
2021-09-24 14:59:21.064704,43
2021-09-24 14:59:21.064710,46
2021-09-24 14:59:21.064717,48
2021-09-24 14:59:21.377926,46
2021-09-24 14:59:21.377959,41
2021-09-24 14:59:21.377967,41
2021-09-24 14:59:21.377974,38
2021-09-24 14:59:21.377980,38
2021-09-24 14:59:21.377987,38
2021-09-24 14:59:21.377993,34
2021-09-24 14:59:21.378000,29
2021-09-24 14:59:21.378006,31
2021-09-24 14:59:21.378012,26
2021-09-24 14:59:21.378019,9
2021-09-24 14:59:21.378025,-9
2021-09-24 14:59:21.378032,-14
2021-09-24 14:59:21.378039,-14
2021-09-24 14:59:21.378045,-17
2021-09-24 14:59:21.378052,-17
2021-09-24 14:59:21.378058,0
2021-09-24 14:59:21.378065,17
2021-09-24 14:59:21.378071,26
2021-09-24 14:59:21.378078,29
2021-09-24 14:59:21.378085,26
2021-09-24 14:59:21.378091,26
2021-09-24 14:59:21.378098,29
2021-09-24 14:59:21.378104,26
2021-09-24 14:59:21.378110,19
2021-09-24 14:59:21.378117,9
2021-09-24 14:59:21.378124,0
2021-09-24 14:59:21.378130,-14
2021-09-24 14:59:21.378137,-48
2021-09-24 14:59:21.378143,-143
2021-09-24 14:59:21.514488,-364
2021-09-24 14:59:21.514512,-570
2021-09-24 14:59:21.514520,-478
2021-09-24 14:59:21.514527,-65
2021-09-24 14:59:21.514534,425
2021-09-24 14:59:21.514541,568
2021-09-24 14:59:21.514548,247
2021-09-24 14:59:21.514555,29
2021-09-24 14:59:21.514562,60
2021-09-24 14:59:21.514569,-17
2021-09-24 14:59:21.514576,-116
2021-09-24 14:59:21.514583,-94
2021-09-24 14:59:21.514590,-99
2021-09-24 14:59:21.514607,-143
2021-09-24 14:59:21.514615,-140
2021-09-24 14:59:21.514622,-138
2021-09-24 14:59:21.514628,-157
2021-09-24 14:59:21.514635,-170
2021-09-24 14:59:21.514642,-179
2021-09-24 14:59:21.514648,-191
2021-09-24 14:59:21.514655,-201
2021-09-24 14:59:21.514662,-213
2021-09-24 14:59:21.514668,-228
2021-09-24 14:59:21.514675,-245
2021-09-24 14:59:21.514681,-267
2021-09-24 14:59:21.514688,-291
2021-09-24 14:59:21.514695,-320
2021-09-24 14:59:21.514701,-357
2021-09-24 14:59:21.514708,-391
2021-09-24 14:59:21.514715,-425
2021-09-24 14:59:21.739612,-451
2021-09-24 14:59:21.739635,-463
2021-09-24 14:59:21.739643,-463
2021-09-24 14:59:21.739650,-451
2021-09-24 14:59:21.739656,-417
2021-09-24 14:59:21.739663,-357
2021-09-24 14:59:21.739669,-262
2021-09-24 14:59:21.739676,-145
2021-09-24 14:59:21.739682,-36
2021-09-24 14:59:21.739699,48
2021-09-24 14:59:21.739706,119
2021-09-24 14:59:21.739713,167
2021-09-24 14:59:21.739719,194
2021-09-24 14:59:21.739726,213
2021-09-24 14:59:21.739732,216
2021-09-24 14:59:21.739739,208
2021-09-24 14:59:21.739745,206
2021-09-24 14:59:21.739752,204
2021-09-24 14:59:21.739758,196
2021-09-24 14:59:21.739765,194
2021-09-24 14:59:21.739771,184
2021-09-24 14:59:21.739778,174
2021-09-24 14:59:21.739784,167
2021-09-24 14:59:21.739791,160
2021-09-24 14:59:21.739797,150
2021-09-24 14:59:21.739804,143
2021-09-24 14:59:21.739810,136
2021-09-24 14:59:21.739817,126
2021-09-24 14:59:21.739824,116
2021-09-24 14:59:21.739830,109
2021-09-24 14:59:22.009548,99
2021-09-24 14:59:22.009571,87
2021-09-24 14:59:22.009579,80
2021-09-24 14:59:22.009586,80
2021-09-24 14:59:22.009592,75
2021-09-24 14:59:22.009599,68
2021-09-24 14:59:22.009606,75
2021-09-24 14:59:22.009612,87
2021-09-24 14:59:22.009619,87
2021-09-24 14:59:22.009625,82
2021-09-24 14:59:22.009632,77
2021-09-24 14:59:22.009638,72
2021-09-24 14:59:22.009645,77
2021-09-24 14:59:22.009651,80
2021-09-24 14:59:22.009657,80
2021-09-24 14:59:22.009664,75
2021-09-24 14:59:22.009671,68
2021-09-24 14:59:22.009677,65
2021-09-24 14:59:22.009684,70
2021-09-24 14:59:22.009690,72
2021-09-24 14:59:22.009697,70
2021-09-24 14:59:22.009703,65
2021-09-24 14:59:22.009710,65
2021-09-24 14:59:22.009716,65
2021-09-24 14:59:22.009722,65
2021-09-24 14:59:22.009729,68
2021-09-24 14:59:22.009736,68
2021-09-24 14:59:22.009742,63
2021-09-24 14:59:22.009749,60
2021-09-24 14:59:22.009755,63
2021-09-24 14:59:22.189485,65
2021-09-24 14:59:22.189509,65
2021-09-24 14:59:22.189517,68
2021-09-24 14:59:22.189524,63
2021-09-24 14:59:22.189530,58
2021-09-24 14:59:22.189537,60
2021-09-24 14:59:22.189543,63
2021-09-24 14:59:22.189550,60
2021-09-24 14:59:22.189556,58
2021-09-24 14:59:22.189563,55
2021-09-24 14:59:22.189569,48
2021-09-24 14:59:22.189576,41
2021-09-24 14:59:22.189582,31
2021-09-24 14:59:22.189588,19
2021-09-24 14:59:22.189595,17
2021-09-24 14:59:22.189601,12
2021-09-24 14:59:22.189608,0
2021-09-24 14:59:22.189615,2
2021-09-24 14:59:22.189621,17
2021-09-24 14:59:22.189627,26
2021-09-24 14:59:22.189634,36
2021-09-24 14:59:22.189641,36
2021-09-24 14:59:22.189647,31
2021-09-24 14:59:22.189653,34
2021-09-24 14:59:22.189660,38
2021-09-24 14:59:22.189666,36
2021-09-24 14:59:22.189673,31
2021-09-24 14:59:22.189679,21
2021-09-24 14:59:22.189686,19
2021-09-24 14:59:22.189692,9
2021-09-24 14:59:22.459548,-31
2021-09-24 14:59:22.459572,-143
2021-09-24 14:59:22.459580,-383
2021-09-24 14:59:22.459587,-590
2021-09-24 14:59:22.459594,-463
2021-09-24 14:59:22.459601,-7
2021-09-24 14:59:22.459608,483
2021-09-24 14:59:22.459615,556
2021-09-24 14:59:22.459622,206
2021-09-24 14:59:22.459629,21
2021-09-24 14:59:22.459636,51
2021-09-24 14:59:22.459643,-36
2021-09-24 14:59:22.459650,-119
2021-09-24 14:59:22.459657,-92
2021-09-24 14:59:22.459663,-99
2021-09-24 14:59:22.459670,-140
2021-09-24 14:59:22.459677,-138
2021-09-24 14:59:22.459684,-133
2021-09-24 14:59:22.459691,-150
2021-09-24 14:59:22.459698,-157
2021-09-24 14:59:22.459705,-167
2021-09-24 14:59:22.459712,-187
2021-09-24 14:59:22.459719,-196
2021-09-24 14:59:22.459726,-204
2021-09-24 14:59:22.459733,-221
2021-09-24 14:59:22.459740,-240
2021-09-24 14:59:22.459747,-267
2021-09-24 14:59:22.459754,-298
2021-09-24 14:59:22.459761,-327
2021-09-24 14:59:22.459768,-359
2021-09-24 14:59:22.728831,-395
2021-09-24 14:59:22.728862,-427
2021-09-24 14:59:22.728874,-454
2021-09-24 14:59:22.728884,-471
2021-09-24 14:59:22.728894,-468
2021-09-24 14:59:22.728904,-446
2021-09-24 14:59:22.728914,-400
2021-09-24 14:59:22.728924,-327
2021-09-24 14:59:22.728934,-233
2021-09-24 14:59:22.728944,-126
2021-09-24 14:59:22.728955,-14
2021-09-24 14:59:22.728965,82
2021-09-24 14:59:22.728975,150
2021-09-24 14:59:22.728985,196
2021-09-24 14:59:22.728995,216
2021-09-24 14:59:22.729005,223
2021-09-24 14:59:22.729015,233
2021-09-24 14:59:22.729025,238
2021-09-24 14:59:22.729035,235
2021-09-24 14:59:22.729045,230
2021-09-24 14:59:22.729055,221
2021-09-24 14:59:22.729065,208
2021-09-24 14:59:22.729075,199
2021-09-24 14:59:22.729085,187
2021-09-24 14:59:22.729095,179
2021-09-24 14:59:22.729105,172
2021-09-24 14:59:22.729114,160
2021-09-24 14:59:22.729124,148
2021-09-24 14:59:22.729134,143
2021-09-24 14:59:22.729144,138
2021-09-24 14:59:22.909480,131
2021-09-24 14:59:22.909503,123
2021-09-24 14:59:22.909511,116
2021-09-24 14:59:22.909517,111
2021-09-24 14:59:22.909524,111
2021-09-24 14:59:22.909530,111
2021-09-24 14:59:22.909537,111
2021-09-24 14:59:22.909543,111
2021-09-24 14:59:22.909550,106
2021-09-24 14:59:22.909556,106
2021-09-24 14:59:22.909563,106
2021-09-24 14:59:22.909569,97
2021-09-24 14:59:22.909576,85
2021-09-24 14:59:22.909582,82
2021-09-24 14:59:22.909589,80
2021-09-24 14:59:22.909595,80
2021-09-24 14:59:22.909602,82
2021-09-24 14:59:22.909608,82
2021-09-24 14:59:22.909615,82
2021-09-24 14:59:22.909621,77
2021-09-24 14:59:22.909628,72
2021-09-24 14:59:22.909634,72
2021-09-24 14:59:22.909641,77
2021-09-24 14:59:22.909647,77
2021-09-24 14:59:22.909654,70
2021-09-24 14:59:22.909660,60
2021-09-24 14:59:22.909667,55
2021-09-24 14:59:22.909673,58
2021-09-24 14:59:22.909680,63
2021-09-24 14:59:22.909686,68
2021-09-24 14:59:23.134626,68
2021-09-24 14:59:23.134650,63
2021-09-24 14:59:23.134658,63
2021-09-24 14:59:23.134666,63
2021-09-24 14:59:23.134672,63
2021-09-24 14:59:23.134679,63
2021-09-24 14:59:23.134686,55
2021-09-24 14:59:23.134693,46
2021-09-24 14:59:23.134699,46
2021-09-24 14:59:23.134706,48
2021-09-24 14:59:23.134713,53
2021-09-24 14:59:23.134720,55
2021-09-24 14:59:23.134727,46
2021-09-24 14:59:23.134734,24
2021-09-24 14:59:23.134740,7
2021-09-24 14:59:23.134747,9
2021-09-24 14:59:23.134754,14
2021-09-24 14:59:23.134761,9
2021-09-24 14:59:23.134768,7
2021-09-24 14:59:23.134774,19
2021-09-24 14:59:23.134781,34
2021-09-24 14:59:23.134788,41
2021-09-24 14:59:23.134795,46
2021-09-24 14:59:23.134801,46
2021-09-24 14:59:23.134808,38
2021-09-24 14:59:23.134815,34
2021-09-24 14:59:23.134822,29
2021-09-24 14:59:23.134829,21
2021-09-24 14:59:23.134835,21
2021-09-24 14:59:23.134842,24
2021-09-24 14:59:23.403195,7
2021-09-24 14:59:23.403225,-38
2021-09-24 14:59:23.403238,-155
2021-09-24 14:59:23.403248,-403
2021-09-24 14:59:23.403258,-607
2021-09-24 14:59:23.403268,-485
2021-09-24 14:59:23.403278,-21
2021-09-24 14:59:23.403288,497
2021-09-24 14:59:23.403298,561
2021-09-24 14:59:23.403308,187
2021-09-24 14:59:23.403318,24
2021-09-24 14:59:23.403328,65
2021-09-24 14:59:23.403338,-38
2021-09-24 14:59:23.403348,-131
2021-09-24 14:59:23.403358,-92
2021-09-24 14:59:23.403369,-94
2021-09-24 14:59:23.403379,-143
2021-09-24 14:59:23.403388,-157
2021-09-24 14:59:23.403398,-157
2021-09-24 14:59:23.403408,-167
2021-09-24 14:59:23.403418,-172
2021-09-24 14:59:23.403428,-179
2021-09-24 14:59:23.403438,-191
2021-09-24 14:59:23.403448,-206
2021-09-24 14:59:23.403458,-218
2021-09-24 14:59:23.403468,-233
2021-09-24 14:59:23.403496,-252
2021-09-24 14:59:23.403509,-279
2021-09-24 14:59:23.403519,-313
2021-09-24 14:59:23.403529,-354
2021-09-24 14:59:23.584492,-388
2021-09-24 14:59:23.584516,-420
2021-09-24 14:59:23.584524,-451
2021-09-24 14:59:23.584531,-478
2021-09-24 14:59:23.584537,-485
2021-09-24 14:59:23.584544,-488
2021-09-24 14:59:23.584550,-476
2021-09-24 14:59:23.584557,-427
2021-09-24 14:59:23.584563,-342
2021-09-24 14:59:23.584570,-238
2021-09-24 14:59:23.584576,-123
2021-09-24 14:59:23.584583,-21
2021-09-24 14:59:23.584589,58
2021-09-24 14:59:23.584596,131
2021-09-24 14:59:23.584602,182
2021-09-24 14:59:23.584609,206
2021-09-24 14:59:23.584615,221
2021-09-24 14:59:23.584622,228
2021-09-24 14:59:23.584629,230
2021-09-24 14:59:23.584635,233
2021-09-24 14:59:23.584641,228
2021-09-24 14:59:23.584648,218
2021-09-24 14:59:23.584654,208
2021-09-24 14:59:23.584661,201
2021-09-24 14:59:23.584667,194
2021-09-24 14:59:23.584674,184
2021-09-24 14:59:23.584680,172
2021-09-24 14:59:23.584687,160
2021-09-24 14:59:23.584693,153
2021-09-24 14:59:23.584700,140
2021-09-24 14:59:23.809514,131
2021-09-24 14:59:23.809538,121
2021-09-24 14:59:23.809546,114
2021-09-24 14:59:23.809552,109
2021-09-24 14:59:23.809559,104
2021-09-24 14:59:23.809565,94
2021-09-24 14:59:23.809572,94
2021-09-24 14:59:23.809578,102
2021-09-24 14:59:23.809585,104
2021-09-24 14:59:23.809591,102
2021-09-24 14:59:23.809598,99
2021-09-24 14:59:23.809604,94
2021-09-24 14:59:23.809611,94
2021-09-24 14:59:23.809617,99
2021-09-24 14:59:23.809624,102
2021-09-24 14:59:23.809630,97
2021-09-24 14:59:23.809636,92
2021-09-24 14:59:23.809643,89
2021-09-24 14:59:23.809649,94
2021-09-24 14:59:23.809656,94
2021-09-24 14:59:23.809662,89
2021-09-24 14:59:23.809669,87
2021-09-24 14:59:23.809675,85
2021-09-24 14:59:23.809682,72
2021-09-24 14:59:23.809688,68
2021-09-24 14:59:23.809694,72
2021-09-24 14:59:23.809701,70
2021-09-24 14:59:23.809707,63
2021-09-24 14:59:23.809714,63
2021-09-24 14:59:23.809720,68
2021-09-24 14:59:24.034500,65
2021-09-24 14:59:24.034524,65
2021-09-24 14:59:24.034531,65
2021-09-24 14:59:24.034538,55
2021-09-24 14:59:24.034545,41
2021-09-24 14:59:24.034551,29
2021-09-24 14:59:24.034558,19
2021-09-24 14:59:24.034564,19
2021-09-24 14:59:24.034571,19
2021-09-24 14:59:24.034577,4
2021-09-24 14:59:24.034584,2
2021-09-24 14:59:24.034591,24
2021-09-24 14:59:24.034597,38
2021-09-24 14:59:24.034604,38
2021-09-24 14:59:24.034610,38
2021-09-24 14:59:24.034617,36
2021-09-24 14:59:24.034623,34
2021-09-24 14:59:24.034630,36
2021-09-24 14:59:24.034636,38
2021-09-24 14:59:24.034643,41
2021-09-24 14:59:24.034649,43
2021-09-24 14:59:24.034656,36
2021-09-24 14:59:24.034663,7
2021-09-24 14:59:24.034669,-43
2021-09-24 14:59:24.034676,-150
2021-09-24 14:59:24.034682,-371
2021-09-24 14:59:24.034689,-531
2021-09-24 14:59:24.034696,-361
2021-09-24 14:59:24.034702,121
2021-09-24 14:59:24.034709,597
2021-09-24 14:59:24.304559,585
2021-09-24 14:59:24.304583,199
2021-09-24 14:59:24.304591,51
2021-09-24 14:59:24.304598,80
2021-09-24 14:59:24.304604,-38
2021-09-24 14:59:24.304611,-128
2021-09-24 14:59:24.304617,-99
2021-09-24 14:59:24.304624,-99
2021-09-24 14:59:24.304630,-133
2021-09-24 14:59:24.304637,-143
2021-09-24 14:59:24.304644,-148
2021-09-24 14:59:24.304650,-162
2021-09-24 14:59:24.304657,-172
2021-09-24 14:59:24.304663,-187
2021-09-24 14:59:24.304670,-204
2021-09-24 14:59:24.304676,-216
2021-09-24 14:59:24.304683,-225
2021-09-24 14:59:24.304689,-242
2021-09-24 14:59:24.304696,-267
2021-09-24 14:59:24.304703,-289
2021-09-24 14:59:24.304709,-318
2021-09-24 14:59:24.304716,-354
2021-09-24 14:59:24.304722,-388
2021-09-24 14:59:24.304729,-417
2021-09-24 14:59:24.304735,-444
2021-09-24 14:59:24.304742,-463
2021-09-24 14:59:24.304749,-476
2021-09-24 14:59:24.304755,-476
2021-09-24 14:59:24.304762,-459
2021-09-24 14:59:24.304768,-408
2021-09-24 14:59:24.619125,-320
2021-09-24 14:59:24.619145,-211
2021-09-24 14:59:24.619154,-99
2021-09-24 14:59:24.619161,-2
2021-09-24 14:59:24.619168,80
2021-09-24 14:59:24.619175,145
2021-09-24 14:59:24.619182,184
2021-09-24 14:59:24.619189,201
2021-09-24 14:59:24.619196,204
2021-09-24 14:59:24.619202,201
2021-09-24 14:59:24.619209,208
2021-09-24 14:59:24.619216,208
2021-09-24 14:59:24.619223,206
2021-09-24 14:59:24.619230,199
2021-09-24 14:59:24.619237,179
2021-09-24 14:59:24.619244,160
2021-09-24 14:59:24.619251,157
2021-09-24 14:59:24.619258,155
2021-09-24 14:59:24.619265,143
2021-09-24 14:59:24.619271,136
2021-09-24 14:59:24.619278,126
2021-09-24 14:59:24.619285,116
2021-09-24 14:59:24.619292,114
2021-09-24 14:59:24.619299,114
2021-09-24 14:59:24.619306,109
2021-09-24 14:59:24.619313,104
2021-09-24 14:59:24.619320,99
2021-09-24 14:59:24.619327,102
2021-09-24 14:59:24.619333,106
2021-09-24 14:59:24.619340,104
2021-09-24 14:59:24.799505,104
2021-09-24 14:59:24.799529,109
2021-09-24 14:59:24.799537,106
2021-09-24 14:59:24.799544,106
2021-09-24 14:59:24.799551,111
2021-09-24 14:59:24.799557,109
2021-09-24 14:59:24.799564,106
2021-09-24 14:59:24.799570,111
2021-09-24 14:59:24.799577,106
2021-09-24 14:59:24.799583,97
2021-09-24 14:59:24.799590,97
2021-09-24 14:59:24.799596,99
2021-09-24 14:59:24.799603,94
2021-09-24 14:59:24.799609,85
2021-09-24 14:59:24.799616,80
2021-09-24 14:59:24.799622,80
2021-09-24 14:59:24.799629,80
2021-09-24 14:59:24.799635,77
2021-09-24 14:59:24.799642,77
2021-09-24 14:59:24.799648,70
2021-09-24 14:59:24.799655,63
2021-09-24 14:59:24.799661,70
2021-09-24 14:59:24.799668,77
2021-09-24 14:59:24.799674,70
2021-09-24 14:59:24.799681,53
2021-09-24 14:59:24.799687,34
2021-09-24 14:59:24.799694,31
2021-09-24 14:59:24.799700,31
2021-09-24 14:59:24.799707,21
2021-09-24 14:59:24.799713,31
2021-09-24 14:59:25.024593,53
2021-09-24 14:59:25.024617,60
2021-09-24 14:59:25.024625,53
2021-09-24 14:59:25.024632,46
2021-09-24 14:59:25.024639,36
2021-09-24 14:59:25.024645,41
2021-09-24 14:59:25.024652,43
2021-09-24 14:59:25.024658,38
2021-09-24 14:59:25.024665,36
2021-09-24 14:59:25.024671,38
2021-09-24 14:59:25.024678,31
2021-09-24 14:59:25.024684,-7
2021-09-24 14:59:25.024691,-72
2021-09-24 14:59:25.024698,-201
2021-09-24 14:59:25.024704,-434
2021-09-24 14:59:25.024711,-551
2021-09-24 14:59:25.024717,-313
2021-09-24 14:59:25.024724,196
2021-09-24 14:59:25.024730,614
2021-09-24 14:59:25.024737,512
2021-09-24 14:59:25.024743,138
2021-09-24 14:59:25.024750,51
2021-09-24 14:59:25.024756,75
2021-09-24 14:59:25.024763,-43
2021-09-24 14:59:25.024769,-109
2021-09-24 14:59:25.024776,-75
2021-09-24 14:59:25.024783,-85
2021-09-24 14:59:25.024789,-116
2021-09-24 14:59:25.024796,-119
2021-09-24 14:59:25.024802,-121
2021-09-24 14:59:25.249590,-138
2021-09-24 14:59:25.249614,-145
2021-09-24 14:59:25.249622,-153
2021-09-24 14:59:25.249629,-167
2021-09-24 14:59:25.249635,-179
2021-09-24 14:59:25.249642,-194
2021-09-24 14:59:25.249648,-221
2021-09-24 14:59:25.249655,-247
2021-09-24 14:59:25.249662,-269
2021-09-24 14:59:25.249668,-298
2021-09-24 14:59:25.249675,-335
2021-09-24 14:59:25.249681,-364
2021-09-24 14:59:25.249688,-403
2021-09-24 14:59:25.249694,-444
2021-09-24 14:59:25.249701,-466
2021-09-24 14:59:25.249707,-473
2021-09-24 14:59:25.249714,-468
2021-09-24 14:59:25.249720,-446
2021-09-24 14:59:25.249727,-398
2021-09-24 14:59:25.249733,-306
2021-09-24 14:59:25.249740,-191
2021-09-24 14:59:25.249746,-85
2021-09-24 14:59:25.249753,14
2021-09-24 14:59:25.249759,102
2021-09-24 14:59:25.249766,155
2021-09-24 14:59:25.249772,191
2021-09-24 14:59:25.249778,213
2021-09-24 14:59:25.249785,221
2021-09-24 14:59:25.249791,223
2021-09-24 14:59:25.249798,223
2021-09-24 14:59:25.518222,218
2021-09-24 14:59:25.518246,213
2021-09-24 14:59:25.518254,211
2021-09-24 14:59:25.518261,201
2021-09-24 14:59:25.518267,191
2021-09-24 14:59:25.518274,182
2021-09-24 14:59:25.518280,167
2021-09-24 14:59:25.518287,157
2021-09-24 14:59:25.518293,148
2021-09-24 14:59:25.518300,128
2021-09-24 14:59:25.518306,111
2021-09-24 14:59:25.518313,102
2021-09-24 14:59:25.518319,92
2021-09-24 14:59:25.518326,89
2021-09-24 14:59:25.518332,89
2021-09-24 14:59:25.518338,77
2021-09-24 14:59:25.518345,72
2021-09-24 14:59:25.518351,72
2021-09-24 14:59:25.518358,68
2021-09-24 14:59:25.518364,72
2021-09-24 14:59:25.518370,80
2021-09-24 14:59:25.518377,77
2021-09-24 14:59:25.518383,77
2021-09-24 14:59:25.518390,80
2021-09-24 14:59:25.518396,80
2021-09-24 14:59:25.518402,80
2021-09-24 14:59:25.518409,82
2021-09-24 14:59:25.518415,80
2021-09-24 14:59:25.518422,77
2021-09-24 14:59:25.518428,80
2021-09-24 14:59:25.654537,82
2021-09-24 14:59:25.654561,82
2021-09-24 14:59:25.654569,80
2021-09-24 14:59:25.654576,77
2021-09-24 14:59:25.654582,72
2021-09-24 14:59:25.654588,65
2021-09-24 14:59:25.654595,68
2021-09-24 14:59:25.654601,70
2021-09-24 14:59:25.654608,68
2021-09-24 14:59:25.654614,68
2021-09-24 14:59:25.654621,63
2021-09-24 14:59:25.654638,53
2021-09-24 14:59:25.654645,53
2021-09-24 14:59:25.654651,60
2021-09-24 14:59:25.654658,58
2021-09-24 14:59:25.654664,55
2021-09-24 14:59:25.654671,55
2021-09-24 14:59:25.654677,53
2021-09-24 14:59:25.654684,53
2021-09-24 14:59:25.654690,48
2021-09-24 14:59:25.654697,31
2021-09-24 14:59:25.654703,19
2021-09-24 14:59:25.654710,21
2021-09-24 14:59:25.654716,21
2021-09-24 14:59:25.654723,17
2021-09-24 14:59:25.654729,24
2021-09-24 14:59:25.654736,36
2021-09-24 14:59:25.654742,51
2021-09-24 14:59:25.654748,58
2021-09-24 14:59:25.654755,55
2021-09-24 14:59:25.879127,55
2021-09-24 14:59:25.879148,63
2021-09-24 14:59:25.879156,63
2021-09-24 14:59:25.879162,55
2021-09-24 14:59:25.879169,46
2021-09-24 14:59:25.879175,43
2021-09-24 14:59:25.879181,43
2021-09-24 14:59:25.879188,17
2021-09-24 14:59:25.879194,-51
2021-09-24 14:59:25.879200,-216
2021-09-24 14:59:25.879207,-466
2021-09-24 14:59:25.879213,-536
2021-09-24 14:59:25.879220,-252
2021-09-24 14:59:25.879226,255
2021-09-24 14:59:25.879232,621
2021-09-24 14:59:25.879239,461
2021-09-24 14:59:25.879245,102
2021-09-24 14:59:25.879251,53
2021-09-24 14:59:25.879258,60
2021-09-24 14:59:25.879264,-70
2021-09-24 14:59:25.879270,-109
2021-09-24 14:59:25.879277,-72
2021-09-24 14:59:25.879283,-97
2021-09-24 14:59:25.879289,-121
2021-09-24 14:59:25.879295,-109
2021-09-24 14:59:25.879302,-114
2021-09-24 14:59:25.879308,-131
2021-09-24 14:59:25.879314,-138
2021-09-24 14:59:25.879321,-148
2021-09-24 14:59:25.879327,-157
2021-09-24 14:59:26.239526,-170
2021-09-24 14:59:26.239548,-189
2021-09-24 14:59:26.239556,-213
2021-09-24 14:59:26.239563,-245
2021-09-24 14:59:26.239569,-274
2021-09-24 14:59:26.239576,-298
2021-09-24 14:59:26.239582,-330
2021-09-24 14:59:26.239589,-371
2021-09-24 14:59:26.239595,-408
2021-09-24 14:59:26.239601,-446
2021-09-24 14:59:26.239608,-473
2021-09-24 14:59:26.239615,-476
2021-09-24 14:59:26.239621,-463
2021-09-24 14:59:26.239628,-434
2021-09-24 14:59:26.239634,-378
2021-09-24 14:59:26.239640,-293
2021-09-24 14:59:26.239647,-182
2021-09-24 14:59:26.239653,-68
2021-09-24 14:59:26.239660,29
2021-09-24 14:59:26.239666,102
2021-09-24 14:59:26.239673,153
2021-09-24 14:59:26.239679,184
2021-09-24 14:59:26.239686,201
2021-09-24 14:59:26.239692,213
2021-09-24 14:59:26.239698,216
2021-09-24 14:59:26.239705,216
2021-09-24 14:59:26.239711,211
2021-09-24 14:59:26.239718,201
2021-09-24 14:59:26.239724,194
2021-09-24 14:59:26.239731,194
2021-09-24 14:59:26.374127,187
2021-09-24 14:59:26.374150,177
2021-09-24 14:59:26.374157,165
2021-09-24 14:59:26.374164,150
2021-09-24 14:59:26.374171,143
2021-09-24 14:59:26.374177,140
2021-09-24 14:59:26.374184,133
2021-09-24 14:59:26.374190,123
2021-09-24 14:59:26.374197,114
2021-09-24 14:59:26.374203,109
2021-09-24 14:59:26.374210,106
2021-09-24 14:59:26.374216,104
2021-09-24 14:59:26.374223,102
2021-09-24 14:59:26.374229,102
2021-09-24 14:59:26.374236,94
2021-09-24 14:59:26.374242,89
2021-09-24 14:59:26.374249,97
2021-09-24 14:59:26.374255,104
2021-09-24 14:59:26.374262,102
2021-09-24 14:59:26.374268,104
2021-09-24 14:59:26.374275,99
2021-09-24 14:59:26.374281,85
2021-09-24 14:59:26.374288,80
2021-09-24 14:59:26.374294,80
2021-09-24 14:59:26.374301,75
2021-09-24 14:59:26.374307,72
2021-09-24 14:59:26.374314,68
2021-09-24 14:59:26.374320,60
2021-09-24 14:59:26.374327,63
2021-09-24 14:59:26.374333,65
2021-09-24 14:59:26.599603,68
2021-09-24 14:59:26.599626,68
2021-09-24 14:59:26.599634,60
2021-09-24 14:59:26.599640,58
2021-09-24 14:59:26.599647,60
2021-09-24 14:59:26.599653,63
2021-09-24 14:59:26.599660,63
2021-09-24 14:59:26.599666,55
2021-09-24 14:59:26.599673,51
2021-09-24 14:59:26.599679,48
2021-09-24 14:59:26.599686,51
2021-09-24 14:59:26.599692,53
2021-09-24 14:59:26.599699,51
2021-09-24 14:59:26.599705,43
2021-09-24 14:59:26.599712,41
2021-09-24 14:59:26.599718,43
2021-09-24 14:59:26.599725,46
2021-09-24 14:59:26.599731,36
2021-09-24 14:59:26.599738,21
2021-09-24 14:59:26.599744,14
2021-09-24 14:59:26.599751,19
2021-09-24 14:59:26.599757,12
2021-09-24 14:59:26.599764,9
2021-09-24 14:59:26.599770,24
2021-09-24 14:59:26.599777,38
2021-09-24 14:59:26.599783,46
2021-09-24 14:59:26.599790,46
2021-09-24 14:59:26.599796,43
2021-09-24 14:59:26.599803,46
2021-09-24 14:59:26.599809,48
2021-09-24 14:59:26.869594,48
2021-09-24 14:59:26.869618,48
2021-09-24 14:59:26.869626,48
2021-09-24 14:59:26.869633,43
2021-09-24 14:59:26.869640,34
2021-09-24 14:59:26.869646,2
2021-09-24 14:59:26.869653,-77
2021-09-24 14:59:26.869660,-276
2021-09-24 14:59:26.869666,-517
2021-09-24 14:59:26.869673,-510
2021-09-24 14:59:26.869679,-162
2021-09-24 14:59:26.869686,349
2021-09-24 14:59:26.869692,631
2021-09-24 14:59:26.869699,378
2021-09-24 14:59:26.869706,72
2021-09-24 14:59:26.869712,75
2021-09-24 14:59:26.869719,46
2021-09-24 14:59:26.869725,-72
2021-09-24 14:59:26.869732,-75
2021-09-24 14:59:26.869738,-53
2021-09-24 14:59:26.869745,-89
2021-09-24 14:59:26.869752,-104
2021-09-24 14:59:26.869758,-97
2021-09-24 14:59:26.869765,-109
2021-09-24 14:59:26.869772,-123
2021-09-24 14:59:26.869778,-128
2021-09-24 14:59:26.869785,-150
2021-09-24 14:59:26.869791,-182
2021-09-24 14:59:26.869798,-196
2021-09-24 14:59:26.869805,-204
2021-09-24 14:59:27.049617,-223
2021-09-24 14:59:27.049640,-255
2021-09-24 14:59:27.049648,-286
2021-09-24 14:59:27.049655,-318
2021-09-24 14:59:27.049661,-352
2021-09-24 14:59:27.049668,-391
2021-09-24 14:59:27.049675,-434
2021-09-24 14:59:27.049681,-466
2021-09-24 14:59:27.049688,-480
2021-09-24 14:59:27.049694,-483
2021-09-24 14:59:27.049701,-468
2021-09-24 14:59:27.049707,-429
2021-09-24 14:59:27.049714,-366
2021-09-24 14:59:27.049720,-269
2021-09-24 14:59:27.049727,-153
2021-09-24 14:59:27.049733,-41
2021-09-24 14:59:27.049740,53
2021-09-24 14:59:27.049746,123
2021-09-24 14:59:27.049753,165
2021-09-24 14:59:27.049759,191
2021-09-24 14:59:27.049766,208
2021-09-24 14:59:27.049772,211
2021-09-24 14:59:27.049779,208
2021-09-24 14:59:27.049785,206
2021-09-24 14:59:27.049792,201
2021-09-24 14:59:27.049798,196
2021-09-24 14:59:27.049805,189
2021-09-24 14:59:27.049812,179
2021-09-24 14:59:27.049818,172
2021-09-24 14:59:27.049825,162
2021-09-24 14:59:27.319605,148
2021-09-24 14:59:27.319628,140
2021-09-24 14:59:27.319636,136
2021-09-24 14:59:27.319643,126
2021-09-24 14:59:27.319650,116
2021-09-24 14:59:27.319656,106
2021-09-24 14:59:27.319663,94
2021-09-24 14:59:27.319669,89
2021-09-24 14:59:27.319676,89
2021-09-24 14:59:27.319682,87
2021-09-24 14:59:27.319689,85
2021-09-24 14:59:27.319695,80
2021-09-24 14:59:27.319702,72
2021-09-24 14:59:27.319708,75
2021-09-24 14:59:27.319715,82
2021-09-24 14:59:27.319721,82
2021-09-24 14:59:27.319728,82
2021-09-24 14:59:27.319734,82
2021-09-24 14:59:27.319741,82
2021-09-24 14:59:27.319747,85
2021-09-24 14:59:27.319754,85
2021-09-24 14:59:27.319771,82
2021-09-24 14:59:27.319779,87
2021-09-24 14:59:27.319785,87
2021-09-24 14:59:27.319791,85
2021-09-24 14:59:27.319798,85
2021-09-24 14:59:27.319804,87
2021-09-24 14:59:27.319811,85
2021-09-24 14:59:27.319817,82
2021-09-24 14:59:27.319824,82
2021-09-24 14:59:27.543211,80
2021-09-24 14:59:27.543234,72
2021-09-24 14:59:27.543242,60
2021-09-24 14:59:27.543249,55
2021-09-24 14:59:27.543256,58
2021-09-24 14:59:27.543262,53
2021-09-24 14:59:27.543269,51
2021-09-24 14:59:27.543276,58
2021-09-24 14:59:27.543282,58
2021-09-24 14:59:27.543289,55
2021-09-24 14:59:27.543295,48
2021-09-24 14:59:27.543302,41
2021-09-24 14:59:27.543308,41
2021-09-24 14:59:27.543315,48
2021-09-24 14:59:27.543321,53
2021-09-24 14:59:27.543328,48
2021-09-24 14:59:27.543334,34
2021-09-24 14:59:27.543341,9
2021-09-24 14:59:27.543347,4
2021-09-24 14:59:27.543354,17
2021-09-24 14:59:27.543361,14
2021-09-24 14:59:27.543367,2
2021-09-24 14:59:27.543374,9
2021-09-24 14:59:27.543380,29
2021-09-24 14:59:27.543387,43
2021-09-24 14:59:27.543393,51
2021-09-24 14:59:27.543400,48
2021-09-24 14:59:27.543406,43
2021-09-24 14:59:27.543413,43
2021-09-24 14:59:27.543419,46
2021-09-24 14:59:27.724252,48
2021-09-24 14:59:27.724274,48
2021-09-24 14:59:27.724282,46
2021-09-24 14:59:27.724288,34
2021-09-24 14:59:27.724295,-2
2021-09-24 14:59:27.724301,-53
2021-09-24 14:59:27.724308,-179
2021-09-24 14:59:27.724314,-425
2021-09-24 14:59:27.724321,-578
2021-09-24 14:59:27.724327,-388
2021-09-24 14:59:27.724334,85
2021-09-24 14:59:27.724340,544
2021-09-24 14:59:27.724347,531
2021-09-24 14:59:27.724353,167
2021-09-24 14:59:27.724359,41
2021-09-24 14:59:27.724366,68
2021-09-24 14:59:27.724372,-41
2021-09-24 14:59:27.724379,-102
2021-09-24 14:59:27.724385,-60
2021-09-24 14:59:27.724391,-72
2021-09-24 14:59:27.724398,-106
2021-09-24 14:59:27.724404,-106
2021-09-24 14:59:27.724411,-111
2021-09-24 14:59:27.724417,-131
2021-09-24 14:59:27.724423,-140
2021-09-24 14:59:27.724430,-145
2021-09-24 14:59:27.724436,-160
2021-09-24 14:59:27.724443,-179
2021-09-24 14:59:27.724449,-196
2021-09-24 14:59:27.724455,-211
2021-09-24 14:59:27.994682,-228
2021-09-24 14:59:27.994707,-252
2021-09-24 14:59:27.994716,-286
2021-09-24 14:59:27.994723,-330
2021-09-24 14:59:27.994730,-376
2021-09-24 14:59:27.994737,-412
2021-09-24 14:59:27.994743,-444
2021-09-24 14:59:27.994750,-473
2021-09-24 14:59:27.994757,-497
2021-09-24 14:59:27.994764,-505
2021-09-24 14:59:27.994771,-480
2021-09-24 14:59:27.994778,-427
2021-09-24 14:59:27.994785,-349
2021-09-24 14:59:27.994791,-242
2021-09-24 14:59:27.994798,-126
2021-09-24 14:59:27.994805,-26
2021-09-24 14:59:27.994812,58
2021-09-24 14:59:27.994819,128
2021-09-24 14:59:27.994826,172
2021-09-24 14:59:27.994833,196
2021-09-24 14:59:27.994840,208
2021-09-24 14:59:27.994847,208
2021-09-24 14:59:27.994854,208
2021-09-24 14:59:27.994860,211
2021-09-24 14:59:27.994867,206
2021-09-24 14:59:27.994874,199
2021-09-24 14:59:27.994881,189
2021-09-24 14:59:27.994888,177
2021-09-24 14:59:27.994894,170
2021-09-24 14:59:27.994901,165
2021-09-24 14:59:28.219466,155
2021-09-24 14:59:28.219489,145
2021-09-24 14:59:28.219497,136
2021-09-24 14:59:28.219504,123
2021-09-24 14:59:28.219511,116
2021-09-24 14:59:28.219517,114
2021-09-24 14:59:28.219523,111
2021-09-24 14:59:28.219530,102
2021-09-24 14:59:28.219536,85
2021-09-24 14:59:28.219543,72
2021-09-24 14:59:28.219549,80
2021-09-24 14:59:28.219555,87
2021-09-24 14:59:28.219562,89
2021-09-24 14:59:28.219568,87
2021-09-24 14:59:28.219575,82
2021-09-24 14:59:28.219581,72
2021-09-24 14:59:28.219587,75
2021-09-24 14:59:28.219594,82
2021-09-24 14:59:28.219600,85
2021-09-24 14:59:28.219607,85
2021-09-24 14:59:28.219613,77
2021-09-24 14:59:28.219619,70
2021-09-24 14:59:28.219626,75
2021-09-24 14:59:28.219632,82
2021-09-24 14:59:28.219639,82
2021-09-24 14:59:28.219645,80
2021-09-24 14:59:28.219652,75
2021-09-24 14:59:28.219658,70
2021-09-24 14:59:28.219664,75
2021-09-24 14:59:28.219671,80
2021-09-24 14:59:28.444707,75
2021-09-24 14:59:28.444740,70
2021-09-24 14:59:28.444752,68
2021-09-24 14:59:28.444762,65
2021-09-24 14:59:28.444772,65
2021-09-24 14:59:28.444782,68
2021-09-24 14:59:28.444792,70
2021-09-24 14:59:28.444802,65
2021-09-24 14:59:28.444812,51
2021-09-24 14:59:28.444822,43
2021-09-24 14:59:28.444832,43
2021-09-24 14:59:28.444842,46
2021-09-24 14:59:28.444852,46
2021-09-24 14:59:28.444862,34
2021-09-24 14:59:28.444872,14
2021-09-24 14:59:28.444882,14
2021-09-24 14:59:28.444892,26
2021-09-24 14:59:28.444902,21
2021-09-24 14:59:28.444912,9
2021-09-24 14:59:28.444922,0
2021-09-24 14:59:28.444933,-2
2021-09-24 14:59:28.444943,-2
2021-09-24 14:59:28.444953,-7
2021-09-24 14:59:28.444963,-2
2021-09-24 14:59:28.444973,14
2021-09-24 14:59:28.444983,24
2021-09-24 14:59:28.444993,31
2021-09-24 14:59:28.445003,38
2021-09-24 14:59:28.445013,41
2021-09-24 14:59:28.445023,43
2021-09-24 14:59:28.759076,41
2021-09-24 14:59:28.759097,38
2021-09-24 14:59:28.759105,36
2021-09-24 14:59:28.759112,36
2021-09-24 14:59:28.759119,38
2021-09-24 14:59:28.759125,26
2021-09-24 14:59:28.759132,-12
2021-09-24 14:59:28.759139,-102
2021-09-24 14:59:28.759145,-303
2021-09-24 14:59:28.759152,-536
2021-09-24 14:59:28.759158,-514
2021-09-24 14:59:28.759165,-145
2021-09-24 14:59:28.759171,381
2021-09-24 14:59:28.759178,595
2021-09-24 14:59:28.759184,286
2021-09-24 14:59:28.759191,29
2021-09-24 14:59:28.759198,63
2021-09-24 14:59:28.759204,9
2021-09-24 14:59:28.759211,-104
2021-09-24 14:59:28.759217,-97
2021-09-24 14:59:28.759224,-82
2021-09-24 14:59:28.759230,-119
2021-09-24 14:59:28.759237,-126
2021-09-24 14:59:28.759243,-116
2021-09-24 14:59:28.759250,-133
2021-09-24 14:59:28.759256,-153
2021-09-24 14:59:28.759263,-160
2021-09-24 14:59:28.759269,-174
2021-09-24 14:59:28.759276,-196
2021-09-24 14:59:28.759283,-211
2021-09-24 14:59:28.894652,-230
2021-09-24 14:59:28.894676,-255
2021-09-24 14:59:28.894684,-279
2021-09-24 14:59:28.894691,-306
2021-09-24 14:59:28.894698,-335
2021-09-24 14:59:28.894705,-369
2021-09-24 14:59:28.894712,-410
2021-09-24 14:59:28.894719,-446
2021-09-24 14:59:28.894725,-466
2021-09-24 14:59:28.894732,-480
2021-09-24 14:59:28.894739,-478
2021-09-24 14:59:28.894746,-461
2021-09-24 14:59:28.894752,-434
2021-09-24 14:59:28.894759,-378
2021-09-24 14:59:28.894766,-289
2021-09-24 14:59:28.894773,-177
2021-09-24 14:59:28.894779,-65
2021-09-24 14:59:28.894786,29
2021-09-24 14:59:28.894793,94
2021-09-24 14:59:28.894800,143
2021-09-24 14:59:28.894807,177
2021-09-24 14:59:28.894813,194
2021-09-24 14:59:28.894820,199
2021-09-24 14:59:28.894827,206
2021-09-24 14:59:28.894833,204
2021-09-24 14:59:28.894840,194
2021-09-24 14:59:28.894847,189
2021-09-24 14:59:28.894854,187
2021-09-24 14:59:28.894860,179
2021-09-24 14:59:28.894867,170
2021-09-24 14:59:29.119674,160
2021-09-24 14:59:29.119698,148
2021-09-24 14:59:29.119706,138
2021-09-24 14:59:29.119714,131
2021-09-24 14:59:29.119721,123
2021-09-24 14:59:29.119728,111
2021-09-24 14:59:29.119735,99
2021-09-24 14:59:29.119742,94
2021-09-24 14:59:29.119749,94
2021-09-24 14:59:29.119755,92
2021-09-24 14:59:29.119763,89
2021-09-24 14:59:29.119770,87
2021-09-24 14:59:29.119777,77
2021-09-24 14:59:29.119784,82
2021-09-24 14:59:29.119792,89
2021-09-24 14:59:29.119799,82
2021-09-24 14:59:29.119806,82
2021-09-24 14:59:29.119813,89
2021-09-24 14:59:29.119820,92
2021-09-24 14:59:29.119826,92
2021-09-24 14:59:29.119833,92
2021-09-24 14:59:29.119840,87
2021-09-24 14:59:29.119847,87
2021-09-24 14:59:29.119854,87
2021-09-24 14:59:29.119861,85
2021-09-24 14:59:29.119868,87
2021-09-24 14:59:29.119875,89
2021-09-24 14:59:29.119881,87
2021-09-24 14:59:29.119888,82
2021-09-24 14:59:29.119895,82
2021-09-24 14:59:29.344451,82
2021-09-24 14:59:29.344473,85
2021-09-24 14:59:29.344481,80
2021-09-24 14:59:29.344488,77
2021-09-24 14:59:29.344495,75
2021-09-24 14:59:29.344501,68
2021-09-24 14:59:29.344508,58
2021-09-24 14:59:29.344514,60
2021-09-24 14:59:29.344521,65
2021-09-24 14:59:29.344527,60
2021-09-24 14:59:29.344534,58
2021-09-24 14:59:29.344540,55
2021-09-24 14:59:29.344547,53
2021-09-24 14:59:29.344553,53
2021-09-24 14:59:29.344560,43
2021-09-24 14:59:29.344566,29
2021-09-24 14:59:29.344573,21
2021-09-24 14:59:29.344580,24
2021-09-24 14:59:29.344586,12
2021-09-24 14:59:29.344593,9
2021-09-24 14:59:29.344599,26
2021-09-24 14:59:29.344606,43
2021-09-24 14:59:29.344613,51
2021-09-24 14:59:29.344619,46
2021-09-24 14:59:29.344625,34
2021-09-24 14:59:29.344632,38
2021-09-24 14:59:29.344639,46
2021-09-24 14:59:29.344645,43
2021-09-24 14:59:29.344652,38
2021-09-24 14:59:29.344658,41
2021-09-24 14:59:29.613483,41
2021-09-24 14:59:29.613505,24
2021-09-24 14:59:29.613513,-24
2021-09-24 14:59:29.613520,-121
2021-09-24 14:59:29.613527,-327
2021-09-24 14:59:29.613538,-514
2021-09-24 14:59:29.613550,-393
2021-09-24 14:59:29.613561,38
2021-09-24 14:59:29.613572,514
2021-09-24 14:59:29.613584,597
2021-09-24 14:59:29.613596,240
2021-09-24 14:59:29.613608,38
2021-09-24 14:59:29.613621,82
2021-09-24 14:59:29.613643,4
2021-09-24 14:59:29.613656,-102
2021-09-24 14:59:29.613669,-87
2021-09-24 14:59:29.613681,-87
2021-09-24 14:59:29.613693,-119
2021-09-24 14:59:29.613705,-119
2021-09-24 14:59:29.613718,-119
2021-09-24 14:59:29.613730,-145
2021-09-24 14:59:29.613742,-157
2021-09-24 14:59:29.613754,-155
2021-09-24 14:59:29.613766,-170
2021-09-24 14:59:29.613777,-191
2021-09-24 14:59:29.613789,-206
2021-09-24 14:59:29.613801,-225
2021-09-24 14:59:29.613811,-255
2021-09-24 14:59:29.613823,-276
2021-09-24 14:59:29.613836,-298
2021-09-24 14:59:29.838744,-330
2021-09-24 14:59:29.838765,-364
2021-09-24 14:59:29.838773,-395
2021-09-24 14:59:29.838780,-437
2021-09-24 14:59:29.838786,-471
2021-09-24 14:59:29.838793,-473
2021-09-24 14:59:29.838799,-461
2021-09-24 14:59:29.838806,-444
2021-09-24 14:59:29.838812,-403
2021-09-24 14:59:29.838819,-337
2021-09-24 14:59:29.838826,-242
2021-09-24 14:59:29.838832,-126
2021-09-24 14:59:29.838839,-19
2021-09-24 14:59:29.838845,68
2021-09-24 14:59:29.838852,136
2021-09-24 14:59:29.838858,174
2021-09-24 14:59:29.838865,201
2021-09-24 14:59:29.838871,225
2021-09-24 14:59:29.838878,235
2021-09-24 14:59:29.838884,233
2021-09-24 14:59:29.838891,230
2021-09-24 14:59:29.838897,221
2021-09-24 14:59:29.838904,206
2021-09-24 14:59:29.838910,196
2021-09-24 14:59:29.838917,191
2021-09-24 14:59:29.838923,184
2021-09-24 14:59:29.838930,170
2021-09-24 14:59:29.838936,155
2021-09-24 14:59:29.838943,140
2021-09-24 14:59:29.838949,123
2021-09-24 14:59:30.064740,116
