Time,ECG
2021-09-24 14:49:00.100946,55
2021-09-24 14:49:00.100968,55
2021-09-24 14:49:00.100975,65
2021-09-24 14:49:00.100982,63
2021-09-24 14:49:00.100989,63
2021-09-24 14:49:00.100995,63
2021-09-24 14:49:00.101002,55
2021-09-24 14:49:00.101008,53
2021-09-24 14:49:00.101015,55
2021-09-24 14:49:00.101021,55
2021-09-24 14:49:00.101028,58
2021-09-24 14:49:00.101035,55
2021-09-24 14:49:00.101041,51
2021-09-24 14:49:00.101048,51
2021-09-24 14:49:00.101054,55
2021-09-24 14:49:00.101061,53
2021-09-24 14:49:00.101067,53
2021-09-24 14:49:00.101074,51
2021-09-24 14:49:00.101080,46
2021-09-24 14:49:00.101087,48
2021-09-24 14:49:00.101093,43
2021-09-24 14:49:00.101100,34
2021-09-24 14:49:00.101106,36
2021-09-24 14:49:00.101113,36
2021-09-24 14:49:00.101119,29
2021-09-24 14:49:00.101126,34
2021-09-24 14:49:00.101132,41
2021-09-24 14:49:00.101139,38
2021-09-24 14:49:00.101145,21
2021-09-24 14:49:00.101152,4
2021-09-24 14:49:00.325869,7
2021-09-24 14:49:00.325892,14
2021-09-24 14:49:00.325900,9
2021-09-24 14:49:00.325929,7
2021-09-24 14:49:00.325937,26
2021-09-24 14:49:00.325944,43
2021-09-24 14:49:00.325951,43
2021-09-24 14:49:00.325958,41
2021-09-24 14:49:00.325965,41
2021-09-24 14:49:00.325972,43
2021-09-24 14:49:00.325979,46
2021-09-24 14:49:00.325986,41
2021-09-24 14:49:00.325993,36
2021-09-24 14:49:00.326000,38
2021-09-24 14:49:00.326007,36
2021-09-24 14:49:00.326014,21
2021-09-24 14:49:00.326021,-14
2021-09-24 14:49:00.326028,-106
2021-09-24 14:49:00.326035,-323
2021-09-24 14:49:00.326042,-568
2021-09-24 14:49:00.326049,-524
2021-09-24 14:49:00.326056,-94
2021-09-24 14:49:00.326063,466
2021-09-24 14:49:00.326070,677
2021-09-24 14:49:00.326077,354
2021-09-24 14:49:00.326084,72
2021-09-24 14:49:00.326091,80
2021-09-24 14:49:00.326098,14
2021-09-24 14:49:00.326105,-92
2021-09-24 14:49:00.326112,-75
2021-09-24 14:49:00.550997,-63
2021-09-24 14:49:00.551017,-106
2021-09-24 14:49:00.551026,-126
2021-09-24 14:49:00.551033,-123
2021-09-24 14:49:00.551039,-140
2021-09-24 14:49:00.551046,-155
2021-09-24 14:49:00.551052,-157
2021-09-24 14:49:00.551059,-165
2021-09-24 14:49:00.551065,-182
2021-09-24 14:49:00.551072,-199
2021-09-24 14:49:00.551079,-225
2021-09-24 14:49:00.551085,-252
2021-09-24 14:49:00.551092,-267
2021-09-24 14:49:00.551098,-296
2021-09-24 14:49:00.551105,-335
2021-09-24 14:49:00.551112,-371
2021-09-24 14:49:00.551119,-403
2021-09-24 14:49:00.551125,-425
2021-09-24 14:49:00.551132,-434
2021-09-24 14:49:00.551139,-432
2021-09-24 14:49:00.551145,-420
2021-09-24 14:49:00.551152,-386
2021-09-24 14:49:00.551158,-320
2021-09-24 14:49:00.551165,-230
2021-09-24 14:49:00.551171,-128
2021-09-24 14:49:00.551178,-31
2021-09-24 14:49:00.551185,58
2021-09-24 14:49:00.551192,128
2021-09-24 14:49:00.551198,174
2021-09-24 14:49:00.551205,208
2021-09-24 14:49:00.819989,225
2021-09-24 14:49:00.820012,228
2021-09-24 14:49:00.820020,228
2021-09-24 14:49:00.820027,216
2021-09-24 14:49:00.820033,201
2021-09-24 14:49:00.820040,199
2021-09-24 14:49:00.820046,201
2021-09-24 14:49:00.820061,194
2021-09-24 14:49:00.820068,177
2021-09-24 14:49:00.820074,153
2021-09-24 14:49:00.820081,136
2021-09-24 14:49:00.820087,123
2021-09-24 14:49:00.820094,111
2021-09-24 14:49:00.820101,106
2021-09-24 14:49:00.820107,106
2021-09-24 14:49:00.820114,94
2021-09-24 14:49:00.820120,82
2021-09-24 14:49:00.820127,87
2021-09-24 14:49:00.820133,87
2021-09-24 14:49:00.820140,85
2021-09-24 14:49:00.820147,85
2021-09-24 14:49:00.820153,80
2021-09-24 14:49:00.820160,72
2021-09-24 14:49:00.820166,75
2021-09-24 14:49:00.820173,77
2021-09-24 14:49:00.820179,82
2021-09-24 14:49:00.820186,77
2021-09-24 14:49:00.820193,70
2021-09-24 14:49:00.820199,70
2021-09-24 14:49:00.820206,75
2021-09-24 14:49:01.089721,82
2021-09-24 14:49:01.089745,87
2021-09-24 14:49:01.089753,72
2021-09-24 14:49:01.089760,53
2021-09-24 14:49:01.089766,58
2021-09-24 14:49:01.089773,72
2021-09-24 14:49:01.089780,70
2021-09-24 14:49:01.089786,55
2021-09-24 14:49:01.089793,38
2021-09-24 14:49:01.089799,29
2021-09-24 14:49:01.089806,36
2021-09-24 14:49:01.089813,51
2021-09-24 14:49:01.089819,48
2021-09-24 14:49:01.089836,43
2021-09-24 14:49:01.089843,46
2021-09-24 14:49:01.089850,38
2021-09-24 14:49:01.089857,34
2021-09-24 14:49:01.089863,43
2021-09-24 14:49:01.089870,51
2021-09-24 14:49:01.089876,41
2021-09-24 14:49:01.089883,24
2021-09-24 14:49:01.089889,4
2021-09-24 14:49:01.089896,2
2021-09-24 14:49:01.089902,17
2021-09-24 14:49:01.089909,12
2021-09-24 14:49:01.089915,7
2021-09-24 14:49:01.089922,24
2021-09-24 14:49:01.089929,38
2021-09-24 14:49:01.089935,43
2021-09-24 14:49:01.089942,43
2021-09-24 14:49:01.316035,38
2021-09-24 14:49:01.316059,38
2021-09-24 14:49:01.316067,38
2021-09-24 14:49:01.316074,34
2021-09-24 14:49:01.316081,34
2021-09-24 14:49:01.316087,41
2021-09-24 14:49:01.316094,43
2021-09-24 14:49:01.316101,29
2021-09-24 14:49:01.316107,-14
2021-09-24 14:49:01.316114,-87
2021-09-24 14:49:01.316121,-242
2021-09-24 14:49:01.316127,-495
2021-09-24 14:49:01.316134,-590
2021-09-24 14:49:01.316140,-286
2021-09-24 14:49:01.316147,289
2021-09-24 14:49:01.316154,655
2021-09-24 14:49:01.316160,454
2021-09-24 14:49:01.316167,109
2021-09-24 14:49:01.316174,65
2021-09-24 14:49:01.316180,43
2021-09-24 14:49:01.316187,-80
2021-09-24 14:49:01.316193,-102
2021-09-24 14:49:01.316200,-70
2021-09-24 14:49:01.316207,-94
2021-09-24 14:49:01.316213,-116
2021-09-24 14:49:01.316220,-111
2021-09-24 14:49:01.316227,-123
2021-09-24 14:49:01.316233,-140
2021-09-24 14:49:01.316240,-143
2021-09-24 14:49:01.316246,-150
2021-09-24 14:49:01.496210,-172
2021-09-24 14:49:01.496233,-196
2021-09-24 14:49:01.496241,-225
2021-09-24 14:49:01.496248,-245
2021-09-24 14:49:01.496255,-264
2021-09-24 14:49:01.496262,-293
2021-09-24 14:49:01.496269,-323
2021-09-24 14:49:01.496275,-364
2021-09-24 14:49:01.496282,-405
2021-09-24 14:49:01.496288,-425
2021-09-24 14:49:01.496295,-434
2021-09-24 14:49:01.496302,-446
2021-09-24 14:49:01.496308,-442
2021-09-24 14:49:01.496315,-412
2021-09-24 14:49:01.496322,-357
2021-09-24 14:49:01.496328,-269
2021-09-24 14:49:01.496335,-162
2021-09-24 14:49:01.496341,-58
2021-09-24 14:49:01.496348,31
2021-09-24 14:49:01.496355,94
2021-09-24 14:49:01.496361,138
2021-09-24 14:49:01.496368,174
2021-09-24 14:49:01.496374,204
2021-09-24 14:49:01.496381,216
2021-09-24 14:49:01.496388,216
2021-09-24 14:49:01.496394,206
2021-09-24 14:49:01.496401,199
2021-09-24 14:49:01.496407,196
2021-09-24 14:49:01.496414,191
2021-09-24 14:49:01.496421,177
2021-09-24 14:49:01.766241,160
2021-09-24 14:49:01.766272,148
2021-09-24 14:49:01.766284,136
2021-09-24 14:49:01.766294,114
2021-09-24 14:49:01.766304,106
2021-09-24 14:49:01.766315,102
2021-09-24 14:49:01.766325,85
2021-09-24 14:49:01.766335,77
2021-09-24 14:49:01.766345,75
2021-09-24 14:49:01.766355,68
2021-09-24 14:49:01.766379,65
2021-09-24 14:49:01.766390,70
2021-09-24 14:49:01.766400,68
2021-09-24 14:49:01.766410,60
2021-09-24 14:49:01.766420,60
2021-09-24 14:49:01.766430,63
2021-09-24 14:49:01.766440,68
2021-09-24 14:49:01.766450,70
2021-09-24 14:49:01.766460,70
2021-09-24 14:49:01.766470,70
2021-09-24 14:49:01.766479,72
2021-09-24 14:49:01.766490,70
2021-09-24 14:49:01.766500,72
2021-09-24 14:49:01.766515,77
2021-09-24 14:49:01.766525,72
2021-09-24 14:49:01.766535,68
2021-09-24 14:49:01.766545,70
2021-09-24 14:49:01.766556,75
2021-09-24 14:49:01.766566,77
2021-09-24 14:49:01.766576,75
2021-09-24 14:49:01.945783,70
2021-09-24 14:49:01.945805,68
2021-09-24 14:49:01.945813,65
2021-09-24 14:49:01.945820,58
2021-09-24 14:49:01.945827,60
2021-09-24 14:49:01.945834,65
2021-09-24 14:49:01.945840,60
2021-09-24 14:49:01.945847,58
2021-09-24 14:49:01.945853,53
2021-09-24 14:49:01.945860,38
2021-09-24 14:49:01.945866,29
2021-09-24 14:49:01.945873,26
2021-09-24 14:49:01.945879,7
2021-09-24 14:49:01.945886,2
2021-09-24 14:49:01.945892,31
2021-09-24 14:49:01.945899,51
2021-09-24 14:49:01.945905,51
2021-09-24 14:49:01.945912,43
2021-09-24 14:49:01.945919,34
2021-09-24 14:49:01.945925,29
2021-09-24 14:49:01.945932,31
2021-09-24 14:49:01.945938,34
2021-09-24 14:49:01.945945,34
2021-09-24 14:49:01.945951,29
2021-09-24 14:49:01.945958,26
2021-09-24 14:49:01.945964,24
2021-09-24 14:49:01.945971,-2
2021-09-24 14:49:01.945978,-77
2021-09-24 14:49:01.945984,-238
2021-09-24 14:49:01.945991,-478
2021-09-24 14:49:02.171020,-556
2021-09-24 14:49:02.171048,-252
2021-09-24 14:49:02.171060,318
2021-09-24 14:49:02.171071,685
2021-09-24 14:49:02.171081,473
2021-09-24 14:49:02.171092,114
2021-09-24 14:49:02.171102,63
2021-09-24 14:49:02.171112,46
2021-09-24 14:49:02.171123,-82
2021-09-24 14:49:02.171133,-109
2021-09-24 14:49:02.171143,-77
2021-09-24 14:49:02.171154,-114
2021-09-24 14:49:02.171164,-138
2021-09-24 14:49:02.171188,-126
2021-09-24 14:49:02.171199,-136
2021-09-24 14:49:02.171210,-157
2021-09-24 14:49:02.171220,-162
2021-09-24 14:49:02.171230,-170
2021-09-24 14:49:02.171240,-187
2021-09-24 14:49:02.171250,-196
2021-09-24 14:49:02.171261,-208
2021-09-24 14:49:02.171271,-235
2021-09-24 14:49:02.171281,-262
2021-09-24 14:49:02.171292,-289
2021-09-24 14:49:02.171302,-323
2021-09-24 14:49:02.171312,-354
2021-09-24 14:49:02.171322,-386
2021-09-24 14:49:02.171333,-415
2021-09-24 14:49:02.171343,-429
2021-09-24 14:49:02.171353,-425
2021-09-24 14:49:02.395823,-408
2021-09-24 14:49:02.395844,-378
2021-09-24 14:49:02.395853,-323
2021-09-24 14:49:02.395860,-233
2021-09-24 14:49:02.395866,-133
2021-09-24 14:49:02.395873,-41
2021-09-24 14:49:02.395880,53
2021-09-24 14:49:02.395886,131
2021-09-24 14:49:02.395893,174
2021-09-24 14:49:02.395899,196
2021-09-24 14:49:02.395906,206
2021-09-24 14:49:02.395913,208
2021-09-24 14:49:02.395919,213
2021-09-24 14:49:02.395926,221
2021-09-24 14:49:02.395932,213
2021-09-24 14:49:02.395939,196
2021-09-24 14:49:02.395945,179
2021-09-24 14:49:02.395952,170
2021-09-24 14:49:02.395959,162
2021-09-24 14:49:02.395965,150
2021-09-24 14:49:02.395972,131
2021-09-24 14:49:02.395978,116
2021-09-24 14:49:02.395985,111
2021-09-24 14:49:02.395991,102
2021-09-24 14:49:02.395998,94
2021-09-24 14:49:02.396005,85
2021-09-24 14:49:02.396011,72
2021-09-24 14:49:02.396018,63
2021-09-24 14:49:02.396024,58
2021-09-24 14:49:02.396031,58
2021-09-24 14:49:02.665451,65
2021-09-24 14:49:02.665475,68
2021-09-24 14:49:02.665483,60
2021-09-24 14:49:02.665501,55
2021-09-24 14:49:02.665508,51
2021-09-24 14:49:02.665515,51
2021-09-24 14:49:02.665522,55
2021-09-24 14:49:02.665528,63
2021-09-24 14:49:02.665535,65
2021-09-24 14:49:02.665542,58
2021-09-24 14:49:02.665548,48
2021-09-24 14:49:02.665555,43
2021-09-24 14:49:02.665561,43
2021-09-24 14:49:02.665568,46
2021-09-24 14:49:02.665575,48
2021-09-24 14:49:02.665581,46
2021-09-24 14:49:02.665591,43
2021-09-24 14:49:02.665598,51
2021-09-24 14:49:02.665604,51
2021-09-24 14:49:02.665611,48
2021-09-24 14:49:02.665617,53
2021-09-24 14:49:02.665624,60
2021-09-24 14:49:02.665630,58
2021-09-24 14:49:02.665637,58
2021-09-24 14:49:02.665644,58
2021-09-24 14:49:02.665650,63
2021-09-24 14:49:02.665657,68
2021-09-24 14:49:02.665663,65
2021-09-24 14:49:02.665670,63
2021-09-24 14:49:02.665708,55
2021-09-24 14:49:02.890967,38
2021-09-24 14:49:02.890994,34
2021-09-24 14:49:02.891007,38
2021-09-24 14:49:02.891019,31
2021-09-24 14:49:02.891031,24
2021-09-24 14:49:02.891042,41
2021-09-24 14:49:02.891054,63
2021-09-24 14:49:02.891066,72
2021-09-24 14:49:02.891077,72
2021-09-24 14:49:02.891089,58
2021-09-24 14:49:02.891101,58
2021-09-24 14:49:02.891113,68
2021-09-24 14:49:02.891124,68
2021-09-24 14:49:02.891136,60
2021-09-24 14:49:02.891148,58
2021-09-24 14:49:02.891159,51
2021-09-24 14:49:02.891170,38
2021-09-24 14:49:02.891182,0
2021-09-24 14:49:02.891194,-97
2021-09-24 14:49:02.891206,-315
2021-09-24 14:49:02.891218,-546
2021-09-24 14:49:02.891230,-488
2021-09-24 14:49:02.891241,-63
2021-09-24 14:49:02.891260,480
2021-09-24 14:49:02.891273,680
2021-09-24 14:49:02.891284,357
2021-09-24 14:49:02.891296,82
2021-09-24 14:49:02.891308,89
2021-09-24 14:49:02.891320,24
2021-09-24 14:49:02.891332,-85
2021-09-24 14:49:03.159598,-72
2021-09-24 14:49:03.159620,-70
2021-09-24 14:49:03.159628,-114
2021-09-24 14:49:03.159635,-121
2021-09-24 14:49:03.159642,-109
2021-09-24 14:49:03.159648,-114
2021-09-24 14:49:03.159655,-121
2021-09-24 14:49:03.159661,-126
2021-09-24 14:49:03.159668,-145
2021-09-24 14:49:03.159674,-167
2021-09-24 14:49:03.159681,-177
2021-09-24 14:49:03.159688,-191
2021-09-24 14:49:03.159694,-213
2021-09-24 14:49:03.159701,-240
2021-09-24 14:49:03.159707,-284
2021-09-24 14:49:03.159714,-332
2021-09-24 14:49:03.159721,-361
2021-09-24 14:49:03.159727,-383
2021-09-24 14:49:03.159734,-405
2021-09-24 14:49:03.159740,-417
2021-09-24 14:49:03.159747,-417
2021-09-24 14:49:03.159753,-408
2021-09-24 14:49:03.159760,-376
2021-09-24 14:49:03.159766,-303
2021-09-24 14:49:03.159773,-201
2021-09-24 14:49:03.159779,-94
2021-09-24 14:49:03.159786,2
2021-09-24 14:49:03.159793,89
2021-09-24 14:49:03.159799,157
2021-09-24 14:49:03.159806,206
2021-09-24 14:49:03.474949,235
2021-09-24 14:49:03.474969,247
2021-09-24 14:49:03.474977,250
2021-09-24 14:49:03.474984,252
2021-09-24 14:49:03.474990,252
2021-09-24 14:49:03.474997,247
2021-09-24 14:49:03.475004,238
2021-09-24 14:49:03.475010,221
2021-09-24 14:49:03.475017,199
2021-09-24 14:49:03.475023,182
2021-09-24 14:49:03.475030,172
2021-09-24 14:49:03.475037,160
2021-09-24 14:49:03.475043,145
2021-09-24 14:49:03.475050,133
2021-09-24 14:49:03.475057,116
2021-09-24 14:49:03.475063,109
2021-09-24 14:49:03.475070,104
2021-09-24 14:49:03.475076,92
2021-09-24 14:49:03.475083,80
2021-09-24 14:49:03.475090,75
2021-09-24 14:49:03.475096,75
2021-09-24 14:49:03.475103,70
2021-09-24 14:49:03.475109,70
2021-09-24 14:49:03.475116,75
2021-09-24 14:49:03.475123,77
2021-09-24 14:49:03.475130,75
2021-09-24 14:49:03.475136,72
2021-09-24 14:49:03.475143,75
2021-09-24 14:49:03.475149,75
2021-09-24 14:49:03.475156,80
2021-09-24 14:49:03.565995,82
2021-09-24 14:49:03.566017,80
2021-09-24 14:49:03.566025,77
2021-09-24 14:49:03.566032,75
2021-09-24 14:49:03.566039,77
2021-09-24 14:49:03.566045,80
2021-09-24 14:49:03.566052,77
2021-09-24 14:49:03.566058,68
2021-09-24 14:49:03.566065,58
2021-09-24 14:49:03.566071,65
2021-09-24 14:49:03.566078,75
2021-09-24 14:49:03.566085,80
2021-09-24 14:49:03.566091,75
2021-09-24 14:49:03.566098,68
2021-09-24 14:49:03.566104,68
2021-09-24 14:49:03.566111,70
2021-09-24 14:49:03.566118,68
2021-09-24 14:49:03.566124,72
2021-09-24 14:49:03.566131,75
2021-09-24 14:49:03.566137,63
2021-09-24 14:49:03.566144,55
2021-09-24 14:49:03.566150,65
2021-09-24 14:49:03.566157,68
2021-09-24 14:49:03.566173,48
2021-09-24 14:49:03.566180,29
2021-09-24 14:49:03.566186,29
2021-09-24 14:49:03.566193,36
2021-09-24 14:49:03.566199,26
2021-09-24 14:49:03.566206,21
2021-09-24 14:49:03.566212,38
2021-09-24 14:49:03.791319,55
2021-09-24 14:49:03.791358,65
2021-09-24 14:49:03.791372,72
2021-09-24 14:49:03.791396,70
2021-09-24 14:49:03.791407,68
2021-09-24 14:49:03.791417,70
2021-09-24 14:49:03.791427,65
2021-09-24 14:49:03.791437,63
2021-09-24 14:49:03.791447,65
2021-09-24 14:49:03.791457,63
2021-09-24 14:49:03.791467,51
2021-09-24 14:49:03.791477,21
2021-09-24 14:49:03.791487,-53
2021-09-24 14:49:03.791497,-223
2021-09-24 14:49:03.791507,-478
2021-09-24 14:49:03.791517,-556
2021-09-24 14:49:03.791527,-257
2021-09-24 14:49:03.791537,284
2021-09-24 14:49:03.791547,680
2021-09-24 14:49:03.791557,527
2021-09-24 14:49:03.791567,150
2021-09-24 14:49:03.791577,75
2021-09-24 14:49:03.791587,58
2021-09-24 14:49:03.791597,-68
2021-09-24 14:49:03.791607,-99
2021-09-24 14:49:03.791617,-65
2021-09-24 14:49:03.791627,-92
2021-09-24 14:49:03.791637,-116
2021-09-24 14:49:03.791647,-109
2021-09-24 14:49:03.791657,-116
2021-09-24 14:49:04.016077,-128
2021-09-24 14:49:04.016100,-128
2021-09-24 14:49:04.016108,-138
2021-09-24 14:49:04.016115,-160
2021-09-24 14:49:04.016122,-177
2021-09-24 14:49:04.016128,-194
2021-09-24 14:49:04.016135,-218
2021-09-24 14:49:04.016141,-238
2021-09-24 14:49:04.016148,-259
2021-09-24 14:49:04.016155,-296
2021-09-24 14:49:04.016162,-335
2021-09-24 14:49:04.016168,-374
2021-09-24 14:49:04.016175,-415
2021-09-24 14:49:04.016181,-439
2021-09-24 14:49:04.016188,-439
2021-09-24 14:49:04.016195,-434
2021-09-24 14:49:04.016201,-412
2021-09-24 14:49:04.016208,-364
2021-09-24 14:49:04.016214,-279
2021-09-24 14:49:04.016221,-172
2021-09-24 14:49:04.016228,-72
2021-09-24 14:49:04.016234,17
2021-09-24 14:49:04.016241,99
2021-09-24 14:49:04.016258,160
2021-09-24 14:49:04.016265,189
2021-09-24 14:49:04.016272,213
2021-09-24 14:49:04.016279,225
2021-09-24 14:49:04.016285,228
2021-09-24 14:49:04.016292,225
2021-09-24 14:49:04.016299,225
2021-09-24 14:49:04.285486,228
2021-09-24 14:49:04.285509,225
2021-09-24 14:49:04.285517,208
2021-09-24 14:49:04.285524,194
2021-09-24 14:49:04.285531,179
2021-09-24 14:49:04.285537,160
2021-09-24 14:49:04.285544,150
2021-09-24 14:49:04.285550,148
2021-09-24 14:49:04.285557,133
2021-09-24 14:49:04.285563,116
2021-09-24 14:49:04.285570,99
2021-09-24 14:49:04.285577,87
2021-09-24 14:49:04.285583,85
2021-09-24 14:49:04.285590,85
2021-09-24 14:49:04.285596,80
2021-09-24 14:49:04.285603,75
2021-09-24 14:49:04.285609,72
2021-09-24 14:49:04.285616,72
2021-09-24 14:49:04.285622,85
2021-09-24 14:49:04.285629,94
2021-09-24 14:49:04.285636,92
2021-09-24 14:49:04.285642,92
2021-09-24 14:49:04.285649,92
2021-09-24 14:49:04.285655,92
2021-09-24 14:49:04.285662,94
2021-09-24 14:49:04.285668,92
2021-09-24 14:49:04.285675,85
2021-09-24 14:49:04.285713,80
2021-09-24 14:49:04.285720,82
2021-09-24 14:49:04.285727,82
2021-09-24 14:49:04.466213,82
2021-09-24 14:49:04.466243,82
2021-09-24 14:49:04.466255,82
2021-09-24 14:49:04.466265,80
2021-09-24 14:49:04.466276,75
2021-09-24 14:49:04.466286,72
2021-09-24 14:49:04.466296,77
2021-09-24 14:49:04.466306,80
2021-09-24 14:49:04.466316,77
2021-09-24 14:49:04.466326,68
2021-09-24 14:49:04.466336,60
2021-09-24 14:49:04.466346,60
2021-09-24 14:49:04.466357,65
2021-09-24 14:49:04.466367,65
2021-09-24 14:49:04.466377,65
2021-09-24 14:49:04.466387,60
2021-09-24 14:49:04.466397,53
2021-09-24 14:49:04.466407,55
2021-09-24 14:49:04.466418,58
2021-09-24 14:49:04.466428,48
2021-09-24 14:49:04.466438,38
2021-09-24 14:49:04.466448,26
2021-09-24 14:49:04.466458,12
2021-09-24 14:49:04.466468,9
2021-09-24 14:49:04.466478,14
2021-09-24 14:49:04.466489,9
2021-09-24 14:49:04.466500,9
2021-09-24 14:49:04.466510,24
2021-09-24 14:49:04.466520,34
2021-09-24 14:49:04.466543,43
2021-09-24 14:49:04.735646,53
2021-09-24 14:49:04.735667,48
2021-09-24 14:49:04.735675,38
2021-09-24 14:49:04.735682,29
2021-09-24 14:49:04.735689,24
2021-09-24 14:49:04.735695,26
2021-09-24 14:49:04.735702,31
2021-09-24 14:49:04.735708,31
2021-09-24 14:49:04.735715,17
2021-09-24 14:49:04.735734,-19
2021-09-24 14:49:04.735741,-85
2021-09-24 14:49:04.735747,-252
2021-09-24 14:49:04.735754,-512
2021-09-24 14:49:04.735761,-575
2021-09-24 14:49:04.735767,-255
2021-09-24 14:49:04.735774,303
2021-09-24 14:49:04.735780,680
2021-09-24 14:49:04.735787,488
2021-09-24 14:49:04.735793,126
2021-09-24 14:49:04.735800,77
2021-09-24 14:49:04.735807,60
2021-09-24 14:49:04.735813,-60
2021-09-24 14:49:04.735820,-75
2021-09-24 14:49:04.735826,-41
2021-09-24 14:49:04.735833,-70
2021-09-24 14:49:04.735840,-94
2021-09-24 14:49:04.735846,-89
2021-09-24 14:49:04.735853,-104
2021-09-24 14:49:04.735859,-121
2021-09-24 14:49:04.735866,-126
2021-09-24 14:49:04.961184,-140
2021-09-24 14:49:04.961206,-157
2021-09-24 14:49:04.961214,-172
2021-09-24 14:49:04.961232,-196
2021-09-24 14:49:04.961239,-216
2021-09-24 14:49:04.961245,-233
2021-09-24 14:49:04.961252,-259
2021-09-24 14:49:04.961259,-296
2021-09-24 14:49:04.961265,-340
2021-09-24 14:49:04.961272,-386
2021-09-24 14:49:04.961278,-410
2021-09-24 14:49:04.961285,-420
2021-09-24 14:49:04.961292,-427
2021-09-24 14:49:04.961298,-427
2021-09-24 14:49:04.961305,-410
2021-09-24 14:49:04.961312,-369
2021-09-24 14:49:04.961318,-284
2021-09-24 14:49:04.961325,-174
2021-09-24 14:49:04.961332,-70
2021-09-24 14:49:04.961338,24
2021-09-24 14:49:04.961345,99
2021-09-24 14:49:04.961352,155
2021-09-24 14:49:04.961358,199
2021-09-24 14:49:04.961365,223
2021-09-24 14:49:04.961371,221
2021-09-24 14:49:04.961378,208
2021-09-24 14:49:04.961385,201
2021-09-24 14:49:04.961391,196
2021-09-24 14:49:04.961398,189
2021-09-24 14:49:04.961404,187
2021-09-24 14:49:05.229489,182
2021-09-24 14:49:05.229512,170
2021-09-24 14:49:05.229520,155
2021-09-24 14:49:05.229527,145
2021-09-24 14:49:05.229534,138
2021-09-24 14:49:05.229540,128
2021-09-24 14:49:05.229547,121
2021-09-24 14:49:05.229553,106
2021-09-24 14:49:05.229560,89
2021-09-24 14:49:05.229566,85
2021-09-24 14:49:05.229573,85
2021-09-24 14:49:05.229580,80
2021-09-24 14:49:05.229586,82
2021-09-24 14:49:05.229593,80
2021-09-24 14:49:05.229600,70
2021-09-24 14:49:05.229606,65
2021-09-24 14:49:05.229613,72
2021-09-24 14:49:05.229619,75
2021-09-24 14:49:05.229626,75
2021-09-24 14:49:05.229632,75
2021-09-24 14:49:05.229639,75
2021-09-24 14:49:05.229646,77
2021-09-24 14:49:05.229652,77
2021-09-24 14:49:05.229681,77
2021-09-24 14:49:05.229688,80
2021-09-24 14:49:05.229695,80
2021-09-24 14:49:05.229701,72
2021-09-24 14:49:05.229708,70
2021-09-24 14:49:05.229715,75
2021-09-24 14:49:05.229721,75
2021-09-24 14:49:05.500768,70
2021-09-24 14:49:05.500792,70
2021-09-24 14:49:05.500799,72
2021-09-24 14:49:05.500806,68
2021-09-24 14:49:05.500813,60
2021-09-24 14:49:05.500820,70
2021-09-24 14:49:05.500826,77
2021-09-24 14:49:05.500833,68
2021-09-24 14:49:05.500839,63
2021-09-24 14:49:05.500846,68
2021-09-24 14:49:05.500852,68
2021-09-24 14:49:05.500859,65
2021-09-24 14:49:05.500866,63
2021-09-24 14:49:05.500872,53
2021-09-24 14:49:05.500879,48
2021-09-24 14:49:05.500886,55
2021-09-24 14:49:05.500892,51
2021-09-24 14:49:05.500899,36
2021-09-24 14:49:05.500906,24
2021-09-24 14:49:05.500914,21
2021-09-24 14:49:05.500920,24
2021-09-24 14:49:05.500927,19
2021-09-24 14:49:05.500934,19
2021-09-24 14:49:05.500940,36
2021-09-24 14:49:05.500947,53
2021-09-24 14:49:05.500953,58
2021-09-24 14:49:05.500960,60
2021-09-24 14:49:05.500967,58
2021-09-24 14:49:05.500973,55
2021-09-24 14:49:05.500980,65
2021-09-24 14:49:05.681165,65
2021-09-24 14:49:05.681189,48
2021-09-24 14:49:05.681197,36
2021-09-24 14:49:05.681204,41
2021-09-24 14:49:05.681211,34
2021-09-24 14:49:05.681218,-9
2021-09-24 14:49:05.681224,-104
2021-09-24 14:49:05.681231,-318
2021-09-24 14:49:05.681238,-566
2021-09-24 14:49:05.681244,-536
2021-09-24 14:49:05.681251,-109
2021-09-24 14:49:05.681258,463
2021-09-24 14:49:05.681264,655
2021-09-24 14:49:05.681279,315
2021-09-24 14:49:05.681286,58
2021-09-24 14:49:05.681292,80
2021-09-24 14:49:05.681299,12
2021-09-24 14:49:05.681305,-97
2021-09-24 14:49:05.681312,-82
2021-09-24 14:49:05.681319,-70
2021-09-24 14:49:05.681325,-104
2021-09-24 14:49:05.681332,-114
2021-09-24 14:49:05.681338,-111
2021-09-24 14:49:05.681345,-126
2021-09-24 14:49:05.681352,-140
2021-09-24 14:49:05.681358,-145
2021-09-24 14:49:05.681365,-155
2021-09-24 14:49:05.681372,-179
2021-09-24 14:49:05.681378,-201
2021-09-24 14:49:05.681385,-216
2021-09-24 14:49:05.906313,-240
2021-09-24 14:49:05.906336,-269
2021-09-24 14:49:05.906344,-296
2021-09-24 14:49:05.906351,-332
2021-09-24 14:49:05.906358,-369
2021-09-24 14:49:05.906364,-398
2021-09-24 14:49:05.906371,-410
2021-09-24 14:49:05.906378,-425
2021-09-24 14:49:05.906384,-437
2021-09-24 14:49:05.906391,-417
2021-09-24 14:49:05.906397,-374
2021-09-24 14:49:05.906404,-320
2021-09-24 14:49:05.906410,-250
2021-09-24 14:49:05.906417,-148
2021-09-24 14:49:05.906423,-46
2021-09-24 14:49:05.906430,34
2021-09-24 14:49:05.906436,94
2021-09-24 14:49:05.906443,140
2021-09-24 14:49:05.906449,172
2021-09-24 14:49:05.906456,194
2021-09-24 14:49:05.906462,199
2021-09-24 14:49:05.906469,201
2021-09-24 14:49:05.906475,201
2021-09-24 14:49:05.906482,199
2021-09-24 14:49:05.906488,191
2021-09-24 14:49:05.906495,189
2021-09-24 14:49:05.906501,179
2021-09-24 14:49:05.906508,165
2021-09-24 14:49:05.906514,155
2021-09-24 14:49:05.906521,140
2021-09-24 14:49:06.086254,131
2021-09-24 14:49:06.086277,131
2021-09-24 14:49:06.086285,128
2021-09-24 14:49:06.086302,111
2021-09-24 14:49:06.086310,104
2021-09-24 14:49:06.086317,102
2021-09-24 14:49:06.086324,87
2021-09-24 14:49:06.086331,72
2021-09-24 14:49:06.086338,75
2021-09-24 14:49:06.086345,75
2021-09-24 14:49:06.086352,60
2021-09-24 14:49:06.086359,48
2021-09-24 14:49:06.086365,53
2021-09-24 14:49:06.086372,55
2021-09-24 14:49:06.086379,53
2021-09-24 14:49:06.086386,58
2021-09-24 14:49:06.086393,63
2021-09-24 14:49:06.086400,48
2021-09-24 14:49:06.086407,41
2021-09-24 14:49:06.086413,53
2021-09-24 14:49:06.086420,58
2021-09-24 14:49:06.086427,48
2021-09-24 14:49:06.086434,36
2021-09-24 14:49:06.086441,41
2021-09-24 14:49:06.086448,51
2021-09-24 14:49:06.086455,51
2021-09-24 14:49:06.086462,48
2021-09-24 14:49:06.086469,46
2021-09-24 14:49:06.086475,46
2021-09-24 14:49:06.086482,43
2021-09-24 14:49:06.311280,46
2021-09-24 14:49:06.311310,51
2021-09-24 14:49:06.311322,48
2021-09-24 14:49:06.311332,41
2021-09-24 14:49:06.311343,34
2021-09-24 14:49:06.311353,38
2021-09-24 14:49:06.311363,48
2021-09-24 14:49:06.311373,48
2021-09-24 14:49:06.311384,38
2021-09-24 14:49:06.311394,24
2021-09-24 14:49:06.311404,4
2021-09-24 14:49:06.311415,-2
2021-09-24 14:49:06.311425,-4
2021-09-24 14:49:06.311435,-7
2021-09-24 14:49:06.311445,12
2021-09-24 14:49:06.311456,29
2021-09-24 14:49:06.311466,29
2021-09-24 14:49:06.311476,29
2021-09-24 14:49:06.311486,34
2021-09-24 14:49:06.311497,38
2021-09-24 14:49:06.311507,38
2021-09-24 14:49:06.311517,36
2021-09-24 14:49:06.311528,34
2021-09-24 14:49:06.311551,34
2021-09-24 14:49:06.311562,34
2021-09-24 14:49:06.311572,19
2021-09-24 14:49:06.311582,-26
2021-09-24 14:49:06.311592,-121
2021-09-24 14:49:06.311603,-318
2021-09-24 14:49:06.311613,-527
2021-09-24 14:49:06.670248,-463
2021-09-24 14:49:06.670271,-31
2021-09-24 14:49:06.670279,524
2021-09-24 14:49:06.670286,670
2021-09-24 14:49:06.670292,306
2021-09-24 14:49:06.670299,63
2021-09-24 14:49:06.670306,97
2021-09-24 14:49:06.670312,24
2021-09-24 14:49:06.670319,-92
2021-09-24 14:49:06.670326,-85
2021-09-24 14:49:06.670332,-72
2021-09-24 14:49:06.670339,-106
2021-09-24 14:49:06.670346,-123
2021-09-24 14:49:06.670352,-143
2021-09-24 14:49:06.670359,-170
2021-09-24 14:49:06.670366,-179
2021-09-24 14:49:06.670373,-182
2021-09-24 14:49:06.670379,-199
2021-09-24 14:49:06.670386,-211
2021-09-24 14:49:06.670393,-218
2021-09-24 14:49:06.670399,-242
2021-09-24 14:49:06.670406,-269
2021-09-24 14:49:06.670413,-289
2021-09-24 14:49:06.670419,-313
2021-09-24 14:49:06.670426,-349
2021-09-24 14:49:06.670432,-381
2021-09-24 14:49:06.670439,-415
2021-09-24 14:49:06.670446,-439
2021-09-24 14:49:06.670452,-439
2021-09-24 14:49:06.670459,-427
2021-09-24 14:49:06.806207,-410
2021-09-24 14:49:06.806229,-366
2021-09-24 14:49:06.806236,-301
2021-09-24 14:49:06.806243,-223
2021-09-24 14:49:06.806250,-121
2021-09-24 14:49:06.806256,-19
2021-09-24 14:49:06.806263,60
2021-09-24 14:49:06.806270,123
2021-09-24 14:49:06.806276,170
2021-09-24 14:49:06.806283,194
2021-09-24 14:49:06.806289,211
2021-09-24 14:49:06.806296,223
2021-09-24 14:49:06.806303,225
2021-09-24 14:49:06.806319,218
2021-09-24 14:49:06.806326,206
2021-09-24 14:49:06.806332,191
2021-09-24 14:49:06.806339,184
2021-09-24 14:49:06.806346,174
2021-09-24 14:49:06.806352,165
2021-09-24 14:49:06.806359,153
2021-09-24 14:49:06.806365,138
2021-09-24 14:49:06.806372,121
2021-09-24 14:49:06.806378,111
2021-09-24 14:49:06.806385,106
2021-09-24 14:49:06.806391,104
2021-09-24 14:49:06.806398,97
2021-09-24 14:49:06.806404,87
2021-09-24 14:49:06.806411,85
2021-09-24 14:49:06.806418,82
2021-09-24 14:49:06.806424,85
2021-09-24 14:49:07.031420,92
2021-09-24 14:49:07.031443,89
2021-09-24 14:49:07.031451,80
2021-09-24 14:49:07.031458,80
2021-09-24 14:49:07.031465,89
2021-09-24 14:49:07.031471,92
2021-09-24 14:49:07.031478,89
2021-09-24 14:49:07.031484,85
2021-09-24 14:49:07.031491,80
2021-09-24 14:49:07.031497,77
2021-09-24 14:49:07.031504,82
2021-09-24 14:49:07.031510,82
2021-09-24 14:49:07.031517,85
2021-09-24 14:49:07.031523,77
2021-09-24 14:49:07.031530,70
2021-09-24 14:49:07.031536,72
2021-09-24 14:49:07.031543,75
2021-09-24 14:49:07.031549,70
2021-09-24 14:49:07.031556,63
2021-09-24 14:49:07.031563,51
2021-09-24 14:49:07.031569,48
2021-09-24 14:49:07.031576,48
2021-09-24 14:49:07.031582,48
2021-09-24 14:49:07.031589,51
2021-09-24 14:49:07.031595,53
2021-09-24 14:49:07.031602,48
2021-09-24 14:49:07.031608,48
2021-09-24 14:49:07.031615,53
2021-09-24 14:49:07.031621,53
2021-09-24 14:49:07.031628,43
2021-09-24 14:49:07.299786,29
2021-09-24 14:49:07.299809,21
2021-09-24 14:49:07.299817,17
2021-09-24 14:49:07.299834,7
2021-09-24 14:49:07.299841,14
2021-09-24 14:49:07.299848,36
2021-09-24 14:49:07.299855,55
2021-09-24 14:49:07.299862,53
2021-09-24 14:49:07.299869,43
2021-09-24 14:49:07.299876,41
2021-09-24 14:49:07.299883,43
2021-09-24 14:49:07.299890,48
2021-09-24 14:49:07.299897,46
2021-09-24 14:49:07.299904,38
2021-09-24 14:49:07.299911,38
2021-09-24 14:49:07.299918,31
2021-09-24 14:49:07.299925,-2
2021-09-24 14:49:07.299932,-60
2021-09-24 14:49:07.299939,-201
2021-09-24 14:49:07.299946,-451
2021-09-24 14:49:07.299953,-568
2021-09-24 14:49:07.299960,-306
2021-09-24 14:49:07.299967,230
2021-09-24 14:49:07.299974,646
2021-09-24 14:49:07.299981,529
2021-09-24 14:49:07.299988,157
2021-09-24 14:49:07.299995,63
2021-09-24 14:49:07.300002,65
2021-09-24 14:49:07.300009,-55
2021-09-24 14:49:07.300016,-97
2021-09-24 14:49:07.525679,-65
2021-09-24 14:49:07.525708,-87
2021-09-24 14:49:07.525720,-111
2021-09-24 14:49:07.525732,-109
2021-09-24 14:49:07.525743,-114
2021-09-24 14:49:07.525755,-131
2021-09-24 14:49:07.525766,-145
2021-09-24 14:49:07.525777,-160
2021-09-24 14:49:07.525788,-170
2021-09-24 14:49:07.525799,-182
2021-09-24 14:49:07.525810,-199
2021-09-24 14:49:07.525821,-223
2021-09-24 14:49:07.525832,-259
2021-09-24 14:49:07.525843,-293
2021-09-24 14:49:07.525854,-320
2021-09-24 14:49:07.525865,-352
2021-09-24 14:49:07.525877,-388
2021-09-24 14:49:07.525900,-415
2021-09-24 14:49:07.525912,-432
2021-09-24 14:49:07.525924,-434
2021-09-24 14:49:07.525936,-429
2021-09-24 14:49:07.525947,-405
2021-09-24 14:49:07.525958,-354
2021-09-24 14:49:07.525969,-276
2021-09-24 14:49:07.525981,-187
2021-09-24 14:49:07.525993,-85
2021-09-24 14:49:07.526004,12
2021-09-24 14:49:07.526016,85
2021-09-24 14:49:07.526027,140
2021-09-24 14:49:07.526038,179
2021-09-24 14:49:07.705544,191
2021-09-24 14:49:07.705569,194
2021-09-24 14:49:07.705621,204
2021-09-24 14:49:07.705633,201
2021-09-24 14:49:07.705640,194
2021-09-24 14:49:07.705647,194
2021-09-24 14:49:07.705653,189
2021-09-24 14:49:07.705660,177
2021-09-24 14:49:07.705666,172
2021-09-24 14:49:07.705673,162
2021-09-24 14:49:07.705679,153
2021-09-24 14:49:07.705686,140
2021-09-24 14:49:07.705692,126
2021-09-24 14:49:07.705699,116
2021-09-24 14:49:07.705705,114
2021-09-24 14:49:07.705712,104
2021-09-24 14:49:07.705718,94
2021-09-24 14:49:07.705725,87
2021-09-24 14:49:07.705731,77
2021-09-24 14:49:07.705738,72
2021-09-24 14:49:07.705744,75
2021-09-24 14:49:07.705751,72
2021-09-24 14:49:07.705757,77
2021-09-24 14:49:07.705764,82
2021-09-24 14:49:07.705770,77
2021-09-24 14:49:07.705777,72
2021-09-24 14:49:07.705783,72
2021-09-24 14:49:07.705816,75
2021-09-24 14:49:07.705823,75
2021-09-24 14:49:07.705830,77
2021-09-24 14:49:07.975627,72
2021-09-24 14:49:07.975658,70
2021-09-24 14:49:07.975670,72
2021-09-24 14:49:07.975680,75
2021-09-24 14:49:07.975691,70
2021-09-24 14:49:07.975701,60
2021-09-24 14:49:07.975711,60
2021-09-24 14:49:07.975721,65
2021-09-24 14:49:07.975731,63
2021-09-24 14:49:07.975741,60
2021-09-24 14:49:07.975751,58
2021-09-24 14:49:07.975761,46
2021-09-24 14:49:07.975771,46
2021-09-24 14:49:07.975795,51
2021-09-24 14:49:07.975805,55
2021-09-24 14:49:07.975815,55
2021-09-24 14:49:07.975826,48
2021-09-24 14:49:07.975836,51
2021-09-24 14:49:07.975846,55
2021-09-24 14:49:07.975856,51
2021-09-24 14:49:07.975866,41
2021-09-24 14:49:07.975876,43
2021-09-24 14:49:07.975886,51
2021-09-24 14:49:07.975896,48
2021-09-24 14:49:07.975906,36
2021-09-24 14:49:07.975917,19
2021-09-24 14:49:07.975927,7
2021-09-24 14:49:07.975937,2
2021-09-24 14:49:07.975947,-2
2021-09-24 14:49:07.975958,-14
2021-09-24 14:49:08.155728,-9
2021-09-24 14:49:08.155749,12
2021-09-24 14:49:08.155757,29
2021-09-24 14:49:08.155763,26
2021-09-24 14:49:08.155770,17
2021-09-24 14:49:08.155777,21
2021-09-24 14:49:08.155783,29
2021-09-24 14:49:08.155790,29
2021-09-24 14:49:08.155796,31
2021-09-24 14:49:08.155803,26
2021-09-24 14:49:08.155809,17
2021-09-24 14:49:08.155816,4
2021-09-24 14:49:08.155823,-26
2021-09-24 14:49:08.155829,-111
2021-09-24 14:49:08.155836,-320
2021-09-24 14:49:08.155843,-570
2021-09-24 14:49:08.155849,-541
2021-09-24 14:49:08.155856,-145
2021-09-24 14:49:08.155862,403
2021-09-24 14:49:08.155869,670
2021-09-24 14:49:08.155876,386
2021-09-24 14:49:08.155882,70
2021-09-24 14:49:08.155889,63
2021-09-24 14:49:08.155895,19
2021-09-24 14:49:08.155902,-94
2021-09-24 14:49:08.155908,-85
2021-09-24 14:49:08.155915,-63
2021-09-24 14:49:08.155922,-99
2021-09-24 14:49:08.155928,-119
2021-09-24 14:49:08.155935,-116
2021-09-24 14:49:08.425729,-128
2021-09-24 14:49:08.425752,-140
2021-09-24 14:49:08.425759,-143
2021-09-24 14:49:08.425765,-160
2021-09-24 14:49:08.425771,-182
2021-09-24 14:49:08.425776,-194
2021-09-24 14:49:08.425782,-204
2021-09-24 14:49:08.425787,-225
2021-09-24 14:49:08.425792,-255
2021-09-24 14:49:08.425798,-291
2021-09-24 14:49:08.425803,-335
2021-09-24 14:49:08.425808,-366
2021-09-24 14:49:08.425813,-395
2021-09-24 14:49:08.425819,-417
2021-09-24 14:49:08.425824,-429
2021-09-24 14:49:08.425829,-437
2021-09-24 14:49:08.425835,-429
2021-09-24 14:49:08.425840,-393
2021-09-24 14:49:08.425845,-330
2021-09-24 14:49:08.425850,-240
2021-09-24 14:49:08.425856,-138
2021-09-24 14:49:08.425861,-38
2021-09-24 14:49:08.425867,53
2021-09-24 14:49:08.425881,133
2021-09-24 14:49:08.425887,187
2021-09-24 14:49:08.425892,216
2021-09-24 14:49:08.425897,225
2021-09-24 14:49:08.425903,228
2021-09-24 14:49:08.425908,218
2021-09-24 14:49:08.425913,213
2021-09-24 14:49:08.651187,213
2021-09-24 14:49:08.651211,201
2021-09-24 14:49:08.651219,189
2021-09-24 14:49:08.651226,179
2021-09-24 14:49:08.651232,167
2021-09-24 14:49:08.651239,148
2021-09-24 14:49:08.651245,133
2021-09-24 14:49:08.651252,128
2021-09-24 14:49:08.651258,119
2021-09-24 14:49:08.651265,99
2021-09-24 14:49:08.651271,94
2021-09-24 14:49:08.651294,94
2021-09-24 14:49:08.651301,89
2021-09-24 14:49:08.651307,82
2021-09-24 14:49:08.651314,75
2021-09-24 14:49:08.651321,65
2021-09-24 14:49:08.651327,65
2021-09-24 14:49:08.651334,72
2021-09-24 14:49:08.651340,70
2021-09-24 14:49:08.651347,70
2021-09-24 14:49:08.651354,72
2021-09-24 14:49:08.651360,72
2021-09-24 14:49:08.651367,72
2021-09-24 14:49:08.651381,75
2021-09-24 14:49:08.651387,77
2021-09-24 14:49:08.651394,80
2021-09-24 14:49:08.651401,77
2021-09-24 14:49:08.651407,72
2021-09-24 14:49:08.651414,72
2021-09-24 14:49:08.651420,77
2021-09-24 14:49:08.920696,80
2021-09-24 14:49:08.920719,80
2021-09-24 14:49:08.920727,72
2021-09-24 14:49:08.920734,63
2021-09-24 14:49:08.920740,65
2021-09-24 14:49:08.920747,68
2021-09-24 14:49:08.920754,68
2021-09-24 14:49:08.920760,65
2021-09-24 14:49:08.920767,53
2021-09-24 14:49:08.920774,48
2021-09-24 14:49:08.920780,53
2021-09-24 14:49:08.920787,55
2021-09-24 14:49:08.920794,60
2021-09-24 14:49:08.920800,58
2021-09-24 14:49:08.920807,46
2021-09-24 14:49:08.920813,41
2021-09-24 14:49:08.920820,48
2021-09-24 14:49:08.920826,53
2021-09-24 14:49:08.920833,53
2021-09-24 14:49:08.920840,51
2021-09-24 14:49:08.920846,31
2021-09-24 14:49:08.920853,12
2021-09-24 14:49:08.920859,9
2021-09-24 14:49:08.920866,21
2021-09-24 14:49:08.920872,14
2021-09-24 14:49:08.920879,9
2021-09-24 14:49:08.920885,26
2021-09-24 14:49:08.920892,43
2021-09-24 14:49:08.920898,53
2021-09-24 14:49:08.920905,55
2021-09-24 14:49:09.145358,53
2021-09-24 14:49:09.145374,55
2021-09-24 14:49:09.145379,55
2021-09-24 14:49:09.145384,53
2021-09-24 14:49:09.145389,51
2021-09-24 14:49:09.145393,43
2021-09-24 14:49:09.145398,38
2021-09-24 14:49:09.145402,29
2021-09-24 14:49:09.145408,-12
2021-09-24 14:49:09.145416,-106
2021-09-24 14:49:09.145423,-320
2021-09-24 14:49:09.145428,-573
2021-09-24 14:49:09.145432,-553
2021-09-24 14:49:09.145442,-165
2021-09-24 14:49:09.145447,393
2021-09-24 14:49:09.145455,665
2021-09-24 14:49:09.145463,376
2021-09-24 14:49:09.145470,63
2021-09-24 14:49:09.145479,63
2021-09-24 14:49:09.145487,9
2021-09-24 14:49:09.145495,-111
2021-09-24 14:49:09.145503,-97
2021-09-24 14:49:09.145510,-75
2021-09-24 14:49:09.145518,-114
2021-09-24 14:49:09.145525,-126
2021-09-24 14:49:09.145531,-121
2021-09-24 14:49:09.145536,-133
2021-09-24 14:49:09.145540,-145
2021-09-24 14:49:09.145545,-150
2021-09-24 14:49:09.145549,-157
2021-09-24 14:49:09.369449,-172
2021-09-24 14:49:09.369470,-189
2021-09-24 14:49:09.369478,-206
2021-09-24 14:49:09.369485,-225
2021-09-24 14:49:09.369492,-250
2021-09-24 14:49:09.369498,-286
2021-09-24 14:49:09.369505,-330
2021-09-24 14:49:09.369512,-369
2021-09-24 14:49:09.369518,-400
2021-09-24 14:49:09.369525,-425
2021-09-24 14:49:09.369532,-437
2021-09-24 14:49:09.369538,-439
2021-09-24 14:49:09.369545,-437
2021-09-24 14:49:09.369551,-415
2021-09-24 14:49:09.369558,-352
2021-09-24 14:49:09.369565,-259
2021-09-24 14:49:09.369571,-155
2021-09-24 14:49:09.369578,-51
2021-09-24 14:49:09.369584,31
2021-09-24 14:49:09.369591,97
2021-09-24 14:49:09.369598,155
2021-09-24 14:49:09.369604,189
2021-09-24 14:49:09.369611,201
2021-09-24 14:49:09.369617,204
2021-09-24 14:49:09.369624,199
2021-09-24 14:49:09.369631,191
2021-09-24 14:49:09.369637,187
2021-09-24 14:49:09.369644,174
2021-09-24 14:49:09.369650,172
2021-09-24 14:49:09.369665,170
2021-09-24 14:49:09.595591,157
2021-09-24 14:49:09.595612,150
2021-09-24 14:49:09.595620,145
2021-09-24 14:49:09.595627,136
2021-09-24 14:49:09.595633,126
2021-09-24 14:49:09.595640,116
2021-09-24 14:49:09.595647,104
2021-09-24 14:49:09.595653,94
2021-09-24 14:49:09.595660,87
2021-09-24 14:49:09.595667,72
2021-09-24 14:49:09.595673,70
2021-09-24 14:49:09.595680,70
2021-09-24 14:49:09.595686,60
2021-09-24 14:49:09.595693,58
2021-09-24 14:49:09.595700,60
2021-09-24 14:49:09.595706,51
2021-09-24 14:49:09.595713,38
2021-09-24 14:49:09.595720,43
2021-09-24 14:49:09.595726,53
2021-09-24 14:49:09.595733,53
2021-09-24 14:49:09.595740,53
2021-09-24 14:49:09.595746,53
2021-09-24 14:49:09.595753,55
2021-09-24 14:49:09.595759,58
2021-09-24 14:49:09.595766,55
2021-09-24 14:49:09.595772,53
2021-09-24 14:49:09.595779,55
2021-09-24 14:49:09.595786,53
2021-09-24 14:49:09.595792,53
2021-09-24 14:49:09.595799,58
2021-09-24 14:49:09.775833,55
2021-09-24 14:49:09.775854,55
2021-09-24 14:49:09.775862,58
2021-09-24 14:49:09.775869,55
2021-09-24 14:49:09.775875,51
2021-09-24 14:49:09.775882,43
2021-09-24 14:49:09.775889,46
2021-09-24 14:49:09.775895,48
2021-09-24 14:49:09.775902,41
2021-09-24 14:49:09.775908,41
2021-09-24 14:49:09.775915,43
2021-09-24 14:49:09.775922,41
2021-09-24 14:49:09.775928,38
2021-09-24 14:49:09.775935,41
2021-09-24 14:49:09.775941,43
2021-09-24 14:49:09.775948,46
2021-09-24 14:49:09.775955,38
2021-09-24 14:49:09.775961,19
2021-09-24 14:49:09.775968,2
2021-09-24 14:49:09.775975,0
2021-09-24 14:49:09.775982,7
2021-09-24 14:49:09.775988,2
2021-09-24 14:49:09.775995,-4
2021-09-24 14:49:09.776012,4
2021-09-24 14:49:09.776019,29
2021-09-24 14:49:09.776026,43
2021-09-24 14:49:09.776032,41
2021-09-24 14:49:09.776039,36
2021-09-24 14:49:09.776045,41
2021-09-24 14:49:09.776052,43
2021-09-24 14:49:10.045563,43
2021-09-24 14:49:10.045587,41
2021-09-24 14:49:10.045595,38
2021-09-24 14:49:10.045602,31
2021-09-24 14:49:10.045641,24
2021-09-24 14:49:10.045647,2
2021-09-24 14:49:10.045654,-48
2021-09-24 14:49:10.045660,-194
2021-09-24 14:49:10.045667,-468
2021-09-24 14:49:10.045673,-631
2021-09-24 14:49:10.045680,-403
2021-09-24 14:49:10.045686,148
2021-09-24 14:49:10.045693,607
2021-09-24 14:49:10.045699,517
2021-09-24 14:49:10.045706,131
2021-09-24 14:49:10.045712,31
2021-09-24 14:49:10.045719,48
2021-09-24 14:49:10.045725,-72
2021-09-24 14:49:10.045732,-116
2021-09-24 14:49:10.045738,-75
2021-09-24 14:49:10.045744,-94
2021-09-24 14:49:10.045751,-133
2021-09-24 14:49:10.045757,-138
2021-09-24 14:49:10.045764,-145
2021-09-24 14:49:10.045770,-160
2021-09-24 14:49:10.045777,-170
2021-09-24 14:49:10.045783,-177
2021-09-24 14:49:10.045789,-191
2021-09-24 14:49:10.045796,-206
2021-09-24 14:49:10.045802,-221
2021-09-24 14:49:10.225530,-240
2021-09-24 14:49:10.225548,-267
2021-09-24 14:49:10.225555,-298
2021-09-24 14:49:10.225562,-337
2021-09-24 14:49:10.225568,-374
2021-09-24 14:49:10.225574,-403
2021-09-24 14:49:10.225579,-427
2021-09-24 14:49:10.225585,-444
2021-09-24 14:49:10.225591,-446
2021-09-24 14:49:10.225597,-442
2021-09-24 14:49:10.225603,-427
2021-09-24 14:49:10.225609,-381
2021-09-24 14:49:10.225615,-306
2021-09-24 14:49:10.225628,-211
2021-09-24 14:49:10.225634,-111
2021-09-24 14:49:10.225640,-26
2021-09-24 14:49:10.225646,48
2021-09-24 14:49:10.225652,119
2021-09-24 14:49:10.225658,157
2021-09-24 14:49:10.225664,174
2021-09-24 14:49:10.225670,184
2021-09-24 14:49:10.225676,187
2021-09-24 14:49:10.225682,179
2021-09-24 14:49:10.225688,182
2021-09-24 14:49:10.225693,189
2021-09-24 14:49:10.225699,184
2021-09-24 14:49:10.225705,167
2021-09-24 14:49:10.225711,157
2021-09-24 14:49:10.225717,153
2021-09-24 14:49:10.225723,140
2021-09-24 14:49:10.496082,128
2021-09-24 14:49:10.496104,123
2021-09-24 14:49:10.496112,116
2021-09-24 14:49:10.496119,97
2021-09-24 14:49:10.496126,85
2021-09-24 14:49:10.496132,85
2021-09-24 14:49:10.496138,82
2021-09-24 14:49:10.496145,89
2021-09-24 14:49:10.496152,92
2021-09-24 14:49:10.496158,75
2021-09-24 14:49:10.496165,68
2021-09-24 14:49:10.496171,75
2021-09-24 14:49:10.496177,72
2021-09-24 14:49:10.496184,68
2021-09-24 14:49:10.496190,68
2021-09-24 14:49:10.496197,72
2021-09-24 14:49:10.496203,80
2021-09-24 14:49:10.496210,85
2021-09-24 14:49:10.496216,80
2021-09-24 14:49:10.496223,75
2021-09-24 14:49:10.496229,72
2021-09-24 14:49:10.496236,70
2021-09-24 14:49:10.496242,68
2021-09-24 14:49:10.496249,65
2021-09-24 14:49:10.496255,68
2021-09-24 14:49:10.496262,75
2021-09-24 14:49:10.496268,68
2021-09-24 14:49:10.496274,51
2021-09-24 14:49:10.496281,48
2021-09-24 14:49:10.496287,58
2021-09-24 14:49:10.720619,60
2021-09-24 14:49:10.720644,51
2021-09-24 14:49:10.720653,46
2021-09-24 14:49:10.720669,51
2021-09-24 14:49:10.720675,55
2021-09-24 14:49:10.720680,53
2021-09-24 14:49:10.720685,51
2021-09-24 14:49:10.720691,43
2021-09-24 14:49:10.720696,21
2021-09-24 14:49:10.720701,7
2021-09-24 14:49:10.720707,2
2021-09-24 14:49:10.720712,4
2021-09-24 14:49:10.720717,2
2021-09-24 14:49:10.720723,-4
2021-09-24 14:49:10.720728,7
2021-09-24 14:49:10.720734,26
2021-09-24 14:49:10.720739,31
2021-09-24 14:49:10.720744,36
2021-09-24 14:49:10.720750,36
2021-09-24 14:49:10.720755,21
2021-09-24 14:49:10.720760,12
2021-09-24 14:49:10.720766,24
2021-09-24 14:49:10.720771,26
2021-09-24 14:49:10.720777,19
2021-09-24 14:49:10.720782,29
2021-09-24 14:49:10.720787,17
2021-09-24 14:49:10.720793,-34
2021-09-24 14:49:10.720798,-106
2021-09-24 14:49:10.720803,-272
2021-09-24 14:49:10.720808,-505
2021-09-24 14:49:10.946210,-500
2021-09-24 14:49:10.946233,-92
2021-09-24 14:49:10.946242,478
2021-09-24 14:49:10.946248,687
2021-09-24 14:49:10.946255,366
2021-09-24 14:49:10.946261,87
2021-09-24 14:49:10.946268,89
2021-09-24 14:49:10.946274,24
2021-09-24 14:49:10.946281,-102
2021-09-24 14:49:10.946287,-104
2021-09-24 14:49:10.946294,-85
2021-09-24 14:49:10.946300,-119
2021-09-24 14:49:10.946307,-133
2021-09-24 14:49:10.946313,-133
2021-09-24 14:49:10.946320,-145
2021-09-24 14:49:10.946326,-153
2021-09-24 14:49:10.946333,-160
2021-09-24 14:49:10.946339,-177
2021-09-24 14:49:10.946345,-199
2021-09-24 14:49:10.946352,-216
2021-09-24 14:49:10.946358,-233
2021-09-24 14:49:10.946365,-262
2021-09-24 14:49:10.946372,-298
2021-09-24 14:49:10.946388,-320
2021-09-24 14:49:10.946395,-344
2021-09-24 14:49:10.946402,-386
2021-09-24 14:49:10.946408,-417
2021-09-24 14:49:10.946415,-432
2021-09-24 14:49:10.946421,-442
2021-09-24 14:49:10.946428,-444
2021-09-24 14:49:11.171238,-422
2021-09-24 14:49:11.171263,-381
2021-09-24 14:49:11.171271,-327
2021-09-24 14:49:11.171278,-255
2021-09-24 14:49:11.171285,-160
2021-09-24 14:49:11.171292,-63
2021-09-24 14:49:11.171299,17
2021-09-24 14:49:11.171306,85
2021-09-24 14:49:11.171313,136
2021-09-24 14:49:11.171320,167
2021-09-24 14:49:11.171326,189
2021-09-24 14:49:11.171333,206
2021-09-24 14:49:11.171340,196
2021-09-24 14:49:11.171347,179
2021-09-24 14:49:11.171354,182
2021-09-24 14:49:11.171361,184
2021-09-24 14:49:11.171368,174
2021-09-24 14:49:11.171374,165
2021-09-24 14:49:11.171381,155
2021-09-24 14:49:11.171388,148
2021-09-24 14:49:11.171395,140
2021-09-24 14:49:11.171402,128
2021-09-24 14:49:11.171409,116
2021-09-24 14:49:11.171416,106
2021-09-24 14:49:11.171423,102
2021-09-24 14:49:11.171429,104
2021-09-24 14:49:11.171436,94
2021-09-24 14:49:11.171443,80
2021-09-24 14:49:11.171450,77
2021-09-24 14:49:11.171457,87
2021-09-24 14:49:11.439381,87
2021-09-24 14:49:11.439402,92
2021-09-24 14:49:11.439410,92
2021-09-24 14:49:11.439417,82
2021-09-24 14:49:11.439424,92
2021-09-24 14:49:11.439430,102
2021-09-24 14:49:11.439437,87
2021-09-24 14:49:11.439444,87
2021-09-24 14:49:11.439450,97
2021-09-24 14:49:11.439456,92
2021-09-24 14:49:11.439463,85
2021-09-24 14:49:11.439470,85
2021-09-24 14:49:11.439476,85
2021-09-24 14:49:11.439483,82
2021-09-24 14:49:11.439489,80
2021-09-24 14:49:11.439496,77
2021-09-24 14:49:11.439502,75
2021-09-24 14:49:11.439509,77
2021-09-24 14:49:11.439515,72
2021-09-24 14:49:11.439522,72
2021-09-24 14:49:11.439528,75
2021-09-24 14:49:11.439535,75
2021-09-24 14:49:11.439542,80
2021-09-24 14:49:11.439548,82
2021-09-24 14:49:11.439554,75
2021-09-24 14:49:11.439561,58
2021-09-24 14:49:11.439568,34
2021-09-24 14:49:11.439574,24
2021-09-24 14:49:11.439581,34
2021-09-24 14:49:11.439587,29
2021-09-24 14:49:11.710589,26
2021-09-24 14:49:11.710613,53
2021-09-24 14:49:11.710621,70
2021-09-24 14:49:11.710627,58
2021-09-24 14:49:11.710634,55
2021-09-24 14:49:11.710640,58
2021-09-24 14:49:11.710678,46
2021-09-24 14:49:11.710685,43
2021-09-24 14:49:11.710691,53
2021-09-24 14:49:11.710697,46
2021-09-24 14:49:11.710704,26
2021-09-24 14:49:11.710710,19
2021-09-24 14:49:11.710717,-2
2021-09-24 14:49:11.710723,-53
2021-09-24 14:49:11.710730,-170
2021-09-24 14:49:11.710736,-405
2021-09-24 14:49:11.710742,-575
2021-09-24 14:49:11.710749,-391
2021-09-24 14:49:11.710755,131
2021-09-24 14:49:11.710762,626
2021-09-24 14:49:11.710768,602
2021-09-24 14:49:11.710775,208
2021-09-24 14:49:11.710781,65
2021-09-24 14:49:11.710787,89
2021-09-24 14:49:11.710794,-26
2021-09-24 14:49:11.710800,-99
2021-09-24 14:49:11.710807,-65
2021-09-24 14:49:11.710813,-85
2021-09-24 14:49:11.710820,-123
2021-09-24 14:49:11.710826,-119
2021-09-24 14:49:11.846172,-119
2021-09-24 14:49:11.846194,-136
2021-09-24 14:49:11.846202,-140
2021-09-24 14:49:11.846219,-153
2021-09-24 14:49:11.846226,-170
2021-09-24 14:49:11.846232,-184
2021-09-24 14:49:11.846239,-201
2021-09-24 14:49:11.846245,-221
2021-09-24 14:49:11.846252,-240
2021-09-24 14:49:11.846258,-272
2021-09-24 14:49:11.846265,-313
2021-09-24 14:49:11.846271,-352
2021-09-24 14:49:11.846278,-381
2021-09-24 14:49:11.846284,-410
2021-09-24 14:49:11.846291,-434
2021-09-24 14:49:11.846297,-442
2021-09-24 14:49:11.846304,-434
2021-09-24 14:49:11.846310,-410
2021-09-24 14:49:11.846317,-359
2021-09-24 14:49:11.846323,-276
2021-09-24 14:49:11.846330,-172
2021-09-24 14:49:11.846336,-68
2021-09-24 14:49:11.846343,26
2021-09-24 14:49:11.846349,106
2021-09-24 14:49:11.846356,174
2021-09-24 14:49:11.846362,218
2021-09-24 14:49:11.846369,235
2021-09-24 14:49:11.846375,242
2021-09-24 14:49:11.846382,240
2021-09-24 14:49:11.846388,225
2021-09-24 14:49:12.071187,218
2021-09-24 14:49:12.071210,213
2021-09-24 14:49:12.071219,204
2021-09-24 14:49:12.071226,187
2021-09-24 14:49:12.071233,174
2021-09-24 14:49:12.071239,170
2021-09-24 14:49:12.071246,162
2021-09-24 14:49:12.071253,150
2021-09-24 14:49:12.071260,140
2021-09-24 14:49:12.071266,126
2021-09-24 14:49:12.071273,111
2021-09-24 14:49:12.071280,109
2021-09-24 14:49:12.071287,104
2021-09-24 14:49:12.071294,99
2021-09-24 14:49:12.071301,89
2021-09-24 14:49:12.071307,70
2021-09-24 14:49:12.071314,63
2021-09-24 14:49:12.071321,70
2021-09-24 14:49:12.071328,77
2021-09-24 14:49:12.071334,82
2021-09-24 14:49:12.071341,80
2021-09-24 14:49:12.071348,75
2021-09-24 14:49:12.071355,77
2021-09-24 14:49:12.071372,82
2021-09-24 14:49:12.071379,85
2021-09-24 14:49:12.071389,85
2021-09-24 14:49:12.071396,82
2021-09-24 14:49:12.071403,77
2021-09-24 14:49:12.071410,77
2021-09-24 14:49:12.071431,85
2021-09-24 14:49:12.341177,85
2021-09-24 14:49:12.341201,77
2021-09-24 14:49:12.341209,65
2021-09-24 14:49:12.341215,60
2021-09-24 14:49:12.341222,55
2021-09-24 14:49:12.341229,58
2021-09-24 14:49:12.341235,65
2021-09-24 14:49:12.341242,63
2021-09-24 14:49:12.341248,53
2021-09-24 14:49:12.341255,46
2021-09-24 14:49:12.341261,51
2021-09-24 14:49:12.341268,60
2021-09-24 14:49:12.341274,58
2021-09-24 14:49:12.341281,41
2021-09-24 14:49:12.341287,24
2021-09-24 14:49:12.341294,21
2021-09-24 14:49:12.341300,26
2021-09-24 14:49:12.341307,21
2021-09-24 14:49:12.341323,19
2021-09-24 14:49:12.341330,36
2021-09-24 14:49:12.341337,55
2021-09-24 14:49:12.341343,60
2021-09-24 14:49:12.341350,58
2021-09-24 14:49:12.341356,63
2021-09-24 14:49:12.341362,70
2021-09-24 14:49:12.341369,68
2021-09-24 14:49:12.341375,58
2021-09-24 14:49:12.341382,55
2021-09-24 14:49:12.341388,60
2021-09-24 14:49:12.341395,55
2021-09-24 14:49:12.566194,34
2021-09-24 14:49:12.566217,-17
2021-09-24 14:49:12.566225,-153
2021-09-24 14:49:12.566232,-417
2021-09-24 14:49:12.566239,-595
2021-09-24 14:49:12.566246,-391
2021-09-24 14:49:12.566252,133
2021-09-24 14:49:12.566259,626
2021-09-24 14:49:12.566265,624
2021-09-24 14:49:12.566272,225
2021-09-24 14:49:12.566278,60
2021-09-24 14:49:12.566285,87
2021-09-24 14:49:12.566291,-19
2021-09-24 14:49:12.566313,-92
2021-09-24 14:49:12.566320,-65
2021-09-24 14:49:12.566327,-82
2021-09-24 14:49:12.566334,-109
2021-09-24 14:49:12.566340,-102
2021-09-24 14:49:12.566347,-109
2021-09-24 14:49:12.566353,-126
2021-09-24 14:49:12.566360,-140
2021-09-24 14:49:12.566366,-160
2021-09-24 14:49:12.566373,-170
2021-09-24 14:49:12.566380,-174
2021-09-24 14:49:12.566386,-189
2021-09-24 14:49:12.566393,-213
2021-09-24 14:49:12.566399,-240
2021-09-24 14:49:12.566406,-267
2021-09-24 14:49:12.566413,-296
2021-09-24 14:49:12.566419,-327
2021-09-24 14:49:12.836383,-364
2021-09-24 14:49:12.836406,-398
2021-09-24 14:49:12.836414,-422
2021-09-24 14:49:12.836421,-432
2021-09-24 14:49:12.836428,-425
2021-09-24 14:49:12.836434,-405
2021-09-24 14:49:12.836440,-364
2021-09-24 14:49:12.836447,-296
2021-09-24 14:49:12.836453,-204
2021-09-24 14:49:12.836460,-92
2021-09-24 14:49:12.836466,14
2021-09-24 14:49:12.836473,99
2021-09-24 14:49:12.836479,157
2021-09-24 14:49:12.836486,196
2021-09-24 14:49:12.836492,213
2021-09-24 14:49:12.836498,221
2021-09-24 14:49:12.836505,225
2021-09-24 14:49:12.836511,230
2021-09-24 14:49:12.836518,225
2021-09-24 14:49:12.836524,218
2021-09-24 14:49:12.836531,206
2021-09-24 14:49:12.836537,196
2021-09-24 14:49:12.836543,189
2021-09-24 14:49:12.836550,184
2021-09-24 14:49:12.836556,174
2021-09-24 14:49:12.836563,157
2021-09-24 14:49:12.836569,140
2021-09-24 14:49:12.836575,128
2021-09-24 14:49:12.836582,116
2021-09-24 14:49:12.836588,109
2021-09-24 14:49:13.016203,104
2021-09-24 14:49:13.016228,99
2021-09-24 14:49:13.016236,92
2021-09-24 14:49:13.016254,87
2021-09-24 14:49:13.016261,85
2021-09-24 14:49:13.016268,87
2021-09-24 14:49:13.016275,87
2021-09-24 14:49:13.016282,80
2021-09-24 14:49:13.016289,70
2021-09-24 14:49:13.016296,72
2021-09-24 14:49:13.016302,77
2021-09-24 14:49:13.016309,77
2021-09-24 14:49:13.016316,70
2021-09-24 14:49:13.016323,60
2021-09-24 14:49:13.016330,65
2021-09-24 14:49:13.016337,70
2021-09-24 14:49:13.016344,72
2021-09-24 14:49:13.016351,68
2021-09-24 14:49:13.016358,58
2021-09-24 14:49:13.016365,55
2021-09-24 14:49:13.016371,58
2021-09-24 14:49:13.016378,55
2021-09-24 14:49:13.016385,53
2021-09-24 14:49:13.016392,55
2021-09-24 14:49:13.016399,55
2021-09-24 14:49:13.016406,48
2021-09-24 14:49:13.016413,34
2021-09-24 14:49:13.016420,26
2021-09-24 14:49:13.016427,34
2021-09-24 14:49:13.016434,38
2021-09-24 14:49:13.331251,36
2021-09-24 14:49:13.331273,26
2021-09-24 14:49:13.331281,9
2021-09-24 14:49:13.331288,-2
2021-09-24 14:49:13.331294,4
2021-09-24 14:49:13.331301,9
2021-09-24 14:49:13.331307,-4
2021-09-24 14:49:13.331314,-2
2021-09-24 14:49:13.331320,21
2021-09-24 14:49:13.331327,36
2021-09-24 14:49:13.331333,29
2021-09-24 14:49:13.331340,26
2021-09-24 14:49:13.331346,29
2021-09-24 14:49:13.331353,26
2021-09-24 14:49:13.331359,29
2021-09-24 14:49:13.331366,29
2021-09-24 14:49:13.331372,29
2021-09-24 14:49:13.331379,29
2021-09-24 14:49:13.331385,21
2021-09-24 14:49:13.331392,-7
2021-09-24 14:49:13.331398,-68
2021-09-24 14:49:13.331405,-235
2021-09-24 14:49:13.331411,-505
2021-09-24 14:49:13.331427,-597
2021-09-24 14:49:13.331437,-286
2021-09-24 14:49:13.331444,286
2021-09-24 14:49:13.331451,677
2021-09-24 14:49:13.331457,497
2021-09-24 14:49:13.331464,128
2021-09-24 14:49:13.331470,68
2021-09-24 14:49:13.509879,55
2021-09-24 14:49:13.509902,-63
2021-09-24 14:49:13.509911,-89
2021-09-24 14:49:13.509918,-60
2021-09-24 14:49:13.509925,-89
2021-09-24 14:49:13.509932,-121
2021-09-24 14:49:13.509939,-123
2021-09-24 14:49:13.509946,-128
2021-09-24 14:49:13.509953,-140
2021-09-24 14:49:13.509959,-153
2021-09-24 14:49:13.509966,-160
2021-09-24 14:49:13.509973,-174
2021-09-24 14:49:13.509980,-196
2021-09-24 14:49:13.509987,-213
2021-09-24 14:49:13.509994,-228
2021-09-24 14:49:13.510001,-252
2021-09-24 14:49:13.510008,-286
2021-09-24 14:49:13.510015,-325
2021-09-24 14:49:13.510021,-359
2021-09-24 14:49:13.510028,-386
2021-09-24 14:49:13.510035,-412
2021-09-24 14:49:13.510042,-432
2021-09-24 14:49:13.510049,-439
2021-09-24 14:49:13.510056,-434
2021-09-24 14:49:13.510062,-403
2021-09-24 14:49:13.510069,-342
2021-09-24 14:49:13.510076,-264
2021-09-24 14:49:13.510083,-167
2021-09-24 14:49:13.510090,-55
2021-09-24 14:49:13.510097,36
2021-09-24 14:49:13.691195,109
2021-09-24 14:49:13.691217,172
2021-09-24 14:49:13.691225,199
2021-09-24 14:49:13.691231,199
2021-09-24 14:49:13.691238,204
2021-09-24 14:49:13.691244,213
2021-09-24 14:49:13.691251,206
2021-09-24 14:49:13.691257,194
2021-09-24 14:49:13.691264,191
2021-09-24 14:49:13.691271,182
2021-09-24 14:49:13.691277,165
2021-09-24 14:49:13.691284,150
2021-09-24 14:49:13.691290,145
2021-09-24 14:49:13.691306,138
2021-09-24 14:49:13.691313,121
2021-09-24 14:49:13.691320,109
2021-09-24 14:49:13.691327,99
2021-09-24 14:49:13.691333,89
2021-09-24 14:49:13.691340,89
2021-09-24 14:49:13.691346,92
2021-09-24 14:49:13.691353,85
2021-09-24 14:49:13.691359,80
2021-09-24 14:49:13.691366,77
2021-09-24 14:49:13.691372,70
2021-09-24 14:49:13.691379,65
2021-09-24 14:49:13.691385,68
2021-09-24 14:49:13.691392,65
2021-09-24 14:49:13.691398,58
2021-09-24 14:49:13.691405,60
2021-09-24 14:49:13.691412,63
2021-09-24 14:49:13.916334,60
2021-09-24 14:49:13.916365,63
2021-09-24 14:49:13.916378,65
2021-09-24 14:49:13.916388,58
2021-09-24 14:49:13.916398,46
2021-09-24 14:49:13.916408,41
2021-09-24 14:49:13.916418,43
2021-09-24 14:49:13.916428,48
2021-09-24 14:49:13.916438,48
2021-09-24 14:49:13.916448,41
2021-09-24 14:49:13.916458,36
2021-09-24 14:49:13.916468,38
2021-09-24 14:49:13.916478,36
2021-09-24 14:49:13.916488,34
2021-09-24 14:49:13.916498,34
2021-09-24 14:49:13.916508,34
2021-09-24 14:49:13.916518,24
2021-09-24 14:49:13.916528,24
2021-09-24 14:49:13.916538,26
2021-09-24 14:49:13.916548,29
2021-09-24 14:49:13.916558,41
2021-09-24 14:49:13.916568,36
2021-09-24 14:49:13.916578,12
2021-09-24 14:49:13.916588,-2
2021-09-24 14:49:13.916598,0
2021-09-24 14:49:13.916609,7
2021-09-24 14:49:13.916619,2
2021-09-24 14:49:13.916629,-9
2021-09-24 14:49:13.916639,2
2021-09-24 14:49:13.916649,34
2021-09-24 14:49:14.185927,53
2021-09-24 14:49:14.185949,55
2021-09-24 14:49:14.185957,51
2021-09-24 14:49:14.185974,41
2021-09-24 14:49:14.185981,36
2021-09-24 14:49:14.185988,41
2021-09-24 14:49:14.185994,48
2021-09-24 14:49:14.186001,46
2021-09-24 14:49:14.186007,24
2021-09-24 14:49:14.186014,-12
2021-09-24 14:49:14.186020,-53
2021-09-24 14:49:14.186027,-121
2021-09-24 14:49:14.186034,-310
2021-09-24 14:49:14.186040,-558
2021-09-24 14:49:14.186046,-553
2021-09-24 14:49:14.186053,-148
2021-09-24 14:49:14.186059,432
2021-09-24 14:49:14.186066,668
2021-09-24 14:49:14.186073,342
2021-09-24 14:49:14.186079,55
2021-09-24 14:49:14.186086,75
2021-09-24 14:49:14.186092,14
2021-09-24 14:49:14.186099,-109
2021-09-24 14:49:14.186105,-102
2021-09-24 14:49:14.186112,-85
2021-09-24 14:49:14.186118,-121
2021-09-24 14:49:14.186125,-128
2021-09-24 14:49:14.186131,-128
2021-09-24 14:49:14.186138,-145
2021-09-24 14:49:14.186144,-153
2021-09-24 14:49:14.455935,-160
2021-09-24 14:49:14.455964,-172
2021-09-24 14:49:14.455973,-189
2021-09-24 14:49:14.455980,-211
2021-09-24 14:49:14.455986,-233
2021-09-24 14:49:14.455993,-245
2021-09-24 14:49:14.455999,-264
2021-09-24 14:49:14.456006,-293
2021-09-24 14:49:14.456012,-332
2021-09-24 14:49:14.456019,-383
2021-09-24 14:49:14.456025,-412
2021-09-24 14:49:14.456031,-425
2021-09-24 14:49:14.456038,-437
2021-09-24 14:49:14.456044,-444
2021-09-24 14:49:14.456051,-427
2021-09-24 14:49:14.456058,-391
2021-09-24 14:49:14.456064,-327
2021-09-24 14:49:14.456071,-238
2021-09-24 14:49:14.456077,-133
2021-09-24 14:49:14.456084,-34
2021-09-24 14:49:14.456090,41
2021-09-24 14:49:14.456097,109
2021-09-24 14:49:14.456103,167
2021-09-24 14:49:14.456110,204
2021-09-24 14:49:14.456116,221
2021-09-24 14:49:14.456123,223
2021-09-24 14:49:14.456129,218
2021-09-24 14:49:14.456136,213
2021-09-24 14:49:14.456142,208
2021-09-24 14:49:14.456149,199
2021-09-24 14:49:14.680593,194
2021-09-24 14:49:14.680612,189
2021-09-24 14:49:14.680618,172
2021-09-24 14:49:14.680624,153
2021-09-24 14:49:14.680629,148
2021-09-24 14:49:14.680634,143
2021-09-24 14:49:14.680640,136
2021-09-24 14:49:14.680645,123
2021-09-24 14:49:14.680650,109
2021-09-24 14:49:14.680655,102
2021-09-24 14:49:14.680660,104
2021-09-24 14:49:14.680666,99
2021-09-24 14:49:14.680671,92
2021-09-24 14:49:14.680676,85
2021-09-24 14:49:14.680713,70
2021-09-24 14:49:14.680718,63
2021-09-24 14:49:14.680723,65
2021-09-24 14:49:14.680728,65
2021-09-24 14:49:14.680734,65
2021-09-24 14:49:14.680739,68
2021-09-24 14:49:14.680744,63
2021-09-24 14:49:14.680749,51
2021-09-24 14:49:14.680754,46
2021-09-24 14:49:14.680760,48
2021-09-24 14:49:14.680765,48
2021-09-24 14:49:14.680770,43
2021-09-24 14:49:14.680775,46
2021-09-24 14:49:14.680780,51
2021-09-24 14:49:14.680785,46
2021-09-24 14:49:14.680790,41
2021-09-24 14:49:14.861415,48
2021-09-24 14:49:14.861447,53
2021-09-24 14:49:14.861459,51
2021-09-24 14:49:14.861470,55
2021-09-24 14:49:14.861480,58
2021-09-24 14:49:14.861490,48
2021-09-24 14:49:14.861500,31
2021-09-24 14:49:14.861510,24
2021-09-24 14:49:14.861520,34
2021-09-24 14:49:14.861530,34
2021-09-24 14:49:14.861540,29
2021-09-24 14:49:14.861550,41
2021-09-24 14:49:14.861560,55
2021-09-24 14:49:14.861584,51
2021-09-24 14:49:14.861595,43
2021-09-24 14:49:14.861637,36
2021-09-24 14:49:14.861647,24
2021-09-24 14:49:14.861657,19
2021-09-24 14:49:14.861667,9
2021-09-24 14:49:14.861677,0
2021-09-24 14:49:14.861687,4
2021-09-24 14:49:14.861697,7
2021-09-24 14:49:14.861708,-9
2021-09-24 14:49:14.861717,-51
2021-09-24 14:49:14.861727,-126
2021-09-24 14:49:14.861738,-293
2021-09-24 14:49:14.861747,-524
2021-09-24 14:49:14.861757,-541
2021-09-24 14:49:14.861767,-160
2021-09-24 14:49:14.861777,422
2021-09-24 14:49:15.086361,687
2021-09-24 14:49:15.086386,386
2021-09-24 14:49:15.086394,75
2021-09-24 14:49:15.086401,72
2021-09-24 14:49:15.086408,34
2021-09-24 14:49:15.086415,-94
2021-09-24 14:49:15.086422,-116
2021-09-24 14:49:15.086429,-97
2021-09-24 14:49:15.086436,-121
2021-09-24 14:49:15.086442,-136
2021-09-24 14:49:15.086449,-131
2021-09-24 14:49:15.086456,-140
2021-09-24 14:49:15.086463,-162
2021-09-24 14:49:15.086470,-174
2021-09-24 14:49:15.086476,-177
2021-09-24 14:49:15.086483,-191
2021-09-24 14:49:15.086490,-208
2021-09-24 14:49:15.086497,-223
2021-09-24 14:49:15.086504,-250
2021-09-24 14:49:15.086510,-284
2021-09-24 14:49:15.086517,-315
2021-09-24 14:49:15.086524,-347
2021-09-24 14:49:15.086531,-381
2021-09-24 14:49:15.086538,-408
2021-09-24 14:49:15.086545,-427
2021-09-24 14:49:15.086551,-437
2021-09-24 14:49:15.086558,-442
2021-09-24 14:49:15.086565,-429
2021-09-24 14:49:15.086572,-383
2021-09-24 14:49:15.086579,-308
2021-09-24 14:49:15.311255,-221
2021-09-24 14:49:15.311278,-121
2021-09-24 14:49:15.311286,-12
2021-09-24 14:49:15.311293,75
2021-09-24 14:49:15.311299,140
2021-09-24 14:49:15.311306,189
2021-09-24 14:49:15.311312,211
2021-09-24 14:49:15.311318,223
2021-09-24 14:49:15.311331,235
2021-09-24 14:49:15.311339,235
2021-09-24 14:49:15.311345,230
2021-09-24 14:49:15.311352,223
2021-09-24 14:49:15.311358,211
2021-09-24 14:49:15.311364,199
2021-09-24 14:49:15.311371,187
2021-09-24 14:49:15.311377,179
2021-09-24 14:49:15.311384,170
2021-09-24 14:49:15.311390,153
2021-09-24 14:49:15.311396,143
2021-09-24 14:49:15.311403,148
2021-09-24 14:49:15.311409,143
2021-09-24 14:49:15.311416,123
2021-09-24 14:49:15.311422,116
2021-09-24 14:49:15.311428,119
2021-09-24 14:49:15.311435,116
2021-09-24 14:49:15.311441,109
2021-09-24 14:49:15.311448,106
2021-09-24 14:49:15.311454,102
2021-09-24 14:49:15.311460,97
2021-09-24 14:49:15.311467,89
2021-09-24 14:49:15.579910,87
2021-09-24 14:49:15.579933,87
2021-09-24 14:49:15.579941,85
2021-09-24 14:49:15.579948,80
2021-09-24 14:49:15.579954,70
2021-09-24 14:49:15.579961,63
2021-09-24 14:49:15.579968,70
2021-09-24 14:49:15.579974,80
2021-09-24 14:49:15.579981,72
2021-09-24 14:49:15.579987,63
2021-09-24 14:49:15.579994,63
2021-09-24 14:49:15.580000,58
2021-09-24 14:49:15.580007,58
2021-09-24 14:49:15.580014,65
2021-09-24 14:49:15.580020,65
2021-09-24 14:49:15.580027,58
2021-09-24 14:49:15.580034,63
2021-09-24 14:49:15.580040,72
2021-09-24 14:49:15.580047,77
2021-09-24 14:49:15.580053,77
2021-09-24 14:49:15.580060,63
2021-09-24 14:49:15.580066,41
2021-09-24 14:49:15.580073,36
2021-09-24 14:49:15.580080,43
2021-09-24 14:49:15.580086,24
2021-09-24 14:49:15.580093,12
2021-09-24 14:49:15.580099,38
2021-09-24 14:49:15.580106,60
2021-09-24 14:49:15.580113,53
2021-09-24 14:49:15.580119,53
2021-09-24 14:49:15.761246,55
2021-09-24 14:49:15.761267,43
2021-09-24 14:49:15.761275,36
2021-09-24 14:49:15.761282,31
2021-09-24 14:49:15.761288,19
2021-09-24 14:49:15.761295,14
2021-09-24 14:49:15.761301,21
2021-09-24 14:49:15.761308,0
2021-09-24 14:49:15.761314,-65
2021-09-24 14:49:15.761321,-213
2021-09-24 14:49:15.761327,-463
2021-09-24 14:49:15.761334,-580
2021-09-24 14:49:15.761340,-325
2021-09-24 14:49:15.761347,204
2021-09-24 14:49:15.761353,643
2021-09-24 14:49:15.761360,561
2021-09-24 14:49:15.761366,165
2021-09-24 14:49:15.761373,53
2021-09-24 14:49:15.761379,85
2021-09-24 14:49:15.761386,-34
2021-09-24 14:49:15.761392,-97
2021-09-24 14:49:15.761398,-65
2021-09-24 14:49:15.761405,-87
2021-09-24 14:49:15.761411,-114
2021-09-24 14:49:15.761418,-104
2021-09-24 14:49:15.761424,-109
2021-09-24 14:49:15.761431,-128
2021-09-24 14:49:15.761437,-133
2021-09-24 14:49:15.761444,-140
2021-09-24 14:49:15.761450,-155
2021-09-24 14:49:16.031233,-167
2021-09-24 14:49:16.031257,-179
2021-09-24 14:49:16.031265,-208
2021-09-24 14:49:16.031272,-245
2021-09-24 14:49:16.031278,-279
2021-09-24 14:49:16.031285,-310
2021-09-24 14:49:16.031292,-340
2021-09-24 14:49:16.031298,-369
2021-09-24 14:49:16.031305,-400
2021-09-24 14:49:16.031311,-427
2021-09-24 14:49:16.031318,-434
2021-09-24 14:49:16.031324,-420
2021-09-24 14:49:16.031331,-388
2021-09-24 14:49:16.031349,-332
2021-09-24 14:49:16.031355,-245
2021-09-24 14:49:16.031362,-140
2021-09-24 14:49:16.031369,-36
2021-09-24 14:49:16.031375,58
2021-09-24 14:49:16.031382,140
2021-09-24 14:49:16.031388,201
2021-09-24 14:49:16.031395,235
2021-09-24 14:49:16.031402,252
2021-09-24 14:49:16.031408,269
2021-09-24 14:49:16.031415,276
2021-09-24 14:49:16.031421,274
2021-09-24 14:49:16.031428,269
2021-09-24 14:49:16.031434,269
2021-09-24 14:49:16.031441,257
2021-09-24 14:49:16.031448,238
2021-09-24 14:49:16.031454,228
2021-09-24 14:49:16.256252,211
2021-09-24 14:49:16.256277,187
2021-09-24 14:49:16.256285,172
2021-09-24 14:49:16.256292,160
2021-09-24 14:49:16.256298,148
2021-09-24 14:49:16.256305,136
2021-09-24 14:49:16.256311,131
2021-09-24 14:49:16.256318,123
2021-09-24 14:49:16.256324,109
2021-09-24 14:49:16.256331,92
2021-09-24 14:49:16.256337,89
2021-09-24 14:49:16.256344,92
2021-09-24 14:49:16.256350,94
2021-09-24 14:49:16.256357,94
2021-09-24 14:49:16.256363,85
2021-09-24 14:49:16.256380,77
2021-09-24 14:49:16.256387,80
2021-09-24 14:49:16.256393,82
2021-09-24 14:49:16.256400,80
2021-09-24 14:49:16.256406,75
2021-09-24 14:49:16.256412,70
2021-09-24 14:49:16.256419,65
2021-09-24 14:49:16.256425,65
2021-09-24 14:49:16.256432,72
2021-09-24 14:49:16.256438,72
2021-09-24 14:49:16.256445,70
2021-09-24 14:49:16.256451,68
2021-09-24 14:49:16.256457,63
2021-09-24 14:49:16.256464,60
2021-09-24 14:49:16.256470,63
2021-09-24 14:49:16.525920,70
2021-09-24 14:49:16.525941,68
2021-09-24 14:49:16.525948,58
2021-09-24 14:49:16.525954,60
2021-09-24 14:49:16.525960,68
2021-09-24 14:49:16.525966,70
2021-09-24 14:49:16.525972,58
2021-09-24 14:49:16.525977,38
2021-09-24 14:49:16.525983,14
2021-09-24 14:49:16.525989,4
2021-09-24 14:49:16.525994,12
2021-09-24 14:49:16.526000,9
2021-09-24 14:49:16.526006,7
2021-09-24 14:49:16.526012,14
2021-09-24 14:49:16.526018,24
2021-09-24 14:49:16.526043,38
2021-09-24 14:49:16.526049,51
2021-09-24 14:49:16.526055,48
2021-09-24 14:49:16.526061,46
2021-09-24 14:49:16.526066,51
2021-09-24 14:49:16.526072,46
2021-09-24 14:49:16.526078,43
2021-09-24 14:49:16.526083,48
2021-09-24 14:49:16.526089,46
2021-09-24 14:49:16.526095,24
2021-09-24 14:49:16.526100,-19
2021-09-24 14:49:16.526106,-119
2021-09-24 14:49:16.526112,-344
2021-09-24 14:49:16.526118,-558
2021-09-24 14:49:16.526123,-456
2021-09-24 14:49:16.750622,-17
2021-09-24 14:49:16.750646,510
2021-09-24 14:49:16.750654,685
2021-09-24 14:49:16.750661,347
2021-09-24 14:49:16.750667,77
2021-09-24 14:49:16.750706,89
2021-09-24 14:49:16.750712,9
2021-09-24 14:49:16.750719,-102
2021-09-24 14:49:16.750725,-85
2021-09-24 14:49:16.750732,-77
2021-09-24 14:49:16.750738,-111
2021-09-24 14:49:16.750745,-116
2021-09-24 14:49:16.750751,-119
2021-09-24 14:49:16.750758,-138
2021-09-24 14:49:16.750764,-148
2021-09-24 14:49:16.750770,-153
2021-09-24 14:49:16.750777,-167
2021-09-24 14:49:16.750783,-177
2021-09-24 14:49:16.750790,-189
2021-09-24 14:49:16.750796,-221
2021-09-24 14:49:16.750803,-247
2021-09-24 14:49:16.750809,-262
2021-09-24 14:49:16.750816,-291
2021-09-24 14:49:16.750832,-330
2021-09-24 14:49:16.750839,-364
2021-09-24 14:49:16.750845,-391
2021-09-24 14:49:16.750851,-412
2021-09-24 14:49:16.750858,-427
2021-09-24 14:49:16.750864,-422
2021-09-24 14:49:16.750871,-403
2021-09-24 14:49:16.930883,-366
2021-09-24 14:49:16.930906,-301
2021-09-24 14:49:16.930914,-199
2021-09-24 14:49:16.930920,-87
2021-09-24 14:49:16.930927,17
2021-09-24 14:49:16.930933,104
2021-09-24 14:49:16.930940,162
2021-09-24 14:49:16.930946,201
2021-09-24 14:49:16.930953,235
2021-09-24 14:49:16.930959,250
2021-09-24 14:49:16.930966,242
2021-09-24 14:49:16.930972,235
2021-09-24 14:49:16.930979,233
2021-09-24 14:49:16.930985,223
2021-09-24 14:49:16.930991,218
2021-09-24 14:49:16.930998,211
2021-09-24 14:49:16.931004,201
2021-09-24 14:49:16.931011,194
2021-09-24 14:49:16.931017,184
2021-09-24 14:49:16.931024,172
2021-09-24 14:49:16.931030,160
2021-09-24 14:49:16.931037,143
2021-09-24 14:49:16.931043,133
2021-09-24 14:49:16.931049,128
2021-09-24 14:49:16.931056,121
2021-09-24 14:49:16.931062,114
2021-09-24 14:49:16.931069,114
2021-09-24 14:49:16.931075,111
2021-09-24 14:49:16.931081,109
2021-09-24 14:49:16.931088,104
2021-09-24 14:49:17.201236,97
2021-09-24 14:49:17.201260,99
2021-09-24 14:49:17.201268,104
2021-09-24 14:49:17.201275,102
2021-09-24 14:49:17.201281,102
2021-09-24 14:49:17.201288,99
2021-09-24 14:49:17.201294,85
2021-09-24 14:49:17.201301,80
2021-09-24 14:49:17.201307,82
2021-09-24 14:49:17.201314,75
2021-09-24 14:49:17.201320,70
2021-09-24 14:49:17.201327,70
2021-09-24 14:49:17.201333,55
2021-09-24 14:49:17.201351,38
2021-09-24 14:49:17.201358,38
2021-09-24 14:49:17.201364,46
2021-09-24 14:49:17.201371,46
2021-09-24 14:49:17.201378,43
2021-09-24 14:49:17.201384,41
2021-09-24 14:49:17.201391,41
2021-09-24 14:49:17.201397,38
2021-09-24 14:49:17.201407,41
2021-09-24 14:49:17.201414,41
2021-09-24 14:49:17.201420,38
2021-09-24 14:49:17.201427,38
2021-09-24 14:49:17.201434,43
2021-09-24 14:49:17.201440,46
2021-09-24 14:49:17.201447,46
2021-09-24 14:49:17.201453,43
2021-09-24 14:49:17.201460,31
2021-09-24 14:49:17.381370,12
2021-09-24 14:49:17.381393,12
2021-09-24 14:49:17.381401,17
2021-09-24 14:49:17.381408,7
2021-09-24 14:49:17.381414,4
2021-09-24 14:49:17.381421,19
2021-09-24 14:49:17.381427,38
2021-09-24 14:49:17.381434,55
2021-09-24 14:49:17.381440,58
2021-09-24 14:49:17.381447,51
2021-09-24 14:49:17.381453,51
2021-09-24 14:49:17.381459,46
2021-09-24 14:49:17.381466,38
2021-09-24 14:49:17.381472,41
2021-09-24 14:49:17.381479,38
2021-09-24 14:49:17.381485,26
2021-09-24 14:49:17.381491,7
2021-09-24 14:49:17.381498,-36
2021-09-24 14:49:17.381504,-140
2021-09-24 14:49:17.381511,-364
2021-09-24 14:49:17.381517,-583
2021-09-24 14:49:17.381524,-488
2021-09-24 14:49:17.381530,-43
2021-09-24 14:49:17.381537,495
2021-09-24 14:49:17.381543,670
2021-09-24 14:49:17.381550,323
2021-09-24 14:49:17.381556,55
2021-09-24 14:49:17.381562,75
2021-09-24 14:49:17.381569,4
2021-09-24 14:49:17.381575,-94
2021-09-24 14:49:17.649901,-75
2021-09-24 14:49:17.649925,-65
2021-09-24 14:49:17.649933,-102
2021-09-24 14:49:17.649940,-109
2021-09-24 14:49:17.649947,-119
2021-09-24 14:49:17.649953,-138
2021-09-24 14:49:17.649960,-136
2021-09-24 14:49:17.649966,-140
2021-09-24 14:49:17.649973,-160
2021-09-24 14:49:17.649979,-177
2021-09-24 14:49:17.649986,-196
2021-09-24 14:49:17.649992,-216
2021-09-24 14:49:17.649999,-230
2021-09-24 14:49:17.650005,-255
2021-09-24 14:49:17.650012,-289
2021-09-24 14:49:17.650018,-320
2021-09-24 14:49:17.650025,-354
2021-09-24 14:49:17.650031,-393
2021-09-24 14:49:17.650038,-422
2021-09-24 14:49:17.650075,-437
2021-09-24 14:49:17.650082,-439
2021-09-24 14:49:17.650088,-422
2021-09-24 14:49:17.650095,-383
2021-09-24 14:49:17.650101,-310
2021-09-24 14:49:17.650108,-216
2021-09-24 14:49:17.650114,-109
2021-09-24 14:49:17.650121,-7
2021-09-24 14:49:17.650127,75
2021-09-24 14:49:17.650134,140
2021-09-24 14:49:17.650140,194
2021-09-24 14:49:17.966166,228
2021-09-24 14:49:17.966188,245
2021-09-24 14:49:17.966196,245
2021-09-24 14:49:17.966202,230
2021-09-24 14:49:17.966209,221
2021-09-24 14:49:17.966215,223
2021-09-24 14:49:17.966222,223
2021-09-24 14:49:17.966229,211
2021-09-24 14:49:17.966235,199
2021-09-24 14:49:17.966242,184
2021-09-24 14:49:17.966248,162
2021-09-24 14:49:17.966255,148
2021-09-24 14:49:17.966261,148
2021-09-24 14:49:17.966268,140
2021-09-24 14:49:17.966274,121
2021-09-24 14:49:17.966281,114
2021-09-24 14:49:17.966287,116
2021-09-24 14:49:17.966294,104
2021-09-24 14:49:17.966300,97
2021-09-24 14:49:17.966307,97
2021-09-24 14:49:17.966313,87
2021-09-24 14:49:17.966320,80
2021-09-24 14:49:17.966327,85
2021-09-24 14:49:17.966342,92
2021-09-24 14:49:17.966349,92
2021-09-24 14:49:17.966355,89
2021-09-24 14:49:17.966362,82
2021-09-24 14:49:17.966369,75
2021-09-24 14:49:17.966375,72
2021-09-24 14:49:17.966382,72
2021-09-24 14:49:18.101181,68
2021-09-24 14:49:18.101203,70
2021-09-24 14:49:18.101210,70
2021-09-24 14:49:18.101217,65
2021-09-24 14:49:18.101224,60
2021-09-24 14:49:18.101230,60
2021-09-24 14:49:18.101236,63
2021-09-24 14:49:18.101243,68
2021-09-24 14:49:18.101249,63
2021-09-24 14:49:18.101256,53
2021-09-24 14:49:18.101262,53
2021-09-24 14:49:18.101268,58
2021-09-24 14:49:18.101275,55
2021-09-24 14:49:18.101281,51
2021-09-24 14:49:18.101288,51
2021-09-24 14:49:18.101294,46
2021-09-24 14:49:18.101300,43
2021-09-24 14:49:18.101307,46
2021-09-24 14:49:18.101313,48
2021-09-24 14:49:18.101319,55
2021-09-24 14:49:18.101326,53
2021-09-24 14:49:18.101332,34
2021-09-24 14:49:18.101339,19
2021-09-24 14:49:18.101345,7
2021-09-24 14:49:18.101351,-4
2021-09-24 14:49:18.101358,-9
2021-09-24 14:49:18.101364,-17
2021-09-24 14:49:18.101380,-24
2021-09-24 14:49:18.101387,-2
2021-09-24 14:49:18.101394,21
2021-09-24 14:49:18.371365,34
2021-09-24 14:49:18.371395,31
2021-09-24 14:49:18.371407,26
2021-09-24 14:49:18.371417,24
2021-09-24 14:49:18.371427,31
2021-09-24 14:49:18.371437,34
2021-09-24 14:49:18.371447,34
2021-09-24 14:49:18.371457,34
2021-09-24 14:49:18.371466,24
2021-09-24 14:49:18.371476,0
2021-09-24 14:49:18.371487,-36
2021-09-24 14:49:18.371497,-126
2021-09-24 14:49:18.371507,-352
2021-09-24 14:49:18.371530,-587
2021-09-24 14:49:18.371541,-500
2021-09-24 14:49:18.371551,-34
2021-09-24 14:49:18.371648,512
2021-09-24 14:49:18.371708,658
2021-09-24 14:49:18.371716,306
2021-09-24 14:49:18.371723,58
2021-09-24 14:49:18.371729,68
2021-09-24 14:49:18.371736,-9
2021-09-24 14:49:18.371742,-104
2021-09-24 14:49:18.371748,-82
2021-09-24 14:49:18.371755,-82
2021-09-24 14:49:18.371795,-121
2021-09-24 14:49:18.371809,-126
2021-09-24 14:49:18.371820,-123
2021-09-24 14:49:18.371831,-138
2021-09-24 14:49:18.371842,-140
2021-09-24 14:49:18.550973,-145
2021-09-24 14:49:18.550996,-162
2021-09-24 14:49:18.551004,-179
2021-09-24 14:49:18.551011,-196
2021-09-24 14:49:18.551017,-211
2021-09-24 14:49:18.551024,-230
2021-09-24 14:49:18.551031,-255
2021-09-24 14:49:18.551037,-289
2021-09-24 14:49:18.551044,-332
2021-09-24 14:49:18.551050,-366
2021-09-24 14:49:18.551057,-388
2021-09-24 14:49:18.551063,-403
2021-09-24 14:49:18.551070,-420
2021-09-24 14:49:18.551076,-422
2021-09-24 14:49:18.551083,-405
2021-09-24 14:49:18.551090,-366
2021-09-24 14:49:18.551096,-301
2021-09-24 14:49:18.551103,-204
2021-09-24 14:49:18.551109,-102
2021-09-24 14:49:18.551116,-9
2021-09-24 14:49:18.551123,77
2021-09-24 14:49:18.551129,143
2021-09-24 14:49:18.551136,187
2021-09-24 14:49:18.551142,216
2021-09-24 14:49:18.551149,225
2021-09-24 14:49:18.551155,223
2021-09-24 14:49:18.551162,221
2021-09-24 14:49:18.551168,221
2021-09-24 14:49:18.551175,213
2021-09-24 14:49:18.551182,199
2021-09-24 14:49:18.776274,174
2021-09-24 14:49:18.776304,157
2021-09-24 14:49:18.776316,153
2021-09-24 14:49:18.776339,148
2021-09-24 14:49:18.776350,136
2021-09-24 14:49:18.776360,126
2021-09-24 14:49:18.776370,111
2021-09-24 14:49:18.776380,94
2021-09-24 14:49:18.776390,89
2021-09-24 14:49:18.776400,85
2021-09-24 14:49:18.776410,70
2021-09-24 14:49:18.776420,68
2021-09-24 14:49:18.776430,60
2021-09-24 14:49:18.776440,48
2021-09-24 14:49:18.776450,48
2021-09-24 14:49:18.776460,51
2021-09-24 14:49:18.776470,55
2021-09-24 14:49:18.776480,63
2021-09-24 14:49:18.776490,68
2021-09-24 14:49:18.776500,60
2021-09-24 14:49:18.776510,58
2021-09-24 14:49:18.776520,63
2021-09-24 14:49:18.776530,65
2021-09-24 14:49:18.776540,60
2021-09-24 14:49:18.776550,53
2021-09-24 14:49:18.776560,55
2021-09-24 14:49:18.776662,60
2021-09-24 14:49:18.776716,48
2021-09-24 14:49:18.776723,43
2021-09-24 14:49:18.776730,48
2021-09-24 14:49:19.090651,46
2021-09-24 14:49:19.090672,51
2021-09-24 14:49:19.090680,53
2021-09-24 14:49:19.090687,43
2021-09-24 14:49:19.090694,41
2021-09-24 14:49:19.090700,41
2021-09-24 14:49:19.090707,36
2021-09-24 14:49:19.090713,36
2021-09-24 14:49:19.090720,38
2021-09-24 14:49:19.090726,36
2021-09-24 14:49:19.090733,36
2021-09-24 14:49:19.090739,29
2021-09-24 14:49:19.090746,19
2021-09-24 14:49:19.090752,29
2021-09-24 14:49:19.090759,38
2021-09-24 14:49:19.090765,29
2021-09-24 14:49:19.090771,14
2021-09-24 14:49:19.090778,4
2021-09-24 14:49:19.090784,2
2021-09-24 14:49:19.090791,4
2021-09-24 14:49:19.090797,-2
2021-09-24 14:49:19.090804,-4
2021-09-24 14:49:19.090810,14
2021-09-24 14:49:19.090842,29
2021-09-24 14:49:19.090849,31
2021-09-24 14:49:19.090855,36
2021-09-24 14:49:19.090862,41
2021-09-24 14:49:19.090868,38
2021-09-24 14:49:19.090875,31
2021-09-24 14:49:19.090881,26
2021-09-24 14:49:19.271377,29
2021-09-24 14:49:19.271398,31
2021-09-24 14:49:19.271406,29
2021-09-24 14:49:19.271413,9
2021-09-24 14:49:19.271419,-34
2021-09-24 14:49:19.271426,-133
2021-09-24 14:49:19.271433,-369
2021-09-24 14:49:19.271439,-602
2021-09-24 14:49:19.271446,-507
2021-09-24 14:49:19.271452,-36
2021-09-24 14:49:19.271459,510
2021-09-24 14:49:19.271465,614
2021-09-24 14:49:19.271471,250
2021-09-24 14:49:19.271478,46
2021-09-24 14:49:19.271484,77
2021-09-24 14:49:19.271491,-17
2021-09-24 14:49:19.271497,-119
2021-09-24 14:49:19.271504,-94
2021-09-24 14:49:19.271510,-89
2021-09-24 14:49:19.271517,-128
2021-09-24 14:49:19.271538,-131
2021-09-24 14:49:19.271592,-128
2021-09-24 14:49:19.271645,-145
2021-09-24 14:49:19.271653,-157
2021-09-24 14:49:19.271659,-160
2021-09-24 14:49:19.271666,-167
2021-09-24 14:49:19.271672,-184
2021-09-24 14:49:19.271679,-199
2021-09-24 14:49:19.271710,-218
2021-09-24 14:49:19.271727,-245
2021-09-24 14:49:19.451198,-274
2021-09-24 14:49:19.451219,-308
2021-09-24 14:49:19.451227,-349
2021-09-24 14:49:19.451234,-376
2021-09-24 14:49:19.451241,-400
2021-09-24 14:49:19.451248,-422
2021-09-24 14:49:19.451254,-429
2021-09-24 14:49:19.451261,-429
2021-09-24 14:49:19.451267,-415
2021-09-24 14:49:19.451274,-378
2021-09-24 14:49:19.451281,-323
2021-09-24 14:49:19.451287,-240
2021-09-24 14:49:19.451294,-136
2021-09-24 14:49:19.451300,-31
2021-09-24 14:49:19.451307,48
2021-09-24 14:49:19.451314,104
2021-09-24 14:49:19.451320,148
2021-09-24 14:49:19.451327,182
2021-09-24 14:49:19.451334,201
2021-09-24 14:49:19.451340,208
2021-09-24 14:49:19.451347,211
2021-09-24 14:49:19.451353,208
2021-09-24 14:49:19.451360,199
2021-09-24 14:49:19.451367,182
2021-09-24 14:49:19.451373,167
2021-09-24 14:49:19.451380,162
2021-09-24 14:49:19.451387,153
2021-09-24 14:49:19.451393,131
2021-09-24 14:49:19.451400,116
2021-09-24 14:49:19.451406,114
2021-09-24 14:49:19.719628,109
2021-09-24 14:49:19.719649,97
2021-09-24 14:49:19.719657,85
2021-09-24 14:49:19.719663,68
2021-09-24 14:49:19.719670,53
2021-09-24 14:49:19.719676,53
2021-09-24 14:49:19.719683,63
2021-09-24 14:49:19.719689,65
2021-09-24 14:49:19.719696,63
2021-09-24 14:49:19.719702,55
2021-09-24 14:49:19.719709,51
2021-09-24 14:49:19.719715,46
2021-09-24 14:49:19.719722,41
2021-09-24 14:49:19.719728,43
2021-09-24 14:49:19.719734,48
2021-09-24 14:49:19.719741,46
2021-09-24 14:49:19.719747,41
2021-09-24 14:49:19.719754,46
2021-09-24 14:49:19.719760,55
2021-09-24 14:49:19.719766,60
2021-09-24 14:49:19.719773,53
2021-09-24 14:49:19.719779,48
2021-09-24 14:49:19.719786,53
2021-09-24 14:49:19.719792,60
2021-09-24 14:49:19.719799,63
2021-09-24 14:49:19.719805,55
2021-09-24 14:49:19.719812,51
2021-09-24 14:49:19.719818,53
2021-09-24 14:49:19.719825,55
2021-09-24 14:49:19.719831,58
2021-09-24 14:49:19.991255,60
2021-09-24 14:49:19.991277,63
2021-09-24 14:49:19.991285,60
2021-09-24 14:49:19.991302,43
2021-09-24 14:49:19.991309,17
2021-09-24 14:49:19.991316,7
2021-09-24 14:49:19.991322,12
2021-09-24 14:49:19.991329,7
2021-09-24 14:49:19.991335,0
2021-09-24 14:49:19.991342,19
2021-09-24 14:49:19.991349,38
2021-09-24 14:49:19.991355,38
2021-09-24 14:49:19.991362,41
2021-09-24 14:49:19.991368,46
2021-09-24 14:49:19.991374,41
2021-09-24 14:49:19.991381,36
2021-09-24 14:49:19.991388,34
2021-09-24 14:49:19.991394,34
2021-09-24 14:49:19.991400,41
2021-09-24 14:49:19.991407,41
2021-09-24 14:49:19.991413,2
2021-09-24 14:49:19.991420,-55
2021-09-24 14:49:19.991426,-157
2021-09-24 14:49:19.991433,-376
2021-09-24 14:49:19.991439,-527
2021-09-24 14:49:19.991446,-318
2021-09-24 14:49:19.991452,208
2021-09-24 14:49:19.991459,658
2021-09-24 14:49:19.991465,590
2021-09-24 14:49:19.991472,208
2021-09-24 14:49:20.171033,89
2021-09-24 14:49:20.171056,106
2021-09-24 14:49:20.171064,-17
2021-09-24 14:49:20.171071,-92
2021-09-24 14:49:20.171077,-58
2021-09-24 14:49:20.171084,-65
2021-09-24 14:49:20.171090,-97
2021-09-24 14:49:20.171097,-102
2021-09-24 14:49:20.171103,-114
2021-09-24 14:49:20.171110,-128
2021-09-24 14:49:20.171116,-136
2021-09-24 14:49:20.171133,-143
2021-09-24 14:49:20.171141,-155
2021-09-24 14:49:20.171147,-174
2021-09-24 14:49:20.171153,-199
2021-09-24 14:49:20.171160,-223
2021-09-24 14:49:20.171166,-245
2021-09-24 14:49:20.171173,-279
2021-09-24 14:49:20.171180,-320
2021-09-24 14:49:20.171186,-357
2021-09-24 14:49:20.171193,-388
2021-09-24 14:49:20.171199,-412
2021-09-24 14:49:20.171206,-425
2021-09-24 14:49:20.171216,-425
2021-09-24 14:49:20.171222,-415
2021-09-24 14:49:20.171229,-398
2021-09-24 14:49:20.171235,-357
2021-09-24 14:49:20.171242,-272
2021-09-24 14:49:20.171248,-172
2021-09-24 14:49:20.171255,-70
2021-09-24 14:49:20.395812,21
2021-09-24 14:49:20.395832,97
2021-09-24 14:49:20.395840,150
2021-09-24 14:49:20.395847,187
2021-09-24 14:49:20.395854,208
2021-09-24 14:49:20.395860,223
2021-09-24 14:49:20.395867,233
2021-09-24 14:49:20.395873,221
2021-09-24 14:49:20.395880,196
2021-09-24 14:49:20.395886,187
2021-09-24 14:49:20.395893,182
2021-09-24 14:49:20.395899,170
2021-09-24 14:49:20.395906,157
2021-09-24 14:49:20.395913,136
2021-09-24 14:49:20.395919,116
2021-09-24 14:49:20.395926,114
2021-09-24 14:49:20.395932,109
2021-09-24 14:49:20.395957,99
2021-09-24 14:49:20.395964,94
2021-09-24 14:49:20.395971,89
2021-09-24 14:49:20.395977,77
2021-09-24 14:49:20.395984,72
2021-09-24 14:49:20.395991,77
2021-09-24 14:49:20.395997,82
2021-09-24 14:49:20.396004,82
2021-09-24 14:49:20.396010,82
2021-09-24 14:49:20.396017,82
2021-09-24 14:49:20.396024,85
2021-09-24 14:49:20.396030,87
2021-09-24 14:49:20.396037,92
2021-09-24 14:49:20.621017,92
2021-09-24 14:49:20.621039,92
2021-09-24 14:49:20.621047,92
2021-09-24 14:49:20.621054,82
2021-09-24 14:49:20.621061,80
2021-09-24 14:49:20.621067,87
2021-09-24 14:49:20.621073,85
2021-09-24 14:49:20.621080,75
2021-09-24 14:49:20.621086,70
2021-09-24 14:49:20.621093,70
2021-09-24 14:49:20.621099,70
2021-09-24 14:49:20.621106,63
2021-09-24 14:49:20.621112,51
2021-09-24 14:49:20.621118,43
2021-09-24 14:49:20.621125,48
2021-09-24 14:49:20.621131,51
2021-09-24 14:49:20.621138,55
2021-09-24 14:49:20.621144,63
2021-09-24 14:49:20.621151,55
2021-09-24 14:49:20.621157,43
2021-09-24 14:49:20.621164,34
2021-09-24 14:49:20.621170,26
2021-09-24 14:49:20.621176,24
2021-09-24 14:49:20.621183,9
2021-09-24 14:49:20.621190,-2
2021-09-24 14:49:20.621196,24
2021-09-24 14:49:20.621203,46
2021-09-24 14:49:20.621209,43
2021-09-24 14:49:20.621216,48
2021-09-24 14:49:20.621222,55
2021-09-24 14:49:20.846313,48
2021-09-24 14:49:20.846336,48
2021-09-24 14:49:20.846344,58
2021-09-24 14:49:20.846351,53
2021-09-24 14:49:20.846357,48
2021-09-24 14:49:20.846364,41
2021-09-24 14:49:20.846370,7
2021-09-24 14:49:20.846377,-55
2021-09-24 14:49:20.846383,-196
2021-09-24 14:49:20.846390,-439
2021-09-24 14:49:20.846396,-541
2021-09-24 14:49:20.846403,-269
2021-09-24 14:49:20.846409,257
2021-09-24 14:49:20.846416,648
2021-09-24 14:49:20.846422,512
2021-09-24 14:49:20.846429,143
2021-09-24 14:49:20.846435,63
2021-09-24 14:49:20.846442,60
2021-09-24 14:49:20.846448,-72
2021-09-24 14:49:20.846455,-119
2021-09-24 14:49:20.846461,-80
2021-09-24 14:49:20.846468,-106
2021-09-24 14:49:20.846474,-136
2021-09-24 14:49:20.846481,-131
2021-09-24 14:49:20.846487,-136
2021-09-24 14:49:20.846494,-153
2021-09-24 14:49:20.846500,-157
2021-09-24 14:49:20.846507,-167
2021-09-24 14:49:20.846513,-179
2021-09-24 14:49:20.846520,-189
2021-09-24 14:49:21.071348,-204
2021-09-24 14:49:21.071372,-221
2021-09-24 14:49:21.071380,-247
2021-09-24 14:49:21.071397,-276
2021-09-24 14:49:21.071404,-301
2021-09-24 14:49:21.071411,-332
2021-09-24 14:49:21.071417,-374
2021-09-24 14:49:21.071424,-398
2021-09-24 14:49:21.071430,-412
2021-09-24 14:49:21.071437,-422
2021-09-24 14:49:21.071444,-415
2021-09-24 14:49:21.071450,-383
2021-09-24 14:49:21.071456,-325
2021-09-24 14:49:21.071463,-242
2021-09-24 14:49:21.071470,-148
2021-09-24 14:49:21.071476,-55
2021-09-24 14:49:21.071483,34
2021-09-24 14:49:21.071492,106
2021-09-24 14:49:21.071499,160
2021-09-24 14:49:21.071506,199
2021-09-24 14:49:21.071512,221
2021-09-24 14:49:21.071519,225
2021-09-24 14:49:21.071525,225
2021-09-24 14:49:21.071532,223
2021-09-24 14:49:21.071538,218
2021-09-24 14:49:21.071545,213
2021-09-24 14:49:21.071552,206
2021-09-24 14:49:21.071562,196
2021-09-24 14:49:21.071572,189
2021-09-24 14:49:21.071583,172
2021-09-24 14:49:21.296368,150
2021-09-24 14:49:21.296393,148
2021-09-24 14:49:21.296401,145
2021-09-24 14:49:21.296407,126
2021-09-24 14:49:21.296414,104
2021-09-24 14:49:21.296420,92
2021-09-24 14:49:21.296427,85
2021-09-24 14:49:21.296433,75
2021-09-24 14:49:21.296440,75
2021-09-24 14:49:21.296446,75
2021-09-24 14:49:21.296453,63
2021-09-24 14:49:21.296459,51
2021-09-24 14:49:21.296466,60
2021-09-24 14:49:21.296472,68
2021-09-24 14:49:21.296479,58
2021-09-24 14:49:21.296485,60
2021-09-24 14:49:21.296491,68
2021-09-24 14:49:21.296498,58
2021-09-24 14:49:21.296504,51
2021-09-24 14:49:21.296511,65
2021-09-24 14:49:21.296517,70
2021-09-24 14:49:21.296524,60
2021-09-24 14:49:21.296530,60
2021-09-24 14:49:21.296547,63
2021-09-24 14:49:21.296554,65
2021-09-24 14:49:21.296561,65
2021-09-24 14:49:21.296568,65
2021-09-24 14:49:21.296574,63
2021-09-24 14:49:21.296581,58
2021-09-24 14:49:21.296587,63
2021-09-24 14:49:21.520794,68
2021-09-24 14:49:21.520813,65
2021-09-24 14:49:21.520820,65
2021-09-24 14:49:21.520826,55
2021-09-24 14:49:21.520832,41
2021-09-24 14:49:21.520838,41
2021-09-24 14:49:21.520844,53
2021-09-24 14:49:21.520850,53
2021-09-24 14:49:21.520855,38
2021-09-24 14:49:21.520861,9
2021-09-24 14:49:21.520867,-4
2021-09-24 14:49:21.520872,9
2021-09-24 14:49:21.520878,17
2021-09-24 14:49:21.520884,4
2021-09-24 14:49:21.520890,14
2021-09-24 14:49:21.520896,31
2021-09-24 14:49:21.520903,41
2021-09-24 14:49:21.520908,51
2021-09-24 14:49:21.520914,53
2021-09-24 14:49:21.520921,43
2021-09-24 14:49:21.520930,41
2021-09-24 14:49:21.520939,43
2021-09-24 14:49:21.520944,38
2021-09-24 14:49:21.520950,41
2021-09-24 14:49:21.520956,43
2021-09-24 14:49:21.520961,21
2021-09-24 14:49:21.520967,-26
2021-09-24 14:49:21.520973,-128
2021-09-24 14:49:21.520978,-344
2021-09-24 14:49:21.520984,-546
2021-09-24 14:49:21.835586,-437
2021-09-24 14:49:21.835610,9
2021-09-24 14:49:21.835618,517
2021-09-24 14:49:21.835625,648
2021-09-24 14:49:21.835631,296
2021-09-24 14:49:21.835638,46
2021-09-24 14:49:21.835644,65
2021-09-24 14:49:21.835651,-12
2021-09-24 14:49:21.835657,-116
2021-09-24 14:49:21.835664,-99
2021-09-24 14:49:21.835670,-94
2021-09-24 14:49:21.835708,-128
2021-09-24 14:49:21.835714,-128
2021-09-24 14:49:21.835731,-123
2021-09-24 14:49:21.835737,-138
2021-09-24 14:49:21.835744,-155
2021-09-24 14:49:21.835750,-160
2021-09-24 14:49:21.835757,-167
2021-09-24 14:49:21.835763,-184
2021-09-24 14:49:21.835770,-196
2021-09-24 14:49:21.835776,-213
2021-09-24 14:49:21.835783,-240
2021-09-24 14:49:21.835789,-269
2021-09-24 14:49:21.835796,-298
2021-09-24 14:49:21.835802,-325
2021-09-24 14:49:21.835809,-357
2021-09-24 14:49:21.835815,-388
2021-09-24 14:49:21.835822,-412
2021-09-24 14:49:21.835828,-422
2021-09-24 14:49:21.835835,-417
2021-09-24 14:49:22.016321,-395
2021-09-24 14:49:22.016346,-354
2021-09-24 14:49:22.016354,-293
2021-09-24 14:49:22.016361,-204
2021-09-24 14:49:22.016368,-94
2021-09-24 14:49:22.016375,4
2021-09-24 14:49:22.016382,85
2021-09-24 14:49:22.016388,155
2021-09-24 14:49:22.016395,204
2021-09-24 14:49:22.016402,225
2021-09-24 14:49:22.016409,233
2021-09-24 14:49:22.016416,233
2021-09-24 14:49:22.016423,230
2021-09-24 14:49:22.016429,228
2021-09-24 14:49:22.016436,211
2021-09-24 14:49:22.016443,199
2021-09-24 14:49:22.016450,199
2021-09-24 14:49:22.016457,194
2021-09-24 14:49:22.016463,182
2021-09-24 14:49:22.016470,172
2021-09-24 14:49:22.016477,155
2021-09-24 14:49:22.016484,138
2021-09-24 14:49:22.016491,136
2021-09-24 14:49:22.016508,136
2021-09-24 14:49:22.016516,121
2021-09-24 14:49:22.016523,104
2021-09-24 14:49:22.016545,92
2021-09-24 14:49:22.016551,87
2021-09-24 14:49:22.016557,85
2021-09-24 14:49:22.016564,80
2021-09-24 14:49:22.241008,77
2021-09-24 14:49:22.241031,77
2021-09-24 14:49:22.241038,75
2021-09-24 14:49:22.241055,72
2021-09-24 14:49:22.241062,75
2021-09-24 14:49:22.241069,75
2021-09-24 14:49:22.241075,75
2021-09-24 14:49:22.241082,72
2021-09-24 14:49:22.241088,63
2021-09-24 14:49:22.241095,55
2021-09-24 14:49:22.241101,51
2021-09-24 14:49:22.241108,48
2021-09-24 14:49:22.241114,48
2021-09-24 14:49:22.241121,46
2021-09-24 14:49:22.241127,41
2021-09-24 14:49:22.241134,36
2021-09-24 14:49:22.241140,41
2021-09-24 14:49:22.241146,43
2021-09-24 14:49:22.241153,41
2021-09-24 14:49:22.241159,38
2021-09-24 14:49:22.241166,41
2021-09-24 14:49:22.241172,43
2021-09-24 14:49:22.241179,38
2021-09-24 14:49:22.241185,38
2021-09-24 14:49:22.241192,46
2021-09-24 14:49:22.241198,46
2021-09-24 14:49:22.241205,38
2021-09-24 14:49:22.241211,34
2021-09-24 14:49:22.241217,34
2021-09-24 14:49:22.241224,41
2021-09-24 14:49:22.466297,48
2021-09-24 14:49:22.466319,46
2021-09-24 14:49:22.466326,29
2021-09-24 14:49:22.466333,4
2021-09-24 14:49:22.466340,0
2021-09-24 14:49:22.466347,14
2021-09-24 14:49:22.466353,9
2021-09-24 14:49:22.466360,-7
2021-09-24 14:49:22.466366,4
2021-09-24 14:49:22.466373,29
2021-09-24 14:49:22.466381,41
2021-09-24 14:49:22.466387,43
2021-09-24 14:49:22.466394,34
2021-09-24 14:49:22.466400,29
2021-09-24 14:49:22.466407,34
2021-09-24 14:49:22.466413,36
2021-09-24 14:49:22.466420,36
2021-09-24 14:49:22.466426,36
2021-09-24 14:49:22.466433,36
2021-09-24 14:49:22.466439,17
2021-09-24 14:49:22.466446,-24
2021-09-24 14:49:22.466453,-121
2021-09-24 14:49:22.466459,-340
2021-09-24 14:49:22.466466,-551
2021-09-24 14:49:22.466472,-459
2021-09-24 14:49:22.466479,-24
2021-09-24 14:49:22.466485,497
2021-09-24 14:49:22.466492,665
2021-09-24 14:49:22.466498,332
2021-09-24 14:49:22.466505,60
2021-09-24 14:49:22.691377,68
2021-09-24 14:49:22.691401,0
2021-09-24 14:49:22.691409,-102
2021-09-24 14:49:22.691416,-82
2021-09-24 14:49:22.691422,-68
2021-09-24 14:49:22.691429,-104
2021-09-24 14:49:22.691435,-121
2021-09-24 14:49:22.691442,-119
2021-09-24 14:49:22.691448,-126
2021-09-24 14:49:22.691455,-136
2021-09-24 14:49:22.691461,-143
2021-09-24 14:49:22.691467,-157
2021-09-24 14:49:22.691474,-177
2021-09-24 14:49:22.691480,-189
2021-09-24 14:49:22.691487,-199
2021-09-24 14:49:22.691493,-225
2021-09-24 14:49:22.691500,-262
2021-09-24 14:49:22.691506,-293
2021-09-24 14:49:22.691512,-320
2021-09-24 14:49:22.691519,-352
2021-09-24 14:49:22.691525,-383
2021-09-24 14:49:22.691532,-405
2021-09-24 14:49:22.691538,-412
2021-09-24 14:49:22.691545,-408
2021-09-24 14:49:22.691551,-395
2021-09-24 14:49:22.691557,-359
2021-09-24 14:49:22.691564,-293
2021-09-24 14:49:22.691570,-211
2021-09-24 14:49:22.691576,-106
2021-09-24 14:49:22.691583,-2
2021-09-24 14:49:22.916091,72
2021-09-24 14:49:22.916114,138
2021-09-24 14:49:22.916122,196
2021-09-24 14:49:22.916129,223
2021-09-24 14:49:22.916135,228
2021-09-24 14:49:22.916142,223
2021-09-24 14:49:22.916148,216
2021-09-24 14:49:22.916155,216
2021-09-24 14:49:22.916161,213
2021-09-24 14:49:22.916168,201
2021-09-24 14:49:22.916174,194
2021-09-24 14:49:22.916181,184
2021-09-24 14:49:22.916187,167
2021-09-24 14:49:22.916204,160
2021-09-24 14:49:22.916211,157
2021-09-24 14:49:22.916217,148
2021-09-24 14:49:22.916224,133
2021-09-24 14:49:22.916230,116
2021-09-24 14:49:22.916237,106
2021-09-24 14:49:22.916243,102
2021-09-24 14:49:22.916249,89
2021-09-24 14:49:22.916256,80
2021-09-24 14:49:22.916262,70
2021-09-24 14:49:22.916269,63
2021-09-24 14:49:22.916275,68
2021-09-24 14:49:22.916282,75
2021-09-24 14:49:22.916288,75
2021-09-24 14:49:22.916295,75
2021-09-24 14:49:22.916301,82
2021-09-24 14:49:22.916308,85
2021-09-24 14:49:23.185671,87
2021-09-24 14:49:23.185688,85
2021-09-24 14:49:23.185694,75
2021-09-24 14:49:23.185700,70
2021-09-24 14:49:23.185705,68
2021-09-24 14:49:23.185710,63
2021-09-24 14:49:23.185715,63
2021-09-24 14:49:23.185720,63
2021-09-24 14:49:23.185725,60
2021-09-24 14:49:23.185730,58
2021-09-24 14:49:23.185735,51
2021-09-24 14:49:23.185740,43
2021-09-24 14:49:23.185745,48
2021-09-24 14:49:23.185750,58
2021-09-24 14:49:23.185754,48
2021-09-24 14:49:23.185759,43
2021-09-24 14:49:23.185764,48
2021-09-24 14:49:23.185769,43
2021-09-24 14:49:23.185774,38
2021-09-24 14:49:23.185779,46
2021-09-24 14:49:23.185784,46
2021-09-24 14:49:23.185789,31
2021-09-24 14:49:23.185794,21
2021-09-24 14:49:23.185799,29
2021-09-24 14:49:23.185804,36
2021-09-24 14:49:23.185809,38
2021-09-24 14:49:23.185814,36
2021-09-24 14:49:23.185819,26
2021-09-24 14:49:23.185824,19
2021-09-24 14:49:23.185829,7
2021-09-24 14:49:23.366326,-2
2021-09-24 14:49:23.366350,2
2021-09-24 14:49:23.366358,0
2021-09-24 14:49:23.366376,-17
2021-09-24 14:49:23.366383,-14
2021-09-24 14:49:23.366389,9
2021-09-24 14:49:23.366396,29
2021-09-24 14:49:23.366402,34
2021-09-24 14:49:23.366409,31
2021-09-24 14:49:23.366415,29
2021-09-24 14:49:23.366422,17
2021-09-24 14:49:23.366428,19
2021-09-24 14:49:23.366435,26
2021-09-24 14:49:23.366441,21
2021-09-24 14:49:23.366447,14
2021-09-24 14:49:23.366454,7
2021-09-24 14:49:23.366460,-24
2021-09-24 14:49:23.366467,-89
2021-09-24 14:49:23.366473,-240
2021-09-24 14:49:23.366480,-488
2021-09-24 14:49:23.366486,-566
2021-09-24 14:49:23.366493,-264
2021-09-24 14:49:23.366499,279
2021-09-24 14:49:23.366506,646
2021-09-24 14:49:23.366512,471
2021-09-24 14:49:23.366519,116
2021-09-24 14:49:23.366526,58
2021-09-24 14:49:23.366532,51
2021-09-24 14:49:23.366539,-70
2021-09-24 14:49:23.366545,-99
2021-09-24 14:49:23.636510,-58
2021-09-24 14:49:23.636578,-80
2021-09-24 14:49:23.636591,-114
2021-09-24 14:49:23.636603,-121
2021-09-24 14:49:23.636615,-133
2021-09-24 14:49:23.636626,-150
2021-09-24 14:49:23.636638,-160
2021-09-24 14:49:23.636650,-165
2021-09-24 14:49:23.636661,-177
2021-09-24 14:49:23.636672,-196
2021-09-24 14:49:23.636683,-211
2021-09-24 14:49:23.636694,-225
2021-09-24 14:49:23.636704,-250
2021-09-24 14:49:23.636716,-276
2021-09-24 14:49:23.636727,-306
2021-09-24 14:49:23.636739,-340
2021-09-24 14:49:23.636750,-366
2021-09-24 14:49:23.636762,-383
2021-09-24 14:49:23.636773,-395
2021-09-24 14:49:23.636785,-398
2021-09-24 14:49:23.636797,-391
2021-09-24 14:49:23.636809,-378
2021-09-24 14:49:23.636821,-332
2021-09-24 14:49:23.636833,-245
2021-09-24 14:49:23.636845,-150
2021-09-24 14:49:23.636856,-55
2021-09-24 14:49:23.636868,26
2021-09-24 14:49:23.636879,87
2021-09-24 14:49:23.636891,140
2021-09-24 14:49:23.636902,182
2021-09-24 14:49:23.905014,204
2021-09-24 14:49:23.905035,221
2021-09-24 14:49:23.905043,221
2021-09-24 14:49:23.905050,208
2021-09-24 14:49:23.905056,208
2021-09-24 14:49:23.905063,211
2021-09-24 14:49:23.905070,194
2021-09-24 14:49:23.905076,167
2021-09-24 14:49:23.905083,143
2021-09-24 14:49:23.905089,121
2021-09-24 14:49:23.905096,111
2021-09-24 14:49:23.905103,102
2021-09-24 14:49:23.905109,94
2021-09-24 14:49:23.905116,89
2021-09-24 14:49:23.905123,72
2021-09-24 14:49:23.905129,58
2021-09-24 14:49:23.905136,63
2021-09-24 14:49:23.905142,70
2021-09-24 14:49:23.905149,65
2021-09-24 14:49:23.905155,60
2021-09-24 14:49:23.905162,58
2021-09-24 14:49:23.905169,58
2021-09-24 14:49:23.905175,58
2021-09-24 14:49:23.905182,58
2021-09-24 14:49:23.905188,63
2021-09-24 14:49:23.905195,65
2021-09-24 14:49:23.905201,65
2021-09-24 14:49:23.905208,70
2021-09-24 14:49:23.905215,72
2021-09-24 14:49:23.905221,65
2021-09-24 14:49:24.086096,72
2021-09-24 14:49:24.086125,80
2021-09-24 14:49:24.086133,65
2021-09-24 14:49:24.086139,53
2021-09-24 14:49:24.086146,60
2021-09-24 14:49:24.086152,75
2021-09-24 14:49:24.086159,80
2021-09-24 14:49:24.086165,75
2021-09-24 14:49:24.086172,65
2021-09-24 14:49:24.086178,53
2021-09-24 14:49:24.086185,43
2021-09-24 14:49:24.086191,38
2021-09-24 14:49:24.086198,41
2021-09-24 14:49:24.086212,41
2021-09-24 14:49:24.086219,31
2021-09-24 14:49:24.086226,36
2021-09-24 14:49:24.086232,48
2021-09-24 14:49:24.086239,51
2021-09-24 14:49:24.086245,53
2021-09-24 14:49:24.086252,53
2021-09-24 14:49:24.086258,43
2021-09-24 14:49:24.086265,29
2021-09-24 14:49:24.086271,19
2021-09-24 14:49:24.086278,12
2021-09-24 14:49:24.086284,-2
2021-09-24 14:49:24.086291,-14
2021-09-24 14:49:24.086297,-4
2021-09-24 14:49:24.086304,24
2021-09-24 14:49:24.086310,41
2021-09-24 14:49:24.086317,43
2021-09-24 14:49:24.310920,38
2021-09-24 14:49:24.310939,38
2021-09-24 14:49:24.310945,29
2021-09-24 14:49:24.310951,19
2021-09-24 14:49:24.310956,31
2021-09-24 14:49:24.310961,41
2021-09-24 14:49:24.310967,34
2021-09-24 14:49:24.310972,14
2021-09-24 14:49:24.310977,-17
2021-09-24 14:49:24.310983,-72
2021-09-24 14:49:24.310988,-208
2021-09-24 14:49:24.310993,-439
2021-09-24 14:49:24.310999,-551
2021-09-24 14:49:24.311004,-293
2021-09-24 14:49:24.311009,242
2021-09-24 14:49:24.311015,614
2021-09-24 14:49:24.311020,459
2021-09-24 14:49:24.311025,126
2021-09-24 14:49:24.311031,63
2021-09-24 14:49:24.311048,55
2021-09-24 14:49:24.311054,-68
2021-09-24 14:49:24.311059,-111
2021-09-24 14:49:24.311064,-75
2021-09-24 14:49:24.311070,-94
2021-09-24 14:49:24.311075,-126
2021-09-24 14:49:24.311080,-119
2021-09-24 14:49:24.311085,-126
2021-09-24 14:49:24.311091,-150
2021-09-24 14:49:24.311096,-150
2021-09-24 14:49:24.311101,-150
2021-09-24 14:49:24.580849,-167
2021-09-24 14:49:24.580879,-182
2021-09-24 14:49:24.580891,-196
2021-09-24 14:49:24.580902,-216
2021-09-24 14:49:24.580912,-233
2021-09-24 14:49:24.580922,-255
2021-09-24 14:49:24.580932,-296
2021-09-24 14:49:24.580942,-340
2021-09-24 14:49:24.580952,-374
2021-09-24 14:49:24.580962,-395
2021-09-24 14:49:24.580972,-403
2021-09-24 14:49:24.580982,-405
2021-09-24 14:49:24.580992,-405
2021-09-24 14:49:24.581003,-381
2021-09-24 14:49:24.581013,-327
2021-09-24 14:49:24.581023,-250
2021-09-24 14:49:24.581033,-153
2021-09-24 14:49:24.581043,-60
2021-09-24 14:49:24.581053,14
2021-09-24 14:49:24.581064,89
2021-09-24 14:49:24.581074,150
2021-09-24 14:49:24.581084,172
2021-09-24 14:49:24.581094,177
2021-09-24 14:49:24.581104,194
2021-09-24 14:49:24.581114,204
2021-09-24 14:49:24.581124,196
2021-09-24 14:49:24.581134,184
2021-09-24 14:49:24.581144,174
2021-09-24 14:49:24.581154,170
2021-09-24 14:49:24.581164,162
2021-09-24 14:49:24.760852,153
2021-09-24 14:49:24.760873,148
2021-09-24 14:49:24.760883,138
2021-09-24 14:49:24.760891,121
2021-09-24 14:49:24.760900,111
2021-09-24 14:49:24.760907,99
2021-09-24 14:49:24.760916,80
2021-09-24 14:49:24.760924,75
2021-09-24 14:49:24.760932,68
2021-09-24 14:49:24.760940,55
2021-09-24 14:49:24.760949,53
2021-09-24 14:49:24.760957,55
2021-09-24 14:49:24.760965,51
2021-09-24 14:49:24.760974,53
2021-09-24 14:49:24.760982,65
2021-09-24 14:49:24.760990,63
2021-09-24 14:49:24.760998,48
2021-09-24 14:49:24.761006,43
2021-09-24 14:49:24.761015,48
2021-09-24 14:49:24.761023,55
2021-09-24 14:49:24.761031,60
2021-09-24 14:49:24.761040,60
2021-09-24 14:49:24.761048,60
2021-09-24 14:49:24.761063,60
2021-09-24 14:49:24.761071,58
2021-09-24 14:49:24.761080,60
2021-09-24 14:49:24.761088,63
2021-09-24 14:49:24.761096,58
2021-09-24 14:49:24.761105,53
2021-09-24 14:49:24.761113,51
2021-09-24 14:49:24.985583,58
2021-09-24 14:49:24.985598,63
2021-09-24 14:49:24.985604,58
2021-09-24 14:49:24.985609,51
2021-09-24 14:49:24.985614,48
2021-09-24 14:49:24.985618,48
2021-09-24 14:49:24.985623,51
2021-09-24 14:49:24.985627,51
2021-09-24 14:49:24.985632,38
2021-09-24 14:49:24.985636,17
2021-09-24 14:49:24.985641,7
2021-09-24 14:49:24.985645,2
2021-09-24 14:49:24.985650,0
2021-09-24 14:49:24.985654,17
2021-09-24 14:49:24.985659,31
2021-09-24 14:49:24.985670,34
2021-09-24 14:49:24.985675,41
2021-09-24 14:49:24.985679,46
2021-09-24 14:49:24.985684,36
2021-09-24 14:49:24.985688,34
2021-09-24 14:49:24.985693,46
2021-09-24 14:49:24.985697,53
2021-09-24 14:49:24.985702,51
2021-09-24 14:49:24.985706,43
2021-09-24 14:49:24.985711,29
2021-09-24 14:49:24.985715,-4
2021-09-24 14:49:24.985720,-75
2021-09-24 14:49:24.985724,-240
2021-09-24 14:49:24.985729,-449
2021-09-24 14:49:24.985733,-420
2021-09-24 14:49:25.211261,-55
2021-09-24 14:49:25.211284,425
2021-09-24 14:49:25.211291,631
2021-09-24 14:49:25.211298,376
2021-09-24 14:49:25.211305,92
2021-09-24 14:49:25.211311,72
2021-09-24 14:49:25.211318,29
2021-09-24 14:49:25.211324,-85
2021-09-24 14:49:25.211330,-92
2021-09-24 14:49:25.211337,-70
2021-09-24 14:49:25.211343,-109
2021-09-24 14:49:25.211350,-128
2021-09-24 14:49:25.211356,-119
2021-09-24 14:49:25.211372,-128
2021-09-24 14:49:25.211379,-155
2021-09-24 14:49:25.211385,-170
2021-09-24 14:49:25.211392,-174
2021-09-24 14:49:25.211398,-179
2021-09-24 14:49:25.211405,-194
2021-09-24 14:49:25.211411,-216
2021-09-24 14:49:25.211417,-238
2021-09-24 14:49:25.211424,-262
2021-09-24 14:49:25.211430,-293
2021-09-24 14:49:25.211437,-320
2021-09-24 14:49:25.211443,-337
2021-09-24 14:49:25.211449,-359
2021-09-24 14:49:25.211456,-388
2021-09-24 14:49:25.211462,-405
2021-09-24 14:49:25.211469,-408
2021-09-24 14:49:25.211475,-388
2021-09-24 14:49:25.481086,-342
2021-09-24 14:49:25.481105,-284
2021-09-24 14:49:25.481112,-208
2021-09-24 14:49:25.481117,-119
2021-09-24 14:49:25.481123,-29
2021-09-24 14:49:25.481128,51
2021-09-24 14:49:25.481134,121
2021-09-24 14:49:25.481139,167
2021-09-24 14:49:25.481144,187
2021-09-24 14:49:25.481149,189
2021-09-24 14:49:25.481155,191
2021-09-24 14:49:25.481160,194
2021-09-24 14:49:25.481165,194
2021-09-24 14:49:25.481171,189
2021-09-24 14:49:25.481176,177
2021-09-24 14:49:25.481181,157
2021-09-24 14:49:25.481186,145
2021-09-24 14:49:25.481192,145
2021-09-24 14:49:25.481197,140
2021-09-24 14:49:25.481202,133
2021-09-24 14:49:25.481208,121
2021-09-24 14:49:25.481213,104
2021-09-24 14:49:25.481218,89
2021-09-24 14:49:25.481223,82
2021-09-24 14:49:25.481229,80
2021-09-24 14:49:25.481234,77
2021-09-24 14:49:25.481239,70
2021-09-24 14:49:25.481245,60
2021-09-24 14:49:25.481250,68
2021-09-24 14:49:25.481255,75
2021-09-24 14:49:25.705967,75
2021-09-24 14:49:25.705985,77
2021-09-24 14:49:25.705991,80
2021-09-24 14:49:25.706005,77
2021-09-24 14:49:25.706011,75
2021-09-24 14:49:25.706016,77
2021-09-24 14:49:25.706021,85
2021-09-24 14:49:25.706026,85
2021-09-24 14:49:25.706031,80
2021-09-24 14:49:25.706036,75
2021-09-24 14:49:25.706042,72
2021-09-24 14:49:25.706047,75
2021-09-24 14:49:25.706052,80
2021-09-24 14:49:25.706057,72
2021-09-24 14:49:25.706062,60
2021-09-24 14:49:25.706068,58
2021-09-24 14:49:25.706073,63
2021-09-24 14:49:25.706078,65
2021-09-24 14:49:25.706083,60
2021-09-24 14:49:25.706088,58
2021-09-24 14:49:25.706093,51
2021-09-24 14:49:25.706099,41
2021-09-24 14:49:25.706104,46
2021-09-24 14:49:25.706109,58
2021-09-24 14:49:25.706114,53
2021-09-24 14:49:25.706119,41
2021-09-24 14:49:25.706125,26
2021-09-24 14:49:25.706130,14
2021-09-24 14:49:25.706135,12
2021-09-24 14:49:25.706140,12
2021-09-24 14:49:26.003644,7
2021-09-24 14:49:26.003669,14
2021-09-24 14:49:26.003679,34
2021-09-24 14:49:26.003687,46
2021-09-24 14:49:26.003695,46
2021-09-24 14:49:26.003704,46
2021-09-24 14:49:26.003712,48
2021-09-24 14:49:26.003720,46
2021-09-24 14:49:26.003728,34
2021-09-24 14:49:26.003737,31
2021-09-24 14:49:26.003745,38
2021-09-24 14:49:26.003753,38
2021-09-24 14:49:26.003761,29
2021-09-24 14:49:26.003770,-2
2021-09-24 14:49:26.003778,-80
2021-09-24 14:49:26.003786,-240
2021-09-24 14:49:26.003795,-449
2021-09-24 14:49:26.003803,-461
2021-09-24 14:49:26.003811,-133
2021-09-24 14:49:26.003828,352
2021-09-24 14:49:26.003837,626
2021-09-24 14:49:26.003845,429
2021-09-24 14:49:26.003854,111
2021-09-24 14:49:26.003868,68
2021-09-24 14:49:26.003877,46
2021-09-24 14:49:26.003885,-80
2021-09-24 14:49:26.003893,-111
2021-09-24 14:49:26.003901,-82
2021-09-24 14:49:26.003909,-104
2021-09-24 14:49:26.003918,-126
2021-09-24 14:49:26.155889,-121
2021-09-24 14:49:26.155909,-126
2021-09-24 14:49:26.155917,-138
2021-09-24 14:49:26.155924,-148
2021-09-24 14:49:26.155930,-160
2021-09-24 14:49:26.155937,-165
2021-09-24 14:49:26.155943,-172
2021-09-24 14:49:26.155950,-199
2021-09-24 14:49:26.155956,-225
2021-09-24 14:49:26.155963,-240
2021-09-24 14:49:26.155969,-264
2021-09-24 14:49:26.155976,-289
2021-09-24 14:49:26.155982,-323
2021-09-24 14:49:26.155989,-364
2021-09-24 14:49:26.155995,-383
2021-09-24 14:49:26.156002,-388
2021-09-24 14:49:26.156008,-388
2021-09-24 14:49:26.156015,-376
2021-09-24 14:49:26.156021,-347
2021-09-24 14:49:26.156028,-296
2021-09-24 14:49:26.156035,-218
2021-09-24 14:49:26.156041,-128
2021-09-24 14:49:26.156048,-29
2021-09-24 14:49:26.156054,58
2021-09-24 14:49:26.156061,121
2021-09-24 14:49:26.156067,160
2021-09-24 14:49:26.156074,182
2021-09-24 14:49:26.156080,191
2021-09-24 14:49:26.156087,201
2021-09-24 14:49:26.156093,201
2021-09-24 14:49:26.381287,194
2021-09-24 14:49:26.381309,187
2021-09-24 14:49:26.381317,184
2021-09-24 14:49:26.381323,177
2021-09-24 14:49:26.381330,172
2021-09-24 14:49:26.381336,165
2021-09-24 14:49:26.381343,143
2021-09-24 14:49:26.381349,121
2021-09-24 14:49:26.381356,114
2021-09-24 14:49:26.381362,99
2021-09-24 14:49:26.381369,87
2021-09-24 14:49:26.381375,82
2021-09-24 14:49:26.381382,68
2021-09-24 14:49:26.381398,58
2021-09-24 14:49:26.381404,60
2021-09-24 14:49:26.381411,65
2021-09-24 14:49:26.381417,60
2021-09-24 14:49:26.381424,55
2021-09-24 14:49:26.381430,51
2021-09-24 14:49:26.381437,60
2021-09-24 14:49:26.381443,68
2021-09-24 14:49:26.381450,68
2021-09-24 14:49:26.381456,68
2021-09-24 14:49:26.381463,68
2021-09-24 14:49:26.381469,68
2021-09-24 14:49:26.381476,70
2021-09-24 14:49:26.381482,70
2021-09-24 14:49:26.381489,65
2021-09-24 14:49:26.381495,63
2021-09-24 14:49:26.381502,68
2021-09-24 14:49:26.651437,63
2021-09-24 14:49:26.651461,55
2021-09-24 14:49:26.651468,60
2021-09-24 14:49:26.651475,63
2021-09-24 14:49:26.651482,58
2021-09-24 14:49:26.651488,55
2021-09-24 14:49:26.651495,53
2021-09-24 14:49:26.651501,48
2021-09-24 14:49:26.651508,55
2021-09-24 14:49:26.651514,60
2021-09-24 14:49:26.651521,58
2021-09-24 14:49:26.651528,51
2021-09-24 14:49:26.651534,41
2021-09-24 14:49:26.651541,46
2021-09-24 14:49:26.651547,60
2021-09-24 14:49:26.651554,63
2021-09-24 14:49:26.651560,63
2021-09-24 14:49:26.651567,55
2021-09-24 14:49:26.651573,36
2021-09-24 14:49:26.651580,34
2021-09-24 14:49:26.651586,34
2021-09-24 14:49:26.651593,21
2021-09-24 14:49:26.651599,26
2021-09-24 14:49:26.651606,51
2021-09-24 14:49:26.651612,68
2021-09-24 14:49:26.651619,68
2021-09-24 14:49:26.651625,65
2021-09-24 14:49:26.651632,68
2021-09-24 14:49:26.651638,70
2021-09-24 14:49:26.651645,72
2021-09-24 14:49:26.875956,68
2021-09-24 14:49:26.875976,53
2021-09-24 14:49:26.875982,36
2021-09-24 14:49:26.875997,31
2021-09-24 14:49:26.876003,14
2021-09-24 14:49:26.876008,-43
2021-09-24 14:49:26.876013,-160
2021-09-24 14:49:26.876019,-371
2021-09-24 14:49:26.876024,-529
2021-09-24 14:49:26.876029,-354
2021-09-24 14:49:26.876034,116
2021-09-24 14:49:26.876040,568
2021-09-24 14:49:26.876045,592
2021-09-24 14:49:26.876050,235
2021-09-24 14:49:26.876055,58
2021-09-24 14:49:26.876060,70
2021-09-24 14:49:26.876065,-34
2021-09-24 14:49:26.876071,-109
2021-09-24 14:49:26.876076,-77
2021-09-24 14:49:26.876081,-82
2021-09-24 14:49:26.876087,-114
2021-09-24 14:49:26.876092,-111
2021-09-24 14:49:26.876097,-114
2021-09-24 14:49:26.876102,-131
2021-09-24 14:49:26.876108,-138
2021-09-24 14:49:26.876115,-143
2021-09-24 14:49:26.876121,-157
2021-09-24 14:49:26.876126,-172
2021-09-24 14:49:26.876131,-182
2021-09-24 14:49:26.876136,-191
2021-09-24 14:49:27.056217,-211
2021-09-24 14:49:27.056245,-240
2021-09-24 14:49:27.056253,-272
2021-09-24 14:49:27.056260,-301
2021-09-24 14:49:27.056267,-335
2021-09-24 14:49:27.056273,-364
2021-09-24 14:49:27.056280,-378
2021-09-24 14:49:27.056286,-381
2021-09-24 14:49:27.056293,-376
2021-09-24 14:49:27.056299,-364
2021-09-24 14:49:27.056306,-335
2021-09-24 14:49:27.056312,-267
2021-09-24 14:49:27.056319,-165
2021-09-24 14:49:27.056325,-58
2021-09-24 14:49:27.056332,38
2021-09-24 14:49:27.056338,114
2021-09-24 14:49:27.056345,162
2021-09-24 14:49:27.056352,199
2021-09-24 14:49:27.056358,228
2021-09-24 14:49:27.056365,240
2021-09-24 14:49:27.056371,240
2021-09-24 14:49:27.056378,242
2021-09-24 14:49:27.056384,242
2021-09-24 14:49:27.056401,240
2021-09-24 14:49:27.056408,235
2021-09-24 14:49:27.056414,225
2021-09-24 14:49:27.056420,216
2021-09-24 14:49:27.056427,201
2021-09-24 14:49:27.056433,184
2021-09-24 14:49:27.056440,177
2021-09-24 14:49:27.371320,170
2021-09-24 14:49:27.371342,153
2021-09-24 14:49:27.371350,136
2021-09-24 14:49:27.371356,119
2021-09-24 14:49:27.371363,109
2021-09-24 14:49:27.371369,102
2021-09-24 14:49:27.371375,85
2021-09-24 14:49:27.371382,75
2021-09-24 14:49:27.371388,77
2021-09-24 14:49:27.371395,70
2021-09-24 14:49:27.371401,58
2021-09-24 14:49:27.371407,63
2021-09-24 14:49:27.371414,72
2021-09-24 14:49:27.371420,72
2021-09-24 14:49:27.371427,70
2021-09-24 14:49:27.371433,70
2021-09-24 14:49:27.371439,75
2021-09-24 14:49:27.371446,77
2021-09-24 14:49:27.371452,80
2021-09-24 14:49:27.371459,82
2021-09-24 14:49:27.371465,85
2021-09-24 14:49:27.371471,80
2021-09-24 14:49:27.371478,80
2021-09-24 14:49:27.371484,82
2021-09-24 14:49:27.371490,80
2021-09-24 14:49:27.371497,77
2021-09-24 14:49:27.371503,77
2021-09-24 14:49:27.371509,70
2021-09-24 14:49:27.371516,68
2021-09-24 14:49:27.371522,72
2021-09-24 14:49:27.596268,70
2021-09-24 14:49:27.596290,68
2021-09-24 14:49:27.596298,68
2021-09-24 14:49:27.596305,65
2021-09-24 14:49:27.596312,58
2021-09-24 14:49:27.596318,58
2021-09-24 14:49:27.596325,53
2021-09-24 14:49:27.596331,48
2021-09-24 14:49:27.596338,53
2021-09-24 14:49:27.596345,51
2021-09-24 14:49:27.596351,34
2021-09-24 14:49:27.596358,19
2021-09-24 14:49:27.596364,17
2021-09-24 14:49:27.596371,21
2021-09-24 14:49:27.596377,12
2021-09-24 14:49:27.596384,-7
2021-09-24 14:49:27.596390,2
2021-09-24 14:49:27.596397,31
2021-09-24 14:49:27.596403,46
2021-09-24 14:49:27.596410,51
2021-09-24 14:49:27.596416,51
2021-09-24 14:49:27.596423,46
2021-09-24 14:49:27.596430,46
2021-09-24 14:49:27.596436,53
2021-09-24 14:49:27.596443,63
2021-09-24 14:49:27.596449,65
2021-09-24 14:49:27.596456,63
2021-09-24 14:49:27.596462,51
2021-09-24 14:49:27.596469,21
2021-09-24 14:49:27.596476,-38
2021-09-24 14:49:27.821135,-201
2021-09-24 14:49:27.821158,-468
2021-09-24 14:49:27.821166,-551
2021-09-24 14:49:27.821173,-235
2021-09-24 14:49:27.821179,327
2021-09-24 14:49:27.821186,699
2021-09-24 14:49:27.821192,517
2021-09-24 14:49:27.821199,153
2021-09-24 14:49:27.821205,77
2021-09-24 14:49:27.821212,60
2021-09-24 14:49:27.821218,-58
2021-09-24 14:49:27.821225,-99
2021-09-24 14:49:27.821231,-85
2021-09-24 14:49:27.821238,-109
2021-09-24 14:49:27.821244,-126
2021-09-24 14:49:27.821250,-123
2021-09-24 14:49:27.821257,-131
2021-09-24 14:49:27.821263,-140
2021-09-24 14:49:27.821270,-143
2021-09-24 14:49:27.821276,-157
2021-09-24 14:49:27.821283,-182
2021-09-24 14:49:27.821289,-199
2021-09-24 14:49:27.821295,-208
2021-09-24 14:49:27.821302,-223
2021-09-24 14:49:27.821308,-250
2021-09-24 14:49:27.821315,-281
2021-09-24 14:49:27.821321,-313
2021-09-24 14:49:27.821328,-342
2021-09-24 14:49:27.821334,-371
2021-09-24 14:49:27.821341,-393
2021-09-24 14:49:28.044889,-400
2021-09-24 14:49:28.044912,-403
2021-09-24 14:49:28.044920,-398
2021-09-24 14:49:28.044935,-371
2021-09-24 14:49:28.044942,-320
2021-09-24 14:49:28.044948,-242
2021-09-24 14:49:28.044955,-148
2021-09-24 14:49:28.044961,-55
2021-09-24 14:49:28.044968,24
2021-09-24 14:49:28.044974,92
2021-09-24 14:49:28.044981,150
2021-09-24 14:49:28.044987,194
2021-09-24 14:49:28.044993,216
2021-09-24 14:49:28.045000,221
2021-09-24 14:49:28.045006,221
2021-09-24 14:49:28.045013,221
2021-09-24 14:49:28.045019,218
2021-09-24 14:49:28.045025,213
2021-09-24 14:49:28.045032,201
2021-09-24 14:49:28.045038,182
2021-09-24 14:49:28.045045,165
2021-09-24 14:49:28.045051,162
2021-09-24 14:49:28.045058,157
2021-09-24 14:49:28.045064,148
2021-09-24 14:49:28.045070,133
2021-09-24 14:49:28.045077,116
2021-09-24 14:49:28.045084,106
2021-09-24 14:49:28.045090,99
2021-09-24 14:49:28.045096,89
2021-09-24 14:49:28.045103,82
2021-09-24 14:49:28.226018,80
2021-09-24 14:49:28.226038,80
2021-09-24 14:49:28.226044,82
2021-09-24 14:49:28.226050,87
2021-09-24 14:49:28.226056,87
2021-09-24 14:49:28.226061,87
2021-09-24 14:49:28.226066,87
2021-09-24 14:49:28.226071,85
2021-09-24 14:49:28.226076,87
2021-09-24 14:49:28.226082,87
2021-09-24 14:49:28.226087,82
2021-09-24 14:49:28.226092,82
2021-09-24 14:49:28.226097,72
2021-09-24 14:49:28.226102,60
2021-09-24 14:49:28.226107,55
2021-09-24 14:49:28.226113,53
2021-09-24 14:49:28.226118,51
2021-09-24 14:49:28.226123,46
2021-09-24 14:49:28.226128,29
2021-09-24 14:49:28.226133,31
2021-09-24 14:49:28.226139,43
2021-09-24 14:49:28.226157,36
2021-09-24 14:49:28.226163,29
2021-09-24 14:49:28.226174,34
2021-09-24 14:49:28.226179,34
2021-09-24 14:49:28.226185,29
2021-09-24 14:49:28.226190,34
2021-09-24 14:49:28.226195,41
2021-09-24 14:49:28.226200,41
2021-09-24 14:49:28.226206,36
2021-09-24 14:49:28.496022,38
2021-09-24 14:49:28.496042,41
2021-09-24 14:49:28.496049,38
2021-09-24 14:49:28.496054,26
2021-09-24 14:49:28.496059,9
2021-09-24 14:49:28.496065,-2
2021-09-24 14:49:28.496070,-7
2021-09-24 14:49:28.496075,-12
2021-09-24 14:49:28.496080,-14
2021-09-24 14:49:28.496086,-2
2021-09-24 14:49:28.496091,19
2021-09-24 14:49:28.496096,29
2021-09-24 14:49:28.496101,21
2021-09-24 14:49:28.496106,21
2021-09-24 14:49:28.496111,31
2021-09-24 14:49:28.496116,31
2021-09-24 14:49:28.496122,29
2021-09-24 14:49:28.496127,21
2021-09-24 14:49:28.496132,17
2021-09-24 14:49:28.496137,19
2021-09-24 14:49:28.496142,12
2021-09-24 14:49:28.496148,-17
2021-09-24 14:49:28.496153,-97
2021-09-24 14:49:28.496158,-306
2021-09-24 14:49:28.496163,-563
2021-09-24 14:49:28.496168,-539
2021-09-24 14:49:28.496174,-99
2021-09-24 14:49:28.496179,478
2021-09-24 14:49:28.496184,687
2021-09-24 14:49:28.496189,369
2021-09-24 14:49:28.676005,82
2021-09-24 14:49:28.676026,75
2021-09-24 14:49:28.676032,9
2021-09-24 14:49:28.676038,-97
2021-09-24 14:49:28.676043,-82
2021-09-24 14:49:28.676048,-72
2021-09-24 14:49:28.676053,-106
2021-09-24 14:49:28.676059,-111
2021-09-24 14:49:28.676064,-109
2021-09-24 14:49:28.676069,-128
2021-09-24 14:49:28.676074,-140
2021-09-24 14:49:28.676079,-157
2021-09-24 14:49:28.676085,-174
2021-09-24 14:49:28.676099,-179
2021-09-24 14:49:28.676105,-191
2021-09-24 14:49:28.676110,-216
2021-09-24 14:49:28.676115,-242
2021-09-24 14:49:28.676121,-269
2021-09-24 14:49:28.676126,-298
2021-09-24 14:49:28.676131,-332
2021-09-24 14:49:28.676136,-364
2021-09-24 14:49:28.676142,-391
2021-09-24 14:49:28.676147,-400
2021-09-24 14:49:28.676152,-410
2021-09-24 14:49:28.676157,-429
2021-09-24 14:49:28.676162,-417
2021-09-24 14:49:28.676168,-381
2021-09-24 14:49:28.676173,-327
2021-09-24 14:49:28.676178,-250
2021-09-24 14:49:28.676183,-150
2021-09-24 14:49:28.901465,-53
2021-09-24 14:49:28.901489,34
2021-09-24 14:49:28.901497,104
2021-09-24 14:49:28.901503,153
2021-09-24 14:49:28.901510,179
2021-09-24 14:49:28.901516,194
2021-09-24 14:49:28.901522,208
2021-09-24 14:49:28.901529,218
2021-09-24 14:49:28.901535,216
2021-09-24 14:49:28.901541,208
2021-09-24 14:49:28.901548,199
2021-09-24 14:49:28.901554,177
2021-09-24 14:49:28.901560,162
2021-09-24 14:49:28.901567,150
2021-09-24 14:49:28.901573,136
2021-09-24 14:49:28.901579,121
2021-09-24 14:49:28.901586,111
2021-09-24 14:49:28.901592,109
2021-09-24 14:49:28.901598,106
2021-09-24 14:49:28.901605,102
2021-09-24 14:49:28.901611,89
2021-09-24 14:49:28.901617,77
2021-09-24 14:49:28.901624,72
2021-09-24 14:49:28.901630,77
2021-09-24 14:49:28.901636,80
2021-09-24 14:49:28.901642,82
2021-09-24 14:49:28.901649,82
2021-09-24 14:49:28.901655,77
2021-09-24 14:49:28.901661,80
2021-09-24 14:49:28.901668,89
2021-09-24 14:49:29.126023,89
2021-09-24 14:49:29.126043,85
2021-09-24 14:49:29.126049,85
2021-09-24 14:49:29.126064,75
2021-09-24 14:49:29.126069,65
2021-09-24 14:49:29.126075,70
2021-09-24 14:49:29.126080,70
2021-09-24 14:49:29.126085,70
2021-09-24 14:49:29.126090,75
2021-09-24 14:49:29.126095,65
2021-09-24 14:49:29.126100,46
2021-09-24 14:49:29.126106,51
2021-09-24 14:49:29.126111,63
2021-09-24 14:49:29.126116,60
2021-09-24 14:49:29.126121,55
2021-09-24 14:49:29.126126,48
2021-09-24 14:49:29.126132,46
2021-09-24 14:49:29.126137,55
2021-09-24 14:49:29.126142,63
2021-09-24 14:49:29.126147,58
2021-09-24 14:49:29.126152,53
2021-09-24 14:49:29.126158,48
2021-09-24 14:49:29.126163,41
2021-09-24 14:49:29.126168,41
2021-09-24 14:49:29.126173,48
2021-09-24 14:49:29.126179,46
2021-09-24 14:49:29.126184,19
2021-09-24 14:49:29.126189,4
2021-09-24 14:49:29.126195,17
2021-09-24 14:49:29.126200,7
2021-09-24 14:49:29.440813,-17
2021-09-24 14:49:29.440835,-4
2021-09-24 14:49:29.440843,17
2021-09-24 14:49:29.440850,17
2021-09-24 14:49:29.440856,19
2021-09-24 14:49:29.440862,26
2021-09-24 14:49:29.440869,29
2021-09-24 14:49:29.440875,29
2021-09-24 14:49:29.440882,26
2021-09-24 14:49:29.440888,19
2021-09-24 14:49:29.440894,19
2021-09-24 14:49:29.440901,24
2021-09-24 14:49:29.440907,14
2021-09-24 14:49:29.440914,-17
2021-09-24 14:49:29.440920,-99
2021-09-24 14:49:29.440926,-301
2021-09-24 14:49:29.440933,-558
2021-09-24 14:49:29.440939,-566
2021-09-24 14:49:29.440946,-157
2021-09-24 14:49:29.440952,434
2021-09-24 14:49:29.440958,677
2021-09-24 14:49:29.440965,366
2021-09-24 14:49:29.440971,72
2021-09-24 14:49:29.440987,65
2021-09-24 14:49:29.440994,2
2021-09-24 14:49:29.441001,-116
2021-09-24 14:49:29.441007,-109
2021-09-24 14:49:29.441014,-87
2021-09-24 14:49:29.441020,-121
2021-09-24 14:49:29.441027,-126
2021-09-24 14:49:29.620980,-111
2021-09-24 14:49:29.621001,-123
2021-09-24 14:49:29.621008,-145
2021-09-24 14:49:29.621015,-157
2021-09-24 14:49:29.621022,-170
2021-09-24 14:49:29.621029,-182
2021-09-24 14:49:29.621035,-189
2021-09-24 14:49:29.621042,-208
2021-09-24 14:49:29.621048,-240
2021-09-24 14:49:29.621055,-269
2021-09-24 14:49:29.621062,-289
2021-09-24 14:49:29.621068,-318
2021-09-24 14:49:29.621075,-349
2021-09-24 14:49:29.621081,-381
2021-09-24 14:49:29.621088,-415
2021-09-24 14:49:29.621094,-429
2021-09-24 14:49:29.621101,-422
2021-09-24 14:49:29.621108,-400
2021-09-24 14:49:29.621114,-364
2021-09-24 14:49:29.621121,-303
2021-09-24 14:49:29.621127,-230
2021-09-24 14:49:29.621134,-140
2021-09-24 14:49:29.621140,-38
2021-09-24 14:49:29.621147,53
2021-09-24 14:49:29.621153,121
2021-09-24 14:49:29.621160,172
2021-09-24 14:49:29.621166,196
2021-09-24 14:49:29.621173,196
2021-09-24 14:49:29.621180,196
2021-09-24 14:49:29.621186,194
2021-09-24 14:49:29.846593,184
2021-09-24 14:49:29.846676,177
2021-09-24 14:49:29.846689,165
2021-09-24 14:49:29.846699,153
2021-09-24 14:49:29.846709,136
2021-09-24 14:49:29.846720,126
2021-09-24 14:49:29.846730,119
2021-09-24 14:49:29.846739,106
2021-09-24 14:49:29.846866,89
2021-09-24 14:49:29.846900,82
2021-09-24 14:49:29.846912,87
2021-09-24 14:49:29.846923,89
2021-09-24 14:49:29.846934,77
2021-09-24 14:49:29.846961,65
2021-09-24 14:49:29.846974,60
2021-09-24 14:49:29.846985,58
2021-09-24 14:49:29.846997,53
2021-09-24 14:49:29.847009,60
2021-09-24 14:49:29.847016,70
2021-09-24 14:49:29.847022,70
2021-09-24 14:49:29.847029,70
2021-09-24 14:49:29.847036,77
2021-09-24 14:49:29.847042,75
2021-09-24 14:49:29.847049,70
2021-09-24 14:49:29.847055,75
2021-09-24 14:49:29.847062,75
2021-09-24 14:49:29.847068,70
2021-09-24 14:49:29.847075,70
2021-09-24 14:49:29.847081,72
2021-09-24 14:49:29.847088,70
2021-09-24 14:49:30.115429,65
2021-09-24 14:49:30.115453,63
2021-09-24 14:49:30.115460,60
2021-09-24 14:49:30.115465,60
2021-09-24 14:49:30.115470,60
