Time,ECG
2021-09-24 15:10:14.473074,72
2021-09-24 15:10:14.473097,77
2021-09-24 15:10:14.473106,77
2021-09-24 15:10:14.473112,70
2021-09-24 15:10:14.473119,63
2021-09-24 15:10:14.473126,60
2021-09-24 15:10:14.473133,65
2021-09-24 15:10:14.473139,70
2021-09-24 15:10:14.473146,72
2021-09-24 15:10:14.473153,68
2021-09-24 15:10:14.473160,55
2021-09-24 15:10:14.473167,48
2021-09-24 15:10:14.473173,48
2021-09-24 15:10:14.473180,38
2021-09-24 15:10:14.473187,26
2021-09-24 15:10:14.473193,19
2021-09-24 15:10:14.473200,31
2021-09-24 15:10:14.473207,55
2021-09-24 15:10:14.473214,68
2021-09-24 15:10:14.473221,65
2021-09-24 15:10:14.473227,63
2021-09-24 15:10:14.473234,60
2021-09-24 15:10:14.473241,58
2021-09-24 15:10:14.473247,63
2021-09-24 15:10:14.473254,65
2021-09-24 15:10:14.473261,63
2021-09-24 15:10:14.473268,46
2021-09-24 15:10:14.473275,4
2021-09-24 15:10:14.473282,-77
2021-09-24 15:10:14.473288,-262
2021-09-24 15:10:14.786858,-466
2021-09-24 15:10:14.786881,-347
2021-09-24 15:10:14.786889,184
2021-09-24 15:10:14.786896,692
2021-09-24 15:10:14.786902,682
2021-09-24 15:10:14.786909,276
2021-09-24 15:10:14.786916,58
2021-09-24 15:10:14.786923,41
2021-09-24 15:10:14.786929,-77
2021-09-24 15:10:14.786936,-174
2021-09-24 15:10:14.786942,-140
2021-09-24 15:10:14.786949,-131
2021-09-24 15:10:14.786955,-165
2021-09-24 15:10:14.786962,-165
2021-09-24 15:10:14.786968,-165
2021-09-24 15:10:14.786974,-184
2021-09-24 15:10:14.786981,-194
2021-09-24 15:10:14.786988,-196
2021-09-24 15:10:14.786994,-208
2021-09-24 15:10:14.787001,-225
2021-09-24 15:10:14.787007,-242
2021-09-24 15:10:14.787014,-264
2021-09-24 15:10:14.787020,-289
2021-09-24 15:10:14.787027,-308
2021-09-24 15:10:14.787033,-335
2021-09-24 15:10:14.787039,-359
2021-09-24 15:10:14.787046,-383
2021-09-24 15:10:14.787052,-398
2021-09-24 15:10:14.787059,-400
2021-09-24 15:10:14.787069,-391
2021-09-24 15:10:15.013336,-364
2021-09-24 15:10:15.013361,-310
2021-09-24 15:10:15.013370,-228
2021-09-24 15:10:15.013378,-133
2021-09-24 15:10:15.013385,-29
2021-09-24 15:10:15.013393,60
2021-09-24 15:10:15.013400,123
2021-09-24 15:10:15.013407,170
2021-09-24 15:10:15.013415,196
2021-09-24 15:10:15.013422,204
2021-09-24 15:10:15.013429,213
2021-09-24 15:10:15.013436,221
2021-09-24 15:10:15.013444,216
2021-09-24 15:10:15.013456,208
2021-09-24 15:10:15.013464,191
2021-09-24 15:10:15.013471,174
2021-09-24 15:10:15.013478,170
2021-09-24 15:10:15.013486,165
2021-09-24 15:10:15.013493,155
2021-09-24 15:10:15.013501,143
2021-09-24 15:10:15.013508,131
2021-09-24 15:10:15.013515,116
2021-09-24 15:10:15.013522,109
2021-09-24 15:10:15.013529,102
2021-09-24 15:10:15.013537,92
2021-09-24 15:10:15.013544,85
2021-09-24 15:10:15.013551,77
2021-09-24 15:10:15.013558,72
2021-09-24 15:10:15.013566,75
2021-09-24 15:10:15.013575,77
2021-09-24 15:10:15.282382,77
2021-09-24 15:10:15.282404,77
2021-09-24 15:10:15.282412,75
2021-09-24 15:10:15.282419,72
2021-09-24 15:10:15.282426,70
2021-09-24 15:10:15.282433,65
2021-09-24 15:10:15.282440,63
2021-09-24 15:10:15.282447,63
2021-09-24 15:10:15.282454,53
2021-09-24 15:10:15.282460,48
2021-09-24 15:10:15.282467,60
2021-09-24 15:10:15.282474,68
2021-09-24 15:10:15.282481,65
2021-09-24 15:10:15.282488,58
2021-09-24 15:10:15.282495,41
2021-09-24 15:10:15.282501,24
2021-09-24 15:10:15.282508,19
2021-09-24 15:10:15.282519,12
2021-09-24 15:10:15.282526,7
2021-09-24 15:10:15.282533,17
2021-09-24 15:10:15.282540,34
2021-09-24 15:10:15.282547,41
2021-09-24 15:10:15.282554,41
2021-09-24 15:10:15.282560,41
2021-09-24 15:10:15.282567,46
2021-09-24 15:10:15.282574,46
2021-09-24 15:10:15.282581,41
2021-09-24 15:10:15.282588,41
2021-09-24 15:10:15.282594,43
2021-09-24 15:10:15.282601,31
2021-09-24 15:10:15.462771,-4
2021-09-24 15:10:15.462792,-85
2021-09-24 15:10:15.462800,-272
2021-09-24 15:10:15.462807,-473
2021-09-24 15:10:15.462814,-352
2021-09-24 15:10:15.462821,170
2021-09-24 15:10:15.462828,680
2021-09-24 15:10:15.462840,685
2021-09-24 15:10:15.462847,279
2021-09-24 15:10:15.462854,55
2021-09-24 15:10:15.462861,46
2021-09-24 15:10:15.462867,-55
2021-09-24 15:10:15.462874,-138
2021-09-24 15:10:15.462881,-114
2021-09-24 15:10:15.462888,-119
2021-09-24 15:10:15.462895,-150
2021-09-24 15:10:15.462901,-150
2021-09-24 15:10:15.462908,-150
2021-09-24 15:10:15.462915,-172
2021-09-24 15:10:15.462922,-189
2021-09-24 15:10:15.462929,-196
2021-09-24 15:10:15.462936,-208
2021-09-24 15:10:15.462942,-223
2021-09-24 15:10:15.462949,-238
2021-09-24 15:10:15.462956,-259
2021-09-24 15:10:15.462963,-286
2021-09-24 15:10:15.462970,-310
2021-09-24 15:10:15.462976,-335
2021-09-24 15:10:15.462983,-357
2021-09-24 15:10:15.462991,-376
2021-09-24 15:10:15.642770,-388
2021-09-24 15:10:15.642790,-393
2021-09-24 15:10:15.642797,-386
2021-09-24 15:10:15.642803,-366
2021-09-24 15:10:15.642809,-318
2021-09-24 15:10:15.642815,-235
2021-09-24 15:10:15.642821,-138
2021-09-24 15:10:15.642827,-41
2021-09-24 15:10:15.642833,46
2021-09-24 15:10:15.642839,106
2021-09-24 15:10:15.642845,155
2021-09-24 15:10:15.642851,191
2021-09-24 15:10:15.642857,206
2021-09-24 15:10:15.642863,211
2021-09-24 15:10:15.642869,218
2021-09-24 15:10:15.642875,213
2021-09-24 15:10:15.642881,206
2021-09-24 15:10:15.642887,196
2021-09-24 15:10:15.642893,174
2021-09-24 15:10:15.642899,148
2021-09-24 15:10:15.642905,126
2021-09-24 15:10:15.642912,111
2021-09-24 15:10:15.642922,102
2021-09-24 15:10:15.642932,94
2021-09-24 15:10:15.642946,85
2021-09-24 15:10:15.642956,80
2021-09-24 15:10:15.642966,75
2021-09-24 15:10:15.642975,72
2021-09-24 15:10:15.642985,68
2021-09-24 15:10:15.642995,68
2021-09-24 15:10:16.003413,68
2021-09-24 15:10:16.003434,70
2021-09-24 15:10:16.003442,70
2021-09-24 15:10:16.003449,68
2021-09-24 15:10:16.003456,70
2021-09-24 15:10:16.003463,68
2021-09-24 15:10:16.003470,60
2021-09-24 15:10:16.003477,63
2021-09-24 15:10:16.003484,68
2021-09-24 15:10:16.003491,65
2021-09-24 15:10:16.003498,58
2021-09-24 15:10:16.003505,48
2021-09-24 15:10:16.003512,41
2021-09-24 15:10:16.003519,46
2021-09-24 15:10:16.003526,58
2021-09-24 15:10:16.003533,58
2021-09-24 15:10:16.003539,48
2021-09-24 15:10:16.003546,36
2021-09-24 15:10:16.003553,26
2021-09-24 15:10:16.003560,19
2021-09-24 15:10:16.003567,14
2021-09-24 15:10:16.003574,12
2021-09-24 15:10:16.003583,24
2021-09-24 15:10:16.003590,46
2021-09-24 15:10:16.003597,53
2021-09-24 15:10:16.003603,51
2021-09-24 15:10:16.003610,53
2021-09-24 15:10:16.003617,55
2021-09-24 15:10:16.003624,53
2021-09-24 15:10:16.003631,51
2021-09-24 15:10:16.093229,51
2021-09-24 15:10:16.093251,51
2021-09-24 15:10:16.093258,38
2021-09-24 15:10:16.093265,7
2021-09-24 15:10:16.093272,-68
2021-09-24 15:10:16.093278,-238
2021-09-24 15:10:16.093285,-449
2021-09-24 15:10:16.093292,-398
2021-09-24 15:10:16.093298,68
2021-09-24 15:10:16.093305,621
2021-09-24 15:10:16.093311,723
2021-09-24 15:10:16.093318,340
2021-09-24 15:10:16.093324,63
2021-09-24 15:10:16.093331,41
2021-09-24 15:10:16.093338,-51
2021-09-24 15:10:16.093344,-148
2021-09-24 15:10:16.093351,-126
2021-09-24 15:10:16.093357,-123
2021-09-24 15:10:16.093364,-155
2021-09-24 15:10:16.093370,-153
2021-09-24 15:10:16.093377,-153
2021-09-24 15:10:16.093383,-172
2021-09-24 15:10:16.093390,-187
2021-09-24 15:10:16.093396,-194
2021-09-24 15:10:16.093407,-204
2021-09-24 15:10:16.093414,-225
2021-09-24 15:10:16.093421,-255
2021-09-24 15:10:16.093427,-279
2021-09-24 15:10:16.093434,-303
2021-09-24 15:10:16.093440,-332
2021-09-24 15:10:16.318257,-361
2021-09-24 15:10:16.318280,-383
2021-09-24 15:10:16.318288,-403
2021-09-24 15:10:16.318294,-422
2021-09-24 15:10:16.318301,-432
2021-09-24 15:10:16.318307,-425
2021-09-24 15:10:16.318314,-395
2021-09-24 15:10:16.318320,-347
2021-09-24 15:10:16.318327,-272
2021-09-24 15:10:16.318333,-174
2021-09-24 15:10:16.318340,-77
2021-09-24 15:10:16.318347,12
2021-09-24 15:10:16.318353,89
2021-09-24 15:10:16.318360,145
2021-09-24 15:10:16.318366,174
2021-09-24 15:10:16.318373,179
2021-09-24 15:10:16.318379,179
2021-09-24 15:10:16.318386,187
2021-09-24 15:10:16.318392,187
2021-09-24 15:10:16.318398,177
2021-09-24 15:10:16.318405,167
2021-09-24 15:10:16.318411,157
2021-09-24 15:10:16.318418,143
2021-09-24 15:10:16.318424,138
2021-09-24 15:10:16.318430,131
2021-09-24 15:10:16.318437,121
2021-09-24 15:10:16.318443,114
2021-09-24 15:10:16.318450,104
2021-09-24 15:10:16.318456,94
2021-09-24 15:10:16.318462,92
2021-09-24 15:10:16.587981,92
2021-09-24 15:10:16.588005,89
2021-09-24 15:10:16.588012,85
2021-09-24 15:10:16.588019,75
2021-09-24 15:10:16.588026,68
2021-09-24 15:10:16.588032,72
2021-09-24 15:10:16.588039,80
2021-09-24 15:10:16.588046,80
2021-09-24 15:10:16.588052,80
2021-09-24 15:10:16.588059,70
2021-09-24 15:10:16.588066,65
2021-09-24 15:10:16.588072,70
2021-09-24 15:10:16.588079,75
2021-09-24 15:10:16.588085,72
2021-09-24 15:10:16.588092,72
2021-09-24 15:10:16.588098,68
2021-09-24 15:10:16.588105,70
2021-09-24 15:10:16.588111,70
2021-09-24 15:10:16.588118,65
2021-09-24 15:10:16.588124,60
2021-09-24 15:10:16.588131,51
2021-09-24 15:10:16.588137,38
2021-09-24 15:10:16.588144,29
2021-09-24 15:10:16.588150,24
2021-09-24 15:10:16.588157,29
2021-09-24 15:10:16.588163,48
2021-09-24 15:10:16.588170,65
2021-09-24 15:10:16.588177,63
2021-09-24 15:10:16.588183,60
2021-09-24 15:10:16.588190,65
2021-09-24 15:10:16.856989,68
2021-09-24 15:10:16.857011,63
2021-09-24 15:10:16.857019,51
2021-09-24 15:10:16.857026,36
2021-09-24 15:10:16.857033,38
2021-09-24 15:10:16.857040,26
2021-09-24 15:10:16.857047,-19
2021-09-24 15:10:16.857054,-119
2021-09-24 15:10:16.857060,-327
2021-09-24 15:10:16.857067,-493
2021-09-24 15:10:16.857077,-274
2021-09-24 15:10:16.857084,301
2021-09-24 15:10:16.857091,733
2021-09-24 15:10:16.857098,609
2021-09-24 15:10:16.857105,196
2021-09-24 15:10:16.857111,34
2021-09-24 15:10:16.857118,17
2021-09-24 15:10:16.857125,-97
2021-09-24 15:10:16.857132,-148
2021-09-24 15:10:16.857139,-119
2021-09-24 15:10:16.857145,-143
2021-09-24 15:10:16.857152,-172
2021-09-24 15:10:16.857159,-162
2021-09-24 15:10:16.857166,-165
2021-09-24 15:10:16.857172,-182
2021-09-24 15:10:16.857179,-187
2021-09-24 15:10:16.857186,-199
2021-09-24 15:10:16.857193,-218
2021-09-24 15:10:16.857200,-235
2021-09-24 15:10:16.857206,-255
2021-09-24 15:10:17.172153,-276
2021-09-24 15:10:17.172171,-298
2021-09-24 15:10:17.172178,-327
2021-09-24 15:10:17.172183,-354
2021-09-24 15:10:17.172189,-376
2021-09-24 15:10:17.172194,-391
2021-09-24 15:10:17.172200,-398
2021-09-24 15:10:17.172205,-403
2021-09-24 15:10:17.172211,-398
2021-09-24 15:10:17.172216,-371
2021-09-24 15:10:17.172222,-306
2021-09-24 15:10:17.172227,-213
2021-09-24 15:10:17.172233,-111
2021-09-24 15:10:17.172238,-19
2021-09-24 15:10:17.172244,46
2021-09-24 15:10:17.172249,104
2021-09-24 15:10:17.172255,155
2021-09-24 15:10:17.172260,179
2021-09-24 15:10:17.172266,191
2021-09-24 15:10:17.172272,199
2021-09-24 15:10:17.172277,194
2021-09-24 15:10:17.172283,184
2021-09-24 15:10:17.172288,177
2021-09-24 15:10:17.172293,172
2021-09-24 15:10:17.172299,165
2021-09-24 15:10:17.172307,150
2021-09-24 15:10:17.172313,138
2021-09-24 15:10:17.172318,128
2021-09-24 15:10:17.172324,121
2021-09-24 15:10:17.172329,114
2021-09-24 15:10:17.263237,109
2021-09-24 15:10:17.263261,99
2021-09-24 15:10:17.263269,92
2021-09-24 15:10:17.263276,87
2021-09-24 15:10:17.263282,87
2021-09-24 15:10:17.263289,87
2021-09-24 15:10:17.263295,89
2021-09-24 15:10:17.263302,87
2021-09-24 15:10:17.263308,77
2021-09-24 15:10:17.263315,70
2021-09-24 15:10:17.263321,77
2021-09-24 15:10:17.263328,82
2021-09-24 15:10:17.263334,80
2021-09-24 15:10:17.263341,75
2021-09-24 15:10:17.263347,77
2021-09-24 15:10:17.263354,75
2021-09-24 15:10:17.263360,75
2021-09-24 15:10:17.263367,80
2021-09-24 15:10:17.263373,85
2021-09-24 15:10:17.263380,85
2021-09-24 15:10:17.263387,82
2021-09-24 15:10:17.263393,75
2021-09-24 15:10:17.263400,68
2021-09-24 15:10:17.263406,51
2021-09-24 15:10:17.263413,31
2021-09-24 15:10:17.263419,17
2021-09-24 15:10:17.263426,17
2021-09-24 15:10:17.263432,31
2021-09-24 15:10:17.263439,55
2021-09-24 15:10:17.263445,63
2021-09-24 15:10:17.488328,55
2021-09-24 15:10:17.488351,53
2021-09-24 15:10:17.488359,58
2021-09-24 15:10:17.488365,55
2021-09-24 15:10:17.488372,55
2021-09-24 15:10:17.488379,58
2021-09-24 15:10:17.488385,48
2021-09-24 15:10:17.488392,26
2021-09-24 15:10:17.488398,-7
2021-09-24 15:10:17.488405,-85
2021-09-24 15:10:17.488411,-269
2021-09-24 15:10:17.488417,-468
2021-09-24 15:10:17.488424,-354
2021-09-24 15:10:17.488430,162
2021-09-24 15:10:17.488437,680
2021-09-24 15:10:17.488443,687
2021-09-24 15:10:17.488453,281
2021-09-24 15:10:17.488460,55
2021-09-24 15:10:17.488466,43
2021-09-24 15:10:17.488473,-63
2021-09-24 15:10:17.488479,-143
2021-09-24 15:10:17.488486,-109
2021-09-24 15:10:17.488492,-111
2021-09-24 15:10:17.488499,-145
2021-09-24 15:10:17.488505,-148
2021-09-24 15:10:17.488512,-155
2021-09-24 15:10:17.488518,-177
2021-09-24 15:10:17.488524,-189
2021-09-24 15:10:17.488531,-199
2021-09-24 15:10:17.488537,-216
2021-09-24 15:10:17.757211,-235
2021-09-24 15:10:17.757233,-250
2021-09-24 15:10:17.757241,-267
2021-09-24 15:10:17.757247,-293
2021-09-24 15:10:17.757254,-318
2021-09-24 15:10:17.757261,-347
2021-09-24 15:10:17.757267,-378
2021-09-24 15:10:17.757274,-395
2021-09-24 15:10:17.757280,-403
2021-09-24 15:10:17.757287,-408
2021-09-24 15:10:17.757293,-398
2021-09-24 15:10:17.757300,-376
2021-09-24 15:10:17.757306,-332
2021-09-24 15:10:17.757313,-259
2021-09-24 15:10:17.757319,-167
2021-09-24 15:10:17.757326,-72
2021-09-24 15:10:17.757332,12
2021-09-24 15:10:17.757339,80
2021-09-24 15:10:17.757345,126
2021-09-24 15:10:17.757352,162
2021-09-24 15:10:17.757358,182
2021-09-24 15:10:17.757365,187
2021-09-24 15:10:17.757371,189
2021-09-24 15:10:17.757378,187
2021-09-24 15:10:17.757384,179
2021-09-24 15:10:17.757391,174
2021-09-24 15:10:17.757397,167
2021-09-24 15:10:17.757403,148
2021-09-24 15:10:17.757410,131
2021-09-24 15:10:17.757416,123
2021-09-24 15:10:17.938392,116
2021-09-24 15:10:17.938424,109
2021-09-24 15:10:17.938436,104
2021-09-24 15:10:17.938446,97
2021-09-24 15:10:17.938456,87
2021-09-24 15:10:17.938466,77
2021-09-24 15:10:17.938476,72
2021-09-24 15:10:17.938487,75
2021-09-24 15:10:17.938497,77
2021-09-24 15:10:17.938507,72
2021-09-24 15:10:17.938517,72
2021-09-24 15:10:17.938527,72
2021-09-24 15:10:17.938537,72
2021-09-24 15:10:17.938552,77
2021-09-24 15:10:17.938562,77
2021-09-24 15:10:17.938572,77
2021-09-24 15:10:17.938582,77
2021-09-24 15:10:17.938592,72
2021-09-24 15:10:17.938603,75
2021-09-24 15:10:17.938613,77
2021-09-24 15:10:17.938623,80
2021-09-24 15:10:17.938633,82
2021-09-24 15:10:17.938644,80
2021-09-24 15:10:17.938654,75
2021-09-24 15:10:17.938664,70
2021-09-24 15:10:17.938674,63
2021-09-24 15:10:17.938684,53
2021-09-24 15:10:17.938694,43
2021-09-24 15:10:17.938704,36
2021-09-24 15:10:17.938714,43
2021-09-24 15:10:18.163304,60
2021-09-24 15:10:18.163328,75
2021-09-24 15:10:18.163336,72
2021-09-24 15:10:18.163343,65
2021-09-24 15:10:18.163350,60
2021-09-24 15:10:18.163356,55
2021-09-24 15:10:18.163363,58
2021-09-24 15:10:18.163370,60
2021-09-24 15:10:18.163376,55
2021-09-24 15:10:18.163383,41
2021-09-24 15:10:18.163390,4
2021-09-24 15:10:18.163396,-65
2021-09-24 15:10:18.163403,-213
2021-09-24 15:10:18.163410,-427
2021-09-24 15:10:18.163417,-412
2021-09-24 15:10:18.163423,31
2021-09-24 15:10:18.163430,604
2021-09-24 15:10:18.163437,750
2021-09-24 15:10:18.163443,381
2021-09-24 15:10:18.163450,72
2021-09-24 15:10:18.163457,36
2021-09-24 15:10:18.163463,-43
2021-09-24 15:10:18.163470,-148
2021-09-24 15:10:18.163476,-128
2021-09-24 15:10:18.163483,-111
2021-09-24 15:10:18.163489,-145
2021-09-24 15:10:18.163496,-155
2021-09-24 15:10:18.163502,-155
2021-09-24 15:10:18.163509,-177
2021-09-24 15:10:18.163516,-187
2021-09-24 15:10:18.433253,-191
2021-09-24 15:10:18.433277,-211
2021-09-24 15:10:18.433285,-235
2021-09-24 15:10:18.433292,-259
2021-09-24 15:10:18.433299,-284
2021-09-24 15:10:18.433305,-301
2021-09-24 15:10:18.433312,-323
2021-09-24 15:10:18.433318,-347
2021-09-24 15:10:18.433325,-376
2021-09-24 15:10:18.433331,-403
2021-09-24 15:10:18.433338,-420
2021-09-24 15:10:18.433345,-417
2021-09-24 15:10:18.433351,-408
2021-09-24 15:10:18.433358,-393
2021-09-24 15:10:18.433364,-352
2021-09-24 15:10:18.433371,-281
2021-09-24 15:10:18.433377,-187
2021-09-24 15:10:18.433390,-82
2021-09-24 15:10:18.433396,9
2021-09-24 15:10:18.433403,80
2021-09-24 15:10:18.433410,133
2021-09-24 15:10:18.433416,165
2021-09-24 15:10:18.433423,184
2021-09-24 15:10:18.433429,196
2021-09-24 15:10:18.433435,201
2021-09-24 15:10:18.433442,201
2021-09-24 15:10:18.433449,196
2021-09-24 15:10:18.433455,182
2021-09-24 15:10:18.433462,172
2021-09-24 15:10:18.433468,170
2021-09-24 15:10:18.658291,160
2021-09-24 15:10:18.658314,148
2021-09-24 15:10:18.658322,138
2021-09-24 15:10:18.658329,123
2021-09-24 15:10:18.658335,111
2021-09-24 15:10:18.658342,104
2021-09-24 15:10:18.658348,104
2021-09-24 15:10:18.658355,99
2021-09-24 15:10:18.658361,89
2021-09-24 15:10:18.658368,80
2021-09-24 15:10:18.658374,80
2021-09-24 15:10:18.658381,85
2021-09-24 15:10:18.658387,85
2021-09-24 15:10:18.658394,87
2021-09-24 15:10:18.658400,82
2021-09-24 15:10:18.658407,72
2021-09-24 15:10:18.658413,75
2021-09-24 15:10:18.658420,85
2021-09-24 15:10:18.658426,85
2021-09-24 15:10:18.658433,80
2021-09-24 15:10:18.658439,77
2021-09-24 15:10:18.658446,77
2021-09-24 15:10:18.658452,82
2021-09-24 15:10:18.658458,85
2021-09-24 15:10:18.658465,75
2021-09-24 15:10:18.658471,53
2021-09-24 15:10:18.658478,38
2021-09-24 15:10:18.658484,31
2021-09-24 15:10:18.658491,21
2021-09-24 15:10:18.658497,21
2021-09-24 15:10:18.972343,34
2021-09-24 15:10:18.972367,53
2021-09-24 15:10:18.972375,63
2021-09-24 15:10:18.972382,60
2021-09-24 15:10:18.972388,58
2021-09-24 15:10:18.972395,55
2021-09-24 15:10:18.972402,51
2021-09-24 15:10:18.972408,46
2021-09-24 15:10:18.972415,38
2021-09-24 15:10:18.972421,31
2021-09-24 15:10:18.972428,29
2021-09-24 15:10:18.972434,0
2021-09-24 15:10:18.972441,-70
2021-09-24 15:10:18.972447,-240
2021-09-24 15:10:18.972454,-480
2021-09-24 15:10:18.972461,-456
2021-09-24 15:10:18.972467,14
2021-09-24 15:10:18.972474,590
2021-09-24 15:10:18.972480,719
2021-09-24 15:10:18.972487,342
2021-09-24 15:10:18.972493,58
2021-09-24 15:10:18.972500,41
2021-09-24 15:10:18.972506,-38
2021-09-24 15:10:18.972513,-138
2021-09-24 15:10:18.972519,-121
2021-09-24 15:10:18.972526,-109
2021-09-24 15:10:18.972532,-145
2021-09-24 15:10:18.972539,-148
2021-09-24 15:10:18.972545,-143
2021-09-24 15:10:18.972555,-162
2021-09-24 15:10:19.108110,-182
2021-09-24 15:10:19.108132,-194
2021-09-24 15:10:19.108140,-213
2021-09-24 15:10:19.108147,-228
2021-09-24 15:10:19.108154,-242
2021-09-24 15:10:19.108160,-262
2021-09-24 15:10:19.108167,-286
2021-09-24 15:10:19.108173,-318
2021-09-24 15:10:19.108180,-354
2021-09-24 15:10:19.108186,-376
2021-09-24 15:10:19.108193,-388
2021-09-24 15:10:19.108199,-400
2021-09-24 15:10:19.108206,-408
2021-09-24 15:10:19.108212,-403
2021-09-24 15:10:19.108219,-383
2021-09-24 15:10:19.108225,-335
2021-09-24 15:10:19.108232,-257
2021-09-24 15:10:19.108238,-160
2021-09-24 15:10:19.108245,-60
2021-09-24 15:10:19.108251,21
2021-09-24 15:10:19.108258,85
2021-09-24 15:10:19.108264,138
2021-09-24 15:10:19.108270,174
2021-09-24 15:10:19.108277,191
2021-09-24 15:10:19.108283,201
2021-09-24 15:10:19.108290,199
2021-09-24 15:10:19.108297,189
2021-09-24 15:10:19.108303,184
2021-09-24 15:10:19.108310,179
2021-09-24 15:10:19.108316,172
2021-09-24 15:10:19.377951,157
2021-09-24 15:10:19.377971,138
2021-09-24 15:10:19.377978,126
2021-09-24 15:10:19.377985,119
2021-09-24 15:10:19.377991,104
2021-09-24 15:10:19.377996,94
2021-09-24 15:10:19.378002,89
2021-09-24 15:10:19.378009,80
2021-09-24 15:10:19.378014,70
2021-09-24 15:10:19.378020,68
2021-09-24 15:10:19.378026,63
2021-09-24 15:10:19.378032,60
2021-09-24 15:10:19.378038,58
2021-09-24 15:10:19.378044,53
2021-09-24 15:10:19.378050,58
2021-09-24 15:10:19.378056,60
2021-09-24 15:10:19.378062,63
2021-09-24 15:10:19.378067,70
2021-09-24 15:10:19.378073,65
2021-09-24 15:10:19.378079,60
2021-09-24 15:10:19.378085,65
2021-09-24 15:10:19.378091,72
2021-09-24 15:10:19.378097,72
2021-09-24 15:10:19.378102,70
2021-09-24 15:10:19.378108,58
2021-09-24 15:10:19.378114,48
2021-09-24 15:10:19.378120,48
2021-09-24 15:10:19.378126,38
2021-09-24 15:10:19.378132,29
2021-09-24 15:10:19.378138,36
2021-09-24 15:10:19.602741,55
2021-09-24 15:10:19.602762,68
2021-09-24 15:10:19.602770,63
2021-09-24 15:10:19.602777,63
2021-09-24 15:10:19.602783,68
2021-09-24 15:10:19.602790,63
2021-09-24 15:10:19.602797,51
2021-09-24 15:10:19.602803,53
2021-09-24 15:10:19.602810,60
2021-09-24 15:10:19.602817,48
2021-09-24 15:10:19.602823,12
2021-09-24 15:10:19.602830,-46
2021-09-24 15:10:19.602836,-174
2021-09-24 15:10:19.602843,-395
2021-09-24 15:10:19.602850,-488
2021-09-24 15:10:19.602856,-167
2021-09-24 15:10:19.602863,420
2021-09-24 15:10:19.602870,716
2021-09-24 15:10:19.602876,451
2021-09-24 15:10:19.602883,111
2021-09-24 15:10:19.602893,63
2021-09-24 15:10:19.602900,21
2021-09-24 15:10:19.602906,-106
2021-09-24 15:10:19.602913,-128
2021-09-24 15:10:19.602919,-102
2021-09-24 15:10:19.602926,-126
2021-09-24 15:10:19.602932,-145
2021-09-24 15:10:19.602939,-145
2021-09-24 15:10:19.602946,-157
2021-09-24 15:10:19.602952,-172
2021-09-24 15:10:19.783277,-177
2021-09-24 15:10:19.783302,-189
2021-09-24 15:10:19.783310,-206
2021-09-24 15:10:19.783317,-228
2021-09-24 15:10:19.783324,-252
2021-09-24 15:10:19.783331,-274
2021-09-24 15:10:19.783338,-306
2021-09-24 15:10:19.783345,-342
2021-09-24 15:10:19.783352,-371
2021-09-24 15:10:19.783359,-386
2021-09-24 15:10:19.783366,-400
2021-09-24 15:10:19.783373,-412
2021-09-24 15:10:19.783380,-405
2021-09-24 15:10:19.783386,-381
2021-09-24 15:10:19.783393,-344
2021-09-24 15:10:19.783400,-274
2021-09-24 15:10:19.783407,-172
2021-09-24 15:10:19.783414,-77
2021-09-24 15:10:19.783421,9
2021-09-24 15:10:19.783428,80
2021-09-24 15:10:19.783435,126
2021-09-24 15:10:19.783442,155
2021-09-24 15:10:19.783449,172
2021-09-24 15:10:19.783455,179
2021-09-24 15:10:19.783462,184
2021-09-24 15:10:19.783469,184
2021-09-24 15:10:19.783476,182
2021-09-24 15:10:19.783483,172
2021-09-24 15:10:19.783490,162
2021-09-24 15:10:19.783497,153
2021-09-24 15:10:20.097743,143
2021-09-24 15:10:20.097764,136
2021-09-24 15:10:20.097772,128
2021-09-24 15:10:20.097779,116
2021-09-24 15:10:20.097785,102
2021-09-24 15:10:20.097792,89
2021-09-24 15:10:20.097798,85
2021-09-24 15:10:20.097805,85
2021-09-24 15:10:20.097811,80
2021-09-24 15:10:20.097818,75
2021-09-24 15:10:20.097825,68
2021-09-24 15:10:20.097831,63
2021-09-24 15:10:20.097838,70
2021-09-24 15:10:20.097844,75
2021-09-24 15:10:20.097851,72
2021-09-24 15:10:20.097857,70
2021-09-24 15:10:20.097864,70
2021-09-24 15:10:20.097871,70
2021-09-24 15:10:20.097877,75
2021-09-24 15:10:20.097884,77
2021-09-24 15:10:20.097891,80
2021-09-24 15:10:20.097897,80
2021-09-24 15:10:20.097904,75
2021-09-24 15:10:20.097910,70
2021-09-24 15:10:20.097917,68
2021-09-24 15:10:20.097923,60
2021-09-24 15:10:20.097930,51
2021-09-24 15:10:20.097937,38
2021-09-24 15:10:20.097943,34
2021-09-24 15:10:20.097950,46
2021-09-24 15:10:20.233110,70
2021-09-24 15:10:20.233133,80
2021-09-24 15:10:20.233141,75
2021-09-24 15:10:20.233147,70
2021-09-24 15:10:20.233154,72
2021-09-24 15:10:20.233161,75
2021-09-24 15:10:20.233167,75
2021-09-24 15:10:20.233174,75
2021-09-24 15:10:20.233180,68
2021-09-24 15:10:20.233187,43
2021-09-24 15:10:20.233193,-4
2021-09-24 15:10:20.233200,-92
2021-09-24 15:10:20.233206,-281
2021-09-24 15:10:20.233213,-476
2021-09-24 15:10:20.233220,-330
2021-09-24 15:10:20.233226,191
2021-09-24 15:10:20.233233,665
2021-09-24 15:10:20.233239,655
2021-09-24 15:10:20.233246,264
2021-09-24 15:10:20.233252,51
2021-09-24 15:10:20.233259,38
2021-09-24 15:10:20.233265,-70
2021-09-24 15:10:20.233275,-155
2021-09-24 15:10:20.233282,-121
2021-09-24 15:10:20.233288,-119
2021-09-24 15:10:20.233295,-153
2021-09-24 15:10:20.233301,-155
2021-09-24 15:10:20.233307,-160
2021-09-24 15:10:20.233314,-177
2021-09-24 15:10:20.233320,-184
2021-09-24 15:10:20.503260,-191
2021-09-24 15:10:20.503283,-208
2021-09-24 15:10:20.503291,-228
2021-09-24 15:10:20.503298,-252
2021-09-24 15:10:20.503305,-276
2021-09-24 15:10:20.503312,-293
2021-09-24 15:10:20.503318,-325
2021-09-24 15:10:20.503325,-359
2021-09-24 15:10:20.503331,-386
2021-09-24 15:10:20.503338,-410
2021-09-24 15:10:20.503344,-422
2021-09-24 15:10:20.503351,-415
2021-09-24 15:10:20.503357,-400
2021-09-24 15:10:20.503364,-374
2021-09-24 15:10:20.503371,-315
2021-09-24 15:10:20.503377,-228
2021-09-24 15:10:20.503384,-121
2021-09-24 15:10:20.503390,-14
2021-09-24 15:10:20.503397,68
2021-09-24 15:10:20.503403,128
2021-09-24 15:10:20.503410,165
2021-09-24 15:10:20.503416,184
2021-09-24 15:10:20.503423,196
2021-09-24 15:10:20.503429,204
2021-09-24 15:10:20.503436,201
2021-09-24 15:10:20.503442,196
2021-09-24 15:10:20.503449,187
2021-09-24 15:10:20.503455,177
2021-09-24 15:10:20.503462,167
2021-09-24 15:10:20.503468,162
2021-09-24 15:10:20.773286,153
2021-09-24 15:10:20.773308,140
2021-09-24 15:10:20.773316,128
2021-09-24 15:10:20.773322,114
2021-09-24 15:10:20.773329,109
2021-09-24 15:10:20.773335,106
2021-09-24 15:10:20.773342,99
2021-09-24 15:10:20.773348,92
2021-09-24 15:10:20.773355,77
2021-09-24 15:10:20.773361,70
2021-09-24 15:10:20.773368,72
2021-09-24 15:10:20.773374,75
2021-09-24 15:10:20.773381,77
2021-09-24 15:10:20.773387,75
2021-09-24 15:10:20.773393,65
2021-09-24 15:10:20.773400,63
2021-09-24 15:10:20.773406,70
2021-09-24 15:10:20.773413,70
2021-09-24 15:10:20.773419,58
2021-09-24 15:10:20.773426,48
2021-09-24 15:10:20.773432,53
2021-09-24 15:10:20.773439,51
2021-09-24 15:10:20.773445,43
2021-09-24 15:10:20.773452,51
2021-09-24 15:10:20.773458,55
2021-09-24 15:10:20.773465,48
2021-09-24 15:10:20.773471,38
2021-09-24 15:10:20.773478,34
2021-09-24 15:10:20.773484,26
2021-09-24 15:10:20.773491,19
2021-09-24 15:10:20.996961,12
2021-09-24 15:10:20.996983,17
2021-09-24 15:10:20.996991,36
2021-09-24 15:10:20.996998,53
2021-09-24 15:10:20.997004,53
2021-09-24 15:10:20.997011,53
2021-09-24 15:10:20.997017,55
2021-09-24 15:10:20.997024,51
2021-09-24 15:10:20.997030,48
2021-09-24 15:10:20.997037,46
2021-09-24 15:10:20.997043,46
2021-09-24 15:10:20.997050,41
2021-09-24 15:10:20.997056,12
2021-09-24 15:10:20.997063,-58
2021-09-24 15:10:20.997069,-204
2021-09-24 15:10:20.997076,-422
2021-09-24 15:10:20.997082,-444
2021-09-24 15:10:20.997089,-58
2021-09-24 15:10:20.997095,507
2021-09-24 15:10:20.997101,745
2021-09-24 15:10:20.997108,444
2021-09-24 15:10:20.997114,97
2021-09-24 15:10:20.997121,43
2021-09-24 15:10:20.997127,-12
2021-09-24 15:10:20.997134,-133
2021-09-24 15:10:20.997140,-138
2021-09-24 15:10:20.997147,-114
2021-09-24 15:10:20.997153,-145
2021-09-24 15:10:20.997160,-160
2021-09-24 15:10:20.997166,-150
2021-09-24 15:10:21.222702,-165
2021-09-24 15:10:21.222721,-182
2021-09-24 15:10:21.222729,-187
2021-09-24 15:10:21.222736,-201
2021-09-24 15:10:21.222742,-218
2021-09-24 15:10:21.222752,-230
2021-09-24 15:10:21.222758,-255
2021-09-24 15:10:21.222765,-286
2021-09-24 15:10:21.222771,-315
2021-09-24 15:10:21.222778,-347
2021-09-24 15:10:21.222784,-376
2021-09-24 15:10:21.222791,-398
2021-09-24 15:10:21.222797,-420
2021-09-24 15:10:21.222804,-437
2021-09-24 15:10:21.222810,-429
2021-09-24 15:10:21.222817,-408
2021-09-24 15:10:21.222823,-364
2021-09-24 15:10:21.222830,-284
2021-09-24 15:10:21.222836,-182
2021-09-24 15:10:21.222843,-75
2021-09-24 15:10:21.222849,19
2021-09-24 15:10:21.222856,97
2021-09-24 15:10:21.222862,155
2021-09-24 15:10:21.222869,189
2021-09-24 15:10:21.222875,199
2021-09-24 15:10:21.222882,196
2021-09-24 15:10:21.222888,196
2021-09-24 15:10:21.222895,187
2021-09-24 15:10:21.222901,182
2021-09-24 15:10:21.222908,179
2021-09-24 15:10:21.403291,170
2021-09-24 15:10:21.403314,157
2021-09-24 15:10:21.403323,150
2021-09-24 15:10:21.403330,140
2021-09-24 15:10:21.403337,128
2021-09-24 15:10:21.403344,119
2021-09-24 15:10:21.403351,104
2021-09-24 15:10:21.403357,92
2021-09-24 15:10:21.403364,89
2021-09-24 15:10:21.403371,85
2021-09-24 15:10:21.403378,77
2021-09-24 15:10:21.403385,75
2021-09-24 15:10:21.403391,68
2021-09-24 15:10:21.403398,65
2021-09-24 15:10:21.403405,68
2021-09-24 15:10:21.403412,68
2021-09-24 15:10:21.403419,70
2021-09-24 15:10:21.403425,68
2021-09-24 15:10:21.403432,63
2021-09-24 15:10:21.403439,65
2021-09-24 15:10:21.403446,70
2021-09-24 15:10:21.403453,68
2021-09-24 15:10:21.403460,68
2021-09-24 15:10:21.403466,68
2021-09-24 15:10:21.403473,65
2021-09-24 15:10:21.403480,68
2021-09-24 15:10:21.403487,75
2021-09-24 15:10:21.403494,75
2021-09-24 15:10:21.403501,65
2021-09-24 15:10:21.403508,51
2021-09-24 15:10:21.628459,41
2021-09-24 15:10:21.628491,34
2021-09-24 15:10:21.628503,29
2021-09-24 15:10:21.628513,19
2021-09-24 15:10:21.628524,19
2021-09-24 15:10:21.628534,34
2021-09-24 15:10:21.628545,48
2021-09-24 15:10:21.628555,55
2021-09-24 15:10:21.628565,53
2021-09-24 15:10:21.628575,53
2021-09-24 15:10:21.628585,53
2021-09-24 15:10:21.628595,46
2021-09-24 15:10:21.628605,43
2021-09-24 15:10:21.628615,46
2021-09-24 15:10:21.628625,46
2021-09-24 15:10:21.628636,26
2021-09-24 15:10:21.628646,-9
2021-09-24 15:10:21.628656,-99
2021-09-24 15:10:21.628666,-301
2021-09-24 15:10:21.628676,-480
2021-09-24 15:10:21.628686,-318
2021-09-24 15:10:21.628696,211
2021-09-24 15:10:21.628706,689
2021-09-24 15:10:21.628716,655
2021-09-24 15:10:21.628727,247
2021-09-24 15:10:21.628737,53
2021-09-24 15:10:21.628747,46
2021-09-24 15:10:21.628757,-65
2021-09-24 15:10:21.628767,-136
2021-09-24 15:10:21.628777,-111
2021-09-24 15:10:21.897953,-133
2021-09-24 15:10:21.897975,-165
2021-09-24 15:10:21.897983,-157
2021-09-24 15:10:21.897989,-165
2021-09-24 15:10:21.897996,-189
2021-09-24 15:10:21.898002,-201
2021-09-24 15:10:21.898009,-206
2021-09-24 15:10:21.898016,-218
2021-09-24 15:10:21.898022,-235
2021-09-24 15:10:21.898029,-255
2021-09-24 15:10:21.898035,-284
2021-09-24 15:10:21.898042,-320
2021-09-24 15:10:21.898048,-344
2021-09-24 15:10:21.898055,-366
2021-09-24 15:10:21.898062,-395
2021-09-24 15:10:21.898068,-417
2021-09-24 15:10:21.898075,-429
2021-09-24 15:10:21.898081,-432
2021-09-24 15:10:21.898088,-420
2021-09-24 15:10:21.898094,-386
2021-09-24 15:10:21.898101,-327
2021-09-24 15:10:21.898108,-238
2021-09-24 15:10:21.898114,-128
2021-09-24 15:10:21.898121,-26
2021-09-24 15:10:21.898127,60
2021-09-24 15:10:21.898134,128
2021-09-24 15:10:21.898141,174
2021-09-24 15:10:21.898147,194
2021-09-24 15:10:21.898154,204
2021-09-24 15:10:21.898161,208
2021-09-24 15:10:22.077894,208
2021-09-24 15:10:22.077919,204
2021-09-24 15:10:22.077928,194
2021-09-24 15:10:22.077935,172
2021-09-24 15:10:22.077942,157
2021-09-24 15:10:22.077948,150
2021-09-24 15:10:22.077955,143
2021-09-24 15:10:22.077962,136
2021-09-24 15:10:22.077969,123
2021-09-24 15:10:22.077975,111
2021-09-24 15:10:22.077982,99
2021-09-24 15:10:22.077989,94
2021-09-24 15:10:22.077996,92
2021-09-24 15:10:22.078003,87
2021-09-24 15:10:22.078009,82
2021-09-24 15:10:22.078016,72
2021-09-24 15:10:22.078023,68
2021-09-24 15:10:22.078030,72
2021-09-24 15:10:22.078037,77
2021-09-24 15:10:22.078043,77
2021-09-24 15:10:22.078050,77
2021-09-24 15:10:22.078057,75
2021-09-24 15:10:22.078064,75
2021-09-24 15:10:22.078071,77
2021-09-24 15:10:22.078077,80
2021-09-24 15:10:22.078084,80
2021-09-24 15:10:22.078091,80
2021-09-24 15:10:22.078098,75
2021-09-24 15:10:22.078105,72
2021-09-24 15:10:22.078111,77
2021-09-24 15:10:22.348156,87
2021-09-24 15:10:22.348182,89
2021-09-24 15:10:22.348190,75
2021-09-24 15:10:22.348228,53
2021-09-24 15:10:22.348235,29
2021-09-24 15:10:22.348241,14
2021-09-24 15:10:22.348248,4
2021-09-24 15:10:22.348254,7
2021-09-24 15:10:22.348261,14
2021-09-24 15:10:22.348267,26
2021-09-24 15:10:22.348274,38
2021-09-24 15:10:22.348280,43
2021-09-24 15:10:22.348286,43
2021-09-24 15:10:22.348293,46
2021-09-24 15:10:22.348299,46
2021-09-24 15:10:22.348306,41
2021-09-24 15:10:22.348312,43
2021-09-24 15:10:22.348319,48
2021-09-24 15:10:22.348325,46
2021-09-24 15:10:22.348332,24
2021-09-24 15:10:22.348338,-29
2021-09-24 15:10:22.348345,-150
2021-09-24 15:10:22.348351,-371
2021-09-24 15:10:22.348358,-473
2021-09-24 15:10:22.348364,-170
2021-09-24 15:10:22.348371,412
2021-09-24 15:10:22.348377,750
2021-09-24 15:10:22.348384,527
2021-09-24 15:10:22.348390,145
2021-09-24 15:10:22.348397,53
2021-09-24 15:10:22.618505,19
2021-09-24 15:10:22.618535,-99
2021-09-24 15:10:22.618547,-123
2021-09-24 15:10:22.618558,-97
2021-09-24 15:10:22.618568,-123
2021-09-24 15:10:22.618578,-143
2021-09-24 15:10:22.618588,-140
2021-09-24 15:10:22.618598,-160
2021-09-24 15:10:22.618609,-182
2021-09-24 15:10:22.618619,-194
2021-09-24 15:10:22.618629,-204
2021-09-24 15:10:22.618639,-218
2021-09-24 15:10:22.618649,-238
2021-09-24 15:10:22.618660,-262
2021-09-24 15:10:22.618670,-291
2021-09-24 15:10:22.618680,-320
2021-09-24 15:10:22.618690,-344
2021-09-24 15:10:22.618700,-369
2021-09-24 15:10:22.618710,-393
2021-09-24 15:10:22.618720,-412
2021-09-24 15:10:22.618730,-422
2021-09-24 15:10:22.618740,-422
2021-09-24 15:10:22.618750,-403
2021-09-24 15:10:22.618760,-361
2021-09-24 15:10:22.618770,-289
2021-09-24 15:10:22.618780,-189
2021-09-24 15:10:22.618790,-85
2021-09-24 15:10:22.618801,7
2021-09-24 15:10:22.618811,82
2021-09-24 15:10:22.618821,140
2021-09-24 15:10:22.798392,177
2021-09-24 15:10:22.798417,194
2021-09-24 15:10:22.798426,204
2021-09-24 15:10:22.798433,206
2021-09-24 15:10:22.798441,206
2021-09-24 15:10:22.798448,206
2021-09-24 15:10:22.798455,201
2021-09-24 15:10:22.798462,194
2021-09-24 15:10:22.798470,177
2021-09-24 15:10:22.798477,157
2021-09-24 15:10:22.798484,138
2021-09-24 15:10:22.798491,126
2021-09-24 15:10:22.798498,119
2021-09-24 15:10:22.798506,104
2021-09-24 15:10:22.798513,87
2021-09-24 15:10:22.798520,82
2021-09-24 15:10:22.798527,82
2021-09-24 15:10:22.798534,77
2021-09-24 15:10:22.798542,72
2021-09-24 15:10:22.798549,65
2021-09-24 15:10:22.798556,58
2021-09-24 15:10:22.798563,60
2021-09-24 15:10:22.798570,65
2021-09-24 15:10:22.798577,68
2021-09-24 15:10:22.798585,68
2021-09-24 15:10:22.798592,68
2021-09-24 15:10:22.798599,68
2021-09-24 15:10:22.798606,70
2021-09-24 15:10:22.798613,72
2021-09-24 15:10:22.798621,75
2021-09-24 15:10:23.111789,72
2021-09-24 15:10:23.111814,70
2021-09-24 15:10:23.111822,70
2021-09-24 15:10:23.111830,72
2021-09-24 15:10:23.111837,80
2021-09-24 15:10:23.111843,85
2021-09-24 15:10:23.111850,72
2021-09-24 15:10:23.111857,51
2021-09-24 15:10:23.111864,36
2021-09-24 15:10:23.111871,31
2021-09-24 15:10:23.111878,21
2021-09-24 15:10:23.111892,12
2021-09-24 15:10:23.111900,19
2021-09-24 15:10:23.111907,38
2021-09-24 15:10:23.111913,48
2021-09-24 15:10:23.111920,46
2021-09-24 15:10:23.111927,48
2021-09-24 15:10:23.111934,53
2021-09-24 15:10:23.111941,51
2021-09-24 15:10:23.111948,48
2021-09-24 15:10:23.111954,51
2021-09-24 15:10:23.111961,48
2021-09-24 15:10:23.111968,46
2021-09-24 15:10:23.111975,26
2021-09-24 15:10:23.111982,-21
2021-09-24 15:10:23.111989,-133
2021-09-24 15:10:23.111996,-347
2021-09-24 15:10:23.112003,-478
2021-09-24 15:10:23.112010,-208
2021-09-24 15:10:23.112017,374
2021-09-24 15:10:23.248316,750
2021-09-24 15:10:23.248340,556
2021-09-24 15:10:23.248348,165
2021-09-24 15:10:23.248355,55
2021-09-24 15:10:23.248362,24
2021-09-24 15:10:23.248368,-97
2021-09-24 15:10:23.248375,-136
2021-09-24 15:10:23.248381,-104
2021-09-24 15:10:23.248388,-126
2021-09-24 15:10:23.248395,-150
2021-09-24 15:10:23.248401,-145
2021-09-24 15:10:23.248408,-155
2021-09-24 15:10:23.248414,-182
2021-09-24 15:10:23.248421,-196
2021-09-24 15:10:23.248427,-206
2021-09-24 15:10:23.248434,-225
2021-09-24 15:10:23.248440,-255
2021-09-24 15:10:23.248447,-279
2021-09-24 15:10:23.248453,-303
2021-09-24 15:10:23.248460,-327
2021-09-24 15:10:23.248466,-352
2021-09-24 15:10:23.248473,-378
2021-09-24 15:10:23.248480,-403
2021-09-24 15:10:23.248486,-420
2021-09-24 15:10:23.248493,-427
2021-09-24 15:10:23.248499,-422
2021-09-24 15:10:23.248506,-408
2021-09-24 15:10:23.248512,-378
2021-09-24 15:10:23.248519,-313
2021-09-24 15:10:23.248525,-216
2021-09-24 15:10:23.473364,-114
2021-09-24 15:10:23.473387,-17
2021-09-24 15:10:23.473395,63
2021-09-24 15:10:23.473403,121
2021-09-24 15:10:23.473410,160
2021-09-24 15:10:23.473416,184
2021-09-24 15:10:23.473423,189
2021-09-24 15:10:23.473430,196
2021-09-24 15:10:23.473437,201
2021-09-24 15:10:23.473444,196
2021-09-24 15:10:23.473450,189
2021-09-24 15:10:23.473457,174
2021-09-24 15:10:23.473464,162
2021-09-24 15:10:23.473471,155
2021-09-24 15:10:23.473478,143
2021-09-24 15:10:23.473484,123
2021-09-24 15:10:23.473491,114
2021-09-24 15:10:23.473498,106
2021-09-24 15:10:23.473505,99
2021-09-24 15:10:23.473512,94
2021-09-24 15:10:23.473518,89
2021-09-24 15:10:23.473525,85
2021-09-24 15:10:23.473532,82
2021-09-24 15:10:23.473539,80
2021-09-24 15:10:23.473545,80
2021-09-24 15:10:23.473552,82
2021-09-24 15:10:23.473559,85
2021-09-24 15:10:23.473566,82
2021-09-24 15:10:23.473572,82
2021-09-24 15:10:23.473579,82
2021-09-24 15:10:23.698365,85
2021-09-24 15:10:23.698388,87
2021-09-24 15:10:23.698395,87
2021-09-24 15:10:23.698402,87
2021-09-24 15:10:23.698409,82
2021-09-24 15:10:23.698415,75
2021-09-24 15:10:23.698422,75
2021-09-24 15:10:23.698428,75
2021-09-24 15:10:23.698435,75
2021-09-24 15:10:23.698441,77
2021-09-24 15:10:23.698448,80
2021-09-24 15:10:23.698454,70
2021-09-24 15:10:23.698460,58
2021-09-24 15:10:23.698467,48
2021-09-24 15:10:23.698473,36
2021-09-24 15:10:23.698484,29
2021-09-24 15:10:23.698490,21
2021-09-24 15:10:23.698497,24
2021-09-24 15:10:23.698517,48
2021-09-24 15:10:23.698522,70
2021-09-24 15:10:23.698527,63
2021-09-24 15:10:23.698532,48
2021-09-24 15:10:23.698537,41
2021-09-24 15:10:23.698542,41
2021-09-24 15:10:23.698547,48
2021-09-24 15:10:23.698553,51
2021-09-24 15:10:23.698558,46
2021-09-24 15:10:23.698563,41
2021-09-24 15:10:23.698568,29
2021-09-24 15:10:23.698573,-7
2021-09-24 15:10:23.922798,-89
2021-09-24 15:10:23.922821,-279
2021-09-24 15:10:23.922830,-485
2021-09-24 15:10:23.922837,-388
2021-09-24 15:10:23.922844,109
2021-09-24 15:10:23.922852,631
2021-09-24 15:10:23.922859,660
2021-09-24 15:10:23.922867,262
2021-09-24 15:10:23.922874,46
2021-09-24 15:10:23.922881,41
2021-09-24 15:10:23.922888,-72
2021-09-24 15:10:23.922895,-160
2021-09-24 15:10:23.922903,-126
2021-09-24 15:10:23.922911,-128
2021-09-24 15:10:23.922918,-162
2021-09-24 15:10:23.922926,-162
2021-09-24 15:10:23.922934,-165
2021-09-24 15:10:23.922941,-182
2021-09-24 15:10:23.922948,-194
2021-09-24 15:10:23.922955,-211
2021-09-24 15:10:23.922962,-230
2021-09-24 15:10:23.922969,-247
2021-09-24 15:10:23.922976,-264
2021-09-24 15:10:23.922983,-286
2021-09-24 15:10:23.922990,-306
2021-09-24 15:10:23.922998,-325
2021-09-24 15:10:23.923005,-359
2021-09-24 15:10:23.923012,-398
2021-09-24 15:10:23.923019,-422
2021-09-24 15:10:23.923026,-432
2021-09-24 15:10:24.193482,-437
2021-09-24 15:10:24.193506,-420
2021-09-24 15:10:24.193514,-393
2021-09-24 15:10:24.193521,-354
2021-09-24 15:10:24.193527,-272
2021-09-24 15:10:24.193534,-153
2021-09-24 15:10:24.193540,-51
2021-09-24 15:10:24.193547,29
2021-09-24 15:10:24.193562,94
2021-09-24 15:10:24.193569,138
2021-09-24 15:10:24.193575,165
2021-09-24 15:10:24.193582,187
2021-09-24 15:10:24.193588,201
2021-09-24 15:10:24.193595,204
2021-09-24 15:10:24.193601,201
2021-09-24 15:10:24.193608,194
2021-09-24 15:10:24.193614,184
2021-09-24 15:10:24.193621,177
2021-09-24 15:10:24.193627,167
2021-09-24 15:10:24.193634,157
2021-09-24 15:10:24.193640,145
2021-09-24 15:10:24.193647,126
2021-09-24 15:10:24.193653,114
2021-09-24 15:10:24.193660,111
2021-09-24 15:10:24.193666,104
2021-09-24 15:10:24.193673,102
2021-09-24 15:10:24.193679,97
2021-09-24 15:10:24.193686,77
2021-09-24 15:10:24.193692,63
2021-09-24 15:10:24.193699,70
2021-09-24 15:10:24.463486,80
2021-09-24 15:10:24.463517,80
2021-09-24 15:10:24.463529,75
2021-09-24 15:10:24.463539,75
2021-09-24 15:10:24.463550,77
2021-09-24 15:10:24.463560,80
2021-09-24 15:10:24.463570,80
2021-09-24 15:10:24.463580,82
2021-09-24 15:10:24.463590,75
2021-09-24 15:10:24.463600,63
2021-09-24 15:10:24.463610,60
2021-09-24 15:10:24.463620,75
2021-09-24 15:10:24.463630,80
2021-09-24 15:10:24.463640,72
2021-09-24 15:10:24.463650,60
2021-09-24 15:10:24.463660,48
2021-09-24 15:10:24.463670,43
2021-09-24 15:10:24.463680,36
2021-09-24 15:10:24.463689,29
2021-09-24 15:10:24.463699,21
2021-09-24 15:10:24.463709,24
2021-09-24 15:10:24.463719,46
2021-09-24 15:10:24.463729,60
2021-09-24 15:10:24.463739,51
2021-09-24 15:10:24.463749,46
2021-09-24 15:10:24.463759,53
2021-09-24 15:10:24.463769,51
2021-09-24 15:10:24.463779,46
2021-09-24 15:10:24.463789,48
2021-09-24 15:10:24.463799,51
2021-09-24 15:10:24.687766,43
2021-09-24 15:10:24.687790,19
2021-09-24 15:10:24.687798,-24
2021-09-24 15:10:24.687805,-119
2021-09-24 15:10:24.687811,-325
2021-09-24 15:10:24.687818,-490
2021-09-24 15:10:24.687825,-296
2021-09-24 15:10:24.687831,255
2021-09-24 15:10:24.687838,687
2021-09-24 15:10:24.687844,561
2021-09-24 15:10:24.687851,179
2021-09-24 15:10:24.687857,70
2021-09-24 15:10:24.687864,60
2021-09-24 15:10:24.687870,-77
2021-09-24 15:10:24.687877,-148
2021-09-24 15:10:24.687884,-114
2021-09-24 15:10:24.687890,-121
2021-09-24 15:10:24.687897,-148
2021-09-24 15:10:24.687903,-145
2021-09-24 15:10:24.687910,-162
2021-09-24 15:10:24.687916,-191
2021-09-24 15:10:24.687923,-199
2021-09-24 15:10:24.687929,-201
2021-09-24 15:10:24.687936,-213
2021-09-24 15:10:24.687942,-233
2021-09-24 15:10:24.687949,-257
2021-09-24 15:10:24.687956,-284
2021-09-24 15:10:24.687962,-310
2021-09-24 15:10:24.687969,-337
2021-09-24 15:10:24.687975,-364
2021-09-24 15:10:24.912844,-391
2021-09-24 15:10:24.912869,-417
2021-09-24 15:10:24.912877,-442
2021-09-24 15:10:24.912884,-442
2021-09-24 15:10:24.912891,-415
2021-09-24 15:10:24.912897,-374
2021-09-24 15:10:24.912904,-310
2021-09-24 15:10:24.912911,-218
2021-09-24 15:10:24.912918,-114
2021-09-24 15:10:24.912924,-21
2021-09-24 15:10:24.912931,53
2021-09-24 15:10:24.912938,114
2021-09-24 15:10:24.912945,150
2021-09-24 15:10:24.912951,167
2021-09-24 15:10:24.912958,179
2021-09-24 15:10:24.912965,184
2021-09-24 15:10:24.912972,184
2021-09-24 15:10:24.912978,187
2021-09-24 15:10:24.912985,184
2021-09-24 15:10:24.912992,172
2021-09-24 15:10:24.912998,162
2021-09-24 15:10:24.913005,155
2021-09-24 15:10:24.913012,145
2021-09-24 15:10:24.913018,140
2021-09-24 15:10:24.913025,131
2021-09-24 15:10:24.913032,114
2021-09-24 15:10:24.913039,106
2021-09-24 15:10:24.913045,99
2021-09-24 15:10:24.913052,89
2021-09-24 15:10:24.913059,89
2021-09-24 15:10:25.137112,87
2021-09-24 15:10:25.137132,82
2021-09-24 15:10:25.137140,85
2021-09-24 15:10:25.137146,87
2021-09-24 15:10:25.137153,87
2021-09-24 15:10:25.137160,87
2021-09-24 15:10:25.137166,82
2021-09-24 15:10:25.137173,80
2021-09-24 15:10:25.137179,87
2021-09-24 15:10:25.137186,87
2021-09-24 15:10:25.137192,87
2021-09-24 15:10:25.137199,85
2021-09-24 15:10:25.137205,72
2021-09-24 15:10:25.137212,70
2021-09-24 15:10:25.137218,77
2021-09-24 15:10:25.137225,82
2021-09-24 15:10:25.137231,80
2021-09-24 15:10:25.137238,70
2021-09-24 15:10:25.137244,60
2021-09-24 15:10:25.137251,51
2021-09-24 15:10:25.137257,46
2021-09-24 15:10:25.137264,36
2021-09-24 15:10:25.137270,36
2021-09-24 15:10:25.137277,55
2021-09-24 15:10:25.137283,70
2021-09-24 15:10:25.137290,70
2021-09-24 15:10:25.137296,72
2021-09-24 15:10:25.137303,75
2021-09-24 15:10:25.137309,72
2021-09-24 15:10:25.137316,63
2021-09-24 15:10:25.318422,58
2021-09-24 15:10:25.318448,60
2021-09-24 15:10:25.318457,58
2021-09-24 15:10:25.318464,36
2021-09-24 15:10:25.318471,-14
2021-09-24 15:10:25.318479,-116
2021-09-24 15:10:25.318486,-313
2021-09-24 15:10:25.318493,-471
2021-09-24 15:10:25.318501,-286
2021-09-24 15:10:25.318508,235
2021-09-24 15:10:25.318515,685
2021-09-24 15:10:25.318522,626
2021-09-24 15:10:25.318529,223
2021-09-24 15:10:25.318537,51
2021-09-24 15:10:25.318544,51
2021-09-24 15:10:25.318551,-68
2021-09-24 15:10:25.318558,-145
2021-09-24 15:10:25.318566,-119
2021-09-24 15:10:25.318573,-131
2021-09-24 15:10:25.318580,-160
2021-09-24 15:10:25.318587,-155
2021-09-24 15:10:25.318594,-160
2021-09-24 15:10:25.318602,-177
2021-09-24 15:10:25.318615,-189
2021-09-24 15:10:25.318623,-196
2021-09-24 15:10:25.318630,-206
2021-09-24 15:10:25.318637,-218
2021-09-24 15:10:25.318645,-238
2021-09-24 15:10:25.318652,-259
2021-09-24 15:10:25.318660,-284
2021-09-24 15:10:25.543413,-310
2021-09-24 15:10:25.543437,-342
2021-09-24 15:10:25.543444,-376
2021-09-24 15:10:25.543451,-398
2021-09-24 15:10:25.543458,-410
2021-09-24 15:10:25.543465,-420
2021-09-24 15:10:25.543471,-410
2021-09-24 15:10:25.543478,-369
2021-09-24 15:10:25.543484,-303
2021-09-24 15:10:25.543491,-216
2021-09-24 15:10:25.543498,-111
2021-09-24 15:10:25.543504,-17
2021-09-24 15:10:25.543511,65
2021-09-24 15:10:25.543517,136
2021-09-24 15:10:25.543524,177
2021-09-24 15:10:25.543531,201
2021-09-24 15:10:25.543537,213
2021-09-24 15:10:25.543544,221
2021-09-24 15:10:25.543550,221
2021-09-24 15:10:25.543557,223
2021-09-24 15:10:25.543564,218
2021-09-24 15:10:25.543570,208
2021-09-24 15:10:25.543577,199
2021-09-24 15:10:25.543583,191
2021-09-24 15:10:25.543590,182
2021-09-24 15:10:25.543596,174
2021-09-24 15:10:25.543603,165
2021-09-24 15:10:25.543609,155
2021-09-24 15:10:25.543616,145
2021-09-24 15:10:25.543623,138
2021-09-24 15:10:25.768394,133
2021-09-24 15:10:25.768417,128
2021-09-24 15:10:25.768425,121
2021-09-24 15:10:25.768432,106
2021-09-24 15:10:25.768439,94
2021-09-24 15:10:25.768445,94
2021-09-24 15:10:25.768451,99
2021-09-24 15:10:25.768458,99
2021-09-24 15:10:25.768464,99
2021-09-24 15:10:25.768470,97
2021-09-24 15:10:25.768477,89
2021-09-24 15:10:25.768483,89
2021-09-24 15:10:25.768490,94
2021-09-24 15:10:25.768496,97
2021-09-24 15:10:25.768503,89
2021-09-24 15:10:25.768509,75
2021-09-24 15:10:25.768515,70
2021-09-24 15:10:25.768522,75
2021-09-24 15:10:25.768528,80
2021-09-24 15:10:25.768535,82
2021-09-24 15:10:25.768541,87
2021-09-24 15:10:25.768548,82
2021-09-24 15:10:25.768554,70
2021-09-24 15:10:25.768560,68
2021-09-24 15:10:25.768567,63
2021-09-24 15:10:25.768573,53
2021-09-24 15:10:25.768580,43
2021-09-24 15:10:25.768586,38
2021-09-24 15:10:25.768593,55
2021-09-24 15:10:25.768599,80
2021-09-24 15:10:26.038179,87
2021-09-24 15:10:26.038200,82
2021-09-24 15:10:26.038208,82
2021-09-24 15:10:26.038215,75
2021-09-24 15:10:26.038222,63
2021-09-24 15:10:26.038228,60
2021-09-24 15:10:26.038235,60
2021-09-24 15:10:26.038241,58
2021-09-24 15:10:26.038248,41
2021-09-24 15:10:26.038255,-17
2021-09-24 15:10:26.038261,-119
2021-09-24 15:10:26.038268,-306
2021-09-24 15:10:26.038274,-466
2021-09-24 15:10:26.038281,-296
2021-09-24 15:10:26.038288,223
2021-09-24 15:10:26.038294,689
2021-09-24 15:10:26.038301,672
2021-09-24 15:10:26.038307,274
2021-09-24 15:10:26.038314,60
2021-09-24 15:10:26.038320,53
2021-09-24 15:10:26.038327,-53
2021-09-24 15:10:26.038334,-131
2021-09-24 15:10:26.038340,-99
2021-09-24 15:10:26.038347,-102
2021-09-24 15:10:26.038353,-136
2021-09-24 15:10:26.038360,-136
2021-09-24 15:10:26.038366,-138
2021-09-24 15:10:26.038373,-160
2021-09-24 15:10:26.038380,-167
2021-09-24 15:10:26.038386,-172
2021-09-24 15:10:26.263399,-189
2021-09-24 15:10:26.263423,-204
2021-09-24 15:10:26.263430,-223
2021-09-24 15:10:26.263437,-250
2021-09-24 15:10:26.263444,-276
2021-09-24 15:10:26.263450,-301
2021-09-24 15:10:26.263457,-337
2021-09-24 15:10:26.263463,-378
2021-09-24 15:10:26.263470,-412
2021-09-24 15:10:26.263476,-434
2021-09-24 15:10:26.263483,-437
2021-09-24 15:10:26.263490,-420
2021-09-24 15:10:26.263496,-391
2021-09-24 15:10:26.263502,-335
2021-09-24 15:10:26.263509,-252
2021-09-24 15:10:26.263515,-150
2021-09-24 15:10:26.263522,-41
2021-09-24 15:10:26.263528,51
2021-09-24 15:10:26.263535,121
2021-09-24 15:10:26.263541,172
2021-09-24 15:10:26.263548,201
2021-09-24 15:10:26.263554,206
2021-09-24 15:10:26.263561,206
2021-09-24 15:10:26.263567,213
2021-09-24 15:10:26.263574,216
2021-09-24 15:10:26.263580,208
2021-09-24 15:10:26.263587,199
2021-09-24 15:10:26.263593,189
2021-09-24 15:10:26.263600,184
2021-09-24 15:10:26.263606,177
2021-09-24 15:10:26.488488,170
2021-09-24 15:10:26.488512,160
2021-09-24 15:10:26.488520,148
2021-09-24 15:10:26.488527,136
2021-09-24 15:10:26.488534,131
2021-09-24 15:10:26.488541,126
2021-09-24 15:10:26.488548,121
2021-09-24 15:10:26.488555,114
2021-09-24 15:10:26.488561,99
2021-09-24 15:10:26.488568,85
2021-09-24 15:10:26.488575,85
2021-09-24 15:10:26.488582,89
2021-09-24 15:10:26.488589,89
2021-09-24 15:10:26.488596,87
2021-09-24 15:10:26.488602,80
2021-09-24 15:10:26.488609,77
2021-09-24 15:10:26.488616,82
2021-09-24 15:10:26.488623,85
2021-09-24 15:10:26.488630,85
2021-09-24 15:10:26.488636,82
2021-09-24 15:10:26.488643,80
2021-09-24 15:10:26.488650,80
2021-09-24 15:10:26.488657,80
2021-09-24 15:10:26.488664,82
2021-09-24 15:10:26.488671,85
2021-09-24 15:10:26.488677,89
2021-09-24 15:10:26.488684,87
2021-09-24 15:10:26.488691,80
2021-09-24 15:10:26.488698,77
2021-09-24 15:10:26.488705,70
2021-09-24 15:10:26.758366,58
2021-09-24 15:10:26.758389,46
2021-09-24 15:10:26.758396,36
2021-09-24 15:10:26.758403,38
2021-09-24 15:10:26.758410,60
2021-09-24 15:10:26.758417,80
2021-09-24 15:10:26.758423,80
2021-09-24 15:10:26.758430,70
2021-09-24 15:10:26.758436,65
2021-09-24 15:10:26.758443,68
2021-09-24 15:10:26.758449,65
2021-09-24 15:10:26.758456,60
2021-09-24 15:10:26.758462,53
2021-09-24 15:10:26.758469,41
2021-09-24 15:10:26.758476,21
2021-09-24 15:10:26.758482,-24
2021-09-24 15:10:26.758489,-128
2021-09-24 15:10:26.758496,-340
2021-09-24 15:10:26.758502,-485
2021-09-24 15:10:26.758509,-250
2021-09-24 15:10:26.758515,313
2021-09-24 15:10:26.758522,728
2021-09-24 15:10:26.758529,597
2021-09-24 15:10:26.758535,196
2021-09-24 15:10:26.758542,48
2021-09-24 15:10:26.758548,24
2021-09-24 15:10:26.758555,-97
2021-09-24 15:10:26.758562,-150
2021-09-24 15:10:26.758568,-123
2021-09-24 15:10:26.758582,-138
2021-09-24 15:10:26.938298,-162
2021-09-24 15:10:26.938320,-162
2021-09-24 15:10:26.938328,-167
2021-09-24 15:10:26.938334,-184
2021-09-24 15:10:26.938341,-191
2021-09-24 15:10:26.938347,-201
2021-09-24 15:10:26.938354,-223
2021-09-24 15:10:26.938360,-245
2021-09-24 15:10:26.938367,-259
2021-09-24 15:10:26.938373,-281
2021-09-24 15:10:26.938380,-310
2021-09-24 15:10:26.938386,-340
2021-09-24 15:10:26.938392,-369
2021-09-24 15:10:26.938399,-403
2021-09-24 15:10:26.938405,-427
2021-09-24 15:10:26.938412,-434
2021-09-24 15:10:26.938418,-432
2021-09-24 15:10:26.938425,-422
2021-09-24 15:10:26.938431,-395
2021-09-24 15:10:26.938438,-335
2021-09-24 15:10:26.938444,-238
2021-09-24 15:10:26.938451,-128
2021-09-24 15:10:26.938457,-26
2021-09-24 15:10:26.938464,55
2021-09-24 15:10:26.938470,119
2021-09-24 15:10:26.938477,165
2021-09-24 15:10:26.938483,194
2021-09-24 15:10:26.938490,206
2021-09-24 15:10:26.938496,213
2021-09-24 15:10:26.938503,216
2021-09-24 15:10:27.252126,211
2021-09-24 15:10:27.252150,206
2021-09-24 15:10:27.252158,201
2021-09-24 15:10:27.252164,191
2021-09-24 15:10:27.252171,179
2021-09-24 15:10:27.252177,170
2021-09-24 15:10:27.252184,153
2021-09-24 15:10:27.252190,143
2021-09-24 15:10:27.252197,136
2021-09-24 15:10:27.252203,126
2021-09-24 15:10:27.252209,116
2021-09-24 15:10:27.252216,109
2021-09-24 15:10:27.252222,97
2021-09-24 15:10:27.252229,94
2021-09-24 15:10:27.252235,94
2021-09-24 15:10:27.252242,85
2021-09-24 15:10:27.252248,77
2021-09-24 15:10:27.252255,77
2021-09-24 15:10:27.252261,80
2021-09-24 15:10:27.252267,82
2021-09-24 15:10:27.252274,82
2021-09-24 15:10:27.252280,82
2021-09-24 15:10:27.252287,85
2021-09-24 15:10:27.252293,85
2021-09-24 15:10:27.252300,82
2021-09-24 15:10:27.252306,85
2021-09-24 15:10:27.252312,85
2021-09-24 15:10:27.252319,82
2021-09-24 15:10:27.252325,82
2021-09-24 15:10:27.252332,80
2021-09-24 15:10:27.388389,80
2021-09-24 15:10:27.388414,85
2021-09-24 15:10:27.388422,87
2021-09-24 15:10:27.388430,75
2021-09-24 15:10:27.388437,58
2021-09-24 15:10:27.388443,46
2021-09-24 15:10:27.388450,38
2021-09-24 15:10:27.388457,31
2021-09-24 15:10:27.388464,21
2021-09-24 15:10:27.388471,17
2021-09-24 15:10:27.388478,26
2021-09-24 15:10:27.388485,41
2021-09-24 15:10:27.388492,51
2021-09-24 15:10:27.388499,53
2021-09-24 15:10:27.388505,51
2021-09-24 15:10:27.388512,51
2021-09-24 15:10:27.388519,53
2021-09-24 15:10:27.388526,48
2021-09-24 15:10:27.388533,43
2021-09-24 15:10:27.388539,46
2021-09-24 15:10:27.388546,38
2021-09-24 15:10:27.388553,7
2021-09-24 15:10:27.388560,-55
2021-09-24 15:10:27.388567,-204
2021-09-24 15:10:27.388574,-427
2021-09-24 15:10:27.388580,-444
2021-09-24 15:10:27.388587,-36
2021-09-24 15:10:27.388594,539
2021-09-24 15:10:27.388601,745
2021-09-24 15:10:27.388608,410
2021-09-24 15:10:27.748435,82
2021-09-24 15:10:27.748464,46
2021-09-24 15:10:27.748476,-21
2021-09-24 15:10:27.748487,-138
2021-09-24 15:10:27.748497,-136
2021-09-24 15:10:27.748507,-121
2021-09-24 15:10:27.748517,-150
2021-09-24 15:10:27.748528,-160
2021-09-24 15:10:27.748538,-155
2021-09-24 15:10:27.748548,-174
2021-09-24 15:10:27.748558,-194
2021-09-24 15:10:27.748568,-201
2021-09-24 15:10:27.748578,-211
2021-09-24 15:10:27.748588,-225
2021-09-24 15:10:27.748598,-242
2021-09-24 15:10:27.748608,-269
2021-09-24 15:10:27.748619,-298
2021-09-24 15:10:27.748629,-325
2021-09-24 15:10:27.748639,-354
2021-09-24 15:10:27.748649,-388
2021-09-24 15:10:27.748659,-417
2021-09-24 15:10:27.748669,-434
2021-09-24 15:10:27.748679,-439
2021-09-24 15:10:27.748689,-434
2021-09-24 15:10:27.748699,-410
2021-09-24 15:10:27.748710,-364
2021-09-24 15:10:27.748720,-289
2021-09-24 15:10:27.748731,-191
2021-09-24 15:10:27.748741,-87
2021-09-24 15:10:27.748751,9
2021-09-24 15:10:27.838120,87
2021-09-24 15:10:27.838142,143
2021-09-24 15:10:27.838150,179
2021-09-24 15:10:27.838157,194
2021-09-24 15:10:27.838164,201
2021-09-24 15:10:27.838170,208
2021-09-24 15:10:27.838177,211
2021-09-24 15:10:27.838183,206
2021-09-24 15:10:27.838190,199
2021-09-24 15:10:27.838196,182
2021-09-24 15:10:27.838203,160
2021-09-24 15:10:27.838210,153
2021-09-24 15:10:27.838216,148
2021-09-24 15:10:27.838222,138
2021-09-24 15:10:27.838229,126
2021-09-24 15:10:27.838235,114
2021-09-24 15:10:27.838242,102
2021-09-24 15:10:27.838249,99
2021-09-24 15:10:27.838255,97
2021-09-24 15:10:27.838262,94
2021-09-24 15:10:27.838268,89
2021-09-24 15:10:27.838275,80
2021-09-24 15:10:27.838281,75
2021-09-24 15:10:27.838288,75
2021-09-24 15:10:27.838294,80
2021-09-24 15:10:27.838301,82
2021-09-24 15:10:27.838307,80
2021-09-24 15:10:27.838314,70
2021-09-24 15:10:27.838320,68
2021-09-24 15:10:27.838327,72
2021-09-24 15:10:28.153364,75
2021-09-24 15:10:28.153386,72
2021-09-24 15:10:28.153394,68
2021-09-24 15:10:28.153400,55
2021-09-24 15:10:28.153407,53
2021-09-24 15:10:28.153413,58
2021-09-24 15:10:28.153420,58
2021-09-24 15:10:28.153427,60
2021-09-24 15:10:28.153433,63
2021-09-24 15:10:28.153440,53
2021-09-24 15:10:28.153446,46
2021-09-24 15:10:28.153453,41
2021-09-24 15:10:28.153459,31
2021-09-24 15:10:28.153466,21
2021-09-24 15:10:28.153472,12
2021-09-24 15:10:28.153479,4
2021-09-24 15:10:28.153485,24
2021-09-24 15:10:28.153492,48
2021-09-24 15:10:28.153499,53
2021-09-24 15:10:28.153505,51
2021-09-24 15:10:28.153512,48
2021-09-24 15:10:28.153518,46
2021-09-24 15:10:28.153525,48
2021-09-24 15:10:28.153531,46
2021-09-24 15:10:28.153538,36
2021-09-24 15:10:28.153544,34
2021-09-24 15:10:28.153551,24
2021-09-24 15:10:28.153557,-14
2021-09-24 15:10:28.153564,-85
2021-09-24 15:10:28.153571,-255
2021-09-24 15:10:28.333543,-468
2021-09-24 15:10:28.333564,-400
2021-09-24 15:10:28.333572,75
2021-09-24 15:10:28.333579,609
2021-09-24 15:10:28.333585,687
2021-09-24 15:10:28.333592,301
2021-09-24 15:10:28.333598,48
2021-09-24 15:10:28.333605,36
2021-09-24 15:10:28.333611,-70
2021-09-24 15:10:28.333618,-167
2021-09-24 15:10:28.333624,-136
2021-09-24 15:10:28.333631,-128
2021-09-24 15:10:28.333637,-167
2021-09-24 15:10:28.333644,-170
2021-09-24 15:10:28.333650,-170
2021-09-24 15:10:28.333657,-199
2021-09-24 15:10:28.333663,-211
2021-09-24 15:10:28.333670,-213
2021-09-24 15:10:28.333676,-230
2021-09-24 15:10:28.333683,-257
2021-09-24 15:10:28.333689,-279
2021-09-24 15:10:28.333696,-306
2021-09-24 15:10:28.333702,-330
2021-09-24 15:10:28.333708,-349
2021-09-24 15:10:28.333715,-371
2021-09-24 15:10:28.333721,-403
2021-09-24 15:10:28.333728,-432
2021-09-24 15:10:28.333734,-444
2021-09-24 15:10:28.333743,-439
2021-09-24 15:10:28.333750,-427
2021-09-24 15:10:28.603282,-403
2021-09-24 15:10:28.603304,-354
2021-09-24 15:10:28.603312,-274
2021-09-24 15:10:28.603319,-167
2021-09-24 15:10:28.603326,-60
2021-09-24 15:10:28.603332,29
2021-09-24 15:10:28.603339,97
2021-09-24 15:10:28.603345,138
2021-09-24 15:10:28.603352,165
2021-09-24 15:10:28.603359,189
2021-09-24 15:10:28.603365,206
2021-09-24 15:10:28.603372,208
2021-09-24 15:10:28.603378,204
2021-09-24 15:10:28.603385,194
2021-09-24 15:10:28.603391,179
2021-09-24 15:10:28.603398,174
2021-09-24 15:10:28.603405,167
2021-09-24 15:10:28.603411,157
2021-09-24 15:10:28.603418,150
2021-09-24 15:10:28.603425,140
2021-09-24 15:10:28.603431,123
2021-09-24 15:10:28.603438,116
2021-09-24 15:10:28.603444,116
2021-09-24 15:10:28.603451,114
2021-09-24 15:10:28.603457,106
2021-09-24 15:10:28.603464,102
2021-09-24 15:10:28.603470,97
2021-09-24 15:10:28.603477,87
2021-09-24 15:10:28.603483,82
2021-09-24 15:10:28.603490,87
2021-09-24 15:10:28.783570,87
2021-09-24 15:10:28.783601,80
2021-09-24 15:10:28.783614,82
2021-09-24 15:10:28.783625,87
2021-09-24 15:10:28.783635,89
2021-09-24 15:10:28.783645,94
2021-09-24 15:10:28.783655,92
2021-09-24 15:10:28.783665,82
2021-09-24 15:10:28.783676,82
2021-09-24 15:10:28.783686,82
2021-09-24 15:10:28.783696,82
2021-09-24 15:10:28.783706,89
2021-09-24 15:10:28.783716,85
2021-09-24 15:10:28.783726,68
2021-09-24 15:10:28.783736,60
2021-09-24 15:10:28.783746,53
2021-09-24 15:10:28.783756,41
2021-09-24 15:10:28.783766,34
2021-09-24 15:10:28.783776,36
2021-09-24 15:10:28.783786,48
2021-09-24 15:10:28.783797,53
2021-09-24 15:10:28.783807,48
2021-09-24 15:10:28.783817,51
2021-09-24 15:10:28.783827,48
2021-09-24 15:10:28.783837,46
2021-09-24 15:10:28.783847,48
2021-09-24 15:10:28.783857,51
2021-09-24 15:10:28.783867,43
2021-09-24 15:10:28.783877,36
2021-09-24 15:10:28.783887,12
2021-09-24 15:10:29.008448,-43
2021-09-24 15:10:29.008472,-160
2021-09-24 15:10:29.008480,-374
2021-09-24 15:10:29.008487,-490
2021-09-24 15:10:29.008495,-213
2021-09-24 15:10:29.008502,361
2021-09-24 15:10:29.008509,694
2021-09-24 15:10:29.008516,456
2021-09-24 15:10:29.008523,104
2021-09-24 15:10:29.008530,41
2021-09-24 15:10:29.008537,7
2021-09-24 15:10:29.008544,-123
2021-09-24 15:10:29.008551,-153
2021-09-24 15:10:29.008558,-119
2021-09-24 15:10:29.008565,-143
2021-09-24 15:10:29.008572,-172
2021-09-24 15:10:29.008579,-167
2021-09-24 15:10:29.008585,-172
2021-09-24 15:10:29.008592,-191
2021-09-24 15:10:29.008599,-201
2021-09-24 15:10:29.008606,-216
2021-09-24 15:10:29.008613,-235
2021-09-24 15:10:29.008620,-257
2021-09-24 15:10:29.008627,-284
2021-09-24 15:10:29.008634,-308
2021-09-24 15:10:29.008641,-327
2021-09-24 15:10:29.008648,-354
2021-09-24 15:10:29.008655,-388
2021-09-24 15:10:29.008662,-408
2021-09-24 15:10:29.008669,-420
2021-09-24 15:10:29.321837,-427
2021-09-24 15:10:29.321858,-420
2021-09-24 15:10:29.321866,-403
2021-09-24 15:10:29.321873,-361
2021-09-24 15:10:29.321879,-286
2021-09-24 15:10:29.321886,-191
2021-09-24 15:10:29.321892,-92
2021-09-24 15:10:29.321899,2
2021-09-24 15:10:29.321905,77
2021-09-24 15:10:29.321912,131
2021-09-24 15:10:29.321919,162
2021-09-24 15:10:29.321925,179
2021-09-24 15:10:29.321931,191
2021-09-24 15:10:29.321938,199
2021-09-24 15:10:29.321945,199
2021-09-24 15:10:29.321951,194
2021-09-24 15:10:29.321958,189
2021-09-24 15:10:29.321964,182
2021-09-24 15:10:29.321971,172
2021-09-24 15:10:29.321977,162
2021-09-24 15:10:29.321984,153
2021-09-24 15:10:29.321990,145
2021-09-24 15:10:29.321997,138
2021-09-24 15:10:29.322003,126
2021-09-24 15:10:29.322010,119
2021-09-24 15:10:29.322016,104
2021-09-24 15:10:29.322023,89
2021-09-24 15:10:29.322029,87
2021-09-24 15:10:29.322035,87
2021-09-24 15:10:29.322042,87
2021-09-24 15:10:29.458442,87
2021-09-24 15:10:29.458465,87
2021-09-24 15:10:29.458472,87
2021-09-24 15:10:29.458479,87
2021-09-24 15:10:29.458486,77
2021-09-24 15:10:29.458492,72
2021-09-24 15:10:29.458499,77
2021-09-24 15:10:29.458505,82
2021-09-24 15:10:29.458512,80
2021-09-24 15:10:29.458518,80
2021-09-24 15:10:29.458524,77
2021-09-24 15:10:29.458531,72
2021-09-24 15:10:29.458537,68
2021-09-24 15:10:29.458544,65
2021-09-24 15:10:29.458550,58
2021-09-24 15:10:29.458557,51
2021-09-24 15:10:29.458563,36
2021-09-24 15:10:29.458570,29
2021-09-24 15:10:29.458576,48
2021-09-24 15:10:29.458582,75
2021-09-24 15:10:29.458589,80
2021-09-24 15:10:29.458595,75
2021-09-24 15:10:29.458602,72
2021-09-24 15:10:29.458608,72
2021-09-24 15:10:29.458615,75
2021-09-24 15:10:29.458621,75
2021-09-24 15:10:29.458628,75
2021-09-24 15:10:29.458634,68
2021-09-24 15:10:29.458640,48
2021-09-24 15:10:29.458647,9
2021-09-24 15:10:29.683457,-63
2021-09-24 15:10:29.683480,-225
2021-09-24 15:10:29.683488,-432
2021-09-24 15:10:29.683495,-393
2021-09-24 15:10:29.683502,58
2021-09-24 15:10:29.683509,604
2021-09-24 15:10:29.683515,697
2021-09-24 15:10:29.683522,318
2021-09-24 15:10:29.683529,85
2021-09-24 15:10:29.683535,77
2021-09-24 15:10:29.683542,-34
2021-09-24 15:10:29.683548,-140
2021-09-24 15:10:29.683555,-114
2021-09-24 15:10:29.683562,-104
2021-09-24 15:10:29.683568,-143
2021-09-24 15:10:29.683575,-153
2021-09-24 15:10:29.683581,-150
2021-09-24 15:10:29.683588,-165
2021-09-24 15:10:29.683594,-174
2021-09-24 15:10:29.683601,-179
2021-09-24 15:10:29.683607,-194
2021-09-24 15:10:29.683614,-218
2021-09-24 15:10:29.683620,-235
2021-09-24 15:10:29.683627,-250
2021-09-24 15:10:29.683633,-272
2021-09-24 15:10:29.683640,-301
2021-09-24 15:10:29.683647,-335
2021-09-24 15:10:29.683653,-366
2021-09-24 15:10:29.683660,-388
2021-09-24 15:10:29.683666,-398
2021-09-24 15:10:29.953540,-400
2021-09-24 15:10:29.953564,-400
2021-09-24 15:10:29.953571,-381
2021-09-24 15:10:29.953578,-327
2021-09-24 15:10:29.953585,-240
2021-09-24 15:10:29.953591,-131
2021-09-24 15:10:29.953597,-29
2021-09-24 15:10:29.953604,48
2021-09-24 15:10:29.953610,104
2021-09-24 15:10:29.953617,138
2021-09-24 15:10:29.953624,165
2021-09-24 15:10:29.953630,189
2021-09-24 15:10:29.953636,196
2021-09-24 15:10:29.953643,199
2021-09-24 15:10:29.953649,196
2021-09-24 15:10:29.953656,189
2021-09-24 15:10:29.953662,182
2021-09-24 15:10:29.953669,174
2021-09-24 15:10:29.953675,167
2021-09-24 15:10:29.953682,160
2021-09-24 15:10:29.953688,150
2021-09-24 15:10:29.953695,136
2021-09-24 15:10:29.953701,131
2021-09-24 15:10:29.953707,126
2021-09-24 15:10:29.953714,121
2021-09-24 15:10:29.953720,116
2021-09-24 15:10:29.953727,109
2021-09-24 15:10:29.953733,99
2021-09-24 15:10:29.953740,97
2021-09-24 15:10:29.953746,99
2021-09-24 15:10:30.222761,99
2021-09-24 15:10:30.222780,99
2021-09-24 15:10:30.222788,97
2021-09-24 15:10:30.222795,92
2021-09-24 15:10:30.222802,94
2021-09-24 15:10:30.222808,102
2021-09-24 15:10:30.222815,99
2021-09-24 15:10:30.222821,97
2021-09-24 15:10:30.222828,87
2021-09-24 15:10:30.222834,82
2021-09-24 15:10:30.222841,82
2021-09-24 15:10:30.222847,80
2021-09-24 15:10:30.222854,75
2021-09-24 15:10:30.222861,65
2021-09-24 15:10:30.222867,51
2021-09-24 15:10:30.222874,36
2021-09-24 15:10:30.222880,31
2021-09-24 15:10:30.222887,31
2021-09-24 15:10:30.222894,41
2021-09-24 15:10:30.222900,63
2021-09-24 15:10:30.222907,72
2021-09-24 15:10:30.222913,65
2021-09-24 15:10:30.222920,65
2021-09-24 15:10:30.222929,72
2021-09-24 15:10:30.222936,72
2021-09-24 15:10:30.222942,70
2021-09-24 15:10:30.222949,65
2021-09-24 15:10:30.222955,60
2021-09-24 15:10:30.222962,51
2021-09-24 15:10:30.222968,12
2021-09-24 15:10:30.403415,-68
2021-09-24 15:10:30.403437,-242
2021-09-24 15:10:30.403445,-442
2021-09-24 15:10:30.403452,-357
2021-09-24 15:10:30.403459,116
2021-09-24 15:10:30.403466,641
2021-09-24 15:10:30.403473,736
2021-09-24 15:10:30.403480,352
2021-09-24 15:10:30.403487,60
2021-09-24 15:10:30.403494,41
2021-09-24 15:10:30.403501,-41
2021-09-24 15:10:30.403508,-138
2021-09-24 15:10:30.403514,-123
2021-09-24 15:10:30.403521,-126
2021-09-24 15:10:30.403528,-167
2021-09-24 15:10:30.403535,-172
2021-09-24 15:10:30.403542,-172
2021-09-24 15:10:30.403549,-189
2021-09-24 15:10:30.403556,-199
2021-09-24 15:10:30.403562,-213
2021-09-24 15:10:30.403569,-233
2021-09-24 15:10:30.403576,-245
2021-09-24 15:10:30.403583,-259
2021-09-24 15:10:30.403590,-279
2021-09-24 15:10:30.403597,-301
2021-09-24 15:10:30.403604,-330
2021-09-24 15:10:30.403610,-359
2021-09-24 15:10:30.403617,-388
2021-09-24 15:10:30.403624,-408
2021-09-24 15:10:30.403631,-420
2021-09-24 15:10:30.628422,-427
2021-09-24 15:10:30.628453,-425
2021-09-24 15:10:30.628465,-403
2021-09-24 15:10:30.628475,-352
2021-09-24 15:10:30.628485,-267
2021-09-24 15:10:30.628496,-160
2021-09-24 15:10:30.628506,-58
2021-09-24 15:10:30.628515,21
2021-09-24 15:10:30.628526,92
2021-09-24 15:10:30.628536,148
2021-09-24 15:10:30.628545,179
2021-09-24 15:10:30.628555,196
2021-09-24 15:10:30.628565,201
2021-09-24 15:10:30.628576,194
2021-09-24 15:10:30.628586,187
2021-09-24 15:10:30.628596,179
2021-09-24 15:10:30.628606,174
2021-09-24 15:10:30.628616,170
2021-09-24 15:10:30.628626,160
2021-09-24 15:10:30.628636,150
2021-09-24 15:10:30.628646,140
2021-09-24 15:10:30.628656,133
2021-09-24 15:10:30.628666,126
2021-09-24 15:10:30.628676,119
2021-09-24 15:10:30.628686,109
2021-09-24 15:10:30.628696,102
2021-09-24 15:10:30.628706,97
2021-09-24 15:10:30.628716,92
2021-09-24 15:10:30.628726,87
2021-09-24 15:10:30.628736,87
2021-09-24 15:10:30.853164,82
2021-09-24 15:10:30.853185,80
2021-09-24 15:10:30.853193,82
2021-09-24 15:10:30.853200,80
2021-09-24 15:10:30.853206,82
2021-09-24 15:10:30.853212,82
2021-09-24 15:10:30.853218,72
2021-09-24 15:10:30.853224,68
2021-09-24 15:10:30.853230,72
2021-09-24 15:10:30.853236,72
2021-09-24 15:10:30.853242,75
2021-09-24 15:10:30.853284,77
2021-09-24 15:10:30.853295,63
2021-09-24 15:10:30.853302,41
2021-09-24 15:10:30.853308,31
2021-09-24 15:10:30.853315,24
2021-09-24 15:10:30.853321,9
2021-09-24 15:10:30.853331,-2
2021-09-24 15:10:30.853337,2
2021-09-24 15:10:30.853344,24
2021-09-24 15:10:30.853350,41
2021-09-24 15:10:30.853356,41
2021-09-24 15:10:30.853362,38
2021-09-24 15:10:30.853368,43
2021-09-24 15:10:30.853375,43
2021-09-24 15:10:30.853406,43
2021-09-24 15:10:30.853423,46
2021-09-24 15:10:30.853431,41
2021-09-24 15:10:30.853438,36
2021-09-24 15:10:30.853444,19
2021-09-24 15:10:31.122293,-29
2021-09-24 15:10:31.122315,-140
2021-09-24 15:10:31.122323,-366
2021-09-24 15:10:31.122330,-505
2021-09-24 15:10:31.122337,-228
2021-09-24 15:10:31.122344,361
2021-09-24 15:10:31.122350,745
2021-09-24 15:10:31.122357,556
2021-09-24 15:10:31.122364,153
2021-09-24 15:10:31.122370,31
2021-09-24 15:10:31.122377,7
2021-09-24 15:10:31.122384,-119
2021-09-24 15:10:31.122391,-155
2021-09-24 15:10:31.122397,-116
2021-09-24 15:10:31.122404,-136
2021-09-24 15:10:31.122410,-165
2021-09-24 15:10:31.122417,-157
2021-09-24 15:10:31.122424,-167
2021-09-24 15:10:31.122431,-191
2021-09-24 15:10:31.122437,-201
2021-09-24 15:10:31.122445,-211
2021-09-24 15:10:31.122451,-230
2021-09-24 15:10:31.122458,-252
2021-09-24 15:10:31.122465,-274
2021-09-24 15:10:31.122472,-293
2021-09-24 15:10:31.122479,-315
2021-09-24 15:10:31.122486,-344
2021-09-24 15:10:31.122494,-376
2021-09-24 15:10:31.122500,-403
2021-09-24 15:10:31.122508,-420
2021-09-24 15:10:31.347123,-427
2021-09-24 15:10:31.347153,-422
2021-09-24 15:10:31.347165,-405
2021-09-24 15:10:31.347175,-366
2021-09-24 15:10:31.347185,-296
2021-09-24 15:10:31.347195,-194
2021-09-24 15:10:31.347205,-82
2021-09-24 15:10:31.347215,14
2021-09-24 15:10:31.347225,87
2021-09-24 15:10:31.347235,140
2021-09-24 15:10:31.347245,174
2021-09-24 15:10:31.347255,187
2021-09-24 15:10:31.347265,199
2021-09-24 15:10:31.347275,208
2021-09-24 15:10:31.347285,206
2021-09-24 15:10:31.347295,199
2021-09-24 15:10:31.347305,191
2021-09-24 15:10:31.347315,179
2021-09-24 15:10:31.347325,167
2021-09-24 15:10:31.347335,148
2021-09-24 15:10:31.347344,131
2021-09-24 15:10:31.347354,119
2021-09-24 15:10:31.347364,106
2021-09-24 15:10:31.347374,102
2021-09-24 15:10:31.347384,97
2021-09-24 15:10:31.347394,92
2021-09-24 15:10:31.347404,85
2021-09-24 15:10:31.347414,80
2021-09-24 15:10:31.347424,75
2021-09-24 15:10:31.347434,75
2021-09-24 15:10:31.527990,75
2021-09-24 15:10:31.528012,77
2021-09-24 15:10:31.528018,75
2021-09-24 15:10:31.528024,70
2021-09-24 15:10:31.528029,63
2021-09-24 15:10:31.528034,63
2021-09-24 15:10:31.528040,70
2021-09-24 15:10:31.528045,72
2021-09-24 15:10:31.528050,70
2021-09-24 15:10:31.528055,65
2021-09-24 15:10:31.528060,58
2021-09-24 15:10:31.528066,58
2021-09-24 15:10:31.528071,63
2021-09-24 15:10:31.528076,63
2021-09-24 15:10:31.528081,63
2021-09-24 15:10:31.528086,65
2021-09-24 15:10:31.528092,63
2021-09-24 15:10:31.528097,58
2021-09-24 15:10:31.528102,53
2021-09-24 15:10:31.528108,43
2021-09-24 15:10:31.528113,34
2021-09-24 15:10:31.528118,21
2021-09-24 15:10:31.528123,14
2021-09-24 15:10:31.528129,21
2021-09-24 15:10:31.528134,46
2021-09-24 15:10:31.528139,60
2021-09-24 15:10:31.528144,53
2021-09-24 15:10:31.528149,46
2021-09-24 15:10:31.528155,48
2021-09-24 15:10:31.528160,51
2021-09-24 15:10:31.843339,48
2021-09-24 15:10:31.843360,51
2021-09-24 15:10:31.843368,46
2021-09-24 15:10:31.843375,26
2021-09-24 15:10:31.843382,-4
2021-09-24 15:10:31.843389,-63
2021-09-24 15:10:31.843396,-216
2021-09-24 15:10:31.843402,-451
2021-09-24 15:10:31.843409,-476
2021-09-24 15:10:31.843416,-68
2021-09-24 15:10:31.843422,514
2021-09-24 15:10:31.843429,726
2021-09-24 15:10:31.843436,393
2021-09-24 15:10:31.843442,75
2021-09-24 15:10:31.843449,41
2021-09-24 15:10:31.843455,-31
2021-09-24 15:10:31.843462,-140
2021-09-24 15:10:31.843469,-123
2021-09-24 15:10:31.843476,-102
2021-09-24 15:10:31.843482,-140
2021-09-24 15:10:31.843489,-150
2021-09-24 15:10:31.843495,-150
2021-09-24 15:10:31.843502,-162
2021-09-24 15:10:31.843509,-174
2021-09-24 15:10:31.843515,-187
2021-09-24 15:10:31.843522,-211
2021-09-24 15:10:31.843528,-230
2021-09-24 15:10:31.843535,-250
2021-09-24 15:10:31.843542,-274
2021-09-24 15:10:31.843548,-296
2021-09-24 15:10:32.023464,-318
2021-09-24 15:10:32.023485,-347
2021-09-24 15:10:32.023493,-381
2021-09-24 15:10:32.023500,-408
2021-09-24 15:10:32.023506,-420
2021-09-24 15:10:32.023513,-422
2021-09-24 15:10:32.023519,-415
2021-09-24 15:10:32.023526,-395
2021-09-24 15:10:32.023533,-349
2021-09-24 15:10:32.023539,-272
2021-09-24 15:10:32.023546,-167
2021-09-24 15:10:32.023552,-58
2021-09-24 15:10:32.023559,34
2021-09-24 15:10:32.023565,102
2021-09-24 15:10:32.023572,143
2021-09-24 15:10:32.023579,165
2021-09-24 15:10:32.023585,187
2021-09-24 15:10:32.023592,194
2021-09-24 15:10:32.023598,194
2021-09-24 15:10:32.023605,191
2021-09-24 15:10:32.023611,182
2021-09-24 15:10:32.023618,167
2021-09-24 15:10:32.023624,162
2021-09-24 15:10:32.023631,155
2021-09-24 15:10:32.023637,145
2021-09-24 15:10:32.023644,136
2021-09-24 15:10:32.023650,123
2021-09-24 15:10:32.023657,106
2021-09-24 15:10:32.023663,99
2021-09-24 15:10:32.023670,97
2021-09-24 15:10:32.292971,89
2021-09-24 15:10:32.293002,82
2021-09-24 15:10:32.293014,77
2021-09-24 15:10:32.293025,72
2021-09-24 15:10:32.293035,72
2021-09-24 15:10:32.293045,70
2021-09-24 15:10:32.293055,68
2021-09-24 15:10:32.293064,60
2021-09-24 15:10:32.293074,53
2021-09-24 15:10:32.293084,58
2021-09-24 15:10:32.293094,70
2021-09-24 15:10:32.293104,72
2021-09-24 15:10:32.293114,72
2021-09-24 15:10:32.293156,68
2021-09-24 15:10:32.293166,58
2021-09-24 15:10:32.293176,51
2021-09-24 15:10:32.293186,55
2021-09-24 15:10:32.293200,68
2021-09-24 15:10:32.293210,72
2021-09-24 15:10:32.293220,65
2021-09-24 15:10:32.293230,60
2021-09-24 15:10:32.293240,68
2021-09-24 15:10:32.293250,68
2021-09-24 15:10:32.293259,58
2021-09-24 15:10:32.293269,48
2021-09-24 15:10:32.293279,38
2021-09-24 15:10:32.293289,26
2021-09-24 15:10:32.293299,12
2021-09-24 15:10:32.293309,2
2021-09-24 15:10:32.293319,9
2021-09-24 15:10:32.473377,29
2021-09-24 15:10:32.473399,34
2021-09-24 15:10:32.473407,24
2021-09-24 15:10:32.473415,21
2021-09-24 15:10:32.473422,29
2021-09-24 15:10:32.473428,29
2021-09-24 15:10:32.473435,24
2021-09-24 15:10:32.473442,14
2021-09-24 15:10:32.473449,7
2021-09-24 15:10:32.473456,4
2021-09-24 15:10:32.473463,-4
2021-09-24 15:10:32.473470,-38
2021-09-24 15:10:32.473477,-155
2021-09-24 15:10:32.473483,-388
2021-09-24 15:10:32.473490,-531
2021-09-24 15:10:32.473497,-272
2021-09-24 15:10:32.473504,318
2021-09-24 15:10:32.473511,719
2021-09-24 15:10:32.473518,536
2021-09-24 15:10:32.473525,136
2021-09-24 15:10:32.473531,26
2021-09-24 15:10:32.473538,12
2021-09-24 15:10:32.473545,-111
2021-09-24 15:10:32.473552,-148
2021-09-24 15:10:32.473559,-109
2021-09-24 15:10:32.473566,-133
2021-09-24 15:10:32.473572,-160
2021-09-24 15:10:32.473579,-155
2021-09-24 15:10:32.473586,-160
2021-09-24 15:10:32.473593,-177
2021-09-24 15:10:32.788447,-191
2021-09-24 15:10:32.788470,-208
2021-09-24 15:10:32.788478,-225
2021-09-24 15:10:32.788485,-240
2021-09-24 15:10:32.788492,-262
2021-09-24 15:10:32.788498,-289
2021-09-24 15:10:32.788505,-318
2021-09-24 15:10:32.788511,-349
2021-09-24 15:10:32.788518,-374
2021-09-24 15:10:32.788524,-393
2021-09-24 15:10:32.788531,-405
2021-09-24 15:10:32.788537,-420
2021-09-24 15:10:32.788544,-427
2021-09-24 15:10:32.788550,-410
2021-09-24 15:10:32.788557,-369
2021-09-24 15:10:32.788563,-306
2021-09-24 15:10:32.788570,-213
2021-09-24 15:10:32.788576,-111
2021-09-24 15:10:32.788583,-21
2021-09-24 15:10:32.788589,51
2021-09-24 15:10:32.788596,111
2021-09-24 15:10:32.788602,155
2021-09-24 15:10:32.788609,182
2021-09-24 15:10:32.788615,196
2021-09-24 15:10:32.788622,199
2021-09-24 15:10:32.788628,199
2021-09-24 15:10:32.788635,196
2021-09-24 15:10:32.788641,191
2021-09-24 15:10:32.788648,184
2021-09-24 15:10:32.788654,174
2021-09-24 15:10:33.012675,162
2021-09-24 15:10:33.012697,153
2021-09-24 15:10:33.012710,136
2021-09-24 15:10:33.012722,119
2021-09-24 15:10:33.012734,111
2021-09-24 15:10:33.012746,99
2021-09-24 15:10:33.012758,82
2021-09-24 15:10:33.012769,75
2021-09-24 15:10:33.012775,75
2021-09-24 15:10:33.012782,72
2021-09-24 15:10:33.012788,68
2021-09-24 15:10:33.012795,65
2021-09-24 15:10:33.012801,63
2021-09-24 15:10:33.012808,65
2021-09-24 15:10:33.012814,72
2021-09-24 15:10:33.012821,70
2021-09-24 15:10:33.012827,68
2021-09-24 15:10:33.012834,65
2021-09-24 15:10:33.012840,63
2021-09-24 15:10:33.012847,68
2021-09-24 15:10:33.012853,65
2021-09-24 15:10:33.012860,63
2021-09-24 15:10:33.012866,58
2021-09-24 15:10:33.012873,51
2021-09-24 15:10:33.012880,48
2021-09-24 15:10:33.012886,60
2021-09-24 15:10:33.012893,72
2021-09-24 15:10:33.012899,68
2021-09-24 15:10:33.012906,53
2021-09-24 15:10:33.012913,46
2021-09-24 15:10:33.193499,41
2021-09-24 15:10:33.193522,36
2021-09-24 15:10:33.193530,24
2021-09-24 15:10:33.193536,14
2021-09-24 15:10:33.193543,29
2021-09-24 15:10:33.193549,46
2021-09-24 15:10:33.193556,51
2021-09-24 15:10:33.193562,51
2021-09-24 15:10:33.193569,51
2021-09-24 15:10:33.193575,48
2021-09-24 15:10:33.193582,43
2021-09-24 15:10:33.193588,34
2021-09-24 15:10:33.193595,36
2021-09-24 15:10:33.193601,43
2021-09-24 15:10:33.193607,34
2021-09-24 15:10:33.193614,4
2021-09-24 15:10:33.193620,-51
2021-09-24 15:10:33.193627,-196
2021-09-24 15:10:33.193633,-444
2021-09-24 15:10:33.193640,-531
2021-09-24 15:10:33.193646,-182
2021-09-24 15:10:33.193653,425
2021-09-24 15:10:33.193659,714
2021-09-24 15:10:33.193665,422
2021-09-24 15:10:33.193672,89
2021-09-24 15:10:33.193678,58
2021-09-24 15:10:33.193685,9
2021-09-24 15:10:33.193691,-119
2021-09-24 15:10:33.193698,-126
2021-09-24 15:10:33.193704,-106
2021-09-24 15:10:33.462143,-143
2021-09-24 15:10:33.462166,-157
2021-09-24 15:10:33.462174,-155
2021-09-24 15:10:33.462181,-179
2021-09-24 15:10:33.462188,-204
2021-09-24 15:10:33.462194,-208
2021-09-24 15:10:33.462201,-218
2021-09-24 15:10:33.462207,-245
2021-09-24 15:10:33.462245,-264
2021-09-24 15:10:33.462252,-284
2021-09-24 15:10:33.462258,-315
2021-09-24 15:10:33.462265,-354
2021-09-24 15:10:33.462271,-386
2021-09-24 15:10:33.462277,-408
2021-09-24 15:10:33.462284,-429
2021-09-24 15:10:33.462290,-451
2021-09-24 15:10:33.462296,-459
2021-09-24 15:10:33.462302,-446
2021-09-24 15:10:33.462309,-425
2021-09-24 15:10:33.462315,-383
2021-09-24 15:10:33.462322,-306
2021-09-24 15:10:33.462328,-201
2021-09-24 15:10:33.462334,-99
2021-09-24 15:10:33.462341,-12
2021-09-24 15:10:33.462347,60
2021-09-24 15:10:33.462353,121
2021-09-24 15:10:33.462360,160
2021-09-24 15:10:33.462366,177
2021-09-24 15:10:33.462372,184
2021-09-24 15:10:33.462379,189
2021-09-24 15:10:33.687712,189
2021-09-24 15:10:33.687732,187
2021-09-24 15:10:33.687741,179
2021-09-24 15:10:33.687748,160
2021-09-24 15:10:33.687755,143
2021-09-24 15:10:33.687762,140
2021-09-24 15:10:33.687769,136
2021-09-24 15:10:33.687776,123
2021-09-24 15:10:33.687782,111
2021-09-24 15:10:33.687789,97
2021-09-24 15:10:33.687796,89
2021-09-24 15:10:33.687803,82
2021-09-24 15:10:33.687810,77
2021-09-24 15:10:33.687816,80
2021-09-24 15:10:33.687823,77
2021-09-24 15:10:33.687830,63
2021-09-24 15:10:33.687837,58
2021-09-24 15:10:33.687844,68
2021-09-24 15:10:33.687851,70
2021-09-24 15:10:33.687857,70
2021-09-24 15:10:33.687864,72
2021-09-24 15:10:33.687871,77
2021-09-24 15:10:33.687878,77
2021-09-24 15:10:33.687885,75
2021-09-24 15:10:33.687891,72
2021-09-24 15:10:33.687898,77
2021-09-24 15:10:33.687905,75
2021-09-24 15:10:33.687912,72
2021-09-24 15:10:33.687919,75
2021-09-24 15:10:33.687925,80
2021-09-24 15:10:33.868561,80
2021-09-24 15:10:33.868586,72
2021-09-24 15:10:33.868595,60
2021-09-24 15:10:33.868602,51
2021-09-24 15:10:33.868609,46
2021-09-24 15:10:33.868615,38
2021-09-24 15:10:33.868622,31
2021-09-24 15:10:33.868629,41
2021-09-24 15:10:33.868636,58
2021-09-24 15:10:33.868643,55
2021-09-24 15:10:33.868650,51
2021-09-24 15:10:33.868656,51
2021-09-24 15:10:33.868663,46
2021-09-24 15:10:33.868670,41
2021-09-24 15:10:33.868677,36
2021-09-24 15:10:33.868684,31
2021-09-24 15:10:33.868691,31
2021-09-24 15:10:33.868697,17
2021-09-24 15:10:33.868704,-19
2021-09-24 15:10:33.868711,-65
2021-09-24 15:10:33.868718,-165
2021-09-24 15:10:33.868725,-381
2021-09-24 15:10:33.868732,-529
2021-09-24 15:10:33.868739,-301
2021-09-24 15:10:33.868745,259
2021-09-24 15:10:33.868752,670
2021-09-24 15:10:33.868759,512
2021-09-24 15:10:33.868766,133
2021-09-24 15:10:33.868773,48
2021-09-24 15:10:33.868779,41
2021-09-24 15:10:34.093510,-97
2021-09-24 15:10:34.093532,-153
2021-09-24 15:10:34.093540,-123
2021-09-24 15:10:34.093547,-143
2021-09-24 15:10:34.093554,-167
2021-09-24 15:10:34.093560,-160
2021-09-24 15:10:34.093567,-167
2021-09-24 15:10:34.093573,-194
2021-09-24 15:10:34.093580,-211
2021-09-24 15:10:34.093586,-221
2021-09-24 15:10:34.093593,-230
2021-09-24 15:10:34.093599,-242
2021-09-24 15:10:34.093606,-262
2021-09-24 15:10:34.093612,-296
2021-09-24 15:10:34.093619,-335
2021-09-24 15:10:34.093625,-361
2021-09-24 15:10:34.093632,-386
2021-09-24 15:10:34.093638,-412
2021-09-24 15:10:34.093645,-429
2021-09-24 15:10:34.093651,-437
2021-09-24 15:10:34.093658,-434
2021-09-24 15:10:34.093664,-412
2021-09-24 15:10:34.093671,-364
2021-09-24 15:10:34.093677,-289
2021-09-24 15:10:34.093684,-189
2021-09-24 15:10:34.093690,-82
2021-09-24 15:10:34.093697,7
2021-09-24 15:10:34.093703,80
2021-09-24 15:10:34.093710,136
2021-09-24 15:10:34.093716,172
2021-09-24 15:10:34.408129,194
2021-09-24 15:10:34.408152,206
2021-09-24 15:10:34.408160,208
2021-09-24 15:10:34.408166,206
2021-09-24 15:10:34.408173,206
2021-09-24 15:10:34.408180,204
2021-09-24 15:10:34.408186,191
2021-09-24 15:10:34.408193,174
2021-09-24 15:10:34.408199,165
2021-09-24 15:10:34.408206,160
2021-09-24 15:10:34.408212,148
2021-09-24 15:10:34.408219,138
2021-09-24 15:10:34.408225,128
2021-09-24 15:10:34.408232,114
2021-09-24 15:10:34.408238,99
2021-09-24 15:10:34.408245,89
2021-09-24 15:10:34.408251,82
2021-09-24 15:10:34.408258,82
2021-09-24 15:10:34.408264,82
2021-09-24 15:10:34.408271,80
2021-09-24 15:10:34.408278,80
2021-09-24 15:10:34.408284,82
2021-09-24 15:10:34.408291,82
2021-09-24 15:10:34.408297,77
2021-09-24 15:10:34.408304,68
2021-09-24 15:10:34.408310,65
2021-09-24 15:10:34.408317,70
2021-09-24 15:10:34.408323,70
2021-09-24 15:10:34.408330,70
2021-09-24 15:10:34.408336,77
2021-09-24 15:10:34.542961,77
2021-09-24 15:10:34.542981,77
2021-09-24 15:10:34.542989,85
2021-09-24 15:10:34.542996,85
2021-09-24 15:10:34.543003,80
2021-09-24 15:10:34.543009,72
2021-09-24 15:10:34.543016,65
2021-09-24 15:10:34.543022,53
2021-09-24 15:10:34.543028,43
2021-09-24 15:10:34.543035,36
2021-09-24 15:10:34.543041,38
2021-09-24 15:10:34.543048,60
2021-09-24 15:10:34.543055,70
2021-09-24 15:10:34.543061,65
2021-09-24 15:10:34.543071,68
2021-09-24 15:10:34.543077,70
2021-09-24 15:10:34.543084,65
2021-09-24 15:10:34.543090,60
2021-09-24 15:10:34.543097,55
2021-09-24 15:10:34.543103,58
2021-09-24 15:10:34.543110,53
2021-09-24 15:10:34.543116,24
2021-09-24 15:10:34.543122,-36
2021-09-24 15:10:34.543129,-160
2021-09-24 15:10:34.543135,-378
2021-09-24 15:10:34.543142,-480
2021-09-24 15:10:34.543148,-184
2021-09-24 15:10:34.543155,371
2021-09-24 15:10:34.543162,738
2021-09-24 15:10:34.543168,583
2021-09-24 15:10:34.813537,187
2021-09-24 15:10:34.813559,48
2021-09-24 15:10:34.813567,26
2021-09-24 15:10:34.813574,-92
2021-09-24 15:10:34.813580,-136
2021-09-24 15:10:34.813587,-109
2021-09-24 15:10:34.813593,-136
2021-09-24 15:10:34.813600,-160
2021-09-24 15:10:34.813606,-153
2021-09-24 15:10:34.813613,-162
2021-09-24 15:10:34.813619,-182
2021-09-24 15:10:34.813626,-194
2021-09-24 15:10:34.813632,-208
2021-09-24 15:10:34.813638,-223
2021-09-24 15:10:34.813645,-235
2021-09-24 15:10:34.813651,-257
2021-09-24 15:10:34.813658,-286
2021-09-24 15:10:34.813664,-318
2021-09-24 15:10:34.813671,-352
2021-09-24 15:10:34.813677,-388
2021-09-24 15:10:34.813684,-420
2021-09-24 15:10:34.813690,-439
2021-09-24 15:10:34.813697,-449
2021-09-24 15:10:34.813703,-454
2021-09-24 15:10:34.813709,-437
2021-09-24 15:10:34.813716,-391
2021-09-24 15:10:34.813722,-318
2021-09-24 15:10:34.813729,-216
2021-09-24 15:10:34.813735,-104
2021-09-24 15:10:34.813742,-9
2021-09-24 15:10:35.038464,60
2021-09-24 15:10:35.038488,121
2021-09-24 15:10:35.038496,165
2021-09-24 15:10:35.038503,187
2021-09-24 15:10:35.038510,196
2021-09-24 15:10:35.038517,204
2021-09-24 15:10:35.038523,206
2021-09-24 15:10:35.038530,204
2021-09-24 15:10:35.038536,201
2021-09-24 15:10:35.038543,194
2021-09-24 15:10:35.038549,179
2021-09-24 15:10:35.038556,165
2021-09-24 15:10:35.038562,157
2021-09-24 15:10:35.038569,153
2021-09-24 15:10:35.038575,143
2021-09-24 15:10:35.038582,131
2021-09-24 15:10:35.038588,119
2021-09-24 15:10:35.038595,106
2021-09-24 15:10:35.038602,102
2021-09-24 15:10:35.038608,99
2021-09-24 15:10:35.038615,92
2021-09-24 15:10:35.038621,80
2021-09-24 15:10:35.038628,72
2021-09-24 15:10:35.038634,72
2021-09-24 15:10:35.038641,75
2021-09-24 15:10:35.038647,77
2021-09-24 15:10:35.038654,77
2021-09-24 15:10:35.038660,77
2021-09-24 15:10:35.038667,77
2021-09-24 15:10:35.038673,77
2021-09-24 15:10:35.218511,82
2021-09-24 15:10:35.218533,82
2021-09-24 15:10:35.218541,82
2021-09-24 15:10:35.218548,77
2021-09-24 15:10:35.218555,72
2021-09-24 15:10:35.218561,77
2021-09-24 15:10:35.218568,85
2021-09-24 15:10:35.218574,80
2021-09-24 15:10:35.218581,72
2021-09-24 15:10:35.218588,60
2021-09-24 15:10:35.218594,43
2021-09-24 15:10:35.218601,31
2021-09-24 15:10:35.218607,29
2021-09-24 15:10:35.218614,34
2021-09-24 15:10:35.218621,48
2021-09-24 15:10:35.218627,63
2021-09-24 15:10:35.218634,58
2021-09-24 15:10:35.218640,53
2021-09-24 15:10:35.218647,60
2021-09-24 15:10:35.218653,63
2021-09-24 15:10:35.218660,60
2021-09-24 15:10:35.218667,58
2021-09-24 15:10:35.218673,53
2021-09-24 15:10:35.218680,43
2021-09-24 15:10:35.218687,26
2021-09-24 15:10:35.218693,-12
2021-09-24 15:10:35.218700,-104
2021-09-24 15:10:35.218707,-310
2021-09-24 15:10:35.218713,-505
2021-09-24 15:10:35.218720,-352
2021-09-24 15:10:35.532502,172
2021-09-24 15:10:35.532520,672
2021-09-24 15:10:35.532527,680
2021-09-24 15:10:35.532533,267
2021-09-24 15:10:35.532539,31
2021-09-24 15:10:35.532545,19
2021-09-24 15:10:35.532551,-89
2021-09-24 15:10:35.532557,-165
2021-09-24 15:10:35.532563,-131
2021-09-24 15:10:35.532569,-145
2021-09-24 15:10:35.532575,-184
2021-09-24 15:10:35.532581,-177
2021-09-24 15:10:35.532587,-174
2021-09-24 15:10:35.532592,-194
2021-09-24 15:10:35.532598,-204
2021-09-24 15:10:35.532604,-213
2021-09-24 15:10:35.532610,-230
2021-09-24 15:10:35.532616,-242
2021-09-24 15:10:35.532622,-257
2021-09-24 15:10:35.532628,-279
2021-09-24 15:10:35.532634,-308
2021-09-24 15:10:35.532640,-347
2021-09-24 15:10:35.532645,-378
2021-09-24 15:10:35.532651,-408
2021-09-24 15:10:35.532657,-437
2021-09-24 15:10:35.532663,-456
2021-09-24 15:10:35.532669,-466
2021-09-24 15:10:35.532675,-456
2021-09-24 15:10:35.532681,-422
2021-09-24 15:10:35.532686,-357
2021-09-24 15:10:35.713552,-259
2021-09-24 15:10:35.713575,-145
2021-09-24 15:10:35.713583,-41
2021-09-24 15:10:35.713590,41
2021-09-24 15:10:35.713597,111
2021-09-24 15:10:35.713603,162
2021-09-24 15:10:35.713610,194
2021-09-24 15:10:35.713616,208
2021-09-24 15:10:35.713622,211
2021-09-24 15:10:35.713629,204
2021-09-24 15:10:35.713635,204
2021-09-24 15:10:35.713642,206
2021-09-24 15:10:35.713648,201
2021-09-24 15:10:35.713655,191
2021-09-24 15:10:35.713662,177
2021-09-24 15:10:35.713668,160
2021-09-24 15:10:35.713675,153
2021-09-24 15:10:35.713681,148
2021-09-24 15:10:35.713688,140
2021-09-24 15:10:35.713694,131
2021-09-24 15:10:35.713701,116
2021-09-24 15:10:35.713707,104
2021-09-24 15:10:35.713714,99
2021-09-24 15:10:35.713720,99
2021-09-24 15:10:35.713726,94
2021-09-24 15:10:35.713733,94
2021-09-24 15:10:35.713740,94
2021-09-24 15:10:35.713746,85
2021-09-24 15:10:35.713753,80
2021-09-24 15:10:35.713759,85
2021-09-24 15:10:35.983559,89
2021-09-24 15:10:35.983582,89
2021-09-24 15:10:35.983590,85
2021-09-24 15:10:35.983597,82
2021-09-24 15:10:35.983604,85
2021-09-24 15:10:35.983611,87
2021-09-24 15:10:35.983618,87
2021-09-24 15:10:35.983625,82
2021-09-24 15:10:35.983631,72
2021-09-24 15:10:35.983638,65
2021-09-24 15:10:35.983645,63
2021-09-24 15:10:35.983652,60
2021-09-24 15:10:35.983659,65
2021-09-24 15:10:35.983666,60
2021-09-24 15:10:35.983673,41
2021-09-24 15:10:35.983679,31
2021-09-24 15:10:35.983686,31
2021-09-24 15:10:35.983693,24
2021-09-24 15:10:35.983700,14
2021-09-24 15:10:35.983706,19
2021-09-24 15:10:35.983713,38
2021-09-24 15:10:35.983720,55
2021-09-24 15:10:35.983727,55
2021-09-24 15:10:35.983734,55
2021-09-24 15:10:35.983740,60
2021-09-24 15:10:35.983747,60
2021-09-24 15:10:35.983754,55
2021-09-24 15:10:35.983761,55
2021-09-24 15:10:35.983768,53
2021-09-24 15:10:35.983774,46
2021-09-24 15:10:36.207208,24
2021-09-24 15:10:36.207223,-24
2021-09-24 15:10:36.207228,-136
2021-09-24 15:10:36.207233,-359
2021-09-24 15:10:36.207237,-507
2021-09-24 15:10:36.207241,-262
2021-09-24 15:10:36.207246,310
2021-09-24 15:10:36.207250,723
2021-09-24 15:10:36.207255,585
2021-09-24 15:10:36.207259,182
2021-09-24 15:10:36.207264,48
2021-09-24 15:10:36.207268,29
2021-09-24 15:10:36.207272,-97
2021-09-24 15:10:36.207277,-145
2021-09-24 15:10:36.207281,-109
2021-09-24 15:10:36.207285,-128
2021-09-24 15:10:36.207290,-155
2021-09-24 15:10:36.207294,-150
2021-09-24 15:10:36.207299,-157
2021-09-24 15:10:36.207303,-184
2021-09-24 15:10:36.207308,-196
2021-09-24 15:10:36.207312,-201
2021-09-24 15:10:36.207316,-218
2021-09-24 15:10:36.207321,-233
2021-09-24 15:10:36.207325,-252
2021-09-24 15:10:36.207330,-276
2021-09-24 15:10:36.207334,-303
2021-09-24 15:10:36.207338,-335
2021-09-24 15:10:36.207343,-371
2021-09-24 15:10:36.207347,-398
2021-09-24 15:10:36.433546,-422
2021-09-24 15:10:36.433568,-442
2021-09-24 15:10:36.433576,-449
2021-09-24 15:10:36.433583,-434
2021-09-24 15:10:36.433589,-395
2021-09-24 15:10:36.433596,-327
2021-09-24 15:10:36.433602,-238
2021-09-24 15:10:36.433609,-133
2021-09-24 15:10:36.433615,-31
2021-09-24 15:10:36.433622,53
2021-09-24 15:10:36.433629,116
2021-09-24 15:10:36.433635,162
2021-09-24 15:10:36.433642,184
2021-09-24 15:10:36.433648,191
2021-09-24 15:10:36.433655,201
2021-09-24 15:10:36.433661,201
2021-09-24 15:10:36.433668,187
2021-09-24 15:10:36.433675,174
2021-09-24 15:10:36.433681,167
2021-09-24 15:10:36.433688,162
2021-09-24 15:10:36.433694,155
2021-09-24 15:10:36.433701,145
2021-09-24 15:10:36.433707,138
2021-09-24 15:10:36.433714,128
2021-09-24 15:10:36.433721,119
2021-09-24 15:10:36.433727,114
2021-09-24 15:10:36.433734,109
2021-09-24 15:10:36.433740,102
2021-09-24 15:10:36.433747,97
2021-09-24 15:10:36.433753,94
2021-09-24 15:10:36.658553,92
2021-09-24 15:10:36.658575,89
2021-09-24 15:10:36.658583,89
2021-09-24 15:10:36.658590,85
2021-09-24 15:10:36.658597,77
2021-09-24 15:10:36.658603,80
2021-09-24 15:10:36.658610,82
2021-09-24 15:10:36.658616,85
2021-09-24 15:10:36.658623,87
2021-09-24 15:10:36.658630,87
2021-09-24 15:10:36.658636,87
2021-09-24 15:10:36.658642,85
2021-09-24 15:10:36.658649,75
2021-09-24 15:10:36.658655,75
2021-09-24 15:10:36.658662,80
2021-09-24 15:10:36.658668,75
2021-09-24 15:10:36.658675,75
2021-09-24 15:10:36.658681,80
2021-09-24 15:10:36.658688,75
2021-09-24 15:10:36.658694,68
2021-09-24 15:10:36.658701,63
2021-09-24 15:10:36.658707,55
2021-09-24 15:10:36.658714,46
2021-09-24 15:10:36.658720,34
2021-09-24 15:10:36.658727,26
2021-09-24 15:10:36.658733,36
2021-09-24 15:10:36.658740,60
2021-09-24 15:10:36.658747,68
2021-09-24 15:10:36.658753,63
2021-09-24 15:10:36.658760,63
2021-09-24 15:10:36.838485,65
2021-09-24 15:10:36.838509,65
2021-09-24 15:10:36.838517,65
2021-09-24 15:10:36.838524,63
2021-09-24 15:10:36.838531,60
2021-09-24 15:10:36.838537,53
2021-09-24 15:10:36.838544,24
2021-09-24 15:10:36.838550,-26
2021-09-24 15:10:36.838557,-155
2021-09-24 15:10:36.838563,-391
2021-09-24 15:10:36.838570,-493
2021-09-24 15:10:36.838576,-174
2021-09-24 15:10:36.838583,420
2021-09-24 15:10:36.838589,748
2021-09-24 15:10:36.838596,497
2021-09-24 15:10:36.838602,121
2021-09-24 15:10:36.838609,38
2021-09-24 15:10:36.838615,-9
2021-09-24 15:10:36.838621,-133
2021-09-24 15:10:36.838628,-140
2021-09-24 15:10:36.838634,-114
2021-09-24 15:10:36.838641,-155
2021-09-24 15:10:36.838647,-187
2021-09-24 15:10:36.838654,-179
2021-09-24 15:10:36.838660,-184
2021-09-24 15:10:36.838666,-199
2021-09-24 15:10:36.838673,-206
2021-09-24 15:10:36.838680,-216
2021-09-24 15:10:36.838686,-235
2021-09-24 15:10:36.838693,-252
2021-09-24 15:10:37.108568,-267
2021-09-24 15:10:37.108591,-289
2021-09-24 15:10:37.108600,-320
2021-09-24 15:10:37.108607,-359
2021-09-24 15:10:37.108614,-395
2021-09-24 15:10:37.108621,-427
2021-09-24 15:10:37.108627,-444
2021-09-24 15:10:37.108634,-451
2021-09-24 15:10:37.108641,-456
2021-09-24 15:10:37.108648,-444
2021-09-24 15:10:37.108655,-405
2021-09-24 15:10:37.108662,-335
2021-09-24 15:10:37.108668,-230
2021-09-24 15:10:37.108675,-116
2021-09-24 15:10:37.108682,-19
2021-09-24 15:10:37.108689,55
2021-09-24 15:10:37.108696,111
2021-09-24 15:10:37.108703,150
2021-09-24 15:10:37.108710,177
2021-09-24 15:10:37.108730,194
2021-09-24 15:10:37.108737,196
2021-09-24 15:10:37.108744,191
2021-09-24 15:10:37.108751,187
2021-09-24 15:10:37.108758,182
2021-09-24 15:10:37.108764,177
2021-09-24 15:10:37.108771,165
2021-09-24 15:10:37.108778,155
2021-09-24 15:10:37.108785,143
2021-09-24 15:10:37.108792,133
2021-09-24 15:10:37.108799,128
2021-09-24 15:10:37.288534,123
2021-09-24 15:10:37.288556,116
2021-09-24 15:10:37.288564,104
2021-09-24 15:10:37.288571,89
2021-09-24 15:10:37.288577,80
2021-09-24 15:10:37.288584,77
2021-09-24 15:10:37.288590,82
2021-09-24 15:10:37.288597,80
2021-09-24 15:10:37.288604,80
2021-09-24 15:10:37.288610,75
2021-09-24 15:10:37.288617,68
2021-09-24 15:10:37.288623,70
2021-09-24 15:10:37.288630,77
2021-09-24 15:10:37.288637,80
2021-09-24 15:10:37.288643,77
2021-09-24 15:10:37.288650,68
2021-09-24 15:10:37.288656,65
2021-09-24 15:10:37.288663,70
2021-09-24 15:10:37.288670,70
2021-09-24 15:10:37.288676,68
2021-09-24 15:10:37.288683,70
2021-09-24 15:10:37.288690,70
2021-09-24 15:10:37.288696,70
2021-09-24 15:10:37.288703,68
2021-09-24 15:10:37.288710,63
2021-09-24 15:10:37.288716,55
2021-09-24 15:10:37.288723,41
2021-09-24 15:10:37.288729,17
2021-09-24 15:10:37.288736,7
2021-09-24 15:10:37.288743,24
2021-09-24 15:10:37.647322,51
2021-09-24 15:10:37.647346,63
2021-09-24 15:10:37.647353,51
2021-09-24 15:10:37.647360,36
2021-09-24 15:10:37.647367,41
2021-09-24 15:10:37.647374,51
2021-09-24 15:10:37.647380,51
2021-09-24 15:10:37.647387,46
2021-09-24 15:10:37.647393,38
2021-09-24 15:10:37.647400,29
2021-09-24 15:10:37.647406,9
2021-09-24 15:10:37.647413,-36
2021-09-24 15:10:37.647420,-153
2021-09-24 15:10:37.647426,-388
2021-09-24 15:10:37.647433,-553
2021-09-24 15:10:37.647439,-325
2021-09-24 15:10:37.647446,267
2021-09-24 15:10:37.647454,694
2021-09-24 15:10:37.647461,529
2021-09-24 15:10:37.647469,136
2021-09-24 15:10:37.647475,29
2021-09-24 15:10:37.647482,12
2021-09-24 15:10:37.647488,-109
2021-09-24 15:10:37.647495,-145
2021-09-24 15:10:37.647501,-116
2021-09-24 15:10:37.647508,-136
2021-09-24 15:10:37.647514,-162
2021-09-24 15:10:37.647521,-165
2021-09-24 15:10:37.647527,-167
2021-09-24 15:10:37.647534,-177
2021-09-24 15:10:37.783644,-191
2021-09-24 15:10:37.783666,-208
2021-09-24 15:10:37.783674,-228
2021-09-24 15:10:37.783681,-242
2021-09-24 15:10:37.783688,-255
2021-09-24 15:10:37.783694,-281
2021-09-24 15:10:37.783701,-320
2021-09-24 15:10:37.783708,-354
2021-09-24 15:10:37.783714,-393
2021-09-24 15:10:37.783721,-425
2021-09-24 15:10:37.783727,-437
2021-09-24 15:10:37.783734,-442
2021-09-24 15:10:37.783740,-442
2021-09-24 15:10:37.783747,-427
2021-09-24 15:10:37.783753,-388
2021-09-24 15:10:37.783760,-315
2021-09-24 15:10:37.783766,-211
2021-09-24 15:10:37.783773,-104
2021-09-24 15:10:37.783779,-12
2021-09-24 15:10:37.783786,60
2021-09-24 15:10:37.783792,114
2021-09-24 15:10:37.783799,155
2021-09-24 15:10:37.783805,184
2021-09-24 15:10:37.783812,196
2021-09-24 15:10:37.783818,201
2021-09-24 15:10:37.783825,201
2021-09-24 15:10:37.783831,196
2021-09-24 15:10:37.783838,194
2021-09-24 15:10:37.783844,187
2021-09-24 15:10:37.783851,172
2021-09-24 15:10:38.097911,162
2021-09-24 15:10:38.097933,153
2021-09-24 15:10:38.097941,131
2021-09-24 15:10:38.097948,106
2021-09-24 15:10:38.097954,102
2021-09-24 15:10:38.097961,102
2021-09-24 15:10:38.097967,92
2021-09-24 15:10:38.097974,80
2021-09-24 15:10:38.097980,72
2021-09-24 15:10:38.097987,72
2021-09-24 15:10:38.097993,70
2021-09-24 15:10:38.097999,68
2021-09-24 15:10:38.098006,68
2021-09-24 15:10:38.098012,65
2021-09-24 15:10:38.098019,60
2021-09-24 15:10:38.098025,60
2021-09-24 15:10:38.098032,60
2021-09-24 15:10:38.098038,63
2021-09-24 15:10:38.098045,65
2021-09-24 15:10:38.098051,60
2021-09-24 15:10:38.098058,60
2021-09-24 15:10:38.098064,68
2021-09-24 15:10:38.098071,70
2021-09-24 15:10:38.098077,72
2021-09-24 15:10:38.098084,68
2021-09-24 15:10:38.098090,58
2021-09-24 15:10:38.098097,51
2021-09-24 15:10:38.098103,43
2021-09-24 15:10:38.098110,34
2021-09-24 15:10:38.098116,29
2021-09-24 15:10:38.233369,41
2021-09-24 15:10:38.233392,63
2021-09-24 15:10:38.233399,72
2021-09-24 15:10:38.233405,70
2021-09-24 15:10:38.233411,68
2021-09-24 15:10:38.233417,68
2021-09-24 15:10:38.233423,65
2021-09-24 15:10:38.233429,55
2021-09-24 15:10:38.233434,55
2021-09-24 15:10:38.233440,55
2021-09-24 15:10:38.233446,43
2021-09-24 15:10:38.233452,19
2021-09-24 15:10:38.233458,-36
2021-09-24 15:10:38.233464,-162
2021-09-24 15:10:38.233470,-376
2021-09-24 15:10:38.233476,-495
2021-09-24 15:10:38.233482,-228
2021-09-24 15:10:38.233488,354
2021-09-24 15:10:38.233494,702
2021-09-24 15:10:38.233499,463
2021-09-24 15:10:38.233505,116
2021-09-24 15:10:38.233511,72
2021-09-24 15:10:38.233517,38
2021-09-24 15:10:38.233523,-106
2021-09-24 15:10:38.233529,-140
2021-09-24 15:10:38.233535,-106
2021-09-24 15:10:38.233541,-131
2021-09-24 15:10:38.233546,-160
2021-09-24 15:10:38.233552,-153
2021-09-24 15:10:38.233558,-157
2021-09-24 15:10:38.502897,-179
2021-09-24 15:10:38.502919,-191
2021-09-24 15:10:38.502927,-196
2021-09-24 15:10:38.502933,-213
2021-09-24 15:10:38.502940,-233
2021-09-24 15:10:38.502946,-255
2021-09-24 15:10:38.502953,-286
2021-09-24 15:10:38.502959,-315
2021-09-24 15:10:38.502966,-352
2021-09-24 15:10:38.502972,-395
2021-09-24 15:10:38.502979,-422
2021-09-24 15:10:38.502985,-434
2021-09-24 15:10:38.502991,-449
2021-09-24 15:10:38.502998,-437
2021-09-24 15:10:38.503004,-405
2021-09-24 15:10:38.503011,-361
2021-09-24 15:10:38.503017,-284
2021-09-24 15:10:38.503024,-177
2021-09-24 15:10:38.503030,-77
2021-09-24 15:10:38.503037,4
2021-09-24 15:10:38.503044,75
2021-09-24 15:10:38.503050,128
2021-09-24 15:10:38.503056,162
2021-09-24 15:10:38.503063,179
2021-09-24 15:10:38.503069,187
2021-09-24 15:10:38.503076,194
2021-09-24 15:10:38.503083,196
2021-09-24 15:10:38.503089,194
2021-09-24 15:10:38.503096,189
2021-09-24 15:10:38.503102,179
2021-09-24 15:10:38.683478,167
2021-09-24 15:10:38.683500,162
2021-09-24 15:10:38.683507,155
2021-09-24 15:10:38.683514,140
2021-09-24 15:10:38.683521,131
2021-09-24 15:10:38.683527,123
2021-09-24 15:10:38.683534,116
2021-09-24 15:10:38.683540,109
2021-09-24 15:10:38.683547,106
2021-09-24 15:10:38.683553,104
2021-09-24 15:10:38.683560,94
2021-09-24 15:10:38.683566,87
2021-09-24 15:10:38.683572,87
2021-09-24 15:10:38.683579,89
2021-09-24 15:10:38.683585,89
2021-09-24 15:10:38.683592,89
2021-09-24 15:10:38.683598,89
2021-09-24 15:10:38.683605,89
2021-09-24 15:10:38.683611,92
2021-09-24 15:10:38.683617,97
2021-09-24 15:10:38.683624,94
2021-09-24 15:10:38.683630,87
2021-09-24 15:10:38.683637,82
2021-09-24 15:10:38.683643,82
2021-09-24 15:10:38.683649,89
2021-09-24 15:10:38.683656,89
2021-09-24 15:10:38.683662,82
2021-09-24 15:10:38.683669,75
2021-09-24 15:10:38.683675,68
2021-09-24 15:10:38.683682,55
2021-09-24 15:10:38.908651,48
2021-09-24 15:10:38.908675,46
2021-09-24 15:10:38.908683,60
2021-09-24 15:10:38.908690,77
2021-09-24 15:10:38.908697,80
2021-09-24 15:10:38.908704,77
2021-09-24 15:10:38.908711,82
2021-09-24 15:10:38.908718,80
2021-09-24 15:10:38.908725,77
2021-09-24 15:10:38.908731,75
2021-09-24 15:10:38.908738,68
2021-09-24 15:10:38.908745,55
2021-09-24 15:10:38.908752,41
2021-09-24 15:10:38.908758,0
2021-09-24 15:10:38.908765,-106
2021-09-24 15:10:38.908772,-313
2021-09-24 15:10:38.908779,-490
2021-09-24 15:10:38.908786,-327
2021-09-24 15:10:38.908793,189
2021-09-24 15:10:38.908799,665
2021-09-24 15:10:38.908806,670
2021-09-24 15:10:38.908813,284
2021-09-24 15:10:38.908820,68
2021-09-24 15:10:38.908827,58
2021-09-24 15:10:38.908834,-53
2021-09-24 15:10:38.908840,-140
2021-09-24 15:10:38.908847,-111
2021-09-24 15:10:38.908854,-116
2021-09-24 15:10:38.908861,-155
2021-09-24 15:10:38.908867,-155
2021-09-24 15:10:39.133091,-150
2021-09-24 15:10:39.133111,-167
2021-09-24 15:10:39.133118,-179
2021-09-24 15:10:39.133125,-194
2021-09-24 15:10:39.133131,-216
2021-09-24 15:10:39.133137,-230
2021-09-24 15:10:39.133143,-240
2021-09-24 15:10:39.133150,-262
2021-09-24 15:10:39.133156,-291
2021-09-24 15:10:39.133162,-325
2021-09-24 15:10:39.133168,-359
2021-09-24 15:10:39.133174,-386
2021-09-24 15:10:39.133180,-408
2021-09-24 15:10:39.133187,-422
2021-09-24 15:10:39.133193,-425
2021-09-24 15:10:39.133199,-420
2021-09-24 15:10:39.133205,-391
2021-09-24 15:10:39.133211,-325
2021-09-24 15:10:39.133218,-228
2021-09-24 15:10:39.133224,-119
2021-09-24 15:10:39.133230,-19
2021-09-24 15:10:39.133236,60
2021-09-24 15:10:39.133242,126
2021-09-24 15:10:39.133249,172
2021-09-24 15:10:39.133255,201
2021-09-24 15:10:39.133261,216
2021-09-24 15:10:39.133267,213
2021-09-24 15:10:39.133274,206
2021-09-24 15:10:39.133280,206
2021-09-24 15:10:39.133286,206
2021-09-24 15:10:39.403020,196
2021-09-24 15:10:39.403042,189
2021-09-24 15:10:39.403051,182
2021-09-24 15:10:39.403058,162
2021-09-24 15:10:39.403064,145
2021-09-24 15:10:39.403071,145
2021-09-24 15:10:39.403077,140
2021-09-24 15:10:39.403084,131
2021-09-24 15:10:39.403090,121
2021-09-24 15:10:39.403097,106
2021-09-24 15:10:39.403104,99
2021-09-24 15:10:39.403110,99
2021-09-24 15:10:39.403117,99
2021-09-24 15:10:39.403123,97
2021-09-24 15:10:39.403129,94
2021-09-24 15:10:39.403136,87
2021-09-24 15:10:39.403142,89
2021-09-24 15:10:39.403149,94
2021-09-24 15:10:39.403155,97
2021-09-24 15:10:39.403162,94
2021-09-24 15:10:39.403168,87
2021-09-24 15:10:39.403175,77
2021-09-24 15:10:39.403181,75
2021-09-24 15:10:39.403188,82
2021-09-24 15:10:39.403194,82
2021-09-24 15:10:39.403201,82
2021-09-24 15:10:39.403207,82
2021-09-24 15:10:39.403214,80
2021-09-24 15:10:39.403220,72
2021-09-24 15:10:39.403227,65
2021-09-24 15:10:39.717429,60
2021-09-24 15:10:39.717461,53
2021-09-24 15:10:39.717473,38
2021-09-24 15:10:39.717483,26
2021-09-24 15:10:39.717494,29
2021-09-24 15:10:39.717504,46
2021-09-24 15:10:39.717514,68
2021-09-24 15:10:39.717524,72
2021-09-24 15:10:39.717534,60
2021-09-24 15:10:39.717543,53
2021-09-24 15:10:39.717554,60
2021-09-24 15:10:39.717564,63
2021-09-24 15:10:39.717573,60
2021-09-24 15:10:39.717584,58
2021-09-24 15:10:39.717593,48
2021-09-24 15:10:39.717604,29
2021-09-24 15:10:39.717614,-4
2021-09-24 15:10:39.717624,-80
2021-09-24 15:10:39.717634,-262
2021-09-24 15:10:39.717644,-478
2021-09-24 15:10:39.717654,-408
2021-09-24 15:10:39.717664,68
2021-09-24 15:10:39.717674,607
2021-09-24 15:10:39.717684,711
2021-09-24 15:10:39.717694,337
2021-09-24 15:10:39.717704,60
2021-09-24 15:10:39.717714,46
2021-09-24 15:10:39.717724,-38
2021-09-24 15:10:39.717734,-131
2021-09-24 15:10:39.717744,-106
2021-09-24 15:10:39.853588,-106
2021-09-24 15:10:39.853609,-153
2021-09-24 15:10:39.853616,-162
2021-09-24 15:10:39.853623,-162
2021-09-24 15:10:39.853630,-179
2021-09-24 15:10:39.853637,-187
2021-09-24 15:10:39.853643,-194
2021-09-24 15:10:39.853650,-216
2021-09-24 15:10:39.853656,-240
2021-09-24 15:10:39.853662,-257
2021-09-24 15:10:39.853669,-272
2021-09-24 15:10:39.853675,-296
2021-09-24 15:10:39.853682,-325
2021-09-24 15:10:39.853688,-359
2021-09-24 15:10:39.853695,-395
2021-09-24 15:10:39.853701,-420
2021-09-24 15:10:39.853708,-432
2021-09-24 15:10:39.853714,-439
2021-09-24 15:10:39.853720,-437
2021-09-24 15:10:39.853727,-417
2021-09-24 15:10:39.853733,-369
2021-09-24 15:10:39.853740,-281
2021-09-24 15:10:39.853746,-167
2021-09-24 15:10:39.853753,-55
2021-09-24 15:10:39.853759,31
2021-09-24 15:10:39.853766,99
2021-09-24 15:10:39.853773,138
2021-09-24 15:10:39.853779,160
2021-09-24 15:10:39.853786,182
2021-09-24 15:10:39.853792,194
2021-09-24 15:10:40.213616,194
2021-09-24 15:10:40.213640,187
2021-09-24 15:10:40.213647,179
2021-09-24 15:10:40.213654,170
2021-09-24 15:10:40.213661,162
2021-09-24 15:10:40.213708,157
2021-09-24 15:10:40.213715,145
2021-09-24 15:10:40.213721,128
2021-09-24 15:10:40.213728,119
2021-09-24 15:10:40.213734,114
2021-09-24 15:10:40.213741,106
2021-09-24 15:10:40.213747,102
2021-09-24 15:10:40.213754,92
2021-09-24 15:10:40.213760,80
2021-09-24 15:10:40.213767,75
2021-09-24 15:10:40.213773,75
2021-09-24 15:10:40.213780,72
2021-09-24 15:10:40.213786,72
2021-09-24 15:10:40.213793,72
2021-09-24 15:10:40.213799,70
2021-09-24 15:10:40.213806,75
2021-09-24 15:10:40.213812,77
2021-09-24 15:10:40.213819,75
2021-09-24 15:10:40.213825,77
2021-09-24 15:10:40.213832,77
2021-09-24 15:10:40.213838,75
2021-09-24 15:10:40.213845,77
2021-09-24 15:10:40.213851,77
2021-09-24 15:10:40.213858,75
2021-09-24 15:10:40.213864,77
2021-09-24 15:10:40.348670,80
2021-09-24 15:10:40.348694,80
2021-09-24 15:10:40.348702,85
2021-09-24 15:10:40.348709,77
2021-09-24 15:10:40.348715,63
2021-09-24 15:10:40.348722,53
2021-09-24 15:10:40.348728,46
2021-09-24 15:10:40.348735,36
2021-09-24 15:10:40.348741,26
2021-09-24 15:10:40.348748,29
2021-09-24 15:10:40.348754,51
2021-09-24 15:10:40.348761,65
2021-09-24 15:10:40.348767,58
2021-09-24 15:10:40.348774,51
2021-09-24 15:10:40.348780,55
2021-09-24 15:10:40.348786,55
2021-09-24 15:10:40.348793,53
2021-09-24 15:10:40.348800,53
2021-09-24 15:10:40.348806,51
2021-09-24 15:10:40.348812,48
2021-09-24 15:10:40.348819,36
2021-09-24 15:10:40.348826,-4
2021-09-24 15:10:40.348832,-104
2021-09-24 15:10:40.348839,-320
2021-09-24 15:10:40.348845,-512
2021-09-24 15:10:40.348852,-332
2021-09-24 15:10:40.348858,223
2021-09-24 15:10:40.348865,694
2021-09-24 15:10:40.348871,634
2021-09-24 15:10:40.348878,223
2021-09-24 15:10:40.528075,36
2021-09-24 15:10:40.528097,21
2021-09-24 15:10:40.528105,-94
2021-09-24 15:10:40.528112,-160
2021-09-24 15:10:40.528118,-119
2021-09-24 15:10:40.528125,-131
2021-09-24 15:10:40.528132,-170
2021-09-24 15:10:40.528138,-174
2021-09-24 15:10:40.528145,-179
2021-09-24 15:10:40.528151,-194
2021-09-24 15:10:40.528158,-206
2021-09-24 15:10:40.528164,-223
2021-09-24 15:10:40.528171,-242
2021-09-24 15:10:40.528177,-255
2021-09-24 15:10:40.528184,-272
2021-09-24 15:10:40.528190,-296
2021-09-24 15:10:40.528197,-325
2021-09-24 15:10:40.528204,-357
2021-09-24 15:10:40.528210,-391
2021-09-24 15:10:40.528217,-410
2021-09-24 15:10:40.528223,-429
2021-09-24 15:10:40.528230,-442
2021-09-24 15:10:40.528236,-444
2021-09-24 15:10:40.528243,-437
2021-09-24 15:10:40.528249,-408
2021-09-24 15:10:40.528256,-342
2021-09-24 15:10:40.528262,-252
2021-09-24 15:10:40.528269,-148
2021-09-24 15:10:40.528275,-43
2021-09-24 15:10:40.528282,41
2021-09-24 15:10:40.798609,109
2021-09-24 15:10:40.798631,157
2021-09-24 15:10:40.798639,184
2021-09-24 15:10:40.798646,196
2021-09-24 15:10:40.798653,199
2021-09-24 15:10:40.798660,194
2021-09-24 15:10:40.798666,191
2021-09-24 15:10:40.798673,191
2021-09-24 15:10:40.798679,177
2021-09-24 15:10:40.798686,162
2021-09-24 15:10:40.798692,148
2021-09-24 15:10:40.798699,136
2021-09-24 15:10:40.798705,128
2021-09-24 15:10:40.798712,123
2021-09-24 15:10:40.798719,116
2021-09-24 15:10:40.798725,104
2021-09-24 15:10:40.798732,97
2021-09-24 15:10:40.798739,92
2021-09-24 15:10:40.798745,89
2021-09-24 15:10:40.798752,89
2021-09-24 15:10:40.798759,87
2021-09-24 15:10:40.798765,85
2021-09-24 15:10:40.798771,82
2021-09-24 15:10:40.798778,82
2021-09-24 15:10:40.798785,82
2021-09-24 15:10:40.798791,87
2021-09-24 15:10:40.798798,89
2021-09-24 15:10:40.798804,87
2021-09-24 15:10:40.798811,85
2021-09-24 15:10:40.798818,87
2021-09-24 15:10:40.978276,92
2021-09-24 15:10:40.978293,94
2021-09-24 15:10:40.978300,89
2021-09-24 15:10:40.978305,85
2021-09-24 15:10:40.978310,75
2021-09-24 15:10:40.978316,77
2021-09-24 15:10:40.978321,85
2021-09-24 15:10:40.978326,77
2021-09-24 15:10:40.978331,58
2021-09-24 15:10:40.978336,51
2021-09-24 15:10:40.978341,43
2021-09-24 15:10:40.978346,29
2021-09-24 15:10:40.978352,24
2021-09-24 15:10:40.978357,24
2021-09-24 15:10:40.978362,31
2021-09-24 15:10:40.978367,43
2021-09-24 15:10:40.978372,51
2021-09-24 15:10:40.978377,51
2021-09-24 15:10:40.978382,53
2021-09-24 15:10:40.978388,55
2021-09-24 15:10:40.978393,55
2021-09-24 15:10:40.978398,51
2021-09-24 15:10:40.978403,48
2021-09-24 15:10:40.978408,51
2021-09-24 15:10:40.978413,48
2021-09-24 15:10:40.978419,26
2021-09-24 15:10:40.978424,-29
2021-09-24 15:10:40.978429,-174
2021-09-24 15:10:40.978434,-415
2021-09-24 15:10:40.978439,-485
2021-09-24 15:10:41.338223,-119
2021-09-24 15:10:41.338243,483
2021-09-24 15:10:41.338252,765
2021-09-24 15:10:41.338259,463
2021-09-24 15:10:41.338265,97
2021-09-24 15:10:41.338272,48
2021-09-24 15:10:41.338278,2
2021-09-24 15:10:41.338285,-116
2021-09-24 15:10:41.338291,-123
2021-09-24 15:10:41.338298,-106
2021-09-24 15:10:41.338304,-143
2021-09-24 15:10:41.338311,-157
2021-09-24 15:10:41.338317,-155
2021-09-24 15:10:41.338324,-177
2021-09-24 15:10:41.338330,-191
2021-09-24 15:10:41.338337,-201
2021-09-24 15:10:41.338343,-213
2021-09-24 15:10:41.338350,-225
2021-09-24 15:10:41.338356,-240
2021-09-24 15:10:41.338363,-259
2021-09-24 15:10:41.338370,-284
2021-09-24 15:10:41.338376,-315
2021-09-24 15:10:41.338383,-340
2021-09-24 15:10:41.338389,-364
2021-09-24 15:10:41.338396,-388
2021-09-24 15:10:41.338402,-403
2021-09-24 15:10:41.338409,-415
2021-09-24 15:10:41.338415,-420
2021-09-24 15:10:41.338422,-403
2021-09-24 15:10:41.338429,-357
2021-09-24 15:10:41.563585,-284
2021-09-24 15:10:41.563606,-187
2021-09-24 15:10:41.563614,-80
2021-09-24 15:10:41.563621,9
2021-09-24 15:10:41.563628,87
2021-09-24 15:10:41.563634,150
2021-09-24 15:10:41.563640,187
2021-09-24 15:10:41.563647,206
2021-09-24 15:10:41.563653,208
2021-09-24 15:10:41.563659,201
2021-09-24 15:10:41.563666,201
2021-09-24 15:10:41.563684,206
2021-09-24 15:10:41.563691,199
2021-09-24 15:10:41.563697,182
2021-09-24 15:10:41.563704,157
2021-09-24 15:10:41.563710,143
2021-09-24 15:10:41.563717,140
2021-09-24 15:10:41.563723,136
2021-09-24 15:10:41.563729,126
2021-09-24 15:10:41.563736,116
2021-09-24 15:10:41.563742,104
2021-09-24 15:10:41.563749,94
2021-09-24 15:10:41.563755,87
2021-09-24 15:10:41.563762,87
2021-09-24 15:10:41.563768,87
2021-09-24 15:10:41.563775,85
2021-09-24 15:10:41.563781,77
2021-09-24 15:10:41.563788,72
2021-09-24 15:10:41.563794,80
2021-09-24 15:10:41.563801,89
2021-09-24 15:10:41.832177,89
2021-09-24 15:10:41.832198,87
2021-09-24 15:10:41.832207,85
2021-09-24 15:10:41.832214,82
2021-09-24 15:10:41.832220,85
2021-09-24 15:10:41.832227,85
2021-09-24 15:10:41.832233,82
2021-09-24 15:10:41.832240,87
2021-09-24 15:10:41.832246,87
2021-09-24 15:10:41.832253,85
2021-09-24 15:10:41.832259,85
2021-09-24 15:10:41.832266,87
2021-09-24 15:10:41.832272,82
2021-09-24 15:10:41.832279,68
2021-09-24 15:10:41.832285,60
2021-09-24 15:10:41.832292,53
2021-09-24 15:10:41.832299,38
2021-09-24 15:10:41.832305,26
2021-09-24 15:10:41.832312,38
2021-09-24 15:10:41.832318,51
2021-09-24 15:10:41.832325,51
2021-09-24 15:10:41.832331,51
2021-09-24 15:10:41.832338,55
2021-09-24 15:10:41.832344,58
2021-09-24 15:10:41.832351,58
2021-09-24 15:10:41.832357,53
2021-09-24 15:10:41.832364,48
2021-09-24 15:10:41.832370,48
2021-09-24 15:10:41.832377,41
2021-09-24 15:10:41.832383,9
2021-09-24 15:10:41.923215,-51
2021-09-24 15:10:41.923244,-216
2021-09-24 15:10:41.923253,-463
2021-09-24 15:10:41.923260,-490
2021-09-24 15:10:41.923267,-68
2021-09-24 15:10:41.923273,534
2021-09-24 15:10:41.923280,714
2021-09-24 15:10:41.923287,349
2021-09-24 15:10:41.923294,60
2021-09-24 15:10:41.923301,60
2021-09-24 15:10:41.923308,-12
2021-09-24 15:10:41.923314,-126
2021-09-24 15:10:41.923321,-116
2021-09-24 15:10:41.923327,-106
2021-09-24 15:10:41.923334,-145
2021-09-24 15:10:41.923342,-157
2021-09-24 15:10:41.923349,-148
2021-09-24 15:10:41.923356,-160
2021-09-24 15:10:41.923363,-179
2021-09-24 15:10:41.923370,-204
2021-09-24 15:10:41.923377,-233
2021-09-24 15:10:41.923384,-250
2021-09-24 15:10:41.923391,-259
2021-09-24 15:10:41.923398,-276
2021-09-24 15:10:41.923404,-306
2021-09-24 15:10:41.923411,-340
2021-09-24 15:10:41.923417,-369
2021-09-24 15:10:41.923424,-395
2021-09-24 15:10:41.923430,-422
2021-09-24 15:10:41.923437,-439
2021-09-24 15:10:42.147956,-444
2021-09-24 15:10:42.147974,-434
2021-09-24 15:10:42.147980,-410
2021-09-24 15:10:42.147986,-359
2021-09-24 15:10:42.147991,-274
2021-09-24 15:10:42.147996,-172
2021-09-24 15:10:42.148001,-77
2021-09-24 15:10:42.148006,9
2021-09-24 15:10:42.148011,85
2021-09-24 15:10:42.148016,133
2021-09-24 15:10:42.148021,165
2021-09-24 15:10:42.148026,184
2021-09-24 15:10:42.148032,187
2021-09-24 15:10:42.148037,187
2021-09-24 15:10:42.148042,189
2021-09-24 15:10:42.148047,187
2021-09-24 15:10:42.148052,179
2021-09-24 15:10:42.148057,172
2021-09-24 15:10:42.148062,160
2021-09-24 15:10:42.148067,150
2021-09-24 15:10:42.148072,138
2021-09-24 15:10:42.148077,119
2021-09-24 15:10:42.148082,106
2021-09-24 15:10:42.148088,106
2021-09-24 15:10:42.148093,102
2021-09-24 15:10:42.148098,94
2021-09-24 15:10:42.148103,89
2021-09-24 15:10:42.148108,85
2021-09-24 15:10:42.148113,85
2021-09-24 15:10:42.148118,85
2021-09-24 15:10:42.418629,82
2021-09-24 15:10:42.418661,82
2021-09-24 15:10:42.418672,82
2021-09-24 15:10:42.418683,85
2021-09-24 15:10:42.418693,89
2021-09-24 15:10:42.418703,87
2021-09-24 15:10:42.418713,75
2021-09-24 15:10:42.418723,77
2021-09-24 15:10:42.418733,82
2021-09-24 15:10:42.418743,80
2021-09-24 15:10:42.418754,80
2021-09-24 15:10:42.418764,80
2021-09-24 15:10:42.418774,72
2021-09-24 15:10:42.418784,70
2021-09-24 15:10:42.418794,70
2021-09-24 15:10:42.418804,60
2021-09-24 15:10:42.418814,48
2021-09-24 15:10:42.418824,34
2021-09-24 15:10:42.418834,31
2021-09-24 15:10:42.418844,46
2021-09-24 15:10:42.418855,65
2021-09-24 15:10:42.418865,72
2021-09-24 15:10:42.418875,70
2021-09-24 15:10:42.418885,68
2021-09-24 15:10:42.418895,65
2021-09-24 15:10:42.418905,60
2021-09-24 15:10:42.418915,51
2021-09-24 15:10:42.418925,43
2021-09-24 15:10:42.418935,46
2021-09-24 15:10:42.418945,36
2021-09-24 15:10:42.598656,2
2021-09-24 15:10:42.598687,-51
2021-09-24 15:10:42.598699,-179
2021-09-24 15:10:42.598710,-405
2021-09-24 15:10:42.598720,-480
2021-09-24 15:10:42.598730,-143
2021-09-24 15:10:42.598740,442
2021-09-24 15:10:42.598750,706
2021-09-24 15:10:42.598760,410
2021-09-24 15:10:42.598770,99
2021-09-24 15:10:42.598780,77
2021-09-24 15:10:42.598790,21
2021-09-24 15:10:42.598800,-104
2021-09-24 15:10:42.598811,-116
2021-09-24 15:10:42.598821,-102
2021-09-24 15:10:42.598831,-136
2021-09-24 15:10:42.598841,-153
2021-09-24 15:10:42.598851,-150
2021-09-24 15:10:42.598861,-162
2021-09-24 15:10:42.598871,-174
2021-09-24 15:10:42.598881,-184
2021-09-24 15:10:42.598891,-201
2021-09-24 15:10:42.598900,-218
2021-09-24 15:10:42.598910,-235
2021-09-24 15:10:42.598921,-257
2021-09-24 15:10:42.598931,-284
2021-09-24 15:10:42.598941,-310
2021-09-24 15:10:42.598951,-340
2021-09-24 15:10:42.598996,-366
2021-09-24 15:10:42.599006,-388
2021-09-24 15:10:42.823380,-400
2021-09-24 15:10:42.823403,-403
2021-09-24 15:10:42.823411,-400
2021-09-24 15:10:42.823418,-383
2021-09-24 15:10:42.823424,-335
2021-09-24 15:10:42.823431,-250
2021-09-24 15:10:42.823437,-148
2021-09-24 15:10:42.823444,-41
2021-09-24 15:10:42.823450,46
2021-09-24 15:10:42.823457,104
2021-09-24 15:10:42.823463,145
2021-09-24 15:10:42.823470,177
2021-09-24 15:10:42.823476,196
2021-09-24 15:10:42.823483,206
2021-09-24 15:10:42.823489,208
2021-09-24 15:10:42.823496,201
2021-09-24 15:10:42.823502,196
2021-09-24 15:10:42.823509,194
2021-09-24 15:10:42.823515,189
2021-09-24 15:10:42.823521,179
2021-09-24 15:10:42.823528,170
2021-09-24 15:10:42.823535,157
2021-09-24 15:10:42.823541,145
2021-09-24 15:10:42.823547,140
2021-09-24 15:10:42.823554,136
2021-09-24 15:10:42.823560,126
2021-09-24 15:10:42.823567,116
2021-09-24 15:10:42.823573,102
2021-09-24 15:10:42.823580,92
2021-09-24 15:10:42.823586,94
2021-09-24 15:10:43.093521,92
2021-09-24 15:10:43.093543,80
2021-09-24 15:10:43.093550,75
2021-09-24 15:10:43.093557,72
2021-09-24 15:10:43.093564,68
2021-09-24 15:10:43.093570,75
2021-09-24 15:10:43.093577,82
2021-09-24 15:10:43.093583,82
2021-09-24 15:10:43.093589,82
2021-09-24 15:10:43.093596,72
2021-09-24 15:10:43.093603,65
2021-09-24 15:10:43.093609,75
2021-09-24 15:10:43.093615,85
2021-09-24 15:10:43.093622,85
2021-09-24 15:10:43.093628,77
2021-09-24 15:10:43.093635,70
2021-09-24 15:10:43.093641,63
2021-09-24 15:10:43.093648,58
2021-09-24 15:10:43.093654,51
2021-09-24 15:10:43.093661,43
2021-09-24 15:10:43.093667,53
2021-09-24 15:10:43.093674,70
2021-09-24 15:10:43.093680,85
2021-09-24 15:10:43.093687,87
2021-09-24 15:10:43.093693,82
2021-09-24 15:10:43.093700,87
2021-09-24 15:10:43.093706,87
2021-09-24 15:10:43.093713,80
2021-09-24 15:10:43.093719,75
2021-09-24 15:10:43.093726,70
2021-09-24 15:10:43.319139,58
2021-09-24 15:10:43.319162,26
2021-09-24 15:10:43.319170,-43
2021-09-24 15:10:43.319177,-182
2021-09-24 15:10:43.319184,-383
2021-09-24 15:10:43.319190,-410
2021-09-24 15:10:43.319197,-43
2021-09-24 15:10:43.319203,510
2021-09-24 15:10:43.319301,774
2021-09-24 15:10:43.319309,507
2021-09-24 15:10:43.319316,143
2021-09-24 15:10:43.319323,68
2021-09-24 15:10:43.319329,21
2021-09-24 15:10:43.319335,-99
2021-09-24 15:10:43.319342,-121
2021-09-24 15:10:43.319348,-99
2021-09-24 15:10:43.319355,-126
2021-09-24 15:10:43.319361,-145
2021-09-24 15:10:43.319368,-143
2021-09-24 15:10:43.319374,-153
2021-09-24 15:10:43.319380,-172
2021-09-24 15:10:43.319387,-184
2021-09-24 15:10:43.319393,-191
2021-09-24 15:10:43.319400,-206
2021-09-24 15:10:43.319406,-223
2021-09-24 15:10:43.319413,-240
2021-09-24 15:10:43.319419,-264
2021-09-24 15:10:43.319426,-296
2021-09-24 15:10:43.319432,-320
2021-09-24 15:10:43.319439,-342
2021-09-24 15:10:43.587971,-371
2021-09-24 15:10:43.588000,-395
2021-09-24 15:10:43.588012,-412
2021-09-24 15:10:43.588023,-412
2021-09-24 15:10:43.588033,-391
2021-09-24 15:10:43.588043,-349
2021-09-24 15:10:43.588053,-284
2021-09-24 15:10:43.588064,-196
2021-09-24 15:10:43.588074,-102
2021-09-24 15:10:43.588084,-4
2021-09-24 15:10:43.588094,80
2021-09-24 15:10:43.588104,138
2021-09-24 15:10:43.588114,172
2021-09-24 15:10:43.588124,187
2021-09-24 15:10:43.588135,189
2021-09-24 15:10:43.588145,194
2021-09-24 15:10:43.588155,196
2021-09-24 15:10:43.588165,194
2021-09-24 15:10:43.588175,187
2021-09-24 15:10:43.588185,179
2021-09-24 15:10:43.588195,170
2021-09-24 15:10:43.588205,157
2021-09-24 15:10:43.588215,153
2021-09-24 15:10:43.588225,143
2021-09-24 15:10:43.588235,138
2021-09-24 15:10:43.588245,128
2021-09-24 15:10:43.588256,119
2021-09-24 15:10:43.588266,111
2021-09-24 15:10:43.588276,106
2021-09-24 15:10:43.588286,104
2021-09-24 15:10:43.857404,102
2021-09-24 15:10:43.857426,97
2021-09-24 15:10:43.857434,87
2021-09-24 15:10:43.857440,80
2021-09-24 15:10:43.857447,77
2021-09-24 15:10:43.857453,82
2021-09-24 15:10:43.857460,85
2021-09-24 15:10:43.857466,82
2021-09-24 15:10:43.857473,80
2021-09-24 15:10:43.857479,80
2021-09-24 15:10:43.857486,80
2021-09-24 15:10:43.857492,80
2021-09-24 15:10:43.857499,75
2021-09-24 15:10:43.857505,72
2021-09-24 15:10:43.857512,75
2021-09-24 15:10:43.857518,70
2021-09-24 15:10:43.857524,60
2021-09-24 15:10:43.857531,63
2021-09-24 15:10:43.857537,65
2021-09-24 15:10:43.857544,51
2021-09-24 15:10:43.857550,34
2021-09-24 15:10:43.857557,34
2021-09-24 15:10:43.857563,46
2021-09-24 15:10:43.857570,70
2021-09-24 15:10:43.857576,75
2021-09-24 15:10:43.857583,65
2021-09-24 15:10:43.857589,65
2021-09-24 15:10:43.857596,68
2021-09-24 15:10:43.857602,70
2021-09-24 15:10:43.857609,77
2021-09-24 15:10:43.992823,87
2021-09-24 15:10:43.992838,87
2021-09-24 15:10:43.992843,63
2021-09-24 15:10:43.992847,12
2021-09-24 15:10:43.992852,-77
2021-09-24 15:10:43.992856,-259
2021-09-24 15:10:43.992860,-478
2021-09-24 15:10:43.992864,-420
2021-09-24 15:10:43.992868,53
2021-09-24 15:10:43.992872,607
2021-09-24 15:10:43.992876,723
2021-09-24 15:10:43.992880,349
2021-09-24 15:10:43.992885,65
2021-09-24 15:10:43.992889,41
2021-09-24 15:10:43.992893,-48
2021-09-24 15:10:43.992897,-143
2021-09-24 15:10:43.992901,-116
2021-09-24 15:10:43.992905,-109
2021-09-24 15:10:43.992909,-153
2021-09-24 15:10:43.992913,-160
2021-09-24 15:10:43.992917,-153
2021-09-24 15:10:43.992922,-172
2021-09-24 15:10:43.992926,-191
2021-09-24 15:10:43.992930,-201
2021-09-24 15:10:43.992934,-213
2021-09-24 15:10:43.992938,-230
2021-09-24 15:10:43.992942,-247
2021-09-24 15:10:43.992946,-267
2021-09-24 15:10:43.992950,-293
2021-09-24 15:10:43.992954,-320
2021-09-24 15:10:44.219136,-352
2021-09-24 15:10:44.219159,-378
2021-09-24 15:10:44.219167,-398
2021-09-24 15:10:44.219174,-415
2021-09-24 15:10:44.219180,-420
2021-09-24 15:10:44.219187,-412
2021-09-24 15:10:44.219193,-395
2021-09-24 15:10:44.219200,-352
2021-09-24 15:10:44.219206,-272
2021-09-24 15:10:44.219212,-167
2021-09-24 15:10:44.219219,-63
2021-09-24 15:10:44.219225,14
2021-09-24 15:10:44.219263,82
2021-09-24 15:10:44.219269,138
2021-09-24 15:10:44.219276,172
2021-09-24 15:10:44.219282,184
2021-09-24 15:10:44.219289,194
2021-09-24 15:10:44.219295,196
