Time,ECG
2021-09-24 15:15:15.876508,109
2021-09-24 15:15:15.876523,99
2021-09-24 15:15:15.876529,87
2021-09-24 15:15:15.876534,77
2021-09-24 15:15:15.876538,75
2021-09-24 15:15:15.876543,75
2021-09-24 15:15:15.876547,72
2021-09-24 15:15:15.876552,72
2021-09-24 15:15:15.876556,70
2021-09-24 15:15:15.876575,58
2021-09-24 15:15:15.876579,58
2021-09-24 15:15:15.876583,68
2021-09-24 15:15:15.876587,68
2021-09-24 15:15:15.876591,65
2021-09-24 15:15:15.876596,63
2021-09-24 15:15:15.876600,55
2021-09-24 15:15:15.876604,55
2021-09-24 15:15:15.876608,65
2021-09-24 15:15:15.876613,63
2021-09-24 15:15:15.876617,53
2021-09-24 15:15:15.876621,31
2021-09-24 15:15:15.876625,12
2021-09-24 15:15:15.876629,14
2021-09-24 15:15:15.876633,12
2021-09-24 15:15:15.876638,-4
2021-09-24 15:15:15.876642,-2
2021-09-24 15:15:15.876647,21
2021-09-24 15:15:15.876651,31
2021-09-24 15:15:15.876655,34
2021-09-24 15:15:15.876659,34
2021-09-24 15:15:16.022172,36
2021-09-24 15:15:16.022193,38
2021-09-24 15:15:16.022201,38
2021-09-24 15:15:16.022208,34
2021-09-24 15:15:16.022214,34
2021-09-24 15:15:16.022221,34
2021-09-24 15:15:16.022229,9
2021-09-24 15:15:16.022235,-46
2021-09-24 15:15:16.022242,-177
2021-09-24 15:15:16.022249,-403
2021-09-24 15:15:16.022255,-500
2021-09-24 15:15:16.022262,-233
2021-09-24 15:15:16.022268,279
2021-09-24 15:15:16.022275,641
2021-09-24 15:15:16.022282,502
2021-09-24 15:15:16.022288,143
2021-09-24 15:15:16.022295,48
2021-09-24 15:15:16.022302,41
2021-09-24 15:15:16.022309,-77
2021-09-24 15:15:16.022315,-116
2021-09-24 15:15:16.022322,-85
2021-09-24 15:15:16.022328,-109
2021-09-24 15:15:16.022335,-133
2021-09-24 15:15:16.022341,-123
2021-09-24 15:15:16.022348,-131
2021-09-24 15:15:16.022355,-145
2021-09-24 15:15:16.022361,-155
2021-09-24 15:15:16.022368,-170
2021-09-24 15:15:16.022374,-184
2021-09-24 15:15:16.022383,-194
2021-09-24 15:15:16.202359,-208
2021-09-24 15:15:16.202381,-230
2021-09-24 15:15:16.202389,-257
2021-09-24 15:15:16.202395,-286
2021-09-24 15:15:16.202402,-310
2021-09-24 15:15:16.202408,-335
2021-09-24 15:15:16.202415,-364
2021-09-24 15:15:16.202421,-393
2021-09-24 15:15:16.202428,-410
2021-09-24 15:15:16.202434,-403
2021-09-24 15:15:16.202441,-378
2021-09-24 15:15:16.202447,-342
2021-09-24 15:15:16.202454,-276
2021-09-24 15:15:16.202465,-191
2021-09-24 15:15:16.202471,-94
2021-09-24 15:15:16.202478,2
2021-09-24 15:15:16.202484,85
2021-09-24 15:15:16.202491,148
2021-09-24 15:15:16.202497,194
2021-09-24 15:15:16.202504,213
2021-09-24 15:15:16.202510,218
2021-09-24 15:15:16.202517,225
2021-09-24 15:15:16.202523,228
2021-09-24 15:15:16.202529,225
2021-09-24 15:15:16.202536,218
2021-09-24 15:15:16.202542,208
2021-09-24 15:15:16.202549,199
2021-09-24 15:15:16.202555,189
2021-09-24 15:15:16.202562,174
2021-09-24 15:15:16.202569,162
2021-09-24 15:15:16.472501,155
2021-09-24 15:15:16.472525,143
2021-09-24 15:15:16.472533,133
2021-09-24 15:15:16.472541,126
2021-09-24 15:15:16.472548,121
2021-09-24 15:15:16.472555,121
2021-09-24 15:15:16.472561,114
2021-09-24 15:15:16.472568,102
2021-09-24 15:15:16.472575,99
2021-09-24 15:15:16.472582,104
2021-09-24 15:15:16.472589,104
2021-09-24 15:15:16.472596,102
2021-09-24 15:15:16.472603,97
2021-09-24 15:15:16.472610,92
2021-09-24 15:15:16.472617,92
2021-09-24 15:15:16.472624,94
2021-09-24 15:15:16.472631,94
2021-09-24 15:15:16.472643,94
2021-09-24 15:15:16.472650,94
2021-09-24 15:15:16.472658,87
2021-09-24 15:15:16.472665,82
2021-09-24 15:15:16.472672,80
2021-09-24 15:15:16.472678,77
2021-09-24 15:15:16.472685,80
2021-09-24 15:15:16.472692,77
2021-09-24 15:15:16.472699,75
2021-09-24 15:15:16.472706,72
2021-09-24 15:15:16.472713,72
2021-09-24 15:15:16.472720,72
2021-09-24 15:15:16.472727,70
2021-09-24 15:15:16.652391,65
2021-09-24 15:15:16.652416,63
2021-09-24 15:15:16.652424,65
2021-09-24 15:15:16.652431,58
2021-09-24 15:15:16.652437,38
2021-09-24 15:15:16.652444,19
2021-09-24 15:15:16.652450,12
2021-09-24 15:15:16.652462,9
2021-09-24 15:15:16.652469,0
2021-09-24 15:15:16.652476,2
2021-09-24 15:15:16.652483,24
2021-09-24 15:15:16.652489,43
2021-09-24 15:15:16.652496,41
2021-09-24 15:15:16.652502,26
2021-09-24 15:15:16.652509,24
2021-09-24 15:15:16.652515,29
2021-09-24 15:15:16.652522,31
2021-09-24 15:15:16.652528,24
2021-09-24 15:15:16.652535,17
2021-09-24 15:15:16.652541,14
2021-09-24 15:15:16.652548,-2
2021-09-24 15:15:16.652554,-48
2021-09-24 15:15:16.652561,-153
2021-09-24 15:15:16.652567,-359
2021-09-24 15:15:16.652574,-502
2021-09-24 15:15:16.652580,-293
2021-09-24 15:15:16.652587,208
2021-09-24 15:15:16.652594,619
2021-09-24 15:15:16.652600,558
2021-09-24 15:15:16.652607,199
2021-09-24 15:15:16.967364,51
2021-09-24 15:15:16.967384,43
2021-09-24 15:15:16.967392,-70
2021-09-24 15:15:16.967398,-133
2021-09-24 15:15:16.967405,-99
2021-09-24 15:15:16.967411,-114
2021-09-24 15:15:16.967418,-150
2021-09-24 15:15:16.967425,-143
2021-09-24 15:15:16.967431,-143
2021-09-24 15:15:16.967438,-162
2021-09-24 15:15:16.967444,-170
2021-09-24 15:15:16.967451,-182
2021-09-24 15:15:16.967457,-199
2021-09-24 15:15:16.967464,-208
2021-09-24 15:15:16.967470,-221
2021-09-24 15:15:16.967477,-240
2021-09-24 15:15:16.967483,-264
2021-09-24 15:15:16.967490,-286
2021-09-24 15:15:16.967496,-313
2021-09-24 15:15:16.967502,-342
2021-09-24 15:15:16.967509,-366
2021-09-24 15:15:16.967515,-386
2021-09-24 15:15:16.967522,-395
2021-09-24 15:15:16.967528,-393
2021-09-24 15:15:16.967539,-376
2021-09-24 15:15:16.967546,-342
2021-09-24 15:15:16.967553,-284
2021-09-24 15:15:16.967559,-199
2021-09-24 15:15:16.967566,-94
2021-09-24 15:15:16.967572,0
2021-09-24 15:15:17.102100,80
2021-09-24 15:15:17.102123,145
2021-09-24 15:15:17.102130,191
2021-09-24 15:15:17.102137,216
2021-09-24 15:15:17.102144,225
2021-09-24 15:15:17.102150,230
2021-09-24 15:15:17.102157,233
2021-09-24 15:15:17.102163,233
2021-09-24 15:15:17.102170,225
2021-09-24 15:15:17.102177,216
2021-09-24 15:15:17.102183,204
2021-09-24 15:15:17.102190,196
2021-09-24 15:15:17.102196,187
2021-09-24 15:15:17.102203,177
2021-09-24 15:15:17.102209,167
2021-09-24 15:15:17.102215,157
2021-09-24 15:15:17.102222,143
2021-09-24 15:15:17.102228,126
2021-09-24 15:15:17.102235,119
2021-09-24 15:15:17.102241,106
2021-09-24 15:15:17.102248,97
2021-09-24 15:15:17.102255,94
2021-09-24 15:15:17.102263,87
2021-09-24 15:15:17.102270,82
2021-09-24 15:15:17.102276,87
2021-09-24 15:15:17.102283,89
2021-09-24 15:15:17.102290,89
2021-09-24 15:15:17.102296,87
2021-09-24 15:15:17.102302,87
2021-09-24 15:15:17.102309,89
2021-09-24 15:15:17.372345,92
2021-09-24 15:15:17.372366,94
2021-09-24 15:15:17.372374,87
2021-09-24 15:15:17.372380,77
2021-09-24 15:15:17.372387,70
2021-09-24 15:15:17.372394,68
2021-09-24 15:15:17.372400,68
2021-09-24 15:15:17.372407,60
2021-09-24 15:15:17.372413,60
2021-09-24 15:15:17.372420,58
2021-09-24 15:15:17.372426,48
2021-09-24 15:15:17.372433,48
2021-09-24 15:15:17.372440,60
2021-09-24 15:15:17.372446,60
2021-09-24 15:15:17.372453,43
2021-09-24 15:15:17.372459,19
2021-09-24 15:15:17.372466,9
2021-09-24 15:15:17.372473,17
2021-09-24 15:15:17.372479,12
2021-09-24 15:15:17.372486,4
2021-09-24 15:15:17.372492,14
2021-09-24 15:15:17.372499,26
2021-09-24 15:15:17.372505,34
2021-09-24 15:15:17.372512,41
2021-09-24 15:15:17.372523,43
2021-09-24 15:15:17.372530,43
2021-09-24 15:15:17.372537,43
2021-09-24 15:15:17.372543,38
2021-09-24 15:15:17.372550,34
2021-09-24 15:15:17.372556,38
2021-09-24 15:15:17.775950,34
2021-09-24 15:15:17.775973,2
2021-09-24 15:15:17.775981,-68
2021-09-24 15:15:17.775988,-240
2021-09-24 15:15:17.775995,-473
2021-09-24 15:15:17.776002,-473
2021-09-24 15:15:17.776008,-89
2021-09-24 15:15:17.776015,446
2021-09-24 15:15:17.776021,663
2021-09-24 15:15:17.776028,371
2021-09-24 15:15:17.776035,77
2021-09-24 15:15:17.776041,60
2021-09-24 15:15:17.776048,2
2021-09-24 15:15:17.776055,-109
2021-09-24 15:15:17.776061,-109
2021-09-24 15:15:17.776068,-97
2021-09-24 15:15:17.776074,-133
2021-09-24 15:15:17.776081,-138
2021-09-24 15:15:17.776087,-131
2021-09-24 15:15:17.776094,-143
2021-09-24 15:15:17.776100,-157
2021-09-24 15:15:17.776107,-167
2021-09-24 15:15:17.776113,-179
2021-09-24 15:15:17.776120,-194
2021-09-24 15:15:17.776126,-216
2021-09-24 15:15:17.776133,-242
2021-09-24 15:15:17.776139,-259
2021-09-24 15:15:17.776146,-281
2021-09-24 15:15:17.776153,-308
2021-09-24 15:15:17.776159,-335
2021-09-24 15:15:17.866915,-359
2021-09-24 15:15:17.866940,-378
2021-09-24 15:15:17.866948,-398
2021-09-24 15:15:17.866955,-405
2021-09-24 15:15:17.866962,-393
2021-09-24 15:15:17.866969,-364
2021-09-24 15:15:17.866976,-315
2021-09-24 15:15:17.866983,-242
2021-09-24 15:15:17.866990,-150
2021-09-24 15:15:17.866997,-58
2021-09-24 15:15:17.867004,29
2021-09-24 15:15:17.867010,99
2021-09-24 15:15:17.867017,157
2021-09-24 15:15:17.867024,201
2021-09-24 15:15:17.867031,218
2021-09-24 15:15:17.867038,221
2021-09-24 15:15:17.867045,228
2021-09-24 15:15:17.867051,233
2021-09-24 15:15:17.867058,223
2021-09-24 15:15:17.867065,211
2021-09-24 15:15:17.867072,196
2021-09-24 15:15:17.867079,179
2021-09-24 15:15:17.867085,170
2021-09-24 15:15:17.867092,165
2021-09-24 15:15:17.867099,157
2021-09-24 15:15:17.867106,148
2021-09-24 15:15:17.867113,138
2021-09-24 15:15:17.867120,131
2021-09-24 15:15:17.867126,126
2021-09-24 15:15:17.867133,123
2021-09-24 15:15:18.181904,119
2021-09-24 15:15:18.181927,114
2021-09-24 15:15:18.181935,109
2021-09-24 15:15:18.181942,106
2021-09-24 15:15:18.181948,111
2021-09-24 15:15:18.181955,114
2021-09-24 15:15:18.181962,114
2021-09-24 15:15:18.181968,109
2021-09-24 15:15:18.181975,102
2021-09-24 15:15:18.181981,99
2021-09-24 15:15:18.181991,104
2021-09-24 15:15:18.181998,104
2021-09-24 15:15:18.182004,97
2021-09-24 15:15:18.182011,85
2021-09-24 15:15:18.182017,70
2021-09-24 15:15:18.182024,65
2021-09-24 15:15:18.182031,72
2021-09-24 15:15:18.182037,75
2021-09-24 15:15:18.182044,65
2021-09-24 15:15:18.182050,55
2021-09-24 15:15:18.182057,58
2021-09-24 15:15:18.182063,65
2021-09-24 15:15:18.182070,63
2021-09-24 15:15:18.182076,51
2021-09-24 15:15:18.182083,34
2021-09-24 15:15:18.182089,24
2021-09-24 15:15:18.182096,24
2021-09-24 15:15:18.182102,19
2021-09-24 15:15:18.182109,17
2021-09-24 15:15:18.182115,34
2021-09-24 15:15:18.272176,41
2021-09-24 15:15:18.272199,34
2021-09-24 15:15:18.272206,29
2021-09-24 15:15:18.272213,26
2021-09-24 15:15:18.272220,26
2021-09-24 15:15:18.272227,31
2021-09-24 15:15:18.272233,31
2021-09-24 15:15:18.272240,21
2021-09-24 15:15:18.272246,19
2021-09-24 15:15:18.272253,14
2021-09-24 15:15:18.272260,-17
2021-09-24 15:15:18.272266,-89
2021-09-24 15:15:18.272273,-269
2021-09-24 15:15:18.272280,-490
2021-09-24 15:15:18.272286,-466
2021-09-24 15:15:18.272293,-55
2021-09-24 15:15:18.272299,480
2021-09-24 15:15:18.272306,612
2021-09-24 15:15:18.272312,267
2021-09-24 15:15:18.272319,41
2021-09-24 15:15:18.272326,55
2021-09-24 15:15:18.272332,-26
2021-09-24 15:15:18.272339,-123
2021-09-24 15:15:18.272346,-106
2021-09-24 15:15:18.272352,-104
2021-09-24 15:15:18.272364,-143
2021-09-24 15:15:18.272371,-150
2021-09-24 15:15:18.272378,-143
2021-09-24 15:15:18.272384,-157
2021-09-24 15:15:18.272391,-170
2021-09-24 15:15:18.542402,-179
2021-09-24 15:15:18.542426,-189
2021-09-24 15:15:18.542434,-201
2021-09-24 15:15:18.542440,-218
2021-09-24 15:15:18.542447,-240
2021-09-24 15:15:18.542454,-259
2021-09-24 15:15:18.542460,-291
2021-09-24 15:15:18.542467,-327
2021-09-24 15:15:18.542473,-349
2021-09-24 15:15:18.542480,-369
2021-09-24 15:15:18.542487,-388
2021-09-24 15:15:18.542493,-400
2021-09-24 15:15:18.542500,-403
2021-09-24 15:15:18.542507,-388
2021-09-24 15:15:18.542513,-359
2021-09-24 15:15:18.542520,-306
2021-09-24 15:15:18.542526,-223
2021-09-24 15:15:18.542533,-131
2021-09-24 15:15:18.542540,-38
2021-09-24 15:15:18.542546,51
2021-09-24 15:15:18.542553,119
2021-09-24 15:15:18.542559,160
2021-09-24 15:15:18.542566,196
2021-09-24 15:15:18.542573,213
2021-09-24 15:15:18.542579,218
2021-09-24 15:15:18.542586,223
2021-09-24 15:15:18.542592,223
2021-09-24 15:15:18.542599,216
2021-09-24 15:15:18.542605,204
2021-09-24 15:15:18.542612,199
2021-09-24 15:15:18.722504,189
2021-09-24 15:15:18.722527,174
2021-09-24 15:15:18.722534,165
2021-09-24 15:15:18.722540,157
2021-09-24 15:15:18.722546,148
2021-09-24 15:15:18.722552,138
2021-09-24 15:15:18.722558,123
2021-09-24 15:15:18.722564,106
2021-09-24 15:15:18.722570,102
2021-09-24 15:15:18.722576,102
2021-09-24 15:15:18.722582,97
2021-09-24 15:15:18.722588,92
2021-09-24 15:15:18.722597,92
2021-09-24 15:15:18.722603,99
2021-09-24 15:15:18.722609,102
2021-09-24 15:15:18.722615,97
2021-09-24 15:15:18.722624,97
2021-09-24 15:15:18.722630,92
2021-09-24 15:15:18.722636,85
2021-09-24 15:15:18.722642,82
2021-09-24 15:15:18.722648,85
2021-09-24 15:15:18.722654,82
2021-09-24 15:15:18.722660,75
2021-09-24 15:15:18.722666,75
2021-09-24 15:15:18.722672,77
2021-09-24 15:15:18.722678,80
2021-09-24 15:15:18.722684,77
2021-09-24 15:15:18.722690,68
2021-09-24 15:15:18.722696,68
2021-09-24 15:15:18.722702,70
2021-09-24 15:15:18.947434,63
2021-09-24 15:15:18.947458,51
2021-09-24 15:15:18.947467,38
2021-09-24 15:15:18.947473,31
2021-09-24 15:15:18.947480,26
2021-09-24 15:15:18.947487,17
2021-09-24 15:15:18.947493,14
2021-09-24 15:15:18.947500,34
2021-09-24 15:15:18.947507,51
2021-09-24 15:15:18.947513,55
2021-09-24 15:15:18.947520,55
2021-09-24 15:15:18.947526,48
2021-09-24 15:15:18.947533,41
2021-09-24 15:15:18.947539,41
2021-09-24 15:15:18.947546,41
2021-09-24 15:15:18.947555,31
2021-09-24 15:15:18.947561,24
2021-09-24 15:15:18.947568,17
2021-09-24 15:15:18.947574,-14
2021-09-24 15:15:18.947581,-89
2021-09-24 15:15:18.947587,-272
2021-09-24 15:15:18.947594,-493
2021-09-24 15:15:18.947600,-459
2021-09-24 15:15:18.947607,-38
2021-09-24 15:15:18.947614,488
2021-09-24 15:15:18.947620,612
2021-09-24 15:15:18.947626,272
2021-09-24 15:15:18.947633,55
2021-09-24 15:15:18.947639,72
2021-09-24 15:15:18.947646,-17
2021-09-24 15:15:19.217474,-121
2021-09-24 15:15:19.217497,-99
2021-09-24 15:15:19.217505,-87
2021-09-24 15:15:19.217512,-128
2021-09-24 15:15:19.217518,-145
2021-09-24 15:15:19.217525,-145
2021-09-24 15:15:19.217531,-155
2021-09-24 15:15:19.217538,-160
2021-09-24 15:15:19.217544,-170
2021-09-24 15:15:19.217551,-189
2021-09-24 15:15:19.217557,-211
2021-09-24 15:15:19.217564,-230
2021-09-24 15:15:19.217570,-255
2021-09-24 15:15:19.217580,-281
2021-09-24 15:15:19.217586,-301
2021-09-24 15:15:19.217593,-327
2021-09-24 15:15:19.217599,-357
2021-09-24 15:15:19.217606,-376
2021-09-24 15:15:19.217612,-391
2021-09-24 15:15:19.217619,-398
2021-09-24 15:15:19.217626,-398
2021-09-24 15:15:19.217632,-386
2021-09-24 15:15:19.217639,-357
2021-09-24 15:15:19.217645,-306
2021-09-24 15:15:19.217652,-221
2021-09-24 15:15:19.217658,-116
2021-09-24 15:15:19.217664,-21
2021-09-24 15:15:19.217671,55
2021-09-24 15:15:19.217678,119
2021-09-24 15:15:19.217684,170
2021-09-24 15:15:19.442355,206
2021-09-24 15:15:19.442377,221
2021-09-24 15:15:19.442385,225
2021-09-24 15:15:19.442391,225
2021-09-24 15:15:19.442398,221
2021-09-24 15:15:19.442405,221
2021-09-24 15:15:19.442411,216
2021-09-24 15:15:19.442418,204
2021-09-24 15:15:19.442424,191
2021-09-24 15:15:19.442431,170
2021-09-24 15:15:19.442437,153
2021-09-24 15:15:19.442444,153
2021-09-24 15:15:19.442450,148
2021-09-24 15:15:19.442457,136
2021-09-24 15:15:19.442463,128
2021-09-24 15:15:19.442470,114
2021-09-24 15:15:19.442476,102
2021-09-24 15:15:19.442482,104
2021-09-24 15:15:19.442489,106
2021-09-24 15:15:19.442495,102
2021-09-24 15:15:19.442502,102
2021-09-24 15:15:19.442508,99
2021-09-24 15:15:19.442515,99
2021-09-24 15:15:19.442521,104
2021-09-24 15:15:19.442528,104
2021-09-24 15:15:19.442534,97
2021-09-24 15:15:19.442541,89
2021-09-24 15:15:19.442547,89
2021-09-24 15:15:19.442553,92
2021-09-24 15:15:19.442560,89
2021-09-24 15:15:19.710963,92
2021-09-24 15:15:19.710985,92
2021-09-24 15:15:19.710993,87
2021-09-24 15:15:19.711000,80
2021-09-24 15:15:19.711010,80
2021-09-24 15:15:19.711022,85
2021-09-24 15:15:19.711029,85
2021-09-24 15:15:19.711035,82
2021-09-24 15:15:19.711042,77
2021-09-24 15:15:19.711049,65
2021-09-24 15:15:19.711055,53
2021-09-24 15:15:19.711062,41
2021-09-24 15:15:19.711068,24
2021-09-24 15:15:19.711075,21
2021-09-24 15:15:19.711082,21
2021-09-24 15:15:19.711088,7
2021-09-24 15:15:19.711095,9
2021-09-24 15:15:19.711105,34
2021-09-24 15:15:19.711111,38
2021-09-24 15:15:19.711118,29
2021-09-24 15:15:19.711124,31
2021-09-24 15:15:19.711131,36
2021-09-24 15:15:19.711137,36
2021-09-24 15:15:19.711144,36
2021-09-24 15:15:19.711150,38
2021-09-24 15:15:19.711157,34
2021-09-24 15:15:19.711163,24
2021-09-24 15:15:19.711170,-4
2021-09-24 15:15:19.711177,-60
2021-09-24 15:15:19.711183,-174
2021-09-24 15:15:20.072456,-388
2021-09-24 15:15:20.072479,-531
2021-09-24 15:15:20.072487,-332
2021-09-24 15:15:20.072493,165
2021-09-24 15:15:20.072500,583
2021-09-24 15:15:20.072507,524
2021-09-24 15:15:20.072513,172
2021-09-24 15:15:20.072520,41
2021-09-24 15:15:20.072526,34
2021-09-24 15:15:20.072533,-85
2021-09-24 15:15:20.072539,-136
2021-09-24 15:15:20.072545,-99
2021-09-24 15:15:20.072552,-114
2021-09-24 15:15:20.072558,-150
2021-09-24 15:15:20.072565,-153
2021-09-24 15:15:20.072572,-157
2021-09-24 15:15:20.072578,-170
2021-09-24 15:15:20.072584,-177
2021-09-24 15:15:20.072591,-182
2021-09-24 15:15:20.072597,-194
2021-09-24 15:15:20.072604,-211
2021-09-24 15:15:20.072610,-225
2021-09-24 15:15:20.072616,-242
2021-09-24 15:15:20.072623,-262
2021-09-24 15:15:20.072629,-286
2021-09-24 15:15:20.072636,-315
2021-09-24 15:15:20.072642,-347
2021-09-24 15:15:20.072649,-374
2021-09-24 15:15:20.072655,-388
2021-09-24 15:15:20.072662,-398
2021-09-24 15:15:20.161797,-398
2021-09-24 15:15:20.161814,-378
2021-09-24 15:15:20.161820,-342
2021-09-24 15:15:20.161825,-279
2021-09-24 15:15:20.161830,-187
2021-09-24 15:15:20.161835,-80
2021-09-24 15:15:20.161840,14
2021-09-24 15:15:20.161845,92
2021-09-24 15:15:20.161851,153
2021-09-24 15:15:20.161856,196
2021-09-24 15:15:20.161861,221
2021-09-24 15:15:20.161866,235
2021-09-24 15:15:20.161871,240
2021-09-24 15:15:20.161876,235
2021-09-24 15:15:20.161881,225
2021-09-24 15:15:20.161886,223
2021-09-24 15:15:20.161891,218
2021-09-24 15:15:20.161896,211
2021-09-24 15:15:20.161901,201
2021-09-24 15:15:20.161906,191
2021-09-24 15:15:20.161911,179
2021-09-24 15:15:20.161916,170
2021-09-24 15:15:20.161922,162
2021-09-24 15:15:20.161927,155
2021-09-24 15:15:20.161932,140
2021-09-24 15:15:20.161937,126
2021-09-24 15:15:20.161942,119
2021-09-24 15:15:20.161947,116
2021-09-24 15:15:20.161952,114
2021-09-24 15:15:20.161960,116
2021-09-24 15:15:20.342296,116
2021-09-24 15:15:20.342317,109
2021-09-24 15:15:20.342324,106
2021-09-24 15:15:20.342331,106
2021-09-24 15:15:20.342338,109
2021-09-24 15:15:20.342344,106
2021-09-24 15:15:20.342351,102
2021-09-24 15:15:20.342357,97
2021-09-24 15:15:20.342364,99
2021-09-24 15:15:20.342370,99
2021-09-24 15:15:20.342377,99
2021-09-24 15:15:20.342383,97
2021-09-24 15:15:20.342390,89
2021-09-24 15:15:20.342396,82
2021-09-24 15:15:20.342403,85
2021-09-24 15:15:20.342409,87
2021-09-24 15:15:20.342416,85
2021-09-24 15:15:20.342422,82
2021-09-24 15:15:20.342429,72
2021-09-24 15:15:20.342435,70
2021-09-24 15:15:20.342442,77
2021-09-24 15:15:20.342448,77
2021-09-24 15:15:20.342455,65
2021-09-24 15:15:20.342461,43
2021-09-24 15:15:20.342468,26
2021-09-24 15:15:20.342474,31
2021-09-24 15:15:20.342481,34
2021-09-24 15:15:20.342487,24
2021-09-24 15:15:20.342493,31
2021-09-24 15:15:20.342500,55
2021-09-24 15:15:20.657501,68
2021-09-24 15:15:20.657532,70
2021-09-24 15:15:20.657544,65
2021-09-24 15:15:20.657554,58
2021-09-24 15:15:20.657564,51
2021-09-24 15:15:20.657574,53
2021-09-24 15:15:20.657584,48
2021-09-24 15:15:20.657594,46
2021-09-24 15:15:20.657604,38
2021-09-24 15:15:20.657615,0
2021-09-24 15:15:20.657625,-68
2021-09-24 15:15:20.657635,-225
2021-09-24 15:15:20.657645,-459
2021-09-24 15:15:20.657655,-485
2021-09-24 15:15:20.657665,-133
2021-09-24 15:15:20.657675,383
2021-09-24 15:15:20.657685,646
2021-09-24 15:15:20.657695,408
2021-09-24 15:15:20.657705,92
2021-09-24 15:15:20.657715,53
2021-09-24 15:15:20.657725,12
2021-09-24 15:15:20.657735,-106
2021-09-24 15:15:20.657745,-114
2021-09-24 15:15:20.657755,-89
2021-09-24 15:15:20.657765,-119
2021-09-24 15:15:20.657775,-136
2021-09-24 15:15:20.657785,-128
2021-09-24 15:15:20.657795,-140
2021-09-24 15:15:20.657805,-155
2021-09-24 15:15:20.657815,-160
2021-09-24 15:15:20.792506,-177
2021-09-24 15:15:20.792536,-204
2021-09-24 15:15:20.792548,-221
2021-09-24 15:15:20.792559,-230
2021-09-24 15:15:20.792569,-252
2021-09-24 15:15:20.792579,-281
2021-09-24 15:15:20.792589,-308
2021-09-24 15:15:20.792599,-335
2021-09-24 15:15:20.792609,-361
2021-09-24 15:15:20.792619,-388
2021-09-24 15:15:20.792629,-405
2021-09-24 15:15:20.792639,-415
2021-09-24 15:15:20.792649,-408
2021-09-24 15:15:20.792658,-378
2021-09-24 15:15:20.792668,-330
2021-09-24 15:15:20.792678,-257
2021-09-24 15:15:20.792688,-162
2021-09-24 15:15:20.792698,-60
2021-09-24 15:15:20.792708,31
2021-09-24 15:15:20.792718,106
2021-09-24 15:15:20.792734,162
2021-09-24 15:15:20.792744,196
2021-09-24 15:15:20.792754,213
2021-09-24 15:15:20.792764,218
2021-09-24 15:15:20.792774,225
2021-09-24 15:15:20.792784,230
2021-09-24 15:15:20.792794,221
2021-09-24 15:15:20.792804,213
2021-09-24 15:15:20.792814,206
2021-09-24 15:15:20.792824,199
2021-09-24 15:15:21.062452,191
2021-09-24 15:15:21.062476,182
2021-09-24 15:15:21.062483,172
2021-09-24 15:15:21.062490,157
2021-09-24 15:15:21.062497,143
2021-09-24 15:15:21.062503,133
2021-09-24 15:15:21.062510,128
2021-09-24 15:15:21.062516,119
2021-09-24 15:15:21.062523,104
2021-09-24 15:15:21.062529,97
2021-09-24 15:15:21.062536,89
2021-09-24 15:15:21.062542,87
2021-09-24 15:15:21.062549,92
2021-09-24 15:15:21.062555,97
2021-09-24 15:15:21.062562,94
2021-09-24 15:15:21.062569,92
2021-09-24 15:15:21.062575,92
2021-09-24 15:15:21.062582,94
2021-09-24 15:15:21.062588,97
2021-09-24 15:15:21.062595,99
2021-09-24 15:15:21.062601,99
2021-09-24 15:15:21.062608,97
2021-09-24 15:15:21.062614,92
2021-09-24 15:15:21.062621,92
2021-09-24 15:15:21.062627,94
2021-09-24 15:15:21.062634,94
2021-09-24 15:15:21.062640,92
2021-09-24 15:15:21.062647,89
2021-09-24 15:15:21.062653,87
2021-09-24 15:15:21.062660,89
2021-09-24 15:15:21.287483,87
2021-09-24 15:15:21.287506,87
2021-09-24 15:15:21.287514,85
2021-09-24 15:15:21.287521,75
2021-09-24 15:15:21.287527,65
2021-09-24 15:15:21.287534,60
2021-09-24 15:15:21.287540,41
2021-09-24 15:15:21.287547,14
2021-09-24 15:15:21.287553,9
2021-09-24 15:15:21.287560,14
2021-09-24 15:15:21.287566,2
2021-09-24 15:15:21.287573,2
2021-09-24 15:15:21.287579,26
2021-09-24 15:15:21.287586,46
2021-09-24 15:15:21.287592,48
2021-09-24 15:15:21.287598,41
2021-09-24 15:15:21.287605,36
2021-09-24 15:15:21.287612,43
2021-09-24 15:15:21.287618,46
2021-09-24 15:15:21.287625,41
2021-09-24 15:15:21.287631,36
2021-09-24 15:15:21.287638,26
2021-09-24 15:15:21.287644,9
2021-09-24 15:15:21.287651,-29
2021-09-24 15:15:21.287657,-114
2021-09-24 15:15:21.287664,-308
2021-09-24 15:15:21.287670,-507
2021-09-24 15:15:21.287677,-405
2021-09-24 15:15:21.287684,55
2021-09-24 15:15:21.287690,548
2021-09-24 15:15:21.557569,619
2021-09-24 15:15:21.557592,274
2021-09-24 15:15:21.557601,60
2021-09-24 15:15:21.557608,53
2021-09-24 15:15:21.557615,-38
2021-09-24 15:15:21.557622,-121
2021-09-24 15:15:21.557629,-94
2021-09-24 15:15:21.557636,-92
2021-09-24 15:15:21.557642,-131
2021-09-24 15:15:21.557649,-140
2021-09-24 15:15:21.557656,-140
2021-09-24 15:15:21.557663,-157
2021-09-24 15:15:21.557670,-174
2021-09-24 15:15:21.557677,-177
2021-09-24 15:15:21.557684,-194
2021-09-24 15:15:21.557691,-218
2021-09-24 15:15:21.557698,-228
2021-09-24 15:15:21.557705,-238
2021-09-24 15:15:21.557712,-262
2021-09-24 15:15:21.557719,-286
2021-09-24 15:15:21.557725,-313
2021-09-24 15:15:21.557732,-344
2021-09-24 15:15:21.557746,-369
2021-09-24 15:15:21.557753,-386
2021-09-24 15:15:21.557760,-398
2021-09-24 15:15:21.557767,-395
2021-09-24 15:15:21.557774,-388
2021-09-24 15:15:21.557781,-364
2021-09-24 15:15:21.557819,-303
2021-09-24 15:15:21.557826,-216
2021-09-24 15:15:21.825980,-119
2021-09-24 15:15:21.826001,-19
2021-09-24 15:15:21.826009,63
2021-09-24 15:15:21.826016,126
2021-09-24 15:15:21.826022,177
2021-09-24 15:15:21.826029,213
2021-09-24 15:15:21.826036,233
2021-09-24 15:15:21.826042,238
2021-09-24 15:15:21.826049,230
2021-09-24 15:15:21.826055,223
2021-09-24 15:15:21.826061,223
2021-09-24 15:15:21.826068,218
2021-09-24 15:15:21.826074,196
2021-09-24 15:15:21.826081,177
2021-09-24 15:15:21.826087,167
2021-09-24 15:15:21.826094,160
2021-09-24 15:15:21.826100,153
2021-09-24 15:15:21.826107,143
2021-09-24 15:15:21.826113,133
2021-09-24 15:15:21.826120,121
2021-09-24 15:15:21.826126,106
2021-09-24 15:15:21.826133,99
2021-09-24 15:15:21.826139,97
2021-09-24 15:15:21.826146,97
2021-09-24 15:15:21.826152,97
2021-09-24 15:15:21.826159,97
2021-09-24 15:15:21.826165,92
2021-09-24 15:15:21.826172,92
2021-09-24 15:15:21.826178,97
2021-09-24 15:15:21.826185,99
2021-09-24 15:15:21.962043,97
2021-09-24 15:15:21.962064,97
2021-09-24 15:15:21.962072,99
2021-09-24 15:15:21.962078,97
2021-09-24 15:15:21.962085,97
2021-09-24 15:15:21.962092,97
2021-09-24 15:15:21.962098,94
2021-09-24 15:15:21.962105,87
2021-09-24 15:15:21.962111,82
2021-09-24 15:15:21.962118,82
2021-09-24 15:15:21.962125,82
2021-09-24 15:15:21.962131,82
2021-09-24 15:15:21.962138,80
2021-09-24 15:15:21.962144,68
2021-09-24 15:15:21.962151,60
2021-09-24 15:15:21.962158,58
2021-09-24 15:15:21.962164,58
2021-09-24 15:15:21.962171,60
2021-09-24 15:15:21.962177,55
2021-09-24 15:15:21.962184,34
2021-09-24 15:15:21.962190,12
2021-09-24 15:15:21.962197,14
2021-09-24 15:15:21.962204,19
2021-09-24 15:15:21.962210,12
2021-09-24 15:15:21.962217,12
2021-09-24 15:15:21.962223,29
2021-09-24 15:15:21.962230,48
2021-09-24 15:15:21.962237,55
2021-09-24 15:15:21.962243,48
2021-09-24 15:15:21.962250,43
2021-09-24 15:15:22.187491,43
2021-09-24 15:15:22.187515,38
2021-09-24 15:15:22.187523,31
2021-09-24 15:15:22.187530,29
2021-09-24 15:15:22.187537,24
2021-09-24 15:15:22.187543,7
2021-09-24 15:15:22.187550,-34
2021-09-24 15:15:22.187556,-133
2021-09-24 15:15:22.187563,-342
2021-09-24 15:15:22.187570,-539
2021-09-24 15:15:22.187576,-417
2021-09-24 15:15:22.187583,65
2021-09-24 15:15:22.187589,551
2021-09-24 15:15:22.187596,568
2021-09-24 15:15:22.187602,211
2021-09-24 15:15:22.187609,41
2021-09-24 15:15:22.187615,48
2021-09-24 15:15:22.187622,-63
2021-09-24 15:15:22.187629,-153
2021-09-24 15:15:22.187635,-121
2021-09-24 15:15:22.187642,-119
2021-09-24 15:15:22.187648,-153
2021-09-24 15:15:22.187655,-153
2021-09-24 15:15:22.187661,-155
2021-09-24 15:15:22.187668,-174
2021-09-24 15:15:22.187674,-182
2021-09-24 15:15:22.187681,-187
2021-09-24 15:15:22.187687,-204
2021-09-24 15:15:22.187694,-213
2021-09-24 15:15:22.187700,-223
2021-09-24 15:15:22.412501,-245
2021-09-24 15:15:22.412524,-269
2021-09-24 15:15:22.412532,-296
2021-09-24 15:15:22.412540,-327
2021-09-24 15:15:22.412547,-354
2021-09-24 15:15:22.412560,-378
2021-09-24 15:15:22.412567,-405
2021-09-24 15:15:22.412574,-417
2021-09-24 15:15:22.412581,-412
2021-09-24 15:15:22.412588,-400
2021-09-24 15:15:22.412595,-366
2021-09-24 15:15:22.412602,-313
2021-09-24 15:15:22.412609,-235
2021-09-24 15:15:22.412616,-131
2021-09-24 15:15:22.412622,-29
2021-09-24 15:15:22.412629,53
2021-09-24 15:15:22.412637,121
2021-09-24 15:15:22.412643,170
2021-09-24 15:15:22.412650,196
2021-09-24 15:15:22.412657,216
2021-09-24 15:15:22.412664,218
2021-09-24 15:15:22.412671,211
2021-09-24 15:15:22.412678,211
2021-09-24 15:15:22.412685,206
2021-09-24 15:15:22.412691,194
2021-09-24 15:15:22.412698,191
2021-09-24 15:15:22.412705,184
2021-09-24 15:15:22.412712,170
2021-09-24 15:15:22.412719,155
2021-09-24 15:15:22.412725,145
2021-09-24 15:15:22.636903,140
2021-09-24 15:15:22.636932,136
2021-09-24 15:15:22.636945,123
2021-09-24 15:15:22.636956,116
2021-09-24 15:15:22.636967,111
2021-09-24 15:15:22.636979,94
2021-09-24 15:15:22.636990,87
2021-09-24 15:15:22.637001,97
2021-09-24 15:15:22.637013,99
2021-09-24 15:15:22.637025,92
2021-09-24 15:15:22.637037,89
2021-09-24 15:15:22.637048,85
2021-09-24 15:15:22.637059,85
2021-09-24 15:15:22.637071,89
2021-09-24 15:15:22.637083,92
2021-09-24 15:15:22.637094,87
2021-09-24 15:15:22.637106,87
2021-09-24 15:15:22.637118,87
2021-09-24 15:15:22.637130,85
2021-09-24 15:15:22.637142,87
2021-09-24 15:15:22.637154,82
2021-09-24 15:15:22.637165,68
2021-09-24 15:15:22.637176,58
2021-09-24 15:15:22.637188,53
2021-09-24 15:15:22.637199,48
2021-09-24 15:15:22.637210,48
2021-09-24 15:15:22.637221,53
2021-09-24 15:15:22.637232,46
2021-09-24 15:15:22.637243,29
2021-09-24 15:15:22.637254,14
2021-09-24 15:15:22.862488,12
2021-09-24 15:15:22.862510,14
2021-09-24 15:15:22.862518,7
2021-09-24 15:15:22.862525,4
2021-09-24 15:15:22.862532,21
2021-09-24 15:15:22.862539,38
2021-09-24 15:15:22.862546,43
2021-09-24 15:15:22.862553,38
2021-09-24 15:15:22.862560,26
2021-09-24 15:15:22.862581,19
2021-09-24 15:15:22.862587,14
2021-09-24 15:15:22.862594,9
2021-09-24 15:15:22.862600,14
2021-09-24 15:15:22.862607,19
2021-09-24 15:15:22.862613,2
2021-09-24 15:15:22.862620,-38
2021-09-24 15:15:22.862626,-116
2021-09-24 15:15:22.862633,-303
2021-09-24 15:15:22.862640,-519
2021-09-24 15:15:22.862646,-454
2021-09-24 15:15:22.862653,-9
2021-09-24 15:15:22.862659,505
2021-09-24 15:15:22.862666,590
2021-09-24 15:15:22.862672,240
2021-09-24 15:15:22.862679,43
2021-09-24 15:15:22.862686,55
2021-09-24 15:15:22.862692,-38
2021-09-24 15:15:22.862699,-133
2021-09-24 15:15:22.862705,-111
2021-09-24 15:15:22.862712,-109
2021-09-24 15:15:23.087463,-140
2021-09-24 15:15:23.087486,-140
2021-09-24 15:15:23.087494,-143
2021-09-24 15:15:23.087501,-167
2021-09-24 15:15:23.087508,-184
2021-09-24 15:15:23.087515,-182
2021-09-24 15:15:23.087521,-189
2021-09-24 15:15:23.087528,-208
2021-09-24 15:15:23.087534,-225
2021-09-24 15:15:23.087541,-250
2021-09-24 15:15:23.087547,-281
2021-09-24 15:15:23.087554,-301
2021-09-24 15:15:23.087560,-323
2021-09-24 15:15:23.087567,-354
2021-09-24 15:15:23.087573,-378
2021-09-24 15:15:23.087580,-400
2021-09-24 15:15:23.087586,-410
2021-09-24 15:15:23.087593,-403
2021-09-24 15:15:23.087600,-386
2021-09-24 15:15:23.087606,-354
2021-09-24 15:15:23.087613,-296
2021-09-24 15:15:23.087619,-213
2021-09-24 15:15:23.087626,-111
2021-09-24 15:15:23.087633,-9
2021-09-24 15:15:23.087639,72
2021-09-24 15:15:23.087646,133
2021-09-24 15:15:23.087653,174
2021-09-24 15:15:23.087659,199
2021-09-24 15:15:23.087666,211
2021-09-24 15:15:23.087672,206
2021-09-24 15:15:23.401960,201
2021-09-24 15:15:23.401985,211
2021-09-24 15:15:23.401993,208
2021-09-24 15:15:23.402000,182
2021-09-24 15:15:23.402007,170
2021-09-24 15:15:23.402013,172
2021-09-24 15:15:23.402020,160
2021-09-24 15:15:23.402026,145
2021-09-24 15:15:23.402033,138
2021-09-24 15:15:23.402039,126
2021-09-24 15:15:23.402046,116
2021-09-24 15:15:23.402052,114
2021-09-24 15:15:23.402059,109
2021-09-24 15:15:23.402065,102
2021-09-24 15:15:23.402072,97
2021-09-24 15:15:23.402078,92
2021-09-24 15:15:23.402084,94
2021-09-24 15:15:23.402091,99
2021-09-24 15:15:23.402097,102
2021-09-24 15:15:23.402104,104
2021-09-24 15:15:23.402110,104
2021-09-24 15:15:23.402117,97
2021-09-24 15:15:23.402123,97
2021-09-24 15:15:23.402130,104
2021-09-24 15:15:23.402136,104
2021-09-24 15:15:23.402143,104
2021-09-24 15:15:23.402150,102
2021-09-24 15:15:23.402156,94
2021-09-24 15:15:23.402162,89
2021-09-24 15:15:23.402169,85
2021-09-24 15:15:23.582104,82
2021-09-24 15:15:23.582124,77
2021-09-24 15:15:23.582132,70
2021-09-24 15:15:23.582139,68
2021-09-24 15:15:23.582145,72
2021-09-24 15:15:23.582152,72
2021-09-24 15:15:23.582159,70
2021-09-24 15:15:23.582165,72
2021-09-24 15:15:23.582172,60
2021-09-24 15:15:23.582178,41
2021-09-24 15:15:23.582185,26
2021-09-24 15:15:23.582192,21
2021-09-24 15:15:23.582198,26
2021-09-24 15:15:23.582205,21
2021-09-24 15:15:23.582212,12
2021-09-24 15:15:23.582218,29
2021-09-24 15:15:23.582225,48
2021-09-24 15:15:23.582231,48
2021-09-24 15:15:23.582238,46
2021-09-24 15:15:23.582245,41
2021-09-24 15:15:23.582251,31
2021-09-24 15:15:23.582258,31
2021-09-24 15:15:23.582264,36
2021-09-24 15:15:23.582271,36
2021-09-24 15:15:23.582277,34
2021-09-24 15:15:23.582284,17
2021-09-24 15:15:23.582291,-21
2021-09-24 15:15:23.582297,-99
2021-09-24 15:15:23.582304,-274
2021-09-24 15:15:23.582311,-483
2021-09-24 15:15:23.851211,-434
2021-09-24 15:15:23.851232,-21
2021-09-24 15:15:23.851240,483
2021-09-24 15:15:23.851247,609
2021-09-24 15:15:23.851254,276
2021-09-24 15:15:23.851260,41
2021-09-24 15:15:23.851267,51
2021-09-24 15:15:23.851273,-36
2021-09-24 15:15:23.851280,-148
2021-09-24 15:15:23.851286,-126
2021-09-24 15:15:23.851293,-109
2021-09-24 15:15:23.851299,-143
2021-09-24 15:15:23.851306,-150
2021-09-24 15:15:23.851312,-153
2021-09-24 15:15:23.851319,-174
2021-09-24 15:15:23.851325,-182
2021-09-24 15:15:23.851332,-182
2021-09-24 15:15:23.851338,-194
2021-09-24 15:15:23.851345,-208
2021-09-24 15:15:23.851351,-223
2021-09-24 15:15:23.851357,-242
2021-09-24 15:15:23.851364,-262
2021-09-24 15:15:23.851370,-284
2021-09-24 15:15:23.851377,-308
2021-09-24 15:15:23.851383,-335
2021-09-24 15:15:23.851390,-361
2021-09-24 15:15:23.851396,-381
2021-09-24 15:15:23.851403,-393
2021-09-24 15:15:23.851409,-393
2021-09-24 15:15:23.851416,-378
2021-09-24 15:15:24.032642,-349
2021-09-24 15:15:24.032673,-301
2021-09-24 15:15:24.032684,-225
2021-09-24 15:15:24.032695,-128
2021-09-24 15:15:24.032705,-29
2021-09-24 15:15:24.032715,55
2021-09-24 15:15:24.032726,119
2021-09-24 15:15:24.032736,165
2021-09-24 15:15:24.032746,196
2021-09-24 15:15:24.032756,216
2021-09-24 15:15:24.032766,221
2021-09-24 15:15:24.032776,223
2021-09-24 15:15:24.032786,221
2021-09-24 15:15:24.032796,211
2021-09-24 15:15:24.032806,201
2021-09-24 15:15:24.032816,194
2021-09-24 15:15:24.032826,184
2021-09-24 15:15:24.032836,177
2021-09-24 15:15:24.032846,167
2021-09-24 15:15:24.032856,157
2021-09-24 15:15:24.032866,145
2021-09-24 15:15:24.032876,136
2021-09-24 15:15:24.032886,131
2021-09-24 15:15:24.032896,126
2021-09-24 15:15:24.032905,119
2021-09-24 15:15:24.032915,114
2021-09-24 15:15:24.032925,111
2021-09-24 15:15:24.032935,109
2021-09-24 15:15:24.032946,106
2021-09-24 15:15:24.032956,109
2021-09-24 15:15:24.302654,106
2021-09-24 15:15:24.302684,111
2021-09-24 15:15:24.302697,114
2021-09-24 15:15:24.302707,109
2021-09-24 15:15:24.302718,102
2021-09-24 15:15:24.302728,97
2021-09-24 15:15:24.302738,89
2021-09-24 15:15:24.302748,85
2021-09-24 15:15:24.302758,87
2021-09-24 15:15:24.302768,82
2021-09-24 15:15:24.302778,70
2021-09-24 15:15:24.302796,63
2021-09-24 15:15:24.302807,58
2021-09-24 15:15:24.302817,53
2021-09-24 15:15:24.302827,53
2021-09-24 15:15:24.302837,55
2021-09-24 15:15:24.302847,53
2021-09-24 15:15:24.302857,48
2021-09-24 15:15:24.302867,46
2021-09-24 15:15:24.302877,46
2021-09-24 15:15:24.302887,48
2021-09-24 15:15:24.302897,53
2021-09-24 15:15:24.302907,53
2021-09-24 15:15:24.302917,41
2021-09-24 15:15:24.302927,21
2021-09-24 15:15:24.302937,14
2021-09-24 15:15:24.302948,17
2021-09-24 15:15:24.302958,14
2021-09-24 15:15:24.302968,4
2021-09-24 15:15:24.302978,9
2021-09-24 15:15:24.482577,24
2021-09-24 15:15:24.482600,34
2021-09-24 15:15:24.482608,38
2021-09-24 15:15:24.482614,36
2021-09-24 15:15:24.482621,34
2021-09-24 15:15:24.482627,34
2021-09-24 15:15:24.482634,31
2021-09-24 15:15:24.482640,29
2021-09-24 15:15:24.482647,29
2021-09-24 15:15:24.482653,21
2021-09-24 15:15:24.482660,-7
2021-09-24 15:15:24.482666,-68
2021-09-24 15:15:24.482673,-201
2021-09-24 15:15:24.482679,-422
2021-09-24 15:15:24.482685,-507
2021-09-24 15:15:24.482692,-221
2021-09-24 15:15:24.482698,291
2021-09-24 15:15:24.482705,619
2021-09-24 15:15:24.482711,454
2021-09-24 15:15:24.482718,123
2021-09-24 15:15:24.482724,51
2021-09-24 15:15:24.482731,26
2021-09-24 15:15:24.482737,-92
2021-09-24 15:15:24.482743,-119
2021-09-24 15:15:24.482750,-85
2021-09-24 15:15:24.482756,-109
2021-09-24 15:15:24.482763,-133
2021-09-24 15:15:24.482769,-128
2021-09-24 15:15:24.482775,-138
2021-09-24 15:15:24.482782,-155
2021-09-24 15:15:24.752427,-157
2021-09-24 15:15:24.752450,-165
2021-09-24 15:15:24.752457,-179
2021-09-24 15:15:24.752464,-196
2021-09-24 15:15:24.752471,-216
2021-09-24 15:15:24.752477,-242
2021-09-24 15:15:24.752483,-262
2021-09-24 15:15:24.752490,-284
2021-09-24 15:15:24.752496,-323
2021-09-24 15:15:24.752503,-359
2021-09-24 15:15:24.752509,-388
2021-09-24 15:15:24.752516,-408
2021-09-24 15:15:24.752522,-408
2021-09-24 15:15:24.752529,-398
2021-09-24 15:15:24.752535,-383
2021-09-24 15:15:24.752542,-349
2021-09-24 15:15:24.752548,-293
2021-09-24 15:15:24.752555,-201
2021-09-24 15:15:24.752561,-92
2021-09-24 15:15:24.752568,4
2021-09-24 15:15:24.752574,80
2021-09-24 15:15:24.752581,138
2021-09-24 15:15:24.752587,177
2021-09-24 15:15:24.752594,204
2021-09-24 15:15:24.752600,218
2021-09-24 15:15:24.752607,225
2021-09-24 15:15:24.752613,228
2021-09-24 15:15:24.752619,223
2021-09-24 15:15:24.752626,213
2021-09-24 15:15:24.752633,206
2021-09-24 15:15:24.932404,201
2021-09-24 15:15:24.932426,194
2021-09-24 15:15:24.932434,184
2021-09-24 15:15:24.932441,167
2021-09-24 15:15:24.932448,145
2021-09-24 15:15:24.932455,136
2021-09-24 15:15:24.932461,133
2021-09-24 15:15:24.932468,126
2021-09-24 15:15:24.932474,121
2021-09-24 15:15:24.932481,116
2021-09-24 15:15:24.932487,106
2021-09-24 15:15:24.932494,97
2021-09-24 15:15:24.932501,97
2021-09-24 15:15:24.932507,99
2021-09-24 15:15:24.932514,99
2021-09-24 15:15:24.932520,94
2021-09-24 15:15:24.932527,89
2021-09-24 15:15:24.932534,92
2021-09-24 15:15:24.932540,97
2021-09-24 15:15:24.932547,97
2021-09-24 15:15:24.932553,97
2021-09-24 15:15:24.932560,92
2021-09-24 15:15:24.932567,89
2021-09-24 15:15:24.932573,94
2021-09-24 15:15:24.932580,94
2021-09-24 15:15:24.932586,89
2021-09-24 15:15:24.932593,85
2021-09-24 15:15:24.932600,77
2021-09-24 15:15:24.932606,75
2021-09-24 15:15:24.932613,77
2021-09-24 15:15:25.292089,77
2021-09-24 15:15:25.292111,75
2021-09-24 15:15:25.292119,72
2021-09-24 15:15:25.292126,58
2021-09-24 15:15:25.292132,53
2021-09-24 15:15:25.292139,60
2021-09-24 15:15:25.292146,60
2021-09-24 15:15:25.292152,58
2021-09-24 15:15:25.292159,58
2021-09-24 15:15:25.292166,48
2021-09-24 15:15:25.292172,36
2021-09-24 15:15:25.292179,19
2021-09-24 15:15:25.292185,0
2021-09-24 15:15:25.292192,-4
2021-09-24 15:15:25.292198,-9
2021-09-24 15:15:25.292205,-21
2021-09-24 15:15:25.292211,-14
2021-09-24 15:15:25.292218,12
2021-09-24 15:15:25.292224,26
2021-09-24 15:15:25.292231,29
2021-09-24 15:15:25.292237,26
2021-09-24 15:15:25.292244,19
2021-09-24 15:15:25.292250,9
2021-09-24 15:15:25.292257,14
2021-09-24 15:15:25.292263,24
2021-09-24 15:15:25.292270,21
2021-09-24 15:15:25.292276,12
2021-09-24 15:15:25.292283,-9
2021-09-24 15:15:25.292289,-53
2021-09-24 15:15:25.292296,-160
2021-09-24 15:15:25.427560,-376
2021-09-24 15:15:25.427583,-507
2021-09-24 15:15:25.427591,-291
2021-09-24 15:15:25.427598,201
2021-09-24 15:15:25.427604,602
2021-09-24 15:15:25.427611,531
2021-09-24 15:15:25.427617,179
2021-09-24 15:15:25.427624,51
2021-09-24 15:15:25.427634,43
2021-09-24 15:15:25.427641,-72
2021-09-24 15:15:25.427648,-123
2021-09-24 15:15:25.427654,-82
2021-09-24 15:15:25.427661,-97
2021-09-24 15:15:25.427668,-128
2021-09-24 15:15:25.427674,-128
2021-09-24 15:15:25.427681,-140
2021-09-24 15:15:25.427687,-157
2021-09-24 15:15:25.427694,-157
2021-09-24 15:15:25.427700,-162
2021-09-24 15:15:25.427707,-179
2021-09-24 15:15:25.427713,-204
2021-09-24 15:15:25.427720,-221
2021-09-24 15:15:25.427726,-233
2021-09-24 15:15:25.427733,-252
2021-09-24 15:15:25.427739,-281
2021-09-24 15:15:25.427746,-313
2021-09-24 15:15:25.427753,-349
2021-09-24 15:15:25.427759,-374
2021-09-24 15:15:25.427766,-388
2021-09-24 15:15:25.427772,-395
2021-09-24 15:15:25.652224,-393
2021-09-24 15:15:25.652246,-378
2021-09-24 15:15:25.652254,-349
2021-09-24 15:15:25.652260,-289
2021-09-24 15:15:25.652267,-199
2021-09-24 15:15:25.652274,-99
2021-09-24 15:15:25.652280,-7
2021-09-24 15:15:25.652287,72
2021-09-24 15:15:25.652293,128
2021-09-24 15:15:25.652300,170
2021-09-24 15:15:25.652306,204
2021-09-24 15:15:25.652313,223
2021-09-24 15:15:25.652319,228
2021-09-24 15:15:25.652325,223
2021-09-24 15:15:25.652332,216
2021-09-24 15:15:25.652338,208
2021-09-24 15:15:25.652345,199
2021-09-24 15:15:25.652351,187
2021-09-24 15:15:25.652358,179
2021-09-24 15:15:25.652364,170
2021-09-24 15:15:25.652371,157
2021-09-24 15:15:25.652377,145
2021-09-24 15:15:25.652384,140
2021-09-24 15:15:25.652390,133
2021-09-24 15:15:25.652397,126
2021-09-24 15:15:25.652403,116
2021-09-24 15:15:25.652410,109
2021-09-24 15:15:25.652416,97
2021-09-24 15:15:25.652423,85
2021-09-24 15:15:25.652429,87
2021-09-24 15:15:25.921283,89
2021-09-24 15:15:25.921305,85
2021-09-24 15:15:25.921313,85
2021-09-24 15:15:25.921320,89
2021-09-24 15:15:25.921327,89
2021-09-24 15:15:25.921334,89
2021-09-24 15:15:25.921340,87
2021-09-24 15:15:25.921347,80
2021-09-24 15:15:25.921354,75
2021-09-24 15:15:25.921361,72
2021-09-24 15:15:25.921368,70
2021-09-24 15:15:25.921375,72
2021-09-24 15:15:25.921382,70
2021-09-24 15:15:25.921389,60
2021-09-24 15:15:25.921396,60
2021-09-24 15:15:25.921403,60
2021-09-24 15:15:25.921410,60
2021-09-24 15:15:25.921416,60
2021-09-24 15:15:25.921423,58
2021-09-24 15:15:25.921429,51
2021-09-24 15:15:25.921436,51
2021-09-24 15:15:25.921443,53
2021-09-24 15:15:25.921450,51
2021-09-24 15:15:25.921456,51
2021-09-24 15:15:25.921463,46
2021-09-24 15:15:25.921469,41
2021-09-24 15:15:25.921476,36
2021-09-24 15:15:25.921483,34
2021-09-24 15:15:25.921489,36
2021-09-24 15:15:25.921496,36
2021-09-24 15:15:26.102541,24
2021-09-24 15:15:26.102564,4
2021-09-24 15:15:26.102572,-4
2021-09-24 15:15:26.102579,0
2021-09-24 15:15:26.102586,-2
2021-09-24 15:15:26.102592,-9
2021-09-24 15:15:26.102599,-7
2021-09-24 15:15:26.102606,12
2021-09-24 15:15:26.102612,29
2021-09-24 15:15:26.102619,31
2021-09-24 15:15:26.102625,26
2021-09-24 15:15:26.102632,26
2021-09-24 15:15:26.102638,21
2021-09-24 15:15:26.102645,19
2021-09-24 15:15:26.102652,24
2021-09-24 15:15:26.102658,24
2021-09-24 15:15:26.102665,17
2021-09-24 15:15:26.102671,-4
2021-09-24 15:15:26.102678,-58
2021-09-24 15:15:26.102684,-189
2021-09-24 15:15:26.102691,-415
2021-09-24 15:15:26.102698,-507
2021-09-24 15:15:26.102704,-216
2021-09-24 15:15:26.102710,306
2021-09-24 15:15:26.102717,634
2021-09-24 15:15:26.102724,468
2021-09-24 15:15:26.102730,133
2021-09-24 15:15:26.102737,51
2021-09-24 15:15:26.102743,24
2021-09-24 15:15:26.102750,-89
2021-09-24 15:15:26.327027,-116
2021-09-24 15:15:26.327047,-87
2021-09-24 15:15:26.327055,-111
2021-09-24 15:15:26.327062,-145
2021-09-24 15:15:26.327069,-148
2021-09-24 15:15:26.327076,-157
2021-09-24 15:15:26.327083,-177
2021-09-24 15:15:26.327089,-182
2021-09-24 15:15:26.327096,-184
2021-09-24 15:15:26.327103,-199
2021-09-24 15:15:26.327110,-213
2021-09-24 15:15:26.327116,-230
2021-09-24 15:15:26.327123,-255
2021-09-24 15:15:26.327130,-272
2021-09-24 15:15:26.327137,-293
2021-09-24 15:15:26.327143,-323
2021-09-24 15:15:26.327150,-352
2021-09-24 15:15:26.327157,-376
2021-09-24 15:15:26.327164,-393
2021-09-24 15:15:26.327170,-400
2021-09-24 15:15:26.327177,-395
2021-09-24 15:15:26.327184,-381
2021-09-24 15:15:26.327190,-344
2021-09-24 15:15:26.327197,-286
2021-09-24 15:15:26.327204,-199
2021-09-24 15:15:26.327211,-94
2021-09-24 15:15:26.327218,0
2021-09-24 15:15:26.327224,75
2021-09-24 15:15:26.327231,136
2021-09-24 15:15:26.327238,182
2021-09-24 15:15:26.597639,208
2021-09-24 15:15:26.597662,228
2021-09-24 15:15:26.597670,233
2021-09-24 15:15:26.597677,230
2021-09-24 15:15:26.597683,223
2021-09-24 15:15:26.597690,213
2021-09-24 15:15:26.597696,206
2021-09-24 15:15:26.597703,201
2021-09-24 15:15:26.597709,191
2021-09-24 15:15:26.597716,179
2021-09-24 15:15:26.597722,165
2021-09-24 15:15:26.597729,150
2021-09-24 15:15:26.597735,143
2021-09-24 15:15:26.597741,138
2021-09-24 15:15:26.597748,128
2021-09-24 15:15:26.597754,119
2021-09-24 15:15:26.597761,111
2021-09-24 15:15:26.597767,104
2021-09-24 15:15:26.597774,97
2021-09-24 15:15:26.597780,97
2021-09-24 15:15:26.597786,97
2021-09-24 15:15:26.597825,92
2021-09-24 15:15:26.597831,89
2021-09-24 15:15:26.597841,89
2021-09-24 15:15:26.597847,89
2021-09-24 15:15:26.597853,82
2021-09-24 15:15:26.597860,82
2021-09-24 15:15:26.597866,85
2021-09-24 15:15:26.597873,82
2021-09-24 15:15:26.597879,82
2021-09-24 15:15:26.777425,85
2021-09-24 15:15:26.777448,85
2021-09-24 15:15:26.777456,82
2021-09-24 15:15:26.777463,70
2021-09-24 15:15:26.777470,58
2021-09-24 15:15:26.777477,53
2021-09-24 15:15:26.777484,53
2021-09-24 15:15:26.777491,48
2021-09-24 15:15:26.777498,46
2021-09-24 15:15:26.777504,38
2021-09-24 15:15:26.777511,29
2021-09-24 15:15:26.777518,31
2021-09-24 15:15:26.777525,34
2021-09-24 15:15:26.777532,34
2021-09-24 15:15:26.777539,31
2021-09-24 15:15:26.777546,26
2021-09-24 15:15:26.777553,19
2021-09-24 15:15:26.777560,29
2021-09-24 15:15:26.777566,34
2021-09-24 15:15:26.777573,21
2021-09-24 15:15:26.777580,0
2021-09-24 15:15:26.777588,-12
2021-09-24 15:15:26.777595,-9
2021-09-24 15:15:26.777601,-7
2021-09-24 15:15:26.777608,-9
2021-09-24 15:15:26.777615,4
2021-09-24 15:15:26.777622,24
2021-09-24 15:15:26.777629,19
2021-09-24 15:15:26.777636,14
2021-09-24 15:15:26.777643,26
2021-09-24 15:15:27.092435,31
2021-09-24 15:15:27.092456,29
2021-09-24 15:15:27.092464,26
2021-09-24 15:15:27.092471,19
2021-09-24 15:15:27.092478,9
2021-09-24 15:15:27.092485,12
2021-09-24 15:15:27.092491,-4
2021-09-24 15:15:27.092498,-65
2021-09-24 15:15:27.092505,-204
2021-09-24 15:15:27.092511,-434
2021-09-24 15:15:27.092518,-519
2021-09-24 15:15:27.092524,-218
2021-09-24 15:15:27.092531,318
2021-09-24 15:15:27.092538,643
2021-09-24 15:15:27.092545,451
2021-09-24 15:15:27.092551,116
2021-09-24 15:15:27.092558,53
2021-09-24 15:15:27.092565,26
2021-09-24 15:15:27.092572,-92
2021-09-24 15:15:27.092578,-114
2021-09-24 15:15:27.092585,-85
2021-09-24 15:15:27.092592,-114
2021-09-24 15:15:27.092598,-136
2021-09-24 15:15:27.092605,-121
2021-09-24 15:15:27.092612,-126
2021-09-24 15:15:27.092618,-145
2021-09-24 15:15:27.092625,-155
2021-09-24 15:15:27.092632,-165
2021-09-24 15:15:27.092638,-184
2021-09-24 15:15:27.092645,-208
2021-09-24 15:15:27.272519,-228
2021-09-24 15:15:27.272540,-240
2021-09-24 15:15:27.272548,-259
2021-09-24 15:15:27.272555,-293
2021-09-24 15:15:27.272561,-323
2021-09-24 15:15:27.272568,-344
2021-09-24 15:15:27.272574,-371
2021-09-24 15:15:27.272581,-391
2021-09-24 15:15:27.272587,-408
2021-09-24 15:15:27.272594,-412
2021-09-24 15:15:27.272600,-388
2021-09-24 15:15:27.272606,-344
2021-09-24 15:15:27.272613,-284
2021-09-24 15:15:27.272619,-194
2021-09-24 15:15:27.272626,-97
2021-09-24 15:15:27.272632,-14
2021-09-24 15:15:27.272639,65
2021-09-24 15:15:27.272645,136
2021-09-24 15:15:27.272651,182
2021-09-24 15:15:27.272658,206
2021-09-24 15:15:27.272664,211
2021-09-24 15:15:27.272671,204
2021-09-24 15:15:27.272677,211
2021-09-24 15:15:27.272684,218
2021-09-24 15:15:27.272690,211
2021-09-24 15:15:27.272697,204
2021-09-24 15:15:27.272703,194
2021-09-24 15:15:27.272710,179
2021-09-24 15:15:27.272716,165
2021-09-24 15:15:27.272722,150
2021-09-24 15:15:27.497530,138
2021-09-24 15:15:27.497553,126
2021-09-24 15:15:27.497560,109
2021-09-24 15:15:27.497567,94
2021-09-24 15:15:27.497573,92
2021-09-24 15:15:27.497580,94
2021-09-24 15:15:27.497587,92
2021-09-24 15:15:27.497593,82
2021-09-24 15:15:27.497600,72
2021-09-24 15:15:27.497606,68
2021-09-24 15:15:27.497613,70
2021-09-24 15:15:27.497619,80
2021-09-24 15:15:27.497626,82
2021-09-24 15:15:27.497632,75
2021-09-24 15:15:27.497639,65
2021-09-24 15:15:27.497645,60
2021-09-24 15:15:27.497651,58
2021-09-24 15:15:27.497658,58
2021-09-24 15:15:27.497664,58
2021-09-24 15:15:27.497671,55
2021-09-24 15:15:27.497677,48
2021-09-24 15:15:27.497684,48
2021-09-24 15:15:27.497690,51
2021-09-24 15:15:27.497697,48
2021-09-24 15:15:27.497703,48
2021-09-24 15:15:27.497710,48
2021-09-24 15:15:27.497716,46
2021-09-24 15:15:27.497723,41
2021-09-24 15:15:27.497729,38
2021-09-24 15:15:27.497736,41
2021-09-24 15:15:27.812573,51
2021-09-24 15:15:27.812596,55
2021-09-24 15:15:27.812604,38
2021-09-24 15:15:27.812610,9
2021-09-24 15:15:27.812617,-7
2021-09-24 15:15:27.812624,2
2021-09-24 15:15:27.812630,2
2021-09-24 15:15:27.812637,-17
2021-09-24 15:15:27.812643,-14
2021-09-24 15:15:27.812650,17
2021-09-24 15:15:27.812656,34
2021-09-24 15:15:27.812663,31
2021-09-24 15:15:27.812669,26
2021-09-24 15:15:27.812676,21
2021-09-24 15:15:27.812683,24
2021-09-24 15:15:27.812689,26
2021-09-24 15:15:27.812696,24
2021-09-24 15:15:27.812702,24
2021-09-24 15:15:27.812709,24
2021-09-24 15:15:27.812715,-4
2021-09-24 15:15:27.812722,-63
2021-09-24 15:15:27.812728,-170
2021-09-24 15:15:27.812735,-378
2021-09-24 15:15:27.812741,-529
2021-09-24 15:15:27.812748,-335
2021-09-24 15:15:27.812754,187
2021-09-24 15:15:27.812761,609
2021-09-24 15:15:27.812767,502
2021-09-24 15:15:27.812774,143
2021-09-24 15:15:27.812781,51
2021-09-24 15:15:27.990912,53
2021-09-24 15:15:27.990934,-68
2021-09-24 15:15:27.990942,-123
2021-09-24 15:15:27.990949,-94
2021-09-24 15:15:27.990956,-111
2021-09-24 15:15:27.990962,-140
2021-09-24 15:15:27.990969,-140
2021-09-24 15:15:27.990975,-143
2021-09-24 15:15:27.990982,-155
2021-09-24 15:15:27.990989,-167
2021-09-24 15:15:27.990995,-179
2021-09-24 15:15:27.991002,-189
2021-09-24 15:15:27.991008,-208
2021-09-24 15:15:27.991015,-230
2021-09-24 15:15:27.991022,-250
2021-09-24 15:15:27.991028,-274
2021-09-24 15:15:27.991035,-303
2021-09-24 15:15:27.991041,-327
2021-09-24 15:15:27.991048,-354
2021-09-24 15:15:27.991055,-381
2021-09-24 15:15:27.991061,-395
2021-09-24 15:15:27.991068,-398
2021-09-24 15:15:27.991074,-393
2021-09-24 15:15:27.991081,-378
2021-09-24 15:15:27.991088,-349
2021-09-24 15:15:27.991094,-289
2021-09-24 15:15:27.991101,-196
2021-09-24 15:15:27.991108,-92
2021-09-24 15:15:27.991114,2
2021-09-24 15:15:27.991125,75
2021-09-24 15:15:28.172553,133
2021-09-24 15:15:28.172574,182
2021-09-24 15:15:28.172582,208
2021-09-24 15:15:28.172589,218
2021-09-24 15:15:28.172596,225
2021-09-24 15:15:28.172602,225
2021-09-24 15:15:28.172609,216
2021-09-24 15:15:28.172615,199
2021-09-24 15:15:28.172622,187
2021-09-24 15:15:28.172628,179
2021-09-24 15:15:28.172635,174
2021-09-24 15:15:28.172641,155
2021-09-24 15:15:28.172648,136
2021-09-24 15:15:28.172654,126
2021-09-24 15:15:28.172661,116
2021-09-24 15:15:28.172667,104
2021-09-24 15:15:28.172674,97
2021-09-24 15:15:28.172680,94
2021-09-24 15:15:28.172687,87
2021-09-24 15:15:28.172693,82
2021-09-24 15:15:28.172700,82
2021-09-24 15:15:28.172706,80
2021-09-24 15:15:28.172713,82
2021-09-24 15:15:28.172719,87
2021-09-24 15:15:28.172725,89
2021-09-24 15:15:28.172732,80
2021-09-24 15:15:28.172739,68
2021-09-24 15:15:28.172745,68
2021-09-24 15:15:28.172752,72
2021-09-24 15:15:28.172758,63
2021-09-24 15:15:28.442089,60
2021-09-24 15:15:28.442110,65
2021-09-24 15:15:28.442118,55
2021-09-24 15:15:28.442125,51
2021-09-24 15:15:28.442132,51
2021-09-24 15:15:28.442138,46
2021-09-24 15:15:28.442144,41
2021-09-24 15:15:28.442151,43
2021-09-24 15:15:28.442157,41
2021-09-24 15:15:28.442164,31
2021-09-24 15:15:28.442170,29
2021-09-24 15:15:28.442177,29
2021-09-24 15:15:28.442183,21
2021-09-24 15:15:28.442189,7
2021-09-24 15:15:28.442196,-4
2021-09-24 15:15:28.442202,-4
2021-09-24 15:15:28.442209,-4
2021-09-24 15:15:28.442215,-12
2021-09-24 15:15:28.442222,-2
2021-09-24 15:15:28.442228,21
2021-09-24 15:15:28.442235,38
2021-09-24 15:15:28.442241,41
2021-09-24 15:15:28.442248,34
2021-09-24 15:15:28.442254,34
2021-09-24 15:15:28.442261,41
2021-09-24 15:15:28.442267,46
2021-09-24 15:15:28.442274,43
2021-09-24 15:15:28.442280,38
2021-09-24 15:15:28.442286,31
2021-09-24 15:15:28.442293,4
2021-09-24 15:15:28.622590,-53
2021-09-24 15:15:28.622612,-187
2021-09-24 15:15:28.622620,-403
2021-09-24 15:15:28.622626,-473
2021-09-24 15:15:28.622633,-174
2021-09-24 15:15:28.622640,357
2021-09-24 15:15:28.622646,653
2021-09-24 15:15:28.622653,422
2021-09-24 15:15:28.622659,111
2021-09-24 15:15:28.622666,82
2021-09-24 15:15:28.622672,46
2021-09-24 15:15:28.622679,-85
2021-09-24 15:15:28.622689,-104
2021-09-24 15:15:28.622696,-72
2021-09-24 15:15:28.622703,-99
2021-09-24 15:15:28.622709,-126
2021-09-24 15:15:28.622715,-131
2021-09-24 15:15:28.622722,-140
2021-09-24 15:15:28.622728,-150
2021-09-24 15:15:28.622735,-155
2021-09-24 15:15:28.622741,-165
2021-09-24 15:15:28.622747,-182
2021-09-24 15:15:28.622754,-196
2021-09-24 15:15:28.622760,-211
2021-09-24 15:15:28.622766,-228
2021-09-24 15:15:28.622773,-255
2021-09-24 15:15:28.622779,-284
2021-09-24 15:15:28.622786,-315
2021-09-24 15:15:28.622792,-344
2021-09-24 15:15:28.622799,-366
2021-09-24 15:15:28.982996,-376
2021-09-24 15:15:28.983043,-386
2021-09-24 15:15:28.983061,-393
2021-09-24 15:15:28.983077,-383
2021-09-24 15:15:28.983092,-340
2021-09-24 15:15:28.983108,-257
2021-09-24 15:15:28.983122,-155
2021-09-24 15:15:28.983137,-51
2021-09-24 15:15:28.983152,34
2021-09-24 15:15:28.983166,97
2021-09-24 15:15:28.983181,148
2021-09-24 15:15:28.983197,191
2021-09-24 15:15:28.983288,213
2021-09-24 15:15:28.983304,213
2021-09-24 15:15:28.983312,211
2021-09-24 15:15:28.983320,211
2021-09-24 15:15:28.983327,208
2021-09-24 15:15:28.983334,206
2021-09-24 15:15:28.983341,201
2021-09-24 15:15:28.983347,196
2021-09-24 15:15:28.983354,189
2021-09-24 15:15:28.983361,174
2021-09-24 15:15:28.983368,162
2021-09-24 15:15:28.983375,155
2021-09-24 15:15:28.983382,145
2021-09-24 15:15:28.983389,136
2021-09-24 15:15:28.983396,128
2021-09-24 15:15:28.983403,119
2021-09-24 15:15:28.983409,111
2021-09-24 15:15:28.983416,111
2021-09-24 15:15:29.163119,106
2021-09-24 15:15:29.163142,99
2021-09-24 15:15:29.163150,97
2021-09-24 15:15:29.163157,92
2021-09-24 15:15:29.163164,92
2021-09-24 15:15:29.163170,97
2021-09-24 15:15:29.163177,99
2021-09-24 15:15:29.163183,99
2021-09-24 15:15:29.163190,97
2021-09-24 15:15:29.163197,92
2021-09-24 15:15:29.163203,92
2021-09-24 15:15:29.163210,92
2021-09-24 15:15:29.163216,92
2021-09-24 15:15:29.163223,94
2021-09-24 15:15:29.163229,92
2021-09-24 15:15:29.163236,80
2021-09-24 15:15:29.163242,65
2021-09-24 15:15:29.163249,65
2021-09-24 15:15:29.163255,68
2021-09-24 15:15:29.163262,63
2021-09-24 15:15:29.163269,58
2021-09-24 15:15:29.163275,46
2021-09-24 15:15:29.163282,36
2021-09-24 15:15:29.163288,21
2021-09-24 15:15:29.163295,9
2021-09-24 15:15:29.163301,12
2021-09-24 15:15:29.163308,2
2021-09-24 15:15:29.163315,-4
2021-09-24 15:15:29.163321,14
2021-09-24 15:15:29.163328,36
2021-09-24 15:15:29.342545,43
2021-09-24 15:15:29.342569,43
2021-09-24 15:15:29.342577,38
2021-09-24 15:15:29.342584,36
2021-09-24 15:15:29.342590,38
2021-09-24 15:15:29.342597,43
2021-09-24 15:15:29.342603,41
2021-09-24 15:15:29.342610,34
2021-09-24 15:15:29.342616,12
2021-09-24 15:15:29.342623,-24
2021-09-24 15:15:29.342630,-89
2021-09-24 15:15:29.342636,-252
2021-09-24 15:15:29.342643,-468
2021-09-24 15:15:29.342649,-463
2021-09-24 15:15:29.342656,-102
2021-09-24 15:15:29.342662,403
2021-09-24 15:15:29.342669,631
2021-09-24 15:15:29.342676,366
2021-09-24 15:15:29.342682,72
2021-09-24 15:15:29.342689,53
2021-09-24 15:15:29.342695,-7
2021-09-24 15:15:29.342702,-126
2021-09-24 15:15:29.342708,-119
2021-09-24 15:15:29.342715,-92
2021-09-24 15:15:29.342721,-123
2021-09-24 15:15:29.342728,-140
2021-09-24 15:15:29.342734,-140
2021-09-24 15:15:29.342741,-153
2021-09-24 15:15:29.342747,-160
2021-09-24 15:15:29.342753,-160
2021-09-24 15:15:29.567131,-174
2021-09-24 15:15:29.567153,-191
2021-09-24 15:15:29.567161,-204
2021-09-24 15:15:29.567168,-221
2021-09-24 15:15:29.567174,-240
2021-09-24 15:15:29.567181,-262
2021-09-24 15:15:29.567187,-293
2021-09-24 15:15:29.567194,-332
2021-09-24 15:15:29.567200,-366
2021-09-24 15:15:29.567207,-386
2021-09-24 15:15:29.567214,-400
2021-09-24 15:15:29.567220,-405
2021-09-24 15:15:29.567227,-400
2021-09-24 15:15:29.567233,-383
2021-09-24 15:15:29.567244,-337
2021-09-24 15:15:29.567251,-255
2021-09-24 15:15:29.567271,-153
2021-09-24 15:15:29.567277,-46
2021-09-24 15:15:29.567282,46
2021-09-24 15:15:29.567287,114
2021-09-24 15:15:29.567292,162
2021-09-24 15:15:29.567297,201
2021-09-24 15:15:29.567303,223
2021-09-24 15:15:29.567308,233
2021-09-24 15:15:29.567313,235
2021-09-24 15:15:29.567318,230
2021-09-24 15:15:29.567323,228
2021-09-24 15:15:29.567329,223
2021-09-24 15:15:29.567336,216
2021-09-24 15:15:29.567342,208
2021-09-24 15:15:29.792421,196
2021-09-24 15:15:29.792442,184
2021-09-24 15:15:29.792450,174
2021-09-24 15:15:29.792457,165
2021-09-24 15:15:29.792463,157
2021-09-24 15:15:29.792470,153
2021-09-24 15:15:29.792476,138
2021-09-24 15:15:29.792483,119
2021-09-24 15:15:29.792489,114
2021-09-24 15:15:29.792496,114
2021-09-24 15:15:29.792503,106
2021-09-24 15:15:29.792509,104
2021-09-24 15:15:29.792516,99
2021-09-24 15:15:29.792522,82
2021-09-24 15:15:29.792529,72
2021-09-24 15:15:29.792535,77
2021-09-24 15:15:29.792541,82
2021-09-24 15:15:29.792548,82
2021-09-24 15:15:29.792555,80
2021-09-24 15:15:29.792561,80
2021-09-24 15:15:29.792567,75
2021-09-24 15:15:29.792574,65
2021-09-24 15:15:29.792580,58
2021-09-24 15:15:29.792587,58
2021-09-24 15:15:29.792593,60
2021-09-24 15:15:29.792600,60
2021-09-24 15:15:29.792606,63
2021-09-24 15:15:29.792613,60
2021-09-24 15:15:29.792619,60
2021-09-24 15:15:29.792626,68
2021-09-24 15:15:30.105843,68
2021-09-24 15:15:30.105864,60
2021-09-24 15:15:30.105872,46
2021-09-24 15:15:30.105879,26
2021-09-24 15:15:30.105886,24
2021-09-24 15:15:30.105892,26
2021-09-24 15:15:30.105899,7
2021-09-24 15:15:30.105905,2
2021-09-24 15:15:30.105912,26
2021-09-24 15:15:30.105919,38
2021-09-24 15:15:30.105925,38
2021-09-24 15:15:30.105932,34
2021-09-24 15:15:30.105938,29
2021-09-24 15:15:30.105945,29
2021-09-24 15:15:30.105951,34
2021-09-24 15:15:30.105958,31
2021-09-24 15:15:30.105964,29
2021-09-24 15:15:30.105971,29
2021-09-24 15:15:30.105977,14
2021-09-24 15:15:30.105984,-19
2021-09-24 15:15:30.105990,-92
2021-09-24 15:15:30.105997,-267
2021-09-24 15:15:30.106003,-488
2021-09-24 15:15:30.106010,-466
2021-09-24 15:15:30.106016,-80
2021-09-24 15:15:30.106023,437
2021-09-24 15:15:30.106030,641
2021-09-24 15:15:30.106036,354
2021-09-24 15:15:30.106043,72
2021-09-24 15:15:30.106049,58
2021-09-24 15:15:30.242408,-2
2021-09-24 15:15:30.242428,-109
2021-09-24 15:15:30.242436,-97
2021-09-24 15:15:30.242443,-82
2021-09-24 15:15:30.242450,-119
2021-09-24 15:15:30.242457,-133
2021-09-24 15:15:30.242463,-128
2021-09-24 15:15:30.242470,-138
2021-09-24 15:15:30.242476,-153
2021-09-24 15:15:30.242483,-160
2021-09-24 15:15:30.242490,-170
2021-09-24 15:15:30.242496,-187
2021-09-24 15:15:30.242503,-204
2021-09-24 15:15:30.242509,-218
2021-09-24 15:15:30.242516,-240
2021-09-24 15:15:30.242522,-267
2021-09-24 15:15:30.242529,-298
2021-09-24 15:15:30.242536,-335
2021-09-24 15:15:30.242542,-371
2021-09-24 15:15:30.242549,-405
2021-09-24 15:15:30.242555,-420
2021-09-24 15:15:30.242562,-422
2021-09-24 15:15:30.242568,-417
2021-09-24 15:15:30.242575,-391
2021-09-24 15:15:30.242581,-337
2021-09-24 15:15:30.242588,-259
2021-09-24 15:15:30.242594,-167
2021-09-24 15:15:30.242601,-63
2021-09-24 15:15:30.242607,29
2021-09-24 15:15:30.242614,102
2021-09-24 15:15:30.467060,160
2021-09-24 15:15:30.467080,199
2021-09-24 15:15:30.467088,216
2021-09-24 15:15:30.467095,221
2021-09-24 15:15:30.467101,216
2021-09-24 15:15:30.467108,213
2021-09-24 15:15:30.467115,213
2021-09-24 15:15:30.467121,213
2021-09-24 15:15:30.467128,204
2021-09-24 15:15:30.467134,189
2021-09-24 15:15:30.467141,174
2021-09-24 15:15:30.467148,165
2021-09-24 15:15:30.467154,160
2021-09-24 15:15:30.467161,150
2021-09-24 15:15:30.467167,140
2021-09-24 15:15:30.467174,128
2021-09-24 15:15:30.467181,119
2021-09-24 15:15:30.467187,114
2021-09-24 15:15:30.467194,111
2021-09-24 15:15:30.467200,106
2021-09-24 15:15:30.467207,102
2021-09-24 15:15:30.467213,97
2021-09-24 15:15:30.467220,97
2021-09-24 15:15:30.467226,99
2021-09-24 15:15:30.467233,102
2021-09-24 15:15:30.467239,104
2021-09-24 15:15:30.467246,102
2021-09-24 15:15:30.467252,94
2021-09-24 15:15:30.467259,92
2021-09-24 15:15:30.467265,94
2021-09-24 15:15:30.692536,94
2021-09-24 15:15:30.692560,94
2021-09-24 15:15:30.692568,94
2021-09-24 15:15:30.692575,87
2021-09-24 15:15:30.692581,77
2021-09-24 15:15:30.692588,80
2021-09-24 15:15:30.692594,82
2021-09-24 15:15:30.692600,80
2021-09-24 15:15:30.692607,75
2021-09-24 15:15:30.692613,65
2021-09-24 15:15:30.692620,55
2021-09-24 15:15:30.692626,58
2021-09-24 15:15:30.692633,65
2021-09-24 15:15:30.692639,68
2021-09-24 15:15:30.692645,55
2021-09-24 15:15:30.692652,34
2021-09-24 15:15:30.692658,17
2021-09-24 15:15:30.692665,21
2021-09-24 15:15:30.692671,26
2021-09-24 15:15:30.692678,17
2021-09-24 15:15:30.692684,21
2021-09-24 15:15:30.692691,38
2021-09-24 15:15:30.692697,51
2021-09-24 15:15:30.692703,60
2021-09-24 15:15:30.692710,55
2021-09-24 15:15:30.692716,38
2021-09-24 15:15:30.692723,26
2021-09-24 15:15:30.692729,21
2021-09-24 15:15:30.692736,19
2021-09-24 15:15:30.692742,14
2021-09-24 15:15:30.962166,9
2021-09-24 15:15:30.962186,-7
2021-09-24 15:15:30.962194,-53
2021-09-24 15:15:30.962200,-155
2021-09-24 15:15:30.962207,-354
2021-09-24 15:15:30.962214,-529
2021-09-24 15:15:30.962221,-398
2021-09-24 15:15:30.962227,65
2021-09-24 15:15:30.962234,531
2021-09-24 15:15:30.962241,568
2021-09-24 15:15:30.962247,221
2021-09-24 15:15:30.962254,34
2021-09-24 15:15:30.962260,38
2021-09-24 15:15:30.962267,-60
2021-09-24 15:15:30.962273,-143
2021-09-24 15:15:30.962280,-114
2021-09-24 15:15:30.962287,-114
2021-09-24 15:15:30.962293,-143
2021-09-24 15:15:30.962300,-143
2021-09-24 15:15:30.962307,-143
2021-09-24 15:15:30.962313,-162
2021-09-24 15:15:30.962320,-174
2021-09-24 15:15:30.962326,-177
2021-09-24 15:15:30.962333,-187
2021-09-24 15:15:30.962339,-196
2021-09-24 15:15:30.962346,-211
2021-09-24 15:15:30.962353,-233
2021-09-24 15:15:30.962359,-257
2021-09-24 15:15:30.962366,-279
2021-09-24 15:15:30.962373,-303
2021-09-24 15:15:31.187656,-332
2021-09-24 15:15:31.187686,-364
2021-09-24 15:15:31.187698,-391
2021-09-24 15:15:31.187709,-405
2021-09-24 15:15:31.187719,-403
2021-09-24 15:15:31.187729,-391
2021-09-24 15:15:31.187739,-359
2021-09-24 15:15:31.187749,-306
2021-09-24 15:15:31.187759,-230
2021-09-24 15:15:31.187768,-133
2021-09-24 15:15:31.187778,-26
2021-09-24 15:15:31.187788,60
2021-09-24 15:15:31.187798,128
2021-09-24 15:15:31.187808,177
2021-09-24 15:15:31.187818,199
2021-09-24 15:15:31.187827,211
2021-09-24 15:15:31.187837,223
2021-09-24 15:15:31.187847,228
2021-09-24 15:15:31.187857,228
2021-09-24 15:15:31.187867,223
2021-09-24 15:15:31.187877,216
2021-09-24 15:15:31.187886,206
2021-09-24 15:15:31.187896,196
2021-09-24 15:15:31.187906,189
2021-09-24 15:15:31.187916,177
2021-09-24 15:15:31.187925,167
2021-09-24 15:15:31.187936,155
2021-09-24 15:15:31.187945,145
2021-09-24 15:15:31.187955,140
2021-09-24 15:15:31.187965,133
2021-09-24 15:15:31.457750,123
2021-09-24 15:15:31.457774,109
2021-09-24 15:15:31.457782,97
2021-09-24 15:15:31.457788,92
2021-09-24 15:15:31.457795,87
2021-09-24 15:15:31.457801,85
2021-09-24 15:15:31.457808,87
2021-09-24 15:15:31.457814,80
2021-09-24 15:15:31.457820,72
2021-09-24 15:15:31.457826,77
2021-09-24 15:15:31.457833,82
2021-09-24 15:15:31.457839,82
2021-09-24 15:15:31.457846,82
2021-09-24 15:15:31.457852,75
2021-09-24 15:15:31.457858,70
2021-09-24 15:15:31.457864,70
2021-09-24 15:15:31.457871,75
2021-09-24 15:15:31.457909,75
2021-09-24 15:15:31.457916,75
2021-09-24 15:15:31.457922,72
2021-09-24 15:15:31.457928,70
2021-09-24 15:15:31.457935,68
2021-09-24 15:15:31.457941,65
2021-09-24 15:15:31.457951,58
2021-09-24 15:15:31.457957,55
2021-09-24 15:15:31.457964,60
2021-09-24 15:15:31.457970,60
2021-09-24 15:15:31.457976,51
2021-09-24 15:15:31.457983,34
2021-09-24 15:15:31.457989,21
2021-09-24 15:15:31.637605,24
2021-09-24 15:15:31.637629,24
2021-09-24 15:15:31.637637,12
2021-09-24 15:15:31.637644,19
2021-09-24 15:15:31.637651,43
2021-09-24 15:15:31.637658,53
2021-09-24 15:15:31.637665,51
2021-09-24 15:15:31.637672,46
2021-09-24 15:15:31.637679,43
2021-09-24 15:15:31.637686,41
2021-09-24 15:15:31.637692,38
2021-09-24 15:15:31.637699,34
2021-09-24 15:15:31.637706,24
2021-09-24 15:15:31.637713,14
2021-09-24 15:15:31.637720,-2
2021-09-24 15:15:31.637726,-46
2021-09-24 15:15:31.637733,-150
2021-09-24 15:15:31.637740,-359
2021-09-24 15:15:31.637747,-529
2021-09-24 15:15:31.637754,-359
2021-09-24 15:15:31.637761,143
2021-09-24 15:15:31.637768,585
2021-09-24 15:15:31.637775,558
2021-09-24 15:15:31.637781,201
2021-09-24 15:15:31.637788,41
2021-09-24 15:15:31.637795,34
2021-09-24 15:15:31.637802,-72
2021-09-24 15:15:31.637809,-136
2021-09-24 15:15:31.637816,-102
2021-09-24 15:15:31.637822,-106
2021-09-24 15:15:31.862150,-138
2021-09-24 15:15:31.862171,-138
2021-09-24 15:15:31.862179,-140
2021-09-24 15:15:31.862186,-160
2021-09-24 15:15:31.862193,-167
2021-09-24 15:15:31.862200,-174
2021-09-24 15:15:31.862207,-201
2021-09-24 15:15:31.862214,-235
2021-09-24 15:15:31.862220,-255
2021-09-24 15:15:31.862227,-269
2021-09-24 15:15:31.862234,-291
2021-09-24 15:15:31.862240,-320
2021-09-24 15:15:31.862247,-354
2021-09-24 15:15:31.862254,-383
2021-09-24 15:15:31.862261,-408
2021-09-24 15:15:31.862268,-427
2021-09-24 15:15:31.862274,-437
2021-09-24 15:15:31.862281,-437
2021-09-24 15:15:31.862288,-422
2021-09-24 15:15:31.862295,-386
2021-09-24 15:15:31.862302,-325
2021-09-24 15:15:31.862308,-238
2021-09-24 15:15:31.862315,-131
2021-09-24 15:15:31.862322,-29
2021-09-24 15:15:31.862329,55
2021-09-24 15:15:31.862336,123
2021-09-24 15:15:31.862342,170
2021-09-24 15:15:31.862349,194
2021-09-24 15:15:31.862356,213
2021-09-24 15:15:31.862363,223
2021-09-24 15:15:32.131329,223
2021-09-24 15:15:32.131351,223
2021-09-24 15:15:32.131364,218
2021-09-24 15:15:32.131376,208
2021-09-24 15:15:32.131388,196
2021-09-24 15:15:32.131400,182
2021-09-24 15:15:32.131412,170
2021-09-24 15:15:32.131442,162
2021-09-24 15:15:32.131471,155
2021-09-24 15:15:32.131481,138
2021-09-24 15:15:32.131488,121
2021-09-24 15:15:32.131494,106
2021-09-24 15:15:32.131501,97
2021-09-24 15:15:32.131507,97
2021-09-24 15:15:32.131514,97
2021-09-24 15:15:32.131521,94
2021-09-24 15:15:32.131527,89
2021-09-24 15:15:32.131534,85
2021-09-24 15:15:32.131540,85
2021-09-24 15:15:32.131547,87
2021-09-24 15:15:32.131553,89
2021-09-24 15:15:32.131560,92
2021-09-24 15:15:32.131566,89
2021-09-24 15:15:32.131573,87
2021-09-24 15:15:32.131579,85
2021-09-24 15:15:32.131586,87
2021-09-24 15:15:32.131592,85
2021-09-24 15:15:32.131599,87
2021-09-24 15:15:32.131605,89
2021-09-24 15:15:32.131612,87
2021-09-24 15:15:32.312660,85
2021-09-24 15:15:32.312690,85
2021-09-24 15:15:32.312702,77
2021-09-24 15:15:32.312713,68
2021-09-24 15:15:32.312723,58
2021-09-24 15:15:32.312733,55
2021-09-24 15:15:32.312743,58
2021-09-24 15:15:32.312753,55
2021-09-24 15:15:32.312762,41
2021-09-24 15:15:32.312772,21
2021-09-24 15:15:32.312782,12
2021-09-24 15:15:32.312792,7
2021-09-24 15:15:32.312802,-7
2021-09-24 15:15:32.312812,-9
2021-09-24 15:15:32.312822,4
2021-09-24 15:15:32.312832,19
2021-09-24 15:15:32.312842,21
2021-09-24 15:15:32.312852,24
2021-09-24 15:15:32.312862,19
2021-09-24 15:15:32.312872,14
2021-09-24 15:15:32.312882,19
2021-09-24 15:15:32.312892,14
2021-09-24 15:15:32.312901,4
2021-09-24 15:15:32.312911,4
2021-09-24 15:15:32.312921,-2
2021-09-24 15:15:32.312931,-36
2021-09-24 15:15:32.312942,-126
2021-09-24 15:15:32.312952,-340
2021-09-24 15:15:32.312962,-553
2021-09-24 15:15:32.312972,-454
2021-09-24 15:15:32.537678,26
2021-09-24 15:15:32.537709,534
2021-09-24 15:15:32.537721,566
2021-09-24 15:15:32.537731,201
2021-09-24 15:15:32.537741,29
2021-09-24 15:15:32.537751,46
2021-09-24 15:15:32.537761,-48
2021-09-24 15:15:32.537771,-126
2021-09-24 15:15:32.537781,-104
2021-09-24 15:15:32.537791,-116
2021-09-24 15:15:32.537801,-153
2021-09-24 15:15:32.537811,-150
2021-09-24 15:15:32.537821,-150
2021-09-24 15:15:32.537831,-165
2021-09-24 15:15:32.537841,-179
2021-09-24 15:15:32.537851,-194
2021-09-24 15:15:32.537861,-208
2021-09-24 15:15:32.537871,-221
2021-09-24 15:15:32.537881,-235
2021-09-24 15:15:32.537891,-250
2021-09-24 15:15:32.537901,-274
2021-09-24 15:15:32.537911,-306
2021-09-24 15:15:32.537921,-332
2021-09-24 15:15:32.537931,-357
2021-09-24 15:15:32.537941,-388
2021-09-24 15:15:32.537950,-405
2021-09-24 15:15:32.537960,-412
2021-09-24 15:15:32.537970,-415
2021-09-24 15:15:32.537980,-400
2021-09-24 15:15:32.537990,-361
2021-09-24 15:15:32.807725,-296
2021-09-24 15:15:32.807748,-204
2021-09-24 15:15:32.807756,-104
2021-09-24 15:15:32.807763,-17
2021-09-24 15:15:32.807769,63
2021-09-24 15:15:32.807776,133
2021-09-24 15:15:32.807813,179
2021-09-24 15:15:32.807820,208
2021-09-24 15:15:32.807826,223
2021-09-24 15:15:32.807833,221
2021-09-24 15:15:32.807839,218
2021-09-24 15:15:32.807846,223
2021-09-24 15:15:32.807852,218
2021-09-24 15:15:32.807859,211
2021-09-24 15:15:32.807865,201
2021-09-24 15:15:32.807872,182
2021-09-24 15:15:32.807878,170
2021-09-24 15:15:32.807885,157
2021-09-24 15:15:32.807892,136
2021-09-24 15:15:32.807898,116
2021-09-24 15:15:32.807905,109
2021-09-24 15:15:32.807911,104
2021-09-24 15:15:32.807917,97
2021-09-24 15:15:32.807924,92
2021-09-24 15:15:32.807930,89
2021-09-24 15:15:32.807937,92
2021-09-24 15:15:32.807944,87
2021-09-24 15:15:32.807950,80
2021-09-24 15:15:32.807957,85
2021-09-24 15:15:32.807963,92
2021-09-24 15:15:33.032611,94
2021-09-24 15:15:33.032633,97
2021-09-24 15:15:33.032640,92
2021-09-24 15:15:33.032647,85
2021-09-24 15:15:33.032654,92
2021-09-24 15:15:33.032660,99
2021-09-24 15:15:33.032667,94
2021-09-24 15:15:33.032673,92
2021-09-24 15:15:33.032679,87
2021-09-24 15:15:33.032686,75
2021-09-24 15:15:33.032692,77
2021-09-24 15:15:33.032699,82
2021-09-24 15:15:33.032705,72
2021-09-24 15:15:33.032712,68
2021-09-24 15:15:33.032718,65
2021-09-24 15:15:33.032725,58
2021-09-24 15:15:33.032731,51
2021-09-24 15:15:33.032738,34
2021-09-24 15:15:33.032744,14
2021-09-24 15:15:33.032751,14
2021-09-24 15:15:33.032757,9
2021-09-24 15:15:33.032764,4
2021-09-24 15:15:33.032770,26
2021-09-24 15:15:33.032777,48
2021-09-24 15:15:33.032783,53
2021-09-24 15:15:33.032790,53
2021-09-24 15:15:33.032796,51
2021-09-24 15:15:33.032803,41
2021-09-24 15:15:33.032809,41
2021-09-24 15:15:33.032816,46
2021-09-24 15:15:33.257671,38
2021-09-24 15:15:33.257703,26
2021-09-24 15:15:33.257715,17
2021-09-24 15:15:33.257726,-12
2021-09-24 15:15:33.257736,-70
2021-09-24 15:15:33.257746,-221
2021-09-24 15:15:33.257757,-451
2021-09-24 15:15:33.257767,-507
2021-09-24 15:15:33.257777,-177
2021-09-24 15:15:33.257787,381
2021-09-24 15:15:33.257797,636
2021-09-24 15:15:33.257807,352
2021-09-24 15:15:33.257817,68
2021-09-24 15:15:33.257827,68
2021-09-24 15:15:33.257837,9
2021-09-24 15:15:33.257847,-119
2021-09-24 15:15:33.257890,-116
2021-09-24 15:15:33.257900,-92
2021-09-24 15:15:33.257910,-121
2021-09-24 15:15:33.257920,-133
2021-09-24 15:15:33.257930,-138
2021-09-24 15:15:33.257940,-157
2021-09-24 15:15:33.257950,-162
2021-09-24 15:15:33.257960,-167
2021-09-24 15:15:33.257970,-194
2021-09-24 15:15:33.257980,-218
2021-09-24 15:15:33.257990,-228
2021-09-24 15:15:33.258000,-245
2021-09-24 15:15:33.258009,-267
2021-09-24 15:15:33.258019,-289
2021-09-24 15:15:33.482631,-318
2021-09-24 15:15:33.482656,-352
2021-09-24 15:15:33.482664,-378
2021-09-24 15:15:33.482671,-400
2021-09-24 15:15:33.482678,-412
2021-09-24 15:15:33.482685,-412
2021-09-24 15:15:33.482692,-403
2021-09-24 15:15:33.482699,-381
2021-09-24 15:15:33.482706,-327
2021-09-24 15:15:33.482712,-242
2021-09-24 15:15:33.482719,-138
2021-09-24 15:15:33.482726,-36
2021-09-24 15:15:33.482733,48
2021-09-24 15:15:33.482740,109
2021-09-24 15:15:33.482747,160
2021-09-24 15:15:33.482754,196
2021-09-24 15:15:33.482761,213
2021-09-24 15:15:33.482775,225
2021-09-24 15:15:33.482782,228
2021-09-24 15:15:33.482789,225
2021-09-24 15:15:33.482796,221
2021-09-24 15:15:33.482803,216
2021-09-24 15:15:33.482810,201
2021-09-24 15:15:33.482817,187
2021-09-24 15:15:33.482824,177
2021-09-24 15:15:33.482831,172
2021-09-24 15:15:33.482870,162
2021-09-24 15:15:33.482877,148
2021-09-24 15:15:33.482883,138
2021-09-24 15:15:33.482890,133
2021-09-24 15:15:33.752764,123
2021-09-24 15:15:33.752787,116
2021-09-24 15:15:33.752795,109
2021-09-24 15:15:33.752802,106
2021-09-24 15:15:33.752809,109
2021-09-24 15:15:33.752815,104
2021-09-24 15:15:33.752822,97
2021-09-24 15:15:33.752828,94
2021-09-24 15:15:33.752835,99
2021-09-24 15:15:33.752841,97
2021-09-24 15:15:33.752848,99
2021-09-24 15:15:33.752854,99
2021-09-24 15:15:33.752861,92
2021-09-24 15:15:33.752867,92
2021-09-24 15:15:33.752874,97
2021-09-24 15:15:33.752880,94
2021-09-24 15:15:33.752887,92
2021-09-24 15:15:33.752893,92
2021-09-24 15:15:33.752900,92
2021-09-24 15:15:33.752906,89
2021-09-24 15:15:33.752913,87
2021-09-24 15:15:33.752919,87
2021-09-24 15:15:33.752926,87
2021-09-24 15:15:33.752932,87
2021-09-24 15:15:33.752939,77
2021-09-24 15:15:33.752945,55
2021-09-24 15:15:33.752952,38
2021-09-24 15:15:33.752958,31
2021-09-24 15:15:33.752965,34
2021-09-24 15:15:33.752971,24
2021-09-24 15:15:33.932758,17
2021-09-24 15:15:33.932779,36
2021-09-24 15:15:33.932787,55
2021-09-24 15:15:33.932794,53
2021-09-24 15:15:33.932801,51
2021-09-24 15:15:33.932807,48
2021-09-24 15:15:33.932814,38
2021-09-24 15:15:33.932820,38
2021-09-24 15:15:33.932827,41
2021-09-24 15:15:33.932833,34
2021-09-24 15:15:33.932840,24
2021-09-24 15:15:33.932846,2
2021-09-24 15:15:33.932853,-36
2021-09-24 15:15:33.932859,-111
2021-09-24 15:15:33.932866,-296
2021-09-24 15:15:33.932872,-507
2021-09-24 15:15:33.932879,-451
2021-09-24 15:15:33.932886,-43
2021-09-24 15:15:33.932892,459
2021-09-24 15:15:33.932899,609
2021-09-24 15:15:33.932905,291
2021-09-24 15:15:33.932912,53
2021-09-24 15:15:33.932918,65
2021-09-24 15:15:33.932925,-17
2021-09-24 15:15:33.932932,-123
2021-09-24 15:15:33.932938,-104
2021-09-24 15:15:33.932945,-99
2021-09-24 15:15:33.932951,-143
2021-09-24 15:15:33.932958,-145
2021-09-24 15:15:33.932964,-138
2021-09-24 15:15:34.291967,-157
2021-09-24 15:15:34.291991,-165
2021-09-24 15:15:34.291999,-167
2021-09-24 15:15:34.292007,-182
2021-09-24 15:15:34.292014,-204
2021-09-24 15:15:34.292021,-225
2021-09-24 15:15:34.292028,-240
2021-09-24 15:15:34.292035,-257
2021-09-24 15:15:34.292041,-281
2021-09-24 15:15:34.292048,-315
2021-09-24 15:15:34.292055,-352
2021-09-24 15:15:34.292062,-381
2021-09-24 15:15:34.292069,-398
2021-09-24 15:15:34.292076,-410
2021-09-24 15:15:34.292083,-415
2021-09-24 15:15:34.292089,-405
2021-09-24 15:15:34.292096,-374
2021-09-24 15:15:34.292103,-318
2021-09-24 15:15:34.292110,-225
2021-09-24 15:15:34.292117,-119
2021-09-24 15:15:34.292124,-21
2021-09-24 15:15:34.292130,65
2021-09-24 15:15:34.292137,133
2021-09-24 15:15:34.292144,184
2021-09-24 15:15:34.292151,216
2021-09-24 15:15:34.292158,233
2021-09-24 15:15:34.292165,240
2021-09-24 15:15:34.292172,240
2021-09-24 15:15:34.292178,235
2021-09-24 15:15:34.292185,225
2021-09-24 15:15:34.427688,221
2021-09-24 15:15:34.427713,218
2021-09-24 15:15:34.427721,208
2021-09-24 15:15:34.427728,191
2021-09-24 15:15:34.427735,179
2021-09-24 15:15:34.427742,165
2021-09-24 15:15:34.427749,145
2021-09-24 15:15:34.427756,131
2021-09-24 15:15:34.427762,126
2021-09-24 15:15:34.427769,114
2021-09-24 15:15:34.427776,97
2021-09-24 15:15:34.427783,92
2021-09-24 15:15:34.427790,97
2021-09-24 15:15:34.427797,94
2021-09-24 15:15:34.427803,89
2021-09-24 15:15:34.427810,87
2021-09-24 15:15:34.427817,85
2021-09-24 15:15:34.427824,87
2021-09-24 15:15:34.427831,94
2021-09-24 15:15:34.427869,94
2021-09-24 15:15:34.427876,94
2021-09-24 15:15:34.427883,92
2021-09-24 15:15:34.427890,92
2021-09-24 15:15:34.427896,92
2021-09-24 15:15:34.427903,92
2021-09-24 15:15:34.427910,94
2021-09-24 15:15:34.427917,92
2021-09-24 15:15:34.427924,82
2021-09-24 15:15:34.427930,77
2021-09-24 15:15:34.427937,80
2021-09-24 15:15:34.697686,77
2021-09-24 15:15:34.697710,72
2021-09-24 15:15:34.697718,68
2021-09-24 15:15:34.697724,65
2021-09-24 15:15:34.697731,68
2021-09-24 15:15:34.697737,65
2021-09-24 15:15:34.697744,55
2021-09-24 15:15:34.697751,38
2021-09-24 15:15:34.697757,21
2021-09-24 15:15:34.697763,14
2021-09-24 15:15:34.697770,14
2021-09-24 15:15:34.697776,12
2021-09-24 15:15:34.697783,21
2021-09-24 15:15:34.697789,43
2021-09-24 15:15:34.697796,51
2021-09-24 15:15:34.697802,43
2021-09-24 15:15:34.697809,41
2021-09-24 15:15:34.697815,46
2021-09-24 15:15:34.697822,51
2021-09-24 15:15:34.697828,53
2021-09-24 15:15:34.697834,46
2021-09-24 15:15:34.697841,36
2021-09-24 15:15:34.697848,34
2021-09-24 15:15:34.697854,12
2021-09-24 15:15:34.697861,-41
2021-09-24 15:15:34.697867,-145
2021-09-24 15:15:34.697874,-361
2021-09-24 15:15:34.697881,-529
2021-09-24 15:15:34.697918,-352
2021-09-24 15:15:34.697925,128
2021-09-24 15:15:34.922803,568
2021-09-24 15:15:34.922825,568
2021-09-24 15:15:34.922833,213
2021-09-24 15:15:34.922840,41
2021-09-24 15:15:34.922847,48
2021-09-24 15:15:34.922854,-51
2021-09-24 15:15:34.922860,-121
2021-09-24 15:15:34.922867,-92
2021-09-24 15:15:34.922873,-106
2021-09-24 15:15:34.922880,-148
2021-09-24 15:15:34.922886,-145
2021-09-24 15:15:34.922893,-148
2021-09-24 15:15:34.922899,-174
2021-09-24 15:15:34.922906,-187
2021-09-24 15:15:34.922913,-191
2021-09-24 15:15:34.922919,-208
2021-09-24 15:15:34.922926,-221
2021-09-24 15:15:34.922932,-230
2021-09-24 15:15:34.922968,-250
2021-09-24 15:15:34.922981,-274
2021-09-24 15:15:34.923025,-306
2021-09-24 15:15:34.923036,-340
2021-09-24 15:15:34.923059,-364
2021-09-24 15:15:34.923070,-391
2021-09-24 15:15:34.923080,-415
2021-09-24 15:15:34.923090,-425
2021-09-24 15:15:34.923097,-427
2021-09-24 15:15:34.923104,-417
2021-09-24 15:15:34.923110,-378
2021-09-24 15:15:34.923116,-313
2021-09-24 15:15:35.147765,-221
2021-09-24 15:15:35.147796,-114
2021-09-24 15:15:35.147808,-14
2021-09-24 15:15:35.147819,65
2021-09-24 15:15:35.147829,128
2021-09-24 15:15:35.147839,174
2021-09-24 15:15:35.147849,201
2021-09-24 15:15:35.147859,216
2021-09-24 15:15:35.147869,216
2021-09-24 15:15:35.147879,218
2021-09-24 15:15:35.147889,221
2021-09-24 15:15:35.147899,218
2021-09-24 15:15:35.147909,213
2021-09-24 15:15:35.147919,201
2021-09-24 15:15:35.147929,182
2021-09-24 15:15:35.147939,172
2021-09-24 15:15:35.147949,170
2021-09-24 15:15:35.147959,162
2021-09-24 15:15:35.147969,150
2021-09-24 15:15:35.147979,136
2021-09-24 15:15:35.147990,121
2021-09-24 15:15:35.148000,114
2021-09-24 15:15:35.148010,109
2021-09-24 15:15:35.148020,106
2021-09-24 15:15:35.148030,102
2021-09-24 15:15:35.148040,97
2021-09-24 15:15:35.148050,92
2021-09-24 15:15:35.148060,92
2021-09-24 15:15:35.148070,94
2021-09-24 15:15:35.148080,97
2021-09-24 15:15:35.327207,97
2021-09-24 15:15:35.327228,94
2021-09-24 15:15:35.327236,94
2021-09-24 15:15:35.327243,97
2021-09-24 15:15:35.327250,97
2021-09-24 15:15:35.327256,97
2021-09-24 15:15:35.327263,94
2021-09-24 15:15:35.327270,89
2021-09-24 15:15:35.327277,85
2021-09-24 15:15:35.327284,87
2021-09-24 15:15:35.327290,89
2021-09-24 15:15:35.327297,89
2021-09-24 15:15:35.327304,82
2021-09-24 15:15:35.327311,72
2021-09-24 15:15:35.327318,72
2021-09-24 15:15:35.327324,82
2021-09-24 15:15:35.327331,80
2021-09-24 15:15:35.327338,53
2021-09-24 15:15:35.327345,21
2021-09-24 15:15:35.327351,4
2021-09-24 15:15:35.327358,9
2021-09-24 15:15:35.327365,12
2021-09-24 15:15:35.327372,7
2021-09-24 15:15:35.327378,14
2021-09-24 15:15:35.327385,31
2021-09-24 15:15:35.327392,41
2021-09-24 15:15:35.327399,46
2021-09-24 15:15:35.327405,46
2021-09-24 15:15:35.327412,46
2021-09-24 15:15:35.327419,51
2021-09-24 15:15:35.597687,48
2021-09-24 15:15:35.597710,46
2021-09-24 15:15:35.597718,43
2021-09-24 15:15:35.597725,36
2021-09-24 15:15:35.597732,19
2021-09-24 15:15:35.597738,-24
2021-09-24 15:15:35.597745,-123
2021-09-24 15:15:35.597752,-327
2021-09-24 15:15:35.597758,-522
2021-09-24 15:15:35.597765,-425
2021-09-24 15:15:35.597771,19
2021-09-24 15:15:35.597778,507
2021-09-24 15:15:35.597784,600
2021-09-24 15:15:35.597791,262
2021-09-24 15:15:35.597798,36
2021-09-24 15:15:35.597804,38
2021-09-24 15:15:35.597811,-48
2021-09-24 15:15:35.597817,-138
2021-09-24 15:15:35.597824,-114
2021-09-24 15:15:35.597830,-111
2021-09-24 15:15:35.597837,-145
2021-09-24 15:15:35.597843,-148
2021-09-24 15:15:35.597850,-145
2021-09-24 15:15:35.597856,-160
2021-09-24 15:15:35.597863,-170
2021-09-24 15:15:35.597869,-172
2021-09-24 15:15:35.597876,-182
2021-09-24 15:15:35.597882,-199
2021-09-24 15:15:35.597921,-211
2021-09-24 15:15:35.597928,-230
2021-09-24 15:15:35.822732,-255
2021-09-24 15:15:35.822756,-279
2021-09-24 15:15:35.822764,-306
2021-09-24 15:15:35.822771,-340
2021-09-24 15:15:35.822778,-371
2021-09-24 15:15:35.822785,-398
2021-09-24 15:15:35.822792,-420
2021-09-24 15:15:35.822798,-422
2021-09-24 15:15:35.822805,-408
2021-09-24 15:15:35.822812,-381
2021-09-24 15:15:35.822819,-330
2021-09-24 15:15:35.822825,-250
2021-09-24 15:15:35.822832,-145
2021-09-24 15:15:35.822839,-34
2021-09-24 15:15:35.822857,53
2021-09-24 15:15:35.822864,119
2021-09-24 15:15:35.822871,172
2021-09-24 15:15:35.822878,201
2021-09-24 15:15:35.822885,213
2021-09-24 15:15:35.822891,225
2021-09-24 15:15:35.822898,228
2021-09-24 15:15:35.822905,218
2021-09-24 15:15:35.822912,206
2021-09-24 15:15:35.822919,191
2021-09-24 15:15:35.822926,187
2021-09-24 15:15:35.822932,182
2021-09-24 15:15:35.822939,172
2021-09-24 15:15:35.822946,160
2021-09-24 15:15:35.822953,150
2021-09-24 15:15:35.822960,140
2021-09-24 15:15:36.002773,133
2021-09-24 15:15:36.002797,131
2021-09-24 15:15:36.002805,121
2021-09-24 15:15:36.002812,111
2021-09-24 15:15:36.002818,102
2021-09-24 15:15:36.002825,92
2021-09-24 15:15:36.002831,89
2021-09-24 15:15:36.002838,92
2021-09-24 15:15:36.002844,92
2021-09-24 15:15:36.002851,87
2021-09-24 15:15:36.002858,92
2021-09-24 15:15:36.002896,94
2021-09-24 15:15:36.002902,94
2021-09-24 15:15:36.002909,89
2021-09-24 15:15:36.002916,89
2021-09-24 15:15:36.002922,87
2021-09-24 15:15:36.002929,82
2021-09-24 15:15:36.002935,77
2021-09-24 15:15:36.002942,77
2021-09-24 15:15:36.002948,80
2021-09-24 15:15:36.002955,80
2021-09-24 15:15:36.002961,77
2021-09-24 15:15:36.002968,75
2021-09-24 15:15:36.002974,75
2021-09-24 15:15:36.002980,72
2021-09-24 15:15:36.002987,77
2021-09-24 15:15:36.002993,82
2021-09-24 15:15:36.003000,77
2021-09-24 15:15:36.003006,58
2021-09-24 15:15:36.003013,38
2021-09-24 15:15:36.316426,29
2021-09-24 15:15:36.316452,31
2021-09-24 15:15:36.316460,31
2021-09-24 15:15:36.316467,19
2021-09-24 15:15:36.316474,14
2021-09-24 15:15:36.316480,34
2021-09-24 15:15:36.316487,51
2021-09-24 15:15:36.316494,58
2021-09-24 15:15:36.316501,55
2021-09-24 15:15:36.316508,48
2021-09-24 15:15:36.316515,41
2021-09-24 15:15:36.316522,43
2021-09-24 15:15:36.316529,46
2021-09-24 15:15:36.316536,43
2021-09-24 15:15:36.316543,36
2021-09-24 15:15:36.316549,9
2021-09-24 15:15:36.316557,-36
2021-09-24 15:15:36.316564,-119
2021-09-24 15:15:36.316571,-308
2021-09-24 15:15:36.316578,-527
2021-09-24 15:15:36.316584,-471
2021-09-24 15:15:36.316591,-51
2021-09-24 15:15:36.316598,463
2021-09-24 15:15:36.316605,602
2021-09-24 15:15:36.316612,279
2021-09-24 15:15:36.316619,48
2021-09-24 15:15:36.316626,53
2021-09-24 15:15:36.316633,-38
2021-09-24 15:15:36.316639,-138
2021-09-24 15:15:36.316646,-111
2021-09-24 15:15:36.542776,-106
2021-09-24 15:15:36.542807,-145
2021-09-24 15:15:36.542819,-148
2021-09-24 15:15:36.542829,-153
2021-09-24 15:15:36.542839,-172
2021-09-24 15:15:36.542850,-172
2021-09-24 15:15:36.542860,-174
2021-09-24 15:15:36.542870,-189
2021-09-24 15:15:36.542880,-208
2021-09-24 15:15:36.542890,-230
2021-09-24 15:15:36.542900,-257
2021-09-24 15:15:36.542910,-274
2021-09-24 15:15:36.542920,-291
2021-09-24 15:15:36.542929,-320
2021-09-24 15:15:36.542939,-364
2021-09-24 15:15:36.542949,-408
2021-09-24 15:15:36.542959,-429
2021-09-24 15:15:36.542969,-437
2021-09-24 15:15:36.542979,-444
2021-09-24 15:15:36.542989,-439
2021-09-24 15:15:36.542999,-410
2021-09-24 15:15:36.543009,-357
2021-09-24 15:15:36.543019,-272
2021-09-24 15:15:36.543029,-160
2021-09-24 15:15:36.543039,-58
2021-09-24 15:15:36.543049,31
2021-09-24 15:15:36.543059,104
2021-09-24 15:15:36.543069,153
2021-09-24 15:15:36.543079,187
2021-09-24 15:15:36.543089,211
2021-09-24 15:15:36.722076,223
2021-09-24 15:15:36.722098,225
2021-09-24 15:15:36.722106,218
2021-09-24 15:15:36.722113,208
2021-09-24 15:15:36.722120,208
2021-09-24 15:15:36.722127,208
2021-09-24 15:15:36.722134,194
2021-09-24 15:15:36.722141,174
2021-09-24 15:15:36.722148,160
2021-09-24 15:15:36.722154,145
2021-09-24 15:15:36.722161,136
2021-09-24 15:15:36.722168,131
2021-09-24 15:15:36.722174,123
2021-09-24 15:15:36.722181,119
2021-09-24 15:15:36.722189,111
2021-09-24 15:15:36.722196,104
2021-09-24 15:15:36.722202,99
2021-09-24 15:15:36.722209,102
2021-09-24 15:15:36.722216,99
2021-09-24 15:15:36.722222,87
2021-09-24 15:15:36.722229,77
2021-09-24 15:15:36.722237,82
2021-09-24 15:15:36.722243,87
2021-09-24 15:15:36.722251,87
2021-09-24 15:15:36.722257,87
2021-09-24 15:15:36.722264,85
2021-09-24 15:15:36.722272,80
2021-09-24 15:15:36.722279,80
2021-09-24 15:15:36.722286,82
2021-09-24 15:15:36.722293,82
2021-09-24 15:15:36.947828,82
2021-09-24 15:15:36.947852,82
2021-09-24 15:15:36.947861,80
2021-09-24 15:15:36.947868,72
2021-09-24 15:15:36.947875,68
2021-09-24 15:15:36.947881,63
2021-09-24 15:15:36.947888,43
2021-09-24 15:15:36.947895,21
2021-09-24 15:15:36.947902,9
2021-09-24 15:15:36.947909,7
2021-09-24 15:15:36.947916,7
2021-09-24 15:15:36.947922,24
2021-09-24 15:15:36.947929,46
2021-09-24 15:15:36.947936,46
2021-09-24 15:15:36.947943,34
2021-09-24 15:15:36.947950,31
2021-09-24 15:15:36.947956,36
2021-09-24 15:15:36.947963,38
2021-09-24 15:15:36.947970,38
2021-09-24 15:15:36.947977,38
2021-09-24 15:15:36.947984,36
2021-09-24 15:15:36.947991,17
2021-09-24 15:15:36.947998,-14
2021-09-24 15:15:36.948005,-55
2021-09-24 15:15:36.948011,-155
2021-09-24 15:15:36.948018,-366
2021-09-24 15:15:36.948026,-519
2021-09-24 15:15:36.948032,-332
2021-09-24 15:15:36.948039,189
2021-09-24 15:15:36.948046,621
2021-09-24 15:15:37.172786,514
2021-09-24 15:15:37.172809,143
2021-09-24 15:15:37.172817,43
2021-09-24 15:15:37.172824,48
2021-09-24 15:15:37.172831,-77
2021-09-24 15:15:37.172838,-138
2021-09-24 15:15:37.172844,-104
2021-09-24 15:15:37.172851,-126
2021-09-24 15:15:37.172888,-162
2021-09-24 15:15:37.172895,-155
2021-09-24 15:15:37.172901,-155
2021-09-24 15:15:37.172908,-167
2021-09-24 15:15:37.172914,-179
2021-09-24 15:15:37.172921,-194
2021-09-24 15:15:37.172927,-206
2021-09-24 15:15:37.172934,-216
2021-09-24 15:15:37.172940,-235
2021-09-24 15:15:37.172947,-259
2021-09-24 15:15:37.172953,-276
2021-09-24 15:15:37.172960,-301
2021-09-24 15:15:37.172966,-335
2021-09-24 15:15:37.172973,-366
2021-09-24 15:15:37.172979,-393
2021-09-24 15:15:37.172986,-410
2021-09-24 15:15:37.172992,-420
2021-09-24 15:15:37.172999,-412
2021-09-24 15:15:37.173005,-388
2021-09-24 15:15:37.173012,-347
2021-09-24 15:15:37.173018,-276
2021-09-24 15:15:37.173025,-179
2021-09-24 15:15:37.397698,-77
2021-09-24 15:15:37.397721,9
2021-09-24 15:15:37.397730,87
2021-09-24 15:15:37.397736,143
2021-09-24 15:15:37.397743,187
2021-09-24 15:15:37.397750,211
2021-09-24 15:15:37.397756,218
2021-09-24 15:15:37.397762,216
2021-09-24 15:15:37.397769,208
2021-09-24 15:15:37.397776,196
2021-09-24 15:15:37.397782,194
2021-09-24 15:15:37.397789,194
2021-09-24 15:15:37.397795,174
2021-09-24 15:15:37.397802,153
2021-09-24 15:15:37.397809,150
2021-09-24 15:15:37.397815,143
2021-09-24 15:15:37.397822,128
2021-09-24 15:15:37.397829,123
2021-09-24 15:15:37.397835,116
2021-09-24 15:15:37.397842,106
2021-09-24 15:15:37.397848,104
2021-09-24 15:15:37.397855,99
2021-09-24 15:15:37.397861,94
2021-09-24 15:15:37.397899,92
2021-09-24 15:15:37.397906,92
2021-09-24 15:15:37.397913,87
2021-09-24 15:15:37.397919,82
2021-09-24 15:15:37.397926,89
2021-09-24 15:15:37.397932,99
2021-09-24 15:15:37.397939,97
2021-09-24 15:15:37.622602,89
2021-09-24 15:15:37.622624,92
2021-09-24 15:15:37.622633,94
2021-09-24 15:15:37.622640,89
2021-09-24 15:15:37.622647,89
2021-09-24 15:15:37.622654,94
2021-09-24 15:15:37.622661,92
2021-09-24 15:15:37.622668,89
2021-09-24 15:15:37.622675,85
2021-09-24 15:15:37.622682,72
2021-09-24 15:15:37.622688,70
2021-09-24 15:15:37.622695,60
2021-09-24 15:15:37.622702,41
2021-09-24 15:15:37.622709,38
2021-09-24 15:15:37.622716,48
2021-09-24 15:15:37.622723,58
2021-09-24 15:15:37.622730,68
2021-09-24 15:15:37.622737,72
2021-09-24 15:15:37.622744,63
2021-09-24 15:15:37.622750,58
2021-09-24 15:15:37.622757,63
2021-09-24 15:15:37.622764,63
2021-09-24 15:15:37.622771,60
2021-09-24 15:15:37.622778,60
2021-09-24 15:15:37.622785,53
2021-09-24 15:15:37.622792,24
2021-09-24 15:15:37.622799,-29
2021-09-24 15:15:37.622806,-143
2021-09-24 15:15:37.622813,-354
2021-09-24 15:15:37.622820,-485
2021-09-24 15:15:37.847754,-272
2021-09-24 15:15:37.847785,238
2021-09-24 15:15:37.847797,631
2021-09-24 15:15:37.847808,512
2021-09-24 15:15:37.847818,150
2021-09-24 15:15:37.847828,51
2021-09-24 15:15:37.847838,53
2021-09-24 15:15:37.847848,-68
2021-09-24 15:15:37.847858,-126
2021-09-24 15:15:37.847868,-99
2021-09-24 15:15:37.847878,-116
2021-09-24 15:15:37.847888,-150
2021-09-24 15:15:37.847898,-153
2021-09-24 15:15:37.847908,-157
2021-09-24 15:15:37.847918,-179
2021-09-24 15:15:37.847928,-189
2021-09-24 15:15:37.847938,-194
2021-09-24 15:15:37.847948,-208
2021-09-24 15:15:37.847958,-225
2021-09-24 15:15:37.847968,-233
2021-09-24 15:15:37.847978,-255
2021-09-24 15:15:37.847988,-281
2021-09-24 15:15:37.847998,-303
2021-09-24 15:15:37.848008,-332
2021-09-24 15:15:37.848018,-361
2021-09-24 15:15:37.848028,-381
2021-09-24 15:15:37.848038,-395
2021-09-24 15:15:37.848048,-405
2021-09-24 15:15:37.848058,-400
2021-09-24 15:15:37.848068,-381
2021-09-24 15:15:38.072764,-337
2021-09-24 15:15:38.072795,-264
2021-09-24 15:15:38.072807,-170
2021-09-24 15:15:38.072817,-70
2021-09-24 15:15:38.072828,14
2021-09-24 15:15:38.072838,87
2021-09-24 15:15:38.072848,148
2021-09-24 15:15:38.072858,189
2021-09-24 15:15:38.072868,208
2021-09-24 15:15:38.072878,213
2021-09-24 15:15:38.072887,213
2021-09-24 15:15:38.072897,213
2021-09-24 15:15:38.072907,218
2021-09-24 15:15:38.072917,213
2021-09-24 15:15:38.072927,201
2021-09-24 15:15:38.072937,194
2021-09-24 15:15:38.072947,184
2021-09-24 15:15:38.072957,174
2021-09-24 15:15:38.072967,167
2021-09-24 15:15:38.072976,160
2021-09-24 15:15:38.072986,145
2021-09-24 15:15:38.072996,131
2021-09-24 15:15:38.073006,123
2021-09-24 15:15:38.073016,119
2021-09-24 15:15:38.073026,116
2021-09-24 15:15:38.073035,116
2021-09-24 15:15:38.073046,111
2021-09-24 15:15:38.073055,106
2021-09-24 15:15:38.073065,109
2021-09-24 15:15:38.073075,114
2021-09-24 15:15:38.431020,111
2021-09-24 15:15:38.431039,106
2021-09-24 15:15:38.431047,99
2021-09-24 15:15:38.431053,92
2021-09-24 15:15:38.431060,85
2021-09-24 15:15:38.431066,87
2021-09-24 15:15:38.431073,92
2021-09-24 15:15:38.431079,92
2021-09-24 15:15:38.431086,92
2021-09-24 15:15:38.431092,87
2021-09-24 15:15:38.431099,82
2021-09-24 15:15:38.431105,80
2021-09-24 15:15:38.431111,80
2021-09-24 15:15:38.431118,75
2021-09-24 15:15:38.431124,68
2021-09-24 15:15:38.431131,55
2021-09-24 15:15:38.431137,43
2021-09-24 15:15:38.431144,43
2021-09-24 15:15:38.431150,55
2021-09-24 15:15:38.431165,68
2021-09-24 15:15:38.431171,60
2021-09-24 15:15:38.431178,58
2021-09-24 15:15:38.431184,60
2021-09-24 15:15:38.431191,60
2021-09-24 15:15:38.431197,63
2021-09-24 15:15:38.431204,63
2021-09-24 15:15:38.431210,53
2021-09-24 15:15:38.431217,46
2021-09-24 15:15:38.431223,38
2021-09-24 15:15:38.431230,2
2021-09-24 15:15:38.567688,-80
2021-09-24 15:15:38.567713,-247
2021-09-24 15:15:38.567721,-461
2021-09-24 15:15:38.567728,-456
2021-09-24 15:15:38.567734,-80
2021-09-24 15:15:38.567741,439
2021-09-24 15:15:38.567748,658
2021-09-24 15:15:38.567754,386
2021-09-24 15:15:38.567761,94
2021-09-24 15:15:38.567767,70
2021-09-24 15:15:38.567774,14
2021-09-24 15:15:38.567780,-102
2021-09-24 15:15:38.567787,-106
2021-09-24 15:15:38.567794,-89
2021-09-24 15:15:38.567800,-128
2021-09-24 15:15:38.567807,-148
2021-09-24 15:15:38.567813,-145
2021-09-24 15:15:38.567820,-155
2021-09-24 15:15:38.567858,-165
2021-09-24 15:15:38.567865,-174
2021-09-24 15:15:38.567871,-199
2021-09-24 15:15:38.567878,-216
2021-09-24 15:15:38.567884,-221
2021-09-24 15:15:38.567891,-235
2021-09-24 15:15:38.567898,-262
2021-09-24 15:15:38.567904,-286
2021-09-24 15:15:38.567911,-313
2021-09-24 15:15:38.567917,-347
2021-09-24 15:15:38.567924,-374
2021-09-24 15:15:38.567930,-391
2021-09-24 15:15:38.837849,-405
2021-09-24 15:15:38.837882,-410
2021-09-24 15:15:38.837926,-405
2021-09-24 15:15:38.837937,-378
2021-09-24 15:15:38.837948,-323
2021-09-24 15:15:38.837958,-242
2021-09-24 15:15:38.837968,-145
2021-09-24 15:15:38.837978,-46
2021-09-24 15:15:38.837988,34
2021-09-24 15:15:38.837999,94
2021-09-24 15:15:38.838009,155
2021-09-24 15:15:38.838019,196
2021-09-24 15:15:38.838029,211
2021-09-24 15:15:38.838039,216
2021-09-24 15:15:38.838049,216
2021-09-24 15:15:38.838059,213
2021-09-24 15:15:38.838069,211
2021-09-24 15:15:38.838079,208
2021-09-24 15:15:38.838089,204
2021-09-24 15:15:38.838099,194
2021-09-24 15:15:38.838109,177
2021-09-24 15:15:38.838119,162
2021-09-24 15:15:38.838129,157
2021-09-24 15:15:38.838139,150
2021-09-24 15:15:38.838149,136
2021-09-24 15:15:38.838159,119
2021-09-24 15:15:38.838169,106
2021-09-24 15:15:38.838179,104
2021-09-24 15:15:38.838189,102
2021-09-24 15:15:38.838199,102
2021-09-24 15:15:39.017772,102
2021-09-24 15:15:39.017803,94
2021-09-24 15:15:39.017815,94
2021-09-24 15:15:39.017825,97
2021-09-24 15:15:39.017836,102
2021-09-24 15:15:39.017846,104
2021-09-24 15:15:39.017856,106
2021-09-24 15:15:39.017866,102
2021-09-24 15:15:39.017876,92
2021-09-24 15:15:39.017886,89
2021-09-24 15:15:39.017896,94
2021-09-24 15:15:39.017906,97
2021-09-24 15:15:39.017916,89
2021-09-24 15:15:39.017926,82
2021-09-24 15:15:39.017936,77
2021-09-24 15:15:39.017946,77
2021-09-24 15:15:39.017956,80
2021-09-24 15:15:39.017966,87
2021-09-24 15:15:39.017976,89
2021-09-24 15:15:39.017986,77
2021-09-24 15:15:39.017996,65
2021-09-24 15:15:39.018006,63
2021-09-24 15:15:39.018016,58
2021-09-24 15:15:39.018026,48
2021-09-24 15:15:39.018035,38
2021-09-24 15:15:39.018046,36
2021-09-24 15:15:39.018056,51
2021-09-24 15:15:39.018066,70
2021-09-24 15:15:39.018076,75
2021-09-24 15:15:39.018086,70
2021-09-24 15:15:39.287849,72
2021-09-24 15:15:39.287881,70
2021-09-24 15:15:39.287892,68
2021-09-24 15:15:39.287902,65
2021-09-24 15:15:39.287912,65
2021-09-24 15:15:39.287922,65
2021-09-24 15:15:39.287932,46
2021-09-24 15:15:39.287942,-4
2021-09-24 15:15:39.287952,-92
2021-09-24 15:15:39.287962,-272
2021-09-24 15:15:39.287972,-485
2021-09-24 15:15:39.287981,-432
2021-09-24 15:15:39.287991,-29
2021-09-24 15:15:39.288001,461
2021-09-24 15:15:39.288011,629
2021-09-24 15:15:39.288021,327
2021-09-24 15:15:39.288031,65
2021-09-24 15:15:39.288041,65
2021-09-24 15:15:39.288050,-7
2021-09-24 15:15:39.288060,-114
2021-09-24 15:15:39.288070,-99
2021-09-24 15:15:39.288080,-85
2021-09-24 15:15:39.288090,-123
2021-09-24 15:15:39.288099,-138
2021-09-24 15:15:39.288109,-140
2021-09-24 15:15:39.288119,-157
2021-09-24 15:15:39.288129,-170
2021-09-24 15:15:39.288139,-174
2021-09-24 15:15:39.288149,-187
2021-09-24 15:15:39.288159,-201
2021-09-24 15:15:39.467549,-221
2021-09-24 15:15:39.467573,-247
2021-09-24 15:15:39.467581,-269
2021-09-24 15:15:39.467588,-286
2021-09-24 15:15:39.467594,-315
2021-09-24 15:15:39.467601,-352
2021-09-24 15:15:39.467607,-383
2021-09-24 15:15:39.467614,-405
2021-09-24 15:15:39.467620,-417
2021-09-24 15:15:39.467627,-420
2021-09-24 15:15:39.467633,-408
2021-09-24 15:15:39.467640,-383
2021-09-24 15:15:39.467647,-340
2021-09-24 15:15:39.467653,-257
2021-09-24 15:15:39.467660,-155
2021-09-24 15:15:39.467666,-58
2021-09-24 15:15:39.467673,31
2021-09-24 15:15:39.467680,102
2021-09-24 15:15:39.467686,148
2021-09-24 15:15:39.467693,184
2021-09-24 15:15:39.467699,208
2021-09-24 15:15:39.467706,213
2021-09-24 15:15:39.467712,213
2021-09-24 15:15:39.467719,213
2021-09-24 15:15:39.467726,208
2021-09-24 15:15:39.467732,204
2021-09-24 15:15:39.467739,196
2021-09-24 15:15:39.467745,187
2021-09-24 15:15:39.467752,179
2021-09-24 15:15:39.467759,165
2021-09-24 15:15:39.782527,153
2021-09-24 15:15:39.782553,148
2021-09-24 15:15:39.782561,140
2021-09-24 15:15:39.782568,128
2021-09-24 15:15:39.782574,121
2021-09-24 15:15:39.782581,109
2021-09-24 15:15:39.782587,102
2021-09-24 15:15:39.782594,104
2021-09-24 15:15:39.782600,102
2021-09-24 15:15:39.782607,97
2021-09-24 15:15:39.782614,94
2021-09-24 15:15:39.782620,89
2021-09-24 15:15:39.782627,89
2021-09-24 15:15:39.782633,92
2021-09-24 15:15:39.782640,85
2021-09-24 15:15:39.782646,80
2021-09-24 15:15:39.782653,82
2021-09-24 15:15:39.782660,80
2021-09-24 15:15:39.782666,80
2021-09-24 15:15:39.782673,85
2021-09-24 15:15:39.782679,85
2021-09-24 15:15:39.782686,80
2021-09-24 15:15:39.782692,80
2021-09-24 15:15:39.782699,82
2021-09-24 15:15:39.782705,82
2021-09-24 15:15:39.782712,82
2021-09-24 15:15:39.782718,80
2021-09-24 15:15:39.782725,80
2021-09-24 15:15:39.782732,77
2021-09-24 15:15:39.782738,75
2021-09-24 15:15:39.962077,85
2021-09-24 15:15:39.962100,87
2021-09-24 15:15:39.962108,72
2021-09-24 15:15:39.962115,53
2021-09-24 15:15:39.962122,34
2021-09-24 15:15:39.962128,24
2021-09-24 15:15:39.962134,21
2021-09-24 15:15:39.962141,9
2021-09-24 15:15:39.962147,14
2021-09-24 15:15:39.962154,36
2021-09-24 15:15:39.962160,43
2021-09-24 15:15:39.962167,41
2021-09-24 15:15:39.962173,46
2021-09-24 15:15:39.962180,48
2021-09-24 15:15:39.962186,46
2021-09-24 15:15:39.962193,46
2021-09-24 15:15:39.962199,38
2021-09-24 15:15:39.962206,34
2021-09-24 15:15:39.962212,34
2021-09-24 15:15:39.962219,14
2021-09-24 15:15:39.962225,-29
2021-09-24 15:15:39.962232,-119
2021-09-24 15:15:39.962239,-318
2021-09-24 15:15:39.962245,-505
2021-09-24 15:15:39.962252,-376
2021-09-24 15:15:39.962258,72
2021-09-24 15:15:39.962265,529
2021-09-24 15:15:39.962271,602
2021-09-24 15:15:39.962278,269
2021-09-24 15:15:39.962284,53
2021-09-24 15:15:40.142769,60
2021-09-24 15:15:40.142792,-24
2021-09-24 15:15:40.142800,-119
2021-09-24 15:15:40.142806,-102
2021-09-24 15:15:40.142813,-106
2021-09-24 15:15:40.142820,-143
2021-09-24 15:15:40.142826,-143
2021-09-24 15:15:40.142833,-145
2021-09-24 15:15:40.142839,-167
2021-09-24 15:15:40.142846,-182
2021-09-24 15:15:40.142852,-194
2021-09-24 15:15:40.142859,-204
2021-09-24 15:15:40.142865,-211
2021-09-24 15:15:40.142872,-223
2021-09-24 15:15:40.142878,-240
2021-09-24 15:15:40.142885,-267
2021-09-24 15:15:40.142891,-291
2021-09-24 15:15:40.142898,-318
2021-09-24 15:15:40.142904,-349
2021-09-24 15:15:40.142911,-376
2021-09-24 15:15:40.142917,-393
2021-09-24 15:15:40.142924,-410
2021-09-24 15:15:40.142930,-415
2021-09-24 15:15:40.142937,-398
2021-09-24 15:15:40.142943,-366
2021-09-24 15:15:40.142950,-320
2021-09-24 15:15:40.142956,-247
2021-09-24 15:15:40.142963,-153
2021-09-24 15:15:40.142970,-51
2021-09-24 15:15:40.142976,38
2021-09-24 15:15:40.456450,111
2021-09-24 15:15:40.456474,165
2021-09-24 15:15:40.456481,196
2021-09-24 15:15:40.456488,204
2021-09-24 15:15:40.456495,208
2021-09-24 15:15:40.456501,216
2021-09-24 15:15:40.456508,216
2021-09-24 15:15:40.456514,213
2021-09-24 15:15:40.456520,201
2021-09-24 15:15:40.456527,184
2021-09-24 15:15:40.456533,174
2021-09-24 15:15:40.456540,170
2021-09-24 15:15:40.456546,153
2021-09-24 15:15:40.456553,131
2021-09-24 15:15:40.456559,121
2021-09-24 15:15:40.456565,114
2021-09-24 15:15:40.456572,106
2021-09-24 15:15:40.456578,104
2021-09-24 15:15:40.456585,102
2021-09-24 15:15:40.456591,94
2021-09-24 15:15:40.456598,85
2021-09-24 15:15:40.456604,80
2021-09-24 15:15:40.456610,82
2021-09-24 15:15:40.456617,85
2021-09-24 15:15:40.456623,85
2021-09-24 15:15:40.456630,87
2021-09-24 15:15:40.456637,87
2021-09-24 15:15:40.456643,82
2021-09-24 15:15:40.456649,85
2021-09-24 15:15:40.456656,92
2021-09-24 15:15:40.637542,92
2021-09-24 15:15:40.637566,92
2021-09-24 15:15:40.637574,89
2021-09-24 15:15:40.637581,82
2021-09-24 15:15:40.637587,82
2021-09-24 15:15:40.637594,87
2021-09-24 15:15:40.637600,87
2021-09-24 15:15:40.637607,80
2021-09-24 15:15:40.637613,72
2021-09-24 15:15:40.637620,68
2021-09-24 15:15:40.637627,68
2021-09-24 15:15:40.637633,70
2021-09-24 15:15:40.637654,70
2021-09-24 15:15:40.637661,70
2021-09-24 15:15:40.637667,65
2021-09-24 15:15:40.637673,58
2021-09-24 15:15:40.637680,48
2021-09-24 15:15:40.637686,34
2021-09-24 15:15:40.637692,26
2021-09-24 15:15:40.637698,31
2021-09-24 15:15:40.637704,24
2021-09-24 15:15:40.637711,14
2021-09-24 15:15:40.637717,29
2021-09-24 15:15:40.637723,48
2021-09-24 15:15:40.637729,58
2021-09-24 15:15:40.637735,48
2021-09-24 15:15:40.637741,41
2021-09-24 15:15:40.637747,46
2021-09-24 15:15:40.637754,46
2021-09-24 15:15:40.637760,48
2021-09-24 15:15:40.907153,53
2021-09-24 15:15:40.907177,48
2021-09-24 15:15:40.907185,34
2021-09-24 15:15:40.907192,7
2021-09-24 15:15:40.907198,-53
2021-09-24 15:15:40.907205,-196
2021-09-24 15:15:40.907212,-417
2021-09-24 15:15:40.907218,-461
2021-09-24 15:15:40.907225,-131
2021-09-24 15:15:40.907231,383
2021-09-24 15:15:40.907238,660
2021-09-24 15:15:40.907244,437
2021-09-24 15:15:40.907251,106
2021-09-24 15:15:40.907257,38
2021-09-24 15:15:40.907264,-9
2021-09-24 15:15:40.907271,-123
2021-09-24 15:15:40.907277,-131
2021-09-24 15:15:40.907284,-104
2021-09-24 15:15:40.907291,-140
2021-09-24 15:15:40.907297,-167
2021-09-24 15:15:40.907304,-165
2021-09-24 15:15:40.907310,-172
2021-09-24 15:15:40.907317,-182
2021-09-24 15:15:40.907323,-189
2021-09-24 15:15:40.907330,-204
2021-09-24 15:15:40.907336,-221
2021-09-24 15:15:40.907343,-228
2021-09-24 15:15:40.907350,-242
2021-09-24 15:15:40.907356,-259
2021-09-24 15:15:40.907363,-279
2021-09-24 15:15:41.087848,-306
2021-09-24 15:15:41.087869,-340
2021-09-24 15:15:41.087877,-366
2021-09-24 15:15:41.087884,-386
2021-09-24 15:15:41.087891,-400
2021-09-24 15:15:41.087898,-403
2021-09-24 15:15:41.087904,-398
2021-09-24 15:15:41.087911,-386
2021-09-24 15:15:41.087917,-347
2021-09-24 15:15:41.087924,-279
2021-09-24 15:15:41.087930,-187
2021-09-24 15:15:41.087937,-87
2021-09-24 15:15:41.087943,0
2021-09-24 15:15:41.087950,68
2021-09-24 15:15:41.087957,131
2021-09-24 15:15:41.087963,172
2021-09-24 15:15:41.087970,196
2021-09-24 15:15:41.087976,211
2021-09-24 15:15:41.087983,216
2021-09-24 15:15:41.087989,213
2021-09-24 15:15:41.087996,211
2021-09-24 15:15:41.088003,206
2021-09-24 15:15:41.088009,199
2021-09-24 15:15:41.088016,189
2021-09-24 15:15:41.088022,179
2021-09-24 15:15:41.088029,162
2021-09-24 15:15:41.088035,145
2021-09-24 15:15:41.088042,133
2021-09-24 15:15:41.088048,128
2021-09-24 15:15:41.088055,123
2021-09-24 15:15:41.402440,116
2021-09-24 15:15:41.402462,109
2021-09-24 15:15:41.402469,109
2021-09-24 15:15:41.402474,106
2021-09-24 15:15:41.402479,102
2021-09-24 15:15:41.402488,97
2021-09-24 15:15:41.402494,89
2021-09-24 15:15:41.402499,87
2021-09-24 15:15:41.402504,92
2021-09-24 15:15:41.402510,92
2021-09-24 15:15:41.402515,92
2021-09-24 15:15:41.402520,92
2021-09-24 15:15:41.402525,82
2021-09-24 15:15:41.402531,77
2021-09-24 15:15:41.402536,82
2021-09-24 15:15:41.402541,87
2021-09-24 15:15:41.402546,85
2021-09-24 15:15:41.402551,82
2021-09-24 15:15:41.402557,77
2021-09-24 15:15:41.402562,80
2021-09-24 15:15:41.402567,82
2021-09-24 15:15:41.402572,80
2021-09-24 15:15:41.402577,75
2021-09-24 15:15:41.402583,70
2021-09-24 15:15:41.402588,65
2021-09-24 15:15:41.402593,58
2021-09-24 15:15:41.402598,58
2021-09-24 15:15:41.402603,55
2021-09-24 15:15:41.402608,43
2021-09-24 15:15:41.402613,36
2021-09-24 15:15:41.537648,43
2021-09-24 15:15:41.537671,41
2021-09-24 15:15:41.537679,21
2021-09-24 15:15:41.537686,4
2021-09-24 15:15:41.537693,-2
2021-09-24 15:15:41.537699,-2
2021-09-24 15:15:41.537706,-7
2021-09-24 15:15:41.537712,-4
2021-09-24 15:15:41.537719,12
2021-09-24 15:15:41.537725,29
2021-09-24 15:15:41.537732,38
2021-09-24 15:15:41.537738,36
2021-09-24 15:15:41.537745,34
2021-09-24 15:15:41.537751,38
2021-09-24 15:15:41.537758,36
2021-09-24 15:15:41.537764,29
2021-09-24 15:15:41.537771,21
2021-09-24 15:15:41.537777,17
2021-09-24 15:15:41.537784,9
2021-09-24 15:15:41.537790,-12
2021-09-24 15:15:41.537797,-75
2021-09-24 15:15:41.537804,-233
2021-09-24 15:15:41.537810,-466
2021-09-24 15:15:41.537817,-510
2021-09-24 15:15:41.537824,-167
2021-09-24 15:15:41.537830,374
2021-09-24 15:15:41.537837,631
2021-09-24 15:15:41.537843,369
2021-09-24 15:15:41.537850,72
2021-09-24 15:15:41.537856,51
2021-09-24 15:15:41.807106,-2
2021-09-24 15:15:41.807130,-119
2021-09-24 15:15:41.807138,-116
2021-09-24 15:15:41.807145,-94
2021-09-24 15:15:41.807152,-138
2021-09-24 15:15:41.807158,-157
2021-09-24 15:15:41.807165,-145
2021-09-24 15:15:41.807171,-150
2021-09-24 15:15:41.807178,-167
2021-09-24 15:15:41.807184,-174
2021-09-24 15:15:41.807191,-187
2021-09-24 15:15:41.807197,-201
2021-09-24 15:15:41.807204,-213
2021-09-24 15:15:41.807210,-228
2021-09-24 15:15:41.807217,-247
2021-09-24 15:15:41.807223,-267
2021-09-24 15:15:41.807230,-289
2021-09-24 15:15:41.807236,-315
2021-09-24 15:15:41.807243,-337
2021-09-24 15:15:41.807249,-357
2021-09-24 15:15:41.807256,-374
2021-09-24 15:15:41.807262,-381
2021-09-24 15:15:41.807269,-374
2021-09-24 15:15:41.807275,-352
2021-09-24 15:15:41.807282,-315
2021-09-24 15:15:41.807288,-252
2021-09-24 15:15:41.807295,-162
2021-09-24 15:15:41.807301,-65
2021-09-24 15:15:41.807308,19
2021-09-24 15:15:41.807315,89
2021-09-24 15:15:42.032653,143
2021-09-24 15:15:42.032675,174
2021-09-24 15:15:42.032683,196
2021-09-24 15:15:42.032689,206
2021-09-24 15:15:42.032696,201
2021-09-24 15:15:42.032703,201
2021-09-24 15:15:42.032710,204
2021-09-24 15:15:42.032716,194
2021-09-24 15:15:42.032723,184
2021-09-24 15:15:42.032729,170
2021-09-24 15:15:42.032736,155
2021-09-24 15:15:42.032742,145
2021-09-24 15:15:42.032749,140
2021-09-24 15:15:42.032755,136
2021-09-24 15:15:42.032762,126
2021-09-24 15:15:42.032769,114
2021-09-24 15:15:42.032775,104
2021-09-24 15:15:42.032782,102
2021-09-24 15:15:42.032789,102
2021-09-24 15:15:42.032795,106
2021-09-24 15:15:42.032802,106
2021-09-24 15:15:42.032808,99
2021-09-24 15:15:42.032815,99
2021-09-24 15:15:42.032821,104
2021-09-24 15:15:42.032828,106
2021-09-24 15:15:42.032835,109
2021-09-24 15:15:42.032841,109
2021-09-24 15:15:42.032848,102
2021-09-24 15:15:42.032854,97
2021-09-24 15:15:42.032861,104
2021-09-24 15:15:42.302867,109
2021-09-24 15:15:42.302891,104
2021-09-24 15:15:42.302898,97
2021-09-24 15:15:42.302905,89
2021-09-24 15:15:42.302912,82
2021-09-24 15:15:42.302918,80
2021-09-24 15:15:42.302925,80
2021-09-24 15:15:42.302931,85
2021-09-24 15:15:42.302938,77
2021-09-24 15:15:42.302944,60
2021-09-24 15:15:42.302951,58
2021-09-24 15:15:42.302957,68
2021-09-24 15:15:42.302963,72
2021-09-24 15:15:42.302970,68
2021-09-24 15:15:42.302976,51
2021-09-24 15:15:42.302983,26
2021-09-24 15:15:42.302989,12
2021-09-24 15:15:42.302996,19
2021-09-24 15:15:42.303002,17
2021-09-24 15:15:42.303009,7
2021-09-24 15:15:42.303015,9
2021-09-24 15:15:42.303022,24
2021-09-24 15:15:42.303028,38
2021-09-24 15:15:42.303035,41
2021-09-24 15:15:42.303041,36
2021-09-24 15:15:42.303048,41
2021-09-24 15:15:42.303054,41
2021-09-24 15:15:42.303061,31
2021-09-24 15:15:42.303067,36
2021-09-24 15:15:42.303073,43
2021-09-24 15:15:42.571243,34
2021-09-24 15:15:42.571267,7
2021-09-24 15:15:42.571275,-43
2021-09-24 15:15:42.571282,-170
2021-09-24 15:15:42.571288,-391
2021-09-24 15:15:42.571295,-488
2021-09-24 15:15:42.571301,-225
2021-09-24 15:15:42.571308,303
2021-09-24 15:15:42.571315,638
2021-09-24 15:15:42.571321,434
2021-09-24 15:15:42.571327,104
2021-09-24 15:15:42.571334,63
2021-09-24 15:15:42.571340,41
2021-09-24 15:15:42.571347,-89
2021-09-24 15:15:42.571353,-126
2021-09-24 15:15:42.571360,-97
2021-09-24 15:15:42.571366,-116
2021-09-24 15:15:42.571373,-138
2021-09-24 15:15:42.571379,-136
2021-09-24 15:15:42.571386,-145
2021-09-24 15:15:42.571392,-167
2021-09-24 15:15:42.571399,-179
2021-09-24 15:15:42.571405,-182
2021-09-24 15:15:42.571412,-189
2021-09-24 15:15:42.571418,-204
2021-09-24 15:15:42.571425,-223
2021-09-24 15:15:42.571431,-247
2021-09-24 15:15:42.571438,-267
2021-09-24 15:15:42.571444,-281
2021-09-24 15:15:42.571451,-308
2021-09-24 15:15:42.707713,-335
2021-09-24 15:15:42.707738,-359
2021-09-24 15:15:42.707746,-374
2021-09-24 15:15:42.707753,-376
2021-09-24 15:15:42.707760,-364
2021-09-24 15:15:42.707766,-344
2021-09-24 15:15:42.707773,-308
2021-09-24 15:15:42.707780,-245
2021-09-24 15:15:42.707787,-165
2021-09-24 15:15:42.707794,-77
2021-09-24 15:15:42.707832,14
2021-09-24 15:15:42.707839,92
2021-09-24 15:15:42.707846,148
2021-09-24 15:15:42.707852,182
2021-09-24 15:15:42.707859,196
2021-09-24 15:15:42.707866,211
2021-09-24 15:15:42.707873,223
2021-09-24 15:15:42.707880,228
2021-09-24 15:15:42.707887,218
2021-09-24 15:15:42.707893,201
2021-09-24 15:15:42.707900,189
2021-09-24 15:15:42.707907,182
2021-09-24 15:15:42.707914,170
2021-09-24 15:15:42.707921,162
2021-09-24 15:15:42.707928,155
2021-09-24 15:15:42.707934,140
2021-09-24 15:15:42.707941,126
2021-09-24 15:15:42.707948,126
2021-09-24 15:15:42.707955,126
2021-09-24 15:15:42.707962,123
2021-09-24 15:15:42.977834,119
2021-09-24 15:15:42.977864,109
2021-09-24 15:15:42.977876,104
2021-09-24 15:15:42.977886,104
2021-09-24 15:15:42.977896,106
2021-09-24 15:15:42.977906,111
2021-09-24 15:15:42.977916,104
2021-09-24 15:15:42.977926,97
2021-09-24 15:15:42.977936,97
2021-09-24 15:15:42.977946,97
2021-09-24 15:15:42.977956,85
2021-09-24 15:15:42.977966,70
2021-09-24 15:15:42.977976,55
2021-09-24 15:15:42.977986,48
2021-09-24 15:15:42.977996,51
2021-09-24 15:15:42.978006,51
2021-09-24 15:15:42.978016,51
2021-09-24 15:15:42.978026,55
2021-09-24 15:15:42.978036,55
2021-09-24 15:15:42.978046,48
2021-09-24 15:15:42.978056,48
2021-09-24 15:15:42.978066,53
2021-09-24 15:15:42.978076,55
2021-09-24 15:15:42.978086,60
2021-09-24 15:15:42.978096,60
2021-09-24 15:15:42.978106,46
2021-09-24 15:15:42.978115,29
2021-09-24 15:15:42.978125,9
2021-09-24 15:15:42.978135,2
2021-09-24 15:15:42.978145,7
2021-09-24 15:15:43.157440,0
2021-09-24 15:15:43.157462,2
2021-09-24 15:15:43.157470,21
2021-09-24 15:15:43.157477,36
2021-09-24 15:15:43.157483,38
2021-09-24 15:15:43.157490,36
2021-09-24 15:15:43.157497,29
2021-09-24 15:15:43.157503,26
2021-09-24 15:15:43.157509,29
2021-09-24 15:15:43.157516,31
2021-09-24 15:15:43.157522,31
2021-09-24 15:15:43.157529,31
2021-09-24 15:15:43.157535,7
2021-09-24 15:15:43.157542,-43
2021-09-24 15:15:43.157548,-131
2021-09-24 15:15:43.157555,-318
2021-09-24 15:15:43.157562,-485
2021-09-24 15:15:43.157568,-340
2021-09-24 15:15:43.157575,121
2021-09-24 15:15:43.157581,563
2021-09-24 15:15:43.157588,568
2021-09-24 15:15:43.157594,213
2021-09-24 15:15:43.157601,51
2021-09-24 15:15:43.157607,65
2021-09-24 15:15:43.157614,-41
2021-09-24 15:15:43.157620,-121
2021-09-24 15:15:43.157627,-89
2021-09-24 15:15:43.157633,-92
2021-09-24 15:15:43.157640,-126
2021-09-24 15:15:43.157646,-128
2021-09-24 15:15:43.382818,-128
2021-09-24 15:15:43.382848,-145
2021-09-24 15:15:43.382860,-153
2021-09-24 15:15:43.382870,-160
2021-09-24 15:15:43.382880,-172
2021-09-24 15:15:43.382890,-189
2021-09-24 15:15:43.382900,-206
2021-09-24 15:15:43.382910,-221
2021-09-24 15:15:43.382920,-238
2021-09-24 15:15:43.382930,-264
2021-09-24 15:15:43.382939,-291
2021-09-24 15:15:43.382949,-320
2021-09-24 15:15:43.382959,-347
2021-09-24 15:15:43.382969,-359
2021-09-24 15:15:43.382978,-371
2021-09-24 15:15:43.382988,-378
2021-09-24 15:15:43.382998,-359
2021-09-24 15:15:43.383008,-330
2021-09-24 15:15:43.383018,-293
2021-09-24 15:15:43.383028,-218
2021-09-24 15:15:43.383038,-119
2021-09-24 15:15:43.383047,-29
2021-09-24 15:15:43.383057,48
2021-09-24 15:15:43.383067,114
2021-09-24 15:15:43.383077,165
2021-09-24 15:15:43.383087,199
2021-09-24 15:15:43.383097,216
2021-09-24 15:15:43.383107,221
2021-09-24 15:15:43.383117,221
2021-09-24 15:15:43.383126,218
2021-09-24 15:15:43.607809,213
2021-09-24 15:15:43.607863,206
2021-09-24 15:15:43.607871,196
2021-09-24 15:15:43.607878,184
2021-09-24 15:15:43.607884,167
2021-09-24 15:15:43.607891,150
2021-09-24 15:15:43.607897,143
2021-09-24 15:15:43.607904,140
2021-09-24 15:15:43.607910,128
2021-09-24 15:15:43.607916,116
2021-09-24 15:15:43.607923,111
2021-09-24 15:15:43.607929,104
2021-09-24 15:15:43.607935,99
2021-09-24 15:15:43.607942,102
2021-09-24 15:15:43.607948,99
2021-09-24 15:15:43.607955,97
2021-09-24 15:15:43.607961,92
2021-09-24 15:15:43.607967,92
2021-09-24 15:15:43.607974,94
2021-09-24 15:15:43.607980,99
2021-09-24 15:15:43.607987,99
2021-09-24 15:15:43.607993,94
2021-09-24 15:15:43.607999,87
2021-09-24 15:15:43.608006,85
2021-09-24 15:15:43.608012,87
2021-09-24 15:15:43.608018,87
2021-09-24 15:15:43.608025,85
2021-09-24 15:15:43.608031,80
2021-09-24 15:15:43.608038,75
2021-09-24 15:15:43.608044,75
2021-09-24 15:15:43.832940,80
2021-09-24 15:15:43.832972,80
2021-09-24 15:15:43.832984,77
2021-09-24 15:15:43.832994,72
2021-09-24 15:15:43.833004,63
2021-09-24 15:15:43.833014,58
2021-09-24 15:15:43.833024,58
2021-09-24 15:15:43.833034,63
2021-09-24 15:15:43.833044,60
2021-09-24 15:15:43.833054,43
2021-09-24 15:15:43.833064,19
2021-09-24 15:15:43.833074,0
2021-09-24 15:15:43.833085,-7
2021-09-24 15:15:43.833095,0
2021-09-24 15:15:43.833105,-2
2021-09-24 15:15:43.833115,-12
2021-09-24 15:15:43.833125,-2
2021-09-24 15:15:43.833135,21
2021-09-24 15:15:43.833145,31
2021-09-24 15:15:43.833155,26
2021-09-24 15:15:43.833165,24
2021-09-24 15:15:43.833175,24
2021-09-24 15:15:43.833185,19
2021-09-24 15:15:43.833195,14
2021-09-24 15:15:43.833205,9
2021-09-24 15:15:43.833215,12
2021-09-24 15:15:43.833225,2
2021-09-24 15:15:43.833235,-34
2021-09-24 15:15:43.833245,-104
2021-09-24 15:15:43.833255,-259
2021-09-24 15:15:44.102658,-466
2021-09-24 15:15:44.102680,-442
2021-09-24 15:15:44.102688,-68
2021-09-24 15:15:44.102695,420
2021-09-24 15:15:44.102702,617
2021-09-24 15:15:44.102708,349
2021-09-24 15:15:44.102715,70
2021-09-24 15:15:44.102722,51
2021-09-24 15:15:44.102728,-9
2021-09-24 15:15:44.102735,-126
2021-09-24 15:15:44.102741,-126
2021-09-24 15:15:44.102748,-99
2021-09-24 15:15:44.102754,-128
2021-09-24 15:15:44.102761,-140
2021-09-24 15:15:44.102767,-136
2021-09-24 15:15:44.102774,-153
2021-09-24 15:15:44.102780,-167
2021-09-24 15:15:44.102787,-165
2021-09-24 15:15:44.102794,-174
2021-09-24 15:15:44.102800,-189
2021-09-24 15:15:44.102807,-204
2021-09-24 15:15:44.102813,-223
2021-09-24 15:15:44.102820,-242
2021-09-24 15:15:44.102826,-259
2021-09-24 15:15:44.102833,-281
2021-09-24 15:15:44.102840,-306
2021-09-24 15:15:44.102846,-335
2021-09-24 15:15:44.102853,-359
2021-09-24 15:15:44.102860,-371
2021-09-24 15:15:44.102866,-371
2021-09-24 15:15:44.417862,-364
2021-09-24 15:15:44.417917,-340
2021-09-24 15:15:44.417926,-303
2021-09-24 15:15:44.417933,-245
2021-09-24 15:15:44.417940,-155
2021-09-24 15:15:44.417947,-53
2021-09-24 15:15:44.417954,31
2021-09-24 15:15:44.417961,104
2021-09-24 15:15:44.417968,155
2021-09-24 15:15:44.417975,182
2021-09-24 15:15:44.417982,206
2021-09-24 15:15:44.417989,228
2021-09-24 15:15:44.417996,230
2021-09-24 15:15:44.418003,225
2021-09-24 15:15:44.418010,216
2021-09-24 15:15:44.418016,201
2021-09-24 15:15:44.418024,196
2021-09-24 15:15:44.418031,191
2021-09-24 15:15:44.418037,182
2021-09-24 15:15:44.418044,170
2021-09-24 15:15:44.418051,157
2021-09-24 15:15:44.418058,143
2021-09-24 15:15:44.418065,133
2021-09-24 15:15:44.418072,121
2021-09-24 15:15:44.418079,116
2021-09-24 15:15:44.418086,116
2021-09-24 15:15:44.418092,106
2021-09-24 15:15:44.418099,97
2021-09-24 15:15:44.418106,94
2021-09-24 15:15:44.418113,87
2021-09-24 15:15:44.597164,77
2021-09-24 15:15:44.597187,82
2021-09-24 15:15:44.597195,85
2021-09-24 15:15:44.597202,85
2021-09-24 15:15:44.597208,85
2021-09-24 15:15:44.597215,85
2021-09-24 15:15:44.597221,80
2021-09-24 15:15:44.597228,72
2021-09-24 15:15:44.597295,65
2021-09-24 15:15:44.597303,63
2021-09-24 15:15:44.597310,65
2021-09-24 15:15:44.597316,68
2021-09-24 15:15:44.597323,68
2021-09-24 15:15:44.597329,65
2021-09-24 15:15:44.597336,65
2021-09-24 15:15:44.597342,63
2021-09-24 15:15:44.597349,63
2021-09-24 15:15:44.597355,65
2021-09-24 15:15:44.597362,63
2021-09-24 15:15:44.597368,58
2021-09-24 15:15:44.597375,53
2021-09-24 15:15:44.597381,48
2021-09-24 15:15:44.597388,46
2021-09-24 15:15:44.597394,43
2021-09-24 15:15:44.597400,34
2021-09-24 15:15:44.597407,19
2021-09-24 15:15:44.597413,19
2021-09-24 15:15:44.597420,24
2021-09-24 15:15:44.597426,12
2021-09-24 15:15:44.597433,-7
2021-09-24 15:15:44.777847,-12
2021-09-24 15:15:44.777878,-7
2021-09-24 15:15:44.777890,-14
2021-09-24 15:15:44.777900,-21
2021-09-24 15:15:44.777910,-2
2021-09-24 15:15:44.777920,21
2021-09-24 15:15:44.777930,29
2021-09-24 15:15:44.777940,24
2021-09-24 15:15:44.777950,21
2021-09-24 15:15:44.777960,24
2021-09-24 15:15:44.777970,29
2021-09-24 15:15:44.777980,34
2021-09-24 15:15:44.777990,29
2021-09-24 15:15:44.778000,19
2021-09-24 15:15:44.778009,7
2021-09-24 15:15:44.778019,-21
2021-09-24 15:15:44.778029,-87
2021-09-24 15:15:44.778039,-245
2021-09-24 15:15:44.778049,-459
2021-09-24 15:15:44.778059,-451
2021-09-24 15:15:44.778069,-77
2021-09-24 15:15:44.778079,427
2021-09-24 15:15:44.778089,631
2021-09-24 15:15:44.778099,364
2021-09-24 15:15:44.778109,82
2021-09-24 15:15:44.778119,53
2021-09-24 15:15:44.778129,-7
2021-09-24 15:15:44.778139,-121
2021-09-24 15:15:44.778148,-114
2021-09-24 15:15:44.778158,-92
2021-09-24 15:15:45.092121,-126
2021-09-24 15:15:45.092143,-138
2021-09-24 15:15:45.092151,-133
2021-09-24 15:15:45.092158,-148
2021-09-24 15:15:45.092164,-165
2021-09-24 15:15:45.092171,-182
2021-09-24 15:15:45.092177,-199
2021-09-24 15:15:45.092184,-211
2021-09-24 15:15:45.092190,-221
2021-09-24 15:15:45.092197,-235
2021-09-24 15:15:45.092204,-252
2021-09-24 15:15:45.092210,-274
2021-09-24 15:15:45.092217,-303
2021-09-24 15:15:45.092223,-332
2021-09-24 15:15:45.092230,-352
2021-09-24 15:15:45.092236,-371
2021-09-24 15:15:45.092243,-388
2021-09-24 15:15:45.092250,-391
2021-09-24 15:15:45.092257,-383
2021-09-24 15:15:45.092264,-361
2021-09-24 15:15:45.092270,-320
2021-09-24 15:15:45.092277,-259
2021-09-24 15:15:45.092283,-172
2021-09-24 15:15:45.092290,-75
2021-09-24 15:15:45.092296,14
2021-09-24 15:15:45.092303,87
2021-09-24 15:15:45.092310,145
2021-09-24 15:15:45.092316,184
2021-09-24 15:15:45.092323,206
2021-09-24 15:15:45.092329,211
2021-09-24 15:15:45.272713,211
2021-09-24 15:15:45.272735,216
2021-09-24 15:15:45.272743,216
2021-09-24 15:15:45.272750,206
2021-09-24 15:15:45.272756,199
2021-09-24 15:15:45.272763,191
2021-09-24 15:15:45.272769,177
2021-09-24 15:15:45.272776,167
2021-09-24 15:15:45.272782,157
2021-09-24 15:15:45.272789,145
2021-09-24 15:15:45.272795,138
2021-09-24 15:15:45.272801,128
2021-09-24 15:15:45.272808,123
2021-09-24 15:15:45.272814,121
2021-09-24 15:15:45.272821,116
2021-09-24 15:15:45.272827,111
2021-09-24 15:15:45.272834,106
2021-09-24 15:15:45.272840,97
2021-09-24 15:15:45.272847,89
2021-09-24 15:15:45.272853,97
2021-09-24 15:15:45.272860,99
2021-09-24 15:15:45.272866,94
2021-09-24 15:15:45.272873,89
2021-09-24 15:15:45.272880,87
2021-09-24 15:15:45.272886,85
2021-09-24 15:15:45.272893,87
2021-09-24 15:15:45.272899,87
2021-09-24 15:15:45.272906,85
2021-09-24 15:15:45.272912,82
2021-09-24 15:15:45.272918,80
2021-09-24 15:15:45.452960,75
2021-09-24 15:15:45.452992,70
2021-09-24 15:15:45.453004,68
2021-09-24 15:15:45.453014,65
2021-09-24 15:15:45.453024,60
2021-09-24 15:15:45.453034,51
2021-09-24 15:15:45.453044,51
2021-09-24 15:15:45.453054,53
2021-09-24 15:15:45.453064,46
2021-09-24 15:15:45.453074,38
2021-09-24 15:15:45.453084,26
2021-09-24 15:15:45.453094,14
2021-09-24 15:15:45.453104,19
2021-09-24 15:15:45.453114,31
2021-09-24 15:15:45.453124,26
2021-09-24 15:15:45.453134,12
2021-09-24 15:15:45.453144,-12
2021-09-24 15:15:45.453154,-24
2021-09-24 15:15:45.453164,-17
2021-09-24 15:15:45.453175,-14
2021-09-24 15:15:45.453185,-21
2021-09-24 15:15:45.453195,-9
