Time,ECG
2021-09-24 15:40:23.183874,-296
2021-09-24 15:40:23.183894,-335
2021-09-24 15:40:23.183903,-371
2021-09-24 15:40:23.183911,-403
2021-09-24 15:40:23.183919,-429
2021-09-24 15:40:23.183928,-444
2021-09-24 15:40:23.183935,-459
2021-09-24 15:40:23.183943,-456
2021-09-24 15:40:23.183951,-417
2021-09-24 15:40:23.183959,-359
2021-09-24 15:40:23.183967,-272
2021-09-24 15:40:23.183975,-150
2021-09-24 15:40:23.183983,-38
2021-09-24 15:40:23.183991,51
2021-09-24 15:40:23.183999,131
2021-09-24 15:40:23.184006,189
2021-09-24 15:40:23.184014,216
2021-09-24 15:40:23.184023,233
2021-09-24 15:40:23.184031,240
2021-09-24 15:40:23.184039,242
2021-09-24 15:40:23.184047,245
2021-09-24 15:40:23.184054,238
2021-09-24 15:40:23.184060,228
2021-09-24 15:40:23.184065,221
2021-09-24 15:40:23.184070,211
2021-09-24 15:40:23.184074,196
2021-09-24 15:40:23.184079,184
2021-09-24 15:40:23.184084,174
2021-09-24 15:40:23.184088,167
2021-09-24 15:40:23.184093,165
2021-09-24 15:40:23.271685,155
2021-09-24 15:40:23.271707,133
2021-09-24 15:40:23.271715,128
2021-09-24 15:40:23.271722,128
2021-09-24 15:40:23.271728,109
2021-09-24 15:40:23.271735,92
2021-09-24 15:40:23.271743,92
2021-09-24 15:40:23.271749,85
2021-09-24 15:40:23.271756,72
2021-09-24 15:40:23.271766,72
2021-09-24 15:40:23.271773,70
2021-09-24 15:40:23.271780,55
2021-09-24 15:40:23.271786,55
2021-09-24 15:40:23.271793,65
2021-09-24 15:40:23.271799,60
2021-09-24 15:40:23.271806,53
2021-09-24 15:40:23.271812,65
2021-09-24 15:40:23.271820,70
2021-09-24 15:40:23.271826,55
2021-09-24 15:40:23.271833,51
2021-09-24 15:40:23.271839,60
2021-09-24 15:40:23.271846,60
2021-09-24 15:40:23.271852,55
2021-09-24 15:40:23.271859,53
2021-09-24 15:40:23.271865,48
2021-09-24 15:40:23.271872,53
2021-09-24 15:40:23.271878,60
2021-09-24 15:40:23.271885,51
2021-09-24 15:40:23.271892,48
2021-09-24 15:40:23.271901,55
2021-09-24 15:40:23.585213,58
2021-09-24 15:40:23.585238,65
2021-09-24 15:40:23.585245,68
2021-09-24 15:40:23.585252,53
2021-09-24 15:40:23.585259,29
2021-09-24 15:40:23.585266,12
2021-09-24 15:40:23.585272,14
2021-09-24 15:40:23.585279,17
2021-09-24 15:40:23.585285,14
2021-09-24 15:40:23.585292,19
2021-09-24 15:40:23.585298,36
2021-09-24 15:40:23.585305,41
2021-09-24 15:40:23.585311,31
2021-09-24 15:40:23.585324,26
2021-09-24 15:40:23.585331,34
2021-09-24 15:40:23.585337,36
2021-09-24 15:40:23.585344,29
2021-09-24 15:40:23.585350,31
2021-09-24 15:40:23.585357,36
2021-09-24 15:40:23.585363,24
2021-09-24 15:40:23.585370,-12
2021-09-24 15:40:23.585377,-77
2021-09-24 15:40:23.585383,-233
2021-09-24 15:40:23.585390,-454
2021-09-24 15:40:23.585396,-466
2021-09-24 15:40:23.585403,-97
2021-09-24 15:40:23.585409,476
2021-09-24 15:40:23.585416,777
2021-09-24 15:40:23.585422,449
2021-09-24 15:40:23.585431,68
2021-09-24 15:40:23.721826,85
2021-09-24 15:40:23.721847,63
2021-09-24 15:40:23.721855,-94
2021-09-24 15:40:23.721862,-111
2021-09-24 15:40:23.721869,-87
2021-09-24 15:40:23.721875,-133
2021-09-24 15:40:23.721881,-150
2021-09-24 15:40:23.721888,-131
2021-09-24 15:40:23.721894,-140
2021-09-24 15:40:23.721901,-165
2021-09-24 15:40:23.721907,-179
2021-09-24 15:40:23.721914,-191
2021-09-24 15:40:23.721920,-196
2021-09-24 15:40:23.721927,-208
2021-09-24 15:40:23.721933,-240
2021-09-24 15:40:23.721940,-269
2021-09-24 15:40:23.721946,-293
2021-09-24 15:40:23.721956,-320
2021-09-24 15:40:23.721963,-352
2021-09-24 15:40:23.721969,-391
2021-09-24 15:40:23.721976,-427
2021-09-24 15:40:23.721982,-451
2021-09-24 15:40:23.721989,-473
2021-09-24 15:40:23.721995,-485
2021-09-24 15:40:23.722002,-476
2021-09-24 15:40:23.722008,-449
2021-09-24 15:40:23.722015,-408
2021-09-24 15:40:23.722022,-330
2021-09-24 15:40:23.722028,-211
2021-09-24 15:40:23.722035,-80
2021-09-24 15:40:23.991338,36
2021-09-24 15:40:23.991359,119
2021-09-24 15:40:23.991367,177
2021-09-24 15:40:23.991374,221
2021-09-24 15:40:23.991381,238
2021-09-24 15:40:23.991387,242
2021-09-24 15:40:23.991394,250
2021-09-24 15:40:23.991405,250
2021-09-24 15:40:23.991412,242
2021-09-24 15:40:23.991418,228
2021-09-24 15:40:23.991425,221
2021-09-24 15:40:23.991432,221
2021-09-24 15:40:23.991438,216
2021-09-24 15:40:23.991444,201
2021-09-24 15:40:23.991451,184
2021-09-24 15:40:23.991457,172
2021-09-24 15:40:23.991464,153
2021-09-24 15:40:23.991471,131
2021-09-24 15:40:23.991477,123
2021-09-24 15:40:23.991484,126
2021-09-24 15:40:23.991490,121
2021-09-24 15:40:23.991497,109
2021-09-24 15:40:23.991503,99
2021-09-24 15:40:23.991510,94
2021-09-24 15:40:23.991516,97
2021-09-24 15:40:23.991523,94
2021-09-24 15:40:23.991529,89
2021-09-24 15:40:23.991536,87
2021-09-24 15:40:23.991542,87
2021-09-24 15:40:23.991550,87
2021-09-24 15:40:24.216797,85
2021-09-24 15:40:24.216821,82
2021-09-24 15:40:24.216829,77
2021-09-24 15:40:24.216835,65
2021-09-24 15:40:24.216842,55
2021-09-24 15:40:24.216848,55
2021-09-24 15:40:24.216855,60
2021-09-24 15:40:24.216861,65
2021-09-24 15:40:24.216868,65
2021-09-24 15:40:24.216874,55
2021-09-24 15:40:24.216881,53
2021-09-24 15:40:24.216887,55
2021-09-24 15:40:24.216894,53
2021-09-24 15:40:24.216900,48
2021-09-24 15:40:24.216907,46
2021-09-24 15:40:24.216913,43
2021-09-24 15:40:24.216919,38
2021-09-24 15:40:24.216926,34
2021-09-24 15:40:24.216932,38
2021-09-24 15:40:24.216939,38
2021-09-24 15:40:24.216946,26
2021-09-24 15:40:24.216952,17
2021-09-24 15:40:24.216959,2
2021-09-24 15:40:24.216965,-9
2021-09-24 15:40:24.216975,0
2021-09-24 15:40:24.216982,2
2021-09-24 15:40:24.216988,-9
2021-09-24 15:40:24.216995,-2
2021-09-24 15:40:24.217001,26
2021-09-24 15:40:24.217008,38
2021-09-24 15:40:24.531050,34
2021-09-24 15:40:24.531072,38
2021-09-24 15:40:24.531079,41
2021-09-24 15:40:24.531086,31
2021-09-24 15:40:24.531093,31
2021-09-24 15:40:24.531099,43
2021-09-24 15:40:24.531105,43
2021-09-24 15:40:24.531112,19
2021-09-24 15:40:24.531118,-34
2021-09-24 15:40:24.531125,-119
2021-09-24 15:40:24.531131,-298
2021-09-24 15:40:24.531138,-483
2021-09-24 15:40:24.531144,-383
2021-09-24 15:40:24.531151,70
2021-09-24 15:40:24.531157,617
2021-09-24 15:40:24.531163,711
2021-09-24 15:40:24.531170,272
2021-09-24 15:40:24.531176,19
2021-09-24 15:40:24.531183,80
2021-09-24 15:40:24.531189,-9
2021-09-24 15:40:24.531196,-133
2021-09-24 15:40:24.531202,-106
2021-09-24 15:40:24.531211,-97
2021-09-24 15:40:24.531217,-145
2021-09-24 15:40:24.531224,-153
2021-09-24 15:40:24.531230,-143
2021-09-24 15:40:24.531237,-160
2021-09-24 15:40:24.531243,-179
2021-09-24 15:40:24.531249,-184
2021-09-24 15:40:24.531256,-182
2021-09-24 15:40:24.666426,-191
2021-09-24 15:40:24.666448,-221
2021-09-24 15:40:24.666456,-247
2021-09-24 15:40:24.666463,-267
2021-09-24 15:40:24.666469,-289
2021-09-24 15:40:24.666476,-320
2021-09-24 15:40:24.666482,-349
2021-09-24 15:40:24.666489,-386
2021-09-24 15:40:24.666495,-429
2021-09-24 15:40:24.666502,-463
2021-09-24 15:40:24.666508,-478
2021-09-24 15:40:24.666515,-488
2021-09-24 15:40:24.666521,-483
2021-09-24 15:40:24.666528,-451
2021-09-24 15:40:24.666534,-386
2021-09-24 15:40:24.666541,-286
2021-09-24 15:40:24.666547,-155
2021-09-24 15:40:24.666554,-19
2021-09-24 15:40:24.666560,80
2021-09-24 15:40:24.666567,143
2021-09-24 15:40:24.666573,199
2021-09-24 15:40:24.666580,235
2021-09-24 15:40:24.666586,238
2021-09-24 15:40:24.666593,233
2021-09-24 15:40:24.666606,235
2021-09-24 15:40:24.666612,228
2021-09-24 15:40:24.666619,221
2021-09-24 15:40:24.666625,223
2021-09-24 15:40:24.666632,228
2021-09-24 15:40:24.666638,233
2021-09-24 15:40:24.891741,221
2021-09-24 15:40:24.891795,191
2021-09-24 15:40:24.891803,172
2021-09-24 15:40:24.891810,170
2021-09-24 15:40:24.891816,162
2021-09-24 15:40:24.891822,148
2021-09-24 15:40:24.891829,128
2021-09-24 15:40:24.891835,109
2021-09-24 15:40:24.891841,97
2021-09-24 15:40:24.891848,97
2021-09-24 15:40:24.891854,102
2021-09-24 15:40:24.891860,94
2021-09-24 15:40:24.891867,82
2021-09-24 15:40:24.891873,80
2021-09-24 15:40:24.891880,82
2021-09-24 15:40:24.891886,80
2021-09-24 15:40:24.891892,85
2021-09-24 15:40:24.891899,80
2021-09-24 15:40:24.891905,77
2021-09-24 15:40:24.891912,82
2021-09-24 15:40:24.891918,87
2021-09-24 15:40:24.891924,77
2021-09-24 15:40:24.891931,70
2021-09-24 15:40:24.891937,72
2021-09-24 15:40:24.891944,72
2021-09-24 15:40:24.891950,68
2021-09-24 15:40:24.891956,60
2021-09-24 15:40:24.891963,68
2021-09-24 15:40:24.891969,80
2021-09-24 15:40:24.891975,68
2021-09-24 15:40:25.116803,48
2021-09-24 15:40:25.116825,60
2021-09-24 15:40:25.116833,65
2021-09-24 15:40:25.116840,48
2021-09-24 15:40:25.116847,43
2021-09-24 15:40:25.116853,43
2021-09-24 15:40:25.116860,36
2021-09-24 15:40:25.116866,41
2021-09-24 15:40:25.116873,53
2021-09-24 15:40:25.116879,51
2021-09-24 15:40:25.116886,36
2021-09-24 15:40:25.116892,9
2021-09-24 15:40:25.116899,-7
2021-09-24 15:40:25.116905,7
2021-09-24 15:40:25.116912,12
2021-09-24 15:40:25.116919,-2
2021-09-24 15:40:25.116925,7
2021-09-24 15:40:25.116932,34
2021-09-24 15:40:25.116939,38
2021-09-24 15:40:25.116945,26
2021-09-24 15:40:25.116952,26
2021-09-24 15:40:25.116958,43
2021-09-24 15:40:25.116965,46
2021-09-24 15:40:25.116972,34
2021-09-24 15:40:25.116978,36
2021-09-24 15:40:25.116985,46
2021-09-24 15:40:25.116991,17
2021-09-24 15:40:25.116998,-51
2021-09-24 15:40:25.117004,-155
2021-09-24 15:40:25.117011,-366
2021-09-24 15:40:25.341174,-522
2021-09-24 15:40:25.341194,-335
2021-09-24 15:40:25.341202,201
2021-09-24 15:40:25.341209,694
2021-09-24 15:40:25.341216,602
2021-09-24 15:40:25.341223,145
2021-09-24 15:40:25.341229,19
2021-09-24 15:40:25.341236,70
2021-09-24 15:40:25.341242,-51
2021-09-24 15:40:25.341249,-136
2021-09-24 15:40:25.341258,-104
2021-09-24 15:40:25.341265,-116
2021-09-24 15:40:25.341271,-155
2021-09-24 15:40:25.341278,-153
2021-09-24 15:40:25.341284,-155
2021-09-24 15:40:25.341291,-177
2021-09-24 15:40:25.341297,-187
2021-09-24 15:40:25.341304,-189
2021-09-24 15:40:25.341310,-204
2021-09-24 15:40:25.341317,-216
2021-09-24 15:40:25.341323,-235
2021-09-24 15:40:25.341330,-262
2021-09-24 15:40:25.341336,-284
2021-09-24 15:40:25.341342,-308
2021-09-24 15:40:25.341349,-342
2021-09-24 15:40:25.341355,-374
2021-09-24 15:40:25.341362,-410
2021-09-24 15:40:25.341368,-449
2021-09-24 15:40:25.341375,-480
2021-09-24 15:40:25.341381,-493
2021-09-24 15:40:25.655389,-493
2021-09-24 15:40:25.655411,-476
2021-09-24 15:40:25.655419,-434
2021-09-24 15:40:25.655426,-361
2021-09-24 15:40:25.655432,-259
2021-09-24 15:40:25.655439,-143
2021-09-24 15:40:25.655445,-29
2021-09-24 15:40:25.655452,70
2021-09-24 15:40:25.655458,145
2021-09-24 15:40:25.655465,194
2021-09-24 15:40:25.655471,225
2021-09-24 15:40:25.655477,238
2021-09-24 15:40:25.655484,242
2021-09-24 15:40:25.655490,252
2021-09-24 15:40:25.655497,250
2021-09-24 15:40:25.655503,233
2021-09-24 15:40:25.655510,223
2021-09-24 15:40:25.655516,216
2021-09-24 15:40:25.655523,204
2021-09-24 15:40:25.655529,201
2021-09-24 15:40:25.655536,196
2021-09-24 15:40:25.655542,170
2021-09-24 15:40:25.655549,145
2021-09-24 15:40:25.655555,148
2021-09-24 15:40:25.655562,145
2021-09-24 15:40:25.655571,126
2021-09-24 15:40:25.655578,116
2021-09-24 15:40:25.655584,121
2021-09-24 15:40:25.655591,116
2021-09-24 15:40:25.655597,102
2021-09-24 15:40:25.881114,99
2021-09-24 15:40:25.881137,94
2021-09-24 15:40:25.881144,80
2021-09-24 15:40:25.881151,77
2021-09-24 15:40:25.881158,77
2021-09-24 15:40:25.881164,80
2021-09-24 15:40:25.881170,77
2021-09-24 15:40:25.881177,72
2021-09-24 15:40:25.881184,68
2021-09-24 15:40:25.881190,65
2021-09-24 15:40:25.881197,55
2021-09-24 15:40:25.881203,51
2021-09-24 15:40:25.881210,58
2021-09-24 15:40:25.881216,65
2021-09-24 15:40:25.881223,60
2021-09-24 15:40:25.881229,46
2021-09-24 15:40:25.881235,34
2021-09-24 15:40:25.881242,38
2021-09-24 15:40:25.881248,55
2021-09-24 15:40:25.881255,55
2021-09-24 15:40:25.881261,43
2021-09-24 15:40:25.881268,26
2021-09-24 15:40:25.881274,21
2021-09-24 15:40:25.881281,19
2021-09-24 15:40:25.881287,14
2021-09-24 15:40:25.881294,4
2021-09-24 15:40:25.881300,9
2021-09-24 15:40:25.881307,24
2021-09-24 15:40:25.881313,38
2021-09-24 15:40:25.881320,43
2021-09-24 15:40:26.106817,41
2021-09-24 15:40:26.106840,43
2021-09-24 15:40:26.106848,41
2021-09-24 15:40:26.106855,29
2021-09-24 15:40:26.106861,31
2021-09-24 15:40:26.106868,36
2021-09-24 15:40:26.106874,26
2021-09-24 15:40:26.106881,-2
2021-09-24 15:40:26.106888,-48
2021-09-24 15:40:26.106894,-140
2021-09-24 15:40:26.106901,-330
2021-09-24 15:40:26.106908,-502
2021-09-24 15:40:26.106914,-349
2021-09-24 15:40:26.106921,211
2021-09-24 15:40:26.106927,738
2021-09-24 15:40:26.106934,631
2021-09-24 15:40:26.106944,170
2021-09-24 15:40:26.106951,48
2021-09-24 15:40:26.106957,89
2021-09-24 15:40:26.106964,-46
2021-09-24 15:40:26.106970,-136
2021-09-24 15:40:26.106977,-111
2021-09-24 15:40:26.106983,-119
2021-09-24 15:40:26.106990,-148
2021-09-24 15:40:26.106996,-150
2021-09-24 15:40:26.107003,-150
2021-09-24 15:40:26.107009,-165
2021-09-24 15:40:26.107016,-179
2021-09-24 15:40:26.107022,-184
2021-09-24 15:40:26.107029,-191
2021-09-24 15:40:26.376088,-206
2021-09-24 15:40:26.376110,-223
2021-09-24 15:40:26.376118,-250
2021-09-24 15:40:26.376125,-281
2021-09-24 15:40:26.376131,-308
2021-09-24 15:40:26.376138,-340
2021-09-24 15:40:26.376144,-378
2021-09-24 15:40:26.376151,-417
2021-09-24 15:40:26.376157,-451
2021-09-24 15:40:26.376164,-485
2021-09-24 15:40:26.376170,-500
2021-09-24 15:40:26.376177,-483
2021-09-24 15:40:26.376183,-459
2021-09-24 15:40:26.376190,-427
2021-09-24 15:40:26.376196,-352
2021-09-24 15:40:26.376203,-230
2021-09-24 15:40:26.376209,-99
2021-09-24 15:40:26.376216,2
2021-09-24 15:40:26.376222,92
2021-09-24 15:40:26.376229,165
2021-09-24 15:40:26.376235,199
2021-09-24 15:40:26.376242,223
2021-09-24 15:40:26.376248,247
2021-09-24 15:40:26.376255,245
2021-09-24 15:40:26.376261,238
2021-09-24 15:40:26.376268,242
2021-09-24 15:40:26.376274,242
2021-09-24 15:40:26.376281,225
2021-09-24 15:40:26.376287,216
2021-09-24 15:40:26.376294,211
2021-09-24 15:40:26.511717,206
2021-09-24 15:40:26.511738,191
2021-09-24 15:40:26.511746,172
2021-09-24 15:40:26.511753,165
2021-09-24 15:40:26.511760,157
2021-09-24 15:40:26.511766,140
2021-09-24 15:40:26.511773,133
2021-09-24 15:40:26.511779,133
2021-09-24 15:40:26.511786,116
2021-09-24 15:40:26.511792,102
2021-09-24 15:40:26.511799,104
2021-09-24 15:40:26.511805,109
2021-09-24 15:40:26.511812,104
2021-09-24 15:40:26.511821,99
2021-09-24 15:40:26.511828,94
2021-09-24 15:40:26.511834,97
2021-09-24 15:40:26.511841,97
2021-09-24 15:40:26.511847,97
2021-09-24 15:40:26.511854,99
2021-09-24 15:40:26.511860,102
2021-09-24 15:40:26.511867,97
2021-09-24 15:40:26.511873,87
2021-09-24 15:40:26.511880,85
2021-09-24 15:40:26.511886,92
2021-09-24 15:40:26.511893,87
2021-09-24 15:40:26.511900,77
2021-09-24 15:40:26.511906,70
2021-09-24 15:40:26.511913,63
2021-09-24 15:40:26.511919,65
2021-09-24 15:40:26.511926,65
2021-09-24 15:40:26.781295,65
2021-09-24 15:40:26.781325,75
2021-09-24 15:40:26.781337,82
2021-09-24 15:40:26.781348,72
2021-09-24 15:40:26.781357,55
2021-09-24 15:40:26.781367,48
2021-09-24 15:40:26.781378,43
2021-09-24 15:40:26.781387,24
2021-09-24 15:40:26.781397,7
2021-09-24 15:40:26.781407,9
2021-09-24 15:40:26.781417,29
2021-09-24 15:40:26.781427,46
2021-09-24 15:40:26.781437,43
2021-09-24 15:40:26.781447,29
2021-09-24 15:40:26.781457,21
2021-09-24 15:40:26.781467,17
2021-09-24 15:40:26.781477,19
2021-09-24 15:40:26.781487,21
2021-09-24 15:40:26.781497,19
2021-09-24 15:40:26.781507,17
2021-09-24 15:40:26.781517,-4
2021-09-24 15:40:26.781527,-63
2021-09-24 15:40:26.781537,-177
2021-09-24 15:40:26.781547,-381
2021-09-24 15:40:26.781557,-519
2021-09-24 15:40:26.781567,-320
2021-09-24 15:40:26.781577,238
2021-09-24 15:40:26.781587,728
2021-09-24 15:40:26.781597,602
2021-09-24 15:40:26.781607,150
2021-09-24 15:40:27.006909,58
2021-09-24 15:40:27.006940,104
2021-09-24 15:40:27.006952,-38
2021-09-24 15:40:27.006962,-123
2021-09-24 15:40:27.006972,-77
2021-09-24 15:40:27.006982,-77
2021-09-24 15:40:27.006992,-119
2021-09-24 15:40:27.007002,-131
2021-09-24 15:40:27.007012,-133
2021-09-24 15:40:27.007022,-150
2021-09-24 15:40:27.007032,-162
2021-09-24 15:40:27.007042,-174
2021-09-24 15:40:27.007052,-194
2021-09-24 15:40:27.007062,-208
2021-09-24 15:40:27.007072,-218
2021-09-24 15:40:27.007082,-245
2021-09-24 15:40:27.007092,-276
2021-09-24 15:40:27.007106,-291
2021-09-24 15:40:27.007117,-320
2021-09-24 15:40:27.007127,-357
2021-09-24 15:40:27.007137,-388
2021-09-24 15:40:27.007146,-422
2021-09-24 15:40:27.007157,-446
2021-09-24 15:40:27.007166,-459
2021-09-24 15:40:27.007176,-459
2021-09-24 15:40:27.007186,-432
2021-09-24 15:40:27.007196,-383
2021-09-24 15:40:27.007206,-313
2021-09-24 15:40:27.007216,-201
2021-09-24 15:40:27.007226,-77
2021-09-24 15:40:27.231059,29
2021-09-24 15:40:27.231074,121
2021-09-24 15:40:27.231080,189
2021-09-24 15:40:27.231086,228
2021-09-24 15:40:27.231091,250
2021-09-24 15:40:27.231096,262
2021-09-24 15:40:27.231102,259
2021-09-24 15:40:27.231107,255
2021-09-24 15:40:27.231112,255
2021-09-24 15:40:27.231117,250
2021-09-24 15:40:27.231122,245
2021-09-24 15:40:27.231127,242
2021-09-24 15:40:27.231132,235
2021-09-24 15:40:27.231138,218
2021-09-24 15:40:27.231143,196
2021-09-24 15:40:27.231148,184
2021-09-24 15:40:27.231153,174
2021-09-24 15:40:27.231158,160
2021-09-24 15:40:27.231164,145
2021-09-24 15:40:27.231169,138
2021-09-24 15:40:27.231174,131
2021-09-24 15:40:27.231179,126
2021-09-24 15:40:27.231185,114
2021-09-24 15:40:27.231190,97
2021-09-24 15:40:27.231195,87
2021-09-24 15:40:27.231200,89
2021-09-24 15:40:27.231205,89
2021-09-24 15:40:27.231210,85
2021-09-24 15:40:27.231216,89
2021-09-24 15:40:27.231221,97
2021-09-24 15:40:27.456873,94
2021-09-24 15:40:27.456897,89
2021-09-24 15:40:27.456905,92
2021-09-24 15:40:27.456912,92
2021-09-24 15:40:27.456919,89
2021-09-24 15:40:27.456926,82
2021-09-24 15:40:27.456933,85
2021-09-24 15:40:27.456940,89
2021-09-24 15:40:27.456947,77
2021-09-24 15:40:27.456954,70
2021-09-24 15:40:27.456961,72
2021-09-24 15:40:27.456968,65
2021-09-24 15:40:27.456975,51
2021-09-24 15:40:27.456981,60
2021-09-24 15:40:27.456988,77
2021-09-24 15:40:27.456995,75
2021-09-24 15:40:27.457002,60
2021-09-24 15:40:27.457009,48
2021-09-24 15:40:27.457016,41
2021-09-24 15:40:27.457023,36
2021-09-24 15:40:27.457030,29
2021-09-24 15:40:27.457037,14
2021-09-24 15:40:27.457044,0
2021-09-24 15:40:27.457051,7
2021-09-24 15:40:27.457058,31
2021-09-24 15:40:27.457064,48
2021-09-24 15:40:27.457071,46
2021-09-24 15:40:27.457078,48
2021-09-24 15:40:27.457085,46
2021-09-24 15:40:27.457095,36
2021-09-24 15:40:27.680449,36
2021-09-24 15:40:27.680470,51
2021-09-24 15:40:27.680478,58
2021-09-24 15:40:27.680484,36
2021-09-24 15:40:27.680491,-9
2021-09-24 15:40:27.680498,-68
2021-09-24 15:40:27.680504,-179
2021-09-24 15:40:27.680511,-395
2021-09-24 15:40:27.680517,-514
2021-09-24 15:40:27.680524,-262
2021-09-24 15:40:27.680530,296
2021-09-24 15:40:27.680537,740
2021-09-24 15:40:27.680543,583
2021-09-24 15:40:27.680550,143
2021-09-24 15:40:27.680556,65
2021-09-24 15:40:27.680562,89
2021-09-24 15:40:27.680569,-77
2021-09-24 15:40:27.680575,-150
2021-09-24 15:40:27.680582,-92
2021-09-24 15:40:27.680588,-102
2021-09-24 15:40:27.680595,-145
2021-09-24 15:40:27.680601,-145
2021-09-24 15:40:27.680608,-145
2021-09-24 15:40:27.680614,-160
2021-09-24 15:40:27.680621,-165
2021-09-24 15:40:27.680627,-177
2021-09-24 15:40:27.680634,-199
2021-09-24 15:40:27.680640,-218
2021-09-24 15:40:27.680647,-230
2021-09-24 15:40:27.680653,-247
2021-09-24 15:40:27.906829,-269
2021-09-24 15:40:27.906852,-293
2021-09-24 15:40:27.906860,-330
2021-09-24 15:40:27.906867,-378
2021-09-24 15:40:27.906874,-417
2021-09-24 15:40:27.906880,-444
2021-09-24 15:40:27.906887,-466
2021-09-24 15:40:27.906893,-480
2021-09-24 15:40:27.906900,-480
2021-09-24 15:40:27.906906,-466
2021-09-24 15:40:27.906913,-427
2021-09-24 15:40:27.906919,-347
2021-09-24 15:40:27.906926,-228
2021-09-24 15:40:27.906932,-102
2021-09-24 15:40:27.906939,9
2021-09-24 15:40:27.906946,97
2021-09-24 15:40:27.906952,167
2021-09-24 15:40:27.906958,218
2021-09-24 15:40:27.906965,240
2021-09-24 15:40:27.906971,252
2021-09-24 15:40:27.906978,255
2021-09-24 15:40:27.906984,247
2021-09-24 15:40:27.906991,242
2021-09-24 15:40:27.906997,240
2021-09-24 15:40:27.907004,235
2021-09-24 15:40:27.907010,233
2021-09-24 15:40:27.907016,221
2021-09-24 15:40:27.907023,206
2021-09-24 15:40:27.907029,201
2021-09-24 15:40:27.907036,191
2021-09-24 15:40:28.176223,182
2021-09-24 15:40:28.176244,179
2021-09-24 15:40:28.176256,167
2021-09-24 15:40:28.176263,145
2021-09-24 15:40:28.176270,136
2021-09-24 15:40:28.176276,145
2021-09-24 15:40:28.176283,140
2021-09-24 15:40:28.176289,123
2021-09-24 15:40:28.176296,109
2021-09-24 15:40:28.176302,99
2021-09-24 15:40:28.176309,99
2021-09-24 15:40:28.176315,99
2021-09-24 15:40:28.176322,97
2021-09-24 15:40:28.176328,97
2021-09-24 15:40:28.176334,89
2021-09-24 15:40:28.176341,85
2021-09-24 15:40:28.176347,94
2021-09-24 15:40:28.176354,94
2021-09-24 15:40:28.176361,87
2021-09-24 15:40:28.176367,89
2021-09-24 15:40:28.176376,87
2021-09-24 15:40:28.176383,75
2021-09-24 15:40:28.176390,70
2021-09-24 15:40:28.176396,72
2021-09-24 15:40:28.176403,72
2021-09-24 15:40:28.176409,70
2021-09-24 15:40:28.176416,65
2021-09-24 15:40:28.176422,55
2021-09-24 15:40:28.176428,60
2021-09-24 15:40:28.176435,70
2021-09-24 15:40:28.401201,75
2021-09-24 15:40:28.401226,68
2021-09-24 15:40:28.401234,51
2021-09-24 15:40:28.401241,24
2021-09-24 15:40:28.401248,17
2021-09-24 15:40:28.401255,17
2021-09-24 15:40:28.401262,7
2021-09-24 15:40:28.401269,-7
2021-09-24 15:40:28.401276,-4
2021-09-24 15:40:28.401282,17
2021-09-24 15:40:28.401289,34
2021-09-24 15:40:28.401296,29
2021-09-24 15:40:28.401303,26
2021-09-24 15:40:28.401310,24
2021-09-24 15:40:28.401317,21
2021-09-24 15:40:28.401324,21
2021-09-24 15:40:28.401331,19
2021-09-24 15:40:28.401338,19
2021-09-24 15:40:28.401345,12
2021-09-24 15:40:28.401352,-21
2021-09-24 15:40:28.401358,-97
2021-09-24 15:40:28.401365,-233
2021-09-24 15:40:28.401372,-434
2021-09-24 15:40:28.401379,-468
2021-09-24 15:40:28.401386,-157
2021-09-24 15:40:28.401393,388
2021-09-24 15:40:28.401400,755
2021-09-24 15:40:28.401407,493
2021-09-24 15:40:28.401414,65
2021-09-24 15:40:28.401421,43
2021-09-24 15:40:28.626041,53
2021-09-24 15:40:28.626066,-99
2021-09-24 15:40:28.626074,-138
2021-09-24 15:40:28.626081,-99
2021-09-24 15:40:28.626088,-133
2021-09-24 15:40:28.626095,-160
2021-09-24 15:40:28.626102,-138
2021-09-24 15:40:28.626109,-140
2021-09-24 15:40:28.626116,-165
2021-09-24 15:40:28.626123,-177
2021-09-24 15:40:28.626130,-184
2021-09-24 15:40:28.626137,-196
2021-09-24 15:40:28.626144,-208
2021-09-24 15:40:28.626151,-228
2021-09-24 15:40:28.626158,-252
2021-09-24 15:40:28.626165,-276
2021-09-24 15:40:28.626172,-308
2021-09-24 15:40:28.626179,-340
2021-09-24 15:40:28.626186,-374
2021-09-24 15:40:28.626192,-417
2021-09-24 15:40:28.626200,-451
2021-09-24 15:40:28.626206,-466
2021-09-24 15:40:28.626213,-476
2021-09-24 15:40:28.626220,-485
2021-09-24 15:40:28.626227,-468
2021-09-24 15:40:28.626234,-408
2021-09-24 15:40:28.626241,-318
2021-09-24 15:40:28.626248,-206
2021-09-24 15:40:28.626255,-75
2021-09-24 15:40:28.626262,43
2021-09-24 15:40:28.806875,128
2021-09-24 15:40:28.806896,189
2021-09-24 15:40:28.806904,228
2021-09-24 15:40:28.806911,250
2021-09-24 15:40:28.806917,264
2021-09-24 15:40:28.806924,267
2021-09-24 15:40:28.806930,255
2021-09-24 15:40:28.806937,238
2021-09-24 15:40:28.806944,235
2021-09-24 15:40:28.806950,228
2021-09-24 15:40:28.806957,211
2021-09-24 15:40:28.806963,204
2021-09-24 15:40:28.806970,194
2021-09-24 15:40:28.806976,177
2021-09-24 15:40:28.806982,172
2021-09-24 15:40:28.806989,165
2021-09-24 15:40:28.806995,148
2021-09-24 15:40:28.807002,138
2021-09-24 15:40:28.807008,131
2021-09-24 15:40:28.807015,123
2021-09-24 15:40:28.807021,114
2021-09-24 15:40:28.807028,109
2021-09-24 15:40:28.807037,109
2021-09-24 15:40:28.807043,104
2021-09-24 15:40:28.807050,102
2021-09-24 15:40:28.807056,109
2021-09-24 15:40:28.807063,109
2021-09-24 15:40:28.807070,99
2021-09-24 15:40:28.807076,92
2021-09-24 15:40:28.807083,89
2021-09-24 15:40:29.031824,85
2021-09-24 15:40:29.031846,80
2021-09-24 15:40:29.031853,85
2021-09-24 15:40:29.031860,87
2021-09-24 15:40:29.031867,85
2021-09-24 15:40:29.031873,82
2021-09-24 15:40:29.031880,75
2021-09-24 15:40:29.031886,75
2021-09-24 15:40:29.031893,77
2021-09-24 15:40:29.031899,70
2021-09-24 15:40:29.031906,70
2021-09-24 15:40:29.031912,70
2021-09-24 15:40:29.031919,60
2021-09-24 15:40:29.031925,58
2021-09-24 15:40:29.031932,63
2021-09-24 15:40:29.031938,65
2021-09-24 15:40:29.031944,68
2021-09-24 15:40:29.031951,63
2021-09-24 15:40:29.031957,43
2021-09-24 15:40:29.031964,21
2021-09-24 15:40:29.031970,14
2021-09-24 15:40:29.031977,12
2021-09-24 15:40:29.031983,4
2021-09-24 15:40:29.031990,0
2021-09-24 15:40:29.031996,7
2021-09-24 15:40:29.032003,26
2021-09-24 15:40:29.032009,46
2021-09-24 15:40:29.032016,38
2021-09-24 15:40:29.032022,34
2021-09-24 15:40:29.032029,41
2021-09-24 15:40:29.257759,36
2021-09-24 15:40:29.257816,26
2021-09-24 15:40:29.257826,34
2021-09-24 15:40:29.257834,36
2021-09-24 15:40:29.257841,19
2021-09-24 15:40:29.257848,-9
2021-09-24 15:40:29.257855,-55
2021-09-24 15:40:29.257862,-170
2021-09-24 15:40:29.257868,-400
2021-09-24 15:40:29.257875,-534
2021-09-24 15:40:29.257882,-298
2021-09-24 15:40:29.257888,264
2021-09-24 15:40:29.257894,716
2021-09-24 15:40:29.257900,534
2021-09-24 15:40:29.257907,82
2021-09-24 15:40:29.257913,19
2021-09-24 15:40:29.257919,51
2021-09-24 15:40:29.257926,-94
2021-09-24 15:40:29.257933,-150
2021-09-24 15:40:29.257939,-109
2021-09-24 15:40:29.257947,-138
2021-09-24 15:40:29.257954,-165
2021-09-24 15:40:29.257961,-153
2021-09-24 15:40:29.257967,-165
2021-09-24 15:40:29.257974,-184
2021-09-24 15:40:29.257981,-187
2021-09-24 15:40:29.257988,-199
2021-09-24 15:40:29.257995,-218
2021-09-24 15:40:29.258001,-225
2021-09-24 15:40:29.258008,-230
2021-09-24 15:40:29.526251,-250
2021-09-24 15:40:29.526273,-284
2021-09-24 15:40:29.526281,-325
2021-09-24 15:40:29.526288,-364
2021-09-24 15:40:29.526294,-403
2021-09-24 15:40:29.526301,-434
2021-09-24 15:40:29.526307,-466
2021-09-24 15:40:29.526313,-493
2021-09-24 15:40:29.526320,-505
2021-09-24 15:40:29.526326,-505
2021-09-24 15:40:29.526333,-495
2021-09-24 15:40:29.526339,-451
2021-09-24 15:40:29.526346,-364
2021-09-24 15:40:29.526352,-247
2021-09-24 15:40:29.526359,-114
2021-09-24 15:40:29.526365,2
2021-09-24 15:40:29.526371,87
2021-09-24 15:40:29.526378,155
2021-09-24 15:40:29.526384,204
2021-09-24 15:40:29.526391,230
2021-09-24 15:40:29.526397,245
2021-09-24 15:40:29.526404,250
2021-09-24 15:40:29.526411,247
2021-09-24 15:40:29.526417,247
2021-09-24 15:40:29.526423,242
2021-09-24 15:40:29.526430,235
2021-09-24 15:40:29.526436,228
2021-09-24 15:40:29.526443,211
2021-09-24 15:40:29.526449,199
2021-09-24 15:40:29.526456,204
2021-09-24 15:40:29.795566,199
2021-09-24 15:40:29.795596,177
2021-09-24 15:40:29.795608,157
2021-09-24 15:40:29.795619,153
2021-09-24 15:40:29.795629,148
2021-09-24 15:40:29.795644,136
2021-09-24 15:40:29.795655,128
2021-09-24 15:40:29.795665,126
2021-09-24 15:40:29.795675,119
2021-09-24 15:40:29.795685,102
2021-09-24 15:40:29.795695,92
2021-09-24 15:40:29.795705,104
2021-09-24 15:40:29.795715,106
2021-09-24 15:40:29.795725,89
2021-09-24 15:40:29.795735,92
2021-09-24 15:40:29.795745,94
2021-09-24 15:40:29.795755,82
2021-09-24 15:40:29.795765,87
2021-09-24 15:40:29.795775,92
2021-09-24 15:40:29.795785,80
2021-09-24 15:40:29.795795,70
2021-09-24 15:40:29.795805,75
2021-09-24 15:40:29.795815,72
2021-09-24 15:40:29.795824,65
2021-09-24 15:40:29.795834,68
2021-09-24 15:40:29.795844,70
2021-09-24 15:40:29.795854,65
2021-09-24 15:40:29.795864,65
2021-09-24 15:40:29.795874,65
2021-09-24 15:40:29.795884,60
2021-09-24 15:40:30.021185,58
2021-09-24 15:40:30.021211,48
2021-09-24 15:40:30.021222,26
2021-09-24 15:40:30.021232,12
2021-09-24 15:40:30.021241,12
2021-09-24 15:40:30.021254,17
2021-09-24 15:40:30.021263,19
2021-09-24 15:40:30.021271,31
2021-09-24 15:40:30.021278,41
2021-09-24 15:40:30.021351,34
2021-09-24 15:40:30.021357,24
2021-09-24 15:40:30.021362,29
2021-09-24 15:40:30.021367,38
2021-09-24 15:40:30.021373,41
2021-09-24 15:40:30.021378,29
2021-09-24 15:40:30.021383,17
2021-09-24 15:40:30.021388,9
2021-09-24 15:40:30.021394,-19
2021-09-24 15:40:30.021399,-77
2021-09-24 15:40:30.021404,-199
2021-09-24 15:40:30.021410,-410
2021-09-24 15:40:30.021415,-502
2021-09-24 15:40:30.021420,-191
2021-09-24 15:40:30.021425,434
2021-09-24 15:40:30.021430,782
2021-09-24 15:40:30.021435,466
2021-09-24 15:40:30.021441,82
2021-09-24 15:40:30.021446,82
2021-09-24 15:40:30.021451,68
2021-09-24 15:40:30.021456,-85
2021-09-24 15:40:30.201967,-111
2021-09-24 15:40:30.201997,-68
2021-09-24 15:40:30.202010,-109
2021-09-24 15:40:30.202020,-150
2021-09-24 15:40:30.202030,-136
2021-09-24 15:40:30.202041,-140
2021-09-24 15:40:30.202051,-165
2021-09-24 15:40:30.202061,-174
2021-09-24 15:40:30.202071,-179
2021-09-24 15:40:30.202081,-196
2021-09-24 15:40:30.202091,-218
2021-09-24 15:40:30.202101,-230
2021-09-24 15:40:30.202111,-245
2021-09-24 15:40:30.202122,-279
2021-09-24 15:40:30.202132,-313
2021-09-24 15:40:30.202142,-335
2021-09-24 15:40:30.202152,-376
2021-09-24 15:40:30.202162,-422
2021-09-24 15:40:30.202172,-439
2021-09-24 15:40:30.202182,-449
2021-09-24 15:40:30.202193,-473
2021-09-24 15:40:30.202203,-478
2021-09-24 15:40:30.202213,-444
2021-09-24 15:40:30.202223,-386
2021-09-24 15:40:30.202233,-301
2021-09-24 15:40:30.202244,-189
2021-09-24 15:40:30.202254,-68
2021-09-24 15:40:30.202264,36
2021-09-24 15:40:30.202274,111
2021-09-24 15:40:30.202284,174
2021-09-24 15:40:30.471615,228
2021-09-24 15:40:30.471636,242
2021-09-24 15:40:30.471645,240
2021-09-24 15:40:30.471652,250
2021-09-24 15:40:30.471659,257
2021-09-24 15:40:30.471666,245
2021-09-24 15:40:30.471673,230
2021-09-24 15:40:30.471680,221
2021-09-24 15:40:30.471687,206
2021-09-24 15:40:30.471694,189
2021-09-24 15:40:30.471701,177
2021-09-24 15:40:30.471708,170
2021-09-24 15:40:30.471714,167
2021-09-24 15:40:30.471721,153
2021-09-24 15:40:30.471728,128
2021-09-24 15:40:30.471735,119
2021-09-24 15:40:30.471742,121
2021-09-24 15:40:30.471749,114
2021-09-24 15:40:30.471756,104
2021-09-24 15:40:30.471763,104
2021-09-24 15:40:30.471769,106
2021-09-24 15:40:30.471776,97
2021-09-24 15:40:30.471783,97
2021-09-24 15:40:30.471790,109
2021-09-24 15:40:30.471797,111
2021-09-24 15:40:30.471804,99
2021-09-24 15:40:30.471811,94
2021-09-24 15:40:30.471818,94
2021-09-24 15:40:30.471825,99
2021-09-24 15:40:30.471832,104
2021-09-24 15:40:30.651872,102
2021-09-24 15:40:30.651899,97
2021-09-24 15:40:30.651907,92
2021-09-24 15:40:30.651914,89
2021-09-24 15:40:30.651921,94
2021-09-24 15:40:30.651927,94
2021-09-24 15:40:30.651933,85
2021-09-24 15:40:30.651940,80
2021-09-24 15:40:30.651946,80
2021-09-24 15:40:30.651953,68
2021-09-24 15:40:30.651959,65
2021-09-24 15:40:30.651966,75
2021-09-24 15:40:30.651972,70
2021-09-24 15:40:30.651979,63
2021-09-24 15:40:30.651985,63
2021-09-24 15:40:30.651992,48
2021-09-24 15:40:30.651998,31
2021-09-24 15:40:30.652005,21
2021-09-24 15:40:30.652011,9
2021-09-24 15:40:30.652018,0
2021-09-24 15:40:30.652024,9
2021-09-24 15:40:30.652031,31
2021-09-24 15:40:30.652037,46
2021-09-24 15:40:30.652044,43
2021-09-24 15:40:30.652050,38
2021-09-24 15:40:30.652057,43
2021-09-24 15:40:30.652063,46
2021-09-24 15:40:30.652069,43
2021-09-24 15:40:30.652076,41
2021-09-24 15:40:30.652082,36
2021-09-24 15:40:30.876534,9
2021-09-24 15:40:30.876556,-24
2021-09-24 15:40:30.876564,-80
2021-09-24 15:40:30.876571,-211
2021-09-24 15:40:30.876577,-429
2021-09-24 15:40:30.876584,-517
2021-09-24 15:40:30.876590,-228
2021-09-24 15:40:30.876597,376
2021-09-24 15:40:30.876603,765
2021-09-24 15:40:30.876609,485
2021-09-24 15:40:30.876616,77
2021-09-24 15:40:30.876623,70
2021-09-24 15:40:30.876629,68
2021-09-24 15:40:30.876636,-94
2021-09-24 15:40:30.876642,-136
2021-09-24 15:40:30.876649,-94
2021-09-24 15:40:30.876655,-126
2021-09-24 15:40:30.876661,-160
2021-09-24 15:40:30.876668,-145
2021-09-24 15:40:30.876674,-143
2021-09-24 15:40:30.876681,-160
2021-09-24 15:40:30.876687,-162
2021-09-24 15:40:30.876694,-172
2021-09-24 15:40:30.876700,-191
2021-09-24 15:40:30.876707,-201
2021-09-24 15:40:30.876713,-216
2021-09-24 15:40:30.876719,-242
2021-09-24 15:40:30.876726,-267
2021-09-24 15:40:30.876732,-289
2021-09-24 15:40:30.876739,-320
2021-09-24 15:40:31.191274,-359
2021-09-24 15:40:31.191296,-398
2021-09-24 15:40:31.191304,-420
2021-09-24 15:40:31.191310,-427
2021-09-24 15:40:31.191317,-442
2021-09-24 15:40:31.191324,-459
2021-09-24 15:40:31.191330,-434
2021-09-24 15:40:31.191337,-376
2021-09-24 15:40:31.191344,-293
2021-09-24 15:40:31.191350,-177
2021-09-24 15:40:31.191357,-53
2021-09-24 15:40:31.191363,38
2021-09-24 15:40:31.191370,114
2021-09-24 15:40:31.191376,187
2021-09-24 15:40:31.191383,230
2021-09-24 15:40:31.191390,242
2021-09-24 15:40:31.191396,242
2021-09-24 15:40:31.191403,240
2021-09-24 15:40:31.191409,245
2021-09-24 15:40:31.191416,250
2021-09-24 15:40:31.191423,238
2021-09-24 15:40:31.191429,225
2021-09-24 15:40:31.191436,223
2021-09-24 15:40:31.191442,216
2021-09-24 15:40:31.191449,204
2021-09-24 15:40:31.191455,196
2021-09-24 15:40:31.191462,189
2021-09-24 15:40:31.191468,174
2021-09-24 15:40:31.191475,157
2021-09-24 15:40:31.191481,150
2021-09-24 15:40:31.326590,150
2021-09-24 15:40:31.326615,150
2021-09-24 15:40:31.326625,136
2021-09-24 15:40:31.326634,123
2021-09-24 15:40:31.326643,123
2021-09-24 15:40:31.326653,119
2021-09-24 15:40:31.326663,102
2021-09-24 15:40:31.326673,94
2021-09-24 15:40:31.326682,92
2021-09-24 15:40:31.326692,92
2021-09-24 15:40:31.326702,94
2021-09-24 15:40:31.326711,92
2021-09-24 15:40:31.326720,92
2021-09-24 15:40:31.326729,97
2021-09-24 15:40:31.326737,97
2021-09-24 15:40:31.326747,89
2021-09-24 15:40:31.326756,87
2021-09-24 15:40:31.326765,87
2021-09-24 15:40:31.326774,77
2021-09-24 15:40:31.326783,75
2021-09-24 15:40:31.326792,77
2021-09-24 15:40:31.326801,65
2021-09-24 15:40:31.326810,55
2021-09-24 15:40:31.326839,53
2021-09-24 15:40:31.326850,53
2021-09-24 15:40:31.326861,46
2021-09-24 15:40:31.326870,46
2021-09-24 15:40:31.326879,48
2021-09-24 15:40:31.326888,46
2021-09-24 15:40:31.326898,53
2021-09-24 15:40:31.551959,63
2021-09-24 15:40:31.551982,53
2021-09-24 15:40:31.551990,34
2021-09-24 15:40:31.551997,12
2021-09-24 15:40:31.552004,0
2021-09-24 15:40:31.552011,0
2021-09-24 15:40:31.552017,0
2021-09-24 15:40:31.552024,0
2021-09-24 15:40:31.552030,17
2021-09-24 15:40:31.552037,34
2021-09-24 15:40:31.552043,34
2021-09-24 15:40:31.552058,36
2021-09-24 15:40:31.552065,36
2021-09-24 15:40:31.552071,34
2021-09-24 15:40:31.552078,34
2021-09-24 15:40:31.552084,36
2021-09-24 15:40:31.552091,36
2021-09-24 15:40:31.552097,34
2021-09-24 15:40:31.552104,12
2021-09-24 15:40:31.552110,-38
2021-09-24 15:40:31.552117,-136
2021-09-24 15:40:31.552124,-332
2021-09-24 15:40:31.552130,-507
2021-09-24 15:40:31.552137,-381
2021-09-24 15:40:31.552143,87
2021-09-24 15:40:31.552150,629
2021-09-24 15:40:31.552156,721
2021-09-24 15:40:31.552163,279
2021-09-24 15:40:31.552169,34
2021-09-24 15:40:31.552176,104
2021-09-24 15:40:31.865422,4
2021-09-24 15:40:31.865445,-128
2021-09-24 15:40:31.865453,-99
2021-09-24 15:40:31.865460,-97
2021-09-24 15:40:31.865466,-145
2021-09-24 15:40:31.865472,-140
2021-09-24 15:40:31.865479,-126
2021-09-24 15:40:31.865485,-143
2021-09-24 15:40:31.865492,-165
2021-09-24 15:40:31.865498,-179
2021-09-24 15:40:31.865505,-196
2021-09-24 15:40:31.865511,-223
2021-09-24 15:40:31.865517,-235
2021-09-24 15:40:31.865524,-230
2021-09-24 15:40:31.865530,-255
2021-09-24 15:40:31.865537,-298
2021-09-24 15:40:31.865543,-325
2021-09-24 15:40:31.865550,-349
2021-09-24 15:40:31.865556,-391
2021-09-24 15:40:31.865563,-427
2021-09-24 15:40:31.865569,-449
2021-09-24 15:40:31.865576,-476
2021-09-24 15:40:31.865582,-488
2021-09-24 15:40:31.865588,-471
2021-09-24 15:40:31.865595,-437
2021-09-24 15:40:31.865601,-383
2021-09-24 15:40:31.865608,-289
2021-09-24 15:40:31.865614,-167
2021-09-24 15:40:31.865621,-41
2021-09-24 15:40:31.865627,70
2021-09-24 15:40:32.046846,153
2021-09-24 15:40:32.046871,201
2021-09-24 15:40:32.046879,233
2021-09-24 15:40:32.046886,255
2021-09-24 15:40:32.046893,259
2021-09-24 15:40:32.046900,255
2021-09-24 15:40:32.046907,252
2021-09-24 15:40:32.046914,252
2021-09-24 15:40:32.046921,242
2021-09-24 15:40:32.046928,225
2021-09-24 15:40:32.046935,216
2021-09-24 15:40:32.046942,216
2021-09-24 15:40:32.046949,206
2021-09-24 15:40:32.046956,191
2021-09-24 15:40:32.046962,174
2021-09-24 15:40:32.046969,157
2021-09-24 15:40:32.046976,153
2021-09-24 15:40:32.046983,153
2021-09-24 15:40:32.046990,140
2021-09-24 15:40:32.046997,136
2021-09-24 15:40:32.047004,133
2021-09-24 15:40:32.047010,123
2021-09-24 15:40:32.047017,109
2021-09-24 15:40:32.047024,99
2021-09-24 15:40:32.047031,94
2021-09-24 15:40:32.047038,85
2021-09-24 15:40:32.047045,85
2021-09-24 15:40:32.047052,92
2021-09-24 15:40:32.047059,97
2021-09-24 15:40:32.047066,97
2021-09-24 15:40:32.271670,89
2021-09-24 15:40:32.271693,87
2021-09-24 15:40:32.271700,94
2021-09-24 15:40:32.271707,92
2021-09-24 15:40:32.271714,85
2021-09-24 15:40:32.271720,87
2021-09-24 15:40:32.271727,92
2021-09-24 15:40:32.271734,85
2021-09-24 15:40:32.271740,68
2021-09-24 15:40:32.271747,60
2021-09-24 15:40:32.271754,55
2021-09-24 15:40:32.271760,53
2021-09-24 15:40:32.271767,53
2021-09-24 15:40:32.271773,43
2021-09-24 15:40:32.271780,38
2021-09-24 15:40:32.271786,41
2021-09-24 15:40:32.271793,41
2021-09-24 15:40:32.271800,41
2021-09-24 15:40:32.271806,38
2021-09-24 15:40:32.271813,26
2021-09-24 15:40:32.271819,14
2021-09-24 15:40:32.271826,2
2021-09-24 15:40:32.271833,-7
2021-09-24 15:40:32.271840,0
2021-09-24 15:40:32.271846,2
2021-09-24 15:40:32.271853,-9
2021-09-24 15:40:32.271859,-7
2021-09-24 15:40:32.271866,7
2021-09-24 15:40:32.271872,24
2021-09-24 15:40:32.271879,31
2021-09-24 15:40:32.496903,26
2021-09-24 15:40:32.496933,29
2021-09-24 15:40:32.496945,36
2021-09-24 15:40:32.496956,34
2021-09-24 15:40:32.496966,29
2021-09-24 15:40:32.496976,29
2021-09-24 15:40:32.496986,12
2021-09-24 15:40:32.496996,-26
2021-09-24 15:40:32.497006,-89
2021-09-24 15:40:32.497016,-238
2021-09-24 15:40:32.497026,-456
2021-09-24 15:40:32.497036,-461
2021-09-24 15:40:32.497046,-106
2021-09-24 15:40:32.497056,449
2021-09-24 15:40:32.497066,753
2021-09-24 15:40:32.497076,432
2021-09-24 15:40:32.497086,53
2021-09-24 15:40:32.497096,65
2021-09-24 15:40:32.497106,38
2021-09-24 15:40:32.497116,-119
2021-09-24 15:40:32.497126,-126
2021-09-24 15:40:32.497136,-85
2021-09-24 15:40:32.497146,-123
2021-09-24 15:40:32.497156,-145
2021-09-24 15:40:32.497166,-133
2021-09-24 15:40:32.497176,-145
2021-09-24 15:40:32.497186,-167
2021-09-24 15:40:32.497195,-174
2021-09-24 15:40:32.497205,-187
2021-09-24 15:40:32.497215,-211
2021-09-24 15:40:32.721844,-221
2021-09-24 15:40:32.721867,-230
2021-09-24 15:40:32.721875,-262
2021-09-24 15:40:32.721882,-286
2021-09-24 15:40:32.721888,-301
2021-09-24 15:40:32.721895,-337
2021-09-24 15:40:32.721901,-388
2021-09-24 15:40:32.721908,-425
2021-09-24 15:40:32.721921,-449
2021-09-24 15:40:32.721928,-471
2021-09-24 15:40:32.721934,-483
2021-09-24 15:40:32.721941,-485
2021-09-24 15:40:32.721947,-466
2021-09-24 15:40:32.721954,-410
2021-09-24 15:40:32.721960,-325
2021-09-24 15:40:32.721967,-216
2021-09-24 15:40:32.721973,-87
2021-09-24 15:40:32.721980,29
2021-09-24 15:40:32.721987,111
2021-09-24 15:40:32.721993,182
2021-09-24 15:40:32.722000,228
2021-09-24 15:40:32.722007,240
2021-09-24 15:40:32.722013,245
2021-09-24 15:40:32.722020,252
2021-09-24 15:40:32.722026,250
2021-09-24 15:40:32.722033,238
2021-09-24 15:40:32.722039,230
2021-09-24 15:40:32.722046,225
2021-09-24 15:40:32.722052,216
2021-09-24 15:40:32.722059,201
2021-09-24 15:40:32.946464,199
2021-09-24 15:40:32.946485,187
2021-09-24 15:40:32.946492,160
2021-09-24 15:40:32.946499,150
2021-09-24 15:40:32.946506,155
2021-09-24 15:40:32.946512,140
2021-09-24 15:40:32.946519,121
2021-09-24 15:40:32.946525,123
2021-09-24 15:40:32.946532,121
2021-09-24 15:40:32.946538,104
2021-09-24 15:40:32.946545,92
2021-09-24 15:40:32.946551,82
2021-09-24 15:40:32.946558,72
2021-09-24 15:40:32.946564,80
2021-09-24 15:40:32.946571,87
2021-09-24 15:40:32.946577,87
2021-09-24 15:40:32.946584,85
2021-09-24 15:40:32.946590,82
2021-09-24 15:40:32.946596,85
2021-09-24 15:40:32.946603,94
2021-09-24 15:40:32.946609,89
2021-09-24 15:40:32.946616,82
2021-09-24 15:40:32.946622,89
2021-09-24 15:40:32.946629,92
2021-09-24 15:40:32.946635,77
2021-09-24 15:40:32.946642,68
2021-09-24 15:40:32.946648,70
2021-09-24 15:40:32.946655,63
2021-09-24 15:40:32.946661,48
2021-09-24 15:40:32.946668,48
2021-09-24 15:40:33.261322,58
2021-09-24 15:40:33.261353,60
2021-09-24 15:40:33.261365,63
2021-09-24 15:40:33.261376,58
2021-09-24 15:40:33.261385,48
2021-09-24 15:40:33.261395,41
2021-09-24 15:40:33.261405,26
2021-09-24 15:40:33.261415,12
2021-09-24 15:40:33.261425,2
2021-09-24 15:40:33.261435,0
2021-09-24 15:40:33.261445,-7
2021-09-24 15:40:33.261455,-9
2021-09-24 15:40:33.261465,9
2021-09-24 15:40:33.261475,29
2021-09-24 15:40:33.261485,26
2021-09-24 15:40:33.261494,24
2021-09-24 15:40:33.261504,29
2021-09-24 15:40:33.261514,26
2021-09-24 15:40:33.261524,26
2021-09-24 15:40:33.261534,36
2021-09-24 15:40:33.261544,38
2021-09-24 15:40:33.261554,24
2021-09-24 15:40:33.261564,7
2021-09-24 15:40:33.261573,-12
2021-09-24 15:40:33.261583,-60
2021-09-24 15:40:33.261593,-199
2021-09-24 15:40:33.261603,-427
2021-09-24 15:40:33.261613,-502
2021-09-24 15:40:33.261623,-191
2021-09-24 15:40:33.261633,410
2021-09-24 15:40:33.396845,750
2021-09-24 15:40:33.396866,425
2021-09-24 15:40:33.396874,41
2021-09-24 15:40:33.396881,58
2021-09-24 15:40:33.396887,46
2021-09-24 15:40:33.396894,-111
2021-09-24 15:40:33.396900,-133
2021-09-24 15:40:33.396907,-97
2021-09-24 15:40:33.396913,-136
2021-09-24 15:40:33.396920,-165
2021-09-24 15:40:33.396926,-162
2021-09-24 15:40:33.396932,-182
2021-09-24 15:40:33.396939,-191
2021-09-24 15:40:33.396945,-182
2021-09-24 15:40:33.396952,-191
2021-09-24 15:40:33.396958,-221
2021-09-24 15:40:33.396964,-242
2021-09-24 15:40:33.396971,-255
2021-09-24 15:40:33.396977,-276
2021-09-24 15:40:33.396984,-306
2021-09-24 15:40:33.396990,-330
2021-09-24 15:40:33.396997,-359
2021-09-24 15:40:33.397003,-408
2021-09-24 15:40:33.397010,-446
2021-09-24 15:40:33.397016,-461
2021-09-24 15:40:33.397023,-480
2021-09-24 15:40:33.397029,-495
2021-09-24 15:40:33.397035,-488
2021-09-24 15:40:33.397042,-463
2021-09-24 15:40:33.397048,-412
2021-09-24 15:40:33.711948,-320
2021-09-24 15:40:33.711972,-206
2021-09-24 15:40:33.711981,-89
2021-09-24 15:40:33.711988,14
2021-09-24 15:40:33.711995,99
2021-09-24 15:40:33.712002,165
2021-09-24 15:40:33.712008,206
2021-09-24 15:40:33.712015,228
2021-09-24 15:40:33.712022,242
2021-09-24 15:40:33.712029,238
2021-09-24 15:40:33.712036,225
2021-09-24 15:40:33.712042,230
2021-09-24 15:40:33.712049,238
2021-09-24 15:40:33.712056,225
2021-09-24 15:40:33.712063,208
2021-09-24 15:40:33.712069,199
2021-09-24 15:40:33.712076,187
2021-09-24 15:40:33.712083,174
2021-09-24 15:40:33.712090,170
2021-09-24 15:40:33.712097,162
2021-09-24 15:40:33.712103,140
2021-09-24 15:40:33.712110,123
2021-09-24 15:40:33.712117,126
2021-09-24 15:40:33.712124,123
2021-09-24 15:40:33.712131,111
2021-09-24 15:40:33.712138,106
2021-09-24 15:40:33.712144,106
2021-09-24 15:40:33.712151,102
2021-09-24 15:40:33.712158,102
2021-09-24 15:40:33.712165,102
2021-09-24 15:40:33.936027,99
2021-09-24 15:40:33.936046,102
2021-09-24 15:40:33.936053,97
2021-09-24 15:40:33.936060,82
2021-09-24 15:40:33.936066,87
2021-09-24 15:40:33.936072,99
2021-09-24 15:40:33.936078,87
2021-09-24 15:40:33.936084,75
2021-09-24 15:40:33.936090,82
2021-09-24 15:40:33.936096,70
2021-09-24 15:40:33.936103,55
2021-09-24 15:40:33.936109,68
2021-09-24 15:40:33.936115,80
2021-09-24 15:40:33.936121,72
2021-09-24 15:40:33.936127,55
2021-09-24 15:40:33.936133,43
2021-09-24 15:40:33.936139,36
2021-09-24 15:40:33.936145,34
2021-09-24 15:40:33.936151,29
2021-09-24 15:40:33.936157,14
2021-09-24 15:40:33.936164,14
2021-09-24 15:40:33.936170,24
2021-09-24 15:40:33.936176,31
2021-09-24 15:40:33.936184,36
2021-09-24 15:40:33.936191,43
2021-09-24 15:40:33.936197,51
2021-09-24 15:40:33.936203,48
2021-09-24 15:40:33.936209,38
2021-09-24 15:40:33.936215,41
2021-09-24 15:40:33.936221,51
2021-09-24 15:40:34.206564,43
2021-09-24 15:40:34.206586,19
2021-09-24 15:40:34.206594,-24
2021-09-24 15:40:34.206601,-85
2021-09-24 15:40:34.206608,-213
2021-09-24 15:40:34.206614,-403
2021-09-24 15:40:34.206621,-434
2021-09-24 15:40:34.206627,-77
2021-09-24 15:40:34.206634,541
2021-09-24 15:40:34.206640,784
2021-09-24 15:40:34.206647,391
2021-09-24 15:40:34.206654,60
2021-09-24 15:40:34.206660,82
2021-09-24 15:40:34.206667,31
2021-09-24 15:40:34.206673,-114
2021-09-24 15:40:34.206680,-133
2021-09-24 15:40:34.206686,-111
2021-09-24 15:40:34.206693,-138
2021-09-24 15:40:34.206699,-157
2021-09-24 15:40:34.206706,-162
2021-09-24 15:40:34.206712,-172
2021-09-24 15:40:34.206719,-182
2021-09-24 15:40:34.206725,-182
2021-09-24 15:40:34.206732,-191
2021-09-24 15:40:34.206738,-211
2021-09-24 15:40:34.206745,-230
2021-09-24 15:40:34.206751,-245
2021-09-24 15:40:34.206758,-267
2021-09-24 15:40:34.206765,-291
2021-09-24 15:40:34.206771,-313
2021-09-24 15:40:34.386123,-344
2021-09-24 15:40:34.386145,-388
2021-09-24 15:40:34.386153,-420
2021-09-24 15:40:34.386159,-442
2021-09-24 15:40:34.386166,-461
2021-09-24 15:40:34.386173,-471
2021-09-24 15:40:34.386179,-461
2021-09-24 15:40:34.386186,-429
2021-09-24 15:40:34.386192,-371
2021-09-24 15:40:34.386199,-279
2021-09-24 15:40:34.386205,-145
2021-09-24 15:40:34.386212,-21
2021-09-24 15:40:34.386218,55
2021-09-24 15:40:34.386225,123
2021-09-24 15:40:34.386231,187
2021-09-24 15:40:34.386238,228
2021-09-24 15:40:34.386244,242
2021-09-24 15:40:34.386251,242
2021-09-24 15:40:34.386257,242
2021-09-24 15:40:34.386264,240
2021-09-24 15:40:34.386270,233
2021-09-24 15:40:34.386277,225
2021-09-24 15:40:34.386283,218
2021-09-24 15:40:34.386289,208
2021-09-24 15:40:34.386296,189
2021-09-24 15:40:34.386303,177
2021-09-24 15:40:34.386309,170
2021-09-24 15:40:34.386316,160
2021-09-24 15:40:34.386322,153
2021-09-24 15:40:34.386329,143
2021-09-24 15:40:34.567001,133
2021-09-24 15:40:34.567024,128
2021-09-24 15:40:34.567032,128
2021-09-24 15:40:34.567039,119
2021-09-24 15:40:34.567045,109
2021-09-24 15:40:34.567052,102
2021-09-24 15:40:34.567058,99
2021-09-24 15:40:34.567065,94
2021-09-24 15:40:34.567071,94
2021-09-24 15:40:34.567078,92
2021-09-24 15:40:34.567084,94
2021-09-24 15:40:34.567091,99
2021-09-24 15:40:34.567097,92
2021-09-24 15:40:34.567104,82
2021-09-24 15:40:34.567110,82
2021-09-24 15:40:34.567117,80
2021-09-24 15:40:34.567123,72
2021-09-24 15:40:34.567130,77
2021-09-24 15:40:34.567136,85
2021-09-24 15:40:34.567143,80
2021-09-24 15:40:34.567149,72
2021-09-24 15:40:34.567156,75
2021-09-24 15:40:34.567162,80
2021-09-24 15:40:34.567169,60
2021-09-24 15:40:34.567175,41
2021-09-24 15:40:34.567182,38
2021-09-24 15:40:34.567188,29
2021-09-24 15:40:34.567195,17
2021-09-24 15:40:34.567202,21
2021-09-24 15:40:34.567208,29
2021-09-24 15:40:34.791836,36
2021-09-24 15:40:34.791857,46
2021-09-24 15:40:34.791865,48
2021-09-24 15:40:34.791872,48
2021-09-24 15:40:34.791878,51
2021-09-24 15:40:34.791884,46
2021-09-24 15:40:34.791891,38
2021-09-24 15:40:34.791897,46
2021-09-24 15:40:34.791904,43
2021-09-24 15:40:34.791910,24
2021-09-24 15:40:34.791917,-7
2021-09-24 15:40:34.791923,-70
2021-09-24 15:40:34.791930,-221
2021-09-24 15:40:34.791936,-451
2021-09-24 15:40:34.791943,-531
2021-09-24 15:40:34.791949,-223
2021-09-24 15:40:34.791955,393
2021-09-24 15:40:34.791962,760
2021-09-24 15:40:34.791968,444
2021-09-24 15:40:34.791975,63
2021-09-24 15:40:34.791981,85
2021-09-24 15:40:34.791988,72
2021-09-24 15:40:34.791994,-97
2021-09-24 15:40:34.792001,-126
2021-09-24 15:40:34.792007,-80
2021-09-24 15:40:34.792013,-114
2021-09-24 15:40:34.792020,-148
2021-09-24 15:40:34.792026,-133
2021-09-24 15:40:34.792032,-138
2021-09-24 15:40:34.792039,-162
2021-09-24 15:40:35.016890,-165
2021-09-24 15:40:35.016915,-165
2021-09-24 15:40:35.016923,-184
2021-09-24 15:40:35.016930,-206
2021-09-24 15:40:35.016936,-225
2021-09-24 15:40:35.016942,-250
2021-09-24 15:40:35.016949,-272
2021-09-24 15:40:35.016955,-298
2021-09-24 15:40:35.016961,-337
2021-09-24 15:40:35.016968,-374
2021-09-24 15:40:35.016974,-405
2021-09-24 15:40:35.016981,-434
2021-09-24 15:40:35.016987,-451
2021-09-24 15:40:35.016994,-461
2021-09-24 15:40:35.017000,-459
2021-09-24 15:40:35.017006,-432
2021-09-24 15:40:35.017013,-374
2021-09-24 15:40:35.017019,-279
2021-09-24 15:40:35.017026,-155
2021-09-24 15:40:35.017032,-38
2021-09-24 15:40:35.017039,51
2021-09-24 15:40:35.017045,126
2021-09-24 15:40:35.017052,191
2021-09-24 15:40:35.017058,223
2021-09-24 15:40:35.017064,238
2021-09-24 15:40:35.017071,259
2021-09-24 15:40:35.017077,269
2021-09-24 15:40:35.017084,259
2021-09-24 15:40:35.017090,247
2021-09-24 15:40:35.017097,238
2021-09-24 15:40:35.241442,238
2021-09-24 15:40:35.241462,233
2021-09-24 15:40:35.241468,223
2021-09-24 15:40:35.241474,206
2021-09-24 15:40:35.241482,187
2021-09-24 15:40:35.241495,179
2021-09-24 15:40:35.241505,174
2021-09-24 15:40:35.241510,157
2021-09-24 15:40:35.241515,145
2021-09-24 15:40:35.241521,148
2021-09-24 15:40:35.241526,133
2021-09-24 15:40:35.241531,119
2021-09-24 15:40:35.241536,121
2021-09-24 15:40:35.241541,116
2021-09-24 15:40:35.241547,106
2021-09-24 15:40:35.241552,106
2021-09-24 15:40:35.241559,114
2021-09-24 15:40:35.241610,111
2021-09-24 15:40:35.241625,104
2021-09-24 15:40:35.241636,111
2021-09-24 15:40:35.241644,114
2021-09-24 15:40:35.241653,102
2021-09-24 15:40:35.241661,89
2021-09-24 15:40:35.241669,85
2021-09-24 15:40:35.241677,89
2021-09-24 15:40:35.241686,99
2021-09-24 15:40:35.241695,94
2021-09-24 15:40:35.241703,80
2021-09-24 15:40:35.241711,80
2021-09-24 15:40:35.241725,94
2021-09-24 15:40:35.512043,97
2021-09-24 15:40:35.512066,92
2021-09-24 15:40:35.512074,85
2021-09-24 15:40:35.512081,72
2021-09-24 15:40:35.512087,63
2021-09-24 15:40:35.512094,55
2021-09-24 15:40:35.512100,46
2021-09-24 15:40:35.512107,36
2021-09-24 15:40:35.512113,34
2021-09-24 15:40:35.512120,41
2021-09-24 15:40:35.512126,43
2021-09-24 15:40:35.512133,41
2021-09-24 15:40:35.512139,46
2021-09-24 15:40:35.512146,46
2021-09-24 15:40:35.512153,36
2021-09-24 15:40:35.512159,36
2021-09-24 15:40:35.512166,48
2021-09-24 15:40:35.512172,38
2021-09-24 15:40:35.512178,21
2021-09-24 15:40:35.512185,2
2021-09-24 15:40:35.512192,-55
2021-09-24 15:40:35.512198,-201
2021-09-24 15:40:35.512205,-437
2021-09-24 15:40:35.512211,-548
2021-09-24 15:40:35.512218,-276
2021-09-24 15:40:35.512224,323
2021-09-24 15:40:35.512231,753
2021-09-24 15:40:35.512237,529
2021-09-24 15:40:35.512244,104
2021-09-24 15:40:35.512250,75
2021-09-24 15:40:35.780945,87
2021-09-24 15:40:35.780965,-68
2021-09-24 15:40:35.780973,-114
2021-09-24 15:40:35.780980,-80
2021-09-24 15:40:35.780986,-114
2021-09-24 15:40:35.780993,-133
2021-09-24 15:40:35.780999,-119
2021-09-24 15:40:35.781006,-133
2021-09-24 15:40:35.781012,-157
2021-09-24 15:40:35.781019,-167
2021-09-24 15:40:35.781025,-174
2021-09-24 15:40:35.781031,-184
2021-09-24 15:40:35.781038,-196
2021-09-24 15:40:35.781044,-218
2021-09-24 15:40:35.781051,-250
2021-09-24 15:40:35.781057,-276
2021-09-24 15:40:35.781064,-296
2021-09-24 15:40:35.781070,-330
2021-09-24 15:40:35.781077,-369
2021-09-24 15:40:35.781083,-405
2021-09-24 15:40:35.781090,-437
2021-09-24 15:40:35.781096,-463
2021-09-24 15:40:35.781103,-476
2021-09-24 15:40:35.781109,-461
2021-09-24 15:40:35.781116,-429
2021-09-24 15:40:35.781122,-391
2021-09-24 15:40:35.781129,-330
2021-09-24 15:40:35.781135,-218
2021-09-24 15:40:35.781141,-80
2021-09-24 15:40:35.781148,34
2021-09-24 15:40:36.005545,114
2021-09-24 15:40:36.005567,170
2021-09-24 15:40:36.005576,206
2021-09-24 15:40:36.005583,235
2021-09-24 15:40:36.005589,255
2021-09-24 15:40:36.005596,250
2021-09-24 15:40:36.005603,245
2021-09-24 15:40:36.005610,245
2021-09-24 15:40:36.005617,242
2021-09-24 15:40:36.005623,235
2021-09-24 15:40:36.005630,228
2021-09-24 15:40:36.005637,235
2021-09-24 15:40:36.005644,259
2021-09-24 15:40:36.005651,257
2021-09-24 15:40:36.005658,204
2021-09-24 15:40:36.005664,162
2021-09-24 15:40:36.005671,162
2021-09-24 15:40:36.005678,157
2021-09-24 15:40:36.005685,140
2021-09-24 15:40:36.005692,131
2021-09-24 15:40:36.005699,121
2021-09-24 15:40:36.005705,111
2021-09-24 15:40:36.005712,114
2021-09-24 15:40:36.005719,116
2021-09-24 15:40:36.005726,114
2021-09-24 15:40:36.005732,104
2021-09-24 15:40:36.005739,99
2021-09-24 15:40:36.005746,99
2021-09-24 15:40:36.005753,97
2021-09-24 15:40:36.005759,94
2021-09-24 15:40:36.186898,99
2021-09-24 15:40:36.186920,99
2021-09-24 15:40:36.186928,89
2021-09-24 15:40:36.186935,89
2021-09-24 15:40:36.186941,99
2021-09-24 15:40:36.186948,99
2021-09-24 15:40:36.186954,94
2021-09-24 15:40:36.186961,87
2021-09-24 15:40:36.186967,85
2021-09-24 15:40:36.186974,82
2021-09-24 15:40:36.186980,82
2021-09-24 15:40:36.186987,85
2021-09-24 15:40:36.186993,80
2021-09-24 15:40:36.186999,65
2021-09-24 15:40:36.187006,58
2021-09-24 15:40:36.187012,55
2021-09-24 15:40:36.187019,43
2021-09-24 15:40:36.187025,29
2021-09-24 15:40:36.187032,26
2021-09-24 15:40:36.187038,34
2021-09-24 15:40:36.187045,51
2021-09-24 15:40:36.187052,63
2021-09-24 15:40:36.187058,58
2021-09-24 15:40:36.187064,58
2021-09-24 15:40:36.187071,58
2021-09-24 15:40:36.187077,51
2021-09-24 15:40:36.187084,51
2021-09-24 15:40:36.187090,48
2021-09-24 15:40:36.187096,38
2021-09-24 15:40:36.187103,19
2021-09-24 15:40:36.411963,-26
2021-09-24 15:40:36.411987,-111
2021-09-24 15:40:36.411995,-279
2021-09-24 15:40:36.412002,-497
2021-09-24 15:40:36.412009,-483
2021-09-24 15:40:36.412016,-92
2021-09-24 15:40:36.412023,471
2021-09-24 15:40:36.412030,731
2021-09-24 15:40:36.412037,383
2021-09-24 15:40:36.412044,24
2021-09-24 15:40:36.412051,46
2021-09-24 15:40:36.412058,4
2021-09-24 15:40:36.412065,-143
2021-09-24 15:40:36.412072,-140
2021-09-24 15:40:36.412079,-111
2021-09-24 15:40:36.412086,-157
2021-09-24 15:40:36.412093,-172
2021-09-24 15:40:36.412100,-157
2021-09-24 15:40:36.412107,-177
2021-09-24 15:40:36.412114,-196
2021-09-24 15:40:36.412121,-199
2021-09-24 15:40:36.412127,-208
2021-09-24 15:40:36.412134,-211
2021-09-24 15:40:36.412141,-213
2021-09-24 15:40:36.412148,-238
2021-09-24 15:40:36.412155,-264
2021-09-24 15:40:36.412162,-291
2021-09-24 15:40:36.412169,-318
2021-09-24 15:40:36.412176,-342
2021-09-24 15:40:36.412183,-376
2021-09-24 15:40:36.636344,-417
2021-09-24 15:40:36.636363,-454
2021-09-24 15:40:36.636370,-478
2021-09-24 15:40:36.636376,-488
2021-09-24 15:40:36.636382,-485
2021-09-24 15:40:36.636388,-473
2021-09-24 15:40:36.636394,-420
2021-09-24 15:40:36.636400,-306
2021-09-24 15:40:36.636406,-174
2021-09-24 15:40:36.636414,-55
2021-09-24 15:40:36.636424,51
2021-09-24 15:40:36.636434,131
2021-09-24 15:40:36.636444,177
2021-09-24 15:40:36.636453,218
2021-09-24 15:40:36.636463,250
2021-09-24 15:40:36.636473,257
2021-09-24 15:40:36.636483,252
2021-09-24 15:40:36.636493,252
2021-09-24 15:40:36.636504,240
2021-09-24 15:40:36.636514,233
2021-09-24 15:40:36.636525,228
2021-09-24 15:40:36.636536,225
2021-09-24 15:40:36.636547,223
2021-09-24 15:40:36.636558,213
2021-09-24 15:40:36.636567,199
2021-09-24 15:40:36.636577,189
2021-09-24 15:40:36.636588,177
2021-09-24 15:40:36.636599,160
2021-09-24 15:40:36.636609,157
2021-09-24 15:40:36.636619,153
2021-09-24 15:40:36.861937,143
2021-09-24 15:40:36.861960,136
2021-09-24 15:40:36.861968,131
2021-09-24 15:40:36.861975,121
2021-09-24 15:40:36.861981,104
2021-09-24 15:40:36.861988,97
2021-09-24 15:40:36.861994,102
2021-09-24 15:40:36.862001,102
2021-09-24 15:40:36.862007,92
2021-09-24 15:40:36.862014,85
2021-09-24 15:40:36.862020,85
2021-09-24 15:40:36.862027,85
2021-09-24 15:40:36.862033,82
2021-09-24 15:40:36.862039,82
2021-09-24 15:40:36.862046,85
2021-09-24 15:40:36.862052,85
2021-09-24 15:40:36.862059,80
2021-09-24 15:40:36.862065,80
2021-09-24 15:40:36.862072,87
2021-09-24 15:40:36.862078,92
2021-09-24 15:40:36.862085,87
2021-09-24 15:40:36.862091,85
2021-09-24 15:40:36.862098,92
2021-09-24 15:40:36.862104,97
2021-09-24 15:40:36.862111,89
2021-09-24 15:40:36.862117,77
2021-09-24 15:40:36.862124,70
2021-09-24 15:40:36.862130,63
2021-09-24 15:40:36.862140,51
2021-09-24 15:40:36.862147,38
2021-09-24 15:40:37.086903,34
2021-09-24 15:40:37.086927,46
2021-09-24 15:40:37.086935,70
2021-09-24 15:40:37.086942,70
2021-09-24 15:40:37.086948,51
2021-09-24 15:40:37.086955,41
2021-09-24 15:40:37.086961,43
2021-09-24 15:40:37.086968,51
2021-09-24 15:40:37.086974,55
2021-09-24 15:40:37.086981,43
2021-09-24 15:40:37.086987,29
2021-09-24 15:40:37.086994,17
2021-09-24 15:40:37.087000,-19
2021-09-24 15:40:37.087007,-102
2021-09-24 15:40:37.087013,-262
2021-09-24 15:40:37.087020,-471
2021-09-24 15:40:37.087026,-466
2021-09-24 15:40:37.087033,-85
2021-09-24 15:40:37.087039,493
2021-09-24 15:40:37.087046,757
2021-09-24 15:40:37.087052,400
2021-09-24 15:40:37.087059,34
2021-09-24 15:40:37.087066,55
2021-09-24 15:40:37.087072,17
2021-09-24 15:40:37.087078,-131
2021-09-24 15:40:37.087085,-131
2021-09-24 15:40:37.087091,-104
2021-09-24 15:40:37.087098,-145
2021-09-24 15:40:37.087105,-160
2021-09-24 15:40:37.087111,-153
2021-09-24 15:40:37.357005,-165
2021-09-24 15:40:37.357029,-172
2021-09-24 15:40:37.357037,-187
2021-09-24 15:40:37.357044,-216
2021-09-24 15:40:37.357051,-230
2021-09-24 15:40:37.357057,-233
2021-09-24 15:40:37.357064,-242
2021-09-24 15:40:37.357070,-272
2021-09-24 15:40:37.357077,-313
2021-09-24 15:40:37.357083,-349
2021-09-24 15:40:37.357090,-378
2021-09-24 15:40:37.357096,-412
2021-09-24 15:40:37.357103,-446
2021-09-24 15:40:37.357110,-490
2021-09-24 15:40:37.357116,-524
2021-09-24 15:40:37.357123,-527
2021-09-24 15:40:37.357130,-510
2021-09-24 15:40:37.357136,-488
2021-09-24 15:40:37.357143,-432
2021-09-24 15:40:37.357149,-323
2021-09-24 15:40:37.357156,-196
2021-09-24 15:40:37.357163,-85
2021-09-24 15:40:37.357169,24
2021-09-24 15:40:37.357176,123
2021-09-24 15:40:37.357182,179
2021-09-24 15:40:37.357189,201
2021-09-24 15:40:37.357196,223
2021-09-24 15:40:37.357202,242
2021-09-24 15:40:37.357209,250
2021-09-24 15:40:37.357247,245
2021-09-24 15:40:37.581911,242
2021-09-24 15:40:37.581935,245
2021-09-24 15:40:37.581943,230
2021-09-24 15:40:37.581949,206
2021-09-24 15:40:37.581956,201
2021-09-24 15:40:37.581962,204
2021-09-24 15:40:37.581969,187
2021-09-24 15:40:37.581975,167
2021-09-24 15:40:37.581982,155
2021-09-24 15:40:37.581988,138
2021-09-24 15:40:37.581994,116
2021-09-24 15:40:37.582001,111
2021-09-24 15:40:37.582007,116
2021-09-24 15:40:37.582014,116
2021-09-24 15:40:37.582020,102
2021-09-24 15:40:37.582026,89
2021-09-24 15:40:37.582033,92
2021-09-24 15:40:37.582039,99
2021-09-24 15:40:37.582046,97
2021-09-24 15:40:37.582052,99
2021-09-24 15:40:37.582059,99
2021-09-24 15:40:37.582065,89
2021-09-24 15:40:37.582071,94
2021-09-24 15:40:37.582078,106
2021-09-24 15:40:37.582084,97
2021-09-24 15:40:37.582091,94
2021-09-24 15:40:37.582097,104
2021-09-24 15:40:37.582103,94
2021-09-24 15:40:37.582110,77
2021-09-24 15:40:37.582116,85
2021-09-24 15:40:37.897045,99
2021-09-24 15:40:37.897069,97
2021-09-24 15:40:37.897077,87
2021-09-24 15:40:37.897083,92
2021-09-24 15:40:37.897090,97
2021-09-24 15:40:37.897096,80
2021-09-24 15:40:37.897103,55
2021-09-24 15:40:37.897109,46
2021-09-24 15:40:37.897116,31
2021-09-24 15:40:37.897122,19
2021-09-24 15:40:37.897129,31
2021-09-24 15:40:37.897136,53
2021-09-24 15:40:37.897142,55
2021-09-24 15:40:37.897149,38
2021-09-24 15:40:37.897155,26
2021-09-24 15:40:37.897162,24
2021-09-24 15:40:37.897168,26
2021-09-24 15:40:37.897175,36
2021-09-24 15:40:37.897181,41
2021-09-24 15:40:37.897188,31
2021-09-24 15:40:37.897194,17
2021-09-24 15:40:37.897201,-12
2021-09-24 15:40:37.897207,-77
2021-09-24 15:40:37.897214,-182
2021-09-24 15:40:37.897220,-378
2021-09-24 15:40:37.897227,-539
2021-09-24 15:40:37.897234,-354
2021-09-24 15:40:37.897240,228
2021-09-24 15:40:37.897247,719
2021-09-24 15:40:37.897253,561
2021-09-24 15:40:38.165208,116
2021-09-24 15:40:38.165229,36
2021-09-24 15:40:38.165237,63
2021-09-24 15:40:38.165243,-85
2021-09-24 15:40:38.165250,-148
2021-09-24 15:40:38.165256,-102
2021-09-24 15:40:38.165263,-128
2021-09-24 15:40:38.165269,-174
2021-09-24 15:40:38.165276,-165
2021-09-24 15:40:38.165282,-167
2021-09-24 15:40:38.165289,-191
2021-09-24 15:40:38.165295,-194
2021-09-24 15:40:38.165301,-194
2021-09-24 15:40:38.165308,-218
2021-09-24 15:40:38.165314,-238
2021-09-24 15:40:38.165321,-247
2021-09-24 15:40:38.165327,-269
2021-09-24 15:40:38.165334,-298
2021-09-24 15:40:38.165340,-327
2021-09-24 15:40:38.165346,-369
2021-09-24 15:40:38.165353,-405
2021-09-24 15:40:38.165359,-432
2021-09-24 15:40:38.165366,-461
2021-09-24 15:40:38.165372,-483
2021-09-24 15:40:38.165379,-495
2021-09-24 15:40:38.165385,-497
2021-09-24 15:40:38.165392,-476
2021-09-24 15:40:38.165398,-420
2021-09-24 15:40:38.165404,-335
2021-09-24 15:40:38.165411,-221
2021-09-24 15:40:38.346111,-89
2021-09-24 15:40:38.346140,19
2021-09-24 15:40:38.346148,97
2021-09-24 15:40:38.346155,155
2021-09-24 15:40:38.346161,204
2021-09-24 15:40:38.346168,233
2021-09-24 15:40:38.346174,240
2021-09-24 15:40:38.346181,235
2021-09-24 15:40:38.346188,235
2021-09-24 15:40:38.346194,233
2021-09-24 15:40:38.346201,221
2021-09-24 15:40:38.346207,216
2021-09-24 15:40:38.346214,204
2021-09-24 15:40:38.346220,184
2021-09-24 15:40:38.346227,174
2021-09-24 15:40:38.346233,165
2021-09-24 15:40:38.346240,153
2021-09-24 15:40:38.346246,138
2021-09-24 15:40:38.346253,131
2021-09-24 15:40:38.346260,126
2021-09-24 15:40:38.346266,119
2021-09-24 15:40:38.346273,111
2021-09-24 15:40:38.346279,111
2021-09-24 15:40:38.346286,109
2021-09-24 15:40:38.346293,99
2021-09-24 15:40:38.346299,92
2021-09-24 15:40:38.346306,87
2021-09-24 15:40:38.346312,87
2021-09-24 15:40:38.346319,87
2021-09-24 15:40:38.346326,89
2021-09-24 15:40:38.525785,102
2021-09-24 15:40:38.525809,106
2021-09-24 15:40:38.525818,94
2021-09-24 15:40:38.525825,89
2021-09-24 15:40:38.525833,97
2021-09-24 15:40:38.525840,94
2021-09-24 15:40:38.525848,87
2021-09-24 15:40:38.525855,87
2021-09-24 15:40:38.525862,87
2021-09-24 15:40:38.525869,94
2021-09-24 15:40:38.525877,99
2021-09-24 15:40:38.525884,80
2021-09-24 15:40:38.525891,58
2021-09-24 15:40:38.525898,51
2021-09-24 15:40:38.525905,46
2021-09-24 15:40:38.525913,36
2021-09-24 15:40:38.525920,31
2021-09-24 15:40:38.525927,34
2021-09-24 15:40:38.525934,51
2021-09-24 15:40:38.525941,58
2021-09-24 15:40:38.525949,53
2021-09-24 15:40:38.525955,53
2021-09-24 15:40:38.525962,55
2021-09-24 15:40:38.525969,55
2021-09-24 15:40:38.525976,53
2021-09-24 15:40:38.525983,48
2021-09-24 15:40:38.525990,48
2021-09-24 15:40:38.525997,41
2021-09-24 15:40:38.526003,9
2021-09-24 15:40:38.526010,-51
2021-09-24 15:40:38.752126,-177
2021-09-24 15:40:38.752165,-400
2021-09-24 15:40:38.752175,-517
2021-09-24 15:40:38.752183,-242
2021-09-24 15:40:38.752191,381
2021-09-24 15:40:38.752198,770
2021-09-24 15:40:38.752205,473
2021-09-24 15:40:38.752212,75
2021-09-24 15:40:38.752219,77
2021-09-24 15:40:38.752226,72
2021-09-24 15:40:38.752233,-97
2021-09-24 15:40:38.752239,-143
2021-09-24 15:40:38.752246,-102
2021-09-24 15:40:38.752253,-131
2021-09-24 15:40:38.752259,-162
2021-09-24 15:40:38.752265,-155
2021-09-24 15:40:38.752276,-162
2021-09-24 15:40:38.752290,-177
2021-09-24 15:40:38.752297,-179
2021-09-24 15:40:38.752304,-194
2021-09-24 15:40:38.752311,-223
2021-09-24 15:40:38.752318,-242
2021-09-24 15:40:38.752325,-250
2021-09-24 15:40:38.752339,-267
2021-09-24 15:40:38.752346,-291
2021-09-24 15:40:38.752353,-320
2021-09-24 15:40:38.752360,-354
2021-09-24 15:40:38.752366,-393
2021-09-24 15:40:38.752372,-427
2021-09-24 15:40:38.752378,-461
2021-09-24 15:40:38.931840,-490
2021-09-24 15:40:38.931861,-495
2021-09-24 15:40:38.931869,-478
2021-09-24 15:40:38.931876,-454
2021-09-24 15:40:38.931882,-405
2021-09-24 15:40:38.931889,-306
2021-09-24 15:40:38.931895,-172
2021-09-24 15:40:38.931902,-48
2021-09-24 15:40:38.931908,38
2021-09-24 15:40:38.931915,109
2021-09-24 15:40:38.931921,167
2021-09-24 15:40:38.931928,206
2021-09-24 15:40:38.931934,225
2021-09-24 15:40:38.931941,235
2021-09-24 15:40:38.931947,238
2021-09-24 15:40:38.931954,230
2021-09-24 15:40:38.931961,221
2021-09-24 15:40:38.931967,221
2021-09-24 15:40:38.931974,221
2021-09-24 15:40:38.931980,213
2021-09-24 15:40:38.931987,196
2021-09-24 15:40:38.931993,179
2021-09-24 15:40:38.932000,170
2021-09-24 15:40:38.932006,165
2021-09-24 15:40:38.932013,150
2021-09-24 15:40:38.932019,138
2021-09-24 15:40:38.932026,133
2021-09-24 15:40:38.932032,128
2021-09-24 15:40:38.932039,126
2021-09-24 15:40:38.932045,121
2021-09-24 15:40:39.156814,114
2021-09-24 15:40:39.156836,114
2021-09-24 15:40:39.156844,114
2021-09-24 15:40:39.156851,104
2021-09-24 15:40:39.156858,94
2021-09-24 15:40:39.156864,99
2021-09-24 15:40:39.156871,109
2021-09-24 15:40:39.156877,109
2021-09-24 15:40:39.156884,106
2021-09-24 15:40:39.156890,99
2021-09-24 15:40:39.156897,89
2021-09-24 15:40:39.156904,87
2021-09-24 15:40:39.156910,89
2021-09-24 15:40:39.156917,99
2021-09-24 15:40:39.156923,102
2021-09-24 15:40:39.156930,97
2021-09-24 15:40:39.156936,94
2021-09-24 15:40:39.156943,97
2021-09-24 15:40:39.156949,102
2021-09-24 15:40:39.156956,116
2021-09-24 15:40:39.156962,114
2021-09-24 15:40:39.156969,89
2021-09-24 15:40:39.156975,70
2021-09-24 15:40:39.156982,63
2021-09-24 15:40:39.156989,55
2021-09-24 15:40:39.156995,41
2021-09-24 15:40:39.157002,29
2021-09-24 15:40:39.157008,29
2021-09-24 15:40:39.157015,51
2021-09-24 15:40:39.157022,65
2021-09-24 15:40:39.426656,60
2021-09-24 15:40:39.426678,68
2021-09-24 15:40:39.426686,68
2021-09-24 15:40:39.426693,51
2021-09-24 15:40:39.426699,48
2021-09-24 15:40:39.426706,55
2021-09-24 15:40:39.426712,46
2021-09-24 15:40:39.426719,21
2021-09-24 15:40:39.426725,-9
2021-09-24 15:40:39.426732,-77
2021-09-24 15:40:39.426738,-225
2021-09-24 15:40:39.426745,-456
2021-09-24 15:40:39.426751,-558
2021-09-24 15:40:39.426758,-274
2021-09-24 15:40:39.426764,323
2021-09-24 15:40:39.426771,736
2021-09-24 15:40:39.426777,497
2021-09-24 15:40:39.426784,82
2021-09-24 15:40:39.426790,58
2021-09-24 15:40:39.426797,75
2021-09-24 15:40:39.426803,-89
2021-09-24 15:40:39.426810,-140
2021-09-24 15:40:39.426816,-85
2021-09-24 15:40:39.426823,-111
2021-09-24 15:40:39.426829,-150
2021-09-24 15:40:39.426836,-140
2021-09-24 15:40:39.426842,-148
2021-09-24 15:40:39.426849,-179
2021-09-24 15:40:39.426855,-182
2021-09-24 15:40:39.426862,-177
2021-09-24 15:40:39.651359,-196
2021-09-24 15:40:39.651381,-211
2021-09-24 15:40:39.651390,-221
2021-09-24 15:40:39.651399,-247
2021-09-24 15:40:39.651408,-276
2021-09-24 15:40:39.651416,-296
2021-09-24 15:40:39.651424,-323
2021-09-24 15:40:39.651433,-364
2021-09-24 15:40:39.651441,-412
2021-09-24 15:40:39.651450,-444
2021-09-24 15:40:39.651458,-461
2021-09-24 15:40:39.651466,-473
2021-09-24 15:40:39.651475,-461
2021-09-24 15:40:39.651483,-427
2021-09-24 15:40:39.651492,-393
2021-09-24 15:40:39.651501,-313
2021-09-24 15:40:39.651510,-182
2021-09-24 15:40:39.651519,-58
2021-09-24 15:40:39.651528,41
2021-09-24 15:40:39.651537,128
2021-09-24 15:40:39.651546,191
2021-09-24 15:40:39.651554,221
2021-09-24 15:40:39.651563,242
2021-09-24 15:40:39.651572,255
2021-09-24 15:40:39.651581,252
2021-09-24 15:40:39.651590,252
2021-09-24 15:40:39.651599,257
2021-09-24 15:40:39.651608,247
2021-09-24 15:40:39.651617,230
2021-09-24 15:40:39.651626,218
2021-09-24 15:40:39.876940,216
2021-09-24 15:40:39.876964,208
2021-09-24 15:40:39.876972,191
2021-09-24 15:40:39.876979,177
2021-09-24 15:40:39.876986,167
2021-09-24 15:40:39.876993,162
2021-09-24 15:40:39.877000,157
2021-09-24 15:40:39.877006,133
2021-09-24 15:40:39.877013,123
2021-09-24 15:40:39.877020,126
2021-09-24 15:40:39.877027,119
2021-09-24 15:40:39.877034,109
2021-09-24 15:40:39.877040,99
2021-09-24 15:40:39.877047,82
2021-09-24 15:40:39.877054,72
2021-09-24 15:40:39.877061,85
2021-09-24 15:40:39.877068,89
2021-09-24 15:40:39.877074,87
2021-09-24 15:40:39.877081,89
2021-09-24 15:40:39.877088,87
2021-09-24 15:40:39.877095,85
2021-09-24 15:40:39.877101,82
2021-09-24 15:40:39.877108,85
2021-09-24 15:40:39.877115,102
2021-09-24 15:40:39.877122,111
2021-09-24 15:40:39.877128,94
2021-09-24 15:40:39.877135,80
2021-09-24 15:40:39.877142,87
2021-09-24 15:40:39.877149,92
2021-09-24 15:40:39.877156,89
2021-09-24 15:40:40.190513,85
2021-09-24 15:40:40.190533,87
2021-09-24 15:40:40.190541,92
2021-09-24 15:40:40.190548,82
2021-09-24 15:40:40.190554,63
2021-09-24 15:40:40.190561,60
2021-09-24 15:40:40.190567,48
2021-09-24 15:40:40.190574,29
2021-09-24 15:40:40.190580,19
2021-09-24 15:40:40.190587,26
2021-09-24 15:40:40.190594,48
2021-09-24 15:40:40.190600,60
2021-09-24 15:40:40.190607,51
2021-09-24 15:40:40.190613,41
2021-09-24 15:40:40.190619,53
2021-09-24 15:40:40.190626,60
2021-09-24 15:40:40.190632,53
2021-09-24 15:40:40.190639,48
2021-09-24 15:40:40.190645,51
2021-09-24 15:40:40.190652,36
2021-09-24 15:40:40.190658,-2
2021-09-24 15:40:40.190665,-68
2021-09-24 15:40:40.190671,-191
2021-09-24 15:40:40.190678,-412
2021-09-24 15:40:40.190684,-512
2021-09-24 15:40:40.190691,-240
2021-09-24 15:40:40.190697,315
2021-09-24 15:40:40.190704,745
2021-09-24 15:40:40.190710,580
2021-09-24 15:40:40.190717,136
2021-09-24 15:40:40.370862,51
2021-09-24 15:40:40.370886,75
2021-09-24 15:40:40.370894,-77
2021-09-24 15:40:40.370901,-148
2021-09-24 15:40:40.370908,-102
2021-09-24 15:40:40.370915,-126
2021-09-24 15:40:40.370921,-170
2021-09-24 15:40:40.370928,-157
2021-09-24 15:40:40.370934,-157
2021-09-24 15:40:40.370941,-182
2021-09-24 15:40:40.370947,-189
2021-09-24 15:40:40.370954,-191
2021-09-24 15:40:40.370960,-211
2021-09-24 15:40:40.370966,-221
2021-09-24 15:40:40.370973,-230
2021-09-24 15:40:40.370980,-257
2021-09-24 15:40:40.370986,-284
2021-09-24 15:40:40.370993,-306
2021-09-24 15:40:40.370999,-344
2021-09-24 15:40:40.371006,-388
2021-09-24 15:40:40.371012,-420
2021-09-24 15:40:40.371019,-454
2021-09-24 15:40:40.371025,-480
2021-09-24 15:40:40.371032,-497
2021-09-24 15:40:40.371038,-493
2021-09-24 15:40:40.371044,-468
2021-09-24 15:40:40.371051,-415
2021-09-24 15:40:40.371057,-325
2021-09-24 15:40:40.371064,-208
2021-09-24 15:40:40.371071,-85
2021-09-24 15:40:40.551938,31
2021-09-24 15:40:40.551962,119
2021-09-24 15:40:40.551970,179
2021-09-24 15:40:40.551976,225
2021-09-24 15:40:40.551983,247
2021-09-24 15:40:40.551989,242
2021-09-24 15:40:40.551996,235
2021-09-24 15:40:40.552002,238
2021-09-24 15:40:40.552009,238
2021-09-24 15:40:40.552015,235
2021-09-24 15:40:40.552021,228
2021-09-24 15:40:40.552028,218
2021-09-24 15:40:40.552034,208
2021-09-24 15:40:40.552041,206
2021-09-24 15:40:40.552047,196
2021-09-24 15:40:40.552054,184
2021-09-24 15:40:40.552060,172
2021-09-24 15:40:40.552067,157
2021-09-24 15:40:40.552073,143
2021-09-24 15:40:40.552080,133
2021-09-24 15:40:40.552086,131
2021-09-24 15:40:40.552093,128
2021-09-24 15:40:40.552099,119
2021-09-24 15:40:40.552105,116
2021-09-24 15:40:40.552112,116
2021-09-24 15:40:40.552118,111
2021-09-24 15:40:40.552125,116
2021-09-24 15:40:40.552131,123
2021-09-24 15:40:40.552138,114
2021-09-24 15:40:40.552144,109
2021-09-24 15:40:40.821350,116
2021-09-24 15:40:40.821376,119
2021-09-24 15:40:40.821382,106
2021-09-24 15:40:40.821388,104
2021-09-24 15:40:40.821393,104
2021-09-24 15:40:40.821398,94
2021-09-24 15:40:40.821404,85
2021-09-24 15:40:40.821409,85
2021-09-24 15:40:40.821414,82
2021-09-24 15:40:40.821419,80
2021-09-24 15:40:40.821425,77
2021-09-24 15:40:40.821430,77
2021-09-24 15:40:40.821435,80
2021-09-24 15:40:40.821440,77
2021-09-24 15:40:40.821445,77
2021-09-24 15:40:40.821451,77
2021-09-24 15:40:40.821456,75
2021-09-24 15:40:40.821464,72
2021-09-24 15:40:40.821470,72
2021-09-24 15:40:40.821475,65
2021-09-24 15:40:40.821480,53
2021-09-24 15:40:40.821486,43
2021-09-24 15:40:40.821491,31
2021-09-24 15:40:40.821496,17
2021-09-24 15:40:40.821501,7
2021-09-24 15:40:40.821506,17
2021-09-24 15:40:40.821512,41
2021-09-24 15:40:40.821517,55
2021-09-24 15:40:40.821522,48
2021-09-24 15:40:40.821527,41
2021-09-24 15:40:41.001415,51
2021-09-24 15:40:41.001433,46
2021-09-24 15:40:41.001439,31
2021-09-24 15:40:41.001444,24
2021-09-24 15:40:41.001450,19
2021-09-24 15:40:41.001455,-4
2021-09-24 15:40:41.001460,-55
2021-09-24 15:40:41.001465,-155
2021-09-24 15:40:41.001470,-359
2021-09-24 15:40:41.001475,-529
2021-09-24 15:40:41.001481,-376
2021-09-24 15:40:41.001486,123
2021-09-24 15:40:41.001491,658
2021-09-24 15:40:41.001496,675
2021-09-24 15:40:41.001502,206
2021-09-24 15:40:41.001507,-4
2021-09-24 15:40:41.001512,48
2021-09-24 15:40:41.001517,-58
2021-09-24 15:40:41.001522,-165
2021-09-24 15:40:41.001528,-136
2021-09-24 15:40:41.001533,-136
2021-09-24 15:40:41.001538,-170
2021-09-24 15:40:41.001543,-160
2021-09-24 15:40:41.001548,-150
2021-09-24 15:40:41.001553,-174
2021-09-24 15:40:41.001559,-189
2021-09-24 15:40:41.001564,-196
2021-09-24 15:40:41.001569,-211
2021-09-24 15:40:41.001595,-223
2021-09-24 15:40:41.001613,-228
2021-09-24 15:40:41.272022,-247
2021-09-24 15:40:41.272045,-276
2021-09-24 15:40:41.272053,-313
2021-09-24 15:40:41.272060,-352
2021-09-24 15:40:41.272066,-381
2021-09-24 15:40:41.272073,-408
2021-09-24 15:40:41.272080,-442
2021-09-24 15:40:41.272086,-476
2021-09-24 15:40:41.272093,-493
2021-09-24 15:40:41.272099,-497
2021-09-24 15:40:41.272106,-490
2021-09-24 15:40:41.272112,-461
2021-09-24 15:40:41.272119,-393
2021-09-24 15:40:41.272125,-284
2021-09-24 15:40:41.272132,-157
2021-09-24 15:40:41.272139,-34
2021-09-24 15:40:41.272145,70
2021-09-24 15:40:41.272152,145
2021-09-24 15:40:41.272158,206
2021-09-24 15:40:41.272164,240
2021-09-24 15:40:41.272171,250
2021-09-24 15:40:41.272177,252
2021-09-24 15:40:41.272184,250
2021-09-24 15:40:41.272190,245
2021-09-24 15:40:41.272197,242
2021-09-24 15:40:41.272203,245
2021-09-24 15:40:41.272209,235
2021-09-24 15:40:41.272216,216
2021-09-24 15:40:41.272222,204
2021-09-24 15:40:41.272229,189
2021-09-24 15:40:41.496267,165
2021-09-24 15:40:41.496284,157
2021-09-24 15:40:41.496290,155
2021-09-24 15:40:41.496295,136
2021-09-24 15:40:41.496299,121
2021-09-24 15:40:41.496304,123
2021-09-24 15:40:41.496309,126
2021-09-24 15:40:41.496314,114
2021-09-24 15:40:41.496319,97
2021-09-24 15:40:41.496324,89
2021-09-24 15:40:41.496329,89
2021-09-24 15:40:41.496333,97
2021-09-24 15:40:41.496338,97
2021-09-24 15:40:41.496343,89
2021-09-24 15:40:41.496348,85
2021-09-24 15:40:41.496353,85
2021-09-24 15:40:41.496358,77
2021-09-24 15:40:41.496362,77
2021-09-24 15:40:41.496367,87
2021-09-24 15:40:41.496372,92
2021-09-24 15:40:41.496377,87
2021-09-24 15:40:41.496382,87
2021-09-24 15:40:41.496387,87
2021-09-24 15:40:41.496392,80
2021-09-24 15:40:41.496396,70
2021-09-24 15:40:41.496401,65
2021-09-24 15:40:41.496406,72
2021-09-24 15:40:41.496411,82
2021-09-24 15:40:41.496416,75
2021-09-24 15:40:41.496421,65
2021-09-24 15:40:41.722099,60
2021-09-24 15:40:41.722121,65
2021-09-24 15:40:41.722129,77
2021-09-24 15:40:41.722136,82
2021-09-24 15:40:41.722164,65
2021-09-24 15:40:41.722175,51
2021-09-24 15:40:41.722182,46
2021-09-24 15:40:41.722188,26
2021-09-24 15:40:41.722195,12
2021-09-24 15:40:41.722201,17
2021-09-24 15:40:41.722208,29
2021-09-24 15:40:41.722214,36
2021-09-24 15:40:41.722221,36
2021-09-24 15:40:41.722227,21
2021-09-24 15:40:41.722233,2
2021-09-24 15:40:41.722240,0
2021-09-24 15:40:41.722246,14
2021-09-24 15:40:41.722253,24
2021-09-24 15:40:41.722259,12
2021-09-24 15:40:41.722266,2
2021-09-24 15:40:41.722272,-2
2021-09-24 15:40:41.722279,-41
2021-09-24 15:40:41.722285,-109
2021-09-24 15:40:41.722292,-235
2021-09-24 15:40:41.722298,-437
2021-09-24 15:40:41.722304,-488
2021-09-24 15:40:41.722311,-150
2021-09-24 15:40:41.722317,456
2021-09-24 15:40:41.722324,743
2021-09-24 15:40:41.722330,391
2021-09-24 15:40:42.036379,38
2021-09-24 15:40:42.036410,63
2021-09-24 15:40:42.036422,26
2021-09-24 15:40:42.036432,-121
2021-09-24 15:40:42.036443,-133
2021-09-24 15:40:42.036453,-111
2021-09-24 15:40:42.036463,-160
2021-09-24 15:40:42.036473,-174
2021-09-24 15:40:42.036483,-170
2021-09-24 15:40:42.036493,-199
2021-09-24 15:40:42.036503,-211
2021-09-24 15:40:42.036513,-196
2021-09-24 15:40:42.036523,-213
2021-09-24 15:40:42.036534,-247
2021-09-24 15:40:42.036544,-255
2021-09-24 15:40:42.036554,-267
2021-09-24 15:40:42.036564,-298
2021-09-24 15:40:42.036574,-327
2021-09-24 15:40:42.036585,-357
2021-09-24 15:40:42.036595,-391
2021-09-24 15:40:42.036605,-412
2021-09-24 15:40:42.036616,-442
2021-09-24 15:40:42.036626,-476
2021-09-24 15:40:42.036636,-488
2021-09-24 15:40:42.036646,-490
2021-09-24 15:40:42.036656,-485
2021-09-24 15:40:42.036666,-459
2021-09-24 15:40:42.036676,-410
2021-09-24 15:40:42.036687,-325
2021-09-24 15:40:42.036697,-194
2021-09-24 15:40:42.260173,-63
2021-09-24 15:40:42.260194,38
2021-09-24 15:40:42.260202,111
2021-09-24 15:40:42.260209,167
2021-09-24 15:40:42.260215,213
2021-09-24 15:40:42.260222,240
2021-09-24 15:40:42.260228,238
2021-09-24 15:40:42.260235,230
2021-09-24 15:40:42.260241,233
2021-09-24 15:40:42.260248,228
2021-09-24 15:40:42.260255,216
2021-09-24 15:40:42.260261,206
2021-09-24 15:40:42.260268,199
2021-09-24 15:40:42.260274,194
2021-09-24 15:40:42.260281,182
2021-09-24 15:40:42.260287,160
2021-09-24 15:40:42.260294,155
2021-09-24 15:40:42.260301,148
2021-09-24 15:40:42.260307,133
2021-09-24 15:40:42.260314,131
2021-09-24 15:40:42.260320,126
2021-09-24 15:40:42.260327,111
2021-09-24 15:40:42.260333,104
2021-09-24 15:40:42.260340,102
2021-09-24 15:40:42.260346,97
2021-09-24 15:40:42.260353,97
2021-09-24 15:40:42.260359,99
2021-09-24 15:40:42.260366,102
2021-09-24 15:40:42.260372,104
2021-09-24 15:40:42.260379,102
2021-09-24 15:40:42.396721,102
2021-09-24 15:40:42.396741,102
2021-09-24 15:40:42.396748,97
2021-09-24 15:40:42.396753,89
2021-09-24 15:40:42.396759,89
2021-09-24 15:40:42.396764,85
2021-09-24 15:40:42.396770,77
2021-09-24 15:40:42.396775,77
2021-09-24 15:40:42.396781,80
2021-09-24 15:40:42.396786,80
2021-09-24 15:40:42.396792,85
2021-09-24 15:40:42.396797,82
2021-09-24 15:40:42.396803,63
2021-09-24 15:40:42.396808,60
2021-09-24 15:40:42.396814,68
2021-09-24 15:40:42.396819,58
2021-09-24 15:40:42.396825,36
2021-09-24 15:40:42.396830,14
2021-09-24 15:40:42.396835,9
2021-09-24 15:40:42.396841,21
2021-09-24 15:40:42.396846,29
2021-09-24 15:40:42.396852,21
2021-09-24 15:40:42.396857,21
2021-09-24 15:40:42.396863,24
2021-09-24 15:40:42.396868,24
2021-09-24 15:40:42.396874,21
2021-09-24 15:40:42.396879,17
2021-09-24 15:40:42.396884,21
2021-09-24 15:40:42.396890,31
2021-09-24 15:40:42.396895,24
2021-09-24 15:40:42.622029,-4
2021-09-24 15:40:42.622052,-43
2021-09-24 15:40:42.622060,-116
2021-09-24 15:40:42.622067,-303
2021-09-24 15:40:42.622073,-507
2021-09-24 15:40:42.622080,-412
2021-09-24 15:40:42.622086,104
2021-09-24 15:40:42.622093,682
2021-09-24 15:40:42.622100,680
2021-09-24 15:40:42.622106,213
2021-09-24 15:40:42.622113,34
2021-09-24 15:40:42.622119,92
2021-09-24 15:40:42.622126,-26
2021-09-24 15:40:42.622132,-143
2021-09-24 15:40:42.622139,-119
2021-09-24 15:40:42.622145,-109
2021-09-24 15:40:42.622152,-148
2021-09-24 15:40:42.622158,-155
2021-09-24 15:40:42.622165,-148
2021-09-24 15:40:42.622171,-157
2021-09-24 15:40:42.622178,-172
2021-09-24 15:40:42.622184,-179
2021-09-24 15:40:42.622191,-191
2021-09-24 15:40:42.622197,-211
2021-09-24 15:40:42.622204,-235
2021-09-24 15:40:42.622210,-250
2021-09-24 15:40:42.622217,-267
2021-09-24 15:40:42.622223,-296
2021-09-24 15:40:42.622230,-330
2021-09-24 15:40:42.622236,-361
2021-09-24 15:40:42.846968,-395
2021-09-24 15:40:42.846991,-427
2021-09-24 15:40:42.846999,-454
2021-09-24 15:40:42.847006,-468
2021-09-24 15:40:42.847013,-468
2021-09-24 15:40:42.847019,-449
2021-09-24 15:40:42.847026,-405
2021-09-24 15:40:42.847032,-323
2021-09-24 15:40:42.847039,-216
2021-09-24 15:40:42.847045,-102
2021-09-24 15:40:42.847052,4
2021-09-24 15:40:42.847059,99
2021-09-24 15:40:42.847065,165
2021-09-24 15:40:42.847072,208
2021-09-24 15:40:42.847078,245
2021-09-24 15:40:42.847085,257
2021-09-24 15:40:42.847092,247
2021-09-24 15:40:42.847098,235
2021-09-24 15:40:42.847105,233
2021-09-24 15:40:42.847111,233
2021-09-24 15:40:42.847118,228
2021-09-24 15:40:42.847125,216
2021-09-24 15:40:42.847131,204
2021-09-24 15:40:42.847138,191
2021-09-24 15:40:42.847144,179
2021-09-24 15:40:42.847151,167
2021-09-24 15:40:42.847157,153
2021-09-24 15:40:42.847164,136
2021-09-24 15:40:42.847170,126
2021-09-24 15:40:42.847177,131
2021-09-24 15:40:43.116961,131
2021-09-24 15:40:43.116984,121
2021-09-24 15:40:43.116992,111
2021-09-24 15:40:43.116998,99
2021-09-24 15:40:43.117005,92
2021-09-24 15:40:43.117011,99
2021-09-24 15:40:43.117018,104
2021-09-24 15:40:43.117024,106
2021-09-24 15:40:43.117031,104
2021-09-24 15:40:43.117037,94
2021-09-24 15:40:43.117044,87
2021-09-24 15:40:43.117050,89
2021-09-24 15:40:43.117056,92
2021-09-24 15:40:43.117063,92
2021-09-24 15:40:43.117076,87
2021-09-24 15:40:43.117083,80
2021-09-24 15:40:43.117090,80
2021-09-24 15:40:43.117096,82
2021-09-24 15:40:43.117103,80
2021-09-24 15:40:43.117109,87
2021-09-24 15:40:43.117116,87
2021-09-24 15:40:43.117123,77
2021-09-24 15:40:43.117129,75
2021-09-24 15:40:43.117136,80
2021-09-24 15:40:43.117142,82
2021-09-24 15:40:43.117149,82
2021-09-24 15:40:43.117155,80
2021-09-24 15:40:43.117162,72
2021-09-24 15:40:43.117168,60
2021-09-24 15:40:43.117175,51
2021-09-24 15:40:43.341883,46
2021-09-24 15:40:43.341904,46
2021-09-24 15:40:43.341913,26
2021-09-24 15:40:43.341920,9
2021-09-24 15:40:43.341926,12
2021-09-24 15:40:43.341933,24
2021-09-24 15:40:43.341940,43
2021-09-24 15:40:43.341946,55
2021-09-24 15:40:43.341953,38
2021-09-24 15:40:43.341959,26
2021-09-24 15:40:43.341966,38
2021-09-24 15:40:43.341972,43
2021-09-24 15:40:43.341978,34
2021-09-24 15:40:43.341985,31
2021-09-24 15:40:43.341991,34
2021-09-24 15:40:43.341998,4
2021-09-24 15:40:43.342005,-60
2021-09-24 15:40:43.342011,-155
2021-09-24 15:40:43.342018,-340
2021-09-24 15:40:43.342024,-505
2021-09-24 15:40:43.342031,-364
2021-09-24 15:40:43.342037,140
2021-09-24 15:40:43.342044,670
2021-09-24 15:40:43.342050,660
2021-09-24 15:40:43.342057,199
2021-09-24 15:40:43.342063,29
2021-09-24 15:40:43.342070,92
2021-09-24 15:40:43.342076,-36
2021-09-24 15:40:43.342083,-148
2021-09-24 15:40:43.342089,-111
2021-09-24 15:40:43.566380,-114
2021-09-24 15:40:43.566397,-155
2021-09-24 15:40:43.566404,-153
2021-09-24 15:40:43.566409,-145
2021-09-24 15:40:43.566415,-165
2021-09-24 15:40:43.566420,-177
2021-09-24 15:40:43.566425,-177
2021-09-24 15:40:43.566430,-187
2021-09-24 15:40:43.566435,-213
2021-09-24 15:40:43.566440,-233
2021-09-24 15:40:43.566446,-247
2021-09-24 15:40:43.566451,-264
2021-09-24 15:40:43.566456,-286
2021-09-24 15:40:43.566461,-320
2021-09-24 15:40:43.566466,-364
2021-09-24 15:40:43.566472,-400
2021-09-24 15:40:43.566477,-429
2021-09-24 15:40:43.566482,-449
2021-09-24 15:40:43.566487,-451
2021-09-24 15:40:43.566492,-454
2021-09-24 15:40:43.566497,-454
2021-09-24 15:40:43.566502,-422
2021-09-24 15:40:43.566507,-347
2021-09-24 15:40:43.566513,-238
2021-09-24 15:40:43.566518,-123
2021-09-24 15:40:43.566523,-17
2021-09-24 15:40:43.566528,85
2021-09-24 15:40:43.566533,162
2021-09-24 15:40:43.566538,208
2021-09-24 15:40:43.566543,242
2021-09-24 15:40:43.792143,267
2021-09-24 15:40:43.792167,264
2021-09-24 15:40:43.792175,250
2021-09-24 15:40:43.792181,245
2021-09-24 15:40:43.792188,242
2021-09-24 15:40:43.792194,242
2021-09-24 15:40:43.792201,235
2021-09-24 15:40:43.792207,216
2021-09-24 15:40:43.792214,199
2021-09-24 15:40:43.792220,194
2021-09-24 15:40:43.792227,189
2021-09-24 15:40:43.792233,182
2021-09-24 15:40:43.792240,165
2021-09-24 15:40:43.792246,143
2021-09-24 15:40:43.792253,133
2021-09-24 15:40:43.792259,140
2021-09-24 15:40:43.792266,138
2021-09-24 15:40:43.792272,123
2021-09-24 15:40:43.792279,116
2021-09-24 15:40:43.792285,111
2021-09-24 15:40:43.792292,109
2021-09-24 15:40:43.792298,111
2021-09-24 15:40:43.792305,111
2021-09-24 15:40:43.792311,104
2021-09-24 15:40:43.792318,97
2021-09-24 15:40:43.792324,102
2021-09-24 15:40:43.792331,102
2021-09-24 15:40:43.792337,92
2021-09-24 15:40:43.792344,87
2021-09-24 15:40:43.792350,85
2021-09-24 15:40:44.107095,85
2021-09-24 15:40:44.107118,94
2021-09-24 15:40:44.107126,92
2021-09-24 15:40:44.107133,77
2021-09-24 15:40:44.107139,70
2021-09-24 15:40:44.107146,70
2021-09-24 15:40:44.107152,63
2021-09-24 15:40:44.107159,55
2021-09-24 15:40:44.107165,60
2021-09-24 15:40:44.107171,60
2021-09-24 15:40:44.107178,55
2021-09-24 15:40:44.107184,58
2021-09-24 15:40:44.107190,55
2021-09-24 15:40:44.107197,41
2021-09-24 15:40:44.107203,31
2021-09-24 15:40:44.107209,29
2021-09-24 15:40:44.107216,34
2021-09-24 15:40:44.107222,21
2021-09-24 15:40:44.107229,0
2021-09-24 15:40:44.107235,2
2021-09-24 15:40:44.107241,14
2021-09-24 15:40:44.107248,34
2021-09-24 15:40:44.107254,51
2021-09-24 15:40:44.107260,46
2021-09-24 15:40:44.107267,38
2021-09-24 15:40:44.107273,38
2021-09-24 15:40:44.107280,38
2021-09-24 15:40:44.107286,36
2021-09-24 15:40:44.107292,41
2021-09-24 15:40:44.107299,43
2021-09-24 15:40:44.285466,26
2021-09-24 15:40:44.285487,-17
2021-09-24 15:40:44.285494,-92
2021-09-24 15:40:44.285501,-255
2021-09-24 15:40:44.285508,-463
2021-09-24 15:40:44.285515,-432
2021-09-24 15:40:44.285522,-43
2021-09-24 15:40:44.285528,514
2021-09-24 15:40:44.285535,770
2021-09-24 15:40:44.285542,415
2021-09-24 15:40:44.285548,55
2021-09-24 15:40:44.285555,75
2021-09-24 15:40:44.285561,31
2021-09-24 15:40:44.285568,-116
2021-09-24 15:40:44.285574,-114
2021-09-24 15:40:44.285581,-85
2021-09-24 15:40:44.285588,-131
2021-09-24 15:40:44.285594,-153
2021-09-24 15:40:44.285601,-145
2021-09-24 15:40:44.285607,-160
2021-09-24 15:40:44.285614,-177
2021-09-24 15:40:44.285620,-184
2021-09-24 15:40:44.285627,-187
2021-09-24 15:40:44.285633,-194
2021-09-24 15:40:44.285640,-216
2021-09-24 15:40:44.285647,-238
2021-09-24 15:40:44.285653,-250
2021-09-24 15:40:44.285660,-267
2021-09-24 15:40:44.285666,-298
2021-09-24 15:40:44.285673,-337
2021-09-24 15:40:44.467120,-374
2021-09-24 15:40:44.467145,-408
2021-09-24 15:40:44.467153,-444
2021-09-24 15:40:44.467159,-483
2021-09-24 15:40:44.467166,-500
2021-09-24 15:40:44.467172,-493
2021-09-24 15:40:44.467179,-466
2021-09-24 15:40:44.467185,-415
2021-09-24 15:40:44.467192,-330
2021-09-24 15:40:44.467198,-208
2021-09-24 15:40:44.467205,-77
2021-09-24 15:40:44.467211,29
2021-09-24 15:40:44.467218,111
2021-09-24 15:40:44.467224,179
2021-09-24 15:40:44.467231,221
2021-09-24 15:40:44.467237,230
2021-09-24 15:40:44.467244,235
2021-09-24 15:40:44.467250,245
2021-09-24 15:40:44.467257,250
2021-09-24 15:40:44.467263,242
2021-09-24 15:40:44.467270,235
2021-09-24 15:40:44.467276,233
2021-09-24 15:40:44.467283,223
2021-09-24 15:40:44.467289,204
2021-09-24 15:40:44.467296,196
2021-09-24 15:40:44.467302,196
2021-09-24 15:40:44.467309,182
2021-09-24 15:40:44.467315,167
2021-09-24 15:40:44.467322,162
2021-09-24 15:40:44.467329,155
2021-09-24 15:40:44.691432,145
2021-09-24 15:40:44.691457,143
2021-09-24 15:40:44.691468,140
2021-09-24 15:40:44.691477,123
2021-09-24 15:40:44.691486,109
2021-09-24 15:40:44.691495,104
2021-09-24 15:40:44.691504,109
2021-09-24 15:40:44.691514,114
2021-09-24 15:40:44.691523,111
2021-09-24 15:40:44.691533,102
2021-09-24 15:40:44.691543,85
2021-09-24 15:40:44.691551,82
2021-09-24 15:40:44.691559,99
2021-09-24 15:40:44.691568,97
2021-09-24 15:40:44.691577,82
2021-09-24 15:40:44.691587,80
2021-09-24 15:40:44.691595,87
2021-09-24 15:40:44.691604,85
2021-09-24 15:40:44.691614,80
2021-09-24 15:40:44.691623,82
2021-09-24 15:40:44.691633,85
2021-09-24 15:40:44.691642,80
2021-09-24 15:40:44.691651,72
2021-09-24 15:40:44.691660,77
2021-09-24 15:40:44.691669,85
2021-09-24 15:40:44.691678,77
2021-09-24 15:40:44.691687,63
2021-09-24 15:40:44.691697,53
2021-09-24 15:40:44.691706,51
2021-09-24 15:40:44.691716,55
2021-09-24 15:40:44.962046,68
2021-09-24 15:40:44.962070,70
2021-09-24 15:40:44.962078,48
2021-09-24 15:40:44.962085,21
2021-09-24 15:40:44.962091,14
2021-09-24 15:40:44.962098,7
2021-09-24 15:40:44.962104,0
2021-09-24 15:40:44.962111,2
2021-09-24 15:40:44.962117,17
2021-09-24 15:40:44.962124,14
2021-09-24 15:40:44.962130,7
2021-09-24 15:40:44.962137,9
2021-09-24 15:40:44.962143,4
2021-09-24 15:40:44.962149,7
2021-09-24 15:40:44.962156,14
2021-09-24 15:40:44.962162,4
2021-09-24 15:40:44.962169,4
2021-09-24 15:40:44.962175,14
2021-09-24 15:40:44.962181,9
2021-09-24 15:40:44.962188,-24
2021-09-24 15:40:44.962194,-99
2021-09-24 15:40:44.962201,-242
2021-09-24 15:40:44.962207,-446
2021-09-24 15:40:44.962214,-456
2021-09-24 15:40:44.962220,-99
2021-09-24 15:40:44.962227,459
2021-09-24 15:40:44.962233,750
2021-09-24 15:40:44.962240,429
2021-09-24 15:40:44.962246,51
2021-09-24 15:40:44.962253,60
2021-09-24 15:40:45.231445,29
2021-09-24 15:40:45.231471,-136
2021-09-24 15:40:45.231483,-138
2021-09-24 15:40:45.231495,-77
2021-09-24 15:40:45.231507,-119
2021-09-24 15:40:45.231519,-162
2021-09-24 15:40:45.231532,-160
2021-09-24 15:40:45.231544,-167
2021-09-24 15:40:45.231556,-194
2021-09-24 15:40:45.231568,-208
2021-09-24 15:40:45.231578,-201
2021-09-24 15:40:45.231586,-199
2021-09-24 15:40:45.231596,-218
2021-09-24 15:40:45.231604,-259
2021-09-24 15:40:45.231610,-298
2021-09-24 15:40:45.231616,-320
2021-09-24 15:40:45.231622,-340
2021-09-24 15:40:45.231627,-371
2021-09-24 15:40:45.231633,-415
2021-09-24 15:40:45.231639,-444
2021-09-24 15:40:45.231644,-449
2021-09-24 15:40:45.231650,-478
2021-09-24 15:40:45.231655,-512
2021-09-24 15:40:45.231661,-495
2021-09-24 15:40:45.231667,-454
2021-09-24 15:40:45.231672,-412
2021-09-24 15:40:45.231678,-349
2021-09-24 15:40:45.231684,-235
2021-09-24 15:40:45.231689,-102
2021-09-24 15:40:45.231695,12
2021-09-24 15:40:45.412006,97
2021-09-24 15:40:45.412029,160
2021-09-24 15:40:45.412037,213
2021-09-24 15:40:45.412044,230
2021-09-24 15:40:45.412050,238
2021-09-24 15:40:45.412057,262
2021-09-24 15:40:45.412064,259
2021-09-24 15:40:45.412070,240
2021-09-24 15:40:45.412076,240
2021-09-24 15:40:45.412083,230
2021-09-24 15:40:45.412089,206
2021-09-24 15:40:45.412096,194
2021-09-24 15:40:45.412102,194
2021-09-24 15:40:45.412109,174
2021-09-24 15:40:45.412115,160
2021-09-24 15:40:45.412122,145
2021-09-24 15:40:45.412128,106
2021-09-24 15:40:45.412135,119
2021-09-24 15:40:45.412141,150
2021-09-24 15:40:45.412148,106
2021-09-24 15:40:45.412154,75
2021-09-24 15:40:45.412161,104
2021-09-24 15:40:45.412167,104
2021-09-24 15:40:45.412173,85
2021-09-24 15:40:45.412180,94
2021-09-24 15:40:45.412187,92
2021-09-24 15:40:45.412193,77
2021-09-24 15:40:45.412199,87
2021-09-24 15:40:45.412206,99
2021-09-24 15:40:45.412212,94
2021-09-24 15:40:45.637006,87
2021-09-24 15:40:45.637030,89
2021-09-24 15:40:45.637038,85
2021-09-24 15:40:45.637044,85
2021-09-24 15:40:45.637051,92
2021-09-24 15:40:45.637058,92
2021-09-24 15:40:45.637064,92
2021-09-24 15:40:45.637071,89
2021-09-24 15:40:45.637077,77
2021-09-24 15:40:45.637083,70
2021-09-24 15:40:45.637090,68
2021-09-24 15:40:45.637096,77
2021-09-24 15:40:45.637103,92
2021-09-24 15:40:45.637109,80
2021-09-24 15:40:45.637116,43
2021-09-24 15:40:45.637122,17
2021-09-24 15:40:45.637129,17
2021-09-24 15:40:45.637135,12
2021-09-24 15:40:45.637142,-7
2021-09-24 15:40:45.637159,2
2021-09-24 15:40:45.637166,29
2021-09-24 15:40:45.637173,29
2021-09-24 15:40:45.637179,21
2021-09-24 15:40:45.637186,31
2021-09-24 15:40:45.637192,36
2021-09-24 15:40:45.637199,34
2021-09-24 15:40:45.637205,31
2021-09-24 15:40:45.637211,31
2021-09-24 15:40:45.637218,34
2021-09-24 15:40:45.637224,26
2021-09-24 15:40:45.907108,-7
2021-09-24 15:40:45.907129,-70
2021-09-24 15:40:45.907137,-199
2021-09-24 15:40:45.907144,-417
2021-09-24 15:40:45.907150,-517
2021-09-24 15:40:45.907157,-189
2021-09-24 15:40:45.907163,456
2021-09-24 15:40:45.907170,745
2021-09-24 15:40:45.907177,391
2021-09-24 15:40:45.907183,65
2021-09-24 15:40:45.907190,87
2021-09-24 15:40:45.907197,51
2021-09-24 15:40:45.907203,-97
2021-09-24 15:40:45.907210,-123
2021-09-24 15:40:45.907216,-94
2021-09-24 15:40:45.907223,-121
2021-09-24 15:40:45.907229,-123
2021-09-24 15:40:45.907236,-85
2021-09-24 15:40:45.907242,-94
2021-09-24 15:40:45.907249,-150
2021-09-24 15:40:45.907255,-182
2021-09-24 15:40:45.907262,-189
2021-09-24 15:40:45.907268,-208
2021-09-24 15:40:45.907275,-230
2021-09-24 15:40:45.907281,-247
2021-09-24 15:40:45.907288,-267
2021-09-24 15:40:45.907294,-293
2021-09-24 15:40:45.907301,-318
2021-09-24 15:40:45.907307,-340
2021-09-24 15:40:45.907314,-369
2021-09-24 15:40:46.086469,-403
2021-09-24 15:40:46.086492,-425
2021-09-24 15:40:46.086500,-437
2021-09-24 15:40:46.086507,-449
2021-09-24 15:40:46.086513,-444
2021-09-24 15:40:46.086520,-410
2021-09-24 15:40:46.086526,-352
2021-09-24 15:40:46.086533,-259
2021-09-24 15:40:46.086540,-145
2021-09-24 15:40:46.086546,-41
2021-09-24 15:40:46.086553,48
2021-09-24 15:40:46.086559,121
2021-09-24 15:40:46.086566,172
2021-09-24 15:40:46.086572,204
2021-09-24 15:40:46.086579,218
2021-09-24 15:40:46.086586,221
2021-09-24 15:40:46.086592,218
2021-09-24 15:40:46.086599,206
2021-09-24 15:40:46.086605,196
2021-09-24 15:40:46.086612,199
2021-09-24 15:40:46.086618,191
2021-09-24 15:40:46.086625,170
2021-09-24 15:40:46.086631,153
2021-09-24 15:40:46.086638,150
2021-09-24 15:40:46.086644,150
2021-09-24 15:40:46.086651,145
2021-09-24 15:40:46.086657,133
2021-09-24 15:40:46.086664,126
2021-09-24 15:40:46.086671,128
2021-09-24 15:40:46.086677,121
2021-09-24 15:40:46.355807,106
2021-09-24 15:40:46.355828,106
2021-09-24 15:40:46.355836,111
2021-09-24 15:40:46.355843,109
2021-09-24 15:40:46.355849,102
2021-09-24 15:40:46.355856,92
2021-09-24 15:40:46.355862,82
2021-09-24 15:40:46.355869,80
2021-09-24 15:40:46.355875,85
2021-09-24 15:40:46.355882,89
2021-09-24 15:40:46.355888,89
2021-09-24 15:40:46.355895,94
2021-09-24 15:40:46.355901,99
2021-09-24 15:40:46.355907,92
2021-09-24 15:40:46.355914,82
2021-09-24 15:40:46.355921,70
2021-09-24 15:40:46.355927,60
2021-09-24 15:40:46.355934,60
2021-09-24 15:40:46.355940,68
2021-09-24 15:40:46.355947,68
2021-09-24 15:40:46.355953,65
2021-09-24 15:40:46.355960,68
2021-09-24 15:40:46.355966,51
2021-09-24 15:40:46.355973,31
2021-09-24 15:40:46.355979,26
2021-09-24 15:40:46.355986,19
2021-09-24 15:40:46.355992,7
2021-09-24 15:40:46.355999,-2
2021-09-24 15:40:46.356005,-7
2021-09-24 15:40:46.356012,0
2021-09-24 15:40:46.536954,9
2021-09-24 15:40:46.536976,24
2021-09-24 15:40:46.536984,34
2021-09-24 15:40:46.536990,29
2021-09-24 15:40:46.536997,29
2021-09-24 15:40:46.537004,29
2021-09-24 15:40:46.537010,21
2021-09-24 15:40:46.537017,21
2021-09-24 15:40:46.537023,21
2021-09-24 15:40:46.537030,-7
2021-09-24 15:40:46.537036,-77
2021-09-24 15:40:46.537043,-170
2021-09-24 15:40:46.537049,-318
2021-09-24 15:40:46.537056,-466
2021-09-24 15:40:46.537062,-342
2021-09-24 15:40:46.537069,131
2021-09-24 15:40:46.537075,592
2021-09-24 15:40:46.537082,580
2021-09-24 15:40:46.537088,211
2021-09-24 15:40:46.537095,58
2021-09-24 15:40:46.537101,87
2021-09-24 15:40:46.537108,-34
2021-09-24 15:40:46.537114,-153
2021-09-24 15:40:46.537121,-121
2021-09-24 15:40:46.537127,-92
2021-09-24 15:40:46.537133,-123
2021-09-24 15:40:46.537140,-136
2021-09-24 15:40:46.537146,-143
2021-09-24 15:40:46.537153,-170
2021-09-24 15:40:46.537159,-187
2021-09-24 15:40:46.762578,-182
2021-09-24 15:40:46.762610,-187
2021-09-24 15:40:46.762619,-191
2021-09-24 15:40:46.762626,-191
2021-09-24 15:40:46.762632,-225
2021-09-24 15:40:46.762639,-257
2021-09-24 15:40:46.762646,-257
2021-09-24 15:40:46.762653,-281
2021-09-24 15:40:46.762659,-332
2021-09-24 15:40:46.762666,-344
2021-09-24 15:40:46.762672,-352
2021-09-24 15:40:46.762679,-386
2021-09-24 15:40:46.762685,-408
2021-09-24 15:40:46.762692,-398
2021-09-24 15:40:46.762698,-381
2021-09-24 15:40:46.762705,-366
2021-09-24 15:40:46.762711,-308
2021-09-24 15:40:46.762718,-213
2021-09-24 15:40:46.762724,-119
2021-09-24 15:40:46.762730,-24
2021-09-24 15:40:46.762737,70
2021-09-24 15:40:46.762744,165
2021-09-24 15:40:46.762750,211
2021-09-24 15:40:46.762757,187
2021-09-24 15:40:46.762765,191
2021-09-24 15:40:46.762772,238
2021-09-24 15:40:46.762779,255
2021-09-24 15:40:46.762785,245
2021-09-24 15:40:46.762792,233
2021-09-24 15:40:46.762799,228
2021-09-24 15:40:47.032172,225
2021-09-24 15:40:47.032203,208
2021-09-24 15:40:47.032215,184
2021-09-24 15:40:47.032226,148
2021-09-24 15:40:47.032236,155
2021-09-24 15:40:47.032246,189
2021-09-24 15:40:47.032256,165
2021-09-24 15:40:47.032266,128
2021-09-24 15:40:47.032276,138
2021-09-24 15:40:47.032286,145
2021-09-24 15:40:47.032296,119
2021-09-24 15:40:47.032306,109
2021-09-24 15:40:47.032316,148
2021-09-24 15:40:47.032326,165
2021-09-24 15:40:47.032336,128
2021-09-24 15:40:47.032346,123
2021-09-24 15:40:47.032356,153
2021-09-24 15:40:47.032366,145
2021-09-24 15:40:47.032376,123
2021-09-24 15:40:47.032386,128
2021-09-24 15:40:47.032396,131
2021-09-24 15:40:47.032406,155
2021-09-24 15:40:47.032416,170
2021-09-24 15:40:47.032426,121
2021-09-24 15:40:47.032436,104
2021-09-24 15:40:47.032446,143
2021-09-24 15:40:47.032456,153
2021-09-24 15:40:47.032466,140
2021-09-24 15:40:47.032476,136
2021-09-24 15:40:47.032486,121
2021-09-24 15:40:47.301522,102
2021-09-24 15:40:47.301542,85
2021-09-24 15:40:47.301550,68
2021-09-24 15:40:47.301557,70
2021-09-24 15:40:47.301564,87
2021-09-24 15:40:47.301570,92
2021-09-24 15:40:47.301577,89
2021-09-24 15:40:47.301583,97
2021-09-24 15:40:47.301590,97
2021-09-24 15:40:47.301596,99
2021-09-24 15:40:47.301603,92
2021-09-24 15:40:47.301609,80
2021-09-24 15:40:47.301615,92
2021-09-24 15:40:47.301622,77
2021-09-24 15:40:47.301628,48
2021-09-24 15:40:47.301635,63
2021-09-24 15:40:47.301642,29
2021-09-24 15:40:47.301648,-68
2021-09-24 15:40:47.301655,-172
2021-09-24 15:40:47.301661,-291
2021-09-24 15:40:47.301668,-293
2021-09-24 15:40:47.301674,-4
2021-09-24 15:40:47.301680,480
2021-09-24 15:40:47.301687,723
2021-09-24 15:40:47.301693,473
2021-09-24 15:40:47.301700,160
2021-09-24 15:40:47.301706,116
2021-09-24 15:40:47.301713,82
2021-09-24 15:40:47.301719,-51
2021-09-24 15:40:47.301726,-89
2021-09-24 15:40:47.482055,-48
2021-09-24 15:40:47.482079,-55
2021-09-24 15:40:47.482087,-68
2021-09-24 15:40:47.482094,-72
2021-09-24 15:40:47.482101,-85
2021-09-24 15:40:47.482108,-75
2021-09-24 15:40:47.482114,-92
2021-09-24 15:40:47.482121,-153
2021-09-24 15:40:47.482128,-153
2021-09-24 15:40:47.482135,-114
2021-09-24 15:40:47.482141,-153
2021-09-24 15:40:47.482148,-211
2021-09-24 15:40:47.482155,-235
2021-09-24 15:40:47.482162,-259
2021-09-24 15:40:47.482168,-269
2021-09-24 15:40:47.482175,-269
2021-09-24 15:40:47.482182,-296
2021-09-24 15:40:47.482188,-335
2021-09-24 15:40:47.482195,-357
2021-09-24 15:40:47.482202,-344
2021-09-24 15:40:47.482209,-344
2021-09-24 15:40:47.482215,-344
2021-09-24 15:40:47.482222,-284
2021-09-24 15:40:47.482229,-189
2021-09-24 15:40:47.482236,-104
2021-09-24 15:40:47.482242,-21
2021-09-24 15:40:47.482249,58
2021-09-24 15:40:47.482256,121
2021-09-24 15:40:47.482263,179
2021-09-24 15:40:47.482270,221
2021-09-24 15:40:47.751505,225
2021-09-24 15:40:47.751522,230
2021-09-24 15:40:47.751528,264
2021-09-24 15:40:47.751534,262
2021-09-24 15:40:47.751539,208
2021-09-24 15:40:47.751544,204
2021-09-24 15:40:47.751549,228
2021-09-24 15:40:47.751554,201
2021-09-24 15:40:47.751559,184
2021-09-24 15:40:47.751565,201
2021-09-24 15:40:47.751570,182
2021-09-24 15:40:47.751575,170
2021-09-24 15:40:47.751580,165
2021-09-24 15:40:47.751585,140
2021-09-24 15:40:47.751590,138
2021-09-24 15:40:47.751595,138
2021-09-24 15:40:47.751600,131
2021-09-24 15:40:47.751606,121
2021-09-24 15:40:47.751611,109
2021-09-24 15:40:47.751616,109
2021-09-24 15:40:47.751621,114
2021-09-24 15:40:47.751626,119
2021-09-24 15:40:47.751632,123
2021-09-24 15:40:47.751637,111
2021-09-24 15:40:47.751642,104
2021-09-24 15:40:47.751647,131
2021-09-24 15:40:47.751652,138
2021-09-24 15:40:47.751657,123
2021-09-24 15:40:47.751662,136
2021-09-24 15:40:47.751668,128
2021-09-24 15:40:47.931725,97
2021-09-24 15:40:47.931748,104
2021-09-24 15:40:47.931756,116
2021-09-24 15:40:47.931763,104
2021-09-24 15:40:47.931769,92
2021-09-24 15:40:47.931776,85
2021-09-24 15:40:47.931782,70
2021-09-24 15:40:47.931789,63
2021-09-24 15:40:47.931795,58
2021-09-24 15:40:47.931802,58
2021-09-24 15:40:47.931808,70
2021-09-24 15:40:47.931815,82
2021-09-24 15:40:47.931821,85
2021-09-24 15:40:47.931828,82
2021-09-24 15:40:47.931834,63
2021-09-24 15:40:47.931841,43
2021-09-24 15:40:47.931847,58
2021-09-24 15:40:47.931854,63
2021-09-24 15:40:47.931860,43
2021-09-24 15:40:47.931866,48
2021-09-24 15:40:47.931873,41
2021-09-24 15:40:47.931879,-14
2021-09-24 15:40:47.931886,-85
2021-09-24 15:40:47.931893,-211
2021-09-24 15:40:47.931899,-320
2021-09-24 15:40:47.931906,-172
2021-09-24 15:40:47.931912,221
2021-09-24 15:40:47.931919,566
2021-09-24 15:40:47.931925,561
2021-09-24 15:40:47.931932,257
2021-09-24 15:40:48.202165,92
2021-09-24 15:40:48.202189,89
2021-09-24 15:40:48.202198,-17
2021-09-24 15:40:48.202205,-104
2021-09-24 15:40:48.202211,-80
2021-09-24 15:40:48.202217,-89
2021-09-24 15:40:48.202224,-140
2021-09-24 15:40:48.202230,-136
2021-09-24 15:40:48.202237,-119
2021-09-24 15:40:48.202243,-145
2021-09-24 15:40:48.202250,-162
2021-09-24 15:40:48.202256,-153
2021-09-24 15:40:48.202263,-162
2021-09-24 15:40:48.202269,-191
2021-09-24 15:40:48.202276,-208
2021-09-24 15:40:48.202282,-216
2021-09-24 15:40:48.202308,-228
2021-09-24 15:40:48.202326,-250
2021-09-24 15:40:48.202334,-276
2021-09-24 15:40:48.202343,-281
2021-09-24 15:40:48.202351,-301
2021-09-24 15:40:48.202358,-340
2021-09-24 15:40:48.202364,-344
2021-09-24 15:40:48.202371,-340
2021-09-24 15:40:48.202377,-364
2021-09-24 15:40:48.202383,-349
2021-09-24 15:40:48.202390,-308
2021-09-24 15:40:48.202396,-274
2021-09-24 15:40:48.202402,-204
2021-09-24 15:40:48.202409,-102
2021-09-24 15:40:48.425728,-17
2021-09-24 15:40:48.425750,60
2021-09-24 15:40:48.425758,123
2021-09-24 15:40:48.425765,155
2021-09-24 15:40:48.425772,172
2021-09-24 15:40:48.425779,177
2021-09-24 15:40:48.425785,187
2021-09-24 15:40:48.425792,201
2021-09-24 15:40:48.425798,196
2021-09-24 15:40:48.425805,187
2021-09-24 15:40:48.425811,187
2021-09-24 15:40:48.425817,172
2021-09-24 15:40:48.425824,150
2021-09-24 15:40:48.425830,162
2021-09-24 15:40:48.425837,165
2021-09-24 15:40:48.425844,128
2021-09-24 15:40:48.425850,116
2021-09-24 15:40:48.425857,128
2021-09-24 15:40:48.425863,119
2021-09-24 15:40:48.425870,97
2021-09-24 15:40:48.425876,94
2021-09-24 15:40:48.425883,104
2021-09-24 15:40:48.425889,94
2021-09-24 15:40:48.425896,80
2021-09-24 15:40:48.425902,94
2021-09-24 15:40:48.425909,119
2021-09-24 15:40:48.425915,104
2021-09-24 15:40:48.425922,58
2021-09-24 15:40:48.425928,65
2021-09-24 15:40:48.425934,92
2021-09-24 15:40:48.696590,77
2021-09-24 15:40:48.696615,85
2021-09-24 15:40:48.696624,106
2021-09-24 15:40:48.696631,97
2021-09-24 15:40:48.696639,94
2021-09-24 15:40:48.696655,97
2021-09-24 15:40:48.696663,80
2021-09-24 15:40:48.696670,77
2021-09-24 15:40:48.696677,97
2021-09-24 15:40:48.696684,97
2021-09-24 15:40:48.696691,55
2021-09-24 15:40:48.696699,24
2021-09-24 15:40:48.696706,38
2021-09-24 15:40:48.696713,41
2021-09-24 15:40:48.696752,21
2021-09-24 15:40:48.696759,34
2021-09-24 15:40:48.696766,65
2021-09-24 15:40:48.696773,77
2021-09-24 15:40:48.696780,80
2021-09-24 15:40:48.696787,92
2021-09-24 15:40:48.696794,99
2021-09-24 15:40:48.696801,80
2021-09-24 15:40:48.696809,48
2021-09-24 15:40:48.696816,41
2021-09-24 15:40:48.696823,48
2021-09-24 15:40:48.696830,41
2021-09-24 15:40:48.696837,4
2021-09-24 15:40:48.696844,-65
2021-09-24 15:40:48.696851,-179
2021-09-24 15:40:48.696858,-293
2021-09-24 15:40:48.876809,-191
2021-09-24 15:40:48.876831,187
2021-09-24 15:40:48.876839,583
2021-09-24 15:40:48.876846,648
2021-09-24 15:40:48.876852,359
2021-09-24 15:40:48.876859,119
2021-09-24 15:40:48.876865,75
2021-09-24 15:40:48.876872,0
2021-09-24 15:40:48.876879,-104
2021-09-24 15:40:48.876885,-126
2021-09-24 15:40:48.876891,-121
2021-09-24 15:40:48.876898,-126
2021-09-24 15:40:48.876904,-131
2021-09-24 15:40:48.876911,-145
2021-09-24 15:40:48.876917,-160
2021-09-24 15:40:48.876924,-167
2021-09-24 15:40:48.876930,-177
2021-09-24 15:40:48.876937,-174
2021-09-24 15:40:48.876943,-187
2021-09-24 15:40:48.876950,-228
2021-09-24 15:40:48.876957,-238
2021-09-24 15:40:48.876963,-218
2021-09-24 15:40:48.876970,-238
2021-09-24 15:40:48.876976,-281
2021-09-24 15:40:48.876983,-308
2021-09-24 15:40:48.876989,-320
2021-09-24 15:40:48.876996,-344
2021-09-24 15:40:48.877002,-376
2021-09-24 15:40:48.877009,-376
2021-09-24 15:40:48.877015,-369
2021-09-24 15:40:49.191572,-386
2021-09-24 15:40:49.191596,-374
2021-09-24 15:40:49.191603,-310
2021-09-24 15:40:49.191610,-228
2021-09-24 15:40:49.191617,-143
2021-09-24 15:40:49.191623,-68
2021-09-24 15:40:49.191630,7
2021-09-24 15:40:49.191636,82
2021-09-24 15:40:49.191643,131
2021-09-24 15:40:49.191649,153
2021-09-24 15:40:49.191656,177
2021-09-24 15:40:49.191662,189
2021-09-24 15:40:49.191669,182
2021-09-24 15:40:49.191675,182
2021-09-24 15:40:49.191682,179
2021-09-24 15:40:49.191688,162
2021-09-24 15:40:49.191695,145
2021-09-24 15:40:49.191701,143
2021-09-24 15:40:49.191708,143
2021-09-24 15:40:49.191714,126
2021-09-24 15:40:49.191721,119
2021-09-24 15:40:49.191727,126
2021-09-24 15:40:49.191734,116
2021-09-24 15:40:49.191740,102
2021-09-24 15:40:49.191747,104
2021-09-24 15:40:49.191753,109
2021-09-24 15:40:49.191795,99
2021-09-24 15:40:49.191802,92
2021-09-24 15:40:49.191823,97
2021-09-24 15:40:49.191829,106
2021-09-24 15:40:49.327111,111
2021-09-24 15:40:49.327147,102
2021-09-24 15:40:49.327162,106
2021-09-24 15:40:49.327176,119
2021-09-24 15:40:49.327189,106
2021-09-24 15:40:49.327202,97
2021-09-24 15:40:49.327214,111
2021-09-24 15:40:49.327227,106
2021-09-24 15:40:49.327240,94
2021-09-24 15:40:49.327252,102
2021-09-24 15:40:49.327264,104
2021-09-24 15:40:49.327276,94
2021-09-24 15:40:49.327289,97
2021-09-24 15:40:49.327301,89
2021-09-24 15:40:49.327313,77
2021-09-24 15:40:49.327326,60
2021-09-24 15:40:49.327339,31
2021-09-24 15:40:49.327351,24
2021-09-24 15:40:49.327364,38
2021-09-24 15:40:49.327376,41
2021-09-24 15:40:49.327389,46
2021-09-24 15:40:49.327401,63
2021-09-24 15:40:49.327415,68
2021-09-24 15:40:49.327428,55
2021-09-24 15:40:49.327441,53
2021-09-24 15:40:49.327454,60
2021-09-24 15:40:49.327467,58
2021-09-24 15:40:49.327479,65
2021-09-24 15:40:49.327492,68
2021-09-24 15:40:49.327504,36
2021-09-24 15:40:49.552063,-9
2021-09-24 15:40:49.552086,-63
2021-09-24 15:40:49.552094,-184
2021-09-24 15:40:49.552100,-315
2021-09-24 15:40:49.552107,-199
2021-09-24 15:40:49.552113,213
2021-09-24 15:40:49.552120,602
2021-09-24 15:40:49.552126,617
2021-09-24 15:40:49.552133,298
2021-09-24 15:40:49.552139,85
2021-09-24 15:40:49.552146,34
2021-09-24 15:40:49.552152,-75
2021-09-24 15:40:49.552158,-153
2021-09-24 15:40:49.552165,-133
2021-09-24 15:40:49.552171,-131
2021-09-24 15:40:49.552178,-153
2021-09-24 15:40:49.552184,-148
2021-09-24 15:40:49.552191,-143
2021-09-24 15:40:49.552197,-165
2021-09-24 15:40:49.552203,-179
2021-09-24 15:40:49.552210,-191
2021-09-24 15:40:49.552216,-216
2021-09-24 15:40:49.552223,-233
2021-09-24 15:40:49.552229,-233
2021-09-24 15:40:49.552236,-240
2021-09-24 15:40:49.552242,-259
2021-09-24 15:40:49.552249,-272
2021-09-24 15:40:49.552255,-267
2021-09-24 15:40:49.552262,-296
2021-09-24 15:40:49.552268,-357
2021-09-24 15:40:49.777138,-371
2021-09-24 15:40:49.777167,-357
2021-09-24 15:40:49.777179,-374
2021-09-24 15:40:49.777190,-386
2021-09-24 15:40:49.777200,-383
2021-09-24 15:40:49.777210,-386
2021-09-24 15:40:49.777220,-347
2021-09-24 15:40:49.777230,-247
2021-09-24 15:40:49.777240,-136
2021-09-24 15:40:49.777250,-53
2021-09-24 15:40:49.777260,7
2021-09-24 15:40:49.777270,80
2021-09-24 15:40:49.777280,138
2021-09-24 15:40:49.777291,153
2021-09-24 15:40:49.777301,148
2021-09-24 15:40:49.777311,165
2021-09-24 15:40:49.777321,179
2021-09-24 15:40:49.777331,162
2021-09-24 15:40:49.777341,157
2021-09-24 15:40:49.777351,167
2021-09-24 15:40:49.777361,160
2021-09-24 15:40:49.777371,138
2021-09-24 15:40:49.777381,138
2021-09-24 15:40:49.777391,123
2021-09-24 15:40:49.777401,89
2021-09-24 15:40:49.777411,89
2021-09-24 15:40:49.777421,92
2021-09-24 15:40:49.777432,85
2021-09-24 15:40:49.777442,106
2021-09-24 15:40:49.777452,114
2021-09-24 15:40:50.002123,80
2021-09-24 15:40:50.002146,80
2021-09-24 15:40:50.002154,102
2021-09-24 15:40:50.002160,85
2021-09-24 15:40:50.002167,65
2021-09-24 15:40:50.002174,75
2021-09-24 15:40:50.002180,63
2021-09-24 15:40:50.002186,53
2021-09-24 15:40:50.002193,72
2021-09-24 15:40:50.002200,82
2021-09-24 15:40:50.002206,80
2021-09-24 15:40:50.002212,60
2021-09-24 15:40:50.002219,41
2021-09-24 15:40:50.002225,55
2021-09-24 15:40:50.002232,63
2021-09-24 15:40:50.002238,43
2021-09-24 15:40:50.002245,48
2021-09-24 15:40:50.002251,60
2021-09-24 15:40:50.002258,43
2021-09-24 15:40:50.002264,34
2021-09-24 15:40:50.002271,46
2021-09-24 15:40:50.002278,38
2021-09-24 15:40:50.002284,24
2021-09-24 15:40:50.002290,31
2021-09-24 15:40:50.002297,48
2021-09-24 15:40:50.002303,48
2021-09-24 15:40:50.002310,53
2021-09-24 15:40:50.002316,58
2021-09-24 15:40:50.002323,41
2021-09-24 15:40:50.002329,43
2021-09-24 15:40:50.226526,63
2021-09-24 15:40:50.226543,38
2021-09-24 15:40:50.226550,12
2021-09-24 15:40:50.226556,4
2021-09-24 15:40:50.226562,-60
2021-09-24 15:40:50.226568,-208
2021-09-24 15:40:50.226574,-332
2021-09-24 15:40:50.226580,-255
2021-09-24 15:40:50.226586,126
2021-09-24 15:40:50.226592,595
2021-09-24 15:40:50.226598,668
2021-09-24 15:40:50.226604,320
2021-09-24 15:40:50.226610,89
2021-09-24 15:40:50.226615,72
2021-09-24 15:40:50.226621,-24
2021-09-24 15:40:50.226627,-119
2021-09-24 15:40:50.226633,-94
2021-09-24 15:40:50.226639,-92
2021-09-24 15:40:50.226645,-140
2021-09-24 15:40:50.226651,-150
2021-09-24 15:40:50.226657,-140
2021-09-24 15:40:50.226663,-160
2021-09-24 15:40:50.226669,-174
2021-09-24 15:40:50.226674,-179
2021-09-24 15:40:50.226680,-196
2021-09-24 15:40:50.226686,-201
2021-09-24 15:40:50.226692,-208
2021-09-24 15:40:50.226698,-247
2021-09-24 15:40:50.226704,-269
2021-09-24 15:40:50.226710,-276
2021-09-24 15:40:50.495848,-306
2021-09-24 15:40:50.495871,-337
2021-09-24 15:40:50.495880,-361
2021-09-24 15:40:50.495887,-393
2021-09-24 15:40:50.495894,-410
2021-09-24 15:40:50.495901,-420
2021-09-24 15:40:50.495907,-420
2021-09-24 15:40:50.495914,-398
2021-09-24 15:40:50.495921,-388
2021-09-24 15:40:50.495928,-366
2021-09-24 15:40:50.495935,-274
2021-09-24 15:40:50.495942,-167
2021-09-24 15:40:50.495949,-92
2021-09-24 15:40:50.495956,0
2021-09-24 15:40:50.495963,89
2021-09-24 15:40:50.495970,109
2021-09-24 15:40:50.495977,114
2021-09-24 15:40:50.495984,153
2021-09-24 15:40:50.495991,157
2021-09-24 15:40:50.495998,160
2021-09-24 15:40:50.496004,187
2021-09-24 15:40:50.496011,182
2021-09-24 15:40:50.496018,138
2021-09-24 15:40:50.496025,128
2021-09-24 15:40:50.496032,165
2021-09-24 15:40:50.496039,153
2021-09-24 15:40:50.496046,106
2021-09-24 15:40:50.496053,109
2021-09-24 15:40:50.496060,111
2021-09-24 15:40:50.496066,92
2021-09-24 15:40:50.722066,99
2021-09-24 15:40:50.722089,99
2021-09-24 15:40:50.722097,87
2021-09-24 15:40:50.722104,89
2021-09-24 15:40:50.722111,82
2021-09-24 15:40:50.722117,80
2021-09-24 15:40:50.722124,85
2021-09-24 15:40:50.722130,87
2021-09-24 15:40:50.722136,87
2021-09-24 15:40:50.722143,77
2021-09-24 15:40:50.722149,70
2021-09-24 15:40:50.722156,68
2021-09-24 15:40:50.722162,53
2021-09-24 15:40:50.722169,68
2021-09-24 15:40:50.722175,89
2021-09-24 15:40:50.722181,80
2021-09-24 15:40:50.722188,63
2021-09-24 15:40:50.722194,60
2021-09-24 15:40:50.722201,70
2021-09-24 15:40:50.722207,53
2021-09-24 15:40:50.722214,19
2021-09-24 15:40:50.722220,26
2021-09-24 15:40:50.722226,46
2021-09-24 15:40:50.722233,63
2021-09-24 15:40:50.722239,80
2021-09-24 15:40:50.722246,89
2021-09-24 15:40:50.722252,77
2021-09-24 15:40:50.722259,38
2021-09-24 15:40:50.722265,41
2021-09-24 15:40:50.722272,75
2021-09-24 15:40:50.946446,65
2021-09-24 15:40:50.946461,24
2021-09-24 15:40:50.946466,14
2021-09-24 15:40:50.946471,7
2021-09-24 15:40:50.946475,-48
2021-09-24 15:40:50.946480,-150
2021-09-24 15:40:50.946484,-276
2021-09-24 15:40:50.946488,-318
2021-09-24 15:40:50.946493,-75
2021-09-24 15:40:50.946497,405
2021-09-24 15:40:50.946502,653
2021-09-24 15:40:50.946506,403
2021-09-24 15:40:50.946511,109
2021-09-24 15:40:50.946515,85
2021-09-24 15:40:50.946520,41
2021-09-24 15:40:50.946524,-94
2021-09-24 15:40:50.946529,-136
2021-09-24 15:40:50.946533,-131
2021-09-24 15:40:50.946538,-155
2021-09-24 15:40:50.946542,-160
2021-09-24 15:40:50.946547,-162
2021-09-24 15:40:50.946551,-187
2021-09-24 15:40:50.946555,-191
2021-09-24 15:40:50.946560,-187
2021-09-24 15:40:50.946564,-191
2021-09-24 15:40:50.946569,-204
2021-09-24 15:40:50.946573,-233
2021-09-24 15:40:50.946577,-245
2021-09-24 15:40:50.946582,-250
2021-09-24 15:40:50.946586,-274
2021-09-24 15:40:51.172623,-291
2021-09-24 15:40:51.172646,-303
2021-09-24 15:40:51.172655,-320
2021-09-24 15:40:51.172662,-347
2021-09-24 15:40:51.172669,-369
2021-09-24 15:40:51.172675,-369
2021-09-24 15:40:51.172682,-386
2021-09-24 15:40:51.172691,-398
2021-09-24 15:40:51.172698,-364
2021-09-24 15:40:51.172705,-318
2021-09-24 15:40:51.172712,-247
2021-09-24 15:40:51.172719,-143
2021-09-24 15:40:51.172776,-63
2021-09-24 15:40:51.172783,-4
2021-09-24 15:40:51.172789,65
2021-09-24 15:40:51.172796,114
2021-09-24 15:40:51.172803,128
2021-09-24 15:40:51.172810,150
2021-09-24 15:40:51.172817,170
2021-09-24 15:40:51.172823,157
2021-09-24 15:40:51.172830,140
2021-09-24 15:40:51.172837,143
2021-09-24 15:40:51.172844,143
2021-09-24 15:40:51.172851,138
2021-09-24 15:40:51.172858,138
2021-09-24 15:40:51.172864,133
2021-09-24 15:40:51.172871,123
2021-09-24 15:40:51.172878,119
2021-09-24 15:40:51.172885,111
2021-09-24 15:40:51.172892,106
2021-09-24 15:40:51.441805,109
2021-09-24 15:40:51.441860,106
2021-09-24 15:40:51.441870,94
2021-09-24 15:40:51.441877,92
2021-09-24 15:40:51.441884,94
2021-09-24 15:40:51.441891,102
2021-09-24 15:40:51.441897,111
2021-09-24 15:40:51.441904,104
2021-09-24 15:40:51.441910,92
2021-09-24 15:40:51.441917,87
2021-09-24 15:40:51.441923,72
2021-09-24 15:40:51.441930,75
2021-09-24 15:40:51.441936,85
2021-09-24 15:40:51.441943,75
2021-09-24 15:40:51.441949,72
2021-09-24 15:40:51.441956,77
2021-09-24 15:40:51.441962,72
2021-09-24 15:40:51.441969,53
2021-09-24 15:40:51.441975,53
2021-09-24 15:40:51.441982,70
2021-09-24 15:40:51.441988,58
2021-09-24 15:40:51.441995,34
2021-09-24 15:40:51.442001,51
2021-09-24 15:40:51.442007,87
2021-09-24 15:40:51.442014,82
2021-09-24 15:40:51.442020,53
2021-09-24 15:40:51.442027,51
2021-09-24 15:40:51.442033,75
2021-09-24 15:40:51.442040,70
2021-09-24 15:40:51.442046,55
2021-09-24 15:40:51.711172,65
2021-09-24 15:40:51.711193,60
2021-09-24 15:40:51.711201,24
2021-09-24 15:40:51.711208,-12
2021-09-24 15:40:51.711214,-94
2021-09-24 15:40:51.711221,-252
2021-09-24 15:40:51.711227,-298
2021-09-24 15:40:51.711234,-34
2021-09-24 15:40:51.711240,429
2021-09-24 15:40:51.711247,675
2021-09-24 15:40:51.711253,461
2021-09-24 15:40:51.711260,165
2021-09-24 15:40:51.711266,116
2021-09-24 15:40:51.711273,85
2021-09-24 15:40:51.711279,-41
2021-09-24 15:40:51.711285,-92
2021-09-24 15:40:51.711292,-87
2021-09-24 15:40:51.711298,-121
2021-09-24 15:40:51.711305,-145
2021-09-24 15:40:51.711311,-136
2021-09-24 15:40:51.711317,-131
2021-09-24 15:40:51.711324,-133
2021-09-24 15:40:51.711330,-140
2021-09-24 15:40:51.711337,-145
2021-09-24 15:40:51.711343,-165
2021-09-24 15:40:51.711350,-204
2021-09-24 15:40:51.711356,-216
2021-09-24 15:40:51.711362,-221
2021-09-24 15:40:51.711369,-250
2021-09-24 15:40:51.711375,-264
2021-09-24 15:40:51.936772,-259
2021-09-24 15:40:51.936792,-269
2021-09-24 15:40:51.936800,-296
2021-09-24 15:40:51.936807,-320
2021-09-24 15:40:51.936814,-330
2021-09-24 15:40:51.936820,-340
2021-09-24 15:40:51.936827,-354
2021-09-24 15:40:51.936833,-335
2021-09-24 15:40:51.936896,-276
2021-09-24 15:40:51.936904,-233
2021-09-24 15:40:51.936911,-174
2021-09-24 15:40:51.936917,-63
2021-09-24 15:40:51.936924,17
2021-09-24 15:40:51.936930,43
2021-09-24 15:40:51.936937,97
2021-09-24 15:40:51.936943,150
2021-09-24 15:40:51.936950,155
2021-09-24 15:40:51.936956,165
2021-09-24 15:40:51.936963,189
2021-09-24 15:40:51.936969,172
2021-09-24 15:40:51.936976,148
2021-09-24 15:40:51.936982,157
2021-09-24 15:40:51.936989,153
2021-09-24 15:40:51.936995,128
2021-09-24 15:40:51.937002,138
2021-09-24 15:40:51.937008,138
2021-09-24 15:40:51.937015,106
2021-09-24 15:40:51.937021,104
2021-09-24 15:40:51.937054,106
2021-09-24 15:40:51.937078,80
2021-09-24 15:40:52.116361,75
2021-09-24 15:40:52.116382,97
2021-09-24 15:40:52.116390,89
2021-09-24 15:40:52.116397,60
2021-09-24 15:40:52.116404,65
2021-09-24 15:40:52.116410,75
2021-09-24 15:40:52.116417,72
2021-09-24 15:40:52.116423,75
2021-09-24 15:40:52.116429,82
2021-09-24 15:40:52.116436,80
2021-09-24 15:40:52.116442,75
2021-09-24 15:40:52.116449,70
2021-09-24 15:40:52.116455,58
2021-09-24 15:40:52.116462,70
2021-09-24 15:40:52.116468,80
2021-09-24 15:40:52.116475,51
2021-09-24 15:40:52.116481,48
2021-09-24 15:40:52.116487,55
2021-09-24 15:40:52.116494,46
2021-09-24 15:40:52.116500,46
2021-09-24 15:40:52.116507,51
2021-09-24 15:40:52.116513,60
2021-09-24 15:40:52.116520,75
2021-09-24 15:40:52.116526,70
2021-09-24 15:40:52.116533,65
2021-09-24 15:40:52.116539,75
2021-09-24 15:40:52.116545,82
2021-09-24 15:40:52.116552,80
2021-09-24 15:40:52.116558,70
2021-09-24 15:40:52.116565,75
2021-09-24 15:40:52.386283,77
2021-09-24 15:40:52.386307,17
2021-09-24 15:40:52.386315,-68
2021-09-24 15:40:52.386322,-165
2021-09-24 15:40:52.386328,-284
2021-09-24 15:40:52.386335,-211
2021-09-24 15:40:52.386342,179
2021-09-24 15:40:52.386348,619
2021-09-24 15:40:52.386355,706
2021-09-24 15:40:52.386361,383
2021-09-24 15:40:52.386368,116
2021-09-24 15:40:52.386374,87
2021-09-24 15:40:52.386381,9
2021-09-24 15:40:52.386387,-106
2021-09-24 15:40:52.386394,-128
2021-09-24 15:40:52.386401,-116
2021-09-24 15:40:52.386407,-119
2021-09-24 15:40:52.386414,-126
2021-09-24 15:40:52.386420,-145
2021-09-24 15:40:52.386427,-165
2021-09-24 15:40:52.386433,-153
2021-09-24 15:40:52.386440,-157
2021-09-24 15:40:52.386446,-184
2021-09-24 15:40:52.386453,-177
2021-09-24 15:40:52.386459,-179
2021-09-24 15:40:52.386466,-211
2021-09-24 15:40:52.386473,-221
2021-09-24 15:40:52.386479,-216
2021-09-24 15:40:52.386486,-245
2021-09-24 15:40:52.386492,-301
2021-09-24 15:40:52.610907,-323
2021-09-24 15:40:52.610930,-313
2021-09-24 15:40:52.610939,-327
2021-09-24 15:40:52.610946,-369
2021-09-24 15:40:52.610953,-386
2021-09-24 15:40:52.610960,-369
2021-09-24 15:40:52.610967,-357
2021-09-24 15:40:52.610975,-318
2021-09-24 15:40:52.610982,-221
2021-09-24 15:40:52.610989,-131
2021-09-24 15:40:52.610996,-65
2021-09-24 15:40:52.611003,12
2021-09-24 15:40:52.611010,92
2021-09-24 15:40:52.611017,143
2021-09-24 15:40:52.611024,153
2021-09-24 15:40:52.611031,160
2021-09-24 15:40:52.611038,174
2021-09-24 15:40:52.611045,165
2021-09-24 15:40:52.611052,148
2021-09-24 15:40:52.611059,150
2021-09-24 15:40:52.611066,148
2021-09-24 15:40:52.611073,119
2021-09-24 15:40:52.611080,104
2021-09-24 15:40:52.611087,126
2021-09-24 15:40:52.611094,126
2021-09-24 15:40:52.611101,102
2021-09-24 15:40:52.611108,97
2021-09-24 15:40:52.611115,85
2021-09-24 15:40:52.611122,70
2021-09-24 15:40:52.611129,92
2021-09-24 15:40:52.792213,106
2021-09-24 15:40:52.792234,77
2021-09-24 15:40:52.792242,58
2021-09-24 15:40:52.792248,80
2021-09-24 15:40:52.792255,92
2021-09-24 15:40:52.792261,72
2021-09-24 15:40:52.792268,82
2021-09-24 15:40:52.792274,102
2021-09-24 15:40:52.792281,92
2021-09-24 15:40:52.792288,77
2021-09-24 15:40:52.792295,80
2021-09-24 15:40:52.792301,94
2021-09-24 15:40:52.792308,87
2021-09-24 15:40:52.792314,72
2021-09-24 15:40:52.792321,77
