Time,ECG
2021-09-24 15:45:24.601317,58
2021-09-24 15:45:24.601337,58
2021-09-24 15:45:24.601347,58
2021-09-24 15:45:24.601355,65
2021-09-24 15:45:24.601363,65
2021-09-24 15:45:24.601374,53
2021-09-24 15:45:24.601405,29
2021-09-24 15:45:24.601416,7
2021-09-24 15:45:24.601424,-2
2021-09-24 15:45:24.601457,-4
2021-09-24 15:45:24.601464,7
2021-09-24 15:45:24.601469,36
2021-09-24 15:45:24.601473,43
2021-09-24 15:45:24.601478,29
2021-09-24 15:45:24.601482,21
2021-09-24 15:45:24.601487,31
2021-09-24 15:45:24.601491,36
2021-09-24 15:45:24.601496,38
2021-09-24 15:45:24.601514,38
2021-09-24 15:45:24.601519,36
2021-09-24 15:45:24.601523,24
2021-09-24 15:45:24.601527,-12
2021-09-24 15:45:24.601531,-77
2021-09-24 15:45:24.601536,-213
2021-09-24 15:45:24.601540,-417
2021-09-24 15:45:24.601544,-442
2021-09-24 15:45:24.601549,-97
2021-09-24 15:45:24.601553,415
2021-09-24 15:45:24.601557,675
2021-09-24 15:45:24.601561,446
2021-09-24 15:45:24.729988,106
2021-09-24 15:45:24.730005,41
2021-09-24 15:45:24.730011,14
2021-09-24 15:45:24.730016,-102
2021-09-24 15:45:24.730022,-123
2021-09-24 15:45:24.730027,-92
2021-09-24 15:45:24.730033,-121
2021-09-24 15:45:24.730038,-148
2021-09-24 15:45:24.730043,-145
2021-09-24 15:45:24.730048,-162
2021-09-24 15:45:24.730054,-177
2021-09-24 15:45:24.730059,-177
2021-09-24 15:45:24.730064,-189
2021-09-24 15:45:24.730069,-208
2021-09-24 15:45:24.730074,-223
2021-09-24 15:45:24.730079,-238
2021-09-24 15:45:24.730084,-257
2021-09-24 15:45:24.730093,-279
2021-09-24 15:45:24.730101,-303
2021-09-24 15:45:24.730109,-327
2021-09-24 15:45:24.730118,-357
2021-09-24 15:45:24.730126,-383
2021-09-24 15:45:24.730134,-412
2021-09-24 15:45:24.730142,-444
2021-09-24 15:45:24.730150,-468
2021-09-24 15:45:24.730158,-473
2021-09-24 15:45:24.730197,-463
2021-09-24 15:45:24.730208,-444
2021-09-24 15:45:24.730214,-393
2021-09-24 15:45:24.730222,-310
2021-09-24 15:45:25.045732,-208
2021-09-24 15:45:25.045755,-97
2021-09-24 15:45:25.045763,4
2021-09-24 15:45:25.045770,87
2021-09-24 15:45:25.045777,153
2021-09-24 15:45:25.045783,196
2021-09-24 15:45:25.045790,208
2021-09-24 15:45:25.045797,213
2021-09-24 15:45:25.045803,225
2021-09-24 15:45:25.045810,225
2021-09-24 15:45:25.045816,216
2021-09-24 15:45:25.045823,204
2021-09-24 15:45:25.045829,191
2021-09-24 15:45:25.045841,187
2021-09-24 15:45:25.045847,179
2021-09-24 15:45:25.045854,167
2021-09-24 15:45:25.045860,160
2021-09-24 15:45:25.045867,153
2021-09-24 15:45:25.045874,140
2021-09-24 15:45:25.045880,133
2021-09-24 15:45:25.045887,128
2021-09-24 15:45:25.045893,121
2021-09-24 15:45:25.045900,119
2021-09-24 15:45:25.045907,111
2021-09-24 15:45:25.045913,109
2021-09-24 15:45:25.045920,106
2021-09-24 15:45:25.045926,106
2021-09-24 15:45:25.045932,106
2021-09-24 15:45:25.045939,109
2021-09-24 15:45:25.045947,109
2021-09-24 15:45:25.224602,106
2021-09-24 15:45:25.224621,106
2021-09-24 15:45:25.224629,106
2021-09-24 15:45:25.224636,99
2021-09-24 15:45:25.224643,87
2021-09-24 15:45:25.224649,87
2021-09-24 15:45:25.224656,89
2021-09-24 15:45:25.224662,89
2021-09-24 15:45:25.224668,87
2021-09-24 15:45:25.224675,89
2021-09-24 15:45:25.224681,87
2021-09-24 15:45:25.224688,82
2021-09-24 15:45:25.224694,77
2021-09-24 15:45:25.224701,72
2021-09-24 15:45:25.224707,68
2021-09-24 15:45:25.224713,68
2021-09-24 15:45:25.224720,68
2021-09-24 15:45:25.224730,65
2021-09-24 15:45:25.224736,65
2021-09-24 15:45:25.224743,65
2021-09-24 15:45:25.224749,65
2021-09-24 15:45:25.224755,63
2021-09-24 15:45:25.224762,58
2021-09-24 15:45:25.224768,51
2021-09-24 15:45:25.224775,53
2021-09-24 15:45:25.224781,60
2021-09-24 15:45:25.224787,55
2021-09-24 15:45:25.224794,51
2021-09-24 15:45:25.224800,55
2021-09-24 15:45:25.224807,60
2021-09-24 15:45:25.406284,65
2021-09-24 15:45:25.406307,63
2021-09-24 15:45:25.406315,51
2021-09-24 15:45:25.406321,31
2021-09-24 15:45:25.406328,14
2021-09-24 15:45:25.406334,7
2021-09-24 15:45:25.406341,4
2021-09-24 15:45:25.406353,12
2021-09-24 15:45:25.406360,36
2021-09-24 15:45:25.406366,51
2021-09-24 15:45:25.406373,41
2021-09-24 15:45:25.406380,34
2021-09-24 15:45:25.406386,41
2021-09-24 15:45:25.406393,46
2021-09-24 15:45:25.406400,38
2021-09-24 15:45:25.406406,26
2021-09-24 15:45:25.406412,24
2021-09-24 15:45:25.406419,24
2021-09-24 15:45:25.406426,0
2021-09-24 15:45:25.406432,-58
2021-09-24 15:45:25.406439,-170
2021-09-24 15:45:25.406445,-374
2021-09-24 15:45:25.406452,-480
2021-09-24 15:45:25.406459,-218
2021-09-24 15:45:25.406465,296
2021-09-24 15:45:25.406471,665
2021-09-24 15:45:25.406478,566
2021-09-24 15:45:25.406484,189
2021-09-24 15:45:25.406491,41
2021-09-24 15:45:25.406498,43
2021-09-24 15:45:25.630861,-55
2021-09-24 15:45:25.630884,-116
2021-09-24 15:45:25.630891,-89
2021-09-24 15:45:25.630898,-104
2021-09-24 15:45:25.630905,-138
2021-09-24 15:45:25.630911,-138
2021-09-24 15:45:25.630918,-138
2021-09-24 15:45:25.630924,-148
2021-09-24 15:45:25.630930,-162
2021-09-24 15:45:25.630937,-191
2021-09-24 15:45:25.630943,-213
2021-09-24 15:45:25.630950,-216
2021-09-24 15:45:25.630956,-218
2021-09-24 15:45:25.630963,-242
2021-09-24 15:45:25.630969,-269
2021-09-24 15:45:25.630976,-296
2021-09-24 15:45:25.630983,-332
2021-09-24 15:45:25.630989,-364
2021-09-24 15:45:25.630996,-391
2021-09-24 15:45:25.631002,-422
2021-09-24 15:45:25.631009,-451
2021-09-24 15:45:25.631015,-473
2021-09-24 15:45:25.631022,-478
2021-09-24 15:45:25.631028,-476
2021-09-24 15:45:25.631040,-461
2021-09-24 15:45:25.631047,-417
2021-09-24 15:45:25.631053,-342
2021-09-24 15:45:25.631060,-247
2021-09-24 15:45:25.631067,-136
2021-09-24 15:45:25.631073,-24
2021-09-24 15:45:26.079246,68
2021-09-24 15:45:26.079267,133
2021-09-24 15:45:26.079275,177
2021-09-24 15:45:26.079282,199
2021-09-24 15:45:26.079289,208
2021-09-24 15:45:26.079295,216
2021-09-24 15:45:26.079302,221
2021-09-24 15:45:26.079308,221
2021-09-24 15:45:26.079315,211
2021-09-24 15:45:26.079321,194
2021-09-24 15:45:26.079328,184
2021-09-24 15:45:26.079334,182
2021-09-24 15:45:26.079341,174
2021-09-24 15:45:26.079347,165
2021-09-24 15:45:26.079354,157
2021-09-24 15:45:26.079360,145
2021-09-24 15:45:26.079367,136
2021-09-24 15:45:26.079374,133
2021-09-24 15:45:26.079380,123
2021-09-24 15:45:26.079387,111
2021-09-24 15:45:26.079393,102
2021-09-24 15:45:26.079400,99
2021-09-24 15:45:26.079408,99
2021-09-24 15:45:26.079415,102
2021-09-24 15:45:26.079421,99
2021-09-24 15:45:26.079428,102
2021-09-24 15:45:26.079434,104
2021-09-24 15:45:26.079441,102
2021-09-24 15:45:26.079447,99
2021-09-24 15:45:26.079454,104
2021-09-24 15:45:26.169975,106
2021-09-24 15:45:26.169995,106
2021-09-24 15:45:26.170003,102
2021-09-24 15:45:26.170009,97
2021-09-24 15:45:26.170016,97
2021-09-24 15:45:26.170022,102
2021-09-24 15:45:26.170029,102
2021-09-24 15:45:26.170035,102
2021-09-24 15:45:26.170041,97
2021-09-24 15:45:26.170048,92
2021-09-24 15:45:26.170054,92
2021-09-24 15:45:26.170061,97
2021-09-24 15:45:26.170067,97
2021-09-24 15:45:26.170074,89
2021-09-24 15:45:26.170080,80
2021-09-24 15:45:26.170087,70
2021-09-24 15:45:26.170093,70
2021-09-24 15:45:26.170100,75
2021-09-24 15:45:26.170106,72
2021-09-24 15:45:26.170113,72
2021-09-24 15:45:26.170119,72
2021-09-24 15:45:26.170126,65
2021-09-24 15:45:26.170132,60
2021-09-24 15:45:26.170139,63
2021-09-24 15:45:26.170150,65
2021-09-24 15:45:26.170156,65
2021-09-24 15:45:26.170163,60
2021-09-24 15:45:26.170169,60
2021-09-24 15:45:26.170176,55
2021-09-24 15:45:26.170182,38
2021-09-24 15:45:26.484555,19
2021-09-24 15:45:26.484587,17
2021-09-24 15:45:26.484599,12
2021-09-24 15:45:26.484609,4
2021-09-24 15:45:26.484619,24
2021-09-24 15:45:26.484629,51
2021-09-24 15:45:26.484639,58
2021-09-24 15:45:26.484649,46
2021-09-24 15:45:26.484659,38
2021-09-24 15:45:26.484669,46
2021-09-24 15:45:26.484679,48
2021-09-24 15:45:26.484689,46
2021-09-24 15:45:26.484699,48
2021-09-24 15:45:26.484708,43
2021-09-24 15:45:26.484718,26
2021-09-24 15:45:26.484728,-9
2021-09-24 15:45:26.484738,-75
2021-09-24 15:45:26.484748,-218
2021-09-24 15:45:26.484758,-422
2021-09-24 15:45:26.484768,-442
2021-09-24 15:45:26.484778,-89
2021-09-24 15:45:26.484788,432
2021-09-24 15:45:26.484798,694
2021-09-24 15:45:26.484808,449
2021-09-24 15:45:26.484818,109
2021-09-24 15:45:26.484828,53
2021-09-24 15:45:26.484839,24
2021-09-24 15:45:26.484848,-99
2021-09-24 15:45:26.484858,-121
2021-09-24 15:45:26.484868,-87
2021-09-24 15:45:26.620820,-114
2021-09-24 15:45:26.620850,-138
2021-09-24 15:45:26.620862,-131
2021-09-24 15:45:26.620873,-140
2021-09-24 15:45:26.620883,-155
2021-09-24 15:45:26.620893,-157
2021-09-24 15:45:26.620903,-170
2021-09-24 15:45:26.620913,-189
2021-09-24 15:45:26.620923,-201
2021-09-24 15:45:26.620933,-213
2021-09-24 15:45:26.620942,-230
2021-09-24 15:45:26.620952,-250
2021-09-24 15:45:26.620962,-281
2021-09-24 15:45:26.620972,-318
2021-09-24 15:45:26.620982,-349
2021-09-24 15:45:26.620992,-383
2021-09-24 15:45:26.621002,-420
2021-09-24 15:45:26.621012,-442
2021-09-24 15:45:26.621022,-461
2021-09-24 15:45:26.621032,-480
2021-09-24 15:45:26.621042,-480
2021-09-24 15:45:26.621052,-454
2021-09-24 15:45:26.621061,-400
2021-09-24 15:45:26.621071,-315
2021-09-24 15:45:26.621081,-213
2021-09-24 15:45:26.621091,-106
2021-09-24 15:45:26.621101,-7
2021-09-24 15:45:26.621111,77
2021-09-24 15:45:26.621121,140
2021-09-24 15:45:26.621131,184
2021-09-24 15:45:26.800699,206
2021-09-24 15:45:26.800720,213
2021-09-24 15:45:26.800728,218
2021-09-24 15:45:26.800735,221
2021-09-24 15:45:26.800741,218
2021-09-24 15:45:26.800748,208
2021-09-24 15:45:26.800754,191
2021-09-24 15:45:26.800761,182
2021-09-24 15:45:26.800767,179
2021-09-24 15:45:26.800774,167
2021-09-24 15:45:26.800783,157
2021-09-24 15:45:26.800790,153
2021-09-24 15:45:26.800796,138
2021-09-24 15:45:26.800803,128
2021-09-24 15:45:26.800809,126
2021-09-24 15:45:26.800816,119
2021-09-24 15:45:26.800822,111
2021-09-24 15:45:26.800829,106
2021-09-24 15:45:26.800835,99
2021-09-24 15:45:26.800842,94
2021-09-24 15:45:26.800848,97
2021-09-24 15:45:26.800855,97
2021-09-24 15:45:26.800861,99
2021-09-24 15:45:26.800868,97
2021-09-24 15:45:26.800875,97
2021-09-24 15:45:26.800881,99
2021-09-24 15:45:26.800887,99
2021-09-24 15:45:26.800894,92
2021-09-24 15:45:26.800900,89
2021-09-24 15:45:26.800907,89
2021-09-24 15:45:27.069999,87
2021-09-24 15:45:27.070024,89
2021-09-24 15:45:27.070032,92
2021-09-24 15:45:27.070039,87
2021-09-24 15:45:27.070046,85
2021-09-24 15:45:27.070053,77
2021-09-24 15:45:27.070059,72
2021-09-24 15:45:27.070066,75
2021-09-24 15:45:27.070072,77
2021-09-24 15:45:27.070079,75
2021-09-24 15:45:27.070085,70
2021-09-24 15:45:27.070092,63
2021-09-24 15:45:27.070099,60
2021-09-24 15:45:27.070105,65
2021-09-24 15:45:27.070112,65
2021-09-24 15:45:27.070118,63
2021-09-24 15:45:27.070125,60
2021-09-24 15:45:27.070131,58
2021-09-24 15:45:27.070138,58
2021-09-24 15:45:27.070145,63
2021-09-24 15:45:27.070151,68
2021-09-24 15:45:27.070158,60
2021-09-24 15:45:27.070196,41
2021-09-24 15:45:27.070203,21
2021-09-24 15:45:27.070209,12
2021-09-24 15:45:27.070219,9
2021-09-24 15:45:27.070226,-2
2021-09-24 15:45:27.070233,2
2021-09-24 15:45:27.070239,26
2021-09-24 15:45:27.070246,38
2021-09-24 15:45:27.250578,41
2021-09-24 15:45:27.250599,43
2021-09-24 15:45:27.250608,41
2021-09-24 15:45:27.250614,41
2021-09-24 15:45:27.250621,41
2021-09-24 15:45:27.250628,43
2021-09-24 15:45:27.250635,46
2021-09-24 15:45:27.250642,43
2021-09-24 15:45:27.250648,17
2021-09-24 15:45:27.250655,-43
2021-09-24 15:45:27.250662,-160
2021-09-24 15:45:27.250669,-366
2021-09-24 15:45:27.250676,-478
2021-09-24 15:45:27.250682,-225
2021-09-24 15:45:27.250689,291
2021-09-24 15:45:27.250696,672
2021-09-24 15:45:27.250703,573
2021-09-24 15:45:27.250710,199
2021-09-24 15:45:27.250716,60
2021-09-24 15:45:27.250723,65
2021-09-24 15:45:27.250730,-46
2021-09-24 15:45:27.250737,-111
2021-09-24 15:45:27.250743,-80
2021-09-24 15:45:27.250750,-87
2021-09-24 15:45:27.250757,-114
2021-09-24 15:45:27.250763,-114
2021-09-24 15:45:27.250770,-123
2021-09-24 15:45:27.250777,-143
2021-09-24 15:45:27.250783,-150
2021-09-24 15:45:27.250790,-157
2021-09-24 15:45:27.654996,-170
2021-09-24 15:45:27.655017,-187
2021-09-24 15:45:27.655025,-204
2021-09-24 15:45:27.655033,-230
2021-09-24 15:45:27.655040,-257
2021-09-24 15:45:27.655047,-276
2021-09-24 15:45:27.655054,-296
2021-09-24 15:45:27.655060,-323
2021-09-24 15:45:27.655067,-359
2021-09-24 15:45:27.655074,-403
2021-09-24 15:45:27.655081,-439
2021-09-24 15:45:27.655088,-456
2021-09-24 15:45:27.655094,-466
2021-09-24 15:45:27.655102,-466
2021-09-24 15:45:27.655108,-451
2021-09-24 15:45:27.655115,-412
2021-09-24 15:45:27.655125,-337
2021-09-24 15:45:27.655132,-228
2021-09-24 15:45:27.655139,-114
2021-09-24 15:45:27.655146,-7
2021-09-24 15:45:27.655153,77
2021-09-24 15:45:27.655160,138
2021-09-24 15:45:27.655166,187
2021-09-24 15:45:27.655173,221
2021-09-24 15:45:27.655180,230
2021-09-24 15:45:27.655187,233
2021-09-24 15:45:27.655194,238
2021-09-24 15:45:27.655200,233
2021-09-24 15:45:27.655207,225
2021-09-24 15:45:27.655214,218
2021-09-24 15:45:27.790866,201
2021-09-24 15:45:27.790890,187
2021-09-24 15:45:27.790898,182
2021-09-24 15:45:27.790905,167
2021-09-24 15:45:27.790939,150
2021-09-24 15:45:27.790975,145
2021-09-24 15:45:27.790988,143
2021-09-24 15:45:27.790996,133
2021-09-24 15:45:27.791002,123
2021-09-24 15:45:27.791009,114
2021-09-24 15:45:27.791015,111
2021-09-24 15:45:27.791022,111
2021-09-24 15:45:27.791029,111
2021-09-24 15:45:27.791035,109
2021-09-24 15:45:27.791042,106
2021-09-24 15:45:27.791048,102
2021-09-24 15:45:27.791055,104
2021-09-24 15:45:27.791061,106
2021-09-24 15:45:27.791068,106
2021-09-24 15:45:27.791074,109
2021-09-24 15:45:27.791081,106
2021-09-24 15:45:27.791087,99
2021-09-24 15:45:27.791094,102
2021-09-24 15:45:27.791100,104
2021-09-24 15:45:27.791107,104
2021-09-24 15:45:27.791113,104
2021-09-24 15:45:27.791120,102
2021-09-24 15:45:27.791126,94
2021-09-24 15:45:27.791132,99
2021-09-24 15:45:27.791139,102
2021-09-24 15:45:28.015829,102
2021-09-24 15:45:28.015862,102
2021-09-24 15:45:28.015874,97
2021-09-24 15:45:28.015884,87
2021-09-24 15:45:28.015895,85
2021-09-24 15:45:28.015905,82
2021-09-24 15:45:28.015915,77
2021-09-24 15:45:28.015925,77
2021-09-24 15:45:28.015935,75
2021-09-24 15:45:28.015945,70
2021-09-24 15:45:28.015955,72
2021-09-24 15:45:28.015965,75
2021-09-24 15:45:28.015975,77
2021-09-24 15:45:28.015989,77
2021-09-24 15:45:28.015999,75
2021-09-24 15:45:28.016009,68
2021-09-24 15:45:28.016019,60
2021-09-24 15:45:28.016030,46
2021-09-24 15:45:28.016040,36
2021-09-24 15:45:28.016050,36
2021-09-24 15:45:28.016060,21
2021-09-24 15:45:28.016070,14
2021-09-24 15:45:28.016080,41
2021-09-24 15:45:28.016090,68
2021-09-24 15:45:28.016100,70
2021-09-24 15:45:28.016110,65
2021-09-24 15:45:28.016120,63
2021-09-24 15:45:28.016130,63
2021-09-24 15:45:28.016140,70
2021-09-24 15:45:28.016150,72
2021-09-24 15:45:28.195854,70
2021-09-24 15:45:28.195878,65
2021-09-24 15:45:28.195886,48
2021-09-24 15:45:28.195893,2
2021-09-24 15:45:28.195900,-87
2021-09-24 15:45:28.195907,-269
2021-09-24 15:45:28.195914,-466
2021-09-24 15:45:28.195921,-381
2021-09-24 15:45:28.195927,58
2021-09-24 15:45:28.195934,561
2021-09-24 15:45:28.195941,687
2021-09-24 15:45:28.195948,352
2021-09-24 15:45:28.195955,82
2021-09-24 15:45:28.195962,72
2021-09-24 15:45:28.195969,-2
2021-09-24 15:45:28.195975,-104
2021-09-24 15:45:28.195982,-87
2021-09-24 15:45:28.195989,-72
2021-09-24 15:45:28.195996,-106
2021-09-24 15:45:28.196002,-121
2021-09-24 15:45:28.196009,-123
2021-09-24 15:45:28.196016,-133
2021-09-24 15:45:28.196023,-143
2021-09-24 15:45:28.196030,-153
2021-09-24 15:45:28.196037,-170
2021-09-24 15:45:28.196043,-184
2021-09-24 15:45:28.196050,-196
2021-09-24 15:45:28.196057,-211
2021-09-24 15:45:28.196064,-228
2021-09-24 15:45:28.196071,-247
2021-09-24 15:45:28.464824,-276
2021-09-24 15:45:28.464855,-310
2021-09-24 15:45:28.464867,-340
2021-09-24 15:45:28.464877,-374
2021-09-24 15:45:28.464887,-403
2021-09-24 15:45:28.464897,-425
2021-09-24 15:45:28.464907,-444
2021-09-24 15:45:28.464917,-456
2021-09-24 15:45:28.464927,-449
2021-09-24 15:45:28.464937,-422
2021-09-24 15:45:28.464947,-369
2021-09-24 15:45:28.464957,-274
2021-09-24 15:45:28.464967,-170
2021-09-24 15:45:28.464977,-68
2021-09-24 15:45:28.464987,31
2021-09-24 15:45:28.464997,109
2021-09-24 15:45:28.465007,165
2021-09-24 15:45:28.465024,204
2021-09-24 15:45:28.465034,218
2021-09-24 15:45:28.465044,221
2021-09-24 15:45:28.465054,225
2021-09-24 15:45:28.465064,225
2021-09-24 15:45:28.465074,216
2021-09-24 15:45:28.465085,213
2021-09-24 15:45:28.465094,208
2021-09-24 15:45:28.465105,194
2021-09-24 15:45:28.465115,184
2021-09-24 15:45:28.465125,182
2021-09-24 15:45:28.465135,170
2021-09-24 15:45:28.465145,157
2021-09-24 15:45:28.689821,153
2021-09-24 15:45:28.689842,145
2021-09-24 15:45:28.689850,133
2021-09-24 15:45:28.689856,126
2021-09-24 15:45:28.689862,121
2021-09-24 15:45:28.689868,119
2021-09-24 15:45:28.689874,109
2021-09-24 15:45:28.689880,102
2021-09-24 15:45:28.689886,104
2021-09-24 15:45:28.689892,104
2021-09-24 15:45:28.689898,97
2021-09-24 15:45:28.689903,80
2021-09-24 15:45:28.689909,65
2021-09-24 15:45:28.689915,70
2021-09-24 15:45:28.689921,77
2021-09-24 15:45:28.689927,77
2021-09-24 15:45:28.689933,80
2021-09-24 15:45:28.689939,77
2021-09-24 15:45:28.689945,75
2021-09-24 15:45:28.689951,77
2021-09-24 15:45:28.689957,82
2021-09-24 15:45:28.689963,80
2021-09-24 15:45:28.689969,80
2021-09-24 15:45:28.689975,77
2021-09-24 15:45:28.689981,70
2021-09-24 15:45:28.689987,75
2021-09-24 15:45:28.689992,80
2021-09-24 15:45:28.689998,75
2021-09-24 15:45:28.690004,75
2021-09-24 15:45:28.690010,72
2021-09-24 15:45:29.005349,72
2021-09-24 15:45:29.005373,75
2021-09-24 15:45:29.005381,75
2021-09-24 15:45:29.005388,68
2021-09-24 15:45:29.005395,68
2021-09-24 15:45:29.005402,63
2021-09-24 15:45:29.005409,53
2021-09-24 15:45:29.005415,55
2021-09-24 15:45:29.005422,68
2021-09-24 15:45:29.005429,75
2021-09-24 15:45:29.005436,65
2021-09-24 15:45:29.005443,51
2021-09-24 15:45:29.005450,26
2021-09-24 15:45:29.005457,9
2021-09-24 15:45:29.005464,4
2021-09-24 15:45:29.005471,4
2021-09-24 15:45:29.005478,9
2021-09-24 15:45:29.005485,26
2021-09-24 15:45:29.005492,38
2021-09-24 15:45:29.005499,41
2021-09-24 15:45:29.005506,41
2021-09-24 15:45:29.005512,41
2021-09-24 15:45:29.005519,41
2021-09-24 15:45:29.005526,41
2021-09-24 15:45:29.005533,41
2021-09-24 15:45:29.005540,41
2021-09-24 15:45:29.005547,41
2021-09-24 15:45:29.005554,19
2021-09-24 15:45:29.005561,-34
2021-09-24 15:45:29.005571,-136
2021-09-24 15:45:29.095807,-335
2021-09-24 15:45:29.095831,-495
2021-09-24 15:45:29.095839,-327
2021-09-24 15:45:29.095846,155
2021-09-24 15:45:29.095853,604
2021-09-24 15:45:29.095859,597
2021-09-24 15:45:29.095866,230
2021-09-24 15:45:29.095873,60
2021-09-24 15:45:29.095879,72
2021-09-24 15:45:29.095886,-34
2021-09-24 15:45:29.095893,-116
2021-09-24 15:45:29.095899,-92
2021-09-24 15:45:29.095906,-92
2021-09-24 15:45:29.095912,-123
2021-09-24 15:45:29.095919,-128
2021-09-24 15:45:29.095926,-131
2021-09-24 15:45:29.095932,-153
2021-09-24 15:45:29.095939,-174
2021-09-24 15:45:29.095945,-179
2021-09-24 15:45:29.095952,-187
2021-09-24 15:45:29.095958,-204
2021-09-24 15:45:29.095965,-221
2021-09-24 15:45:29.095971,-235
2021-09-24 15:45:29.095978,-252
2021-09-24 15:45:29.095985,-274
2021-09-24 15:45:29.095991,-301
2021-09-24 15:45:29.095998,-337
2021-09-24 15:45:29.096004,-371
2021-09-24 15:45:29.096011,-400
2021-09-24 15:45:29.096017,-427
2021-09-24 15:45:29.320845,-449
2021-09-24 15:45:29.320869,-461
2021-09-24 15:45:29.320877,-461
2021-09-24 15:45:29.320884,-451
2021-09-24 15:45:29.320891,-420
2021-09-24 15:45:29.320897,-352
2021-09-24 15:45:29.320904,-250
2021-09-24 15:45:29.320910,-143
2021-09-24 15:45:29.320917,-38
2021-09-24 15:45:29.320924,48
2021-09-24 15:45:29.320930,109
2021-09-24 15:45:29.320937,157
2021-09-24 15:45:29.320943,189
2021-09-24 15:45:29.320950,204
2021-09-24 15:45:29.320957,208
2021-09-24 15:45:29.320963,208
2021-09-24 15:45:29.320970,206
2021-09-24 15:45:29.320976,201
2021-09-24 15:45:29.320983,194
2021-09-24 15:45:29.320989,187
2021-09-24 15:45:29.320996,177
2021-09-24 15:45:29.321002,162
2021-09-24 15:45:29.321009,150
2021-09-24 15:45:29.321015,143
2021-09-24 15:45:29.321022,136
2021-09-24 15:45:29.321028,126
2021-09-24 15:45:29.321035,116
2021-09-24 15:45:29.321042,109
2021-09-24 15:45:29.321048,104
2021-09-24 15:45:29.321055,102
2021-09-24 15:45:29.590801,102
2021-09-24 15:45:29.590824,97
2021-09-24 15:45:29.590832,92
2021-09-24 15:45:29.590839,87
2021-09-24 15:45:29.590845,85
2021-09-24 15:45:29.590852,92
2021-09-24 15:45:29.590858,94
2021-09-24 15:45:29.590865,94
2021-09-24 15:45:29.590871,89
2021-09-24 15:45:29.590878,82
2021-09-24 15:45:29.590884,80
2021-09-24 15:45:29.590891,82
2021-09-24 15:45:29.590897,87
2021-09-24 15:45:29.590904,89
2021-09-24 15:45:29.590910,87
2021-09-24 15:45:29.590916,85
2021-09-24 15:45:29.590923,82
2021-09-24 15:45:29.590929,82
2021-09-24 15:45:29.590936,80
2021-09-24 15:45:29.590942,72
2021-09-24 15:45:29.590952,70
2021-09-24 15:45:29.590959,65
2021-09-24 15:45:29.590965,53
2021-09-24 15:45:29.590972,48
2021-09-24 15:45:29.590978,53
2021-09-24 15:45:29.590985,55
2021-09-24 15:45:29.590991,60
2021-09-24 15:45:29.590998,60
2021-09-24 15:45:29.591004,63
2021-09-24 15:45:29.591011,68
2021-09-24 15:45:29.815864,65
2021-09-24 15:45:29.815887,46
2021-09-24 15:45:29.815895,21
2021-09-24 15:45:29.815902,14
2021-09-24 15:45:29.815909,14
2021-09-24 15:45:29.815915,19
2021-09-24 15:45:29.815922,43
2021-09-24 15:45:29.815928,58
2021-09-24 15:45:29.815935,51
2021-09-24 15:45:29.815941,43
2021-09-24 15:45:29.815947,51
2021-09-24 15:45:29.815954,55
2021-09-24 15:45:29.815960,55
2021-09-24 15:45:29.815967,48
2021-09-24 15:45:29.815974,36
2021-09-24 15:45:29.815980,29
2021-09-24 15:45:29.815987,12
2021-09-24 15:45:29.815993,-38
2021-09-24 15:45:29.816000,-136
2021-09-24 15:45:29.816007,-313
2021-09-24 15:45:29.816013,-456
2021-09-24 15:45:29.816020,-303
2021-09-24 15:45:29.816026,153
2021-09-24 15:45:29.816033,597
2021-09-24 15:45:29.816039,600
2021-09-24 15:45:29.816046,228
2021-09-24 15:45:29.816052,48
2021-09-24 15:45:29.816059,72
2021-09-24 15:45:29.816065,-24
2021-09-24 15:45:29.816072,-111
2021-09-24 15:45:30.040831,-87
2021-09-24 15:45:30.040856,-80
2021-09-24 15:45:30.040864,-111
2021-09-24 15:45:30.040871,-116
2021-09-24 15:45:30.040878,-116
2021-09-24 15:45:30.040885,-133
2021-09-24 15:45:30.040892,-145
2021-09-24 15:45:30.040899,-150
2021-09-24 15:45:30.040906,-170
2021-09-24 15:45:30.040913,-189
2021-09-24 15:45:30.040920,-196
2021-09-24 15:45:30.040927,-208
2021-09-24 15:45:30.040934,-230
2021-09-24 15:45:30.040941,-257
2021-09-24 15:45:30.040948,-289
2021-09-24 15:45:30.040955,-320
2021-09-24 15:45:30.040962,-352
2021-09-24 15:45:30.040969,-383
2021-09-24 15:45:30.040976,-417
2021-09-24 15:45:30.040983,-444
2021-09-24 15:45:30.040990,-459
2021-09-24 15:45:30.040997,-454
2021-09-24 15:45:30.041004,-434
2021-09-24 15:45:30.041011,-393
2021-09-24 15:45:30.041018,-323
2021-09-24 15:45:30.041025,-221
2021-09-24 15:45:30.041031,-111
2021-09-24 15:45:30.041038,-14
2021-09-24 15:45:30.041045,68
2021-09-24 15:45:30.041052,133
2021-09-24 15:45:30.265535,179
2021-09-24 15:45:30.265558,204
2021-09-24 15:45:30.265565,216
2021-09-24 15:45:30.265572,218
2021-09-24 15:45:30.265578,211
2021-09-24 15:45:30.265585,206
2021-09-24 15:45:30.265591,201
2021-09-24 15:45:30.265598,187
2021-09-24 15:45:30.265604,172
2021-09-24 15:45:30.265611,162
2021-09-24 15:45:30.265617,157
2021-09-24 15:45:30.265624,153
2021-09-24 15:45:30.265630,138
2021-09-24 15:45:30.265637,121
2021-09-24 15:45:30.265643,114
2021-09-24 15:45:30.265650,111
2021-09-24 15:45:30.265656,104
2021-09-24 15:45:30.265663,94
2021-09-24 15:45:30.265669,87
2021-09-24 15:45:30.265675,85
2021-09-24 15:45:30.265682,85
2021-09-24 15:45:30.265688,87
2021-09-24 15:45:30.265698,89
2021-09-24 15:45:30.265704,92
2021-09-24 15:45:30.265711,92
2021-09-24 15:45:30.265717,89
2021-09-24 15:45:30.265724,85
2021-09-24 15:45:30.265730,82
2021-09-24 15:45:30.265737,82
2021-09-24 15:45:30.265743,87
2021-09-24 15:45:30.533985,89
2021-09-24 15:45:30.534006,85
2021-09-24 15:45:30.534014,82
2021-09-24 15:45:30.534020,87
2021-09-24 15:45:30.534027,89
2021-09-24 15:45:30.534033,85
2021-09-24 15:45:30.534040,80
2021-09-24 15:45:30.534046,75
2021-09-24 15:45:30.534053,75
2021-09-24 15:45:30.534059,77
2021-09-24 15:45:30.534066,77
2021-09-24 15:45:30.534073,75
2021-09-24 15:45:30.534079,68
2021-09-24 15:45:30.534086,60
2021-09-24 15:45:30.534092,60
2021-09-24 15:45:30.534099,63
2021-09-24 15:45:30.534105,65
2021-09-24 15:45:30.534112,65
2021-09-24 15:45:30.534118,65
2021-09-24 15:45:30.534125,72
2021-09-24 15:45:30.534131,82
2021-09-24 15:45:30.534138,77
2021-09-24 15:45:30.534144,65
2021-09-24 15:45:30.534151,48
2021-09-24 15:45:30.534157,29
2021-09-24 15:45:30.534164,26
2021-09-24 15:45:30.534170,26
2021-09-24 15:45:30.534176,21
2021-09-24 15:45:30.534183,38
2021-09-24 15:45:30.534189,55
2021-09-24 15:45:30.760873,53
2021-09-24 15:45:30.760896,51
2021-09-24 15:45:30.760904,55
2021-09-24 15:45:30.760911,51
2021-09-24 15:45:30.760917,41
2021-09-24 15:45:30.760924,34
2021-09-24 15:45:30.760931,31
2021-09-24 15:45:30.760937,26
2021-09-24 15:45:30.760944,9
2021-09-24 15:45:30.760950,-41
2021-09-24 15:45:30.760957,-133
2021-09-24 15:45:30.760964,-310
2021-09-24 15:45:30.760970,-471
2021-09-24 15:45:30.760977,-340
2021-09-24 15:45:30.760984,85
2021-09-24 15:45:30.760990,529
2021-09-24 15:45:30.760997,631
2021-09-24 15:45:30.761003,303
2021-09-24 15:45:30.761010,58
2021-09-24 15:45:30.761017,70
2021-09-24 15:45:30.761024,0
2021-09-24 15:45:30.761030,-106
2021-09-24 15:45:30.761037,-92
2021-09-24 15:45:30.761043,-80
2021-09-24 15:45:30.761050,-114
2021-09-24 15:45:30.761057,-121
2021-09-24 15:45:30.761064,-114
2021-09-24 15:45:30.761071,-126
2021-09-24 15:45:30.761078,-140
2021-09-24 15:45:30.761085,-145
2021-09-24 15:45:30.985867,-160
2021-09-24 15:45:30.985892,-177
2021-09-24 15:45:30.985900,-187
2021-09-24 15:45:30.985907,-199
2021-09-24 15:45:30.985914,-218
2021-09-24 15:45:30.985921,-247
2021-09-24 15:45:30.985928,-276
2021-09-24 15:45:30.985935,-301
2021-09-24 15:45:30.985941,-327
2021-09-24 15:45:30.985948,-366
2021-09-24 15:45:30.985955,-405
2021-09-24 15:45:30.985962,-437
2021-09-24 15:45:30.985969,-449
2021-09-24 15:45:30.985976,-446
2021-09-24 15:45:30.985982,-437
2021-09-24 15:45:30.985989,-410
2021-09-24 15:45:30.985996,-352
2021-09-24 15:45:30.986003,-259
2021-09-24 15:45:30.986010,-143
2021-09-24 15:45:30.986016,-31
2021-09-24 15:45:30.986023,58
2021-09-24 15:45:30.986030,126
2021-09-24 15:45:30.986037,179
2021-09-24 15:45:30.986044,211
2021-09-24 15:45:30.986050,230
2021-09-24 15:45:30.986057,245
2021-09-24 15:45:30.986064,240
2021-09-24 15:45:30.986071,228
2021-09-24 15:45:30.986077,216
2021-09-24 15:45:30.986084,204
2021-09-24 15:45:31.255181,196
2021-09-24 15:45:31.255201,194
2021-09-24 15:45:31.255209,177
2021-09-24 15:45:31.255216,155
2021-09-24 15:45:31.255222,138
2021-09-24 15:45:31.255232,131
2021-09-24 15:45:31.255239,126
2021-09-24 15:45:31.255245,119
2021-09-24 15:45:31.255252,106
2021-09-24 15:45:31.255259,92
2021-09-24 15:45:31.255265,80
2021-09-24 15:45:31.255272,75
2021-09-24 15:45:31.255278,80
2021-09-24 15:45:31.255285,82
2021-09-24 15:45:31.255292,80
2021-09-24 15:45:31.255299,72
2021-09-24 15:45:31.255305,65
2021-09-24 15:45:31.255312,68
2021-09-24 15:45:31.255319,75
2021-09-24 15:45:31.255325,77
2021-09-24 15:45:31.255332,72
2021-09-24 15:45:31.255338,70
2021-09-24 15:45:31.255345,68
2021-09-24 15:45:31.255352,70
2021-09-24 15:45:31.255358,80
2021-09-24 15:45:31.255365,82
2021-09-24 15:45:31.255371,75
2021-09-24 15:45:31.255378,70
2021-09-24 15:45:31.255385,68
2021-09-24 15:45:31.255391,70
2021-09-24 15:45:31.480843,77
2021-09-24 15:45:31.480868,72
2021-09-24 15:45:31.480876,63
2021-09-24 15:45:31.480883,63
2021-09-24 15:45:31.480890,63
2021-09-24 15:45:31.480897,55
2021-09-24 15:45:31.480904,58
2021-09-24 15:45:31.480911,68
2021-09-24 15:45:31.480918,60
2021-09-24 15:45:31.480924,43
2021-09-24 15:45:31.480931,43
2021-09-24 15:45:31.480938,58
2021-09-24 15:45:31.480945,65
2021-09-24 15:45:31.480952,58
2021-09-24 15:45:31.480959,48
2021-09-24 15:45:31.480966,24
2021-09-24 15:45:31.480973,7
2021-09-24 15:45:31.480980,12
2021-09-24 15:45:31.480986,9
2021-09-24 15:45:31.480993,12
2021-09-24 15:45:31.481000,34
2021-09-24 15:45:31.481007,38
2021-09-24 15:45:31.481014,34
2021-09-24 15:45:31.481021,36
2021-09-24 15:45:31.481027,41
2021-09-24 15:45:31.481034,41
2021-09-24 15:45:31.481041,43
2021-09-24 15:45:31.481048,43
2021-09-24 15:45:31.481055,38
2021-09-24 15:45:31.481062,36
2021-09-24 15:45:31.705612,9
2021-09-24 15:45:31.705639,-51
2021-09-24 15:45:31.705650,-162
2021-09-24 15:45:31.705660,-359
2021-09-24 15:45:31.705670,-459
2021-09-24 15:45:31.705680,-223
2021-09-24 15:45:31.705690,240
2021-09-24 15:45:31.705699,607
2021-09-24 15:45:31.705707,524
2021-09-24 15:45:31.705716,165
2021-09-24 15:45:31.705725,43
2021-09-24 15:45:31.705734,60
2021-09-24 15:45:31.705743,-51
2021-09-24 15:45:31.705754,-116
2021-09-24 15:45:31.705763,-82
2021-09-24 15:45:31.705768,-104
2021-09-24 15:45:31.705774,-140
2021-09-24 15:45:31.705779,-136
2021-09-24 15:45:31.705785,-140
2021-09-24 15:45:31.705790,-160
2021-09-24 15:45:31.705795,-170
2021-09-24 15:45:31.705803,-177
2021-09-24 15:45:31.705812,-184
2021-09-24 15:45:31.705820,-191
2021-09-24 15:45:31.705829,-206
2021-09-24 15:45:31.705838,-228
2021-09-24 15:45:31.705848,-245
2021-09-24 15:45:31.705857,-264
2021-09-24 15:45:31.705866,-289
2021-09-24 15:45:31.705875,-318
2021-09-24 15:45:31.885840,-354
2021-09-24 15:45:31.885864,-388
2021-09-24 15:45:31.885871,-415
2021-09-24 15:45:31.885878,-439
2021-09-24 15:45:31.885885,-451
2021-09-24 15:45:31.885891,-449
2021-09-24 15:45:31.885898,-427
2021-09-24 15:45:31.885904,-386
2021-09-24 15:45:31.885911,-318
2021-09-24 15:45:31.885917,-216
2021-09-24 15:45:31.885924,-99
2021-09-24 15:45:31.885930,7
2021-09-24 15:45:31.885937,87
2021-09-24 15:45:31.885943,145
2021-09-24 15:45:31.885950,182
2021-09-24 15:45:31.885956,204
2021-09-24 15:45:31.885963,218
2021-09-24 15:45:31.885969,223
2021-09-24 15:45:31.885976,225
2021-09-24 15:45:31.885983,221
2021-09-24 15:45:31.885989,206
2021-09-24 15:45:31.885996,194
2021-09-24 15:45:31.886003,187
2021-09-24 15:45:31.886009,174
2021-09-24 15:45:31.886016,162
2021-09-24 15:45:31.886022,155
2021-09-24 15:45:31.886029,143
2021-09-24 15:45:31.886035,128
2021-09-24 15:45:31.886042,119
2021-09-24 15:45:31.886048,114
2021-09-24 15:45:32.155954,109
2021-09-24 15:45:32.155981,102
2021-09-24 15:45:32.155989,92
2021-09-24 15:45:32.155996,87
2021-09-24 15:45:32.156003,87
2021-09-24 15:45:32.156009,85
2021-09-24 15:45:32.156016,82
2021-09-24 15:45:32.156022,80
2021-09-24 15:45:32.156029,75
2021-09-24 15:45:32.156035,72
2021-09-24 15:45:32.156042,70
2021-09-24 15:45:32.156048,65
2021-09-24 15:45:32.156055,70
2021-09-24 15:45:32.156061,68
2021-09-24 15:45:32.156068,63
2021-09-24 15:45:32.156075,63
2021-09-24 15:45:32.156081,68
2021-09-24 15:45:32.156088,65
2021-09-24 15:45:32.156094,65
2021-09-24 15:45:32.156101,65
2021-09-24 15:45:32.156107,58
2021-09-24 15:45:32.156114,46
2021-09-24 15:45:32.156120,41
2021-09-24 15:45:32.156127,53
2021-09-24 15:45:32.156134,53
2021-09-24 15:45:32.156140,48
2021-09-24 15:45:32.156147,51
2021-09-24 15:45:32.156153,51
2021-09-24 15:45:32.156160,48
2021-09-24 15:45:32.156167,55
2021-09-24 15:45:32.335534,53
2021-09-24 15:45:32.335556,46
2021-09-24 15:45:32.335564,53
2021-09-24 15:45:32.335571,58
2021-09-24 15:45:32.335577,60
2021-09-24 15:45:32.335584,60
2021-09-24 15:45:32.335590,48
2021-09-24 15:45:32.335597,24
2021-09-24 15:45:32.335603,12
2021-09-24 15:45:32.335610,9
2021-09-24 15:45:32.335616,7
2021-09-24 15:45:32.335623,12
2021-09-24 15:45:32.335629,29
2021-09-24 15:45:32.335636,41
2021-09-24 15:45:32.335642,43
2021-09-24 15:45:32.335648,41
2021-09-24 15:45:32.335655,41
2021-09-24 15:45:32.335661,46
2021-09-24 15:45:32.335668,43
2021-09-24 15:45:32.335674,41
2021-09-24 15:45:32.335681,38
2021-09-24 15:45:32.335687,34
2021-09-24 15:45:32.335694,12
2021-09-24 15:45:32.335700,-41
2021-09-24 15:45:32.335707,-138
2021-09-24 15:45:32.335713,-313
2021-09-24 15:45:32.335720,-439
2021-09-24 15:45:32.335726,-257
2021-09-24 15:45:32.335732,187
2021-09-24 15:45:32.335739,585
2021-09-24 15:45:32.694469,600
2021-09-24 15:45:32.694491,257
2021-09-24 15:45:32.694499,68
2021-09-24 15:45:32.694506,77
2021-09-24 15:45:32.694512,-17
2021-09-24 15:45:32.694519,-106
2021-09-24 15:45:32.694526,-85
2021-09-24 15:45:32.694532,-82
2021-09-24 15:45:32.694539,-114
2021-09-24 15:45:32.694546,-116
2021-09-24 15:45:32.694552,-114
2021-09-24 15:45:32.694559,-133
2021-09-24 15:45:32.694566,-150
2021-09-24 15:45:32.694572,-153
2021-09-24 15:45:32.694579,-165
2021-09-24 15:45:32.694586,-184
2021-09-24 15:45:32.694592,-194
2021-09-24 15:45:32.694599,-206
2021-09-24 15:45:32.694605,-228
2021-09-24 15:45:32.694612,-250
2021-09-24 15:45:32.694619,-272
2021-09-24 15:45:32.694625,-303
2021-09-24 15:45:32.694632,-335
2021-09-24 15:45:32.694639,-364
2021-09-24 15:45:32.694645,-395
2021-09-24 15:45:32.694652,-422
2021-09-24 15:45:32.694658,-437
2021-09-24 15:45:32.694665,-449
2021-09-24 15:45:32.694672,-442
2021-09-24 15:45:32.694678,-400
2021-09-24 15:45:32.785883,-335
2021-09-24 15:45:32.785907,-240
2021-09-24 15:45:32.785914,-126
2021-09-24 15:45:32.785921,-19
2021-09-24 15:45:32.785928,65
2021-09-24 15:45:32.785934,128
2021-09-24 15:45:32.785941,174
2021-09-24 15:45:32.785947,204
2021-09-24 15:45:32.785954,218
2021-09-24 15:45:32.785960,225
2021-09-24 15:45:32.785966,225
2021-09-24 15:45:32.785973,216
2021-09-24 15:45:32.785979,208
2021-09-24 15:45:32.785986,206
2021-09-24 15:45:32.785992,204
2021-09-24 15:45:32.785998,189
2021-09-24 15:45:32.786005,167
2021-09-24 15:45:32.786011,150
2021-09-24 15:45:32.786018,143
2021-09-24 15:45:32.786024,133
2021-09-24 15:45:32.786030,123
2021-09-24 15:45:32.786037,114
2021-09-24 15:45:32.786043,99
2021-09-24 15:45:32.786050,89
2021-09-24 15:45:32.786056,89
2021-09-24 15:45:32.786063,87
2021-09-24 15:45:32.786069,82
2021-09-24 15:45:32.786075,80
2021-09-24 15:45:32.786082,75
2021-09-24 15:45:32.786088,72
2021-09-24 15:45:33.011005,80
2021-09-24 15:45:33.011037,82
2021-09-24 15:45:33.011049,80
2021-09-24 15:45:33.011060,77
2021-09-24 15:45:33.011070,72
2021-09-24 15:45:33.011080,70
2021-09-24 15:45:33.011090,72
2021-09-24 15:45:33.011099,80
2021-09-24 15:45:33.011109,77
2021-09-24 15:45:33.011119,70
2021-09-24 15:45:33.011129,65
2021-09-24 15:45:33.011148,60
2021-09-24 15:45:33.011159,63
2021-09-24 15:45:33.011169,70
2021-09-24 15:45:33.011212,70
2021-09-24 15:45:33.011222,60
2021-09-24 15:45:33.011232,58
2021-09-24 15:45:33.011242,60
2021-09-24 15:45:33.011252,60
2021-09-24 15:45:33.011262,53
2021-09-24 15:45:33.011272,51
2021-09-24 15:45:33.011282,53
2021-09-24 15:45:33.011292,51
2021-09-24 15:45:33.011302,48
2021-09-24 15:45:33.011312,53
2021-09-24 15:45:33.011321,55
2021-09-24 15:45:33.011331,55
2021-09-24 15:45:33.011341,55
2021-09-24 15:45:33.011351,58
2021-09-24 15:45:33.011361,63
2021-09-24 15:45:33.235699,60
2021-09-24 15:45:33.235719,51
2021-09-24 15:45:33.235727,29
2021-09-24 15:45:33.235734,2
2021-09-24 15:45:33.235741,-12
2021-09-24 15:45:33.235748,-14
2021-09-24 15:45:33.235754,2
2021-09-24 15:45:33.235761,29
2021-09-24 15:45:33.235767,36
2021-09-24 15:45:33.235774,24
2021-09-24 15:45:33.235780,17
2021-09-24 15:45:33.235787,29
2021-09-24 15:45:33.235793,34
2021-09-24 15:45:33.235800,31
2021-09-24 15:45:33.235807,31
2021-09-24 15:45:33.235813,29
2021-09-24 15:45:33.235819,21
2021-09-24 15:45:33.235826,2
2021-09-24 15:45:33.235833,-46
2021-09-24 15:45:33.235839,-150
2021-09-24 15:45:33.235846,-349
2021-09-24 15:45:33.235852,-485
2021-09-24 15:45:33.235859,-289
2021-09-24 15:45:33.235865,170
2021-09-24 15:45:33.235872,580
2021-09-24 15:45:33.235879,590
2021-09-24 15:45:33.235885,240
2021-09-24 15:45:33.235892,46
2021-09-24 15:45:33.235898,58
2021-09-24 15:45:33.235905,-29
2021-09-24 15:45:33.551395,-109
2021-09-24 15:45:33.551427,-80
2021-09-24 15:45:33.551439,-87
2021-09-24 15:45:33.551450,-131
2021-09-24 15:45:33.551460,-131
2021-09-24 15:45:33.551470,-123
2021-09-24 15:45:33.551480,-136
2021-09-24 15:45:33.551490,-145
2021-09-24 15:45:33.551500,-155
2021-09-24 15:45:33.551510,-172
2021-09-24 15:45:33.551520,-184
2021-09-24 15:45:33.551530,-191
2021-09-24 15:45:33.551540,-206
2021-09-24 15:45:33.551550,-225
2021-09-24 15:45:33.551561,-247
2021-09-24 15:45:33.551571,-276
2021-09-24 15:45:33.551581,-308
2021-09-24 15:45:33.551591,-337
2021-09-24 15:45:33.551601,-371
2021-09-24 15:45:33.551611,-408
2021-09-24 15:45:33.551621,-437
2021-09-24 15:45:33.551631,-456
2021-09-24 15:45:33.551641,-466
2021-09-24 15:45:33.551651,-451
2021-09-24 15:45:33.551661,-412
2021-09-24 15:45:33.551671,-340
2021-09-24 15:45:33.551681,-247
2021-09-24 15:45:33.551691,-138
2021-09-24 15:45:33.551701,-24
2021-09-24 15:45:33.551711,70
2021-09-24 15:45:33.730178,140
2021-09-24 15:45:33.730195,191
2021-09-24 15:45:33.730202,218
2021-09-24 15:45:33.730207,228
2021-09-24 15:45:33.730213,233
2021-09-24 15:45:33.730218,233
2021-09-24 15:45:33.730223,228
2021-09-24 15:45:33.730228,223
2021-09-24 15:45:33.730234,208
2021-09-24 15:45:33.730239,182
2021-09-24 15:45:33.730244,170
2021-09-24 15:45:33.730249,172
2021-09-24 15:45:33.730254,162
2021-09-24 15:45:33.730260,145
2021-09-24 15:45:33.730265,131
2021-09-24 15:45:33.730270,121
2021-09-24 15:45:33.730275,114
2021-09-24 15:45:33.730280,111
2021-09-24 15:45:33.730286,104
2021-09-24 15:45:33.730291,94
2021-09-24 15:45:33.730296,85
2021-09-24 15:45:33.730301,75
2021-09-24 15:45:33.730306,77
2021-09-24 15:45:33.730312,82
2021-09-24 15:45:33.730317,77
2021-09-24 15:45:33.730322,68
2021-09-24 15:45:33.730327,65
2021-09-24 15:45:33.730332,70
2021-09-24 15:45:33.730338,72
2021-09-24 15:45:33.730343,75
2021-09-24 15:45:34.045272,75
2021-09-24 15:45:34.045296,77
2021-09-24 15:45:34.045304,75
2021-09-24 15:45:34.045311,72
2021-09-24 15:45:34.045318,77
2021-09-24 15:45:34.045325,82
2021-09-24 15:45:34.045332,77
2021-09-24 15:45:34.045339,68
2021-09-24 15:45:34.045345,63
2021-09-24 15:45:34.045352,65
2021-09-24 15:45:34.045359,68
2021-09-24 15:45:34.045366,68
2021-09-24 15:45:34.045405,68
2021-09-24 15:45:34.045412,60
2021-09-24 15:45:34.045418,51
2021-09-24 15:45:34.045425,51
2021-09-24 15:45:34.045432,55
2021-09-24 15:45:34.045439,58
2021-09-24 15:45:34.045445,55
2021-09-24 15:45:34.045452,55
2021-09-24 15:45:34.045459,55
2021-09-24 15:45:34.045466,55
2021-09-24 15:45:34.045473,55
2021-09-24 15:45:34.045479,55
2021-09-24 15:45:34.045486,60
2021-09-24 15:45:34.045493,65
2021-09-24 15:45:34.045500,63
2021-09-24 15:45:34.045507,48
2021-09-24 15:45:34.045513,34
2021-09-24 15:45:34.045520,26
2021-09-24 15:45:34.180783,17
2021-09-24 15:45:34.180804,7
2021-09-24 15:45:34.180812,7
2021-09-24 15:45:34.180819,26
2021-09-24 15:45:34.180825,48
2021-09-24 15:45:34.180832,51
2021-09-24 15:45:34.180838,46
2021-09-24 15:45:34.180845,46
2021-09-24 15:45:34.180857,48
2021-09-24 15:45:34.180864,48
2021-09-24 15:45:34.180870,48
2021-09-24 15:45:34.180877,51
2021-09-24 15:45:34.180883,46
2021-09-24 15:45:34.180890,29
2021-09-24 15:45:34.180896,-7
2021-09-24 15:45:34.180903,-77
2021-09-24 15:45:34.180910,-199
2021-09-24 15:45:34.180916,-405
2021-09-24 15:45:34.180923,-493
2021-09-24 15:45:34.180929,-221
2021-09-24 15:45:34.180936,281
2021-09-24 15:45:34.180943,634
2021-09-24 15:45:34.180949,517
2021-09-24 15:45:34.180956,157
2021-09-24 15:45:34.180962,41
2021-09-24 15:45:34.180969,41
2021-09-24 15:45:34.180975,-65
2021-09-24 15:45:34.180982,-114
2021-09-24 15:45:34.180988,-89
2021-09-24 15:45:34.180995,-111
2021-09-24 15:45:34.405612,-136
2021-09-24 15:45:34.405633,-131
2021-09-24 15:45:34.405641,-136
2021-09-24 15:45:34.405648,-150
2021-09-24 15:45:34.405655,-153
2021-09-24 15:45:34.405662,-160
2021-09-24 15:45:34.405668,-182
2021-09-24 15:45:34.405675,-194
2021-09-24 15:45:34.405681,-204
2021-09-24 15:45:34.405688,-221
2021-09-24 15:45:34.405694,-242
2021-09-24 15:45:34.405701,-269
2021-09-24 15:45:34.405708,-306
2021-09-24 15:45:34.405714,-337
2021-09-24 15:45:34.405721,-364
2021-09-24 15:45:34.405727,-400
2021-09-24 15:45:34.405733,-429
2021-09-24 15:45:34.405740,-449
2021-09-24 15:45:34.405746,-463
2021-09-24 15:45:34.405753,-461
2021-09-24 15:45:34.405759,-442
2021-09-24 15:45:34.405766,-400
2021-09-24 15:45:34.405772,-323
2021-09-24 15:45:34.405778,-221
2021-09-24 15:45:34.405785,-104
2021-09-24 15:45:34.405791,2
2021-09-24 15:45:34.405798,87
2021-09-24 15:45:34.405804,150
2021-09-24 15:45:34.405811,191
2021-09-24 15:45:34.405817,213
2021-09-24 15:45:34.674569,218
2021-09-24 15:45:34.674592,216
2021-09-24 15:45:34.674600,216
2021-09-24 15:45:34.674606,213
2021-09-24 15:45:34.674613,201
2021-09-24 15:45:34.674619,189
2021-09-24 15:45:34.674626,179
2021-09-24 15:45:34.674633,177
2021-09-24 15:45:34.674639,170
2021-09-24 15:45:34.674646,157
2021-09-24 15:45:34.674652,145
2021-09-24 15:45:34.674659,131
2021-09-24 15:45:34.674665,119
2021-09-24 15:45:34.674672,116
2021-09-24 15:45:34.674679,111
2021-09-24 15:45:34.674685,102
2021-09-24 15:45:34.674692,99
2021-09-24 15:45:34.674698,97
2021-09-24 15:45:34.674705,89
2021-09-24 15:45:34.674711,80
2021-09-24 15:45:34.674718,72
2021-09-24 15:45:34.674724,72
2021-09-24 15:45:34.674731,82
2021-09-24 15:45:34.674737,80
2021-09-24 15:45:34.674744,75
2021-09-24 15:45:34.674750,82
2021-09-24 15:45:34.674757,82
2021-09-24 15:45:34.674763,77
2021-09-24 15:45:34.674770,80
2021-09-24 15:45:34.674776,85
2021-09-24 15:45:34.900864,82
2021-09-24 15:45:34.900888,82
2021-09-24 15:45:34.900896,82
2021-09-24 15:45:34.900903,70
2021-09-24 15:45:34.900909,58
2021-09-24 15:45:34.900916,60
2021-09-24 15:45:34.900923,63
2021-09-24 15:45:34.900929,60
2021-09-24 15:45:34.900936,63
2021-09-24 15:45:34.900942,65
2021-09-24 15:45:34.900949,51
2021-09-24 15:45:34.900955,46
2021-09-24 15:45:34.900962,55
2021-09-24 15:45:34.900968,53
2021-09-24 15:45:34.900975,46
2021-09-24 15:45:34.900981,48
2021-09-24 15:45:34.900988,46
2021-09-24 15:45:34.900995,43
2021-09-24 15:45:34.901001,53
2021-09-24 15:45:34.901008,55
2021-09-24 15:45:34.901014,55
2021-09-24 15:45:34.901021,63
2021-09-24 15:45:34.901027,63
2021-09-24 15:45:34.901034,48
2021-09-24 15:45:34.901040,34
2021-09-24 15:45:34.901047,24
2021-09-24 15:45:34.901053,19
2021-09-24 15:45:34.901060,12
2021-09-24 15:45:34.901067,12
2021-09-24 15:45:34.901073,31
2021-09-24 15:45:35.080930,51
2021-09-24 15:45:35.080961,48
2021-09-24 15:45:35.080973,41
2021-09-24 15:45:35.080983,48
2021-09-24 15:45:35.080993,53
2021-09-24 15:45:35.081003,51
2021-09-24 15:45:35.081013,48
2021-09-24 15:45:35.081023,43
2021-09-24 15:45:35.081033,36
2021-09-24 15:45:35.081043,17
2021-09-24 15:45:35.081053,-31
2021-09-24 15:45:35.081063,-106
2021-09-24 15:45:35.081073,-267
2021-09-24 15:45:35.081083,-459
2021-09-24 15:45:35.081093,-422
2021-09-24 15:45:35.081103,-43
2021-09-24 15:45:35.081113,459
2021-09-24 15:45:35.081123,643
2021-09-24 15:45:35.081133,335
2021-09-24 15:45:35.081143,63
2021-09-24 15:45:35.081153,72
2021-09-24 15:45:35.081163,17
2021-09-24 15:45:35.081173,-102
2021-09-24 15:45:35.081183,-99
2021-09-24 15:45:35.081193,-77
2021-09-24 15:45:35.081203,-116
2021-09-24 15:45:35.081213,-138
2021-09-24 15:45:35.081223,-136
2021-09-24 15:45:35.081233,-143
2021-09-24 15:45:35.081243,-148
2021-09-24 15:45:35.395924,-150
2021-09-24 15:45:35.395948,-162
2021-09-24 15:45:35.395956,-184
2021-09-24 15:45:35.395963,-208
2021-09-24 15:45:35.395969,-223
2021-09-24 15:45:35.395976,-230
2021-09-24 15:45:35.395982,-259
2021-09-24 15:45:35.395989,-293
2021-09-24 15:45:35.395995,-327
2021-09-24 15:45:35.396002,-366
2021-09-24 15:45:35.396009,-403
2021-09-24 15:45:35.396015,-427
2021-09-24 15:45:35.396022,-444
2021-09-24 15:45:35.396028,-459
2021-09-24 15:45:35.396035,-466
2021-09-24 15:45:35.396041,-463
2021-09-24 15:45:35.396048,-432
2021-09-24 15:45:35.396054,-369
2021-09-24 15:45:35.396061,-286
2021-09-24 15:45:35.396068,-182
2021-09-24 15:45:35.396074,-70
2021-09-24 15:45:35.396081,17
2021-09-24 15:45:35.396087,89
2021-09-24 15:45:35.396097,150
2021-09-24 15:45:35.396104,187
2021-09-24 15:45:35.396110,206
2021-09-24 15:45:35.396117,216
2021-09-24 15:45:35.396123,216
2021-09-24 15:45:35.396130,216
2021-09-24 15:45:35.396136,213
2021-09-24 15:45:35.575919,208
2021-09-24 15:45:35.575943,204
2021-09-24 15:45:35.575951,189
2021-09-24 15:45:35.575958,170
2021-09-24 15:45:35.575964,162
2021-09-24 15:45:35.575971,160
2021-09-24 15:45:35.575977,153
2021-09-24 15:45:35.575984,143
2021-09-24 15:45:35.575990,131
2021-09-24 15:45:35.575997,116
2021-09-24 15:45:35.576003,109
2021-09-24 15:45:35.576010,114
2021-09-24 15:45:35.576016,109
2021-09-24 15:45:35.576023,97
2021-09-24 15:45:35.576029,89
2021-09-24 15:45:35.576035,85
2021-09-24 15:45:35.576042,89
2021-09-24 15:45:35.576048,94
2021-09-24 15:45:35.576055,97
2021-09-24 15:45:35.576061,94
2021-09-24 15:45:35.576068,85
2021-09-24 15:45:35.576074,80
2021-09-24 15:45:35.576081,89
2021-09-24 15:45:35.576087,92
2021-09-24 15:45:35.576094,89
2021-09-24 15:45:35.576100,89
2021-09-24 15:45:35.576107,89
2021-09-24 15:45:35.576113,87
2021-09-24 15:45:35.576120,85
2021-09-24 15:45:35.576126,85
2021-09-24 15:45:35.890913,80
2021-09-24 15:45:35.890936,72
2021-09-24 15:45:35.890944,63
2021-09-24 15:45:35.890951,63
2021-09-24 15:45:35.890958,63
2021-09-24 15:45:35.890964,63
2021-09-24 15:45:35.890971,63
2021-09-24 15:45:35.890978,63
2021-09-24 15:45:35.890984,53
2021-09-24 15:45:35.890991,46
2021-09-24 15:45:35.890997,48
2021-09-24 15:45:35.891004,46
2021-09-24 15:45:35.891010,46
2021-09-24 15:45:35.891017,46
2021-09-24 15:45:35.891023,41
2021-09-24 15:45:35.891030,36
2021-09-24 15:45:35.891037,31
2021-09-24 15:45:35.891043,19
2021-09-24 15:45:35.891050,9
2021-09-24 15:45:35.891056,4
2021-09-24 15:45:35.891063,-2
2021-09-24 15:45:35.891069,9
2021-09-24 15:45:35.891076,38
2021-09-24 15:45:35.891082,48
2021-09-24 15:45:35.891089,38
2021-09-24 15:45:35.891095,36
2021-09-24 15:45:35.891102,43
2021-09-24 15:45:35.891108,46
2021-09-24 15:45:35.891115,48
2021-09-24 15:45:35.891122,51
2021-09-24 15:45:36.025898,46
2021-09-24 15:45:36.025923,31
2021-09-24 15:45:36.025931,-2
2021-09-24 15:45:36.025938,-68
2021-09-24 15:45:36.025945,-201
2021-09-24 15:45:36.025952,-388
2021-09-24 15:45:36.025959,-412
2021-09-24 15:45:36.025966,-119
2021-09-24 15:45:36.025972,357
2021-09-24 15:45:36.025979,655
2021-09-24 15:45:36.025986,463
2021-09-24 15:45:36.025993,123
2021-09-24 15:45:36.026000,70
2021-09-24 15:45:36.026007,63
2021-09-24 15:45:36.026014,-65
2021-09-24 15:45:36.026020,-102
2021-09-24 15:45:36.026027,-68
2021-09-24 15:45:36.026034,-92
2021-09-24 15:45:36.026041,-121
2021-09-24 15:45:36.026048,-119
2021-09-24 15:45:36.026055,-123
2021-09-24 15:45:36.026061,-138
2021-09-24 15:45:36.026068,-143
2021-09-24 15:45:36.026075,-150
2021-09-24 15:45:36.026082,-167
2021-09-24 15:45:36.026089,-191
2021-09-24 15:45:36.026095,-208
2021-09-24 15:45:36.026102,-218
2021-09-24 15:45:36.026109,-235
2021-09-24 15:45:36.026116,-264
2021-09-24 15:45:36.251554,-296
2021-09-24 15:45:36.251596,-325
2021-09-24 15:45:36.251609,-352
2021-09-24 15:45:36.251617,-383
2021-09-24 15:45:36.251626,-408
2021-09-24 15:45:36.251633,-432
2021-09-24 15:45:36.251646,-449
2021-09-24 15:45:36.251659,-454
2021-09-24 15:45:36.251666,-437
2021-09-24 15:45:36.251674,-386
2021-09-24 15:45:36.251682,-303
2021-09-24 15:45:36.251690,-206
2021-09-24 15:45:36.251698,-106
2021-09-24 15:45:36.251705,-7
2021-09-24 15:45:36.251713,70
2021-09-24 15:45:36.251721,119
2021-09-24 15:45:36.251729,157
2021-09-24 15:45:36.251737,187
2021-09-24 15:45:36.251745,189
2021-09-24 15:45:36.251752,191
2021-09-24 15:45:36.251760,199
2021-09-24 15:45:36.251767,194
2021-09-24 15:45:36.251776,191
2021-09-24 15:45:36.251783,184
2021-09-24 15:45:36.251791,172
2021-09-24 15:45:36.251799,167
2021-09-24 15:45:36.251806,160
2021-09-24 15:45:36.251814,150
2021-09-24 15:45:36.251822,143
2021-09-24 15:45:36.251829,136
2021-09-24 15:45:36.475582,123
2021-09-24 15:45:36.475605,119
2021-09-24 15:45:36.475612,114
2021-09-24 15:45:36.475619,104
2021-09-24 15:45:36.475625,99
2021-09-24 15:45:36.475632,94
2021-09-24 15:45:36.475638,87
2021-09-24 15:45:36.475645,89
2021-09-24 15:45:36.475651,92
2021-09-24 15:45:36.475658,87
2021-09-24 15:45:36.475664,89
2021-09-24 15:45:36.475671,92
2021-09-24 15:45:36.475677,89
2021-09-24 15:45:36.475684,89
2021-09-24 15:45:36.475690,89
2021-09-24 15:45:36.475696,89
2021-09-24 15:45:36.475703,89
2021-09-24 15:45:36.475709,85
2021-09-24 15:45:36.475716,82
2021-09-24 15:45:36.475723,87
2021-09-24 15:45:36.475729,87
2021-09-24 15:45:36.475735,82
2021-09-24 15:45:36.475742,82
2021-09-24 15:45:36.475748,82
2021-09-24 15:45:36.475755,85
2021-09-24 15:45:36.475761,87
2021-09-24 15:45:36.475767,82
2021-09-24 15:45:36.475774,72
2021-09-24 15:45:36.475780,75
2021-09-24 15:45:36.475787,80
2021-09-24 15:45:36.743969,80
2021-09-24 15:45:36.743990,77
2021-09-24 15:45:36.743997,77
2021-09-24 15:45:36.744003,72
2021-09-24 15:45:36.744010,70
2021-09-24 15:45:36.744016,63
2021-09-24 15:45:36.744021,60
2021-09-24 15:45:36.744026,70
2021-09-24 15:45:36.744032,77
2021-09-24 15:45:36.744037,72
2021-09-24 15:45:36.744042,63
2021-09-24 15:45:36.744047,48
2021-09-24 15:45:36.744053,26
2021-09-24 15:45:36.744058,12
2021-09-24 15:45:36.744063,9
2021-09-24 15:45:36.744069,2
2021-09-24 15:45:36.744074,4
2021-09-24 15:45:36.744079,31
2021-09-24 15:45:36.744085,48
2021-09-24 15:45:36.744090,38
2021-09-24 15:45:36.744095,29
2021-09-24 15:45:36.744101,36
2021-09-24 15:45:36.744106,36
2021-09-24 15:45:36.744111,34
2021-09-24 15:45:36.744117,41
2021-09-24 15:45:36.744122,46
2021-09-24 15:45:36.744127,31
2021-09-24 15:45:36.744133,-7
2021-09-24 15:45:36.744139,-70
2021-09-24 15:45:36.744148,-189
2021-09-24 15:45:36.925421,-374
2021-09-24 15:45:36.925443,-417
2021-09-24 15:45:36.925451,-133
2021-09-24 15:45:36.925458,320
2021-09-24 15:45:36.925464,624
2021-09-24 15:45:36.925471,507
2021-09-24 15:45:36.925478,167
2021-09-24 15:45:36.925484,58
2021-09-24 15:45:36.925490,55
2021-09-24 15:45:36.925497,-60
2021-09-24 15:45:36.925504,-119
2021-09-24 15:45:36.925510,-80
2021-09-24 15:45:36.925517,-89
2021-09-24 15:45:36.925524,-121
2021-09-24 15:45:36.925531,-119
2021-09-24 15:45:36.925538,-123
2021-09-24 15:45:36.925545,-140
2021-09-24 15:45:36.925552,-143
2021-09-24 15:45:36.925559,-145
2021-09-24 15:45:36.925566,-160
2021-09-24 15:45:36.925572,-179
2021-09-24 15:45:36.925580,-199
2021-09-24 15:45:36.925587,-218
2021-09-24 15:45:36.925593,-230
2021-09-24 15:45:36.925600,-247
2021-09-24 15:45:36.925607,-276
2021-09-24 15:45:36.925614,-308
2021-09-24 15:45:36.925621,-344
2021-09-24 15:45:36.925627,-378
2021-09-24 15:45:36.925635,-403
2021-09-24 15:45:37.195366,-425
2021-09-24 15:45:37.195386,-437
2021-09-24 15:45:37.195394,-442
2021-09-24 15:45:37.195401,-434
2021-09-24 15:45:37.195407,-393
2021-09-24 15:45:37.195414,-315
2021-09-24 15:45:37.195420,-221
2021-09-24 15:45:37.195427,-114
2021-09-24 15:45:37.195433,-12
2021-09-24 15:45:37.195440,60
2021-09-24 15:45:37.195446,119
2021-09-24 15:45:37.195453,170
2021-09-24 15:45:37.195459,199
2021-09-24 15:45:37.195466,208
2021-09-24 15:45:37.195472,211
2021-09-24 15:45:37.195478,213
2021-09-24 15:45:37.195490,211
2021-09-24 15:45:37.195497,204
2021-09-24 15:45:37.195504,191
2021-09-24 15:45:37.195510,179
2021-09-24 15:45:37.195516,170
2021-09-24 15:45:37.195523,155
2021-09-24 15:45:37.195529,145
2021-09-24 15:45:37.195536,138
2021-09-24 15:45:37.195542,126
2021-09-24 15:45:37.195548,121
2021-09-24 15:45:37.195579,114
2021-09-24 15:45:37.195593,104
2021-09-24 15:45:37.195603,99
2021-09-24 15:45:37.195613,102
2021-09-24 15:45:37.420948,99
2021-09-24 15:45:37.420971,92
2021-09-24 15:45:37.420979,89
2021-09-24 15:45:37.420986,85
2021-09-24 15:45:37.420992,87
2021-09-24 15:45:37.420999,89
2021-09-24 15:45:37.421005,89
2021-09-24 15:45:37.421012,89
2021-09-24 15:45:37.421018,87
2021-09-24 15:45:37.421025,82
2021-09-24 15:45:37.421031,85
2021-09-24 15:45:37.421038,89
2021-09-24 15:45:37.421044,87
2021-09-24 15:45:37.421051,85
2021-09-24 15:45:37.421057,82
2021-09-24 15:45:37.421064,75
2021-09-24 15:45:37.421070,75
2021-09-24 15:45:37.421077,80
2021-09-24 15:45:37.421083,77
2021-09-24 15:45:37.421090,75
2021-09-24 15:45:37.421096,75
2021-09-24 15:45:37.421103,72
2021-09-24 15:45:37.421109,75
2021-09-24 15:45:37.421116,77
2021-09-24 15:45:37.421122,75
2021-09-24 15:45:37.421129,65
2021-09-24 15:45:37.421135,60
2021-09-24 15:45:37.421142,60
2021-09-24 15:45:37.421148,60
2021-09-24 15:45:37.421155,63
2021-09-24 15:45:37.645892,65
2021-09-24 15:45:37.645915,68
2021-09-24 15:45:37.645923,68
2021-09-24 15:45:37.645930,68
2021-09-24 15:45:37.645936,63
2021-09-24 15:45:37.645943,48
2021-09-24 15:45:37.645949,36
2021-09-24 15:45:37.645956,26
2021-09-24 15:45:37.645962,9
2021-09-24 15:45:37.645969,7
2021-09-24 15:45:37.645975,34
2021-09-24 15:45:37.645982,58
2021-09-24 15:45:37.645988,55
2021-09-24 15:45:37.645995,43
2021-09-24 15:45:37.646001,41
2021-09-24 15:45:37.646008,46
2021-09-24 15:45:37.646014,48
2021-09-24 15:45:37.646021,51
2021-09-24 15:45:37.646027,51
2021-09-24 15:45:37.646034,46
2021-09-24 15:45:37.646041,29
2021-09-24 15:45:37.646047,-12
2021-09-24 15:45:37.646054,-85
2021-09-24 15:45:37.646060,-240
2021-09-24 15:45:37.646067,-439
2021-09-24 15:45:37.646073,-408
2021-09-24 15:45:37.646080,-26
2021-09-24 15:45:37.646087,449
2021-09-24 15:45:37.646093,651
2021-09-24 15:45:37.646100,393
2021-09-24 15:45:37.870924,85
2021-09-24 15:45:37.870948,51
2021-09-24 15:45:37.870960,12
2021-09-24 15:45:37.870967,-102
2021-09-24 15:45:37.870974,-104
2021-09-24 15:45:37.870981,-77
2021-09-24 15:45:37.870987,-114
2021-09-24 15:45:37.870994,-140
2021-09-24 15:45:37.871000,-133
2021-09-24 15:45:37.871007,-140
2021-09-24 15:45:37.871013,-155
2021-09-24 15:45:37.871020,-157
2021-09-24 15:45:37.871026,-165
2021-09-24 15:45:37.871033,-184
2021-09-24 15:45:37.871040,-199
2021-09-24 15:45:37.871046,-211
2021-09-24 15:45:37.871053,-230
2021-09-24 15:45:37.871059,-252
2021-09-24 15:45:37.871066,-279
2021-09-24 15:45:37.871072,-308
2021-09-24 15:45:37.871079,-340
2021-09-24 15:45:37.871086,-374
2021-09-24 15:45:37.871092,-408
2021-09-24 15:45:37.871099,-432
2021-09-24 15:45:37.871105,-449
2021-09-24 15:45:37.871112,-468
2021-09-24 15:45:37.871118,-466
2021-09-24 15:45:37.871125,-434
2021-09-24 15:45:37.871132,-378
2021-09-24 15:45:37.871138,-296
2021-09-24 15:45:38.095967,-191
2021-09-24 15:45:38.095990,-75
2021-09-24 15:45:38.095998,24
2021-09-24 15:45:38.096004,97
2021-09-24 15:45:38.096011,155
2021-09-24 15:45:38.096017,191
2021-09-24 15:45:38.096024,204
2021-09-24 15:45:38.096030,208
2021-09-24 15:45:38.096037,213
2021-09-24 15:45:38.096044,213
2021-09-24 15:45:38.096050,211
2021-09-24 15:45:38.096057,204
2021-09-24 15:45:38.096063,191
2021-09-24 15:45:38.096070,179
2021-09-24 15:45:38.096076,172
2021-09-24 15:45:38.096083,165
2021-09-24 15:45:38.096089,157
2021-09-24 15:45:38.096096,150
2021-09-24 15:45:38.096102,138
2021-09-24 15:45:38.096108,133
2021-09-24 15:45:38.096115,126
2021-09-24 15:45:38.096122,114
2021-09-24 15:45:38.096128,109
2021-09-24 15:45:38.096135,109
2021-09-24 15:45:38.096141,102
2021-09-24 15:45:38.096148,94
2021-09-24 15:45:38.096154,97
2021-09-24 15:45:38.096161,94
2021-09-24 15:45:38.096168,94
2021-09-24 15:45:38.096174,99
2021-09-24 15:45:38.410351,94
2021-09-24 15:45:38.410374,80
2021-09-24 15:45:38.410382,77
2021-09-24 15:45:38.410388,80
2021-09-24 15:45:38.410395,77
2021-09-24 15:45:38.410401,72
2021-09-24 15:45:38.410407,68
2021-09-24 15:45:38.410414,72
2021-09-24 15:45:38.410420,75
2021-09-24 15:45:38.410427,72
2021-09-24 15:45:38.410433,70
2021-09-24 15:45:38.410439,65
2021-09-24 15:45:38.410446,60
2021-09-24 15:45:38.410452,65
2021-09-24 15:45:38.410458,68
2021-09-24 15:45:38.410465,60
2021-09-24 15:45:38.410471,60
2021-09-24 15:45:38.410478,60
2021-09-24 15:45:38.410484,58
2021-09-24 15:45:38.410490,60
2021-09-24 15:45:38.410497,60
2021-09-24 15:45:38.410503,60
2021-09-24 15:45:38.410510,60
2021-09-24 15:45:38.410516,63
2021-09-24 15:45:38.410522,60
2021-09-24 15:45:38.410529,65
2021-09-24 15:45:38.410535,72
2021-09-24 15:45:38.410541,72
2021-09-24 15:45:38.410554,63
2021-09-24 15:45:38.410561,51
2021-09-24 15:45:38.545912,36
2021-09-24 15:45:38.545935,26
2021-09-24 15:45:38.545943,21
2021-09-24 15:45:38.545950,14
2021-09-24 15:45:38.545957,21
2021-09-24 15:45:38.545964,41
2021-09-24 15:45:38.545970,48
2021-09-24 15:45:38.545977,38
2021-09-24 15:45:38.545983,41
2021-09-24 15:45:38.545990,46
2021-09-24 15:45:38.545996,41
2021-09-24 15:45:38.546003,31
2021-09-24 15:45:38.546009,36
2021-09-24 15:45:38.546016,41
2021-09-24 15:45:38.546023,29
2021-09-24 15:45:38.546029,-12
2021-09-24 15:45:38.546036,-80
2021-09-24 15:45:38.546042,-221
2021-09-24 15:45:38.546049,-429
2021-09-24 15:45:38.546056,-446
2021-09-24 15:45:38.546062,-106
2021-09-24 15:45:38.546069,393
2021-09-24 15:45:38.546075,665
2021-09-24 15:45:38.546082,446
2021-09-24 15:45:38.546089,116
2021-09-24 15:45:38.546095,68
2021-09-24 15:45:38.546102,41
2021-09-24 15:45:38.546108,-82
2021-09-24 15:45:38.546115,-102
2021-09-24 15:45:38.546122,-68
2021-09-24 15:45:38.859580,-92
2021-09-24 15:45:38.859603,-116
2021-09-24 15:45:38.859611,-114
2021-09-24 15:45:38.859618,-128
2021-09-24 15:45:38.859625,-148
2021-09-24 15:45:38.859631,-155
2021-09-24 15:45:38.859638,-174
2021-09-24 15:45:38.859644,-199
2021-09-24 15:45:38.859651,-211
2021-09-24 15:45:38.859657,-225
2021-09-24 15:45:38.859664,-250
2021-09-24 15:45:38.859670,-272
2021-09-24 15:45:38.859677,-289
2021-09-24 15:45:38.859683,-315
2021-09-24 15:45:38.859690,-352
2021-09-24 15:45:38.859696,-393
2021-09-24 15:45:38.859703,-427
2021-09-24 15:45:38.859709,-451
2021-09-24 15:45:38.859716,-473
2021-09-24 15:45:38.859722,-483
2021-09-24 15:45:38.859729,-478
2021-09-24 15:45:38.859735,-454
2021-09-24 15:45:38.859742,-405
2021-09-24 15:45:38.859749,-318
2021-09-24 15:45:38.859755,-206
2021-09-24 15:45:38.859762,-92
2021-09-24 15:45:38.859768,7
2021-09-24 15:45:38.859775,87
2021-09-24 15:45:38.859781,145
2021-09-24 15:45:38.859788,189
2021-09-24 15:45:39.085316,213
2021-09-24 15:45:39.085340,216
2021-09-24 15:45:39.085348,213
2021-09-24 15:45:39.085355,208
2021-09-24 15:45:39.085361,204
2021-09-24 15:45:39.085368,201
2021-09-24 15:45:39.085375,196
2021-09-24 15:45:39.085381,187
2021-09-24 15:45:39.085388,167
2021-09-24 15:45:39.085394,153
2021-09-24 15:45:39.085401,143
2021-09-24 15:45:39.085407,138
2021-09-24 15:45:39.085414,136
2021-09-24 15:45:39.085421,123
2021-09-24 15:45:39.085427,111
2021-09-24 15:45:39.085434,99
2021-09-24 15:45:39.085440,92
2021-09-24 15:45:39.085447,92
2021-09-24 15:45:39.085453,89
2021-09-24 15:45:39.085460,87
2021-09-24 15:45:39.085466,89
2021-09-24 15:45:39.085473,82
2021-09-24 15:45:39.085480,80
2021-09-24 15:45:39.085486,89
2021-09-24 15:45:39.085493,97
2021-09-24 15:45:39.085500,94
2021-09-24 15:45:39.085506,92
2021-09-24 15:45:39.085513,87
2021-09-24 15:45:39.085519,87
2021-09-24 15:45:39.085526,92
2021-09-24 15:45:39.265896,97
2021-09-24 15:45:39.265925,94
2021-09-24 15:45:39.265937,87
2021-09-24 15:45:39.265947,82
2021-09-24 15:45:39.265957,85
2021-09-24 15:45:39.265967,82
2021-09-24 15:45:39.265977,82
2021-09-24 15:45:39.265987,87
2021-09-24 15:45:39.265997,82
2021-09-24 15:45:39.266007,70
2021-09-24 15:45:39.266017,60
2021-09-24 15:45:39.266026,60
2021-09-24 15:45:39.266036,63
2021-09-24 15:45:39.266046,53
2021-09-24 15:45:39.266056,46
2021-09-24 15:45:39.266066,46
2021-09-24 15:45:39.266075,38
2021-09-24 15:45:39.266085,24
2021-09-24 15:45:39.266095,17
2021-09-24 15:45:39.266105,19
2021-09-24 15:45:39.266115,9
2021-09-24 15:45:39.266125,-2
2021-09-24 15:45:39.266135,12
2021-09-24 15:45:39.266145,41
2021-09-24 15:45:39.266154,51
2021-09-24 15:45:39.266164,43
2021-09-24 15:45:39.266174,36
2021-09-24 15:45:39.266184,34
2021-09-24 15:45:39.266194,41
2021-09-24 15:45:39.266204,46
2021-09-24 15:45:39.625341,51
2021-09-24 15:45:39.625365,48
2021-09-24 15:45:39.625374,24
2021-09-24 15:45:39.625381,-26
2021-09-24 15:45:39.625388,-102
2021-09-24 15:45:39.625395,-247
2021-09-24 15:45:39.625402,-420
2021-09-24 15:45:39.625408,-378
2021-09-24 15:45:39.625415,-14
2021-09-24 15:45:39.625422,478
2021-09-24 15:45:39.625429,663
2021-09-24 15:45:39.625435,357
2021-09-24 15:45:39.625442,70
2021-09-24 15:45:39.625449,60
2021-09-24 15:45:39.625456,7
2021-09-24 15:45:39.625463,-109
2021-09-24 15:45:39.625469,-114
2021-09-24 15:45:39.625476,-94
2021-09-24 15:45:39.625483,-119
2021-09-24 15:45:39.625490,-128
2021-09-24 15:45:39.625497,-131
2021-09-24 15:45:39.625504,-145
2021-09-24 15:45:39.625510,-153
2021-09-24 15:45:39.625517,-153
2021-09-24 15:45:39.625524,-165
2021-09-24 15:45:39.625531,-179
2021-09-24 15:45:39.625538,-191
2021-09-24 15:45:39.625545,-206
2021-09-24 15:45:39.625551,-223
2021-09-24 15:45:39.625558,-238
2021-09-24 15:45:39.715750,-262
2021-09-24 15:45:39.715774,-301
2021-09-24 15:45:39.715782,-340
2021-09-24 15:45:39.715789,-371
2021-09-24 15:45:39.715796,-400
2021-09-24 15:45:39.715802,-429
2021-09-24 15:45:39.715809,-449
2021-09-24 15:45:39.715815,-451
2021-09-24 15:45:39.715822,-449
2021-09-24 15:45:39.715828,-420
2021-09-24 15:45:39.715835,-349
2021-09-24 15:45:39.715842,-252
2021-09-24 15:45:39.715848,-138
2021-09-24 15:45:39.715855,-29
2021-09-24 15:45:39.715862,53
2021-09-24 15:45:39.715868,123
2021-09-24 15:45:39.715875,182
2021-09-24 15:45:39.715881,213
2021-09-24 15:45:39.715888,223
2021-09-24 15:45:39.715894,225
2021-09-24 15:45:39.715901,223
2021-09-24 15:45:39.715907,218
2021-09-24 15:45:39.715914,213
2021-09-24 15:45:39.715920,206
2021-09-24 15:45:39.715927,187
2021-09-24 15:45:39.715933,170
2021-09-24 15:45:39.715940,165
2021-09-24 15:45:39.715946,157
2021-09-24 15:45:39.715953,143
2021-09-24 15:45:39.715959,131
2021-09-24 15:45:39.941010,119
2021-09-24 15:45:39.941041,111
2021-09-24 15:45:39.941053,106
2021-09-24 15:45:39.941074,102
2021-09-24 15:45:39.941085,97
2021-09-24 15:45:39.941095,94
2021-09-24 15:45:39.941104,85
2021-09-24 15:45:39.941165,77
2021-09-24 15:45:39.941189,80
2021-09-24 15:45:39.941205,82
2021-09-24 15:45:39.941219,82
2021-09-24 15:45:39.941235,85
2021-09-24 15:45:39.941251,82
2021-09-24 15:45:39.941316,80
2021-09-24 15:45:39.941328,82
2021-09-24 15:45:39.941361,77
2021-09-24 15:45:39.941377,70
2021-09-24 15:45:39.941387,70
2021-09-24 15:45:39.941398,75
2021-09-24 15:45:39.941408,75
2021-09-24 15:45:39.941418,70
2021-09-24 15:45:39.941428,68
2021-09-24 15:45:39.941438,75
2021-09-24 15:45:39.941448,75
2021-09-24 15:45:39.941458,70
2021-09-24 15:45:39.941468,68
2021-09-24 15:45:39.941478,72
2021-09-24 15:45:39.941488,72
2021-09-24 15:45:39.941498,70
2021-09-24 15:45:39.941515,70
2021-09-24 15:45:40.165646,72
2021-09-24 15:45:40.165669,82
2021-09-24 15:45:40.165677,82
2021-09-24 15:45:40.165683,68
2021-09-24 15:45:40.165690,58
2021-09-24 15:45:40.165696,51
2021-09-24 15:45:40.165703,29
2021-09-24 15:45:40.165709,14
2021-09-24 15:45:40.165716,19
2021-09-24 15:45:40.165722,34
2021-09-24 15:45:40.165729,53
2021-09-24 15:45:40.165736,53
2021-09-24 15:45:40.165742,46
2021-09-24 15:45:40.165749,53
2021-09-24 15:45:40.165755,55
2021-09-24 15:45:40.165762,46
2021-09-24 15:45:40.165768,46
2021-09-24 15:45:40.165775,53
2021-09-24 15:45:40.165782,43
2021-09-24 15:45:40.165788,7
2021-09-24 15:45:40.165795,-46
2021-09-24 15:45:40.165802,-138
2021-09-24 15:45:40.165808,-313
2021-09-24 15:45:40.165824,-434
2021-09-24 15:45:40.165831,-257
2021-09-24 15:45:40.165838,191
2021-09-24 15:45:40.165844,602
2021-09-24 15:45:40.165851,592
2021-09-24 15:45:40.165858,228
2021-09-24 15:45:40.165864,51
2021-09-24 15:45:40.390995,75
2021-09-24 15:45:40.391018,-21
2021-09-24 15:45:40.391026,-111
2021-09-24 15:45:40.391033,-85
2021-09-24 15:45:40.391039,-87
2021-09-24 15:45:40.391046,-126
2021-09-24 15:45:40.391052,-126
2021-09-24 15:45:40.391059,-119
2021-09-24 15:45:40.391065,-136
2021-09-24 15:45:40.391072,-145
2021-09-24 15:45:40.391079,-150
2021-09-24 15:45:40.391085,-172
2021-09-24 15:45:40.391092,-189
2021-09-24 15:45:40.391098,-191
2021-09-24 15:45:40.391104,-204
2021-09-24 15:45:40.391111,-225
2021-09-24 15:45:40.391117,-245
2021-09-24 15:45:40.391124,-269
2021-09-24 15:45:40.391130,-303
2021-09-24 15:45:40.391137,-340
2021-09-24 15:45:40.391143,-376
2021-09-24 15:45:40.391150,-410
2021-09-24 15:45:40.391156,-434
2021-09-24 15:45:40.391163,-442
2021-09-24 15:45:40.391169,-437
2021-09-24 15:45:40.391176,-417
2021-09-24 15:45:40.391182,-378
2021-09-24 15:45:40.391204,-313
2021-09-24 15:45:40.391290,-211
2021-09-24 15:45:40.391308,-94
2021-09-24 15:45:40.660332,7
2021-09-24 15:45:40.660355,89
2021-09-24 15:45:40.660363,153
2021-09-24 15:45:40.660370,194
2021-09-24 15:45:40.660376,213
2021-09-24 15:45:40.660383,221
2021-09-24 15:45:40.660389,230
2021-09-24 15:45:40.660428,235
2021-09-24 15:45:40.660434,228
2021-09-24 15:45:40.660441,218
2021-09-24 15:45:40.660447,206
2021-09-24 15:45:40.660453,194
2021-09-24 15:45:40.660460,191
2021-09-24 15:45:40.660466,189
2021-09-24 15:45:40.660473,177
2021-09-24 15:45:40.660479,157
2021-09-24 15:45:40.660486,140
2021-09-24 15:45:40.660492,131
2021-09-24 15:45:40.660498,119
2021-09-24 15:45:40.660505,111
2021-09-24 15:45:40.660511,109
2021-09-24 15:45:40.660518,102
2021-09-24 15:45:40.660524,89
2021-09-24 15:45:40.660531,87
2021-09-24 15:45:40.660537,92
2021-09-24 15:45:40.660543,89
2021-09-24 15:45:40.660550,85
2021-09-24 15:45:40.660556,85
2021-09-24 15:45:40.660563,87
2021-09-24 15:45:40.660569,82
2021-09-24 15:45:40.928852,70
2021-09-24 15:45:40.928869,70
2021-09-24 15:45:40.928875,75
2021-09-24 15:45:40.928881,72
2021-09-24 15:45:40.928886,68
2021-09-24 15:45:40.928892,70
2021-09-24 15:45:40.928897,72
2021-09-24 15:45:40.928903,70
2021-09-24 15:45:40.928908,68
2021-09-24 15:45:40.928914,63
2021-09-24 15:45:40.928919,55
2021-09-24 15:45:40.928924,58
2021-09-24 15:45:40.928930,63
2021-09-24 15:45:40.928935,63
2021-09-24 15:45:40.928941,60
2021-09-24 15:45:40.928946,51
2021-09-24 15:45:40.928952,48
2021-09-24 15:45:40.928957,53
2021-09-24 15:45:40.928963,60
2021-09-24 15:45:40.928968,63
2021-09-24 15:45:40.928973,68
2021-09-24 15:45:40.928979,70
2021-09-24 15:45:40.928998,65
2021-09-24 15:45:40.929003,53
2021-09-24 15:45:40.929008,31
2021-09-24 15:45:40.929014,19
2021-09-24 15:45:40.929019,17
2021-09-24 15:45:40.929024,4
2021-09-24 15:45:40.929029,9
2021-09-24 15:45:40.929034,38
2021-09-24 15:45:41.111007,55
2021-09-24 15:45:41.111031,51
2021-09-24 15:45:41.111039,48
2021-09-24 15:45:41.111046,51
2021-09-24 15:45:41.111052,55
2021-09-24 15:45:41.111059,55
2021-09-24 15:45:41.111066,48
2021-09-24 15:45:41.111072,51
2021-09-24 15:45:41.111079,43
2021-09-24 15:45:41.111085,-2
2021-09-24 15:45:41.111092,-77
2021-09-24 15:45:41.111099,-189
2021-09-24 15:45:41.111105,-376
2021-09-24 15:45:41.111112,-427
2021-09-24 15:45:41.111119,-143
2021-09-24 15:45:41.111125,320
2021-09-24 15:45:41.111132,641
2021-09-24 15:45:41.111138,524
2021-09-24 15:45:41.111145,170
2021-09-24 15:45:41.111152,55
2021-09-24 15:45:41.111158,58
2021-09-24 15:45:41.111165,-58
2021-09-24 15:45:41.111171,-109
2021-09-24 15:45:41.111178,-70
2021-09-24 15:45:41.111184,-82
2021-09-24 15:45:41.111191,-116
2021-09-24 15:45:41.111197,-116
2021-09-24 15:45:41.111204,-126
2021-09-24 15:45:41.111210,-136
2021-09-24 15:45:41.111217,-133
2021-09-24 15:45:41.424967,-143
2021-09-24 15:45:41.424988,-162
2021-09-24 15:45:41.424996,-177
2021-09-24 15:45:41.425003,-187
2021-09-24 15:45:41.425010,-206
2021-09-24 15:45:41.425016,-238
2021-09-24 15:45:41.425023,-259
2021-09-24 15:45:41.425029,-286
2021-09-24 15:45:41.425036,-327
2021-09-24 15:45:41.425042,-364
2021-09-24 15:45:41.425049,-388
2021-09-24 15:45:41.425055,-412
2021-09-24 15:45:41.425062,-439
2021-09-24 15:45:41.425068,-456
2021-09-24 15:45:41.425075,-463
2021-09-24 15:45:41.425081,-444
2021-09-24 15:45:41.425088,-393
2021-09-24 15:45:41.425094,-308
2021-09-24 15:45:41.425100,-199
2021-09-24 15:45:41.425107,-87
2021-09-24 15:45:41.425113,9
2021-09-24 15:45:41.425120,92
2021-09-24 15:45:41.425126,153
2021-09-24 15:45:41.425133,194
2021-09-24 15:45:41.425139,218
2021-09-24 15:45:41.425146,228
2021-09-24 15:45:41.425152,228
2021-09-24 15:45:41.425159,225
2021-09-24 15:45:41.425167,218
2021-09-24 15:45:41.425177,213
2021-09-24 15:45:41.560938,206
2021-09-24 15:45:41.560961,196
2021-09-24 15:45:41.560969,187
2021-09-24 15:45:41.560976,177
2021-09-24 15:45:41.560983,167
2021-09-24 15:45:41.560989,162
2021-09-24 15:45:41.560996,153
2021-09-24 15:45:41.561002,138
2021-09-24 15:45:41.561009,126
2021-09-24 15:45:41.561016,119
2021-09-24 15:45:41.561022,109
2021-09-24 15:45:41.561029,102
2021-09-24 15:45:41.561035,92
2021-09-24 15:45:41.561042,80
2021-09-24 15:45:41.561048,75
2021-09-24 15:45:41.561055,75
2021-09-24 15:45:41.561061,75
2021-09-24 15:45:41.561068,72
2021-09-24 15:45:41.561074,75
2021-09-24 15:45:41.561081,75
2021-09-24 15:45:41.561087,75
2021-09-24 15:45:41.561094,75
2021-09-24 15:45:41.561100,80
2021-09-24 15:45:41.561107,80
2021-09-24 15:45:41.561113,75
2021-09-24 15:45:41.561120,75
2021-09-24 15:45:41.561126,72
2021-09-24 15:45:41.561133,70
2021-09-24 15:45:41.561140,75
2021-09-24 15:45:41.561146,75
2021-09-24 15:45:41.786102,68
2021-09-24 15:45:41.786131,60
2021-09-24 15:45:41.786143,65
2021-09-24 15:45:41.786153,65
2021-09-24 15:45:41.786163,63
2021-09-24 15:45:41.786173,65
2021-09-24 15:45:41.786183,60
2021-09-24 15:45:41.786193,51
2021-09-24 15:45:41.786203,51
2021-09-24 15:45:41.786213,53
2021-09-24 15:45:41.786222,53
2021-09-24 15:45:41.786232,48
2021-09-24 15:45:41.786242,31
2021-09-24 15:45:41.786252,12
2021-09-24 15:45:41.786262,-2
2021-09-24 15:45:41.786272,-2
2021-09-24 15:45:41.786282,0
2021-09-24 15:45:41.786292,-4
2021-09-24 15:45:41.786302,0
2021-09-24 15:45:41.786312,21
2021-09-24 15:45:41.786322,38
2021-09-24 15:45:41.786332,38
2021-09-24 15:45:41.786342,41
2021-09-24 15:45:41.786352,46
2021-09-24 15:45:41.786361,43
2021-09-24 15:45:41.786371,38
2021-09-24 15:45:41.786381,46
2021-09-24 15:45:41.786391,46
2021-09-24 15:45:41.786401,41
2021-09-24 15:45:41.786411,24
2021-09-24 15:45:42.010551,-24
2021-09-24 15:45:42.010572,-119
2021-09-24 15:45:42.010580,-296
2021-09-24 15:45:42.010586,-473
2021-09-24 15:45:42.010592,-352
2021-09-24 15:45:42.010598,77
2021-09-24 15:45:42.010604,527
2021-09-24 15:45:42.010609,646
2021-09-24 15:45:42.010615,332
2021-09-24 15:45:42.010621,68
2021-09-24 15:45:42.010627,60
2021-09-24 15:45:42.010633,-9
2021-09-24 15:45:42.010639,-119
2021-09-24 15:45:42.010645,-104
2021-09-24 15:45:42.010651,-82
2021-09-24 15:45:42.010657,-119
2021-09-24 15:45:42.010663,-131
2021-09-24 15:45:42.010669,-126
2021-09-24 15:45:42.010675,-140
2021-09-24 15:45:42.010680,-150
2021-09-24 15:45:42.010686,-150
2021-09-24 15:45:42.010692,-160
2021-09-24 15:45:42.010698,-172
2021-09-24 15:45:42.010704,-187
2021-09-24 15:45:42.010710,-204
2021-09-24 15:45:42.010716,-218
2021-09-24 15:45:42.010722,-240
2021-09-24 15:45:42.010728,-262
2021-09-24 15:45:42.010734,-296
2021-09-24 15:45:42.010740,-332
2021-09-24 15:45:42.235306,-364
2021-09-24 15:45:42.235329,-393
2021-09-24 15:45:42.235340,-422
2021-09-24 15:45:42.235349,-444
2021-09-24 15:45:42.235358,-456
2021-09-24 15:45:42.235367,-459
2021-09-24 15:45:42.235376,-427
2021-09-24 15:45:42.235385,-357
2021-09-24 15:45:42.235394,-262
2021-09-24 15:45:42.235403,-153
2021-09-24 15:45:42.235413,-41
2021-09-24 15:45:42.235422,51
2021-09-24 15:45:42.235431,121
2021-09-24 15:45:42.235440,182
2021-09-24 15:45:42.235449,216
2021-09-24 15:45:42.235458,225
2021-09-24 15:45:42.235467,223
2021-09-24 15:45:42.235487,218
2021-09-24 15:45:42.235496,211
2021-09-24 15:45:42.235505,208
2021-09-24 15:45:42.235515,208
2021-09-24 15:45:42.235524,196
2021-09-24 15:45:42.235533,184
2021-09-24 15:45:42.235542,177
2021-09-24 15:45:42.235551,170
2021-09-24 15:45:42.235560,162
2021-09-24 15:45:42.235570,155
2021-09-24 15:45:42.235579,143
2021-09-24 15:45:42.235588,133
2021-09-24 15:45:42.235597,128
2021-09-24 15:45:42.461011,119
2021-09-24 15:45:42.461034,116
2021-09-24 15:45:42.461042,116
2021-09-24 15:45:42.461049,102
2021-09-24 15:45:42.461056,87
2021-09-24 15:45:42.461062,80
2021-09-24 15:45:42.461069,70
2021-09-24 15:45:42.461076,63
2021-09-24 15:45:42.461082,70
2021-09-24 15:45:42.461089,70
2021-09-24 15:45:42.461095,53
2021-09-24 15:45:42.461102,48
2021-09-24 15:45:42.461108,55
2021-09-24 15:45:42.461115,55
2021-09-24 15:45:42.461122,53
2021-09-24 15:45:42.461128,53
2021-09-24 15:45:42.461135,51
2021-09-24 15:45:42.461141,48
2021-09-24 15:45:42.461148,51
2021-09-24 15:45:42.461154,55
2021-09-24 15:45:42.461161,55
2021-09-24 15:45:42.461167,51
2021-09-24 15:45:42.461174,53
2021-09-24 15:45:42.461181,55
2021-09-24 15:45:42.461187,55
2021-09-24 15:45:42.461194,58
2021-09-24 15:45:42.461231,58
2021-09-24 15:45:42.461237,53
2021-09-24 15:45:42.461244,51
2021-09-24 15:45:42.461250,51
2021-09-24 15:45:42.685866,55
2021-09-24 15:45:42.685889,60
2021-09-24 15:45:42.685896,60
2021-09-24 15:45:42.685903,55
2021-09-24 15:45:42.685909,53
2021-09-24 15:45:42.685916,48
2021-09-24 15:45:42.685922,36
2021-09-24 15:45:42.685929,19
2021-09-24 15:45:42.685935,14
2021-09-24 15:45:42.685942,4
2021-09-24 15:45:42.685949,-9
2021-09-24 15:45:42.685955,0
2021-09-24 15:45:42.685962,26
2021-09-24 15:45:42.685968,41
2021-09-24 15:45:42.685975,46
2021-09-24 15:45:42.685981,41
2021-09-24 15:45:42.685988,38
2021-09-24 15:45:42.685994,41
2021-09-24 15:45:42.686001,51
2021-09-24 15:45:42.686007,53
2021-09-24 15:45:42.686014,48
2021-09-24 15:45:42.686020,41
2021-09-24 15:45:42.686027,12
2021-09-24 15:45:42.686033,-41
2021-09-24 15:45:42.686039,-133
2021-09-24 15:45:42.686046,-310
2021-09-24 15:45:42.686053,-468
2021-09-24 15:45:42.686059,-327
2021-09-24 15:45:42.686065,119
2021-09-24 15:45:42.686072,573
2021-09-24 15:45:42.999463,648
2021-09-24 15:45:42.999486,301
2021-09-24 15:45:42.999494,65
2021-09-24 15:45:42.999501,63
2021-09-24 15:45:42.999507,-19
2021-09-24 15:45:42.999514,-109
2021-09-24 15:45:42.999521,-87
2021-09-24 15:45:42.999527,-82
2021-09-24 15:45:42.999534,-116
2021-09-24 15:45:42.999540,-128
2021-09-24 15:45:42.999547,-133
2021-09-24 15:45:42.999554,-155
2021-09-24 15:45:42.999560,-157
2021-09-24 15:45:42.999567,-155
2021-09-24 15:45:42.999573,-170
2021-09-24 15:45:42.999580,-187
2021-09-24 15:45:42.999586,-199
2021-09-24 15:45:42.999593,-211
2021-09-24 15:45:42.999599,-223
2021-09-24 15:45:42.999606,-242
2021-09-24 15:45:42.999613,-272
2021-09-24 15:45:42.999619,-308
2021-09-24 15:45:42.999626,-337
2021-09-24 15:45:42.999632,-364
2021-09-24 15:45:42.999639,-395
2021-09-24 15:45:42.999645,-422
2021-09-24 15:45:42.999652,-439
2021-09-24 15:45:42.999658,-446
2021-09-24 15:45:42.999665,-434
2021-09-24 15:45:42.999671,-400
2021-09-24 15:45:43.181976,-335
2021-09-24 15:45:43.182030,-235
2021-09-24 15:45:43.182055,-131
2021-09-24 15:45:43.182075,-29
2021-09-24 15:45:43.182091,68
2021-09-24 15:45:43.182102,140
2021-09-24 15:45:43.182111,187
2021-09-24 15:45:43.182121,218
2021-09-24 15:45:43.182131,233
2021-09-24 15:45:43.182142,230
2021-09-24 15:45:43.182152,235
2021-09-24 15:45:43.182162,233
2021-09-24 15:45:43.182172,225
2021-09-24 15:45:43.182181,211
2021-09-24 15:45:43.182191,191
2021-09-24 15:45:43.182202,179
2021-09-24 15:45:43.182212,179
2021-09-24 15:45:43.182230,172
2021-09-24 15:45:43.182241,157
2021-09-24 15:45:43.182251,148
2021-09-24 15:45:43.182261,136
2021-09-24 15:45:43.182271,121
2021-09-24 15:45:43.182281,114
2021-09-24 15:45:43.182291,106
2021-09-24 15:45:43.182300,97
2021-09-24 15:45:43.182310,94
2021-09-24 15:45:43.182319,92
2021-09-24 15:45:43.182329,80
2021-09-24 15:45:43.182338,70
2021-09-24 15:45:43.182347,70
2021-09-24 15:45:43.405463,77
2021-09-24 15:45:43.405483,75
2021-09-24 15:45:43.405491,68
2021-09-24 15:45:43.405497,70
2021-09-24 15:45:43.405504,75
2021-09-24 15:45:43.405510,77
2021-09-24 15:45:43.405517,80
2021-09-24 15:45:43.405523,72
2021-09-24 15:45:43.405530,63
2021-09-24 15:45:43.405536,63
2021-09-24 15:45:43.405543,68
2021-09-24 15:45:43.405549,70
2021-09-24 15:45:43.405556,65
2021-09-24 15:45:43.405562,58
2021-09-24 15:45:43.405568,48
2021-09-24 15:45:43.405575,43
2021-09-24 15:45:43.405581,46
2021-09-24 15:45:43.405588,53
2021-09-24 15:45:43.405594,53
2021-09-24 15:45:43.405601,51
2021-09-24 15:45:43.405608,48
2021-09-24 15:45:43.405614,48
2021-09-24 15:45:43.405621,46
2021-09-24 15:45:43.405627,48
2021-09-24 15:45:43.405633,51
2021-09-24 15:45:43.405640,51
2021-09-24 15:45:43.405646,51
2021-09-24 15:45:43.405653,58
2021-09-24 15:45:43.405659,55
2021-09-24 15:45:43.405666,41
2021-09-24 15:45:43.630862,21
2021-09-24 15:45:43.630890,14
2021-09-24 15:45:43.630902,14
2021-09-24 15:45:43.630912,14
2021-09-24 15:45:43.630923,17
2021-09-24 15:45:43.630933,34
2021-09-24 15:45:43.630943,43
2021-09-24 15:45:43.630953,46
2021-09-24 15:45:43.630964,48
2021-09-24 15:45:43.630974,43
2021-09-24 15:45:43.630986,43
2021-09-24 15:45:43.630998,53
2021-09-24 15:45:43.631010,51
2021-09-24 15:45:43.631022,41
2021-09-24 15:45:43.631034,41
2021-09-24 15:45:43.631046,29
2021-09-24 15:45:43.631057,-21
2021-09-24 15:45:43.631068,-102
2021-09-24 15:45:43.631078,-262
2021-09-24 15:45:43.631089,-459
2021-09-24 15:45:43.631101,-410
2021-09-24 15:45:43.631113,-4
2021-09-24 15:45:43.631125,500
2021-09-24 15:45:43.631135,689
2021-09-24 15:45:43.631147,393
2021-09-24 15:45:43.631159,89
2021-09-24 15:45:43.631170,70
2021-09-24 15:45:43.631182,19
2021-09-24 15:45:43.631194,-92
2021-09-24 15:45:43.631206,-92
2021-09-24 15:45:43.900270,-72
2021-09-24 15:45:43.900308,-104
2021-09-24 15:45:43.900328,-119
2021-09-24 15:45:43.900346,-116
2021-09-24 15:45:43.900364,-140
2021-09-24 15:45:43.900383,-165
2021-09-24 15:45:43.900401,-170
2021-09-24 15:45:43.900419,-177
2021-09-24 15:45:43.900437,-189
2021-09-24 15:45:43.900455,-199
2021-09-24 15:45:43.900474,-211
2021-09-24 15:45:43.900492,-230
2021-09-24 15:45:43.900510,-257
2021-09-24 15:45:43.900528,-279
2021-09-24 15:45:43.900546,-303
2021-09-24 15:45:43.900564,-335
2021-09-24 15:45:43.900582,-374
2021-09-24 15:45:43.900600,-403
2021-09-24 15:45:43.900617,-429
2021-09-24 15:45:43.900636,-454
2021-09-24 15:45:43.900654,-459
2021-09-24 15:45:43.900672,-449
2021-09-24 15:45:43.900697,-429
2021-09-24 15:45:43.900725,-378
2021-09-24 15:45:43.900737,-291
2021-09-24 15:45:43.900748,-179
2021-09-24 15:45:43.900760,-70
2021-09-24 15:45:43.900772,24
2021-09-24 15:45:43.900784,104
2021-09-24 15:45:43.900796,160
2021-09-24 15:45:44.080506,196
2021-09-24 15:45:44.080528,223
2021-09-24 15:45:44.080536,233
2021-09-24 15:45:44.080543,233
2021-09-24 15:45:44.080550,233
2021-09-24 15:45:44.080556,228
2021-09-24 15:45:44.080563,218
2021-09-24 15:45:44.080569,206
2021-09-24 15:45:44.080576,194
2021-09-24 15:45:44.080582,182
2021-09-24 15:45:44.080589,167
2021-09-24 15:45:44.080595,145
2021-09-24 15:45:44.080602,128
2021-09-24 15:45:44.080608,121
2021-09-24 15:45:44.080615,116
2021-09-24 15:45:44.080621,111
2021-09-24 15:45:44.080628,104
2021-09-24 15:45:44.080634,97
2021-09-24 15:45:44.080641,94
2021-09-24 15:45:44.080647,92
2021-09-24 15:45:44.080654,85
2021-09-24 15:45:44.080660,75
2021-09-24 15:45:44.080667,72
2021-09-24 15:45:44.080673,77
2021-09-24 15:45:44.080680,82
2021-09-24 15:45:44.080686,85
2021-09-24 15:45:44.080693,87
2021-09-24 15:45:44.080699,85
2021-09-24 15:45:44.080706,82
2021-09-24 15:45:44.080713,87
2021-09-24 15:45:44.305313,85
2021-09-24 15:45:44.305330,82
2021-09-24 15:45:44.305337,82
2021-09-24 15:45:44.305342,80
2021-09-24 15:45:44.305348,75
2021-09-24 15:45:44.305353,65
2021-09-24 15:45:44.305359,68
2021-09-24 15:45:44.305364,75
2021-09-24 15:45:44.305369,72
2021-09-24 15:45:44.305375,58
2021-09-24 15:45:44.305380,46
2021-09-24 15:45:44.305386,41
2021-09-24 15:45:44.305391,46
2021-09-24 15:45:44.305397,41
2021-09-24 15:45:44.305402,41
2021-09-24 15:45:44.305407,43
2021-09-24 15:45:44.305413,38
2021-09-24 15:45:44.305418,38
2021-09-24 15:45:44.305424,48
2021-09-24 15:45:44.305429,53
2021-09-24 15:45:44.305434,53
2021-09-24 15:45:44.305440,46
2021-09-24 15:45:44.305445,26
2021-09-24 15:45:44.305451,4
2021-09-24 15:45:44.305456,7
2021-09-24 15:45:44.305461,7
2021-09-24 15:45:44.305467,2
2021-09-24 15:45:44.305472,14
2021-09-24 15:45:44.305478,34
2021-09-24 15:45:44.305483,46
2021-09-24 15:45:44.530686,46
2021-09-24 15:45:44.530708,43
2021-09-24 15:45:44.530716,48
2021-09-24 15:45:44.530723,46
2021-09-24 15:45:44.530729,31
2021-09-24 15:45:44.530736,34
2021-09-24 15:45:44.530742,41
2021-09-24 15:45:44.530749,34
2021-09-24 15:45:44.530756,-4
2021-09-24 15:45:44.530762,-70
2021-09-24 15:45:44.530769,-191
2021-09-24 15:45:44.530775,-386
2021-09-24 15:45:44.530782,-454
2021-09-24 15:45:44.530789,-187
2021-09-24 15:45:44.530804,308
2021-09-24 15:45:44.530811,643
2021-09-24 15:45:44.530817,480
2021-09-24 15:45:44.530824,131
2021-09-24 15:45:44.530831,63
2021-09-24 15:45:44.530838,63
2021-09-24 15:45:44.530844,-55
2021-09-24 15:45:44.530851,-104
2021-09-24 15:45:44.530858,-75
2021-09-24 15:45:44.530864,-87
2021-09-24 15:45:44.530871,-116
2021-09-24 15:45:44.530878,-119
2021-09-24 15:45:44.530884,-123
2021-09-24 15:45:44.530891,-143
2021-09-24 15:45:44.530897,-153
2021-09-24 15:45:44.530904,-155
2021-09-24 15:45:44.801390,-162
2021-09-24 15:45:44.801430,-174
2021-09-24 15:45:44.801439,-199
2021-09-24 15:45:44.801446,-223
2021-09-24 15:45:44.801453,-245
2021-09-24 15:45:44.801459,-262
2021-09-24 15:45:44.801466,-286
2021-09-24 15:45:44.801472,-315
2021-09-24 15:45:44.801479,-344
2021-09-24 15:45:44.801485,-381
2021-09-24 15:45:44.801492,-412
2021-09-24 15:45:44.801499,-432
2021-09-24 15:45:44.801505,-446
2021-09-24 15:45:44.801512,-444
2021-09-24 15:45:44.801518,-420
2021-09-24 15:45:44.801524,-383
2021-09-24 15:45:44.801530,-318
2021-09-24 15:45:44.801537,-213
2021-09-24 15:45:44.801544,-102
2021-09-24 15:45:44.801551,0
2021-09-24 15:45:44.801557,80
2021-09-24 15:45:44.801564,133
2021-09-24 15:45:44.801570,174
2021-09-24 15:45:44.801576,208
2021-09-24 15:45:44.801582,223
2021-09-24 15:45:44.801589,228
2021-09-24 15:45:44.801595,221
2021-09-24 15:45:44.801608,208
2021-09-24 15:45:44.801619,196
2021-09-24 15:45:44.801626,184
2021-09-24 15:45:45.070004,177
2021-09-24 15:45:45.070027,167
2021-09-24 15:45:45.070035,155
2021-09-24 15:45:45.070041,136
2021-09-24 15:45:45.070048,128
2021-09-24 15:45:45.070054,128
2021-09-24 15:45:45.070061,121
2021-09-24 15:45:45.070067,111
2021-09-24 15:45:45.070074,99
2021-09-24 15:45:45.070080,89
2021-09-24 15:45:45.070087,85
2021-09-24 15:45:45.070093,87
2021-09-24 15:45:45.070100,89
2021-09-24 15:45:45.070106,85
2021-09-24 15:45:45.070112,77
2021-09-24 15:45:45.070119,77
2021-09-24 15:45:45.070125,85
2021-09-24 15:45:45.070132,85
2021-09-24 15:45:45.070138,85
2021-09-24 15:45:45.070144,89
2021-09-24 15:45:45.070151,87
2021-09-24 15:45:45.070157,85
2021-09-24 15:45:45.070164,89
2021-09-24 15:45:45.070170,92
2021-09-24 15:45:45.070176,87
2021-09-24 15:45:45.070183,87
2021-09-24 15:45:45.070189,85
2021-09-24 15:45:45.070196,77
2021-09-24 15:45:45.070202,77
2021-09-24 15:45:45.070209,72
2021-09-24 15:45:45.251040,68
2021-09-24 15:45:45.251063,72
2021-09-24 15:45:45.251071,70
2021-09-24 15:45:45.251078,63
2021-09-24 15:45:45.251085,63
2021-09-24 15:45:45.251091,70
2021-09-24 15:45:45.251098,75
2021-09-24 15:45:45.251104,72
2021-09-24 15:45:45.251111,63
2021-09-24 15:45:45.251117,46
2021-09-24 15:45:45.251124,34
2021-09-24 15:45:45.251130,34
2021-09-24 15:45:45.251137,31
2021-09-24 15:45:45.251144,17
2021-09-24 15:45:45.251150,12
2021-09-24 15:45:45.251157,31
2021-09-24 15:45:45.251163,55
2021-09-24 15:45:45.251170,58
2021-09-24 15:45:45.251176,51
2021-09-24 15:45:45.251183,51
2021-09-24 15:45:45.251189,41
2021-09-24 15:45:45.251196,31
2021-09-24 15:45:45.251202,36
2021-09-24 15:45:45.251209,43
2021-09-24 15:45:45.251215,31
2021-09-24 15:45:45.251222,-2
2021-09-24 15:45:45.251229,-53
2021-09-24 15:45:45.251235,-143
2021-09-24 15:45:45.251242,-320
2021-09-24 15:45:45.251248,-422
2021-09-24 15:45:45.519922,-221
2021-09-24 15:45:45.519944,225
2021-09-24 15:45:45.519952,612
2021-09-24 15:45:45.519959,558
2021-09-24 15:45:45.519966,199
2021-09-24 15:45:45.519972,55
2021-09-24 15:45:45.519979,70
2021-09-24 15:45:45.519985,-41
2021-09-24 15:45:45.519992,-119
2021-09-24 15:45:45.519998,-85
2021-09-24 15:45:45.520005,-87
2021-09-24 15:45:45.520011,-119
2021-09-24 15:45:45.520018,-123
2021-09-24 15:45:45.520024,-128
2021-09-24 15:45:45.520031,-143
2021-09-24 15:45:45.520037,-148
2021-09-24 15:45:45.520044,-155
2021-09-24 15:45:45.520051,-165
2021-09-24 15:45:45.520057,-177
2021-09-24 15:45:45.520064,-189
2021-09-24 15:45:45.520070,-206
2021-09-24 15:45:45.520077,-225
2021-09-24 15:45:45.520083,-247
2021-09-24 15:45:45.520090,-269
2021-09-24 15:45:45.520097,-298
2021-09-24 15:45:45.520103,-330
2021-09-24 15:45:45.520110,-359
2021-09-24 15:45:45.520116,-391
2021-09-24 15:45:45.520123,-412
2021-09-24 15:45:45.520129,-417
2021-09-24 15:45:45.746105,-412
2021-09-24 15:45:45.746125,-403
2021-09-24 15:45:45.746131,-371
2021-09-24 15:45:45.746137,-303
2021-09-24 15:45:45.746142,-204
2021-09-24 15:45:45.746147,-94
2021-09-24 15:45:45.746153,-2
2021-09-24 15:45:45.746158,75
2021-09-24 15:45:45.746163,143
2021-09-24 15:45:45.746169,184
2021-09-24 15:45:45.746174,206
2021-09-24 15:45:45.746179,223
2021-09-24 15:45:45.746184,223
2021-09-24 15:45:45.746189,216
2021-09-24 15:45:45.746206,218
2021-09-24 15:45:45.746211,216
2021-09-24 15:45:45.746216,206
2021-09-24 15:45:45.746222,191
2021-09-24 15:45:45.746227,177
2021-09-24 15:45:45.746232,165
2021-09-24 15:45:45.746237,155
2021-09-24 15:45:45.746243,143
2021-09-24 15:45:45.746248,131
2021-09-24 15:45:45.746253,121
2021-09-24 15:45:45.746258,109
2021-09-24 15:45:45.746305,102
2021-09-24 15:45:45.746320,97
2021-09-24 15:45:45.746330,82
2021-09-24 15:45:45.746336,72
2021-09-24 15:45:45.746341,72
2021-09-24 15:45:45.970936,77
2021-09-24 15:45:45.970957,77
2021-09-24 15:45:45.970965,80
2021-09-24 15:45:45.970972,80
2021-09-24 15:45:45.970978,80
2021-09-24 15:45:45.970985,77
2021-09-24 15:45:45.970991,75
2021-09-24 15:45:45.970998,77
2021-09-24 15:45:45.971004,77
2021-09-24 15:45:45.971011,80
2021-09-24 15:45:45.971017,82
2021-09-24 15:45:45.971024,72
2021-09-24 15:45:45.971030,63
2021-09-24 15:45:45.971037,68
2021-09-24 15:45:45.971043,70
2021-09-24 15:45:45.971050,68
2021-09-24 15:45:45.971056,68
2021-09-24 15:45:45.971063,63
2021-09-24 15:45:45.971069,58
2021-09-24 15:45:45.971076,60
2021-09-24 15:45:45.971082,63
2021-09-24 15:45:45.971088,60
2021-09-24 15:45:45.971095,60
2021-09-24 15:45:45.971101,63
2021-09-24 15:45:45.971108,68
2021-09-24 15:45:45.971114,77
2021-09-24 15:45:45.971121,72
2021-09-24 15:45:45.971127,53
2021-09-24 15:45:45.971134,31
2021-09-24 15:45:45.971140,26
2021-09-24 15:45:46.195589,29
2021-09-24 15:45:46.195609,24
2021-09-24 15:45:46.195615,26
2021-09-24 15:45:46.195621,51
2021-09-24 15:45:46.195626,63
2021-09-24 15:45:46.195631,58
2021-09-24 15:45:46.195637,58
2021-09-24 15:45:46.195642,55
2021-09-24 15:45:46.195647,48
2021-09-24 15:45:46.195653,51
2021-09-24 15:45:46.195658,53
2021-09-24 15:45:46.195664,48
2021-09-24 15:45:46.195669,41
2021-09-24 15:45:46.195674,14
2021-09-24 15:45:46.195680,-43
2021-09-24 15:45:46.195685,-155
2021-09-24 15:45:46.195690,-349
2021-09-24 15:45:46.195696,-451
2021-09-24 15:45:46.195701,-211
2021-09-24 15:45:46.195706,255
2021-09-24 15:45:46.195711,621
2021-09-24 15:45:46.195717,585
2021-09-24 15:45:46.195722,230
2021-09-24 15:45:46.195727,60
2021-09-24 15:45:46.195733,72
2021-09-24 15:45:46.195738,-24
2021-09-24 15:45:46.195743,-102
2021-09-24 15:45:46.195749,-77
2021-09-24 15:45:46.195754,-82
2021-09-24 15:45:46.195759,-111
2021-09-24 15:45:46.376658,-109
2021-09-24 15:45:46.376686,-111
2021-09-24 15:45:46.376698,-140
2021-09-24 15:45:46.376705,-160
2021-09-24 15:45:46.376711,-167
2021-09-24 15:45:46.376718,-174
2021-09-24 15:45:46.376724,-184
2021-09-24 15:45:46.376731,-194
2021-09-24 15:45:46.376737,-211
2021-09-24 15:45:46.376744,-238
2021-09-24 15:45:46.376750,-262
2021-09-24 15:45:46.376757,-284
2021-09-24 15:45:46.376765,-306
2021-09-24 15:45:46.376772,-337
2021-09-24 15:45:46.376778,-374
2021-09-24 15:45:46.376893,-410
2021-09-24 15:45:46.376900,-437
2021-09-24 15:45:46.376906,-446
2021-09-24 15:45:46.376913,-439
2021-09-24 15:45:46.376919,-425
2021-09-24 15:45:46.376925,-388
2021-09-24 15:45:46.376993,-323
2021-09-24 15:45:46.377007,-223
2021-09-24 15:45:46.377054,-104
2021-09-24 15:45:46.377067,0
2021-09-24 15:45:46.377076,82
2021-09-24 15:45:46.377088,145
2021-09-24 15:45:46.377098,189
2021-09-24 15:45:46.377109,218
2021-09-24 15:45:46.377121,230
2021-09-24 15:45:46.646059,235
2021-09-24 15:45:46.646082,240
2021-09-24 15:45:46.646090,233
2021-09-24 15:45:46.646097,213
2021-09-24 15:45:46.646103,204
2021-09-24 15:45:46.646110,204
2021-09-24 15:45:46.646116,196
2021-09-24 15:45:46.646122,184
2021-09-24 15:45:46.646129,174
2021-09-24 15:45:46.646135,157
2021-09-24 15:45:46.646142,140
2021-09-24 15:45:46.646149,128
2021-09-24 15:45:46.646155,111
2021-09-24 15:45:46.646161,99
2021-09-24 15:45:46.646168,94
2021-09-24 15:45:46.646174,87
2021-09-24 15:45:46.646181,77
2021-09-24 15:45:46.646187,77
2021-09-24 15:45:46.646194,82
2021-09-24 15:45:46.646200,82
2021-09-24 15:45:46.646206,77
2021-09-24 15:45:46.646213,75
2021-09-24 15:45:46.646219,80
2021-09-24 15:45:46.646226,82
2021-09-24 15:45:46.646232,85
2021-09-24 15:45:46.646239,85
2021-09-24 15:45:46.646245,82
2021-09-24 15:45:46.646252,75
2021-09-24 15:45:46.646258,75
2021-09-24 15:45:46.646265,85
2021-09-24 15:45:46.871136,82
2021-09-24 15:45:46.871159,80
2021-09-24 15:45:46.871167,77
2021-09-24 15:45:46.871174,75
2021-09-24 15:45:46.871181,75
2021-09-24 15:45:46.871187,80
2021-09-24 15:45:46.871194,77
2021-09-24 15:45:46.871200,70
2021-09-24 15:45:46.871207,51
2021-09-24 15:45:46.871213,41
2021-09-24 15:45:46.871220,43
2021-09-24 15:45:46.871226,48
2021-09-24 15:45:46.871233,48
2021-09-24 15:45:46.871239,41
2021-09-24 15:45:46.871246,36
2021-09-24 15:45:46.871253,38
2021-09-24 15:45:46.871259,38
2021-09-24 15:45:46.871266,26
2021-09-24 15:45:46.871272,12
2021-09-24 15:45:46.871279,4
2021-09-24 15:45:46.871285,7
2021-09-24 15:45:46.871292,0
2021-09-24 15:45:46.871298,-4
2021-09-24 15:45:46.871305,14
2021-09-24 15:45:46.871342,38
2021-09-24 15:45:46.871418,48
2021-09-24 15:45:46.871433,43
2021-09-24 15:45:46.871443,41
2021-09-24 15:45:46.871450,48
2021-09-24 15:45:46.871457,53
2021-09-24 15:45:47.184559,55
2021-09-24 15:45:47.184574,53
2021-09-24 15:45:47.184580,43
2021-09-24 15:45:47.184584,31
2021-09-24 15:45:47.184589,-9
2021-09-24 15:45:47.184593,-87
2021-09-24 15:45:47.184598,-240
2021-09-24 15:45:47.184602,-439
2021-09-24 15:45:47.184607,-405
2021-09-24 15:45:47.184611,-14
2021-09-24 15:45:47.184615,485
2021-09-24 15:45:47.184620,687
2021-09-24 15:45:47.184624,410
2021-09-24 15:45:47.184629,97
2021-09-24 15:45:47.184633,58
2021-09-24 15:45:47.184638,7
2021-09-24 15:45:47.184642,-104
2021-09-24 15:45:47.184647,-104
2021-09-24 15:45:47.184651,-80
2021-09-24 15:45:47.184659,-114
2021-09-24 15:45:47.184663,-133
2021-09-24 15:45:47.184668,-126
2021-09-24 15:45:47.184672,-128
2021-09-24 15:45:47.184677,-140
2021-09-24 15:45:47.184681,-148
2021-09-24 15:45:47.184686,-160
2021-09-24 15:45:47.184690,-174
2021-09-24 15:45:47.184694,-184
2021-09-24 15:45:47.184699,-194
2021-09-24 15:45:47.184704,-211
2021-09-24 15:45:47.321091,-233
2021-09-24 15:45:47.321121,-259
2021-09-24 15:45:47.321133,-289
2021-09-24 15:45:47.321143,-320
2021-09-24 15:45:47.321153,-349
2021-09-24 15:45:47.321163,-381
2021-09-24 15:45:47.321173,-415
2021-09-24 15:45:47.321183,-439
2021-09-24 15:45:47.321193,-444
2021-09-24 15:45:47.321203,-437
2021-09-24 15:45:47.321214,-410
2021-09-24 15:45:47.321223,-354
2021-09-24 15:45:47.321233,-267
2021-09-24 15:45:47.321243,-165
2021-09-24 15:45:47.321253,-63
2021-09-24 15:45:47.321263,36
2021-09-24 15:45:47.321273,119
2021-09-24 15:45:47.321283,170
2021-09-24 15:45:47.321293,199
2021-09-24 15:45:47.321303,211
2021-09-24 15:45:47.321313,221
2021-09-24 15:45:47.321323,225
2021-09-24 15:45:47.321333,225
2021-09-24 15:45:47.321343,223
2021-09-24 15:45:47.321353,211
2021-09-24 15:45:47.321362,199
2021-09-24 15:45:47.321372,189
2021-09-24 15:45:47.321382,182
2021-09-24 15:45:47.321392,174
2021-09-24 15:45:47.321402,167
2021-09-24 15:45:47.546145,153
2021-09-24 15:45:47.546177,140
2021-09-24 15:45:47.546189,136
2021-09-24 15:45:47.546199,131
2021-09-24 15:45:47.546225,116
2021-09-24 15:45:47.546236,106
2021-09-24 15:45:47.546246,97
2021-09-24 15:45:47.546256,87
2021-09-24 15:45:47.546266,82
2021-09-24 15:45:47.546276,80
2021-09-24 15:45:47.546286,80
2021-09-24 15:45:47.546296,82
2021-09-24 15:45:47.546387,80
2021-09-24 15:45:47.546404,72
2021-09-24 15:45:47.546418,75
2021-09-24 15:45:47.546434,77
2021-09-24 15:45:47.546444,77
2021-09-24 15:45:47.546454,80
2021-09-24 15:45:47.546464,77
2021-09-24 15:45:47.546474,70
2021-09-24 15:45:47.546484,63
2021-09-24 15:45:47.546494,63
2021-09-24 15:45:47.546504,65
2021-09-24 15:45:47.546514,65
2021-09-24 15:45:47.546523,63
2021-09-24 15:45:47.546533,63
2021-09-24 15:45:47.546543,63
2021-09-24 15:45:47.546553,65
2021-09-24 15:45:47.546563,68
2021-09-24 15:45:47.546573,68
2021-09-24 15:45:47.770630,63
2021-09-24 15:45:47.770650,63
2021-09-24 15:45:47.770657,65
2021-09-24 15:45:47.770662,63
2021-09-24 15:45:47.770667,63
2021-09-24 15:45:47.770673,63
2021-09-24 15:45:47.770678,60
2021-09-24 15:45:47.770683,60
2021-09-24 15:45:47.770688,51
2021-09-24 15:45:47.770693,31
2021-09-24 15:45:47.770698,17
2021-09-24 15:45:47.770703,19
2021-09-24 15:45:47.770708,17
2021-09-24 15:45:47.770714,7
2021-09-24 15:45:47.770719,19
2021-09-24 15:45:47.770724,41
2021-09-24 15:45:47.770729,58
2021-09-24 15:45:47.770734,60
2021-09-24 15:45:47.770739,48
2021-09-24 15:45:47.770744,36
2021-09-24 15:45:47.770749,43
2021-09-24 15:45:47.770754,46
2021-09-24 15:45:47.770759,36
2021-09-24 15:45:47.770765,31
2021-09-24 15:45:47.770770,29
2021-09-24 15:45:47.770776,0
2021-09-24 15:45:47.770782,-70
2021-09-24 15:45:47.770787,-208
2021-09-24 15:45:47.770792,-412
2021-09-24 15:45:47.770797,-449
2021-09-24 15:45:47.995936,-111
2021-09-24 15:45:47.995958,415
2021-09-24 15:45:47.995966,702
2021-09-24 15:45:47.995973,488
2021-09-24 15:45:47.995979,143
2021-09-24 15:45:47.995986,68
2021-09-24 15:45:47.995992,43
2021-09-24 15:45:47.995999,-68
2021-09-24 15:45:47.996006,-89
2021-09-24 15:45:47.996012,-63
2021-09-24 15:45:47.996019,-94
2021-09-24 15:45:47.996025,-121
2021-09-24 15:45:47.996032,-114
2021-09-24 15:45:47.996038,-116
2021-09-24 15:45:47.996045,-133
2021-09-24 15:45:47.996051,-138
2021-09-24 15:45:47.996058,-145
2021-09-24 15:45:47.996064,-160
2021-09-24 15:45:47.996071,-167
2021-09-24 15:45:47.996077,-177
2021-09-24 15:45:47.996084,-199
2021-09-24 15:45:47.996090,-221
2021-09-24 15:45:47.996097,-242
2021-09-24 15:45:47.996103,-269
2021-09-24 15:45:47.996110,-306
2021-09-24 15:45:47.996116,-340
2021-09-24 15:45:47.996123,-371
2021-09-24 15:45:47.996129,-398
2021-09-24 15:45:47.996136,-420
2021-09-24 15:45:47.996142,-427
2021-09-24 15:45:48.220501,-422
2021-09-24 15:45:48.220521,-398
2021-09-24 15:45:48.220529,-349
2021-09-24 15:45:48.220536,-269
2021-09-24 15:45:48.220543,-170
2021-09-24 15:45:48.220549,-60
2021-09-24 15:45:48.220556,43
2021-09-24 15:45:48.220562,128
2021-09-24 15:45:48.220569,189
2021-09-24 15:45:48.220575,225
2021-09-24 15:45:48.220582,240
2021-09-24 15:45:48.220588,245
2021-09-24 15:45:48.220595,250
2021-09-24 15:45:48.220601,252
2021-09-24 15:45:48.220608,247
2021-09-24 15:45:48.220614,235
2021-09-24 15:45:48.220621,228
2021-09-24 15:45:48.220627,218
2021-09-24 15:45:48.220633,208
2021-09-24 15:45:48.220640,204
2021-09-24 15:45:48.220646,194
2021-09-24 15:45:48.220653,179
2021-09-24 15:45:48.220659,167
2021-09-24 15:45:48.220666,157
2021-09-24 15:45:48.220672,143
2021-09-24 15:45:48.220679,131
2021-09-24 15:45:48.220685,119
2021-09-24 15:45:48.220692,106
2021-09-24 15:45:48.220698,102
2021-09-24 15:45:48.220705,97
2021-09-24 15:45:48.490942,97
2021-09-24 15:45:48.490964,99
2021-09-24 15:45:48.490972,97
2021-09-24 15:45:48.490979,87
2021-09-24 15:45:48.490985,82
2021-09-24 15:45:48.490992,89
2021-09-24 15:45:48.490998,92
2021-09-24 15:45:48.491005,92
2021-09-24 15:45:48.491011,92
2021-09-24 15:45:48.491018,85
2021-09-24 15:45:48.491025,77
2021-09-24 15:45:48.491031,85
2021-09-24 15:45:48.491038,92
2021-09-24 15:45:48.491044,87
2021-09-24 15:45:48.491050,77
2021-09-24 15:45:48.491057,80
2021-09-24 15:45:48.491063,82
2021-09-24 15:45:48.491070,87
2021-09-24 15:45:48.491076,87
2021-09-24 15:45:48.491083,82
2021-09-24 15:45:48.491089,80
2021-09-24 15:45:48.491095,80
2021-09-24 15:45:48.491102,77
2021-09-24 15:45:48.491108,80
2021-09-24 15:45:48.491115,82
2021-09-24 15:45:48.491121,85
2021-09-24 15:45:48.491127,82
2021-09-24 15:45:48.491134,77
2021-09-24 15:45:48.491140,77
2021-09-24 15:45:48.491147,75
2021-09-24 15:45:48.715741,63
2021-09-24 15:45:48.715764,43
2021-09-24 15:45:48.715772,34
2021-09-24 15:45:48.715779,38
2021-09-24 15:45:48.715785,34
2021-09-24 15:45:48.715792,36
2021-09-24 15:45:48.715798,58
2021-09-24 15:45:48.715805,77
2021-09-24 15:45:48.715811,72
2021-09-24 15:45:48.715818,63
2021-09-24 15:45:48.715824,68
2021-09-24 15:45:48.715831,72
2021-09-24 15:45:48.715837,75
2021-09-24 15:45:48.715844,75
2021-09-24 15:45:48.715850,70
2021-09-24 15:45:48.715857,58
2021-09-24 15:45:48.715863,36
2021-09-24 15:45:48.715870,-4
2021-09-24 15:45:48.715876,-99
2021-09-24 15:45:48.715883,-293
2021-09-24 15:45:48.715890,-456
2021-09-24 15:45:48.715896,-298
2021-09-24 15:45:48.715903,182
2021-09-24 15:45:48.715909,638
2021-09-24 15:45:48.715916,670
2021-09-24 15:45:48.715922,308
2021-09-24 15:45:48.715929,92
2021-09-24 15:45:48.715935,92
2021-09-24 15:45:48.715942,0
2021-09-24 15:45:48.715949,-97
2021-09-24 15:45:48.941070,-85
2021-09-24 15:45:48.941094,-82
2021-09-24 15:45:48.941101,-119
2021-09-24 15:45:48.941108,-126
2021-09-24 15:45:48.941115,-119
2021-09-24 15:45:48.941121,-131
2021-09-24 15:45:48.941128,-140
2021-09-24 15:45:48.941134,-150
2021-09-24 15:45:48.941141,-167
2021-09-24 15:45:48.941148,-182
2021-09-24 15:45:48.941154,-191
2021-09-24 15:45:48.941161,-204
2021-09-24 15:45:48.941167,-223
2021-09-24 15:45:48.941174,-247
2021-09-24 15:45:48.941181,-279
2021-09-24 15:45:48.941187,-308
2021-09-24 15:45:48.941194,-332
2021-09-24 15:45:48.941200,-361
2021-09-24 15:45:48.941207,-393
2021-09-24 15:45:48.941213,-420
2021-09-24 15:45:48.941220,-434
2021-09-24 15:45:48.941226,-434
2021-09-24 15:45:48.941233,-422
2021-09-24 15:45:48.941239,-386
2021-09-24 15:45:48.941246,-315
2021-09-24 15:45:48.941252,-221
2021-09-24 15:45:48.941259,-111
2021-09-24 15:45:48.941265,-7
2021-09-24 15:45:48.941272,80
2021-09-24 15:45:48.941279,148
2021-09-24 15:45:49.209439,199
2021-09-24 15:45:49.209468,233
2021-09-24 15:45:49.209480,240
2021-09-24 15:45:49.209491,238
2021-09-24 15:45:49.209502,242
2021-09-24 15:45:49.209512,245
2021-09-24 15:45:49.209523,238
2021-09-24 15:45:49.209534,221
2021-09-24 15:45:49.209545,208
2021-09-24 15:45:49.209556,204
2021-09-24 15:45:49.209566,196
2021-09-24 15:45:49.209577,182
2021-09-24 15:45:49.209588,167
2021-09-24 15:45:49.209628,150
2021-09-24 15:45:49.209639,136
2021-09-24 15:45:49.209651,126
2021-09-24 15:45:49.209662,116
2021-09-24 15:45:49.209673,109
2021-09-24 15:45:49.209684,104
2021-09-24 15:45:49.209695,99
2021-09-24 15:45:49.209707,94
2021-09-24 15:45:49.209718,92
2021-09-24 15:45:49.209729,92
2021-09-24 15:45:49.209740,94
2021-09-24 15:45:49.209752,97
2021-09-24 15:45:49.209763,97
2021-09-24 15:45:49.209774,92
2021-09-24 15:45:49.209785,92
2021-09-24 15:45:49.209796,94
2021-09-24 15:45:49.209808,97
2021-09-24 15:45:49.436098,97
2021-09-24 15:45:49.436129,94
2021-09-24 15:45:49.436141,92
2021-09-24 15:45:49.436151,87
2021-09-24 15:45:49.436161,80
2021-09-24 15:45:49.436171,68
2021-09-24 15:45:49.436181,53
2021-09-24 15:45:49.436191,51
2021-09-24 15:45:49.436201,53
2021-09-24 15:45:49.436211,53
2021-09-24 15:45:49.436221,55
2021-09-24 15:45:49.436231,55
2021-09-24 15:45:49.436241,48
2021-09-24 15:45:49.436251,43
2021-09-24 15:45:49.436261,51
2021-09-24 15:45:49.436271,63
2021-09-24 15:45:49.436281,65
2021-09-24 15:45:49.436291,53
2021-09-24 15:45:49.436301,36
2021-09-24 15:45:49.436311,19
2021-09-24 15:45:49.436321,19
2021-09-24 15:45:49.436331,17
2021-09-24 15:45:49.436341,12
2021-09-24 15:45:49.436351,21
2021-09-24 15:45:49.436361,43
2021-09-24 15:45:49.436371,58
2021-09-24 15:45:49.436380,58
2021-09-24 15:45:49.436390,53
2021-09-24 15:45:49.436400,58
2021-09-24 15:45:49.436410,60
2021-09-24 15:45:49.660707,58
2021-09-24 15:45:49.660730,55
2021-09-24 15:45:49.660738,58
2021-09-24 15:45:49.660744,51
2021-09-24 15:45:49.660751,21
2021-09-24 15:45:49.660757,-36
2021-09-24 15:45:49.660764,-157
2021-09-24 15:45:49.660770,-366
2021-09-24 15:45:49.660777,-468
2021-09-24 15:45:49.660783,-199
2021-09-24 15:45:49.660790,332
2021-09-24 15:45:49.660796,699
2021-09-24 15:45:49.660803,561
2021-09-24 15:45:49.660809,187
2021-09-24 15:45:49.660816,68
2021-09-24 15:45:49.660822,58
2021-09-24 15:45:49.660829,-55
2021-09-24 15:45:49.660835,-111
2021-09-24 15:45:49.660841,-87
2021-09-24 15:45:49.660848,-99
2021-09-24 15:45:49.660854,-121
2021-09-24 15:45:49.660861,-121
2021-09-24 15:45:49.660867,-123
2021-09-24 15:45:49.660874,-140
2021-09-24 15:45:49.660880,-150
2021-09-24 15:45:49.660886,-150
2021-09-24 15:45:49.660893,-162
2021-09-24 15:45:49.660899,-179
2021-09-24 15:45:49.660906,-191
2021-09-24 15:45:49.660912,-206
2021-09-24 15:45:49.930734,-225
2021-09-24 15:45:49.930756,-247
2021-09-24 15:45:49.930763,-274
2021-09-24 15:45:49.930769,-308
2021-09-24 15:45:49.930774,-344
2021-09-24 15:45:49.930780,-381
2021-09-24 15:45:49.930786,-412
2021-09-24 15:45:49.930791,-429
2021-09-24 15:45:49.930797,-444
2021-09-24 15:45:49.930803,-451
2021-09-24 15:45:49.930808,-427
2021-09-24 15:45:49.930814,-381
2021-09-24 15:45:49.930820,-315
2021-09-24 15:45:49.930825,-208
2021-09-24 15:45:49.930831,-87
2021-09-24 15:45:49.930837,9
2021-09-24 15:45:49.930842,82
2021-09-24 15:45:49.930848,140
2021-09-24 15:45:49.930854,184
2021-09-24 15:45:49.930859,211
2021-09-24 15:45:49.930865,218
2021-09-24 15:45:49.930871,223
2021-09-24 15:45:49.930876,225
2021-09-24 15:45:49.930882,221
2021-09-24 15:45:49.930888,216
2021-09-24 15:45:49.930893,211
2021-09-24 15:45:49.930899,201
2021-09-24 15:45:49.930905,189
2021-09-24 15:45:49.930910,177
2021-09-24 15:45:49.930916,167
2021-09-24 15:45:50.110134,157
2021-09-24 15:45:50.110154,148
2021-09-24 15:45:50.110162,133
2021-09-24 15:45:50.110169,119
2021-09-24 15:45:50.110175,106
2021-09-24 15:45:50.110185,97
2021-09-24 15:45:50.110192,94
2021-09-24 15:45:50.110198,97
2021-09-24 15:45:50.110205,94
2021-09-24 15:45:50.110211,92
2021-09-24 15:45:50.110218,82
2021-09-24 15:45:50.110224,77
2021-09-24 15:45:50.110231,85
2021-09-24 15:45:50.110237,89
2021-09-24 15:45:50.110243,87
2021-09-24 15:45:50.110250,85
2021-09-24 15:45:50.110256,80
2021-09-24 15:45:50.110262,82
2021-09-24 15:45:50.110269,87
2021-09-24 15:45:50.110275,85
2021-09-24 15:45:50.110282,82
2021-09-24 15:45:50.110288,80
2021-09-24 15:45:50.110294,72
2021-09-24 15:45:50.110301,70
2021-09-24 15:45:50.110307,75
2021-09-24 15:45:50.110314,77
2021-09-24 15:45:50.110320,77
2021-09-24 15:45:50.110326,82
2021-09-24 15:45:50.110333,80
2021-09-24 15:45:50.110339,72
2021-09-24 15:45:50.290731,65
2021-09-24 15:45:50.290752,55
2021-09-24 15:45:50.290760,41
2021-09-24 15:45:50.290766,26
2021-09-24 15:45:50.290773,21
2021-09-24 15:45:50.290779,41
2021-09-24 15:45:50.290786,60
2021-09-24 15:45:50.290792,63
2021-09-24 15:45:50.290799,60
2021-09-24 15:45:50.290805,51
2021-09-24 15:45:50.290812,46
2021-09-24 15:45:50.290818,51
2021-09-24 15:45:50.290825,48
2021-09-24 15:45:50.290831,41
2021-09-24 15:45:50.290838,36
2021-09-24 15:45:50.290844,7
2021-09-24 15:45:50.290851,-51
2021-09-24 15:45:50.290857,-157
2021-09-24 15:45:50.290864,-369
2021-09-24 15:45:50.290871,-512
2021-09-24 15:45:50.290878,-286
2021-09-24 15:45:50.290884,235
2021-09-24 15:45:50.290892,655
2021-09-24 15:45:50.290904,592
2021-09-24 15:45:50.290916,213
2021-09-24 15:45:50.290928,53
2021-09-24 15:45:50.290940,58
2021-09-24 15:45:50.290951,-55
2021-09-24 15:45:50.290961,-131
2021-09-24 15:45:50.290973,-99
2021-09-24 15:45:50.561122,-99
2021-09-24 15:45:50.561146,-123
2021-09-24 15:45:50.561154,-128
2021-09-24 15:45:50.561160,-143
2021-09-24 15:45:50.561167,-157
2021-09-24 15:45:50.561173,-160
2021-09-24 15:45:50.561180,-167
2021-09-24 15:45:50.561186,-179
2021-09-24 15:45:50.561193,-194
2021-09-24 15:45:50.561199,-213
2021-09-24 15:45:50.561206,-230
2021-09-24 15:45:50.561212,-245
2021-09-24 15:45:50.561219,-272
2021-09-24 15:45:50.561225,-301
2021-09-24 15:45:50.561231,-330
2021-09-24 15:45:50.561238,-366
2021-09-24 15:45:50.561244,-403
2021-09-24 15:45:50.561251,-427
2021-09-24 15:45:50.561257,-442
2021-09-24 15:45:50.561264,-451
2021-09-24 15:45:50.561270,-456
2021-09-24 15:45:50.561277,-442
2021-09-24 15:45:50.561283,-386
2021-09-24 15:45:50.561289,-301
2021-09-24 15:45:50.561296,-199
2021-09-24 15:45:50.561302,-82
2021-09-24 15:45:50.561341,24
2021-09-24 15:45:50.561347,104
2021-09-24 15:45:50.561354,167
2021-09-24 15:45:50.561360,216
2021-09-24 15:45:50.785783,240
2021-09-24 15:45:50.785806,245
2021-09-24 15:45:50.785814,247
2021-09-24 15:45:50.785820,250
2021-09-24 15:45:50.785827,245
2021-09-24 15:45:50.785834,233
2021-09-24 15:45:50.785841,221
2021-09-24 15:45:50.785847,204
2021-09-24 15:45:50.785854,189
2021-09-24 15:45:50.785860,174
2021-09-24 15:45:50.785867,167
2021-09-24 15:45:50.785873,157
2021-09-24 15:45:50.785880,145
2021-09-24 15:45:50.785886,136
2021-09-24 15:45:50.785893,123
2021-09-24 15:45:50.785899,111
2021-09-24 15:45:50.785906,102
2021-09-24 15:45:50.785912,92
2021-09-24 15:45:50.785919,89
2021-09-24 15:45:50.785925,94
2021-09-24 15:45:50.785932,92
2021-09-24 15:45:50.785938,87
2021-09-24 15:45:50.785944,85
2021-09-24 15:45:50.785951,80
2021-09-24 15:45:50.785957,65
2021-09-24 15:45:50.785964,63
2021-09-24 15:45:50.785970,63
2021-09-24 15:45:50.785977,55
2021-09-24 15:45:50.785983,55
2021-09-24 15:45:50.785990,60
2021-09-24 15:45:51.055510,60
2021-09-24 15:45:51.055534,58
2021-09-24 15:45:51.055543,63
2021-09-24 15:45:51.055550,63
2021-09-24 15:45:51.055557,55
2021-09-24 15:45:51.055564,48
2021-09-24 15:45:51.055571,41
2021-09-24 15:45:51.055578,26
2021-09-24 15:45:51.055585,9
2021-09-24 15:45:51.055591,7
2021-09-24 15:45:51.055598,24
2021-09-24 15:45:51.055605,46
2021-09-24 15:45:51.055612,46
2021-09-24 15:45:51.055619,34
2021-09-24 15:45:51.055626,34
2021-09-24 15:45:51.055633,41
2021-09-24 15:45:51.055639,43
2021-09-24 15:45:51.055646,36
2021-09-24 15:45:51.055653,31
2021-09-24 15:45:51.055660,24
2021-09-24 15:45:51.055667,0
2021-09-24 15:45:51.055674,-53
2021-09-24 15:45:51.055681,-138
2021-09-24 15:45:51.055688,-308
2021-09-24 15:45:51.055694,-473
2021-09-24 15:45:51.055701,-359
2021-09-24 15:45:51.055708,97
2021-09-24 15:45:51.055715,583
2021-09-24 15:45:51.055722,614
2021-09-24 15:45:51.055729,240
2021-09-24 15:45:51.279796,51
2021-09-24 15:45:51.279820,72
2021-09-24 15:45:51.279828,-26
2021-09-24 15:45:51.279835,-119
2021-09-24 15:45:51.279841,-89
2021-09-24 15:45:51.279848,-85
2021-09-24 15:45:51.279854,-126
2021-09-24 15:45:51.279861,-138
2021-09-24 15:45:51.279868,-131
2021-09-24 15:45:51.279874,-143
2021-09-24 15:45:51.279881,-155
2021-09-24 15:45:51.279887,-160
2021-09-24 15:45:51.279894,-174
2021-09-24 15:45:51.279900,-194
2021-09-24 15:45:51.279907,-206
2021-09-24 15:45:51.279913,-218
2021-09-24 15:45:51.279920,-238
2021-09-24 15:45:51.279927,-262
2021-09-24 15:45:51.279933,-291
2021-09-24 15:45:51.279940,-325
2021-09-24 15:45:51.279946,-359
2021-09-24 15:45:51.279953,-395
2021-09-24 15:45:51.279959,-417
2021-09-24 15:45:51.279966,-432
2021-09-24 15:45:51.279972,-444
2021-09-24 15:45:51.279979,-444
2021-09-24 15:45:51.279986,-422
2021-09-24 15:45:51.279992,-371
2021-09-24 15:45:51.279999,-284
2021-09-24 15:45:51.280005,-174
2021-09-24 15:45:51.461141,-75
2021-09-24 15:45:51.461164,19
2021-09-24 15:45:51.461172,104
2021-09-24 15:45:51.461179,162
2021-09-24 15:45:51.461185,201
2021-09-24 15:45:51.461192,223
2021-09-24 15:45:51.461198,225
2021-09-24 15:45:51.461204,225
2021-09-24 15:45:51.461211,225
2021-09-24 15:45:51.461217,218
2021-09-24 15:45:51.461256,216
2021-09-24 15:45:51.461262,206
2021-09-24 15:45:51.461268,184
2021-09-24 15:45:51.461275,172
2021-09-24 15:45:51.461281,170
2021-09-24 15:45:51.461288,162
2021-09-24 15:45:51.461294,153
2021-09-24 15:45:51.461300,140
2021-09-24 15:45:51.461307,131
2021-09-24 15:45:51.461313,128
2021-09-24 15:45:51.461320,123
2021-09-24 15:45:51.461326,119
2021-09-24 15:45:51.461332,111
2021-09-24 15:45:51.461339,104
2021-09-24 15:45:51.461345,104
2021-09-24 15:45:51.461351,109
2021-09-24 15:45:51.461358,109
2021-09-24 15:45:51.461364,106
2021-09-24 15:45:51.461370,97
2021-09-24 15:45:51.461377,94
2021-09-24 15:45:51.730778,102
2021-09-24 15:45:51.730800,102
2021-09-24 15:45:51.730808,94
2021-09-24 15:45:51.730815,92
2021-09-24 15:45:51.730821,94
2021-09-24 15:45:51.730828,89
2021-09-24 15:45:51.730834,87
2021-09-24 15:45:51.730840,92
2021-09-24 15:45:51.730847,87
2021-09-24 15:45:51.730853,72
2021-09-24 15:45:51.730860,63
2021-09-24 15:45:51.730866,48
2021-09-24 15:45:51.730873,31
2021-09-24 15:45:51.730879,29
2021-09-24 15:45:51.730885,38
2021-09-24 15:45:51.730892,51
2021-09-24 15:45:51.730898,51
2021-09-24 15:45:51.730905,46
2021-09-24 15:45:51.730911,48
2021-09-24 15:45:51.730917,51
2021-09-24 15:45:51.730924,51
2021-09-24 15:45:51.730930,48
2021-09-24 15:45:51.730937,46
2021-09-24 15:45:51.730943,43
2021-09-24 15:45:51.730949,14
2021-09-24 15:45:51.730956,-46
2021-09-24 15:45:51.730962,-131
2021-09-24 15:45:51.730969,-291
2021-09-24 15:45:51.730975,-451
2021-09-24 15:45:51.730982,-340
2021-09-24 15:45:51.910992,104
2021-09-24 15:45:51.911017,583
2021-09-24 15:45:51.911025,621
2021-09-24 15:45:51.911033,247
2021-09-24 15:45:51.911040,51
2021-09-24 15:45:51.911046,68
2021-09-24 15:45:51.911054,-36
2021-09-24 15:45:51.911061,-136
2021-09-24 15:45:51.911068,-111
2021-09-24 15:45:51.911075,-106
2021-09-24 15:45:51.911082,-145
2021-09-24 15:45:51.911088,-148
2021-09-24 15:45:51.911095,-138
2021-09-24 15:45:51.911102,-148
2021-09-24 15:45:51.911109,-160
2021-09-24 15:45:51.911116,-167
2021-09-24 15:45:51.911123,-182
2021-09-24 15:45:51.911130,-199
2021-09-24 15:45:51.911137,-208
2021-09-24 15:45:51.911144,-213
2021-09-24 15:45:51.911150,-233
2021-09-24 15:45:51.911157,-259
2021-09-24 15:45:51.911164,-284
2021-09-24 15:45:51.911171,-310
2021-09-24 15:45:51.911178,-337
2021-09-24 15:45:51.911185,-369
2021-09-24 15:45:51.911192,-405
2021-09-24 15:45:51.911199,-434
2021-09-24 15:45:51.911206,-437
2021-09-24 15:45:51.911212,-425
2021-09-24 15:45:52.180799,-403
2021-09-24 15:45:52.180822,-357
2021-09-24 15:45:52.180830,-269
2021-09-24 15:45:52.180836,-170
2021-09-24 15:45:52.180843,-70
2021-09-24 15:45:52.180850,29
2021-09-24 15:45:52.180856,116
2021-09-24 15:45:52.180863,174
2021-09-24 15:45:52.180869,206
2021-09-24 15:45:52.180875,221
2021-09-24 15:45:52.180882,228
2021-09-24 15:45:52.180888,233
2021-09-24 15:45:52.180895,235
2021-09-24 15:45:52.180901,230
2021-09-24 15:45:52.180908,223
2021-09-24 15:45:52.180914,211
2021-09-24 15:45:52.180921,201
2021-09-24 15:45:52.180927,194
2021-09-24 15:45:52.180934,187
2021-09-24 15:45:52.180940,179
2021-09-24 15:45:52.180947,170
2021-09-24 15:45:52.180953,157
2021-09-24 15:45:52.180960,150
2021-09-24 15:45:52.180966,150
2021-09-24 15:45:52.180973,145
2021-09-24 15:45:52.180979,138
2021-09-24 15:45:52.180986,136
2021-09-24 15:45:52.180993,131
2021-09-24 15:45:52.180999,126
2021-09-24 15:45:52.181006,119
2021-09-24 15:45:52.451164,119
2021-09-24 15:45:52.451187,123
2021-09-24 15:45:52.451194,121
2021-09-24 15:45:52.451201,114
2021-09-24 15:45:52.451208,111
2021-09-24 15:45:52.451214,114
2021-09-24 15:45:52.451221,114
2021-09-24 15:45:52.451259,111
2021-09-24 15:45:52.451266,109
2021-09-24 15:45:52.451272,104
2021-09-24 15:45:52.451278,102
2021-09-24 15:45:52.451285,99
2021-09-24 15:45:52.451291,97
2021-09-24 15:45:52.451298,97
2021-09-24 15:45:52.451304,92
2021-09-24 15:45:52.451310,72
2021-09-24 15:45:52.451317,68
2021-09-24 15:45:52.451323,65
2021-09-24 15:45:52.451329,48
2021-09-24 15:45:52.451336,36
2021-09-24 15:45:52.451342,41
2021-09-24 15:45:52.451349,58
2021-09-24 15:45:52.451355,70
2021-09-24 15:45:52.451361,70
2021-09-24 15:45:52.451368,70
2021-09-24 15:45:52.451374,70
2021-09-24 15:45:52.451380,68
2021-09-24 15:45:52.451387,65
2021-09-24 15:45:52.451393,68
2021-09-24 15:45:52.451400,68
2021-09-24 15:45:52.631165,48
2021-09-24 15:45:52.631189,0
2021-09-24 15:45:52.631198,-85
2021-09-24 15:45:52.631206,-242
2021-09-24 15:45:52.631213,-439
2021-09-24 15:45:52.631220,-417
2021-09-24 15:45:52.631258,-34
2021-09-24 15:45:52.631265,468
2021-09-24 15:45:52.631272,680
2021-09-24 15:45:52.631279,410
2021-09-24 15:45:52.631286,99
2021-09-24 15:45:52.631293,68
2021-09-24 15:45:52.631299,24
2021-09-24 15:45:52.631306,-94
2021-09-24 15:45:52.631313,-111
2021-09-24 15:45:52.631320,-94
2021-09-24 15:45:52.631327,-121
2021-09-24 15:45:52.631334,-131
2021-09-24 15:45:52.631341,-126
2021-09-24 15:45:52.631348,-140
2021-09-24 15:45:52.631355,-162
2021-09-24 15:45:52.631361,-170
2021-09-24 15:45:52.631368,-174
2021-09-24 15:45:52.631375,-184
2021-09-24 15:45:52.631382,-196
2021-09-24 15:45:52.631389,-211
2021-09-24 15:45:52.631395,-230
2021-09-24 15:45:52.631402,-250
2021-09-24 15:45:52.631409,-272
2021-09-24 15:45:52.631416,-298
2021-09-24 15:45:52.855628,-330
2021-09-24 15:45:52.855652,-366
2021-09-24 15:45:52.855660,-398
2021-09-24 15:45:52.855667,-427
2021-09-24 15:45:52.855674,-444
2021-09-24 15:45:52.855680,-439
2021-09-24 15:45:52.855687,-425
2021-09-24 15:45:52.855693,-398
2021-09-24 15:45:52.855700,-340
2021-09-24 15:45:52.855706,-235
2021-09-24 15:45:52.855713,-114
2021-09-24 15:45:52.855720,-4
2021-09-24 15:45:52.855726,77
2021-09-24 15:45:52.855733,143
2021-09-24 15:45:52.855739,187
2021-09-24 15:45:52.855746,213
2021-09-24 15:45:52.855753,225
2021-09-24 15:45:52.855759,225
2021-09-24 15:45:52.855766,218
2021-09-24 15:45:52.855772,218
2021-09-24 15:45:52.855779,213
2021-09-24 15:45:52.855785,206
2021-09-24 15:45:52.855792,196
2021-09-24 15:45:52.855799,191
2021-09-24 15:45:52.855805,187
2021-09-24 15:45:52.855812,177
2021-09-24 15:45:52.855818,165
2021-09-24 15:45:52.855825,155
2021-09-24 15:45:52.855831,150
2021-09-24 15:45:52.855838,143
2021-09-24 15:45:53.125583,136
2021-09-24 15:45:53.125606,131
2021-09-24 15:45:53.125614,121
2021-09-24 15:45:53.125621,119
2021-09-24 15:45:53.125628,116
2021-09-24 15:45:53.125635,109
2021-09-24 15:45:53.125642,102
2021-09-24 15:45:53.125649,99
2021-09-24 15:45:53.125655,99
2021-09-24 15:45:53.125663,99
2021-09-24 15:45:53.125669,102
2021-09-24 15:45:53.125676,99
2021-09-24 15:45:53.125683,97
2021-09-24 15:45:53.125690,92
2021-09-24 15:45:53.125697,92
2021-09-24 15:45:53.125704,92
2021-09-24 15:45:53.125711,92
2021-09-24 15:45:53.125718,94
2021-09-24 15:45:53.125725,94
2021-09-24 15:45:53.125732,87
2021-09-24 15:45:53.125739,85
2021-09-24 15:45:53.125746,89
2021-09-24 15:45:53.125753,99
2021-09-24 15:45:53.125760,99
2021-09-24 15:45:53.125767,89
2021-09-24 15:45:53.125774,82
2021-09-24 15:45:53.125781,77
2021-09-24 15:45:53.125788,68
2021-09-24 15:45:53.125795,53
2021-09-24 15:45:53.125802,46
2021-09-24 15:45:53.394802,48
2021-09-24 15:45:53.394826,65
2021-09-24 15:45:53.394834,77
2021-09-24 15:45:53.394841,77
2021-09-24 15:45:53.394847,80
2021-09-24 15:45:53.394854,80
2021-09-24 15:45:53.394860,72
2021-09-24 15:45:53.394866,60
2021-09-24 15:45:53.394933,60
2021-09-24 15:45:53.394941,60
2021-09-24 15:45:53.394948,46
2021-09-24 15:45:53.394954,0
2021-09-24 15:45:53.394961,-82
2021-09-24 15:45:53.394967,-235
2021-09-24 15:45:53.394974,-444
2021-09-24 15:45:53.394980,-449
2021-09-24 15:45:53.394987,-72
2021-09-24 15:45:53.394993,449
2021-09-24 15:45:53.395000,699
2021-09-24 15:45:53.395006,454
2021-09-24 15:45:53.395013,114
2021-09-24 15:45:53.395019,55
2021-09-24 15:45:53.395025,14
2021-09-24 15:45:53.395032,-116
2021-09-24 15:45:53.395038,-138
2021-09-24 15:45:53.395044,-109
2021-09-24 15:45:53.395051,-140
2021-09-24 15:45:53.395057,-162
2021-09-24 15:45:53.395064,-155
2021-09-24 15:45:53.395070,-165
2021-09-24 15:45:53.576122,-182
2021-09-24 15:45:53.576146,-182
2021-09-24 15:45:53.576154,-189
2021-09-24 15:45:53.576161,-204
2021-09-24 15:45:53.576167,-216
2021-09-24 15:45:53.576173,-235
2021-09-24 15:45:53.576180,-257
2021-09-24 15:45:53.576186,-272
2021-09-24 15:45:53.576193,-296
2021-09-24 15:45:53.576199,-337
2021-09-24 15:45:53.576206,-371
2021-09-24 15:45:53.576212,-400
2021-09-24 15:45:53.576218,-429
2021-09-24 15:45:53.576225,-454
2021-09-24 15:45:53.576231,-466
2021-09-24 15:45:53.576237,-471
2021-09-24 15:45:53.576276,-463
2021-09-24 15:45:53.576282,-437
2021-09-24 15:45:53.576289,-374
2021-09-24 15:45:53.576295,-272
2021-09-24 15:45:53.576301,-157
2021-09-24 15:45:53.576308,-48
2021-09-24 15:45:53.576314,48
2021-09-24 15:45:53.576321,121
2021-09-24 15:45:53.576327,174
2021-09-24 15:45:53.576333,211
2021-09-24 15:45:53.576340,230
2021-09-24 15:45:53.576346,238
2021-09-24 15:45:53.576352,235
2021-09-24 15:45:53.576359,228
2021-09-24 15:45:53.800604,225
2021-09-24 15:45:53.800624,223
2021-09-24 15:45:53.800632,213
2021-09-24 15:45:53.800639,204
2021-09-24 15:45:53.800645,189
2021-09-24 15:45:53.800652,172
2021-09-24 15:45:53.800658,165
2021-09-24 15:45:53.800665,160
2021-09-24 15:45:53.800672,150
2021-09-24 15:45:53.800678,138
2021-09-24 15:45:53.800685,136
2021-09-24 15:45:53.800691,126
2021-09-24 15:45:53.800698,116
2021-09-24 15:45:53.800704,119
2021-09-24 15:45:53.800711,119
2021-09-24 15:45:53.800718,111
2021-09-24 15:45:53.800724,106
2021-09-24 15:45:53.800731,104
2021-09-24 15:45:53.800738,104
2021-09-24 15:45:53.800744,106
2021-09-24 15:45:53.800751,106
2021-09-24 15:45:53.800757,104
2021-09-24 15:45:53.800764,102
2021-09-24 15:45:53.800770,104
2021-09-24 15:45:53.800777,106
2021-09-24 15:45:53.800784,106
2021-09-24 15:45:53.800790,104
2021-09-24 15:45:53.800797,102
2021-09-24 15:45:53.800803,97
2021-09-24 15:45:53.800810,87
2021-09-24 15:45:53.981139,82
2021-09-24 15:45:53.981162,87
2021-09-24 15:45:53.981171,87
2021-09-24 15:45:53.981178,77
2021-09-24 15:45:53.981184,72
2021-09-24 15:45:53.981191,70
2021-09-24 15:45:53.981197,72
2021-09-24 15:45:53.981204,82
2021-09-24 15:45:53.981210,85
2021-09-24 15:45:53.981217,82
2021-09-24 15:45:53.981223,77
2021-09-24 15:45:53.981230,70
2021-09-24 15:45:53.981236,65
2021-09-24 15:45:53.981242,53
2021-09-24 15:45:53.981249,31
2021-09-24 15:45:53.981255,14
2021-09-24 15:45:53.981262,19
2021-09-24 15:45:53.981268,36
2021-09-24 15:45:53.981275,48
2021-09-24 15:45:53.981281,48
2021-09-24 15:45:53.981288,43
2021-09-24 15:45:53.981294,41
2021-09-24 15:45:53.981301,41
2021-09-24 15:45:53.981307,43
2021-09-24 15:45:53.981314,43
2021-09-24 15:45:53.981320,46
2021-09-24 15:45:53.981327,36
2021-09-24 15:45:53.981333,-7
2021-09-24 15:45:53.981340,-80
2021-09-24 15:45:53.981346,-213
2021-09-24 15:45:54.294975,-425
2021-09-24 15:45:54.294995,-459
2021-09-24 15:45:54.295004,-111
2021-09-24 15:45:54.295011,412
2021-09-24 15:45:54.295018,697
2021-09-24 15:45:54.295025,480
2021-09-24 15:45:54.295046,119
2021-09-24 15:45:54.295053,38
2021-09-24 15:45:54.295060,12
2021-09-24 15:45:54.295066,-114
2021-09-24 15:45:54.295073,-145
2021-09-24 15:45:54.295079,-109
2021-09-24 15:45:54.295086,-131
2021-09-24 15:45:54.295092,-153
2021-09-24 15:45:54.295099,-148
2021-09-24 15:45:54.295105,-165
2021-09-24 15:45:54.295112,-184
2021-09-24 15:45:54.295118,-179
2021-09-24 15:45:54.295125,-184
2021-09-24 15:45:54.295131,-199
2021-09-24 15:45:54.295138,-213
2021-09-24 15:45:54.295144,-228
2021-09-24 15:45:54.295151,-245
2021-09-24 15:45:54.295157,-262
2021-09-24 15:45:54.295164,-281
