Time,ECG
2021-09-24 14:50:08.787892,155
2021-09-24 14:50:08.787908,148
2021-09-24 14:50:08.787913,140
2021-09-24 14:50:08.787918,128
2021-09-24 14:50:08.787922,111
2021-09-24 14:50:08.787927,102
2021-09-24 14:50:08.787932,99
2021-09-24 14:50:08.787936,94
2021-09-24 14:50:08.787941,89
2021-09-24 14:50:08.787946,80
2021-09-24 14:50:08.787950,75
2021-09-24 14:50:08.787955,80
2021-09-24 14:50:08.787959,82
2021-09-24 14:50:08.787964,80
2021-09-24 14:50:08.787968,75
2021-09-24 14:50:08.787973,68
2021-09-24 14:50:08.787991,65
2021-09-24 14:50:08.787995,75
2021-09-24 14:50:08.788000,75
2021-09-24 14:50:08.788004,72
2021-09-24 14:50:08.788008,68
2021-09-24 14:50:08.788012,65
2021-09-24 14:50:08.788016,63
2021-09-24 14:50:08.788021,60
2021-09-24 14:50:08.788025,58
2021-09-24 14:50:08.788029,53
2021-09-24 14:50:08.788034,51
2021-09-24 14:50:08.788038,51
2021-09-24 14:50:08.788042,51
2021-09-24 14:50:08.788046,51
2021-09-24 14:50:09.041952,53
2021-09-24 14:50:09.041975,53
2021-09-24 14:50:09.041982,43
2021-09-24 14:50:09.041989,36
2021-09-24 14:50:09.041996,46
2021-09-24 14:50:09.042003,53
2021-09-24 14:50:09.042010,46
2021-09-24 14:50:09.042017,38
2021-09-24 14:50:09.042024,34
2021-09-24 14:50:09.042031,31
2021-09-24 14:50:09.042037,31
2021-09-24 14:50:09.042044,38
2021-09-24 14:50:09.042050,34
2021-09-24 14:50:09.042057,21
2021-09-24 14:50:09.042063,7
2021-09-24 14:50:09.042070,4
2021-09-24 14:50:09.042077,12
2021-09-24 14:50:09.042084,9
2021-09-24 14:50:09.042090,7
2021-09-24 14:50:09.042097,21
2021-09-24 14:50:09.042104,38
2021-09-24 14:50:09.042110,48
2021-09-24 14:50:09.042117,53
2021-09-24 14:50:09.042123,58
2021-09-24 14:50:09.042130,60
2021-09-24 14:50:09.042136,53
2021-09-24 14:50:09.042143,41
2021-09-24 14:50:09.042150,38
2021-09-24 14:50:09.042156,38
2021-09-24 14:50:09.042167,21
2021-09-24 14:50:09.266377,-4
2021-09-24 14:50:09.266396,-58
2021-09-24 14:50:09.266405,-213
2021-09-24 14:50:09.266412,-473
2021-09-24 14:50:09.266419,-587
2021-09-24 14:50:09.266426,-323
2021-09-24 14:50:09.266432,208
2021-09-24 14:50:09.266439,641
2021-09-24 14:50:09.266446,546
2021-09-24 14:50:09.266453,157
2021-09-24 14:50:09.266459,46
2021-09-24 14:50:09.266466,60
2021-09-24 14:50:09.266473,-58
2021-09-24 14:50:09.266493,-109
2021-09-24 14:50:09.266500,-77
2021-09-24 14:50:09.266507,-102
2021-09-24 14:50:09.266514,-126
2021-09-24 14:50:09.266520,-114
2021-09-24 14:50:09.266527,-123
2021-09-24 14:50:09.266534,-140
2021-09-24 14:50:09.266541,-148
2021-09-24 14:50:09.266547,-157
2021-09-24 14:50:09.266554,-172
2021-09-24 14:50:09.266561,-179
2021-09-24 14:50:09.266567,-187
2021-09-24 14:50:09.266574,-208
2021-09-24 14:50:09.266581,-238
2021-09-24 14:50:09.266587,-269
2021-09-24 14:50:09.266594,-298
2021-09-24 14:50:09.266602,-330
2021-09-24 14:50:09.535089,-361
2021-09-24 14:50:09.535110,-391
2021-09-24 14:50:09.535118,-415
2021-09-24 14:50:09.535124,-422
2021-09-24 14:50:09.535131,-412
2021-09-24 14:50:09.535138,-388
2021-09-24 14:50:09.535144,-344
2021-09-24 14:50:09.535151,-279
2021-09-24 14:50:09.535157,-187
2021-09-24 14:50:09.535164,-80
2021-09-24 14:50:09.535171,17
2021-09-24 14:50:09.535177,97
2021-09-24 14:50:09.535184,157
2021-09-24 14:50:09.535190,189
2021-09-24 14:50:09.535197,201
2021-09-24 14:50:09.535204,211
2021-09-24 14:50:09.535210,218
2021-09-24 14:50:09.535220,223
2021-09-24 14:50:09.535227,216
2021-09-24 14:50:09.535233,201
2021-09-24 14:50:09.535240,196
2021-09-24 14:50:09.535246,194
2021-09-24 14:50:09.535253,184
2021-09-24 14:50:09.535259,174
2021-09-24 14:50:09.535266,165
2021-09-24 14:50:09.535272,153
2021-09-24 14:50:09.535279,140
2021-09-24 14:50:09.535285,136
2021-09-24 14:50:09.535292,131
2021-09-24 14:50:09.535298,116
2021-09-24 14:50:09.716833,102
2021-09-24 14:50:09.716862,92
2021-09-24 14:50:09.716985,85
2021-09-24 14:50:09.717006,75
2021-09-24 14:50:09.717019,65
2021-09-24 14:50:09.717031,58
2021-09-24 14:50:09.717043,51
2021-09-24 14:50:09.717098,46
2021-09-24 14:50:09.717120,51
2021-09-24 14:50:09.717133,55
2021-09-24 14:50:09.717146,58
2021-09-24 14:50:09.717158,60
2021-09-24 14:50:09.717169,53
2021-09-24 14:50:09.717181,46
2021-09-24 14:50:09.717220,53
2021-09-24 14:50:09.717228,55
2021-09-24 14:50:09.717235,53
2021-09-24 14:50:09.717241,55
2021-09-24 14:50:09.717248,53
2021-09-24 14:50:09.717255,51
2021-09-24 14:50:09.717261,53
2021-09-24 14:50:09.717268,53
2021-09-24 14:50:09.717275,53
2021-09-24 14:50:09.717281,53
2021-09-24 14:50:09.717288,53
2021-09-24 14:50:09.717294,53
2021-09-24 14:50:09.717301,55
2021-09-24 14:50:09.717308,53
2021-09-24 14:50:09.717314,55
2021-09-24 14:50:09.717322,55
2021-09-24 14:50:09.942121,51
2021-09-24 14:50:09.942154,46
2021-09-24 14:50:09.942166,43
2021-09-24 14:50:09.942177,38
2021-09-24 14:50:09.942187,41
2021-09-24 14:50:09.942197,41
2021-09-24 14:50:09.942207,34
2021-09-24 14:50:09.942217,36
2021-09-24 14:50:09.942227,36
2021-09-24 14:50:09.942238,19
2021-09-24 14:50:09.942247,2
2021-09-24 14:50:09.942258,2
2021-09-24 14:50:09.942268,7
2021-09-24 14:50:09.942278,2
2021-09-24 14:50:09.942288,0
2021-09-24 14:50:09.942298,19
2021-09-24 14:50:09.942308,38
2021-09-24 14:50:09.942318,51
2021-09-24 14:50:09.942328,51
2021-09-24 14:50:09.942338,46
2021-09-24 14:50:09.942348,48
2021-09-24 14:50:09.942358,53
2021-09-24 14:50:09.942368,53
2021-09-24 14:50:09.942378,53
2021-09-24 14:50:09.942396,51
2021-09-24 14:50:09.942406,46
2021-09-24 14:50:09.942416,31
2021-09-24 14:50:09.942426,-17
2021-09-24 14:50:09.942436,-138
2021-09-24 14:50:09.942446,-374
2021-09-24 14:50:10.166651,-556
2021-09-24 14:50:10.166672,-398
2021-09-24 14:50:10.166681,87
2021-09-24 14:50:10.166688,585
2021-09-24 14:50:10.166695,629
2021-09-24 14:50:10.166701,245
2021-09-24 14:50:10.166708,46
2021-09-24 14:50:10.166714,72
2021-09-24 14:50:10.166721,-24
2021-09-24 14:50:10.166728,-114
2021-09-24 14:50:10.166734,-94
2021-09-24 14:50:10.166741,-109
2021-09-24 14:50:10.166748,-143
2021-09-24 14:50:10.166766,-133
2021-09-24 14:50:10.166773,-133
2021-09-24 14:50:10.166779,-153
2021-09-24 14:50:10.166786,-162
2021-09-24 14:50:10.166793,-167
2021-09-24 14:50:10.166799,-174
2021-09-24 14:50:10.166806,-184
2021-09-24 14:50:10.166813,-199
2021-09-24 14:50:10.166819,-221
2021-09-24 14:50:10.166829,-240
2021-09-24 14:50:10.166835,-264
2021-09-24 14:50:10.166842,-291
2021-09-24 14:50:10.166849,-318
2021-09-24 14:50:10.166855,-344
2021-09-24 14:50:10.166862,-378
2021-09-24 14:50:10.166868,-403
2021-09-24 14:50:10.166875,-412
2021-09-24 14:50:10.392011,-403
2021-09-24 14:50:10.392034,-381
2021-09-24 14:50:10.392042,-347
2021-09-24 14:50:10.392049,-289
2021-09-24 14:50:10.392056,-206
2021-09-24 14:50:10.392062,-116
2021-09-24 14:50:10.392069,-24
2021-09-24 14:50:10.392075,63
2021-09-24 14:50:10.392082,131
2021-09-24 14:50:10.392088,172
2021-09-24 14:50:10.392095,191
2021-09-24 14:50:10.392102,201
2021-09-24 14:50:10.392108,211
2021-09-24 14:50:10.392115,216
2021-09-24 14:50:10.392121,213
2021-09-24 14:50:10.392128,204
2021-09-24 14:50:10.392134,196
2021-09-24 14:50:10.392141,196
2021-09-24 14:50:10.392147,189
2021-09-24 14:50:10.392154,172
2021-09-24 14:50:10.392161,160
2021-09-24 14:50:10.392167,150
2021-09-24 14:50:10.392174,131
2021-09-24 14:50:10.392181,114
2021-09-24 14:50:10.392192,111
2021-09-24 14:50:10.392198,106
2021-09-24 14:50:10.392205,97
2021-09-24 14:50:10.392211,89
2021-09-24 14:50:10.392218,82
2021-09-24 14:50:10.392224,82
2021-09-24 14:50:10.661590,85
2021-09-24 14:50:10.661612,85
2021-09-24 14:50:10.661619,82
2021-09-24 14:50:10.661625,75
2021-09-24 14:50:10.661631,65
2021-09-24 14:50:10.661636,68
2021-09-24 14:50:10.661642,75
2021-09-24 14:50:10.661648,72
2021-09-24 14:50:10.661654,65
2021-09-24 14:50:10.661660,58
2021-09-24 14:50:10.661666,51
2021-09-24 14:50:10.661672,58
2021-09-24 14:50:10.661678,63
2021-09-24 14:50:10.661684,60
2021-09-24 14:50:10.661689,60
2021-09-24 14:50:10.661695,55
2021-09-24 14:50:10.661701,46
2021-09-24 14:50:10.661707,46
2021-09-24 14:50:10.661713,51
2021-09-24 14:50:10.661719,51
2021-09-24 14:50:10.661725,53
2021-09-24 14:50:10.661730,46
2021-09-24 14:50:10.661736,41
2021-09-24 14:50:10.661742,48
2021-09-24 14:50:10.661748,51
2021-09-24 14:50:10.661754,51
2021-09-24 14:50:10.661759,53
2021-09-24 14:50:10.661765,48
2021-09-24 14:50:10.661771,48
2021-09-24 14:50:10.661777,53
2021-09-24 14:50:10.887080,51
2021-09-24 14:50:10.887111,53
2021-09-24 14:50:10.887123,53
2021-09-24 14:50:10.887133,38
2021-09-24 14:50:10.887143,24
2021-09-24 14:50:10.887153,17
2021-09-24 14:50:10.887163,12
2021-09-24 14:50:10.887173,14
2021-09-24 14:50:10.887183,14
2021-09-24 14:50:10.887192,4
2021-09-24 14:50:10.887202,9
2021-09-24 14:50:10.887212,29
2021-09-24 14:50:10.887222,48
2021-09-24 14:50:10.887232,51
2021-09-24 14:50:10.887242,43
2021-09-24 14:50:10.887252,36
2021-09-24 14:50:10.887262,41
2021-09-24 14:50:10.887272,51
2021-09-24 14:50:10.887282,51
2021-09-24 14:50:10.887292,48
2021-09-24 14:50:10.887302,48
2021-09-24 14:50:10.887311,34
2021-09-24 14:50:10.887321,2
2021-09-24 14:50:10.887331,-53
2021-09-24 14:50:10.887341,-208
2021-09-24 14:50:10.887351,-471
2021-09-24 14:50:10.887361,-563
2021-09-24 14:50:10.887371,-252
2021-09-24 14:50:10.887381,310
2021-09-24 14:50:10.887391,689
2021-09-24 14:50:11.156900,517
2021-09-24 14:50:11.156931,150
2021-09-24 14:50:11.156943,70
2021-09-24 14:50:11.156953,51
2021-09-24 14:50:11.156964,-63
2021-09-24 14:50:11.156974,-80
2021-09-24 14:50:11.156984,-46
2021-09-24 14:50:11.156994,-75
2021-09-24 14:50:11.157003,-111
2021-09-24 14:50:11.157013,-114
2021-09-24 14:50:11.157027,-119
2021-09-24 14:50:11.157038,-133
2021-09-24 14:50:11.157048,-150
2021-09-24 14:50:11.157058,-160
2021-09-24 14:50:11.157068,-179
2021-09-24 14:50:11.157077,-194
2021-09-24 14:50:11.157088,-204
2021-09-24 14:50:11.157098,-223
2021-09-24 14:50:11.157108,-252
2021-09-24 14:50:11.157118,-281
2021-09-24 14:50:11.157127,-315
2021-09-24 14:50:11.157137,-361
2021-09-24 14:50:11.157147,-398
2021-09-24 14:50:11.157157,-412
2021-09-24 14:50:11.157167,-422
2021-09-24 14:50:11.157177,-434
2021-09-24 14:50:11.157187,-425
2021-09-24 14:50:11.157197,-393
2021-09-24 14:50:11.157207,-344
2021-09-24 14:50:11.157217,-272
2021-09-24 14:50:11.381672,-174
2021-09-24 14:50:11.381691,-70
2021-09-24 14:50:11.381699,17
2021-09-24 14:50:11.381706,89
2021-09-24 14:50:11.381712,145
2021-09-24 14:50:11.381719,184
2021-09-24 14:50:11.381725,201
2021-09-24 14:50:11.381732,201
2021-09-24 14:50:11.381738,194
2021-09-24 14:50:11.381744,196
2021-09-24 14:50:11.381751,196
2021-09-24 14:50:11.381757,184
2021-09-24 14:50:11.381764,179
2021-09-24 14:50:11.381770,174
2021-09-24 14:50:11.381777,157
2021-09-24 14:50:11.381783,140
2021-09-24 14:50:11.381789,136
2021-09-24 14:50:11.381796,128
2021-09-24 14:50:11.381802,119
2021-09-24 14:50:11.381809,104
2021-09-24 14:50:11.381815,94
2021-09-24 14:50:11.381822,89
2021-09-24 14:50:11.381828,89
2021-09-24 14:50:11.381835,89
2021-09-24 14:50:11.381841,92
2021-09-24 14:50:11.381851,85
2021-09-24 14:50:11.381857,80
2021-09-24 14:50:11.381864,85
2021-09-24 14:50:11.381870,87
2021-09-24 14:50:11.381877,89
2021-09-24 14:50:11.696387,92
2021-09-24 14:50:11.696410,97
2021-09-24 14:50:11.696418,97
2021-09-24 14:50:11.696425,89
2021-09-24 14:50:11.696431,87
2021-09-24 14:50:11.696438,89
2021-09-24 14:50:11.696444,89
2021-09-24 14:50:11.696451,89
2021-09-24 14:50:11.696457,92
2021-09-24 14:50:11.696463,89
2021-09-24 14:50:11.696470,87
2021-09-24 14:50:11.696476,85
2021-09-24 14:50:11.696483,80
2021-09-24 14:50:11.696489,75
2021-09-24 14:50:11.696495,75
2021-09-24 14:50:11.696502,68
2021-09-24 14:50:11.696508,53
2021-09-24 14:50:11.696515,48
2021-09-24 14:50:11.696521,46
2021-09-24 14:50:11.696527,34
2021-09-24 14:50:11.696534,34
2021-09-24 14:50:11.696540,36
2021-09-24 14:50:11.696546,34
2021-09-24 14:50:11.696553,34
2021-09-24 14:50:11.696559,34
2021-09-24 14:50:11.696566,34
2021-09-24 14:50:11.696572,21
2021-09-24 14:50:11.696579,9
2021-09-24 14:50:11.696585,14
2021-09-24 14:50:11.696591,4
2021-09-24 14:50:11.787023,-14
2021-09-24 14:50:11.787047,-9
2021-09-24 14:50:11.787054,-2
2021-09-24 14:50:11.787061,-14
2021-09-24 14:50:11.787068,-14
2021-09-24 14:50:11.787074,9
2021-09-24 14:50:11.787081,19
2021-09-24 14:50:11.787087,17
2021-09-24 14:50:11.787094,21
2021-09-24 14:50:11.787100,24
2021-09-24 14:50:11.787107,26
2021-09-24 14:50:11.787113,26
2021-09-24 14:50:11.787120,19
2021-09-24 14:50:11.787126,14
2021-09-24 14:50:11.787133,19
2021-09-24 14:50:11.787139,14
2021-09-24 14:50:11.787150,-9
2021-09-24 14:50:11.787157,-63
2021-09-24 14:50:11.787163,-211
2021-09-24 14:50:11.787170,-476
2021-09-24 14:50:11.787176,-609
2021-09-24 14:50:11.787182,-349
2021-09-24 14:50:11.787189,213
2021-09-24 14:50:11.787195,636
2021-09-24 14:50:11.787202,505
2021-09-24 14:50:11.787208,140
2021-09-24 14:50:11.787215,58
2021-09-24 14:50:11.787221,58
2021-09-24 14:50:11.787228,-65
2021-09-24 14:50:11.787234,-114
2021-09-24 14:50:12.057065,-82
2021-09-24 14:50:12.057090,-94
2021-09-24 14:50:12.057098,-123
2021-09-24 14:50:12.057105,-123
2021-09-24 14:50:12.057112,-128
2021-09-24 14:50:12.057119,-148
2021-09-24 14:50:12.057126,-162
2021-09-24 14:50:12.057133,-170
2021-09-24 14:50:12.057140,-187
2021-09-24 14:50:12.057147,-206
2021-09-24 14:50:12.057154,-223
2021-09-24 14:50:12.057161,-252
2021-09-24 14:50:12.057168,-276
2021-09-24 14:50:12.057175,-291
2021-09-24 14:50:12.057182,-323
2021-09-24 14:50:12.057189,-361
2021-09-24 14:50:12.057196,-386
2021-09-24 14:50:12.057203,-408
2021-09-24 14:50:12.057210,-427
2021-09-24 14:50:12.057217,-429
2021-09-24 14:50:12.057224,-425
2021-09-24 14:50:12.057231,-405
2021-09-24 14:50:12.057237,-354
2021-09-24 14:50:12.057244,-279
2021-09-24 14:50:12.057251,-196
2021-09-24 14:50:12.057258,-102
2021-09-24 14:50:12.057265,-12
2021-09-24 14:50:12.057272,58
2021-09-24 14:50:12.057279,119
2021-09-24 14:50:12.057286,162
2021-09-24 14:50:12.236432,187
2021-09-24 14:50:12.236452,194
2021-09-24 14:50:12.236460,187
2021-09-24 14:50:12.236466,179
2021-09-24 14:50:12.236473,174
2021-09-24 14:50:12.236480,172
2021-09-24 14:50:12.236486,170
2021-09-24 14:50:12.236493,162
2021-09-24 14:50:12.236499,153
2021-09-24 14:50:12.236506,140
2021-09-24 14:50:12.236512,131
2021-09-24 14:50:12.236519,116
2021-09-24 14:50:12.236525,109
2021-09-24 14:50:12.236535,106
2021-09-24 14:50:12.236542,97
2021-09-24 14:50:12.236548,87
2021-09-24 14:50:12.236555,82
2021-09-24 14:50:12.236561,77
2021-09-24 14:50:12.236568,68
2021-09-24 14:50:12.236574,72
2021-09-24 14:50:12.236581,75
2021-09-24 14:50:12.236587,72
2021-09-24 14:50:12.236594,68
2021-09-24 14:50:12.236600,70
2021-09-24 14:50:12.236607,75
2021-09-24 14:50:12.236614,77
2021-09-24 14:50:12.236620,75
2021-09-24 14:50:12.236627,75
2021-09-24 14:50:12.236633,75
2021-09-24 14:50:12.236640,77
2021-09-24 14:50:12.461529,77
2021-09-24 14:50:12.461549,77
2021-09-24 14:50:12.461557,77
2021-09-24 14:50:12.461564,68
2021-09-24 14:50:12.461570,63
2021-09-24 14:50:12.461577,68
2021-09-24 14:50:12.461583,68
2021-09-24 14:50:12.461590,63
2021-09-24 14:50:12.461596,60
2021-09-24 14:50:12.461603,60
2021-09-24 14:50:12.461609,53
2021-09-24 14:50:12.461616,51
2021-09-24 14:50:12.461623,53
2021-09-24 14:50:12.461629,55
2021-09-24 14:50:12.461636,53
2021-09-24 14:50:12.461642,53
2021-09-24 14:50:12.461648,46
2021-09-24 14:50:12.461655,29
2021-09-24 14:50:12.461661,17
2021-09-24 14:50:12.461668,26
2021-09-24 14:50:12.461674,26
2021-09-24 14:50:12.461681,7
2021-09-24 14:50:12.461687,14
2021-09-24 14:50:12.461694,41
2021-09-24 14:50:12.461700,51
2021-09-24 14:50:12.461706,46
2021-09-24 14:50:12.461713,51
2021-09-24 14:50:12.461719,48
2021-09-24 14:50:12.461726,46
2021-09-24 14:50:12.461732,51
2021-09-24 14:50:12.731703,55
2021-09-24 14:50:12.731726,55
2021-09-24 14:50:12.731734,48
2021-09-24 14:50:12.731741,24
2021-09-24 14:50:12.731748,-24
2021-09-24 14:50:12.731754,-102
2021-09-24 14:50:12.731761,-289
2021-09-24 14:50:12.731767,-524
2021-09-24 14:50:12.731774,-502
2021-09-24 14:50:12.731780,-70
2021-09-24 14:50:12.731787,500
2021-09-24 14:50:12.731793,653
2021-09-24 14:50:12.731800,298
2021-09-24 14:50:12.731806,63
2021-09-24 14:50:12.731813,82
2021-09-24 14:50:12.731819,0
2021-09-24 14:50:12.731826,-106
2021-09-24 14:50:12.731838,-87
2021-09-24 14:50:12.731845,-72
2021-09-24 14:50:12.731852,-109
2021-09-24 14:50:12.731858,-121
2021-09-24 14:50:12.731865,-116
2021-09-24 14:50:12.731871,-131
2021-09-24 14:50:12.731878,-143
2021-09-24 14:50:12.731884,-145
2021-09-24 14:50:12.731891,-157
2021-09-24 14:50:12.731897,-182
2021-09-24 14:50:12.731904,-206
2021-09-24 14:50:12.731910,-223
2021-09-24 14:50:12.731917,-240
2021-09-24 14:50:13.002060,-267
2021-09-24 14:50:13.002092,-298
2021-09-24 14:50:13.002105,-335
2021-09-24 14:50:13.002115,-371
2021-09-24 14:50:13.002125,-398
2021-09-24 14:50:13.002135,-412
2021-09-24 14:50:13.002145,-420
2021-09-24 14:50:13.002155,-415
2021-09-24 14:50:13.002165,-403
2021-09-24 14:50:13.002176,-369
2021-09-24 14:50:13.002186,-298
2021-09-24 14:50:13.002196,-204
2021-09-24 14:50:13.002206,-104
2021-09-24 14:50:13.002216,-9
2021-09-24 14:50:13.002226,68
2021-09-24 14:50:13.002236,128
2021-09-24 14:50:13.002246,174
2021-09-24 14:50:13.002256,196
2021-09-24 14:50:13.002266,204
2021-09-24 14:50:13.002276,211
2021-09-24 14:50:13.002286,208
2021-09-24 14:50:13.002296,199
2021-09-24 14:50:13.002306,196
2021-09-24 14:50:13.002317,194
2021-09-24 14:50:13.002327,182
2021-09-24 14:50:13.002337,172
2021-09-24 14:50:13.002347,157
2021-09-24 14:50:13.002357,143
2021-09-24 14:50:13.002367,131
2021-09-24 14:50:13.002377,121
2021-09-24 14:50:13.181700,116
2021-09-24 14:50:13.181722,111
2021-09-24 14:50:13.181730,99
2021-09-24 14:50:13.181737,89
2021-09-24 14:50:13.181743,87
2021-09-24 14:50:13.181750,94
2021-09-24 14:50:13.181756,94
2021-09-24 14:50:13.181763,82
2021-09-24 14:50:13.181769,72
2021-09-24 14:50:13.181776,75
2021-09-24 14:50:13.181782,85
2021-09-24 14:50:13.181789,85
2021-09-24 14:50:13.181795,82
2021-09-24 14:50:13.181802,77
2021-09-24 14:50:13.181808,65
2021-09-24 14:50:13.181814,68
2021-09-24 14:50:13.181821,75
2021-09-24 14:50:13.181827,72
2021-09-24 14:50:13.181834,68
2021-09-24 14:50:13.181840,70
2021-09-24 14:50:13.181847,68
2021-09-24 14:50:13.181854,63
2021-09-24 14:50:13.181860,65
2021-09-24 14:50:13.181867,72
2021-09-24 14:50:13.181873,70
2021-09-24 14:50:13.181880,63
2021-09-24 14:50:13.181886,60
2021-09-24 14:50:13.181893,63
2021-09-24 14:50:13.181899,68
2021-09-24 14:50:13.181912,75
2021-09-24 14:50:13.407118,68
2021-09-24 14:50:13.407141,43
2021-09-24 14:50:13.407149,24
2021-09-24 14:50:13.407156,24
2021-09-24 14:50:13.407163,24
2021-09-24 14:50:13.407170,19
2021-09-24 14:50:13.407176,24
2021-09-24 14:50:13.407183,38
2021-09-24 14:50:13.407190,48
2021-09-24 14:50:13.407196,48
2021-09-24 14:50:13.407203,51
2021-09-24 14:50:13.407209,53
2021-09-24 14:50:13.407216,48
2021-09-24 14:50:13.407222,43
2021-09-24 14:50:13.407229,43
2021-09-24 14:50:13.407235,46
2021-09-24 14:50:13.407242,43
2021-09-24 14:50:13.407249,34
2021-09-24 14:50:13.407255,0
2021-09-24 14:50:13.407262,-70
2021-09-24 14:50:13.407269,-233
2021-09-24 14:50:13.407275,-466
2021-09-24 14:50:13.407282,-505
2021-09-24 14:50:13.407288,-157
2021-09-24 14:50:13.407295,410
2021-09-24 14:50:13.407302,704
2021-09-24 14:50:13.407308,442
2021-09-24 14:50:13.407315,123
2021-09-24 14:50:13.407321,97
2021-09-24 14:50:13.407328,53
2021-09-24 14:50:13.675532,-70
2021-09-24 14:50:13.675554,-80
2021-09-24 14:50:13.675561,-55
2021-09-24 14:50:13.675568,-89
2021-09-24 14:50:13.675575,-111
2021-09-24 14:50:13.675581,-106
2021-09-24 14:50:13.675588,-123
2021-09-24 14:50:13.675594,-140
2021-09-24 14:50:13.675601,-145
2021-09-24 14:50:13.675607,-155
2021-09-24 14:50:13.675614,-167
2021-09-24 14:50:13.675621,-182
2021-09-24 14:50:13.675627,-208
2021-09-24 14:50:13.675634,-235
2021-09-24 14:50:13.675640,-255
2021-09-24 14:50:13.675647,-281
2021-09-24 14:50:13.675653,-313
2021-09-24 14:50:13.675660,-344
2021-09-24 14:50:13.675666,-378
2021-09-24 14:50:13.675673,-403
2021-09-24 14:50:13.675679,-420
2021-09-24 14:50:13.675686,-425
2021-09-24 14:50:13.675692,-405
2021-09-24 14:50:13.675699,-364
2021-09-24 14:50:13.675705,-301
2021-09-24 14:50:13.675712,-208
2021-09-24 14:50:13.675718,-106
2021-09-24 14:50:13.675724,-17
2021-09-24 14:50:13.675731,65
2021-09-24 14:50:13.675738,138
2021-09-24 14:50:13.856581,182
2021-09-24 14:50:13.856602,206
2021-09-24 14:50:13.856609,223
2021-09-24 14:50:13.856616,225
2021-09-24 14:50:13.856623,221
2021-09-24 14:50:13.856630,208
2021-09-24 14:50:13.856637,196
2021-09-24 14:50:13.856643,194
2021-09-24 14:50:13.856650,191
2021-09-24 14:50:13.856656,179
2021-09-24 14:50:13.856663,170
2021-09-24 14:50:13.856669,160
2021-09-24 14:50:13.856676,140
2021-09-24 14:50:13.856682,126
2021-09-24 14:50:13.856689,119
2021-09-24 14:50:13.856696,109
2021-09-24 14:50:13.856702,92
2021-09-24 14:50:13.856709,82
2021-09-24 14:50:13.856715,80
2021-09-24 14:50:13.856722,80
2021-09-24 14:50:13.856734,75
2021-09-24 14:50:13.856741,72
2021-09-24 14:50:13.856751,77
2021-09-24 14:50:13.856757,77
2021-09-24 14:50:13.856778,72
2021-09-24 14:50:13.856784,77
2021-09-24 14:50:13.856790,82
2021-09-24 14:50:13.856795,82
2021-09-24 14:50:13.856801,82
2021-09-24 14:50:13.856807,85
2021-09-24 14:50:14.082090,85
2021-09-24 14:50:14.082123,82
2021-09-24 14:50:14.082135,82
2021-09-24 14:50:14.082146,82
2021-09-24 14:50:14.082156,75
2021-09-24 14:50:14.082166,65
2021-09-24 14:50:14.082176,60
2021-09-24 14:50:14.082186,58
2021-09-24 14:50:14.082195,53
2021-09-24 14:50:14.082205,53
2021-09-24 14:50:14.082216,51
2021-09-24 14:50:14.082226,46
2021-09-24 14:50:14.082236,46
2021-09-24 14:50:14.082246,53
2021-09-24 14:50:14.082256,58
2021-09-24 14:50:14.082283,60
2021-09-24 14:50:14.082293,53
2021-09-24 14:50:14.082303,36
2021-09-24 14:50:14.082314,24
2021-09-24 14:50:14.082324,21
2021-09-24 14:50:14.082334,26
2021-09-24 14:50:14.082344,21
2021-09-24 14:50:14.082354,17
2021-09-24 14:50:14.082364,31
2021-09-24 14:50:14.082374,51
2021-09-24 14:50:14.082384,53
2021-09-24 14:50:14.082394,51
2021-09-24 14:50:14.082404,48
2021-09-24 14:50:14.082414,48
2021-09-24 14:50:14.082424,48
2021-09-24 14:50:14.307143,53
2021-09-24 14:50:14.307167,58
2021-09-24 14:50:14.307175,55
2021-09-24 14:50:14.307182,48
2021-09-24 14:50:14.307189,12
2021-09-24 14:50:14.307196,-46
2021-09-24 14:50:14.307203,-167
2021-09-24 14:50:14.307210,-417
2021-09-24 14:50:14.307216,-563
2021-09-24 14:50:14.307223,-327
2021-09-24 14:50:14.307230,189
2021-09-24 14:50:14.307237,634
2021-09-24 14:50:14.307244,580
2021-09-24 14:50:14.307251,196
2021-09-24 14:50:14.307258,63
2021-09-24 14:50:14.307265,70
2021-09-24 14:50:14.307272,-51
2021-09-24 14:50:14.307279,-102
2021-09-24 14:50:14.307285,-60
2021-09-24 14:50:14.307292,-75
2021-09-24 14:50:14.307299,-104
2021-09-24 14:50:14.307306,-99
2021-09-24 14:50:14.307313,-106
2021-09-24 14:50:14.307320,-126
2021-09-24 14:50:14.307327,-128
2021-09-24 14:50:14.307334,-131
2021-09-24 14:50:14.307340,-148
2021-09-24 14:50:14.307347,-167
2021-09-24 14:50:14.307354,-184
2021-09-24 14:50:14.307361,-201
2021-09-24 14:50:14.577064,-223
2021-09-24 14:50:14.577085,-250
2021-09-24 14:50:14.577092,-286
2021-09-24 14:50:14.577099,-330
2021-09-24 14:50:14.577105,-369
2021-09-24 14:50:14.577112,-393
2021-09-24 14:50:14.577118,-405
2021-09-24 14:50:14.577125,-412
2021-09-24 14:50:14.577132,-412
2021-09-24 14:50:14.577138,-395
2021-09-24 14:50:14.577145,-349
2021-09-24 14:50:14.577151,-267
2021-09-24 14:50:14.577158,-157
2021-09-24 14:50:14.577164,-46
2021-09-24 14:50:14.577171,43
2021-09-24 14:50:14.577177,114
2021-09-24 14:50:14.577184,174
2021-09-24 14:50:14.577190,213
2021-09-24 14:50:14.577197,238
2021-09-24 14:50:14.577203,247
2021-09-24 14:50:14.577210,245
2021-09-24 14:50:14.577216,240
2021-09-24 14:50:14.577226,235
2021-09-24 14:50:14.577232,230
2021-09-24 14:50:14.577239,223
2021-09-24 14:50:14.577245,213
2021-09-24 14:50:14.577252,199
2021-09-24 14:50:14.577258,184
2021-09-24 14:50:14.577265,182
2021-09-24 14:50:14.577271,177
2021-09-24 14:50:14.801794,160
2021-09-24 14:50:14.801814,140
2021-09-24 14:50:14.801822,126
2021-09-24 14:50:14.801829,114
2021-09-24 14:50:14.801836,109
2021-09-24 14:50:14.801843,109
2021-09-24 14:50:14.801849,109
2021-09-24 14:50:14.801856,102
2021-09-24 14:50:14.801862,89
2021-09-24 14:50:14.801868,75
2021-09-24 14:50:14.801875,72
2021-09-24 14:50:14.801882,77
2021-09-24 14:50:14.801888,68
2021-09-24 14:50:14.801895,60
2021-09-24 14:50:14.801901,53
2021-09-24 14:50:14.801908,46
2021-09-24 14:50:14.801914,51
2021-09-24 14:50:14.801921,55
2021-09-24 14:50:14.801927,53
2021-09-24 14:50:14.801934,53
2021-09-24 14:50:14.801940,51
2021-09-24 14:50:14.801947,46
2021-09-24 14:50:14.801953,51
2021-09-24 14:50:14.801960,53
2021-09-24 14:50:14.801966,55
2021-09-24 14:50:14.801973,58
2021-09-24 14:50:14.801979,53
2021-09-24 14:50:14.801986,48
2021-09-24 14:50:14.801992,51
2021-09-24 14:50:14.801999,48
2021-09-24 14:50:15.027004,51
2021-09-24 14:50:15.027027,53
2021-09-24 14:50:15.027035,55
2021-09-24 14:50:15.027042,51
2021-09-24 14:50:15.027049,38
2021-09-24 14:50:15.027056,17
2021-09-24 14:50:15.027063,14
2021-09-24 14:50:15.027070,21
2021-09-24 14:50:15.027077,4
2021-09-24 14:50:15.027084,0
2021-09-24 14:50:15.027091,24
2021-09-24 14:50:15.027097,46
2021-09-24 14:50:15.027104,55
2021-09-24 14:50:15.027111,55
2021-09-24 14:50:15.027118,41
2021-09-24 14:50:15.027125,31
2021-09-24 14:50:15.027132,34
2021-09-24 14:50:15.027138,38
2021-09-24 14:50:15.027145,41
2021-09-24 14:50:15.027152,31
2021-09-24 14:50:15.027159,24
2021-09-24 14:50:15.027166,12
2021-09-24 14:50:15.027173,-31
2021-09-24 14:50:15.027180,-150
2021-09-24 14:50:15.027186,-398
2021-09-24 14:50:15.027193,-585
2021-09-24 14:50:15.027200,-410
2021-09-24 14:50:15.027207,99
2021-09-24 14:50:15.027214,609
2021-09-24 14:50:15.027221,641
2021-09-24 14:50:15.341457,252
2021-09-24 14:50:15.341481,60
2021-09-24 14:50:15.341489,75
2021-09-24 14:50:15.341496,-26
2021-09-24 14:50:15.341503,-99
2021-09-24 14:50:15.341509,-63
2021-09-24 14:50:15.341516,-87
2021-09-24 14:50:15.341522,-143
2021-09-24 14:50:15.341529,-136
2021-09-24 14:50:15.341535,-128
2021-09-24 14:50:15.341542,-153
2021-09-24 14:50:15.341548,-160
2021-09-24 14:50:15.341555,-162
2021-09-24 14:50:15.341561,-184
2021-09-24 14:50:15.341568,-201
2021-09-24 14:50:15.341574,-206
2021-09-24 14:50:15.341580,-228
2021-09-24 14:50:15.341587,-262
2021-09-24 14:50:15.341594,-289
2021-09-24 14:50:15.341600,-318
2021-09-24 14:50:15.341607,-352
2021-09-24 14:50:15.341613,-386
2021-09-24 14:50:15.341620,-408
2021-09-24 14:50:15.341626,-425
2021-09-24 14:50:15.341633,-432
2021-09-24 14:50:15.341639,-429
2021-09-24 14:50:15.341645,-410
2021-09-24 14:50:15.341652,-361
2021-09-24 14:50:15.341658,-281
2021-09-24 14:50:15.341665,-177
2021-09-24 14:50:15.527453,-72
2021-09-24 14:50:15.527477,21
2021-09-24 14:50:15.527488,104
2021-09-24 14:50:15.527497,167
2021-09-24 14:50:15.529629,208
2021-09-24 14:50:15.529649,230
2021-09-24 14:50:15.529659,233
2021-09-24 14:50:15.529668,230
2021-09-24 14:50:15.529676,233
2021-09-24 14:50:15.529683,233
2021-09-24 14:50:15.529692,230
2021-09-24 14:50:15.529701,218
2021-09-24 14:50:15.529723,201
2021-09-24 14:50:15.529734,194
2021-09-24 14:50:15.529742,191
2021-09-24 14:50:15.529750,177
2021-09-24 14:50:15.529759,162
2021-09-24 14:50:15.529768,155
2021-09-24 14:50:15.529776,138
2021-09-24 14:50:15.529784,123
2021-09-24 14:50:15.529793,119
2021-09-24 14:50:15.529802,111
2021-09-24 14:50:15.529810,106
2021-09-24 14:50:15.529819,106
2021-09-24 14:50:15.529827,97
2021-09-24 14:50:15.529836,92
2021-09-24 14:50:15.529844,97
2021-09-24 14:50:15.529852,94
2021-09-24 14:50:15.529860,89
2021-09-24 14:50:15.529869,89
2021-09-24 14:50:15.745612,89
2021-09-24 14:50:15.745640,94
2021-09-24 14:50:15.745656,97
2021-09-24 14:50:15.745667,87
2021-09-24 14:50:15.745678,82
2021-09-24 14:50:15.745689,80
2021-09-24 14:50:15.745735,65
2021-09-24 14:50:15.745757,63
2021-09-24 14:50:15.745771,70
2021-09-24 14:50:15.745782,65
2021-09-24 14:50:15.745805,58
2021-09-24 14:50:15.745818,53
2021-09-24 14:50:15.745830,41
2021-09-24 14:50:15.745840,43
2021-09-24 14:50:15.745851,48
2021-09-24 14:50:15.745862,41
2021-09-24 14:50:15.745873,38
2021-09-24 14:50:15.745885,36
2021-09-24 14:50:15.745905,29
2021-09-24 14:50:15.745921,31
2021-09-24 14:50:15.745932,36
2021-09-24 14:50:15.745943,31
2021-09-24 14:50:15.745954,21
2021-09-24 14:50:15.745966,4
2021-09-24 14:50:15.745978,-9
2021-09-24 14:50:15.746002,-2
2021-09-24 14:50:15.746014,4
2021-09-24 14:50:15.746025,-4
2021-09-24 14:50:15.746037,-4
2021-09-24 14:50:15.746048,19
2021-09-24 14:50:15.926708,38
2021-09-24 14:50:15.926729,43
2021-09-24 14:50:15.926736,43
2021-09-24 14:50:15.926742,41
2021-09-24 14:50:15.926748,41
2021-09-24 14:50:15.926754,36
2021-09-24 14:50:15.926759,34
2021-09-24 14:50:15.926765,41
2021-09-24 14:50:15.926771,41
2021-09-24 14:50:15.926777,34
2021-09-24 14:50:15.926782,4
2021-09-24 14:50:15.926788,-53
2021-09-24 14:50:15.926794,-191
2021-09-24 14:50:15.926800,-451
2021-09-24 14:50:15.926806,-597
2021-09-24 14:50:15.926811,-344
2021-09-24 14:50:15.926817,213
2021-09-24 14:50:15.926823,658
2021-09-24 14:50:15.926829,561
2021-09-24 14:50:15.926834,174
2021-09-24 14:50:15.926840,55
2021-09-24 14:50:15.926846,58
2021-09-24 14:50:15.926852,-63
2021-09-24 14:50:15.926857,-111
2021-09-24 14:50:15.926863,-72
2021-09-24 14:50:15.926869,-92
2021-09-24 14:50:15.926874,-119
2021-09-24 14:50:15.926880,-114
2021-09-24 14:50:15.926886,-123
2021-09-24 14:50:15.926891,-143
2021-09-24 14:50:16.152124,-145
2021-09-24 14:50:16.152154,-150
2021-09-24 14:50:16.152166,-167
2021-09-24 14:50:16.152176,-187
2021-09-24 14:50:16.152287,-208
2021-09-24 14:50:16.152328,-233
2021-09-24 14:50:16.152348,-252
2021-09-24 14:50:16.152364,-272
2021-09-24 14:50:16.152382,-303
2021-09-24 14:50:16.152395,-349
2021-09-24 14:50:16.152405,-386
2021-09-24 14:50:16.152421,-410
2021-09-24 14:50:16.152434,-425
2021-09-24 14:50:16.152445,-427
2021-09-24 14:50:16.152455,-417
2021-09-24 14:50:16.152465,-395
2021-09-24 14:50:16.152475,-349
2021-09-24 14:50:16.152485,-272
2021-09-24 14:50:16.152495,-172
2021-09-24 14:50:16.152505,-70
2021-09-24 14:50:16.152515,24
2021-09-24 14:50:16.152525,99
2021-09-24 14:50:16.152535,155
2021-09-24 14:50:16.152545,196
2021-09-24 14:50:16.152555,218
2021-09-24 14:50:16.152567,221
2021-09-24 14:50:16.152585,216
2021-09-24 14:50:16.152604,213
2021-09-24 14:50:16.152629,211
2021-09-24 14:50:16.152654,213
2021-09-24 14:50:16.421967,211
2021-09-24 14:50:16.421992,204
2021-09-24 14:50:16.422000,187
2021-09-24 14:50:16.422006,167
2021-09-24 14:50:16.422013,150
2021-09-24 14:50:16.422019,138
2021-09-24 14:50:16.422026,131
2021-09-24 14:50:16.422032,126
2021-09-24 14:50:16.422039,116
2021-09-24 14:50:16.422045,97
2021-09-24 14:50:16.422052,85
2021-09-24 14:50:16.422058,82
2021-09-24 14:50:16.422065,87
2021-09-24 14:50:16.422071,89
2021-09-24 14:50:16.422077,89
2021-09-24 14:50:16.422084,87
2021-09-24 14:50:16.422090,85
2021-09-24 14:50:16.422097,89
2021-09-24 14:50:16.422103,89
2021-09-24 14:50:16.422110,92
2021-09-24 14:50:16.422116,87
2021-09-24 14:50:16.422122,72
2021-09-24 14:50:16.422129,70
2021-09-24 14:50:16.422135,72
2021-09-24 14:50:16.422142,65
2021-09-24 14:50:16.422148,68
2021-09-24 14:50:16.422155,68
2021-09-24 14:50:16.422161,55
2021-09-24 14:50:16.422167,48
2021-09-24 14:50:16.422174,55
2021-09-24 14:50:16.646305,60
2021-09-24 14:50:16.646324,55
2021-09-24 14:50:16.646333,51
2021-09-24 14:50:16.646338,43
2021-09-24 14:50:16.646343,38
2021-09-24 14:50:16.646347,41
2021-09-24 14:50:16.646352,46
2021-09-24 14:50:16.646356,51
2021-09-24 14:50:16.646361,43
2021-09-24 14:50:16.646365,31
2021-09-24 14:50:16.646370,26
2021-09-24 14:50:16.646374,21
2021-09-24 14:50:16.646379,7
2021-09-24 14:50:16.646383,4
2021-09-24 14:50:16.646388,2
2021-09-24 14:50:16.646392,-12
2021-09-24 14:50:16.646397,-4
2021-09-24 14:50:16.646401,19
2021-09-24 14:50:16.646406,34
2021-09-24 14:50:16.646410,38
2021-09-24 14:50:16.646415,31
2021-09-24 14:50:16.646420,26
2021-09-24 14:50:16.646424,29
2021-09-24 14:50:16.646429,24
2021-09-24 14:50:16.646433,17
2021-09-24 14:50:16.646438,21
2021-09-24 14:50:16.646442,19
2021-09-24 14:50:16.646447,7
2021-09-24 14:50:16.646451,-9
2021-09-24 14:50:16.646456,-55
2021-09-24 14:50:16.872482,-187
2021-09-24 14:50:16.872522,-432
2021-09-24 14:50:16.872706,-621
2021-09-24 14:50:16.872766,-434
2021-09-24 14:50:16.872796,131
2021-09-24 14:50:16.872817,626
2021-09-24 14:50:16.872829,556
2021-09-24 14:50:16.872843,160
2021-09-24 14:50:16.872854,38
2021-09-24 14:50:16.872867,53
2021-09-24 14:50:16.872880,-68
2021-09-24 14:50:16.872892,-128
2021-09-24 14:50:16.872910,-87
2021-09-24 14:50:16.872952,-104
2021-09-24 14:50:16.872971,-148
2021-09-24 14:50:16.872978,-145
2021-09-24 14:50:16.872986,-138
2021-09-24 14:50:16.872993,-148
2021-09-24 14:50:16.872999,-160
2021-09-24 14:50:16.873005,-172
2021-09-24 14:50:16.873012,-189
2021-09-24 14:50:16.873018,-206
2021-09-24 14:50:16.873024,-213
2021-09-24 14:50:16.873030,-230
2021-09-24 14:50:16.873035,-257
2021-09-24 14:50:16.873041,-284
2021-09-24 14:50:16.873047,-313
2021-09-24 14:50:16.873054,-349
2021-09-24 14:50:16.873060,-383
2021-09-24 14:50:16.873067,-403
2021-09-24 14:50:17.096370,-417
2021-09-24 14:50:17.096385,-429
2021-09-24 14:50:17.096390,-427
2021-09-24 14:50:17.096395,-395
2021-09-24 14:50:17.096399,-340
2021-09-24 14:50:17.096404,-257
2021-09-24 14:50:17.096408,-167
2021-09-24 14:50:17.096413,-72
2021-09-24 14:50:17.096417,17
2021-09-24 14:50:17.096422,97
2021-09-24 14:50:17.096426,157
2021-09-24 14:50:17.096431,196
2021-09-24 14:50:17.096435,211
2021-09-24 14:50:17.096440,213
2021-09-24 14:50:17.096444,216
2021-09-24 14:50:17.096449,221
2021-09-24 14:50:17.096453,216
2021-09-24 14:50:17.096458,208
2021-09-24 14:50:17.096462,201
2021-09-24 14:50:17.096466,187
2021-09-24 14:50:17.096471,172
2021-09-24 14:50:17.096475,165
2021-09-24 14:50:17.096480,153
2021-09-24 14:50:17.096484,138
2021-09-24 14:50:17.096489,131
2021-09-24 14:50:17.096493,126
2021-09-24 14:50:17.096498,119
2021-09-24 14:50:17.096502,109
2021-09-24 14:50:17.096507,99
2021-09-24 14:50:17.096511,87
2021-09-24 14:50:17.366260,87
2021-09-24 14:50:17.366281,87
2021-09-24 14:50:17.366287,80
2021-09-24 14:50:17.366291,77
2021-09-24 14:50:17.366296,70
2021-09-24 14:50:17.366300,58
2021-09-24 14:50:17.366305,55
2021-09-24 14:50:17.366309,53
2021-09-24 14:50:17.366313,48
2021-09-24 14:50:17.366318,48
2021-09-24 14:50:17.366322,53
2021-09-24 14:50:17.366329,53
2021-09-24 14:50:17.366333,46
2021-09-24 14:50:17.366338,38
2021-09-24 14:50:17.366342,38
2021-09-24 14:50:17.366347,41
2021-09-24 14:50:17.366351,41
2021-09-24 14:50:17.366355,43
2021-09-24 14:50:17.366360,46
2021-09-24 14:50:17.366364,43
2021-09-24 14:50:17.366368,36
2021-09-24 14:50:17.366373,41
2021-09-24 14:50:17.366377,58
2021-09-24 14:50:17.366382,53
2021-09-24 14:50:17.366386,29
2021-09-24 14:50:17.366390,14
2021-09-24 14:50:17.366395,14
2021-09-24 14:50:17.366399,12
2021-09-24 14:50:17.366404,4
2021-09-24 14:50:17.366408,7
2021-09-24 14:50:17.546338,24
2021-09-24 14:50:17.546360,41
2021-09-24 14:50:17.546409,48
2021-09-24 14:50:17.546420,41
2021-09-24 14:50:17.546428,38
2021-09-24 14:50:17.546437,41
2021-09-24 14:50:17.546445,41
2021-09-24 14:50:17.546453,48
2021-09-24 14:50:17.546461,48
2021-09-24 14:50:17.546469,36
2021-09-24 14:50:17.546476,34
2021-09-24 14:50:17.546483,9
2021-09-24 14:50:17.546490,-46
2021-09-24 14:50:17.546536,-138
2021-09-24 14:50:17.546543,-340
2021-09-24 14:50:17.546548,-539
2021-09-24 14:50:17.546552,-432
2021-09-24 14:50:17.546557,46
2021-09-24 14:50:17.546561,575
2021-09-24 14:50:17.546566,638
2021-09-24 14:50:17.546570,262
2021-09-24 14:50:17.546575,63
2021-09-24 14:50:17.546579,85
2021-09-24 14:50:17.546583,-14
2021-09-24 14:50:17.546588,-109
2021-09-24 14:50:17.546592,-82
2021-09-24 14:50:17.546597,-80
2021-09-24 14:50:17.546601,-116
2021-09-24 14:50:17.546606,-121
2021-09-24 14:50:17.546610,-123
2021-09-24 14:50:17.815746,-138
2021-09-24 14:50:17.815770,-145
2021-09-24 14:50:17.815779,-153
2021-09-24 14:50:17.815786,-174
2021-09-24 14:50:17.815794,-206
2021-09-24 14:50:17.815802,-233
2021-09-24 14:50:17.815809,-247
2021-09-24 14:50:17.815817,-267
2021-09-24 14:50:17.815826,-306
2021-09-24 14:50:17.815835,-337
2021-09-24 14:50:17.815843,-369
2021-09-24 14:50:17.815850,-408
2021-09-24 14:50:17.815857,-432
2021-09-24 14:50:17.815865,-439
2021-09-24 14:50:17.815873,-446
2021-09-24 14:50:17.815881,-442
2021-09-24 14:50:17.815889,-417
2021-09-24 14:50:17.815897,-366
2021-09-24 14:50:17.815906,-279
2021-09-24 14:50:17.815915,-170
2021-09-24 14:50:17.815923,-72
2021-09-24 14:50:17.815932,12
2021-09-24 14:50:17.815941,94
2021-09-24 14:50:17.815950,160
2021-09-24 14:50:17.815958,201
2021-09-24 14:50:17.815966,223
2021-09-24 14:50:17.815989,228
2021-09-24 14:50:17.815998,225
2021-09-24 14:50:17.816006,228
2021-09-24 14:50:17.816013,228
2021-09-24 14:50:18.041589,221
2021-09-24 14:50:18.041604,216
2021-09-24 14:50:18.041610,211
2021-09-24 14:50:18.041614,201
2021-09-24 14:50:18.041619,184
2021-09-24 14:50:18.041623,162
2021-09-24 14:50:18.041628,153
2021-09-24 14:50:18.041632,148
2021-09-24 14:50:18.041637,133
2021-09-24 14:50:18.041641,116
2021-09-24 14:50:18.041646,102
2021-09-24 14:50:18.041650,92
2021-09-24 14:50:18.041655,92
2021-09-24 14:50:18.041659,94
2021-09-24 14:50:18.041664,87
2021-09-24 14:50:18.041668,82
2021-09-24 14:50:18.041672,85
2021-09-24 14:50:18.041686,87
2021-09-24 14:50:18.041691,89
2021-09-24 14:50:18.041695,89
2021-09-24 14:50:18.041700,92
2021-09-24 14:50:18.041704,87
2021-09-24 14:50:18.041708,77
2021-09-24 14:50:18.041713,72
2021-09-24 14:50:18.041717,70
2021-09-24 14:50:18.041722,68
2021-09-24 14:50:18.041726,65
2021-09-24 14:50:18.041731,63
2021-09-24 14:50:18.041735,63
2021-09-24 14:50:18.041740,63
2021-09-24 14:50:18.310988,65
2021-09-24 14:50:18.311007,70
2021-09-24 14:50:18.311013,63
2021-09-24 14:50:18.311018,53
2021-09-24 14:50:18.311022,48
2021-09-24 14:50:18.311027,51
2021-09-24 14:50:18.311031,58
2021-09-24 14:50:18.311036,65
2021-09-24 14:50:18.311040,63
2021-09-24 14:50:18.311045,41
2021-09-24 14:50:18.311049,12
2021-09-24 14:50:18.311054,-2
2021-09-24 14:50:18.311059,2
2021-09-24 14:50:18.311063,2
2021-09-24 14:50:18.311067,-7
2021-09-24 14:50:18.311073,0
2021-09-24 14:50:18.311080,19
2021-09-24 14:50:18.311088,34
2021-09-24 14:50:18.311093,31
2021-09-24 14:50:18.311097,31
2021-09-24 14:50:18.311102,36
2021-09-24 14:50:18.311106,36
2021-09-24 14:50:18.311111,34
2021-09-24 14:50:18.311115,36
2021-09-24 14:50:18.311120,36
2021-09-24 14:50:18.311124,36
2021-09-24 14:50:18.311129,19
2021-09-24 14:50:18.311133,-29
2021-09-24 14:50:18.311138,-126
2021-09-24 14:50:18.311144,-337
2021-09-24 14:50:18.491921,-548
2021-09-24 14:50:18.491972,-451
2021-09-24 14:50:18.491993,4
2021-09-24 14:50:18.492007,531
2021-09-24 14:50:18.492015,653
2021-09-24 14:50:18.492024,298
2021-09-24 14:50:18.492032,70
2021-09-24 14:50:18.492043,92
2021-09-24 14:50:18.492062,-2
2021-09-24 14:50:18.492072,-111
2021-09-24 14:50:18.492080,-80
2021-09-24 14:50:18.492088,-65
2021-09-24 14:50:18.492096,-106
2021-09-24 14:50:18.492104,-119
2021-09-24 14:50:18.492112,-131
2021-09-24 14:50:18.492120,-153
2021-09-24 14:50:18.492128,-155
2021-09-24 14:50:18.492137,-155
2021-09-24 14:50:18.492144,-172
2021-09-24 14:50:18.492152,-189
2021-09-24 14:50:18.492160,-204
2021-09-24 14:50:18.492169,-225
2021-09-24 14:50:18.492177,-247
2021-09-24 14:50:18.492185,-269
2021-09-24 14:50:18.492193,-296
2021-09-24 14:50:18.492201,-327
2021-09-24 14:50:18.492210,-359
2021-09-24 14:50:18.492218,-393
2021-09-24 14:50:18.492226,-410
2021-09-24 14:50:18.492234,-417
2021-09-24 14:50:18.760651,-410
2021-09-24 14:50:18.760666,-383
2021-09-24 14:50:18.760672,-340
2021-09-24 14:50:18.760676,-274
2021-09-24 14:50:18.760681,-170
2021-09-24 14:50:18.760685,-58
2021-09-24 14:50:18.760690,34
2021-09-24 14:50:18.760694,111
2021-09-24 14:50:18.760698,167
2021-09-24 14:50:18.760703,199
2021-09-24 14:50:18.760707,223
2021-09-24 14:50:18.760711,240
2021-09-24 14:50:18.760716,245
2021-09-24 14:50:18.760720,238
2021-09-24 14:50:18.760725,225
2021-09-24 14:50:18.760729,213
2021-09-24 14:50:18.760733,201
2021-09-24 14:50:18.760738,187
2021-09-24 14:50:18.760742,184
2021-09-24 14:50:18.760746,179
2021-09-24 14:50:18.760751,162
2021-09-24 14:50:18.760755,150
2021-09-24 14:50:18.760759,145
2021-09-24 14:50:18.760764,131
2021-09-24 14:50:18.760768,121
2021-09-24 14:50:18.760772,116
2021-09-24 14:50:18.760777,109
2021-09-24 14:50:18.760781,97
2021-09-24 14:50:18.760785,97
2021-09-24 14:50:18.760790,97
2021-09-24 14:50:18.941840,94
2021-09-24 14:50:18.941883,89
2021-09-24 14:50:18.941893,89
2021-09-24 14:50:18.941901,92
2021-09-24 14:50:18.941907,92
2021-09-24 14:50:18.941914,94
2021-09-24 14:50:18.941920,94
2021-09-24 14:50:18.941926,87
2021-09-24 14:50:18.941931,72
2021-09-24 14:50:18.941937,68
2021-09-24 14:50:18.941942,68
2021-09-24 14:50:18.941947,63
2021-09-24 14:50:18.941952,58
2021-09-24 14:50:18.941958,51
2021-09-24 14:50:18.941964,43
2021-09-24 14:50:18.941971,48
2021-09-24 14:50:18.941977,51
2021-09-24 14:50:18.941982,43
2021-09-24 14:50:18.941988,36
2021-09-24 14:50:18.941994,34
2021-09-24 14:50:18.942000,34
2021-09-24 14:50:18.942005,36
2021-09-24 14:50:18.942011,38
2021-09-24 14:50:18.942017,34
2021-09-24 14:50:18.942023,26
2021-09-24 14:50:18.942029,36
2021-09-24 14:50:18.942034,48
2021-09-24 14:50:18.942040,38
2021-09-24 14:50:18.942045,21
2021-09-24 14:50:18.942051,14
2021-09-24 14:50:19.167075,12
2021-09-24 14:50:19.167093,12
2021-09-24 14:50:19.167099,4
2021-09-24 14:50:19.167105,4
2021-09-24 14:50:19.167110,19
2021-09-24 14:50:19.167115,36
2021-09-24 14:50:19.167120,41
2021-09-24 14:50:19.167126,38
2021-09-24 14:50:19.167131,41
2021-09-24 14:50:19.167136,43
2021-09-24 14:50:19.167141,41
2021-09-24 14:50:19.167146,43
2021-09-24 14:50:19.167151,38
2021-09-24 14:50:19.167157,34
2021-09-24 14:50:19.167162,34
2021-09-24 14:50:19.167167,19
2021-09-24 14:50:19.167172,-24
2021-09-24 14:50:19.167177,-126
2021-09-24 14:50:19.167183,-344
2021-09-24 14:50:19.167188,-568
2021-09-24 14:50:19.167193,-490
2021-09-24 14:50:19.167198,-55
2021-09-24 14:50:19.167203,471
2021-09-24 14:50:19.167208,641
2021-09-24 14:50:19.167213,310
2021-09-24 14:50:19.167219,46
2021-09-24 14:50:19.167224,58
2021-09-24 14:50:19.167229,-12
2021-09-24 14:50:19.167234,-111
2021-09-24 14:50:19.167239,-92
2021-09-24 14:50:19.393022,-87
2021-09-24 14:50:19.393046,-126
2021-09-24 14:50:19.393058,-128
2021-09-24 14:50:19.393067,-123
2021-09-24 14:50:19.393076,-140
2021-09-24 14:50:19.393089,-153
2021-09-24 14:50:19.393099,-165
2021-09-24 14:50:19.393108,-179
2021-09-24 14:50:19.393117,-191
2021-09-24 14:50:19.393127,-201
2021-09-24 14:50:19.393139,-216
2021-09-24 14:50:19.393149,-240
2021-09-24 14:50:19.393159,-274
2021-09-24 14:50:19.393170,-303
2021-09-24 14:50:19.393180,-330
2021-09-24 14:50:19.393189,-364
2021-09-24 14:50:19.393198,-393
2021-09-24 14:50:19.393206,-410
2021-09-24 14:50:19.393217,-422
2021-09-24 14:50:19.393227,-422
2021-09-24 14:50:19.393238,-405
2021-09-24 14:50:19.393247,-371
2021-09-24 14:50:19.393257,-308
2021-09-24 14:50:19.393268,-216
2021-09-24 14:50:19.393279,-104
2021-09-24 14:50:19.393289,-2
2021-09-24 14:50:19.393299,85
2021-09-24 14:50:19.393309,150
2021-09-24 14:50:19.393320,196
2021-09-24 14:50:19.393329,221
2021-09-24 14:50:19.616487,235
2021-09-24 14:50:19.616507,245
2021-09-24 14:50:19.616515,245
2021-09-24 14:50:19.616521,238
2021-09-24 14:50:19.616528,235
2021-09-24 14:50:19.616534,223
2021-09-24 14:50:19.616540,208
2021-09-24 14:50:19.616547,204
2021-09-24 14:50:19.616553,199
2021-09-24 14:50:19.616560,184
2021-09-24 14:50:19.616566,170
2021-09-24 14:50:19.616572,153
2021-09-24 14:50:19.616579,136
2021-09-24 14:50:19.616585,128
2021-09-24 14:50:19.616592,121
2021-09-24 14:50:19.616598,111
2021-09-24 14:50:19.616605,106
2021-09-24 14:50:19.616611,102
2021-09-24 14:50:19.616617,99
2021-09-24 14:50:19.616624,102
2021-09-24 14:50:19.616630,99
2021-09-24 14:50:19.616637,97
2021-09-24 14:50:19.616643,99
2021-09-24 14:50:19.616653,102
2021-09-24 14:50:19.616659,94
2021-09-24 14:50:19.616666,89
2021-09-24 14:50:19.616672,85
2021-09-24 14:50:19.616679,68
2021-09-24 14:50:19.616685,58
2021-09-24 14:50:19.616691,63
2021-09-24 14:50:19.884934,60
2021-09-24 14:50:19.884948,55
2021-09-24 14:50:19.884954,55
2021-09-24 14:50:19.884959,53
2021-09-24 14:50:19.884963,43
2021-09-24 14:50:19.884968,41
2021-09-24 14:50:19.884972,41
2021-09-24 14:50:19.884977,43
2021-09-24 14:50:19.884981,43
2021-09-24 14:50:19.884986,38
2021-09-24 14:50:19.884990,29
2021-09-24 14:50:19.884994,24
2021-09-24 14:50:19.884999,31
2021-09-24 14:50:19.885003,34
2021-09-24 14:50:19.885008,31
2021-09-24 14:50:19.885012,29
2021-09-24 14:50:19.885017,34
2021-09-24 14:50:19.885021,34
2021-09-24 14:50:19.885026,21
2021-09-24 14:50:19.885030,9
2021-09-24 14:50:19.885035,2
2021-09-24 14:50:19.885039,4
2021-09-24 14:50:19.885043,4
2021-09-24 14:50:19.885048,-2
2021-09-24 14:50:19.885052,9
2021-09-24 14:50:19.885057,31
2021-09-24 14:50:19.885061,36
2021-09-24 14:50:19.885066,31
2021-09-24 14:50:19.885070,31
2021-09-24 14:50:19.885075,34
2021-09-24 14:50:20.066428,38
2021-09-24 14:50:20.066445,46
2021-09-24 14:50:20.066451,46
2021-09-24 14:50:20.066457,38
2021-09-24 14:50:20.066462,29
2021-09-24 14:50:20.066467,21
2021-09-24 14:50:20.066472,4
2021-09-24 14:50:20.066477,-53
2021-09-24 14:50:20.066483,-208
2021-09-24 14:50:20.066488,-476
2021-09-24 14:50:20.066493,-590
2021-09-24 14:50:20.066498,-301
2021-09-24 14:50:20.066503,252
2021-09-24 14:50:20.066509,660
2021-09-24 14:50:20.066514,536
2021-09-24 14:50:20.066519,157
2021-09-24 14:50:20.066524,53
2021-09-24 14:50:20.066529,51
2021-09-24 14:50:20.066535,-63
2021-09-24 14:50:20.066540,-97
2021-09-24 14:50:20.066545,-65
2021-09-24 14:50:20.066551,-94
2021-09-24 14:50:20.066556,-123
2021-09-24 14:50:20.066561,-111
2021-09-24 14:50:20.066567,-119
2021-09-24 14:50:20.066572,-138
2021-09-24 14:50:20.066577,-140
2021-09-24 14:50:20.066582,-150
2021-09-24 14:50:20.066587,-172
2021-09-24 14:50:20.066593,-184
2021-09-24 14:50:20.336340,-194
2021-09-24 14:50:20.336357,-216
2021-09-24 14:50:20.336362,-255
2021-09-24 14:50:20.336367,-301
2021-09-24 14:50:20.336372,-330
2021-09-24 14:50:20.336376,-349
2021-09-24 14:50:20.336381,-383
2021-09-24 14:50:20.336385,-412
2021-09-24 14:50:20.336389,-429
2021-09-24 14:50:20.336394,-439
2021-09-24 14:50:20.336398,-432
2021-09-24 14:50:20.336403,-400
2021-09-24 14:50:20.336407,-347
2021-09-24 14:50:20.336412,-264
2021-09-24 14:50:20.336416,-165
2021-09-24 14:50:20.336421,-65
2021-09-24 14:50:20.336425,29
2021-09-24 14:50:20.336430,114
2021-09-24 14:50:20.336434,174
2021-09-24 14:50:20.336438,211
2021-09-24 14:50:20.336443,225
2021-09-24 14:50:20.336447,233
2021-09-24 14:50:20.336452,238
2021-09-24 14:50:20.336456,240
2021-09-24 14:50:20.336461,233
2021-09-24 14:50:20.336465,228
2021-09-24 14:50:20.336470,223
2021-09-24 14:50:20.336474,211
2021-09-24 14:50:20.336478,196
2021-09-24 14:50:20.336483,184
2021-09-24 14:50:20.561547,170
2021-09-24 14:50:20.561568,153
2021-09-24 14:50:20.561574,140
2021-09-24 14:50:20.561580,133
2021-09-24 14:50:20.561585,126
2021-09-24 14:50:20.561590,123
2021-09-24 14:50:20.561596,121
2021-09-24 14:50:20.561601,114
2021-09-24 14:50:20.561606,99
2021-09-24 14:50:20.561611,85
2021-09-24 14:50:20.561617,87
2021-09-24 14:50:20.561622,92
2021-09-24 14:50:20.561627,92
2021-09-24 14:50:20.561633,87
2021-09-24 14:50:20.561638,77
2021-09-24 14:50:20.561643,70
2021-09-24 14:50:20.561648,70
2021-09-24 14:50:20.561653,70
2021-09-24 14:50:20.561659,65
2021-09-24 14:50:20.561664,63
2021-09-24 14:50:20.561669,63
2021-09-24 14:50:20.561674,60
2021-09-24 14:50:20.561679,60
2021-09-24 14:50:20.561685,60
2021-09-24 14:50:20.561690,63
2021-09-24 14:50:20.561695,58
2021-09-24 14:50:20.561700,53
2021-09-24 14:50:20.561705,53
2021-09-24 14:50:20.561710,55
2021-09-24 14:50:20.561716,58
2021-09-24 14:50:20.786700,55
2021-09-24 14:50:20.786720,53
2021-09-24 14:50:20.786726,51
2021-09-24 14:50:20.786732,53
2021-09-24 14:50:20.786737,55
2021-09-24 14:50:20.786742,58
2021-09-24 14:50:20.786747,63
2021-09-24 14:50:20.786753,55
2021-09-24 14:50:20.786758,26
2021-09-24 14:50:20.786763,0
2021-09-24 14:50:20.786769,-2
2021-09-24 14:50:20.786774,12
2021-09-24 14:50:20.786779,4
2021-09-24 14:50:20.786784,-4
2021-09-24 14:50:20.786790,4
2021-09-24 14:50:20.786795,26
2021-09-24 14:50:20.786800,38
2021-09-24 14:50:20.786805,43
2021-09-24 14:50:20.786811,43
2021-09-24 14:50:20.786816,38
2021-09-24 14:50:20.786821,38
2021-09-24 14:50:20.786826,43
2021-09-24 14:50:20.786831,46
2021-09-24 14:50:20.786837,41
2021-09-24 14:50:20.786842,34
2021-09-24 14:50:20.786847,17
2021-09-24 14:50:20.786852,-14
2021-09-24 14:50:20.786857,-94
2021-09-24 14:50:20.786863,-289
2021-09-24 14:50:20.786868,-539
2021-09-24 14:50:21.056550,-539
2021-09-24 14:50:21.056571,-138
2021-09-24 14:50:21.056579,437
2021-09-24 14:50:21.056586,699
2021-09-24 14:50:21.056592,405
2021-09-24 14:50:21.056599,87
2021-09-24 14:50:21.056605,65
2021-09-24 14:50:21.056612,7
2021-09-24 14:50:21.056618,-106
2021-09-24 14:50:21.056625,-89
2021-09-24 14:50:21.056631,-68
2021-09-24 14:50:21.056638,-109
2021-09-24 14:50:21.056644,-123
2021-09-24 14:50:21.056651,-121
2021-09-24 14:50:21.056658,-136
2021-09-24 14:50:21.056664,-145
2021-09-24 14:50:21.056671,-145
2021-09-24 14:50:21.056677,-157
2021-09-24 14:50:21.056684,-179
2021-09-24 14:50:21.056690,-191
2021-09-24 14:50:21.056697,-204
2021-09-24 14:50:21.056703,-230
2021-09-24 14:50:21.056710,-252
2021-09-24 14:50:21.056716,-276
2021-09-24 14:50:21.056723,-310
2021-09-24 14:50:21.056729,-344
2021-09-24 14:50:21.056736,-371
2021-09-24 14:50:21.056743,-393
2021-09-24 14:50:21.056749,-410
2021-09-24 14:50:21.056759,-417
2021-09-24 14:50:21.237633,-405
2021-09-24 14:50:21.237684,-364
2021-09-24 14:50:21.237702,-296
2021-09-24 14:50:21.237716,-208
2021-09-24 14:50:21.237728,-106
2021-09-24 14:50:21.237738,-12
2021-09-24 14:50:21.237748,65
2021-09-24 14:50:21.237758,136
2021-09-24 14:50:21.237768,187
2021-09-24 14:50:21.237779,213
2021-09-24 14:50:21.237789,235
2021-09-24 14:50:21.237801,250
2021-09-24 14:50:21.237814,238
2021-09-24 14:50:21.237827,218
2021-09-24 14:50:21.237838,208
2021-09-24 14:50:21.237851,191
2021-09-24 14:50:21.237864,177
2021-09-24 14:50:21.237875,174
2021-09-24 14:50:21.237891,160
2021-09-24 14:50:21.237907,148
2021-09-24 14:50:21.237918,145
2021-09-24 14:50:21.237930,138
2021-09-24 14:50:21.237942,126
2021-09-24 14:50:21.237954,116
2021-09-24 14:50:21.237965,109
2021-09-24 14:50:21.237977,106
2021-09-24 14:50:21.237989,102
2021-09-24 14:50:21.238000,92
2021-09-24 14:50:21.238012,82
2021-09-24 14:50:21.238025,77
2021-09-24 14:50:21.595782,75
2021-09-24 14:50:21.595800,72
2021-09-24 14:50:21.595807,70
2021-09-24 14:50:21.595812,77
2021-09-24 14:50:21.595818,80
2021-09-24 14:50:21.595823,72
2021-09-24 14:50:21.595829,63
2021-09-24 14:50:21.595834,65
2021-09-24 14:50:21.595839,60
2021-09-24 14:50:21.595845,51
2021-09-24 14:50:21.595850,51
2021-09-24 14:50:21.595856,43
2021-09-24 14:50:21.595861,36
2021-09-24 14:50:21.595866,46
2021-09-24 14:50:21.595872,51
2021-09-24 14:50:21.595877,43
2021-09-24 14:50:21.595883,41
2021-09-24 14:50:21.595888,38
2021-09-24 14:50:21.595893,41
2021-09-24 14:50:21.595899,46
2021-09-24 14:50:21.595904,51
2021-09-24 14:50:21.595909,46
2021-09-24 14:50:21.595915,43
2021-09-24 14:50:21.595920,46
2021-09-24 14:50:21.595926,46
2021-09-24 14:50:21.595931,43
2021-09-24 14:50:21.595936,48
2021-09-24 14:50:21.595942,51
2021-09-24 14:50:21.595947,34
2021-09-24 14:50:21.595953,12
2021-09-24 14:50:21.687205,9
2021-09-24 14:50:21.687239,21
2021-09-24 14:50:21.687247,17
2021-09-24 14:50:21.687254,7
2021-09-24 14:50:21.687260,21
2021-09-24 14:50:21.687267,43
2021-09-24 14:50:21.687273,53
2021-09-24 14:50:21.687279,55
2021-09-24 14:50:21.687286,51
2021-09-24 14:50:21.687292,43
2021-09-24 14:50:21.687299,43
2021-09-24 14:50:21.687306,53
2021-09-24 14:50:21.687312,53
2021-09-24 14:50:21.687318,53
2021-09-24 14:50:21.687325,55
2021-09-24 14:50:21.687331,43
2021-09-24 14:50:21.687338,-2
2021-09-24 14:50:21.687344,-89
2021-09-24 14:50:21.687351,-286
2021-09-24 14:50:21.687357,-536
2021-09-24 14:50:21.687364,-531
2021-09-24 14:50:21.687370,-131
2021-09-24 14:50:21.687377,429
2021-09-24 14:50:21.687383,655
2021-09-24 14:50:21.687389,347
2021-09-24 14:50:21.687396,60
2021-09-24 14:50:21.687434,60
2021-09-24 14:50:21.687481,-4
2021-09-24 14:50:21.687493,-119
2021-09-24 14:50:21.687504,-104
2021-09-24 14:50:22.000222,-82
2021-09-24 14:50:22.000242,-114
2021-09-24 14:50:22.000250,-123
2021-09-24 14:50:22.000257,-128
2021-09-24 14:50:22.000263,-150
2021-09-24 14:50:22.000270,-157
2021-09-24 14:50:22.000276,-157
2021-09-24 14:50:22.000283,-170
2021-09-24 14:50:22.000289,-187
2021-09-24 14:50:22.000296,-211
2021-09-24 14:50:22.000302,-235
2021-09-24 14:50:22.000309,-252
2021-09-24 14:50:22.000315,-276
2021-09-24 14:50:22.000322,-310
2021-09-24 14:50:22.000328,-337
2021-09-24 14:50:22.000335,-366
2021-09-24 14:50:22.000341,-403
2021-09-24 14:50:22.000348,-420
2021-09-24 14:50:22.000354,-415
2021-09-24 14:50:22.000371,-415
2021-09-24 14:50:22.000382,-405
2021-09-24 14:50:22.000389,-369
2021-09-24 14:50:22.000408,-306
2021-09-24 14:50:22.000414,-216
2021-09-24 14:50:22.000419,-109
2021-09-24 14:50:22.000424,-9
2021-09-24 14:50:22.000429,68
2021-09-24 14:50:22.000435,133
2021-09-24 14:50:22.000440,179
2021-09-24 14:50:22.000445,208
2021-09-24 14:50:22.181743,228
2021-09-24 14:50:22.181763,238
2021-09-24 14:50:22.181769,233
2021-09-24 14:50:22.181775,221
2021-09-24 14:50:22.181780,211
2021-09-24 14:50:22.181785,204
2021-09-24 14:50:22.181790,196
2021-09-24 14:50:22.181795,189
2021-09-24 14:50:22.181800,177
2021-09-24 14:50:22.181806,150
2021-09-24 14:50:22.181811,133
2021-09-24 14:50:22.181816,138
2021-09-24 14:50:22.181821,131
2021-09-24 14:50:22.181826,111
2021-09-24 14:50:22.181831,97
2021-09-24 14:50:22.181836,87
2021-09-24 14:50:22.181841,80
2021-09-24 14:50:22.181847,80
2021-09-24 14:50:22.181852,75
2021-09-24 14:50:22.181857,68
2021-09-24 14:50:22.181862,68
2021-09-24 14:50:22.181867,68
2021-09-24 14:50:22.181872,70
2021-09-24 14:50:22.181877,80
2021-09-24 14:50:22.181883,80
2021-09-24 14:50:22.181888,80
2021-09-24 14:50:22.181893,80
2021-09-24 14:50:22.181898,68
2021-09-24 14:50:22.181903,55
2021-09-24 14:50:22.181908,63
2021-09-24 14:50:22.450739,65
2021-09-24 14:50:22.450755,53
2021-09-24 14:50:22.450760,53
2021-09-24 14:50:22.450765,53
2021-09-24 14:50:22.450769,51
2021-09-24 14:50:22.450774,53
2021-09-24 14:50:22.450778,53
2021-09-24 14:50:22.450783,48
2021-09-24 14:50:22.450787,41
2021-09-24 14:50:22.450791,34
2021-09-24 14:50:22.450796,41
2021-09-24 14:50:22.450800,53
2021-09-24 14:50:22.450805,53
2021-09-24 14:50:22.450809,41
2021-09-24 14:50:22.450814,17
2021-09-24 14:50:22.450818,-7
2021-09-24 14:50:22.450822,-9
2021-09-24 14:50:22.450827,-2
2021-09-24 14:50:22.450831,-7
2021-09-24 14:50:22.450836,-2
2021-09-24 14:50:22.450840,17
2021-09-24 14:50:22.450845,29
2021-09-24 14:50:22.450849,36
2021-09-24 14:50:22.450854,36
2021-09-24 14:50:22.450858,36
2021-09-24 14:50:22.450862,38
2021-09-24 14:50:22.450867,31
2021-09-24 14:50:22.450871,29
2021-09-24 14:50:22.450876,38
2021-09-24 14:50:22.450880,46
2021-09-24 14:50:22.676218,34
2021-09-24 14:50:22.676237,7
2021-09-24 14:50:22.676245,-48
2021-09-24 14:50:22.676251,-179
2021-09-24 14:50:22.676258,-425
2021-09-24 14:50:22.676265,-580
2021-09-24 14:50:22.676271,-359
2021-09-24 14:50:22.676278,191
2021-09-24 14:50:22.676284,643
2021-09-24 14:50:22.676291,544
2021-09-24 14:50:22.676297,165
2021-09-24 14:50:22.676304,63
2021-09-24 14:50:22.676310,75
2021-09-24 14:50:22.676317,-53
2021-09-24 14:50:22.676323,-119
2021-09-24 14:50:22.676330,-77
2021-09-24 14:50:22.676336,-89
2021-09-24 14:50:22.676343,-126
2021-09-24 14:50:22.676349,-133
2021-09-24 14:50:22.676356,-140
2021-09-24 14:50:22.676362,-160
2021-09-24 14:50:22.676369,-167
2021-09-24 14:50:22.676375,-174
2021-09-24 14:50:22.676381,-184
2021-09-24 14:50:22.676388,-196
2021-09-24 14:50:22.676394,-218
2021-09-24 14:50:22.676401,-240
2021-09-24 14:50:22.676407,-262
2021-09-24 14:50:22.676417,-293
2021-09-24 14:50:22.676423,-323
2021-09-24 14:50:22.902379,-344
2021-09-24 14:50:22.902400,-374
2021-09-24 14:50:22.902408,-408
2021-09-24 14:50:22.902459,-434
2021-09-24 14:50:22.902494,-434
2021-09-24 14:50:22.902505,-415
2021-09-24 14:50:22.902515,-388
2021-09-24 14:50:22.902524,-344
2021-09-24 14:50:22.902531,-259
2021-09-24 14:50:22.902538,-150
2021-09-24 14:50:22.902544,-48
2021-09-24 14:50:22.902551,34
2021-09-24 14:50:22.902557,104
2021-09-24 14:50:22.902564,155
2021-09-24 14:50:22.902570,189
2021-09-24 14:50:22.902577,211
2021-09-24 14:50:22.902583,216
2021-09-24 14:50:22.902589,211
2021-09-24 14:50:22.902596,206
2021-09-24 14:50:22.902602,206
2021-09-24 14:50:22.902609,194
2021-09-24 14:50:22.902615,174
2021-09-24 14:50:22.902622,167
2021-09-24 14:50:22.902628,170
2021-09-24 14:50:22.902634,157
2021-09-24 14:50:22.902641,140
2021-09-24 14:50:22.902647,133
2021-09-24 14:50:22.902654,121
2021-09-24 14:50:22.902660,114
2021-09-24 14:50:22.902667,114
2021-09-24 14:50:23.081632,114
2021-09-24 14:50:23.081652,106
2021-09-24 14:50:23.081659,94
2021-09-24 14:50:23.081666,85
2021-09-24 14:50:23.081673,85
2021-09-24 14:50:23.081679,80
2021-09-24 14:50:23.081686,68
2021-09-24 14:50:23.081692,68
2021-09-24 14:50:23.081699,77
2021-09-24 14:50:23.081706,77
2021-09-24 14:50:23.081712,75
2021-09-24 14:50:23.081719,72
2021-09-24 14:50:23.081725,70
2021-09-24 14:50:23.081732,72
2021-09-24 14:50:23.081738,72
2021-09-24 14:50:23.081745,68
2021-09-24 14:50:23.081751,72
2021-09-24 14:50:23.081758,75
2021-09-24 14:50:23.081764,60
2021-09-24 14:50:23.081771,53
2021-09-24 14:50:23.081777,60
2021-09-24 14:50:23.081784,65
2021-09-24 14:50:23.081790,55
2021-09-24 14:50:23.081797,46
2021-09-24 14:50:23.081803,46
2021-09-24 14:50:23.081810,53
2021-09-24 14:50:23.081817,60
2021-09-24 14:50:23.081823,58
2021-09-24 14:50:23.081830,43
2021-09-24 14:50:23.081837,26
2021-09-24 14:50:23.307127,19
2021-09-24 14:50:23.307149,21
2021-09-24 14:50:23.307157,17
2021-09-24 14:50:23.307163,19
2021-09-24 14:50:23.307170,41
2021-09-24 14:50:23.307176,46
2021-09-24 14:50:23.307183,36
2021-09-24 14:50:23.307189,41
2021-09-24 14:50:23.307196,38
2021-09-24 14:50:23.307202,26
2021-09-24 14:50:23.307209,31
2021-09-24 14:50:23.307215,34
2021-09-24 14:50:23.307221,26
2021-09-24 14:50:23.307228,26
2021-09-24 14:50:23.307234,29
2021-09-24 14:50:23.307241,7
2021-09-24 14:50:23.307247,-46
2021-09-24 14:50:23.307254,-167
2021-09-24 14:50:23.307260,-405
2021-09-24 14:50:23.307267,-558
2021-09-24 14:50:23.307273,-347
2021-09-24 14:50:23.307280,184
2021-09-24 14:50:23.307286,646
2021-09-24 14:50:23.307293,587
2021-09-24 14:50:23.307299,199
2021-09-24 14:50:23.307306,60
2021-09-24 14:50:23.307312,72
2021-09-24 14:50:23.307319,-48
2021-09-24 14:50:23.307325,-116
2021-09-24 14:50:23.307332,-82
2021-09-24 14:50:23.531339,-92
2021-09-24 14:50:23.531356,-116
2021-09-24 14:50:23.531362,-111
2021-09-24 14:50:23.531367,-119
2021-09-24 14:50:23.531373,-140
2021-09-24 14:50:23.531378,-153
2021-09-24 14:50:23.531383,-162
2021-09-24 14:50:23.531388,-177
2021-09-24 14:50:23.531396,-191
2021-09-24 14:50:23.531401,-211
2021-09-24 14:50:23.531406,-235
2021-09-24 14:50:23.531411,-257
2021-09-24 14:50:23.531417,-279
2021-09-24 14:50:23.531422,-308
2021-09-24 14:50:23.531427,-342
2021-09-24 14:50:23.531432,-371
2021-09-24 14:50:23.531437,-393
2021-09-24 14:50:23.531442,-403
2021-09-24 14:50:23.531447,-403
2021-09-24 14:50:23.531452,-393
2021-09-24 14:50:23.531457,-369
2021-09-24 14:50:23.531463,-315
2021-09-24 14:50:23.531468,-233
2021-09-24 14:50:23.531473,-133
2021-09-24 14:50:23.531478,-29
2021-09-24 14:50:23.531483,63
2021-09-24 14:50:23.531488,131
2021-09-24 14:50:23.531493,174
2021-09-24 14:50:23.531498,208
2021-09-24 14:50:23.531504,233
2021-09-24 14:50:23.846642,245
2021-09-24 14:50:23.846666,250
2021-09-24 14:50:23.846674,247
2021-09-24 14:50:23.846681,238
2021-09-24 14:50:23.846687,225
2021-09-24 14:50:23.846694,216
2021-09-24 14:50:23.846700,213
2021-09-24 14:50:23.846707,206
2021-09-24 14:50:23.846713,187
2021-09-24 14:50:23.846720,170
2021-09-24 14:50:23.846726,155
2021-09-24 14:50:23.846733,145
2021-09-24 14:50:23.846739,138
2021-09-24 14:50:23.846746,126
2021-09-24 14:50:23.846752,109
2021-09-24 14:50:23.846759,87
2021-09-24 14:50:23.846765,87
2021-09-24 14:50:23.846772,97
2021-09-24 14:50:23.846779,92
2021-09-24 14:50:23.846785,89
2021-09-24 14:50:23.846792,97
2021-09-24 14:50:23.846798,97
2021-09-24 14:50:23.846805,97
2021-09-24 14:50:23.846811,97
2021-09-24 14:50:23.846818,94
2021-09-24 14:50:23.846824,92
2021-09-24 14:50:23.846862,85
2021-09-24 14:50:23.846869,72
2021-09-24 14:50:23.846876,65
2021-09-24 14:50:23.846882,68
2021-09-24 14:50:24.115778,70
2021-09-24 14:50:24.115809,68
2021-09-24 14:50:24.115821,60
2021-09-24 14:50:24.115831,53
2021-09-24 14:50:24.115841,53
2021-09-24 14:50:24.115851,55
2021-09-24 14:50:24.115861,60
2021-09-24 14:50:24.115871,63
2021-09-24 14:50:24.115881,58
2021-09-24 14:50:24.115891,51
2021-09-24 14:50:24.115901,46
2021-09-24 14:50:24.115911,53
2021-09-24 14:50:24.115921,55
2021-09-24 14:50:24.115931,51
2021-09-24 14:50:24.115941,53
2021-09-24 14:50:24.115951,60
2021-09-24 14:50:24.115960,63
2021-09-24 14:50:24.115970,60
2021-09-24 14:50:24.115980,48
2021-09-24 14:50:24.115990,26
2021-09-24 14:50:24.116000,19
2021-09-24 14:50:24.116010,17
2021-09-24 14:50:24.116020,12
2021-09-24 14:50:24.116029,29
2021-09-24 14:50:24.116039,51
2021-09-24 14:50:24.116049,63
2021-09-24 14:50:24.116059,63
2021-09-24 14:50:24.116069,60
2021-09-24 14:50:24.116079,63
2021-09-24 14:50:24.116088,68
2021-09-24 14:50:24.251702,63
2021-09-24 14:50:24.251723,55
2021-09-24 14:50:24.251731,48
2021-09-24 14:50:24.251738,46
2021-09-24 14:50:24.251744,48
2021-09-24 14:50:24.251751,26
2021-09-24 14:50:24.251757,-36
2021-09-24 14:50:24.251764,-199
2021-09-24 14:50:24.251770,-466
2021-09-24 14:50:24.251777,-553
2021-09-24 14:50:24.251783,-245
2021-09-24 14:50:24.251790,306
2021-09-24 14:50:24.251797,685
2021-09-24 14:50:24.251803,527
2021-09-24 14:50:24.251810,150
2021-09-24 14:50:24.251816,65
2021-09-24 14:50:24.251823,58
2021-09-24 14:50:24.251829,-58
2021-09-24 14:50:24.251836,-89
2021-09-24 14:50:24.251842,-53
2021-09-24 14:50:24.251849,-82
2021-09-24 14:50:24.251855,-121
2021-09-24 14:50:24.251862,-114
2021-09-24 14:50:24.251868,-114
2021-09-24 14:50:24.251875,-136
2021-09-24 14:50:24.251881,-150
2021-09-24 14:50:24.251888,-160
2021-09-24 14:50:24.251894,-174
2021-09-24 14:50:24.251901,-179
2021-09-24 14:50:24.251907,-191
2021-09-24 14:50:24.476383,-211
2021-09-24 14:50:24.476399,-230
2021-09-24 14:50:24.476404,-259
2021-09-24 14:50:24.476408,-296
2021-09-24 14:50:24.476413,-325
2021-09-24 14:50:24.476417,-352
2021-09-24 14:50:24.476422,-376
2021-09-24 14:50:24.476426,-395
2021-09-24 14:50:24.476431,-405
2021-09-24 14:50:24.476435,-395
2021-09-24 14:50:24.476440,-361
2021-09-24 14:50:24.476444,-308
2021-09-24 14:50:24.476449,-230
2021-09-24 14:50:24.476453,-133
2021-09-24 14:50:24.476458,-38
2021-09-24 14:50:24.476462,48
2021-09-24 14:50:24.476467,126
2021-09-24 14:50:24.476471,189
2021-09-24 14:50:24.476476,228
2021-09-24 14:50:24.476480,240
2021-09-24 14:50:24.476485,242
2021-09-24 14:50:24.476489,250
2021-09-24 14:50:24.476494,250
2021-09-24 14:50:24.476500,247
2021-09-24 14:50:24.476505,242
2021-09-24 14:50:24.476509,235
2021-09-24 14:50:24.476514,221
2021-09-24 14:50:24.476518,208
2021-09-24 14:50:24.476522,199
2021-09-24 14:50:24.476527,189
2021-09-24 14:50:24.747126,172
2021-09-24 14:50:24.747148,160
2021-09-24 14:50:24.747156,155
2021-09-24 14:50:24.747162,150
2021-09-24 14:50:24.747169,138
2021-09-24 14:50:24.747175,121
2021-09-24 14:50:24.747181,116
2021-09-24 14:50:24.747188,109
2021-09-24 14:50:24.747194,97
2021-09-24 14:50:24.747201,99
2021-09-24 14:50:24.747207,104
2021-09-24 14:50:24.747214,102
2021-09-24 14:50:24.747220,97
2021-09-24 14:50:24.747226,89
2021-09-24 14:50:24.747233,87
2021-09-24 14:50:24.747239,82
2021-09-24 14:50:24.747246,77
2021-09-24 14:50:24.747252,82
2021-09-24 14:50:24.747258,82
2021-09-24 14:50:24.747265,77
2021-09-24 14:50:24.747271,77
2021-09-24 14:50:24.747278,80
2021-09-24 14:50:24.747284,75
2021-09-24 14:50:24.747291,72
2021-09-24 14:50:24.747297,70
2021-09-24 14:50:24.747304,70
2021-09-24 14:50:24.747310,60
2021-09-24 14:50:24.747317,43
2021-09-24 14:50:24.747323,43
2021-09-24 14:50:24.747329,51
2021-09-24 14:50:24.971658,48
2021-09-24 14:50:24.971689,46
2021-09-24 14:50:24.971701,48
2021-09-24 14:50:24.971712,46
2021-09-24 14:50:24.971722,51
2021-09-24 14:50:24.971732,63
2021-09-24 14:50:24.971742,51
2021-09-24 14:50:24.971752,24
2021-09-24 14:50:24.971762,12
2021-09-24 14:50:24.971772,14
2021-09-24 14:50:24.971782,17
2021-09-24 14:50:24.971791,7
2021-09-24 14:50:24.971801,0
2021-09-24 14:50:24.971811,12
2021-09-24 14:50:24.971821,34
2021-09-24 14:50:24.971831,46
2021-09-24 14:50:24.971841,46
2021-09-24 14:50:24.971851,43
2021-09-24 14:50:24.971861,38
2021-09-24 14:50:24.971870,38
2021-09-24 14:50:24.971880,43
2021-09-24 14:50:24.971890,46
2021-09-24 14:50:24.971900,41
2021-09-24 14:50:24.971910,41
2021-09-24 14:50:24.971920,26
2021-09-24 14:50:24.971930,-19
2021-09-24 14:50:24.971940,-123
2021-09-24 14:50:24.971950,-352
2021-09-24 14:50:24.971960,-563
2021-09-24 14:50:24.971970,-449
2021-09-24 14:50:25.196410,31
2021-09-24 14:50:25.196426,563
2021-09-24 14:50:25.196433,665
2021-09-24 14:50:25.196438,301
2021-09-24 14:50:25.196443,72
2021-09-24 14:50:25.196448,77
2021-09-24 14:50:25.196454,-19
2021-09-24 14:50:25.196459,-104
2021-09-24 14:50:25.196464,-72
2021-09-24 14:50:25.196469,-75
2021-09-24 14:50:25.196474,-116
2021-09-24 14:50:25.196479,-123
2021-09-24 14:50:25.196484,-126
2021-09-24 14:50:25.196489,-143
2021-09-24 14:50:25.196495,-150
2021-09-24 14:50:25.196500,-157
2021-09-24 14:50:25.196505,-172
2021-09-24 14:50:25.196510,-189
2021-09-24 14:50:25.196515,-204
2021-09-24 14:50:25.196520,-218
2021-09-24 14:50:25.196525,-238
2021-09-24 14:50:25.196530,-264
2021-09-24 14:50:25.196535,-291
2021-09-24 14:50:25.196540,-323
2021-09-24 14:50:25.196545,-354
2021-09-24 14:50:25.196550,-383
2021-09-24 14:50:25.196555,-403
2021-09-24 14:50:25.196560,-410
2021-09-24 14:50:25.196566,-405
2021-09-24 14:50:25.196571,-388
2021-09-24 14:50:25.376873,-344
2021-09-24 14:50:25.376895,-276
2021-09-24 14:50:25.376903,-194
2021-09-24 14:50:25.376910,-94
2021-09-24 14:50:25.376916,4
2021-09-24 14:50:25.376923,77
2021-09-24 14:50:25.376929,140
2021-09-24 14:50:25.376936,196
2021-09-24 14:50:25.376942,223
2021-09-24 14:50:25.376948,225
2021-09-24 14:50:25.376955,230
2021-09-24 14:50:25.376961,230
2021-09-24 14:50:25.376968,225
2021-09-24 14:50:25.376974,221
2021-09-24 14:50:25.376980,216
2021-09-24 14:50:25.376987,206
2021-09-24 14:50:25.376993,189
2021-09-24 14:50:25.377000,167
2021-09-24 14:50:25.377006,157
2021-09-24 14:50:25.377013,150
2021-09-24 14:50:25.377019,138
2021-09-24 14:50:25.377026,131
2021-09-24 14:50:25.377032,123
2021-09-24 14:50:25.377039,114
2021-09-24 14:50:25.377045,106
2021-09-24 14:50:25.377051,102
2021-09-24 14:50:25.377058,99
2021-09-24 14:50:25.377064,99
2021-09-24 14:50:25.377071,99
2021-09-24 14:50:25.377077,94
2021-09-24 14:50:25.601949,94
2021-09-24 14:50:25.601971,99
2021-09-24 14:50:25.601980,94
2021-09-24 14:50:25.601987,87
2021-09-24 14:50:25.601994,80
2021-09-24 14:50:25.602000,72
2021-09-24 14:50:25.602007,75
2021-09-24 14:50:25.602014,77
2021-09-24 14:50:25.602021,75
2021-09-24 14:50:25.602028,68
2021-09-24 14:50:25.602035,58
2021-09-24 14:50:25.602042,55
2021-09-24 14:50:25.602048,53
2021-09-24 14:50:25.602055,46
2021-09-24 14:50:25.602062,41
2021-09-24 14:50:25.602069,36
2021-09-24 14:50:25.602076,31
2021-09-24 14:50:25.602083,34
2021-09-24 14:50:25.602090,36
2021-09-24 14:50:25.602097,38
2021-09-24 14:50:25.602104,38
2021-09-24 14:50:25.602110,38
2021-09-24 14:50:25.602117,36
2021-09-24 14:50:25.602124,46
2021-09-24 14:50:25.602131,51
2021-09-24 14:50:25.602138,38
2021-09-24 14:50:25.602145,19
2021-09-24 14:50:25.602152,7
2021-09-24 14:50:25.602159,12
2021-09-24 14:50:25.602166,14
2021-09-24 14:50:25.916546,9
2021-09-24 14:50:25.916567,19
2021-09-24 14:50:25.916575,41
2021-09-24 14:50:25.916582,41
2021-09-24 14:50:25.916588,34
2021-09-24 14:50:25.916595,38
2021-09-24 14:50:25.916601,46
2021-09-24 14:50:25.916608,38
2021-09-24 14:50:25.916614,21
2021-09-24 14:50:25.916621,12
2021-09-24 14:50:25.916627,12
2021-09-24 14:50:25.916634,17
2021-09-24 14:50:25.916640,14
2021-09-24 14:50:25.916647,-4
2021-09-24 14:50:25.916653,-65
2021-09-24 14:50:25.916660,-238
2021-09-24 14:50:25.916666,-502
2021-09-24 14:50:25.916673,-563
2021-09-24 14:50:25.916679,-221
2021-09-24 14:50:25.916686,352
2021-09-24 14:50:25.916692,687
2021-09-24 14:50:25.916711,446
2021-09-24 14:50:25.916718,92
2021-09-24 14:50:25.916724,58
2021-09-24 14:50:25.916731,31
2021-09-24 14:50:25.916737,-89
2021-09-24 14:50:25.916744,-99
2021-09-24 14:50:25.916751,-75
2021-09-24 14:50:25.916757,-106
2021-09-24 14:50:25.916764,-119
2021-09-24 14:50:26.230071,-109
2021-09-24 14:50:26.230087,-119
2021-09-24 14:50:26.230093,-140
2021-09-24 14:50:26.230098,-148
2021-09-24 14:50:26.230104,-157
2021-09-24 14:50:26.230109,-167
2021-09-24 14:50:26.230114,-177
2021-09-24 14:50:26.230119,-196
2021-09-24 14:50:26.230125,-223
2021-09-24 14:50:26.230129,-250
2021-09-24 14:50:26.230135,-276
2021-09-24 14:50:26.230139,-306
2021-09-24 14:50:26.230145,-337
2021-09-24 14:50:26.230149,-366
2021-09-24 14:50:26.230154,-398
2021-09-24 14:50:26.230159,-420
2021-09-24 14:50:26.230165,-425
2021-09-24 14:50:26.230169,-412
2021-09-24 14:50:26.230175,-383
2021-09-24 14:50:26.230179,-320
2021-09-24 14:50:26.230185,-233
2021-09-24 14:50:26.230190,-136
2021-09-24 14:50:26.230195,-29
2021-09-24 14:50:26.230200,65
2021-09-24 14:50:26.230204,136
2021-09-24 14:50:26.230210,184
2021-09-24 14:50:26.230214,213
2021-09-24 14:50:26.230220,230
2021-09-24 14:50:26.230224,238
2021-09-24 14:50:26.230230,240
2021-09-24 14:50:26.321612,242
2021-09-24 14:50:26.321638,235
2021-09-24 14:50:26.321648,218
2021-09-24 14:50:26.321657,204
2021-09-24 14:50:26.321665,199
2021-09-24 14:50:26.321674,191
2021-09-24 14:50:26.321682,182
2021-09-24 14:50:26.321691,165
2021-09-24 14:50:26.321700,143
2021-09-24 14:50:26.321708,131
2021-09-24 14:50:26.321717,128
2021-09-24 14:50:26.321725,121
2021-09-24 14:50:26.321734,114
2021-09-24 14:50:26.321742,104
2021-09-24 14:50:26.321752,94
2021-09-24 14:50:26.321760,92
2021-09-24 14:50:26.321769,87
2021-09-24 14:50:26.321777,82
2021-09-24 14:50:26.321786,80
2021-09-24 14:50:26.321794,72
2021-09-24 14:50:26.321802,65
2021-09-24 14:50:26.321810,60
2021-09-24 14:50:26.321819,63
2021-09-24 14:50:26.321827,68
2021-09-24 14:50:26.321835,63
2021-09-24 14:50:26.321844,55
2021-09-24 14:50:26.321852,51
2021-09-24 14:50:26.321860,53
2021-09-24 14:50:26.321868,58
2021-09-24 14:50:26.321876,60
2021-09-24 14:50:26.547351,58
2021-09-24 14:50:26.547367,53
2021-09-24 14:50:26.547372,53
2021-09-24 14:50:26.547377,53
2021-09-24 14:50:26.547382,53
2021-09-24 14:50:26.547387,51
2021-09-24 14:50:26.547395,48
2021-09-24 14:50:26.547403,38
2021-09-24 14:50:26.547410,36
2021-09-24 14:50:26.547418,43
2021-09-24 14:50:26.547469,43
2021-09-24 14:50:26.547492,41
2021-09-24 14:50:26.547501,43
2021-09-24 14:50:26.547510,43
2021-09-24 14:50:26.547518,38
2021-09-24 14:50:26.547526,24
2021-09-24 14:50:26.547534,4
2021-09-24 14:50:26.547597,2
2021-09-24 14:50:26.547610,4
2021-09-24 14:50:26.547619,0
2021-09-24 14:50:26.547628,-7
2021-09-24 14:50:26.547636,2
2021-09-24 14:50:26.547665,17
2021-09-24 14:50:26.547679,31
2021-09-24 14:50:26.547698,34
2021-09-24 14:50:26.547707,29
2021-09-24 14:50:26.547715,31
2021-09-24 14:50:26.547723,36
2021-09-24 14:50:26.547731,36
2021-09-24 14:50:26.547738,36
2021-09-24 14:50:26.772129,38
2021-09-24 14:50:26.772151,38
2021-09-24 14:50:26.772159,29
2021-09-24 14:50:26.772165,-4
2021-09-24 14:50:26.772172,-80
2021-09-24 14:50:26.772178,-274
2021-09-24 14:50:26.772185,-539
2021-09-24 14:50:26.772191,-544
2021-09-24 14:50:26.772197,-133
2021-09-24 14:50:26.772204,437
2021-09-24 14:50:26.772210,687
2021-09-24 14:50:26.772217,393
2021-09-24 14:50:26.772223,77
2021-09-24 14:50:26.772229,58
2021-09-24 14:50:26.772236,7
2021-09-24 14:50:26.772242,-102
2021-09-24 14:50:26.772249,-97
2021-09-24 14:50:26.772255,-72
2021-09-24 14:50:26.772262,-111
2021-09-24 14:50:26.772268,-133
2021-09-24 14:50:26.772274,-138
2021-09-24 14:50:26.772281,-157
2021-09-24 14:50:26.772287,-167
2021-09-24 14:50:26.772294,-177
2021-09-24 14:50:26.772300,-194
2021-09-24 14:50:26.772306,-204
2021-09-24 14:50:26.772313,-213
2021-09-24 14:50:26.772319,-235
2021-09-24 14:50:26.772326,-259
2021-09-24 14:50:26.772332,-276
2021-09-24 14:50:26.997088,-301
2021-09-24 14:50:26.997110,-332
2021-09-24 14:50:26.997117,-366
2021-09-24 14:50:26.997124,-393
2021-09-24 14:50:26.997131,-412
2021-09-24 14:50:26.997137,-427
2021-09-24 14:50:26.997144,-434
2021-09-24 14:50:26.997150,-412
2021-09-24 14:50:26.997157,-371
2021-09-24 14:50:26.997163,-313
2021-09-24 14:50:26.997170,-221
2021-09-24 14:50:26.997176,-119
2021-09-24 14:50:26.997183,-29
2021-09-24 14:50:26.997189,58
2021-09-24 14:50:26.997196,136
2021-09-24 14:50:26.997202,182
2021-09-24 14:50:26.997209,206
2021-09-24 14:50:26.997215,218
2021-09-24 14:50:26.997222,218
2021-09-24 14:50:26.997228,221
2021-09-24 14:50:26.997235,221
2021-09-24 14:50:26.997242,213
2021-09-24 14:50:26.997248,206
2021-09-24 14:50:26.997254,199
2021-09-24 14:50:26.997261,189
2021-09-24 14:50:26.997268,174
2021-09-24 14:50:26.997274,162
2021-09-24 14:50:26.997280,153
2021-09-24 14:50:26.997287,138
2021-09-24 14:50:26.997293,126
2021-09-24 14:50:27.266146,121
2021-09-24 14:50:27.266167,116
2021-09-24 14:50:27.266174,106
2021-09-24 14:50:27.266179,99
2021-09-24 14:50:27.266184,89
2021-09-24 14:50:27.266189,77
2021-09-24 14:50:27.266194,72
2021-09-24 14:50:27.266200,72
2021-09-24 14:50:27.266205,75
2021-09-24 14:50:27.266210,75
2021-09-24 14:50:27.266216,70
2021-09-24 14:50:27.266221,65
2021-09-24 14:50:27.266226,63
2021-09-24 14:50:27.266231,70
2021-09-24 14:50:27.266236,75
2021-09-24 14:50:27.266242,72
2021-09-24 14:50:27.266247,65
2021-09-24 14:50:27.266252,63
2021-09-24 14:50:27.266257,68
2021-09-24 14:50:27.266262,68
2021-09-24 14:50:27.266268,63
2021-09-24 14:50:27.266273,60
2021-09-24 14:50:27.266278,60
2021-09-24 14:50:27.266283,60
2021-09-24 14:50:27.266289,58
2021-09-24 14:50:27.266294,48
2021-09-24 14:50:27.266299,41
2021-09-24 14:50:27.266304,31
2021-09-24 14:50:27.266309,24
2021-09-24 14:50:27.266315,24
2021-09-24 14:50:27.492277,31
2021-09-24 14:50:27.492307,41
2021-09-24 14:50:27.492319,46
2021-09-24 14:50:27.492329,41
2021-09-24 14:50:27.492339,19
2021-09-24 14:50:27.492349,2
2021-09-24 14:50:27.492359,4
2021-09-24 14:50:27.492369,12
2021-09-24 14:50:27.492379,4
2021-09-24 14:50:27.492403,-7
2021-09-24 14:50:27.492414,0
2021-09-24 14:50:27.492425,19
2021-09-24 14:50:27.492435,36
2021-09-24 14:50:27.492445,41
2021-09-24 14:50:27.492455,38
2021-09-24 14:50:27.492465,31
2021-09-24 14:50:27.492475,29
2021-09-24 14:50:27.492557,31
2021-09-24 14:50:27.492580,31
2021-09-24 14:50:27.492593,31
2021-09-24 14:50:27.492610,31
2021-09-24 14:50:27.492621,14
2021-09-24 14:50:27.492631,-19
2021-09-24 14:50:27.492641,-82
2021-09-24 14:50:27.492651,-267
2021-09-24 14:50:27.492661,-536
2021-09-24 14:50:27.492671,-568
2021-09-24 14:50:27.492681,-174
2021-09-24 14:50:27.492691,415
2021-09-24 14:50:27.492706,665
2021-09-24 14:50:27.716914,354
2021-09-24 14:50:27.716937,65
2021-09-24 14:50:27.716945,70
2021-09-24 14:50:27.716951,2
2021-09-24 14:50:27.716958,-126
2021-09-24 14:50:27.716965,-114
2021-09-24 14:50:27.716971,-87
2021-09-24 14:50:27.716978,-126
2021-09-24 14:50:27.716984,-138
2021-09-24 14:50:27.716991,-126
2021-09-24 14:50:27.716997,-143
2021-09-24 14:50:27.717004,-157
2021-09-24 14:50:27.717010,-160
2021-09-24 14:50:27.717017,-172
2021-09-24 14:50:27.717023,-191
2021-09-24 14:50:27.717030,-213
2021-09-24 14:50:27.717036,-235
2021-09-24 14:50:27.717043,-252
2021-09-24 14:50:27.717049,-274
2021-09-24 14:50:27.717056,-303
2021-09-24 14:50:27.717062,-340
2021-09-24 14:50:27.717069,-376
2021-09-24 14:50:27.717075,-398
2021-09-24 14:50:27.717082,-417
2021-09-24 14:50:27.717088,-427
2021-09-24 14:50:27.717094,-417
2021-09-24 14:50:27.717101,-400
2021-09-24 14:50:27.717107,-369
2021-09-24 14:50:27.717114,-301
2021-09-24 14:50:27.717120,-208
2021-09-24 14:50:27.942743,-121
2021-09-24 14:50:27.942765,-43
2021-09-24 14:50:27.942772,38
2021-09-24 14:50:27.942779,104
2021-09-24 14:50:27.942786,150
2021-09-24 14:50:27.942792,184
2021-09-24 14:50:27.942799,201
2021-09-24 14:50:27.942805,199
2021-09-24 14:50:27.942812,191
2021-09-24 14:50:27.942819,182
2021-09-24 14:50:27.942825,177
2021-09-24 14:50:27.942832,174
2021-09-24 14:50:27.942839,167
2021-09-24 14:50:27.942845,155
2021-09-24 14:50:27.942852,140
2021-09-24 14:50:27.942858,121
2021-09-24 14:50:27.942865,119
2021-09-24 14:50:27.942871,116
2021-09-24 14:50:27.942878,106
2021-09-24 14:50:27.942884,102
2021-09-24 14:50:27.942891,92
2021-09-24 14:50:27.942897,75
2021-09-24 14:50:27.942903,72
2021-09-24 14:50:27.942910,77
2021-09-24 14:50:27.942916,68
2021-09-24 14:50:27.942923,55
2021-09-24 14:50:27.942930,55
2021-09-24 14:50:27.942936,65
2021-09-24 14:50:27.942943,68
2021-09-24 14:50:27.942949,65
2021-09-24 14:50:28.210478,60
2021-09-24 14:50:28.210496,60
2021-09-24 14:50:28.210502,58
2021-09-24 14:50:28.210508,55
2021-09-24 14:50:28.210513,53
2021-09-24 14:50:28.210518,51
2021-09-24 14:50:28.210523,51
2021-09-24 14:50:28.210529,51
2021-09-24 14:50:28.210534,38
2021-09-24 14:50:28.210539,31
2021-09-24 14:50:28.210544,38
2021-09-24 14:50:28.210550,41
2021-09-24 14:50:28.210555,38
2021-09-24 14:50:28.210560,41
2021-09-24 14:50:28.210565,46
2021-09-24 14:50:28.210570,38
2021-09-24 14:50:28.210576,29
2021-09-24 14:50:28.210581,14
2021-09-24 14:50:28.210586,4
2021-09-24 14:50:28.210591,7
2021-09-24 14:50:28.210597,4
2021-09-24 14:50:28.210602,2
2021-09-24 14:50:28.210607,19
2021-09-24 14:50:28.210613,41
2021-09-24 14:50:28.210618,38
2021-09-24 14:50:28.210623,34
2021-09-24 14:50:28.210628,38
2021-09-24 14:50:28.210633,46
2021-09-24 14:50:28.210639,43
2021-09-24 14:50:28.210644,41
2021-09-24 14:50:28.392146,43
2021-09-24 14:50:28.392192,41
2021-09-24 14:50:28.392207,31
2021-09-24 14:50:28.392220,9
2021-09-24 14:50:28.392231,-31
2021-09-24 14:50:28.392243,-131
2021-09-24 14:50:28.392254,-359
2021-09-24 14:50:28.392266,-561
2021-09-24 14:50:28.392277,-432
2021-09-24 14:50:28.392288,63
2021-09-24 14:50:28.392300,580
2021-09-24 14:50:28.392311,600
2021-09-24 14:50:28.392322,196
2021-09-24 14:50:28.392333,17
2021-09-24 14:50:28.392344,46
2021-09-24 14:50:28.392355,-55
2021-09-24 14:50:28.392391,-143
2021-09-24 14:50:28.392417,-116
2021-09-24 14:50:28.392430,-114
2021-09-24 14:50:28.392441,-143
2021-09-24 14:50:28.392452,-145
2021-09-24 14:50:28.392463,-148
2021-09-24 14:50:28.392474,-162
2021-09-24 14:50:28.393745,-170
2021-09-24 14:50:28.393765,-182
2021-09-24 14:50:28.393774,-194
2021-09-24 14:50:28.393782,-201
2021-09-24 14:50:28.393790,-218
2021-09-24 14:50:28.393799,-242
2021-09-24 14:50:28.393828,-262
2021-09-24 14:50:28.662190,-289
2021-09-24 14:50:28.662212,-320
2021-09-24 14:50:28.662219,-354
2021-09-24 14:50:28.662226,-386
2021-09-24 14:50:28.662233,-410
2021-09-24 14:50:28.662239,-425
2021-09-24 14:50:28.662246,-432
2021-09-24 14:50:28.662252,-432
2021-09-24 14:50:28.662258,-408
2021-09-24 14:50:28.662265,-347
2021-09-24 14:50:28.662271,-255
2021-09-24 14:50:28.662278,-155
2021-09-24 14:50:28.662284,-60
2021-09-24 14:50:28.662291,26
2021-09-24 14:50:28.662297,106
2021-09-24 14:50:28.662304,160
2021-09-24 14:50:28.662310,191
2021-09-24 14:50:28.662317,218
2021-09-24 14:50:28.662323,233
2021-09-24 14:50:28.662329,230
2021-09-24 14:50:28.662336,225
2021-09-24 14:50:28.662342,223
2021-09-24 14:50:28.662349,221
2021-09-24 14:50:28.662355,211
2021-09-24 14:50:28.662361,199
2021-09-24 14:50:28.662368,191
2021-09-24 14:50:28.662374,179
2021-09-24 14:50:28.662381,162
2021-09-24 14:50:28.662387,155
2021-09-24 14:50:28.662394,148
2021-09-24 14:50:28.886907,138
2021-09-24 14:50:28.886930,131
2021-09-24 14:50:28.886938,126
2021-09-24 14:50:28.886945,119
2021-09-24 14:50:28.886951,116
2021-09-24 14:50:28.886958,111
2021-09-24 14:50:28.886965,99
2021-09-24 14:50:28.886971,99
2021-09-24 14:50:28.886978,106
2021-09-24 14:50:28.886984,99
2021-09-24 14:50:28.886991,87
2021-09-24 14:50:28.886997,82
2021-09-24 14:50:28.887004,72
2021-09-24 14:50:28.887010,70
2021-09-24 14:50:28.887021,72
2021-09-24 14:50:28.887027,65
2021-09-24 14:50:28.887034,65
2021-09-24 14:50:28.887041,60
2021-09-24 14:50:28.887048,51
2021-09-24 14:50:28.887054,53
2021-09-24 14:50:28.887060,58
2021-09-24 14:50:28.887067,58
2021-09-24 14:50:28.887073,63
2021-09-24 14:50:28.887080,75
2021-09-24 14:50:28.887086,75
2021-09-24 14:50:28.887093,65
2021-09-24 14:50:28.887099,55
2021-09-24 14:50:28.887106,51
2021-09-24 14:50:28.887112,38
2021-09-24 14:50:28.887119,26
2021-09-24 14:50:29.067363,29
2021-09-24 14:50:29.067384,48
2021-09-24 14:50:29.067394,60
2021-09-24 14:50:29.067399,63
2021-09-24 14:50:29.067404,63
2021-09-24 14:50:29.067408,60
2021-09-24 14:50:29.067413,48
2021-09-24 14:50:29.067417,48
2021-09-24 14:50:29.067424,53
2021-09-24 14:50:29.067429,53
2021-09-24 14:50:29.067433,51
2021-09-24 14:50:29.067440,48
2021-09-24 14:50:29.067448,29
2021-09-24 14:50:29.067457,-14
2021-09-24 14:50:29.067465,-109
2021-09-24 14:50:29.067473,-323
2021-09-24 14:50:29.067482,-539
2021-09-24 14:50:29.067515,-444
2021-09-24 14:50:29.067526,12
2021-09-24 14:50:29.067549,553
2021-09-24 14:50:29.067595,685
2021-09-24 14:50:29.067604,320
2021-09-24 14:50:29.067612,82
2021-09-24 14:50:29.067620,104
2021-09-24 14:50:29.067628,14
2021-09-24 14:50:29.067964,-89
2021-09-24 14:50:29.067974,-63
2021-09-24 14:50:29.067983,-55
2021-09-24 14:50:29.067991,-97
2021-09-24 14:50:29.068010,-99
2021-09-24 14:50:29.292096,-94
2021-09-24 14:50:29.292126,-111
2021-09-24 14:50:29.292138,-123
2021-09-24 14:50:29.292148,-133
2021-09-24 14:50:29.292159,-150
2021-09-24 14:50:29.292169,-170
2021-09-24 14:50:29.292179,-184
2021-09-24 14:50:29.292189,-201
2021-09-24 14:50:29.292199,-223
2021-09-24 14:50:29.292209,-257
2021-09-24 14:50:29.292219,-296
2021-09-24 14:50:29.292229,-332
2021-09-24 14:50:29.292239,-364
2021-09-24 14:50:29.292249,-393
2021-09-24 14:50:29.292259,-417
2021-09-24 14:50:29.292269,-422
2021-09-24 14:50:29.292279,-422
2021-09-24 14:50:29.292289,-408
2021-09-24 14:50:29.292299,-357
2021-09-24 14:50:29.292310,-267
2021-09-24 14:50:29.292320,-162
2021-09-24 14:50:29.292330,-55
2021-09-24 14:50:29.292340,43
2021-09-24 14:50:29.292351,121
2021-09-24 14:50:29.292361,182
2021-09-24 14:50:29.292371,223
2021-09-24 14:50:29.292381,245
2021-09-24 14:50:29.292391,250
2021-09-24 14:50:29.292401,247
2021-09-24 14:50:29.292411,242
2021-09-24 14:50:29.517299,245
2021-09-24 14:50:29.517320,238
2021-09-24 14:50:29.517328,230
2021-09-24 14:50:29.517335,218
2021-09-24 14:50:29.517342,201
2021-09-24 14:50:29.517348,194
2021-09-24 14:50:29.517355,191
2021-09-24 14:50:29.517361,182
2021-09-24 14:50:29.517368,170
2021-09-24 14:50:29.517374,155
2021-09-24 14:50:29.517381,138
2021-09-24 14:50:29.517387,133
2021-09-24 14:50:29.517394,128
2021-09-24 14:50:29.517400,121
2021-09-24 14:50:29.517407,114
2021-09-24 14:50:29.517414,102
2021-09-24 14:50:29.517422,89
2021-09-24 14:50:29.517433,92
2021-09-24 14:50:29.517445,99
2021-09-24 14:50:29.517457,102
2021-09-24 14:50:29.517468,99
2021-09-24 14:50:29.517480,97
2021-09-24 14:50:29.517502,97
2021-09-24 14:50:29.517514,97
2021-09-24 14:50:29.517526,97
2021-09-24 14:50:29.517583,99
2021-09-24 14:50:29.517605,94
2021-09-24 14:50:29.517618,89
2021-09-24 14:50:29.517786,87
2021-09-24 14:50:29.517810,87
2021-09-24 14:50:29.876685,82
2021-09-24 14:50:29.876702,77
2021-09-24 14:50:29.876709,70
2021-09-24 14:50:29.876714,55
2021-09-24 14:50:29.876720,55
2021-09-24 14:50:29.876725,68
2021-09-24 14:50:29.876730,68
2021-09-24 14:50:29.876735,58
2021-09-24 14:50:29.876740,43
2021-09-24 14:50:29.876745,29
2021-09-24 14:50:29.876751,21
2021-09-24 14:50:29.876756,14
2021-09-24 14:50:29.876761,12
2021-09-24 14:50:29.876766,26
2021-09-24 14:50:29.876771,46
2021-09-24 14:50:29.876776,46
2021-09-24 14:50:29.876781,38
2021-09-24 14:50:29.876787,41
2021-09-24 14:50:29.876792,41
2021-09-24 14:50:29.876797,34
2021-09-24 14:50:29.876802,36
2021-09-24 14:50:29.876807,31
2021-09-24 14:50:29.876812,17
2021-09-24 14:50:29.876828,9
2021-09-24 14:50:29.876833,4
2021-09-24 14:50:29.876838,-38
2021-09-24 14:50:29.876844,-165
2021-09-24 14:50:29.876849,-405
2021-09-24 14:50:29.876854,-604
2021-09-24 14:50:29.876859,-468
2021-09-24 14:50:30.056667,17
2021-09-24 14:50:30.056698,558
2021-09-24 14:50:30.056710,665
2021-09-24 14:50:30.056721,272
2021-09-24 14:50:30.056731,34
2021-09-24 14:50:30.056741,65
2021-09-24 14:50:30.056751,-12
2021-09-24 14:50:30.056761,-106
2021-09-24 14:50:30.056770,-85
2021-09-24 14:50:30.056780,-89
2021-09-24 14:50:30.056790,-121
2021-09-24 14:50:30.056800,-116
2021-09-24 14:50:30.056810,-116
2021-09-24 14:50:30.056820,-138
2021-09-24 14:50:30.056830,-155
2021-09-24 14:50:30.056840,-162
2021-09-24 14:50:30.056850,-172
2021-09-24 14:50:30.056860,-184
2021-09-24 14:50:30.056869,-196
2021-09-24 14:50:30.056879,-218
2021-09-24 14:50:30.056889,-250
2021-09-24 14:50:30.056899,-279
2021-09-24 14:50:30.056909,-303
2021-09-24 14:50:30.056919,-337
2021-09-24 14:50:30.056929,-376
2021-09-24 14:50:30.056939,-403
2021-09-24 14:50:30.056948,-427
2021-09-24 14:50:30.056958,-437
2021-09-24 14:50:30.056968,-429
2021-09-24 14:50:30.056978,-403
2021-09-24 14:50:30.370422,-352
2021-09-24 14:50:30.370441,-269
2021-09-24 14:50:30.370449,-165
2021-09-24 14:50:30.370456,-53
2021-09-24 14:50:30.370463,48
2021-09-24 14:50:30.370470,133
2021-09-24 14:50:30.370476,194
2021-09-24 14:50:30.370482,225
2021-09-24 14:50:30.370489,235
2021-09-24 14:50:30.370495,247
2021-09-24 14:50:30.370502,255
2021-09-24 14:50:30.370508,252
2021-09-24 14:50:30.370515,247
2021-09-24 14:50:30.370521,235
2021-09-24 14:50:30.370528,221
2021-09-24 14:50:30.370534,216
2021-09-24 14:50:30.370541,216
2021-09-24 14:50:30.370574,206
2021-09-24 14:50:30.370583,191
2021-09-24 14:50:30.370590,179
2021-09-24 14:50:30.370596,170
2021-09-24 14:50:30.370603,155
2021-09-24 14:50:30.370609,140
2021-09-24 14:50:30.370616,133
2021-09-24 14:50:30.370622,126
2021-09-24 14:50:30.370629,119
2021-09-24 14:50:30.370635,111
2021-09-24 14:50:30.370642,109
2021-09-24 14:50:30.370648,97
2021-09-24 14:50:30.370655,89
2021-09-24 14:50:30.462166,92
2021-09-24 14:50:30.462188,94
2021-09-24 14:50:30.462196,92
2021-09-24 14:50:30.462203,89
2021-09-24 14:50:30.462209,85
2021-09-24 14:50:30.462216,82
2021-09-24 14:50:30.462222,82
2021-09-24 14:50:30.462229,80
2021-09-24 14:50:30.462235,77
2021-09-24 14:50:30.462242,75
2021-09-24 14:50:30.462249,77
2021-09-24 14:50:30.462255,82
2021-09-24 14:50:30.462262,77
2021-09-24 14:50:30.462268,68
2021-09-24 14:50:30.462275,70
2021-09-24 14:50:30.462281,70
2021-09-24 14:50:30.462288,72
2021-09-24 14:50:30.462294,75
2021-09-24 14:50:30.462301,77
2021-09-24 14:50:30.462307,68
2021-09-24 14:50:30.462314,53
2021-09-24 14:50:30.462321,41
2021-09-24 14:50:30.462327,26
2021-09-24 14:50:30.462334,14
2021-09-24 14:50:30.462340,4
2021-09-24 14:50:30.462347,-2
2021-09-24 14:50:30.462354,12
2021-09-24 14:50:30.462360,36
2021-09-24 14:50:30.462367,38
2021-09-24 14:50:30.462373,34
2021-09-24 14:50:30.731469,36
2021-09-24 14:50:30.731489,43
2021-09-24 14:50:30.731497,41
2021-09-24 14:50:30.731504,38
2021-09-24 14:50:30.731510,41
2021-09-24 14:50:30.731517,36
2021-09-24 14:50:30.731523,26
2021-09-24 14:50:30.731530,17
2021-09-24 14:50:30.731536,-4
2021-09-24 14:50:30.731543,-80
2021-09-24 14:50:30.731549,-264
2021-09-24 14:50:30.731556,-529
2021-09-24 14:50:30.731562,-580
2021-09-24 14:50:30.731569,-228
2021-09-24 14:50:30.731575,354
2021-09-24 14:50:30.731581,697
2021-09-24 14:50:30.731588,454
2021-09-24 14:50:30.731594,92
2021-09-24 14:50:30.731601,53
2021-09-24 14:50:30.731607,29
2021-09-24 14:50:30.731613,-87
2021-09-24 14:50:30.731620,-94
2021-09-24 14:50:30.731626,-63
2021-09-24 14:50:30.731632,-97
2021-09-24 14:50:30.731639,-116
2021-09-24 14:50:30.731645,-109
2021-09-24 14:50:30.731652,-126
2021-09-24 14:50:30.731658,-145
2021-09-24 14:50:30.731664,-145
2021-09-24 14:50:30.731671,-155
2021-09-24 14:50:30.912005,-172
2021-09-24 14:50:30.912027,-184
2021-09-24 14:50:30.912035,-201
2021-09-24 14:50:30.912042,-235
2021-09-24 14:50:30.912049,-274
2021-09-24 14:50:30.912055,-310
2021-09-24 14:50:30.912062,-342
2021-09-24 14:50:30.912068,-374
2021-09-24 14:50:30.912075,-403
2021-09-24 14:50:30.912082,-427
2021-09-24 14:50:30.912088,-444
2021-09-24 14:50:30.912095,-446
2021-09-24 14:50:30.912102,-427
2021-09-24 14:50:30.912108,-386
2021-09-24 14:50:30.912115,-318
2021-09-24 14:50:30.912121,-221
2021-09-24 14:50:30.912128,-106
2021-09-24 14:50:30.912134,-7
2021-09-24 14:50:30.912141,77
2021-09-24 14:50:30.912147,155
2021-09-24 14:50:30.912154,204
2021-09-24 14:50:30.912160,225
2021-09-24 14:50:30.912167,240
2021-09-24 14:50:30.912173,247
2021-09-24 14:50:30.912180,247
2021-09-24 14:50:30.912186,245
2021-09-24 14:50:30.912193,245
2021-09-24 14:50:30.912200,233
2021-09-24 14:50:30.912206,216
2021-09-24 14:50:30.912213,208
2021-09-24 14:50:31.137130,204
2021-09-24 14:50:31.137152,196
2021-09-24 14:50:31.137160,187
2021-09-24 14:50:31.137167,177
2021-09-24 14:50:31.137173,162
2021-09-24 14:50:31.137180,148
2021-09-24 14:50:31.137186,143
2021-09-24 14:50:31.137193,140
2021-09-24 14:50:31.137199,133
2021-09-24 14:50:31.137206,128
2021-09-24 14:50:31.137212,121
2021-09-24 14:50:31.137218,111
2021-09-24 14:50:31.137225,109
2021-09-24 14:50:31.137231,119
2021-09-24 14:50:31.137238,119
2021-09-24 14:50:31.137244,114
2021-09-24 14:50:31.137251,111
2021-09-24 14:50:31.137257,116
2021-09-24 14:50:31.137263,119
2021-09-24 14:50:31.137270,119
2021-09-24 14:50:31.137276,119
2021-09-24 14:50:31.137283,116
2021-09-24 14:50:31.137289,111
2021-09-24 14:50:31.137296,106
2021-09-24 14:50:31.137302,104
2021-09-24 14:50:31.137309,106
2021-09-24 14:50:31.137315,104
2021-09-24 14:50:31.137322,94
2021-09-24 14:50:31.137328,94
2021-09-24 14:50:31.137334,94
2021-09-24 14:50:31.361718,89
2021-09-24 14:50:31.361735,82
2021-09-24 14:50:31.361741,82
2021-09-24 14:50:31.361747,77
2021-09-24 14:50:31.361752,68
2021-09-24 14:50:31.361761,75
2021-09-24 14:50:31.361767,82
2021-09-24 14:50:31.361772,70
2021-09-24 14:50:31.361777,43
2021-09-24 14:50:31.361782,7
2021-09-24 14:50:31.361788,-7
2021-09-24 14:50:31.361793,-7
2021-09-24 14:50:31.361798,-12
2021-09-24 14:50:31.361803,0
2021-09-24 14:50:31.361808,21
2021-09-24 14:50:31.361814,26
2021-09-24 14:50:31.361819,24
2021-09-24 14:50:31.361824,29
2021-09-24 14:50:31.361829,34
2021-09-24 14:50:31.361837,36
2021-09-24 14:50:31.361842,36
2021-09-24 14:50:31.361847,38
2021-09-24 14:50:31.361852,36
2021-09-24 14:50:31.361857,34
2021-09-24 14:50:31.361862,31
2021-09-24 14:50:31.361867,19
2021-09-24 14:50:31.361873,-29
2021-09-24 14:50:31.361878,-167
2021-09-24 14:50:31.361883,-427
2021-09-24 14:50:31.361888,-590
2021-09-24 14:50:31.678606,-364
2021-09-24 14:50:31.678644,196
2021-09-24 14:50:31.678666,658
2021-09-24 14:50:31.678675,563
2021-09-24 14:50:31.678682,165
2021-09-24 14:50:31.678689,43
2021-09-24 14:50:31.678697,51
2021-09-24 14:50:31.678706,-63
2021-09-24 14:50:31.678714,-111
2021-09-24 14:50:31.678722,-82
2021-09-24 14:50:31.678731,-102
2021-09-24 14:50:31.678739,-121
2021-09-24 14:50:31.678747,-116
2021-09-24 14:50:31.678755,-123
2021-09-24 14:50:31.678762,-138
2021-09-24 14:50:31.678770,-148
2021-09-24 14:50:31.678778,-155
2021-09-24 14:50:31.678787,-162
2021-09-24 14:50:31.678795,-170
2021-09-24 14:50:31.678804,-187
2021-09-24 14:50:31.678813,-211
2021-09-24 14:50:31.678821,-240
2021-09-24 14:50:31.678828,-262
2021-09-24 14:50:31.678835,-289
2021-09-24 14:50:31.678843,-323
2021-09-24 14:50:31.678851,-354
2021-09-24 14:50:31.678858,-383
2021-09-24 14:50:31.678865,-398
2021-09-24 14:50:31.678872,-398
2021-09-24 14:50:31.678879,-388
2021-09-24 14:50:31.856939,-359
2021-09-24 14:50:31.856962,-306
2021-09-24 14:50:31.856970,-225
2021-09-24 14:50:31.856977,-126
2021-09-24 14:50:31.856984,-24
2021-09-24 14:50:31.856991,63
2021-09-24 14:50:31.856997,140
2021-09-24 14:50:31.857004,196
2021-09-24 14:50:31.857011,221
2021-09-24 14:50:31.857017,230
2021-09-24 14:50:31.857024,245
2021-09-24 14:50:31.857030,250
2021-09-24 14:50:31.857037,242
2021-09-24 14:50:31.857043,240
2021-09-24 14:50:31.857050,238
2021-09-24 14:50:31.857057,216
2021-09-24 14:50:31.857063,196
2021-09-24 14:50:31.857070,199
2021-09-24 14:50:31.857076,194
2021-09-24 14:50:31.857083,170
2021-09-24 14:50:31.857090,150
2021-09-24 14:50:31.857096,143
2021-09-24 14:50:31.857103,140
2021-09-24 14:50:31.857109,136
2021-09-24 14:50:31.857116,133
2021-09-24 14:50:31.857122,126
2021-09-24 14:50:31.857129,116
2021-09-24 14:50:31.857136,116
2021-09-24 14:50:31.857142,119
2021-09-24 14:50:31.857149,116
2021-09-24 14:50:32.082209,119
2021-09-24 14:50:32.082231,121
2021-09-24 14:50:32.082239,116
2021-09-24 14:50:32.082246,111
2021-09-24 14:50:32.082252,109
2021-09-24 14:50:32.082259,106
2021-09-24 14:50:32.082265,99
2021-09-24 14:50:32.082272,89
2021-09-24 14:50:32.082278,75
2021-09-24 14:50:32.082285,72
2021-09-24 14:50:32.082291,77
2021-09-24 14:50:32.082298,77
2021-09-24 14:50:32.082305,72
2021-09-24 14:50:32.082311,65
2021-09-24 14:50:32.082318,65
2021-09-24 14:50:32.082324,68
2021-09-24 14:50:32.082331,68
2021-09-24 14:50:32.082337,65
2021-09-24 14:50:32.082344,63
2021-09-24 14:50:32.082350,60
2021-09-24 14:50:32.082357,63
2021-09-24 14:50:32.082363,65
2021-09-24 14:50:32.082370,58
2021-09-24 14:50:32.082376,36
2021-09-24 14:50:32.082383,19
2021-09-24 14:50:32.082389,12
2021-09-24 14:50:32.082396,9
2021-09-24 14:50:32.082402,2
2021-09-24 14:50:32.082409,12
2021-09-24 14:50:32.082415,34
2021-09-24 14:50:32.352843,43
2021-09-24 14:50:32.352865,43
2021-09-24 14:50:32.352875,43
2021-09-24 14:50:32.352883,41
2021-09-24 14:50:32.352890,38
2021-09-24 14:50:32.352897,46
2021-09-24 14:50:32.352904,46
2021-09-24 14:50:32.352912,34
2021-09-24 14:50:32.353430,26
2021-09-24 14:50:32.353466,19
2021-09-24 14:50:32.353477,4
2021-09-24 14:50:32.353483,-26
2021-09-24 14:50:32.353490,-116
2021-09-24 14:50:32.353497,-335
2021-09-24 14:50:32.353504,-583
2021-09-24 14:50:32.353509,-539
2021-09-24 14:50:32.353516,-87
2021-09-24 14:50:32.353522,497
2021-09-24 14:50:32.353528,651
2021-09-24 14:50:32.353533,281
2021-09-24 14:50:32.353540,43
2021-09-24 14:50:32.353545,68
2021-09-24 14:50:32.353552,-19
2021-09-24 14:50:32.353558,-123
2021-09-24 14:50:32.353563,-102
2021-09-24 14:50:32.353568,-97
2021-09-24 14:50:32.353574,-128
2021-09-24 14:50:32.353580,-126
2021-09-24 14:50:32.353586,-123
2021-09-24 14:50:32.353591,-140
2021-09-24 14:50:32.531804,-150
2021-09-24 14:50:32.531831,-155
2021-09-24 14:50:32.531841,-174
2021-09-24 14:50:32.531850,-191
2021-09-24 14:50:32.531858,-206
2021-09-24 14:50:32.531866,-223
2021-09-24 14:50:32.531874,-247
2021-09-24 14:50:32.531882,-272
2021-09-24 14:50:32.531891,-301
2021-09-24 14:50:32.531899,-342
2021-09-24 14:50:32.531907,-376
2021-09-24 14:50:32.531915,-403
2021-09-24 14:50:32.531923,-429
2021-09-24 14:50:32.531931,-434
2021-09-24 14:50:32.531940,-415
2021-09-24 14:50:32.531949,-388
2021-09-24 14:50:32.531957,-347
2021-09-24 14:50:32.531966,-279
2021-09-24 14:50:32.531974,-187
2021-09-24 14:50:32.531982,-82
2021-09-24 14:50:32.531989,12
2021-09-24 14:50:32.531997,89
2021-09-24 14:50:32.532005,153
2021-09-24 14:50:32.532013,196
2021-09-24 14:50:32.532021,218
2021-09-24 14:50:32.532029,233
2021-09-24 14:50:32.532038,238
2021-09-24 14:50:32.532046,240
2021-09-24 14:50:32.532055,238
2021-09-24 14:50:32.532063,228
2021-09-24 14:50:32.758860,213
2021-09-24 14:50:32.758982,206
2021-09-24 14:50:32.759017,201
2021-09-24 14:50:32.759041,189
2021-09-24 14:50:32.759060,172
2021-09-24 14:50:32.759077,157
2021-09-24 14:50:32.759108,143
2021-09-24 14:50:32.759126,138
2021-09-24 14:50:32.759212,138
2021-09-24 14:50:32.759246,126
2021-09-24 14:50:32.759265,116
2021-09-24 14:50:32.759279,106
2021-09-24 14:50:32.759296,94
2021-09-24 14:50:32.759312,89
2021-09-24 14:50:32.759331,89
2021-09-24 14:50:32.759351,92
2021-09-24 14:50:32.759368,92
2021-09-24 14:50:32.759391,92
2021-09-24 14:50:32.759408,92
2021-09-24 14:50:32.759423,99
2021-09-24 14:50:32.759439,99
2021-09-24 14:50:32.759455,92
2021-09-24 14:50:32.759474,87
2021-09-24 14:50:32.759491,89
2021-09-24 14:50:32.759506,92
2021-09-24 14:50:32.759523,97
2021-09-24 14:50:32.759541,92
2021-09-24 14:50:32.759555,75
2021-09-24 14:50:32.759572,63
2021-09-24 14:50:32.759588,68
2021-09-24 14:50:32.981619,72
2021-09-24 14:50:32.981636,70
2021-09-24 14:50:32.981643,63
2021-09-24 14:50:32.981649,48
2021-09-24 14:50:32.981654,31
2021-09-24 14:50:32.981659,17
2021-09-24 14:50:32.981665,7
2021-09-24 14:50:32.981670,4
2021-09-24 14:50:32.981675,19
2021-09-24 14:50:32.981680,41
2021-09-24 14:50:32.981686,41
2021-09-24 14:50:32.981691,29
2021-09-24 14:50:32.981696,34
2021-09-24 14:50:32.981701,41
2021-09-24 14:50:32.981707,36
2021-09-24 14:50:32.981712,31
2021-09-24 14:50:32.981717,31
2021-09-24 14:50:32.981722,29
2021-09-24 14:50:32.981728,26
2021-09-24 14:50:32.981733,12
2021-09-24 14:50:32.981738,-29
2021-09-24 14:50:32.981744,-104
2021-09-24 14:50:32.981749,-284
2021-09-24 14:50:32.981754,-512
2021-09-24 14:50:32.981759,-497
2021-09-24 14:50:32.981764,-82
2021-09-24 14:50:32.981770,500
2021-09-24 14:50:32.981775,697
2021-09-24 14:50:32.981780,340
2021-09-24 14:50:32.981786,65
2021-09-24 14:50:33.251739,94
2021-09-24 14:50:33.251755,31
2021-09-24 14:50:33.251760,-97
2021-09-24 14:50:33.251765,-102
2021-09-24 14:50:33.251770,-87
2021-09-24 14:50:33.251774,-114
2021-09-24 14:50:33.251779,-123
2021-09-24 14:50:33.251783,-119
2021-09-24 14:50:33.251788,-131
2021-09-24 14:50:33.251792,-145
2021-09-24 14:50:33.251797,-155
2021-09-24 14:50:33.251802,-165
2021-09-24 14:50:33.251806,-179
2021-09-24 14:50:33.251811,-194
2021-09-24 14:50:33.251815,-213
2021-09-24 14:50:33.251819,-238
2021-09-24 14:50:33.251824,-264
2021-09-24 14:50:33.251828,-298
2021-09-24 14:50:33.251833,-330
2021-09-24 14:50:33.251837,-354
2021-09-24 14:50:33.251842,-383
2021-09-24 14:50:33.251846,-405
2021-09-24 14:50:33.251851,-410
2021-09-24 14:50:33.251855,-403
2021-09-24 14:50:33.251860,-376
2021-09-24 14:50:33.251864,-315
2021-09-24 14:50:33.251869,-238
2021-09-24 14:50:33.251873,-150
2021-09-24 14:50:33.251878,-46
2021-09-24 14:50:33.251882,53
2021-09-24 14:50:33.477385,128
2021-09-24 14:50:33.477416,187
2021-09-24 14:50:33.477428,225
2021-09-24 14:50:33.477438,242
2021-09-24 14:50:33.477448,242
2021-09-24 14:50:33.477458,245
2021-09-24 14:50:33.477468,252
2021-09-24 14:50:33.477478,250
2021-09-24 14:50:33.477488,240
2021-09-24 14:50:33.477498,218
2021-09-24 14:50:33.477508,201
2021-09-24 14:50:33.477518,201
2021-09-24 14:50:33.477528,199
2021-09-24 14:50:33.477538,184
2021-09-24 14:50:33.477548,165
2021-09-24 14:50:33.477558,148
2021-09-24 14:50:33.477665,143
2021-09-24 14:50:33.477678,143
2021-09-24 14:50:33.477686,133
2021-09-24 14:50:33.477692,119
2021-09-24 14:50:33.477699,111
2021-09-24 14:50:33.477705,111
2021-09-24 14:50:33.477712,111
2021-09-24 14:50:33.477718,114
2021-09-24 14:50:33.477725,119
2021-09-24 14:50:33.477731,121
2021-09-24 14:50:33.477738,111
2021-09-24 14:50:33.477744,99
2021-09-24 14:50:33.477751,104
2021-09-24 14:50:33.477757,114
2021-09-24 14:50:33.702441,109
2021-09-24 14:50:33.702472,104
2021-09-24 14:50:33.702484,106
2021-09-24 14:50:33.702495,104
2021-09-24 14:50:33.702505,97
2021-09-24 14:50:33.702515,102
2021-09-24 14:50:33.702526,109
2021-09-24 14:50:33.702536,109
2021-09-24 14:50:33.702546,99
2021-09-24 14:50:33.702556,85
2021-09-24 14:50:33.702635,80
2021-09-24 14:50:33.702684,75
2021-09-24 14:50:33.702698,60
2021-09-24 14:50:33.702705,43
2021-09-24 14:50:33.702712,26
2021-09-24 14:50:33.702718,21
2021-09-24 14:50:33.702725,46
2021-09-24 14:50:33.702731,65
2021-09-24 14:50:33.702738,60
2021-09-24 14:50:33.702745,58
2021-09-24 14:50:33.702751,58
2021-09-24 14:50:33.702757,51
2021-09-24 14:50:33.702764,46
2021-09-24 14:50:33.702770,48
2021-09-24 14:50:33.702777,53
2021-09-24 14:50:33.702795,51
2021-09-24 14:50:33.702802,29
2021-09-24 14:50:33.702808,-12
2021-09-24 14:50:33.702815,-82
2021-09-24 14:50:33.702822,-250
2021-09-24 14:50:33.926974,-488
2021-09-24 14:50:33.926995,-514
2021-09-24 14:50:33.927002,-145
2021-09-24 14:50:33.927008,432
2021-09-24 14:50:33.927013,702
2021-09-24 14:50:33.927019,408
2021-09-24 14:50:33.927025,102
2021-09-24 14:50:33.927031,99
2021-09-24 14:50:33.927036,34
2021-09-24 14:50:33.927042,-111
2021-09-24 14:50:33.927048,-111
2021-09-24 14:50:33.927053,-80
2021-09-24 14:50:33.927059,-116
2021-09-24 14:50:33.927065,-138
2021-09-24 14:50:33.927070,-136
2021-09-24 14:50:33.927076,-148
2021-09-24 14:50:33.927082,-157
2021-09-24 14:50:33.927088,-157
2021-09-24 14:50:33.927093,-167
2021-09-24 14:50:33.927099,-189
2021-09-24 14:50:33.927105,-208
2021-09-24 14:50:33.927110,-223
2021-09-24 14:50:33.927116,-245
2021-09-24 14:50:33.927122,-279
2021-09-24 14:50:33.927127,-308
2021-09-24 14:50:33.927133,-327
2021-09-24 14:50:33.927139,-361
2021-09-24 14:50:33.927144,-393
2021-09-24 14:50:33.927150,-408
2021-09-24 14:50:33.927156,-405
2021-09-24 14:50:34.151955,-398
2021-09-24 14:50:34.151975,-381
2021-09-24 14:50:34.151982,-340
2021-09-24 14:50:34.151989,-264
2021-09-24 14:50:34.151996,-162
2021-09-24 14:50:34.152003,-55
2021-09-24 14:50:34.152009,38
2021-09-24 14:50:34.152016,111
2021-09-24 14:50:34.152022,170
2021-09-24 14:50:34.152029,216
2021-09-24 14:50:34.152035,240
2021-09-24 14:50:34.152042,250
2021-09-24 14:50:34.152048,252
2021-09-24 14:50:34.152055,245
2021-09-24 14:50:34.152061,238
2021-09-24 14:50:34.152068,240
2021-09-24 14:50:34.152074,233
2021-09-24 14:50:34.152081,221
2021-09-24 14:50:34.152087,216
2021-09-24 14:50:34.152094,206
2021-09-24 14:50:34.152100,196
2021-09-24 14:50:34.152107,184
2021-09-24 14:50:34.152113,174
2021-09-24 14:50:34.152120,170
2021-09-24 14:50:34.152126,157
2021-09-24 14:50:34.152133,145
2021-09-24 14:50:34.152139,140
2021-09-24 14:50:34.152146,138
2021-09-24 14:50:34.152152,131
2021-09-24 14:50:34.152159,128
2021-09-24 14:50:34.421405,128
2021-09-24 14:50:34.421430,128
2021-09-24 14:50:34.421440,128
2021-09-24 14:50:34.421449,131
2021-09-24 14:50:34.421457,133
2021-09-24 14:50:34.421469,131
2021-09-24 14:50:34.421477,121
2021-09-24 14:50:34.421486,116
2021-09-24 14:50:34.421494,123
2021-09-24 14:50:34.421503,119
2021-09-24 14:50:34.421511,109
2021-09-24 14:50:34.421520,106
2021-09-24 14:50:34.421527,99
2021-09-24 14:50:34.421536,87
2021-09-24 14:50:34.421544,82
2021-09-24 14:50:34.421552,85
2021-09-24 14:50:34.421560,89
2021-09-24 14:50:34.421568,82
2021-09-24 14:50:34.421576,72
2021-09-24 14:50:34.421584,68
2021-09-24 14:50:34.421591,60
2021-09-24 14:50:34.421599,48
2021-09-24 14:50:34.421607,41
2021-09-24 14:50:34.421615,46
2021-09-24 14:50:34.421624,55
2021-09-24 14:50:34.421632,65
2021-09-24 14:50:34.421641,63
2021-09-24 14:50:34.421649,48
2021-09-24 14:50:34.421656,43
2021-09-24 14:50:34.421665,46
2021-09-24 14:50:34.602002,43
2021-09-24 14:50:34.602035,41
2021-09-24 14:50:34.602048,43
2021-09-24 14:50:34.602059,41
2021-09-24 14:50:34.602070,34
2021-09-24 14:50:34.602080,4
2021-09-24 14:50:34.602091,-77
2021-09-24 14:50:34.602102,-233
2021-09-24 14:50:34.602112,-478
2021-09-24 14:50:34.602123,-568
2021-09-24 14:50:34.602132,-269
2021-09-24 14:50:34.602141,279
2021-09-24 14:50:34.602151,675
2021-09-24 14:50:34.602160,524
2021-09-24 14:50:34.602168,140
2021-09-24 14:50:34.602176,55
2021-09-24 14:50:34.602185,53
2021-09-24 14:50:34.602194,-70
2021-09-24 14:50:34.602202,-106
2021-09-24 14:50:34.602210,-68
2021-09-24 14:50:34.602219,-94
2021-09-24 14:50:34.602227,-121
2021-09-24 14:50:34.602236,-109
2021-09-24 14:50:34.602244,-121
2021-09-24 14:50:34.602252,-143
2021-09-24 14:50:34.602261,-143
2021-09-24 14:50:34.604053,-148
2021-09-24 14:50:34.604076,-162
2021-09-24 14:50:34.604087,-179
2021-09-24 14:50:34.604097,-199
2021-09-24 14:50:34.827270,-221
2021-09-24 14:50:34.827297,-242
2021-09-24 14:50:34.827304,-269
2021-09-24 14:50:34.827311,-306
2021-09-24 14:50:34.827316,-344
2021-09-24 14:50:34.827322,-381
2021-09-24 14:50:34.827327,-403
2021-09-24 14:50:34.827333,-408
2021-09-24 14:50:34.827339,-405
2021-09-24 14:50:34.827345,-398
2021-09-24 14:50:34.827350,-371
2021-09-24 14:50:34.827356,-310
2021-09-24 14:50:34.827361,-213
2021-09-24 14:50:34.827367,-97
2021-09-24 14:50:34.827372,4
2021-09-24 14:50:34.827378,85
2021-09-24 14:50:34.827383,153
2021-09-24 14:50:34.827388,208
2021-09-24 14:50:34.827394,238
2021-09-24 14:50:34.827399,250
2021-09-24 14:50:34.827405,242
2021-09-24 14:50:34.827411,235
2021-09-24 14:50:34.827416,235
2021-09-24 14:50:34.827421,233
2021-09-24 14:50:34.827427,225
2021-09-24 14:50:34.827432,221
2021-09-24 14:50:34.827438,211
2021-09-24 14:50:34.827443,201
2021-09-24 14:50:34.827449,191
2021-09-24 14:50:34.827454,182
2021-09-24 14:50:35.096865,174
2021-09-24 14:50:35.096885,162
2021-09-24 14:50:35.096891,145
2021-09-24 14:50:35.096897,133
2021-09-24 14:50:35.096902,123
2021-09-24 14:50:35.096907,119
2021-09-24 14:50:35.096913,116
2021-09-24 14:50:35.096918,116
2021-09-24 14:50:35.096923,116
2021-09-24 14:50:35.096928,111
2021-09-24 14:50:35.096934,104
2021-09-24 14:50:35.096939,104
2021-09-24 14:50:35.096944,111
2021-09-24 14:50:35.096949,116
2021-09-24 14:50:35.096954,114
2021-09-24 14:50:35.096960,106
2021-09-24 14:50:35.096965,104
2021-09-24 14:50:35.096970,109
2021-09-24 14:50:35.096975,114
2021-09-24 14:50:35.096981,114
2021-09-24 14:50:35.096986,109
2021-09-24 14:50:35.096991,106
2021-09-24 14:50:35.096996,106
2021-09-24 14:50:35.097001,106
2021-09-24 14:50:35.097007,109
2021-09-24 14:50:35.097012,116
2021-09-24 14:50:35.097017,114
2021-09-24 14:50:35.097022,97
2021-09-24 14:50:35.097027,85
2021-09-24 14:50:35.097033,82
2021-09-24 14:50:35.321770,77
2021-09-24 14:50:35.321796,65
2021-09-24 14:50:35.321804,51
2021-09-24 14:50:35.321825,43
2021-09-24 14:50:35.321830,53
2021-09-24 14:50:35.321836,75
2021-09-24 14:50:35.321841,82
2021-09-24 14:50:35.321846,80
2021-09-24 14:50:35.321851,77
2021-09-24 14:50:35.321856,68
2021-09-24 14:50:35.321862,60
2021-09-24 14:50:35.321867,65
2021-09-24 14:50:35.321872,65
2021-09-24 14:50:35.321877,58
2021-09-24 14:50:35.321882,48
2021-09-24 14:50:35.321887,24
2021-09-24 14:50:35.321893,-29
2021-09-24 14:50:35.321898,-136
2021-09-24 14:50:35.321903,-361
2021-09-24 14:50:35.321908,-563
2021-09-24 14:50:35.321913,-429
2021-09-24 14:50:35.321919,43
2021-09-24 14:50:35.321924,566
2021-09-24 14:50:35.321929,685
2021-09-24 14:50:35.321934,298
2021-09-24 14:50:35.321939,29
2021-09-24 14:50:35.321944,41
2021-09-24 14:50:35.321950,-38
2021-09-24 14:50:35.321955,-123
2021-09-24 14:50:35.321960,-87
2021-09-24 14:50:35.591355,-85
2021-09-24 14:50:35.591376,-123
2021-09-24 14:50:35.591384,-128
2021-09-24 14:50:35.591391,-131
2021-09-24 14:50:35.591397,-148
2021-09-24 14:50:35.591404,-162
2021-09-24 14:50:35.591410,-167
2021-09-24 14:50:35.591417,-174
2021-09-24 14:50:35.591423,-194
2021-09-24 14:50:35.591429,-221
2021-09-24 14:50:35.591436,-238
2021-09-24 14:50:35.591443,-252
2021-09-24 14:50:35.591449,-276
2021-09-24 14:50:35.591455,-306
2021-09-24 14:50:35.591462,-344
2021-09-24 14:50:35.591468,-386
2021-09-24 14:50:35.591475,-405
2021-09-24 14:50:35.591481,-412
2021-09-24 14:50:35.591488,-420
2021-09-24 14:50:35.591494,-415
2021-09-24 14:50:35.591500,-395
2021-09-24 14:50:35.591507,-349
2021-09-24 14:50:35.591513,-264
2021-09-24 14:50:35.591520,-157
2021-09-24 14:50:35.591526,-48
2021-09-24 14:50:35.591533,46
2021-09-24 14:50:35.591539,123
2021-09-24 14:50:35.591546,187
2021-09-24 14:50:35.591552,225
2021-09-24 14:50:35.591558,247
2021-09-24 14:50:35.772339,259
2021-09-24 14:50:35.772362,262
2021-09-24 14:50:35.772370,252
2021-09-24 14:50:35.772377,247
2021-09-24 14:50:35.772384,245
2021-09-24 14:50:35.772390,238
2021-09-24 14:50:35.772397,221
2021-09-24 14:50:35.772403,211
2021-09-24 14:50:35.772410,199
2021-09-24 14:50:35.772416,184
2021-09-24 14:50:35.772422,179
2021-09-24 14:50:35.772429,174
2021-09-24 14:50:35.772435,165
2021-09-24 14:50:35.772442,153
2021-09-24 14:50:35.772448,136
2021-09-24 14:50:35.772455,128
2021-09-24 14:50:35.772461,128
2021-09-24 14:50:35.772467,123
2021-09-24 14:50:35.772474,123
2021-09-24 14:50:35.772480,121
2021-09-24 14:50:35.772487,119
2021-09-24 14:50:35.772493,119
2021-09-24 14:50:35.772500,119
2021-09-24 14:50:35.772506,116
2021-09-24 14:50:35.772513,116
2021-09-24 14:50:35.772519,111
2021-09-24 14:50:35.772526,106
2021-09-24 14:50:35.772532,104
2021-09-24 14:50:35.772539,106
2021-09-24 14:50:35.772545,106
2021-09-24 14:50:35.997291,104
2021-09-24 14:50:35.997313,92
2021-09-24 14:50:35.997321,82
2021-09-24 14:50:35.997328,85
2021-09-24 14:50:35.997334,87
2021-09-24 14:50:35.997341,92
2021-09-24 14:50:35.997348,92
2021-09-24 14:50:35.997354,87
2021-09-24 14:50:35.997361,85
2021-09-24 14:50:35.997367,85
2021-09-24 14:50:35.997374,75
2021-09-24 14:50:35.997380,63
2021-09-24 14:50:35.997387,48
2021-09-24 14:50:35.997393,31
2021-09-24 14:50:35.997400,19
2021-09-24 14:50:35.997406,14
2021-09-24 14:50:35.997413,26
2021-09-24 14:50:35.997420,51
2021-09-24 14:50:35.997426,60
2021-09-24 14:50:35.997433,53
2021-09-24 14:50:35.997439,51
2021-09-24 14:50:35.997446,53
2021-09-24 14:50:35.997452,55
2021-09-24 14:50:35.997459,58
2021-09-24 14:50:35.997465,53
2021-09-24 14:50:35.997472,51
2021-09-24 14:50:35.997478,48
2021-09-24 14:50:35.997485,38
2021-09-24 14:50:35.997491,4
2021-09-24 14:50:35.997498,-60
2021-09-24 14:50:36.221676,-230
2021-09-24 14:50:36.221695,-500
2021-09-24 14:50:36.221703,-580
2021-09-24 14:50:36.221709,-245
2021-09-24 14:50:36.221716,342
2021-09-24 14:50:36.221722,704
2021-09-24 14:50:36.221729,471
2021-09-24 14:50:36.221735,89
2021-09-24 14:50:36.221742,43
2021-09-24 14:50:36.221748,26
2021-09-24 14:50:36.221755,-99
2021-09-24 14:50:36.221761,-121
2021-09-24 14:50:36.221767,-102
2021-09-24 14:50:36.221774,-133
2021-09-24 14:50:36.221780,-145
2021-09-24 14:50:36.221787,-138
2021-09-24 14:50:36.221793,-148
2021-09-24 14:50:36.221799,-160
2021-09-24 14:50:36.221806,-165
2021-09-24 14:50:36.221812,-174
2021-09-24 14:50:36.221819,-189
2021-09-24 14:50:36.221825,-204
2021-09-24 14:50:36.221832,-218
2021-09-24 14:50:36.221838,-238
2021-09-24 14:50:36.221845,-264
2021-09-24 14:50:36.221851,-289
2021-09-24 14:50:36.221857,-315
2021-09-24 14:50:36.221864,-349
2021-09-24 14:50:36.221870,-376
2021-09-24 14:50:36.221877,-395
2021-09-24 14:50:36.491194,-405
2021-09-24 14:50:36.491215,-400
2021-09-24 14:50:36.491223,-383
2021-09-24 14:50:36.491230,-349
2021-09-24 14:50:36.491237,-284
2021-09-24 14:50:36.491243,-199
2021-09-24 14:50:36.491250,-109
2021-09-24 14:50:36.491256,-21
2021-09-24 14:50:36.491263,63
2021-09-24 14:50:36.491269,136
2021-09-24 14:50:36.491276,184
2021-09-24 14:50:36.491282,206
2021-09-24 14:50:36.491289,206
2021-09-24 14:50:36.491295,211
2021-09-24 14:50:36.491302,216
2021-09-24 14:50:36.491308,216
2021-09-24 14:50:36.491315,211
2021-09-24 14:50:36.491321,201
2021-09-24 14:50:36.491328,191
2021-09-24 14:50:36.491334,187
2021-09-24 14:50:36.491341,177
2021-09-24 14:50:36.491347,167
2021-09-24 14:50:36.491353,160
2021-09-24 14:50:36.491360,150
2021-09-24 14:50:36.491366,140
2021-09-24 14:50:36.491373,140
2021-09-24 14:50:36.491379,140
2021-09-24 14:50:36.491386,133
2021-09-24 14:50:36.491392,123
2021-09-24 14:50:36.491399,121
2021-09-24 14:50:36.672275,123
2021-09-24 14:50:36.672297,123
2021-09-24 14:50:36.672305,123
2021-09-24 14:50:36.672312,123
2021-09-24 14:50:36.672318,119
2021-09-24 14:50:36.672325,111
2021-09-24 14:50:36.672331,111
2021-09-24 14:50:36.672338,116
2021-09-24 14:50:36.672345,116
2021-09-24 14:50:36.672351,109
2021-09-24 14:50:36.672358,104
2021-09-24 14:50:36.672364,99
2021-09-24 14:50:36.672371,102
2021-09-24 14:50:36.672377,106
2021-09-24 14:50:36.672384,99
2021-09-24 14:50:36.672390,89
2021-09-24 14:50:36.672397,80
2021-09-24 14:50:36.672403,72
2021-09-24 14:50:36.672410,70
2021-09-24 14:50:36.672416,75
2021-09-24 14:50:36.672423,70
2021-09-24 14:50:36.672429,63
2021-09-24 14:50:36.672436,68
2021-09-24 14:50:36.672443,72
2021-09-24 14:50:36.672449,65
2021-09-24 14:50:36.672456,51
2021-09-24 14:50:36.672462,34
2021-09-24 14:50:36.672469,24
2021-09-24 14:50:36.672476,24
2021-09-24 14:50:36.672482,21
2021-09-24 14:50:36.897427,29
2021-09-24 14:50:36.897451,51
2021-09-24 14:50:36.897460,58
2021-09-24 14:50:36.897466,53
2021-09-24 14:50:36.897473,48
2021-09-24 14:50:36.897480,48
2021-09-24 14:50:36.897486,46
2021-09-24 14:50:36.897493,41
2021-09-24 14:50:36.897499,41
2021-09-24 14:50:36.897506,31
2021-09-24 14:50:36.897512,14
2021-09-24 14:50:36.897519,9
2021-09-24 14:50:36.897525,-7
2021-09-24 14:50:36.897532,-53
2021-09-24 14:50:36.897539,-153
2021-09-24 14:50:36.897545,-378
2021-09-24 14:50:36.897552,-619
2021-09-24 14:50:36.897558,-534
2021-09-24 14:50:36.897565,-36
2021-09-24 14:50:36.897571,524
2021-09-24 14:50:36.897578,614
2021-09-24 14:50:36.897584,230
2021-09-24 14:50:36.897591,17
2021-09-24 14:50:36.897597,38
2021-09-24 14:50:36.897603,-53
2021-09-24 14:50:36.897610,-140
2021-09-24 14:50:36.897617,-106
2021-09-24 14:50:36.897623,-106
2021-09-24 14:50:36.897630,-143
2021-09-24 14:50:36.897636,-140
2021-09-24 14:50:37.168002,-138
2021-09-24 14:50:37.168024,-153
2021-09-24 14:50:37.168032,-160
2021-09-24 14:50:37.168040,-177
2021-09-24 14:50:37.168047,-194
2021-09-24 14:50:37.168053,-201
2021-09-24 14:50:37.168060,-216
2021-09-24 14:50:37.168067,-238
2021-09-24 14:50:37.168073,-262
2021-09-24 14:50:37.168080,-293
2021-09-24 14:50:37.168087,-323
2021-09-24 14:50:37.168094,-342
2021-09-24 14:50:37.168100,-366
2021-09-24 14:50:37.168107,-391
2021-09-24 14:50:37.168114,-410
2021-09-24 14:50:37.168121,-417
2021-09-24 14:50:37.168127,-408
2021-09-24 14:50:37.168134,-378
2021-09-24 14:50:37.168141,-327
2021-09-24 14:50:37.168147,-257
2021-09-24 14:50:37.168154,-172
2021-09-24 14:50:37.168161,-82
2021-09-24 14:50:37.168168,14
2021-09-24 14:50:37.168175,99
2021-09-24 14:50:37.168181,160
2021-09-24 14:50:37.168188,204
2021-09-24 14:50:37.168195,228
2021-09-24 14:50:37.168201,235
2021-09-24 14:50:37.168208,238
2021-09-24 14:50:37.168215,238
2021-09-24 14:50:37.392232,228
2021-09-24 14:50:37.392255,225
2021-09-24 14:50:37.392264,216
2021-09-24 14:50:37.392271,196
2021-09-24 14:50:37.392278,189
2021-09-24 14:50:37.392284,184
2021-09-24 14:50:37.392291,174
2021-09-24 14:50:37.392298,160
2021-09-24 14:50:37.392305,143
2021-09-24 14:50:37.392312,128
2021-09-24 14:50:37.392319,126
2021-09-24 14:50:37.392325,131
2021-09-24 14:50:37.392332,128
2021-09-24 14:50:37.392339,123
2021-09-24 14:50:37.392346,114
2021-09-24 14:50:37.392353,106
2021-09-24 14:50:37.392359,109
2021-09-24 14:50:37.392366,111
2021-09-24 14:50:37.392373,104
2021-09-24 14:50:37.392380,92
2021-09-24 14:50:37.392387,87
2021-09-24 14:50:37.392394,85
2021-09-24 14:50:37.392400,85
2021-09-24 14:50:37.392407,82
2021-09-24 14:50:37.392414,82
2021-09-24 14:50:37.392421,82
2021-09-24 14:50:37.392427,77
2021-09-24 14:50:37.392434,65
2021-09-24 14:50:37.392441,65
2021-09-24 14:50:37.392448,70
2021-09-24 14:50:37.617181,65
2021-09-24 14:50:37.617203,60
2021-09-24 14:50:37.617211,60
2021-09-24 14:50:37.617218,63
2021-09-24 14:50:37.617224,68
2021-09-24 14:50:37.617231,60
2021-09-24 14:50:37.617259,41
2021-09-24 14:50:37.617270,29
2021-09-24 14:50:37.617336,19
2021-09-24 14:50:37.617345,9
2021-09-24 14:50:37.617352,9
2021-09-24 14:50:37.617358,24
2021-09-24 14:50:37.617365,43
2021-09-24 14:50:37.617372,46
2021-09-24 14:50:37.617378,34
2021-09-24 14:50:37.617385,29
2021-09-24 14:50:37.617392,29
2021-09-24 14:50:37.617398,29
2021-09-24 14:50:37.617405,34
2021-09-24 14:50:37.617411,36
2021-09-24 14:50:37.617418,26
2021-09-24 14:50:37.617424,19
2021-09-24 14:50:37.617431,19
2021-09-24 14:50:37.617437,-2
2021-09-24 14:50:37.617444,-68
2021-09-24 14:50:37.617450,-206
2021-09-24 14:50:37.617457,-446
2021-09-24 14:50:37.617464,-585
2021-09-24 14:50:37.617470,-318
2021-09-24 14:50:37.617477,279
2021-09-24 14:50:37.886078,687
2021-09-24 14:50:37.886097,495
2021-09-24 14:50:37.886103,128
2021-09-24 14:50:37.886109,65
2021-09-24 14:50:37.886114,53
2021-09-24 14:50:37.886119,-75
2021-09-24 14:50:37.886124,-114
2021-09-24 14:50:37.886130,-89
2021-09-24 14:50:37.886135,-116
2021-09-24 14:50:37.886140,-140
2021-09-24 14:50:37.886146,-131
2021-09-24 14:50:37.886151,-133
2021-09-24 14:50:37.886156,-153
2021-09-24 14:50:37.886162,-167
2021-09-24 14:50:37.886167,-179
2021-09-24 14:50:37.886172,-191
2021-09-24 14:50:37.886177,-206
2021-09-24 14:50:37.886182,-221
2021-09-24 14:50:37.886188,-238
2021-09-24 14:50:37.886193,-262
2021-09-24 14:50:37.886198,-291
2021-09-24 14:50:37.886203,-320
2021-09-24 14:50:37.886209,-347
2021-09-24 14:50:37.886214,-369
2021-09-24 14:50:37.886219,-391
2021-09-24 14:50:37.886224,-408
2021-09-24 14:50:37.886230,-412
2021-09-24 14:50:37.886235,-393
2021-09-24 14:50:37.886240,-349
2021-09-24 14:50:37.886245,-284
2021-09-24 14:50:38.067445,-204
2021-09-24 14:50:38.067475,-102
2021-09-24 14:50:38.067487,-2
2021-09-24 14:50:38.067498,75
2021-09-24 14:50:38.067508,136
2021-09-24 14:50:38.067518,187
2021-09-24 14:50:38.067528,211
2021-09-24 14:50:38.067538,216
2021-09-24 14:50:38.067548,225
2021-09-24 14:50:38.067558,233
2021-09-24 14:50:38.067568,225
2021-09-24 14:50:38.067578,216
2021-09-24 14:50:38.067588,206
2021-09-24 14:50:38.067599,194
2021-09-24 14:50:38.067609,179
2021-09-24 14:50:38.067619,172
2021-09-24 14:50:38.067629,167
2021-09-24 14:50:38.067639,160
2021-09-24 14:50:38.067649,143
2021-09-24 14:50:38.067659,136
2021-09-24 14:50:38.067669,136
2021-09-24 14:50:38.067679,126
2021-09-24 14:50:38.067689,121
2021-09-24 14:50:38.067699,126
2021-09-24 14:50:38.067709,123
2021-09-24 14:50:38.067719,119
2021-09-24 14:50:38.067729,121
2021-09-24 14:50:38.067739,116
2021-09-24 14:50:38.067749,109
2021-09-24 14:50:38.067759,109
2021-09-24 14:50:38.291592,111
2021-09-24 14:50:38.291610,109
2021-09-24 14:50:38.291616,114
2021-09-24 14:50:38.291621,114
2021-09-24 14:50:38.291627,106
2021-09-24 14:50:38.291632,104
2021-09-24 14:50:38.291637,92
2021-09-24 14:50:38.291642,85
2021-09-24 14:50:38.291647,87
2021-09-24 14:50:38.291652,85
2021-09-24 14:50:38.291658,80
2021-09-24 14:50:38.291663,77
2021-09-24 14:50:38.291668,72
2021-09-24 14:50:38.291673,80
2021-09-24 14:50:38.291678,82
2021-09-24 14:50:38.291683,75
2021-09-24 14:50:38.291689,65
2021-09-24 14:50:38.291694,51
2021-09-24 14:50:38.291699,41
2021-09-24 14:50:38.291704,41
2021-09-24 14:50:38.291709,38
2021-09-24 14:50:38.291714,38
2021-09-24 14:50:38.291719,53
2021-09-24 14:50:38.291725,60
2021-09-24 14:50:38.291730,48
2021-09-24 14:50:38.291735,46
2021-09-24 14:50:38.291740,51
2021-09-24 14:50:38.291745,51
2021-09-24 14:50:38.291750,48
2021-09-24 14:50:38.291756,48
2021-09-24 14:50:38.560779,38
2021-09-24 14:50:38.560800,29
2021-09-24 14:50:38.560807,21
2021-09-24 14:50:38.560814,-9
2021-09-24 14:50:38.560821,-92
2021-09-24 14:50:38.560830,-274
2021-09-24 14:50:38.560837,-517
2021-09-24 14:50:38.560843,-534
2021-09-24 14:50:38.560850,-157
2021-09-24 14:50:38.560856,417
2021-09-24 14:50:38.560863,697
2021-09-24 14:50:38.560869,410
2021-09-24 14:50:38.560875,85
2021-09-24 14:50:38.560882,68
2021-09-24 14:50:38.560888,19
2021-09-24 14:50:38.560895,-104
2021-09-24 14:50:38.560901,-104
2021-09-24 14:50:38.560907,-80
2021-09-24 14:50:38.560914,-114
2021-09-24 14:50:38.560920,-126
2021-09-24 14:50:38.560927,-116
2021-09-24 14:50:38.560933,-131
2021-09-24 14:50:38.560940,-148
2021-09-24 14:50:38.560946,-150
2021-09-24 14:50:38.560952,-157
