Time,ECG
2021-09-24 14:45:08.750204,4957
2021-09-24 14:45:08.750223,4906
2021-09-24 14:45:08.750231,4846
2021-09-24 14:45:08.750237,4792
2021-09-24 14:45:08.750244,4744
2021-09-24 14:45:08.750251,4690
2021-09-24 14:45:08.750258,4632
2021-09-24 14:45:08.750265,4564
2021-09-24 14:45:08.750271,4508
2021-09-24 14:45:08.750278,4464
2021-09-24 14:45:08.750285,4408
2021-09-24 14:45:08.750291,4350
2021-09-24 14:45:08.750298,4282
2021-09-24 14:45:08.750305,4173
2021-09-24 14:45:08.750311,3979
2021-09-24 14:45:08.750318,3670
2021-09-24 14:45:08.750324,3466
2021-09-24 14:45:08.750331,3680
2021-09-24 14:45:08.750338,4219
2021-09-24 14:45:08.750344,4574
2021-09-24 14:45:08.750351,4370
2021-09-24 14:45:08.750358,3969
2021-09-24 14:45:08.976511,3855
2021-09-24 14:45:08.976542,3799
2021-09-24 14:45:08.976554,3621
2021-09-24 14:45:08.976565,3532
2021-09-24 14:45:08.976576,3522
2021-09-24 14:45:08.976587,3464
2021-09-24 14:45:08.976597,3396
2021-09-24 14:45:08.976607,3349
2021-09-24 14:45:08.976617,3293
2021-09-24 14:45:08.976627,3233
2021-09-24 14:45:08.976637,3184
2021-09-24 14:45:08.976647,3138
2021-09-24 14:45:08.976657,3077
2021-09-24 14:45:08.976668,3014
2021-09-24 14:45:08.976679,2953
2021-09-24 14:45:08.976689,2893
2021-09-24 14:45:08.976699,2832
2021-09-24 14:45:08.976709,2771
2021-09-24 14:45:08.976719,2703
2021-09-24 14:45:08.976729,2635
2021-09-24 14:45:08.976739,2567
2021-09-24 14:45:08.976749,2502
2021-09-24 14:45:08.976759,2446
2021-09-24 14:45:08.976769,2417
2021-09-24 14:45:08.976780,2400
2021-09-24 14:45:08.976804,2385
2021-09-24 14:45:08.976815,2395
2021-09-24 14:45:08.976825,2441
2021-09-24 14:45:08.976835,2504
2021-09-24 14:45:08.976845,2565
2021-09-24 14:45:09.155690,2618
2021-09-24 14:45:09.155707,2659
2021-09-24 14:45:09.155714,2679
2021-09-24 14:45:09.155720,2679
2021-09-24 14:45:09.155725,2669
2021-09-24 14:45:09.155734,2652
2021-09-24 14:45:09.155740,2625
2021-09-24 14:45:09.155754,2589
2021-09-24 14:45:09.155760,2543
2021-09-24 14:45:09.155766,2506
2021-09-24 14:45:09.155771,2470
2021-09-24 14:45:09.155776,2434
2021-09-24 14:45:09.155782,2400
2021-09-24 14:45:09.155787,2366
2021-09-24 14:45:09.155792,2322
2021-09-24 14:45:09.155798,2276
2021-09-24 14:45:09.155803,2242
2021-09-24 14:45:09.155808,2217
2021-09-24 14:45:09.155814,2186
2021-09-24 14:45:09.155819,2140
2021-09-24 14:45:09.155824,2106
2021-09-24 14:45:09.155832,2084
2021-09-24 14:45:09.155837,2059
2021-09-24 14:45:09.155842,2035
2021-09-24 14:45:09.155848,2008
2021-09-24 14:45:09.155853,1979
2021-09-24 14:45:09.155858,1955
2021-09-24 14:45:09.155863,1940
2021-09-24 14:45:09.155869,1919
2021-09-24 14:45:09.155874,1882
2021-09-24 14:45:09.381536,1855
2021-09-24 14:45:09.381557,1841
2021-09-24 14:45:09.381565,1824
2021-09-24 14:45:09.381572,1797
2021-09-24 14:45:09.381579,1778
2021-09-24 14:45:09.381585,1763
2021-09-24 14:45:09.381592,1736
2021-09-24 14:45:09.381602,1705
2021-09-24 14:45:09.381609,1685
2021-09-24 14:45:09.381616,1671
2021-09-24 14:45:09.381622,1649
2021-09-24 14:45:09.381629,1629
2021-09-24 14:45:09.381636,1605
2021-09-24 14:45:09.381642,1581
2021-09-24 14:45:09.381649,1564
2021-09-24 14:45:09.381656,1544
2021-09-24 14:45:09.381662,1520
2021-09-24 14:45:09.381669,1501
2021-09-24 14:45:09.381675,1484
2021-09-24 14:45:09.381691,1464
2021-09-24 14:45:09.381699,1445
2021-09-24 14:45:09.381705,1428
2021-09-24 14:45:09.381712,1413
2021-09-24 14:45:09.381718,1401
2021-09-24 14:45:09.381725,1387
2021-09-24 14:45:09.381732,1370
2021-09-24 14:45:09.381739,1345
2021-09-24 14:45:09.381746,1309
2021-09-24 14:45:09.381752,1285
2021-09-24 14:45:09.381759,1277
2021-09-24 14:45:09.650149,1255
2021-09-24 14:45:09.650173,1236
2021-09-24 14:45:09.650181,1238
2021-09-24 14:45:09.650187,1241
2021-09-24 14:45:09.650194,1236
2021-09-24 14:45:09.650201,1221
2021-09-24 14:45:09.650208,1195
2021-09-24 14:45:09.650214,1183
2021-09-24 14:45:09.650221,1175
2021-09-24 14:45:09.650227,1163
2021-09-24 14:45:09.650234,1151
2021-09-24 14:45:09.650240,1132
2021-09-24 14:45:09.650247,1107
2021-09-24 14:45:09.650254,1088
2021-09-24 14:45:09.650260,1049
2021-09-24 14:45:09.650273,957
2021-09-24 14:45:09.650279,740
2021-09-24 14:45:09.650286,473
2021-09-24 14:45:09.650293,459
2021-09-24 14:45:09.650299,869
2021-09-24 14:45:09.650306,1447
2021-09-24 14:45:09.650312,1644
2021-09-24 14:45:09.650319,1306
2021-09-24 14:45:09.650325,1027
2021-09-24 14:45:09.650332,1025
2021-09-24 14:45:09.650339,944
2021-09-24 14:45:09.650345,823
2021-09-24 14:45:09.650352,823
2021-09-24 14:45:09.650359,823
2021-09-24 14:45:09.650365,777
2021-09-24 14:45:09.831361,760
2021-09-24 14:45:09.831382,755
2021-09-24 14:45:09.831390,728
2021-09-24 14:45:09.831397,697
2021-09-24 14:45:09.831414,668
2021-09-24 14:45:09.831421,638
2021-09-24 14:45:09.831428,619
2021-09-24 14:45:09.831436,602
2021-09-24 14:45:09.831442,570
2021-09-24 14:45:09.831449,534
2021-09-24 14:45:09.831455,497
2021-09-24 14:45:09.831462,461
2021-09-24 14:45:09.831468,420
2021-09-24 14:45:09.831475,383
2021-09-24 14:45:09.831482,352
2021-09-24 14:45:09.831488,325
2021-09-24 14:45:09.831495,306
2021-09-24 14:45:09.831501,298
2021-09-24 14:45:09.831507,303
2021-09-24 14:45:09.831514,327
2021-09-24 14:45:09.831520,371
2021-09-24 14:45:09.831527,446
2021-09-24 14:45:09.831533,534
2021-09-24 14:45:09.831540,617
2021-09-24 14:45:09.831547,689
2021-09-24 14:45:09.831553,750
2021-09-24 14:45:09.831560,791
2021-09-24 14:45:09.831566,806
2021-09-24 14:45:09.831573,801
2021-09-24 14:45:09.831579,801
2021-09-24 14:45:10.101529,801
2021-09-24 14:45:10.101561,787
2021-09-24 14:45:10.101578,770
2021-09-24 14:45:10.101589,757
2021-09-24 14:45:10.101599,738
2021-09-24 14:45:10.101609,719
2021-09-24 14:45:10.101619,706
2021-09-24 14:45:10.101629,697
2021-09-24 14:45:10.101639,680
2021-09-24 14:45:10.101649,658
2021-09-24 14:45:10.101659,638
2021-09-24 14:45:10.101668,624
2021-09-24 14:45:10.101678,619
2021-09-24 14:45:10.101688,609
2021-09-24 14:45:10.101698,597
2021-09-24 14:45:10.101708,585
2021-09-24 14:45:10.101718,578
2021-09-24 14:45:10.101728,570
2021-09-24 14:45:10.101738,570
2021-09-24 14:45:10.101748,570
2021-09-24 14:45:10.101758,563
2021-09-24 14:45:10.101768,553
2021-09-24 14:45:10.101778,541
2021-09-24 14:45:10.101788,539
2021-09-24 14:45:10.101811,541
2021-09-24 14:45:10.101822,534
2021-09-24 14:45:10.101832,527
2021-09-24 14:45:10.101842,524
2021-09-24 14:45:10.101857,514
2021-09-24 14:45:10.101868,507
2021-09-24 14:45:10.371479,507
2021-09-24 14:45:10.371503,507
2021-09-24 14:45:10.371511,500
2021-09-24 14:45:10.371517,488
2021-09-24 14:45:10.371524,476
2021-09-24 14:45:10.371530,471
2021-09-24 14:45:10.371537,463
2021-09-24 14:45:10.371543,456
2021-09-24 14:45:10.371550,446
2021-09-24 14:45:10.371556,432
2021-09-24 14:45:10.371563,422
2021-09-24 14:45:10.371569,425
2021-09-24 14:45:10.371576,422
2021-09-24 14:45:10.371583,420
2021-09-24 14:45:10.371589,417
2021-09-24 14:45:10.371595,408
2021-09-24 14:45:10.371602,403
2021-09-24 14:45:10.371608,403
2021-09-24 14:45:10.371615,393
2021-09-24 14:45:10.371621,371
2021-09-24 14:45:10.371628,354
2021-09-24 14:45:10.371634,347
2021-09-24 14:45:10.371641,344
2021-09-24 14:45:10.371647,332
2021-09-24 14:45:10.371654,332
2021-09-24 14:45:10.371670,349
2021-09-24 14:45:10.371709,366
2021-09-24 14:45:10.371716,364
2021-09-24 14:45:10.371722,352
2021-09-24 14:45:10.371729,349
2021-09-24 14:45:10.551458,359
2021-09-24 14:45:10.551481,357
2021-09-24 14:45:10.551495,344
2021-09-24 14:45:10.551502,337
2021-09-24 14:45:10.551509,340
2021-09-24 14:45:10.551515,332
2021-09-24 14:45:10.551522,296
2021-09-24 14:45:10.551528,225
2021-09-24 14:45:10.551535,48
2021-09-24 14:45:10.551541,-213
2021-09-24 14:45:10.551548,-267
2021-09-24 14:45:10.551555,97
2021-09-24 14:45:10.551561,689
2021-09-24 14:45:10.551568,961
2021-09-24 14:45:10.551574,658
2021-09-24 14:45:10.551612,354
2021-09-24 14:45:10.551618,357
2021-09-24 14:45:10.551625,308
2021-09-24 14:45:10.551631,174
2021-09-24 14:45:10.551638,165
2021-09-24 14:45:10.551644,182
2021-09-24 14:45:10.551651,138
2021-09-24 14:45:10.551657,121
2021-09-24 14:45:10.551664,128
2021-09-24 14:45:10.551670,111
2021-09-24 14:45:10.551677,92
2021-09-24 14:45:10.551683,75
2021-09-24 14:45:10.551690,53
2021-09-24 14:45:10.551696,41
2021-09-24 14:45:10.551703,34
2021-09-24 14:45:10.820218,14
2021-09-24 14:45:10.820242,-9
2021-09-24 14:45:10.820250,-38
2021-09-24 14:45:10.820257,-72
2021-09-24 14:45:10.820264,-99
2021-09-24 14:45:10.820270,-131
2021-09-24 14:45:10.820277,-160
2021-09-24 14:45:10.820283,-187
2021-09-24 14:45:10.820292,-204
2021-09-24 14:45:10.820298,-211
2021-09-24 14:45:10.820305,-194
2021-09-24 14:45:10.820312,-155
2021-09-24 14:45:10.820319,-102
2021-09-24 14:45:10.820325,-34
2021-09-24 14:45:10.820332,46
2021-09-24 14:45:10.820338,126
2021-09-24 14:45:10.820345,204
2021-09-24 14:45:10.820352,279
2021-09-24 14:45:10.820358,330
2021-09-24 14:45:10.820365,354
2021-09-24 14:45:10.820372,361
2021-09-24 14:45:10.820378,361
2021-09-24 14:45:10.820385,369
2021-09-24 14:45:10.820391,376
2021-09-24 14:45:10.820398,369
2021-09-24 14:45:10.820404,354
2021-09-24 14:45:10.820411,335
2021-09-24 14:45:10.820418,315
2021-09-24 14:45:10.820424,301
2021-09-24 14:45:10.820431,289
2021-09-24 14:45:11.001489,281
2021-09-24 14:45:11.001515,276
2021-09-24 14:45:11.001523,264
2021-09-24 14:45:11.001530,252
2021-09-24 14:45:11.001548,250
2021-09-24 14:45:11.001555,245
2021-09-24 14:45:11.001562,230
2021-09-24 14:45:11.001569,221
2021-09-24 14:45:11.001576,216
2021-09-24 14:45:11.001582,211
2021-09-24 14:45:11.001589,218
2021-09-24 14:45:11.001596,223
2021-09-24 14:45:11.001603,213
2021-09-24 14:45:11.001641,206
2021-09-24 14:45:11.001648,211
2021-09-24 14:45:11.001655,211
2021-09-24 14:45:11.001662,213
2021-09-24 14:45:11.001669,218
2021-09-24 14:45:11.001681,218
2021-09-24 14:45:11.001688,211
2021-09-24 14:45:11.001694,208
2021-09-24 14:45:11.001701,211
2021-09-24 14:45:11.001708,211
2021-09-24 14:45:11.001715,211
2021-09-24 14:45:11.001722,208
2021-09-24 14:45:11.001728,204
2021-09-24 14:45:11.001735,204
2021-09-24 14:45:11.001742,208
2021-09-24 14:45:11.001749,211
2021-09-24 14:45:11.001756,204
2021-09-24 14:45:11.226152,194
2021-09-24 14:45:11.226175,194
2021-09-24 14:45:11.226183,199
2021-09-24 14:45:11.226189,196
2021-09-24 14:45:11.226196,194
2021-09-24 14:45:11.226203,187
2021-09-24 14:45:11.226209,162
2021-09-24 14:45:11.226216,140
2021-09-24 14:45:11.226222,143
2021-09-24 14:45:11.226229,148
2021-09-24 14:45:11.226235,148
2021-09-24 14:45:11.226242,160
2021-09-24 14:45:11.226248,172
2021-09-24 14:45:11.226255,160
2021-09-24 14:45:11.226261,153
2021-09-24 14:45:11.226267,157
2021-09-24 14:45:11.226274,162
2021-09-24 14:45:11.226280,165
2021-09-24 14:45:11.226287,157
2021-09-24 14:45:11.226293,153
2021-09-24 14:45:11.226300,150
2021-09-24 14:45:11.226306,140
2021-09-24 14:45:11.226313,111
2021-09-24 14:45:11.226319,70
2021-09-24 14:45:11.226337,-19
2021-09-24 14:45:11.226344,-225
2021-09-24 14:45:11.226350,-422
2021-09-24 14:45:11.226357,-313
2021-09-24 14:45:11.226363,157
2021-09-24 14:45:11.226370,677
2021-09-24 14:45:11.450901,726
2021-09-24 14:45:11.450922,352
2021-09-24 14:45:11.450930,162
2021-09-24 14:45:11.450940,174
2021-09-24 14:45:11.450947,68
2021-09-24 14:45:11.450953,-26
2021-09-24 14:45:11.450960,-7
2021-09-24 14:45:11.450966,-9
2021-09-24 14:45:11.450973,-43
2021-09-24 14:45:11.450979,-43
2021-09-24 14:45:11.450985,-41
2021-09-24 14:45:11.450992,-63
2021-09-24 14:45:11.450998,-80
2021-09-24 14:45:11.451005,-82
2021-09-24 14:45:11.451011,-89
2021-09-24 14:45:11.451018,-109
2021-09-24 14:45:11.451024,-123
2021-09-24 14:45:11.451031,-140
2021-09-24 14:45:11.451037,-167
2021-09-24 14:45:11.451043,-189
2021-09-24 14:45:11.451050,-213
2021-09-24 14:45:11.451056,-242
2021-09-24 14:45:11.451063,-269
2021-09-24 14:45:11.451069,-296
2021-09-24 14:45:11.451076,-315
2021-09-24 14:45:11.451082,-313
2021-09-24 14:45:11.451089,-298
2021-09-24 14:45:11.451095,-274
2021-09-24 14:45:11.451102,-233
2021-09-24 14:45:11.451108,-165
2021-09-24 14:45:11.765229,-70
2021-09-24 14:45:11.765258,26
2021-09-24 14:45:11.765267,109
2021-09-24 14:45:11.765274,177
2021-09-24 14:45:11.765281,228
2021-09-24 14:45:11.765288,252
2021-09-24 14:45:11.765295,276
2021-09-24 14:45:11.765302,293
2021-09-24 14:45:11.765309,291
2021-09-24 14:45:11.765316,286
2021-09-24 14:45:11.765323,289
2021-09-24 14:45:11.765329,281
2021-09-24 14:45:11.765336,272
2021-09-24 14:45:11.765343,269
2021-09-24 14:45:11.765358,262
2021-09-24 14:45:11.765365,252
2021-09-24 14:45:11.765372,240
2021-09-24 14:45:11.765379,223
2021-09-24 14:45:11.765386,211
2021-09-24 14:45:11.765393,206
2021-09-24 14:45:11.765400,196
2021-09-24 14:45:11.765407,187
2021-09-24 14:45:11.765414,179
2021-09-24 14:45:11.765420,172
2021-09-24 14:45:11.765432,170
2021-09-24 14:45:11.765439,172
2021-09-24 14:45:11.765446,174
2021-09-24 14:45:11.765453,162
2021-09-24 14:45:11.765460,145
2021-09-24 14:45:11.765467,145
2021-09-24 14:45:11.901475,160
2021-09-24 14:45:11.901499,162
2021-09-24 14:45:11.901507,157
2021-09-24 14:45:11.901514,153
2021-09-24 14:45:11.901521,153
2021-09-24 14:45:11.901528,150
2021-09-24 14:45:11.901535,143
2021-09-24 14:45:11.901574,138
2021-09-24 14:45:11.901581,143
2021-09-24 14:45:11.901588,143
2021-09-24 14:45:11.901595,133
2021-09-24 14:45:11.901601,131
2021-09-24 14:45:11.901608,138
2021-09-24 14:45:11.901615,138
2021-09-24 14:45:11.901622,138
2021-09-24 14:45:11.901629,136
2021-09-24 14:45:11.901636,126
2021-09-24 14:45:11.901642,123
2021-09-24 14:45:11.901649,131
2021-09-24 14:45:11.901656,140
2021-09-24 14:45:11.901663,148
2021-09-24 14:45:11.901670,140
2021-09-24 14:45:11.901677,136
2021-09-24 14:45:11.901683,126
2021-09-24 14:45:11.901690,106
2021-09-24 14:45:11.901697,104
2021-09-24 14:45:11.901704,106
2021-09-24 14:45:11.901711,97
2021-09-24 14:45:11.901718,106
2021-09-24 14:45:11.901725,136
2021-09-24 14:45:12.171133,143
2021-09-24 14:45:12.171156,140
2021-09-24 14:45:12.171164,140
2021-09-24 14:45:12.171171,136
2021-09-24 14:45:12.171188,128
2021-09-24 14:45:12.171196,133
2021-09-24 14:45:12.171203,138
2021-09-24 14:45:12.171209,133
2021-09-24 14:45:12.171216,123
2021-09-24 14:45:12.171223,99
2021-09-24 14:45:12.171230,63
2021-09-24 14:45:12.171236,2
2021-09-24 14:45:12.171243,-162
2021-09-24 14:45:12.171250,-395
2021-09-24 14:45:12.171257,-408
2021-09-24 14:45:12.171264,-46
2021-09-24 14:45:12.171270,493
2021-09-24 14:45:12.171277,770
2021-09-24 14:45:12.171284,517
2021-09-24 14:45:12.171291,199
2021-09-24 14:45:12.171298,170
2021-09-24 14:45:12.171308,116
2021-09-24 14:45:12.171315,-7
2021-09-24 14:45:12.171322,-4
2021-09-24 14:45:12.171329,21
2021-09-24 14:45:12.171335,-12
2021-09-24 14:45:12.171342,-34
2021-09-24 14:45:12.171349,-29
2021-09-24 14:45:12.171356,-36
2021-09-24 14:45:12.171362,-46
2021-09-24 14:45:12.396563,-55
2021-09-24 14:45:12.396584,-65
2021-09-24 14:45:12.396592,-77
2021-09-24 14:45:12.396599,-104
2021-09-24 14:45:12.396605,-131
2021-09-24 14:45:12.396612,-143
2021-09-24 14:45:12.396619,-162
2021-09-24 14:45:12.396625,-191
2021-09-24 14:45:12.396632,-228
2021-09-24 14:45:12.396638,-267
2021-09-24 14:45:12.396645,-303
2021-09-24 14:45:12.396651,-325
2021-09-24 14:45:12.396658,-330
2021-09-24 14:45:12.396664,-327
2021-09-24 14:45:12.396671,-327
2021-09-24 14:45:12.396677,-301
2021-09-24 14:45:12.396684,-233
2021-09-24 14:45:12.396690,-143
2021-09-24 14:45:12.396697,-46
2021-09-24 14:45:12.396703,53
2021-09-24 14:45:12.396710,133
2021-09-24 14:45:12.396716,194
2021-09-24 14:45:12.396723,240
2021-09-24 14:45:12.396729,272
2021-09-24 14:45:12.396743,286
2021-09-24 14:45:12.396750,289
2021-09-24 14:45:12.396756,286
2021-09-24 14:45:12.396763,281
2021-09-24 14:45:12.396769,281
2021-09-24 14:45:12.396776,279
2021-09-24 14:45:12.665838,269
2021-09-24 14:45:12.665860,262
2021-09-24 14:45:12.665868,255
2021-09-24 14:45:12.665875,245
2021-09-24 14:45:12.665882,235
2021-09-24 14:45:12.665888,230
2021-09-24 14:45:12.665895,223
2021-09-24 14:45:12.665901,208
2021-09-24 14:45:12.665908,187
2021-09-24 14:45:12.665914,174
2021-09-24 14:45:12.665921,170
2021-09-24 14:45:12.665927,162
2021-09-24 14:45:12.665934,153
2021-09-24 14:45:12.665940,138
2021-09-24 14:45:12.665947,128
2021-09-24 14:45:12.665953,131
2021-09-24 14:45:12.665960,136
2021-09-24 14:45:12.665966,136
2021-09-24 14:45:12.665973,140
2021-09-24 14:45:12.665979,138
2021-09-24 14:45:12.665986,136
2021-09-24 14:45:12.665992,133
2021-09-24 14:45:12.665999,136
2021-09-24 14:45:12.666005,138
2021-09-24 14:45:12.666012,140
2021-09-24 14:45:12.666022,140
2021-09-24 14:45:12.666029,138
2021-09-24 14:45:12.666035,136
2021-09-24 14:45:12.666042,138
2021-09-24 14:45:12.666048,140
2021-09-24 14:45:12.935596,140
2021-09-24 14:45:12.935618,136
2021-09-24 14:45:12.935626,131
2021-09-24 14:45:12.935632,133
2021-09-24 14:45:12.935639,138
2021-09-24 14:45:12.935645,138
2021-09-24 14:45:12.935652,133
2021-09-24 14:45:12.935658,121
2021-09-24 14:45:12.935665,106
2021-09-24 14:45:12.935671,104
2021-09-24 14:45:12.935678,119
2021-09-24 14:45:12.935684,121
2021-09-24 14:45:12.935691,104
2021-09-24 14:45:12.935697,87
2021-09-24 14:45:12.935712,70
2021-09-24 14:45:12.935719,60
2021-09-24 14:45:12.935726,55
2021-09-24 14:45:12.935732,55
2021-09-24 14:45:12.935739,68
2021-09-24 14:45:12.935745,87
2021-09-24 14:45:12.935752,94
2021-09-24 14:45:12.935758,89
2021-09-24 14:45:12.935765,94
2021-09-24 14:45:12.935771,102
2021-09-24 14:45:12.935778,104
2021-09-24 14:45:12.935784,102
2021-09-24 14:45:12.935791,99
2021-09-24 14:45:12.935797,99
2021-09-24 14:45:12.935804,102
2021-09-24 14:45:12.935810,92
2021-09-24 14:45:13.071538,60
2021-09-24 14:45:13.071561,-9
2021-09-24 14:45:13.071601,-177
2021-09-24 14:45:13.071608,-427
2021-09-24 14:45:13.071615,-461
2021-09-24 14:45:13.071622,-94
2021-09-24 14:45:13.071628,454
2021-09-24 14:45:13.071635,738
2021-09-24 14:45:13.071641,497
2021-09-24 14:45:13.071648,174
2021-09-24 14:45:13.071654,143
2021-09-24 14:45:13.071661,102
2021-09-24 14:45:13.071667,-24
2021-09-24 14:45:13.071674,-34
2021-09-24 14:45:13.071680,-7
2021-09-24 14:45:13.071687,-41
2021-09-24 14:45:13.071693,-60
2021-09-24 14:45:13.071699,-63
2021-09-24 14:45:13.071706,-77
2021-09-24 14:45:13.071712,-89
2021-09-24 14:45:13.071719,-94
2021-09-24 14:45:13.071725,-106
2021-09-24 14:45:13.071732,-116
2021-09-24 14:45:13.071738,-126
2021-09-24 14:45:13.071745,-150
2021-09-24 14:45:13.071751,-172
2021-09-24 14:45:13.071757,-191
2021-09-24 14:45:13.071764,-216
2021-09-24 14:45:13.071770,-247
2021-09-24 14:45:13.071777,-281
2021-09-24 14:45:13.296554,-313
2021-09-24 14:45:13.296576,-330
2021-09-24 14:45:13.296584,-340
2021-09-24 14:45:13.296590,-344
2021-09-24 14:45:13.296606,-332
2021-09-24 14:45:13.296613,-303
2021-09-24 14:45:13.296620,-255
2021-09-24 14:45:13.296630,-177
2021-09-24 14:45:13.296636,-72
2021-09-24 14:45:13.296643,29
2021-09-24 14:45:13.296649,114
2021-09-24 14:45:13.296656,177
2021-09-24 14:45:13.296662,216
2021-09-24 14:45:13.296672,242
2021-09-24 14:45:13.296679,255
2021-09-24 14:45:13.296685,255
2021-09-24 14:45:13.296692,250
2021-09-24 14:45:13.296698,242
2021-09-24 14:45:13.296704,233
2021-09-24 14:45:13.296711,225
2021-09-24 14:45:13.296717,218
2021-09-24 14:45:13.296723,213
2021-09-24 14:45:13.296730,204
2021-09-24 14:45:13.296736,194
2021-09-24 14:45:13.296743,189
2021-09-24 14:45:13.296749,184
2021-09-24 14:45:13.296756,177
2021-09-24 14:45:13.296762,167
2021-09-24 14:45:13.296768,160
2021-09-24 14:45:13.296775,155
2021-09-24 14:45:13.521096,148
2021-09-24 14:45:13.521115,143
2021-09-24 14:45:13.521123,136
2021-09-24 14:45:13.521130,128
2021-09-24 14:45:13.521137,119
2021-09-24 14:45:13.521143,106
2021-09-24 14:45:13.521150,104
2021-09-24 14:45:13.521157,109
2021-09-24 14:45:13.521163,109
2021-09-24 14:45:13.521170,109
2021-09-24 14:45:13.521176,109
2021-09-24 14:45:13.521183,102
2021-09-24 14:45:13.521189,104
2021-09-24 14:45:13.521196,109
2021-09-24 14:45:13.521203,109
2021-09-24 14:45:13.521209,106
2021-09-24 14:45:13.521216,106
2021-09-24 14:45:13.521223,102
2021-09-24 14:45:13.521229,104
2021-09-24 14:45:13.521236,111
2021-09-24 14:45:13.521243,104
2021-09-24 14:45:13.521249,89
2021-09-24 14:45:13.521256,92
2021-09-24 14:45:13.521262,99
2021-09-24 14:45:13.521269,99
2021-09-24 14:45:13.521276,99
2021-09-24 14:45:13.521282,99
2021-09-24 14:45:13.521289,99
2021-09-24 14:45:13.521296,104
2021-09-24 14:45:13.521302,111
2021-09-24 14:45:13.746502,114
2021-09-24 14:45:13.746557,104
2021-09-24 14:45:13.746565,94
2021-09-24 14:45:13.746571,77
2021-09-24 14:45:13.746578,58
2021-09-24 14:45:13.746584,48
2021-09-24 14:45:13.746591,55
2021-09-24 14:45:13.746597,75
2021-09-24 14:45:13.746604,92
2021-09-24 14:45:13.746610,94
2021-09-24 14:45:13.746616,87
2021-09-24 14:45:13.746623,87
2021-09-24 14:45:13.746629,92
2021-09-24 14:45:13.746636,97
2021-09-24 14:45:13.746642,99
2021-09-24 14:45:13.746648,97
2021-09-24 14:45:13.746655,89
2021-09-24 14:45:13.746661,87
2021-09-24 14:45:13.746668,89
2021-09-24 14:45:13.746674,70
2021-09-24 14:45:13.746680,12
2021-09-24 14:45:13.746687,-111
2021-09-24 14:45:13.746694,-349
2021-09-24 14:45:13.746700,-524
2021-09-24 14:45:13.746706,-320
2021-09-24 14:45:13.746713,223
2021-09-24 14:45:13.746719,680
2021-09-24 14:45:13.746726,621
2021-09-24 14:45:13.746752,245
2021-09-24 14:45:13.746759,111
2021-09-24 14:45:14.016585,119
2021-09-24 14:45:14.016606,2
2021-09-24 14:45:14.016614,-60
2021-09-24 14:45:14.016621,-31
2021-09-24 14:45:14.016627,-51
2021-09-24 14:45:14.016634,-80
2021-09-24 14:45:14.016640,-70
2021-09-24 14:45:14.016646,-72
2021-09-24 14:45:14.016653,-92
2021-09-24 14:45:14.016659,-109
2021-09-24 14:45:14.016666,-123
2021-09-24 14:45:14.016672,-133
2021-09-24 14:45:14.016679,-140
2021-09-24 14:45:14.016685,-150
2021-09-24 14:45:14.016701,-172
2021-09-24 14:45:14.016708,-199
2021-09-24 14:45:14.016714,-223
2021-09-24 14:45:14.016721,-250
2021-09-24 14:45:14.016727,-279
2021-09-24 14:45:14.016734,-310
2021-09-24 14:45:14.016740,-340
2021-09-24 14:45:14.016747,-359
2021-09-24 14:45:14.016753,-364
2021-09-24 14:45:14.016759,-349
2021-09-24 14:45:14.016766,-325
2021-09-24 14:45:14.016772,-281
2021-09-24 14:45:14.016779,-211
2021-09-24 14:45:14.016785,-119
2021-09-24 14:45:14.016792,-19
2021-09-24 14:45:14.016798,72
2021-09-24 14:45:14.241483,148
2021-09-24 14:45:14.241507,206
2021-09-24 14:45:14.241515,240
2021-09-24 14:45:14.241522,257
2021-09-24 14:45:14.241528,272
2021-09-24 14:45:14.241535,279
2021-09-24 14:45:14.241541,276
2021-09-24 14:45:14.241548,269
2021-09-24 14:45:14.241554,255
2021-09-24 14:45:14.241561,230
2021-09-24 14:45:14.241568,221
2021-09-24 14:45:14.241605,223
2021-09-24 14:45:14.241612,218
2021-09-24 14:45:14.241618,204
2021-09-24 14:45:14.241624,187
2021-09-24 14:45:14.241631,172
2021-09-24 14:45:14.241637,165
2021-09-24 14:45:14.241644,160
2021-09-24 14:45:14.241650,153
2021-09-24 14:45:14.241665,150
2021-09-24 14:45:14.241672,148
2021-09-24 14:45:14.241679,140
2021-09-24 14:45:14.241685,140
2021-09-24 14:45:14.241692,138
2021-09-24 14:45:14.241698,126
2021-09-24 14:45:14.241705,116
2021-09-24 14:45:14.241711,104
2021-09-24 14:45:14.241717,94
2021-09-24 14:45:14.241724,89
2021-09-24 14:45:14.241730,94
2021-09-24 14:45:14.510884,99
2021-09-24 14:45:14.510906,99
2021-09-24 14:45:14.510914,94
2021-09-24 14:45:14.510921,94
2021-09-24 14:45:14.510928,104
2021-09-24 14:45:14.510935,106
2021-09-24 14:45:14.510941,97
2021-09-24 14:45:14.510948,92
2021-09-24 14:45:14.510955,85
2021-09-24 14:45:14.510961,85
2021-09-24 14:45:14.510968,92
2021-09-24 14:45:14.510974,89
2021-09-24 14:45:14.510981,85
2021-09-24 14:45:14.510987,82
2021-09-24 14:45:14.510994,77
2021-09-24 14:45:14.511000,77
2021-09-24 14:45:14.511007,80
2021-09-24 14:45:14.511013,80
2021-09-24 14:45:14.511020,89
2021-09-24 14:45:14.511026,102
2021-09-24 14:45:14.511033,92
2021-09-24 14:45:14.511039,82
2021-09-24 14:45:14.511046,77
2021-09-24 14:45:14.511052,65
2021-09-24 14:45:14.511059,58
2021-09-24 14:45:14.511066,53
2021-09-24 14:45:14.511072,48
2021-09-24 14:45:14.511079,58
2021-09-24 14:45:14.511085,82
2021-09-24 14:45:14.511092,82
2021-09-24 14:45:14.691685,72
2021-09-24 14:45:14.691716,77
2021-09-24 14:45:14.691728,77
2021-09-24 14:45:14.691738,77
2021-09-24 14:45:14.691749,85
2021-09-24 14:45:14.691758,85
2021-09-24 14:45:14.691768,77
2021-09-24 14:45:14.691778,72
2021-09-24 14:45:14.691788,65
2021-09-24 14:45:14.691798,36
2021-09-24 14:45:14.691808,-17
2021-09-24 14:45:14.691818,-148
2021-09-24 14:45:14.691828,-388
2021-09-24 14:45:14.691838,-514
2021-09-24 14:45:14.691848,-245
2021-09-24 14:45:14.691858,332
2021-09-24 14:45:14.691868,714
2021-09-24 14:45:14.691878,522
2021-09-24 14:45:14.691888,177
2021-09-24 14:45:14.691898,121
2021-09-24 14:45:14.691908,104
2021-09-24 14:45:14.691918,-21
2021-09-24 14:45:14.691928,-55
2021-09-24 14:45:14.691938,-26
2021-09-24 14:45:14.691962,-55
2021-09-24 14:45:14.691973,-75
2021-09-24 14:45:14.691983,-63
2021-09-24 14:45:14.691993,-77
2021-09-24 14:45:14.692002,-99
2021-09-24 14:45:14.692012,-97
2021-09-24 14:45:15.005786,-102
2021-09-24 14:45:15.005810,-133
2021-09-24 14:45:15.005818,-160
2021-09-24 14:45:15.005825,-172
2021-09-24 14:45:15.005831,-184
2021-09-24 14:45:15.005838,-208
2021-09-24 14:45:15.005844,-242
2021-09-24 14:45:15.005851,-284
2021-09-24 14:45:15.005858,-325
2021-09-24 14:45:15.005864,-361
2021-09-24 14:45:15.005871,-388
2021-09-24 14:45:15.005877,-400
2021-09-24 14:45:15.005884,-415
2021-09-24 14:45:15.005890,-408
2021-09-24 14:45:15.005897,-364
2021-09-24 14:45:15.005903,-303
2021-09-24 14:45:15.005910,-221
2021-09-24 14:45:15.005916,-116
2021-09-24 14:45:15.005923,-26
2021-09-24 14:45:15.005929,55
2021-09-24 14:45:15.005936,133
2021-09-24 14:45:15.005942,184
2021-09-24 14:45:15.005949,208
2021-09-24 14:45:15.005955,228
2021-09-24 14:45:15.005962,238
2021-09-24 14:45:15.005968,235
2021-09-24 14:45:15.005975,230
2021-09-24 14:45:15.005981,228
2021-09-24 14:45:15.005988,223
2021-09-24 14:45:15.005994,221
2021-09-24 14:45:15.186666,213
2021-09-24 14:45:15.186697,201
2021-09-24 14:45:15.186709,191
2021-09-24 14:45:15.186720,179
2021-09-24 14:45:15.186730,162
2021-09-24 14:45:15.186740,157
2021-09-24 14:45:15.186750,150
2021-09-24 14:45:15.186760,145
2021-09-24 14:45:15.186770,140
2021-09-24 14:45:15.186780,131
2021-09-24 14:45:15.186790,126
2021-09-24 14:45:15.186800,121
2021-09-24 14:45:15.186810,106
2021-09-24 14:45:15.186820,99
2021-09-24 14:45:15.186844,106
2021-09-24 14:45:15.186854,109
2021-09-24 14:45:15.186864,106
2021-09-24 14:45:15.186874,106
2021-09-24 14:45:15.186884,106
2021-09-24 14:45:15.186894,111
2021-09-24 14:45:15.186904,116
2021-09-24 14:45:15.186914,109
2021-09-24 14:45:15.186924,106
2021-09-24 14:45:15.186934,109
2021-09-24 14:45:15.186944,106
2021-09-24 14:45:15.186959,104
2021-09-24 14:45:15.186970,109
2021-09-24 14:45:15.186980,106
2021-09-24 14:45:15.186990,106
2021-09-24 14:45:15.187000,109
2021-09-24 14:45:15.366425,104
2021-09-24 14:45:15.366447,104
2021-09-24 14:45:15.366455,106
2021-09-24 14:45:15.366462,104
2021-09-24 14:45:15.366468,106
2021-09-24 14:45:15.366475,109
2021-09-24 14:45:15.366481,99
2021-09-24 14:45:15.366487,89
2021-09-24 14:45:15.366494,92
2021-09-24 14:45:15.366500,85
2021-09-24 14:45:15.366507,68
2021-09-24 14:45:15.366513,63
2021-09-24 14:45:15.366520,60
2021-09-24 14:45:15.366532,51
2021-09-24 14:45:15.366539,51
2021-09-24 14:45:15.366545,72
2021-09-24 14:45:15.366552,92
2021-09-24 14:45:15.366558,85
2021-09-24 14:45:15.366565,82
2021-09-24 14:45:15.366571,92
2021-09-24 14:45:15.366578,87
2021-09-24 14:45:15.366584,80
2021-09-24 14:45:15.366590,87
2021-09-24 14:45:15.366597,87
2021-09-24 14:45:15.366603,87
2021-09-24 14:45:15.366610,87
2021-09-24 14:45:15.366616,63
2021-09-24 14:45:15.366623,17
2021-09-24 14:45:15.366629,-75
2021-09-24 14:45:15.366636,-286
2021-09-24 14:45:15.636643,-466
2021-09-24 14:45:15.636675,-301
2021-09-24 14:45:15.636687,216
2021-09-24 14:45:15.636698,685
2021-09-24 14:45:15.636708,638
2021-09-24 14:45:15.636719,255
2021-09-24 14:45:15.636728,123
2021-09-24 14:45:15.636738,145
2021-09-24 14:45:15.636748,21
2021-09-24 14:45:15.636758,-65
2021-09-24 14:45:15.636768,-38
2021-09-24 14:45:15.636778,-43
2021-09-24 14:45:15.636788,-68
2021-09-24 14:45:15.636798,-65
2021-09-24 14:45:15.636808,-72
2021-09-24 14:45:15.636818,-92
2021-09-24 14:45:15.636828,-102
2021-09-24 14:45:15.636838,-102
2021-09-24 14:45:15.636848,-114
2021-09-24 14:45:15.636858,-131
2021-09-24 14:45:15.636867,-148
2021-09-24 14:45:15.636877,-162
2021-09-24 14:45:15.636887,-187
2021-09-24 14:45:15.636897,-213
2021-09-24 14:45:15.636907,-240
2021-09-24 14:45:15.636917,-264
2021-09-24 14:45:15.636927,-291
2021-09-24 14:45:15.636937,-318
2021-09-24 14:45:15.636947,-332
2021-09-24 14:45:15.636957,-330
2021-09-24 14:45:15.816596,-320
2021-09-24 14:45:15.816617,-293
2021-09-24 14:45:15.816625,-240
2021-09-24 14:45:15.816632,-177
2021-09-24 14:45:15.816638,-99
2021-09-24 14:45:15.816645,4
2021-09-24 14:45:15.816652,94
2021-09-24 14:45:15.816658,160
2021-09-24 14:45:15.816665,213
2021-09-24 14:45:15.816671,245
2021-09-24 14:45:15.816678,259
2021-09-24 14:45:15.816684,269
2021-09-24 14:45:15.816691,264
2021-09-24 14:45:15.816697,247
2021-09-24 14:45:15.816704,242
2021-09-24 14:45:15.816710,238
2021-09-24 14:45:15.816717,221
2021-09-24 14:45:15.816723,213
2021-09-24 14:45:15.816730,211
2021-09-24 14:45:15.816736,199
2021-09-24 14:45:15.816743,189
2021-09-24 14:45:15.816749,179
2021-09-24 14:45:15.816756,172
2021-09-24 14:45:15.816762,170
2021-09-24 14:45:15.816779,170
2021-09-24 14:45:15.816786,160
2021-09-24 14:45:15.816793,150
2021-09-24 14:45:15.816799,145
2021-09-24 14:45:15.816806,138
2021-09-24 14:45:15.816812,131
2021-09-24 14:45:16.176352,126
2021-09-24 14:45:16.176373,121
2021-09-24 14:45:16.176381,121
2021-09-24 14:45:16.176388,114
2021-09-24 14:45:16.176394,106
2021-09-24 14:45:16.176401,114
2021-09-24 14:45:16.176407,123
2021-09-24 14:45:16.176414,121
2021-09-24 14:45:16.176420,114
2021-09-24 14:45:16.176427,106
2021-09-24 14:45:16.176434,109
2021-09-24 14:45:16.176440,109
2021-09-24 14:45:16.176447,99
2021-09-24 14:45:16.176453,99
2021-09-24 14:45:16.176460,102
2021-09-24 14:45:16.176466,99
2021-09-24 14:45:16.176473,102
2021-09-24 14:45:16.176479,109
2021-09-24 14:45:16.176486,106
2021-09-24 14:45:16.176492,102
2021-09-24 14:45:16.176499,106
2021-09-24 14:45:16.176506,106
2021-09-24 14:45:16.176512,104
2021-09-24 14:45:16.176519,106
2021-09-24 14:45:16.176525,109
2021-09-24 14:45:16.176532,109
2021-09-24 14:45:16.176538,104
2021-09-24 14:45:16.176545,104
2021-09-24 14:45:16.176551,111
2021-09-24 14:45:16.176558,116
2021-09-24 14:45:16.311564,114
2021-09-24 14:45:16.311587,102
2021-09-24 14:45:16.311595,85
2021-09-24 14:45:16.311602,72
2021-09-24 14:45:16.311609,72
2021-09-24 14:45:16.311616,68
2021-09-24 14:45:16.311623,68
2021-09-24 14:45:16.311630,87
2021-09-24 14:45:16.311637,104
2021-09-24 14:45:16.311647,104
2021-09-24 14:45:16.311654,102
2021-09-24 14:45:16.311660,106
2021-09-24 14:45:16.311667,111
2021-09-24 14:45:16.311674,106
2021-09-24 14:45:16.311688,97
2021-09-24 14:45:16.311696,92
2021-09-24 14:45:16.311703,94
2021-09-24 14:45:16.311709,94
2021-09-24 14:45:16.311716,63
2021-09-24 14:45:16.311723,7
2021-09-24 14:45:16.311730,-80
2021-09-24 14:45:16.311737,-274
2021-09-24 14:45:16.311744,-473
2021-09-24 14:45:16.311751,-378
2021-09-24 14:45:16.311758,63
2021-09-24 14:45:16.311765,566
2021-09-24 14:45:16.311772,672
2021-09-24 14:45:16.311778,332
2021-09-24 14:45:16.311785,121
2021-09-24 14:45:16.311792,148
2021-09-24 14:45:16.536155,63
2021-09-24 14:45:16.536176,-46
2021-09-24 14:45:16.536184,-26
2021-09-24 14:45:16.536191,-17
2021-09-24 14:45:16.536197,-51
2021-09-24 14:45:16.536204,-55
2021-09-24 14:45:16.536210,-53
2021-09-24 14:45:16.536217,-72
2021-09-24 14:45:16.536223,-92
2021-09-24 14:45:16.536230,-94
2021-09-24 14:45:16.536236,-97
2021-09-24 14:45:16.536242,-111
2021-09-24 14:45:16.536249,-128
2021-09-24 14:45:16.536255,-150
2021-09-24 14:45:16.536262,-177
2021-09-24 14:45:16.536268,-204
2021-09-24 14:45:16.536275,-228
2021-09-24 14:45:16.536281,-255
2021-09-24 14:45:16.536288,-289
2021-09-24 14:45:16.536295,-318
2021-09-24 14:45:16.536301,-332
2021-09-24 14:45:16.536307,-340
2021-09-24 14:45:16.536314,-335
2021-09-24 14:45:16.536320,-313
2021-09-24 14:45:16.536327,-276
2021-09-24 14:45:16.536333,-216
2021-09-24 14:45:16.536340,-126
2021-09-24 14:45:16.536346,-26
2021-09-24 14:45:16.536353,63
2021-09-24 14:45:16.536359,140
2021-09-24 14:45:16.761556,206
2021-09-24 14:45:16.761577,245
2021-09-24 14:45:16.761585,257
2021-09-24 14:45:16.761592,262
2021-09-24 14:45:16.761608,272
2021-09-24 14:45:16.761615,276
2021-09-24 14:45:16.761621,267
2021-09-24 14:45:16.761628,252
2021-09-24 14:45:16.761634,242
2021-09-24 14:45:16.761641,235
2021-09-24 14:45:16.761647,230
2021-09-24 14:45:16.761654,228
2021-09-24 14:45:16.761660,211
2021-09-24 14:45:16.761667,191
2021-09-24 14:45:16.761673,182
2021-09-24 14:45:16.761679,179
2021-09-24 14:45:16.761686,174
2021-09-24 14:45:16.761692,160
2021-09-24 14:45:16.761699,138
2021-09-24 14:45:16.761705,126
2021-09-24 14:45:16.761712,128
2021-09-24 14:45:16.761718,121
2021-09-24 14:45:16.761724,114
2021-09-24 14:45:16.761731,111
2021-09-24 14:45:16.761737,97
2021-09-24 14:45:16.761744,92
2021-09-24 14:45:16.761750,102
2021-09-24 14:45:16.761757,104
2021-09-24 14:45:16.761763,102
2021-09-24 14:45:16.761770,109
2021-09-24 14:45:17.030196,109
2021-09-24 14:45:17.030220,104
2021-09-24 14:45:17.030228,106
2021-09-24 14:45:17.030235,106
2021-09-24 14:45:17.030241,106
2021-09-24 14:45:17.030248,106
2021-09-24 14:45:17.030254,99
2021-09-24 14:45:17.030261,97
2021-09-24 14:45:17.030267,99
2021-09-24 14:45:17.030274,94
2021-09-24 14:45:17.030280,94
2021-09-24 14:45:17.030287,94
2021-09-24 14:45:17.030293,89
2021-09-24 14:45:17.030300,87
2021-09-24 14:45:17.030306,92
2021-09-24 14:45:17.030313,92
2021-09-24 14:45:17.030319,92
2021-09-24 14:45:17.030326,92
2021-09-24 14:45:17.030332,89
2021-09-24 14:45:17.030339,85
2021-09-24 14:45:17.030345,85
2021-09-24 14:45:17.030352,94
2021-09-24 14:45:17.030358,94
2021-09-24 14:45:17.030365,85
2021-09-24 14:45:17.030382,70
2021-09-24 14:45:17.030388,58
2021-09-24 14:45:17.030395,55
2021-09-24 14:45:17.030402,53
2021-09-24 14:45:17.030408,51
2021-09-24 14:45:17.030415,60
2021-09-24 14:45:17.255933,82
2021-09-24 14:45:17.255956,92
2021-09-24 14:45:17.255965,92
2021-09-24 14:45:17.255972,92
2021-09-24 14:45:17.255979,94
2021-09-24 14:45:17.255986,87
2021-09-24 14:45:17.255992,77
2021-09-24 14:45:17.255999,85
2021-09-24 14:45:17.256006,92
2021-09-24 14:45:17.256013,87
2021-09-24 14:45:17.256020,77
2021-09-24 14:45:17.256026,48
2021-09-24 14:45:17.256033,-7
2021-09-24 14:45:17.256040,-121
2021-09-24 14:45:17.256047,-349
2021-09-24 14:45:17.256054,-500
2021-09-24 14:45:17.256060,-279
2021-09-24 14:45:17.256067,230
2021-09-24 14:45:17.256074,668
2021-09-24 14:45:17.256112,629
2021-09-24 14:45:17.256119,257
2021-09-24 14:45:17.256126,104
2021-09-24 14:45:17.256133,104
2021-09-24 14:45:17.256140,-4
2021-09-24 14:45:17.256147,-60
2021-09-24 14:45:17.256154,-24
2021-09-24 14:45:17.256161,-38
2021-09-24 14:45:17.256167,-70
2021-09-24 14:45:17.256174,-68
2021-09-24 14:45:17.256181,-77
2021-09-24 14:45:17.481038,-99
2021-09-24 14:45:17.481057,-104
2021-09-24 14:45:17.481065,-109
2021-09-24 14:45:17.481071,-126
2021-09-24 14:45:17.481078,-145
2021-09-24 14:45:17.481084,-160
2021-09-24 14:45:17.481090,-172
2021-09-24 14:45:17.481096,-191
2021-09-24 14:45:17.481102,-218
2021-09-24 14:45:17.481108,-247
2021-09-24 14:45:17.481114,-281
2021-09-24 14:45:17.481121,-315
2021-09-24 14:45:17.481127,-342
2021-09-24 14:45:17.481133,-354
2021-09-24 14:45:17.481139,-359
2021-09-24 14:45:17.481145,-357
2021-09-24 14:45:17.481151,-335
2021-09-24 14:45:17.481157,-291
2021-09-24 14:45:17.481164,-221
2021-09-24 14:45:17.481170,-123
2021-09-24 14:45:17.481176,-24
2021-09-24 14:45:17.481182,58
2021-09-24 14:45:17.481188,123
2021-09-24 14:45:17.481194,182
2021-09-24 14:45:17.481200,221
2021-09-24 14:45:17.481207,238
2021-09-24 14:45:17.481213,247
2021-09-24 14:45:17.481219,255
2021-09-24 14:45:17.481225,255
2021-09-24 14:45:17.481231,255
2021-09-24 14:45:17.705931,250
2021-09-24 14:45:17.705954,242
2021-09-24 14:45:17.705962,235
2021-09-24 14:45:17.705969,225
2021-09-24 14:45:17.705975,206
2021-09-24 14:45:17.705982,196
2021-09-24 14:45:17.705989,191
2021-09-24 14:45:17.705995,179
2021-09-24 14:45:17.706002,167
2021-09-24 14:45:17.706008,153
2021-09-24 14:45:17.706015,136
2021-09-24 14:45:17.706022,128
2021-09-24 14:45:17.706028,131
2021-09-24 14:45:17.706035,128
2021-09-24 14:45:17.706041,121
2021-09-24 14:45:17.706048,111
2021-09-24 14:45:17.706055,106
2021-09-24 14:45:17.706061,109
2021-09-24 14:45:17.706068,109
2021-09-24 14:45:17.706074,111
2021-09-24 14:45:17.706081,114
2021-09-24 14:45:17.706087,111
2021-09-24 14:45:17.706094,106
2021-09-24 14:45:17.706100,111
2021-09-24 14:45:17.706107,119
2021-09-24 14:45:17.706113,111
2021-09-24 14:45:17.706120,102
2021-09-24 14:45:17.706127,99
2021-09-24 14:45:17.706133,99
2021-09-24 14:45:17.706140,104
2021-09-24 14:45:17.975963,106
2021-09-24 14:45:17.975988,106
2021-09-24 14:45:17.975996,104
2021-09-24 14:45:17.976003,92
2021-09-24 14:45:17.976021,82
2021-09-24 14:45:17.976028,80
2021-09-24 14:45:17.976035,80
2021-09-24 14:45:17.976042,75
2021-09-24 14:45:17.976049,72
2021-09-24 14:45:17.976056,65
2021-09-24 14:45:17.976062,68
2021-09-24 14:45:17.976069,72
2021-09-24 14:45:17.976076,75
2021-09-24 14:45:17.976083,75
2021-09-24 14:45:17.976090,72
2021-09-24 14:45:17.976097,65
2021-09-24 14:45:17.976103,58
2021-09-24 14:45:17.976110,63
2021-09-24 14:45:17.976117,75
2021-09-24 14:45:17.976124,75
2021-09-24 14:45:17.976131,60
2021-09-24 14:45:17.976138,41
2021-09-24 14:45:17.976145,41
2021-09-24 14:45:17.976151,51
2021-09-24 14:45:17.976158,46
2021-09-24 14:45:17.976165,46
2021-09-24 14:45:17.976172,63
2021-09-24 14:45:17.976179,75
2021-09-24 14:45:17.976186,80
2021-09-24 14:45:17.976193,85
2021-09-24 14:45:18.201554,89
2021-09-24 14:45:18.201578,92
2021-09-24 14:45:18.201585,87
2021-09-24 14:45:18.201592,82
2021-09-24 14:45:18.201599,87
2021-09-24 14:45:18.201605,92
2021-09-24 14:45:18.201612,89
2021-09-24 14:45:18.201618,75
2021-09-24 14:45:18.201624,34
2021-09-24 14:45:18.201631,-48
2021-09-24 14:45:18.201638,-235
2021-09-24 14:45:18.201644,-454
2021-09-24 14:45:18.201651,-408
2021-09-24 14:45:18.201681,12
2021-09-24 14:45:18.201688,536
2021-09-24 14:45:18.201695,711
2021-09-24 14:45:18.201701,395
2021-09-24 14:45:18.201708,131
2021-09-24 14:45:18.201714,128
2021-09-24 14:45:18.201720,58
2021-09-24 14:45:18.201727,-53
2021-09-24 14:45:18.201733,-41
2021-09-24 14:45:18.201740,-21
2021-09-24 14:45:18.201746,-55
2021-09-24 14:45:18.201756,-63
2021-09-24 14:45:18.201763,-58
2021-09-24 14:45:18.201769,-77
2021-09-24 14:45:18.201776,-92
2021-09-24 14:45:18.201782,-92
2021-09-24 14:45:18.201789,-104
2021-09-24 14:45:18.381289,-128
2021-09-24 14:45:18.381312,-143
2021-09-24 14:45:18.381320,-157
2021-09-24 14:45:18.381327,-182
2021-09-24 14:45:18.381334,-199
2021-09-24 14:45:18.381341,-218
2021-09-24 14:45:18.381348,-252
2021-09-24 14:45:18.381355,-291
2021-09-24 14:45:18.381362,-330
2021-09-24 14:45:18.381368,-349
2021-09-24 14:45:18.381375,-364
2021-09-24 14:45:18.381382,-378
2021-09-24 14:45:18.381389,-371
2021-09-24 14:45:18.381395,-337
2021-09-24 14:45:18.381402,-279
2021-09-24 14:45:18.381409,-199
2021-09-24 14:45:18.381436,-99
2021-09-24 14:45:18.381443,-2
2021-09-24 14:45:18.381450,80
2021-09-24 14:45:18.381457,143
2021-09-24 14:45:18.381464,187
2021-09-24 14:45:18.381471,216
2021-09-24 14:45:18.381478,228
2021-09-24 14:45:18.381485,240
2021-09-24 14:45:18.381492,245
2021-09-24 14:45:18.381498,238
2021-09-24 14:45:18.381505,228
2021-09-24 14:45:18.381512,218
2021-09-24 14:45:18.381519,208
2021-09-24 14:45:18.381526,201
2021-09-24 14:45:18.606683,194
2021-09-24 14:45:18.606708,179
2021-09-24 14:45:18.606716,160
2021-09-24 14:45:18.606723,153
2021-09-24 14:45:18.606730,150
2021-09-24 14:45:18.606736,145
2021-09-24 14:45:18.606743,136
2021-09-24 14:45:18.606750,121
2021-09-24 14:45:18.606757,114
2021-09-24 14:45:18.606763,114
2021-09-24 14:45:18.606770,111
2021-09-24 14:45:18.606777,111
2021-09-24 14:45:18.606784,109
2021-09-24 14:45:18.606791,102
2021-09-24 14:45:18.606798,99
2021-09-24 14:45:18.606805,102
2021-09-24 14:45:18.606811,106
2021-09-24 14:45:18.606818,106
2021-09-24 14:45:18.606825,106
2021-09-24 14:45:18.606832,106
2021-09-24 14:45:18.606839,109
2021-09-24 14:45:18.606845,104
2021-09-24 14:45:18.606852,106
2021-09-24 14:45:18.606859,111
2021-09-24 14:45:18.606866,114
2021-09-24 14:45:18.606873,109
2021-09-24 14:45:18.606880,106
2021-09-24 14:45:18.606886,106
2021-09-24 14:45:18.606893,106
2021-09-24 14:45:18.606900,109
2021-09-24 14:45:18.876575,104
2021-09-24 14:45:18.876597,102
2021-09-24 14:45:18.876605,104
2021-09-24 14:45:18.876612,99
2021-09-24 14:45:18.876618,92
2021-09-24 14:45:18.876625,89
2021-09-24 14:45:18.876631,82
2021-09-24 14:45:18.876637,75
2021-09-24 14:45:18.876644,77
2021-09-24 14:45:18.876651,80
2021-09-24 14:45:18.876657,80
2021-09-24 14:45:18.876664,75
2021-09-24 14:45:18.876670,68
2021-09-24 14:45:18.876676,58
2021-09-24 14:45:18.876683,48
2021-09-24 14:45:18.876689,38
2021-09-24 14:45:18.876714,36
2021-09-24 14:45:18.876731,26
2021-09-24 14:45:18.876738,24
2021-09-24 14:45:18.876744,46
2021-09-24 14:45:18.876751,70
2021-09-24 14:45:18.876757,77
2021-09-24 14:45:18.876764,75
2021-09-24 14:45:18.876770,70
2021-09-24 14:45:18.876777,70
2021-09-24 14:45:18.876783,75
2021-09-24 14:45:18.876790,75
2021-09-24 14:45:18.876796,72
2021-09-24 14:45:18.876803,70
2021-09-24 14:45:18.876809,65
2021-09-24 14:45:19.145626,46
2021-09-24 14:45:19.145648,7
2021-09-24 14:45:19.145658,-92
2021-09-24 14:45:19.145671,-315
2021-09-24 14:45:19.145725,-517
2021-09-24 14:45:19.145743,-386
2021-09-24 14:45:19.145752,106
2021-09-24 14:45:19.145759,607
2021-09-24 14:45:19.145766,651
2021-09-24 14:45:19.145796,291
2021-09-24 14:45:19.145815,106
2021-09-24 14:45:19.145854,121
2021-09-24 14:45:19.145863,19
2021-09-24 14:45:19.145870,-68
2021-09-24 14:45:19.145877,-38
2021-09-24 14:45:19.145883,-38
2021-09-24 14:45:19.145890,-72
2021-09-24 14:45:19.145897,-82
2021-09-24 14:45:19.145908,-89
2021-09-24 14:45:19.145928,-102
2021-09-24 14:45:19.145969,-109
2021-09-24 14:45:19.145990,-114
2021-09-24 14:45:19.146004,-128
2021-09-24 14:45:19.146015,-148
2021-09-24 14:45:19.146026,-162
2021-09-24 14:45:19.146038,-174
2021-09-24 14:45:19.146050,-194
2021-09-24 14:45:19.146061,-221
2021-09-24 14:45:19.146090,-252
2021-09-24 14:45:19.146143,-289
2021-09-24 14:45:19.325936,-323
2021-09-24 14:45:19.325955,-349
2021-09-24 14:45:19.325961,-364
2021-09-24 14:45:19.325967,-371
2021-09-24 14:45:19.325973,-366
2021-09-24 14:45:19.325978,-347
2021-09-24 14:45:19.325983,-303
2021-09-24 14:45:19.325989,-233
2021-09-24 14:45:19.325994,-148
2021-09-24 14:45:19.326000,-58
2021-09-24 14:45:19.326005,21
2021-09-24 14:45:19.326011,89
2021-09-24 14:45:19.326016,155
2021-09-24 14:45:19.326022,201
2021-09-24 14:45:19.326027,218
2021-09-24 14:45:19.326033,221
2021-09-24 14:45:19.326038,218
2021-09-24 14:45:19.326043,218
2021-09-24 14:45:19.326049,216
2021-09-24 14:45:19.326054,208
2021-09-24 14:45:19.326060,201
2021-09-24 14:45:19.326065,187
2021-09-24 14:45:19.326071,160
2021-09-24 14:45:19.326076,140
2021-09-24 14:45:19.326087,145
2021-09-24 14:45:19.326093,143
2021-09-24 14:45:19.326099,128
2021-09-24 14:45:19.326104,119
2021-09-24 14:45:19.326109,116
2021-09-24 14:45:19.326115,114
2021-09-24 14:45:19.551787,106
2021-09-24 14:45:19.551811,102
2021-09-24 14:45:19.551818,99
2021-09-24 14:45:19.551826,92
2021-09-24 14:45:19.551832,80
2021-09-24 14:45:19.551839,82
2021-09-24 14:45:19.551845,92
2021-09-24 14:45:19.551852,94
2021-09-24 14:45:19.551858,94
2021-09-24 14:45:19.551864,94
2021-09-24 14:45:19.551871,89
2021-09-24 14:45:19.551877,89
2021-09-24 14:45:19.551884,94
2021-09-24 14:45:19.551890,97
2021-09-24 14:45:19.551897,97
2021-09-24 14:45:19.551904,94
2021-09-24 14:45:19.551910,87
2021-09-24 14:45:19.551917,87
2021-09-24 14:45:19.551923,92
2021-09-24 14:45:19.551930,92
2021-09-24 14:45:19.551936,94
2021-09-24 14:45:19.551943,92
2021-09-24 14:45:19.551949,87
2021-09-24 14:45:19.551956,92
2021-09-24 14:45:19.551962,92
2021-09-24 14:45:19.551969,82
2021-09-24 14:45:19.551975,80
2021-09-24 14:45:19.551982,82
2021-09-24 14:45:19.551988,89
2021-09-24 14:45:19.551995,94
2021-09-24 14:45:19.821474,92
2021-09-24 14:45:19.821523,80
2021-09-24 14:45:19.821539,58
2021-09-24 14:45:19.821548,46
2021-09-24 14:45:19.821555,46
2021-09-24 14:45:19.821561,41
2021-09-24 14:45:19.821567,48
2021-09-24 14:45:19.821573,75
2021-09-24 14:45:19.821579,85
2021-09-24 14:45:19.821588,68
2021-09-24 14:45:19.821625,55
2021-09-24 14:45:19.821642,68
2021-09-24 14:45:19.821687,72
2021-09-24 14:45:19.821696,68
2021-09-24 14:45:19.821760,63
2021-09-24 14:45:19.821790,55
2021-09-24 14:45:19.821804,53
2021-09-24 14:45:19.821832,53
2021-09-24 14:45:19.821840,36
2021-09-24 14:45:19.821847,0
2021-09-24 14:45:19.821873,-80
2021-09-24 14:45:19.821881,-279
2021-09-24 14:45:19.821887,-478
2021-09-24 14:45:19.821893,-378
2021-09-24 14:45:19.821901,99
2021-09-24 14:45:19.821912,619
2021-09-24 14:45:19.821939,668
2021-09-24 14:45:19.821967,286
2021-09-24 14:45:19.822001,87
2021-09-24 14:45:19.822013,114
2021-09-24 14:45:20.000878,19
2021-09-24 14:45:20.000895,-77
2021-09-24 14:45:20.000902,-60
2021-09-24 14:45:20.000907,-60
2021-09-24 14:45:20.000912,-89
2021-09-24 14:45:20.000918,-89
2021-09-24 14:45:20.000923,-87
2021-09-24 14:45:20.000928,-104
2021-09-24 14:45:20.000933,-119
2021-09-24 14:45:20.000938,-136
2021-09-24 14:45:20.000944,-148
2021-09-24 14:45:20.000959,-153
2021-09-24 14:45:20.000965,-170
2021-09-24 14:45:20.000970,-191
2021-09-24 14:45:20.000975,-216
2021-09-24 14:45:20.000980,-240
2021-09-24 14:45:20.000986,-267
2021-09-24 14:45:20.000991,-293
2021-09-24 14:45:20.000996,-315
2021-09-24 14:45:20.001001,-342
2021-09-24 14:45:20.001007,-371
2021-09-24 14:45:20.001012,-383
2021-09-24 14:45:20.001017,-366
2021-09-24 14:45:20.001023,-340
2021-09-24 14:45:20.001028,-293
2021-09-24 14:45:20.001033,-223
2021-09-24 14:45:20.001042,-138
2021-09-24 14:45:20.001047,-43
2021-09-24 14:45:20.001052,43
2021-09-24 14:45:20.001058,114
2021-09-24 14:45:20.226531,177
2021-09-24 14:45:20.226553,223
2021-09-24 14:45:20.226561,240
2021-09-24 14:45:20.226568,242
2021-09-24 14:45:20.226584,252
2021-09-24 14:45:20.226591,257
2021-09-24 14:45:20.226597,247
2021-09-24 14:45:20.226604,230
2021-09-24 14:45:20.226610,211
2021-09-24 14:45:20.226616,196
2021-09-24 14:45:20.226623,187
2021-09-24 14:45:20.226629,182
2021-09-24 14:45:20.226636,172
2021-09-24 14:45:20.226642,157
2021-09-24 14:45:20.226649,143
2021-09-24 14:45:20.226655,133
2021-09-24 14:45:20.226662,123
2021-09-24 14:45:20.226668,111
2021-09-24 14:45:20.226674,109
2021-09-24 14:45:20.226681,109
2021-09-24 14:45:20.226687,102
2021-09-24 14:45:20.226693,102
2021-09-24 14:45:20.226700,104
2021-09-24 14:45:20.226706,106
2021-09-24 14:45:20.226713,106
2021-09-24 14:45:20.226719,106
2021-09-24 14:45:20.226725,104
2021-09-24 14:45:20.226732,109
2021-09-24 14:45:20.226738,111
2021-09-24 14:45:20.226745,111
2021-09-24 14:45:20.450989,114
2021-09-24 14:45:20.451009,114
2021-09-24 14:45:20.451017,109
2021-09-24 14:45:20.451024,97
2021-09-24 14:45:20.451031,89
2021-09-24 14:45:20.451037,97
2021-09-24 14:45:20.451044,97
2021-09-24 14:45:20.451050,85
2021-09-24 14:45:20.451057,80
2021-09-24 14:45:20.451063,82
2021-09-24 14:45:20.451070,87
2021-09-24 14:45:20.451076,89
2021-09-24 14:45:20.451083,85
2021-09-24 14:45:20.451089,77
2021-09-24 14:45:20.451096,75
2021-09-24 14:45:20.451102,75
2021-09-24 14:45:20.451109,77
2021-09-24 14:45:20.451115,82
2021-09-24 14:45:20.451121,82
2021-09-24 14:45:20.451128,82
2021-09-24 14:45:20.451134,82
2021-09-24 14:45:20.451141,70
2021-09-24 14:45:20.451147,51
2021-09-24 14:45:20.451154,43
2021-09-24 14:45:20.451160,41
2021-09-24 14:45:20.451167,36
2021-09-24 14:45:20.451173,48
2021-09-24 14:45:20.451180,77
2021-09-24 14:45:20.451186,89
2021-09-24 14:45:20.451193,85
2021-09-24 14:45:20.676310,82
2021-09-24 14:45:20.676333,85
2021-09-24 14:45:20.676341,85
2021-09-24 14:45:20.676348,82
2021-09-24 14:45:20.676355,85
2021-09-24 14:45:20.676361,89
2021-09-24 14:45:20.676368,80
2021-09-24 14:45:20.676374,58
2021-09-24 14:45:20.676381,34
2021-09-24 14:45:20.676387,-17
2021-09-24 14:45:20.676394,-155
2021-09-24 14:45:20.676400,-388
2021-09-24 14:45:20.676407,-473
2021-09-24 14:45:20.676413,-177
2021-09-24 14:45:20.676420,369
2021-09-24 14:45:20.676426,704
2021-09-24 14:45:20.676433,505
2021-09-24 14:45:20.676439,170
2021-09-24 14:45:20.676446,121
2021-09-24 14:45:20.676452,99
2021-09-24 14:45:20.676459,-36
2021-09-24 14:45:20.676466,-72
2021-09-24 14:45:20.676472,-38
2021-09-24 14:45:20.676479,-58
2021-09-24 14:45:20.676485,-85
2021-09-24 14:45:20.676492,-80
2021-09-24 14:45:20.676498,-87
2021-09-24 14:45:20.676505,-104
2021-09-24 14:45:20.676511,-106
2021-09-24 14:45:20.676518,-111
2021-09-24 14:45:20.901345,-128
2021-09-24 14:45:20.901367,-140
2021-09-24 14:45:20.901375,-153
2021-09-24 14:45:20.901382,-177
2021-09-24 14:45:20.901388,-204
2021-09-24 14:45:20.901395,-230
2021-09-24 14:45:20.901402,-264
2021-09-24 14:45:20.901408,-293
2021-09-24 14:45:20.901415,-323
2021-09-24 14:45:20.901421,-359
2021-09-24 14:45:20.901428,-376
2021-09-24 14:45:20.901434,-374
2021-09-24 14:45:20.901441,-364
2021-09-24 14:45:20.901447,-337
2021-09-24 14:45:20.901464,-284
2021-09-24 14:45:20.901471,-206
2021-09-24 14:45:20.901478,-106
2021-09-24 14:45:20.901484,-14
2021-09-24 14:45:20.901491,63
2021-09-24 14:45:20.901497,131
2021-09-24 14:45:20.901504,187
2021-09-24 14:45:20.901511,216
2021-09-24 14:45:20.901517,221
2021-09-24 14:45:20.901524,223
2021-09-24 14:45:20.901531,230
2021-09-24 14:45:20.901537,235
2021-09-24 14:45:20.901544,230
2021-09-24 14:45:20.901550,223
2021-09-24 14:45:20.901557,216
2021-09-24 14:45:20.901563,201
2021-09-24 14:45:21.169756,189
2021-09-24 14:45:21.169774,184
2021-09-24 14:45:21.169780,172
2021-09-24 14:45:21.169787,155
2021-09-24 14:45:21.169792,143
2021-09-24 14:45:21.169798,128
2021-09-24 14:45:21.169803,119
2021-09-24 14:45:21.169811,119
2021-09-24 14:45:21.169817,119
2021-09-24 14:45:21.169823,109
2021-09-24 14:45:21.169828,104
2021-09-24 14:45:21.169834,97
2021-09-24 14:45:21.169839,94
2021-09-24 14:45:21.169845,99
2021-09-24 14:45:21.169850,99
2021-09-24 14:45:21.169856,99
2021-09-24 14:45:21.169863,102
2021-09-24 14:45:21.169869,102
2021-09-24 14:45:21.169876,99
2021-09-24 14:45:21.169884,104
2021-09-24 14:45:21.169892,106
2021-09-24 14:45:21.169897,102
2021-09-24 14:45:21.169903,102
2021-09-24 14:45:21.169909,99
2021-09-24 14:45:21.169914,94
2021-09-24 14:45:21.169920,92
2021-09-24 14:45:21.169925,94
2021-09-24 14:45:21.169931,94
2021-09-24 14:45:21.169936,87
2021-09-24 14:45:21.169942,89
2021-09-24 14:45:21.351163,94
2021-09-24 14:45:21.351184,92
2021-09-24 14:45:21.351190,89
2021-09-24 14:45:21.351195,87
2021-09-24 14:45:21.351210,80
2021-09-24 14:45:21.351216,75
2021-09-24 14:45:21.351221,80
2021-09-24 14:45:21.351226,82
2021-09-24 14:45:21.351231,80
2021-09-24 14:45:21.351236,75
2021-09-24 14:45:21.351242,70
2021-09-24 14:45:21.351247,70
2021-09-24 14:45:21.351252,85
2021-09-24 14:45:21.351257,89
2021-09-24 14:45:21.351262,70
2021-09-24 14:45:21.351275,38
2021-09-24 14:45:21.351281,21
2021-09-24 14:45:21.351286,29
2021-09-24 14:45:21.351291,29
2021-09-24 14:45:21.351296,21
2021-09-24 14:45:21.351302,41
2021-09-24 14:45:21.351307,63
2021-09-24 14:45:21.351315,65
2021-09-24 14:45:21.351321,63
2021-09-24 14:45:21.351326,70
2021-09-24 14:45:21.351331,75
2021-09-24 14:45:21.351336,68
2021-09-24 14:45:21.351341,58
2021-09-24 14:45:21.351347,60
2021-09-24 14:45:21.351352,68
2021-09-24 14:45:21.621711,65
2021-09-24 14:45:21.621742,51
2021-09-24 14:45:21.621753,17
2021-09-24 14:45:21.621764,-55
2021-09-24 14:45:21.621774,-218
2021-09-24 14:45:21.621784,-446
2021-09-24 14:45:21.621794,-468
2021-09-24 14:45:21.621804,-119
2021-09-24 14:45:21.621814,410
2021-09-24 14:45:21.621824,689
2021-09-24 14:45:21.621835,456
2021-09-24 14:45:21.621845,138
2021-09-24 14:45:21.621855,106
2021-09-24 14:45:21.621865,68
2021-09-24 14:45:21.621875,-55
2021-09-24 14:45:21.621885,-70
2021-09-24 14:45:21.621895,-43
2021-09-24 14:45:21.621906,-70
2021-09-24 14:45:21.621916,-85
2021-09-24 14:45:21.621926,-77
2021-09-24 14:45:21.621936,-87
2021-09-24 14:45:21.621946,-104
2021-09-24 14:45:21.621956,-111
2021-09-24 14:45:21.621966,-116
2021-09-24 14:45:21.621976,-126
2021-09-24 14:45:21.621986,-138
2021-09-24 14:45:21.621996,-157
2021-09-24 14:45:21.622006,-182
2021-09-24 14:45:21.622016,-206
2021-09-24 14:45:21.622026,-235
2021-09-24 14:45:21.846159,-262
2021-09-24 14:45:21.846176,-291
2021-09-24 14:45:21.846183,-320
2021-09-24 14:45:21.846188,-347
2021-09-24 14:45:21.846193,-361
2021-09-24 14:45:21.846198,-357
2021-09-24 14:45:21.846203,-344
2021-09-24 14:45:21.846208,-315
2021-09-24 14:45:21.846213,-272
2021-09-24 14:45:21.846218,-204
2021-09-24 14:45:21.846223,-109
2021-09-24 14:45:21.846228,-7
2021-09-24 14:45:21.846234,72
2021-09-24 14:45:21.846239,140
2021-09-24 14:45:21.846244,189
2021-09-24 14:45:21.846249,213
2021-09-24 14:45:21.846254,230
2021-09-24 14:45:21.846259,240
2021-09-24 14:45:21.846264,242
2021-09-24 14:45:21.846269,240
2021-09-24 14:45:21.846274,228
2021-09-24 14:45:21.846279,211
2021-09-24 14:45:21.846284,206
2021-09-24 14:45:21.846289,206
2021-09-24 14:45:21.846294,196
2021-09-24 14:45:21.846299,184
2021-09-24 14:45:21.846304,172
2021-09-24 14:45:21.846310,157
2021-09-24 14:45:21.846315,140
2021-09-24 14:45:21.846334,133
2021-09-24 14:45:22.071509,126
2021-09-24 14:45:22.071530,109
2021-09-24 14:45:22.071538,97
2021-09-24 14:45:22.071545,94
2021-09-24 14:45:22.071552,97
2021-09-24 14:45:22.071558,97
2021-09-24 14:45:22.071565,94
2021-09-24 14:45:22.071571,92
2021-09-24 14:45:22.071578,82
2021-09-24 14:45:22.071585,77
2021-09-24 14:45:22.071591,85
2021-09-24 14:45:22.071598,94
2021-09-24 14:45:22.071604,92
2021-09-24 14:45:22.071611,87
2021-09-24 14:45:22.071626,82
2021-09-24 14:45:22.071633,82
2021-09-24 14:45:22.071639,89
2021-09-24 14:45:22.071646,92
2021-09-24 14:45:22.071652,89
2021-09-24 14:45:22.071659,87
2021-09-24 14:45:22.071665,85
2021-09-24 14:45:22.071672,87
2021-09-24 14:45:22.071678,87
2021-09-24 14:45:22.071685,89
2021-09-24 14:45:22.071691,89
2021-09-24 14:45:22.071698,87
2021-09-24 14:45:22.071704,87
2021-09-24 14:45:22.071711,85
2021-09-24 14:45:22.071717,82
2021-09-24 14:45:22.071724,87
2021-09-24 14:45:22.296634,87
2021-09-24 14:45:22.296655,82
2021-09-24 14:45:22.296663,72
2021-09-24 14:45:22.296670,70
2021-09-24 14:45:22.296677,75
2021-09-24 14:45:22.296683,80
2021-09-24 14:45:22.296689,75
2021-09-24 14:45:22.296696,63
2021-09-24 14:45:22.296702,65
2021-09-24 14:45:22.296709,70
2021-09-24 14:45:22.296715,63
2021-09-24 14:45:22.296722,58
2021-09-24 14:45:22.296728,46
2021-09-24 14:45:22.296735,26
2021-09-24 14:45:22.296741,21
2021-09-24 14:45:22.296748,26
2021-09-24 14:45:22.296754,26
2021-09-24 14:45:22.296760,34
2021-09-24 14:45:22.296767,55
2021-09-24 14:45:22.296773,72
2021-09-24 14:45:22.296780,77
2021-09-24 14:45:22.296786,72
2021-09-24 14:45:22.296793,72
2021-09-24 14:45:22.296799,77
2021-09-24 14:45:22.296805,77
2021-09-24 14:45:22.296812,70
2021-09-24 14:45:22.296818,60
2021-09-24 14:45:22.296825,53
2021-09-24 14:45:22.296831,41
2021-09-24 14:45:22.296838,14
2021-09-24 14:45:22.566750,-58
2021-09-24 14:45:22.566780,-242
2021-09-24 14:45:22.566792,-480
2021-09-24 14:45:22.566802,-463
2021-09-24 14:45:22.566812,-68
2021-09-24 14:45:22.566822,456
2021-09-24 14:45:22.566832,668
2021-09-24 14:45:22.566842,376
2021-09-24 14:45:22.566852,94
2021-09-24 14:45:22.566862,87
2021-09-24 14:45:22.566872,26
2021-09-24 14:45:22.566882,-82
2021-09-24 14:45:22.566989,-70
2021-09-24 14:45:22.567006,-55
2021-09-24 14:45:22.567015,-94
2021-09-24 14:45:22.567026,-104
2021-09-24 14:45:22.567033,-99
2021-09-24 14:45:22.567040,-109
2021-09-24 14:45:22.567046,-119
2021-09-24 14:45:22.567053,-126
2021-09-24 14:45:22.567059,-138
2021-09-24 14:45:22.567066,-153
2021-09-24 14:45:22.567072,-162
2021-09-24 14:45:22.567079,-177
2021-09-24 14:45:22.567088,-199
2021-09-24 14:45:22.567099,-223
2021-09-24 14:45:22.567111,-250
2021-09-24 14:45:22.567122,-281
2021-09-24 14:45:22.567133,-310
2021-09-24 14:45:22.567144,-340
2021-09-24 14:45:22.746513,-366
2021-09-24 14:45:22.746535,-376
2021-09-24 14:45:22.746543,-374
2021-09-24 14:45:22.746550,-366
2021-09-24 14:45:22.746556,-337
2021-09-24 14:45:22.746563,-274
2021-09-24 14:45:22.746591,-191
2021-09-24 14:45:22.746598,-106
2021-09-24 14:45:22.746605,-19
2021-09-24 14:45:22.746612,65
2021-09-24 14:45:22.746619,138
2021-09-24 14:45:22.746625,182
2021-09-24 14:45:22.746632,206
2021-09-24 14:45:22.746638,225
2021-09-24 14:45:22.746645,238
2021-09-24 14:45:22.746651,235
2021-09-24 14:45:22.746658,233
2021-09-24 14:45:22.746664,228
2021-09-24 14:45:22.746671,208
2021-09-24 14:45:22.746677,196
2021-09-24 14:45:22.746684,189
2021-09-24 14:45:22.746690,179
2021-09-24 14:45:22.746697,167
2021-09-24 14:45:22.746703,155
2021-09-24 14:45:22.746714,143
2021-09-24 14:45:22.746721,138
2021-09-24 14:45:22.746727,128
2021-09-24 14:45:22.746734,119
2021-09-24 14:45:22.746740,114
2021-09-24 14:45:22.746747,111
2021-09-24 14:45:23.060989,106
2021-09-24 14:45:23.061011,106
2021-09-24 14:45:23.061019,97
2021-09-24 14:45:23.061025,82
2021-09-24 14:45:23.061032,75
2021-09-24 14:45:23.061050,72
2021-09-24 14:45:23.061057,72
2021-09-24 14:45:23.061063,75
2021-09-24 14:45:23.061070,70
2021-09-24 14:45:23.061076,68
2021-09-24 14:45:23.061082,72
2021-09-24 14:45:23.061089,70
2021-09-24 14:45:23.061095,63
2021-09-24 14:45:23.061102,72
2021-09-24 14:45:23.061116,75
2021-09-24 14:45:23.061123,65
2021-09-24 14:45:23.061129,63
2021-09-24 14:45:23.061136,68
2021-09-24 14:45:23.061142,70
2021-09-24 14:45:23.061149,65
2021-09-24 14:45:23.061155,58
2021-09-24 14:45:23.061162,65
2021-09-24 14:45:23.061169,77
2021-09-24 14:45:23.061175,77
2021-09-24 14:45:23.061182,70
2021-09-24 14:45:23.061188,70
2021-09-24 14:45:23.061195,70
2021-09-24 14:45:23.061201,72
2021-09-24 14:45:23.061208,70
2021-09-24 14:45:23.061214,63
2021-09-24 14:45:23.240347,63
2021-09-24 14:45:23.240370,72
2021-09-24 14:45:23.240377,68
2021-09-24 14:45:23.240384,41
2021-09-24 14:45:23.240391,17
2021-09-24 14:45:23.240397,24
2021-09-24 14:45:23.240404,29
2021-09-24 14:45:23.240410,29
2021-09-24 14:45:23.240417,46
2021-09-24 14:45:23.240423,70
2021-09-24 14:45:23.240430,70
2021-09-24 14:45:23.240437,60
2021-09-24 14:45:23.240443,58
2021-09-24 14:45:23.240450,55
2021-09-24 14:45:23.240467,46
2021-09-24 14:45:23.240474,41
2021-09-24 14:45:23.240480,36
2021-09-24 14:45:23.240487,31
2021-09-24 14:45:23.240493,46
2021-09-24 14:45:23.240500,53
2021-09-24 14:45:23.240506,17
2021-09-24 14:45:23.240513,-68
2021-09-24 14:45:23.240520,-247
2021-09-24 14:45:23.240526,-466
2021-09-24 14:45:23.240533,-444
2021-09-24 14:45:23.240570,-21
2021-09-24 14:45:23.240577,541
2021-09-24 14:45:23.240584,687
2021-09-24 14:45:23.240590,327
2021-09-24 14:45:23.240596,97
2021-09-24 14:45:23.421738,126
2021-09-24 14:45:23.421769,46
2021-09-24 14:45:23.421781,-60
2021-09-24 14:45:23.421791,-48
2021-09-24 14:45:23.421801,-55
2021-09-24 14:45:23.421811,-99
2021-09-24 14:45:23.421821,-99
2021-09-24 14:45:23.421830,-104
2021-09-24 14:45:23.421840,-145
2021-09-24 14:45:23.421850,-177
2021-09-24 14:45:23.421860,-182
2021-09-24 14:45:23.421870,-179
2021-09-24 14:45:23.421880,-187
2021-09-24 14:45:23.421889,-194
2021-09-24 14:45:23.421899,-216
2021-09-24 14:45:23.421909,-255
2021-09-24 14:45:23.421919,-286
2021-09-24 14:45:23.421929,-308
2021-09-24 14:45:23.421939,-327
2021-09-24 14:45:23.421948,-357
2021-09-24 14:45:23.421958,-395
2021-09-24 14:45:23.421968,-425
2021-09-24 14:45:23.421978,-422
2021-09-24 14:45:23.421987,-386
2021-09-24 14:45:23.421997,-369
2021-09-24 14:45:23.422007,-361
2021-09-24 14:45:23.422017,-306
2021-09-24 14:45:23.422026,-206
2021-09-24 14:45:23.422036,-102
2021-09-24 14:45:23.422046,-2
2021-09-24 14:45:23.691623,87
2021-09-24 14:45:23.691647,155
2021-09-24 14:45:23.691655,191
2021-09-24 14:45:23.691662,196
2021-09-24 14:45:23.691669,213
2021-09-24 14:45:23.691675,235
2021-09-24 14:45:23.691682,233
2021-09-24 14:45:23.691688,228
2021-09-24 14:45:23.691695,223
2021-09-24 14:45:23.691701,194
2021-09-24 14:45:23.691708,172
2021-09-24 14:45:23.691714,174
2021-09-24 14:45:23.691721,167
2021-09-24 14:45:23.691727,148
2021-09-24 14:45:23.691734,136
2021-09-24 14:45:23.691740,138
2021-09-24 14:45:23.691747,138
2021-09-24 14:45:23.691753,126
2021-09-24 14:45:23.691760,123
2021-09-24 14:45:23.691766,126
2021-09-24 14:45:23.691773,119
2021-09-24 14:45:23.691780,109
2021-09-24 14:45:23.691786,109
2021-09-24 14:45:23.691793,106
2021-09-24 14:45:23.691799,111
2021-09-24 14:45:23.691806,126
2021-09-24 14:45:23.691812,114
2021-09-24 14:45:23.691819,80
2021-09-24 14:45:23.691825,92
2021-09-24 14:45:23.691832,119
2021-09-24 14:45:23.916802,104
2021-09-24 14:45:23.916823,97
2021-09-24 14:45:23.916831,109
2021-09-24 14:45:23.916838,106
2021-09-24 14:45:23.916844,99
2021-09-24 14:45:23.916851,106
2021-09-24 14:45:23.916857,126
2021-09-24 14:45:23.916864,131
2021-09-24 14:45:23.916870,104
2021-09-24 14:45:23.916877,92
2021-09-24 14:45:23.916883,104
2021-09-24 14:45:23.916890,99
2021-09-24 14:45:23.916896,92
2021-09-24 14:45:23.916916,80
2021-09-24 14:45:23.916922,48
2021-09-24 14:45:23.916929,48
2021-09-24 14:45:23.916936,77
2021-09-24 14:45:23.916942,77
2021-09-24 14:45:23.916949,65
2021-09-24 14:45:23.916955,72
2021-09-24 14:45:23.916965,65
2021-09-24 14:45:23.916972,38
2021-09-24 14:45:23.916979,34
2021-09-24 14:45:23.916986,41
2021-09-24 14:45:23.916995,31
2021-09-24 14:45:23.917002,41
2021-09-24 14:45:23.917009,65
2021-09-24 14:45:23.917015,70
2021-09-24 14:45:23.917022,70
2021-09-24 14:45:23.917028,77
2021-09-24 14:45:24.141655,89
2021-09-24 14:45:24.141677,97
2021-09-24 14:45:24.141684,77
2021-09-24 14:45:24.141691,63
2021-09-24 14:45:24.141697,80
2021-09-24 14:45:24.141704,85
2021-09-24 14:45:24.141710,55
2021-09-24 14:45:24.141717,4
2021-09-24 14:45:24.141723,-68
2021-09-24 14:45:24.141730,-228
2021-09-24 14:45:24.141736,-446
2021-09-24 14:45:24.141743,-420
2021-09-24 14:45:24.141749,7
2021-09-24 14:45:24.141755,551
2021-09-24 14:45:24.141762,736
2021-09-24 14:45:24.141768,417
2021-09-24 14:45:24.141775,128
2021-09-24 14:45:24.141781,128
2021-09-24 14:45:24.141788,65
2021-09-24 14:45:24.141794,-68
2021-09-24 14:45:24.141800,-80
2021-09-24 14:45:24.141807,-65
2021-09-24 14:45:24.141813,-89
2021-09-24 14:45:24.141820,-97
2021-09-24 14:45:24.141826,-87
2021-09-24 14:45:24.141832,-80
2021-09-24 14:45:24.141839,-82
2021-09-24 14:45:24.141845,-104
2021-09-24 14:45:24.141851,-131
2021-09-24 14:45:24.141858,-138
2021-09-24 14:45:24.366247,-148
2021-09-24 14:45:24.366270,-179
2021-09-24 14:45:24.366278,-211
2021-09-24 14:45:24.366285,-233
2021-09-24 14:45:24.366291,-245
2021-09-24 14:45:24.366298,-259
2021-09-24 14:45:24.366304,-303
2021-09-24 14:45:24.366311,-357
2021-09-24 14:45:24.366318,-376
2021-09-24 14:45:24.366324,-393
2021-09-24 14:45:24.366331,-412
2021-09-24 14:45:24.366337,-388
2021-09-24 14:45:24.366344,-313
2021-09-24 14:45:24.366351,-252
2021-09-24 14:45:24.366366,-191
2021-09-24 14:45:24.366373,-80
2021-09-24 14:45:24.366379,36
2021-09-24 14:45:24.366386,114
2021-09-24 14:45:24.366392,167
2021-09-24 14:45:24.366399,196
2021-09-24 14:45:24.366405,211
2021-09-24 14:45:24.366412,223
2021-09-24 14:45:24.366418,228
2021-09-24 14:45:24.366425,233
2021-09-24 14:45:24.366431,225
2021-09-24 14:45:24.366438,218
2021-09-24 14:45:24.366447,218
2021-09-24 14:45:24.366454,201
2021-09-24 14:45:24.366460,179
2021-09-24 14:45:24.366467,170
2021-09-24 14:45:24.591805,165
2021-09-24 14:45:24.591840,162
2021-09-24 14:45:24.591852,155
2021-09-24 14:45:24.591863,136
2021-09-24 14:45:24.591873,126
2021-09-24 14:45:24.591883,119
2021-09-24 14:45:24.591893,104
2021-09-24 14:45:24.591903,102
2021-09-24 14:45:24.591913,106
2021-09-24 14:45:24.591923,92
2021-09-24 14:45:24.591933,82
2021-09-24 14:45:24.591943,92
2021-09-24 14:45:24.591953,87
2021-09-24 14:45:24.591963,72
2021-09-24 14:45:24.591973,80
2021-09-24 14:45:24.591983,99
2021-09-24 14:45:24.591993,104
2021-09-24 14:45:24.592003,92
2021-09-24 14:45:24.592014,80
2021-09-24 14:45:24.592024,82
2021-09-24 14:45:24.592034,94
2021-09-24 14:45:24.592044,92
2021-09-24 14:45:24.592054,89
2021-09-24 14:45:24.592064,89
2021-09-24 14:45:24.592074,89
2021-09-24 14:45:24.592085,102
2021-09-24 14:45:24.592095,99
2021-09-24 14:45:24.592105,77
2021-09-24 14:45:24.592115,75
2021-09-24 14:45:24.592125,87
2021-09-24 14:45:24.816705,80
2021-09-24 14:45:24.816727,80
2021-09-24 14:45:24.816735,97
2021-09-24 14:45:24.816742,97
2021-09-24 14:45:24.816758,82
2021-09-24 14:45:24.816765,72
2021-09-24 14:45:24.816771,77
2021-09-24 14:45:24.816778,77
2021-09-24 14:45:24.816784,55
2021-09-24 14:45:24.816791,38
2021-09-24 14:45:24.816797,31
2021-09-24 14:45:24.816804,26
2021-09-24 14:45:24.816810,46
2021-09-24 14:45:24.816817,82
2021-09-24 14:45:24.816823,80
2021-09-24 14:45:24.816830,60
2021-09-24 14:45:24.816836,70
2021-09-24 14:45:24.816842,80
2021-09-24 14:45:24.816849,72
2021-09-24 14:45:24.816855,72
2021-09-24 14:45:24.816862,72
2021-09-24 14:45:24.816868,65
2021-09-24 14:45:24.816874,58
2021-09-24 14:45:24.816881,34
2021-09-24 14:45:24.816887,-36
2021-09-24 14:45:24.816894,-199
2021-09-24 14:45:24.816903,-454
2021-09-24 14:45:24.816910,-541
2021-09-24 14:45:24.816917,-218
2021-09-24 14:45:24.816923,374
2021-09-24 14:45:25.041680,728
2021-09-24 14:45:25.041704,502
2021-09-24 14:45:25.041712,153
2021-09-24 14:45:25.041719,106
2021-09-24 14:45:25.041725,77
2021-09-24 14:45:25.041732,-53
2021-09-24 14:45:25.041738,-68
2021-09-24 14:45:25.041745,-34
2021-09-24 14:45:25.041751,-75
2021-09-24 14:45:25.041758,-106
2021-09-24 14:45:25.041764,-99
2021-09-24 14:45:25.041771,-109
2021-09-24 14:45:25.041777,-128
2021-09-24 14:45:25.041784,-123
2021-09-24 14:45:25.041790,-136
2021-09-24 14:45:25.041797,-170
2021-09-24 14:45:25.041803,-177
2021-09-24 14:45:25.041810,-172
2021-09-24 14:45:25.041816,-191
2021-09-24 14:45:25.041823,-225
2021-09-24 14:45:25.041829,-259
2021-09-24 14:45:25.041836,-296
2021-09-24 14:45:25.041842,-318
2021-09-24 14:45:25.041849,-347
2021-09-24 14:45:25.041866,-381
2021-09-24 14:45:25.041873,-376
2021-09-24 14:45:25.041879,-369
2021-09-24 14:45:25.041886,-393
2021-09-24 14:45:25.041893,-383
2021-09-24 14:45:25.041899,-303
2021-09-24 14:45:25.310273,-208
2021-09-24 14:45:25.310297,-111
2021-09-24 14:45:25.310305,2
2021-09-24 14:45:25.310312,89
2021-09-24 14:45:25.310318,143
2021-09-24 14:45:25.310325,191
2021-09-24 14:45:25.310331,228
2021-09-24 14:45:25.310338,242
2021-09-24 14:45:25.310344,252
2021-09-24 14:45:25.310351,252
2021-09-24 14:45:25.310357,240
2021-09-24 14:45:25.310364,240
2021-09-24 14:45:25.310370,245
2021-09-24 14:45:25.310377,238
2021-09-24 14:45:25.310383,223
2021-09-24 14:45:25.310390,208
2021-09-24 14:45:25.310396,196
2021-09-24 14:45:25.310402,194
2021-09-24 14:45:25.310409,191
2021-09-24 14:45:25.310415,179
2021-09-24 14:45:25.310422,165
2021-09-24 14:45:25.310428,155
2021-09-24 14:45:25.310435,143
2021-09-24 14:45:25.310441,126
2021-09-24 14:45:25.310448,123
2021-09-24 14:45:25.310454,126
2021-09-24 14:45:25.310461,119
2021-09-24 14:45:25.310467,114
2021-09-24 14:45:25.310474,109
2021-09-24 14:45:25.310480,102
2021-09-24 14:45:25.536567,99
2021-09-24 14:45:25.536588,102
2021-09-24 14:45:25.536596,87
2021-09-24 14:45:25.536603,72
2021-09-24 14:45:25.536609,72
2021-09-24 14:45:25.536616,77
2021-09-24 14:45:25.536622,80
2021-09-24 14:45:25.536629,85
2021-09-24 14:45:25.536635,82
2021-09-24 14:45:25.536642,72
2021-09-24 14:45:25.536648,72
2021-09-24 14:45:25.536654,85
2021-09-24 14:45:25.536661,82
2021-09-24 14:45:25.536667,80
2021-09-24 14:45:25.536674,82
2021-09-24 14:45:25.536682,87
2021-09-24 14:45:25.536689,85
2021-09-24 14:45:25.536696,65
2021-09-24 14:45:25.536702,55
2021-09-24 14:45:25.536709,70
2021-09-24 14:45:25.536715,72
2021-09-24 14:45:25.536722,65
2021-09-24 14:45:25.536728,70
2021-09-24 14:45:25.536735,75
2021-09-24 14:45:25.536741,70
2021-09-24 14:45:25.536748,60
2021-09-24 14:45:25.536754,53
2021-09-24 14:45:25.536761,41
2021-09-24 14:45:25.536767,46
2021-09-24 14:45:25.536773,75
2021-09-24 14:45:25.806706,87
2021-09-24 14:45:25.806730,68
2021-09-24 14:45:25.806738,53
2021-09-24 14:45:25.806745,55
2021-09-24 14:45:25.806752,60
2021-09-24 14:45:25.806759,65
2021-09-24 14:45:25.806766,68
2021-09-24 14:45:25.806772,63
2021-09-24 14:45:25.806779,55
2021-09-24 14:45:25.806786,48
2021-09-24 14:45:25.806793,29
2021-09-24 14:45:25.806800,-19
2021-09-24 14:45:25.806806,-165
2021-09-24 14:45:25.806813,-429
2021-09-24 14:45:25.806820,-583
2021-09-24 14:45:25.806827,-337
2021-09-24 14:45:25.806834,247
2021-09-24 14:45:25.806841,697
2021-09-24 14:45:25.806847,566
2021-09-24 14:45:25.806854,179
2021-09-24 14:45:25.806861,87
2021-09-24 14:45:25.806868,85
2021-09-24 14:45:25.806874,-38
2021-09-24 14:45:25.806881,-80
2021-09-24 14:45:25.806888,-41
2021-09-24 14:45:25.806895,-63
2021-09-24 14:45:25.806902,-94
2021-09-24 14:45:25.806908,-89
2021-09-24 14:45:25.806915,-106
2021-09-24 14:45:25.806922,-131
2021-09-24 14:45:25.986636,-136
2021-09-24 14:45:25.986660,-140
2021-09-24 14:45:25.986668,-157
2021-09-24 14:45:25.986675,-184
2021-09-24 14:45:25.986689,-206
2021-09-24 14:45:25.986695,-216
2021-09-24 14:45:25.986702,-235
2021-09-24 14:45:25.986708,-281
2021-09-24 14:45:25.986715,-323
2021-09-24 14:45:25.986721,-349
2021-09-24 14:45:25.986728,-374
2021-09-24 14:45:25.986734,-403
2021-09-24 14:45:25.986741,-422
2021-09-24 14:45:25.986747,-427
2021-09-24 14:45:25.986754,-417
2021-09-24 14:45:25.986760,-386
2021-09-24 14:45:25.986767,-332
2021-09-24 14:45:25.986773,-247
2021-09-24 14:45:25.986780,-145
2021-09-24 14:45:25.986786,-51
2021-09-24 14:45:25.986793,34
2021-09-24 14:45:25.986800,114
2021-09-24 14:45:25.986806,165
2021-09-24 14:45:25.986812,194
2021-09-24 14:45:25.986819,223
2021-09-24 14:45:25.986825,233
2021-09-24 14:45:25.986832,233
2021-09-24 14:45:25.986838,233
2021-09-24 14:45:25.986845,233
2021-09-24 14:45:25.986851,228
2021-09-24 14:45:26.211689,221
2021-09-24 14:45:26.211713,204
2021-09-24 14:45:26.211721,187
2021-09-24 14:45:26.211728,184
2021-09-24 14:45:26.211735,182
2021-09-24 14:45:26.211742,157
2021-09-24 14:45:26.211749,128
2021-09-24 14:45:26.211756,119
2021-09-24 14:45:26.211763,121
2021-09-24 14:45:26.211770,116
2021-09-24 14:45:26.211777,106
2021-09-24 14:45:26.211784,102
2021-09-24 14:45:26.211791,102
2021-09-24 14:45:26.211798,89
2021-09-24 14:45:26.211805,77
2021-09-24 14:45:26.211812,77
2021-09-24 14:45:26.211819,80
2021-09-24 14:45:26.211825,80
2021-09-24 14:45:26.211832,77
2021-09-24 14:45:26.211839,65
2021-09-24 14:45:26.211846,60
2021-09-24 14:45:26.211853,72
2021-09-24 14:45:26.211860,75
2021-09-24 14:45:26.211867,70
2021-09-24 14:45:26.211885,72
2021-09-24 14:45:26.211893,77
2021-09-24 14:45:26.211900,72
2021-09-24 14:45:26.211906,68
2021-09-24 14:45:26.211913,65
2021-09-24 14:45:26.211920,68
2021-09-24 14:45:26.480740,63
2021-09-24 14:45:26.480763,53
2021-09-24 14:45:26.480771,51
2021-09-24 14:45:26.480778,51
2021-09-24 14:45:26.480785,58
2021-09-24 14:45:26.480792,68
2021-09-24 14:45:26.480799,60
2021-09-24 14:45:26.480806,55
2021-09-24 14:45:26.480813,48
2021-09-24 14:45:26.480820,24
2021-09-24 14:45:26.480827,14
2021-09-24 14:45:26.480833,19
2021-09-24 14:45:26.480840,-2
2021-09-24 14:45:26.480847,-17
2021-09-24 14:45:26.480854,4
2021-09-24 14:45:26.480861,26
2021-09-24 14:45:26.480868,26
2021-09-24 14:45:26.480875,26
2021-09-24 14:45:26.480882,36
2021-09-24 14:45:26.480889,43
2021-09-24 14:45:26.480896,41
2021-09-24 14:45:26.480902,38
2021-09-24 14:45:26.480909,38
2021-09-24 14:45:26.480916,36
2021-09-24 14:45:26.480923,29
2021-09-24 14:45:26.480934,4
2021-09-24 14:45:26.480941,-51
2021-09-24 14:45:26.480948,-172
2021-09-24 14:45:26.480955,-393
2021-09-24 14:45:26.480962,-544
2021-09-24 14:45:26.661714,-323
2021-09-24 14:45:26.661745,245
2021-09-24 14:45:26.661757,687
2021-09-24 14:45:26.661767,573
2021-09-24 14:45:26.661777,196
2021-09-24 14:45:26.661787,87
2021-09-24 14:45:26.661797,85
2021-09-24 14:45:26.661807,-43
2021-09-24 14:45:26.661817,-111
2021-09-24 14:45:26.661828,-85
2021-09-24 14:45:26.661838,-111
2021-09-24 14:45:26.661848,-148
2021-09-24 14:45:26.661858,-140
2021-09-24 14:45:26.661868,-145
2021-09-24 14:45:26.661891,-162
2021-09-24 14:45:26.661902,-165
2021-09-24 14:45:26.661912,-172
2021-09-24 14:45:26.661922,-194
2021-09-24 14:45:26.661932,-208
2021-09-24 14:45:26.661942,-211
2021-09-24 14:45:26.661952,-228
2021-09-24 14:45:26.661962,-257
2021-09-24 14:45:26.661972,-289
2021-09-24 14:45:26.661982,-320
2021-09-24 14:45:26.661992,-347
2021-09-24 14:45:26.662002,-369
2021-09-24 14:45:26.662012,-395
2021-09-24 14:45:26.662022,-412
2021-09-24 14:45:26.662032,-415
2021-09-24 14:45:26.662042,-395
2021-09-24 14:45:26.886408,-364
2021-09-24 14:45:26.886430,-313
2021-09-24 14:45:26.886438,-230
2021-09-24 14:45:26.886445,-126
2021-09-24 14:45:26.886451,-34
2021-09-24 14:45:26.886458,43
2021-09-24 14:45:26.886465,123
2021-09-24 14:45:26.886481,187
2021-09-24 14:45:26.886488,216
2021-09-24 14:45:26.886495,225
2021-09-24 14:45:26.886501,233
2021-09-24 14:45:26.886507,233
2021-09-24 14:45:26.886514,225
2021-09-24 14:45:26.886520,216
2021-09-24 14:45:26.886527,206
2021-09-24 14:45:26.886533,206
2021-09-24 14:45:26.886540,196
2021-09-24 14:45:26.886546,177
2021-09-24 14:45:26.886553,170
2021-09-24 14:45:26.886559,160
2021-09-24 14:45:26.886566,143
2021-09-24 14:45:26.886572,131
2021-09-24 14:45:26.886579,116
2021-09-24 14:45:26.886585,111
2021-09-24 14:45:26.886592,111
2021-09-24 14:45:26.886598,104
2021-09-24 14:45:26.886605,102
2021-09-24 14:45:26.886611,99
2021-09-24 14:45:26.886618,92
2021-09-24 14:45:26.886624,92
2021-09-24 14:45:27.111821,102
2021-09-24 14:45:27.111853,104
2021-09-24 14:45:27.111865,104
2021-09-24 14:45:27.111875,104
2021-09-24 14:45:27.111898,94
2021-09-24 14:45:27.111909,89
2021-09-24 14:45:27.111919,99
2021-09-24 14:45:27.111929,94
2021-09-24 14:45:27.111939,85
2021-09-24 14:45:27.111949,80
2021-09-24 14:45:27.111959,63
2021-09-24 14:45:27.111969,60
2021-09-24 14:45:27.111979,68
2021-09-24 14:45:27.111989,60
2021-09-24 14:45:27.111999,53
2021-09-24 14:45:27.112009,53
2021-09-24 14:45:27.112019,58
2021-09-24 14:45:27.112029,60
2021-09-24 14:45:27.112039,51
2021-09-24 14:45:27.112049,36
2021-09-24 14:45:27.112059,34
2021-09-24 14:45:27.112069,31
2021-09-24 14:45:27.112079,19
2021-09-24 14:45:27.112089,21
2021-09-24 14:45:27.112099,43
2021-09-24 14:45:27.112109,65
2021-09-24 14:45:27.112119,63
2021-09-24 14:45:27.112129,55
2021-09-24 14:45:27.112139,60
2021-09-24 14:45:27.112149,70
2021-09-24 14:45:27.425282,68
2021-09-24 14:45:27.425304,65
2021-09-24 14:45:27.425311,70
2021-09-24 14:45:27.425318,63
2021-09-24 14:45:27.425325,51
2021-09-24 14:45:27.425331,31
2021-09-24 14:45:27.425338,-19
2021-09-24 14:45:27.425344,-121
2021-09-24 14:45:27.425350,-325
2021-09-24 14:45:27.425357,-505
2021-09-24 14:45:27.425363,-352
2021-09-24 14:45:27.425370,165
2021-09-24 14:45:27.425376,653
2021-09-24 14:45:27.425383,643
2021-09-24 14:45:27.425389,262
2021-09-24 14:45:27.425396,104
2021-09-24 14:45:27.425402,119
2021-09-24 14:45:27.425409,0
2021-09-24 14:45:27.425415,-82
2021-09-24 14:45:27.425421,-51
2021-09-24 14:45:27.425428,-63
2021-09-24 14:45:27.425434,-104
2021-09-24 14:45:27.425441,-99
2021-09-24 14:45:27.425447,-97
2021-09-24 14:45:27.425463,-121
2021-09-24 14:45:27.425470,-143
2021-09-24 14:45:27.425477,-155
2021-09-24 14:45:27.425483,-162
2021-09-24 14:45:27.425490,-174
2021-09-24 14:45:27.425496,-189
2021-09-24 14:45:27.606597,-204
2021-09-24 14:45:27.606619,-228
2021-09-24 14:45:27.606627,-264
2021-09-24 14:45:27.606634,-296
2021-09-24 14:45:27.606642,-323
2021-09-24 14:45:27.606649,-354
2021-09-24 14:45:27.606655,-378
2021-09-24 14:45:27.606662,-391
2021-09-24 14:45:27.606669,-405
2021-09-24 14:45:27.606676,-412
2021-09-24 14:45:27.606683,-374
2021-09-24 14:45:27.606690,-306
2021-09-24 14:45:27.606697,-230
2021-09-24 14:45:27.606704,-131
2021-09-24 14:45:27.606711,-21
2021-09-24 14:45:27.606718,63
2021-09-24 14:45:27.606725,133
2021-09-24 14:45:27.606731,191
2021-09-24 14:45:27.606738,223
2021-09-24 14:45:27.606745,238
2021-09-24 14:45:27.606752,247
2021-09-24 14:45:27.606759,250
2021-09-24 14:45:27.606766,250
2021-09-24 14:45:27.606772,252
2021-09-24 14:45:27.606779,250
2021-09-24 14:45:27.606786,235
2021-09-24 14:45:27.606793,221
2021-09-24 14:45:27.606800,221
2021-09-24 14:45:27.606807,221
2021-09-24 14:45:27.606814,208
2021-09-24 14:45:27.831783,196
2021-09-24 14:45:27.831814,182
2021-09-24 14:45:27.831826,172
2021-09-24 14:45:27.831836,174
2021-09-24 14:45:27.831846,174
2021-09-24 14:45:27.831856,155
2021-09-24 14:45:27.831866,148
2021-09-24 14:45:27.831876,150
2021-09-24 14:45:27.831886,131
2021-09-24 14:45:27.831896,114
2021-09-24 14:45:27.831906,116
2021-09-24 14:45:27.831916,114
2021-09-24 14:45:27.831926,121
2021-09-24 14:45:27.831936,123
2021-09-24 14:45:27.831960,111
2021-09-24 14:45:27.831983,114
2021-09-24 14:45:27.831994,119
2021-09-24 14:45:27.832004,119
2021-09-24 14:45:27.832014,116
2021-09-24 14:45:27.832024,111
2021-09-24 14:45:27.832034,109
2021-09-24 14:45:27.832044,109
2021-09-24 14:45:27.832054,104
2021-09-24 14:45:27.832064,102
2021-09-24 14:45:27.832074,102
2021-09-24 14:45:27.832084,97
2021-09-24 14:45:27.832094,87
2021-09-24 14:45:27.832104,77
2021-09-24 14:45:27.832114,75
2021-09-24 14:45:27.832124,80
2021-09-24 14:45:28.056607,77
2021-09-24 14:45:28.056631,68
2021-09-24 14:45:28.056638,53
2021-09-24 14:45:28.056645,38
2021-09-24 14:45:28.056652,31
2021-09-24 14:45:28.056658,36
2021-09-24 14:45:28.056664,29
2021-09-24 14:45:28.056671,14
2021-09-24 14:45:28.056677,24
2021-09-24 14:45:28.056684,46
2021-09-24 14:45:28.056690,51
2021-09-24 14:45:28.056696,46
2021-09-24 14:45:28.056703,46
2021-09-24 14:45:28.056709,53
2021-09-24 14:45:28.056716,53
2021-09-24 14:45:28.056722,46
2021-09-24 14:45:28.056729,51
2021-09-24 14:45:28.056735,55
2021-09-24 14:45:28.056741,48
2021-09-24 14:45:28.056748,29
2021-09-24 14:45:28.056754,-17
2021-09-24 14:45:28.056761,-126
2021-09-24 14:45:28.056767,-349
2021-09-24 14:45:28.056774,-544
2021-09-24 14:45:28.056780,-412
2021-09-24 14:45:28.056786,55
2021-09-24 14:45:28.056793,558
2021-09-24 14:45:28.056799,636
2021-09-24 14:45:28.056806,284
2021-09-24 14:45:28.056812,99
2021-09-24 14:45:28.326343,131
2021-09-24 14:45:28.326366,26
2021-09-24 14:45:28.326373,-75
2021-09-24 14:45:28.326380,-51
2021-09-24 14:45:28.326397,-43
2021-09-24 14:45:28.326404,-75
2021-09-24 14:45:28.326411,-87
2021-09-24 14:45:28.326417,-94
2021-09-24 14:45:28.326424,-104
2021-09-24 14:45:28.326430,-111
2021-09-24 14:45:28.326437,-119
2021-09-24 14:45:28.326443,-133
2021-09-24 14:45:28.326450,-155
2021-09-24 14:45:28.326457,-172
2021-09-24 14:45:28.326463,-187
2021-09-24 14:45:28.326470,-208
2021-09-24 14:45:28.326476,-240
2021-09-24 14:45:28.326483,-274
2021-09-24 14:45:28.326489,-308
2021-09-24 14:45:28.326496,-340
2021-09-24 14:45:28.326502,-366
2021-09-24 14:45:28.326509,-388
2021-09-24 14:45:28.326516,-398
2021-09-24 14:45:28.326522,-393
2021-09-24 14:45:28.326529,-371
2021-09-24 14:45:28.326535,-315
2021-09-24 14:45:28.326542,-233
2021-09-24 14:45:28.326548,-138
2021-09-24 14:45:28.326555,-31
2021-09-24 14:45:28.326562,63
2021-09-24 14:45:28.506775,140
2021-09-24 14:45:28.506796,206
2021-09-24 14:45:28.506804,250
2021-09-24 14:45:28.506811,264
2021-09-24 14:45:28.506818,274
2021-09-24 14:45:28.506824,281
2021-09-24 14:45:28.506831,267
2021-09-24 14:45:28.506838,255
2021-09-24 14:45:28.506844,257
2021-09-24 14:45:28.506851,250
2021-09-24 14:45:28.506857,235
2021-09-24 14:45:28.506863,223
2021-09-24 14:45:28.506870,213
2021-09-24 14:45:28.506876,213
2021-09-24 14:45:28.506886,211
2021-09-24 14:45:28.506897,194
2021-09-24 14:45:28.506907,179
2021-09-24 14:45:28.506913,167
2021-09-24 14:45:28.506920,153
2021-09-24 14:45:28.506926,148
2021-09-24 14:45:28.506933,143
2021-09-24 14:45:28.506944,145
2021-09-24 14:45:28.506952,148
2021-09-24 14:45:28.506959,140
2021-09-24 14:45:28.506965,133
2021-09-24 14:45:28.506972,128
2021-09-24 14:45:28.506978,119
2021-09-24 14:45:28.506985,111
2021-09-24 14:45:28.506994,116
2021-09-24 14:45:28.507006,116
2021-09-24 14:45:28.775561,114
2021-09-24 14:45:28.775581,116
2021-09-24 14:45:28.775589,119
2021-09-24 14:45:28.775596,114
2021-09-24 14:45:28.775602,109
2021-09-24 14:45:28.775609,104
2021-09-24 14:45:28.775615,106
2021-09-24 14:45:28.775622,114
2021-09-24 14:45:28.775628,111
2021-09-24 14:45:28.775634,106
2021-09-24 14:45:28.775641,97
2021-09-24 14:45:28.775647,82
2021-09-24 14:45:28.775654,77
2021-09-24 14:45:28.775660,75
2021-09-24 14:45:28.775667,65
2021-09-24 14:45:28.775673,63
2021-09-24 14:45:28.775680,70
2021-09-24 14:45:28.775686,85
2021-09-24 14:45:28.775692,99
2021-09-24 14:45:28.775699,92
2021-09-24 14:45:28.775705,63
2021-09-24 14:45:28.775720,48
2021-09-24 14:45:28.775737,53
2021-09-24 14:45:28.775744,43
2021-09-24 14:45:28.775750,36
2021-09-24 14:45:28.775757,60
2021-09-24 14:45:28.775763,77
2021-09-24 14:45:28.775769,70
2021-09-24 14:45:28.775776,60
2021-09-24 14:45:28.775782,63
2021-09-24 14:45:28.956759,70
2021-09-24 14:45:28.956784,70
2021-09-24 14:45:28.956791,72
2021-09-24 14:45:28.956798,68
2021-09-24 14:45:28.956805,55
2021-09-24 14:45:28.956811,46
2021-09-24 14:45:28.956818,24
2021-09-24 14:45:28.956824,-34
2021-09-24 14:45:28.956831,-187
2021-09-24 14:45:28.956838,-442
2021-09-24 14:45:28.956844,-548
2021-09-24 14:45:28.956851,-284
2021-09-24 14:45:28.956857,247
2021-09-24 14:45:28.956863,670
2021-09-24 14:45:28.956881,556
2021-09-24 14:45:28.956888,167
2021-09-24 14:45:28.956894,75
2021-09-24 14:45:28.956901,80
2021-09-24 14:45:28.956907,-43
2021-09-24 14:45:28.956914,-80
2021-09-24 14:45:28.956920,-46
2021-09-24 14:45:28.956927,-80
2021-09-24 14:45:28.956933,-109
2021-09-24 14:45:28.956940,-92
2021-09-24 14:45:28.956946,-94
2021-09-24 14:45:28.956953,-116
2021-09-24 14:45:28.956959,-119
2021-09-24 14:45:28.956966,-119
2021-09-24 14:45:28.956972,-138
2021-09-24 14:45:28.956978,-157
2021-09-24 14:45:29.226666,-177
2021-09-24 14:45:29.226696,-204
2021-09-24 14:45:29.226708,-228
2021-09-24 14:45:29.226719,-262
2021-09-24 14:45:29.226729,-306
2021-09-24 14:45:29.226739,-335
2021-09-24 14:45:29.226749,-361
2021-09-24 14:45:29.226758,-391
2021-09-24 14:45:29.226768,-410
2021-09-24 14:45:29.226778,-420
2021-09-24 14:45:29.226788,-410
2021-09-24 14:45:29.226798,-374
2021-09-24 14:45:29.226808,-315
2021-09-24 14:45:29.226818,-228
2021-09-24 14:45:29.226829,-121
2021-09-24 14:45:29.226839,-21
2021-09-24 14:45:29.226849,68
2021-09-24 14:45:29.226859,148
2021-09-24 14:45:29.226869,206
2021-09-24 14:45:29.226879,240
2021-09-24 14:45:29.226889,255
2021-09-24 14:45:29.226899,255
2021-09-24 14:45:29.226908,255
2021-09-24 14:45:29.226918,257
2021-09-24 14:45:29.226928,257
2021-09-24 14:45:29.226938,257
2021-09-24 14:45:29.226948,245
2021-09-24 14:45:29.226958,228
2021-09-24 14:45:29.226968,218
2021-09-24 14:45:29.226978,206
2021-09-24 14:45:29.494654,201
2021-09-24 14:45:29.494674,204
2021-09-24 14:45:29.494682,196
2021-09-24 14:45:29.494689,177
2021-09-24 14:45:29.494695,170
2021-09-24 14:45:29.494702,167
2021-09-24 14:45:29.494708,153
2021-09-24 14:45:29.494715,143
2021-09-24 14:45:29.494721,136
2021-09-24 14:45:29.494728,123
2021-09-24 14:45:29.494734,121
2021-09-24 14:45:29.494741,123
2021-09-24 14:45:29.494747,121
2021-09-24 14:45:29.494754,116
2021-09-24 14:45:29.494760,109
2021-09-24 14:45:29.494767,102
2021-09-24 14:45:29.494773,104
2021-09-24 14:45:29.494780,97
2021-09-24 14:45:29.494786,85
2021-09-24 14:45:29.494793,87
2021-09-24 14:45:29.494799,89
2021-09-24 14:45:29.494806,82
2021-09-24 14:45:29.494812,80
2021-09-24 14:45:29.494819,89
2021-09-24 14:45:29.494825,89
2021-09-24 14:45:29.494832,85
2021-09-24 14:45:29.494838,85
2021-09-24 14:45:29.494845,82
2021-09-24 14:45:29.494851,75
2021-09-24 14:45:29.494858,72
2021-09-24 14:45:29.676754,70
2021-09-24 14:45:29.676784,63
2021-09-24 14:45:29.676796,55
2021-09-24 14:45:29.676807,58
2021-09-24 14:45:29.676817,63
2021-09-24 14:45:29.676827,60
2021-09-24 14:45:29.676837,60
2021-09-24 14:45:29.676847,46
2021-09-24 14:45:29.676857,14
2021-09-24 14:45:29.676866,7
2021-09-24 14:45:29.676876,14
2021-09-24 14:45:29.676886,9
2021-09-24 14:45:29.676896,7
2021-09-24 14:45:29.676906,24
2021-09-24 14:45:29.676916,38
2021-09-24 14:45:29.676926,38
2021-09-24 14:45:29.676936,36
2021-09-24 14:45:29.676946,38
2021-09-24 14:45:29.676956,46
2021-09-24 14:45:29.676966,46
2021-09-24 14:45:29.676976,38
2021-09-24 14:45:29.676986,38
2021-09-24 14:45:29.676996,43
2021-09-24 14:45:29.677006,43
2021-09-24 14:45:29.677029,36
2021-09-24 14:45:29.677040,-2
2021-09-24 14:45:29.677050,-102
2021-09-24 14:45:29.677065,-310
2021-09-24 14:45:29.677076,-541
2021-09-24 14:45:29.677086,-478
2021-09-24 14:45:29.901595,-26
2021-09-24 14:45:29.901619,524
2021-09-24 14:45:29.901627,689
2021-09-24 14:45:29.901634,352
2021-09-24 14:45:29.901640,97
2021-09-24 14:45:29.901679,109
2021-09-24 14:45:29.901685,21
2021-09-24 14:45:29.901692,-102
2021-09-24 14:45:29.901698,-85
2021-09-24 14:45:29.901704,-68
2021-09-24 14:45:29.901711,-104
2021-09-24 14:45:29.901717,-109
2021-09-24 14:45:29.901724,-104
2021-09-24 14:45:29.901730,-128
2021-09-24 14:45:29.901736,-145
2021-09-24 14:45:29.901743,-145
2021-09-24 14:45:29.901749,-150
2021-09-24 14:45:29.901756,-160
2021-09-24 14:45:29.901762,-177
2021-09-24 14:45:29.901768,-199
2021-09-24 14:45:29.901775,-223
2021-09-24 14:45:29.901781,-245
2021-09-24 14:45:29.901788,-272
2021-09-24 14:45:29.901794,-313
2021-09-24 14:45:29.901800,-364
2021-09-24 14:45:29.901807,-400
2021-09-24 14:45:29.901813,-415
2021-09-24 14:45:29.901820,-425
2021-09-24 14:45:29.901826,-417
2021-09-24 14:45:29.901832,-393
2021-09-24 14:45:30.126746,-354
2021-09-24 14:45:30.126776,-289
2021-09-24 14:45:30.126788,-187
2021-09-24 14:45:30.126798,-80
2021-09-24 14:45:30.126808,17
2021-09-24 14:45:30.126818,99
2021-09-24 14:45:30.126828,160
2021-09-24 14:45:30.126838,199
2021-09-24 14:45:30.126848,223
2021-09-24 14:45:30.126858,230
2021-09-24 14:45:30.126868,235
2021-09-24 14:45:30.126878,240
2021-09-24 14:45:30.126888,230
2021-09-24 14:45:30.126898,221
2021-09-24 14:45:30.126922,216
2021-09-24 14:45:30.126932,208
2021-09-24 14:45:30.126942,201
2021-09-24 14:45:30.126952,196
2021-09-24 14:45:30.126962,184
2021-09-24 14:45:30.126972,174
2021-09-24 14:45:30.126982,167
2021-09-24 14:45:30.126992,160
2021-09-24 14:45:30.127002,153
2021-09-24 14:45:30.127012,143
2021-09-24 14:45:30.127022,138
2021-09-24 14:45:30.127032,136
2021-09-24 14:45:30.127042,131
2021-09-24 14:45:30.127052,119
2021-09-24 14:45:30.127062,114
2021-09-24 14:45:30.127072,111
2021-09-24 14:45:30.351749,106
2021-09-24 14:45:30.351773,109
2021-09-24 14:45:30.351781,111
2021-09-24 14:45:30.351788,111
2021-09-24 14:45:30.351795,109
2021-09-24 14:45:30.351801,104
2021-09-24 14:45:30.351808,94
2021-09-24 14:45:30.351815,99
2021-09-24 14:45:30.351822,106
2021-09-24 14:45:30.351828,102
2021-09-24 14:45:30.351835,94
2021-09-24 14:45:30.351842,87
2021-09-24 14:45:30.351849,77
2021-09-24 14:45:30.351855,72
2021-09-24 14:45:30.351862,65
2021-09-24 14:45:30.351869,60
2021-09-24 14:45:30.351875,60
2021-09-24 14:45:30.351882,58
2021-09-24 14:45:30.351889,55
2021-09-24 14:45:30.351895,58
2021-09-24 14:45:30.351902,58
2021-09-24 14:45:30.351909,55
2021-09-24 14:45:30.351916,58
2021-09-24 14:45:30.351922,58
2021-09-24 14:45:30.351929,58
2021-09-24 14:45:30.351936,55
2021-09-24 14:45:30.351942,60
2021-09-24 14:45:30.351949,68
2021-09-24 14:45:30.351956,63
2021-09-24 14:45:30.351963,36
2021-09-24 14:45:30.576507,9
2021-09-24 14:45:30.576527,12
2021-09-24 14:45:30.576535,19
2021-09-24 14:45:30.576542,9
2021-09-24 14:45:30.576548,4
2021-09-24 14:45:30.576555,14
2021-09-24 14:45:30.576562,36
2021-09-24 14:45:30.576568,53
2021-09-24 14:45:30.576575,53
2021-09-24 14:45:30.576582,46
2021-09-24 14:45:30.576588,46
2021-09-24 14:45:30.576595,48
2021-09-24 14:45:30.576601,41
2021-09-24 14:45:30.576608,36
2021-09-24 14:45:30.576614,38
2021-09-24 14:45:30.576623,38
2021-09-24 14:45:30.576630,26
2021-09-24 14:45:30.576637,0
2021-09-24 14:45:30.576644,-63
2021-09-24 14:45:30.576650,-233
2021-09-24 14:45:30.576657,-495
2021-09-24 14:45:30.576663,-541
2021-09-24 14:45:30.576670,-177
2021-09-24 14:45:30.576676,383
2021-09-24 14:45:30.576683,697
2021-09-24 14:45:30.576690,468
2021-09-24 14:45:30.576696,138
2021-09-24 14:45:30.576703,99
2021-09-24 14:45:30.576710,58
2021-09-24 14:45:30.576716,-65
2021-09-24 14:45:30.846693,-68
2021-09-24 14:45:30.846717,-29
2021-09-24 14:45:30.846725,-63
2021-09-24 14:45:30.846732,-97
2021-09-24 14:45:30.846739,-102
2021-09-24 14:45:30.846745,-111
2021-09-24 14:45:30.846752,-121
2021-09-24 14:45:30.846758,-126
2021-09-24 14:45:30.846765,-138
2021-09-24 14:45:30.846781,-153
2021-09-24 14:45:30.846788,-167
2021-09-24 14:45:30.846794,-189
2021-09-24 14:45:30.846801,-218
2021-09-24 14:45:30.846807,-245
2021-09-24 14:45:30.846814,-274
2021-09-24 14:45:30.846821,-308
2021-09-24 14:45:30.846827,-332
2021-09-24 14:45:30.846834,-349
2021-09-24 14:45:30.846840,-371
2021-09-24 14:45:30.846847,-403
2021-09-24 14:45:30.846853,-422
2021-09-24 14:45:30.846860,-415
2021-09-24 14:45:30.846866,-364
2021-09-24 14:45:30.846873,-274
2021-09-24 14:45:30.846883,-187
2021-09-24 14:45:30.846890,-106
2021-09-24 14:45:30.846896,-14
2021-09-24 14:45:30.846903,82
2021-09-24 14:45:30.846910,150
2021-09-24 14:45:30.846916,194
2021-09-24 14:45:31.071878,228
2021-09-24 14:45:31.071921,250
2021-09-24 14:45:31.071937,257
2021-09-24 14:45:31.071960,264
2021-09-24 14:45:31.071974,255
2021-09-24 14:45:31.071995,235
2021-09-24 14:45:31.072009,235
2021-09-24 14:45:31.072030,228
2021-09-24 14:45:31.072044,206
2021-09-24 14:45:31.072066,187
2021-09-24 14:45:31.072079,177
2021-09-24 14:45:31.072100,172
2021-09-24 14:45:31.072114,165
2021-09-24 14:45:31.072135,155
2021-09-24 14:45:31.072148,140
2021-09-24 14:45:31.072169,123
2021-09-24 14:45:31.072182,114
2021-09-24 14:45:31.072203,111
2021-09-24 14:45:31.072216,109
2021-09-24 14:45:31.072237,106
2021-09-24 14:45:31.072251,106
2021-09-24 14:45:31.072271,104
2021-09-24 14:45:31.072285,99
2021-09-24 14:45:31.072306,94
2021-09-24 14:45:31.072319,94
2021-09-24 14:45:31.072341,92
2021-09-24 14:45:31.072354,77
2021-09-24 14:45:31.072375,72
2021-09-24 14:45:31.072389,80
2021-09-24 14:45:31.072410,92
2021-09-24 14:45:31.296782,89
2021-09-24 14:45:31.296813,82
2021-09-24 14:45:31.296821,85
2021-09-24 14:45:31.296828,89
2021-09-24 14:45:31.296834,85
2021-09-24 14:45:31.296841,82
2021-09-24 14:45:31.296847,89
2021-09-24 14:45:31.296853,89
2021-09-24 14:45:31.296859,77
2021-09-24 14:45:31.296866,68
2021-09-24 14:45:31.296872,60
2021-09-24 14:45:31.296878,55
2021-09-24 14:45:31.296884,58
2021-09-24 14:45:31.296891,68
2021-09-24 14:45:31.296901,60
2021-09-24 14:45:31.296907,51
2021-09-24 14:45:31.296914,55
2021-09-24 14:45:31.296920,65
2021-09-24 14:45:31.296927,65
2021-09-24 14:45:31.296933,58
2021-09-24 14:45:31.296939,43
2021-09-24 14:45:31.296946,24
2021-09-24 14:45:31.296952,12
2021-09-24 14:45:31.296959,14
2021-09-24 14:45:31.296965,14
2021-09-24 14:45:31.296972,9
2021-09-24 14:45:31.296978,9
2021-09-24 14:45:31.296988,26
2021-09-24 14:45:31.296994,51
2021-09-24 14:45:31.297001,58
2021-09-24 14:45:31.565430,55
2021-09-24 14:45:31.565451,60
2021-09-24 14:45:31.565459,63
2021-09-24 14:45:31.565466,58
2021-09-24 14:45:31.565472,60
2021-09-24 14:45:31.565479,65
2021-09-24 14:45:31.565485,63
2021-09-24 14:45:31.565492,48
2021-09-24 14:45:31.565498,19
2021-09-24 14:45:31.565505,-29
2021-09-24 14:45:31.565512,-140
2021-09-24 14:45:31.565518,-374
2021-09-24 14:45:31.565525,-568
2021-09-24 14:45:31.565531,-412
2021-09-24 14:45:31.565538,97
2021-09-24 14:45:31.565545,587
2021-09-24 14:45:31.565551,590
2021-09-24 14:45:31.565558,218
2021-09-24 14:45:31.565564,65
2021-09-24 14:45:31.565571,89
2021-09-24 14:45:31.565577,-24
2021-09-24 14:45:31.565584,-116
2021-09-24 14:45:31.565590,-92
2021-09-24 14:45:31.565597,-92
2021-09-24 14:45:31.565604,-121
2021-09-24 14:45:31.565610,-119
2021-09-24 14:45:31.565617,-116
2021-09-24 14:45:31.565623,-138
2021-09-24 14:45:31.565630,-145
2021-09-24 14:45:31.565636,-140
2021-09-24 14:45:31.746718,-150
2021-09-24 14:45:31.746742,-172
2021-09-24 14:45:31.746750,-194
2021-09-24 14:45:31.746756,-218
2021-09-24 14:45:31.746773,-240
2021-09-24 14:45:31.746780,-262
2021-09-24 14:45:31.746787,-298
2021-09-24 14:45:31.746794,-340
2021-09-24 14:45:31.746800,-371
2021-09-24 14:45:31.746807,-398
2021-09-24 14:45:31.746816,-415
2021-09-24 14:45:31.746823,-415
2021-09-24 14:45:31.746830,-412
2021-09-24 14:45:31.746836,-400
2021-09-24 14:45:31.746843,-347
2021-09-24 14:45:31.746850,-262
2021-09-24 14:45:31.746856,-170
2021-09-24 14:45:31.746869,-68
2021-09-24 14:45:31.746876,31
2021-09-24 14:45:31.746882,106
2021-09-24 14:45:31.746889,157
2021-09-24 14:45:31.746895,196
2021-09-24 14:45:31.746902,216
2021-09-24 14:45:31.746909,216
2021-09-24 14:45:31.746915,216
2021-09-24 14:45:31.746922,221
2021-09-24 14:45:31.746928,221
2021-09-24 14:45:31.746935,218
2021-09-24 14:45:31.746941,213
2021-09-24 14:45:31.746948,204
2021-09-24 14:45:31.971653,189
2021-09-24 14:45:31.971675,174
2021-09-24 14:45:31.971683,162
2021-09-24 14:45:31.971689,150
2021-09-24 14:45:31.971696,138
2021-09-24 14:45:31.971702,131
2021-09-24 14:45:31.971709,114
2021-09-24 14:45:31.971715,94
2021-09-24 14:45:31.971722,94
2021-09-24 14:45:31.971728,92
2021-09-24 14:45:31.971735,85
2021-09-24 14:45:31.971741,82
2021-09-24 14:45:31.971748,75
2021-09-24 14:45:31.971754,63
2021-09-24 14:45:31.971761,63
2021-09-24 14:45:31.971767,65
2021-09-24 14:45:31.971774,60
2021-09-24 14:45:31.971780,48
2021-09-24 14:45:31.971787,53
2021-09-24 14:45:31.971793,70
2021-09-24 14:45:31.971799,75
2021-09-24 14:45:31.971806,60
2021-09-24 14:45:31.971812,58
2021-09-24 14:45:31.971819,70
2021-09-24 14:45:31.971836,68
2021-09-24 14:45:31.971842,53
2021-09-24 14:45:31.971849,46
2021-09-24 14:45:31.971855,48
2021-09-24 14:45:31.971862,53
2021-09-24 14:45:31.971868,53
2021-09-24 14:45:32.196412,55
2021-09-24 14:45:32.196432,70
2021-09-24 14:45:32.196438,77
2021-09-24 14:45:32.196444,63
2021-09-24 14:45:32.196449,48
2021-09-24 14:45:32.196454,38
2021-09-24 14:45:32.196460,17
2021-09-24 14:45:32.196465,7
2021-09-24 14:45:32.196470,12
2021-09-24 14:45:32.196475,21
2021-09-24 14:45:32.196480,55
2021-09-24 14:45:32.196485,72
2021-09-24 14:45:32.196491,43
2021-09-24 14:45:32.196496,31
2021-09-24 14:45:32.196501,48
2021-09-24 14:45:32.196506,51
2021-09-24 14:45:32.196511,38
2021-09-24 14:45:32.196517,36
2021-09-24 14:45:32.196522,53
2021-09-24 14:45:32.196527,65
2021-09-24 14:45:32.196532,38
2021-09-24 14:45:32.196538,-12
2021-09-24 14:45:32.196543,-70
2021-09-24 14:45:32.196548,-230
2021-09-24 14:45:32.196553,-471
2021-09-24 14:45:32.196558,-473
2021-09-24 14:45:32.196564,-68
2021-09-24 14:45:32.196569,490
2021-09-24 14:45:32.196574,697
2021-09-24 14:45:32.196579,393
2021-09-24 14:45:32.421879,119
2021-09-24 14:45:32.421904,109
2021-09-24 14:45:32.421912,48
2021-09-24 14:45:32.421919,-70
2021-09-24 14:45:32.421927,-72
2021-09-24 14:45:32.421933,-60
2021-09-24 14:45:32.421940,-104
2021-09-24 14:45:32.421947,-111
2021-09-24 14:45:32.421954,-99
2021-09-24 14:45:32.421961,-116
2021-09-24 14:45:32.421968,-126
2021-09-24 14:45:32.421975,-123
2021-09-24 14:45:32.421981,-138
2021-09-24 14:45:32.421988,-177
2021-09-24 14:45:32.422006,-194
2021-09-24 14:45:32.422013,-194
2021-09-24 14:45:32.422020,-225
2021-09-24 14:45:32.422027,-264
2021-09-24 14:45:32.422034,-267
2021-09-24 14:45:32.422041,-264
2021-09-24 14:45:32.422048,-310
2021-09-24 14:45:32.422055,-374
2021-09-24 14:45:32.422062,-400
2021-09-24 14:45:32.422068,-410
2021-09-24 14:45:32.422075,-415
2021-09-24 14:45:32.422082,-386
2021-09-24 14:45:32.422089,-340
2021-09-24 14:45:32.422096,-276
2021-09-24 14:45:32.422103,-187
2021-09-24 14:45:32.422110,-87
2021-09-24 14:45:32.646444,9
2021-09-24 14:45:32.646467,102
2021-09-24 14:45:32.646475,170
2021-09-24 14:45:32.646482,213
2021-09-24 14:45:32.646488,235
2021-09-24 14:45:32.646495,221
2021-09-24 14:45:32.646501,213
2021-09-24 14:45:32.646508,228
2021-09-24 14:45:32.646514,225
2021-09-24 14:45:32.646521,211
2021-09-24 14:45:32.646527,201
2021-09-24 14:45:32.646534,204
2021-09-24 14:45:32.646540,206
2021-09-24 14:45:32.646547,184
2021-09-24 14:45:32.646553,155
2021-09-24 14:45:32.646560,148
2021-09-24 14:45:32.646576,150
2021-09-24 14:45:32.646583,145
2021-09-24 14:45:32.646590,136
2021-09-24 14:45:32.646596,133
2021-09-24 14:45:32.646603,131
2021-09-24 14:45:32.646610,121
2021-09-24 14:45:32.646616,116
2021-09-24 14:45:32.646622,121
2021-09-24 14:45:32.646629,121
2021-09-24 14:45:32.646635,111
2021-09-24 14:45:32.646642,104
2021-09-24 14:45:32.646648,92
2021-09-24 14:45:32.646655,82
2021-09-24 14:45:32.646661,80
2021-09-24 14:45:32.916469,82
2021-09-24 14:45:32.916491,80
2021-09-24 14:45:32.916499,80
2021-09-24 14:45:32.916506,89
2021-09-24 14:45:32.916523,92
2021-09-24 14:45:32.916530,82
2021-09-24 14:45:32.916537,80
2021-09-24 14:45:32.916544,82
2021-09-24 14:45:32.916550,65
2021-09-24 14:45:32.916557,55
2021-09-24 14:45:32.916563,51
2021-09-24 14:45:32.916570,58
2021-09-24 14:45:32.916576,75
2021-09-24 14:45:32.916583,72
2021-09-24 14:45:32.916590,60
2021-09-24 14:45:32.916596,55
2021-09-24 14:45:32.916603,43
2021-09-24 14:45:32.916609,24
2021-09-24 14:45:32.916616,31
2021-09-24 14:45:32.916622,63
2021-09-24 14:45:32.916629,77
2021-09-24 14:45:32.916635,68
2021-09-24 14:45:32.916642,60
2021-09-24 14:45:32.916648,65
2021-09-24 14:45:32.916655,75
2021-09-24 14:45:32.916661,82
2021-09-24 14:45:32.916668,85
2021-09-24 14:45:32.916675,80
2021-09-24 14:45:32.916681,60
2021-09-24 14:45:32.916688,43
2021-09-24 14:45:33.141914,19
2021-09-24 14:45:33.141945,-36
2021-09-24 14:45:33.141957,-182
2021-09-24 14:45:33.141968,-420
2021-09-24 14:45:33.141978,-502
2021-09-24 14:45:33.141988,-194
2021-09-24 14:45:33.141998,364
2021-09-24 14:45:33.142008,719
2021-09-24 14:45:33.142018,527
2021-09-24 14:45:33.142028,165
2021-09-24 14:45:33.142038,109
2021-09-24 14:45:33.142048,102
2021-09-24 14:45:33.142058,-34
2021-09-24 14:45:33.142068,-75
2021-09-24 14:45:33.142078,-48
2021-09-24 14:45:33.142088,-80
2021-09-24 14:45:33.142099,-102
2021-09-24 14:45:33.142109,-89
2021-09-24 14:45:33.142119,-102
2021-09-24 14:45:33.142129,-121
2021-09-24 14:45:33.142139,-128
2021-09-24 14:45:33.142148,-140
2021-09-24 14:45:33.142159,-148
2021-09-24 14:45:33.142169,-155
2021-09-24 14:45:33.142193,-170
2021-09-24 14:45:33.142204,-191
2021-09-24 14:45:33.142214,-223
2021-09-24 14:45:33.142224,-257
2021-09-24 14:45:33.142234,-291
2021-09-24 14:45:33.142244,-327
2021-09-24 14:45:33.411780,-364
2021-09-24 14:45:33.411804,-383
2021-09-24 14:45:33.411812,-386
2021-09-24 14:45:33.411819,-383
2021-09-24 14:45:33.411826,-364
2021-09-24 14:45:33.411833,-337
2021-09-24 14:45:33.411840,-291
2021-09-24 14:45:33.411847,-184
2021-09-24 14:45:33.411853,-48
2021-09-24 14:45:33.411860,55
2021-09-24 14:45:33.411867,145
2021-09-24 14:45:33.411874,225
2021-09-24 14:45:33.411881,250
2021-09-24 14:45:33.411888,242
2021-09-24 14:45:33.411895,252
2021-09-24 14:45:33.411901,262
2021-09-24 14:45:33.411908,257
2021-09-24 14:45:33.411915,264
2021-09-24 14:45:33.411922,276
2021-09-24 14:45:33.411929,272
2021-09-24 14:45:33.411936,262
2021-09-24 14:45:33.411942,274
2021-09-24 14:45:33.411949,272
2021-09-24 14:45:33.411956,228
2021-09-24 14:45:33.411963,196
2021-09-24 14:45:33.411970,184
2021-09-24 14:45:33.411977,167
2021-09-24 14:45:33.411983,165
2021-09-24 14:45:33.411990,174
2021-09-24 14:45:33.411997,182
2021-09-24 14:45:33.635440,179
2021-09-24 14:45:33.635462,157
2021-09-24 14:45:33.635470,128
2021-09-24 14:45:33.635477,116
2021-09-24 14:45:33.635483,106
2021-09-24 14:45:33.635490,102
2021-09-24 14:45:33.635496,116
2021-09-24 14:45:33.635503,126
2021-09-24 14:45:33.635509,123
2021-09-24 14:45:33.635516,121
2021-09-24 14:45:33.635522,106
2021-09-24 14:45:33.635529,85
2021-09-24 14:45:33.635535,82
2021-09-24 14:45:33.635542,97
2021-09-24 14:45:33.635549,92
2021-09-24 14:45:33.635555,68
2021-09-24 14:45:33.635562,75
2021-09-24 14:45:33.635569,97
2021-09-24 14:45:33.635575,85
2021-09-24 14:45:33.635582,55
2021-09-24 14:45:33.635588,55
2021-09-24 14:45:33.635595,65
2021-09-24 14:45:33.635611,55
2021-09-24 14:45:33.635619,55
2021-09-24 14:45:33.635625,77
2021-09-24 14:45:33.635632,77
2021-09-24 14:45:33.635638,55
2021-09-24 14:45:33.635645,48
2021-09-24 14:45:33.635652,48
2021-09-24 14:45:33.635658,24
2021-09-24 14:45:33.816481,4
2021-09-24 14:45:33.816502,19
2021-09-24 14:45:33.816510,51
2021-09-24 14:45:33.816517,63
2021-09-24 14:45:33.816523,58
2021-09-24 14:45:33.816529,46
2021-09-24 14:45:33.816536,26
2021-09-24 14:45:33.816542,21
2021-09-24 14:45:33.816549,24
2021-09-24 14:45:33.816555,36
2021-09-24 14:45:33.816562,72
2021-09-24 14:45:33.816568,82
2021-09-24 14:45:33.816575,21
2021-09-24 14:45:33.816581,-58
2021-09-24 14:45:33.816588,-143
2021-09-24 14:45:33.816594,-325
2021-09-24 14:45:33.816601,-527
2021-09-24 14:45:33.816607,-398
2021-09-24 14:45:33.816614,106
2021-09-24 14:45:33.816620,604
2021-09-24 14:45:33.816627,670
2021-09-24 14:45:33.816633,320
2021-09-24 14:45:33.816640,106
2021-09-24 14:45:33.816646,111
2021-09-24 14:45:33.816653,-7
2021-09-24 14:45:33.816659,-121
2021-09-24 14:45:33.816666,-85
2021-09-24 14:45:33.816672,-72
2021-09-24 14:45:33.816679,-119
2021-09-24 14:45:33.816685,-126
2021-09-24 14:45:34.086778,-116
2021-09-24 14:45:34.086802,-119
2021-09-24 14:45:34.086810,-116
2021-09-24 14:45:34.086817,-116
2021-09-24 14:45:34.086834,-138
2021-09-24 14:45:34.086841,-170
2021-09-24 14:45:34.086848,-189
2021-09-24 14:45:34.086854,-206
2021-09-24 14:45:34.086861,-240
2021-09-24 14:45:34.086867,-276
2021-09-24 14:45:34.086874,-296
2021-09-24 14:45:34.086880,-323
2021-09-24 14:45:34.086887,-371
2021-09-24 14:45:34.086893,-405
2021-09-24 14:45:34.086899,-417
2021-09-24 14:45:34.086906,-425
2021-09-24 14:45:34.086912,-420
2021-09-24 14:45:34.086919,-405
2021-09-24 14:45:34.086925,-364
2021-09-24 14:45:34.086931,-286
2021-09-24 14:45:34.086938,-189
2021-09-24 14:45:34.086944,-82
2021-09-24 14:45:34.086951,21
2021-09-24 14:45:34.086957,119
2021-09-24 14:45:34.086964,184
2021-09-24 14:45:34.086970,213
2021-09-24 14:45:34.086976,238
2021-09-24 14:45:34.086983,257
2021-09-24 14:45:34.086989,247
2021-09-24 14:45:34.086996,230
2021-09-24 14:45:34.266900,240
2021-09-24 14:45:34.266923,259
2021-09-24 14:45:34.266931,250
2021-09-24 14:45:34.266938,223
2021-09-24 14:45:34.266945,221
2021-09-24 14:45:34.266952,223
2021-09-24 14:45:34.266958,204
2021-09-24 14:45:34.266965,184
2021-09-24 14:45:34.266972,174
2021-09-24 14:45:34.266979,182
2021-09-24 14:45:34.266986,182
2021-09-24 14:45:34.266992,160
2021-09-24 14:45:34.266999,145
2021-09-24 14:45:34.267009,140
2021-09-24 14:45:34.267016,126
2021-09-24 14:45:34.267023,114
2021-09-24 14:45:34.267030,119
2021-09-24 14:45:34.267037,109
2021-09-24 14:45:34.267043,97
2021-09-24 14:45:34.267050,111
2021-09-24 14:45:34.267057,123
2021-09-24 14:45:34.267064,109
2021-09-24 14:45:34.267071,97
2021-09-24 14:45:34.267077,97
2021-09-24 14:45:34.267094,94
2021-09-24 14:45:34.267101,92
2021-09-24 14:45:34.267108,102
2021-09-24 14:45:34.267115,97
2021-09-24 14:45:34.267122,82
2021-09-24 14:45:34.267129,97
2021-09-24 14:45:34.491867,121
2021-09-24 14:45:34.491890,97
2021-09-24 14:45:34.491898,80
2021-09-24 14:45:34.491905,97
2021-09-24 14:45:34.491912,82
2021-09-24 14:45:34.491919,60
2021-09-24 14:45:34.491926,75
2021-09-24 14:45:34.491933,80
2021-09-24 14:45:34.491940,65
2021-09-24 14:45:34.491946,65
2021-09-24 14:45:34.491953,55
2021-09-24 14:45:34.491960,34
2021-09-24 14:45:34.491967,21
2021-09-24 14:45:34.491974,14
2021-09-24 14:45:34.491981,-2
2021-09-24 14:45:34.491987,-2
2021-09-24 14:45:34.491994,24
2021-09-24 14:45:34.492001,34
2021-09-24 14:45:34.492008,31
2021-09-24 14:45:34.492015,38
2021-09-24 14:45:34.492022,36
2021-09-24 14:45:34.492028,24
2021-09-24 14:45:34.492035,24
2021-09-24 14:45:34.492042,31
2021-09-24 14:45:34.492049,29
2021-09-24 14:45:34.492056,26
2021-09-24 14:45:34.492063,19
2021-09-24 14:45:34.492069,-26
2021-09-24 14:45:34.492086,-133
2021-09-24 14:45:34.492094,-340
2021-09-24 14:45:34.716622,-531
2021-09-24 14:45:34.716644,-391
2021-09-24 14:45:34.716652,94
2021-09-24 14:45:34.716659,583
2021-09-24 14:45:34.716666,636
2021-09-24 14:45:34.716672,274
2021-09-24 14:45:34.716679,75
2021-09-24 14:45:34.716685,104
2021-09-24 14:45:34.716691,0
2021-09-24 14:45:34.716698,-111
2021-09-24 14:45:34.716704,-82
2021-09-24 14:45:34.716723,-65
2021-09-24 14:45:34.716730,-102
2021-09-24 14:45:34.716736,-114
2021-09-24 14:45:34.716743,-128
2021-09-24 14:45:34.716750,-157
2021-09-24 14:45:34.716756,-153
2021-09-24 14:45:34.716763,-131
2021-09-24 14:45:34.716769,-143
2021-09-24 14:45:34.716776,-165
2021-09-24 14:45:34.716782,-184
2021-09-24 14:45:34.716789,-216
2021-09-24 14:45:34.716795,-238
2021-09-24 14:45:34.716802,-257
2021-09-24 14:45:34.716809,-286
2021-09-24 14:45:34.716816,-306
2021-09-24 14:45:34.716822,-340
2021-09-24 14:45:34.716829,-378
2021-09-24 14:45:34.716835,-381
2021-09-24 14:45:34.716842,-378
2021-09-24 14:45:35.031444,-391
2021-09-24 14:45:35.031467,-374
2021-09-24 14:45:35.031475,-323
2021-09-24 14:45:35.031481,-267
2021-09-24 14:45:35.031488,-177
2021-09-24 14:45:35.031495,-55
2021-09-24 14:45:35.031501,43
2021-09-24 14:45:35.031508,131
2021-09-24 14:45:35.031514,196
2021-09-24 14:45:35.031521,216
2021-09-24 14:45:35.031527,240
2021-09-24 14:45:35.031534,272
2021-09-24 14:45:35.031540,267
2021-09-24 14:45:35.031547,255
2021-09-24 14:45:35.031553,250
2021-09-24 14:45:35.031559,238
2021-09-24 14:45:35.031566,221
2021-09-24 14:45:35.031572,221
2021-09-24 14:45:35.031579,235
2021-09-24 14:45:35.031586,233
2021-09-24 14:45:35.031592,187
2021-09-24 14:45:35.031599,145
2021-09-24 14:45:35.031605,143
2021-09-24 14:45:35.031611,145
2021-09-24 14:45:35.031618,123
2021-09-24 14:45:35.031624,114
2021-09-24 14:45:35.031631,131
2021-09-24 14:45:35.031637,128
2021-09-24 14:45:35.031644,104
2021-09-24 14:45:35.031650,119
2021-09-24 14:45:35.211729,153
2021-09-24 14:45:35.211753,145
2021-09-24 14:45:35.211761,109
2021-09-24 14:45:35.211767,114
2021-09-24 14:45:35.211784,136
2021-09-24 14:45:35.211791,121
2021-09-24 14:45:35.211798,104
2021-09-24 14:45:35.211804,89
2021-09-24 14:45:35.211811,65
2021-09-24 14:45:35.211817,94
2021-09-24 14:45:35.211824,140
2021-09-24 14:45:35.211830,128
2021-09-24 14:45:35.211837,114
2021-09-24 14:45:35.211843,126
2021-09-24 14:45:35.211850,109
2021-09-24 14:45:35.211856,75
2021-09-24 14:45:35.211863,87
2021-09-24 14:45:35.211869,116
2021-09-24 14:45:35.211876,106
2021-09-24 14:45:35.211882,82
2021-09-24 14:45:35.211888,77
2021-09-24 14:45:35.211895,75
2021-09-24 14:45:35.211901,63
2021-09-24 14:45:35.211908,63
2021-09-24 14:45:35.211914,80
2021-09-24 14:45:35.211921,82
2021-09-24 14:45:35.211927,60
2021-09-24 14:45:35.211934,48
2021-09-24 14:45:35.211940,48
2021-09-24 14:45:35.211947,55
2021-09-24 14:45:35.436912,63
2021-09-24 14:45:35.436936,53
2021-09-24 14:45:35.436944,36
2021-09-24 14:45:35.436950,26
2021-09-24 14:45:35.436957,19
2021-09-24 14:45:35.436964,9
2021-09-24 14:45:35.436970,2
2021-09-24 14:45:35.436977,14
2021-09-24 14:45:35.436983,41
2021-09-24 14:45:35.436989,51
2021-09-24 14:45:35.436996,51
2021-09-24 14:45:35.437003,55
2021-09-24 14:45:35.437009,72
2021-09-24 14:45:35.437016,75
2021-09-24 14:45:35.437022,53
2021-09-24 14:45:35.437029,36
2021-09-24 14:45:35.437035,48
2021-09-24 14:45:35.437042,68
2021-09-24 14:45:35.437048,48
2021-09-24 14:45:35.437055,2
2021-09-24 14:45:35.437061,-48
2021-09-24 14:45:35.437068,-194
2021-09-24 14:45:35.437074,-446
2021-09-24 14:45:35.437081,-536
2021-09-24 14:45:35.437098,-255
2021-09-24 14:45:35.437105,296
2021-09-24 14:45:35.437111,687
2021-09-24 14:45:35.437118,507
2021-09-24 14:45:35.437125,126
2021-09-24 14:45:35.437131,51
2021-09-24 14:45:35.705473,43
2021-09-24 14:45:35.705496,-70
2021-09-24 14:45:35.705505,-89
2021-09-24 14:45:35.705511,-53
2021-09-24 14:45:35.705518,-85
2021-09-24 14:45:35.705525,-109
2021-09-24 14:45:35.705531,-92
2021-09-24 14:45:35.705538,-99
2021-09-24 14:45:35.705544,-123
2021-09-24 14:45:35.705551,-138
2021-09-24 14:45:35.705557,-143
2021-09-24 14:45:35.705563,-153
2021-09-24 14:45:35.705570,-170
2021-09-24 14:45:35.705576,-191
2021-09-24 14:45:35.705583,-213
2021-09-24 14:45:35.705590,-235
2021-09-24 14:45:35.705596,-255
2021-09-24 14:45:35.705603,-286
2021-09-24 14:45:35.705609,-325
2021-09-24 14:45:35.705660,-349
2021-09-24 14:45:35.705667,-366
2021-09-24 14:45:35.705673,-386
2021-09-24 14:45:35.705680,-386
2021-09-24 14:45:35.705686,-369
2021-09-24 14:45:35.705692,-344
2021-09-24 14:45:35.705699,-303
2021-09-24 14:45:35.705706,-228
2021-09-24 14:45:35.705712,-128
2021-09-24 14:45:35.705719,-26
2021-09-24 14:45:35.705725,55
2021-09-24 14:45:35.886824,123
2021-09-24 14:45:35.886849,182
2021-09-24 14:45:35.886857,213
2021-09-24 14:45:35.886865,225
2021-09-24 14:45:35.886871,235
2021-09-24 14:45:35.886878,240
2021-09-24 14:45:35.886885,233
2021-09-24 14:45:35.886892,225
2021-09-24 14:45:35.886899,221
2021-09-24 14:45:35.886906,204
2021-09-24 14:45:35.886912,191
2021-09-24 14:45:35.886919,184
2021-09-24 14:45:35.886926,170
2021-09-24 14:45:35.886933,150
2021-09-24 14:45:35.886951,145
2021-09-24 14:45:35.886958,145
2021-09-24 14:45:35.886965,138
2021-09-24 14:45:35.886972,128
2021-09-24 14:45:35.886978,121
2021-09-24 14:45:35.886985,116
2021-09-24 14:45:35.886992,111
2021-09-24 14:45:35.886999,109
2021-09-24 14:45:35.887006,109
2021-09-24 14:45:35.887012,104
2021-09-24 14:45:35.887019,97
2021-09-24 14:45:35.887026,97
2021-09-24 14:45:35.887033,99
2021-09-24 14:45:35.887040,97
2021-09-24 14:45:35.887047,94
2021-09-24 14:45:35.887054,92
2021-09-24 14:45:36.111907,87
2021-09-24 14:45:36.111931,80
2021-09-24 14:45:36.111939,68
2021-09-24 14:45:36.111946,65
2021-09-24 14:45:36.111953,68
2021-09-24 14:45:36.111960,58
2021-09-24 14:45:36.111967,48
2021-09-24 14:45:36.111974,53
2021-09-24 14:45:36.111981,53
2021-09-24 14:45:36.111988,46
2021-09-24 14:45:36.111995,46
2021-09-24 14:45:36.112002,43
2021-09-24 14:45:36.112009,31
2021-09-24 14:45:36.112016,31
2021-09-24 14:45:36.112022,36
2021-09-24 14:45:36.112029,36
2021-09-24 14:45:36.112036,43
2021-09-24 14:45:36.112043,46
2021-09-24 14:45:36.112050,36
2021-09-24 14:45:36.112057,19
2021-09-24 14:45:36.112063,7
2021-09-24 14:45:36.112070,7
2021-09-24 14:45:36.112077,2
2021-09-24 14:45:36.112084,-4
2021-09-24 14:45:36.112091,7
2021-09-24 14:45:36.112098,31
2021-09-24 14:45:36.112105,43
2021-09-24 14:45:36.112112,36
2021-09-24 14:45:36.112118,31
2021-09-24 14:45:36.112125,36
2021-09-24 14:45:36.336822,36
2021-09-24 14:45:36.336845,34
2021-09-24 14:45:36.336853,31
2021-09-24 14:45:36.336860,29
2021-09-24 14:45:36.336877,24
2021-09-24 14:45:36.336883,2
2021-09-24 14:45:36.336890,-36
2021-09-24 14:45:36.336897,-99
2021-09-24 14:45:36.336903,-262
2021-09-24 14:45:36.336910,-500
2021-09-24 14:45:36.336916,-512
2021-09-24 14:45:36.336923,-104
2021-09-24 14:45:36.336929,483
2021-09-24 14:45:36.336936,680
2021-09-24 14:45:36.336942,347
2021-09-24 14:45:36.336949,85
2021-09-24 14:45:36.336955,94
2021-09-24 14:45:36.336962,19
2021-09-24 14:45:36.336968,-104
2021-09-24 14:45:36.336975,-102
2021-09-24 14:45:36.336981,-82
2021-09-24 14:45:36.336988,-111
2021-09-24 14:45:36.336994,-119
2021-09-24 14:45:36.337001,-116
2021-09-24 14:45:36.337007,-140
2021-09-24 14:45:36.337014,-157
2021-09-24 14:45:36.337020,-150
2021-09-24 14:45:36.337027,-155
2021-09-24 14:45:36.337033,-172
2021-09-24 14:45:36.337040,-184
2021-09-24 14:45:36.606759,-199
2021-09-24 14:45:36.606780,-228
2021-09-24 14:45:36.606788,-267
2021-09-24 14:45:36.606795,-296
2021-09-24 14:45:36.606801,-320
2021-09-24 14:45:36.606808,-347
2021-09-24 14:45:36.606814,-364
2021-09-24 14:45:36.606821,-383
2021-09-24 14:45:36.606827,-410
2021-09-24 14:45:36.606834,-410
2021-09-24 14:45:36.606841,-386
2021-09-24 14:45:36.606856,-344
2021-09-24 14:45:36.606863,-276
2021-09-24 14:45:36.606870,-189
2021-09-24 14:45:36.606876,-97
2021-09-24 14:45:36.606883,-2
2021-09-24 14:45:36.606890,89
2021-09-24 14:45:36.606898,162
2021-09-24 14:45:36.606905,199
2021-09-24 14:45:36.606911,216
2021-09-24 14:45:36.606918,225
2021-09-24 14:45:36.606924,225
2021-09-24 14:45:36.606931,230
2021-09-24 14:45:36.606937,240
2021-09-24 14:45:36.606944,238
2021-09-24 14:45:36.606950,230
2021-09-24 14:45:36.606957,223
2021-09-24 14:45:36.606963,211
2021-09-24 14:45:36.606970,194
2021-09-24 14:45:36.606976,196
2021-09-24 14:45:36.876363,201
2021-09-24 14:45:36.876395,182
2021-09-24 14:45:36.876407,160
2021-09-24 14:45:36.876417,148
2021-09-24 14:45:36.876427,148
2021-09-24 14:45:36.876437,153
2021-09-24 14:45:36.876447,143
2021-09-24 14:45:36.876457,136
2021-09-24 14:45:36.876467,136
2021-09-24 14:45:36.876477,128
2021-09-24 14:45:36.876487,123
2021-09-24 14:45:36.876497,133
2021-09-24 14:45:36.876507,140
2021-09-24 14:45:36.876517,140
2021-09-24 14:45:36.876527,138
2021-09-24 14:45:36.876537,133
2021-09-24 14:45:36.876547,126
2021-09-24 14:45:36.876557,131
2021-09-24 14:45:36.876599,138
2021-09-24 14:45:36.876609,126
2021-09-24 14:45:36.876619,109
2021-09-24 14:45:36.876629,99
2021-09-24 14:45:36.876639,109
2021-09-24 14:45:36.876649,119
2021-09-24 14:45:36.876659,109
2021-09-24 14:45:36.876669,106
2021-09-24 14:45:36.876679,116
2021-09-24 14:45:36.876688,104
2021-09-24 14:45:36.876698,89
2021-09-24 14:45:36.876708,89
2021-09-24 14:45:37.101846,104
2021-09-24 14:45:37.101869,111
2021-09-24 14:45:37.101878,102
2021-09-24 14:45:37.101885,92
2021-09-24 14:45:37.101892,87
2021-09-24 14:45:37.101898,72
2021-09-24 14:45:37.101905,53
2021-09-24 14:45:37.101912,43
2021-09-24 14:45:37.101919,38
2021-09-24 14:45:37.101925,41
2021-09-24 14:45:37.101932,68
2021-09-24 14:45:37.101939,97
2021-09-24 14:45:37.101946,92
2021-09-24 14:45:37.101952,65
2021-09-24 14:45:37.101970,48
2021-09-24 14:45:37.101977,46
2021-09-24 14:45:37.101983,48
2021-09-24 14:45:37.101990,51
2021-09-24 14:45:37.101997,55
2021-09-24 14:45:37.102004,60
2021-09-24 14:45:37.102010,38
2021-09-24 14:45:37.102017,-4
2021-09-24 14:45:37.102024,-94
2021-09-24 14:45:37.102031,-330
2021-09-24 14:45:37.102038,-617
2021-09-24 14:45:37.102045,-597
2021-09-24 14:45:37.102052,-116
2021-09-24 14:45:37.102058,495
2021-09-24 14:45:37.102065,641
2021-09-24 14:45:37.102072,291
2021-09-24 14:45:37.281782,92
2021-09-24 14:45:37.281810,119
2021-09-24 14:45:37.281824,24
2021-09-24 14:45:37.281836,-72
2021-09-24 14:45:37.281848,-41
2021-09-24 14:45:37.281860,-34
2021-09-24 14:45:37.281872,-75
2021-09-24 14:45:37.281883,-85
2021-09-24 14:45:37.281895,-87
2021-09-24 14:45:37.281907,-109
2021-09-24 14:45:37.281918,-116
2021-09-24 14:45:37.281930,-119
2021-09-24 14:45:37.281942,-140
2021-09-24 14:45:37.281954,-172
2021-09-24 14:45:37.281966,-187
2021-09-24 14:45:37.281977,-196
2021-09-24 14:45:37.281989,-228
2021-09-24 14:45:37.282002,-264
2021-09-24 14:45:37.282013,-289
2021-09-24 14:45:37.282024,-325
2021-09-24 14:45:37.282035,-369
2021-09-24 14:45:37.282046,-395
2021-09-24 14:45:37.282057,-408
2021-09-24 14:45:37.282069,-408
2021-09-24 14:45:37.282080,-403
2021-09-24 14:45:37.282092,-386
2021-09-24 14:45:37.282103,-352
2021-09-24 14:45:37.282115,-291
2021-09-24 14:45:37.282127,-199
2021-09-24 14:45:37.282139,-89
2021-09-24 14:45:37.551789,7
2021-09-24 14:45:37.551813,85
2021-09-24 14:45:37.551821,145
2021-09-24 14:45:37.551827,179
2021-09-24 14:45:37.551834,196
2021-09-24 14:45:37.551841,213
2021-09-24 14:45:37.551847,235
2021-09-24 14:45:37.551854,235
2021-09-24 14:45:37.551860,223
2021-09-24 14:45:37.551867,216
2021-09-24 14:45:37.551873,201
2021-09-24 14:45:37.551879,182
2021-09-24 14:45:37.551886,172
2021-09-24 14:45:37.551892,160
2021-09-24 14:45:37.551899,143
2021-09-24 14:45:37.551905,128
2021-09-24 14:45:37.551934,123
2021-09-24 14:45:37.551951,111
2021-09-24 14:45:37.551958,97
2021-09-24 14:45:37.551965,92
2021-09-24 14:45:37.551971,87
2021-09-24 14:45:37.551977,80
2021-09-24 14:45:37.551984,77
2021-09-24 14:45:37.551990,82
2021-09-24 14:45:37.551996,80
2021-09-24 14:45:37.552003,70
2021-09-24 14:45:37.552009,68
2021-09-24 14:45:37.552015,70
2021-09-24 14:45:37.552022,72
2021-09-24 14:45:37.552028,94
2021-09-24 14:45:37.775547,92
2021-09-24 14:45:37.775577,65
2021-09-24 14:45:37.775589,65
2021-09-24 14:45:37.775599,77
2021-09-24 14:45:37.775609,63
2021-09-24 14:45:37.775619,53
2021-09-24 14:45:37.775629,58
2021-09-24 14:45:37.775639,55
2021-09-24 14:45:37.775649,48
2021-09-24 14:45:37.775659,48
2021-09-24 14:45:37.775668,48
2021-09-24 14:45:37.775678,41
2021-09-24 14:45:37.775688,21
2021-09-24 14:45:37.775698,7
2021-09-24 14:45:37.775708,4
2021-09-24 14:45:37.775718,4
2021-09-24 14:45:37.775728,4
2021-09-24 14:45:37.775737,17
2021-09-24 14:45:37.775747,31
2021-09-24 14:45:37.775757,31
2021-09-24 14:45:37.775767,29
2021-09-24 14:45:37.775777,26
2021-09-24 14:45:37.775787,24
2021-09-24 14:45:37.775796,21
2021-09-24 14:45:37.775820,26
2021-09-24 14:45:37.775830,29
2021-09-24 14:45:37.775840,31
2021-09-24 14:45:37.775850,21
2021-09-24 14:45:37.775860,-4
2021-09-24 14:45:37.775870,-58
2021-09-24 14:45:38.046070,-189
2021-09-24 14:45:38.046092,-429
2021-09-24 14:45:38.046099,-558
2021-09-24 14:45:38.046106,-281
2021-09-24 14:45:38.046113,327
2021-09-24 14:45:38.046119,716
2021-09-24 14:45:38.046126,500
2021-09-24 14:45:38.046132,148
2021-09-24 14:45:38.046139,99
2021-09-24 14:45:38.046145,75
2021-09-24 14:45:38.046152,-55
2021-09-24 14:45:38.046158,-106
2021-09-24 14:45:38.046165,-94
2021-09-24 14:45:38.046171,-116
2021-09-24 14:45:38.046178,-145
2021-09-24 14:45:38.046185,-138
2021-09-24 14:45:38.046191,-123
2021-09-24 14:45:38.046197,-133
2021-09-24 14:45:38.046204,-153
2021-09-24 14:45:38.046210,-160
2021-09-24 14:45:38.046217,-174
2021-09-24 14:45:38.046223,-194
2021-09-24 14:45:38.046230,-211
2021-09-24 14:45:38.046236,-228
2021-09-24 14:45:38.046243,-262
2021-09-24 14:45:38.046249,-303
2021-09-24 14:45:38.046256,-330
2021-09-24 14:45:38.046262,-354
2021-09-24 14:45:38.046269,-386
2021-09-24 14:45:38.046275,-408
2021-09-24 14:45:38.226091,-410
2021-09-24 14:45:38.226112,-403
2021-09-24 14:45:38.226120,-386
2021-09-24 14:45:38.226127,-349
2021-09-24 14:45:38.226134,-284
2021-09-24 14:45:38.226140,-191
2021-09-24 14:45:38.226147,-87
2021-09-24 14:45:38.226153,12
2021-09-24 14:45:38.226160,89
2021-09-24 14:45:38.226167,145
2021-09-24 14:45:38.226173,187
2021-09-24 14:45:38.226180,206
2021-09-24 14:45:38.226186,221
2021-09-24 14:45:38.226193,230
2021-09-24 14:45:38.226209,230
2021-09-24 14:45:38.226216,218
2021-09-24 14:45:38.226223,211
2021-09-24 14:45:38.226229,204
2021-09-24 14:45:38.226236,199
2021-09-24 14:45:38.226242,196
2021-09-24 14:45:38.226249,191
2021-09-24 14:45:38.226256,179
2021-09-24 14:45:38.226262,167
2021-09-24 14:45:38.226269,157
2021-09-24 14:45:38.226275,153
2021-09-24 14:45:38.226282,148
2021-09-24 14:45:38.226289,140
2021-09-24 14:45:38.226295,133
2021-09-24 14:45:38.226302,133
2021-09-24 14:45:38.226308,128
2021-09-24 14:45:38.406800,116
2021-09-24 14:45:38.406824,119
2021-09-24 14:45:38.406832,123
2021-09-24 14:45:38.406839,114
2021-09-24 14:45:38.406846,104
2021-09-24 14:45:38.406852,106
2021-09-24 14:45:38.406859,111
2021-09-24 14:45:38.406865,111
2021-09-24 14:45:38.406872,114
2021-09-24 14:45:38.406878,111
2021-09-24 14:45:38.406885,104
2021-09-24 14:45:38.406891,102
2021-09-24 14:45:38.406898,104
2021-09-24 14:45:38.406904,99
2021-09-24 14:45:38.406910,92
2021-09-24 14:45:38.406917,82
2021-09-24 14:45:38.406923,80
2021-09-24 14:45:38.406930,82
2021-09-24 14:45:38.406936,70
