Time,ECG
2021-09-24 15:25:19.023480,-179
2021-09-24 15:25:19.023495,-216
2021-09-24 15:25:19.023501,-274
2021-09-24 15:25:19.023505,-308
2021-09-24 15:25:19.023510,-335
2021-09-24 15:25:19.023515,-378
2021-09-24 15:25:19.023533,-412
2021-09-24 15:25:19.023537,-415
2021-09-24 15:25:19.023541,-427
2021-09-24 15:25:19.023546,-471
2021-09-24 15:25:19.023550,-490
2021-09-24 15:25:19.023554,-439
2021-09-24 15:25:19.023558,-340
2021-09-24 15:25:19.023563,-255
2021-09-24 15:25:19.023567,-162
2021-09-24 15:25:19.023571,-43
2021-09-24 15:25:19.023575,60
2021-09-24 15:25:19.023580,133
2021-09-24 15:25:19.023584,194
2021-09-24 15:25:19.023588,225
2021-09-24 15:25:19.023592,223
2021-09-24 15:25:19.023597,213
2021-09-24 15:25:19.023601,245
2021-09-24 15:25:19.023605,308
2021-09-24 15:25:19.023609,308
2021-09-24 15:25:19.023614,252
2021-09-24 15:25:19.023618,235
2021-09-24 15:25:19.023622,233
2021-09-24 15:25:19.023627,211
2021-09-24 15:25:19.023631,191
2021-09-24 15:25:19.164035,177
2021-09-24 15:25:19.164058,150
2021-09-24 15:25:19.164066,126
2021-09-24 15:25:19.164072,140
2021-09-24 15:25:19.164079,179
2021-09-24 15:25:19.164085,165
2021-09-24 15:25:19.164093,121
2021-09-24 15:25:19.164100,109
2021-09-24 15:25:19.164106,102
2021-09-24 15:25:19.164113,82
2021-09-24 15:25:19.164119,65
2021-09-24 15:25:19.164125,48
2021-09-24 15:25:19.164132,46
2021-09-24 15:25:19.164138,68
2021-09-24 15:25:19.164145,82
2021-09-24 15:25:19.164151,77
2021-09-24 15:25:19.164158,65
2021-09-24 15:25:19.164165,65
2021-09-24 15:25:19.164171,72
2021-09-24 15:25:19.164178,72
2021-09-24 15:25:19.164184,58
2021-09-24 15:25:19.164191,41
2021-09-24 15:25:19.164197,41
2021-09-24 15:25:19.164203,46
2021-09-24 15:25:19.164210,55
2021-09-24 15:25:19.164216,77
2021-09-24 15:25:19.164223,87
2021-09-24 15:25:19.164229,70
2021-09-24 15:25:19.164236,58
2021-09-24 15:25:19.164245,58
2021-09-24 15:25:19.344885,63
2021-09-24 15:25:19.344912,63
2021-09-24 15:25:19.344923,58
2021-09-24 15:25:19.344934,58
2021-09-24 15:25:19.344944,63
2021-09-24 15:25:19.344954,65
2021-09-24 15:25:19.344964,68
2021-09-24 15:25:19.344973,63
2021-09-24 15:25:19.344983,48
2021-09-24 15:25:19.344993,38
2021-09-24 15:25:19.345003,21
2021-09-24 15:25:19.345013,2
2021-09-24 15:25:19.345023,7
2021-09-24 15:25:19.345037,29
2021-09-24 15:25:19.345047,38
2021-09-24 15:25:19.345057,41
2021-09-24 15:25:19.345067,48
2021-09-24 15:25:19.345077,48
2021-09-24 15:25:19.345087,38
2021-09-24 15:25:19.345097,53
2021-09-24 15:25:19.345107,72
2021-09-24 15:25:19.345116,63
2021-09-24 15:25:19.345126,29
2021-09-24 15:25:19.345139,-9
2021-09-24 15:25:19.345149,-94
2021-09-24 15:25:19.345159,-315
2021-09-24 15:25:19.345169,-556
2021-09-24 15:25:19.345179,-514
2021-09-24 15:25:19.345189,-143
2021-09-24 15:25:19.345201,393
2021-09-24 15:25:19.570389,685
2021-09-24 15:25:19.570413,420
2021-09-24 15:25:19.570420,94
2021-09-24 15:25:19.570427,87
2021-09-24 15:25:19.570434,51
2021-09-24 15:25:19.570440,-75
2021-09-24 15:25:19.570447,-80
2021-09-24 15:25:19.570454,-55
2021-09-24 15:25:19.570460,-82
2021-09-24 15:25:19.570467,-87
2021-09-24 15:25:19.570473,-97
2021-09-24 15:25:19.570480,-126
2021-09-24 15:25:19.570486,-138
2021-09-24 15:25:19.570493,-148
2021-09-24 15:25:19.570499,-172
2021-09-24 15:25:19.570506,-187
2021-09-24 15:25:19.570512,-196
2021-09-24 15:25:19.570522,-206
2021-09-24 15:25:19.570529,-225
2021-09-24 15:25:19.570535,-250
2021-09-24 15:25:19.570542,-276
2021-09-24 15:25:19.570548,-313
2021-09-24 15:25:19.570555,-352
2021-09-24 15:25:19.570561,-383
2021-09-24 15:25:19.570568,-415
2021-09-24 15:25:19.570574,-439
2021-09-24 15:25:19.570581,-451
2021-09-24 15:25:19.570587,-446
2021-09-24 15:25:19.570594,-420
2021-09-24 15:25:19.570600,-364
2021-09-24 15:25:19.885436,-284
2021-09-24 15:25:19.885460,-177
2021-09-24 15:25:19.885468,-68
2021-09-24 15:25:19.885475,21
2021-09-24 15:25:19.885482,97
2021-09-24 15:25:19.885489,167
2021-09-24 15:25:19.885496,213
2021-09-24 15:25:19.885509,238
2021-09-24 15:25:19.885516,247
2021-09-24 15:25:19.885523,242
2021-09-24 15:25:19.885530,242
2021-09-24 15:25:19.885537,242
2021-09-24 15:25:19.885544,233
2021-09-24 15:25:19.885551,228
2021-09-24 15:25:19.885558,221
2021-09-24 15:25:19.885564,199
2021-09-24 15:25:19.885571,179
2021-09-24 15:25:19.885578,170
2021-09-24 15:25:19.885585,160
2021-09-24 15:25:19.885592,150
2021-09-24 15:25:19.885599,138
2021-09-24 15:25:19.885606,128
2021-09-24 15:25:19.885612,121
2021-09-24 15:25:19.885619,123
2021-09-24 15:25:19.885626,121
2021-09-24 15:25:19.885633,116
2021-09-24 15:25:19.885640,106
2021-09-24 15:25:19.885647,97
2021-09-24 15:25:19.885654,97
2021-09-24 15:25:19.885661,99
2021-09-24 15:25:20.064749,99
2021-09-24 15:25:20.064768,92
2021-09-24 15:25:20.064775,87
2021-09-24 15:25:20.064781,87
2021-09-24 15:25:20.064786,87
2021-09-24 15:25:20.064792,82
2021-09-24 15:25:20.064798,82
2021-09-24 15:25:20.064803,77
2021-09-24 15:25:20.064809,68
2021-09-24 15:25:20.064815,63
2021-09-24 15:25:20.064820,68
2021-09-24 15:25:20.064826,70
2021-09-24 15:25:20.064832,68
2021-09-24 15:25:20.064837,63
2021-09-24 15:25:20.064843,53
2021-09-24 15:25:20.064849,48
2021-09-24 15:25:20.064855,51
2021-09-24 15:25:20.064860,48
2021-09-24 15:25:20.064866,46
2021-09-24 15:25:20.064897,36
2021-09-24 15:25:20.064923,24
2021-09-24 15:25:20.064937,24
2021-09-24 15:25:20.064948,29
2021-09-24 15:25:20.064957,29
2021-09-24 15:25:20.064972,24
2021-09-24 15:25:20.064981,26
2021-09-24 15:25:20.064992,31
2021-09-24 15:25:20.065002,34
2021-09-24 15:25:20.065011,26
2021-09-24 15:25:20.065021,7
2021-09-24 15:25:20.290455,-9
2021-09-24 15:25:20.290479,-12
2021-09-24 15:25:20.290487,-9
2021-09-24 15:25:20.290494,-19
2021-09-24 15:25:20.290501,-19
2021-09-24 15:25:20.290508,2
2021-09-24 15:25:20.290515,21
2021-09-24 15:25:20.290522,17
2021-09-24 15:25:20.290529,4
2021-09-24 15:25:20.290536,4
2021-09-24 15:25:20.290543,12
2021-09-24 15:25:20.290550,19
2021-09-24 15:25:20.290557,19
2021-09-24 15:25:20.290564,14
2021-09-24 15:25:20.290570,7
2021-09-24 15:25:20.290577,2
2021-09-24 15:25:20.290584,-17
2021-09-24 15:25:20.290591,-85
2021-09-24 15:25:20.290598,-267
2021-09-24 15:25:20.290604,-539
2021-09-24 15:25:20.290611,-619
2021-09-24 15:25:20.290618,-330
2021-09-24 15:25:20.290627,223
2021-09-24 15:25:20.290634,617
2021-09-24 15:25:20.290641,442
2021-09-24 15:25:20.290648,104
2021-09-24 15:25:20.290655,77
2021-09-24 15:25:20.290662,70
2021-09-24 15:25:20.290701,-53
2021-09-24 15:25:20.290708,-75
2021-09-24 15:25:20.514935,-46
2021-09-24 15:25:20.514965,-82
2021-09-24 15:25:20.514977,-109
2021-09-24 15:25:20.514987,-106
2021-09-24 15:25:20.514997,-119
2021-09-24 15:25:20.515007,-133
2021-09-24 15:25:20.515017,-143
2021-09-24 15:25:20.515027,-160
2021-09-24 15:25:20.515037,-177
2021-09-24 15:25:20.515047,-189
2021-09-24 15:25:20.515057,-206
2021-09-24 15:25:20.515067,-228
2021-09-24 15:25:20.515077,-252
2021-09-24 15:25:20.515087,-281
2021-09-24 15:25:20.515097,-313
2021-09-24 15:25:20.515107,-344
2021-09-24 15:25:20.515117,-378
2021-09-24 15:25:20.515130,-405
2021-09-24 15:25:20.515142,-429
2021-09-24 15:25:20.515152,-442
2021-09-24 15:25:20.515162,-437
2021-09-24 15:25:20.515171,-415
2021-09-24 15:25:20.515181,-376
2021-09-24 15:25:20.515191,-313
2021-09-24 15:25:20.515207,-225
2021-09-24 15:25:20.515218,-121
2021-09-24 15:25:20.515228,-21
2021-09-24 15:25:20.515238,63
2021-09-24 15:25:20.515248,128
2021-09-24 15:25:20.515257,174
2021-09-24 15:25:20.785334,204
2021-09-24 15:25:20.785356,221
2021-09-24 15:25:20.785364,225
2021-09-24 15:25:20.785371,218
2021-09-24 15:25:20.785378,213
2021-09-24 15:25:20.785384,213
2021-09-24 15:25:20.785390,201
2021-09-24 15:25:20.785397,187
2021-09-24 15:25:20.785403,177
2021-09-24 15:25:20.785410,162
2021-09-24 15:25:20.785416,143
2021-09-24 15:25:20.785423,128
2021-09-24 15:25:20.785429,114
2021-09-24 15:25:20.785435,109
2021-09-24 15:25:20.785442,109
2021-09-24 15:25:20.785448,102
2021-09-24 15:25:20.785455,89
2021-09-24 15:25:20.785461,85
2021-09-24 15:25:20.785468,85
2021-09-24 15:25:20.785474,85
2021-09-24 15:25:20.785481,77
2021-09-24 15:25:20.785487,70
2021-09-24 15:25:20.785494,68
2021-09-24 15:25:20.785500,68
2021-09-24 15:25:20.785506,63
2021-09-24 15:25:20.785513,58
2021-09-24 15:25:20.785519,60
2021-09-24 15:25:20.785526,60
2021-09-24 15:25:20.785533,63
2021-09-24 15:25:20.785539,68
2021-09-24 15:25:21.099684,70
2021-09-24 15:25:21.099706,68
2021-09-24 15:25:21.099714,63
2021-09-24 15:25:21.099720,55
2021-09-24 15:25:21.099727,53
2021-09-24 15:25:21.099734,46
2021-09-24 15:25:21.099740,41
2021-09-24 15:25:21.099747,41
2021-09-24 15:25:21.099754,41
2021-09-24 15:25:21.099760,36
2021-09-24 15:25:21.099767,34
2021-09-24 15:25:21.099773,38
2021-09-24 15:25:21.099780,43
2021-09-24 15:25:21.099786,43
2021-09-24 15:25:21.099793,41
2021-09-24 15:25:21.099799,41
2021-09-24 15:25:21.099806,41
2021-09-24 15:25:21.099812,34
2021-09-24 15:25:21.099819,31
2021-09-24 15:25:21.099825,36
2021-09-24 15:25:21.099832,38
2021-09-24 15:25:21.099839,36
2021-09-24 15:25:21.099845,36
2021-09-24 15:25:21.099852,34
2021-09-24 15:25:21.099858,21
2021-09-24 15:25:21.099865,2
2021-09-24 15:25:21.099872,-9
2021-09-24 15:25:21.099878,-2
2021-09-24 15:25:21.099885,-4
2021-09-24 15:25:21.099891,-17
2021-09-24 15:25:21.234236,-17
2021-09-24 15:25:21.234257,-2
2021-09-24 15:25:21.234263,9
2021-09-24 15:25:21.234269,12
2021-09-24 15:25:21.234274,4
2021-09-24 15:25:21.234280,0
2021-09-24 15:25:21.234285,0
2021-09-24 15:25:21.234290,-4
2021-09-24 15:25:21.234296,-4
2021-09-24 15:25:21.234301,-2
2021-09-24 15:25:21.234311,-7
2021-09-24 15:25:21.234316,-31
2021-09-24 15:25:21.234322,-80
2021-09-24 15:25:21.234327,-213
2021-09-24 15:25:21.234333,-473
2021-09-24 15:25:21.234338,-634
2021-09-24 15:25:21.234343,-444
2021-09-24 15:25:21.234348,65
2021-09-24 15:25:21.234354,561
2021-09-24 15:25:21.234359,541
2021-09-24 15:25:21.234364,182
2021-09-24 15:25:21.234370,82
2021-09-24 15:25:21.234375,109
2021-09-24 15:25:21.234380,-12
2021-09-24 15:25:21.234386,-72
2021-09-24 15:25:21.234391,-31
2021-09-24 15:25:21.234396,-41
2021-09-24 15:25:21.234401,-80
2021-09-24 15:25:21.234406,-85
2021-09-24 15:25:21.234412,-87
2021-09-24 15:25:21.415279,-104
2021-09-24 15:25:21.415301,-116
2021-09-24 15:25:21.415309,-126
2021-09-24 15:25:21.415315,-143
2021-09-24 15:25:21.415322,-160
2021-09-24 15:25:21.415328,-177
2021-09-24 15:25:21.415335,-191
2021-09-24 15:25:21.415341,-211
2021-09-24 15:25:21.415348,-238
2021-09-24 15:25:21.415354,-281
2021-09-24 15:25:21.415361,-327
2021-09-24 15:25:21.415367,-349
2021-09-24 15:25:21.415374,-364
2021-09-24 15:25:21.415380,-388
2021-09-24 15:25:21.415386,-403
2021-09-24 15:25:21.415393,-410
2021-09-24 15:25:21.415399,-405
2021-09-24 15:25:21.415405,-378
2021-09-24 15:25:21.415412,-318
2021-09-24 15:25:21.415418,-235
2021-09-24 15:25:21.415424,-136
2021-09-24 15:25:21.415431,-41
2021-09-24 15:25:21.415437,43
2021-09-24 15:25:21.415444,116
2021-09-24 15:25:21.415450,174
2021-09-24 15:25:21.415460,211
2021-09-24 15:25:21.415466,230
2021-09-24 15:25:21.415473,235
2021-09-24 15:25:21.415479,233
2021-09-24 15:25:21.415485,230
2021-09-24 15:25:21.685385,230
2021-09-24 15:25:21.685409,223
2021-09-24 15:25:21.685417,208
2021-09-24 15:25:21.685424,189
2021-09-24 15:25:21.685430,172
2021-09-24 15:25:21.685437,160
2021-09-24 15:25:21.685443,143
2021-09-24 15:25:21.685450,128
2021-09-24 15:25:21.685456,131
2021-09-24 15:25:21.685463,136
2021-09-24 15:25:21.685470,136
2021-09-24 15:25:21.685476,126
2021-09-24 15:25:21.685482,111
2021-09-24 15:25:21.685489,87
2021-09-24 15:25:21.685496,63
2021-09-24 15:25:21.685502,53
2021-09-24 15:25:21.685509,51
2021-09-24 15:25:21.685515,51
2021-09-24 15:25:21.685522,53
2021-09-24 15:25:21.685528,58
2021-09-24 15:25:21.685535,63
2021-09-24 15:25:21.685541,63
2021-09-24 15:25:21.685548,63
2021-09-24 15:25:21.685555,65
2021-09-24 15:25:21.685561,55
2021-09-24 15:25:21.685568,46
2021-09-24 15:25:21.685574,60
2021-09-24 15:25:21.685581,85
2021-09-24 15:25:21.685587,97
2021-09-24 15:25:21.685594,94
2021-09-24 15:25:21.955586,80
2021-09-24 15:25:21.955618,65
2021-09-24 15:25:21.955629,63
2021-09-24 15:25:21.955640,65
2021-09-24 15:25:21.955650,65
2021-09-24 15:25:21.955660,63
2021-09-24 15:25:21.955670,60
2021-09-24 15:25:21.955680,58
2021-09-24 15:25:21.955690,51
2021-09-24 15:25:21.955700,38
2021-09-24 15:25:21.955711,24
2021-09-24 15:25:21.955721,17
2021-09-24 15:25:21.955731,17
2021-09-24 15:25:21.955741,9
2021-09-24 15:25:21.955751,-4
2021-09-24 15:25:21.955761,-12
2021-09-24 15:25:21.955776,-7
2021-09-24 15:25:21.955786,7
2021-09-24 15:25:21.955796,24
2021-09-24 15:25:21.955806,34
2021-09-24 15:25:21.955816,26
2021-09-24 15:25:21.955826,26
2021-09-24 15:25:21.955836,36
2021-09-24 15:25:21.955845,46
2021-09-24 15:25:21.955855,55
2021-09-24 15:25:21.955865,51
2021-09-24 15:25:21.955875,48
2021-09-24 15:25:21.955885,70
2021-09-24 15:25:21.955895,97
2021-09-24 15:25:21.955905,109
2021-09-24 15:25:22.135525,106
2021-09-24 15:25:22.135553,99
2021-09-24 15:25:22.135569,85
2021-09-24 15:25:22.135582,63
2021-09-24 15:25:22.135594,53
2021-09-24 15:25:22.135606,60
2021-09-24 15:25:22.135632,60
2021-09-24 15:25:22.135645,34
2021-09-24 15:25:22.135719,-12
2021-09-24 15:25:22.135734,-99
2021-09-24 15:25:22.135742,-308
2021-09-24 15:25:22.135748,-548
2021-09-24 15:25:22.135755,-524
2021-09-24 15:25:22.135762,-143
2021-09-24 15:25:22.135768,405
2021-09-24 15:25:22.135775,614
2021-09-24 15:25:22.135781,291
2021-09-24 15:25:22.135788,48
2021-09-24 15:25:22.135794,94
2021-09-24 15:25:22.135801,21
2021-09-24 15:25:22.135807,-111
2021-09-24 15:25:22.135814,-97
2021-09-24 15:25:22.135820,-70
2021-09-24 15:25:22.135826,-106
2021-09-24 15:25:22.135833,-121
2021-09-24 15:25:22.135839,-121
2021-09-24 15:25:22.135846,-140
2021-09-24 15:25:22.135852,-157
2021-09-24 15:25:22.135858,-162
2021-09-24 15:25:22.135865,-172
2021-09-24 15:25:22.360574,-184
2021-09-24 15:25:22.360606,-196
2021-09-24 15:25:22.360618,-213
2021-09-24 15:25:22.360628,-230
2021-09-24 15:25:22.360638,-245
2021-09-24 15:25:22.360648,-252
2021-09-24 15:25:22.360658,-272
2021-09-24 15:25:22.360668,-310
2021-09-24 15:25:22.360678,-344
2021-09-24 15:25:22.360688,-369
2021-09-24 15:25:22.360698,-393
2021-09-24 15:25:22.360708,-405
2021-09-24 15:25:22.360718,-400
2021-09-24 15:25:22.360765,-383
2021-09-24 15:25:22.360775,-349
2021-09-24 15:25:22.360785,-286
2021-09-24 15:25:22.360795,-187
2021-09-24 15:25:22.360805,-82
2021-09-24 15:25:22.360815,-2
2021-09-24 15:25:22.360825,75
2021-09-24 15:25:22.360835,145
2021-09-24 15:25:22.360845,191
2021-09-24 15:25:22.360855,218
2021-09-24 15:25:22.360865,235
2021-09-24 15:25:22.360875,240
2021-09-24 15:25:22.360885,238
2021-09-24 15:25:22.360895,242
2021-09-24 15:25:22.360905,240
2021-09-24 15:25:22.360915,225
2021-09-24 15:25:22.360925,213
2021-09-24 15:25:22.585090,201
2021-09-24 15:25:22.585106,184
2021-09-24 15:25:22.585112,174
2021-09-24 15:25:22.585117,165
2021-09-24 15:25:22.585122,155
2021-09-24 15:25:22.585127,148
2021-09-24 15:25:22.585132,136
2021-09-24 15:25:22.585137,123
2021-09-24 15:25:22.585142,119
2021-09-24 15:25:22.585147,111
2021-09-24 15:25:22.585152,106
2021-09-24 15:25:22.585157,104
2021-09-24 15:25:22.585162,92
2021-09-24 15:25:22.585167,85
2021-09-24 15:25:22.585172,89
2021-09-24 15:25:22.585177,94
2021-09-24 15:25:22.585181,89
2021-09-24 15:25:22.585189,77
2021-09-24 15:25:22.585199,75
2021-09-24 15:25:22.585208,75
2021-09-24 15:25:22.585215,70
2021-09-24 15:25:22.585220,70
2021-09-24 15:25:22.585225,75
2021-09-24 15:25:22.585233,72
2021-09-24 15:25:22.585242,70
2021-09-24 15:25:22.585251,70
2021-09-24 15:25:22.585260,68
2021-09-24 15:25:22.585270,65
2021-09-24 15:25:22.585279,70
2021-09-24 15:25:22.585288,75
2021-09-24 15:25:22.809874,75
2021-09-24 15:25:22.809891,75
2021-09-24 15:25:22.809897,75
2021-09-24 15:25:22.809901,80
2021-09-24 15:25:22.809906,80
2021-09-24 15:25:22.809910,75
2021-09-24 15:25:22.809915,75
2021-09-24 15:25:22.809919,85
2021-09-24 15:25:22.809924,94
2021-09-24 15:25:22.809928,85
2021-09-24 15:25:22.809933,60
2021-09-24 15:25:22.809937,41
2021-09-24 15:25:22.809942,41
2021-09-24 15:25:22.809946,46
2021-09-24 15:25:22.809950,41
2021-09-24 15:25:22.809955,46
2021-09-24 15:25:22.809960,58
2021-09-24 15:25:22.809977,55
2021-09-24 15:25:22.809982,53
2021-09-24 15:25:22.809987,51
2021-09-24 15:25:22.809991,46
2021-09-24 15:25:22.809996,46
2021-09-24 15:25:22.810000,43
2021-09-24 15:25:22.810004,38
2021-09-24 15:25:22.810009,38
2021-09-24 15:25:22.810013,26
2021-09-24 15:25:22.810018,-17
2021-09-24 15:25:22.810022,-80
2021-09-24 15:25:22.810027,-213
2021-09-24 15:25:22.810031,-446
2021-09-24 15:25:23.037730,-546
2021-09-24 15:25:23.037750,-286
2021-09-24 15:25:23.037756,230
2021-09-24 15:25:23.037761,619
2021-09-24 15:25:23.037767,488
2021-09-24 15:25:23.037771,128
2021-09-24 15:25:23.037776,55
2021-09-24 15:25:23.037782,72
2021-09-24 15:25:23.037786,-53
2021-09-24 15:25:23.037792,-114
2021-09-24 15:25:23.037796,-87
2021-09-24 15:25:23.037801,-99
2021-09-24 15:25:23.037806,-114
2021-09-24 15:25:23.037811,-102
2021-09-24 15:25:23.037816,-111
2021-09-24 15:25:23.037820,-131
2021-09-24 15:25:23.037826,-136
2021-09-24 15:25:23.037830,-140
2021-09-24 15:25:23.037835,-162
2021-09-24 15:25:23.037840,-184
2021-09-24 15:25:23.037845,-201
2021-09-24 15:25:23.037850,-228
2021-09-24 15:25:23.037855,-269
2021-09-24 15:25:23.037859,-303
2021-09-24 15:25:23.037864,-327
2021-09-24 15:25:23.037869,-359
2021-09-24 15:25:23.037874,-395
2021-09-24 15:25:23.037880,-427
2021-09-24 15:25:23.037884,-444
2021-09-24 15:25:23.037889,-451
2021-09-24 15:25:23.303795,-449
2021-09-24 15:25:23.303818,-434
2021-09-24 15:25:23.303826,-403
2021-09-24 15:25:23.303832,-347
2021-09-24 15:25:23.303839,-264
2021-09-24 15:25:23.303846,-160
2021-09-24 15:25:23.303852,-48
2021-09-24 15:25:23.303858,51
2021-09-24 15:25:23.303865,126
2021-09-24 15:25:23.303872,167
2021-09-24 15:25:23.303878,187
2021-09-24 15:25:23.303884,201
2021-09-24 15:25:23.303891,208
2021-09-24 15:25:23.303897,201
2021-09-24 15:25:23.303904,184
2021-09-24 15:25:23.303910,172
2021-09-24 15:25:23.303917,170
2021-09-24 15:25:23.303932,167
2021-09-24 15:25:23.303938,157
2021-09-24 15:25:23.303945,148
2021-09-24 15:25:23.303951,138
2021-09-24 15:25:23.303958,128
2021-09-24 15:25:23.303965,119
2021-09-24 15:25:23.303974,114
2021-09-24 15:25:23.303980,109
2021-09-24 15:25:23.303987,99
2021-09-24 15:25:23.303993,99
2021-09-24 15:25:23.303999,99
2021-09-24 15:25:23.304014,94
2021-09-24 15:25:23.304030,92
2021-09-24 15:25:23.574693,94
2021-09-24 15:25:23.574709,92
2021-09-24 15:25:23.574715,87
2021-09-24 15:25:23.574720,80
2021-09-24 15:25:23.574725,82
2021-09-24 15:25:23.574730,87
2021-09-24 15:25:23.574735,97
2021-09-24 15:25:23.574739,106
2021-09-24 15:25:23.574744,111
2021-09-24 15:25:23.574749,104
2021-09-24 15:25:23.574754,102
2021-09-24 15:25:23.574759,111
2021-09-24 15:25:23.574764,119
2021-09-24 15:25:23.574768,121
2021-09-24 15:25:23.574773,121
2021-09-24 15:25:23.574778,114
2021-09-24 15:25:23.574783,111
2021-09-24 15:25:23.574788,111
2021-09-24 15:25:23.574792,109
2021-09-24 15:25:23.574797,109
2021-09-24 15:25:23.574802,111
2021-09-24 15:25:23.574807,109
2021-09-24 15:25:23.574812,111
2021-09-24 15:25:23.574817,119
2021-09-24 15:25:23.574821,121
2021-09-24 15:25:23.574826,121
2021-09-24 15:25:23.574831,116
2021-09-24 15:25:23.574836,104
2021-09-24 15:25:23.574841,99
2021-09-24 15:25:23.574846,106
2021-09-24 15:25:23.755325,104
2021-09-24 15:25:23.755347,87
2021-09-24 15:25:23.755355,65
2021-09-24 15:25:23.755362,51
2021-09-24 15:25:23.755369,48
2021-09-24 15:25:23.755376,51
2021-09-24 15:25:23.755382,63
2021-09-24 15:25:23.755389,82
2021-09-24 15:25:23.755396,92
2021-09-24 15:25:23.755402,89
2021-09-24 15:25:23.755409,89
2021-09-24 15:25:23.755415,94
2021-09-24 15:25:23.755422,97
2021-09-24 15:25:23.755428,97
2021-09-24 15:25:23.755435,82
2021-09-24 15:25:23.755441,70
2021-09-24 15:25:23.755448,70
2021-09-24 15:25:23.755455,51
2021-09-24 15:25:23.755461,0
2021-09-24 15:25:23.755468,-106
2021-09-24 15:25:23.755475,-337
2021-09-24 15:25:23.755481,-544
2021-09-24 15:25:23.755488,-432
2021-09-24 15:25:23.755494,-17
2021-09-24 15:25:23.755501,480
2021-09-24 15:25:23.755507,646
2021-09-24 15:25:23.755514,318
2021-09-24 15:25:23.755520,77
2021-09-24 15:25:23.755527,116
2021-09-24 15:25:23.755533,43
2021-09-24 15:25:23.979874,-75
2021-09-24 15:25:23.979894,-63
2021-09-24 15:25:23.979902,-55
2021-09-24 15:25:23.979909,-92
2021-09-24 15:25:23.979916,-92
2021-09-24 15:25:23.979922,-85
2021-09-24 15:25:23.979928,-104
2021-09-24 15:25:23.979935,-123
2021-09-24 15:25:23.979941,-140
2021-09-24 15:25:23.979948,-157
2021-09-24 15:25:23.979954,-167
2021-09-24 15:25:23.979961,-182
2021-09-24 15:25:23.979967,-199
2021-09-24 15:25:23.979973,-223
2021-09-24 15:25:23.979980,-255
2021-09-24 15:25:23.979986,-276
2021-09-24 15:25:23.979992,-298
2021-09-24 15:25:23.979999,-325
2021-09-24 15:25:23.980005,-354
2021-09-24 15:25:23.980012,-381
2021-09-24 15:25:23.980023,-405
2021-09-24 15:25:23.980030,-412
2021-09-24 15:25:23.980036,-403
2021-09-24 15:25:23.980043,-378
2021-09-24 15:25:23.980050,-332
2021-09-24 15:25:23.980056,-262
2021-09-24 15:25:23.980063,-170
2021-09-24 15:25:23.980069,-63
2021-09-24 15:25:23.980075,36
2021-09-24 15:25:23.980082,116
2021-09-24 15:25:24.204996,177
2021-09-24 15:25:24.205017,218
2021-09-24 15:25:24.205024,228
2021-09-24 15:25:24.205030,225
2021-09-24 15:25:24.205035,230
2021-09-24 15:25:24.205040,230
2021-09-24 15:25:24.205045,221
2021-09-24 15:25:24.205051,206
2021-09-24 15:25:24.205056,194
2021-09-24 15:25:24.205061,184
2021-09-24 15:25:24.205066,179
2021-09-24 15:25:24.205071,177
2021-09-24 15:25:24.205076,165
2021-09-24 15:25:24.205082,143
2021-09-24 15:25:24.205087,131
2021-09-24 15:25:24.205092,126
2021-09-24 15:25:24.205097,121
2021-09-24 15:25:24.205102,111
2021-09-24 15:25:24.205108,104
2021-09-24 15:25:24.205113,99
2021-09-24 15:25:24.205118,94
2021-09-24 15:25:24.205123,92
2021-09-24 15:25:24.205128,92
2021-09-24 15:25:24.205133,92
2021-09-24 15:25:24.205138,92
2021-09-24 15:25:24.205143,87
2021-09-24 15:25:24.205149,85
2021-09-24 15:25:24.205154,85
2021-09-24 15:25:24.205159,89
2021-09-24 15:25:24.205164,92
2021-09-24 15:25:24.474608,89
2021-09-24 15:25:24.474623,89
2021-09-24 15:25:24.474628,92
2021-09-24 15:25:24.474633,89
2021-09-24 15:25:24.474638,92
2021-09-24 15:25:24.474642,92
2021-09-24 15:25:24.474647,85
2021-09-24 15:25:24.474651,77
2021-09-24 15:25:24.474656,85
2021-09-24 15:25:24.474660,89
2021-09-24 15:25:24.474665,85
2021-09-24 15:25:24.474669,80
2021-09-24 15:25:24.474674,70
2021-09-24 15:25:24.474679,63
2021-09-24 15:25:24.474683,63
2021-09-24 15:25:24.474688,63
2021-09-24 15:25:24.474692,58
2021-09-24 15:25:24.474697,55
2021-09-24 15:25:24.474701,53
2021-09-24 15:25:24.474706,53
2021-09-24 15:25:24.474710,51
2021-09-24 15:25:24.474715,48
2021-09-24 15:25:24.474719,51
2021-09-24 15:25:24.474723,55
2021-09-24 15:25:24.474728,55
2021-09-24 15:25:24.474732,48
2021-09-24 15:25:24.474737,31
2021-09-24 15:25:24.474741,21
2021-09-24 15:25:24.474745,29
2021-09-24 15:25:24.474750,26
2021-09-24 15:25:24.655022,14
2021-09-24 15:25:24.655043,24
2021-09-24 15:25:24.655049,51
2021-09-24 15:25:24.655055,63
2021-09-24 15:25:24.655060,68
2021-09-24 15:25:24.655065,70
2021-09-24 15:25:24.655070,65
2021-09-24 15:25:24.655076,55
2021-09-24 15:25:24.655081,46
2021-09-24 15:25:24.655086,31
2021-09-24 15:25:24.655091,31
2021-09-24 15:25:24.655097,26
2021-09-24 15:25:24.655102,-4
2021-09-24 15:25:24.655107,-51
2021-09-24 15:25:24.655112,-167
2021-09-24 15:25:24.655118,-417
2021-09-24 15:25:24.655123,-602
2021-09-24 15:25:24.655128,-461
2021-09-24 15:25:24.655133,-14
2021-09-24 15:25:24.655139,493
2021-09-24 15:25:24.655144,580
2021-09-24 15:25:24.655149,218
2021-09-24 15:25:24.655160,38
2021-09-24 15:25:24.655166,72
2021-09-24 15:25:24.655171,-24
2021-09-24 15:25:24.655176,-109
2021-09-24 15:25:24.655182,-72
2021-09-24 15:25:24.655187,-72
2021-09-24 15:25:24.655192,-109
2021-09-24 15:25:24.655197,-109
2021-09-24 15:25:24.924659,-109
2021-09-24 15:25:24.924675,-126
2021-09-24 15:25:24.924680,-136
2021-09-24 15:25:24.924685,-148
2021-09-24 15:25:24.924690,-162
2021-09-24 15:25:24.924694,-179
2021-09-24 15:25:24.924699,-194
2021-09-24 15:25:24.924703,-211
2021-09-24 15:25:24.924708,-238
2021-09-24 15:25:24.924712,-267
2021-09-24 15:25:24.924717,-296
2021-09-24 15:25:24.924721,-332
2021-09-24 15:25:24.924726,-361
2021-09-24 15:25:24.924730,-388
2021-09-24 15:25:24.924735,-412
2021-09-24 15:25:24.924739,-429
2021-09-24 15:25:24.924744,-432
2021-09-24 15:25:24.924748,-420
2021-09-24 15:25:24.924753,-395
2021-09-24 15:25:24.924757,-344
2021-09-24 15:25:24.924762,-269
2021-09-24 15:25:24.924766,-174
2021-09-24 15:25:24.924771,-68
2021-09-24 15:25:24.924775,31
2021-09-24 15:25:24.924780,111
2021-09-24 15:25:24.924784,170
2021-09-24 15:25:24.924789,211
2021-09-24 15:25:24.924793,233
2021-09-24 15:25:24.924798,242
2021-09-24 15:25:24.924802,240
2021-09-24 15:25:25.105017,230
2021-09-24 15:25:25.105036,218
2021-09-24 15:25:25.105042,204
2021-09-24 15:25:25.105048,187
2021-09-24 15:25:25.105054,172
2021-09-24 15:25:25.105059,165
2021-09-24 15:25:25.105064,160
2021-09-24 15:25:25.105069,153
2021-09-24 15:25:25.105075,148
2021-09-24 15:25:25.105080,138
2021-09-24 15:25:25.105085,126
2021-09-24 15:25:25.105090,119
2021-09-24 15:25:25.105096,111
2021-09-24 15:25:25.105101,99
2021-09-24 15:25:25.105106,85
2021-09-24 15:25:25.105112,72
2021-09-24 15:25:25.105117,65
2021-09-24 15:25:25.105122,60
2021-09-24 15:25:25.105127,58
2021-09-24 15:25:25.105133,63
2021-09-24 15:25:25.105138,72
2021-09-24 15:25:25.105143,70
2021-09-24 15:25:25.105148,65
2021-09-24 15:25:25.105154,68
2021-09-24 15:25:25.105159,72
2021-09-24 15:25:25.105164,70
2021-09-24 15:25:25.105169,68
2021-09-24 15:25:25.105175,65
2021-09-24 15:25:25.105180,63
2021-09-24 15:25:25.105185,65
2021-09-24 15:25:25.463529,72
2021-09-24 15:25:25.463549,77
2021-09-24 15:25:25.463557,75
2021-09-24 15:25:25.463564,65
2021-09-24 15:25:25.463570,58
2021-09-24 15:25:25.463577,58
2021-09-24 15:25:25.463584,58
2021-09-24 15:25:25.463590,60
2021-09-24 15:25:25.463597,58
2021-09-24 15:25:25.463604,51
2021-09-24 15:25:25.463610,43
2021-09-24 15:25:25.463617,43
2021-09-24 15:25:25.463623,46
2021-09-24 15:25:25.463630,51
2021-09-24 15:25:25.463637,53
2021-09-24 15:25:25.463643,46
2021-09-24 15:25:25.463650,41
2021-09-24 15:25:25.463657,46
2021-09-24 15:25:25.463663,46
2021-09-24 15:25:25.463670,43
2021-09-24 15:25:25.463676,41
2021-09-24 15:25:25.463683,34
2021-09-24 15:25:25.463690,34
2021-09-24 15:25:25.463696,36
2021-09-24 15:25:25.463703,29
2021-09-24 15:25:25.463709,14
2021-09-24 15:25:25.463716,9
2021-09-24 15:25:25.463722,21
2021-09-24 15:25:25.463729,26
2021-09-24 15:25:25.463735,21
2021-09-24 15:25:25.600461,29
2021-09-24 15:25:25.600484,48
2021-09-24 15:25:25.600492,58
2021-09-24 15:25:25.600499,55
2021-09-24 15:25:25.600506,58
2021-09-24 15:25:25.600516,60
2021-09-24 15:25:25.600523,58
2021-09-24 15:25:25.600529,55
2021-09-24 15:25:25.600536,48
2021-09-24 15:25:25.600542,38
2021-09-24 15:25:25.600549,36
2021-09-24 15:25:25.600555,19
2021-09-24 15:25:25.600562,-38
2021-09-24 15:25:25.600569,-189
2021-09-24 15:25:25.600575,-459
2021-09-24 15:25:25.600582,-607
2021-09-24 15:25:25.600588,-400
2021-09-24 15:25:25.600595,97
2021-09-24 15:25:25.600601,558
2021-09-24 15:25:25.600608,517
2021-09-24 15:25:25.600614,133
2021-09-24 15:25:25.600621,19
2021-09-24 15:25:25.600627,55
2021-09-24 15:25:25.600634,-48
2021-09-24 15:25:25.600640,-109
2021-09-24 15:25:25.600646,-72
2021-09-24 15:25:25.600653,-94
2021-09-24 15:25:25.600659,-136
2021-09-24 15:25:25.600666,-128
2021-09-24 15:25:25.600672,-128
2021-09-24 15:25:25.824822,-145
2021-09-24 15:25:25.824839,-153
2021-09-24 15:25:25.824845,-160
2021-09-24 15:25:25.824851,-174
2021-09-24 15:25:25.824856,-184
2021-09-24 15:25:25.824862,-194
2021-09-24 15:25:25.824867,-211
2021-09-24 15:25:25.824872,-233
2021-09-24 15:25:25.824878,-267
2021-09-24 15:25:25.824883,-296
2021-09-24 15:25:25.824888,-323
2021-09-24 15:25:25.824893,-354
2021-09-24 15:25:25.824899,-386
2021-09-24 15:25:25.824907,-405
2021-09-24 15:25:25.824915,-417
2021-09-24 15:25:25.824923,-422
2021-09-24 15:25:25.824931,-417
2021-09-24 15:25:25.824940,-393
2021-09-24 15:25:25.824981,-340
2021-09-24 15:25:25.824991,-262
2021-09-24 15:25:25.824997,-162
2021-09-24 15:25:25.825002,-55
2021-09-24 15:25:25.825007,34
2021-09-24 15:25:25.825013,109
2021-09-24 15:25:25.825018,172
2021-09-24 15:25:25.825023,216
2021-09-24 15:25:25.825028,230
2021-09-24 15:25:25.825034,233
2021-09-24 15:25:25.825039,233
2021-09-24 15:25:25.825044,228
2021-09-24 15:25:26.049796,223
2021-09-24 15:25:26.049813,218
2021-09-24 15:25:26.049846,216
2021-09-24 15:25:26.049858,208
2021-09-24 15:25:26.049864,201
2021-09-24 15:25:26.049870,194
2021-09-24 15:25:26.049875,177
2021-09-24 15:25:26.049880,157
2021-09-24 15:25:26.049885,143
2021-09-24 15:25:26.049890,133
2021-09-24 15:25:26.049895,123
2021-09-24 15:25:26.049900,123
2021-09-24 15:25:26.049906,123
2021-09-24 15:25:26.049926,111
2021-09-24 15:25:26.049940,99
2021-09-24 15:25:26.049950,102
2021-09-24 15:25:26.049959,106
2021-09-24 15:25:26.049968,106
2021-09-24 15:25:26.049976,97
2021-09-24 15:25:26.050011,92
2021-09-24 15:25:26.050018,97
2021-09-24 15:25:26.050023,99
2021-09-24 15:25:26.050028,99
2021-09-24 15:25:26.050033,102
2021-09-24 15:25:26.050038,97
2021-09-24 15:25:26.050044,87
2021-09-24 15:25:26.050049,85
2021-09-24 15:25:26.050054,82
2021-09-24 15:25:26.050059,75
2021-09-24 15:25:26.050065,72
2021-09-24 15:25:26.274878,68
2021-09-24 15:25:26.274898,65
2021-09-24 15:25:26.274906,65
2021-09-24 15:25:26.274913,65
2021-09-24 15:25:26.274920,63
2021-09-24 15:25:26.274926,60
2021-09-24 15:25:26.274933,53
2021-09-24 15:25:26.274939,46
2021-09-24 15:25:26.274946,48
2021-09-24 15:25:26.274952,48
2021-09-24 15:25:26.274958,48
2021-09-24 15:25:26.274965,41
2021-09-24 15:25:26.274971,34
2021-09-24 15:25:26.274978,31
2021-09-24 15:25:26.274984,36
2021-09-24 15:25:26.274991,36
2021-09-24 15:25:26.274997,38
2021-09-24 15:25:26.275004,41
2021-09-24 15:25:26.275010,29
2021-09-24 15:25:26.275017,21
2021-09-24 15:25:26.275023,24
2021-09-24 15:25:26.275030,26
2021-09-24 15:25:26.275036,29
2021-09-24 15:25:26.275043,34
2021-09-24 15:25:26.275049,34
2021-09-24 15:25:26.275056,34
2021-09-24 15:25:26.275062,26
2021-09-24 15:25:26.275069,12
2021-09-24 15:25:26.275076,7
2021-09-24 15:25:26.275082,12
2021-09-24 15:25:26.499668,2
2021-09-24 15:25:26.499706,-2
2021-09-24 15:25:26.499717,19
2021-09-24 15:25:26.499726,36
2021-09-24 15:25:26.499734,38
2021-09-24 15:25:26.499742,36
2021-09-24 15:25:26.499751,31
2021-09-24 15:25:26.499784,29
2021-09-24 15:25:26.499818,29
2021-09-24 15:25:26.499847,26
2021-09-24 15:25:26.499859,26
2021-09-24 15:25:26.499867,26
2021-09-24 15:25:26.499875,19
2021-09-24 15:25:26.499883,-2
2021-09-24 15:25:26.499890,-58
2021-09-24 15:25:26.499898,-218
2021-09-24 15:25:26.499906,-483
2021-09-24 15:25:26.499913,-612
2021-09-24 15:25:26.499921,-383
2021-09-24 15:25:26.499929,143
2021-09-24 15:25:26.499955,592
2021-09-24 15:25:26.499966,483
2021-09-24 15:25:26.499975,111
2021-09-24 15:25:26.499983,46
2021-09-24 15:25:26.499991,75
2021-09-24 15:25:26.499999,-43
2021-09-24 15:25:26.500007,-97
2021-09-24 15:25:26.500014,-63
2021-09-24 15:25:26.500022,-80
2021-09-24 15:25:26.500030,-114
2021-09-24 15:25:26.724641,-116
2021-09-24 15:25:26.724655,-133
2021-09-24 15:25:26.724661,-157
2021-09-24 15:25:26.724665,-172
2021-09-24 15:25:26.724670,-189
2021-09-24 15:25:26.724674,-216
2021-09-24 15:25:26.724679,-228
2021-09-24 15:25:26.724683,-218
2021-09-24 15:25:26.724688,-228
2021-09-24 15:25:26.724692,-269
2021-09-24 15:25:26.724696,-303
2021-09-24 15:25:26.724701,-335
2021-09-24 15:25:26.724705,-366
2021-09-24 15:25:26.724710,-395
2021-09-24 15:25:26.724714,-427
2021-09-24 15:25:26.724719,-459
2021-09-24 15:25:26.724723,-473
2021-09-24 15:25:26.724727,-473
2021-09-24 15:25:26.724732,-459
2021-09-24 15:25:26.724736,-425
2021-09-24 15:25:26.724741,-369
2021-09-24 15:25:26.724745,-286
2021-09-24 15:25:26.724750,-184
2021-09-24 15:25:26.724754,-82
2021-09-24 15:25:26.724759,2
2021-09-24 15:25:26.724763,70
2021-09-24 15:25:26.724767,126
2021-09-24 15:25:26.724772,165
2021-09-24 15:25:26.724776,182
2021-09-24 15:25:26.724781,191
2021-09-24 15:25:26.950523,201
2021-09-24 15:25:26.950546,204
2021-09-24 15:25:26.950554,196
2021-09-24 15:25:26.950561,187
2021-09-24 15:25:26.950568,170
2021-09-24 15:25:26.950574,155
2021-09-24 15:25:26.950581,150
2021-09-24 15:25:26.950587,138
2021-09-24 15:25:26.950594,123
2021-09-24 15:25:26.950600,116
2021-09-24 15:25:26.950606,106
2021-09-24 15:25:26.950613,89
2021-09-24 15:25:26.950619,82
2021-09-24 15:25:26.950626,87
2021-09-24 15:25:26.950632,89
2021-09-24 15:25:26.950639,85
2021-09-24 15:25:26.950645,75
2021-09-24 15:25:26.950652,70
2021-09-24 15:25:26.950658,77
2021-09-24 15:25:26.950665,82
2021-09-24 15:25:26.950671,80
2021-09-24 15:25:26.950678,77
2021-09-24 15:25:26.950684,77
2021-09-24 15:25:26.950691,80
2021-09-24 15:25:26.950697,85
2021-09-24 15:25:26.950704,82
2021-09-24 15:25:26.950741,80
2021-09-24 15:25:26.950748,82
2021-09-24 15:25:26.950754,82
2021-09-24 15:25:26.950760,68
2021-09-24 15:25:27.174906,65
2021-09-24 15:25:27.174927,70
2021-09-24 15:25:27.174935,60
2021-09-24 15:25:27.174942,53
2021-09-24 15:25:27.174949,60
2021-09-24 15:25:27.174955,63
2021-09-24 15:25:27.174962,58
2021-09-24 15:25:27.174968,46
2021-09-24 15:25:27.174975,38
2021-09-24 15:25:27.174981,29
2021-09-24 15:25:27.174988,19
2021-09-24 15:25:27.174995,17
2021-09-24 15:25:27.175001,19
2021-09-24 15:25:27.175008,26
2021-09-24 15:25:27.175015,34
2021-09-24 15:25:27.175021,26
2021-09-24 15:25:27.175028,17
2021-09-24 15:25:27.175034,21
2021-09-24 15:25:27.175041,31
2021-09-24 15:25:27.175048,38
2021-09-24 15:25:27.175054,41
2021-09-24 15:25:27.175061,36
2021-09-24 15:25:27.175067,17
2021-09-24 15:25:27.175074,7
2021-09-24 15:25:27.175081,17
2021-09-24 15:25:27.175087,24
2021-09-24 15:25:27.175094,9
2021-09-24 15:25:27.175100,4
2021-09-24 15:25:27.175107,17
2021-09-24 15:25:27.175114,31
2021-09-24 15:25:27.489219,34
2021-09-24 15:25:27.489249,38
2021-09-24 15:25:27.489261,51
2021-09-24 15:25:27.489272,58
2021-09-24 15:25:27.489282,65
2021-09-24 15:25:27.489292,75
2021-09-24 15:25:27.489301,77
2021-09-24 15:25:27.489312,65
2021-09-24 15:25:27.489321,29
2021-09-24 15:25:27.489331,-46
2021-09-24 15:25:27.489342,-182
2021-09-24 15:25:27.489360,-391
2021-09-24 15:25:27.489370,-463
2021-09-24 15:25:27.489380,-204
2021-09-24 15:25:27.489390,306
2021-09-24 15:25:27.489400,670
2021-09-24 15:25:27.489411,505
2021-09-24 15:25:27.489421,174
2021-09-24 15:25:27.489431,138
2021-09-24 15:25:27.489441,133
2021-09-24 15:25:27.489451,2
2021-09-24 15:25:27.489461,-48
2021-09-24 15:25:27.489471,-21
2021-09-24 15:25:27.489481,-38
2021-09-24 15:25:27.489491,-72
2021-09-24 15:25:27.489501,-85
2021-09-24 15:25:27.489511,-99
2021-09-24 15:25:27.489521,-116
2021-09-24 15:25:27.489531,-121
2021-09-24 15:25:27.489541,-136
2021-09-24 15:25:27.715482,-165
2021-09-24 15:25:27.715506,-184
2021-09-24 15:25:27.715514,-189
2021-09-24 15:25:27.715520,-206
2021-09-24 15:25:27.715527,-238
2021-09-24 15:25:27.715533,-264
2021-09-24 15:25:27.715540,-291
2021-09-24 15:25:27.715546,-325
2021-09-24 15:25:27.715553,-361
2021-09-24 15:25:27.715559,-400
2021-09-24 15:25:27.715566,-427
2021-09-24 15:25:27.715572,-434
2021-09-24 15:25:27.715579,-432
2021-09-24 15:25:27.715585,-439
2021-09-24 15:25:27.715592,-429
2021-09-24 15:25:27.715598,-376
2021-09-24 15:25:27.715605,-284
2021-09-24 15:25:27.715611,-179
2021-09-24 15:25:27.715618,-82
2021-09-24 15:25:27.715624,0
2021-09-24 15:25:27.715631,72
2021-09-24 15:25:27.715669,133
2021-09-24 15:25:27.715675,174
2021-09-24 15:25:27.715682,196
2021-09-24 15:25:27.715688,206
2021-09-24 15:25:27.715695,208
2021-09-24 15:25:27.715701,201
2021-09-24 15:25:27.715707,191
2021-09-24 15:25:27.715714,182
2021-09-24 15:25:27.715720,174
2021-09-24 15:25:27.895592,172
2021-09-24 15:25:27.895622,172
2021-09-24 15:25:27.895634,160
2021-09-24 15:25:27.895645,133
2021-09-24 15:25:27.895655,126
2021-09-24 15:25:27.895665,128
2021-09-24 15:25:27.895675,114
2021-09-24 15:25:27.895685,92
2021-09-24 15:25:27.895695,82
2021-09-24 15:25:27.895705,89
2021-09-24 15:25:27.895715,94
2021-09-24 15:25:27.895725,92
2021-09-24 15:25:27.895735,89
2021-09-24 15:25:27.895745,89
2021-09-24 15:25:27.895755,80
2021-09-24 15:25:27.895765,75
2021-09-24 15:25:27.895775,80
2021-09-24 15:25:27.895785,85
2021-09-24 15:25:27.895795,85
2021-09-24 15:25:27.895805,87
2021-09-24 15:25:27.895815,89
2021-09-24 15:25:27.895825,85
2021-09-24 15:25:27.895835,82
2021-09-24 15:25:27.895845,82
2021-09-24 15:25:27.895855,85
2021-09-24 15:25:27.895866,82
2021-09-24 15:25:27.895876,77
2021-09-24 15:25:27.895886,72
2021-09-24 15:25:27.895896,70
2021-09-24 15:25:27.895906,77
2021-09-24 15:25:28.166637,82
2021-09-24 15:25:28.166691,70
2021-09-24 15:25:28.166701,65
2021-09-24 15:25:28.166708,68
2021-09-24 15:25:28.166715,60
2021-09-24 15:25:28.166721,51
2021-09-24 15:25:28.166727,43
2021-09-24 15:25:28.166733,38
2021-09-24 15:25:28.166739,43
2021-09-24 15:25:28.166747,53
2021-09-24 15:25:28.166762,55
2021-09-24 15:25:28.166778,60
2021-09-24 15:25:28.166792,58
2021-09-24 15:25:28.166806,51
2021-09-24 15:25:28.166820,58
2021-09-24 15:25:28.166836,58
2021-09-24 15:25:28.166850,46
2021-09-24 15:25:28.166867,34
2021-09-24 15:25:28.166886,21
2021-09-24 15:25:28.166905,14
2021-09-24 15:25:28.166914,14
2021-09-24 15:25:28.166920,12
2021-09-24 15:25:28.166926,24
2021-09-24 15:25:28.166932,43
2021-09-24 15:25:28.166938,55
2021-09-24 15:25:28.166945,53
2021-09-24 15:25:28.166959,48
2021-09-24 15:25:28.166967,48
2021-09-24 15:25:28.166974,53
2021-09-24 15:25:28.166981,58
2021-09-24 15:25:28.346295,55
2021-09-24 15:25:28.346338,53
2021-09-24 15:25:28.346360,43
2021-09-24 15:25:28.346369,9
2021-09-24 15:25:28.346376,-63
2021-09-24 15:25:28.346382,-235
2021-09-24 15:25:28.346388,-485
2021-09-24 15:25:28.346394,-536
2021-09-24 15:25:28.346400,-235
2021-09-24 15:25:28.346406,269
2021-09-24 15:25:28.346412,609
2021-09-24 15:25:28.346418,434
2021-09-24 15:25:28.346504,114
2021-09-24 15:25:28.346537,94
2021-09-24 15:25:28.346547,92
2021-09-24 15:25:28.346555,-34
2021-09-24 15:25:28.346561,-63
2021-09-24 15:25:28.346567,-41
2021-09-24 15:25:28.346573,-72
2021-09-24 15:25:28.346580,-94
2021-09-24 15:25:28.346586,-89
2021-09-24 15:25:28.346591,-102
2021-09-24 15:25:28.346597,-116
2021-09-24 15:25:28.346603,-119
2021-09-24 15:25:28.346609,-126
2021-09-24 15:25:28.346615,-136
2021-09-24 15:25:28.346621,-153
2021-09-24 15:25:28.346627,-174
2021-09-24 15:25:28.346635,-187
2021-09-24 15:25:28.346647,-211
2021-09-24 15:25:28.616129,-242
2021-09-24 15:25:28.616183,-272
2021-09-24 15:25:28.616198,-306
2021-09-24 15:25:28.616207,-342
2021-09-24 15:25:28.616214,-374
2021-09-24 15:25:28.616222,-408
2021-09-24 15:25:28.616230,-429
2021-09-24 15:25:28.616238,-429
2021-09-24 15:25:28.616269,-420
2021-09-24 15:25:28.616279,-403
2021-09-24 15:25:28.616287,-347
2021-09-24 15:25:28.616296,-262
2021-09-24 15:25:28.616303,-162
2021-09-24 15:25:28.616311,-60
2021-09-24 15:25:28.616318,34
2021-09-24 15:25:28.616326,109
2021-09-24 15:25:28.616334,160
2021-09-24 15:25:28.616342,187
2021-09-24 15:25:28.616350,204
2021-09-24 15:25:28.616358,211
2021-09-24 15:25:28.616366,213
2021-09-24 15:25:28.616374,208
2021-09-24 15:25:28.616381,206
2021-09-24 15:25:28.616389,204
2021-09-24 15:25:28.616397,189
2021-09-24 15:25:28.616405,177
2021-09-24 15:25:28.616413,170
2021-09-24 15:25:28.616422,160
2021-09-24 15:25:28.616430,145
2021-09-24 15:25:28.616437,138
2021-09-24 15:25:28.795616,133
2021-09-24 15:25:28.795647,126
2021-09-24 15:25:28.795659,116
2021-09-24 15:25:28.795669,106
2021-09-24 15:25:28.795679,94
2021-09-24 15:25:28.795689,82
2021-09-24 15:25:28.795699,82
2021-09-24 15:25:28.795709,85
2021-09-24 15:25:28.795719,75
2021-09-24 15:25:28.795728,70
2021-09-24 15:25:28.795738,70
2021-09-24 15:25:28.795748,68
2021-09-24 15:25:28.795758,65
2021-09-24 15:25:28.795768,68
2021-09-24 15:25:28.795778,70
2021-09-24 15:25:28.795788,68
2021-09-24 15:25:28.795798,65
2021-09-24 15:25:28.795808,63
2021-09-24 15:25:28.795817,65
2021-09-24 15:25:28.795827,65
2021-09-24 15:25:28.795837,63
2021-09-24 15:25:28.795847,58
2021-09-24 15:25:28.795857,55
2021-09-24 15:25:28.795867,60
2021-09-24 15:25:28.795877,65
2021-09-24 15:25:28.795887,63
2021-09-24 15:25:28.795896,60
2021-09-24 15:25:28.795906,60
2021-09-24 15:25:28.795916,63
2021-09-24 15:25:28.795926,63
2021-09-24 15:25:29.020495,60
2021-09-24 15:25:29.020519,63
2021-09-24 15:25:29.020527,65
2021-09-24 15:25:29.020533,60
2021-09-24 15:25:29.020540,48
2021-09-24 15:25:29.020547,43
2021-09-24 15:25:29.020553,51
2021-09-24 15:25:29.020560,53
2021-09-24 15:25:29.020566,48
2021-09-24 15:25:29.020573,41
2021-09-24 15:25:29.020579,38
2021-09-24 15:25:29.020586,48
2021-09-24 15:25:29.020592,53
2021-09-24 15:25:29.020599,43
2021-09-24 15:25:29.020606,29
2021-09-24 15:25:29.020612,21
2021-09-24 15:25:29.020619,26
2021-09-24 15:25:29.020625,31
2021-09-24 15:25:29.020632,26
2021-09-24 15:25:29.020638,31
2021-09-24 15:25:29.020645,46
2021-09-24 15:25:29.020651,63
2021-09-24 15:25:29.020658,70
2021-09-24 15:25:29.020664,72
2021-09-24 15:25:29.020671,75
2021-09-24 15:25:29.020678,80
2021-09-24 15:25:29.020684,80
2021-09-24 15:25:29.020690,72
2021-09-24 15:25:29.020697,65
2021-09-24 15:25:29.020704,53
2021-09-24 15:25:29.290524,31
2021-09-24 15:25:29.290548,-9
2021-09-24 15:25:29.290555,-143
2021-09-24 15:25:29.290562,-410
2021-09-24 15:25:29.290569,-592
2021-09-24 15:25:29.290576,-429
2021-09-24 15:25:29.290582,31
2021-09-24 15:25:29.290589,534
2021-09-24 15:25:29.290595,597
2021-09-24 15:25:29.290602,230
2021-09-24 15:25:29.290609,60
2021-09-24 15:25:29.290615,102
2021-09-24 15:25:29.290622,4
2021-09-24 15:25:29.290628,-82
2021-09-24 15:25:29.290635,-53
2021-09-24 15:25:29.290641,-68
2021-09-24 15:25:29.290648,-102
2021-09-24 15:25:29.290655,-94
2021-09-24 15:25:29.290661,-94
2021-09-24 15:25:29.290668,-114
2021-09-24 15:25:29.290706,-128
2021-09-24 15:25:29.290712,-143
2021-09-24 15:25:29.290718,-157
2021-09-24 15:25:29.290725,-170
2021-09-24 15:25:29.290731,-184
2021-09-24 15:25:29.290738,-204
2021-09-24 15:25:29.290744,-230
2021-09-24 15:25:29.290751,-262
2021-09-24 15:25:29.290757,-284
2021-09-24 15:25:29.290763,-310
2021-09-24 15:25:29.603613,-349
2021-09-24 15:25:29.603636,-388
2021-09-24 15:25:29.603643,-415
2021-09-24 15:25:29.603649,-434
2021-09-24 15:25:29.603654,-444
2021-09-24 15:25:29.603660,-437
2021-09-24 15:25:29.603665,-415
2021-09-24 15:25:29.603670,-374
2021-09-24 15:25:29.603675,-310
2021-09-24 15:25:29.603681,-223
2021-09-24 15:25:29.603686,-111
2021-09-24 15:25:29.603691,-9
2021-09-24 15:25:29.603697,65
2021-09-24 15:25:29.603702,126
2021-09-24 15:25:29.603707,165
2021-09-24 15:25:29.603712,182
2021-09-24 15:25:29.603718,189
2021-09-24 15:25:29.603723,187
2021-09-24 15:25:29.603728,187
2021-09-24 15:25:29.603733,187
2021-09-24 15:25:29.603739,170
2021-09-24 15:25:29.603744,155
2021-09-24 15:25:29.603749,145
2021-09-24 15:25:29.603754,136
2021-09-24 15:25:29.603760,123
2021-09-24 15:25:29.603765,111
2021-09-24 15:25:29.603770,97
2021-09-24 15:25:29.603775,82
2021-09-24 15:25:29.603780,75
2021-09-24 15:25:29.603786,65
2021-09-24 15:25:29.739945,55
2021-09-24 15:25:29.739966,43
2021-09-24 15:25:29.739975,34
2021-09-24 15:25:29.739985,26
2021-09-24 15:25:29.739995,17
2021-09-24 15:25:29.740004,4
2021-09-24 15:25:29.740015,4
2021-09-24 15:25:29.740025,4
2021-09-24 15:25:29.740034,0
2021-09-24 15:25:29.740043,2
2021-09-24 15:25:29.740053,9
2021-09-24 15:25:29.740063,12
2021-09-24 15:25:29.740071,14
2021-09-24 15:25:29.740080,14
2021-09-24 15:25:29.740089,9
2021-09-24 15:25:29.740098,14
2021-09-24 15:25:29.740153,21
2021-09-24 15:25:29.740168,24
2021-09-24 15:25:29.740177,19
2021-09-24 15:25:29.740187,14
2021-09-24 15:25:29.740196,9
2021-09-24 15:25:29.740205,12
2021-09-24 15:25:29.740247,19
2021-09-24 15:25:29.740270,19
2021-09-24 15:25:29.740289,19
2021-09-24 15:25:29.740295,21
2021-09-24 15:25:29.740301,21
2021-09-24 15:25:29.740306,21
2021-09-24 15:25:29.740311,24
2021-09-24 15:25:29.740317,29
2021-09-24 15:25:29.965503,26
2021-09-24 15:25:29.965526,24
2021-09-24 15:25:29.965534,21
2021-09-24 15:25:29.965540,19
2021-09-24 15:25:29.965547,17
2021-09-24 15:25:29.965553,21
2021-09-24 15:25:29.965560,19
2021-09-24 15:25:29.965566,12
2021-09-24 15:25:29.965572,14
2021-09-24 15:25:29.965579,21
2021-09-24 15:25:29.965585,17
2021-09-24 15:25:29.965592,4
2021-09-24 15:25:29.965598,-12
2021-09-24 15:25:29.965605,-17
2021-09-24 15:25:29.965611,-12
2021-09-24 15:25:29.965618,-14
2021-09-24 15:25:29.965624,-17
2021-09-24 15:25:29.965631,0
2021-09-24 15:25:29.965637,17
2021-09-24 15:25:29.965643,26
2021-09-24 15:25:29.965650,31
2021-09-24 15:25:29.965656,21
2021-09-24 15:25:29.965663,17
2021-09-24 15:25:29.965669,24
2021-09-24 15:25:29.965676,24
2021-09-24 15:25:29.965682,19
2021-09-24 15:25:29.965688,17
2021-09-24 15:25:29.965695,2
2021-09-24 15:25:29.965701,-31
2021-09-24 15:25:29.965708,-123
2021-09-24 15:25:30.234485,-357
2021-09-24 15:25:30.234504,-604
2021-09-24 15:25:30.234510,-563
2021-09-24 15:25:30.234515,-160
2021-09-24 15:25:30.234521,400
2021-09-24 15:25:30.234526,624
2021-09-24 15:25:30.234531,306
2021-09-24 15:25:30.234536,46
2021-09-24 15:25:30.234542,77
2021-09-24 15:25:30.234547,9
2021-09-24 15:25:30.234552,-111
2021-09-24 15:25:30.234557,-97
2021-09-24 15:25:30.234563,-80
2021-09-24 15:25:30.234568,-121
2021-09-24 15:25:30.234574,-128
2021-09-24 15:25:30.234579,-106
2021-09-24 15:25:30.234585,-94
2021-09-24 15:25:30.234590,-99
2021-09-24 15:25:30.234595,-109
2021-09-24 15:25:30.234600,-116
2021-09-24 15:25:30.234605,-128
2021-09-24 15:25:30.234611,-145
2021-09-24 15:25:30.234616,-165
2021-09-24 15:25:30.234621,-196
2021-09-24 15:25:30.234626,-228
2021-09-24 15:25:30.234632,-262
2021-09-24 15:25:30.234637,-298
2021-09-24 15:25:30.234642,-315
2021-09-24 15:25:30.234647,-327
2021-09-24 15:25:30.234652,-359
2021-09-24 15:25:30.460545,-383
2021-09-24 15:25:30.460571,-391
2021-09-24 15:25:30.460580,-395
2021-09-24 15:25:30.460587,-391
2021-09-24 15:25:30.460594,-357
2021-09-24 15:25:30.460610,-296
2021-09-24 15:25:30.460618,-211
2021-09-24 15:25:30.460625,-104
2021-09-24 15:25:30.460633,-7
2021-09-24 15:25:30.460640,72
2021-09-24 15:25:30.460647,138
2021-09-24 15:25:30.460654,177
2021-09-24 15:25:30.460739,201
2021-09-24 15:25:30.460750,218
2021-09-24 15:25:30.460758,223
2021-09-24 15:25:30.460765,221
2021-09-24 15:25:30.460772,213
2021-09-24 15:25:30.460780,204
2021-09-24 15:25:30.460787,196
2021-09-24 15:25:30.460794,187
2021-09-24 15:25:30.460801,177
2021-09-24 15:25:30.460808,162
2021-09-24 15:25:30.460815,148
2021-09-24 15:25:30.460822,133
2021-09-24 15:25:30.460829,116
2021-09-24 15:25:30.460836,104
2021-09-24 15:25:30.460844,89
2021-09-24 15:25:30.460851,70
2021-09-24 15:25:30.460858,70
2021-09-24 15:25:30.460865,85
2021-09-24 15:25:30.640688,89
2021-09-24 15:25:30.640720,85
2021-09-24 15:25:30.640732,87
2021-09-24 15:25:30.640743,85
2021-09-24 15:25:30.640753,75
2021-09-24 15:25:30.640763,72
2021-09-24 15:25:30.640773,77
2021-09-24 15:25:30.640783,80
2021-09-24 15:25:30.640793,77
2021-09-24 15:25:30.640803,72
2021-09-24 15:25:30.640813,68
2021-09-24 15:25:30.640823,65
2021-09-24 15:25:30.640833,70
2021-09-24 15:25:30.640843,72
2021-09-24 15:25:30.640853,65
2021-09-24 15:25:30.640863,48
2021-09-24 15:25:30.640873,26
2021-09-24 15:25:30.640883,19
2021-09-24 15:25:30.640893,29
2021-09-24 15:25:30.640903,26
2021-09-24 15:25:30.640913,17
2021-09-24 15:25:30.640923,17
2021-09-24 15:25:30.640933,21
2021-09-24 15:25:30.640943,19
2021-09-24 15:25:30.640953,17
2021-09-24 15:25:30.640963,21
2021-09-24 15:25:30.640973,24
2021-09-24 15:25:30.640983,17
2021-09-24 15:25:30.641005,9
2021-09-24 15:25:30.641016,9
2021-09-24 15:25:30.865098,12
2021-09-24 15:25:30.865120,12
2021-09-24 15:25:30.865131,17
2021-09-24 15:25:30.865139,12
2021-09-24 15:25:30.865148,-2
2021-09-24 15:25:30.865157,-19
2021-09-24 15:25:30.865166,-24
2021-09-24 15:25:30.865174,-14
2021-09-24 15:25:30.865183,-17
2021-09-24 15:25:30.865192,-36
2021-09-24 15:25:30.865200,-31
2021-09-24 15:25:30.865206,-7
2021-09-24 15:25:30.865212,17
2021-09-24 15:25:30.865216,21
2021-09-24 15:25:30.865221,14
2021-09-24 15:25:30.865226,12
2021-09-24 15:25:30.865231,17
2021-09-24 15:25:30.865236,24
2021-09-24 15:25:30.865241,24
2021-09-24 15:25:30.865246,24
2021-09-24 15:25:30.865251,19
2021-09-24 15:25:30.865256,-7
2021-09-24 15:25:30.865261,-65
2021-09-24 15:25:30.865266,-221
2021-09-24 15:25:30.865271,-493
2021-09-24 15:25:30.865276,-638
2021-09-24 15:25:30.865281,-412
2021-09-24 15:25:30.865286,126
2021-09-24 15:25:30.865291,578
2021-09-24 15:25:30.865296,471
2021-09-24 15:25:31.179915,114
2021-09-24 15:25:31.179945,60
2021-09-24 15:25:31.179957,80
2021-09-24 15:25:31.179967,-51
2021-09-24 15:25:31.179977,-109
2021-09-24 15:25:31.179987,-70
2021-09-24 15:25:31.179997,-89
2021-09-24 15:25:31.180007,-123
2021-09-24 15:25:31.180017,-123
2021-09-24 15:25:31.180027,-138
2021-09-24 15:25:31.180036,-160
2021-09-24 15:25:31.180046,-165
2021-09-24 15:25:31.180056,-174
2021-09-24 15:25:31.180066,-189
2021-09-24 15:25:31.180076,-199
2021-09-24 15:25:31.180086,-221
2021-09-24 15:25:31.180096,-238
2021-09-24 15:25:31.180106,-250
2021-09-24 15:25:31.180117,-274
2021-09-24 15:25:31.180127,-306
2021-09-24 15:25:31.180137,-337
2021-09-24 15:25:31.180146,-376
2021-09-24 15:25:31.180156,-415
2021-09-24 15:25:31.180166,-437
2021-09-24 15:25:31.180176,-442
2021-09-24 15:25:31.180186,-444
2021-09-24 15:25:31.180196,-444
2021-09-24 15:25:31.180206,-420
2021-09-24 15:25:31.180216,-361
2021-09-24 15:25:31.180231,-281
2021-09-24 15:25:31.405530,-189
2021-09-24 15:25:31.405555,-89
2021-09-24 15:25:31.405563,-2
2021-09-24 15:25:31.405570,68
2021-09-24 15:25:31.405577,133
2021-09-24 15:25:31.405584,174
2021-09-24 15:25:31.405591,194
2021-09-24 15:25:31.405597,201
2021-09-24 15:25:31.405604,199
2021-09-24 15:25:31.405611,199
2021-09-24 15:25:31.405618,206
2021-09-24 15:25:31.405625,204
2021-09-24 15:25:31.405632,194
2021-09-24 15:25:31.405639,184
2021-09-24 15:25:31.405677,172
2021-09-24 15:25:31.405684,150
2021-09-24 15:25:31.405691,140
2021-09-24 15:25:31.405698,138
2021-09-24 15:25:31.405705,128
2021-09-24 15:25:31.405711,116
2021-09-24 15:25:31.405718,106
2021-09-24 15:25:31.405725,97
2021-09-24 15:25:31.405732,94
2021-09-24 15:25:31.405738,97
2021-09-24 15:25:31.405745,94
2021-09-24 15:25:31.405752,87
2021-09-24 15:25:31.405759,82
2021-09-24 15:25:31.405765,82
2021-09-24 15:25:31.405772,87
2021-09-24 15:25:31.405779,94
2021-09-24 15:25:31.674368,94
2021-09-24 15:25:31.674397,85
2021-09-24 15:25:31.674410,80
2021-09-24 15:25:31.674420,82
2021-09-24 15:25:31.674431,82
2021-09-24 15:25:31.674441,77
2021-09-24 15:25:31.674451,80
2021-09-24 15:25:31.674461,80
2021-09-24 15:25:31.674471,70
2021-09-24 15:25:31.674481,63
2021-09-24 15:25:31.674491,65
2021-09-24 15:25:31.674501,70
2021-09-24 15:25:31.674511,68
2021-09-24 15:25:31.674521,63
2021-09-24 15:25:31.674531,63
2021-09-24 15:25:31.674541,65
2021-09-24 15:25:31.674551,65
2021-09-24 15:25:31.674561,63
2021-09-24 15:25:31.674571,60
2021-09-24 15:25:31.674581,53
2021-09-24 15:25:31.674591,53
2021-09-24 15:25:31.674601,63
2021-09-24 15:25:31.674611,63
2021-09-24 15:25:31.674621,53
2021-09-24 15:25:31.674631,38
2021-09-24 15:25:31.674641,21
2021-09-24 15:25:31.674651,9
2021-09-24 15:25:31.674661,-2
2021-09-24 15:25:31.674671,-12
2021-09-24 15:25:31.674681,2
2021-09-24 15:25:31.810495,26
2021-09-24 15:25:31.810516,31
2021-09-24 15:25:31.810524,24
2021-09-24 15:25:31.810531,24
2021-09-24 15:25:31.810538,29
2021-09-24 15:25:31.810544,21
2021-09-24 15:25:31.810551,12
2021-09-24 15:25:31.810557,4
2021-09-24 15:25:31.810564,4
2021-09-24 15:25:31.810571,-2
2021-09-24 15:25:31.810577,-29
2021-09-24 15:25:31.810584,-80
2021-09-24 15:25:31.810591,-225
2021-09-24 15:25:31.810597,-471
2021-09-24 15:25:31.810604,-558
2021-09-24 15:25:31.810610,-284
2021-09-24 15:25:31.810617,252
2021-09-24 15:25:31.810624,626
2021-09-24 15:25:31.810630,442
2021-09-24 15:25:31.810637,92
2021-09-24 15:25:31.810643,63
2021-09-24 15:25:31.810650,68
2021-09-24 15:25:31.810657,-63
2021-09-24 15:25:31.810663,-106
2021-09-24 15:25:31.810670,-72
2021-09-24 15:25:31.810677,-94
2021-09-24 15:25:31.810683,-123
2021-09-24 15:25:31.810690,-116
2021-09-24 15:25:31.810696,-109
2021-09-24 15:25:31.810703,-99
2021-09-24 15:25:32.035604,-97
2021-09-24 15:25:32.035636,-111
2021-09-24 15:25:32.035648,-128
2021-09-24 15:25:32.035658,-143
2021-09-24 15:25:32.035700,-160
2021-09-24 15:25:32.035710,-179
2021-09-24 15:25:32.035720,-208
2021-09-24 15:25:32.035730,-247
2021-09-24 15:25:32.035740,-281
2021-09-24 15:25:32.035749,-306
2021-09-24 15:25:32.035759,-327
2021-09-24 15:25:32.035769,-357
2021-09-24 15:25:32.035779,-386
2021-09-24 15:25:32.035789,-403
2021-09-24 15:25:32.035799,-408
2021-09-24 15:25:32.035809,-395
2021-09-24 15:25:32.035818,-361
2021-09-24 15:25:32.035828,-308
2021-09-24 15:25:32.035838,-228
2021-09-24 15:25:32.035848,-126
2021-09-24 15:25:32.035858,-24
2021-09-24 15:25:32.035868,68
2021-09-24 15:25:32.035878,145
2021-09-24 15:25:32.035888,199
2021-09-24 15:25:32.035898,230
2021-09-24 15:25:32.035908,250
2021-09-24 15:25:32.035918,259
2021-09-24 15:25:32.035928,259
2021-09-24 15:25:32.035938,255
2021-09-24 15:25:32.035948,252
2021-09-24 15:25:32.305575,245
2021-09-24 15:25:32.305598,230
2021-09-24 15:25:32.305606,216
2021-09-24 15:25:32.305613,196
2021-09-24 15:25:32.305620,184
2021-09-24 15:25:32.305626,170
2021-09-24 15:25:32.305633,145
2021-09-24 15:25:32.305639,138
2021-09-24 15:25:32.305646,136
2021-09-24 15:25:32.305652,123
2021-09-24 15:25:32.305659,114
2021-09-24 15:25:32.305665,106
2021-09-24 15:25:32.305672,102
2021-09-24 15:25:32.305678,106
2021-09-24 15:25:32.305685,109
2021-09-24 15:25:32.305692,102
2021-09-24 15:25:32.305698,104
2021-09-24 15:25:32.305705,114
2021-09-24 15:25:32.305711,114
2021-09-24 15:25:32.305718,114
2021-09-24 15:25:32.305725,114
2021-09-24 15:25:32.305731,109
2021-09-24 15:25:32.305738,109
2021-09-24 15:25:32.305744,114
2021-09-24 15:25:32.305751,111
2021-09-24 15:25:32.305757,109
2021-09-24 15:25:32.305795,116
2021-09-24 15:25:32.305801,116
2021-09-24 15:25:32.305808,111
2021-09-24 15:25:32.305814,106
2021-09-24 15:25:32.530473,109
2021-09-24 15:25:32.530495,106
2021-09-24 15:25:32.530503,99
2021-09-24 15:25:32.530509,97
2021-09-24 15:25:32.530516,92
2021-09-24 15:25:32.530522,80
2021-09-24 15:25:32.530529,75
2021-09-24 15:25:32.530535,82
2021-09-24 15:25:32.530542,87
2021-09-24 15:25:32.530548,85
2021-09-24 15:25:32.530555,75
2021-09-24 15:25:32.530561,51
2021-09-24 15:25:32.530568,24
2021-09-24 15:25:32.530574,21
2021-09-24 15:25:32.530580,29
2021-09-24 15:25:32.530587,17
2021-09-24 15:25:32.530593,19
2021-09-24 15:25:32.530600,43
2021-09-24 15:25:32.530606,55
2021-09-24 15:25:32.530613,58
2021-09-24 15:25:32.530619,58
2021-09-24 15:25:32.530626,55
2021-09-24 15:25:32.530632,51
2021-09-24 15:25:32.530639,51
2021-09-24 15:25:32.530645,53
2021-09-24 15:25:32.530651,53
2021-09-24 15:25:32.530658,46
2021-09-24 15:25:32.530664,17
2021-09-24 15:25:32.530671,-43
2021-09-24 15:25:32.530677,-187
2021-09-24 15:25:32.710619,-432
2021-09-24 15:25:32.710649,-541
2021-09-24 15:25:32.710661,-301
2021-09-24 15:25:32.710671,191
2021-09-24 15:25:32.710681,597
2021-09-24 15:25:32.710691,505
2021-09-24 15:25:32.710701,155
2021-09-24 15:25:32.710711,85
2021-09-24 15:25:32.710721,89
2021-09-24 15:25:32.710731,-53
2021-09-24 15:25:32.710741,-111
2021-09-24 15:25:32.710751,-70
2021-09-24 15:25:32.710761,-87
2021-09-24 15:25:32.710771,-126
2021-09-24 15:25:32.710781,-131
2021-09-24 15:25:32.710791,-140
2021-09-24 15:25:32.710800,-160
2021-09-24 15:25:32.710810,-165
2021-09-24 15:25:32.710820,-167
2021-09-24 15:25:32.710830,-177
2021-09-24 15:25:32.710840,-194
2021-09-24 15:25:32.710850,-213
2021-09-24 15:25:32.710860,-235
2021-09-24 15:25:32.710870,-250
2021-09-24 15:25:32.710880,-269
2021-09-24 15:25:32.710890,-301
2021-09-24 15:25:32.710900,-335
2021-09-24 15:25:32.710910,-371
2021-09-24 15:25:32.710924,-398
2021-09-24 15:25:32.710934,-415
2021-09-24 15:25:33.025002,-422
2021-09-24 15:25:33.025022,-425
2021-09-24 15:25:33.025029,-420
2021-09-24 15:25:33.025035,-405
2021-09-24 15:25:33.025040,-376
2021-09-24 15:25:33.025045,-303
2021-09-24 15:25:33.025051,-201
2021-09-24 15:25:33.025056,-97
2021-09-24 15:25:33.025061,-14
2021-09-24 15:25:33.025066,51
2021-09-24 15:25:33.025072,102
2021-09-24 15:25:33.025077,140
2021-09-24 15:25:33.025082,162
2021-09-24 15:25:33.025087,172
2021-09-24 15:25:33.025093,174
2021-09-24 15:25:33.025098,170
2021-09-24 15:25:33.025103,160
2021-09-24 15:25:33.025108,160
2021-09-24 15:25:33.025113,165
2021-09-24 15:25:33.025119,162
2021-09-24 15:25:33.025124,157
2021-09-24 15:25:33.025129,157
2021-09-24 15:25:33.025134,153
2021-09-24 15:25:33.025139,140
2021-09-24 15:25:33.025145,133
2021-09-24 15:25:33.025150,128
2021-09-24 15:25:33.025155,119
2021-09-24 15:25:33.025160,109
2021-09-24 15:25:33.025166,106
2021-09-24 15:25:33.025171,106
2021-09-24 15:25:33.206878,104
2021-09-24 15:25:33.206904,104
2021-09-24 15:25:33.206917,102
2021-09-24 15:25:33.206961,94
2021-09-24 15:25:33.206972,92
2021-09-24 15:25:33.206983,97
2021-09-24 15:25:33.206994,97
2021-09-24 15:25:33.207005,97
2021-09-24 15:25:33.207012,89
2021-09-24 15:25:33.207018,82
2021-09-24 15:25:33.207025,85
2021-09-24 15:25:33.207031,89
2021-09-24 15:25:33.207038,87
2021-09-24 15:25:33.207044,80
2021-09-24 15:25:33.207051,70
2021-09-24 15:25:33.207057,63
2021-09-24 15:25:33.207063,65
2021-09-24 15:25:33.207070,68
2021-09-24 15:25:33.207077,63
2021-09-24 15:25:33.207083,60
2021-09-24 15:25:33.207089,55
2021-09-24 15:25:33.207096,48
2021-09-24 15:25:33.207102,53
2021-09-24 15:25:33.207109,60
2021-09-24 15:25:33.207115,60
2021-09-24 15:25:33.207122,58
2021-09-24 15:25:33.207128,53
2021-09-24 15:25:33.207135,51
2021-09-24 15:25:33.207141,51
2021-09-24 15:25:33.207148,55
2021-09-24 15:25:33.520506,60
2021-09-24 15:25:33.520537,58
2021-09-24 15:25:33.520550,46
2021-09-24 15:25:33.520560,26
2021-09-24 15:25:33.520570,19
2021-09-24 15:25:33.520580,29
2021-09-24 15:25:33.520590,26
2021-09-24 15:25:33.520600,14
2021-09-24 15:25:33.520610,17
2021-09-24 15:25:33.520620,34
2021-09-24 15:25:33.520630,51
2021-09-24 15:25:33.520641,58
2021-09-24 15:25:33.520650,53
2021-09-24 15:25:33.520661,48
2021-09-24 15:25:33.520671,46
2021-09-24 15:25:33.520681,48
2021-09-24 15:25:33.520691,48
2021-09-24 15:25:33.520701,46
2021-09-24 15:25:33.520711,38
2021-09-24 15:25:33.520721,0
2021-09-24 15:25:33.520808,-87
2021-09-24 15:25:33.520853,-279
2021-09-24 15:25:33.520918,-522
2021-09-24 15:25:33.520973,-536
2021-09-24 15:25:33.520991,-211
2021-09-24 15:25:33.521016,310
2021-09-24 15:25:33.521023,638
2021-09-24 15:25:33.521031,427
2021-09-24 15:25:33.521043,106
2021-09-24 15:25:33.521050,94
2021-09-24 15:25:33.699530,72
2021-09-24 15:25:33.699550,-55
2021-09-24 15:25:33.699556,-70
2021-09-24 15:25:33.699561,-43
2021-09-24 15:25:33.699567,-75
2021-09-24 15:25:33.699572,-92
2021-09-24 15:25:33.699577,-92
2021-09-24 15:25:33.699582,-116
2021-09-24 15:25:33.699587,-138
2021-09-24 15:25:33.699593,-140
2021-09-24 15:25:33.699598,-153
2021-09-24 15:25:33.699603,-174
2021-09-24 15:25:33.699608,-201
2021-09-24 15:25:33.699614,-235
2021-09-24 15:25:33.699619,-259
2021-09-24 15:25:33.699624,-274
2021-09-24 15:25:33.699630,-298
2021-09-24 15:25:33.699635,-332
2021-09-24 15:25:33.699640,-361
2021-09-24 15:25:33.699645,-398
2021-09-24 15:25:33.699650,-439
2021-09-24 15:25:33.699656,-468
2021-09-24 15:25:33.699661,-478
2021-09-24 15:25:33.699666,-476
2021-09-24 15:25:33.699671,-463
2021-09-24 15:25:33.699677,-432
2021-09-24 15:25:33.699682,-366
2021-09-24 15:25:33.699687,-274
2021-09-24 15:25:33.699692,-165
2021-09-24 15:25:33.699697,-60
2021-09-24 15:25:33.879852,26
2021-09-24 15:25:33.879868,89
2021-09-24 15:25:33.879875,138
2021-09-24 15:25:33.879880,172
2021-09-24 15:25:33.879885,191
2021-09-24 15:25:33.879891,199
2021-09-24 15:25:33.879896,196
2021-09-24 15:25:33.879901,191
2021-09-24 15:25:33.879906,187
2021-09-24 15:25:33.879911,182
2021-09-24 15:25:33.879916,177
2021-09-24 15:25:33.879922,172
2021-09-24 15:25:33.879927,157
2021-09-24 15:25:33.879932,145
2021-09-24 15:25:33.879937,138
2021-09-24 15:25:33.879942,131
2021-09-24 15:25:33.879947,119
2021-09-24 15:25:33.879953,106
2021-09-24 15:25:33.879958,92
2021-09-24 15:25:33.879963,80
2021-09-24 15:25:33.879968,72
2021-09-24 15:25:33.879973,68
2021-09-24 15:25:33.879978,70
2021-09-24 15:25:33.879984,68
2021-09-24 15:25:33.879989,58
2021-09-24 15:25:33.879994,55
2021-09-24 15:25:33.879999,60
2021-09-24 15:25:33.880004,60
2021-09-24 15:25:33.880009,60
2021-09-24 15:25:33.880015,63
2021-09-24 15:25:34.104842,60
2021-09-24 15:25:34.104858,63
2021-09-24 15:25:34.104864,68
2021-09-24 15:25:34.104868,72
2021-09-24 15:25:34.104873,77
2021-09-24 15:25:34.104878,75
2021-09-24 15:25:34.104882,70
2021-09-24 15:25:34.104887,75
2021-09-24 15:25:34.104891,77
2021-09-24 15:25:34.104895,72
2021-09-24 15:25:34.104900,72
2021-09-24 15:25:34.104904,70
2021-09-24 15:25:34.104909,60
2021-09-24 15:25:34.104913,58
2021-09-24 15:25:34.104918,60
2021-09-24 15:25:34.104922,55
2021-09-24 15:25:34.104927,58
2021-09-24 15:25:34.104931,60
2021-09-24 15:25:34.104936,58
2021-09-24 15:25:34.104940,58
2021-09-24 15:25:34.104945,55
2021-09-24 15:25:34.104950,53
2021-09-24 15:25:34.104954,55
2021-09-24 15:25:34.104959,60
2021-09-24 15:25:34.104963,60
2021-09-24 15:25:34.104968,46
2021-09-24 15:25:34.104972,17
2021-09-24 15:25:34.104977,0
2021-09-24 15:25:34.104981,9
2021-09-24 15:25:34.104986,7
2021-09-24 15:25:34.420033,-2
2021-09-24 15:25:34.420056,9
2021-09-24 15:25:34.420064,31
2021-09-24 15:25:34.420071,43
2021-09-24 15:25:34.420077,46
2021-09-24 15:25:34.420084,38
2021-09-24 15:25:34.420090,36
2021-09-24 15:25:34.420097,43
2021-09-24 15:25:34.420103,43
2021-09-24 15:25:34.420110,43
2021-09-24 15:25:34.420116,41
2021-09-24 15:25:34.420123,31
2021-09-24 15:25:34.420129,14
2021-09-24 15:25:34.420136,-24
2021-09-24 15:25:34.420142,-148
2021-09-24 15:25:34.420149,-400
2021-09-24 15:25:34.420155,-600
2021-09-24 15:25:34.420162,-466
2021-09-24 15:25:34.420169,-7
2021-09-24 15:25:34.420175,512
2021-09-24 15:25:34.420182,602
2021-09-24 15:25:34.420188,240
2021-09-24 15:25:34.420195,55
2021-09-24 15:25:34.420201,99
2021-09-24 15:25:34.420208,9
2021-09-24 15:25:34.420214,-75
2021-09-24 15:25:34.420221,-43
2021-09-24 15:25:34.420227,-51
2021-09-24 15:25:34.420234,-94
2021-09-24 15:25:34.420240,-99
2021-09-24 15:25:34.555585,-102
2021-09-24 15:25:34.555609,-119
2021-09-24 15:25:34.555617,-133
2021-09-24 15:25:34.555624,-143
2021-09-24 15:25:34.555631,-160
2021-09-24 15:25:34.555637,-177
2021-09-24 15:25:34.555644,-187
2021-09-24 15:25:34.555650,-204
2021-09-24 15:25:34.555657,-225
2021-09-24 15:25:34.555663,-255
2021-09-24 15:25:34.555670,-289
2021-09-24 15:25:34.555676,-320
2021-09-24 15:25:34.555683,-347
2021-09-24 15:25:34.555689,-374
2021-09-24 15:25:34.555696,-398
2021-09-24 15:25:34.555702,-425
2021-09-24 15:25:34.555709,-442
2021-09-24 15:25:34.555715,-434
2021-09-24 15:25:34.555722,-403
2021-09-24 15:25:34.555728,-352
2021-09-24 15:25:34.555735,-279
2021-09-24 15:25:34.555741,-182
2021-09-24 15:25:34.555748,-77
2021-09-24 15:25:34.555758,17
2021-09-24 15:25:34.555764,89
2021-09-24 15:25:34.555771,138
2021-09-24 15:25:34.555777,172
2021-09-24 15:25:34.555784,196
2021-09-24 15:25:34.555790,204
2021-09-24 15:25:34.555797,206
2021-09-24 15:25:34.825603,199
2021-09-24 15:25:34.825624,184
2021-09-24 15:25:34.825632,172
2021-09-24 15:25:34.825639,162
2021-09-24 15:25:34.825645,155
2021-09-24 15:25:34.825652,150
2021-09-24 15:25:34.825658,145
2021-09-24 15:25:34.825665,138
2021-09-24 15:25:34.825671,121
2021-09-24 15:25:34.825678,99
2021-09-24 15:25:34.825684,80
2021-09-24 15:25:34.825691,72
2021-09-24 15:25:34.825697,72
2021-09-24 15:25:34.825704,65
2021-09-24 15:25:34.825711,58
2021-09-24 15:25:34.825717,53
2021-09-24 15:25:34.825724,46
2021-09-24 15:25:34.825730,43
2021-09-24 15:25:34.825737,51
2021-09-24 15:25:34.825743,58
2021-09-24 15:25:34.825750,58
2021-09-24 15:25:34.825756,51
2021-09-24 15:25:34.825763,51
2021-09-24 15:25:34.825769,58
2021-09-24 15:25:34.825776,60
2021-09-24 15:25:34.825782,55
2021-09-24 15:25:34.825789,55
2021-09-24 15:25:34.825795,53
2021-09-24 15:25:34.825802,48
2021-09-24 15:25:34.825808,48
2021-09-24 15:25:35.098003,51
2021-09-24 15:25:35.098029,51
2021-09-24 15:25:35.098041,46
2021-09-24 15:25:35.098051,43
2021-09-24 15:25:35.098061,53
2021-09-24 15:25:35.098071,60
2021-09-24 15:25:35.098080,55
2021-09-24 15:25:35.098090,48
2021-09-24 15:25:35.098100,43
2021-09-24 15:25:35.098109,36
2021-09-24 15:25:35.098119,29
2021-09-24 15:25:35.098129,4
2021-09-24 15:25:35.098139,-26
2021-09-24 15:25:35.098148,-2
2021-09-24 15:25:35.098158,43
2021-09-24 15:25:35.098168,38
2021-09-24 15:25:35.098178,34
2021-09-24 15:25:35.098188,48
2021-09-24 15:25:35.098197,48
2021-09-24 15:25:35.098207,48
2021-09-24 15:25:35.098217,43
2021-09-24 15:25:35.098227,29
2021-09-24 15:25:35.098237,12
2021-09-24 15:25:35.098247,7
2021-09-24 15:25:35.098256,19
2021-09-24 15:25:35.098266,21
2021-09-24 15:25:35.098276,9
2021-09-24 15:25:35.098286,12
2021-09-24 15:25:35.098295,31
2021-09-24 15:25:35.098305,43
2021-09-24 15:25:35.276181,51
2021-09-24 15:25:35.276218,51
2021-09-24 15:25:35.276240,41
2021-09-24 15:25:35.276247,34
2021-09-24 15:25:35.276254,34
2021-09-24 15:25:35.276261,36
2021-09-24 15:25:35.276268,41
2021-09-24 15:25:35.276275,38
2021-09-24 15:25:35.276281,14
2021-09-24 15:25:35.276287,-29
2021-09-24 15:25:35.276294,-133
2021-09-24 15:25:35.276300,-371
2021-09-24 15:25:35.276306,-600
2021-09-24 15:25:35.276313,-527
2021-09-24 15:25:35.276319,-102
2021-09-24 15:25:35.276326,442
2021-09-24 15:25:35.276333,612
2021-09-24 15:25:35.276339,279
2021-09-24 15:25:35.276345,55
2021-09-24 15:25:35.276352,85
2021-09-24 15:25:35.276359,0
2021-09-24 15:25:35.276365,-102
2021-09-24 15:25:35.276371,-75
2021-09-24 15:25:35.276377,-65
2021-09-24 15:25:35.276384,-106
2021-09-24 15:25:35.276391,-111
2021-09-24 15:25:35.276397,-109
2021-09-24 15:25:35.276402,-126
2021-09-24 15:25:35.276408,-136
2021-09-24 15:25:35.276415,-136
2021-09-24 15:25:35.500602,-145
2021-09-24 15:25:35.500625,-160
2021-09-24 15:25:35.500633,-177
2021-09-24 15:25:35.500640,-196
2021-09-24 15:25:35.500647,-216
2021-09-24 15:25:35.500654,-238
2021-09-24 15:25:35.500661,-269
2021-09-24 15:25:35.500668,-310
2021-09-24 15:25:35.500675,-344
2021-09-24 15:25:35.500682,-371
2021-09-24 15:25:35.500689,-395
2021-09-24 15:25:35.500696,-412
2021-09-24 15:25:35.500703,-420
2021-09-24 15:25:35.500710,-427
2021-09-24 15:25:35.500717,-417
2021-09-24 15:25:35.500724,-374
2021-09-24 15:25:35.500731,-303
2021-09-24 15:25:35.500738,-213
2021-09-24 15:25:35.500745,-109
2021-09-24 15:25:35.500751,-14
2021-09-24 15:25:35.500759,63
2021-09-24 15:25:35.500766,128
2021-09-24 15:25:35.500773,177
2021-09-24 15:25:35.500780,204
2021-09-24 15:25:35.500787,218
2021-09-24 15:25:35.500794,221
2021-09-24 15:25:35.500801,221
2021-09-24 15:25:35.500807,218
2021-09-24 15:25:35.500814,211
2021-09-24 15:25:35.500821,201
2021-09-24 15:25:35.769224,184
2021-09-24 15:25:35.769249,172
2021-09-24 15:25:35.769257,160
2021-09-24 15:25:35.769264,145
2021-09-24 15:25:35.769270,136
2021-09-24 15:25:35.769276,126
2021-09-24 15:25:35.769283,114
2021-09-24 15:25:35.769289,102
2021-09-24 15:25:35.769296,92
2021-09-24 15:25:35.769302,87
2021-09-24 15:25:35.769309,85
2021-09-24 15:25:35.769315,85
2021-09-24 15:25:35.769321,80
2021-09-24 15:25:35.769328,65
2021-09-24 15:25:35.769334,53
2021-09-24 15:25:35.769341,51
2021-09-24 15:25:35.769347,55
2021-09-24 15:25:35.769354,58
2021-09-24 15:25:35.769360,58
2021-09-24 15:25:35.769366,58
2021-09-24 15:25:35.769373,63
2021-09-24 15:25:35.769379,65
2021-09-24 15:25:35.769386,70
2021-09-24 15:25:35.769392,70
2021-09-24 15:25:35.769399,63
2021-09-24 15:25:35.769405,63
2021-09-24 15:25:35.769412,63
2021-09-24 15:25:35.769418,58
2021-09-24 15:25:35.769425,58
2021-09-24 15:25:35.769431,58
2021-09-24 15:25:35.949903,58
2021-09-24 15:25:35.949921,60
2021-09-24 15:25:35.949928,60
2021-09-24 15:25:35.949934,51
2021-09-24 15:25:35.949940,48
2021-09-24 15:25:35.949945,53
2021-09-24 15:25:35.949951,51
2021-09-24 15:25:35.949957,51
2021-09-24 15:25:35.949962,53
2021-09-24 15:25:35.949968,51
2021-09-24 15:25:35.949974,38
2021-09-24 15:25:35.949979,26
2021-09-24 15:25:35.949985,21
2021-09-24 15:25:35.949991,26
2021-09-24 15:25:35.949999,29
2021-09-24 15:25:35.950005,34
2021-09-24 15:25:35.950010,55
2021-09-24 15:25:35.950016,63
2021-09-24 15:25:35.950021,46
2021-09-24 15:25:35.950027,31
2021-09-24 15:25:35.950033,31
2021-09-24 15:25:35.950038,34
2021-09-24 15:25:35.950044,26
2021-09-24 15:25:35.950050,24
2021-09-24 15:25:35.950055,36
2021-09-24 15:25:35.950061,58
2021-09-24 15:25:35.950067,70
2021-09-24 15:25:35.950072,70
2021-09-24 15:25:35.950078,68
2021-09-24 15:25:35.950084,70
2021-09-24 15:25:36.175143,70
2021-09-24 15:25:36.175165,70
2021-09-24 15:25:36.175173,68
2021-09-24 15:25:36.175180,63
2021-09-24 15:25:36.175187,51
2021-09-24 15:25:36.175194,24
2021-09-24 15:25:36.175200,-24
2021-09-24 15:25:36.175207,-165
2021-09-24 15:25:36.175214,-432
2021-09-24 15:25:36.175221,-602
2021-09-24 15:25:36.175228,-408
2021-09-24 15:25:36.175234,111
2021-09-24 15:25:36.175241,583
2021-09-24 15:25:36.175248,519
2021-09-24 15:25:36.175255,157
2021-09-24 15:25:36.175261,75
2021-09-24 15:25:36.175268,99
2021-09-24 15:25:36.175275,-21
2021-09-24 15:25:36.175282,-89
2021-09-24 15:25:36.175289,-63
2021-09-24 15:25:36.175295,-82
2021-09-24 15:25:36.175302,-114
2021-09-24 15:25:36.175309,-114
2021-09-24 15:25:36.175316,-119
2021-09-24 15:25:36.175322,-136
2021-09-24 15:25:36.175329,-143
2021-09-24 15:25:36.175336,-153
2021-09-24 15:25:36.175342,-172
2021-09-24 15:25:36.175349,-194
2021-09-24 15:25:36.175356,-216
2021-09-24 15:25:36.399836,-235
2021-09-24 15:25:36.399851,-257
2021-09-24 15:25:36.399857,-281
2021-09-24 15:25:36.399862,-306
2021-09-24 15:25:36.399867,-342
2021-09-24 15:25:36.399871,-376
2021-09-24 15:25:36.399876,-398
2021-09-24 15:25:36.399881,-417
2021-09-24 15:25:36.399885,-432
2021-09-24 15:25:36.399890,-432
2021-09-24 15:25:36.399894,-427
2021-09-24 15:25:36.399899,-408
2021-09-24 15:25:36.399903,-354
2021-09-24 15:25:36.399908,-272
2021-09-24 15:25:36.399913,-182
2021-09-24 15:25:36.399919,-94
2021-09-24 15:25:36.399924,-9
2021-09-24 15:25:36.399929,63
2021-09-24 15:25:36.399936,121
2021-09-24 15:25:36.399942,157
2021-09-24 15:25:36.399947,177
2021-09-24 15:25:36.399952,191
2021-09-24 15:25:36.399957,196
2021-09-24 15:25:36.399961,194
2021-09-24 15:25:36.399966,196
2021-09-24 15:25:36.399970,189
2021-09-24 15:25:36.399975,174
2021-09-24 15:25:36.399979,167
2021-09-24 15:25:36.399984,162
2021-09-24 15:25:36.399989,153
2021-09-24 15:25:36.625609,143
2021-09-24 15:25:36.625633,136
2021-09-24 15:25:36.625641,128
2021-09-24 15:25:36.625648,109
2021-09-24 15:25:36.625655,94
2021-09-24 15:25:36.625661,85
2021-09-24 15:25:36.625668,72
2021-09-24 15:25:36.625675,65
2021-09-24 15:25:36.625682,68
2021-09-24 15:25:36.625688,63
2021-09-24 15:25:36.625695,53
2021-09-24 15:25:36.625702,55
2021-09-24 15:25:36.625709,68
2021-09-24 15:25:36.625715,72
2021-09-24 15:25:36.625722,85
2021-09-24 15:25:36.625729,106
2021-09-24 15:25:36.625736,119
2021-09-24 15:25:36.625747,114
2021-09-24 15:25:36.625754,109
2021-09-24 15:25:36.625760,114
2021-09-24 15:25:36.625799,111
2021-09-24 15:25:36.625806,99
2021-09-24 15:25:36.625813,97
2021-09-24 15:25:36.625820,104
2021-09-24 15:25:36.625827,102
2021-09-24 15:25:36.625833,92
2021-09-24 15:25:36.625840,89
2021-09-24 15:25:36.625847,92
2021-09-24 15:25:36.625854,89
2021-09-24 15:25:36.625860,94
2021-09-24 15:25:36.985630,99
2021-09-24 15:25:36.985654,94
2021-09-24 15:25:36.985662,87
2021-09-24 15:25:36.985670,72
2021-09-24 15:25:36.985676,68
2021-09-24 15:25:36.985683,72
2021-09-24 15:25:36.985690,77
2021-09-24 15:25:36.985697,80
2021-09-24 15:25:36.985704,72
2021-09-24 15:25:36.985711,48
2021-09-24 15:25:36.985717,31
2021-09-24 15:25:36.985724,34
2021-09-24 15:25:36.985731,43
2021-09-24 15:25:36.985770,36
2021-09-24 15:25:36.985777,29
2021-09-24 15:25:36.985783,46
2021-09-24 15:25:36.985790,70
2021-09-24 15:25:36.985797,80
2021-09-24 15:25:36.985804,75
2021-09-24 15:25:36.985811,68
2021-09-24 15:25:36.985818,58
2021-09-24 15:25:36.985824,55
2021-09-24 15:25:36.985831,60
2021-09-24 15:25:36.985838,65
2021-09-24 15:25:36.985845,63
2021-09-24 15:25:36.985851,53
2021-09-24 15:25:36.985858,17
2021-09-24 15:25:36.985865,-68
2021-09-24 15:25:36.985872,-259
2021-09-24 15:25:36.985879,-497
2021-09-24 15:25:37.120310,-500
2021-09-24 15:25:37.120332,-138
2021-09-24 15:25:37.120339,400
2021-09-24 15:25:37.120347,653
2021-09-24 15:25:37.120353,376
2021-09-24 15:25:37.120360,104
2021-09-24 15:25:37.120366,123
2021-09-24 15:25:37.120373,82
2021-09-24 15:25:37.120379,-43
2021-09-24 15:25:37.120386,-48
2021-09-24 15:25:37.120392,-24
2021-09-24 15:25:37.120399,-53
2021-09-24 15:25:37.120405,-70
2021-09-24 15:25:37.120411,-75
2021-09-24 15:25:37.120418,-97
2021-09-24 15:25:37.120424,-116
2021-09-24 15:25:37.120431,-116
2021-09-24 15:25:37.120437,-123
2021-09-24 15:25:37.120444,-143
2021-09-24 15:25:37.120450,-155
2021-09-24 15:25:37.120457,-177
2021-09-24 15:25:37.120463,-204
2021-09-24 15:25:37.120470,-228
2021-09-24 15:25:37.120476,-255
2021-09-24 15:25:37.120483,-286
2021-09-24 15:25:37.120489,-318
2021-09-24 15:25:37.120496,-361
2021-09-24 15:25:37.120502,-391
2021-09-24 15:25:37.120509,-398
2021-09-24 15:25:37.120515,-410
2021-09-24 15:25:37.345032,-422
2021-09-24 15:25:37.345052,-412
2021-09-24 15:25:37.345060,-371
2021-09-24 15:25:37.345067,-308
2021-09-24 15:25:37.345074,-216
2021-09-24 15:25:37.345080,-109
2021-09-24 15:25:37.345087,-14
2021-09-24 15:25:37.345093,58
2021-09-24 15:25:37.345100,111
2021-09-24 15:25:37.345107,162
2021-09-24 15:25:37.345113,196
2021-09-24 15:25:37.345120,201
2021-09-24 15:25:37.345126,196
2021-09-24 15:25:37.345133,194
2021-09-24 15:25:37.345139,191
2021-09-24 15:25:37.345146,187
2021-09-24 15:25:37.345152,179
2021-09-24 15:25:37.345159,165
2021-09-24 15:25:37.345165,153
2021-09-24 15:25:37.345172,138
2021-09-24 15:25:37.345178,126
2021-09-24 15:25:37.345185,123
2021-09-24 15:25:37.345191,116
2021-09-24 15:25:37.345198,102
2021-09-24 15:25:37.345204,94
2021-09-24 15:25:37.345211,97
2021-09-24 15:25:37.345217,89
2021-09-24 15:25:37.345224,77
2021-09-24 15:25:37.345230,77
2021-09-24 15:25:37.345237,82
2021-09-24 15:25:37.570040,80
2021-09-24 15:25:37.570060,77
2021-09-24 15:25:37.570068,82
2021-09-24 15:25:37.570074,85
2021-09-24 15:25:37.570081,82
2021-09-24 15:25:37.570087,82
2021-09-24 15:25:37.570094,80
2021-09-24 15:25:37.570100,72
2021-09-24 15:25:37.570106,70
2021-09-24 15:25:37.570113,70
2021-09-24 15:25:37.570119,70
2021-09-24 15:25:37.570125,72
2021-09-24 15:25:37.570132,68
2021-09-24 15:25:37.570138,60
2021-09-24 15:25:37.570145,60
2021-09-24 15:25:37.570151,60
2021-09-24 15:25:37.570157,60
2021-09-24 15:25:37.570164,58
2021-09-24 15:25:37.570170,55
2021-09-24 15:25:37.570176,53
2021-09-24 15:25:37.570183,53
2021-09-24 15:25:37.570189,53
2021-09-24 15:25:37.570196,58
2021-09-24 15:25:37.570202,58
2021-09-24 15:25:37.570208,55
2021-09-24 15:25:37.570215,51
2021-09-24 15:25:37.570221,43
2021-09-24 15:25:37.570228,46
2021-09-24 15:25:37.570234,51
2021-09-24 15:25:37.570240,48
2021-09-24 15:25:37.839365,41
2021-09-24 15:25:37.839394,34
2021-09-24 15:25:37.839406,38
2021-09-24 15:25:37.839416,36
2021-09-24 15:25:37.839426,21
2021-09-24 15:25:37.839436,-2
2021-09-24 15:25:37.839446,-24
2021-09-24 15:25:37.839456,-24
2021-09-24 15:25:37.839466,-17
2021-09-24 15:25:37.839475,-34
2021-09-24 15:25:37.839486,-46
2021-09-24 15:25:37.839495,-34
2021-09-24 15:25:37.839505,-21
2021-09-24 15:25:37.839515,-9
2021-09-24 15:25:37.839525,0
2021-09-24 15:25:37.839535,-2
2021-09-24 15:25:37.839545,-7
2021-09-24 15:25:37.839555,0
2021-09-24 15:25:37.839565,7
2021-09-24 15:25:37.839575,9
2021-09-24 15:25:37.839584,4
2021-09-24 15:25:37.839594,-12
2021-09-24 15:25:37.839604,-43
2021-09-24 15:25:37.839614,-136
2021-09-24 15:25:37.839625,-361
2021-09-24 15:25:37.839634,-583
2021-09-24 15:25:37.839644,-524
2021-09-24 15:25:37.839654,-148
2021-09-24 15:25:37.839664,376
2021-09-24 15:25:37.839674,587
2021-09-24 15:25:38.065530,279
2021-09-24 15:25:38.065552,43
2021-09-24 15:25:38.065560,87
2021-09-24 15:25:38.065567,19
2021-09-24 15:25:38.065574,-94
2021-09-24 15:25:38.065581,-77
2021-09-24 15:25:38.065588,-70
2021-09-24 15:25:38.065595,-106
2021-09-24 15:25:38.065602,-114
2021-09-24 15:25:38.065609,-111
2021-09-24 15:25:38.065616,-131
2021-09-24 15:25:38.065623,-150
2021-09-24 15:25:38.065630,-157
2021-09-24 15:25:38.065637,-165
2021-09-24 15:25:38.065643,-179
2021-09-24 15:25:38.065650,-196
2021-09-24 15:25:38.065657,-216
2021-09-24 15:25:38.065664,-238
2021-09-24 15:25:38.065671,-257
2021-09-24 15:25:38.065678,-276
2021-09-24 15:25:38.065685,-308
2021-09-24 15:25:38.065691,-337
2021-09-24 15:25:38.065698,-364
2021-09-24 15:25:38.065705,-393
2021-09-24 15:25:38.065712,-412
2021-09-24 15:25:38.065719,-417
2021-09-24 15:25:38.065725,-415
2021-09-24 15:25:38.065732,-391
2021-09-24 15:25:38.065739,-352
2021-09-24 15:25:38.065746,-298
2021-09-24 15:25:38.245698,-211
2021-09-24 15:25:38.245729,-106
2021-09-24 15:25:38.245741,-17
2021-09-24 15:25:38.245752,58
2021-09-24 15:25:38.245762,119
2021-09-24 15:25:38.245772,155
2021-09-24 15:25:38.245782,179
2021-09-24 15:25:38.245792,199
2021-09-24 15:25:38.245802,211
2021-09-24 15:25:38.245812,208
2021-09-24 15:25:38.245821,199
2021-09-24 15:25:38.245831,187
2021-09-24 15:25:38.245841,184
2021-09-24 15:25:38.245851,179
2021-09-24 15:25:38.245861,165
2021-09-24 15:25:38.245871,153
2021-09-24 15:25:38.245881,140
2021-09-24 15:25:38.245891,128
2021-09-24 15:25:38.245901,119
2021-09-24 15:25:38.245911,114
2021-09-24 15:25:38.245921,109
2021-09-24 15:25:38.245931,102
2021-09-24 15:25:38.245941,94
2021-09-24 15:25:38.245951,89
2021-09-24 15:25:38.245961,92
2021-09-24 15:25:38.245971,94
2021-09-24 15:25:38.245981,92
2021-09-24 15:25:38.245991,85
2021-09-24 15:25:38.246001,82
2021-09-24 15:25:38.246011,87
2021-09-24 15:25:38.560216,85
2021-09-24 15:25:38.560236,80
2021-09-24 15:25:38.560243,82
2021-09-24 15:25:38.560248,85
2021-09-24 15:25:38.560254,80
2021-09-24 15:25:38.560259,80
2021-09-24 15:25:38.560264,89
2021-09-24 15:25:38.560269,92
2021-09-24 15:25:38.560274,87
2021-09-24 15:25:38.560280,77
2021-09-24 15:25:38.560285,70
2021-09-24 15:25:38.560290,70
2021-09-24 15:25:38.560295,72
2021-09-24 15:25:38.560301,70
2021-09-24 15:25:38.560306,63
2021-09-24 15:25:38.560311,55
2021-09-24 15:25:38.560316,51
2021-09-24 15:25:38.560321,53
2021-09-24 15:25:38.560327,55
2021-09-24 15:25:38.560332,58
2021-09-24 15:25:38.560337,53
2021-09-24 15:25:38.560342,51
2021-09-24 15:25:38.560348,48
2021-09-24 15:25:38.560353,51
2021-09-24 15:25:38.560358,53
2021-09-24 15:25:38.560363,53
2021-09-24 15:25:38.560368,46
2021-09-24 15:25:38.560374,41
2021-09-24 15:25:38.560379,43
2021-09-24 15:25:38.560384,48
2021-09-24 15:25:38.740456,48
2021-09-24 15:25:38.740480,41
2021-09-24 15:25:38.740488,21
2021-09-24 15:25:38.740495,9
2021-09-24 15:25:38.740501,17
2021-09-24 15:25:38.740508,19
2021-09-24 15:25:38.740514,14
2021-09-24 15:25:38.740521,26
2021-09-24 15:25:38.740527,43
2021-09-24 15:25:38.740534,43
2021-09-24 15:25:38.740540,46
2021-09-24 15:25:38.740547,48
2021-09-24 15:25:38.740553,43
2021-09-24 15:25:38.740560,43
2021-09-24 15:25:38.740566,48
2021-09-24 15:25:38.740573,46
2021-09-24 15:25:38.740579,36
2021-09-24 15:25:38.740585,29
2021-09-24 15:25:38.740592,7
2021-09-24 15:25:38.740598,-65
2021-09-24 15:25:38.740605,-257
2021-09-24 15:25:38.740612,-529
2021-09-24 15:25:38.740618,-578
2021-09-24 15:25:38.740624,-267
2021-09-24 15:25:38.740631,262
2021-09-24 15:25:38.740637,629
2021-09-24 15:25:38.740644,446
2021-09-24 15:25:38.740650,104
2021-09-24 15:25:38.740657,77
2021-09-24 15:25:38.740663,70
2021-09-24 15:25:39.010799,-51
2021-09-24 15:25:39.010830,-68
2021-09-24 15:25:39.010842,-41
2021-09-24 15:25:39.010852,-77
2021-09-24 15:25:39.010862,-102
2021-09-24 15:25:39.010872,-102
2021-09-24 15:25:39.010882,-116
2021-09-24 15:25:39.010892,-126
2021-09-24 15:25:39.010902,-140
2021-09-24 15:25:39.010912,-165
2021-09-24 15:25:39.010922,-177
2021-09-24 15:25:39.010932,-187
2021-09-24 15:25:39.010942,-206
2021-09-24 15:25:39.010952,-230
2021-09-24 15:25:39.010968,-255
2021-09-24 15:25:39.010978,-286
2021-09-24 15:25:39.010988,-310
2021-09-24 15:25:39.010998,-335
2021-09-24 15:25:39.011008,-366
2021-09-24 15:25:39.011018,-393
2021-09-24 15:25:39.011028,-412
2021-09-24 15:25:39.011038,-422
2021-09-24 15:25:39.011048,-420
2021-09-24 15:25:39.011058,-408
2021-09-24 15:25:39.011068,-374
2021-09-24 15:25:39.011079,-318
2021-09-24 15:25:39.011089,-240
2021-09-24 15:25:39.011099,-143
2021-09-24 15:25:39.011109,-41
2021-09-24 15:25:39.011119,48
2021-09-24 15:25:39.190389,114
2021-09-24 15:25:39.190410,160
2021-09-24 15:25:39.190418,191
2021-09-24 15:25:39.190425,211
2021-09-24 15:25:39.190432,218
2021-09-24 15:25:39.190438,223
2021-09-24 15:25:39.190445,221
2021-09-24 15:25:39.190451,211
2021-09-24 15:25:39.190458,199
2021-09-24 15:25:39.190464,194
2021-09-24 15:25:39.190471,189
2021-09-24 15:25:39.190477,179
2021-09-24 15:25:39.190484,167
2021-09-24 15:25:39.190490,150
2021-09-24 15:25:39.190497,133
2021-09-24 15:25:39.190504,126
2021-09-24 15:25:39.190511,121
2021-09-24 15:25:39.190518,114
2021-09-24 15:25:39.190524,106
2021-09-24 15:25:39.190531,99
2021-09-24 15:25:39.190537,89
2021-09-24 15:25:39.190544,85
2021-09-24 15:25:39.190550,75
2021-09-24 15:25:39.190557,70
2021-09-24 15:25:39.190563,77
2021-09-24 15:25:39.190570,75
2021-09-24 15:25:39.190576,72
2021-09-24 15:25:39.190583,77
2021-09-24 15:25:39.190589,82
2021-09-24 15:25:39.190596,87
2021-09-24 15:25:39.415798,92
2021-09-24 15:25:39.415821,94
2021-09-24 15:25:39.415829,92
2021-09-24 15:25:39.415835,97
2021-09-24 15:25:39.415842,99
2021-09-24 15:25:39.415848,94
2021-09-24 15:25:39.415855,85
2021-09-24 15:25:39.415861,77
2021-09-24 15:25:39.415868,80
2021-09-24 15:25:39.415874,72
2021-09-24 15:25:39.415881,68
2021-09-24 15:25:39.415887,72
2021-09-24 15:25:39.415893,68
2021-09-24 15:25:39.415900,51
2021-09-24 15:25:39.415906,51
2021-09-24 15:25:39.415913,58
2021-09-24 15:25:39.415919,55
2021-09-24 15:25:39.415925,51
2021-09-24 15:25:39.415932,53
2021-09-24 15:25:39.415938,51
2021-09-24 15:25:39.415944,51
2021-09-24 15:25:39.415951,55
2021-09-24 15:25:39.415957,60
2021-09-24 15:25:39.415963,58
2021-09-24 15:25:39.415970,51
2021-09-24 15:25:39.415976,55
2021-09-24 15:25:39.415983,60
2021-09-24 15:25:39.415989,63
2021-09-24 15:25:39.415995,51
2021-09-24 15:25:39.416002,34
2021-09-24 15:25:39.640736,19
2021-09-24 15:25:39.640767,21
2021-09-24 15:25:39.640780,24
2021-09-24 15:25:39.640790,17
2021-09-24 15:25:39.640800,24
2021-09-24 15:25:39.640810,43
2021-09-24 15:25:39.640820,53
2021-09-24 15:25:39.640830,53
2021-09-24 15:25:39.640840,55
2021-09-24 15:25:39.640850,53
2021-09-24 15:25:39.640860,51
2021-09-24 15:25:39.640870,43
2021-09-24 15:25:39.640880,34
2021-09-24 15:25:39.640890,34
2021-09-24 15:25:39.640900,34
2021-09-24 15:25:39.640909,12
2021-09-24 15:25:39.640920,-38
2021-09-24 15:25:39.640930,-174
2021-09-24 15:25:39.640940,-437
2021-09-24 15:25:39.640950,-597
2021-09-24 15:25:39.640960,-408
2021-09-24 15:25:39.640970,77
2021-09-24 15:25:39.640980,558
2021-09-24 15:25:39.640990,563
2021-09-24 15:25:39.641000,196
2021-09-24 15:25:39.641010,65
2021-09-24 15:25:39.641020,97
2021-09-24 15:25:39.641029,-21
2021-09-24 15:25:39.641039,-99
2021-09-24 15:25:39.641049,-60
2021-09-24 15:25:39.909183,-70
2021-09-24 15:25:39.909207,-106
2021-09-24 15:25:39.909215,-106
2021-09-24 15:25:39.909222,-111
2021-09-24 15:25:39.909229,-131
2021-09-24 15:25:39.909236,-140
2021-09-24 15:25:39.909243,-153
2021-09-24 15:25:39.909250,-165
2021-09-24 15:25:39.909256,-179
2021-09-24 15:25:39.909263,-201
2021-09-24 15:25:39.909270,-225
2021-09-24 15:25:39.909277,-247
2021-09-24 15:25:39.909283,-276
2021-09-24 15:25:39.909290,-306
2021-09-24 15:25:39.909297,-337
2021-09-24 15:25:39.909304,-371
2021-09-24 15:25:39.909310,-398
2021-09-24 15:25:39.909317,-422
2021-09-24 15:25:39.909324,-437
2021-09-24 15:25:39.909331,-437
2021-09-24 15:25:39.909337,-429
2021-09-24 15:25:39.909344,-405
2021-09-24 15:25:39.909351,-359
2021-09-24 15:25:39.909358,-289
2021-09-24 15:25:39.909364,-194
2021-09-24 15:25:39.909371,-89
2021-09-24 15:25:39.909378,2
2021-09-24 15:25:39.909385,75
2021-09-24 15:25:39.909392,128
2021-09-24 15:25:39.909399,172
2021-09-24 15:25:40.180030,199
2021-09-24 15:25:40.180052,213
2021-09-24 15:25:40.180060,216
2021-09-24 15:25:40.180067,213
2021-09-24 15:25:40.180073,206
2021-09-24 15:25:40.180080,196
2021-09-24 15:25:40.180086,187
2021-09-24 15:25:40.180093,184
2021-09-24 15:25:40.180099,174
2021-09-24 15:25:40.180106,162
2021-09-24 15:25:40.180112,150
2021-09-24 15:25:40.180119,133
2021-09-24 15:25:40.180125,123
2021-09-24 15:25:40.180132,121
2021-09-24 15:25:40.180138,114
2021-09-24 15:25:40.180145,99
2021-09-24 15:25:40.180151,87
2021-09-24 15:25:40.180158,87
2021-09-24 15:25:40.180165,92
2021-09-24 15:25:40.180171,92
2021-09-24 15:25:40.180178,89
2021-09-24 15:25:40.180184,87
2021-09-24 15:25:40.180191,85
2021-09-24 15:25:40.180197,87
2021-09-24 15:25:40.180204,89
2021-09-24 15:25:40.180210,89
2021-09-24 15:25:40.180217,87
2021-09-24 15:25:40.180223,85
2021-09-24 15:25:40.180230,85
2021-09-24 15:25:40.180236,87
2021-09-24 15:25:40.315636,92
2021-09-24 15:25:40.315690,92
2021-09-24 15:25:40.315698,85
2021-09-24 15:25:40.315704,63
2021-09-24 15:25:40.315711,46
2021-09-24 15:25:40.315717,48
2021-09-24 15:25:40.315724,55
2021-09-24 15:25:40.315730,55
2021-09-24 15:25:40.315736,55
2021-09-24 15:25:40.315743,51
2021-09-24 15:25:40.315749,43
2021-09-24 15:25:40.315756,46
2021-09-24 15:25:40.315762,53
2021-09-24 15:25:40.315769,53
2021-09-24 15:25:40.315775,51
2021-09-24 15:25:40.315781,48
2021-09-24 15:25:40.315788,51
2021-09-24 15:25:40.315794,46
2021-09-24 15:25:40.315801,43
2021-09-24 15:25:40.315807,46
2021-09-24 15:25:40.315813,43
2021-09-24 15:25:40.315820,38
2021-09-24 15:25:40.315826,38
2021-09-24 15:25:40.315833,41
2021-09-24 15:25:40.315839,29
2021-09-24 15:25:40.315845,12
2021-09-24 15:25:40.315852,12
2021-09-24 15:25:40.315858,14
2021-09-24 15:25:40.315865,7
2021-09-24 15:25:40.315871,9
2021-09-24 15:25:40.630733,31
2021-09-24 15:25:40.630754,48
2021-09-24 15:25:40.630762,53
2021-09-24 15:25:40.630769,43
2021-09-24 15:25:40.630775,34
2021-09-24 15:25:40.630782,38
2021-09-24 15:25:40.630788,46
2021-09-24 15:25:40.630795,46
2021-09-24 15:25:40.630802,38
2021-09-24 15:25:40.630808,26
2021-09-24 15:25:40.630815,12
2021-09-24 15:25:40.630822,-14
2021-09-24 15:25:40.630828,-89
2021-09-24 15:25:40.630835,-296
2021-09-24 15:25:40.630842,-558
2021-09-24 15:25:40.630849,-575
2021-09-24 15:25:40.630855,-208
2021-09-24 15:25:40.630862,354
2021-09-24 15:25:40.630868,638
2021-09-24 15:25:40.630875,371
2021-09-24 15:25:40.630882,70
2021-09-24 15:25:40.630888,70
2021-09-24 15:25:40.630895,29
2021-09-24 15:25:40.630901,-85
2021-09-24 15:25:40.630908,-80
2021-09-24 15:25:40.630914,-55
2021-09-24 15:25:40.630921,-92
2021-09-24 15:25:40.630928,-109
2021-09-24 15:25:40.630935,-104
2021-09-24 15:25:40.630941,-121
2021-09-24 15:25:40.810524,-138
2021-09-24 15:25:40.810545,-143
2021-09-24 15:25:40.810553,-157
2021-09-24 15:25:40.810560,-182
2021-09-24 15:25:40.810566,-196
2021-09-24 15:25:40.810573,-208
2021-09-24 15:25:40.810579,-228
2021-09-24 15:25:40.810586,-250
2021-09-24 15:25:40.810593,-276
2021-09-24 15:25:40.810599,-318
2021-09-24 15:25:40.810606,-354
2021-09-24 15:25:40.810612,-376
2021-09-24 15:25:40.810619,-398
2021-09-24 15:25:40.810625,-422
2021-09-24 15:25:40.810632,-442
2021-09-24 15:25:40.810638,-446
2021-09-24 15:25:40.810645,-429
2021-09-24 15:25:40.810651,-395
2021-09-24 15:25:40.810658,-342
2021-09-24 15:25:40.810664,-257
2021-09-24 15:25:40.810671,-160
2021-09-24 15:25:40.810677,-70
2021-09-24 15:25:40.810684,12
2021-09-24 15:25:40.810690,85
2021-09-24 15:25:40.810697,138
2021-09-24 15:25:40.810704,172
2021-09-24 15:25:40.810710,187
2021-09-24 15:25:40.810717,194
2021-09-24 15:25:40.810723,199
2021-09-24 15:25:40.810729,201
2021-09-24 15:25:41.035594,196
2021-09-24 15:25:41.035616,191
2021-09-24 15:25:41.035624,182
2021-09-24 15:25:41.035631,170
2021-09-24 15:25:41.035638,165
2021-09-24 15:25:41.035645,157
2021-09-24 15:25:41.035651,148
2021-09-24 15:25:41.035658,136
2021-09-24 15:25:41.035664,121
2021-09-24 15:25:41.035671,114
2021-09-24 15:25:41.035677,109
2021-09-24 15:25:41.035684,109
2021-09-24 15:25:41.035690,106
2021-09-24 15:25:41.035697,99
2021-09-24 15:25:41.035703,92
2021-09-24 15:25:41.035710,89
2021-09-24 15:25:41.035716,92
2021-09-24 15:25:41.035723,94
2021-09-24 15:25:41.035729,97
2021-09-24 15:25:41.035736,97
2021-09-24 15:25:41.035742,97
2021-09-24 15:25:41.035749,99
2021-09-24 15:25:41.035755,99
2021-09-24 15:25:41.035762,94
2021-09-24 15:25:41.035768,89
2021-09-24 15:25:41.035775,87
2021-09-24 15:25:41.035781,87
2021-09-24 15:25:41.035788,87
2021-09-24 15:25:41.035794,89
2021-09-24 15:25:41.035801,89
2021-09-24 15:25:41.260736,89
2021-09-24 15:25:41.260767,87
2021-09-24 15:25:41.260779,85
2021-09-24 15:25:41.260789,82
2021-09-24 15:25:41.260800,80
2021-09-24 15:25:41.260810,80
2021-09-24 15:25:41.260820,75
2021-09-24 15:25:41.260829,65
2021-09-24 15:25:41.260839,63
2021-09-24 15:25:41.260849,63
2021-09-24 15:25:41.260859,63
2021-09-24 15:25:41.260869,65
2021-09-24 15:25:41.260879,60
2021-09-24 15:25:41.260889,51
2021-09-24 15:25:41.260899,41
2021-09-24 15:25:41.260909,31
2021-09-24 15:25:41.260919,29
2021-09-24 15:25:41.260929,36
2021-09-24 15:25:41.260939,34
2021-09-24 15:25:41.260949,19
2021-09-24 15:25:41.260959,2
2021-09-24 15:25:41.260969,-4
2021-09-24 15:25:41.260979,2
2021-09-24 15:25:41.260989,2
2021-09-24 15:25:41.260999,-2
2021-09-24 15:25:41.261009,9
2021-09-24 15:25:41.261020,24
2021-09-24 15:25:41.261029,34
2021-09-24 15:25:41.261039,41
2021-09-24 15:25:41.261049,38
2021-09-24 15:25:41.484941,38
2021-09-24 15:25:41.484958,41
2021-09-24 15:25:41.484964,43
2021-09-24 15:25:41.484970,43
2021-09-24 15:25:41.484975,43
2021-09-24 15:25:41.484981,36
2021-09-24 15:25:41.484986,4
2021-09-24 15:25:41.484991,-65
2021-09-24 15:25:41.484996,-235
2021-09-24 15:25:41.485002,-505
2021-09-24 15:25:41.485007,-600
2021-09-24 15:25:41.485012,-308
2021-09-24 15:25:41.485018,245
2021-09-24 15:25:41.485023,626
2021-09-24 15:25:41.485028,459
2021-09-24 15:25:41.485033,116
2021-09-24 15:25:41.485039,70
2021-09-24 15:25:41.485044,65
2021-09-24 15:25:41.485049,-55
2021-09-24 15:25:41.485057,-82
2021-09-24 15:25:41.485063,-48
2021-09-24 15:25:41.485068,-77
2021-09-24 15:25:41.485073,-102
2021-09-24 15:25:41.485079,-94
2021-09-24 15:25:41.485084,-106
2021-09-24 15:25:41.485089,-128
2021-09-24 15:25:41.485094,-138
2021-09-24 15:25:41.485099,-150
2021-09-24 15:25:41.485104,-172
2021-09-24 15:25:41.485110,-189
2021-09-24 15:25:41.710134,-199
2021-09-24 15:25:41.710151,-218
2021-09-24 15:25:41.710157,-240
2021-09-24 15:25:41.710163,-264
2021-09-24 15:25:41.710168,-293
2021-09-24 15:25:41.710173,-330
2021-09-24 15:25:41.710178,-371
2021-09-24 15:25:41.710183,-395
2021-09-24 15:25:41.710189,-415
2021-09-24 15:25:41.710194,-429
2021-09-24 15:25:41.710199,-434
2021-09-24 15:25:41.710204,-432
2021-09-24 15:25:41.710210,-412
2021-09-24 15:25:41.710215,-357
2021-09-24 15:25:41.710220,-276
2021-09-24 15:25:41.710225,-174
2021-09-24 15:25:41.710230,-72
2021-09-24 15:25:41.710236,14
2021-09-24 15:25:41.710241,82
2021-09-24 15:25:41.710246,138
2021-09-24 15:25:41.710251,170
2021-09-24 15:25:41.710256,174
2021-09-24 15:25:41.710261,177
2021-09-24 15:25:41.710267,187
2021-09-24 15:25:41.710272,187
2021-09-24 15:25:41.710277,182
2021-09-24 15:25:41.710282,177
2021-09-24 15:25:41.710287,167
2021-09-24 15:25:41.710292,157
2021-09-24 15:25:41.710298,148
2021-09-24 15:25:41.978681,133
2021-09-24 15:25:41.978698,126
2021-09-24 15:25:41.978704,121
2021-09-24 15:25:41.978710,111
2021-09-24 15:25:41.978715,102
2021-09-24 15:25:41.978720,92
2021-09-24 15:25:41.978725,87
2021-09-24 15:25:41.978730,87
2021-09-24 15:25:41.978736,85
2021-09-24 15:25:41.978741,82
2021-09-24 15:25:41.978746,77
2021-09-24 15:25:41.978751,70
2021-09-24 15:25:41.978756,70
2021-09-24 15:25:41.978761,75
2021-09-24 15:25:41.978766,77
2021-09-24 15:25:41.978771,77
2021-09-24 15:25:41.978776,77
2021-09-24 15:25:41.978782,75
2021-09-24 15:25:41.978787,75
2021-09-24 15:25:41.978792,80
2021-09-24 15:25:41.978797,77
2021-09-24 15:25:41.978802,72
2021-09-24 15:25:41.978807,72
2021-09-24 15:25:41.978812,70
2021-09-24 15:25:41.978817,65
2021-09-24 15:25:41.978822,65
2021-09-24 15:25:41.978827,65
2021-09-24 15:25:41.978832,63
2021-09-24 15:25:41.978838,58
2021-09-24 15:25:41.978843,60
2021-09-24 15:25:42.205013,63
2021-09-24 15:25:42.205037,55
2021-09-24 15:25:42.205047,48
2021-09-24 15:25:42.205057,43
2021-09-24 15:25:42.205066,38
2021-09-24 15:25:42.205075,36
2021-09-24 15:25:42.205084,43
2021-09-24 15:25:42.205092,41
2021-09-24 15:25:42.205101,36
2021-09-24 15:25:42.205111,31
2021-09-24 15:25:42.205119,29
2021-09-24 15:25:42.205127,26
2021-09-24 15:25:42.205136,31
2021-09-24 15:25:42.205145,34
2021-09-24 15:25:42.205155,31
2021-09-24 15:25:42.205163,26
2021-09-24 15:25:42.205172,21
2021-09-24 15:25:42.205181,29
2021-09-24 15:25:42.205191,60
2021-09-24 15:25:42.205199,68
2021-09-24 15:25:42.205208,53
2021-09-24 15:25:42.205217,63
2021-09-24 15:25:42.205226,89
2021-09-24 15:25:42.205235,102
2021-09-24 15:25:42.205244,104
2021-09-24 15:25:42.205253,104
2021-09-24 15:25:42.205262,97
2021-09-24 15:25:42.205271,80
2021-09-24 15:25:42.205280,75
2021-09-24 15:25:42.205289,77
2021-09-24 15:25:42.474879,77
2021-09-24 15:25:42.474894,72
2021-09-24 15:25:42.474900,53
2021-09-24 15:25:42.474904,7
2021-09-24 15:25:42.474909,-111
2021-09-24 15:25:42.474914,-364
2021-09-24 15:25:42.474918,-585
2021-09-24 15:25:42.474922,-476
2021-09-24 15:25:42.474927,-2
2021-09-24 15:25:42.474932,524
2021-09-24 15:25:42.474936,597
2021-09-24 15:25:42.474940,242
2021-09-24 15:25:42.474945,75
2021-09-24 15:25:42.474949,111
2021-09-24 15:25:42.474954,17
2021-09-24 15:25:42.474958,-80
2021-09-24 15:25:42.474963,-51
2021-09-24 15:25:42.474967,-41
2021-09-24 15:25:42.474972,-77
2021-09-24 15:25:42.474976,-87
2021-09-24 15:25:42.474981,-92
2021-09-24 15:25:42.474985,-116
2021-09-24 15:25:42.474990,-128
2021-09-24 15:25:42.474994,-133
2021-09-24 15:25:42.474999,-148
2021-09-24 15:25:42.475003,-165
2021-09-24 15:25:42.475008,-182
2021-09-24 15:25:42.475012,-201
2021-09-24 15:25:42.475017,-223
2021-09-24 15:25:42.475021,-238
2021-09-24 15:25:42.745693,-259
2021-09-24 15:25:42.745717,-291
2021-09-24 15:25:42.745725,-325
2021-09-24 15:25:42.745732,-361
2021-09-24 15:25:42.745738,-388
2021-09-24 15:25:42.745744,-400
2021-09-24 15:25:42.745751,-412
2021-09-24 15:25:42.745757,-420
2021-09-24 15:25:42.745764,-405
2021-09-24 15:25:42.745770,-361
2021-09-24 15:25:42.745777,-296
2021-09-24 15:25:42.745783,-208
2021-09-24 15:25:42.745790,-104
2021-09-24 15:25:42.745796,-7
2021-09-24 15:25:42.745802,65
2021-09-24 15:25:42.745809,119
2021-09-24 15:25:42.745816,165
2021-09-24 15:25:42.745822,196
2021-09-24 15:25:42.745828,211
2021-09-24 15:25:42.745835,211
2021-09-24 15:25:42.745841,204
2021-09-24 15:25:42.745848,194
2021-09-24 15:25:42.745854,194
2021-09-24 15:25:42.745861,191
2021-09-24 15:25:42.745867,177
2021-09-24 15:25:42.745874,170
2021-09-24 15:25:42.745880,160
2021-09-24 15:25:42.745887,145
2021-09-24 15:25:42.745893,138
2021-09-24 15:25:42.745900,133
2021-09-24 15:25:42.880252,126
2021-09-24 15:25:42.880273,121
2021-09-24 15:25:42.880279,109
2021-09-24 15:25:42.880285,92
2021-09-24 15:25:42.880290,87
2021-09-24 15:25:42.880295,89
2021-09-24 15:25:42.880300,92
2021-09-24 15:25:42.880305,89
2021-09-24 15:25:42.880311,85
2021-09-24 15:25:42.880316,82
2021-09-24 15:25:42.880321,85
2021-09-24 15:25:42.880326,85
2021-09-24 15:25:42.880332,87
2021-09-24 15:25:42.880337,92
2021-09-24 15:25:42.880342,85
2021-09-24 15:25:42.880347,77
2021-09-24 15:25:42.880353,77
2021-09-24 15:25:42.880358,80
2021-09-24 15:25:42.880363,85
2021-09-24 15:25:42.880368,82
2021-09-24 15:25:42.880373,68
2021-09-24 15:25:42.880379,65
2021-09-24 15:25:42.880384,68
2021-09-24 15:25:42.880389,68
2021-09-24 15:25:42.880394,63
2021-09-24 15:25:42.880399,53
2021-09-24 15:25:42.880404,43
2021-09-24 15:25:42.880410,48
2021-09-24 15:25:42.880415,51
2021-09-24 15:25:42.880420,48
2021-09-24 15:25:43.240205,51
2021-09-24 15:25:43.240228,51
2021-09-24 15:25:43.240236,38
2021-09-24 15:25:43.240243,34
2021-09-24 15:25:43.240249,43
2021-09-24 15:25:43.240256,46
2021-09-24 15:25:43.240263,31
2021-09-24 15:25:43.240269,4
2021-09-24 15:25:43.240276,-9
2021-09-24 15:25:43.240282,-7
2021-09-24 15:25:43.240289,-12
2021-09-24 15:25:43.240296,-26
2021-09-24 15:25:43.240302,-19
2021-09-24 15:25:43.240309,-2
2021-09-24 15:25:43.240316,7
2021-09-24 15:25:43.240322,19
2021-09-24 15:25:43.240329,24
2021-09-24 15:25:43.240336,21
2021-09-24 15:25:43.240342,24
2021-09-24 15:25:43.240349,24
2021-09-24 15:25:43.240356,21
2021-09-24 15:25:43.240362,24
2021-09-24 15:25:43.240369,19
2021-09-24 15:25:43.240375,-4
2021-09-24 15:25:43.240382,-58
2021-09-24 15:25:43.240388,-177
2021-09-24 15:25:43.240395,-410
2021-09-24 15:25:43.240402,-568
2021-09-24 15:25:43.240408,-386
2021-09-24 15:25:43.240415,116
2021-09-24 15:25:43.330072,587
2021-09-24 15:25:43.330088,561
2021-09-24 15:25:43.330095,191
2021-09-24 15:25:43.330100,65
2021-09-24 15:25:43.330105,97
2021-09-24 15:25:43.330111,-12
2021-09-24 15:25:43.330116,-94
2021-09-24 15:25:43.330121,-75
2021-09-24 15:25:43.330126,-87
2021-09-24 15:25:43.330131,-121
2021-09-24 15:25:43.330136,-121
2021-09-24 15:25:43.330141,-126
2021-09-24 15:25:43.330147,-150
2021-09-24 15:25:43.330152,-162
2021-09-24 15:25:43.330157,-165
2021-09-24 15:25:43.330162,-182
2021-09-24 15:25:43.330167,-196
2021-09-24 15:25:43.330172,-211
2021-09-24 15:25:43.330177,-240
2021-09-24 15:25:43.330183,-267
2021-09-24 15:25:43.330188,-281
2021-09-24 15:25:43.330193,-310
2021-09-24 15:25:43.330198,-347
2021-09-24 15:25:43.330203,-374
2021-09-24 15:25:43.330208,-398
2021-09-24 15:25:43.330214,-422
2021-09-24 15:25:43.330219,-434
2021-09-24 15:25:43.330224,-442
2021-09-24 15:25:43.330229,-437
2021-09-24 15:25:43.330234,-417
2021-09-24 15:25:43.555402,-378
2021-09-24 15:25:43.555425,-291
2021-09-24 15:25:43.555432,-170
2021-09-24 15:25:43.555439,-72
2021-09-24 15:25:43.555446,9
2021-09-24 15:25:43.555453,82
2021-09-24 15:25:43.555459,131
2021-09-24 15:25:43.555466,165
2021-09-24 15:25:43.555472,189
2021-09-24 15:25:43.555479,204
2021-09-24 15:25:43.555485,208
2021-09-24 15:25:43.555492,201
2021-09-24 15:25:43.555498,191
2021-09-24 15:25:43.555505,187
2021-09-24 15:25:43.555511,174
2021-09-24 15:25:43.555518,157
2021-09-24 15:25:43.555524,153
2021-09-24 15:25:43.555531,145
2021-09-24 15:25:43.555537,131
2021-09-24 15:25:43.555544,126
2021-09-24 15:25:43.555550,123
2021-09-24 15:25:43.555557,111
2021-09-24 15:25:43.555563,106
2021-09-24 15:25:43.555570,104
2021-09-24 15:25:43.555577,97
2021-09-24 15:25:43.555583,92
2021-09-24 15:25:43.555590,94
2021-09-24 15:25:43.555596,92
2021-09-24 15:25:43.555602,89
2021-09-24 15:25:43.555609,87
2021-09-24 15:25:43.780740,92
2021-09-24 15:25:43.780764,94
2021-09-24 15:25:43.780772,89
2021-09-24 15:25:43.780779,87
2021-09-24 15:25:43.780785,87
2021-09-24 15:25:43.780792,85
2021-09-24 15:25:43.780798,77
2021-09-24 15:25:43.780805,85
2021-09-24 15:25:43.780811,87
2021-09-24 15:25:43.780818,82
2021-09-24 15:25:43.780824,77
2021-09-24 15:25:43.780831,77
2021-09-24 15:25:43.780837,70
2021-09-24 15:25:43.780844,60
2021-09-24 15:25:43.780850,58
2021-09-24 15:25:43.780857,53
2021-09-24 15:25:43.780863,48
2021-09-24 15:25:43.780870,43
2021-09-24 15:25:43.780876,43
2021-09-24 15:25:43.780883,46
2021-09-24 15:25:43.780889,48
2021-09-24 15:25:43.780896,51
2021-09-24 15:25:43.780902,48
2021-09-24 15:25:43.780909,48
2021-09-24 15:25:43.780915,51
2021-09-24 15:25:43.780922,53
2021-09-24 15:25:43.780928,55
2021-09-24 15:25:43.780935,53
2021-09-24 15:25:43.780941,53
2021-09-24 15:25:43.781020,46
2021-09-24 15:25:44.049190,29
2021-09-24 15:25:44.049210,14
2021-09-24 15:25:44.049217,19
2021-09-24 15:25:44.049224,17
2021-09-24 15:25:44.049231,0
2021-09-24 15:25:44.049237,2
2021-09-24 15:25:44.049244,26
2021-09-24 15:25:44.049250,48
2021-09-24 15:25:44.049257,51
2021-09-24 15:25:44.049263,41
2021-09-24 15:25:44.049269,29
2021-09-24 15:25:44.049276,31
2021-09-24 15:25:44.049283,43
2021-09-24 15:25:44.049289,46
2021-09-24 15:25:44.049296,43
2021-09-24 15:25:44.049302,31
2021-09-24 15:25:44.049309,4
2021-09-24 15:25:44.049315,-51
2021-09-24 15:25:44.049322,-194
2021-09-24 15:25:44.049329,-449
2021-09-24 15:25:44.049335,-578
2021-09-24 15:25:44.049342,-357
2021-09-24 15:25:44.049348,138
2021-09-24 15:25:44.049355,580
2021-09-24 15:25:44.049361,527
2021-09-24 15:25:44.049367,167
2021-09-24 15:25:44.049374,68
2021-09-24 15:25:44.049381,89
2021-09-24 15:25:44.049387,-31
2021-09-24 15:25:44.049394,-92
2021-09-24 15:25:44.274814,-48
2021-09-24 15:25:44.274837,-58
2021-09-24 15:25:44.274844,-94
2021-09-24 15:25:44.274851,-102
2021-09-24 15:25:44.274858,-109
2021-09-24 15:25:44.274864,-121
2021-09-24 15:25:44.274871,-126
2021-09-24 15:25:44.274877,-133
2021-09-24 15:25:44.274883,-148
2021-09-24 15:25:44.274890,-170
2021-09-24 15:25:44.274896,-187
2021-09-24 15:25:44.274903,-196
2021-09-24 15:25:44.274909,-213
2021-09-24 15:25:44.274916,-238
2021-09-24 15:25:44.274922,-269
2021-09-24 15:25:44.274929,-310
2021-09-24 15:25:44.274935,-347
2021-09-24 15:25:44.274942,-371
2021-09-24 15:25:44.274948,-398
2021-09-24 15:25:44.274955,-427
2021-09-24 15:25:44.274961,-439
2021-09-24 15:25:44.274968,-429
2021-09-24 15:25:44.274974,-398
2021-09-24 15:25:44.274980,-344
2021-09-24 15:25:44.274987,-272
2021-09-24 15:25:44.274993,-172
2021-09-24 15:25:44.275000,-72
2021-09-24 15:25:44.275006,14
2021-09-24 15:25:44.275013,89
2021-09-24 15:25:44.275019,150
2021-09-24 15:25:44.500688,182
2021-09-24 15:25:44.500719,199
2021-09-24 15:25:44.500731,204
2021-09-24 15:25:44.500742,196
2021-09-24 15:25:44.500752,194
2021-09-24 15:25:44.500767,199
2021-09-24 15:25:44.500777,191
2021-09-24 15:25:44.500787,182
2021-09-24 15:25:44.500797,172
2021-09-24 15:25:44.500807,157
2021-09-24 15:25:44.500817,150
2021-09-24 15:25:44.500827,145
2021-09-24 15:25:44.500836,138
2021-09-24 15:25:44.500846,131
2021-09-24 15:25:44.500856,121
2021-09-24 15:25:44.500866,106
2021-09-24 15:25:44.500876,99
2021-09-24 15:25:44.500886,99
2021-09-24 15:25:44.500896,94
2021-09-24 15:25:44.500906,92
2021-09-24 15:25:44.500916,87
2021-09-24 15:25:44.500926,77
2021-09-24 15:25:44.500936,70
2021-09-24 15:25:44.500945,70
2021-09-24 15:25:44.500955,72
2021-09-24 15:25:44.500965,75
2021-09-24 15:25:44.500976,72
2021-09-24 15:25:44.500985,70
2021-09-24 15:25:44.500995,75
2021-09-24 15:25:44.501005,77
2021-09-24 15:25:44.725768,77
2021-09-24 15:25:44.725787,75
2021-09-24 15:25:44.725795,72
2021-09-24 15:25:44.725802,68
2021-09-24 15:25:44.725809,72
2021-09-24 15:25:44.725815,77
2021-09-24 15:25:44.725822,77
2021-09-24 15:25:44.725829,75
2021-09-24 15:25:44.725835,65
2021-09-24 15:25:44.725842,58
2021-09-24 15:25:44.725848,65
2021-09-24 15:25:44.725855,70
2021-09-24 15:25:44.725861,68
2021-09-24 15:25:44.725868,65
2021-09-24 15:25:44.725874,60
2021-09-24 15:25:44.725881,53
2021-09-24 15:25:44.725887,58
2021-09-24 15:25:44.725894,60
2021-09-24 15:25:44.725900,63
2021-09-24 15:25:44.725907,60
2021-09-24 15:25:44.725914,58
2021-09-24 15:25:44.725920,55
2021-09-24 15:25:44.725927,53
2021-09-24 15:25:44.725933,58
2021-09-24 15:25:44.725940,55
2021-09-24 15:25:44.725946,43
2021-09-24 15:25:44.725953,34
2021-09-24 15:25:44.725960,19
2021-09-24 15:25:44.725966,4
2021-09-24 15:25:44.725973,12
2021-09-24 15:25:44.995125,19
2021-09-24 15:25:44.995149,7
2021-09-24 15:25:44.995157,9
2021-09-24 15:25:44.995164,26
2021-09-24 15:25:44.995171,46
2021-09-24 15:25:44.995178,55
2021-09-24 15:25:44.995185,55
2021-09-24 15:25:44.995192,48
2021-09-24 15:25:44.995198,43
2021-09-24 15:25:44.995205,46
2021-09-24 15:25:44.995212,48
2021-09-24 15:25:44.995219,48
2021-09-24 15:25:44.995226,43
2021-09-24 15:25:44.995232,19
2021-09-24 15:25:44.995239,-31
2021-09-24 15:25:44.995246,-155
2021-09-24 15:25:44.995253,-403
2021-09-24 15:25:44.995260,-587
2021-09-24 15:25:44.995266,-439
2021-09-24 15:25:44.995273,19
2021-09-24 15:25:44.995280,522
2021-09-24 15:25:44.995287,602
2021-09-24 15:25:44.995294,242
2021-09-24 15:25:44.995301,68
2021-09-24 15:25:44.995307,111
2021-09-24 15:25:44.995314,12
2021-09-24 15:25:44.995321,-80
2021-09-24 15:25:44.995328,-51
2021-09-24 15:25:44.995335,-51
2021-09-24 15:25:44.995342,-87
2021-09-24 15:25:45.175391,-89
2021-09-24 15:25:45.175414,-89
2021-09-24 15:25:45.175422,-109
2021-09-24 15:25:45.175428,-119
2021-09-24 15:25:45.175435,-123
2021-09-24 15:25:45.175442,-133
2021-09-24 15:25:45.175448,-148
2021-09-24 15:25:45.175455,-162
2021-09-24 15:25:45.175461,-177
2021-09-24 15:25:45.175468,-201
2021-09-24 15:25:45.175474,-225
2021-09-24 15:25:45.175481,-247
2021-09-24 15:25:45.175487,-281
2021-09-24 15:25:45.175494,-323
2021-09-24 15:25:45.175500,-347
2021-09-24 15:25:45.175507,-369
2021-09-24 15:25:45.175513,-388
2021-09-24 15:25:45.175520,-398
2021-09-24 15:25:45.175526,-393
2021-09-24 15:25:45.175533,-374
2021-09-24 15:25:45.175539,-330
2021-09-24 15:25:45.175545,-262
2021-09-24 15:25:45.175552,-170
2021-09-24 15:25:45.175558,-63
2021-09-24 15:25:45.175565,31
2021-09-24 15:25:45.175572,104
2021-09-24 15:25:45.175578,162
2021-09-24 15:25:45.175585,204
2021-09-24 15:25:45.175591,218
2021-09-24 15:25:45.175597,218
2021-09-24 15:25:45.400761,213
2021-09-24 15:25:45.400785,213
2021-09-24 15:25:45.400793,213
2021-09-24 15:25:45.400799,204
2021-09-24 15:25:45.400806,199
2021-09-24 15:25:45.400812,191
2021-09-24 15:25:45.400819,177
2021-09-24 15:25:45.400825,167
2021-09-24 15:25:45.400832,162
2021-09-24 15:25:45.400838,153
2021-09-24 15:25:45.400845,143
2021-09-24 15:25:45.400851,136
2021-09-24 15:25:45.400858,123
2021-09-24 15:25:45.400864,116
2021-09-24 15:25:45.400871,114
2021-09-24 15:25:45.400877,109
2021-09-24 15:25:45.400884,109
2021-09-24 15:25:45.400890,106
2021-09-24 15:25:45.400897,99
2021-09-24 15:25:45.400903,99
2021-09-24 15:25:45.400910,104
2021-09-24 15:25:45.400916,104
2021-09-24 15:25:45.400923,104
2021-09-24 15:25:45.400929,106
2021-09-24 15:25:45.400936,106
2021-09-24 15:25:45.400942,109
2021-09-24 15:25:45.400948,109
2021-09-24 15:25:45.400955,104
2021-09-24 15:25:45.400962,102
2021-09-24 15:25:45.400968,102
2021-09-24 15:25:45.669579,97
2021-09-24 15:25:45.669601,89
2021-09-24 15:25:45.669609,92
2021-09-24 15:25:45.669617,89
2021-09-24 15:25:45.669624,85
2021-09-24 15:25:45.669630,77
2021-09-24 15:25:45.669637,75
2021-09-24 15:25:45.669644,77
2021-09-24 15:25:45.669651,77
2021-09-24 15:25:45.669658,72
2021-09-24 15:25:45.669664,72
2021-09-24 15:25:45.669671,65
2021-09-24 15:25:45.669678,63
2021-09-24 15:25:45.669685,77
2021-09-24 15:25:45.669692,94
2021-09-24 15:25:45.669698,99
2021-09-24 15:25:45.669705,94
2021-09-24 15:25:45.669712,89
2021-09-24 15:25:45.669719,89
2021-09-24 15:25:45.669725,92
2021-09-24 15:25:45.669732,92
2021-09-24 15:25:45.669739,89
2021-09-24 15:25:45.669746,89
2021-09-24 15:25:45.669753,85
2021-09-24 15:25:45.669760,65
2021-09-24 15:25:45.669767,48
2021-09-24 15:25:45.669773,51
2021-09-24 15:25:45.669780,51
2021-09-24 15:25:45.669787,38
2021-09-24 15:25:45.669794,38
2021-09-24 15:25:45.895777,60
2021-09-24 15:25:45.895800,82
2021-09-24 15:25:45.895808,85
2021-09-24 15:25:45.895815,72
2021-09-24 15:25:45.895822,60
2021-09-24 15:25:45.895828,48
2021-09-24 15:25:45.895835,38
2021-09-24 15:25:45.895841,38
2021-09-24 15:25:45.895848,43
2021-09-24 15:25:45.895855,38
2021-09-24 15:25:45.895861,19
2021-09-24 15:25:45.895868,-12
2021-09-24 15:25:45.895874,-94
2021-09-24 15:25:45.895881,-315
2021-09-24 15:25:45.895888,-566
2021-09-24 15:25:45.895894,-531
2021-09-24 15:25:45.895901,-133
2021-09-24 15:25:45.895907,415
2021-09-24 15:25:45.895914,651
2021-09-24 15:25:45.895920,354
2021-09-24 15:25:45.895927,87
2021-09-24 15:25:45.895934,104
2021-09-24 15:25:45.895940,41
2021-09-24 15:25:45.895947,-72
2021-09-24 15:25:45.895953,-53
2021-09-24 15:25:45.895960,-51
2021-09-24 15:25:45.895967,-126
2021-09-24 15:25:45.895973,-165
2021-09-24 15:25:45.895980,-162
2021-09-24 15:25:45.895986,-177
2021-09-24 15:25:46.119113,-191
2021-09-24 15:25:46.119136,-194
2021-09-24 15:25:46.119144,-204
2021-09-24 15:25:46.119151,-223
2021-09-24 15:25:46.119158,-228
2021-09-24 15:25:46.119165,-218
2021-09-24 15:25:46.119172,-213
2021-09-24 15:25:46.119178,-228
2021-09-24 15:25:46.119185,-252
2021-09-24 15:25:46.119192,-284
2021-09-24 15:25:46.119199,-320
2021-09-24 15:25:46.119206,-347
2021-09-24 15:25:46.119213,-364
2021-09-24 15:25:46.119219,-378
2021-09-24 15:25:46.119226,-386
2021-09-24 15:25:46.119233,-388
2021-09-24 15:25:46.119240,-381
2021-09-24 15:25:46.119246,-344
2021-09-24 15:25:46.119253,-279
2021-09-24 15:25:46.119260,-191
2021-09-24 15:25:46.119267,-92
2021-09-24 15:25:46.119274,0
2021-09-24 15:25:46.119281,77
2021-09-24 15:25:46.119287,145
2021-09-24 15:25:46.119294,191
2021-09-24 15:25:46.119301,216
2021-09-24 15:25:46.119308,230
2021-09-24 15:25:46.119314,233
2021-09-24 15:25:46.119321,230
2021-09-24 15:25:46.119328,228
2021-09-24 15:25:46.435113,228
2021-09-24 15:25:46.435136,221
2021-09-24 15:25:46.435145,206
2021-09-24 15:25:46.435152,184
2021-09-24 15:25:46.435159,174
2021-09-24 15:25:46.435166,170
2021-09-24 15:25:46.435173,160
2021-09-24 15:25:46.435180,145
2021-09-24 15:25:46.435187,128
2021-09-24 15:25:46.435194,109
2021-09-24 15:25:46.435201,92
2021-09-24 15:25:46.435208,85
2021-09-24 15:25:46.435215,87
2021-09-24 15:25:46.435222,89
2021-09-24 15:25:46.435229,85
2021-09-24 15:25:46.435236,80
2021-09-24 15:25:46.435243,80
2021-09-24 15:25:46.435250,87
2021-09-24 15:25:46.435257,89
2021-09-24 15:25:46.435264,94
2021-09-24 15:25:46.435271,94
2021-09-24 15:25:46.435277,89
2021-09-24 15:25:46.435284,87
2021-09-24 15:25:46.435291,75
2021-09-24 15:25:46.435298,43
2021-09-24 15:25:46.435305,24
2021-09-24 15:25:46.435312,21
2021-09-24 15:25:46.435319,17
2021-09-24 15:25:46.435326,14
2021-09-24 15:25:46.435333,19
2021-09-24 15:25:46.570944,21
2021-09-24 15:25:46.570966,21
2021-09-24 15:25:46.570975,19
2021-09-24 15:25:46.570982,17
2021-09-24 15:25:46.570989,19
2021-09-24 15:25:46.570996,24
2021-09-24 15:25:46.571003,24
2021-09-24 15:25:46.571010,26
2021-09-24 15:25:46.571016,26
2021-09-24 15:25:46.571023,19
2021-09-24 15:25:46.571030,17
2021-09-24 15:25:46.571037,26
2021-09-24 15:25:46.571044,29
2021-09-24 15:25:46.571050,24
2021-09-24 15:25:46.571059,19
2021-09-24 15:25:46.571066,17
2021-09-24 15:25:46.571073,19
2021-09-24 15:25:46.571080,21
2021-09-24 15:25:46.571087,24
2021-09-24 15:25:46.571094,26
2021-09-24 15:25:46.571101,38
2021-09-24 15:25:46.571107,68
2021-09-24 15:25:46.571114,75
2021-09-24 15:25:46.571121,55
2021-09-24 15:25:46.571128,48
2021-09-24 15:25:46.571135,60
2021-09-24 15:25:46.571142,53
2021-09-24 15:25:46.571149,48
2021-09-24 15:25:46.571155,70
2021-09-24 15:25:46.571162,89
2021-09-24 15:25:46.840809,99
2021-09-24 15:25:46.840840,99
2021-09-24 15:25:46.840852,92
2021-09-24 15:25:46.840862,87
2021-09-24 15:25:46.840873,89
2021-09-24 15:25:46.840883,87
2021-09-24 15:25:46.840893,85
2021-09-24 15:25:46.840903,70
2021-09-24 15:25:46.840913,29
2021-09-24 15:25:46.840924,-21
2021-09-24 15:25:46.840934,-82
2021-09-24 15:25:46.840944,-247
2021-09-24 15:25:46.840954,-529
2021-09-24 15:25:46.840965,-658
2021-09-24 15:25:46.840975,-408
2021-09-24 15:25:46.840985,136
2021-09-24 15:25:46.840995,563
2021-09-24 15:25:46.841005,437
2021-09-24 15:25:46.841015,77
2021-09-24 15:25:46.841025,12
2021-09-24 15:25:46.841036,17
2021-09-24 15:25:46.841046,-99
2021-09-24 15:25:46.841056,-131
2021-09-24 15:25:46.841066,-92
2021-09-24 15:25:46.841076,-114
2021-09-24 15:25:46.841086,-140
2021-09-24 15:25:46.841096,-140
2021-09-24 15:25:46.841106,-153
2021-09-24 15:25:46.841117,-167
2021-09-24 15:25:46.841127,-170
2021-09-24 15:25:47.020735,-179
2021-09-24 15:25:47.020760,-199
2021-09-24 15:25:47.020768,-211
2021-09-24 15:25:47.020775,-225
2021-09-24 15:25:47.020782,-240
2021-09-24 15:25:47.020788,-257
2021-09-24 15:25:47.020795,-284
2021-09-24 15:25:47.020834,-318
2021-09-24 15:25:47.020841,-344
2021-09-24 15:25:47.020848,-371
2021-09-24 15:25:47.020854,-395
2021-09-24 15:25:47.020861,-415
2021-09-24 15:25:47.020868,-437
2021-09-24 15:25:47.020875,-449
2021-09-24 15:25:47.020882,-444
2021-09-24 15:25:47.020888,-417
2021-09-24 15:25:47.020895,-369
2021-09-24 15:25:47.020902,-291
2021-09-24 15:25:47.020909,-199
2021-09-24 15:25:47.020916,-102
2021-09-24 15:25:47.020922,-9
2021-09-24 15:25:47.020929,68
2021-09-24 15:25:47.020936,128
2021-09-24 15:25:47.020943,170
2021-09-24 15:25:47.020950,191
2021-09-24 15:25:47.020957,199
2021-09-24 15:25:47.020963,206
2021-09-24 15:25:47.020970,208
2021-09-24 15:25:47.020977,225
2021-09-24 15:25:47.020984,252
2021-09-24 15:25:47.334616,255
2021-09-24 15:25:47.334637,240
2021-09-24 15:25:47.334645,235
2021-09-24 15:25:47.334652,230
2021-09-24 15:25:47.334659,216
2021-09-24 15:25:47.334666,201
2021-09-24 15:25:47.334673,182
2021-09-24 15:25:47.334680,167
2021-09-24 15:25:47.334687,167
2021-09-24 15:25:47.334694,162
2021-09-24 15:25:47.334701,155
2021-09-24 15:25:47.334707,148
2021-09-24 15:25:47.334714,138
2021-09-24 15:25:47.334721,131
2021-09-24 15:25:47.334728,131
2021-09-24 15:25:47.334735,123
2021-09-24 15:25:47.334742,119
2021-09-24 15:25:47.334748,119
2021-09-24 15:25:47.334755,116
2021-09-24 15:25:47.334762,114
2021-09-24 15:25:47.334769,114
2021-09-24 15:25:47.334776,111
2021-09-24 15:25:47.334783,102
2021-09-24 15:25:47.334789,89
2021-09-24 15:25:47.334796,87
2021-09-24 15:25:47.334803,92
2021-09-24 15:25:47.334810,89
2021-09-24 15:25:47.334817,87
2021-09-24 15:25:47.334823,89
2021-09-24 15:25:47.334830,89
2021-09-24 15:25:47.470332,87
2021-09-24 15:25:47.470360,87
2021-09-24 15:25:47.470372,87
2021-09-24 15:25:47.470383,82
2021-09-24 15:25:47.470394,80
2021-09-24 15:25:47.470405,72
2021-09-24 15:25:47.470415,65
2021-09-24 15:25:47.470426,68
2021-09-24 15:25:47.470436,70
2021-09-24 15:25:47.470447,65
2021-09-24 15:25:47.470457,63
2021-09-24 15:25:47.470468,63
2021-09-24 15:25:47.470479,60
2021-09-24 15:25:47.470489,63
2021-09-24 15:25:47.470500,63
2021-09-24 15:25:47.470511,60
2021-09-24 15:25:47.470521,58
2021-09-24 15:25:47.470532,53
2021-09-24 15:25:47.470542,51
2021-09-24 15:25:47.470553,53
2021-09-24 15:25:47.470563,60
2021-09-24 15:25:47.470574,55
2021-09-24 15:25:47.470584,41
2021-09-24 15:25:47.470595,24
2021-09-24 15:25:47.470606,9
2021-09-24 15:25:47.470616,17
2021-09-24 15:25:47.470627,19
2021-09-24 15:25:47.470638,4
2021-09-24 15:25:47.470648,14
2021-09-24 15:25:47.470659,36
2021-09-24 15:25:47.695958,51
2021-09-24 15:25:47.695989,55
2021-09-24 15:25:47.696001,51
2021-09-24 15:25:47.696011,46
2021-09-24 15:25:47.696021,43
2021-09-24 15:25:47.696031,34
2021-09-24 15:25:47.696041,34
2021-09-24 15:25:47.696051,36
2021-09-24 15:25:47.696144,31
2021-09-24 15:25:47.696156,12
2021-09-24 15:25:47.696198,-34
2021-09-24 15:25:47.696208,-165
2021-09-24 15:25:47.696218,-429
2021-09-24 15:25:47.696228,-646
2021-09-24 15:25:47.696238,-519
2021-09-24 15:25:47.696248,-38
2021-09-24 15:25:47.696258,480
2021-09-24 15:25:47.696268,548
2021-09-24 15:25:47.696279,199
2021-09-24 15:25:47.696288,21
2021-09-24 15:25:47.696298,43
2021-09-24 15:25:47.696309,-55
2021-09-24 15:25:47.696319,-136
2021-09-24 15:25:47.696329,-104
2021-09-24 15:25:47.696339,-104
2021-09-24 15:25:47.696349,-140
2021-09-24 15:25:47.696359,-140
2021-09-24 15:25:47.696369,-145
2021-09-24 15:25:47.696379,-172
2021-09-24 15:25:47.696389,-189
2021-09-24 15:25:47.920866,-194
2021-09-24 15:25:47.920890,-204
2021-09-24 15:25:47.920898,-218
2021-09-24 15:25:47.920905,-233
2021-09-24 15:25:47.920911,-257
2021-09-24 15:25:47.920918,-284
2021-09-24 15:25:47.920924,-306
2021-09-24 15:25:47.920963,-330
2021-09-24 15:25:47.920969,-366
2021-09-24 15:25:47.920976,-408
2021-09-24 15:25:47.920982,-439
2021-09-24 15:25:47.920989,-466
2021-09-24 15:25:47.920995,-478
2021-09-24 15:25:47.921002,-480
2021-09-24 15:25:47.921008,-476
2021-09-24 15:25:47.921014,-466
2021-09-24 15:25:47.921021,-429
2021-09-24 15:25:47.921027,-359
2021-09-24 15:25:47.921034,-269
2021-09-24 15:25:47.921040,-162
2021-09-24 15:25:47.921046,-63
2021-09-24 15:25:47.921053,9
2021-09-24 15:25:47.921059,70
2021-09-24 15:25:47.921066,126
2021-09-24 15:25:47.921072,157
2021-09-24 15:25:47.921078,172
2021-09-24 15:25:47.921085,179
2021-09-24 15:25:47.921091,184
2021-09-24 15:25:47.921098,184
2021-09-24 15:25:47.921104,179
2021-09-24 15:25:48.234004,174
2021-09-24 15:25:48.234027,170
2021-09-24 15:25:48.234035,157
2021-09-24 15:25:48.234041,143
2021-09-24 15:25:48.234048,131
2021-09-24 15:25:48.234054,128
2021-09-24 15:25:48.234061,126
2021-09-24 15:25:48.234067,114
2021-09-24 15:25:48.234073,104
2021-09-24 15:25:48.234080,89
2021-09-24 15:25:48.234086,80
2021-09-24 15:25:48.234093,82
2021-09-24 15:25:48.234099,85
2021-09-24 15:25:48.234106,82
2021-09-24 15:25:48.234112,77
2021-09-24 15:25:48.234119,70
2021-09-24 15:25:48.234125,72
2021-09-24 15:25:48.234132,82
2021-09-24 15:25:48.234138,89
2021-09-24 15:25:48.234145,87
2021-09-24 15:25:48.234151,82
2021-09-24 15:25:48.234158,80
2021-09-24 15:25:48.234164,75
2021-09-24 15:25:48.234171,70
2021-09-24 15:25:48.234177,68
2021-09-24 15:25:48.234184,68
2021-09-24 15:25:48.234190,68
2021-09-24 15:25:48.234197,68
2021-09-24 15:25:48.234203,68
2021-09-24 15:25:48.234209,68
2021-09-24 15:25:48.415846,70
2021-09-24 15:25:48.415868,68
2021-09-24 15:25:48.415876,63
2021-09-24 15:25:48.415883,55
2021-09-24 15:25:48.415889,51
2021-09-24 15:25:48.415896,46
2021-09-24 15:25:48.415903,48
2021-09-24 15:25:48.415909,53
2021-09-24 15:25:48.415916,41
2021-09-24 15:25:48.415922,26
2021-09-24 15:25:48.415929,34
2021-09-24 15:25:48.415935,43
2021-09-24 15:25:48.415942,38
2021-09-24 15:25:48.415949,31
2021-09-24 15:25:48.415955,24
2021-09-24 15:25:48.415962,19
2021-09-24 15:25:48.415968,26
2021-09-24 15:25:48.415975,31
2021-09-24 15:25:48.415981,31
2021-09-24 15:25:48.415988,29
2021-09-24 15:25:48.415995,21
2021-09-24 15:25:48.416001,7
2021-09-24 15:25:48.416008,-4
2021-09-24 15:25:48.416014,-4
2021-09-24 15:25:48.416021,0
2021-09-24 15:25:48.416027,-12
2021-09-24 15:25:48.416034,-21
2021-09-24 15:25:48.416041,-2
2021-09-24 15:25:48.416047,21
2021-09-24 15:25:48.416054,31
2021-09-24 15:25:48.640978,29
2021-09-24 15:25:48.641000,24
2021-09-24 15:25:48.641008,29
2021-09-24 15:25:48.641014,51
2021-09-24 15:25:48.641021,87
2021-09-24 15:25:48.641028,104
2021-09-24 15:25:48.641034,102
2021-09-24 15:25:48.641041,94
2021-09-24 15:25:48.641047,63
2021-09-24 15:25:48.641054,-7
2021-09-24 15:25:48.641060,-174
2021-09-24 15:25:48.641067,-427
2021-09-24 15:25:48.641073,-497
2021-09-24 15:25:48.641080,-194
2021-09-24 15:25:48.641087,352
2021-09-24 15:25:48.641093,687
2021-09-24 15:25:48.641100,468
2021-09-24 15:25:48.641106,155
2021-09-24 15:25:48.641113,150
2021-09-24 15:25:48.641119,126
2021-09-24 15:25:48.641126,-9
2021-09-24 15:25:48.641132,-34
2021-09-24 15:25:48.641139,-4
2021-09-24 15:25:48.641146,-55
2021-09-24 15:25:48.641152,-128
2021-09-24 15:25:48.641159,-153
2021-09-24 15:25:48.641165,-160
2021-09-24 15:25:48.641172,-182
2021-09-24 15:25:48.641178,-201
2021-09-24 15:25:48.641185,-208
2021-09-24 15:25:48.865861,-221
2021-09-24 15:25:48.865884,-240
2021-09-24 15:25:48.865892,-262
