Time,ECG
2021-09-24 15:00:11.653929,60
2021-09-24 15:00:11.653943,58
2021-09-24 15:00:11.653949,43
2021-09-24 15:00:11.653953,17
2021-09-24 15:00:11.653958,9
2021-09-24 15:00:11.653963,21
2021-09-24 15:00:11.653968,19
2021-09-24 15:00:11.653972,12
2021-09-24 15:00:11.653977,24
2021-09-24 15:00:11.653981,36
2021-09-24 15:00:11.653986,41
2021-09-24 15:00:11.653990,51
2021-09-24 15:00:11.653995,53
2021-09-24 15:00:11.653999,51
2021-09-24 15:00:11.654017,48
2021-09-24 15:00:11.654021,41
2021-09-24 15:00:11.654025,41
2021-09-24 15:00:11.654030,46
2021-09-24 15:00:11.654034,46
2021-09-24 15:00:11.654038,38
2021-09-24 15:00:11.654042,7
2021-09-24 15:00:11.654047,-72
2021-09-24 15:00:11.654051,-259
2021-09-24 15:00:11.654055,-502
2021-09-24 15:00:11.654059,-524
2021-09-24 15:00:11.654064,-184
2021-09-24 15:00:11.654068,349
2021-09-24 15:00:11.654073,643
2021-09-24 15:00:11.654077,398
2021-09-24 15:00:11.654081,89
2021-09-24 15:00:11.825125,82
2021-09-24 15:00:11.825146,51
2021-09-24 15:00:11.825154,-70
2021-09-24 15:00:11.825161,-77
2021-09-24 15:00:11.825168,-48
2021-09-24 15:00:11.825175,-80
2021-09-24 15:00:11.825182,-97
2021-09-24 15:00:11.825189,-92
2021-09-24 15:00:11.825196,-111
2021-09-24 15:00:11.825202,-133
2021-09-24 15:00:11.825209,-136
2021-09-24 15:00:11.825215,-143
2021-09-24 15:00:11.825222,-162
2021-09-24 15:00:11.825228,-174
2021-09-24 15:00:11.825235,-199
2021-09-24 15:00:11.825241,-228
2021-09-24 15:00:11.825248,-250
2021-09-24 15:00:11.825255,-274
2021-09-24 15:00:11.825261,-310
2021-09-24 15:00:11.825268,-347
2021-09-24 15:00:11.825275,-383
2021-09-24 15:00:11.825281,-422
2021-09-24 15:00:11.825288,-459
2021-09-24 15:00:11.825294,-476
2021-09-24 15:00:11.825301,-473
2021-09-24 15:00:11.825307,-463
2021-09-24 15:00:11.825314,-437
2021-09-24 15:00:11.825320,-376
2021-09-24 15:00:11.825327,-279
2021-09-24 15:00:11.825336,-167
2021-09-24 15:00:12.005230,-55
2021-09-24 15:00:12.005254,38
2021-09-24 15:00:12.005262,114
2021-09-24 15:00:12.005269,167
2021-09-24 15:00:12.005275,201
2021-09-24 15:00:12.005282,223
2021-09-24 15:00:12.005288,233
2021-09-24 15:00:12.005295,228
2021-09-24 15:00:12.005301,218
2021-09-24 15:00:12.005308,216
2021-09-24 15:00:12.005315,216
2021-09-24 15:00:12.005321,211
2021-09-24 15:00:12.005328,201
2021-09-24 15:00:12.005338,187
2021-09-24 15:00:12.005345,172
2021-09-24 15:00:12.005352,165
2021-09-24 15:00:12.005358,157
2021-09-24 15:00:12.005365,150
2021-09-24 15:00:12.005371,140
2021-09-24 15:00:12.005378,128
2021-09-24 15:00:12.005385,116
2021-09-24 15:00:12.005391,111
2021-09-24 15:00:12.005398,111
2021-09-24 15:00:12.005404,111
2021-09-24 15:00:12.005411,109
2021-09-24 15:00:12.005417,106
2021-09-24 15:00:12.005424,104
2021-09-24 15:00:12.005430,104
2021-09-24 15:00:12.005437,109
2021-09-24 15:00:12.005458,111
2021-09-24 15:00:12.229680,111
2021-09-24 15:00:12.229699,109
2021-09-24 15:00:12.229707,106
2021-09-24 15:00:12.229714,106
2021-09-24 15:00:12.229721,109
2021-09-24 15:00:12.229728,109
2021-09-24 15:00:12.229734,104
2021-09-24 15:00:12.229741,92
2021-09-24 15:00:12.229747,89
2021-09-24 15:00:12.229754,92
2021-09-24 15:00:12.229760,94
2021-09-24 15:00:12.229767,92
2021-09-24 15:00:12.229774,87
2021-09-24 15:00:12.229780,80
2021-09-24 15:00:12.229787,75
2021-09-24 15:00:12.229793,72
2021-09-24 15:00:12.229800,68
2021-09-24 15:00:12.229810,70
2021-09-24 15:00:12.229816,70
2021-09-24 15:00:12.229823,65
2021-09-24 15:00:12.229829,65
2021-09-24 15:00:12.229836,65
2021-09-24 15:00:12.229842,65
2021-09-24 15:00:12.229849,65
2021-09-24 15:00:12.229855,65
2021-09-24 15:00:12.229862,63
2021-09-24 15:00:12.229868,63
2021-09-24 15:00:12.229875,55
2021-09-24 15:00:12.229881,43
2021-09-24 15:00:12.229888,41
2021-09-24 15:00:12.455309,46
2021-09-24 15:00:12.455333,43
2021-09-24 15:00:12.455340,43
2021-09-24 15:00:12.455347,43
2021-09-24 15:00:12.455354,43
2021-09-24 15:00:12.455361,41
2021-09-24 15:00:12.455367,38
2021-09-24 15:00:12.455380,36
2021-09-24 15:00:12.455387,29
2021-09-24 15:00:12.455394,14
2021-09-24 15:00:12.455400,4
2021-09-24 15:00:12.455407,12
2021-09-24 15:00:12.455413,4
2021-09-24 15:00:12.455420,-7
2021-09-24 15:00:12.455427,4
2021-09-24 15:00:12.455433,26
2021-09-24 15:00:12.455440,38
2021-09-24 15:00:12.455446,36
2021-09-24 15:00:12.455453,29
2021-09-24 15:00:12.455459,29
2021-09-24 15:00:12.455466,31
2021-09-24 15:00:12.455473,26
2021-09-24 15:00:12.455479,29
2021-09-24 15:00:12.455486,31
2021-09-24 15:00:12.455492,29
2021-09-24 15:00:12.455499,24
2021-09-24 15:00:12.455505,0
2021-09-24 15:00:12.455512,-63
2021-09-24 15:00:12.455519,-223
2021-09-24 15:00:12.455526,-478
2021-09-24 15:00:12.680234,-573
2021-09-24 15:00:12.680258,-296
2021-09-24 15:00:12.680265,230
2021-09-24 15:00:12.680272,612
2021-09-24 15:00:12.680279,461
2021-09-24 15:00:12.680285,111
2021-09-24 15:00:12.680292,51
2021-09-24 15:00:12.680298,48
2021-09-24 15:00:12.680305,-70
2021-09-24 15:00:12.680311,-102
2021-09-24 15:00:12.680318,-72
2021-09-24 15:00:12.680324,-104
2021-09-24 15:00:12.680331,-133
2021-09-24 15:00:12.680337,-123
2021-09-24 15:00:12.680344,-128
2021-09-24 15:00:12.680351,-148
2021-09-24 15:00:12.680357,-153
2021-09-24 15:00:12.680364,-162
2021-09-24 15:00:12.680370,-179
2021-09-24 15:00:12.680377,-194
2021-09-24 15:00:12.680383,-208
2021-09-24 15:00:12.680389,-225
2021-09-24 15:00:12.680396,-245
2021-09-24 15:00:12.680403,-274
2021-09-24 15:00:12.680414,-303
2021-09-24 15:00:12.680421,-330
2021-09-24 15:00:12.680427,-361
2021-09-24 15:00:12.680434,-395
2021-09-24 15:00:12.680441,-425
2021-09-24 15:00:12.680447,-442
2021-09-24 15:00:12.905265,-446
2021-09-24 15:00:12.905288,-434
2021-09-24 15:00:12.905296,-408
2021-09-24 15:00:12.905303,-364
2021-09-24 15:00:12.905310,-298
2021-09-24 15:00:12.905317,-206
2021-09-24 15:00:12.905324,-87
2021-09-24 15:00:12.905331,19
2021-09-24 15:00:12.905338,94
2021-09-24 15:00:12.905345,155
2021-09-24 15:00:12.905351,191
2021-09-24 15:00:12.905358,206
2021-09-24 15:00:12.905365,221
2021-09-24 15:00:12.905372,233
2021-09-24 15:00:12.905379,230
2021-09-24 15:00:12.905386,221
2021-09-24 15:00:12.905393,213
2021-09-24 15:00:12.905399,206
2021-09-24 15:00:12.905406,204
2021-09-24 15:00:12.905413,199
2021-09-24 15:00:12.905420,189
2021-09-24 15:00:12.905427,170
2021-09-24 15:00:12.905436,150
2021-09-24 15:00:12.905443,148
2021-09-24 15:00:12.905449,143
2021-09-24 15:00:12.905456,133
2021-09-24 15:00:12.905463,128
2021-09-24 15:00:12.905470,126
2021-09-24 15:00:12.905477,119
2021-09-24 15:00:12.905484,116
2021-09-24 15:00:13.264032,119
2021-09-24 15:00:13.264054,119
2021-09-24 15:00:13.264062,114
2021-09-24 15:00:13.264069,109
2021-09-24 15:00:13.264075,106
2021-09-24 15:00:13.264082,104
2021-09-24 15:00:13.264088,104
2021-09-24 15:00:13.264095,106
2021-09-24 15:00:13.264101,106
2021-09-24 15:00:13.264108,104
2021-09-24 15:00:13.264115,92
2021-09-24 15:00:13.264121,82
2021-09-24 15:00:13.264128,89
2021-09-24 15:00:13.264134,102
2021-09-24 15:00:13.264141,99
2021-09-24 15:00:13.264179,85
2021-09-24 15:00:13.264186,80
2021-09-24 15:00:13.264192,89
2021-09-24 15:00:13.264199,87
2021-09-24 15:00:13.264206,82
2021-09-24 15:00:13.264212,85
2021-09-24 15:00:13.264219,80
2021-09-24 15:00:13.264225,77
2021-09-24 15:00:13.264232,75
2021-09-24 15:00:13.264243,70
2021-09-24 15:00:13.264249,70
2021-09-24 15:00:13.264256,72
2021-09-24 15:00:13.264263,68
2021-09-24 15:00:13.264269,63
2021-09-24 15:00:13.264276,65
2021-09-24 15:00:13.444636,68
2021-09-24 15:00:13.444660,65
2021-09-24 15:00:13.444668,60
2021-09-24 15:00:13.444675,51
2021-09-24 15:00:13.444681,46
2021-09-24 15:00:13.444688,53
2021-09-24 15:00:13.444695,60
2021-09-24 15:00:13.444701,55
2021-09-24 15:00:13.444708,34
2021-09-24 15:00:13.444714,4
2021-09-24 15:00:13.444721,0
2021-09-24 15:00:13.444728,12
2021-09-24 15:00:13.444734,4
2021-09-24 15:00:13.444741,4
2021-09-24 15:00:13.444747,24
2021-09-24 15:00:13.444754,29
2021-09-24 15:00:13.444760,29
2021-09-24 15:00:13.444767,34
2021-09-24 15:00:13.444774,36
2021-09-24 15:00:13.444780,36
2021-09-24 15:00:13.444787,29
2021-09-24 15:00:13.444793,19
2021-09-24 15:00:13.444800,24
2021-09-24 15:00:13.444807,34
2021-09-24 15:00:13.444813,29
2021-09-24 15:00:13.444820,-4
2021-09-24 15:00:13.444826,-60
2021-09-24 15:00:13.444833,-174
2021-09-24 15:00:13.444840,-403
2021-09-24 15:00:13.444846,-570
2021-09-24 15:00:13.670177,-410
2021-09-24 15:00:13.670200,70
2021-09-24 15:00:13.670208,546
2021-09-24 15:00:13.670215,531
2021-09-24 15:00:13.670222,153
2021-09-24 15:00:13.670229,26
2021-09-24 15:00:13.670236,72
2021-09-24 15:00:13.670243,-36
2021-09-24 15:00:13.670250,-126
2021-09-24 15:00:13.670257,-102
2021-09-24 15:00:13.670264,-104
2021-09-24 15:00:13.670271,-136
2021-09-24 15:00:13.670278,-131
2021-09-24 15:00:13.670285,-128
2021-09-24 15:00:13.670292,-153
2021-09-24 15:00:13.670299,-172
2021-09-24 15:00:13.670306,-174
2021-09-24 15:00:13.670312,-177
2021-09-24 15:00:13.670319,-194
2021-09-24 15:00:13.670326,-211
2021-09-24 15:00:13.670333,-230
2021-09-24 15:00:13.670340,-252
2021-09-24 15:00:13.670347,-269
2021-09-24 15:00:13.670354,-293
2021-09-24 15:00:13.670361,-327
2021-09-24 15:00:13.670368,-359
2021-09-24 15:00:13.670375,-398
2021-09-24 15:00:13.670382,-437
2021-09-24 15:00:13.670389,-456
2021-09-24 15:00:13.670396,-456
2021-09-24 15:00:13.850218,-449
2021-09-24 15:00:13.850242,-425
2021-09-24 15:00:13.850250,-381
2021-09-24 15:00:13.850257,-306
2021-09-24 15:00:13.850263,-194
2021-09-24 15:00:13.850270,-77
2021-09-24 15:00:13.850276,21
2021-09-24 15:00:13.850283,102
2021-09-24 15:00:13.850290,157
2021-09-24 15:00:13.850296,191
2021-09-24 15:00:13.850306,225
2021-09-24 15:00:13.850313,245
2021-09-24 15:00:13.850320,247
2021-09-24 15:00:13.850326,247
2021-09-24 15:00:13.850333,242
2021-09-24 15:00:13.850339,221
2021-09-24 15:00:13.850346,211
2021-09-24 15:00:13.850353,213
2021-09-24 15:00:13.850359,201
2021-09-24 15:00:13.850366,184
2021-09-24 15:00:13.850373,172
2021-09-24 15:00:13.850379,165
2021-09-24 15:00:13.850386,153
2021-09-24 15:00:13.850393,143
2021-09-24 15:00:13.850399,140
2021-09-24 15:00:13.850406,136
2021-09-24 15:00:13.850412,126
2021-09-24 15:00:13.850419,121
2021-09-24 15:00:13.850426,116
2021-09-24 15:00:13.850432,114
2021-09-24 15:00:14.075341,111
2021-09-24 15:00:14.075365,106
2021-09-24 15:00:14.075373,104
2021-09-24 15:00:14.075380,106
2021-09-24 15:00:14.075388,111
2021-09-24 15:00:14.075394,114
2021-09-24 15:00:14.075401,109
2021-09-24 15:00:14.075408,102
2021-09-24 15:00:14.075415,97
2021-09-24 15:00:14.075422,99
2021-09-24 15:00:14.075429,99
2021-09-24 15:00:14.075436,102
2021-09-24 15:00:14.075443,97
2021-09-24 15:00:14.075450,87
2021-09-24 15:00:14.075457,87
2021-09-24 15:00:14.075464,92
2021-09-24 15:00:14.075471,89
2021-09-24 15:00:14.075478,87
2021-09-24 15:00:14.075485,85
2021-09-24 15:00:14.075492,87
2021-09-24 15:00:14.075499,87
2021-09-24 15:00:14.075506,87
2021-09-24 15:00:14.075514,87
2021-09-24 15:00:14.075521,85
2021-09-24 15:00:14.075528,77
2021-09-24 15:00:14.075538,77
2021-09-24 15:00:14.075545,82
2021-09-24 15:00:14.075552,82
2021-09-24 15:00:14.075559,70
2021-09-24 15:00:14.075566,55
2021-09-24 15:00:14.300249,51
2021-09-24 15:00:14.300271,51
2021-09-24 15:00:14.300280,36
2021-09-24 15:00:14.300287,34
2021-09-24 15:00:14.300294,51
2021-09-24 15:00:14.300301,63
2021-09-24 15:00:14.300307,68
2021-09-24 15:00:14.300314,65
2021-09-24 15:00:14.300321,68
2021-09-24 15:00:14.300328,68
2021-09-24 15:00:14.300334,68
2021-09-24 15:00:14.300341,70
2021-09-24 15:00:14.300348,63
2021-09-24 15:00:14.300355,55
2021-09-24 15:00:14.300361,53
2021-09-24 15:00:14.300368,31
2021-09-24 15:00:14.300375,-19
2021-09-24 15:00:14.300382,-116
2021-09-24 15:00:14.300389,-323
2021-09-24 15:00:14.300395,-507
2021-09-24 15:00:14.300402,-383
2021-09-24 15:00:14.300409,72
2021-09-24 15:00:14.300416,561
2021-09-24 15:00:14.300423,607
2021-09-24 15:00:14.300430,233
2021-09-24 15:00:14.300437,53
2021-09-24 15:00:14.300443,94
2021-09-24 15:00:14.300450,2
2021-09-24 15:00:14.300457,-97
2021-09-24 15:00:14.300464,-75
2021-09-24 15:00:14.570202,-70
2021-09-24 15:00:14.570224,-102
2021-09-24 15:00:14.570233,-104
2021-09-24 15:00:14.570239,-116
2021-09-24 15:00:14.570246,-143
2021-09-24 15:00:14.570253,-155
2021-09-24 15:00:14.570259,-170
2021-09-24 15:00:14.570266,-184
2021-09-24 15:00:14.570272,-189
2021-09-24 15:00:14.570279,-204
2021-09-24 15:00:14.570286,-225
2021-09-24 15:00:14.570292,-247
2021-09-24 15:00:14.570299,-274
2021-09-24 15:00:14.570305,-298
2021-09-24 15:00:14.570312,-327
2021-09-24 15:00:14.570318,-359
2021-09-24 15:00:14.570328,-395
2021-09-24 15:00:14.570334,-429
2021-09-24 15:00:14.570341,-449
2021-09-24 15:00:14.570347,-449
2021-09-24 15:00:14.570354,-444
2021-09-24 15:00:14.570361,-422
2021-09-24 15:00:14.570367,-369
2021-09-24 15:00:14.570374,-286
2021-09-24 15:00:14.570381,-179
2021-09-24 15:00:14.570387,-63
2021-09-24 15:00:14.570394,38
2021-09-24 15:00:14.570400,116
2021-09-24 15:00:14.570407,177
2021-09-24 15:00:14.570413,221
2021-09-24 15:00:14.750126,238
2021-09-24 15:00:14.750148,247
2021-09-24 15:00:14.750156,250
2021-09-24 15:00:14.750163,247
2021-09-24 15:00:14.750169,247
2021-09-24 15:00:14.750176,247
2021-09-24 15:00:14.750182,235
2021-09-24 15:00:14.750189,223
2021-09-24 15:00:14.750195,221
2021-09-24 15:00:14.750202,213
2021-09-24 15:00:14.750208,196
2021-09-24 15:00:14.750215,179
2021-09-24 15:00:14.750221,170
2021-09-24 15:00:14.750228,165
2021-09-24 15:00:14.750235,157
2021-09-24 15:00:14.750241,145
2021-09-24 15:00:14.750248,136
2021-09-24 15:00:14.750254,126
2021-09-24 15:00:14.750261,123
2021-09-24 15:00:14.750267,123
2021-09-24 15:00:14.750274,121
2021-09-24 15:00:14.750281,121
2021-09-24 15:00:14.750288,116
2021-09-24 15:00:14.750294,111
2021-09-24 15:00:14.750301,114
2021-09-24 15:00:14.750308,111
2021-09-24 15:00:14.750314,102
2021-09-24 15:00:14.750321,99
2021-09-24 15:00:14.750327,99
2021-09-24 15:00:14.750334,99
2021-09-24 15:00:15.020292,99
2021-09-24 15:00:15.020314,99
2021-09-24 15:00:15.020321,102
2021-09-24 15:00:15.020328,97
2021-09-24 15:00:15.020335,87
2021-09-24 15:00:15.020341,85
2021-09-24 15:00:15.020348,87
2021-09-24 15:00:15.020354,85
2021-09-24 15:00:15.020361,77
2021-09-24 15:00:15.020368,68
2021-09-24 15:00:15.020374,60
2021-09-24 15:00:15.020381,58
2021-09-24 15:00:15.020387,65
2021-09-24 15:00:15.020397,68
2021-09-24 15:00:15.020404,65
2021-09-24 15:00:15.020410,63
2021-09-24 15:00:15.020417,70
2021-09-24 15:00:15.020423,80
2021-09-24 15:00:15.020430,75
2021-09-24 15:00:15.020436,58
2021-09-24 15:00:15.020443,38
2021-09-24 15:00:15.020450,29
2021-09-24 15:00:15.020456,34
2021-09-24 15:00:15.020463,34
2021-09-24 15:00:15.020470,34
2021-09-24 15:00:15.020476,46
2021-09-24 15:00:15.020483,63
2021-09-24 15:00:15.020489,70
2021-09-24 15:00:15.020496,68
2021-09-24 15:00:15.020503,70
2021-09-24 15:00:15.289035,77
2021-09-24 15:00:15.289065,77
2021-09-24 15:00:15.289076,72
2021-09-24 15:00:15.289087,63
2021-09-24 15:00:15.289097,53
2021-09-24 15:00:15.289107,51
2021-09-24 15:00:15.289117,29
2021-09-24 15:00:15.289127,-41
2021-09-24 15:00:15.289137,-201
2021-09-24 15:00:15.289147,-439
2021-09-24 15:00:15.289157,-505
2021-09-24 15:00:15.289168,-223
2021-09-24 15:00:15.289178,262
2021-09-24 15:00:15.289188,607
2021-09-24 15:00:15.289198,461
2021-09-24 15:00:15.289208,114
2021-09-24 15:00:15.289218,53
2021-09-24 15:00:15.289228,63
2021-09-24 15:00:15.289238,-48
2021-09-24 15:00:15.289248,-82
2021-09-24 15:00:15.289259,-51
2021-09-24 15:00:15.289269,-77
2021-09-24 15:00:15.289279,-111
2021-09-24 15:00:15.289289,-111
2021-09-24 15:00:15.289299,-119
2021-09-24 15:00:15.289309,-128
2021-09-24 15:00:15.289319,-128
2021-09-24 15:00:15.289329,-140
2021-09-24 15:00:15.289339,-157
2021-09-24 15:00:15.289349,-162
2021-09-24 15:00:15.515381,-184
2021-09-24 15:00:15.515412,-221
2021-09-24 15:00:15.515424,-247
2021-09-24 15:00:15.515435,-276
2021-09-24 15:00:15.515445,-306
2021-09-24 15:00:15.515455,-335
2021-09-24 15:00:15.515465,-374
2021-09-24 15:00:15.515475,-422
2021-09-24 15:00:15.515485,-461
2021-09-24 15:00:15.515495,-485
2021-09-24 15:00:15.515505,-488
2021-09-24 15:00:15.515515,-478
2021-09-24 15:00:15.515525,-456
2021-09-24 15:00:15.515535,-391
2021-09-24 15:00:15.515545,-293
2021-09-24 15:00:15.515555,-191
2021-09-24 15:00:15.515565,-82
2021-09-24 15:00:15.515583,19
2021-09-24 15:00:15.515593,94
2021-09-24 15:00:15.515603,150
2021-09-24 15:00:15.515613,184
2021-09-24 15:00:15.515623,196
2021-09-24 15:00:15.515633,206
2021-09-24 15:00:15.515643,213
2021-09-24 15:00:15.515653,211
2021-09-24 15:00:15.515663,206
2021-09-24 15:00:15.515673,206
2021-09-24 15:00:15.515683,204
2021-09-24 15:00:15.515693,199
2021-09-24 15:00:15.515703,191
2021-09-24 15:00:15.739352,182
2021-09-24 15:00:15.739373,172
2021-09-24 15:00:15.739381,157
2021-09-24 15:00:15.739388,143
2021-09-24 15:00:15.739395,136
2021-09-24 15:00:15.739402,131
2021-09-24 15:00:15.739408,116
2021-09-24 15:00:15.739415,104
2021-09-24 15:00:15.739421,92
2021-09-24 15:00:15.739428,87
2021-09-24 15:00:15.739435,87
2021-09-24 15:00:15.739442,89
2021-09-24 15:00:15.739448,94
2021-09-24 15:00:15.739455,94
2021-09-24 15:00:15.739462,85
2021-09-24 15:00:15.739468,82
2021-09-24 15:00:15.739475,87
2021-09-24 15:00:15.739481,85
2021-09-24 15:00:15.739488,85
2021-09-24 15:00:15.739494,87
2021-09-24 15:00:15.739501,80
2021-09-24 15:00:15.739507,75
2021-09-24 15:00:15.739514,77
2021-09-24 15:00:15.739520,82
2021-09-24 15:00:15.739527,82
2021-09-24 15:00:15.739533,77
2021-09-24 15:00:15.739540,72
2021-09-24 15:00:15.739546,72
2021-09-24 15:00:15.739553,75
2021-09-24 15:00:15.739559,75
2021-09-24 15:00:16.010247,72
2021-09-24 15:00:16.010269,77
2021-09-24 15:00:16.010277,82
2021-09-24 15:00:16.010284,75
2021-09-24 15:00:16.010291,60
2021-09-24 15:00:16.010298,41
2021-09-24 15:00:16.010304,24
2021-09-24 15:00:16.010311,17
2021-09-24 15:00:16.010317,7
2021-09-24 15:00:16.010324,7
2021-09-24 15:00:16.010330,24
2021-09-24 15:00:16.010337,43
2021-09-24 15:00:16.010343,48
2021-09-24 15:00:16.010350,36
2021-09-24 15:00:16.010356,31
2021-09-24 15:00:16.010363,34
2021-09-24 15:00:16.010369,31
2021-09-24 15:00:16.010376,26
2021-09-24 15:00:16.010382,24
2021-09-24 15:00:16.010389,24
2021-09-24 15:00:16.010396,24
2021-09-24 15:00:16.010402,9
2021-09-24 15:00:16.010409,-31
2021-09-24 15:00:16.010416,-111
2021-09-24 15:00:16.010422,-296
2021-09-24 15:00:16.010429,-497
2021-09-24 15:00:16.010435,-439
2021-09-24 15:00:16.010442,-34
2021-09-24 15:00:16.010449,490
2021-09-24 15:00:16.010458,646
2021-09-24 15:00:16.145280,298
2021-09-24 15:00:16.145303,51
2021-09-24 15:00:16.145311,89
2021-09-24 15:00:16.145318,29
2021-09-24 15:00:16.145325,-89
2021-09-24 15:00:16.145332,-85
2021-09-24 15:00:16.145339,-77
2021-09-24 15:00:16.145345,-116
2021-09-24 15:00:16.145352,-121
2021-09-24 15:00:16.145358,-116
2021-09-24 15:00:16.145365,-131
2021-09-24 15:00:16.145372,-136
2021-09-24 15:00:16.145378,-140
2021-09-24 15:00:16.145385,-153
2021-09-24 15:00:16.145391,-172
2021-09-24 15:00:16.145398,-189
2021-09-24 15:00:16.145404,-199
2021-09-24 15:00:16.145411,-218
2021-09-24 15:00:16.145417,-255
2021-09-24 15:00:16.145424,-284
2021-09-24 15:00:16.145431,-308
2021-09-24 15:00:16.145437,-347
2021-09-24 15:00:16.145444,-383
2021-09-24 15:00:16.145450,-412
2021-09-24 15:00:16.145457,-439
2021-09-24 15:00:16.145464,-451
2021-09-24 15:00:16.145470,-449
2021-09-24 15:00:16.145477,-439
2021-09-24 15:00:16.145483,-391
2021-09-24 15:00:16.145551,-306
2021-09-24 15:00:16.370305,-204
2021-09-24 15:00:16.370327,-92
2021-09-24 15:00:16.370334,14
2021-09-24 15:00:16.370341,99
2021-09-24 15:00:16.370348,162
2021-09-24 15:00:16.370355,201
2021-09-24 15:00:16.370361,216
2021-09-24 15:00:16.370368,223
2021-09-24 15:00:16.370375,233
2021-09-24 15:00:16.370381,233
2021-09-24 15:00:16.370388,225
2021-09-24 15:00:16.370395,208
2021-09-24 15:00:16.370402,189
2021-09-24 15:00:16.370408,179
2021-09-24 15:00:16.370415,170
2021-09-24 15:00:16.370421,153
2021-09-24 15:00:16.370428,143
2021-09-24 15:00:16.370435,136
2021-09-24 15:00:16.370441,123
2021-09-24 15:00:16.370448,111
2021-09-24 15:00:16.370455,99
2021-09-24 15:00:16.370461,85
2021-09-24 15:00:16.370468,80
2021-09-24 15:00:16.370475,75
2021-09-24 15:00:16.370481,70
2021-09-24 15:00:16.370488,70
2021-09-24 15:00:16.370495,70
2021-09-24 15:00:16.370501,68
2021-09-24 15:00:16.370508,75
2021-09-24 15:00:16.370515,82
2021-09-24 15:00:16.595291,80
2021-09-24 15:00:16.595314,77
2021-09-24 15:00:16.595321,87
2021-09-24 15:00:16.595328,89
2021-09-24 15:00:16.595335,77
2021-09-24 15:00:16.595341,68
2021-09-24 15:00:16.595348,70
2021-09-24 15:00:16.595354,80
2021-09-24 15:00:16.595360,77
2021-09-24 15:00:16.595367,75
2021-09-24 15:00:16.595373,72
2021-09-24 15:00:16.595380,68
2021-09-24 15:00:16.595386,68
2021-09-24 15:00:16.595393,75
2021-09-24 15:00:16.595399,77
2021-09-24 15:00:16.595406,80
2021-09-24 15:00:16.595412,85
2021-09-24 15:00:16.595419,77
2021-09-24 15:00:16.595425,68
2021-09-24 15:00:16.595432,60
2021-09-24 15:00:16.595442,55
2021-09-24 15:00:16.595449,38
2021-09-24 15:00:16.595455,21
2021-09-24 15:00:16.595461,26
2021-09-24 15:00:16.595468,51
2021-09-24 15:00:16.595474,68
2021-09-24 15:00:16.595481,72
2021-09-24 15:00:16.595519,68
2021-09-24 15:00:16.595564,60
2021-09-24 15:00:16.595578,63
2021-09-24 15:00:16.820240,70
2021-09-24 15:00:16.820262,70
2021-09-24 15:00:16.820269,65
2021-09-24 15:00:16.820276,63
2021-09-24 15:00:16.820283,55
2021-09-24 15:00:16.820290,29
2021-09-24 15:00:16.820296,-21
2021-09-24 15:00:16.820303,-119
2021-09-24 15:00:16.820309,-325
2021-09-24 15:00:16.820316,-483
2021-09-24 15:00:16.820322,-310
2021-09-24 15:00:16.820329,123
2021-09-24 15:00:16.820336,531
2021-09-24 15:00:16.820342,580
2021-09-24 15:00:16.820349,257
2021-09-24 15:00:16.820356,68
2021-09-24 15:00:16.820362,87
2021-09-24 15:00:16.820369,-7
2021-09-24 15:00:16.820376,-102
2021-09-24 15:00:16.820382,-75
2021-09-24 15:00:16.820389,-65
2021-09-24 15:00:16.820395,-102
2021-09-24 15:00:16.820402,-109
2021-09-24 15:00:16.820409,-106
2021-09-24 15:00:16.820415,-126
2021-09-24 15:00:16.820422,-138
2021-09-24 15:00:16.820428,-143
2021-09-24 15:00:16.820435,-157
2021-09-24 15:00:16.820442,-172
2021-09-24 15:00:16.820448,-179
2021-09-24 15:00:17.090249,-191
2021-09-24 15:00:17.090272,-213
2021-09-24 15:00:17.090280,-238
2021-09-24 15:00:17.090287,-272
2021-09-24 15:00:17.090294,-313
2021-09-24 15:00:17.090300,-344
2021-09-24 15:00:17.090307,-374
2021-09-24 15:00:17.090313,-403
2021-09-24 15:00:17.090320,-427
2021-09-24 15:00:17.090326,-444
2021-09-24 15:00:17.090333,-444
2021-09-24 15:00:17.090340,-412
2021-09-24 15:00:17.090347,-357
2021-09-24 15:00:17.090353,-274
2021-09-24 15:00:17.090360,-165
2021-09-24 15:00:17.090366,-51
2021-09-24 15:00:17.090373,48
2021-09-24 15:00:17.090380,128
2021-09-24 15:00:17.090386,189
2021-09-24 15:00:17.090393,228
2021-09-24 15:00:17.090400,250
2021-09-24 15:00:17.090407,257
2021-09-24 15:00:17.090413,259
2021-09-24 15:00:17.090432,259
2021-09-24 15:00:17.090439,257
2021-09-24 15:00:17.090446,252
2021-09-24 15:00:17.090452,238
2021-09-24 15:00:17.090459,218
2021-09-24 15:00:17.090466,211
2021-09-24 15:00:17.090473,208
2021-09-24 15:00:17.358929,199
2021-09-24 15:00:17.358953,187
2021-09-24 15:00:17.358961,177
2021-09-24 15:00:17.358967,162
2021-09-24 15:00:17.358974,153
2021-09-24 15:00:17.358980,150
2021-09-24 15:00:17.358987,145
2021-09-24 15:00:17.358993,138
2021-09-24 15:00:17.359000,126
2021-09-24 15:00:17.359007,111
2021-09-24 15:00:17.359013,106
2021-09-24 15:00:17.359020,109
2021-09-24 15:00:17.359026,104
2021-09-24 15:00:17.359033,99
2021-09-24 15:00:17.359039,92
2021-09-24 15:00:17.359046,80
2021-09-24 15:00:17.359052,80
2021-09-24 15:00:17.359059,87
2021-09-24 15:00:17.359066,87
2021-09-24 15:00:17.359072,85
2021-09-24 15:00:17.359079,80
2021-09-24 15:00:17.359085,75
2021-09-24 15:00:17.359097,70
2021-09-24 15:00:17.359104,60
2021-09-24 15:00:17.359111,55
2021-09-24 15:00:17.359117,63
2021-09-24 15:00:17.359124,60
2021-09-24 15:00:17.359161,51
2021-09-24 15:00:17.359168,46
2021-09-24 15:00:17.359175,43
2021-09-24 15:00:17.539461,48
2021-09-24 15:00:17.539477,55
2021-09-24 15:00:17.539482,55
2021-09-24 15:00:17.539487,55
2021-09-24 15:00:17.539492,55
2021-09-24 15:00:17.539496,48
2021-09-24 15:00:17.539501,36
2021-09-24 15:00:17.539505,26
2021-09-24 15:00:17.539510,17
2021-09-24 15:00:17.539514,4
2021-09-24 15:00:17.539519,9
2021-09-24 15:00:17.539523,31
2021-09-24 15:00:17.539528,46
2021-09-24 15:00:17.539532,48
2021-09-24 15:00:17.539537,38
2021-09-24 15:00:17.539541,36
2021-09-24 15:00:17.539546,46
2021-09-24 15:00:17.539550,48
2021-09-24 15:00:17.539555,51
2021-09-24 15:00:17.539559,51
2021-09-24 15:00:17.539564,48
2021-09-24 15:00:17.539568,46
2021-09-24 15:00:17.539573,38
2021-09-24 15:00:17.539577,2
2021-09-24 15:00:17.539582,-82
2021-09-24 15:00:17.539586,-272
2021-09-24 15:00:17.539591,-495
2021-09-24 15:00:17.539595,-461
2021-09-24 15:00:17.539600,-94
2021-09-24 15:00:17.539604,408
2021-09-24 15:00:17.764437,651
2021-09-24 15:00:17.764452,376
2021-09-24 15:00:17.764458,77
2021-09-24 15:00:17.764463,85
2021-09-24 15:00:17.764468,48
2021-09-24 15:00:17.764473,-68
2021-09-24 15:00:17.764477,-65
2021-09-24 15:00:17.764482,-48
2021-09-24 15:00:17.764487,-92
2021-09-24 15:00:17.764491,-104
2021-09-24 15:00:17.764496,-92
2021-09-24 15:00:17.764500,-104
2021-09-24 15:00:17.764505,-121
2021-09-24 15:00:17.764510,-133
2021-09-24 15:00:17.764514,-148
2021-09-24 15:00:17.764519,-160
2021-09-24 15:00:17.764523,-167
2021-09-24 15:00:17.764528,-179
2021-09-24 15:00:17.764533,-201
2021-09-24 15:00:17.764537,-228
2021-09-24 15:00:17.764542,-257
2021-09-24 15:00:17.764547,-289
2021-09-24 15:00:17.764551,-323
2021-09-24 15:00:17.764556,-359
2021-09-24 15:00:17.764560,-393
2021-09-24 15:00:17.764565,-420
2021-09-24 15:00:17.764569,-434
2021-09-24 15:00:17.764574,-437
2021-09-24 15:00:17.764579,-425
2021-09-24 15:00:17.764583,-391
2021-09-24 15:00:17.990406,-320
2021-09-24 15:00:17.990430,-213
2021-09-24 15:00:17.990438,-99
2021-09-24 15:00:17.990445,-2
2021-09-24 15:00:17.990452,92
2021-09-24 15:00:17.990459,167
2021-09-24 15:00:17.990466,204
2021-09-24 15:00:17.990473,221
2021-09-24 15:00:17.990557,240
2021-09-24 15:00:17.990593,247
2021-09-24 15:00:17.990603,245
2021-09-24 15:00:17.990611,240
2021-09-24 15:00:17.990618,233
2021-09-24 15:00:17.990625,223
2021-09-24 15:00:17.990632,216
2021-09-24 15:00:17.990670,206
2021-09-24 15:00:17.990682,191
2021-09-24 15:00:17.990694,179
2021-09-24 15:00:17.990707,170
2021-09-24 15:00:17.990719,157
2021-09-24 15:00:17.990731,148
2021-09-24 15:00:17.990742,140
2021-09-24 15:00:17.990753,133
2021-09-24 15:00:17.990764,131
2021-09-24 15:00:17.990775,121
2021-09-24 15:00:17.990787,116
2021-09-24 15:00:17.990798,116
2021-09-24 15:00:17.990807,111
2021-09-24 15:00:17.990816,106
2021-09-24 15:00:17.990824,109
2021-09-24 15:00:18.214918,109
2021-09-24 15:00:18.214952,106
2021-09-24 15:00:18.214959,99
2021-09-24 15:00:18.214964,94
2021-09-24 15:00:18.214970,87
2021-09-24 15:00:18.214982,70
2021-09-24 15:00:18.214988,60
2021-09-24 15:00:18.214994,63
2021-09-24 15:00:18.215000,65
2021-09-24 15:00:18.215005,60
2021-09-24 15:00:18.215011,55
2021-09-24 15:00:18.215017,53
2021-09-24 15:00:18.215023,48
2021-09-24 15:00:18.215028,48
2021-09-24 15:00:18.215034,48
2021-09-24 15:00:18.215040,46
2021-09-24 15:00:18.215045,46
2021-09-24 15:00:18.215051,46
2021-09-24 15:00:18.215057,41
2021-09-24 15:00:18.215062,43
2021-09-24 15:00:18.215068,46
2021-09-24 15:00:18.215074,41
2021-09-24 15:00:18.215080,38
2021-09-24 15:00:18.215085,38
2021-09-24 15:00:18.215091,36
2021-09-24 15:00:18.215097,36
2021-09-24 15:00:18.215102,38
2021-09-24 15:00:18.215108,41
2021-09-24 15:00:18.215114,38
2021-09-24 15:00:18.215119,29
2021-09-24 15:00:18.440464,12
2021-09-24 15:00:18.440496,2
2021-09-24 15:00:18.440508,7
2021-09-24 15:00:18.440518,7
2021-09-24 15:00:18.440529,-21
2021-09-24 15:00:18.440704,-38
2021-09-24 15:00:18.440724,-24
2021-09-24 15:00:18.440735,-4
2021-09-24 15:00:18.440747,4
2021-09-24 15:00:18.440758,7
2021-09-24 15:00:18.440768,7
2021-09-24 15:00:18.440779,4
2021-09-24 15:00:18.440790,4
2021-09-24 15:00:18.440802,12
2021-09-24 15:00:18.440812,12
2021-09-24 15:00:18.440819,12
2021-09-24 15:00:18.440825,12
2021-09-24 15:00:18.440832,-4
2021-09-24 15:00:18.440839,-46
2021-09-24 15:00:18.440845,-145
2021-09-24 15:00:18.440852,-364
2021-09-24 15:00:18.440858,-566
2021-09-24 15:00:18.440864,-461
2021-09-24 15:00:18.440871,-38
2021-09-24 15:00:18.440877,461
2021-09-24 15:00:18.440884,612
2021-09-24 15:00:18.440890,279
2021-09-24 15:00:18.440897,46
2021-09-24 15:00:18.440903,75
2021-09-24 15:00:18.440910,2
2021-09-24 15:00:18.709831,-94
2021-09-24 15:00:18.709853,-68
2021-09-24 15:00:18.709859,-63
2021-09-24 15:00:18.709865,-106
2021-09-24 15:00:18.709870,-116
2021-09-24 15:00:18.709875,-116
2021-09-24 15:00:18.709881,-128
2021-09-24 15:00:18.709886,-136
2021-09-24 15:00:18.709891,-143
2021-09-24 15:00:18.709897,-165
2021-09-24 15:00:18.709903,-182
2021-09-24 15:00:18.709908,-194
2021-09-24 15:00:18.709913,-211
2021-09-24 15:00:18.709918,-228
2021-09-24 15:00:18.709924,-247
2021-09-24 15:00:18.709929,-276
2021-09-24 15:00:18.709934,-308
2021-09-24 15:00:18.709939,-337
2021-09-24 15:00:18.709945,-369
2021-09-24 15:00:18.709950,-398
2021-09-24 15:00:18.709955,-417
2021-09-24 15:00:18.709960,-432
2021-09-24 15:00:18.709965,-434
2021-09-24 15:00:18.709971,-415
2021-09-24 15:00:18.709976,-364
2021-09-24 15:00:18.709981,-289
2021-09-24 15:00:18.709986,-189
2021-09-24 15:00:18.709992,-80
2021-09-24 15:00:18.709997,21
2021-09-24 15:00:18.710002,106
2021-09-24 15:00:18.890442,172
2021-09-24 15:00:18.890466,218
2021-09-24 15:00:18.890474,242
2021-09-24 15:00:18.890481,247
2021-09-24 15:00:18.890487,242
2021-09-24 15:00:18.890494,245
2021-09-24 15:00:18.890501,245
2021-09-24 15:00:18.890507,230
2021-09-24 15:00:18.890514,216
2021-09-24 15:00:18.890520,204
2021-09-24 15:00:18.890527,189
2021-09-24 15:00:18.890534,172
2021-09-24 15:00:18.890540,165
2021-09-24 15:00:18.890547,157
2021-09-24 15:00:18.890553,140
2021-09-24 15:00:18.890560,121
2021-09-24 15:00:18.890567,109
2021-09-24 15:00:18.890573,106
2021-09-24 15:00:18.890580,106
2021-09-24 15:00:18.890586,102
2021-09-24 15:00:18.890593,92
2021-09-24 15:00:18.890599,87
2021-09-24 15:00:18.890606,82
2021-09-24 15:00:18.890613,80
2021-09-24 15:00:18.890619,80
2021-09-24 15:00:18.890626,80
2021-09-24 15:00:18.890632,72
2021-09-24 15:00:18.890639,68
2021-09-24 15:00:18.890645,70
2021-09-24 15:00:18.890652,72
2021-09-24 15:00:19.249275,72
2021-09-24 15:00:19.249307,72
2021-09-24 15:00:19.249320,68
2021-09-24 15:00:19.249331,53
2021-09-24 15:00:19.249341,51
2021-09-24 15:00:19.249351,58
2021-09-24 15:00:19.249361,58
2021-09-24 15:00:19.249372,55
2021-09-24 15:00:19.249382,51
2021-09-24 15:00:19.249392,41
2021-09-24 15:00:19.249402,41
2021-09-24 15:00:19.249413,43
2021-09-24 15:00:19.249423,36
2021-09-24 15:00:19.249433,29
2021-09-24 15:00:19.249443,29
2021-09-24 15:00:19.249454,24
2021-09-24 15:00:19.249464,21
2021-09-24 15:00:19.249474,29
2021-09-24 15:00:19.249485,36
2021-09-24 15:00:19.249496,38
2021-09-24 15:00:19.249507,36
2021-09-24 15:00:19.249518,31
2021-09-24 15:00:19.249531,31
2021-09-24 15:00:19.249543,36
2021-09-24 15:00:19.249554,38
2021-09-24 15:00:19.249565,41
2021-09-24 15:00:19.249575,38
2021-09-24 15:00:19.249586,26
2021-09-24 15:00:19.249597,14
2021-09-24 15:00:19.249608,7
2021-09-24 15:00:19.428834,12
2021-09-24 15:00:19.428855,14
2021-09-24 15:00:19.428863,4
2021-09-24 15:00:19.428870,4
2021-09-24 15:00:19.428876,21
2021-09-24 15:00:19.428883,41
2021-09-24 15:00:19.428889,51
2021-09-24 15:00:19.428896,43
2021-09-24 15:00:19.428902,29
2021-09-24 15:00:19.428909,26
2021-09-24 15:00:19.428915,34
2021-09-24 15:00:19.428922,38
2021-09-24 15:00:19.428928,41
2021-09-24 15:00:19.428935,38
2021-09-24 15:00:19.428941,29
2021-09-24 15:00:19.428948,2
2021-09-24 15:00:19.428954,-38
2021-09-24 15:00:19.428961,-155
2021-09-24 15:00:19.428967,-403
2021-09-24 15:00:19.428974,-609
2021-09-24 15:00:19.428980,-512
2021-09-24 15:00:19.428987,-77
2021-09-24 15:00:19.428993,459
2021-09-24 15:00:19.429000,561
2021-09-24 15:00:19.429006,182
2021-09-24 15:00:19.429013,9
2021-09-24 15:00:19.429019,77
2021-09-24 15:00:19.429026,-19
2021-09-24 15:00:19.429032,-121
2021-09-24 15:00:19.429039,-80
2021-09-24 15:00:19.610268,-75
2021-09-24 15:00:19.610292,-123
2021-09-24 15:00:19.610299,-131
2021-09-24 15:00:19.610306,-128
2021-09-24 15:00:19.610313,-145
2021-09-24 15:00:19.610320,-153
2021-09-24 15:00:19.610326,-160
2021-09-24 15:00:19.610333,-179
2021-09-24 15:00:19.610339,-187
2021-09-24 15:00:19.610346,-189
2021-09-24 15:00:19.610352,-216
2021-09-24 15:00:19.610359,-247
2021-09-24 15:00:19.610365,-267
2021-09-24 15:00:19.610372,-310
2021-09-24 15:00:19.610378,-361
2021-09-24 15:00:19.610385,-393
2021-09-24 15:00:19.610392,-412
2021-09-24 15:00:19.610398,-434
2021-09-24 15:00:19.610405,-454
2021-09-24 15:00:19.610411,-463
2021-09-24 15:00:19.610418,-451
2021-09-24 15:00:19.610424,-420
2021-09-24 15:00:19.610431,-383
2021-09-24 15:00:19.610437,-323
2021-09-24 15:00:19.610444,-223
2021-09-24 15:00:19.610450,-114
2021-09-24 15:00:19.610457,-17
2021-09-24 15:00:19.610463,68
2021-09-24 15:00:19.610470,131
2021-09-24 15:00:19.610477,172
2021-09-24 15:00:19.835429,204
2021-09-24 15:00:19.835459,233
2021-09-24 15:00:19.835470,247
2021-09-24 15:00:19.835481,247
2021-09-24 15:00:19.835491,240
2021-09-24 15:00:19.835501,225
2021-09-24 15:00:19.835511,206
2021-09-24 15:00:19.835521,191
2021-09-24 15:00:19.835531,172
2021-09-24 15:00:19.835541,150
2021-09-24 15:00:19.835552,133
2021-09-24 15:00:19.835562,133
2021-09-24 15:00:19.835572,126
2021-09-24 15:00:19.835582,106
2021-09-24 15:00:19.835592,94
2021-09-24 15:00:19.835602,99
2021-09-24 15:00:19.835612,97
2021-09-24 15:00:19.835622,82
2021-09-24 15:00:19.835632,70
2021-09-24 15:00:19.835642,65
2021-09-24 15:00:19.835652,65
2021-09-24 15:00:19.835662,68
2021-09-24 15:00:19.835672,63
2021-09-24 15:00:19.835682,55
2021-09-24 15:00:19.835692,58
2021-09-24 15:00:19.835702,60
2021-09-24 15:00:19.835713,58
2021-09-24 15:00:19.835723,58
2021-09-24 15:00:19.835733,60
2021-09-24 15:00:19.835743,60
2021-09-24 15:00:20.060348,60
2021-09-24 15:00:20.060372,60
2021-09-24 15:00:20.060380,60
2021-09-24 15:00:20.060386,60
2021-09-24 15:00:20.060393,60
2021-09-24 15:00:20.060400,58
2021-09-24 15:00:20.060406,46
2021-09-24 15:00:20.060413,41
2021-09-24 15:00:20.060419,43
2021-09-24 15:00:20.060425,51
2021-09-24 15:00:20.060432,63
2021-09-24 15:00:20.060450,63
2021-09-24 15:00:20.060457,46
2021-09-24 15:00:20.060463,48
2021-09-24 15:00:20.060470,60
2021-09-24 15:00:20.060476,55
2021-09-24 15:00:20.060483,43
2021-09-24 15:00:20.060489,19
2021-09-24 15:00:20.060496,0
2021-09-24 15:00:20.060502,2
2021-09-24 15:00:20.060509,9
2021-09-24 15:00:20.060515,0
2021-09-24 15:00:20.060522,9
2021-09-24 15:00:20.060528,43
2021-09-24 15:00:20.060535,65
2021-09-24 15:00:20.060541,53
2021-09-24 15:00:20.060548,43
2021-09-24 15:00:20.060554,46
2021-09-24 15:00:20.060561,43
2021-09-24 15:00:20.060567,41
2021-09-24 15:00:20.330374,48
2021-09-24 15:00:20.330403,51
2021-09-24 15:00:20.330416,43
2021-09-24 15:00:20.330454,31
2021-09-24 15:00:20.330467,7
2021-09-24 15:00:20.330476,-70
2021-09-24 15:00:20.330504,-240
2021-09-24 15:00:20.330529,-456
2021-09-24 15:00:20.330538,-459
2021-09-24 15:00:20.330545,-114
2021-09-24 15:00:20.330552,376
2021-09-24 15:00:20.330559,670
2021-09-24 15:00:20.330566,485
2021-09-24 15:00:20.330572,138
2021-09-24 15:00:20.330579,60
2021-09-24 15:00:20.330586,38
2021-09-24 15:00:20.330592,-77
2021-09-24 15:00:20.330599,-106
2021-09-24 15:00:20.330605,-77
2021-09-24 15:00:20.330612,-97
2021-09-24 15:00:20.330618,-116
2021-09-24 15:00:20.330625,-109
2021-09-24 15:00:20.330632,-116
2021-09-24 15:00:20.330638,-140
2021-09-24 15:00:20.330645,-153
2021-09-24 15:00:20.330651,-150
2021-09-24 15:00:20.330658,-155
2021-09-24 15:00:20.330664,-174
2021-09-24 15:00:20.330671,-204
2021-09-24 15:00:20.330678,-238
2021-09-24 15:00:20.510360,-259
2021-09-24 15:00:20.510383,-276
2021-09-24 15:00:20.510391,-301
2021-09-24 15:00:20.510398,-335
2021-09-24 15:00:20.510404,-357
2021-09-24 15:00:20.510411,-378
2021-09-24 15:00:20.510417,-417
2021-09-24 15:00:20.510424,-442
2021-09-24 15:00:20.510430,-439
2021-09-24 15:00:20.510437,-429
2021-09-24 15:00:20.510444,-405
2021-09-24 15:00:20.510450,-347
2021-09-24 15:00:20.510457,-247
2021-09-24 15:00:20.510463,-136
2021-09-24 15:00:20.510482,-36
2021-09-24 15:00:20.510489,48
2021-09-24 15:00:20.510495,116
2021-09-24 15:00:20.510502,165
2021-09-24 15:00:20.510508,204
2021-09-24 15:00:20.510515,225
2021-09-24 15:00:20.510521,228
2021-09-24 15:00:20.510528,216
2021-09-24 15:00:20.510534,204
2021-09-24 15:00:20.510567,204
2021-09-24 15:00:20.510605,191
2021-09-24 15:00:20.510616,167
2021-09-24 15:00:20.510623,157
2021-09-24 15:00:20.510632,155
2021-09-24 15:00:20.510642,145
2021-09-24 15:00:20.510649,138
2021-09-24 15:00:20.734803,133
2021-09-24 15:00:20.734822,126
2021-09-24 15:00:20.734828,116
2021-09-24 15:00:20.734833,99
2021-09-24 15:00:20.734838,85
2021-09-24 15:00:20.734842,85
2021-09-24 15:00:20.734847,87
2021-09-24 15:00:20.734852,82
2021-09-24 15:00:20.734856,75
2021-09-24 15:00:20.734861,70
2021-09-24 15:00:20.734865,63
2021-09-24 15:00:20.734870,65
2021-09-24 15:00:20.734875,72
2021-09-24 15:00:20.734879,75
2021-09-24 15:00:20.734884,75
2021-09-24 15:00:20.734888,72
2021-09-24 15:00:20.734893,70
2021-09-24 15:00:20.734898,72
2021-09-24 15:00:20.734902,77
2021-09-24 15:00:20.734907,82
2021-09-24 15:00:20.734911,77
2021-09-24 15:00:20.734916,68
2021-09-24 15:00:20.734920,70
2021-09-24 15:00:20.734925,77
2021-09-24 15:00:20.734929,77
2021-09-24 15:00:20.734934,77
2021-09-24 15:00:20.734939,72
2021-09-24 15:00:20.734943,68
2021-09-24 15:00:20.734948,63
2021-09-24 15:00:20.734952,68
2021-09-24 15:00:21.005064,70
2021-09-24 15:00:21.005102,63
2021-09-24 15:00:21.005110,58
2021-09-24 15:00:21.005117,46
2021-09-24 15:00:21.005123,29
2021-09-24 15:00:21.005130,31
2021-09-24 15:00:21.005136,43
2021-09-24 15:00:21.005143,43
2021-09-24 15:00:21.005149,24
2021-09-24 15:00:21.005156,-2
2021-09-24 15:00:21.005163,-9
2021-09-24 15:00:21.005170,2
2021-09-24 15:00:21.005176,2
2021-09-24 15:00:21.005183,-2
2021-09-24 15:00:21.005190,9
2021-09-24 15:00:21.005196,26
2021-09-24 15:00:21.005203,38
2021-09-24 15:00:21.005209,46
2021-09-24 15:00:21.005216,48
2021-09-24 15:00:21.005222,51
2021-09-24 15:00:21.005229,48
2021-09-24 15:00:21.005235,43
2021-09-24 15:00:21.005242,46
2021-09-24 15:00:21.005249,53
2021-09-24 15:00:21.005255,53
2021-09-24 15:00:21.005262,34
2021-09-24 15:00:21.005268,-17
2021-09-24 15:00:21.005275,-114
2021-09-24 15:00:21.005282,-313
2021-09-24 15:00:21.005289,-493
2021-09-24 15:00:21.319874,-352
2021-09-24 15:00:21.319895,89
2021-09-24 15:00:21.319903,534
2021-09-24 15:00:21.319910,626
2021-09-24 15:00:21.319917,303
2021-09-24 15:00:21.319924,72
2021-09-24 15:00:21.319931,82
2021-09-24 15:00:21.319937,4
2021-09-24 15:00:21.319951,-102
2021-09-24 15:00:21.319958,-89
2021-09-24 15:00:21.319964,-77
2021-09-24 15:00:21.319971,-106
2021-09-24 15:00:21.319978,-111
2021-09-24 15:00:21.319984,-111
2021-09-24 15:00:21.319991,-131
2021-09-24 15:00:21.319997,-148
2021-09-24 15:00:21.320004,-148
2021-09-24 15:00:21.320010,-153
2021-09-24 15:00:21.320017,-165
2021-09-24 15:00:21.320023,-182
2021-09-24 15:00:21.320030,-199
2021-09-24 15:00:21.320037,-216
2021-09-24 15:00:21.320043,-233
2021-09-24 15:00:21.320050,-262
2021-09-24 15:00:21.320057,-298
2021-09-24 15:00:21.320063,-332
2021-09-24 15:00:21.320070,-364
2021-09-24 15:00:21.320076,-391
2021-09-24 15:00:21.320083,-408
2021-09-24 15:00:21.320090,-417
2021-09-24 15:00:21.498954,-417
2021-09-24 15:00:21.498975,-408
2021-09-24 15:00:21.498983,-374
2021-09-24 15:00:21.498990,-303
2021-09-24 15:00:21.498996,-204
2021-09-24 15:00:21.499003,-94
2021-09-24 15:00:21.499009,7
2021-09-24 15:00:21.499016,89
2021-09-24 15:00:21.499022,148
2021-09-24 15:00:21.499029,184
2021-09-24 15:00:21.499035,199
2021-09-24 15:00:21.499042,199
2021-09-24 15:00:21.499049,201
2021-09-24 15:00:21.499055,201
2021-09-24 15:00:21.499062,196
2021-09-24 15:00:21.499068,191
2021-09-24 15:00:21.499075,187
2021-09-24 15:00:21.499081,182
2021-09-24 15:00:21.499088,172
2021-09-24 15:00:21.499094,155
2021-09-24 15:00:21.499101,138
2021-09-24 15:00:21.499107,131
2021-09-24 15:00:21.499114,126
2021-09-24 15:00:21.499120,119
2021-09-24 15:00:21.499127,109
2021-09-24 15:00:21.499133,97
2021-09-24 15:00:21.499140,87
2021-09-24 15:00:21.499146,87
2021-09-24 15:00:21.499153,89
2021-09-24 15:00:21.499159,89
2021-09-24 15:00:21.680391,89
2021-09-24 15:00:21.680415,89
2021-09-24 15:00:21.680423,87
2021-09-24 15:00:21.680429,82
2021-09-24 15:00:21.680436,82
2021-09-24 15:00:21.680442,85
2021-09-24 15:00:21.680449,82
2021-09-24 15:00:21.680456,75
2021-09-24 15:00:21.680462,72
2021-09-24 15:00:21.680469,75
2021-09-24 15:00:21.680475,77
2021-09-24 15:00:21.680482,77
2021-09-24 15:00:21.680488,72
2021-09-24 15:00:21.680495,68
2021-09-24 15:00:21.680501,65
2021-09-24 15:00:21.680508,68
2021-09-24 15:00:21.680514,68
2021-09-24 15:00:21.680521,70
2021-09-24 15:00:21.680527,70
2021-09-24 15:00:21.680534,68
2021-09-24 15:00:21.680540,65
2021-09-24 15:00:21.680547,68
2021-09-24 15:00:21.680553,68
2021-09-24 15:00:21.680560,65
2021-09-24 15:00:21.680566,60
2021-09-24 15:00:21.680573,60
2021-09-24 15:00:21.680579,65
2021-09-24 15:00:21.680586,65
2021-09-24 15:00:21.680623,63
2021-09-24 15:00:21.680669,65
2021-09-24 15:00:21.905442,68
2021-09-24 15:00:21.905465,65
2021-09-24 15:00:21.905473,58
2021-09-24 15:00:21.905480,38
2021-09-24 15:00:21.905486,24
2021-09-24 15:00:21.905493,21
2021-09-24 15:00:21.905499,7
2021-09-24 15:00:21.905506,-4
2021-09-24 15:00:21.905512,9
2021-09-24 15:00:21.905519,29
2021-09-24 15:00:21.905525,41
2021-09-24 15:00:21.905532,48
2021-09-24 15:00:21.905539,46
2021-09-24 15:00:21.905545,41
2021-09-24 15:00:21.905552,41
2021-09-24 15:00:21.905558,41
2021-09-24 15:00:21.905595,31
2021-09-24 15:00:21.905640,26
2021-09-24 15:00:21.905655,24
2021-09-24 15:00:21.905666,19
2021-09-24 15:00:21.905673,-4
2021-09-24 15:00:21.905680,-68
2021-09-24 15:00:21.905686,-218
2021-09-24 15:00:21.905693,-466
2021-09-24 15:00:21.905699,-566
2021-09-24 15:00:21.905706,-274
2021-09-24 15:00:21.905712,276
2021-09-24 15:00:21.905719,641
2021-09-24 15:00:21.905725,463
2021-09-24 15:00:21.905732,119
2021-09-24 15:00:22.129746,60
2021-09-24 15:00:22.129766,53
2021-09-24 15:00:22.129774,-55
2021-09-24 15:00:22.129780,-87
2021-09-24 15:00:22.129787,-60
2021-09-24 15:00:22.129793,-89
2021-09-24 15:00:22.129799,-123
2021-09-24 15:00:22.129805,-126
2021-09-24 15:00:22.129811,-133
2021-09-24 15:00:22.129818,-145
2021-09-24 15:00:22.129824,-150
2021-09-24 15:00:22.129830,-165
2021-09-24 15:00:22.129837,-184
2021-09-24 15:00:22.129843,-196
2021-09-24 15:00:22.129849,-208
2021-09-24 15:00:22.129855,-230
2021-09-24 15:00:22.129861,-245
2021-09-24 15:00:22.129868,-269
2021-09-24 15:00:22.129874,-308
2021-09-24 15:00:22.129880,-344
2021-09-24 15:00:22.129887,-374
2021-09-24 15:00:22.129893,-400
2021-09-24 15:00:22.129899,-425
2021-09-24 15:00:22.129905,-442
2021-09-24 15:00:22.129911,-442
2021-09-24 15:00:22.129918,-422
2021-09-24 15:00:22.129924,-395
2021-09-24 15:00:22.129930,-349
2021-09-24 15:00:22.129936,-264
2021-09-24 15:00:22.129959,-165
2021-09-24 15:00:22.355423,-63
2021-09-24 15:00:22.355454,36
2021-09-24 15:00:22.355466,114
2021-09-24 15:00:22.355476,160
2021-09-24 15:00:22.355486,184
2021-09-24 15:00:22.355496,196
2021-09-24 15:00:22.355506,206
2021-09-24 15:00:22.355516,208
2021-09-24 15:00:22.355526,199
2021-09-24 15:00:22.355536,184
2021-09-24 15:00:22.355546,170
2021-09-24 15:00:22.355556,155
2021-09-24 15:00:22.355566,148
2021-09-24 15:00:22.355576,140
2021-09-24 15:00:22.355586,128
2021-09-24 15:00:22.355596,119
2021-09-24 15:00:22.355606,109
2021-09-24 15:00:22.355616,99
2021-09-24 15:00:22.355626,99
2021-09-24 15:00:22.355636,94
2021-09-24 15:00:22.355646,82
2021-09-24 15:00:22.355656,70
2021-09-24 15:00:22.355666,63
2021-09-24 15:00:22.355686,63
2021-09-24 15:00:22.355697,70
2021-09-24 15:00:22.355707,72
2021-09-24 15:00:22.355717,70
2021-09-24 15:00:22.355726,70
2021-09-24 15:00:22.355737,70
2021-09-24 15:00:22.355747,72
2021-09-24 15:00:22.580268,80
2021-09-24 15:00:22.580289,80
2021-09-24 15:00:22.580297,80
2021-09-24 15:00:22.580304,72
2021-09-24 15:00:22.580311,63
2021-09-24 15:00:22.580317,63
2021-09-24 15:00:22.580324,65
2021-09-24 15:00:22.580330,65
2021-09-24 15:00:22.580337,68
2021-09-24 15:00:22.580343,65
2021-09-24 15:00:22.580350,53
2021-09-24 15:00:22.580356,43
2021-09-24 15:00:22.580363,43
2021-09-24 15:00:22.580369,51
2021-09-24 15:00:22.580376,53
2021-09-24 15:00:22.580382,46
2021-09-24 15:00:22.580389,41
2021-09-24 15:00:22.580395,41
2021-09-24 15:00:22.580402,41
2021-09-24 15:00:22.580408,51
2021-09-24 15:00:22.580415,58
2021-09-24 15:00:22.580421,41
2021-09-24 15:00:22.580428,19
2021-09-24 15:00:22.580434,17
2021-09-24 15:00:22.580441,21
2021-09-24 15:00:22.580447,12
2021-09-24 15:00:22.580454,7
2021-09-24 15:00:22.580460,19
2021-09-24 15:00:22.580467,38
2021-09-24 15:00:22.580473,48
2021-09-24 15:00:22.849898,51
2021-09-24 15:00:22.849921,55
2021-09-24 15:00:22.849929,58
2021-09-24 15:00:22.849936,41
2021-09-24 15:00:22.849942,31
2021-09-24 15:00:22.849949,41
2021-09-24 15:00:22.849956,46
2021-09-24 15:00:22.849962,38
2021-09-24 15:00:22.849969,21
2021-09-24 15:00:22.849976,-31
2021-09-24 15:00:22.849982,-109
2021-09-24 15:00:22.849989,-257
2021-09-24 15:00:22.849996,-449
2021-09-24 15:00:22.850002,-425
2021-09-24 15:00:22.850009,-55
2021-09-24 15:00:22.850016,461
2021-09-24 15:00:22.850022,651
2021-09-24 15:00:22.850029,332
2021-09-24 15:00:22.850036,63
2021-09-24 15:00:22.850043,80
2021-09-24 15:00:22.850049,29
2021-09-24 15:00:22.850056,-97
2021-09-24 15:00:22.850062,-104
2021-09-24 15:00:22.850069,-80
2021-09-24 15:00:22.850076,-109
2021-09-24 15:00:22.850082,-123
2021-09-24 15:00:22.850089,-121
2021-09-24 15:00:22.850095,-145
2021-09-24 15:00:22.850102,-172
2021-09-24 15:00:22.850109,-172
2021-09-24 15:00:23.075352,-172
2021-09-24 15:00:23.075377,-191
2021-09-24 15:00:23.075385,-208
2021-09-24 15:00:23.075393,-218
2021-09-24 15:00:23.075400,-235
2021-09-24 15:00:23.075407,-262
2021-09-24 15:00:23.075413,-286
2021-09-24 15:00:23.075420,-310
2021-09-24 15:00:23.075427,-349
2021-09-24 15:00:23.075434,-386
2021-09-24 15:00:23.075441,-405
2021-09-24 15:00:23.075448,-415
2021-09-24 15:00:23.075455,-420
2021-09-24 15:00:23.075462,-420
2021-09-24 15:00:23.075469,-410
2021-09-24 15:00:23.075475,-386
2021-09-24 15:00:23.075482,-330
2021-09-24 15:00:23.075489,-242
2021-09-24 15:00:23.075496,-133
2021-09-24 15:00:23.075503,-29
2021-09-24 15:00:23.075510,46
2021-09-24 15:00:23.075517,109
2021-09-24 15:00:23.075524,165
2021-09-24 15:00:23.075531,194
2021-09-24 15:00:23.075538,204
2021-09-24 15:00:23.075544,211
2021-09-24 15:00:23.075551,216
2021-09-24 15:00:23.075558,206
2021-09-24 15:00:23.075565,196
2021-09-24 15:00:23.075572,191
2021-09-24 15:00:23.300424,177
2021-09-24 15:00:23.300455,160
2021-09-24 15:00:23.300467,150
2021-09-24 15:00:23.300478,143
2021-09-24 15:00:23.300488,131
2021-09-24 15:00:23.300498,114
2021-09-24 15:00:23.300508,104
2021-09-24 15:00:23.300518,99
2021-09-24 15:00:23.300528,89
2021-09-24 15:00:23.300538,85
2021-09-24 15:00:23.300548,85
2021-09-24 15:00:23.300558,87
2021-09-24 15:00:23.300568,85
2021-09-24 15:00:23.300578,80
2021-09-24 15:00:23.300588,75
2021-09-24 15:00:23.300598,77
2021-09-24 15:00:23.300608,77
2021-09-24 15:00:23.300618,75
2021-09-24 15:00:23.300627,70
2021-09-24 15:00:23.300637,63
2021-09-24 15:00:23.300647,65
2021-09-24 15:00:23.300657,70
2021-09-24 15:00:23.300667,75
2021-09-24 15:00:23.300677,75
2021-09-24 15:00:23.300687,68
2021-09-24 15:00:23.300697,65
2021-09-24 15:00:23.300707,65
2021-09-24 15:00:23.300717,58
2021-09-24 15:00:23.300726,34
2021-09-24 15:00:23.300736,21
2021-09-24 15:00:23.614009,46
2021-09-24 15:00:23.614035,70
2021-09-24 15:00:23.614043,70
2021-09-24 15:00:23.614051,60
2021-09-24 15:00:23.614058,41
2021-09-24 15:00:23.614066,19
2021-09-24 15:00:23.614073,17
2021-09-24 15:00:23.614080,12
2021-09-24 15:00:23.614087,2
2021-09-24 15:00:23.614094,14
2021-09-24 15:00:23.614102,38
2021-09-24 15:00:23.614109,41
2021-09-24 15:00:23.614116,14
2021-09-24 15:00:23.614123,-12
2021-09-24 15:00:23.614162,-7
2021-09-24 15:00:23.614170,2
2021-09-24 15:00:23.614177,0
2021-09-24 15:00:23.614184,0
2021-09-24 15:00:23.614191,7
2021-09-24 15:00:23.614199,9
2021-09-24 15:00:23.614206,-12
2021-09-24 15:00:23.614213,-46
2021-09-24 15:00:23.614220,-94
2021-09-24 15:00:23.614227,-218
2021-09-24 15:00:23.614234,-410
2021-09-24 15:00:23.614241,-417
2021-09-24 15:00:23.614249,-70
2021-09-24 15:00:23.614256,439
2021-09-24 15:00:23.614263,680
2021-09-24 15:00:23.614270,422
2021-09-24 15:00:23.750535,114
2021-09-24 15:00:23.750555,89
2021-09-24 15:00:23.750561,58
2021-09-24 15:00:23.750567,-63
2021-09-24 15:00:23.750573,-85
2021-09-24 15:00:23.750578,-60
2021-09-24 15:00:23.750586,-97
2021-09-24 15:00:23.750617,-121
2021-09-24 15:00:23.750641,-109
2021-09-24 15:00:23.750651,-111
2021-09-24 15:00:23.750661,-126
2021-09-24 15:00:23.750671,-133
2021-09-24 15:00:23.750677,-150
2021-09-24 15:00:23.750683,-162
2021-09-24 15:00:23.750688,-165
2021-09-24 15:00:23.750694,-182
2021-09-24 15:00:23.750700,-204
2021-09-24 15:00:23.750705,-218
2021-09-24 15:00:23.750711,-242
2021-09-24 15:00:23.750716,-269
2021-09-24 15:00:23.750722,-298
2021-09-24 15:00:23.750727,-330
2021-09-24 15:00:23.750733,-359
2021-09-24 15:00:23.750738,-376
2021-09-24 15:00:23.750744,-383
2021-09-24 15:00:23.750749,-378
2021-09-24 15:00:23.750755,-361
2021-09-24 15:00:23.750760,-327
2021-09-24 15:00:23.750766,-264
2021-09-24 15:00:23.750784,-174
2021-09-24 15:00:23.975418,-77
2021-09-24 15:00:23.975451,12
2021-09-24 15:00:23.975463,92
2021-09-24 15:00:23.975473,153
2021-09-24 15:00:23.975483,189
2021-09-24 15:00:23.975493,201
2021-09-24 15:00:23.975503,211
2021-09-24 15:00:23.975513,221
2021-09-24 15:00:23.975523,218
2021-09-24 15:00:23.975533,201
2021-09-24 15:00:23.975543,184
2021-09-24 15:00:23.975553,165
2021-09-24 15:00:23.975563,153
2021-09-24 15:00:23.975573,150
2021-09-24 15:00:23.975582,148
2021-09-24 15:00:23.975592,138
2021-09-24 15:00:23.975602,131
2021-09-24 15:00:23.975612,121
2021-09-24 15:00:23.975622,116
2021-09-24 15:00:23.975632,114
2021-09-24 15:00:23.975642,102
2021-09-24 15:00:23.975652,87
2021-09-24 15:00:23.975662,89
2021-09-24 15:00:23.975672,87
2021-09-24 15:00:23.975681,75
2021-09-24 15:00:23.975691,75
2021-09-24 15:00:23.975701,75
2021-09-24 15:00:23.975711,70
2021-09-24 15:00:23.975721,65
2021-09-24 15:00:23.975731,63
2021-09-24 15:00:24.199881,63
2021-09-24 15:00:24.199902,68
2021-09-24 15:00:24.199914,72
2021-09-24 15:00:24.199925,72
2021-09-24 15:00:24.199936,68
2021-09-24 15:00:24.199947,60
2021-09-24 15:00:24.199958,58
2021-09-24 15:00:24.199968,58
2021-09-24 15:00:24.199979,55
2021-09-24 15:00:24.199990,55
2021-09-24 15:00:24.200002,53
2021-09-24 15:00:24.200013,41
2021-09-24 15:00:24.200025,38
2021-09-24 15:00:24.200038,43
2021-09-24 15:00:24.200050,48
2021-09-24 15:00:24.200062,55
2021-09-24 15:00:24.200072,60
2021-09-24 15:00:24.200084,58
2021-09-24 15:00:24.200095,55
2021-09-24 15:00:24.200107,51
2021-09-24 15:00:24.200118,36
2021-09-24 15:00:24.200130,26
2021-09-24 15:00:24.200142,24
2021-09-24 15:00:24.200154,17
2021-09-24 15:00:24.200166,21
2021-09-24 15:00:24.200179,38
2021-09-24 15:00:24.200190,48
2021-09-24 15:00:24.200201,43
2021-09-24 15:00:24.200212,43
2021-09-24 15:00:24.200224,43
2021-09-24 15:00:24.425507,46
2021-09-24 15:00:24.425540,51
2021-09-24 15:00:24.425552,48
2021-09-24 15:00:24.425563,43
2021-09-24 15:00:24.425573,31
2021-09-24 15:00:24.425583,17
2021-09-24 15:00:24.425593,-17
2021-09-24 15:00:24.425603,-92
2021-09-24 15:00:24.425613,-247
2021-09-24 15:00:24.425624,-429
2021-09-24 15:00:24.425634,-381
2021-09-24 15:00:24.425644,-14
2021-09-24 15:00:24.425654,429
2021-09-24 15:00:24.425664,621
2021-09-24 15:00:24.425674,388
2021-09-24 15:00:24.425684,104
2021-09-24 15:00:24.425694,72
2021-09-24 15:00:24.425704,21
2021-09-24 15:00:24.425714,-89
2021-09-24 15:00:24.425724,-92
2021-09-24 15:00:24.425734,-70
2021-09-24 15:00:24.425744,-106
2021-09-24 15:00:24.425754,-123
2021-09-24 15:00:24.425764,-114
2021-09-24 15:00:24.425774,-121
2021-09-24 15:00:24.425784,-136
2021-09-24 15:00:24.425794,-140
2021-09-24 15:00:24.425804,-150
2021-09-24 15:00:24.425814,-167
2021-09-24 15:00:24.425824,-177
2021-09-24 15:00:24.741292,-187
2021-09-24 15:00:24.741346,-201
2021-09-24 15:00:24.741359,-223
2021-09-24 15:00:24.741367,-252
2021-09-24 15:00:24.741374,-284
2021-09-24 15:00:24.741382,-310
2021-09-24 15:00:24.741389,-340
2021-09-24 15:00:24.741396,-366
2021-09-24 15:00:24.741403,-388
2021-09-24 15:00:24.741411,-408
2021-09-24 15:00:24.741418,-415
2021-09-24 15:00:24.741429,-393
2021-09-24 15:00:24.741440,-354
2021-09-24 15:00:24.741448,-291
2021-09-24 15:00:24.741454,-204
2021-09-24 15:00:24.741460,-102
2021-09-24 15:00:24.741467,-2
2021-09-24 15:00:24.741475,85
2021-09-24 15:00:24.741482,150
2021-09-24 15:00:24.741489,199
2021-09-24 15:00:24.741496,225
2021-09-24 15:00:24.741503,233
2021-09-24 15:00:24.741511,238
2021-09-24 15:00:24.741518,245
2021-09-24 15:00:24.741524,245
2021-09-24 15:00:24.741531,238
2021-09-24 15:00:24.741539,225
2021-09-24 15:00:24.741546,211
2021-09-24 15:00:24.741554,201
2021-09-24 15:00:24.741562,191
2021-09-24 15:00:24.965505,172
2021-09-24 15:00:24.965528,162
2021-09-24 15:00:24.965536,155
2021-09-24 15:00:24.965543,138
2021-09-24 15:00:24.965550,131
2021-09-24 15:00:24.965557,133
2021-09-24 15:00:24.965563,128
2021-09-24 15:00:24.965570,121
2021-09-24 15:00:24.965576,114
2021-09-24 15:00:24.965583,106
2021-09-24 15:00:24.965590,109
2021-09-24 15:00:24.965596,109
2021-09-24 15:00:24.965603,104
2021-09-24 15:00:24.965609,99
2021-09-24 15:00:24.965616,89
2021-09-24 15:00:24.965622,77
2021-09-24 15:00:24.965629,80
2021-09-24 15:00:24.965635,89
2021-09-24 15:00:24.965642,89
2021-09-24 15:00:24.965649,85
2021-09-24 15:00:24.965655,77
2021-09-24 15:00:24.965662,72
2021-09-24 15:00:24.965668,68
2021-09-24 15:00:24.965675,58
2021-09-24 15:00:24.965681,58
2021-09-24 15:00:24.965688,60
2021-09-24 15:00:24.965694,53
2021-09-24 15:00:24.965701,51
2021-09-24 15:00:24.965708,58
2021-09-24 15:00:24.965714,60
2021-09-24 15:00:25.145073,60
2021-09-24 15:00:25.145095,55
2021-09-24 15:00:25.145103,51
2021-09-24 15:00:25.145110,53
2021-09-24 15:00:25.145117,63
2021-09-24 15:00:25.145123,68
2021-09-24 15:00:25.145130,55
2021-09-24 15:00:25.145136,43
2021-09-24 15:00:25.145143,34
2021-09-24 15:00:25.145149,26
2021-09-24 15:00:25.145156,17
2021-09-24 15:00:25.145163,19
2021-09-24 15:00:25.145169,36
2021-09-24 15:00:25.145176,51
2021-09-24 15:00:25.145182,43
2021-09-24 15:00:25.145189,38
2021-09-24 15:00:25.145195,46
2021-09-24 15:00:25.145202,51
2021-09-24 15:00:25.145208,48
2021-09-24 15:00:25.145215,46
2021-09-24 15:00:25.145222,38
2021-09-24 15:00:25.145228,36
2021-09-24 15:00:25.145235,38
2021-09-24 15:00:25.145241,19
2021-09-24 15:00:25.145248,-34
2021-09-24 15:00:25.145254,-145
2021-09-24 15:00:25.145261,-369
2021-09-24 15:00:25.145268,-527
2021-09-24 15:00:25.145274,-342
2021-09-24 15:00:25.145281,126
2021-09-24 15:00:25.459803,573
2021-09-24 15:00:25.459827,590
2021-09-24 15:00:25.459835,233
2021-09-24 15:00:25.459842,60
2021-09-24 15:00:25.459849,80
2021-09-24 15:00:25.459856,-19
2021-09-24 15:00:25.459863,-97
2021-09-24 15:00:25.459870,-70
2021-09-24 15:00:25.459877,-80
2021-09-24 15:00:25.459884,-111
2021-09-24 15:00:25.459891,-109
2021-09-24 15:00:25.459898,-106
2021-09-24 15:00:25.459905,-126
2021-09-24 15:00:25.459912,-140
2021-09-24 15:00:25.459919,-148
2021-09-24 15:00:25.459926,-157
2021-09-24 15:00:25.459932,-170
2021-09-24 15:00:25.459939,-179
2021-09-24 15:00:25.459946,-196
2021-09-24 15:00:25.459953,-221
2021-09-24 15:00:25.459960,-242
2021-09-24 15:00:25.459967,-267
2021-09-24 15:00:25.459974,-296
2021-09-24 15:00:25.459981,-327
2021-09-24 15:00:25.459988,-359
2021-09-24 15:00:25.459995,-386
2021-09-24 15:00:25.460002,-403
2021-09-24 15:00:25.460009,-415
2021-09-24 15:00:25.460026,-422
2021-09-24 15:00:25.460033,-398
2021-09-24 15:00:25.639048,-344
2021-09-24 15:00:25.639074,-267
2021-09-24 15:00:25.639082,-167
2021-09-24 15:00:25.639089,-58
2021-09-24 15:00:25.639096,38
2021-09-24 15:00:25.639103,116
2021-09-24 15:00:25.639110,172
2021-09-24 15:00:25.639117,206
2021-09-24 15:00:25.639124,230
2021-09-24 15:00:25.639131,242
2021-09-24 15:00:25.639139,245
2021-09-24 15:00:25.639145,245
2021-09-24 15:00:25.639152,233
2021-09-24 15:00:25.639160,221
2021-09-24 15:00:25.639166,216
2021-09-24 15:00:25.639173,206
2021-09-24 15:00:25.639212,194
2021-09-24 15:00:25.639219,187
2021-09-24 15:00:25.639225,174
2021-09-24 15:00:25.639232,162
2021-09-24 15:00:25.639239,153
2021-09-24 15:00:25.639246,140
2021-09-24 15:00:25.639253,128
2021-09-24 15:00:25.639260,123
2021-09-24 15:00:25.639267,116
2021-09-24 15:00:25.639274,109
2021-09-24 15:00:25.639281,109
2021-09-24 15:00:25.639288,109
2021-09-24 15:00:25.639294,106
2021-09-24 15:00:25.639301,109
2021-09-24 15:00:25.820267,106
2021-09-24 15:00:25.820288,106
2021-09-24 15:00:25.820296,109
2021-09-24 15:00:25.820303,106
2021-09-24 15:00:25.820310,106
2021-09-24 15:00:25.820316,102
2021-09-24 15:00:25.820323,89
2021-09-24 15:00:25.820329,77
2021-09-24 15:00:25.820336,70
2021-09-24 15:00:25.820343,58
2021-09-24 15:00:25.820349,55
2021-09-24 15:00:25.820356,53
2021-09-24 15:00:25.820362,46
2021-09-24 15:00:25.820369,43
2021-09-24 15:00:25.820375,48
2021-09-24 15:00:25.820382,46
2021-09-24 15:00:25.820388,43
2021-09-24 15:00:25.820395,43
2021-09-24 15:00:25.820402,41
2021-09-24 15:00:25.820408,43
2021-09-24 15:00:25.820415,43
2021-09-24 15:00:25.820421,41
2021-09-24 15:00:25.820428,41
2021-09-24 15:00:25.820434,38
2021-09-24 15:00:25.820441,38
2021-09-24 15:00:25.820447,41
2021-09-24 15:00:25.820454,43
2021-09-24 15:00:25.820460,38
2021-09-24 15:00:25.820467,41
2021-09-24 15:00:25.820474,48
2021-09-24 15:00:26.045534,48
2021-09-24 15:00:26.045558,41
2021-09-24 15:00:26.045566,29
2021-09-24 15:00:26.045573,2
2021-09-24 15:00:26.045580,-17
2021-09-24 15:00:26.045587,-21
2021-09-24 15:00:26.045594,-21
2021-09-24 15:00:26.045601,-17
2021-09-24 15:00:26.045608,2
2021-09-24 15:00:26.045615,17
2021-09-24 15:00:26.045621,9
2021-09-24 15:00:26.045628,0
2021-09-24 15:00:26.045635,4
2021-09-24 15:00:26.045642,14
2021-09-24 15:00:26.045649,17
2021-09-24 15:00:26.045656,17
2021-09-24 15:00:26.045662,17
2021-09-24 15:00:26.045669,14
2021-09-24 15:00:26.045676,12
2021-09-24 15:00:26.045683,-2
2021-09-24 15:00:26.045690,-53
2021-09-24 15:00:26.045696,-182
2021-09-24 15:00:26.045703,-420
2021-09-24 15:00:26.045710,-568
2021-09-24 15:00:26.045717,-364
2021-09-24 15:00:26.045724,128
2021-09-24 15:00:26.045731,573
2021-09-24 15:00:26.045738,551
2021-09-24 15:00:26.045745,184
2021-09-24 15:00:26.045751,43
2021-09-24 15:00:26.360446,68
2021-09-24 15:00:26.360477,-34
2021-09-24 15:00:26.360489,-97
2021-09-24 15:00:26.360499,-68
2021-09-24 15:00:26.360509,-87
2021-09-24 15:00:26.360519,-123
2021-09-24 15:00:26.360529,-116
2021-09-24 15:00:26.360539,-116
2021-09-24 15:00:26.360549,-133
2021-09-24 15:00:26.360559,-145
2021-09-24 15:00:26.360570,-157
2021-09-24 15:00:26.360580,-172
2021-09-24 15:00:26.360590,-187
2021-09-24 15:00:26.360600,-201
2021-09-24 15:00:26.360610,-216
2021-09-24 15:00:26.360620,-238
2021-09-24 15:00:26.360630,-262
2021-09-24 15:00:26.360640,-286
2021-09-24 15:00:26.360650,-310
2021-09-24 15:00:26.360661,-340
2021-09-24 15:00:26.360671,-369
2021-09-24 15:00:26.360681,-393
2021-09-24 15:00:26.360691,-410
2021-09-24 15:00:26.360701,-412
2021-09-24 15:00:26.360711,-403
2021-09-24 15:00:26.360721,-378
2021-09-24 15:00:26.360731,-330
2021-09-24 15:00:26.360741,-262
2021-09-24 15:00:26.360751,-167
2021-09-24 15:00:26.360761,-60
2021-09-24 15:00:26.540479,36
2021-09-24 15:00:26.540510,111
2021-09-24 15:00:26.540522,167
2021-09-24 15:00:26.540533,204
2021-09-24 15:00:26.540543,223
2021-09-24 15:00:26.540552,238
2021-09-24 15:00:26.540563,245
2021-09-24 15:00:26.540573,242
2021-09-24 15:00:26.540583,233
2021-09-24 15:00:26.540593,211
2021-09-24 15:00:26.540603,189
2021-09-24 15:00:26.540613,182
2021-09-24 15:00:26.540623,179
2021-09-24 15:00:26.540633,162
2021-09-24 15:00:26.540643,145
2021-09-24 15:00:26.540653,126
2021-09-24 15:00:26.540663,116
2021-09-24 15:00:26.540673,114
2021-09-24 15:00:26.540683,111
2021-09-24 15:00:26.540693,106
2021-09-24 15:00:26.540703,102
2021-09-24 15:00:26.540713,87
2021-09-24 15:00:26.540724,82
2021-09-24 15:00:26.540734,87
2021-09-24 15:00:26.540744,89
2021-09-24 15:00:26.540754,85
2021-09-24 15:00:26.540764,77
2021-09-24 15:00:26.540774,75
2021-09-24 15:00:26.540784,70
2021-09-24 15:00:26.540794,70
2021-09-24 15:00:26.765393,75
2021-09-24 15:00:26.765415,75
2021-09-24 15:00:26.765423,70
2021-09-24 15:00:26.765430,65
2021-09-24 15:00:26.765436,65
2021-09-24 15:00:26.765443,68
2021-09-24 15:00:26.765450,68
2021-09-24 15:00:26.765456,68
2021-09-24 15:00:26.765463,60
2021-09-24 15:00:26.765470,48
2021-09-24 15:00:26.765476,51
2021-09-24 15:00:26.765483,55
2021-09-24 15:00:26.765489,53
2021-09-24 15:00:26.765496,53
2021-09-24 15:00:26.765502,46
2021-09-24 15:00:26.765509,36
2021-09-24 15:00:26.765516,31
2021-09-24 15:00:26.765522,31
2021-09-24 15:00:26.765529,34
2021-09-24 15:00:26.765535,36
2021-09-24 15:00:26.765542,31
2021-09-24 15:00:26.765549,26
2021-09-24 15:00:26.765555,31
2021-09-24 15:00:26.765562,41
2021-09-24 15:00:26.765568,43
2021-09-24 15:00:26.765575,36
2021-09-24 15:00:26.765581,17
2021-09-24 15:00:26.765588,0
2021-09-24 15:00:26.765595,4
2021-09-24 15:00:26.765601,9
2021-09-24 15:00:26.990395,2
2021-09-24 15:00:26.990420,4
2021-09-24 15:00:26.990428,19
2021-09-24 15:00:26.990435,34
2021-09-24 15:00:26.990442,43
2021-09-24 15:00:26.990449,46
2021-09-24 15:00:26.990456,46
2021-09-24 15:00:26.990463,43
2021-09-24 15:00:26.990470,36
2021-09-24 15:00:26.990477,31
2021-09-24 15:00:26.990483,41
2021-09-24 15:00:26.990490,43
2021-09-24 15:00:26.990497,36
2021-09-24 15:00:26.990504,12
2021-09-24 15:00:26.990511,-46
2021-09-24 15:00:26.990518,-187
2021-09-24 15:00:26.990525,-434
2021-09-24 15:00:26.990532,-585
2021-09-24 15:00:26.990539,-383
2021-09-24 15:00:26.990546,121
2021-09-24 15:00:26.990553,570
2021-09-24 15:00:26.990560,522
2021-09-24 15:00:26.990566,155
2021-09-24 15:00:26.990573,34
2021-09-24 15:00:26.990580,53
2021-09-24 15:00:26.990587,-58
2021-09-24 15:00:26.990594,-116
2021-09-24 15:00:26.990601,-82
2021-09-24 15:00:26.990608,-94
2021-09-24 15:00:26.990615,-123
2021-09-24 15:00:27.259677,-116
2021-09-24 15:00:27.259698,-121
2021-09-24 15:00:27.259706,-140
2021-09-24 15:00:27.259713,-145
2021-09-24 15:00:27.259720,-150
2021-09-24 15:00:27.259726,-162
2021-09-24 15:00:27.259733,-177
2021-09-24 15:00:27.259739,-199
2021-09-24 15:00:27.259746,-223
2021-09-24 15:00:27.259752,-242
2021-09-24 15:00:27.259759,-259
2021-09-24 15:00:27.259766,-286
2021-09-24 15:00:27.259772,-318
2021-09-24 15:00:27.259779,-354
2021-09-24 15:00:27.259785,-386
2021-09-24 15:00:27.259792,-405
2021-09-24 15:00:27.259798,-417
2021-09-24 15:00:27.259805,-420
2021-09-24 15:00:27.259811,-410
2021-09-24 15:00:27.259818,-386
2021-09-24 15:00:27.259824,-344
2021-09-24 15:00:27.259831,-276
2021-09-24 15:00:27.259838,-179
2021-09-24 15:00:27.259853,-70
2021-09-24 15:00:27.259860,21
2021-09-24 15:00:27.259867,94
2021-09-24 15:00:27.259873,153
2021-09-24 15:00:27.259880,194
2021-09-24 15:00:27.259886,218
2021-09-24 15:00:27.259893,228
2021-09-24 15:00:27.440393,233
2021-09-24 15:00:27.440418,230
2021-09-24 15:00:27.440426,223
2021-09-24 15:00:27.440433,213
2021-09-24 15:00:27.440440,206
2021-09-24 15:00:27.440447,196
2021-09-24 15:00:27.440454,179
2021-09-24 15:00:27.440461,153
2021-09-24 15:00:27.440468,138
2021-09-24 15:00:27.440475,126
2021-09-24 15:00:27.440482,111
2021-09-24 15:00:27.440489,102
2021-09-24 15:00:27.440496,94
2021-09-24 15:00:27.440503,87
2021-09-24 15:00:27.440509,82
2021-09-24 15:00:27.440516,82
2021-09-24 15:00:27.440523,82
2021-09-24 15:00:27.440530,82
2021-09-24 15:00:27.440537,80
2021-09-24 15:00:27.440544,77
2021-09-24 15:00:27.440551,72
2021-09-24 15:00:27.440558,60
2021-09-24 15:00:27.440565,58
2021-09-24 15:00:27.440572,58
2021-09-24 15:00:27.440579,55
2021-09-24 15:00:27.440586,58
2021-09-24 15:00:27.440592,60
2021-09-24 15:00:27.440599,58
2021-09-24 15:00:27.440606,60
2021-09-24 15:00:27.440613,60
2021-09-24 15:00:27.709093,58
2021-09-24 15:00:27.709116,58
2021-09-24 15:00:27.709124,60
2021-09-24 15:00:27.709131,58
2021-09-24 15:00:27.709138,60
2021-09-24 15:00:27.709145,58
2021-09-24 15:00:27.709152,48
2021-09-24 15:00:27.709159,46
2021-09-24 15:00:27.709165,51
2021-09-24 15:00:27.709172,51
2021-09-24 15:00:27.709179,48
2021-09-24 15:00:27.709186,46
2021-09-24 15:00:27.709193,41
2021-09-24 15:00:27.709200,41
2021-09-24 15:00:27.709206,43
2021-09-24 15:00:27.709213,43
2021-09-24 15:00:27.709220,41
2021-09-24 15:00:27.709227,41
2021-09-24 15:00:27.709234,46
2021-09-24 15:00:27.709240,48
2021-09-24 15:00:27.709247,41
2021-09-24 15:00:27.709254,21
2021-09-24 15:00:27.709261,12
2021-09-24 15:00:27.709268,19
2021-09-24 15:00:27.709275,12
2021-09-24 15:00:27.709282,-4
2021-09-24 15:00:27.709289,4
2021-09-24 15:00:27.709296,31
2021-09-24 15:00:27.709303,46
2021-09-24 15:00:27.709309,48
2021-09-24 15:00:27.890562,48
2021-09-24 15:00:27.890594,51
2021-09-24 15:00:27.890606,51
2021-09-24 15:00:27.890616,51
2021-09-24 15:00:27.890626,48
2021-09-24 15:00:27.890637,43
2021-09-24 15:00:27.890647,38
2021-09-24 15:00:27.890657,34
2021-09-24 15:00:27.890667,7
2021-09-24 15:00:27.890677,-63
2021-09-24 15:00:27.890687,-240
2021-09-24 15:00:27.890698,-502
2021-09-24 15:00:27.890708,-558
2021-09-24 15:00:27.890718,-213
2021-09-24 15:00:27.890728,344
2021-09-24 15:00:27.890738,648
2021-09-24 15:00:27.890748,410
2021-09-24 15:00:27.890758,92
2021-09-24 15:00:27.890768,72
2021-09-24 15:00:27.890778,46
2021-09-24 15:00:27.890788,-75
2021-09-24 15:00:27.890798,-87
2021-09-24 15:00:27.890808,-60
2021-09-24 15:00:27.890817,-92
2021-09-24 15:00:27.890827,-109
2021-09-24 15:00:27.890837,-99
2021-09-24 15:00:27.890847,-119
2021-09-24 15:00:27.890857,-148
2021-09-24 15:00:27.890867,-155
2021-09-24 15:00:27.890877,-160
2021-09-24 15:00:28.115155,-174
2021-09-24 15:00:28.115178,-187
2021-09-24 15:00:28.115186,-199
2021-09-24 15:00:28.115193,-218
2021-09-24 15:00:28.115200,-250
2021-09-24 15:00:28.115208,-281
2021-09-24 15:00:28.115215,-308
2021-09-24 15:00:28.115222,-337
2021-09-24 15:00:28.115229,-369
2021-09-24 15:00:28.115236,-398
2021-09-24 15:00:28.115243,-425
2021-09-24 15:00:28.115250,-439
2021-09-24 15:00:28.115257,-432
2021-09-24 15:00:28.115264,-415
2021-09-24 15:00:28.115271,-383
2021-09-24 15:00:28.115277,-330
2021-09-24 15:00:28.115284,-245
2021-09-24 15:00:28.115291,-136
2021-09-24 15:00:28.115298,-31
2021-09-24 15:00:28.115305,55
2021-09-24 15:00:28.115313,121
2021-09-24 15:00:28.115320,170
2021-09-24 15:00:28.115327,199
2021-09-24 15:00:28.115333,216
2021-09-24 15:00:28.115340,223
2021-09-24 15:00:28.115347,221
2021-09-24 15:00:28.115354,213
2021-09-24 15:00:28.115361,206
2021-09-24 15:00:28.115368,194
2021-09-24 15:00:28.115375,179
2021-09-24 15:00:28.340380,167
2021-09-24 15:00:28.340402,160
2021-09-24 15:00:28.340410,145
2021-09-24 15:00:28.340416,126
2021-09-24 15:00:28.340423,109
2021-09-24 15:00:28.340430,104
2021-09-24 15:00:28.340436,104
2021-09-24 15:00:28.340443,99
2021-09-24 15:00:28.340450,94
2021-09-24 15:00:28.340456,85
2021-09-24 15:00:28.340463,75
2021-09-24 15:00:28.340469,82
2021-09-24 15:00:28.340476,87
2021-09-24 15:00:28.340482,82
2021-09-24 15:00:28.340489,80
2021-09-24 15:00:28.340495,80
2021-09-24 15:00:28.340502,82
2021-09-24 15:00:28.340509,87
2021-09-24 15:00:28.340515,87
2021-09-24 15:00:28.340522,87
2021-09-24 15:00:28.340528,89
2021-09-24 15:00:28.340535,85
2021-09-24 15:00:28.340541,82
2021-09-24 15:00:28.340548,85
2021-09-24 15:00:28.340554,82
2021-09-24 15:00:28.340561,82
2021-09-24 15:00:28.340567,82
2021-09-24 15:00:28.340574,77
2021-09-24 15:00:28.340581,72
2021-09-24 15:00:28.340587,72
2021-09-24 15:00:28.655528,70
2021-09-24 15:00:28.655559,60
2021-09-24 15:00:28.655571,43
2021-09-24 15:00:28.655581,26
2021-09-24 15:00:28.655591,26
2021-09-24 15:00:28.655601,36
2021-09-24 15:00:28.655611,38
2021-09-24 15:00:28.655621,38
2021-09-24 15:00:28.655631,38
2021-09-24 15:00:28.655641,31
2021-09-24 15:00:28.655651,19
2021-09-24 15:00:28.655662,7
2021-09-24 15:00:28.655672,0
2021-09-24 15:00:28.655682,7
2021-09-24 15:00:28.655692,0
2021-09-24 15:00:28.655702,-9
2021-09-24 15:00:28.655712,14
2021-09-24 15:00:28.655722,41
2021-09-24 15:00:28.655733,41
2021-09-24 15:00:28.655743,36
2021-09-24 15:00:28.655753,41
2021-09-24 15:00:28.655763,41
2021-09-24 15:00:28.655773,41
2021-09-24 15:00:28.655783,41
2021-09-24 15:00:28.655793,41
2021-09-24 15:00:28.655803,43
2021-09-24 15:00:28.655813,41
2021-09-24 15:00:28.655823,19
2021-09-24 15:00:28.655833,-17
2021-09-24 15:00:28.655843,-85
2021-09-24 15:00:28.835302,-267
2021-09-24 15:00:28.835330,-497
2021-09-24 15:00:28.835339,-480
2021-09-24 15:00:28.835346,-89
2021-09-24 15:00:28.835353,461
2021-09-24 15:00:28.835360,660
2021-09-24 15:00:28.835367,330
2021-09-24 15:00:28.835374,68
2021-09-24 15:00:28.835381,87
2021-09-24 15:00:28.835387,21
2021-09-24 15:00:28.835394,-97
2021-09-24 15:00:28.835401,-92
2021-09-24 15:00:28.835408,-70
2021-09-24 15:00:28.835415,-104
2021-09-24 15:00:28.835422,-123
2021-09-24 15:00:28.835429,-126
2021-09-24 15:00:28.835436,-138
2021-09-24 15:00:28.835442,-150
2021-09-24 15:00:28.835449,-155
2021-09-24 15:00:28.835456,-170
2021-09-24 15:00:28.835463,-194
2021-09-24 15:00:28.835470,-208
2021-09-24 15:00:28.835477,-218
2021-09-24 15:00:28.835483,-240
2021-09-24 15:00:28.835490,-264
2021-09-24 15:00:28.835497,-293
2021-09-24 15:00:28.835504,-327
2021-09-24 15:00:28.835511,-359
2021-09-24 15:00:28.835518,-386
2021-09-24 15:00:28.835525,-408
2021-09-24 15:00:29.104859,-422
2021-09-24 15:00:29.104879,-429
2021-09-24 15:00:29.104887,-427
2021-09-24 15:00:29.104894,-410
2021-09-24 15:00:29.104901,-369
2021-09-24 15:00:29.104907,-306
2021-09-24 15:00:29.104914,-216
2021-09-24 15:00:29.104920,-119
2021-09-24 15:00:29.104927,-31
2021-09-24 15:00:29.104933,38
2021-09-24 15:00:29.104940,102
2021-09-24 15:00:29.104946,150
2021-09-24 15:00:29.104953,177
2021-09-24 15:00:29.104959,179
2021-09-24 15:00:29.104966,179
2021-09-24 15:00:29.104972,184
2021-09-24 15:00:29.104979,182
2021-09-24 15:00:29.104985,177
2021-09-24 15:00:29.104992,170
2021-09-24 15:00:29.104998,153
2021-09-24 15:00:29.105005,138
2021-09-24 15:00:29.105011,131
2021-09-24 15:00:29.105018,126
2021-09-24 15:00:29.105024,116
2021-09-24 15:00:29.105031,109
2021-09-24 15:00:29.105037,102
2021-09-24 15:00:29.105043,94
2021-09-24 15:00:29.105050,87
2021-09-24 15:00:29.105057,85
2021-09-24 15:00:29.105063,87
2021-09-24 15:00:29.285372,85
2021-09-24 15:00:29.285395,80
2021-09-24 15:00:29.285403,82
2021-09-24 15:00:29.285410,85
2021-09-24 15:00:29.285416,87
2021-09-24 15:00:29.285423,89
2021-09-24 15:00:29.285429,85
2021-09-24 15:00:29.285436,80
2021-09-24 15:00:29.285442,80
2021-09-24 15:00:29.285449,80
2021-09-24 15:00:29.285456,80
2021-09-24 15:00:29.285462,82
2021-09-24 15:00:29.285469,77
2021-09-24 15:00:29.285475,68
2021-09-24 15:00:29.285482,70
2021-09-24 15:00:29.285488,72
2021-09-24 15:00:29.285495,70
2021-09-24 15:00:29.285511,68
2021-09-24 15:00:29.285519,65
2021-09-24 15:00:29.285525,60
2021-09-24 15:00:29.285532,58
2021-09-24 15:00:29.285538,58
2021-09-24 15:00:29.285545,63
2021-09-24 15:00:29.285552,75
2021-09-24 15:00:29.285558,80
2021-09-24 15:00:29.285565,75
2021-09-24 15:00:29.285571,70
2021-09-24 15:00:29.285578,60
2021-09-24 15:00:29.285585,51
2021-09-24 15:00:29.285592,41
2021-09-24 15:00:29.555405,29
2021-09-24 15:00:29.555428,34
2021-09-24 15:00:29.555436,51
2021-09-24 15:00:29.555443,65
2021-09-24 15:00:29.555449,65
2021-09-24 15:00:29.555456,55
2021-09-24 15:00:29.555463,51
2021-09-24 15:00:29.555469,51
2021-09-24 15:00:29.555476,53
2021-09-24 15:00:29.555482,46
2021-09-24 15:00:29.555489,38
2021-09-24 15:00:29.555496,38
2021-09-24 15:00:29.555502,21
2021-09-24 15:00:29.555509,-14
2021-09-24 15:00:29.555515,-85
2021-09-24 15:00:29.555522,-242
2021-09-24 15:00:29.555528,-461
2021-09-24 15:00:29.555535,-478
2021-09-24 15:00:29.555542,-150
2021-09-24 15:00:29.555548,344
2021-09-24 15:00:29.555555,636
2021-09-24 15:00:29.555561,434
2021-09-24 15:00:29.555568,102
2021-09-24 15:00:29.555575,51
2021-09-24 15:00:29.555581,34
2021-09-24 15:00:29.555588,-82
2021-09-24 15:00:29.555594,-102
2021-09-24 15:00:29.555601,-72
2021-09-24 15:00:29.555607,-102
2021-09-24 15:00:29.555614,-121
2021-09-24 15:00:29.778353,-116
2021-09-24 15:00:29.778370,-121
2021-09-24 15:00:29.778375,-136
2021-09-24 15:00:29.778380,-143
2021-09-24 15:00:29.778385,-157
2021-09-24 15:00:29.778389,-177
2021-09-24 15:00:29.778394,-191
2021-09-24 15:00:29.778399,-199
2021-09-24 15:00:29.778403,-216
2021-09-24 15:00:29.778408,-238
2021-09-24 15:00:29.778412,-264
2021-09-24 15:00:29.778417,-298
2021-09-24 15:00:29.778422,-332
2021-09-24 15:00:29.778426,-359
2021-09-24 15:00:29.778431,-388
2021-09-24 15:00:29.778435,-410
2021-09-24 15:00:29.778440,-425
2021-09-24 15:00:29.778445,-429
2021-09-24 15:00:29.778449,-412
2021-09-24 15:00:29.778454,-371
2021-09-24 15:00:29.778458,-310
2021-09-24 15:00:29.778498,-223
2021-09-24 15:00:29.778512,-114
2021-09-24 15:00:29.778517,-12
2021-09-24 15:00:29.778521,75
2021-09-24 15:00:29.778526,148
2021-09-24 15:00:29.778531,196
2021-09-24 15:00:29.778535,218
2021-09-24 15:00:29.778539,230
2021-09-24 15:00:29.778544,238
2021-09-24 15:00:30.050308,240
2021-09-24 15:00:30.050328,240
2021-09-24 15:00:30.050336,233
2021-09-24 15:00:30.050343,221
2021-09-24 15:00:30.050349,206
2021-09-24 15:00:30.050356,189
2021-09-24 15:00:30.050362,174
2021-09-24 15:00:30.050369,165
2021-09-24 15:00:30.050375,150
2021-09-24 15:00:30.050382,131
2021-09-24 15:00:30.050389,116
2021-09-24 15:00:30.050395,106
2021-09-24 15:00:30.050402,97
2021-09-24 15:00:30.050408,89
2021-09-24 15:00:30.050415,80
2021-09-24 15:00:30.050421,77
2021-09-24 15:00:30.050428,77
2021-09-24 15:00:30.050434,77
2021-09-24 15:00:30.050441,80
2021-09-24 15:00:30.050447,75
2021-09-24 15:00:30.050454,63
2021-09-24 15:00:30.050461,60
2021-09-24 15:00:30.050467,63
2021-09-24 15:00:30.050474,65
2021-09-24 15:00:30.050480,68
2021-09-24 15:00:30.050487,72
2021-09-24 15:00:30.050493,72
2021-09-24 15:00:30.050500,68
2021-09-24 15:00:30.050507,65
2021-09-24 15:00:30.050513,68
2021-09-24 15:00:30.185422,70
2021-09-24 15:00:30.185446,70
2021-09-24 15:00:30.185454,70
2021-09-24 15:00:30.185460,68
2021-09-24 15:00:30.185467,65
2021-09-24 15:00:30.185473,68
2021-09-24 15:00:30.185480,72
2021-09-24 15:00:30.185487,70
2021-09-24 15:00:30.185493,70
2021-09-24 15:00:30.185500,63
2021-09-24 15:00:30.185507,55
2021-09-24 15:00:30.185513,63
2021-09-24 15:00:30.185520,75
2021-09-24 15:00:30.185526,75
2021-09-24 15:00:30.185533,65
2021-09-24 15:00:30.185539,48
2021-09-24 15:00:30.185546,38
2021-09-24 15:00:30.185552,36
2021-09-24 15:00:30.185559,29
2021-09-24 15:00:30.185565,21
2021-09-24 15:00:30.185572,31
2021-09-24 15:00:30.185579,43
2021-09-24 15:00:30.185585,48
2021-09-24 15:00:30.185592,48
2021-09-24 15:00:30.185598,53
2021-09-24 15:00:30.185605,53
2021-09-24 15:00:30.185611,53
2021-09-24 15:00:30.185618,51
2021-09-24 15:00:30.185624,48
2021-09-24 15:00:30.185643,51
2021-09-24 15:00:30.455504,51
2021-09-24 15:00:30.455528,38
2021-09-24 15:00:30.455536,0
2021-09-24 15:00:30.455544,-99
2021-09-24 15:00:30.455550,-301
2021-09-24 15:00:30.455557,-514
2021-09-24 15:00:30.455564,-459
2021-09-24 15:00:30.455571,-48
2021-09-24 15:00:30.455578,473
2021-09-24 15:00:30.455585,641
2021-09-24 15:00:30.455592,320
2021-09-24 15:00:30.455599,68
2021-09-24 15:00:30.455641,80
2021-09-24 15:00:30.455737,17
2021-09-24 15:00:30.455753,-92
2021-09-24 15:00:30.455763,-82
2021-09-24 15:00:30.455769,-70
2021-09-24 15:00:30.455778,-106
2021-09-24 15:00:30.455788,-119
2021-09-24 15:00:30.455795,-111
2021-09-24 15:00:30.455802,-128
2021-09-24 15:00:30.455808,-145
2021-09-24 15:00:30.455815,-148
2021-09-24 15:00:30.455821,-155
2021-09-24 15:00:30.455828,-172
2021-09-24 15:00:30.455834,-196
2021-09-24 15:00:30.455840,-225
2021-09-24 15:00:30.455847,-247
2021-09-24 15:00:30.455853,-262
2021-09-24 15:00:30.455860,-286
2021-09-24 15:00:30.680370,-315
2021-09-24 15:00:30.680392,-347
2021-09-24 15:00:30.680400,-381
2021-09-24 15:00:30.680406,-410
2021-09-24 15:00:30.680413,-425
2021-09-24 15:00:30.680419,-429
2021-09-24 15:00:30.680426,-425
2021-09-24 15:00:30.680433,-405
2021-09-24 15:00:30.680439,-371
2021-09-24 15:00:30.680446,-303
2021-09-24 15:00:30.680452,-199
2021-09-24 15:00:30.680459,-87
2021-09-24 15:00:30.680466,9
2021-09-24 15:00:30.680472,89
2021-09-24 15:00:30.680479,143
2021-09-24 15:00:30.680485,177
2021-09-24 15:00:30.680492,206
2021-09-24 15:00:30.680499,223
2021-09-24 15:00:30.680505,225
2021-09-24 15:00:30.680512,218
2021-09-24 15:00:30.680518,206
2021-09-24 15:00:30.680525,199
2021-09-24 15:00:30.680531,194
2021-09-24 15:00:30.680538,187
2021-09-24 15:00:30.680544,179
2021-09-24 15:00:30.680551,170
2021-09-24 15:00:30.680557,155
2021-09-24 15:00:30.680564,143
2021-09-24 15:00:30.680571,138
2021-09-24 15:00:30.680577,128
2021-09-24 15:00:30.905540,116
2021-09-24 15:00:30.905571,106
2021-09-24 15:00:30.905583,97
2021-09-24 15:00:30.905594,87
2021-09-24 15:00:30.905604,87
2021-09-24 15:00:30.905614,92
2021-09-24 15:00:30.905624,87
2021-09-24 15:00:30.905634,82
2021-09-24 15:00:30.905644,75
2021-09-24 15:00:30.905654,72
2021-09-24 15:00:30.905665,77
2021-09-24 15:00:30.905675,80
2021-09-24 15:00:30.905685,80
2021-09-24 15:00:30.905695,75
2021-09-24 15:00:30.905705,65
2021-09-24 15:00:30.905715,65
2021-09-24 15:00:30.905725,70
2021-09-24 15:00:30.905736,70
2021-09-24 15:00:30.905746,70
2021-09-24 15:00:30.905756,68
2021-09-24 15:00:30.905766,60
2021-09-24 15:00:30.905776,53
2021-09-24 15:00:30.905786,51
2021-09-24 15:00:30.905796,55
2021-09-24 15:00:30.905807,55
2021-09-24 15:00:30.905817,51
2021-09-24 15:00:30.905827,48
2021-09-24 15:00:30.905837,51
2021-09-24 15:00:30.905848,48
2021-09-24 15:00:30.905858,51
2021-09-24 15:00:31.130409,43
2021-09-24 15:00:31.130430,31
2021-09-24 15:00:31.130438,36
2021-09-24 15:00:31.130445,46
2021-09-24 15:00:31.130451,46
2021-09-24 15:00:31.130458,38
2021-09-24 15:00:31.130465,26
2021-09-24 15:00:31.130471,12
2021-09-24 15:00:31.130478,2
2021-09-24 15:00:31.130484,-4
2021-09-24 15:00:31.130491,-4
2021-09-24 15:00:31.130497,12
2021-09-24 15:00:31.130504,29
2021-09-24 15:00:31.130510,26
2021-09-24 15:00:31.130517,21
2021-09-24 15:00:31.130523,26
2021-09-24 15:00:31.130530,31
2021-09-24 15:00:31.130536,34
2021-09-24 15:00:31.130543,31
2021-09-24 15:00:31.130549,31
2021-09-24 15:00:31.130556,31
2021-09-24 15:00:31.130562,29
2021-09-24 15:00:31.130569,12
2021-09-24 15:00:31.130575,-38
2021-09-24 15:00:31.130582,-153
2021-09-24 15:00:31.130588,-386
2021-09-24 15:00:31.130595,-575
2021-09-24 15:00:31.130601,-427
2021-09-24 15:00:31.130608,68
2021-09-24 15:00:31.130614,561
2021-09-24 15:00:31.399914,590
2021-09-24 15:00:31.399945,225
2021-09-24 15:00:31.399957,53
2021-09-24 15:00:31.399967,72
2021-09-24 15:00:31.399977,-21
2021-09-24 15:00:31.399987,-99
2021-09-24 15:00:31.399997,-77
2021-09-24 15:00:31.400007,-85
2021-09-24 15:00:31.400017,-116
2021-09-24 15:00:31.400027,-114
2021-09-24 15:00:31.400037,-116
2021-09-24 15:00:31.400047,-133
2021-09-24 15:00:31.400057,-148
2021-09-24 15:00:31.400067,-155
2021-09-24 15:00:31.400077,-165
2021-09-24 15:00:31.400087,-179
2021-09-24 15:00:31.400097,-191
2021-09-24 15:00:31.400107,-208
2021-09-24 15:00:31.400117,-233
2021-09-24 15:00:31.400127,-255
2021-09-24 15:00:31.400136,-281
2021-09-24 15:00:31.400146,-310
2021-09-24 15:00:31.400156,-342
2021-09-24 15:00:31.400166,-371
2021-09-24 15:00:31.400176,-395
2021-09-24 15:00:31.400186,-417
2021-09-24 15:00:31.400196,-425
2021-09-24 15:00:31.400206,-415
2021-09-24 15:00:31.400216,-386
2021-09-24 15:00:31.400226,-340
2021-09-24 15:00:31.670656,-262
2021-09-24 15:00:31.670678,-157
2021-09-24 15:00:31.670687,-53
2021-09-24 15:00:31.670694,38
2021-09-24 15:00:31.670701,114
2021-09-24 15:00:31.670708,167
2021-09-24 15:00:31.670715,191
2021-09-24 15:00:31.670721,206
2021-09-24 15:00:31.670728,218
2021-09-24 15:00:31.670735,218
2021-09-24 15:00:31.670742,211
2021-09-24 15:00:31.670749,204
2021-09-24 15:00:31.670756,191
2021-09-24 15:00:31.670763,184
2021-09-24 15:00:31.670803,177
2021-09-24 15:00:31.670810,167
2021-09-24 15:00:31.670817,155
2021-09-24 15:00:31.670824,143
2021-09-24 15:00:31.670831,133
2021-09-24 15:00:31.670838,128
2021-09-24 15:00:31.670845,123
2021-09-24 15:00:31.670852,114
2021-09-24 15:00:31.670859,106
2021-09-24 15:00:31.670866,102
2021-09-24 15:00:31.670873,94
2021-09-24 15:00:31.670880,89
2021-09-24 15:00:31.670887,87
2021-09-24 15:00:31.670894,77
2021-09-24 15:00:31.670901,68
2021-09-24 15:00:31.670908,70
2021-09-24 15:00:31.893889,75
2021-09-24 15:00:31.893911,75
2021-09-24 15:00:31.893919,75
2021-09-24 15:00:31.893926,72
2021-09-24 15:00:31.893932,70
2021-09-24 15:00:31.893939,68
2021-09-24 15:00:31.893946,68
2021-09-24 15:00:31.893952,70
2021-09-24 15:00:31.893959,70
2021-09-24 15:00:31.893966,68
2021-09-24 15:00:31.893972,68
2021-09-24 15:00:31.893979,68
2021-09-24 15:00:31.893985,68
2021-09-24 15:00:31.893992,68
2021-09-24 15:00:31.893998,68
2021-09-24 15:00:31.894005,63
2021-09-24 15:00:31.894012,55
2021-09-24 15:00:31.894018,48
2021-09-24 15:00:31.894025,48
2021-09-24 15:00:31.894032,55
2021-09-24 15:00:31.894038,60
2021-09-24 15:00:31.894045,63
2021-09-24 15:00:31.894051,55
2021-09-24 15:00:31.894058,43
2021-09-24 15:00:31.894064,38
2021-09-24 15:00:31.894071,34
2021-09-24 15:00:31.894078,26
2021-09-24 15:00:31.894084,12
2021-09-24 15:00:31.894091,4
2021-09-24 15:00:31.894097,17
2021-09-24 15:00:32.030544,31
2021-09-24 15:00:32.030567,38
2021-09-24 15:00:32.030575,38
2021-09-24 15:00:32.030582,31
2021-09-24 15:00:32.030589,26
2021-09-24 15:00:32.030595,26
2021-09-24 15:00:32.030602,34
2021-09-24 15:00:32.030608,36
2021-09-24 15:00:32.030615,31
2021-09-24 15:00:32.030621,24
2021-09-24 15:00:32.030628,0
2021-09-24 15:00:32.030635,-48
2021-09-24 15:00:32.030641,-160
2021-09-24 15:00:32.030648,-395
2021-09-24 15:00:32.030655,-590
2021-09-24 15:00:32.030661,-446
2021-09-24 15:00:32.030668,48
2021-09-24 15:00:32.030674,548
2021-09-24 15:00:32.030681,578
2021-09-24 15:00:32.030701,211
2021-09-24 15:00:32.030708,41
2021-09-24 15:00:32.030714,58
2021-09-24 15:00:32.030721,-38
2021-09-24 15:00:32.030727,-114
2021-09-24 15:00:32.030734,-80
2021-09-24 15:00:32.030740,-85
2021-09-24 15:00:32.030747,-116
2021-09-24 15:00:32.030754,-121
2021-09-24 15:00:32.030760,-123
2021-09-24 15:00:32.030766,-136
2021-09-24 15:00:32.345238,-143
2021-09-24 15:00:32.345258,-155
2021-09-24 15:00:32.345265,-177
2021-09-24 15:00:32.345272,-201
2021-09-24 15:00:32.345279,-216
2021-09-24 15:00:32.345285,-228
2021-09-24 15:00:32.345292,-247
2021-09-24 15:00:32.345298,-269
2021-09-24 15:00:32.345304,-298
2021-09-24 15:00:32.345311,-340
2021-09-24 15:00:32.345317,-374
2021-09-24 15:00:32.345324,-393
2021-09-24 15:00:32.345330,-415
2021-09-24 15:00:32.345337,-429
2021-09-24 15:00:32.345343,-434
2021-09-24 15:00:32.345350,-429
2021-09-24 15:00:32.345356,-398
2021-09-24 15:00:32.345363,-342
2021-09-24 15:00:32.345369,-257
2021-09-24 15:00:32.345375,-153
2021-09-24 15:00:32.345382,-46
2021-09-24 15:00:32.345388,41
2021-09-24 15:00:32.345395,121
2021-09-24 15:00:32.345401,182
2021-09-24 15:00:32.345408,221
2021-09-24 15:00:32.345415,240
2021-09-24 15:00:32.345421,247
2021-09-24 15:00:32.345428,247
2021-09-24 15:00:32.345434,240
2021-09-24 15:00:32.345441,233
2021-09-24 15:00:32.524825,223
2021-09-24 15:00:32.524845,216
2021-09-24 15:00:32.524853,206
2021-09-24 15:00:32.524859,187
2021-09-24 15:00:32.524866,167
2021-09-24 15:00:32.524872,160
2021-09-24 15:00:32.524879,155
2021-09-24 15:00:32.524885,145
2021-09-24 15:00:32.524892,131
2021-09-24 15:00:32.524898,119
2021-09-24 15:00:32.524905,116
2021-09-24 15:00:32.524911,119
2021-09-24 15:00:32.524918,114
2021-09-24 15:00:32.524924,109
2021-09-24 15:00:32.524930,97
2021-09-24 15:00:32.524937,85
2021-09-24 15:00:32.524943,85
2021-09-24 15:00:32.524949,77
2021-09-24 15:00:32.524956,63
2021-09-24 15:00:32.524962,63
2021-09-24 15:00:32.524969,60
2021-09-24 15:00:32.524975,51
2021-09-24 15:00:32.524981,53
2021-09-24 15:00:32.524988,63
2021-09-24 15:00:32.524994,60
2021-09-24 15:00:32.525001,58
2021-09-24 15:00:32.525007,55
2021-09-24 15:00:32.525014,53
2021-09-24 15:00:32.525020,58
2021-09-24 15:00:32.525027,58
2021-09-24 15:00:32.794922,58
2021-09-24 15:00:32.794939,55
2021-09-24 15:00:32.794946,51
2021-09-24 15:00:32.794951,48
2021-09-24 15:00:32.794957,51
2021-09-24 15:00:32.794962,48
2021-09-24 15:00:32.794968,41
2021-09-24 15:00:32.794975,34
2021-09-24 15:00:32.794981,29
2021-09-24 15:00:32.794986,31
2021-09-24 15:00:32.794991,43
2021-09-24 15:00:32.794996,51
2021-09-24 15:00:32.795001,46
2021-09-24 15:00:32.795007,31
2021-09-24 15:00:32.795012,9
2021-09-24 15:00:32.795017,2
2021-09-24 15:00:32.795022,2
2021-09-24 15:00:32.795028,-2
2021-09-24 15:00:32.795033,0
2021-09-24 15:00:32.795038,19
2021-09-24 15:00:32.795043,36
2021-09-24 15:00:32.795049,34
2021-09-24 15:00:32.795054,34
2021-09-24 15:00:32.795059,41
2021-09-24 15:00:32.795064,41
2021-09-24 15:00:32.795072,38
2021-09-24 15:00:32.795077,38
2021-09-24 15:00:32.795083,41
2021-09-24 15:00:32.795088,38
2021-09-24 15:00:32.795094,36
2021-09-24 15:00:32.974736,17
2021-09-24 15:00:32.974754,-31
2021-09-24 15:00:32.974760,-165
2021-09-24 15:00:32.974765,-412
2021-09-24 15:00:32.974770,-568
2021-09-24 15:00:32.974775,-344
2021-09-24 15:00:32.974780,194
2021-09-24 15:00:32.974785,631
2021-09-24 15:00:32.974790,539
2021-09-24 15:00:32.974794,167
2021-09-24 15:00:32.974799,60
2021-09-24 15:00:32.974804,70
2021-09-24 15:00:32.974809,-48
2021-09-24 15:00:32.974814,-109
2021-09-24 15:00:32.974819,-75
2021-09-24 15:00:32.974824,-89
2021-09-24 15:00:32.974829,-119
2021-09-24 15:00:32.974834,-111
2021-09-24 15:00:32.974839,-121
2021-09-24 15:00:32.974844,-145
2021-09-24 15:00:32.974849,-153
2021-09-24 15:00:32.974854,-155
2021-09-24 15:00:32.974859,-170
2021-09-24 15:00:32.974864,-191
2021-09-24 15:00:32.974869,-216
2021-09-24 15:00:32.974874,-235
2021-09-24 15:00:32.974879,-250
2021-09-24 15:00:32.974884,-274
2021-09-24 15:00:32.974889,-301
2021-09-24 15:00:32.974894,-327
2021-09-24 15:00:33.245545,-359
2021-09-24 15:00:33.245574,-391
2021-09-24 15:00:33.245586,-410
2021-09-24 15:00:33.245596,-422
2021-09-24 15:00:33.245606,-425
2021-09-24 15:00:33.245616,-410
2021-09-24 15:00:33.245627,-386
2021-09-24 15:00:33.245638,-335
2021-09-24 15:00:33.245649,-247
2021-09-24 15:00:33.245660,-148
2021-09-24 15:00:33.245671,-51
2021-09-24 15:00:33.245683,41
2021-09-24 15:00:33.245694,109
2021-09-24 15:00:33.245736,155
2021-09-24 15:00:33.245748,184
2021-09-24 15:00:33.245759,206
2021-09-24 15:00:33.245770,223
2021-09-24 15:00:33.245781,225
2021-09-24 15:00:33.245793,218
2021-09-24 15:00:33.245804,213
2021-09-24 15:00:33.245815,208
2021-09-24 15:00:33.245826,194
2021-09-24 15:00:33.245838,182
2021-09-24 15:00:33.245849,172
2021-09-24 15:00:33.245860,162
2021-09-24 15:00:33.245871,153
2021-09-24 15:00:33.245883,143
2021-09-24 15:00:33.245894,133
2021-09-24 15:00:33.245905,126
2021-09-24 15:00:33.245917,116
2021-09-24 15:00:33.425468,104
2021-09-24 15:00:33.425490,99
2021-09-24 15:00:33.425499,97
2021-09-24 15:00:33.425506,87
2021-09-24 15:00:33.425513,87
2021-09-24 15:00:33.425520,82
2021-09-24 15:00:33.425527,75
2021-09-24 15:00:33.425534,77
2021-09-24 15:00:33.425541,85
2021-09-24 15:00:33.425547,80
2021-09-24 15:00:33.425554,77
2021-09-24 15:00:33.425561,75
2021-09-24 15:00:33.425568,72
2021-09-24 15:00:33.425575,75
2021-09-24 15:00:33.425582,75
2021-09-24 15:00:33.425589,68
2021-09-24 15:00:33.425596,68
2021-09-24 15:00:33.425603,60
2021-09-24 15:00:33.425609,53
2021-09-24 15:00:33.425616,55
2021-09-24 15:00:33.425623,58
2021-09-24 15:00:33.425630,51
2021-09-24 15:00:33.425637,48
2021-09-24 15:00:33.425644,55
2021-09-24 15:00:33.425651,53
2021-09-24 15:00:33.425658,53
2021-09-24 15:00:33.425664,63
2021-09-24 15:00:33.425671,65
2021-09-24 15:00:33.425678,60
2021-09-24 15:00:33.425685,53
2021-09-24 15:00:33.650650,36
2021-09-24 15:00:33.650672,24
2021-09-24 15:00:33.650681,17
2021-09-24 15:00:33.650688,4
2021-09-24 15:00:33.650695,-2
2021-09-24 15:00:33.650702,7
2021-09-24 15:00:33.650709,29
2021-09-24 15:00:33.650716,38
2021-09-24 15:00:33.650722,34
2021-09-24 15:00:33.650729,31
2021-09-24 15:00:33.650736,29
2021-09-24 15:00:33.650743,21
2021-09-24 15:00:33.650750,21
2021-09-24 15:00:33.650757,26
2021-09-24 15:00:33.650764,14
2021-09-24 15:00:33.650770,9
2021-09-24 15:00:33.650777,-7
2021-09-24 15:00:33.650784,-51
2021-09-24 15:00:33.650791,-155
2021-09-24 15:00:33.650798,-381
2021-09-24 15:00:33.650805,-578
2021-09-24 15:00:33.650812,-434
2021-09-24 15:00:33.650818,72
2021-09-24 15:00:33.650825,573
2021-09-24 15:00:33.650832,568
2021-09-24 15:00:33.650839,187
2021-09-24 15:00:33.650846,41
2021-09-24 15:00:33.650852,72
2021-09-24 15:00:33.650859,-34
2021-09-24 15:00:33.650866,-114
2021-09-24 15:00:33.919099,-82
2021-09-24 15:00:33.919122,-82
2021-09-24 15:00:33.919130,-116
2021-09-24 15:00:33.919138,-126
2021-09-24 15:00:33.919145,-138
2021-09-24 15:00:33.919151,-155
2021-09-24 15:00:33.919158,-157
2021-09-24 15:00:33.919165,-160
2021-09-24 15:00:33.919172,-177
2021-09-24 15:00:33.919179,-201
2021-09-24 15:00:33.919186,-218
2021-09-24 15:00:33.919192,-235
2021-09-24 15:00:33.919199,-252
2021-09-24 15:00:33.919206,-279
2021-09-24 15:00:33.919245,-310
2021-09-24 15:00:33.919252,-342
2021-09-24 15:00:33.919259,-374
2021-09-24 15:00:33.919266,-400
2021-09-24 15:00:33.919272,-422
2021-09-24 15:00:33.919279,-434
2021-09-24 15:00:33.919286,-434
2021-09-24 15:00:33.919293,-425
2021-09-24 15:00:33.919300,-400
2021-09-24 15:00:33.919306,-337
2021-09-24 15:00:33.919313,-245
2021-09-24 15:00:33.919320,-138
2021-09-24 15:00:33.919327,-36
2021-09-24 15:00:33.919334,53
2021-09-24 15:00:33.919341,123
2021-09-24 15:00:33.919348,182
2021-09-24 15:00:34.145929,223
2021-09-24 15:00:34.145960,247
2021-09-24 15:00:34.145973,250
2021-09-24 15:00:34.145984,235
2021-09-24 15:00:34.145996,218
2021-09-24 15:00:34.146008,208
2021-09-24 15:00:34.146021,196
2021-09-24 15:00:34.146031,187
2021-09-24 15:00:34.146041,174
2021-09-24 15:00:34.146051,150
2021-09-24 15:00:34.146089,138
2021-09-24 15:00:34.146114,138
2021-09-24 15:00:34.146127,131
2021-09-24 15:00:34.146138,123
2021-09-24 15:00:34.146147,119
2021-09-24 15:00:34.146153,109
2021-09-24 15:00:34.146161,102
2021-09-24 15:00:34.146172,97
2021-09-24 15:00:34.146182,85
2021-09-24 15:00:34.146197,75
2021-09-24 15:00:34.146207,77
2021-09-24 15:00:34.146217,70
2021-09-24 15:00:34.146224,68
2021-09-24 15:00:34.146230,72
2021-09-24 15:00:34.146241,77
2021-09-24 15:00:34.146252,77
2021-09-24 15:00:34.146264,75
2021-09-24 15:00:34.146276,70
2021-09-24 15:00:34.146284,70
2021-09-24 15:00:34.146291,75
2021-09-24 15:00:34.370339,77
2021-09-24 15:00:34.370361,77
2021-09-24 15:00:34.370369,72
2021-09-24 15:00:34.370375,65
2021-09-24 15:00:34.370382,68
2021-09-24 15:00:34.370389,70
2021-09-24 15:00:34.370395,68
2021-09-24 15:00:34.370402,65
2021-09-24 15:00:34.370408,58
2021-09-24 15:00:34.370415,48
2021-09-24 15:00:34.370422,55
2021-09-24 15:00:34.370428,63
2021-09-24 15:00:34.370435,65
2021-09-24 15:00:34.370442,63
2021-09-24 15:00:34.370448,48
2021-09-24 15:00:34.370455,31
2021-09-24 15:00:34.370461,26
2021-09-24 15:00:34.370468,24
2021-09-24 15:00:34.370475,14
2021-09-24 15:00:34.370481,17
2021-09-24 15:00:34.370488,29
2021-09-24 15:00:34.370494,38
2021-09-24 15:00:34.370501,41
2021-09-24 15:00:34.370508,43
2021-09-24 15:00:34.370514,46
2021-09-24 15:00:34.370521,46
2021-09-24 15:00:34.370527,41
2021-09-24 15:00:34.370534,38
2021-09-24 15:00:34.370540,43
2021-09-24 15:00:34.370547,43
2021-09-24 15:00:34.595521,36
2021-09-24 15:00:34.595542,14
2021-09-24 15:00:34.595550,-43
2021-09-24 15:00:34.595557,-172
2021-09-24 15:00:34.595563,-395
2021-09-24 15:00:34.595570,-517
2021-09-24 15:00:34.595576,-279
2021-09-24 15:00:34.595583,247
2021-09-24 15:00:34.595590,648
2021-09-24 15:00:34.595596,534
2021-09-24 15:00:34.595603,160
2021-09-24 15:00:34.595610,48
2021-09-24 15:00:34.595616,53
2021-09-24 15:00:34.595623,-65
2021-09-24 15:00:34.595630,-131
2021-09-24 15:00:34.595636,-102
2021-09-24 15:00:34.595643,-111
2021-09-24 15:00:34.595649,-136
2021-09-24 15:00:34.595656,-131
2021-09-24 15:00:34.595663,-136
2021-09-24 15:00:34.595669,-153
2021-09-24 15:00:34.595676,-165
2021-09-24 15:00:34.595682,-174
2021-09-24 15:00:34.595689,-187
2021-09-24 15:00:34.595695,-196
2021-09-24 15:00:34.595702,-211
2021-09-24 15:00:34.595709,-233
2021-09-24 15:00:34.595715,-252
2021-09-24 15:00:34.595722,-272
2021-09-24 15:00:34.595728,-296
2021-09-24 15:00:34.820458,-323
2021-09-24 15:00:34.820478,-354
2021-09-24 15:00:34.820485,-383
2021-09-24 15:00:34.820492,-403
2021-09-24 15:00:34.820499,-412
2021-09-24 15:00:34.820505,-408
2021-09-24 15:00:34.820512,-393
2021-09-24 15:00:34.820518,-369
2021-09-24 15:00:34.820525,-310
2021-09-24 15:00:34.820531,-213
2021-09-24 15:00:34.820538,-104
2021-09-24 15:00:34.820544,-4
2021-09-24 15:00:34.820551,77
2021-09-24 15:00:34.820558,138
2021-09-24 15:00:34.820564,182
2021-09-24 15:00:34.820570,211
2021-09-24 15:00:34.820577,228
2021-09-24 15:00:34.820583,235
2021-09-24 15:00:34.820590,235
2021-09-24 15:00:34.820596,230
2021-09-24 15:00:34.820603,223
2021-09-24 15:00:34.820609,218
2021-09-24 15:00:34.820616,208
2021-09-24 15:00:34.820622,191
2021-09-24 15:00:34.820628,170
2021-09-24 15:00:34.820635,153
2021-09-24 15:00:34.820641,148
2021-09-24 15:00:34.820648,138
2021-09-24 15:00:34.820654,126
2021-09-24 15:00:34.820661,121
2021-09-24 15:00:35.045514,114
2021-09-24 15:00:35.045536,104
2021-09-24 15:00:35.045544,102
2021-09-24 15:00:35.045551,99
2021-09-24 15:00:35.045557,97
2021-09-24 15:00:35.045564,94
2021-09-24 15:00:35.045571,89
2021-09-24 15:00:35.045577,82
2021-09-24 15:00:35.045584,85
2021-09-24 15:00:35.045590,85
2021-09-24 15:00:35.045597,82
2021-09-24 15:00:35.045603,77
2021-09-24 15:00:35.045610,65
2021-09-24 15:00:35.045616,60
2021-09-24 15:00:35.045623,63
2021-09-24 15:00:35.045629,55
2021-09-24 15:00:35.045636,43
2021-09-24 15:00:35.045643,38
2021-09-24 15:00:35.045649,41
2021-09-24 15:00:35.045656,41
2021-09-24 15:00:35.045662,41
2021-09-24 15:00:35.045669,38
2021-09-24 15:00:35.045675,38
2021-09-24 15:00:35.045682,41
2021-09-24 15:00:35.045688,41
2021-09-24 15:00:35.045695,41
2021-09-24 15:00:35.045701,36
2021-09-24 15:00:35.045708,31
2021-09-24 15:00:35.045718,36
2021-09-24 15:00:35.045729,41
2021-09-24 15:00:35.270350,46
2021-09-24 15:00:35.270378,51
2021-09-24 15:00:35.270385,46
2021-09-24 15:00:35.270392,34
2021-09-24 15:00:35.270399,24
2021-09-24 15:00:35.270405,12
2021-09-24 15:00:35.270412,-4
2021-09-24 15:00:35.270419,-7
2021-09-24 15:00:35.270425,4
2021-09-24 15:00:35.270432,24
2021-09-24 15:00:35.270438,36
2021-09-24 15:00:35.270445,31
2021-09-24 15:00:35.270451,24
2021-09-24 15:00:35.270458,31
2021-09-24 15:00:35.270464,38
2021-09-24 15:00:35.270471,36
2021-09-24 15:00:35.270477,34
2021-09-24 15:00:35.270484,34
2021-09-24 15:00:35.270490,31
2021-09-24 15:00:35.270497,26
2021-09-24 15:00:35.270503,-2
2021-09-24 15:00:35.270510,-75
2021-09-24 15:00:35.270516,-230
2021-09-24 15:00:35.270523,-454
2021-09-24 15:00:35.270529,-485
2021-09-24 15:00:35.270536,-162
2021-09-24 15:00:35.270543,337
2021-09-24 15:00:35.270549,646
2021-09-24 15:00:35.270556,454
2021-09-24 15:00:35.270562,106
2021-09-24 15:00:35.495619,48
2021-09-24 15:00:35.495641,38
2021-09-24 15:00:35.495649,-75
2021-09-24 15:00:35.495656,-99
2021-09-24 15:00:35.495662,-72
2021-09-24 15:00:35.495669,-109
2021-09-24 15:00:35.495675,-128
2021-09-24 15:00:35.495682,-119
2021-09-24 15:00:35.495688,-128
2021-09-24 15:00:35.495695,-145
2021-09-24 15:00:35.495701,-153
2021-09-24 15:00:35.495708,-165
2021-09-24 15:00:35.495714,-177
2021-09-24 15:00:35.495721,-184
2021-09-24 15:00:35.495727,-199
2021-09-24 15:00:35.495734,-216
2021-09-24 15:00:35.495741,-238
2021-09-24 15:00:35.495747,-262
2021-09-24 15:00:35.495808,-291
2021-09-24 15:00:35.495832,-320
2021-09-24 15:00:35.495846,-349
2021-09-24 15:00:35.495853,-388
2021-09-24 15:00:35.495860,-422
2021-09-24 15:00:35.495867,-434
2021-09-24 15:00:35.495873,-425
2021-09-24 15:00:35.495880,-408
2021-09-24 15:00:35.495887,-371
2021-09-24 15:00:35.495893,-306
2021-09-24 15:00:35.495900,-211
2021-09-24 15:00:35.495907,-104
2021-09-24 15:00:35.720619,-7
2021-09-24 15:00:35.720641,75
2021-09-24 15:00:35.720649,143
2021-09-24 15:00:35.720656,189
2021-09-24 15:00:35.720662,208
2021-09-24 15:00:35.720669,221
2021-09-24 15:00:35.720675,233
2021-09-24 15:00:35.720682,235
2021-09-24 15:00:35.720688,230
2021-09-24 15:00:35.720695,223
2021-09-24 15:00:35.720701,208
2021-09-24 15:00:35.720708,191
2021-09-24 15:00:35.720714,182
2021-09-24 15:00:35.720721,177
2021-09-24 15:00:35.720727,167
2021-09-24 15:00:35.720734,153
2021-09-24 15:00:35.720740,140
2021-09-24 15:00:35.720746,136
2021-09-24 15:00:35.720753,131
2021-09-24 15:00:35.720759,126
2021-09-24 15:00:35.720766,119
2021-09-24 15:00:35.720772,111
2021-09-24 15:00:35.720779,106
2021-09-24 15:00:35.720785,106
2021-09-24 15:00:35.720792,109
2021-09-24 15:00:35.720798,106
2021-09-24 15:00:35.720805,102
2021-09-24 15:00:35.720812,94
2021-09-24 15:00:35.720819,89
2021-09-24 15:00:35.720825,87
2021-09-24 15:00:36.034180,85
2021-09-24 15:00:36.034212,82
2021-09-24 15:00:36.034224,77
2021-09-24 15:00:36.034235,60
2021-09-24 15:00:36.034245,55
2021-09-24 15:00:36.034255,63
2021-09-24 15:00:36.034265,65
2021-09-24 15:00:36.034275,60
2021-09-24 15:00:36.034286,58
2021-09-24 15:00:36.034296,51
2021-09-24 15:00:36.034306,46
2021-09-24 15:00:36.034316,53
2021-09-24 15:00:36.034326,60
2021-09-24 15:00:36.034336,51
2021-09-24 15:00:36.034347,41
2021-09-24 15:00:36.034357,38
2021-09-24 15:00:36.034367,41
2021-09-24 15:00:36.034377,46
2021-09-24 15:00:36.034387,48
2021-09-24 15:00:36.034397,48
2021-09-24 15:00:36.034407,46
2021-09-24 15:00:36.034433,46
2021-09-24 15:00:36.034444,53
2021-09-24 15:00:36.034454,58
2021-09-24 15:00:36.034464,51
2021-09-24 15:00:36.034475,36
2021-09-24 15:00:36.034485,14
2021-09-24 15:00:36.034495,2
2021-09-24 15:00:36.034505,0
2021-09-24 15:00:36.034515,-2
2021-09-24 15:00:36.215585,4
2021-09-24 15:00:36.215608,29
2021-09-24 15:00:36.215616,46
2021-09-24 15:00:36.215623,38
2021-09-24 15:00:36.215630,26
2021-09-24 15:00:36.215637,29
2021-09-24 15:00:36.215643,36
2021-09-24 15:00:36.215650,41
2021-09-24 15:00:36.215657,31
2021-09-24 15:00:36.215663,24
2021-09-24 15:00:36.215670,26
2021-09-24 15:00:36.215676,29
2021-09-24 15:00:36.215683,2
2021-09-24 15:00:36.215690,-58
2021-09-24 15:00:36.215696,-196
2021-09-24 15:00:36.215703,-437
2021-09-24 15:00:36.215710,-546
2021-09-24 15:00:36.215716,-291
2021-09-24 15:00:36.215723,218
2021-09-24 15:00:36.215730,612
2021-09-24 15:00:36.215736,507
2021-09-24 15:00:36.215743,140
2021-09-24 15:00:36.215750,38
2021-09-24 15:00:36.215756,53
2021-09-24 15:00:36.215787,-55
2021-09-24 15:00:36.215874,-99
2021-09-24 15:00:36.215886,-68
2021-09-24 15:00:36.215893,-92
2021-09-24 15:00:36.215899,-121
2021-09-24 15:00:36.215906,-109
2021-09-24 15:00:36.440583,-114
2021-09-24 15:00:36.440607,-140
2021-09-24 15:00:36.440615,-150
2021-09-24 15:00:36.440622,-155
2021-09-24 15:00:36.440628,-167
2021-09-24 15:00:36.440635,-184
2021-09-24 15:00:36.440641,-204
2021-09-24 15:00:36.440648,-230
2021-09-24 15:00:36.440654,-259
2021-09-24 15:00:36.440661,-284
2021-09-24 15:00:36.440667,-310
2021-09-24 15:00:36.440674,-344
2021-09-24 15:00:36.440681,-374
2021-09-24 15:00:36.440687,-403
2021-09-24 15:00:36.440694,-432
2021-09-24 15:00:36.440700,-444
2021-09-24 15:00:36.440707,-442
2021-09-24 15:00:36.440713,-432
2021-09-24 15:00:36.440720,-400
2021-09-24 15:00:36.440726,-342
2021-09-24 15:00:36.440733,-255
2021-09-24 15:00:36.440739,-148
2021-09-24 15:00:36.440746,-43
2021-09-24 15:00:36.440752,43
2021-09-24 15:00:36.440759,119
2021-09-24 15:00:36.440766,177
2021-09-24 15:00:36.440772,208
2021-09-24 15:00:36.440779,223
2021-09-24 15:00:36.440785,238
2021-09-24 15:00:36.440792,242
2021-09-24 15:00:36.665368,235
2021-09-24 15:00:36.665390,221
2021-09-24 15:00:36.665398,206
2021-09-24 15:00:36.665405,184
2021-09-24 15:00:36.665411,165
2021-09-24 15:00:36.665418,160
2021-09-24 15:00:36.665424,157
2021-09-24 15:00:36.665431,138
2021-09-24 15:00:36.665437,114
2021-09-24 15:00:36.665444,102
2021-09-24 15:00:36.665450,97
2021-09-24 15:00:36.665457,92
2021-09-24 15:00:36.665463,89
2021-09-24 15:00:36.665470,87
2021-09-24 15:00:36.665476,75
2021-09-24 15:00:36.665483,72
2021-09-24 15:00:36.665489,77
2021-09-24 15:00:36.665496,75
2021-09-24 15:00:36.665502,68
2021-09-24 15:00:36.665509,63
2021-09-24 15:00:36.665515,53
2021-09-24 15:00:36.665522,55
2021-09-24 15:00:36.665528,63
2021-09-24 15:00:36.665535,63
2021-09-24 15:00:36.665541,58
2021-09-24 15:00:36.665548,58
2021-09-24 15:00:36.665554,65
2021-09-24 15:00:36.665561,63
2021-09-24 15:00:36.665568,60
2021-09-24 15:00:36.665574,58
2021-09-24 15:00:36.935487,60
2021-09-24 15:00:36.935509,58
2021-09-24 15:00:36.935517,53
2021-09-24 15:00:36.935524,55
2021-09-24 15:00:36.935531,58
2021-09-24 15:00:36.935538,53
2021-09-24 15:00:36.935544,48
2021-09-24 15:00:36.935551,43
2021-09-24 15:00:36.935557,51
2021-09-24 15:00:36.935564,53
2021-09-24 15:00:36.935570,41
2021-09-24 15:00:36.935577,26
2021-09-24 15:00:36.935583,12
2021-09-24 15:00:36.935590,-4
2021-09-24 15:00:36.935596,-4
2021-09-24 15:00:36.935603,-4
2021-09-24 15:00:36.935609,-7
2021-09-24 15:00:36.935616,9
2021-09-24 15:00:36.935623,31
2021-09-24 15:00:36.935629,29
2021-09-24 15:00:36.935636,26
2021-09-24 15:00:36.935642,31
2021-09-24 15:00:36.935648,36
2021-09-24 15:00:36.935655,34
2021-09-24 15:00:36.935661,31
2021-09-24 15:00:36.935668,36
2021-09-24 15:00:36.935674,43
2021-09-24 15:00:36.935681,38
2021-09-24 15:00:36.935688,21
2021-09-24 15:00:36.935694,-17
2021-09-24 15:00:37.115204,-80
2021-09-24 15:00:37.115236,-204
2021-09-24 15:00:37.115244,-388
2021-09-24 15:00:37.115251,-425
2021-09-24 15:00:37.115295,-114
2021-09-24 15:00:37.115317,420
2021-09-24 15:00:37.115324,692
2021-09-24 15:00:37.115331,417
2021-09-24 15:00:37.115338,75
2021-09-24 15:00:37.115344,46
2021-09-24 15:00:37.115351,26
2021-09-24 15:00:37.115357,-94
2021-09-24 15:00:37.115364,-123
2021-09-24 15:00:37.115370,-104
2021-09-24 15:00:37.115377,-136
2021-09-24 15:00:37.115383,-157
2021-09-24 15:00:37.115390,-150
2021-09-24 15:00:37.115396,-157
2021-09-24 15:00:37.115403,-174
2021-09-24 15:00:37.115409,-177
2021-09-24 15:00:37.115416,-184
2021-09-24 15:00:37.115422,-204
2021-09-24 15:00:37.115429,-216
2021-09-24 15:00:37.115435,-228
2021-09-24 15:00:37.115442,-257
2021-09-24 15:00:37.115448,-279
2021-09-24 15:00:37.115455,-293
2021-09-24 15:00:37.115461,-320
2021-09-24 15:00:37.115468,-349
2021-09-24 15:00:37.115474,-378
2021-09-24 15:00:37.340617,-400
2021-09-24 15:00:37.340639,-415
2021-09-24 15:00:37.340647,-427
2021-09-24 15:00:37.340654,-429
2021-09-24 15:00:37.340660,-408
2021-09-24 15:00:37.340667,-366
2021-09-24 15:00:37.340673,-298
2021-09-24 15:00:37.340680,-199
2021-09-24 15:00:37.340687,-97
2021-09-24 15:00:37.340693,-2
2021-09-24 15:00:37.340700,77
2021-09-24 15:00:37.340706,133
2021-09-24 15:00:37.340713,174
2021-09-24 15:00:37.340719,206
2021-09-24 15:00:37.340726,216
2021-09-24 15:00:37.340733,208
2021-09-24 15:00:37.340739,208
2021-09-24 15:00:37.340746,201
2021-09-24 15:00:37.340752,184
2021-09-24 15:00:37.340759,177
2021-09-24 15:00:37.340766,170
2021-09-24 15:00:37.340772,162
2021-09-24 15:00:37.340831,153
2021-09-24 15:00:37.340855,145
2021-09-24 15:00:37.340867,138
2021-09-24 15:00:37.340874,131
2021-09-24 15:00:37.340880,126
2021-09-24 15:00:37.340887,121
2021-09-24 15:00:37.340894,111
2021-09-24 15:00:37.340900,106
2021-09-24 15:00:37.565614,104
2021-09-24 15:00:37.565646,109
2021-09-24 15:00:37.565658,114
2021-09-24 15:00:37.565669,104
2021-09-24 15:00:37.565679,92
2021-09-24 15:00:37.565689,85
2021-09-24 15:00:37.565699,82
2021-09-24 15:00:37.565709,77
2021-09-24 15:00:37.565719,82
2021-09-24 15:00:37.565729,80
2021-09-24 15:00:37.565739,63
2021-09-24 15:00:37.565749,58
2021-09-24 15:00:37.565759,70
2021-09-24 15:00:37.565769,70
2021-09-24 15:00:37.565779,51
2021-09-24 15:00:37.565790,38
2021-09-24 15:00:37.565800,41
2021-09-24 15:00:37.565810,41
2021-09-24 15:00:37.565820,41
2021-09-24 15:00:37.565830,43
2021-09-24 15:00:37.565840,41
2021-09-24 15:00:37.565850,38
2021-09-24 15:00:37.565860,41
2021-09-24 15:00:37.565870,46
2021-09-24 15:00:37.565880,48
2021-09-24 15:00:37.565890,43
2021-09-24 15:00:37.565900,29
2021-09-24 15:00:37.565910,17
2021-09-24 15:00:37.565920,17
2021-09-24 15:00:37.565930,17
2021-09-24 15:00:37.834989,19
2021-09-24 15:00:37.835020,34
2021-09-24 15:00:37.835032,48
2021-09-24 15:00:37.835042,38
2021-09-24 15:00:37.835052,26
2021-09-24 15:00:37.835062,36
2021-09-24 15:00:37.835072,48
2021-09-24 15:00:37.835082,46
2021-09-24 15:00:37.835092,38
2021-09-24 15:00:37.835102,34
2021-09-24 15:00:37.835112,26
2021-09-24 15:00:37.835123,14
2021-09-24 15:00:37.835133,-24
2021-09-24 15:00:37.835143,-89
2021-09-24 15:00:37.835153,-216
2021-09-24 15:00:37.835163,-391
2021-09-24 15:00:37.835173,-371
2021-09-24 15:00:37.835183,-19
2021-09-24 15:00:37.835193,466
2021-09-24 15:00:37.835203,663
2021-09-24 15:00:37.835214,371
2021-09-24 15:00:37.835224,70
2021-09-24 15:00:37.835234,60
2021-09-24 15:00:37.835244,34
2021-09-24 15:00:37.835254,-87
2021-09-24 15:00:37.835264,-111
2021-09-24 15:00:37.835274,-89
2021-09-24 15:00:37.835284,-116
2021-09-24 15:00:37.835295,-131
2021-09-24 15:00:37.835305,-121
2021-09-24 15:00:38.104182,-128
2021-09-24 15:00:38.104204,-143
2021-09-24 15:00:38.104212,-148
2021-09-24 15:00:38.104219,-167
2021-09-24 15:00:38.104225,-184
2021-09-24 15:00:38.104232,-191
2021-09-24 15:00:38.104239,-201
2021-09-24 15:00:38.104245,-221
2021-09-24 15:00:38.104252,-245
2021-09-24 15:00:38.104259,-279
2021-09-24 15:00:38.104265,-308
2021-09-24 15:00:38.104272,-330
2021-09-24 15:00:38.104279,-354
2021-09-24 15:00:38.104285,-374
2021-09-24 15:00:38.104292,-391
2021-09-24 15:00:38.104298,-405
2021-09-24 15:00:38.104305,-400
2021-09-24 15:00:38.104312,-371
2021-09-24 15:00:38.104318,-323
2021-09-24 15:00:38.104325,-259
2021-09-24 15:00:38.104331,-177
2021-09-24 15:00:38.104338,-82
2021-09-24 15:00:38.104345,14
2021-09-24 15:00:38.104351,92
2021-09-24 15:00:38.104358,145
2021-09-24 15:00:38.104365,182
2021-09-24 15:00:38.104371,204
2021-09-24 15:00:38.104378,213
2021-09-24 15:00:38.104384,216
2021-09-24 15:00:38.104391,221
2021-09-24 15:00:38.420043,218
2021-09-24 15:00:38.420066,208
2021-09-24 15:00:38.420074,187
2021-09-24 15:00:38.420081,165
2021-09-24 15:00:38.420088,160
2021-09-24 15:00:38.420094,160
2021-09-24 15:00:38.420101,153
2021-09-24 15:00:38.420107,138
2021-09-24 15:00:38.420114,119
2021-09-24 15:00:38.420120,106
2021-09-24 15:00:38.420127,106
2021-09-24 15:00:38.420138,109
2021-09-24 15:00:38.420145,102
2021-09-24 15:00:38.420151,94
2021-09-24 15:00:38.420158,85
2021-09-24 15:00:38.420164,75
2021-09-24 15:00:38.420171,80
2021-09-24 15:00:38.420177,85
2021-09-24 15:00:38.420184,77
2021-09-24 15:00:38.420190,75
2021-09-24 15:00:38.420197,72
2021-09-24 15:00:38.420203,60
2021-09-24 15:00:38.420210,60
2021-09-24 15:00:38.420216,60
2021-09-24 15:00:38.420223,58
2021-09-24 15:00:38.420229,60
2021-09-24 15:00:38.420235,55
2021-09-24 15:00:38.420242,51
2021-09-24 15:00:38.420249,53
2021-09-24 15:00:38.420255,55
2021-09-24 15:00:38.510531,55
2021-09-24 15:00:38.510555,53
2021-09-24 15:00:38.510563,53
2021-09-24 15:00:38.510570,51
2021-09-24 15:00:38.510576,48
2021-09-24 15:00:38.510583,53
2021-09-24 15:00:38.510589,60
2021-09-24 15:00:38.510596,63
2021-09-24 15:00:38.510602,63
2021-09-24 15:00:38.510609,55
2021-09-24 15:00:38.510615,48
2021-09-24 15:00:38.510622,43
2021-09-24 15:00:38.510628,36
2021-09-24 15:00:38.510635,17
2021-09-24 15:00:38.510641,4
2021-09-24 15:00:38.510648,14
2021-09-24 15:00:38.510654,36
2021-09-24 15:00:38.510661,53
2021-09-24 15:00:38.510667,48
2021-09-24 15:00:38.510674,38
2021-09-24 15:00:38.510680,36
2021-09-24 15:00:38.510687,38
2021-09-24 15:00:38.510693,41
2021-09-24 15:00:38.510700,46
2021-09-24 15:00:38.510706,43
2021-09-24 15:00:38.510713,29
2021-09-24 15:00:38.510720,0
2021-09-24 15:00:38.510726,-43
2021-09-24 15:00:38.510733,-111
2021-09-24 15:00:38.510740,-269
2021-09-24 15:00:38.734991,-468
2021-09-24 15:00:38.735009,-427
2021-09-24 15:00:38.735015,-55
2021-09-24 15:00:38.735020,415
2021-09-24 15:00:38.735025,612
2021-09-24 15:00:38.735029,340
2021-09-24 15:00:38.735034,58
2021-09-24 15:00:38.735039,55
2021-09-24 15:00:38.735044,17
2021-09-24 15:00:38.735048,-99
2021-09-24 15:00:38.735053,-106
2021-09-24 15:00:38.735058,-85
2021-09-24 15:00:38.735063,-119
2021-09-24 15:00:38.735068,-138
2021-09-24 15:00:38.735072,-128
2021-09-24 15:00:38.735077,-138
2021-09-24 15:00:38.735082,-150
2021-09-24 15:00:38.735086,-153
2021-09-24 15:00:38.735091,-165
2021-09-24 15:00:38.735096,-177
2021-09-24 15:00:38.735101,-187
2021-09-24 15:00:38.735105,-204
2021-09-24 15:00:38.735110,-221
2021-09-24 15:00:38.735115,-240
2021-09-24 15:00:38.735119,-269
2021-09-24 15:00:38.735124,-301
2021-09-24 15:00:38.735129,-332
2021-09-24 15:00:38.735134,-369
2021-09-24 15:00:38.735138,-398
2021-09-24 15:00:38.735143,-415
2021-09-24 15:00:38.960615,-420
2021-09-24 15:00:38.960639,-410
2021-09-24 15:00:38.960647,-386
2021-09-24 15:00:38.960654,-342
2021-09-24 15:00:38.960661,-264
2021-09-24 15:00:38.960667,-167
2021-09-24 15:00:38.960674,-70
2021-09-24 15:00:38.960680,26
2021-09-24 15:00:38.960687,109
2021-09-24 15:00:38.960694,162
2021-09-24 15:00:38.960700,201
2021-09-24 15:00:38.960707,223
2021-09-24 15:00:38.960714,233
2021-09-24 15:00:38.960720,235
2021-09-24 15:00:38.960727,235
2021-09-24 15:00:38.960733,228
2021-09-24 15:00:38.960740,223
2021-09-24 15:00:38.960747,218
2021-09-24 15:00:38.960753,206
2021-09-24 15:00:38.960760,196
2021-09-24 15:00:38.960766,189
2021-09-24 15:00:38.960773,172
2021-09-24 15:00:38.960779,157
2021-09-24 15:00:38.960786,150
2021-09-24 15:00:38.960792,140
2021-09-24 15:00:38.960799,131
2021-09-24 15:00:38.960806,128
2021-09-24 15:00:38.960812,123
2021-09-24 15:00:38.960819,114
2021-09-24 15:00:38.960825,99
2021-09-24 15:00:39.185631,94
2021-09-24 15:00:39.185662,92
2021-09-24 15:00:39.185674,80
2021-09-24 15:00:39.185681,77
2021-09-24 15:00:39.185688,82
2021-09-24 15:00:39.185694,75
2021-09-24 15:00:39.185701,65
2021-09-24 15:00:39.185707,65
2021-09-24 15:00:39.185714,68
2021-09-24 15:00:39.185720,58
2021-09-24 15:00:39.185727,51
2021-09-24 15:00:39.185733,46
2021-09-24 15:00:39.185740,43
2021-09-24 15:00:39.185746,48
2021-09-24 15:00:39.185753,48
2021-09-24 15:00:39.185759,46
2021-09-24 15:00:39.185766,46
2021-09-24 15:00:39.185772,41
2021-09-24 15:00:39.185779,41
2021-09-24 15:00:39.185786,46
2021-09-24 15:00:39.185792,46
2021-09-24 15:00:39.185799,38
2021-09-24 15:00:39.185805,38
2021-09-24 15:00:39.185812,38
2021-09-24 15:00:39.185818,38
2021-09-24 15:00:39.185825,46
2021-09-24 15:00:39.185831,51
2021-09-24 15:00:39.185838,51
2021-09-24 15:00:39.185844,43
2021-09-24 15:00:39.185851,36
2021-09-24 15:00:39.410689,26
2021-09-24 15:00:39.410713,17
2021-09-24 15:00:39.410721,0
2021-09-24 15:00:39.410728,-12
2021-09-24 15:00:39.410735,-19
2021-09-24 15:00:39.410741,-9
2021-09-24 15:00:39.410748,19
2021-09-24 15:00:39.410754,31
2021-09-24 15:00:39.410761,21
2021-09-24 15:00:39.410768,19
2021-09-24 15:00:39.410774,19
2021-09-24 15:00:39.410782,14
2021-09-24 15:00:39.410789,21
2021-09-24 15:00:39.410796,26
2021-09-24 15:00:39.410803,21
2021-09-24 15:00:39.410809,12
2021-09-24 15:00:39.410816,-14
2021-09-24 15:00:39.410822,-75
2021-09-24 15:00:39.410829,-194
2021-09-24 15:00:39.410835,-403
2021-09-24 15:00:39.410842,-497
2021-09-24 15:00:39.410848,-257
2021-09-24 15:00:39.410855,189
2021-09-24 15:00:39.410862,568
2021-09-24 15:00:39.410868,546
2021-09-24 15:00:39.410875,199
2021-09-24 15:00:39.410881,53
2021-09-24 15:00:39.410888,65
2021-09-24 15:00:39.410894,-41
2021-09-24 15:00:39.410901,-109
2021-09-24 15:00:39.635602,-72
2021-09-24 15:00:39.635667,-82
2021-09-24 15:00:39.635681,-121
2021-09-24 15:00:39.635689,-133
2021-09-24 15:00:39.635695,-145
2021-09-24 15:00:39.635702,-155
2021-09-24 15:00:39.635708,-160
2021-09-24 15:00:39.635715,-174
2021-09-24 15:00:39.635742,-196
2021-09-24 15:00:39.635757,-211
2021-09-24 15:00:39.635770,-225
2021-09-24 15:00:39.635781,-240
2021-09-24 15:00:39.635793,-255
2021-09-24 15:00:39.635803,-274
2021-09-24 15:00:39.635813,-303
2021-09-24 15:00:39.635845,-337
2021-09-24 15:00:39.635879,-371
2021-09-24 15:00:39.635894,-398
2021-09-24 15:00:39.635905,-417
2021-09-24 15:00:39.635916,-434
2021-09-24 15:00:39.636149,-439
2021-09-24 15:00:39.636181,-432
2021-09-24 15:00:39.636200,-400
2021-09-24 15:00:39.636212,-337
2021-09-24 15:00:39.636224,-240
2021-09-24 15:00:39.636236,-131
2021-09-24 15:00:39.636247,-24
2021-09-24 15:00:39.636259,63
2021-09-24 15:00:39.636269,136
2021-09-24 15:00:39.636282,191
2021-09-24 15:00:39.904837,225
2021-09-24 15:00:39.904852,240
2021-09-24 15:00:39.904858,245
2021-09-24 15:00:39.904863,235
2021-09-24 15:00:39.904867,225
2021-09-24 15:00:39.904872,223
2021-09-24 15:00:39.904877,216
2021-09-24 15:00:39.904881,208
2021-09-24 15:00:39.904886,196
2021-09-24 15:00:39.904891,177
2021-09-24 15:00:39.904895,167
2021-09-24 15:00:39.904900,165
2021-09-24 15:00:39.904904,157
2021-09-24 15:00:39.904909,143
2021-09-24 15:00:39.904914,128
2021-09-24 15:00:39.904918,119
2021-09-24 15:00:39.904923,111
2021-09-24 15:00:39.904928,109
2021-09-24 15:00:39.904932,104
2021-09-24 15:00:39.904937,102
2021-09-24 15:00:39.904942,97
2021-09-24 15:00:39.904976,89
2021-09-24 15:00:39.904985,89
2021-09-24 15:00:39.904999,97
2021-09-24 15:00:39.905004,97
2021-09-24 15:00:39.905009,94
2021-09-24 15:00:39.905014,94
2021-09-24 15:00:39.905018,89
2021-09-24 15:00:39.905023,89
2021-09-24 15:00:39.905027,89
2021-09-24 15:00:40.173631,87
2021-09-24 15:00:40.173650,80
2021-09-24 15:00:40.173656,70
2021-09-24 15:00:40.173662,65
2021-09-24 15:00:40.173667,65
2021-09-24 15:00:40.173672,68
2021-09-24 15:00:40.173677,65
2021-09-24 15:00:40.173683,55
2021-09-24 15:00:40.173688,38
2021-09-24 15:00:40.173693,34
2021-09-24 15:00:40.173698,38
2021-09-24 15:00:40.173703,38
2021-09-24 15:00:40.173708,34
2021-09-24 15:00:40.173713,21
2021-09-24 15:00:40.173718,7
2021-09-24 15:00:40.173723,4
2021-09-24 15:00:40.173728,14
2021-09-24 15:00:40.173734,17
2021-09-24 15:00:40.173739,17
2021-09-24 15:00:40.173744,21
2021-09-24 15:00:40.173749,26
2021-09-24 15:00:40.173754,26
2021-09-24 15:00:40.173759,21
2021-09-24 15:00:40.173765,7
2021-09-24 15:00:40.173770,-4
2021-09-24 15:00:40.173775,-2
2021-09-24 15:00:40.173780,-2
2021-09-24 15:00:40.173785,-12
2021-09-24 15:00:40.173790,-2
2021-09-24 15:00:40.173795,21
2021-09-24 15:00:40.445152,36
2021-09-24 15:00:40.445216,36
2021-09-24 15:00:40.445228,34
2021-09-24 15:00:40.445239,34
2021-09-24 15:00:40.445249,41
2021-09-24 15:00:40.445259,43
2021-09-24 15:00:40.445269,43
2021-09-24 15:00:40.445279,36
2021-09-24 15:00:40.445382,24
2021-09-24 15:00:40.445394,12
2021-09-24 15:00:40.445405,-12
2021-09-24 15:00:40.445415,-68
2021-09-24 15:00:40.445425,-213
2021-09-24 15:00:40.445435,-459
2021-09-24 15:00:40.445445,-558
2021-09-24 15:00:40.445455,-306
2021-09-24 15:00:40.445465,184
2021-09-24 15:00:40.445475,590
2021-09-24 15:00:40.445485,500
2021-09-24 15:00:40.445495,126
2021-09-24 15:00:40.445505,29
2021-09-24 15:00:40.445515,46
2021-09-24 15:00:40.445525,-63
2021-09-24 15:00:40.445535,-102
2021-09-24 15:00:40.445545,-65
2021-09-24 15:00:40.445555,-89
2021-09-24 15:00:40.445565,-119
2021-09-24 15:00:40.445575,-111
2021-09-24 15:00:40.445585,-114
2021-09-24 15:00:40.445595,-128
2021-09-24 15:00:40.579940,-138
2021-09-24 15:00:40.579960,-148
2021-09-24 15:00:40.579965,-162
2021-09-24 15:00:40.579970,-174
2021-09-24 15:00:40.579975,-189
2021-09-24 15:00:40.579979,-206
2021-09-24 15:00:40.579984,-235
2021-09-24 15:00:40.579988,-269
2021-09-24 15:00:40.579993,-296
2021-09-24 15:00:40.579997,-325
2021-09-24 15:00:40.580002,-361
2021-09-24 15:00:40.580007,-398
2021-09-24 15:00:40.580011,-429
2021-09-24 15:00:40.580016,-446
2021-09-24 15:00:40.580020,-446
2021-09-24 15:00:40.580025,-434
2021-09-24 15:00:40.580029,-398
2021-09-24 15:00:40.580033,-335
2021-09-24 15:00:40.580038,-250
2021-09-24 15:00:40.580043,-145
2021-09-24 15:00:40.580047,-36
2021-09-24 15:00:40.580052,55
2021-09-24 15:00:40.580056,126
2021-09-24 15:00:40.580061,179
2021-09-24 15:00:40.580065,208
2021-09-24 15:00:40.580070,223
2021-09-24 15:00:40.580075,233
2021-09-24 15:00:40.580079,233
2021-09-24 15:00:40.580084,230
2021-09-24 15:00:40.580088,225
2021-09-24 15:00:40.805601,211
2021-09-24 15:00:40.805622,199
2021-09-24 15:00:40.805630,191
2021-09-24 15:00:40.805637,179
2021-09-24 15:00:40.805644,170
2021-09-24 15:00:40.805651,160
2021-09-24 15:00:40.805657,143
2021-09-24 15:00:40.805664,128
2021-09-24 15:00:40.805670,123
2021-09-24 15:00:40.805677,116
2021-09-24 15:00:40.805684,109
2021-09-24 15:00:40.805690,104
2021-09-24 15:00:40.805697,89
2021-09-24 15:00:40.805703,80
2021-09-24 15:00:40.805710,77
2021-09-24 15:00:40.805717,72
2021-09-24 15:00:40.805723,68
2021-09-24 15:00:40.805730,68
2021-09-24 15:00:40.805736,60
2021-09-24 15:00:40.805743,58
2021-09-24 15:00:40.805750,60
2021-09-24 15:00:40.805756,63
2021-09-24 15:00:40.805765,63
2021-09-24 15:00:40.805777,63
2021-09-24 15:00:40.805787,60
2021-09-24 15:00:40.805798,63
2021-09-24 15:00:40.805808,60
2021-09-24 15:00:40.805818,58
2021-09-24 15:00:40.805828,58
2021-09-24 15:00:40.805840,55
2021-09-24 15:00:41.030626,55
2021-09-24 15:00:41.030648,55
2021-09-24 15:00:41.030656,58
2021-09-24 15:00:41.030663,58
2021-09-24 15:00:41.030669,58
2021-09-24 15:00:41.030676,53
2021-09-24 15:00:41.030683,46
2021-09-24 15:00:41.030689,48
2021-09-24 15:00:41.030696,51
2021-09-24 15:00:41.030702,46
2021-09-24 15:00:41.030709,43
2021-09-24 15:00:41.030716,41
2021-09-24 15:00:41.030722,36
2021-09-24 15:00:41.030729,36
2021-09-24 15:00:41.030735,36
2021-09-24 15:00:41.030742,29
2021-09-24 15:00:41.030749,24
2021-09-24 15:00:41.030755,29
2021-09-24 15:00:41.030762,34
2021-09-24 15:00:41.030769,24
2021-09-24 15:00:41.030775,4
2021-09-24 15:00:41.030789,-4
2021-09-24 15:00:41.030797,2
2021-09-24 15:00:41.030803,-2
2021-09-24 15:00:41.030810,-19
2021-09-24 15:00:41.030817,-14
2021-09-24 15:00:41.030823,9
2021-09-24 15:00:41.030830,24
2021-09-24 15:00:41.030836,26
2021-09-24 15:00:41.030843,24
2021-09-24 15:00:41.300735,26
2021-09-24 15:00:41.300766,31
2021-09-24 15:00:41.300778,34
2021-09-24 15:00:41.300788,31
2021-09-24 15:00:41.300799,26
2021-09-24 15:00:41.300809,21
2021-09-24 15:00:41.300819,19
2021-09-24 15:00:41.300829,-4
2021-09-24 15:00:41.300839,-75
2021-09-24 15:00:41.300849,-252
2021-09-24 15:00:41.300859,-510
2021-09-24 15:00:41.300869,-563
2021-09-24 15:00:41.300879,-242
2021-09-24 15:00:41.300890,298
2021-09-24 15:00:41.300900,634
2021-09-24 15:00:41.300910,420
2021-09-24 15:00:41.300920,82
2021-09-24 15:00:41.300930,53
2021-09-24 15:00:41.300940,31
2021-09-24 15:00:41.300951,-82
2021-09-24 15:00:41.300961,-92
2021-09-24 15:00:41.300971,-68
2021-09-24 15:00:41.300981,-102
2021-09-24 15:00:41.300991,-119
2021-09-24 15:00:41.301001,-109
2021-09-24 15:00:41.301011,-121
2021-09-24 15:00:41.301021,-136
2021-09-24 15:00:41.301031,-145
2021-09-24 15:00:41.301042,-157
