Time,ECG
2021-09-24 15:20:17.314687,51
2021-09-24 15:20:17.314702,12
2021-09-24 15:20:17.314708,-24
2021-09-24 15:20:17.314713,-133
2021-09-24 15:20:17.314718,-378
2021-09-24 15:20:17.314722,-580
2021-09-24 15:20:17.314727,-417
2021-09-24 15:20:17.314731,138
2021-09-24 15:20:17.314736,617
2021-09-24 15:20:17.314741,507
2021-09-24 15:20:17.314745,119
2021-09-24 15:20:17.314763,17
2021-09-24 15:20:17.314767,9
2021-09-24 15:20:17.314771,-123
2021-09-24 15:20:17.314776,-172
2021-09-24 15:20:17.314780,-128
2021-09-24 15:20:17.314784,-138
2021-09-24 15:20:17.314789,-170
2021-09-24 15:20:17.314793,-170
2021-09-24 15:20:17.314797,-177
2021-09-24 15:20:17.314801,-204
2021-09-24 15:20:17.314805,-225
2021-09-24 15:20:17.314810,-240
2021-09-24 15:20:17.314814,-257
2021-09-24 15:20:17.314818,-276
2021-09-24 15:20:17.314822,-298
2021-09-24 15:20:17.314827,-320
2021-09-24 15:20:17.314831,-335
2021-09-24 15:20:17.314835,-347
2021-09-24 15:20:17.314839,-374
2021-09-24 15:20:17.481564,-410
2021-09-24 15:20:17.481586,-410
2021-09-24 15:20:17.481594,-391
2021-09-24 15:20:17.481600,-376
2021-09-24 15:20:17.481607,-347
2021-09-24 15:20:17.481614,-301
2021-09-24 15:20:17.481621,-247
2021-09-24 15:20:17.481628,-182
2021-09-24 15:20:17.481635,-99
2021-09-24 15:20:17.481641,-24
2021-09-24 15:20:17.481648,36
2021-09-24 15:20:17.481654,99
2021-09-24 15:20:17.481661,145
2021-09-24 15:20:17.481667,179
2021-09-24 15:20:17.481674,204
2021-09-24 15:20:17.481680,199
2021-09-24 15:20:17.481687,184
2021-09-24 15:20:17.481694,174
2021-09-24 15:20:17.481700,155
2021-09-24 15:20:17.481707,145
2021-09-24 15:20:17.481713,148
2021-09-24 15:20:17.481720,143
2021-09-24 15:20:17.481726,123
2021-09-24 15:20:17.481733,109
2021-09-24 15:20:17.481739,109
2021-09-24 15:20:17.481746,109
2021-09-24 15:20:17.481752,109
2021-09-24 15:20:17.481759,106
2021-09-24 15:20:17.481765,92
2021-09-24 15:20:17.481774,65
2021-09-24 15:20:17.661367,51
2021-09-24 15:20:17.661392,77
2021-09-24 15:20:17.661400,109
2021-09-24 15:20:17.661406,94
2021-09-24 15:20:17.661413,85
2021-09-24 15:20:17.661419,102
2021-09-24 15:20:17.661426,72
2021-09-24 15:20:17.661432,19
2021-09-24 15:20:17.661439,19
2021-09-24 15:20:17.661445,41
2021-09-24 15:20:17.661452,29
2021-09-24 15:20:17.661459,4
2021-09-24 15:20:17.661497,-7
2021-09-24 15:20:17.661509,2
2021-09-24 15:20:17.661516,17
2021-09-24 15:20:17.661522,17
2021-09-24 15:20:17.661529,19
2021-09-24 15:20:17.661535,19
2021-09-24 15:20:17.661542,7
2021-09-24 15:20:17.661548,0
2021-09-24 15:20:17.661555,7
2021-09-24 15:20:17.661561,7
2021-09-24 15:20:17.661568,2
2021-09-24 15:20:17.661574,4
2021-09-24 15:20:17.661581,17
2021-09-24 15:20:17.661587,21
2021-09-24 15:20:17.661594,21
2021-09-24 15:20:17.661600,19
2021-09-24 15:20:17.661607,26
2021-09-24 15:20:17.661615,26
2021-09-24 15:20:17.931200,17
2021-09-24 15:20:17.931222,12
2021-09-24 15:20:17.931229,2
2021-09-24 15:20:17.931236,-21
2021-09-24 15:20:17.931242,-58
2021-09-24 15:20:17.931249,-126
2021-09-24 15:20:17.931255,-293
2021-09-24 15:20:17.931261,-531
2021-09-24 15:20:17.931267,-551
2021-09-24 15:20:17.931273,-145
2021-09-24 15:20:17.931279,449
2021-09-24 15:20:17.931285,636
2021-09-24 15:20:17.931292,296
2021-09-24 15:20:17.931298,68
2021-09-24 15:20:17.931304,89
2021-09-24 15:20:17.931310,-17
2021-09-24 15:20:17.931316,-145
2021-09-24 15:20:17.931327,-138
2021-09-24 15:20:17.931333,-136
2021-09-24 15:20:17.931339,-162
2021-09-24 15:20:17.931345,-160
2021-09-24 15:20:17.931352,-160
2021-09-24 15:20:17.931358,-182
2021-09-24 15:20:17.931364,-196
2021-09-24 15:20:17.931370,-206
2021-09-24 15:20:17.931376,-225
2021-09-24 15:20:17.931382,-255
2021-09-24 15:20:17.931388,-289
2021-09-24 15:20:17.931395,-306
2021-09-24 15:20:17.931401,-313
2021-09-24 15:20:18.155932,-340
2021-09-24 15:20:18.155956,-374
2021-09-24 15:20:18.155964,-391
2021-09-24 15:20:18.155971,-395
2021-09-24 15:20:18.155977,-403
2021-09-24 15:20:18.155984,-400
2021-09-24 15:20:18.155990,-371
2021-09-24 15:20:18.156003,-325
2021-09-24 15:20:18.156010,-272
2021-09-24 15:20:18.156016,-199
2021-09-24 15:20:18.156023,-104
2021-09-24 15:20:18.156029,-26
2021-09-24 15:20:18.156036,43
2021-09-24 15:20:18.156042,119
2021-09-24 15:20:18.156049,153
2021-09-24 15:20:18.156055,153
2021-09-24 15:20:18.156062,162
2021-09-24 15:20:18.156068,184
2021-09-24 15:20:18.156075,184
2021-09-24 15:20:18.156081,165
2021-09-24 15:20:18.156088,155
2021-09-24 15:20:18.156094,157
2021-09-24 15:20:18.156101,150
2021-09-24 15:20:18.156107,148
2021-09-24 15:20:18.156114,174
2021-09-24 15:20:18.156120,194
2021-09-24 15:20:18.156127,184
2021-09-24 15:20:18.156133,170
2021-09-24 15:20:18.156140,157
2021-09-24 15:20:18.156147,145
2021-09-24 15:20:18.380141,143
2021-09-24 15:20:18.380162,145
2021-09-24 15:20:18.380170,126
2021-09-24 15:20:18.380177,97
2021-09-24 15:20:18.380184,85
2021-09-24 15:20:18.380190,82
2021-09-24 15:20:18.380196,82
2021-09-24 15:20:18.380203,85
2021-09-24 15:20:18.380209,80
2021-09-24 15:20:18.380216,58
2021-09-24 15:20:18.380222,29
2021-09-24 15:20:18.380229,24
2021-09-24 15:20:18.380235,34
2021-09-24 15:20:18.380242,43
2021-09-24 15:20:18.380248,51
2021-09-24 15:20:18.380255,38
2021-09-24 15:20:18.380261,19
2021-09-24 15:20:18.380267,26
2021-09-24 15:20:18.380274,48
2021-09-24 15:20:18.380280,60
2021-09-24 15:20:18.380287,75
2021-09-24 15:20:18.380293,89
2021-09-24 15:20:18.380299,87
2021-09-24 15:20:18.380306,77
2021-09-24 15:20:18.380317,43
2021-09-24 15:20:18.380324,7
2021-09-24 15:20:18.380330,4
2021-09-24 15:20:18.380337,21
2021-09-24 15:20:18.380343,36
2021-09-24 15:20:18.380350,53
2021-09-24 15:20:18.606202,60
2021-09-24 15:20:18.606232,53
2021-09-24 15:20:18.606244,48
2021-09-24 15:20:18.606254,48
2021-09-24 15:20:18.606264,53
2021-09-24 15:20:18.606274,68
2021-09-24 15:20:18.606284,60
2021-09-24 15:20:18.606295,19
2021-09-24 15:20:18.606305,-51
2021-09-24 15:20:18.606315,-199
2021-09-24 15:20:18.606325,-425
2021-09-24 15:20:18.606335,-531
2021-09-24 15:20:18.606345,-313
2021-09-24 15:20:18.606355,252
2021-09-24 15:20:18.606365,721
2021-09-24 15:20:18.606375,522
2021-09-24 15:20:18.606385,94
2021-09-24 15:20:18.606395,41
2021-09-24 15:20:18.606438,31
2021-09-24 15:20:18.606449,-92
2021-09-24 15:20:18.606459,-102
2021-09-24 15:20:18.606468,-70
2021-09-24 15:20:18.606481,-94
2021-09-24 15:20:18.606491,-114
2021-09-24 15:20:18.606501,-126
2021-09-24 15:20:18.606511,-133
2021-09-24 15:20:18.606521,-131
2021-09-24 15:20:18.606531,-138
2021-09-24 15:20:18.606540,-153
2021-09-24 15:20:18.606550,-177
2021-09-24 15:20:18.831717,-204
2021-09-24 15:20:18.831749,-223
2021-09-24 15:20:18.831761,-250
2021-09-24 15:20:18.831772,-291
2021-09-24 15:20:18.831782,-310
2021-09-24 15:20:18.831792,-323
2021-09-24 15:20:18.831802,-347
2021-09-24 15:20:18.831812,-371
2021-09-24 15:20:18.831822,-378
2021-09-24 15:20:18.831832,-378
2021-09-24 15:20:18.831842,-352
2021-09-24 15:20:18.831852,-286
2021-09-24 15:20:18.831862,-196
2021-09-24 15:20:18.831872,-106
2021-09-24 15:20:18.831882,-14
2021-09-24 15:20:18.831892,87
2021-09-24 15:20:18.831902,187
2021-09-24 15:20:18.831912,233
2021-09-24 15:20:18.831922,230
2021-09-24 15:20:18.831932,240
2021-09-24 15:20:18.831942,259
2021-09-24 15:20:18.831952,245
2021-09-24 15:20:18.831962,221
2021-09-24 15:20:18.831972,221
2021-09-24 15:20:18.831988,225
2021-09-24 15:20:18.831998,208
2021-09-24 15:20:18.832008,191
2021-09-24 15:20:18.832018,194
2021-09-24 15:20:18.832028,206
2021-09-24 15:20:18.832038,213
2021-09-24 15:20:19.146607,211
2021-09-24 15:20:19.146630,187
2021-09-24 15:20:19.146638,162
2021-09-24 15:20:19.146645,153
2021-09-24 15:20:19.146651,140
2021-09-24 15:20:19.146658,128
2021-09-24 15:20:19.146665,116
2021-09-24 15:20:19.146671,97
2021-09-24 15:20:19.146678,77
2021-09-24 15:20:19.146684,80
2021-09-24 15:20:19.146691,82
2021-09-24 15:20:19.146697,75
2021-09-24 15:20:19.146704,77
2021-09-24 15:20:19.146711,104
2021-09-24 15:20:19.146717,109
2021-09-24 15:20:19.146724,77
2021-09-24 15:20:19.146730,58
2021-09-24 15:20:19.146737,65
2021-09-24 15:20:19.146744,65
2021-09-24 15:20:19.146750,53
2021-09-24 15:20:19.146757,55
2021-09-24 15:20:19.146764,65
2021-09-24 15:20:19.146770,51
2021-09-24 15:20:19.146777,24
2021-09-24 15:20:19.146783,7
2021-09-24 15:20:19.146790,0
2021-09-24 15:20:19.146797,-7
2021-09-24 15:20:19.146803,-2
2021-09-24 15:20:19.146810,21
2021-09-24 15:20:19.146817,38
2021-09-24 15:20:19.281640,34
2021-09-24 15:20:19.281670,21
2021-09-24 15:20:19.281682,14
2021-09-24 15:20:19.281692,21
2021-09-24 15:20:19.281702,31
2021-09-24 15:20:19.281712,26
2021-09-24 15:20:19.281722,14
2021-09-24 15:20:19.281732,12
2021-09-24 15:20:19.281742,19
2021-09-24 15:20:19.281752,7
2021-09-24 15:20:19.281762,-43
2021-09-24 15:20:19.281772,-143
2021-09-24 15:20:19.281782,-366
2021-09-24 15:20:19.281792,-604
2021-09-24 15:20:19.281802,-519
2021-09-24 15:20:19.281812,0
2021-09-24 15:20:19.281822,587
2021-09-24 15:20:19.281831,670
2021-09-24 15:20:19.281841,272
2021-09-24 15:20:19.281851,38
2021-09-24 15:20:19.281861,36
2021-09-24 15:20:19.281871,-75
2021-09-24 15:20:19.281881,-165
2021-09-24 15:20:19.281891,-128
2021-09-24 15:20:19.281901,-126
2021-09-24 15:20:19.281911,-157
2021-09-24 15:20:19.281921,-126
2021-09-24 15:20:19.281930,-111
2021-09-24 15:20:19.281940,-148
2021-09-24 15:20:19.281950,-174
2021-09-24 15:20:19.506520,-189
2021-09-24 15:20:19.506542,-206
2021-09-24 15:20:19.506550,-225
2021-09-24 15:20:19.506557,-255
2021-09-24 15:20:19.506564,-284
2021-09-24 15:20:19.506571,-313
2021-09-24 15:20:19.506578,-352
2021-09-24 15:20:19.506585,-381
2021-09-24 15:20:19.506592,-398
2021-09-24 15:20:19.506599,-415
2021-09-24 15:20:19.506609,-432
2021-09-24 15:20:19.506616,-437
2021-09-24 15:20:19.506622,-420
2021-09-24 15:20:19.506629,-374
2021-09-24 15:20:19.506636,-315
2021-09-24 15:20:19.506643,-240
2021-09-24 15:20:19.506650,-136
2021-09-24 15:20:19.506657,-38
2021-09-24 15:20:19.506664,24
2021-09-24 15:20:19.506670,80
2021-09-24 15:20:19.506677,128
2021-09-24 15:20:19.506684,160
2021-09-24 15:20:19.506691,182
2021-09-24 15:20:19.506698,191
2021-09-24 15:20:19.506704,196
2021-09-24 15:20:19.506711,201
2021-09-24 15:20:19.506718,199
2021-09-24 15:20:19.506725,187
2021-09-24 15:20:19.506731,162
2021-09-24 15:20:19.506738,138
2021-09-24 15:20:19.731277,131
2021-09-24 15:20:19.731299,119
2021-09-24 15:20:19.731307,111
2021-09-24 15:20:19.731314,116
2021-09-24 15:20:19.731320,114
2021-09-24 15:20:19.731327,80
2021-09-24 15:20:19.731334,58
2021-09-24 15:20:19.731340,65
2021-09-24 15:20:19.731347,63
2021-09-24 15:20:19.731353,51
2021-09-24 15:20:19.731360,43
2021-09-24 15:20:19.731366,31
2021-09-24 15:20:19.731373,36
2021-09-24 15:20:19.731379,38
2021-09-24 15:20:19.731386,26
2021-09-24 15:20:19.731393,34
2021-09-24 15:20:19.731399,48
2021-09-24 15:20:19.731406,51
2021-09-24 15:20:19.731412,55
2021-09-24 15:20:19.731419,70
2021-09-24 15:20:19.731425,70
2021-09-24 15:20:19.731432,43
2021-09-24 15:20:19.731438,31
2021-09-24 15:20:19.731445,46
2021-09-24 15:20:19.731452,51
2021-09-24 15:20:19.731463,29
2021-09-24 15:20:19.731470,17
2021-09-24 15:20:19.731476,9
2021-09-24 15:20:19.731483,4
2021-09-24 15:20:19.731489,19
2021-09-24 15:20:19.956575,46
2021-09-24 15:20:19.956598,55
2021-09-24 15:20:19.956606,48
2021-09-24 15:20:19.956613,48
2021-09-24 15:20:19.956619,46
2021-09-24 15:20:19.956626,29
2021-09-24 15:20:19.956632,31
2021-09-24 15:20:19.956639,43
2021-09-24 15:20:19.956645,43
2021-09-24 15:20:19.956651,41
2021-09-24 15:20:19.956658,14
2021-09-24 15:20:19.956665,-60
2021-09-24 15:20:19.956671,-259
2021-09-24 15:20:19.956678,-556
2021-09-24 15:20:19.956684,-624
2021-09-24 15:20:19.956690,-225
2021-09-24 15:20:19.956697,429
2021-09-24 15:20:19.956703,687
2021-09-24 15:20:19.956710,344
2021-09-24 15:20:19.956716,82
2021-09-24 15:20:19.956723,106
2021-09-24 15:20:19.956730,21
2021-09-24 15:20:19.956736,-106
2021-09-24 15:20:19.956743,-92
2021-09-24 15:20:19.956749,-65
2021-09-24 15:20:19.956755,-106
2021-09-24 15:20:19.956762,-138
2021-09-24 15:20:19.956768,-150
2021-09-24 15:20:19.956775,-172
2021-09-24 15:20:19.956781,-199
2021-09-24 15:20:20.181567,-213
2021-09-24 15:20:20.181591,-216
2021-09-24 15:20:20.181599,-228
2021-09-24 15:20:20.181606,-264
2021-09-24 15:20:20.181612,-303
2021-09-24 15:20:20.181619,-323
2021-09-24 15:20:20.181625,-344
2021-09-24 15:20:20.181632,-381
2021-09-24 15:20:20.181638,-400
2021-09-24 15:20:20.181645,-425
2021-09-24 15:20:20.181651,-454
2021-09-24 15:20:20.181657,-454
2021-09-24 15:20:20.181664,-422
2021-09-24 15:20:20.181670,-381
2021-09-24 15:20:20.181677,-315
2021-09-24 15:20:20.181683,-242
2021-09-24 15:20:20.181695,-165
2021-09-24 15:20:20.181702,-70
2021-09-24 15:20:20.181708,7
2021-09-24 15:20:20.181715,60
2021-09-24 15:20:20.181721,121
2021-09-24 15:20:20.181728,167
2021-09-24 15:20:20.181734,177
2021-09-24 15:20:20.181741,179
2021-09-24 15:20:20.181747,194
2021-09-24 15:20:20.181754,206
2021-09-24 15:20:20.181760,191
2021-09-24 15:20:20.181767,174
2021-09-24 15:20:20.181773,167
2021-09-24 15:20:20.181780,157
2021-09-24 15:20:20.495355,153
2021-09-24 15:20:20.495385,160
2021-09-24 15:20:20.495397,162
2021-09-24 15:20:20.495407,131
2021-09-24 15:20:20.495418,94
2021-09-24 15:20:20.495428,92
2021-09-24 15:20:20.495438,89
2021-09-24 15:20:20.495448,70
2021-09-24 15:20:20.495458,60
2021-09-24 15:20:20.495468,70
2021-09-24 15:20:20.495478,75
2021-09-24 15:20:20.495488,68
2021-09-24 15:20:20.495498,58
2021-09-24 15:20:20.495508,55
2021-09-24 15:20:20.495518,58
2021-09-24 15:20:20.495529,51
2021-09-24 15:20:20.495539,53
2021-09-24 15:20:20.495549,72
2021-09-24 15:20:20.495559,77
2021-09-24 15:20:20.495569,65
2021-09-24 15:20:20.495579,53
2021-09-24 15:20:20.495589,36
2021-09-24 15:20:20.495599,26
2021-09-24 15:20:20.495609,24
2021-09-24 15:20:20.495619,19
2021-09-24 15:20:20.495629,17
2021-09-24 15:20:20.495639,24
2021-09-24 15:20:20.495649,34
2021-09-24 15:20:20.495659,43
2021-09-24 15:20:20.495669,55
2021-09-24 15:20:20.676629,75
2021-09-24 15:20:20.676652,75
2021-09-24 15:20:20.676660,51
2021-09-24 15:20:20.676667,41
2021-09-24 15:20:20.676674,53
2021-09-24 15:20:20.676680,51
2021-09-24 15:20:20.676687,24
2021-09-24 15:20:20.676693,-12
2021-09-24 15:20:20.676700,-72
2021-09-24 15:20:20.676706,-250
2021-09-24 15:20:20.676713,-502
2021-09-24 15:20:20.676719,-548
2021-09-24 15:20:20.676726,-165
2021-09-24 15:20:20.676736,483
2021-09-24 15:20:20.676742,721
2021-09-24 15:20:20.676749,325
2021-09-24 15:20:20.676755,48
2021-09-24 15:20:20.676762,106
2021-09-24 15:20:20.676768,36
2021-09-24 15:20:20.676775,-119
2021-09-24 15:20:20.676781,-140
2021-09-24 15:20:20.676788,-119
2021-09-24 15:20:20.676794,-145
2021-09-24 15:20:20.676801,-162
2021-09-24 15:20:20.676807,-148
2021-09-24 15:20:20.676814,-153
2021-09-24 15:20:20.676820,-187
2021-09-24 15:20:20.676827,-213
2021-09-24 15:20:20.676833,-223
2021-09-24 15:20:20.676840,-238
2021-09-24 15:20:20.901583,-264
2021-09-24 15:20:20.901607,-291
2021-09-24 15:20:20.901614,-320
2021-09-24 15:20:20.901621,-342
2021-09-24 15:20:20.901627,-357
2021-09-24 15:20:20.901634,-374
2021-09-24 15:20:20.901640,-408
2021-09-24 15:20:20.901647,-432
2021-09-24 15:20:20.901653,-437
2021-09-24 15:20:20.901660,-425
2021-09-24 15:20:20.901667,-393
2021-09-24 15:20:20.901673,-335
2021-09-24 15:20:20.901680,-252
2021-09-24 15:20:20.901686,-157
2021-09-24 15:20:20.901693,-75
2021-09-24 15:20:20.901700,7
2021-09-24 15:20:20.901706,72
2021-09-24 15:20:20.901713,109
2021-09-24 15:20:20.901720,136
2021-09-24 15:20:20.901726,160
2021-09-24 15:20:20.901733,160
2021-09-24 15:20:20.901739,140
2021-09-24 15:20:20.901746,133
2021-09-24 15:20:20.901753,131
2021-09-24 15:20:20.901759,123
2021-09-24 15:20:20.901766,119
2021-09-24 15:20:20.901772,126
2021-09-24 15:20:20.901779,136
2021-09-24 15:20:20.901786,123
2021-09-24 15:20:20.901792,92
2021-09-24 15:20:21.126075,75
2021-09-24 15:20:21.126097,68
2021-09-24 15:20:21.126105,58
2021-09-24 15:20:21.126113,53
2021-09-24 15:20:21.126120,48
2021-09-24 15:20:21.126127,43
2021-09-24 15:20:21.126134,41
2021-09-24 15:20:21.126141,31
2021-09-24 15:20:21.126147,31
2021-09-24 15:20:21.126154,51
2021-09-24 15:20:21.126161,70
2021-09-24 15:20:21.126168,60
2021-09-24 15:20:21.126175,43
2021-09-24 15:20:21.126182,41
2021-09-24 15:20:21.126188,41
2021-09-24 15:20:21.126195,46
2021-09-24 15:20:21.126202,65
2021-09-24 15:20:21.126214,89
2021-09-24 15:20:21.126221,70
2021-09-24 15:20:21.126228,24
2021-09-24 15:20:21.126235,14
2021-09-24 15:20:21.126242,21
2021-09-24 15:20:21.126249,19
2021-09-24 15:20:21.126256,36
2021-09-24 15:20:21.126262,51
2021-09-24 15:20:21.126269,34
2021-09-24 15:20:21.126276,26
2021-09-24 15:20:21.126283,38
2021-09-24 15:20:21.126290,41
2021-09-24 15:20:21.126297,31
2021-09-24 15:20:21.351660,29
2021-09-24 15:20:21.351684,31
2021-09-24 15:20:21.351692,19
2021-09-24 15:20:21.351698,-21
2021-09-24 15:20:21.351705,-89
2021-09-24 15:20:21.351712,-245
2021-09-24 15:20:21.351718,-485
2021-09-24 15:20:21.351725,-578
2021-09-24 15:20:21.351731,-293
2021-09-24 15:20:21.351738,298
2021-09-24 15:20:21.351744,685
2021-09-24 15:20:21.351751,454
2021-09-24 15:20:21.351757,109
2021-09-24 15:20:21.351764,94
2021-09-24 15:20:21.351771,70
2021-09-24 15:20:21.351777,-75
2021-09-24 15:20:21.351784,-109
2021-09-24 15:20:21.351791,-82
2021-09-24 15:20:21.351797,-109
2021-09-24 15:20:21.351804,-131
2021-09-24 15:20:21.351810,-119
2021-09-24 15:20:21.351817,-123
2021-09-24 15:20:21.351823,-150
2021-09-24 15:20:21.351830,-170
2021-09-24 15:20:21.351836,-182
2021-09-24 15:20:21.351843,-206
2021-09-24 15:20:21.351850,-228
2021-09-24 15:20:21.351856,-247
2021-09-24 15:20:21.351863,-274
2021-09-24 15:20:21.351869,-298
2021-09-24 15:20:21.576639,-320
2021-09-24 15:20:21.576663,-361
2021-09-24 15:20:21.576671,-395
2021-09-24 15:20:21.576678,-405
2021-09-24 15:20:21.576684,-400
2021-09-24 15:20:21.576691,-376
2021-09-24 15:20:21.576697,-332
2021-09-24 15:20:21.576704,-267
2021-09-24 15:20:21.576710,-174
2021-09-24 15:20:21.576717,-75
2021-09-24 15:20:21.576723,21
2021-09-24 15:20:21.576730,109
2021-09-24 15:20:21.576736,157
2021-09-24 15:20:21.576743,191
2021-09-24 15:20:21.576749,228
2021-09-24 15:20:21.576756,242
2021-09-24 15:20:21.576762,245
2021-09-24 15:20:21.576769,247
2021-09-24 15:20:21.576775,247
2021-09-24 15:20:21.576782,259
2021-09-24 15:20:21.576789,269
2021-09-24 15:20:21.576795,255
2021-09-24 15:20:21.576802,228
2021-09-24 15:20:21.576808,199
2021-09-24 15:20:21.576814,179
2021-09-24 15:20:21.576821,165
2021-09-24 15:20:21.576827,148
2021-09-24 15:20:21.576834,131
2021-09-24 15:20:21.576840,121
2021-09-24 15:20:21.576850,119
2021-09-24 15:20:21.801582,123
2021-09-24 15:20:21.801605,128
2021-09-24 15:20:21.801613,111
2021-09-24 15:20:21.801620,89
2021-09-24 15:20:21.801627,85
2021-09-24 15:20:21.801633,80
2021-09-24 15:20:21.801640,70
2021-09-24 15:20:21.801647,75
2021-09-24 15:20:21.801653,80
2021-09-24 15:20:21.801660,80
2021-09-24 15:20:21.801666,85
2021-09-24 15:20:21.801673,94
2021-09-24 15:20:21.801680,97
2021-09-24 15:20:21.801686,89
2021-09-24 15:20:21.801693,68
2021-09-24 15:20:21.801699,48
2021-09-24 15:20:21.801706,48
2021-09-24 15:20:21.801712,55
2021-09-24 15:20:21.801719,63
2021-09-24 15:20:21.801725,80
2021-09-24 15:20:21.801732,89
2021-09-24 15:20:21.801738,82
2021-09-24 15:20:21.801745,75
2021-09-24 15:20:21.801751,80
2021-09-24 15:20:21.801758,82
2021-09-24 15:20:21.801764,80
2021-09-24 15:20:21.801771,75
2021-09-24 15:20:21.801777,72
2021-09-24 15:20:21.801784,51
2021-09-24 15:20:21.801790,-19
2021-09-24 15:20:22.026473,-140
2021-09-24 15:20:22.026493,-376
2021-09-24 15:20:22.026501,-619
2021-09-24 15:20:22.026508,-546
2021-09-24 15:20:22.026514,-60
2021-09-24 15:20:22.026521,529
2021-09-24 15:20:22.026528,636
2021-09-24 15:20:22.026534,252
2021-09-24 15:20:22.026541,68
2021-09-24 15:20:22.026547,109
2021-09-24 15:20:22.026554,-14
2021-09-24 15:20:22.026560,-133
2021-09-24 15:20:22.026567,-97
2021-09-24 15:20:22.026573,-97
2021-09-24 15:20:22.026580,-143
2021-09-24 15:20:22.026587,-145
2021-09-24 15:20:22.026593,-148
2021-09-24 15:20:22.026600,-160
2021-09-24 15:20:22.026606,-153
2021-09-24 15:20:22.026613,-160
2021-09-24 15:20:22.026620,-179
2021-09-24 15:20:22.026626,-189
2021-09-24 15:20:22.026633,-211
2021-09-24 15:20:22.026639,-240
2021-09-24 15:20:22.026646,-262
2021-09-24 15:20:22.026652,-276
2021-09-24 15:20:22.026659,-310
2021-09-24 15:20:22.026666,-359
2021-09-24 15:20:22.026672,-395
2021-09-24 15:20:22.026679,-415
2021-09-24 15:20:22.296672,-422
2021-09-24 15:20:22.296696,-405
2021-09-24 15:20:22.296704,-361
2021-09-24 15:20:22.296710,-293
2021-09-24 15:20:22.296717,-201
2021-09-24 15:20:22.296723,-89
2021-09-24 15:20:22.296730,21
2021-09-24 15:20:22.296737,116
2021-09-24 15:20:22.296743,177
2021-09-24 15:20:22.296750,206
2021-09-24 15:20:22.296756,218
2021-09-24 15:20:22.296763,213
2021-09-24 15:20:22.296769,211
2021-09-24 15:20:22.296776,211
2021-09-24 15:20:22.296782,211
2021-09-24 15:20:22.296789,204
2021-09-24 15:20:22.296795,196
2021-09-24 15:20:22.296802,191
2021-09-24 15:20:22.296808,184
2021-09-24 15:20:22.296815,184
2021-09-24 15:20:22.296829,189
2021-09-24 15:20:22.296836,174
2021-09-24 15:20:22.296842,145
2021-09-24 15:20:22.296849,133
2021-09-24 15:20:22.296855,138
2021-09-24 15:20:22.296862,133
2021-09-24 15:20:22.296868,114
2021-09-24 15:20:22.296875,89
2021-09-24 15:20:22.296881,82
2021-09-24 15:20:22.296888,85
2021-09-24 15:20:22.655345,80
2021-09-24 15:20:22.655369,70
2021-09-24 15:20:22.655378,72
2021-09-24 15:20:22.655385,70
2021-09-24 15:20:22.655392,68
2021-09-24 15:20:22.655431,75
2021-09-24 15:20:22.655438,72
2021-09-24 15:20:22.655445,58
2021-09-24 15:20:22.655452,48
2021-09-24 15:20:22.655459,36
2021-09-24 15:20:22.655466,29
2021-09-24 15:20:22.655473,14
2021-09-24 15:20:22.655480,-7
2021-09-24 15:20:22.655487,-2
2021-09-24 15:20:22.655494,19
2021-09-24 15:20:22.655500,26
2021-09-24 15:20:22.655507,36
2021-09-24 15:20:22.655514,31
2021-09-24 15:20:22.655521,19
2021-09-24 15:20:22.655528,21
2021-09-24 15:20:22.655535,24
2021-09-24 15:20:22.655542,19
2021-09-24 15:20:22.655549,29
2021-09-24 15:20:22.655556,43
2021-09-24 15:20:22.655563,19
2021-09-24 15:20:22.655570,-41
2021-09-24 15:20:22.655577,-196
2021-09-24 15:20:22.655584,-480
2021-09-24 15:20:22.655591,-614
2021-09-24 15:20:22.655598,-332
2021-09-24 15:20:22.836121,264
2021-09-24 15:20:22.836145,719
2021-09-24 15:20:22.836153,556
2021-09-24 15:20:22.836161,160
2021-09-24 15:20:22.836168,89
2021-09-24 15:20:22.836174,72
2021-09-24 15:20:22.836181,-75
2021-09-24 15:20:22.836188,-111
2021-09-24 15:20:22.836195,-77
2021-09-24 15:20:22.836202,-109
2021-09-24 15:20:22.836209,-140
2021-09-24 15:20:22.836216,-138
2021-09-24 15:20:22.836222,-140
2021-09-24 15:20:22.836229,-160
2021-09-24 15:20:22.836236,-182
2021-09-24 15:20:22.836243,-196
2021-09-24 15:20:22.836250,-213
2021-09-24 15:20:22.836257,-230
2021-09-24 15:20:22.836264,-250
2021-09-24 15:20:22.836271,-286
2021-09-24 15:20:22.836278,-332
2021-09-24 15:20:22.836284,-364
2021-09-24 15:20:22.836291,-391
2021-09-24 15:20:22.836298,-422
2021-09-24 15:20:22.836305,-434
2021-09-24 15:20:22.836312,-427
2021-09-24 15:20:22.836319,-432
2021-09-24 15:20:22.836325,-420
2021-09-24 15:20:22.836332,-364
2021-09-24 15:20:22.836339,-274
2021-09-24 15:20:22.971672,-167
2021-09-24 15:20:22.971696,-60
2021-09-24 15:20:22.971704,29
2021-09-24 15:20:22.971711,99
2021-09-24 15:20:22.971717,155
2021-09-24 15:20:22.971724,189
2021-09-24 15:20:22.971730,206
2021-09-24 15:20:22.971737,216
2021-09-24 15:20:22.971743,221
2021-09-24 15:20:22.971750,228
2021-09-24 15:20:22.971756,221
2021-09-24 15:20:22.971763,191
2021-09-24 15:20:22.971769,165
2021-09-24 15:20:22.971775,148
2021-09-24 15:20:22.971782,131
2021-09-24 15:20:22.971788,121
2021-09-24 15:20:22.971795,119
2021-09-24 15:20:22.971801,119
2021-09-24 15:20:22.971808,123
2021-09-24 15:20:22.971814,128
2021-09-24 15:20:22.971821,123
2021-09-24 15:20:22.971827,121
2021-09-24 15:20:22.971839,128
2021-09-24 15:20:22.971846,131
2021-09-24 15:20:22.971853,119
2021-09-24 15:20:22.971859,97
2021-09-24 15:20:22.971866,87
2021-09-24 15:20:22.971872,89
2021-09-24 15:20:22.971878,85
2021-09-24 15:20:22.971885,75
2021-09-24 15:20:23.241643,70
2021-09-24 15:20:23.241667,72
2021-09-24 15:20:23.241674,72
2021-09-24 15:20:23.241681,75
2021-09-24 15:20:23.241688,72
2021-09-24 15:20:23.241695,65
2021-09-24 15:20:23.241701,53
2021-09-24 15:20:23.241708,38
2021-09-24 15:20:23.241714,48
2021-09-24 15:20:23.241721,63
2021-09-24 15:20:23.241727,36
2021-09-24 15:20:23.241734,12
2021-09-24 15:20:23.241740,36
2021-09-24 15:20:23.241747,43
2021-09-24 15:20:23.241753,26
2021-09-24 15:20:23.241759,26
2021-09-24 15:20:23.241766,34
2021-09-24 15:20:23.241772,31
2021-09-24 15:20:23.241779,29
2021-09-24 15:20:23.241785,34
2021-09-24 15:20:23.241792,36
2021-09-24 15:20:23.241798,12
2021-09-24 15:20:23.241805,-41
2021-09-24 15:20:23.241811,-145
2021-09-24 15:20:23.241818,-374
2021-09-24 15:20:23.241824,-595
2021-09-24 15:20:23.241831,-507
2021-09-24 15:20:23.241837,-51
2021-09-24 15:20:23.241844,510
2021-09-24 15:20:23.241850,653
2021-09-24 15:20:23.421446,286
2021-09-24 15:20:23.421466,65
2021-09-24 15:20:23.421474,99
2021-09-24 15:20:23.421481,9
2021-09-24 15:20:23.421487,-109
2021-09-24 15:20:23.421494,-104
2021-09-24 15:20:23.421500,-111
2021-09-24 15:20:23.421507,-148
2021-09-24 15:20:23.421513,-153
2021-09-24 15:20:23.421520,-153
2021-09-24 15:20:23.421526,-170
2021-09-24 15:20:23.421533,-174
2021-09-24 15:20:23.421539,-182
2021-09-24 15:20:23.421546,-208
2021-09-24 15:20:23.421552,-230
2021-09-24 15:20:23.421559,-238
2021-09-24 15:20:23.421566,-247
2021-09-24 15:20:23.421572,-274
2021-09-24 15:20:23.421579,-320
2021-09-24 15:20:23.421585,-352
2021-09-24 15:20:23.421592,-376
2021-09-24 15:20:23.421598,-393
2021-09-24 15:20:23.421605,-393
2021-09-24 15:20:23.421611,-378
2021-09-24 15:20:23.421618,-366
2021-09-24 15:20:23.421624,-342
2021-09-24 15:20:23.421631,-279
2021-09-24 15:20:23.421637,-184
2021-09-24 15:20:23.421644,-80
2021-09-24 15:20:23.421650,17
2021-09-24 15:20:23.646699,106
2021-09-24 15:20:23.646722,177
2021-09-24 15:20:23.646730,201
2021-09-24 15:20:23.646737,218
2021-09-24 15:20:23.646743,242
2021-09-24 15:20:23.646750,240
2021-09-24 15:20:23.646756,235
2021-09-24 15:20:23.646763,245
2021-09-24 15:20:23.646770,233
2021-09-24 15:20:23.646776,213
2021-09-24 15:20:23.646783,206
2021-09-24 15:20:23.646789,196
2021-09-24 15:20:23.646796,189
2021-09-24 15:20:23.646803,177
2021-09-24 15:20:23.646809,148
2021-09-24 15:20:23.646816,126
2021-09-24 15:20:23.646822,116
2021-09-24 15:20:23.646829,109
2021-09-24 15:20:23.646836,97
2021-09-24 15:20:23.646842,80
2021-09-24 15:20:23.646849,70
2021-09-24 15:20:23.646855,65
2021-09-24 15:20:23.646862,58
2021-09-24 15:20:23.646869,60
2021-09-24 15:20:23.646875,65
2021-09-24 15:20:23.646882,63
2021-09-24 15:20:23.646888,60
2021-09-24 15:20:23.646895,68
2021-09-24 15:20:23.646902,65
2021-09-24 15:20:23.646908,51
2021-09-24 15:20:23.871680,48
2021-09-24 15:20:23.871704,58
2021-09-24 15:20:23.871711,51
2021-09-24 15:20:23.871718,34
2021-09-24 15:20:23.871725,31
2021-09-24 15:20:23.871736,36
2021-09-24 15:20:23.871742,31
2021-09-24 15:20:23.871749,29
2021-09-24 15:20:23.871755,26
2021-09-24 15:20:23.871762,19
2021-09-24 15:20:23.871769,9
2021-09-24 15:20:23.871775,2
2021-09-24 15:20:23.871782,-2
2021-09-24 15:20:23.871789,19
2021-09-24 15:20:23.871795,58
2021-09-24 15:20:23.871802,60
2021-09-24 15:20:23.871808,29
2021-09-24 15:20:23.871815,24
2021-09-24 15:20:23.871821,36
2021-09-24 15:20:23.871828,34
2021-09-24 15:20:23.871835,31
2021-09-24 15:20:23.871841,31
2021-09-24 15:20:23.871848,24
2021-09-24 15:20:23.871854,24
2021-09-24 15:20:23.871861,17
2021-09-24 15:20:23.871867,-19
2021-09-24 15:20:23.871874,-143
2021-09-24 15:20:23.871881,-408
2021-09-24 15:20:23.871887,-607
2021-09-24 15:20:23.871894,-454
2021-09-24 15:20:24.096699,53
2021-09-24 15:20:24.096724,607
2021-09-24 15:20:24.096732,670
2021-09-24 15:20:24.096739,274
2021-09-24 15:20:24.096746,97
2021-09-24 15:20:24.096753,131
2021-09-24 15:20:24.096759,4
2021-09-24 15:20:24.096766,-85
2021-09-24 15:20:24.096773,-43
2021-09-24 15:20:24.096780,-65
2021-09-24 15:20:24.096787,-123
2021-09-24 15:20:24.096794,-106
2021-09-24 15:20:24.096801,-94
2021-09-24 15:20:24.096808,-128
2021-09-24 15:20:24.096814,-150
2021-09-24 15:20:24.096821,-157
2021-09-24 15:20:24.096828,-179
2021-09-24 15:20:24.096835,-199
2021-09-24 15:20:24.096842,-223
2021-09-24 15:20:24.096849,-259
2021-09-24 15:20:24.096856,-303
2021-09-24 15:20:24.096863,-342
2021-09-24 15:20:24.096870,-383
2021-09-24 15:20:24.096876,-412
2021-09-24 15:20:24.096883,-429
2021-09-24 15:20:24.096890,-444
2021-09-24 15:20:24.096897,-446
2021-09-24 15:20:24.096904,-434
2021-09-24 15:20:24.096911,-395
2021-09-24 15:20:24.096918,-318
2021-09-24 15:20:24.411404,-216
2021-09-24 15:20:24.411427,-109
2021-09-24 15:20:24.411434,-9
2021-09-24 15:20:24.411441,80
2021-09-24 15:20:24.411448,157
2021-09-24 15:20:24.411454,208
2021-09-24 15:20:24.411461,225
2021-09-24 15:20:24.411467,225
2021-09-24 15:20:24.411474,223
2021-09-24 15:20:24.411480,218
2021-09-24 15:20:24.411487,208
2021-09-24 15:20:24.411493,199
2021-09-24 15:20:24.411500,211
2021-09-24 15:20:24.411506,228
2021-09-24 15:20:24.411513,221
2021-09-24 15:20:24.411519,199
2021-09-24 15:20:24.411526,182
2021-09-24 15:20:24.411532,162
2021-09-24 15:20:24.411539,145
2021-09-24 15:20:24.411545,136
2021-09-24 15:20:24.411552,131
2021-09-24 15:20:24.411558,136
2021-09-24 15:20:24.411565,138
2021-09-24 15:20:24.411571,133
2021-09-24 15:20:24.411577,128
2021-09-24 15:20:24.411584,126
2021-09-24 15:20:24.411591,116
2021-09-24 15:20:24.411597,97
2021-09-24 15:20:24.411604,72
2021-09-24 15:20:24.411610,65
2021-09-24 15:20:24.680277,70
2021-09-24 15:20:24.680298,68
2021-09-24 15:20:24.680306,63
2021-09-24 15:20:24.680313,58
2021-09-24 15:20:24.680319,60
2021-09-24 15:20:24.680326,63
2021-09-24 15:20:24.680332,65
2021-09-24 15:20:24.680339,72
2021-09-24 15:20:24.680345,85
2021-09-24 15:20:24.680351,99
2021-09-24 15:20:24.680358,106
2021-09-24 15:20:24.680364,111
2021-09-24 15:20:24.680371,114
2021-09-24 15:20:24.680377,106
2021-09-24 15:20:24.680384,92
2021-09-24 15:20:24.680390,80
2021-09-24 15:20:24.680396,77
2021-09-24 15:20:24.680403,63
2021-09-24 15:20:24.680409,29
2021-09-24 15:20:24.680416,14
2021-09-24 15:20:24.680422,24
2021-09-24 15:20:24.680429,43
2021-09-24 15:20:24.680435,51
2021-09-24 15:20:24.680441,38
2021-09-24 15:20:24.680448,34
2021-09-24 15:20:24.680455,43
2021-09-24 15:20:24.680461,43
2021-09-24 15:20:24.680467,26
2021-09-24 15:20:24.680474,19
2021-09-24 15:20:24.680480,31
2021-09-24 15:20:24.816652,24
2021-09-24 15:20:24.816676,-24
2021-09-24 15:20:24.816684,-133
2021-09-24 15:20:24.816691,-359
2021-09-24 15:20:24.816698,-592
2021-09-24 15:20:24.816704,-544
2021-09-24 15:20:24.816711,-116
2021-09-24 15:20:24.816717,471
2021-09-24 15:20:24.816724,668
2021-09-24 15:20:24.816731,320
2021-09-24 15:20:24.816737,77
2021-09-24 15:20:24.816744,102
2021-09-24 15:20:24.816750,19
2021-09-24 15:20:24.816757,-87
2021-09-24 15:20:24.816763,-68
2021-09-24 15:20:24.816770,-68
2021-09-24 15:20:24.816777,-116
2021-09-24 15:20:24.816783,-128
2021-09-24 15:20:24.816790,-128
2021-09-24 15:20:24.816796,-153
2021-09-24 15:20:24.816803,-172
2021-09-24 15:20:24.816809,-179
2021-09-24 15:20:24.816816,-194
2021-09-24 15:20:24.816823,-213
2021-09-24 15:20:24.816829,-230
2021-09-24 15:20:24.816836,-228
2021-09-24 15:20:24.816842,-225
2021-09-24 15:20:24.816849,-252
2021-09-24 15:20:24.816855,-291
2021-09-24 15:20:24.816862,-325
2021-09-24 15:20:25.086129,-376
2021-09-24 15:20:25.086154,-427
2021-09-24 15:20:25.086162,-429
2021-09-24 15:20:25.086169,-412
2021-09-24 15:20:25.086176,-393
2021-09-24 15:20:25.086183,-335
2021-09-24 15:20:25.086190,-247
2021-09-24 15:20:25.086197,-148
2021-09-24 15:20:25.086204,-17
2021-09-24 15:20:25.086210,106
2021-09-24 15:20:25.086218,177
2021-09-24 15:20:25.086224,225
2021-09-24 15:20:25.086231,259
2021-09-24 15:20:25.086238,274
2021-09-24 15:20:25.086245,284
2021-09-24 15:20:25.086252,286
2021-09-24 15:20:25.086259,284
2021-09-24 15:20:25.086266,279
2021-09-24 15:20:25.086273,272
2021-09-24 15:20:25.086280,259
2021-09-24 15:20:25.086287,252
2021-09-24 15:20:25.086294,242
2021-09-24 15:20:25.086300,225
2021-09-24 15:20:25.086307,208
2021-09-24 15:20:25.086314,194
2021-09-24 15:20:25.086321,167
2021-09-24 15:20:25.086328,148
2021-09-24 15:20:25.086335,138
2021-09-24 15:20:25.086342,133
2021-09-24 15:20:25.086349,131
2021-09-24 15:20:25.266644,126
2021-09-24 15:20:25.266668,111
2021-09-24 15:20:25.266675,97
2021-09-24 15:20:25.266682,89
2021-09-24 15:20:25.266689,94
2021-09-24 15:20:25.266696,97
2021-09-24 15:20:25.266702,87
2021-09-24 15:20:25.266709,87
2021-09-24 15:20:25.266715,94
2021-09-24 15:20:25.266722,94
2021-09-24 15:20:25.266729,92
2021-09-24 15:20:25.266735,87
2021-09-24 15:20:25.266742,75
2021-09-24 15:20:25.266748,75
2021-09-24 15:20:25.266755,82
2021-09-24 15:20:25.266761,80
2021-09-24 15:20:25.266768,77
2021-09-24 15:20:25.266774,77
2021-09-24 15:20:25.266781,75
2021-09-24 15:20:25.266787,80
2021-09-24 15:20:25.266794,89
2021-09-24 15:20:25.266800,85
2021-09-24 15:20:25.266807,77
2021-09-24 15:20:25.266814,72
2021-09-24 15:20:25.266820,63
2021-09-24 15:20:25.266827,53
2021-09-24 15:20:25.266833,43
2021-09-24 15:20:25.266840,31
2021-09-24 15:20:25.266846,38
2021-09-24 15:20:25.266853,55
2021-09-24 15:20:25.536483,60
2021-09-24 15:20:25.536505,58
2021-09-24 15:20:25.536512,60
2021-09-24 15:20:25.536519,58
2021-09-24 15:20:25.536526,60
2021-09-24 15:20:25.536533,60
2021-09-24 15:20:25.536539,53
2021-09-24 15:20:25.536546,48
2021-09-24 15:20:25.536552,43
2021-09-24 15:20:25.536559,14
2021-09-24 15:20:25.536565,-60
2021-09-24 15:20:25.536572,-255
2021-09-24 15:20:25.536579,-539
2021-09-24 15:20:25.536585,-636
2021-09-24 15:20:25.536592,-325
2021-09-24 15:20:25.536598,286
2021-09-24 15:20:25.536605,704
2021-09-24 15:20:25.536611,500
2021-09-24 15:20:25.536618,145
2021-09-24 15:20:25.536624,114
2021-09-24 15:20:25.536631,77
2021-09-24 15:20:25.536637,-65
2021-09-24 15:20:25.536644,-87
2021-09-24 15:20:25.536651,-51
2021-09-24 15:20:25.536657,-82
2021-09-24 15:20:25.536664,-111
2021-09-24 15:20:25.536670,-104
2021-09-24 15:20:25.536677,-114
2021-09-24 15:20:25.536683,-138
2021-09-24 15:20:25.536690,-153
2021-09-24 15:20:25.806839,-172
2021-09-24 15:20:25.806871,-194
2021-09-24 15:20:25.806884,-216
2021-09-24 15:20:25.806894,-247
2021-09-24 15:20:25.806904,-284
2021-09-24 15:20:25.806914,-320
2021-09-24 15:20:25.806924,-349
2021-09-24 15:20:25.806934,-378
2021-09-24 15:20:25.806944,-425
2021-09-24 15:20:25.806954,-451
2021-09-24 15:20:25.806964,-446
2021-09-24 15:20:25.806983,-439
2021-09-24 15:20:25.806993,-420
2021-09-24 15:20:25.807003,-369
2021-09-24 15:20:25.807013,-293
2021-09-24 15:20:25.807023,-196
2021-09-24 15:20:25.807033,-99
2021-09-24 15:20:25.807043,-12
2021-09-24 15:20:25.807053,68
2021-09-24 15:20:25.807063,126
2021-09-24 15:20:25.807073,157
2021-09-24 15:20:25.807083,172
2021-09-24 15:20:25.807093,184
2021-09-24 15:20:25.807103,191
2021-09-24 15:20:25.807113,191
2021-09-24 15:20:25.807123,191
2021-09-24 15:20:25.807133,182
2021-09-24 15:20:25.807143,170
2021-09-24 15:20:25.807153,160
2021-09-24 15:20:25.807163,157
2021-09-24 15:20:25.986152,155
2021-09-24 15:20:25.986173,143
2021-09-24 15:20:25.986181,121
2021-09-24 15:20:25.986188,102
2021-09-24 15:20:25.986194,87
2021-09-24 15:20:25.986201,82
2021-09-24 15:20:25.986207,80
2021-09-24 15:20:25.986214,75
2021-09-24 15:20:25.986221,70
2021-09-24 15:20:25.986227,65
2021-09-24 15:20:25.986234,63
2021-09-24 15:20:25.986240,65
2021-09-24 15:20:25.986247,70
2021-09-24 15:20:25.986253,72
2021-09-24 15:20:25.986260,75
2021-09-24 15:20:25.986266,70
2021-09-24 15:20:25.986273,70
2021-09-24 15:20:25.986279,72
2021-09-24 15:20:25.986286,80
2021-09-24 15:20:25.986292,85
2021-09-24 15:20:25.986299,85
2021-09-24 15:20:25.986305,77
2021-09-24 15:20:25.986312,68
2021-09-24 15:20:25.986319,72
2021-09-24 15:20:25.986325,77
2021-09-24 15:20:25.986332,75
2021-09-24 15:20:25.986338,70
2021-09-24 15:20:25.986345,68
2021-09-24 15:20:25.986352,68
2021-09-24 15:20:25.986358,68
2021-09-24 15:20:26.256043,68
2021-09-24 15:20:26.256067,68
2021-09-24 15:20:26.256075,65
2021-09-24 15:20:26.256082,65
2021-09-24 15:20:26.256088,55
2021-09-24 15:20:26.256095,29
2021-09-24 15:20:26.256101,7
2021-09-24 15:20:26.256108,4
2021-09-24 15:20:26.256115,-4
2021-09-24 15:20:26.256121,-26
2021-09-24 15:20:26.256128,-34
2021-09-24 15:20:26.256134,-24
2021-09-24 15:20:26.256141,-2
2021-09-24 15:20:26.256147,17
2021-09-24 15:20:26.256154,24
2021-09-24 15:20:26.256161,31
2021-09-24 15:20:26.256167,43
2021-09-24 15:20:26.256174,46
2021-09-24 15:20:26.256180,46
2021-09-24 15:20:26.256187,51
2021-09-24 15:20:26.256194,55
2021-09-24 15:20:26.256200,46
2021-09-24 15:20:26.256207,21
2021-09-24 15:20:26.256213,-29
2021-09-24 15:20:26.256220,-172
2021-09-24 15:20:26.256226,-456
2021-09-24 15:20:26.256233,-660
2021-09-24 15:20:26.256240,-485
2021-09-24 15:20:26.256246,70
2021-09-24 15:20:26.256253,607
2021-09-24 15:20:26.481366,563
2021-09-24 15:20:26.481389,162
2021-09-24 15:20:26.481396,46
2021-09-24 15:20:26.481403,58
2021-09-24 15:20:26.481410,-80
2021-09-24 15:20:26.481417,-150
2021-09-24 15:20:26.481423,-119
2021-09-24 15:20:26.481429,-140
2021-09-24 15:20:26.481436,-179
2021-09-24 15:20:26.481442,-187
2021-09-24 15:20:26.481449,-194
2021-09-24 15:20:26.481455,-206
2021-09-24 15:20:26.481462,-213
2021-09-24 15:20:26.481468,-233
2021-09-24 15:20:26.481475,-269
2021-09-24 15:20:26.481481,-296
2021-09-24 15:20:26.481488,-313
2021-09-24 15:20:26.481494,-340
2021-09-24 15:20:26.481501,-364
2021-09-24 15:20:26.481507,-391
2021-09-24 15:20:26.481514,-427
2021-09-24 15:20:26.481520,-444
2021-09-24 15:20:26.481526,-437
2021-09-24 15:20:26.481533,-437
2021-09-24 15:20:26.481539,-442
2021-09-24 15:20:26.481546,-432
2021-09-24 15:20:26.481552,-405
2021-09-24 15:20:26.481559,-361
2021-09-24 15:20:26.481565,-284
2021-09-24 15:20:26.481572,-174
2021-09-24 15:20:26.705223,-70
2021-09-24 15:20:26.705247,7
2021-09-24 15:20:26.705254,70
2021-09-24 15:20:26.705261,119
2021-09-24 15:20:26.705268,162
2021-09-24 15:20:26.705275,189
2021-09-24 15:20:26.705281,189
2021-09-24 15:20:26.705288,189
2021-09-24 15:20:26.705294,191
2021-09-24 15:20:26.705301,184
2021-09-24 15:20:26.705307,172
2021-09-24 15:20:26.705314,172
2021-09-24 15:20:26.705320,170
2021-09-24 15:20:26.705327,148
2021-09-24 15:20:26.705333,133
2021-09-24 15:20:26.705340,133
2021-09-24 15:20:26.705346,128
2021-09-24 15:20:26.705353,109
2021-09-24 15:20:26.705359,89
2021-09-24 15:20:26.705366,70
2021-09-24 15:20:26.705372,63
2021-09-24 15:20:26.705379,63
2021-09-24 15:20:26.705385,63
2021-09-24 15:20:26.705392,65
2021-09-24 15:20:26.705398,68
2021-09-24 15:20:26.705405,65
2021-09-24 15:20:26.705411,72
2021-09-24 15:20:26.705418,75
2021-09-24 15:20:26.705424,72
2021-09-24 15:20:26.705431,80
2021-09-24 15:20:26.931375,80
2021-09-24 15:20:26.931398,68
2021-09-24 15:20:26.931406,63
2021-09-24 15:20:26.931412,70
2021-09-24 15:20:26.931419,72
2021-09-24 15:20:26.931426,65
2021-09-24 15:20:26.931432,60
2021-09-24 15:20:26.931439,58
2021-09-24 15:20:26.931449,63
2021-09-24 15:20:26.931456,75
2021-09-24 15:20:26.931462,85
2021-09-24 15:20:26.931469,82
2021-09-24 15:20:26.931475,80
2021-09-24 15:20:26.931482,85
2021-09-24 15:20:26.931489,82
2021-09-24 15:20:26.931495,63
2021-09-24 15:20:26.931502,46
2021-09-24 15:20:26.931508,41
2021-09-24 15:20:26.931515,48
2021-09-24 15:20:26.931522,63
2021-09-24 15:20:26.931528,72
2021-09-24 15:20:26.931535,77
2021-09-24 15:20:26.931541,75
2021-09-24 15:20:26.931548,75
2021-09-24 15:20:26.931555,72
2021-09-24 15:20:26.931561,68
2021-09-24 15:20:26.931568,63
2021-09-24 15:20:26.931575,63
2021-09-24 15:20:26.931581,55
2021-09-24 15:20:26.931588,21
2021-09-24 15:20:27.111813,-48
2021-09-24 15:20:27.111838,-194
2021-09-24 15:20:27.111846,-444
2021-09-24 15:20:27.111853,-578
2021-09-24 15:20:27.111860,-327
2021-09-24 15:20:27.111867,267
2021-09-24 15:20:27.111873,702
2021-09-24 15:20:27.111880,510
2021-09-24 15:20:27.111887,138
2021-09-24 15:20:27.111894,106
2021-09-24 15:20:27.111901,94
2021-09-24 15:20:27.111907,-60
2021-09-24 15:20:27.111914,-114
2021-09-24 15:20:27.111921,-87
2021-09-24 15:20:27.111928,-116
2021-09-24 15:20:27.111934,-148
2021-09-24 15:20:27.111941,-143
2021-09-24 15:20:27.111948,-153
2021-09-24 15:20:27.111955,-182
2021-09-24 15:20:27.111961,-194
2021-09-24 15:20:27.111968,-199
2021-09-24 15:20:27.111975,-208
2021-09-24 15:20:27.111982,-225
2021-09-24 15:20:27.111988,-262
2021-09-24 15:20:27.111995,-310
2021-09-24 15:20:27.112002,-337
2021-09-24 15:20:27.112009,-361
2021-09-24 15:20:27.112016,-395
2021-09-24 15:20:27.112022,-422
2021-09-24 15:20:27.112029,-437
2021-09-24 15:20:27.425772,-446
2021-09-24 15:20:27.425795,-437
2021-09-24 15:20:27.425803,-410
2021-09-24 15:20:27.425810,-369
2021-09-24 15:20:27.425816,-303
2021-09-24 15:20:27.425823,-208
2021-09-24 15:20:27.425829,-106
2021-09-24 15:20:27.425836,-4
2021-09-24 15:20:27.425842,72
2021-09-24 15:20:27.425849,126
2021-09-24 15:20:27.425855,165
2021-09-24 15:20:27.425862,187
2021-09-24 15:20:27.425868,194
2021-09-24 15:20:27.425874,206
2021-09-24 15:20:27.425881,204
2021-09-24 15:20:27.425887,189
2021-09-24 15:20:27.425894,184
2021-09-24 15:20:27.425900,184
2021-09-24 15:20:27.425907,182
2021-09-24 15:20:27.425913,174
2021-09-24 15:20:27.425919,160
2021-09-24 15:20:27.425926,145
2021-09-24 15:20:27.425932,136
2021-09-24 15:20:27.425939,126
2021-09-24 15:20:27.425945,119
2021-09-24 15:20:27.425952,116
2021-09-24 15:20:27.425958,109
2021-09-24 15:20:27.425965,102
2021-09-24 15:20:27.425971,97
2021-09-24 15:20:27.425977,92
2021-09-24 15:20:27.561632,92
2021-09-24 15:20:27.561655,99
2021-09-24 15:20:27.561663,99
2021-09-24 15:20:27.561670,92
2021-09-24 15:20:27.561677,92
2021-09-24 15:20:27.561684,92
2021-09-24 15:20:27.561690,92
2021-09-24 15:20:27.561697,94
2021-09-24 15:20:27.561704,97
2021-09-24 15:20:27.561711,92
2021-09-24 15:20:27.561718,87
2021-09-24 15:20:27.561724,82
2021-09-24 15:20:27.561731,89
2021-09-24 15:20:27.561738,99
2021-09-24 15:20:27.561745,104
2021-09-24 15:20:27.561752,104
2021-09-24 15:20:27.561758,102
2021-09-24 15:20:27.561765,99
2021-09-24 15:20:27.561772,104
2021-09-24 15:20:27.561779,106
2021-09-24 15:20:27.561785,99
2021-09-24 15:20:27.561792,94
2021-09-24 15:20:27.561799,92
2021-09-24 15:20:27.561806,75
2021-09-24 15:20:27.561812,55
2021-09-24 15:20:27.561819,51
2021-09-24 15:20:27.561826,60
2021-09-24 15:20:27.561833,75
2021-09-24 15:20:27.561839,75
2021-09-24 15:20:27.561846,60
2021-09-24 15:20:27.786721,51
2021-09-24 15:20:27.786743,53
2021-09-24 15:20:27.786751,51
2021-09-24 15:20:27.786758,43
2021-09-24 15:20:27.786765,34
2021-09-24 15:20:27.786771,31
2021-09-24 15:20:27.786777,21
2021-09-24 15:20:27.786784,-17
2021-09-24 15:20:27.786790,-104
2021-09-24 15:20:27.786797,-318
2021-09-24 15:20:27.786803,-568
2021-09-24 15:20:27.786810,-561
2021-09-24 15:20:27.786816,-172
2021-09-24 15:20:27.786823,422
2021-09-24 15:20:27.786829,687
2021-09-24 15:20:27.786836,357
2021-09-24 15:20:27.786842,60
2021-09-24 15:20:27.786848,85
2021-09-24 15:20:27.786855,14
2021-09-24 15:20:27.786861,-128
2021-09-24 15:20:27.786868,-123
2021-09-24 15:20:27.786874,-102
2021-09-24 15:20:27.786881,-140
2021-09-24 15:20:27.786887,-150
2021-09-24 15:20:27.786894,-143
2021-09-24 15:20:27.786900,-157
2021-09-24 15:20:27.786906,-172
2021-09-24 15:20:27.786913,-182
2021-09-24 15:20:27.786919,-199
2021-09-24 15:20:27.786926,-213
2021-09-24 15:20:28.146395,-225
2021-09-24 15:20:28.146417,-242
2021-09-24 15:20:28.146425,-274
2021-09-24 15:20:28.146432,-323
2021-09-24 15:20:28.146439,-366
2021-09-24 15:20:28.146445,-391
2021-09-24 15:20:28.146452,-415
2021-09-24 15:20:28.146458,-432
2021-09-24 15:20:28.146465,-437
2021-09-24 15:20:28.146471,-437
2021-09-24 15:20:28.146478,-415
2021-09-24 15:20:28.146484,-361
2021-09-24 15:20:28.146491,-274
2021-09-24 15:20:28.146497,-170
2021-09-24 15:20:28.146504,-63
2021-09-24 15:20:28.146510,26
2021-09-24 15:20:28.146517,99
2021-09-24 15:20:28.146523,157
2021-09-24 15:20:28.146530,194
2021-09-24 15:20:28.146536,216
2021-09-24 15:20:28.146543,225
2021-09-24 15:20:28.146549,223
2021-09-24 15:20:28.146556,223
2021-09-24 15:20:28.146565,225
2021-09-24 15:20:28.146572,221
2021-09-24 15:20:28.146578,213
2021-09-24 15:20:28.146585,204
2021-09-24 15:20:28.146591,191
2021-09-24 15:20:28.146598,182
2021-09-24 15:20:28.146604,177
2021-09-24 15:20:28.281816,167
2021-09-24 15:20:28.281839,160
2021-09-24 15:20:28.281847,150
2021-09-24 15:20:28.281854,138
2021-09-24 15:20:28.281860,126
2021-09-24 15:20:28.281867,114
2021-09-24 15:20:28.281874,109
2021-09-24 15:20:28.281880,109
2021-09-24 15:20:28.281887,102
2021-09-24 15:20:28.281893,94
2021-09-24 15:20:28.281900,102
2021-09-24 15:20:28.281906,106
2021-09-24 15:20:28.281913,104
2021-09-24 15:20:28.281919,102
2021-09-24 15:20:28.281926,99
2021-09-24 15:20:28.281932,94
2021-09-24 15:20:28.281939,94
2021-09-24 15:20:28.281945,97
2021-09-24 15:20:28.281952,99
2021-09-24 15:20:28.281958,97
2021-09-24 15:20:28.281965,92
2021-09-24 15:20:28.281972,92
2021-09-24 15:20:28.281978,87
2021-09-24 15:20:28.281985,77
2021-09-24 15:20:28.281991,77
2021-09-24 15:20:28.281998,82
2021-09-24 15:20:28.282004,70
2021-09-24 15:20:28.282011,63
2021-09-24 15:20:28.282017,70
2021-09-24 15:20:28.282024,75
2021-09-24 15:20:28.506751,72
2021-09-24 15:20:28.506775,70
2021-09-24 15:20:28.506783,63
2021-09-24 15:20:28.506790,51
2021-09-24 15:20:28.506796,46
2021-09-24 15:20:28.506803,38
2021-09-24 15:20:28.506809,36
2021-09-24 15:20:28.506816,48
2021-09-24 15:20:28.506822,60
2021-09-24 15:20:28.506829,68
2021-09-24 15:20:28.506835,75
2021-09-24 15:20:28.506842,80
2021-09-24 15:20:28.506848,82
2021-09-24 15:20:28.506855,87
2021-09-24 15:20:28.506862,82
2021-09-24 15:20:28.506868,75
2021-09-24 15:20:28.506875,77
2021-09-24 15:20:28.506882,80
2021-09-24 15:20:28.506888,80
2021-09-24 15:20:28.506895,75
2021-09-24 15:20:28.506901,63
2021-09-24 15:20:28.506908,53
2021-09-24 15:20:28.506914,31
2021-09-24 15:20:28.506921,-29
2021-09-24 15:20:28.506927,-184
2021-09-24 15:20:28.506934,-459
2021-09-24 15:20:28.506941,-617
2021-09-24 15:20:28.506947,-422
2021-09-24 15:20:28.506954,92
2021-09-24 15:20:28.506960,614
2021-09-24 15:20:28.775419,614
2021-09-24 15:20:28.775450,221
2021-09-24 15:20:28.775462,80
2021-09-24 15:20:28.775472,97
2021-09-24 15:20:28.775482,-24
2021-09-24 15:20:28.775492,-85
2021-09-24 15:20:28.775502,-53
2021-09-24 15:20:28.775512,-82
2021-09-24 15:20:28.775521,-121
2021-09-24 15:20:28.775531,-116
2021-09-24 15:20:28.775541,-123
2021-09-24 15:20:28.775551,-155
2021-09-24 15:20:28.775561,-170
2021-09-24 15:20:28.775571,-170
2021-09-24 15:20:28.775581,-174
2021-09-24 15:20:28.775591,-194
2021-09-24 15:20:28.775601,-228
2021-09-24 15:20:28.775610,-255
2021-09-24 15:20:28.775620,-281
2021-09-24 15:20:28.775630,-318
2021-09-24 15:20:28.775640,-349
2021-09-24 15:20:28.775650,-378
2021-09-24 15:20:28.775660,-408
2021-09-24 15:20:28.775670,-420
2021-09-24 15:20:28.775680,-417
2021-09-24 15:20:28.775690,-408
2021-09-24 15:20:28.775700,-383
2021-09-24 15:20:28.775709,-332
2021-09-24 15:20:28.775719,-242
2021-09-24 15:20:28.775729,-136
2021-09-24 15:20:28.956697,-36
2021-09-24 15:20:28.956720,51
2021-09-24 15:20:28.956728,121
2021-09-24 15:20:28.956735,174
2021-09-24 15:20:28.956742,211
2021-09-24 15:20:28.956748,230
2021-09-24 15:20:28.956755,228
2021-09-24 15:20:28.956761,225
2021-09-24 15:20:28.956767,228
2021-09-24 15:20:28.956774,225
2021-09-24 15:20:28.956780,223
2021-09-24 15:20:28.956787,216
2021-09-24 15:20:28.956793,199
2021-09-24 15:20:28.956800,184
2021-09-24 15:20:28.956806,184
2021-09-24 15:20:28.956813,184
2021-09-24 15:20:28.956819,174
2021-09-24 15:20:28.956826,153
2021-09-24 15:20:28.956832,138
2021-09-24 15:20:28.956839,136
2021-09-24 15:20:28.956845,131
2021-09-24 15:20:28.956852,126
2021-09-24 15:20:28.956858,121
2021-09-24 15:20:28.956865,114
2021-09-24 15:20:28.956871,109
2021-09-24 15:20:28.956877,111
2021-09-24 15:20:28.956884,111
2021-09-24 15:20:28.956890,106
2021-09-24 15:20:28.956897,106
2021-09-24 15:20:28.956903,102
2021-09-24 15:20:29.181774,94
2021-09-24 15:20:29.181805,99
2021-09-24 15:20:29.181817,104
2021-09-24 15:20:29.181827,102
2021-09-24 15:20:29.181837,99
2021-09-24 15:20:29.181847,94
2021-09-24 15:20:29.181857,85
2021-09-24 15:20:29.181867,85
2021-09-24 15:20:29.181876,92
2021-09-24 15:20:29.181886,89
2021-09-24 15:20:29.181896,82
2021-09-24 15:20:29.181906,80
2021-09-24 15:20:29.181916,82
2021-09-24 15:20:29.181925,85
2021-09-24 15:20:29.181935,75
2021-09-24 15:20:29.181945,63
2021-09-24 15:20:29.181955,53
2021-09-24 15:20:29.181965,43
2021-09-24 15:20:29.181975,48
2021-09-24 15:20:29.181984,53
2021-09-24 15:20:29.181994,46
2021-09-24 15:20:29.182004,34
2021-09-24 15:20:29.182014,19
2021-09-24 15:20:29.182024,9
2021-09-24 15:20:29.182034,12
2021-09-24 15:20:29.182044,9
2021-09-24 15:20:29.182054,14
2021-09-24 15:20:29.182063,31
2021-09-24 15:20:29.182073,41
2021-09-24 15:20:29.182083,34
2021-09-24 15:20:29.406128,29
2021-09-24 15:20:29.406148,24
2021-09-24 15:20:29.406156,21
2021-09-24 15:20:29.406162,24
2021-09-24 15:20:29.406169,21
2021-09-24 15:20:29.406176,12
2021-09-24 15:20:29.406182,2
2021-09-24 15:20:29.406188,-12
2021-09-24 15:20:29.406195,-65
2021-09-24 15:20:29.406201,-218
2021-09-24 15:20:29.406208,-493
2021-09-24 15:20:29.406214,-655
2021-09-24 15:20:29.406220,-449
2021-09-24 15:20:29.406227,82
2021-09-24 15:20:29.406233,590
2021-09-24 15:20:29.406240,570
2021-09-24 15:20:29.406246,184
2021-09-24 15:20:29.406252,53
2021-09-24 15:20:29.406259,68
2021-09-24 15:20:29.406265,-53
2021-09-24 15:20:29.406272,-119
2021-09-24 15:20:29.406278,-82
2021-09-24 15:20:29.406285,-102
2021-09-24 15:20:29.406291,-138
2021-09-24 15:20:29.406298,-128
2021-09-24 15:20:29.406304,-126
2021-09-24 15:20:29.406310,-150
2021-09-24 15:20:29.406317,-167
2021-09-24 15:20:29.406323,-174
2021-09-24 15:20:29.406332,-189
2021-09-24 15:20:29.675745,-208
2021-09-24 15:20:29.675767,-223
2021-09-24 15:20:29.675774,-252
2021-09-24 15:20:29.675780,-293
2021-09-24 15:20:29.675786,-335
2021-09-24 15:20:29.675792,-364
2021-09-24 15:20:29.675797,-391
2021-09-24 15:20:29.675803,-412
2021-09-24 15:20:29.675809,-427
2021-09-24 15:20:29.675814,-432
2021-09-24 15:20:29.675820,-427
2021-09-24 15:20:29.675826,-393
2021-09-24 15:20:29.675831,-320
2021-09-24 15:20:29.675837,-221
2021-09-24 15:20:29.675843,-111
2021-09-24 15:20:29.675849,-24
2021-09-24 15:20:29.675855,51
2021-09-24 15:20:29.675860,126
2021-09-24 15:20:29.675866,184
2021-09-24 15:20:29.675871,216
2021-09-24 15:20:29.675877,235
2021-09-24 15:20:29.675883,242
2021-09-24 15:20:29.675888,238
2021-09-24 15:20:29.675894,225
2021-09-24 15:20:29.675900,221
2021-09-24 15:20:29.675905,223
2021-09-24 15:20:29.675911,218
2021-09-24 15:20:29.675917,199
2021-09-24 15:20:29.675923,189
2021-09-24 15:20:29.675928,189
2021-09-24 15:20:29.901449,179
2021-09-24 15:20:29.901472,167
2021-09-24 15:20:29.901481,155
2021-09-24 15:20:29.901488,140
2021-09-24 15:20:29.901495,126
2021-09-24 15:20:29.901501,116
2021-09-24 15:20:29.901508,114
2021-09-24 15:20:29.901515,109
2021-09-24 15:20:29.901522,99
2021-09-24 15:20:29.901529,89
2021-09-24 15:20:29.901535,87
2021-09-24 15:20:29.901542,94
2021-09-24 15:20:29.901549,97
2021-09-24 15:20:29.901556,97
2021-09-24 15:20:29.901562,99
2021-09-24 15:20:29.901569,94
2021-09-24 15:20:29.901576,89
2021-09-24 15:20:29.901583,94
2021-09-24 15:20:29.901589,104
2021-09-24 15:20:29.901596,111
2021-09-24 15:20:29.901603,109
2021-09-24 15:20:29.901610,94
2021-09-24 15:20:29.901616,94
2021-09-24 15:20:29.901623,102
2021-09-24 15:20:29.901630,99
2021-09-24 15:20:29.901637,92
2021-09-24 15:20:29.901643,87
2021-09-24 15:20:29.901650,77
2021-09-24 15:20:29.901657,77
2021-09-24 15:20:29.901664,80
2021-09-24 15:20:30.126178,72
2021-09-24 15:20:30.126199,72
2021-09-24 15:20:30.126207,77
2021-09-24 15:20:30.126213,75
2021-09-24 15:20:30.126220,72
2021-09-24 15:20:30.126226,70
2021-09-24 15:20:30.126232,53
2021-09-24 15:20:30.126238,34
2021-09-24 15:20:30.126244,19
2021-09-24 15:20:30.126251,7
2021-09-24 15:20:30.126257,2
2021-09-24 15:20:30.126263,17
2021-09-24 15:20:30.126269,36
2021-09-24 15:20:30.126275,41
2021-09-24 15:20:30.126282,26
2021-09-24 15:20:30.126288,17
2021-09-24 15:20:30.126294,19
2021-09-24 15:20:30.126300,24
2021-09-24 15:20:30.126306,24
2021-09-24 15:20:30.126313,24
2021-09-24 15:20:30.126319,17
2021-09-24 15:20:30.126325,0
2021-09-24 15:20:30.126331,-31
2021-09-24 15:20:30.126338,-123
2021-09-24 15:20:30.126344,-364
2021-09-24 15:20:30.126350,-619
2021-09-24 15:20:30.126356,-575
2021-09-24 15:20:30.126363,-128
2021-09-24 15:20:30.126369,471
2021-09-24 15:20:30.126375,658
2021-09-24 15:20:30.351748,310
2021-09-24 15:20:30.351769,63
2021-09-24 15:20:30.351777,77
2021-09-24 15:20:30.351784,-7
2021-09-24 15:20:30.351791,-114
2021-09-24 15:20:30.351797,-94
2021-09-24 15:20:30.351804,-85
2021-09-24 15:20:30.351810,-128
2021-09-24 15:20:30.351817,-150
2021-09-24 15:20:30.351823,-153
2021-09-24 15:20:30.351830,-167
2021-09-24 15:20:30.351836,-179
2021-09-24 15:20:30.351843,-187
2021-09-24 15:20:30.351849,-204
2021-09-24 15:20:30.351856,-228
2021-09-24 15:20:30.351862,-247
2021-09-24 15:20:30.351869,-264
2021-09-24 15:20:30.351875,-291
2021-09-24 15:20:30.351882,-323
2021-09-24 15:20:30.351888,-352
2021-09-24 15:20:30.351895,-386
2021-09-24 15:20:30.351901,-412
2021-09-24 15:20:30.351908,-425
2021-09-24 15:20:30.351914,-429
2021-09-24 15:20:30.351921,-425
2021-09-24 15:20:30.351927,-403
2021-09-24 15:20:30.351934,-357
2021-09-24 15:20:30.351940,-281
2021-09-24 15:20:30.351947,-177
2021-09-24 15:20:30.351954,-65
2021-09-24 15:20:30.621785,55
2021-09-24 15:20:30.621824,157
2021-09-24 15:20:30.621842,191
2021-09-24 15:20:30.621850,194
2021-09-24 15:20:30.621857,225
2021-09-24 15:20:30.621863,252
2021-09-24 15:20:30.621870,242
2021-09-24 15:20:30.621876,230
2021-09-24 15:20:30.621883,225
2021-09-24 15:20:30.621889,225
2021-09-24 15:20:30.621896,221
2021-09-24 15:20:30.621903,206
2021-09-24 15:20:30.621914,189
2021-09-24 15:20:30.621921,172
2021-09-24 15:20:30.621928,155
2021-09-24 15:20:30.621934,143
2021-09-24 15:20:30.621941,136
2021-09-24 15:20:30.621947,126
2021-09-24 15:20:30.621954,111
2021-09-24 15:20:30.621960,99
2021-09-24 15:20:30.621967,92
2021-09-24 15:20:30.621973,87
2021-09-24 15:20:30.621980,85
2021-09-24 15:20:30.621986,85
2021-09-24 15:20:30.621993,80
2021-09-24 15:20:30.621999,77
2021-09-24 15:20:30.622006,82
2021-09-24 15:20:30.622013,82
2021-09-24 15:20:30.622019,82
2021-09-24 15:20:30.622026,85
2021-09-24 15:20:30.845532,87
2021-09-24 15:20:30.845556,92
2021-09-24 15:20:30.845564,89
2021-09-24 15:20:30.845571,75
2021-09-24 15:20:30.845577,58
2021-09-24 15:20:30.845583,55
2021-09-24 15:20:30.845590,58
2021-09-24 15:20:30.845596,53
2021-09-24 15:20:30.845603,55
2021-09-24 15:20:30.845609,58
2021-09-24 15:20:30.845616,53
2021-09-24 15:20:30.845622,58
2021-09-24 15:20:30.845629,80
2021-09-24 15:20:30.845636,111
2021-09-24 15:20:30.845642,121
2021-09-24 15:20:30.845649,106
2021-09-24 15:20:30.845655,104
2021-09-24 15:20:30.845662,111
2021-09-24 15:20:30.845668,99
2021-09-24 15:20:30.845675,72
2021-09-24 15:20:30.845681,43
2021-09-24 15:20:30.845688,4
2021-09-24 15:20:30.845694,-17
2021-09-24 15:20:30.845701,-14
2021-09-24 15:20:30.845707,-19
2021-09-24 15:20:30.845714,-12
2021-09-24 15:20:30.845720,31
2021-09-24 15:20:30.845727,75
2021-09-24 15:20:30.845733,77
2021-09-24 15:20:30.845739,75
2021-09-24 15:20:31.116745,82
2021-09-24 15:20:31.116768,85
2021-09-24 15:20:31.116777,82
2021-09-24 15:20:31.116784,80
2021-09-24 15:20:31.116791,80
2021-09-24 15:20:31.116797,72
2021-09-24 15:20:31.116804,41
2021-09-24 15:20:31.116811,-17
2021-09-24 15:20:31.116818,-172
2021-09-24 15:20:31.116825,-446
2021-09-24 15:20:31.116832,-590
2021-09-24 15:20:31.116839,-361
2021-09-24 15:20:31.116846,208
2021-09-24 15:20:31.116853,687
2021-09-24 15:20:31.116859,563
2021-09-24 15:20:31.116866,172
2021-09-24 15:20:31.116873,92
2021-09-24 15:20:31.116880,87
2021-09-24 15:20:31.116887,-46
2021-09-24 15:20:31.116894,-87
2021-09-24 15:20:31.116901,-48
2021-09-24 15:20:31.116907,-75
2021-09-24 15:20:31.116914,-104
2021-09-24 15:20:31.116921,-102
2021-09-24 15:20:31.116928,-116
2021-09-24 15:20:31.116935,-133
2021-09-24 15:20:31.116942,-136
2021-09-24 15:20:31.116949,-150
2021-09-24 15:20:31.116965,-172
2021-09-24 15:20:31.116973,-191
2021-09-24 15:20:31.251748,-213
2021-09-24 15:20:31.251771,-240
2021-09-24 15:20:31.251779,-269
2021-09-24 15:20:31.251786,-308
2021-09-24 15:20:31.251792,-342
2021-09-24 15:20:31.251799,-361
2021-09-24 15:20:31.251806,-371
2021-09-24 15:20:31.251812,-391
2021-09-24 15:20:31.251819,-412
2021-09-24 15:20:31.251825,-417
2021-09-24 15:20:31.251832,-391
2021-09-24 15:20:31.251838,-330
2021-09-24 15:20:31.251845,-235
2021-09-24 15:20:31.251851,-128
2021-09-24 15:20:31.251858,-31
2021-09-24 15:20:31.251864,51
2021-09-24 15:20:31.251871,123
2021-09-24 15:20:31.251877,172
2021-09-24 15:20:31.251884,199
2021-09-24 15:20:31.251890,223
2021-09-24 15:20:31.251897,233
2021-09-24 15:20:31.251903,230
2021-09-24 15:20:31.251910,225
2021-09-24 15:20:31.251916,216
2021-09-24 15:20:31.251923,211
2021-09-24 15:20:31.251929,206
2021-09-24 15:20:31.251936,201
2021-09-24 15:20:31.251942,189
2021-09-24 15:20:31.251949,174
2021-09-24 15:20:31.251955,165
2021-09-24 15:20:31.520844,160
2021-09-24 15:20:31.520864,155
2021-09-24 15:20:31.520872,143
2021-09-24 15:20:31.520879,131
2021-09-24 15:20:31.520886,116
2021-09-24 15:20:31.520892,104
2021-09-24 15:20:31.520899,104
2021-09-24 15:20:31.520905,116
2021-09-24 15:20:31.520912,119
2021-09-24 15:20:31.520918,99
2021-09-24 15:20:31.520925,77
2021-09-24 15:20:31.520931,75
2021-09-24 15:20:31.520938,82
2021-09-24 15:20:31.520944,82
2021-09-24 15:20:31.520951,80
2021-09-24 15:20:31.520957,77
2021-09-24 15:20:31.520963,80
2021-09-24 15:20:31.520970,87
2021-09-24 15:20:31.520976,85
2021-09-24 15:20:31.520983,75
2021-09-24 15:20:31.520989,68
2021-09-24 15:20:31.520996,70
2021-09-24 15:20:31.521002,68
2021-09-24 15:20:31.521008,68
2021-09-24 15:20:31.521015,68
2021-09-24 15:20:31.521021,65
2021-09-24 15:20:31.521028,60
2021-09-24 15:20:31.521034,53
2021-09-24 15:20:31.521041,43
2021-09-24 15:20:31.521047,41
2021-09-24 15:20:31.746820,41
2021-09-24 15:20:31.746851,43
2021-09-24 15:20:31.746863,41
2021-09-24 15:20:31.746873,31
2021-09-24 15:20:31.746883,19
2021-09-24 15:20:31.746893,26
2021-09-24 15:20:31.746903,41
2021-09-24 15:20:31.746914,38
2021-09-24 15:20:31.746924,19
2021-09-24 15:20:31.746934,-4
2021-09-24 15:20:31.746944,-17
2021-09-24 15:20:31.746954,0
2021-09-24 15:20:31.746964,12
2021-09-24 15:20:31.746974,17
2021-09-24 15:20:31.746985,21
2021-09-24 15:20:31.746995,17
2021-09-24 15:20:31.747005,24
2021-09-24 15:20:31.747015,38
2021-09-24 15:20:31.747025,36
2021-09-24 15:20:31.747035,34
2021-09-24 15:20:31.747045,38
2021-09-24 15:20:31.747055,34
2021-09-24 15:20:31.747065,24
2021-09-24 15:20:31.747075,29
2021-09-24 15:20:31.747085,26
2021-09-24 15:20:31.747095,-4
2021-09-24 15:20:31.747105,-82
2021-09-24 15:20:31.747116,-291
2021-09-24 15:20:31.747126,-575
2021-09-24 15:20:31.747136,-626
2021-09-24 15:20:31.971797,-272
2021-09-24 15:20:31.971817,340
2021-09-24 15:20:31.971826,677
2021-09-24 15:20:31.971833,408
2021-09-24 15:20:31.971839,94
2021-09-24 15:20:31.971846,94
2021-09-24 15:20:31.971852,46
2021-09-24 15:20:31.971859,-80
2021-09-24 15:20:31.971865,-77
2021-09-24 15:20:31.971871,-63
2021-09-24 15:20:31.971878,-109
2021-09-24 15:20:31.971884,-126
2021-09-24 15:20:31.971891,-119
2021-09-24 15:20:31.971897,-133
2021-09-24 15:20:31.971904,-162
2021-09-24 15:20:31.971910,-182
2021-09-24 15:20:31.971916,-187
2021-09-24 15:20:31.971923,-199
2021-09-24 15:20:31.971929,-223
2021-09-24 15:20:31.971935,-247
2021-09-24 15:20:31.971942,-272
2021-09-24 15:20:31.971948,-308
2021-09-24 15:20:31.971955,-342
2021-09-24 15:20:31.971961,-374
2021-09-24 15:20:31.971967,-405
2021-09-24 15:20:31.971974,-427
2021-09-24 15:20:31.971980,-439
2021-09-24 15:20:31.971987,-434
2021-09-24 15:20:31.971993,-410
2021-09-24 15:20:31.971999,-371
2021-09-24 15:20:32.196745,-313
2021-09-24 15:20:32.196769,-221
2021-09-24 15:20:32.196776,-119
2021-09-24 15:20:32.196783,-21
2021-09-24 15:20:32.196790,65
2021-09-24 15:20:32.196796,145
2021-09-24 15:20:32.196803,199
2021-09-24 15:20:32.196809,211
2021-09-24 15:20:32.196816,213
2021-09-24 15:20:32.196822,225
2021-09-24 15:20:32.196829,233
2021-09-24 15:20:32.196835,225
2021-09-24 15:20:32.196842,218
2021-09-24 15:20:32.196848,211
2021-09-24 15:20:32.196855,191
2021-09-24 15:20:32.196861,182
2021-09-24 15:20:32.196868,184
2021-09-24 15:20:32.196874,172
2021-09-24 15:20:32.196881,153
2021-09-24 15:20:32.196887,143
2021-09-24 15:20:32.196894,126
2021-09-24 15:20:32.196900,106
2021-09-24 15:20:32.196907,106
2021-09-24 15:20:32.196913,106
2021-09-24 15:20:32.196920,94
2021-09-24 15:20:32.196926,87
2021-09-24 15:20:32.196933,77
2021-09-24 15:20:32.196939,68
2021-09-24 15:20:32.196946,70
2021-09-24 15:20:32.196952,82
2021-09-24 15:20:32.421530,85
2021-09-24 15:20:32.421553,75
2021-09-24 15:20:32.421560,70
2021-09-24 15:20:32.421567,80
2021-09-24 15:20:32.421574,97
2021-09-24 15:20:32.421580,106
2021-09-24 15:20:32.421587,92
2021-09-24 15:20:32.421593,77
2021-09-24 15:20:32.421600,72
2021-09-24 15:20:32.421606,70
2021-09-24 15:20:32.421613,70
2021-09-24 15:20:32.421619,63
2021-09-24 15:20:32.421625,51
2021-09-24 15:20:32.421632,38
2021-09-24 15:20:32.421639,29
2021-09-24 15:20:32.421645,29
2021-09-24 15:20:32.421652,38
2021-09-24 15:20:32.421658,48
2021-09-24 15:20:32.421664,41
2021-09-24 15:20:32.421671,24
2021-09-24 15:20:32.421677,7
2021-09-24 15:20:32.421684,-2
2021-09-24 15:20:32.421690,2
2021-09-24 15:20:32.421697,2
2021-09-24 15:20:32.421703,7
2021-09-24 15:20:32.421709,24
2021-09-24 15:20:32.421716,34
2021-09-24 15:20:32.421722,24
2021-09-24 15:20:32.421729,19
2021-09-24 15:20:32.421735,29
2021-09-24 15:20:32.646138,31
2021-09-24 15:20:32.646156,34
2021-09-24 15:20:32.646163,36
2021-09-24 15:20:32.646169,29
2021-09-24 15:20:32.646175,19
2021-09-24 15:20:32.646180,4
2021-09-24 15:20:32.646185,-46
2021-09-24 15:20:32.646191,-155
2021-09-24 15:20:32.646197,-374
2021-09-24 15:20:32.646202,-587
2021-09-24 15:20:32.646208,-507
2021-09-24 15:20:32.646213,-34
2021-09-24 15:20:32.646219,544
2021-09-24 15:20:32.646224,629
2021-09-24 15:20:32.646230,230
2021-09-24 15:20:32.646235,46
2021-09-24 15:20:32.646241,87
2021-09-24 15:20:32.646246,-19
2021-09-24 15:20:32.646252,-121
2021-09-24 15:20:32.646257,-97
2021-09-24 15:20:32.646263,-94
2021-09-24 15:20:32.646269,-131
2021-09-24 15:20:32.646274,-133
2021-09-24 15:20:32.646280,-133
2021-09-24 15:20:32.646286,-157
2021-09-24 15:20:32.646291,-174
2021-09-24 15:20:32.646297,-196
2021-09-24 15:20:32.646302,-223
2021-09-24 15:20:32.646308,-235
2021-09-24 15:20:32.646314,-255
2021-09-24 15:20:32.915506,-289
2021-09-24 15:20:32.915612,-313
2021-09-24 15:20:32.915627,-344
2021-09-24 15:20:32.915635,-386
2021-09-24 15:20:32.915644,-415
2021-09-24 15:20:32.915655,-437
2021-09-24 15:20:32.915665,-459
2021-09-24 15:20:32.915675,-461
2021-09-24 15:20:32.915706,-442
2021-09-24 15:20:32.915720,-410
2021-09-24 15:20:32.915727,-354
2021-09-24 15:20:32.915757,-274
2021-09-24 15:20:32.915768,-179
2021-09-24 15:20:32.915775,-75
2021-09-24 15:20:32.915800,19
2021-09-24 15:20:32.915814,97
2021-09-24 15:20:32.915821,160
2021-09-24 15:20:32.915828,204
2021-09-24 15:20:32.915834,216
2021-09-24 15:20:32.915840,218
2021-09-24 15:20:32.915847,228
2021-09-24 15:20:32.915853,225
2021-09-24 15:20:32.915860,221
2021-09-24 15:20:32.915874,216
2021-09-24 15:20:32.915881,204
2021-09-24 15:20:32.915887,196
2021-09-24 15:20:32.915894,189
2021-09-24 15:20:32.915900,172
2021-09-24 15:20:32.915907,153
2021-09-24 15:20:32.915913,145
2021-09-24 15:20:33.096833,143
2021-09-24 15:20:33.096863,131
2021-09-24 15:20:33.096875,109
2021-09-24 15:20:33.096886,99
2021-09-24 15:20:33.096896,102
2021-09-24 15:20:33.096905,94
2021-09-24 15:20:33.096915,85
2021-09-24 15:20:33.096925,89
2021-09-24 15:20:33.096935,89
2021-09-24 15:20:33.096945,82
2021-09-24 15:20:33.096955,77
2021-09-24 15:20:33.096965,70
2021-09-24 15:20:33.096975,65
2021-09-24 15:20:33.096985,77
2021-09-24 15:20:33.096995,82
2021-09-24 15:20:33.097005,70
2021-09-24 15:20:33.097015,63
2021-09-24 15:20:33.097025,68
2021-09-24 15:20:33.097035,72
2021-09-24 15:20:33.097045,75
2021-09-24 15:20:33.097055,80
2021-09-24 15:20:33.097065,77
2021-09-24 15:20:33.097074,68
2021-09-24 15:20:33.097084,65
2021-09-24 15:20:33.097094,68
2021-09-24 15:20:33.097104,68
2021-09-24 15:20:33.097114,53
2021-09-24 15:20:33.097124,36
2021-09-24 15:20:33.097134,24
2021-09-24 15:20:33.097144,14
2021-09-24 15:20:33.321924,4
2021-09-24 15:20:33.321947,-2
2021-09-24 15:20:33.321955,12
2021-09-24 15:20:33.321962,58
2021-09-24 15:20:33.321969,68
2021-09-24 15:20:33.321976,14
2021-09-24 15:20:33.321983,-2
2021-09-24 15:20:33.321989,21
2021-09-24 15:20:33.321996,17
2021-09-24 15:20:33.322003,-4
2021-09-24 15:20:33.322009,-12
2021-09-24 15:20:33.322016,-17
2021-09-24 15:20:33.322023,-29
2021-09-24 15:20:33.322029,-58
2021-09-24 15:20:33.322036,-126
2021-09-24 15:20:33.322043,-303
2021-09-24 15:20:33.322049,-553
2021-09-24 15:20:33.322056,-607
2021-09-24 15:20:33.322062,-281
2021-09-24 15:20:33.322069,315
2021-09-24 15:20:33.322076,672
2021-09-24 15:20:33.322082,405
2021-09-24 15:20:33.322089,70
2021-09-24 15:20:33.322096,75
2021-09-24 15:20:33.322102,38
2021-09-24 15:20:33.322109,-104
2021-09-24 15:20:33.322116,-121
2021-09-24 15:20:33.322122,-94
2021-09-24 15:20:33.322129,-128
2021-09-24 15:20:33.322135,-148
2021-09-24 15:20:33.546775,-138
2021-09-24 15:20:33.546799,-148
2021-09-24 15:20:33.546807,-165
2021-09-24 15:20:33.546814,-179
2021-09-24 15:20:33.546820,-194
2021-09-24 15:20:33.546827,-187
2021-09-24 15:20:33.546834,-174
2021-09-24 15:20:33.546840,-189
2021-09-24 15:20:33.546847,-228
2021-09-24 15:20:33.546853,-269
2021-09-24 15:20:33.546860,-303
2021-09-24 15:20:33.546867,-332
2021-09-24 15:20:33.546873,-361
2021-09-24 15:20:33.546880,-378
2021-09-24 15:20:33.546886,-383
2021-09-24 15:20:33.546893,-386
2021-09-24 15:20:33.546899,-371
2021-09-24 15:20:33.546906,-323
2021-09-24 15:20:33.546912,-242
2021-09-24 15:20:33.546919,-140
2021-09-24 15:20:33.546925,-34
2021-09-24 15:20:33.546932,55
2021-09-24 15:20:33.546939,136
2021-09-24 15:20:33.546945,204
2021-09-24 15:20:33.546952,247
2021-09-24 15:20:33.546958,269
2021-09-24 15:20:33.546965,293
2021-09-24 15:20:33.546971,303
2021-09-24 15:20:33.546978,289
2021-09-24 15:20:33.546985,276
2021-09-24 15:20:33.816888,276
2021-09-24 15:20:33.816911,274
2021-09-24 15:20:33.816920,257
2021-09-24 15:20:33.816927,238
2021-09-24 15:20:33.816934,223
2021-09-24 15:20:33.816941,218
2021-09-24 15:20:33.816948,204
2021-09-24 15:20:33.816954,179
2021-09-24 15:20:33.816961,153
2021-09-24 15:20:33.816968,136
2021-09-24 15:20:33.816975,133
2021-09-24 15:20:33.816982,131
2021-09-24 15:20:33.816988,126
2021-09-24 15:20:33.816995,121
2021-09-24 15:20:33.817002,114
2021-09-24 15:20:33.817009,109
2021-09-24 15:20:33.817016,111
2021-09-24 15:20:33.817022,116
2021-09-24 15:20:33.817029,111
2021-09-24 15:20:33.817036,114
2021-09-24 15:20:33.817043,116
2021-09-24 15:20:33.817050,114
2021-09-24 15:20:33.817056,114
2021-09-24 15:20:33.817063,116
2021-09-24 15:20:33.817070,114
2021-09-24 15:20:33.817077,109
2021-09-24 15:20:33.817084,104
2021-09-24 15:20:33.817091,111
2021-09-24 15:20:33.817098,126
2021-09-24 15:20:33.817105,123
2021-09-24 15:20:34.131458,106
2021-09-24 15:20:34.131481,97
2021-09-24 15:20:34.131489,97
2021-09-24 15:20:34.131496,97
2021-09-24 15:20:34.131502,94
2021-09-24 15:20:34.131509,94
2021-09-24 15:20:34.131515,85
2021-09-24 15:20:34.131522,65
2021-09-24 15:20:34.131528,53
2021-09-24 15:20:34.131535,41
2021-09-24 15:20:34.131541,24
2021-09-24 15:20:34.131548,29
2021-09-24 15:20:34.131554,53
2021-09-24 15:20:34.131561,58
2021-09-24 15:20:34.131567,38
2021-09-24 15:20:34.131574,34
2021-09-24 15:20:34.131580,41
2021-09-24 15:20:34.131587,41
2021-09-24 15:20:34.131594,41
2021-09-24 15:20:34.131600,41
2021-09-24 15:20:34.131607,34
2021-09-24 15:20:34.131613,21
2021-09-24 15:20:34.131620,-2
2021-09-24 15:20:34.131626,-68
2021-09-24 15:20:34.131633,-245
2021-09-24 15:20:34.131639,-510
2021-09-24 15:20:34.131646,-602
2021-09-24 15:20:34.131652,-323
2021-09-24 15:20:34.131659,255
2021-09-24 15:20:34.131666,694
2021-09-24 15:20:34.266840,519
2021-09-24 15:20:34.266863,140
2021-09-24 15:20:34.266871,94
2021-09-24 15:20:34.266878,80
2021-09-24 15:20:34.266885,-58
2021-09-24 15:20:34.266891,-75
2021-09-24 15:20:34.266898,-31
2021-09-24 15:20:34.266905,-80
2021-09-24 15:20:34.266911,-119
2021-09-24 15:20:34.266918,-106
2021-09-24 15:20:34.266924,-114
2021-09-24 15:20:34.266930,-138
2021-09-24 15:20:34.266937,-155
2021-09-24 15:20:34.266944,-179
2021-09-24 15:20:34.266950,-201
2021-09-24 15:20:34.266957,-218
2021-09-24 15:20:34.266963,-240
2021-09-24 15:20:34.266970,-267
2021-09-24 15:20:34.266976,-296
2021-09-24 15:20:34.266983,-335
2021-09-24 15:20:34.266989,-376
2021-09-24 15:20:34.266996,-408
2021-09-24 15:20:34.267002,-422
2021-09-24 15:20:34.267009,-432
2021-09-24 15:20:34.267015,-439
2021-09-24 15:20:34.267022,-429
2021-09-24 15:20:34.267028,-388
2021-09-24 15:20:34.267035,-318
2021-09-24 15:20:34.267041,-216
2021-09-24 15:20:34.267048,-99
2021-09-24 15:20:34.535878,9
2021-09-24 15:20:34.535900,97
2021-09-24 15:20:34.535908,165
2021-09-24 15:20:34.535915,208
2021-09-24 15:20:34.535921,238
2021-09-24 15:20:34.535928,255
2021-09-24 15:20:34.535934,255
2021-09-24 15:20:34.535941,247
2021-09-24 15:20:34.535948,245
2021-09-24 15:20:34.535954,242
2021-09-24 15:20:34.535961,233
2021-09-24 15:20:34.535967,228
2021-09-24 15:20:34.535974,218
2021-09-24 15:20:34.535981,201
2021-09-24 15:20:34.535987,184
2021-09-24 15:20:34.535994,174
2021-09-24 15:20:34.536000,167
2021-09-24 15:20:34.536007,155
2021-09-24 15:20:34.536014,143
2021-09-24 15:20:34.536020,133
2021-09-24 15:20:34.536027,123
2021-09-24 15:20:34.536033,114
2021-09-24 15:20:34.536040,109
2021-09-24 15:20:34.536046,114
2021-09-24 15:20:34.536053,109
2021-09-24 15:20:34.536059,102
2021-09-24 15:20:34.536066,97
2021-09-24 15:20:34.536072,97
2021-09-24 15:20:34.536079,97
2021-09-24 15:20:34.536086,97
2021-09-24 15:20:34.851847,97
2021-09-24 15:20:34.851871,99
2021-09-24 15:20:34.851878,97
2021-09-24 15:20:34.851885,97
2021-09-24 15:20:34.851892,99
2021-09-24 15:20:34.851899,97
2021-09-24 15:20:34.851905,87
2021-09-24 15:20:34.851911,85
2021-09-24 15:20:34.851918,85
2021-09-24 15:20:34.851924,77
2021-09-24 15:20:34.851931,70
2021-09-24 15:20:34.851937,75
2021-09-24 15:20:34.851944,80
2021-09-24 15:20:34.851950,75
2021-09-24 15:20:34.851957,68
2021-09-24 15:20:34.851963,53
2021-09-24 15:20:34.851970,36
2021-09-24 15:20:34.851976,29
2021-09-24 15:20:34.851983,14
2021-09-24 15:20:34.851990,0
2021-09-24 15:20:34.851996,4
2021-09-24 15:20:34.852003,29
2021-09-24 15:20:34.852009,43
2021-09-24 15:20:34.852016,36
2021-09-24 15:20:34.852022,31
2021-09-24 15:20:34.852029,29
2021-09-24 15:20:34.852035,26
2021-09-24 15:20:34.852042,21
2021-09-24 15:20:34.852048,19
2021-09-24 15:20:34.852055,14
2021-09-24 15:20:34.985486,2
2021-09-24 15:20:34.985509,-21
2021-09-24 15:20:34.985517,-87
2021-09-24 15:20:34.985523,-276
2021-09-24 15:20:34.985530,-558
2021-09-24 15:20:34.985536,-646
2021-09-24 15:20:34.985543,-344
2021-09-24 15:20:34.985549,247
2021-09-24 15:20:34.985556,672
2021-09-24 15:20:34.985562,471
2021-09-24 15:20:34.985569,102
2021-09-24 15:20:34.985575,63
2021-09-24 15:20:34.985582,38
2021-09-24 15:20:34.985588,-92
2021-09-24 15:20:34.985595,-104
2021-09-24 15:20:34.985601,-70
2021-09-24 15:20:34.985608,-104
2021-09-24 15:20:34.985622,-128
2021-09-24 15:20:34.985628,-126
2021-09-24 15:20:34.985635,-143
2021-09-24 15:20:34.985641,-155
2021-09-24 15:20:34.985648,-157
2021-09-24 15:20:34.985654,-172
2021-09-24 15:20:34.985661,-199
2021-09-24 15:20:34.985667,-216
2021-09-24 15:20:34.985674,-225
2021-09-24 15:20:34.985680,-255
2021-09-24 15:20:34.985687,-301
2021-09-24 15:20:34.985693,-347
2021-09-24 15:20:34.985699,-388
2021-09-24 15:20:35.211832,-422
2021-09-24 15:20:35.211855,-442
2021-09-24 15:20:35.211863,-456
2021-09-24 15:20:35.211869,-463
2021-09-24 15:20:35.211876,-454
2021-09-24 15:20:35.211882,-415
2021-09-24 15:20:35.211889,-337
2021-09-24 15:20:35.211895,-225
2021-09-24 15:20:35.211902,-109
2021-09-24 15:20:35.211908,-7
2021-09-24 15:20:35.211915,82
2021-09-24 15:20:35.211921,148
2021-09-24 15:20:35.211928,194
2021-09-24 15:20:35.211934,225
2021-09-24 15:20:35.211941,240
2021-09-24 15:20:35.211947,245
2021-09-24 15:20:35.211953,247
2021-09-24 15:20:35.211960,242
2021-09-24 15:20:35.211966,238
2021-09-24 15:20:35.211973,235
2021-09-24 15:20:35.211979,230
2021-09-24 15:20:35.211986,213
2021-09-24 15:20:35.211992,199
2021-09-24 15:20:35.211999,194
2021-09-24 15:20:35.212005,182
2021-09-24 15:20:35.212012,162
2021-09-24 15:20:35.212018,148
2021-09-24 15:20:35.212025,143
2021-09-24 15:20:35.212031,136
2021-09-24 15:20:35.212038,128
2021-09-24 15:20:35.436246,123
2021-09-24 15:20:35.436276,114
2021-09-24 15:20:35.436288,106
2021-09-24 15:20:35.436298,94
2021-09-24 15:20:35.436308,85
2021-09-24 15:20:35.436318,87
2021-09-24 15:20:35.436328,94
2021-09-24 15:20:35.436338,97
2021-09-24 15:20:35.436348,97
2021-09-24 15:20:35.436358,92
2021-09-24 15:20:35.436367,89
2021-09-24 15:20:35.436377,94
2021-09-24 15:20:35.436387,99
2021-09-24 15:20:35.436397,102
2021-09-24 15:20:35.436407,102
2021-09-24 15:20:35.436417,97
2021-09-24 15:20:35.436427,92
2021-09-24 15:20:35.436437,97
2021-09-24 15:20:35.436447,102
2021-09-24 15:20:35.436457,97
2021-09-24 15:20:35.436466,97
2021-09-24 15:20:35.436476,99
2021-09-24 15:20:35.436486,97
2021-09-24 15:20:35.436496,94
2021-09-24 15:20:35.436506,97
2021-09-24 15:20:35.436516,94
2021-09-24 15:20:35.436526,82
2021-09-24 15:20:35.436536,63
2021-09-24 15:20:35.436545,53
2021-09-24 15:20:35.436555,48
2021-09-24 15:20:35.661849,38
2021-09-24 15:20:35.661872,31
2021-09-24 15:20:35.661880,43
2021-09-24 15:20:35.661887,58
2021-09-24 15:20:35.661894,58
2021-09-24 15:20:35.661900,55
2021-09-24 15:20:35.661907,63
2021-09-24 15:20:35.661914,63
2021-09-24 15:20:35.661920,55
2021-09-24 15:20:35.661927,46
2021-09-24 15:20:35.661934,46
2021-09-24 15:20:35.661941,53
2021-09-24 15:20:35.661947,43
2021-09-24 15:20:35.661954,9
2021-09-24 15:20:35.661961,-68
2021-09-24 15:20:35.661968,-272
2021-09-24 15:20:35.661974,-566
2021-09-24 15:20:35.661981,-648
2021-09-24 15:20:35.661988,-325
2021-09-24 15:20:35.661994,276
2021-09-24 15:20:35.662001,672
2021-09-24 15:20:35.662008,454
2021-09-24 15:20:35.662014,99
2021-09-24 15:20:35.662021,75
2021-09-24 15:20:35.662028,43
2021-09-24 15:20:35.662034,-94
2021-09-24 15:20:35.662041,-109
2021-09-24 15:20:35.662048,-80
2021-09-24 15:20:35.662054,-114
2021-09-24 15:20:35.662061,-136
2021-09-24 15:20:35.886841,-133
2021-09-24 15:20:35.886865,-153
2021-09-24 15:20:35.886872,-172
2021-09-24 15:20:35.886879,-184
2021-09-24 15:20:35.886886,-194
2021-09-24 15:20:35.886892,-201
2021-09-24 15:20:35.886899,-218
2021-09-24 15:20:35.886905,-238
2021-09-24 15:20:35.886912,-240
2021-09-24 15:20:35.886918,-250
2021-09-24 15:20:35.886925,-291
2021-09-24 15:20:35.886931,-337
2021-09-24 15:20:35.886938,-366
2021-09-24 15:20:35.886944,-388
2021-09-24 15:20:35.886950,-408
2021-09-24 15:20:35.886957,-412
2021-09-24 15:20:35.886963,-391
2021-09-24 15:20:35.886970,-352
2021-09-24 15:20:35.886976,-281
2021-09-24 15:20:35.886983,-177
2021-09-24 15:20:35.886989,-63
2021-09-24 15:20:35.886996,38
2021-09-24 15:20:35.887002,128
2021-09-24 15:20:35.887009,199
2021-09-24 15:20:35.887015,245
2021-09-24 15:20:35.887021,274
2021-09-24 15:20:35.887028,289
2021-09-24 15:20:35.887034,301
2021-09-24 15:20:35.887041,298
2021-09-24 15:20:35.887047,286
2021-09-24 15:20:36.112026,279
2021-09-24 15:20:36.112057,274
2021-09-24 15:20:36.112069,259
2021-09-24 15:20:36.112079,247
2021-09-24 15:20:36.112090,240
2021-09-24 15:20:36.112099,230
2021-09-24 15:20:36.112109,218
2021-09-24 15:20:36.112119,196
2021-09-24 15:20:36.112129,177
2021-09-24 15:20:36.112139,167
2021-09-24 15:20:36.112149,165
2021-09-24 15:20:36.112159,155
2021-09-24 15:20:36.112169,145
2021-09-24 15:20:36.112179,131
2021-09-24 15:20:36.112189,116
2021-09-24 15:20:36.112198,114
2021-09-24 15:20:36.112208,119
2021-09-24 15:20:36.112218,116
2021-09-24 15:20:36.112228,111
2021-09-24 15:20:36.112238,111
2021-09-24 15:20:36.112248,109
2021-09-24 15:20:36.112258,104
2021-09-24 15:20:36.112268,104
2021-09-24 15:20:36.112278,106
2021-09-24 15:20:36.112288,106
2021-09-24 15:20:36.112298,97
2021-09-24 15:20:36.112308,89
2021-09-24 15:20:36.112318,85
2021-09-24 15:20:36.112328,80
2021-09-24 15:20:36.112338,82
2021-09-24 15:20:36.381227,77
2021-09-24 15:20:36.381252,60
2021-09-24 15:20:36.381261,51
2021-09-24 15:20:36.381269,48
2021-09-24 15:20:36.381276,46
2021-09-24 15:20:36.381283,41
2021-09-24 15:20:36.381290,21
2021-09-24 15:20:36.381298,7
2021-09-24 15:20:36.381305,9
2021-09-24 15:20:36.381313,12
2021-09-24 15:20:36.381320,14
2021-09-24 15:20:36.381327,17
2021-09-24 15:20:36.381334,2
2021-09-24 15:20:36.381342,-21
2021-09-24 15:20:36.381349,-29
2021-09-24 15:20:36.381356,-24
2021-09-24 15:20:36.381364,-29
2021-09-24 15:20:36.381371,-31
2021-09-24 15:20:36.381378,-12
2021-09-24 15:20:36.381385,7
2021-09-24 15:20:36.381393,9
2021-09-24 15:20:36.381400,7
2021-09-24 15:20:36.381407,9
2021-09-24 15:20:36.381414,12
2021-09-24 15:20:36.381422,4
2021-09-24 15:20:36.381429,0
2021-09-24 15:20:36.381436,2
2021-09-24 15:20:36.381444,2
2021-09-24 15:20:36.381451,-4
2021-09-24 15:20:36.381458,-26
2021-09-24 15:20:36.606870,-82
2021-09-24 15:20:36.606893,-240
2021-09-24 15:20:36.606901,-522
2021-09-24 15:20:36.606908,-697
2021-09-24 15:20:36.606915,-500
2021-09-24 15:20:36.606922,60
2021-09-24 15:20:36.606928,590
2021-09-24 15:20:36.606935,539
2021-09-24 15:20:36.606941,148
2021-09-24 15:20:36.606948,38
2021-09-24 15:20:36.606955,48
2021-09-24 15:20:36.606961,-82
2021-09-24 15:20:36.606968,-140
2021-09-24 15:20:36.606974,-99
2021-09-24 15:20:36.606981,-94
2021-09-24 15:20:36.606988,-94
2021-09-24 15:20:36.606995,-77
2021-09-24 15:20:36.607001,-82
2021-09-24 15:20:36.607008,-89
2021-09-24 15:20:36.607014,-92
2021-09-24 15:20:36.607021,-119
2021-09-24 15:20:36.607027,-140
2021-09-24 15:20:36.607034,-153
2021-09-24 15:20:36.607041,-179
2021-09-24 15:20:36.607048,-213
2021-09-24 15:20:36.607054,-240
2021-09-24 15:20:36.607061,-274
2021-09-24 15:20:36.607068,-320
2021-09-24 15:20:36.607074,-357
2021-09-24 15:20:36.607081,-383
2021-09-24 15:20:36.831883,-403
2021-09-24 15:20:36.831907,-410
2021-09-24 15:20:36.831915,-408
2021-09-24 15:20:36.831922,-388
2021-09-24 15:20:36.831929,-327
2021-09-24 15:20:36.831935,-240
2021-09-24 15:20:36.831942,-136
2021-09-24 15:20:36.831948,-24
2021-09-24 15:20:36.831955,75
2021-09-24 15:20:36.831961,145
2021-09-24 15:20:36.831968,196
2021-09-24 15:20:36.831974,225
2021-09-24 15:20:36.831981,233
2021-09-24 15:20:36.831987,238
2021-09-24 15:20:36.831994,240
2021-09-24 15:20:36.832000,225
2021-09-24 15:20:36.832007,199
2021-09-24 15:20:36.832013,170
2021-09-24 15:20:36.832019,160
2021-09-24 15:20:36.832026,155
2021-09-24 15:20:36.832032,145
2021-09-24 15:20:36.832039,133
2021-09-24 15:20:36.832045,123
2021-09-24 15:20:36.832052,114
2021-09-24 15:20:36.832058,106
2021-09-24 15:20:36.832065,106
2021-09-24 15:20:36.832071,99
2021-09-24 15:20:36.832078,89
2021-09-24 15:20:36.832084,82
2021-09-24 15:20:36.832091,77
2021-09-24 15:20:37.055145,75
2021-09-24 15:20:37.055166,72
2021-09-24 15:20:37.055174,70
2021-09-24 15:20:37.055181,68
2021-09-24 15:20:37.055188,65
2021-09-24 15:20:37.055194,63
2021-09-24 15:20:37.055201,65
2021-09-24 15:20:37.055207,70
2021-09-24 15:20:37.055214,72
2021-09-24 15:20:37.055220,72
2021-09-24 15:20:37.055227,68
2021-09-24 15:20:37.055234,60
2021-09-24 15:20:37.055240,63
2021-09-24 15:20:37.055247,68
2021-09-24 15:20:37.055254,72
2021-09-24 15:20:37.055260,80
2021-09-24 15:20:37.055267,99
2021-09-24 15:20:37.055273,114
2021-09-24 15:20:37.055280,126
2021-09-24 15:20:37.055286,128
2021-09-24 15:20:37.055293,119
2021-09-24 15:20:37.055299,111
2021-09-24 15:20:37.055306,109
2021-09-24 15:20:37.055312,109
2021-09-24 15:20:37.055319,114
2021-09-24 15:20:37.055325,116
2021-09-24 15:20:37.055332,111
2021-09-24 15:20:37.055338,94
2021-09-24 15:20:37.055345,75
2021-09-24 15:20:37.055352,60
2021-09-24 15:20:37.236593,60
2021-09-24 15:20:37.236616,55
2021-09-24 15:20:37.236623,46
2021-09-24 15:20:37.236630,55
2021-09-24 15:20:37.236637,65
2021-09-24 15:20:37.236644,60
2021-09-24 15:20:37.236650,53
2021-09-24 15:20:37.236657,53
2021-09-24 15:20:37.236663,48
2021-09-24 15:20:37.236670,41
2021-09-24 15:20:37.236676,29
2021-09-24 15:20:37.236683,26
2021-09-24 15:20:37.236690,36
2021-09-24 15:20:37.236696,38
2021-09-24 15:20:37.236710,17
2021-09-24 15:20:37.236717,-41
2021-09-24 15:20:37.236724,-184
2021-09-24 15:20:37.236731,-468
2021-09-24 15:20:37.236737,-687
2021-09-24 15:20:37.236744,-529
2021-09-24 15:20:37.236750,19
2021-09-24 15:20:37.236757,570
2021-09-24 15:20:37.236764,551
2021-09-24 15:20:37.236770,162
2021-09-24 15:20:37.236777,48
2021-09-24 15:20:37.236784,75
2021-09-24 15:20:37.236790,-53
2021-09-24 15:20:37.236797,-126
2021-09-24 15:20:37.236804,-87
2021-09-24 15:20:37.236810,-97
2021-09-24 15:20:37.506803,-133
2021-09-24 15:20:37.506824,-131
2021-09-24 15:20:37.506832,-136
2021-09-24 15:20:37.506839,-165
2021-09-24 15:20:37.506845,-182
2021-09-24 15:20:37.506852,-187
2021-09-24 15:20:37.506859,-201
2021-09-24 15:20:37.506865,-218
2021-09-24 15:20:37.506872,-245
2021-09-24 15:20:37.506878,-284
2021-09-24 15:20:37.506885,-320
2021-09-24 15:20:37.506891,-352
2021-09-24 15:20:37.506898,-391
2021-09-24 15:20:37.506905,-427
2021-09-24 15:20:37.506911,-451
2021-09-24 15:20:37.506918,-473
2021-09-24 15:20:37.506924,-480
2021-09-24 15:20:37.506931,-471
2021-09-24 15:20:37.506938,-442
2021-09-24 15:20:37.506944,-376
2021-09-24 15:20:37.506951,-286
2021-09-24 15:20:37.506957,-184
2021-09-24 15:20:37.506964,-75
2021-09-24 15:20:37.506970,24
2021-09-24 15:20:37.506977,97
2021-09-24 15:20:37.506984,155
2021-09-24 15:20:37.506990,194
2021-09-24 15:20:37.506997,211
2021-09-24 15:20:37.507003,223
2021-09-24 15:20:37.507010,230
2021-09-24 15:20:37.776260,228
2021-09-24 15:20:37.776283,225
2021-09-24 15:20:37.776291,221
2021-09-24 15:20:37.776297,211
2021-09-24 15:20:37.776304,204
2021-09-24 15:20:37.776310,196
2021-09-24 15:20:37.776317,184
2021-09-24 15:20:37.776324,172
2021-09-24 15:20:37.776330,155
2021-09-24 15:20:37.776337,133
2021-09-24 15:20:37.776343,121
2021-09-24 15:20:37.776350,119
2021-09-24 15:20:37.776356,114
2021-09-24 15:20:37.776363,102
2021-09-24 15:20:37.776370,85
2021-09-24 15:20:37.776376,70
2021-09-24 15:20:37.776383,70
2021-09-24 15:20:37.776389,70
2021-09-24 15:20:37.776396,58
2021-09-24 15:20:37.776402,55
2021-09-24 15:20:37.776409,60
2021-09-24 15:20:37.776416,63
2021-09-24 15:20:37.776422,80
2021-09-24 15:20:37.776460,99
2021-09-24 15:20:37.776466,99
2021-09-24 15:20:37.776473,89
2021-09-24 15:20:37.776479,87
2021-09-24 15:20:37.776486,92
2021-09-24 15:20:37.776492,92
2021-09-24 15:20:37.776499,87
2021-09-24 15:20:37.956864,87
2021-09-24 15:20:37.956887,89
2021-09-24 15:20:37.956895,87
2021-09-24 15:20:37.956902,77
2021-09-24 15:20:37.956908,77
2021-09-24 15:20:37.956915,92
2021-09-24 15:20:37.956921,99
2021-09-24 15:20:37.956927,97
2021-09-24 15:20:37.956934,92
2021-09-24 15:20:37.956940,92
2021-09-24 15:20:37.956947,87
2021-09-24 15:20:37.956953,70
2021-09-24 15:20:37.956960,36
2021-09-24 15:20:37.956966,4
2021-09-24 15:20:37.956973,-9
2021-09-24 15:20:37.956979,4
2021-09-24 15:20:37.956986,24
2021-09-24 15:20:37.956992,26
2021-09-24 15:20:37.956999,21
2021-09-24 15:20:37.957005,17
2021-09-24 15:20:37.957012,17
2021-09-24 15:20:37.957018,19
2021-09-24 15:20:37.957025,17
2021-09-24 15:20:37.957031,9
2021-09-24 15:20:37.957038,7
2021-09-24 15:20:37.957044,-2
2021-09-24 15:20:37.957051,-43
2021-09-24 15:20:37.957057,-128
2021-09-24 15:20:37.957064,-323
2021-09-24 15:20:37.957070,-566
2021-09-24 15:20:38.181578,-578
2021-09-24 15:20:38.181601,-191
2021-09-24 15:20:38.181609,427
2021-09-24 15:20:38.181616,685
2021-09-24 15:20:38.181623,337
2021-09-24 15:20:38.181630,60
2021-09-24 15:20:38.181637,92
2021-09-24 15:20:38.181644,12
2021-09-24 15:20:38.181651,-126
2021-09-24 15:20:38.181658,-111
2021-09-24 15:20:38.181665,-87
2021-09-24 15:20:38.181672,-126
2021-09-24 15:20:38.181678,-145
2021-09-24 15:20:38.181685,-148
2021-09-24 15:20:38.181692,-170
2021-09-24 15:20:38.181699,-189
2021-09-24 15:20:38.181706,-196
2021-09-24 15:20:38.181713,-204
2021-09-24 15:20:38.181719,-230
2021-09-24 15:20:38.181726,-257
2021-09-24 15:20:38.181733,-279
2021-09-24 15:20:38.181740,-303
2021-09-24 15:20:38.181747,-335
2021-09-24 15:20:38.181754,-366
2021-09-24 15:20:38.181761,-403
2021-09-24 15:20:38.181768,-434
2021-09-24 15:20:38.181775,-449
2021-09-24 15:20:38.181781,-451
2021-09-24 15:20:38.181788,-446
2021-09-24 15:20:38.181795,-434
2021-09-24 15:20:38.406567,-405
2021-09-24 15:20:38.406589,-327
2021-09-24 15:20:38.406597,-216
2021-09-24 15:20:38.406604,-106
2021-09-24 15:20:38.406611,-4
2021-09-24 15:20:38.406617,77
2021-09-24 15:20:38.406624,128
2021-09-24 15:20:38.406631,170
2021-09-24 15:20:38.406637,201
2021-09-24 15:20:38.406644,208
2021-09-24 15:20:38.406650,208
2021-09-24 15:20:38.406657,211
2021-09-24 15:20:38.406663,206
2021-09-24 15:20:38.406670,201
2021-09-24 15:20:38.406676,201
2021-09-24 15:20:38.406683,191
2021-09-24 15:20:38.406690,172
2021-09-24 15:20:38.406696,157
2021-09-24 15:20:38.406703,145
2021-09-24 15:20:38.406709,136
2021-09-24 15:20:38.406716,140
2021-09-24 15:20:38.406723,160
2021-09-24 15:20:38.406729,167
2021-09-24 15:20:38.406736,157
2021-09-24 15:20:38.406742,145
2021-09-24 15:20:38.406749,148
2021-09-24 15:20:38.406755,153
2021-09-24 15:20:38.406762,153
2021-09-24 15:20:38.406768,138
2021-09-24 15:20:38.406775,106
2021-09-24 15:20:38.631948,94
2021-09-24 15:20:38.631969,102
2021-09-24 15:20:38.631977,94
2021-09-24 15:20:38.631984,70
2021-09-24 15:20:38.631991,60
2021-09-24 15:20:38.631997,51
2021-09-24 15:20:38.632004,38
2021-09-24 15:20:38.632010,41
2021-09-24 15:20:38.632017,55
2021-09-24 15:20:38.632023,58
2021-09-24 15:20:38.632030,48
2021-09-24 15:20:38.632037,34
2021-09-24 15:20:38.632043,26
2021-09-24 15:20:38.632050,29
2021-09-24 15:20:38.632056,29
2021-09-24 15:20:38.632063,26
2021-09-24 15:20:38.632069,29
2021-09-24 15:20:38.632076,34
2021-09-24 15:20:38.632082,51
2021-09-24 15:20:38.632089,82
2021-09-24 15:20:38.632095,92
2021-09-24 15:20:38.632102,87
2021-09-24 15:20:38.632108,92
2021-09-24 15:20:38.632115,89
2021-09-24 15:20:38.632122,72
2021-09-24 15:20:38.632128,60
2021-09-24 15:20:38.632135,51
2021-09-24 15:20:38.632141,38
2021-09-24 15:20:38.632148,29
2021-09-24 15:20:38.632154,38
2021-09-24 15:20:38.856945,60
2021-09-24 15:20:38.856969,72
2021-09-24 15:20:38.856976,63
2021-09-24 15:20:38.856983,51
2021-09-24 15:20:38.856990,46
2021-09-24 15:20:38.856996,31
2021-09-24 15:20:38.857003,12
2021-09-24 15:20:38.857009,7
2021-09-24 15:20:38.857016,9
2021-09-24 15:20:38.857023,-4
2021-09-24 15:20:38.857029,-53
2021-09-24 15:20:38.857036,-133
2021-09-24 15:20:38.857042,-291
2021-09-24 15:20:38.857049,-546
2021-09-24 15:20:38.857056,-668
2021-09-24 15:20:38.857062,-427
2021-09-24 15:20:38.857069,116
2021-09-24 15:20:38.857075,590
2021-09-24 15:20:38.857082,497
2021-09-24 15:20:38.857088,109
2021-09-24 15:20:38.857095,24
2021-09-24 15:20:38.857101,26
2021-09-24 15:20:38.857108,-114
2021-09-24 15:20:38.857114,-165
2021-09-24 15:20:38.857121,-119
2021-09-24 15:20:38.857127,-126
2021-09-24 15:20:38.857134,-131
2021-09-24 15:20:38.857140,-97
2021-09-24 15:20:38.857147,-94
2021-09-24 15:20:38.857153,-114
2021-09-24 15:20:39.125611,-114
2021-09-24 15:20:39.125632,-119
2021-09-24 15:20:39.125640,-140
2021-09-24 15:20:39.125647,-165
2021-09-24 15:20:39.125654,-194
2021-09-24 15:20:39.125661,-218
2021-09-24 15:20:39.125668,-242
2021-09-24 15:20:39.125675,-279
2021-09-24 15:20:39.125682,-320
2021-09-24 15:20:39.125689,-359
2021-09-24 15:20:39.125696,-393
2021-09-24 15:20:39.125702,-410
2021-09-24 15:20:39.125709,-398
2021-09-24 15:20:39.125716,-369
2021-09-24 15:20:39.125723,-349
2021-09-24 15:20:39.125730,-313
2021-09-24 15:20:39.125737,-225
2021-09-24 15:20:39.125743,-109
2021-09-24 15:20:39.125750,-4
2021-09-24 15:20:39.125757,82
2021-09-24 15:20:39.125764,155
2021-09-24 15:20:39.125771,204
2021-09-24 15:20:39.125778,228
2021-09-24 15:20:39.125784,233
2021-09-24 15:20:39.125791,230
2021-09-24 15:20:39.125798,228
2021-09-24 15:20:39.125805,213
2021-09-24 15:20:39.125812,189
2021-09-24 15:20:39.125819,177
2021-09-24 15:20:39.125826,179
2021-09-24 15:20:39.351850,172
2021-09-24 15:20:39.351874,162
2021-09-24 15:20:39.351882,153
2021-09-24 15:20:39.351889,138
2021-09-24 15:20:39.351896,126
2021-09-24 15:20:39.351902,126
2021-09-24 15:20:39.351909,136
2021-09-24 15:20:39.351915,157
2021-09-24 15:20:39.351922,170
2021-09-24 15:20:39.351928,153
2021-09-24 15:20:39.351935,138
2021-09-24 15:20:39.351942,143
2021-09-24 15:20:39.351948,136
2021-09-24 15:20:39.351955,121
2021-09-24 15:20:39.351961,116
2021-09-24 15:20:39.351968,109
2021-09-24 15:20:39.351974,106
2021-09-24 15:20:39.351981,128
2021-09-24 15:20:39.351987,138
2021-09-24 15:20:39.351994,116
2021-09-24 15:20:39.352000,102
2021-09-24 15:20:39.352006,104
2021-09-24 15:20:39.352013,99
2021-09-24 15:20:39.352020,97
2021-09-24 15:20:39.352026,99
2021-09-24 15:20:39.352033,94
2021-09-24 15:20:39.352039,80
2021-09-24 15:20:39.352046,72
2021-09-24 15:20:39.352052,72
2021-09-24 15:20:39.352059,72
2021-09-24 15:20:39.576894,68
2021-09-24 15:20:39.576918,63
2021-09-24 15:20:39.576926,51
2021-09-24 15:20:39.576933,43
2021-09-24 15:20:39.576939,38
2021-09-24 15:20:39.576946,34
2021-09-24 15:20:39.576952,26
2021-09-24 15:20:39.576959,19
2021-09-24 15:20:39.576965,9
2021-09-24 15:20:39.576972,-2
2021-09-24 15:20:39.576978,-7
2021-09-24 15:20:39.576985,-14
2021-09-24 15:20:39.576991,-26
2021-09-24 15:20:39.576998,-38
2021-09-24 15:20:39.577005,-48
2021-09-24 15:20:39.577011,-63
2021-09-24 15:20:39.577018,-63
2021-09-24 15:20:39.577025,-38
2021-09-24 15:20:39.577031,-9
2021-09-24 15:20:39.577038,-2
2021-09-24 15:20:39.577044,-7
2021-09-24 15:20:39.577051,-9
2021-09-24 15:20:39.577057,-4
2021-09-24 15:20:39.577064,0
2021-09-24 15:20:39.577071,2
2021-09-24 15:20:39.577077,7
2021-09-24 15:20:39.577084,4
2021-09-24 15:20:39.577091,-9
2021-09-24 15:20:39.577097,-36
2021-09-24 15:20:39.577104,-89
2021-09-24 15:20:39.801837,-235
2021-09-24 15:20:39.801861,-485
2021-09-24 15:20:39.801869,-600
2021-09-24 15:20:39.801875,-347
2021-09-24 15:20:39.801882,218
2021-09-24 15:20:39.801889,714
2021-09-24 15:20:39.801895,624
2021-09-24 15:20:39.801902,225
2021-09-24 15:20:39.801909,119
2021-09-24 15:20:39.801915,104
2021-09-24 15:20:39.801922,-31
2021-09-24 15:20:39.801928,-70
2021-09-24 15:20:39.801935,-34
2021-09-24 15:20:39.801941,-65
2021-09-24 15:20:39.801948,-109
2021-09-24 15:20:39.801954,-106
2021-09-24 15:20:39.801961,-106
2021-09-24 15:20:39.801967,-128
2021-09-24 15:20:39.801974,-153
2021-09-24 15:20:39.802028,-172
2021-09-24 15:20:39.802035,-187
2021-09-24 15:20:39.802041,-206
2021-09-24 15:20:39.802048,-228
2021-09-24 15:20:39.802054,-252
2021-09-24 15:20:39.802061,-279
2021-09-24 15:20:39.802067,-315
2021-09-24 15:20:39.802074,-352
2021-09-24 15:20:39.802081,-391
2021-09-24 15:20:39.802087,-429
2021-09-24 15:20:39.802094,-463
2021-09-24 15:20:40.071286,-476
2021-09-24 15:20:40.071310,-471
2021-09-24 15:20:40.071318,-446
2021-09-24 15:20:40.071325,-388
2021-09-24 15:20:40.071331,-293
2021-09-24 15:20:40.071338,-174
2021-09-24 15:20:40.071345,-65
2021-09-24 15:20:40.071351,14
2021-09-24 15:20:40.071358,80
2021-09-24 15:20:40.071365,133
2021-09-24 15:20:40.071371,172
2021-09-24 15:20:40.071378,191
2021-09-24 15:20:40.071385,199
2021-09-24 15:20:40.071391,196
2021-09-24 15:20:40.071398,191
2021-09-24 15:20:40.071405,191
2021-09-24 15:20:40.071411,191
2021-09-24 15:20:40.071418,187
2021-09-24 15:20:40.071456,179
2021-09-24 15:20:40.071463,191
2021-09-24 15:20:40.071470,223
2021-09-24 15:20:40.071476,238
2021-09-24 15:20:40.071482,228
2021-09-24 15:20:40.071489,221
2021-09-24 15:20:40.071495,216
2021-09-24 15:20:40.071502,204
2021-09-24 15:20:40.071508,196
2021-09-24 15:20:40.071515,194
2021-09-24 15:20:40.071521,187
2021-09-24 15:20:40.071528,184
2021-09-24 15:20:40.251926,194
2021-09-24 15:20:40.251950,196
2021-09-24 15:20:40.251958,182
2021-09-24 15:20:40.251965,157
2021-09-24 15:20:40.251972,138
2021-09-24 15:20:40.251978,136
2021-09-24 15:20:40.251985,128
2021-09-24 15:20:40.251991,116
2021-09-24 15:20:40.251998,116
2021-09-24 15:20:40.252004,119
2021-09-24 15:20:40.252011,116
2021-09-24 15:20:40.252018,114
2021-09-24 15:20:40.252024,106
2021-09-24 15:20:40.252031,99
2021-09-24 15:20:40.252037,99
2021-09-24 15:20:40.252044,99
2021-09-24 15:20:40.252050,99
2021-09-24 15:20:40.252057,94
2021-09-24 15:20:40.252063,82
2021-09-24 15:20:40.252070,72
2021-09-24 15:20:40.252076,72
2021-09-24 15:20:40.252083,63
2021-09-24 15:20:40.252089,55
2021-09-24 15:20:40.252096,51
2021-09-24 15:20:40.252103,36
2021-09-24 15:20:40.252109,31
2021-09-24 15:20:40.252116,36
2021-09-24 15:20:40.252122,41
2021-09-24 15:20:40.252129,43
2021-09-24 15:20:40.252135,41
2021-09-24 15:20:40.521884,26
2021-09-24 15:20:40.521910,12
2021-09-24 15:20:40.521919,4
2021-09-24 15:20:40.521928,4
2021-09-24 15:20:40.521936,-2
2021-09-24 15:20:40.521944,-14
2021-09-24 15:20:40.521952,-4
2021-09-24 15:20:40.521960,17
2021-09-24 15:20:40.521968,26
2021-09-24 15:20:40.521976,29
2021-09-24 15:20:40.521984,26
2021-09-24 15:20:40.521992,21
2021-09-24 15:20:40.522000,17
2021-09-24 15:20:40.522008,21
2021-09-24 15:20:40.522016,36
2021-09-24 15:20:40.522023,43
2021-09-24 15:20:40.522033,34
2021-09-24 15:20:40.522040,0
2021-09-24 15:20:40.522048,-51
2021-09-24 15:20:40.522057,-187
2021-09-24 15:20:40.522063,-461
2021-09-24 15:20:40.522072,-655
2021-09-24 15:20:40.522080,-495
2021-09-24 15:20:40.522087,14
2021-09-24 15:20:40.522096,566
2021-09-24 15:20:40.522104,607
2021-09-24 15:20:40.522111,211
2021-09-24 15:20:40.522120,53
2021-09-24 15:20:40.522128,80
2021-09-24 15:20:40.522135,-36
2021-09-24 15:20:40.701175,-109
2021-09-24 15:20:40.701192,-70
2021-09-24 15:20:40.701199,-82
2021-09-24 15:20:40.701204,-123
2021-09-24 15:20:40.701210,-119
2021-09-24 15:20:40.701215,-121
2021-09-24 15:20:40.701221,-145
2021-09-24 15:20:40.701226,-155
2021-09-24 15:20:40.701232,-162
2021-09-24 15:20:40.701237,-182
2021-09-24 15:20:40.701243,-204
2021-09-24 15:20:40.701248,-228
2021-09-24 15:20:40.701253,-255
2021-09-24 15:20:40.701259,-281
2021-09-24 15:20:40.701265,-310
2021-09-24 15:20:40.701270,-349
2021-09-24 15:20:40.701275,-393
2021-09-24 15:20:40.701281,-434
2021-09-24 15:20:40.701286,-468
2021-09-24 15:20:40.701292,-485
2021-09-24 15:20:40.701297,-485
2021-09-24 15:20:40.701303,-463
2021-09-24 15:20:40.701308,-420
2021-09-24 15:20:40.701313,-347
2021-09-24 15:20:40.701319,-233
2021-09-24 15:20:40.701325,-104
2021-09-24 15:20:40.701330,-4
2021-09-24 15:20:40.701335,72
2021-09-24 15:20:40.701341,133
2021-09-24 15:20:40.701346,170
2021-09-24 15:20:41.016419,182
2021-09-24 15:20:41.016472,189
2021-09-24 15:20:41.016480,196
2021-09-24 15:20:41.016487,194
2021-09-24 15:20:41.016493,184
2021-09-24 15:20:41.016500,177
2021-09-24 15:20:41.016506,177
2021-09-24 15:20:41.016513,170
2021-09-24 15:20:41.016519,155
2021-09-24 15:20:41.016525,145
2021-09-24 15:20:41.016532,138
2021-09-24 15:20:41.016538,128
2021-09-24 15:20:41.016545,123
2021-09-24 15:20:41.016551,119
2021-09-24 15:20:41.016558,111
2021-09-24 15:20:41.016564,102
2021-09-24 15:20:41.016571,92
2021-09-24 15:20:41.016577,82
2021-09-24 15:20:41.016583,72
2021-09-24 15:20:41.016590,68
2021-09-24 15:20:41.016596,68
2021-09-24 15:20:41.016603,65
2021-09-24 15:20:41.016609,58
2021-09-24 15:20:41.016615,53
2021-09-24 15:20:41.016622,55
2021-09-24 15:20:41.016628,55
2021-09-24 15:20:41.016635,55
2021-09-24 15:20:41.016641,53
2021-09-24 15:20:41.016648,51
2021-09-24 15:20:41.016654,53
2021-09-24 15:20:41.195524,58
2021-09-24 15:20:41.195547,63
2021-09-24 15:20:41.195555,60
2021-09-24 15:20:41.195561,58
2021-09-24 15:20:41.195568,80
2021-09-24 15:20:41.195575,111
2021-09-24 15:20:41.195581,114
2021-09-24 15:20:41.195588,114
2021-09-24 15:20:41.195594,133
2021-09-24 15:20:41.195601,128
2021-09-24 15:20:41.195607,102
2021-09-24 15:20:41.195614,99
2021-09-24 15:20:41.195621,109
2021-09-24 15:20:41.195627,104
2021-09-24 15:20:41.195634,97
2021-09-24 15:20:41.195641,89
2021-09-24 15:20:41.195647,85
2021-09-24 15:20:41.195654,82
2021-09-24 15:20:41.195661,77
2021-09-24 15:20:41.195667,70
2021-09-24 15:20:41.195674,68
2021-09-24 15:20:41.195680,60
2021-09-24 15:20:41.195687,48
2021-09-24 15:20:41.195693,38
2021-09-24 15:20:41.195700,12
2021-09-24 15:20:41.195707,-14
2021-09-24 15:20:41.195714,-14
2021-09-24 15:20:41.195720,-14
2021-09-24 15:20:41.195727,-26
2021-09-24 15:20:41.195734,-14
2021-09-24 15:20:41.466483,12
2021-09-24 15:20:41.466503,24
2021-09-24 15:20:41.466510,21
2021-09-24 15:20:41.466515,9
2021-09-24 15:20:41.466521,4
2021-09-24 15:20:41.466526,7
2021-09-24 15:20:41.466531,2
2021-09-24 15:20:41.466537,-2
2021-09-24 15:20:41.466542,-4
2021-09-24 15:20:41.466547,-19
2021-09-24 15:20:41.466553,-46
2021-09-24 15:20:41.466558,-104
2021-09-24 15:20:41.466563,-281
2021-09-24 15:20:41.466569,-566
2021-09-24 15:20:41.466574,-692
2021-09-24 15:20:41.466579,-456
2021-09-24 15:20:41.466585,109
2021-09-24 15:20:41.466590,607
2021-09-24 15:20:41.466595,510
2021-09-24 15:20:41.466601,123
2021-09-24 15:20:41.466606,43
2021-09-24 15:20:41.466611,53
2021-09-24 15:20:41.466617,-36
2021-09-24 15:20:41.466622,-21
2021-09-24 15:20:41.466627,29
2021-09-24 15:20:41.466633,-2
2021-09-24 15:20:41.466638,-31
2021-09-24 15:20:41.466643,-43
2021-09-24 15:20:41.466649,-70
2021-09-24 15:20:41.466654,-89
2021-09-24 15:20:41.647007,-97
2021-09-24 15:20:41.647030,-114
2021-09-24 15:20:41.647037,-138
2021-09-24 15:20:41.647044,-162
2021-09-24 15:20:41.647051,-182
2021-09-24 15:20:41.647057,-206
2021-09-24 15:20:41.647064,-233
2021-09-24 15:20:41.647070,-272
2021-09-24 15:20:41.647077,-320
2021-09-24 15:20:41.647083,-361
2021-09-24 15:20:41.647090,-391
2021-09-24 15:20:41.647096,-412
2021-09-24 15:20:41.647103,-429
2021-09-24 15:20:41.647109,-446
2021-09-24 15:20:41.647116,-451
2021-09-24 15:20:41.647122,-405
2021-09-24 15:20:41.647129,-315
2021-09-24 15:20:41.647136,-208
2021-09-24 15:20:41.647142,-102
2021-09-24 15:20:41.647149,-7
2021-09-24 15:20:41.647155,68
2021-09-24 15:20:41.647162,126
2021-09-24 15:20:41.647168,167
2021-09-24 15:20:41.647175,191
2021-09-24 15:20:41.647181,199
2021-09-24 15:20:41.647188,204
2021-09-24 15:20:41.647194,204
2021-09-24 15:20:41.647201,201
2021-09-24 15:20:41.647207,194
2021-09-24 15:20:41.647214,187
2021-09-24 15:20:41.871930,179
2021-09-24 15:20:41.871952,170
2021-09-24 15:20:41.871960,160
2021-09-24 15:20:41.871967,153
2021-09-24 15:20:41.871973,145
2021-09-24 15:20:41.871980,138
2021-09-24 15:20:41.871986,128
2021-09-24 15:20:41.871993,111
2021-09-24 15:20:41.871999,97
2021-09-24 15:20:41.872005,92
2021-09-24 15:20:41.872012,87
2021-09-24 15:20:41.872018,72
2021-09-24 15:20:41.872025,55
2021-09-24 15:20:41.872031,51
2021-09-24 15:20:41.872038,55
2021-09-24 15:20:41.872044,77
2021-09-24 15:20:41.872051,104
2021-09-24 15:20:41.872057,123
2021-09-24 15:20:41.872064,126
2021-09-24 15:20:41.872070,126
2021-09-24 15:20:41.872076,116
2021-09-24 15:20:41.872083,102
2021-09-24 15:20:41.872089,94
2021-09-24 15:20:41.872096,99
2021-09-24 15:20:41.872102,94
2021-09-24 15:20:41.872109,89
2021-09-24 15:20:41.872115,89
2021-09-24 15:20:41.872122,89
2021-09-24 15:20:41.872128,89
2021-09-24 15:20:41.872135,89
2021-09-24 15:20:42.096813,85
2021-09-24 15:20:42.096834,80
2021-09-24 15:20:42.096842,77
2021-09-24 15:20:42.096849,80
2021-09-24 15:20:42.096855,77
2021-09-24 15:20:42.096862,75
2021-09-24 15:20:42.096868,72
2021-09-24 15:20:42.096875,63
2021-09-24 15:20:42.096882,55
2021-09-24 15:20:42.096888,60
2021-09-24 15:20:42.096895,70
2021-09-24 15:20:42.096901,65
2021-09-24 15:20:42.096908,51
2021-09-24 15:20:42.096914,38
2021-09-24 15:20:42.096921,41
2021-09-24 15:20:42.096927,36
2021-09-24 15:20:42.096934,24
2021-09-24 15:20:42.096940,12
2021-09-24 15:20:42.096947,-24
2021-09-24 15:20:42.096954,-46
2021-09-24 15:20:42.096960,-38
2021-09-24 15:20:42.096967,-38
2021-09-24 15:20:42.096973,-38
2021-09-24 15:20:42.096980,-19
2021-09-24 15:20:42.096986,-7
2021-09-24 15:20:42.096993,-2
2021-09-24 15:20:42.096999,2
2021-09-24 15:20:42.097006,9
2021-09-24 15:20:42.097012,4
2021-09-24 15:20:42.097019,-4
2021-09-24 15:20:42.410343,-4
2021-09-24 15:20:42.410372,7
2021-09-24 15:20:42.410386,19
2021-09-24 15:20:42.410402,7
2021-09-24 15:20:42.410412,-41
2021-09-24 15:20:42.410424,-172
2021-09-24 15:20:42.410436,-444
2021-09-24 15:20:42.410448,-680
2021-09-24 15:20:42.410461,-580
2021-09-24 15:20:42.410473,-99
2021-09-24 15:20:42.410483,490
2021-09-24 15:20:42.410494,602
2021-09-24 15:20:42.410504,211
2021-09-24 15:20:42.410515,21
2021-09-24 15:20:42.410526,70
2021-09-24 15:20:42.410536,-34
2021-09-24 15:20:42.410552,-128
2021-09-24 15:20:42.410567,-97
2021-09-24 15:20:42.410578,-109
2021-09-24 15:20:42.410591,-157
2021-09-24 15:20:42.410603,-165
2021-09-24 15:20:42.410615,-170
2021-09-24 15:20:42.410627,-187
2021-09-24 15:20:42.410639,-196
2021-09-24 15:20:42.410652,-206
2021-09-24 15:20:42.410664,-213
2021-09-24 15:20:42.410676,-221
2021-09-24 15:20:42.410688,-228
2021-09-24 15:20:42.410700,-240
2021-09-24 15:20:42.410712,-272
2021-09-24 15:20:42.636445,-320
2021-09-24 15:20:42.636468,-364
2021-09-24 15:20:42.636476,-405
2021-09-24 15:20:42.636514,-444
2021-09-24 15:20:42.636521,-466
2021-09-24 15:20:42.636528,-476
2021-09-24 15:20:42.636534,-480
2021-09-24 15:20:42.636540,-461
2021-09-24 15:20:42.636547,-412
2021-09-24 15:20:42.636553,-335
2021-09-24 15:20:42.636560,-240
2021-09-24 15:20:42.636566,-140
2021-09-24 15:20:42.636573,-41
2021-09-24 15:20:42.636579,48
2021-09-24 15:20:42.636586,121
2021-09-24 15:20:42.636592,174
2021-09-24 15:20:42.636599,206
2021-09-24 15:20:42.636605,218
2021-09-24 15:20:42.636612,218
2021-09-24 15:20:42.636618,221
2021-09-24 15:20:42.636624,213
2021-09-24 15:20:42.636631,196
2021-09-24 15:20:42.636637,179
2021-09-24 15:20:42.636644,174
2021-09-24 15:20:42.636650,177
2021-09-24 15:20:42.636656,167
2021-09-24 15:20:42.636663,150
2021-09-24 15:20:42.636669,138
2021-09-24 15:20:42.636676,128
2021-09-24 15:20:42.636682,109
2021-09-24 15:20:42.772043,92
2021-09-24 15:20:42.772065,87
2021-09-24 15:20:42.772073,97
2021-09-24 15:20:42.772080,92
2021-09-24 15:20:42.772086,75
2021-09-24 15:20:42.772101,68
2021-09-24 15:20:42.772108,65
2021-09-24 15:20:42.772115,60
2021-09-24 15:20:42.772121,60
2021-09-24 15:20:42.772127,60
2021-09-24 15:20:42.772134,48
2021-09-24 15:20:42.772140,41
2021-09-24 15:20:42.772147,60
2021-09-24 15:20:42.772153,80
2021-09-24 15:20:42.772160,72
2021-09-24 15:20:42.772166,65
2021-09-24 15:20:42.772172,65
2021-09-24 15:20:42.772179,60
2021-09-24 15:20:42.772185,68
2021-09-24 15:20:42.772192,104
2021-09-24 15:20:42.772198,150
2021-09-24 15:20:42.772204,170
2021-09-24 15:20:42.772211,165
2021-09-24 15:20:42.772217,167
2021-09-24 15:20:42.772224,162
2021-09-24 15:20:42.772230,148
2021-09-24 15:20:42.772236,131
2021-09-24 15:20:42.772243,109
2021-09-24 15:20:42.772249,102
2021-09-24 15:20:42.772256,106
2021-09-24 15:20:42.996958,92
2021-09-24 15:20:42.996982,72
2021-09-24 15:20:42.996990,60
2021-09-24 15:20:42.996997,51
2021-09-24 15:20:42.997004,34
2021-09-24 15:20:42.997011,38
2021-09-24 15:20:42.997018,68
2021-09-24 15:20:42.997024,82
2021-09-24 15:20:42.997031,80
2021-09-24 15:20:42.997038,75
2021-09-24 15:20:42.997045,60
2021-09-24 15:20:42.997052,51
2021-09-24 15:20:42.997059,55
2021-09-24 15:20:42.997066,72
2021-09-24 15:20:42.997072,80
2021-09-24 15:20:42.997079,60
2021-09-24 15:20:42.997086,34
2021-09-24 15:20:42.997093,0
2021-09-24 15:20:42.997100,-77
2021-09-24 15:20:42.997107,-267
2021-09-24 15:20:42.997114,-495
2021-09-24 15:20:42.997121,-493
2021-09-24 15:20:42.997128,-114
2021-09-24 15:20:42.997134,461
2021-09-24 15:20:42.997142,702
2021-09-24 15:20:42.997149,381
2021-09-24 15:20:42.997156,99
2021-09-24 15:20:42.997163,106
2021-09-24 15:20:42.997169,38
2021-09-24 15:20:42.997176,-80
2021-09-24 15:20:43.311171,-75
2021-09-24 15:20:43.311196,-60
2021-09-24 15:20:43.311204,-104
2021-09-24 15:20:43.311210,-133
2021-09-24 15:20:43.311217,-138
2021-09-24 15:20:43.311223,-138
2021-09-24 15:20:43.311230,-138
2021-09-24 15:20:43.311236,-150
2021-09-24 15:20:43.311243,-179
2021-09-24 15:20:43.311249,-211
2021-09-24 15:20:43.311256,-230
2021-09-24 15:20:43.311262,-250
2021-09-24 15:20:43.311268,-279
2021-09-24 15:20:43.311275,-310
2021-09-24 15:20:43.311281,-352
2021-09-24 15:20:43.311288,-395
2021-09-24 15:20:43.311294,-432
2021-09-24 15:20:43.311301,-459
2021-09-24 15:20:43.311307,-468
2021-09-24 15:20:43.311314,-461
2021-09-24 15:20:43.311320,-446
2021-09-24 15:20:43.311327,-410
2021-09-24 15:20:43.311333,-332
2021-09-24 15:20:43.311339,-225
2021-09-24 15:20:43.311346,-114
2021-09-24 15:20:43.311352,-12
2021-09-24 15:20:43.311359,68
2021-09-24 15:20:43.311365,123
2021-09-24 15:20:43.311372,162
2021-09-24 15:20:43.311378,187
2021-09-24 15:20:43.491950,191
2021-09-24 15:20:43.491976,196
2021-09-24 15:20:43.491984,194
2021-09-24 15:20:43.491991,187
2021-09-24 15:20:43.492000,187
2021-09-24 15:20:43.492007,187
2021-09-24 15:20:43.492013,182
2021-09-24 15:20:43.492020,179
2021-09-24 15:20:43.492026,165
2021-09-24 15:20:43.492032,150
2021-09-24 15:20:43.492039,145
2021-09-24 15:20:43.492045,143
2021-09-24 15:20:43.492052,136
2021-09-24 15:20:43.492058,126
2021-09-24 15:20:43.492064,109
2021-09-24 15:20:43.492071,94
2021-09-24 15:20:43.492077,94
2021-09-24 15:20:43.492084,92
2021-09-24 15:20:43.492090,80
2021-09-24 15:20:43.492096,68
2021-09-24 15:20:43.492103,58
2021-09-24 15:20:43.492109,55
2021-09-24 15:20:43.492116,60
2021-09-24 15:20:43.492122,60
2021-09-24 15:20:43.492128,63
2021-09-24 15:20:43.492135,68
2021-09-24 15:20:43.492141,68
2021-09-24 15:20:43.492148,63
2021-09-24 15:20:43.492154,70
2021-09-24 15:20:43.492160,75
2021-09-24 15:20:43.717026,65
2021-09-24 15:20:43.717050,55
2021-09-24 15:20:43.717058,53
2021-09-24 15:20:43.717064,58
2021-09-24 15:20:43.717071,68
2021-09-24 15:20:43.717077,75
2021-09-24 15:20:43.717084,68
2021-09-24 15:20:43.717090,53
2021-09-24 15:20:43.717097,51
2021-09-24 15:20:43.717103,63
2021-09-24 15:20:43.717109,72
2021-09-24 15:20:43.717116,68
2021-09-24 15:20:43.717122,63
2021-09-24 15:20:43.717129,60
2021-09-24 15:20:43.717135,55
2021-09-24 15:20:43.717142,41
2021-09-24 15:20:43.717148,26
2021-09-24 15:20:43.717154,21
2021-09-24 15:20:43.717161,21
2021-09-24 15:20:43.717167,17
2021-09-24 15:20:43.717174,26
2021-09-24 15:20:43.717180,58
2021-09-24 15:20:43.717186,82
2021-09-24 15:20:43.717193,80
2021-09-24 15:20:43.717199,60
2021-09-24 15:20:43.717206,58
2021-09-24 15:20:43.717212,60
2021-09-24 15:20:43.717219,65
2021-09-24 15:20:43.717225,80
2021-09-24 15:20:43.717232,87
2021-09-24 15:20:43.986302,65
2021-09-24 15:20:43.986326,31
2021-09-24 15:20:43.986334,-17
2021-09-24 15:20:43.986341,-138
2021-09-24 15:20:43.986349,-393
2021-09-24 15:20:43.986356,-600
2021-09-24 15:20:43.986362,-471
2021-09-24 15:20:43.986369,0
2021-09-24 15:20:43.986376,544
2021-09-24 15:20:43.986383,646
2021-09-24 15:20:43.986390,276
2021-09-24 15:20:43.986396,87
2021-09-24 15:20:43.986403,116
2021-09-24 15:20:43.986410,2
2021-09-24 15:20:43.986417,-99
2021-09-24 15:20:43.986424,-60
2021-09-24 15:20:43.986431,-58
2021-09-24 15:20:43.986437,-102
2021-09-24 15:20:43.986476,-99
2021-09-24 15:20:43.986483,-97
2021-09-24 15:20:43.986490,-128
2021-09-24 15:20:43.986497,-136
2021-09-24 15:20:43.986503,-128
2021-09-24 15:20:43.986510,-153
2021-09-24 15:20:43.986517,-177
2021-09-24 15:20:43.986524,-182
2021-09-24 15:20:43.986530,-206
2021-09-24 15:20:43.986537,-252
2021-09-24 15:20:43.986544,-289
2021-09-24 15:20:43.986551,-313
2021-09-24 15:20:44.211904,-342
2021-09-24 15:20:44.211926,-361
2021-09-24 15:20:44.211934,-381
2021-09-24 15:20:44.211941,-403
2021-09-24 15:20:44.211947,-408
2021-09-24 15:20:44.211954,-395
2021-09-24 15:20:44.211960,-359
2021-09-24 15:20:44.211967,-281
2021-09-24 15:20:44.211974,-170
2021-09-24 15:20:44.211980,-55
2021-09-24 15:20:44.211987,48
2021-09-24 15:20:44.211994,131
2021-09-24 15:20:44.212000,187
2021-09-24 15:20:44.212007,225
2021-09-24 15:20:44.212013,250
2021-09-24 15:20:44.212020,255
2021-09-24 15:20:44.212027,250
2021-09-24 15:20:44.212033,240
2021-09-24 15:20:44.212040,230
2021-09-24 15:20:44.212047,228
2021-09-24 15:20:44.212053,223
2021-09-24 15:20:44.212060,208
2021-09-24 15:20:44.212066,196
2021-09-24 15:20:44.212073,191
2021-09-24 15:20:44.212080,184
2021-09-24 15:20:44.212086,174
2021-09-24 15:20:44.212093,167
2021-09-24 15:20:44.212100,155
2021-09-24 15:20:44.212106,148
2021-09-24 15:20:44.212113,138
2021-09-24 15:20:44.436258,128
2021-09-24 15:20:44.436280,123
2021-09-24 15:20:44.436288,123
2021-09-24 15:20:44.436295,138
2021-09-24 15:20:44.436301,153
2021-09-24 15:20:44.436307,153
2021-09-24 15:20:44.436314,150
2021-09-24 15:20:44.436320,160
2021-09-24 15:20:44.436327,170
2021-09-24 15:20:44.436333,162
2021-09-24 15:20:44.436340,153
2021-09-24 15:20:44.436346,143
2021-09-24 15:20:44.436352,133
2021-09-24 15:20:44.436359,121
2021-09-24 15:20:44.436365,106
2021-09-24 15:20:44.436372,99
2021-09-24 15:20:44.436378,94
2021-09-24 15:20:44.436385,85
2021-09-24 15:20:44.436391,80
2021-09-24 15:20:44.436397,85
2021-09-24 15:20:44.436404,87
2021-09-24 15:20:44.436410,82
2021-09-24 15:20:44.436416,77
2021-09-24 15:20:44.436423,75
2021-09-24 15:20:44.436429,72
2021-09-24 15:20:44.436436,72
2021-09-24 15:20:44.436442,75
2021-09-24 15:20:44.436448,72
2021-09-24 15:20:44.436455,46
2021-09-24 15:20:44.436461,14
2021-09-24 15:20:44.706978,-2
2021-09-24 15:20:44.707002,2
2021-09-24 15:20:44.707010,14
2021-09-24 15:20:44.707017,12
2021-09-24 15:20:44.707023,7
2021-09-24 15:20:44.707030,24
2021-09-24 15:20:44.707036,43
2021-09-24 15:20:44.707043,48
2021-09-24 15:20:44.707049,41
2021-09-24 15:20:44.707055,36
2021-09-24 15:20:44.707062,36
2021-09-24 15:20:44.707068,31
2021-09-24 15:20:44.707075,34
2021-09-24 15:20:44.707081,38
2021-09-24 15:20:44.707088,34
2021-09-24 15:20:44.707095,19
2021-09-24 15:20:44.707101,-12
2021-09-24 15:20:44.707108,-97
2021-09-24 15:20:44.707114,-308
2021-09-24 15:20:44.707121,-583
2021-09-24 15:20:44.707127,-609
2021-09-24 15:20:44.707133,-252
2021-09-24 15:20:44.707140,340
2021-09-24 15:20:44.707146,677
2021-09-24 15:20:44.707153,417
2021-09-24 15:20:44.707160,99
2021-09-24 15:20:44.707166,104
2021-09-24 15:20:44.707173,63
2021-09-24 15:20:44.707179,-60
2021-09-24 15:20:44.707186,-58
2021-09-24 15:20:44.886931,-34
2021-09-24 15:20:44.886955,-72
2021-09-24 15:20:44.886963,-87
2021-09-24 15:20:44.886970,-87
2021-09-24 15:20:44.886977,-111
2021-09-24 15:20:44.886984,-128
2021-09-24 15:20:44.886991,-136
2021-09-24 15:20:44.886998,-160
2021-09-24 15:20:44.887005,-187
2021-09-24 15:20:44.887012,-204
2021-09-24 15:20:44.887019,-230
2021-09-24 15:20:44.887026,-262
2021-09-24 15:20:44.887033,-289
2021-09-24 15:20:44.887040,-323
2021-09-24 15:20:44.887046,-366
2021-09-24 15:20:44.887053,-410
2021-09-24 15:20:44.887060,-449
2021-09-24 15:20:44.887067,-478
2021-09-24 15:20:44.887074,-483
2021-09-24 15:20:44.887081,-468
2021-09-24 15:20:44.887088,-437
2021-09-24 15:20:44.887095,-378
2021-09-24 15:20:44.887102,-281
2021-09-24 15:20:44.887109,-160
2021-09-24 15:20:44.887116,-46
2021-09-24 15:20:44.887123,43
2021-09-24 15:20:44.887130,121
2021-09-24 15:20:44.887137,172
2021-09-24 15:20:44.887144,201
2021-09-24 15:20:44.887150,221
2021-09-24 15:20:45.156979,238
2021-09-24 15:20:45.157002,252
2021-09-24 15:20:45.157010,262
2021-09-24 15:20:45.157017,252
2021-09-24 15:20:45.157023,245
2021-09-24 15:20:45.157030,245
2021-09-24 15:20:45.157036,242
2021-09-24 15:20:45.157043,235
2021-09-24 15:20:45.157050,223
2021-09-24 15:20:45.157056,208
2021-09-24 15:20:45.157062,196
2021-09-24 15:20:45.157069,194
2021-09-24 15:20:45.157075,187
2021-09-24 15:20:45.157082,177
2021-09-24 15:20:45.157088,165
2021-09-24 15:20:45.157095,157
2021-09-24 15:20:45.157101,148
2021-09-24 15:20:45.157108,145
2021-09-24 15:20:45.157114,145
2021-09-24 15:20:45.157121,138
2021-09-24 15:20:45.157127,131
2021-09-24 15:20:45.157133,123
2021-09-24 15:20:45.157140,116
2021-09-24 15:20:45.157146,102
2021-09-24 15:20:45.157153,94
2021-09-24 15:20:45.157159,97
2021-09-24 15:20:45.157165,94
2021-09-24 15:20:45.157172,85
2021-09-24 15:20:45.157178,82
2021-09-24 15:20:45.157185,72
2021-09-24 15:20:45.380586,58
2021-09-24 15:20:45.380609,53
2021-09-24 15:20:45.380616,46
2021-09-24 15:20:45.380623,38
2021-09-24 15:20:45.380630,38
2021-09-24 15:20:45.380636,41
2021-09-24 15:20:45.380643,41
2021-09-24 15:20:45.380649,38
2021-09-24 15:20:45.380656,26
2021-09-24 15:20:45.380662,17
2021-09-24 15:20:45.380668,21
2021-09-24 15:20:45.380675,26
2021-09-24 15:20:45.380681,29
2021-09-24 15:20:45.380688,34
2021-09-24 15:20:45.380694,24
2021-09-24 15:20:45.380700,4
2021-09-24 15:20:45.380707,-4
2021-09-24 15:20:45.380713,-4
2021-09-24 15:20:45.380720,-4
2021-09-24 15:20:45.380726,-12
2021-09-24 15:20:45.380733,-21
2021-09-24 15:20:45.380739,-4
2021-09-24 15:20:45.380746,17
2021-09-24 15:20:45.380752,12
2021-09-24 15:20:45.380759,2
2021-09-24 15:20:45.380765,7
2021-09-24 15:20:45.380772,12
2021-09-24 15:20:45.380778,12
2021-09-24 15:20:45.380785,17
2021-09-24 15:20:45.380791,24
2021-09-24 15:20:45.561809,19
2021-09-24 15:20:45.561829,7
2021-09-24 15:20:45.561837,-21
2021-09-24 15:20:45.561844,-99
2021-09-24 15:20:45.561851,-303
2021-09-24 15:20:45.561857,-583
2021-09-24 15:20:45.561864,-641
2021-09-24 15:20:45.561870,-303
2021-09-24 15:20:45.561877,291
2021-09-24 15:20:45.561883,658
2021-09-24 15:20:45.561890,425
2021-09-24 15:20:45.561896,92
2021-09-24 15:20:45.561903,77
2021-09-24 15:20:45.561909,41
2021-09-24 15:20:45.561916,-82
2021-09-24 15:20:45.561923,-72
2021-09-24 15:20:45.561929,-41
2021-09-24 15:20:45.561936,-80
2021-09-24 15:20:45.561942,-77
2021-09-24 15:20:45.561949,-48
2021-09-24 15:20:45.561955,-63
2021-09-24 15:20:45.561962,-85
2021-09-24 15:20:45.561968,-85
2021-09-24 15:20:45.561975,-94
2021-09-24 15:20:45.561981,-126
2021-09-24 15:20:45.561988,-167
2021-09-24 15:20:45.561994,-206
2021-09-24 15:20:45.562001,-235
2021-09-24 15:20:45.562008,-267
2021-09-24 15:20:45.562014,-306
2021-09-24 15:20:45.786473,-347
2021-09-24 15:20:45.786524,-388
2021-09-24 15:20:45.786532,-422
2021-09-24 15:20:45.786539,-442
2021-09-24 15:20:45.786546,-446
2021-09-24 15:20:45.786553,-439
2021-09-24 15:20:45.786559,-415
2021-09-24 15:20:45.786566,-361
2021-09-24 15:20:45.786573,-267
2021-09-24 15:20:45.786579,-155
2021-09-24 15:20:45.786586,-53
2021-09-24 15:20:45.786593,34
2021-09-24 15:20:45.786600,106
2021-09-24 15:20:45.786606,157
2021-09-24 15:20:45.786613,189
2021-09-24 15:20:45.786620,208
2021-09-24 15:20:45.786627,216
2021-09-24 15:20:45.786633,218
2021-09-24 15:20:45.786640,216
2021-09-24 15:20:45.786647,206
2021-09-24 15:20:45.786653,196
2021-09-24 15:20:45.786660,191
2021-09-24 15:20:45.786667,184
2021-09-24 15:20:45.786673,179
2021-09-24 15:20:45.786680,170
2021-09-24 15:20:45.786687,160
2021-09-24 15:20:45.786694,153
2021-09-24 15:20:45.786701,140
2021-09-24 15:20:45.786707,121
2021-09-24 15:20:45.786714,106
2021-09-24 15:20:46.012096,102
2021-09-24 15:20:46.012128,97
2021-09-24 15:20:46.012140,92
2021-09-24 15:20:46.012151,89
2021-09-24 15:20:46.012161,89
2021-09-24 15:20:46.012171,89
2021-09-24 15:20:46.012181,80
2021-09-24 15:20:46.012191,70
2021-09-24 15:20:46.012284,70
2021-09-24 15:20:46.012297,75
2021-09-24 15:20:46.012307,77
2021-09-24 15:20:46.012317,75
2021-09-24 15:20:46.012327,75
2021-09-24 15:20:46.012337,80
2021-09-24 15:20:46.012347,89
2021-09-24 15:20:46.012357,87
2021-09-24 15:20:46.012367,80
2021-09-24 15:20:46.012377,82
2021-09-24 15:20:46.012387,85
2021-09-24 15:20:46.012397,85
2021-09-24 15:20:46.012407,82
2021-09-24 15:20:46.012417,75
2021-09-24 15:20:46.012427,70
2021-09-24 15:20:46.012437,65
2021-09-24 15:20:46.012447,60
2021-09-24 15:20:46.012456,58
2021-09-24 15:20:46.012466,53
2021-09-24 15:20:46.012476,48
2021-09-24 15:20:46.012486,48
2021-09-24 15:20:46.012497,43
2021-09-24 15:20:46.236961,38
2021-09-24 15:20:46.236984,55
2021-09-24 15:20:46.236992,77
2021-09-24 15:20:46.236999,72
2021-09-24 15:20:46.237005,53
2021-09-24 15:20:46.237012,34
2021-09-24 15:20:46.237019,36
2021-09-24 15:20:46.237025,63
2021-09-24 15:20:46.237032,65
2021-09-24 15:20:46.237038,38
2021-09-24 15:20:46.237045,31
2021-09-24 15:20:46.237051,55
2021-09-24 15:20:46.237058,97
2021-09-24 15:20:46.237064,128
2021-09-24 15:20:46.237071,128
2021-09-24 15:20:46.237077,123
2021-09-24 15:20:46.237084,119
2021-09-24 15:20:46.237090,87
2021-09-24 15:20:46.237097,68
2021-09-24 15:20:46.237104,70
2021-09-24 15:20:46.237110,60
2021-09-24 15:20:46.237117,24
2021-09-24 15:20:46.237123,-60
2021-09-24 15:20:46.237130,-276
2021-09-24 15:20:46.237136,-563
2021-09-24 15:20:46.237143,-629
2021-09-24 15:20:46.237149,-308
2021-09-24 15:20:46.237156,293
2021-09-24 15:20:46.237163,680
2021-09-24 15:20:46.237169,442
2021-09-24 15:20:46.461896,106
2021-09-24 15:20:46.461919,102
2021-09-24 15:20:46.461928,60
2021-09-24 15:20:46.461935,-80
2021-09-24 15:20:46.461942,-97
2021-09-24 15:20:46.461949,-80
2021-09-24 15:20:46.461955,-123
2021-09-24 15:20:46.461962,-148
2021-09-24 15:20:46.461969,-153
2021-09-24 15:20:46.461976,-179
2021-09-24 15:20:46.461983,-204
2021-09-24 15:20:46.461989,-216
2021-09-24 15:20:46.461996,-228
2021-09-24 15:20:46.462003,-238
2021-09-24 15:20:46.462010,-257
2021-09-24 15:20:46.462017,-284
2021-09-24 15:20:46.462024,-308
2021-09-24 15:20:46.462031,-330
2021-09-24 15:20:46.462037,-364
2021-09-24 15:20:46.462044,-400
2021-09-24 15:20:46.462051,-439
2021-09-24 15:20:46.462058,-468
2021-09-24 15:20:46.462065,-488
2021-09-24 15:20:46.462071,-500
2021-09-24 15:20:46.462078,-493
2021-09-24 15:20:46.462085,-466
2021-09-24 15:20:46.462092,-410
2021-09-24 15:20:46.462099,-313
2021-09-24 15:20:46.462106,-191
2021-09-24 15:20:46.462113,-77
2021-09-24 15:20:46.732028,17
2021-09-24 15:20:46.732058,97
2021-09-24 15:20:46.732070,155
2021-09-24 15:20:46.732080,182
2021-09-24 15:20:46.732090,194
2021-09-24 15:20:46.732100,204
2021-09-24 15:20:46.732110,213
2021-09-24 15:20:46.732120,216
2021-09-24 15:20:46.732130,213
2021-09-24 15:20:46.732140,206
2021-09-24 15:20:46.732150,196
2021-09-24 15:20:46.732160,187
2021-09-24 15:20:46.732170,184
2021-09-24 15:20:46.732180,174
2021-09-24 15:20:46.732189,160
2021-09-24 15:20:46.732199,145
2021-09-24 15:20:46.732209,136
2021-09-24 15:20:46.732219,128
2021-09-24 15:20:46.732229,121
2021-09-24 15:20:46.732239,114
2021-09-24 15:20:46.732249,102
2021-09-24 15:20:46.732259,87
2021-09-24 15:20:46.732269,85
2021-09-24 15:20:46.732279,104
2021-09-24 15:20:46.732289,140
2021-09-24 15:20:46.732298,157
2021-09-24 15:20:46.732308,153
2021-09-24 15:20:46.732318,143
2021-09-24 15:20:46.732328,140
2021-09-24 15:20:46.732338,148
2021-09-24 15:20:46.957010,150
2021-09-24 15:20:46.957034,145
2021-09-24 15:20:46.957042,126
2021-09-24 15:20:46.957048,94
2021-09-24 15:20:46.957055,80
2021-09-24 15:20:46.957061,85
2021-09-24 15:20:46.957068,82
2021-09-24 15:20:46.957074,72
2021-09-24 15:20:46.957081,60
2021-09-24 15:20:46.957087,41
2021-09-24 15:20:46.957094,36
2021-09-24 15:20:46.957100,48
2021-09-24 15:20:46.957107,48
2021-09-24 15:20:46.957113,31
2021-09-24 15:20:46.957120,21
2021-09-24 15:20:46.957126,19
2021-09-24 15:20:46.957133,14
2021-09-24 15:20:46.957139,19
2021-09-24 15:20:46.957146,21
