Time,ECG
2021-09-24 15:05:13.059314,131
2021-09-24 15:05:13.059336,114
2021-09-24 15:05:13.059344,97
2021-09-24 15:05:13.059351,89
2021-09-24 15:05:13.059358,85
2021-09-24 15:05:13.059365,82
2021-09-24 15:05:13.059371,77
2021-09-24 15:05:13.059378,75
2021-09-24 15:05:13.059384,80
2021-09-24 15:05:13.059392,80
2021-09-24 15:05:13.059398,72
2021-09-24 15:05:13.059405,70
2021-09-24 15:05:13.059411,77
2021-09-24 15:05:13.059418,80
2021-09-24 15:05:13.059424,77
2021-09-24 15:05:13.059431,77
2021-09-24 15:05:13.059437,75
2021-09-24 15:05:13.059444,68
2021-09-24 15:05:13.059451,63
2021-09-24 15:05:13.059457,65
2021-09-24 15:05:13.059464,68
2021-09-24 15:05:13.059470,65
2021-09-24 15:05:13.059477,63
2021-09-24 15:05:13.059483,60
2021-09-24 15:05:13.059490,55
2021-09-24 15:05:13.059496,58
2021-09-24 15:05:13.059503,60
2021-09-24 15:05:13.059510,60
2021-09-24 15:05:13.059516,58
2021-09-24 15:05:13.059523,58
2021-09-24 15:05:13.329043,60
2021-09-24 15:05:13.329072,60
2021-09-24 15:05:13.329079,60
2021-09-24 15:05:13.329086,53
2021-09-24 15:05:13.329091,36
2021-09-24 15:05:13.329098,17
2021-09-24 15:05:13.329105,4
2021-09-24 15:05:13.329111,-2
2021-09-24 15:05:13.329117,-4
2021-09-24 15:05:13.329123,0
2021-09-24 15:05:13.329129,14
2021-09-24 15:05:13.329135,24
2021-09-24 15:05:13.329141,31
2021-09-24 15:05:13.329147,34
2021-09-24 15:05:13.329153,34
2021-09-24 15:05:13.329159,29
2021-09-24 15:05:13.329165,26
2021-09-24 15:05:13.329172,26
2021-09-24 15:05:13.329178,29
2021-09-24 15:05:13.329184,29
2021-09-24 15:05:13.329190,14
2021-09-24 15:05:13.329196,-19
2021-09-24 15:05:13.329202,-85
2021-09-24 15:05:13.329208,-264
2021-09-24 15:05:13.329214,-500
2021-09-24 15:05:13.329220,-507
2021-09-24 15:05:13.329226,-140
2021-09-24 15:05:13.329231,412
2021-09-24 15:05:13.329237,638
2021-09-24 15:05:13.329246,325
2021-09-24 15:05:13.509442,60
2021-09-24 15:05:13.509464,80
2021-09-24 15:05:13.509471,24
2021-09-24 15:05:13.509478,-92
2021-09-24 15:05:13.509484,-97
2021-09-24 15:05:13.509491,-87
2021-09-24 15:05:13.509497,-119
2021-09-24 15:05:13.509504,-128
2021-09-24 15:05:13.509510,-133
2021-09-24 15:05:13.509517,-150
2021-09-24 15:05:13.509523,-162
2021-09-24 15:05:13.509530,-167
2021-09-24 15:05:13.509536,-184
2021-09-24 15:05:13.509548,-199
2021-09-24 15:05:13.509554,-208
2021-09-24 15:05:13.509561,-233
2021-09-24 15:05:13.509568,-259
2021-09-24 15:05:13.509574,-276
2021-09-24 15:05:13.509581,-303
2021-09-24 15:05:13.509587,-337
2021-09-24 15:05:13.509594,-364
2021-09-24 15:05:13.509600,-393
2021-09-24 15:05:13.509607,-422
2021-09-24 15:05:13.509613,-432
2021-09-24 15:05:13.509620,-425
2021-09-24 15:05:13.509626,-415
2021-09-24 15:05:13.509632,-378
2021-09-24 15:05:13.509639,-313
2021-09-24 15:05:13.509646,-228
2021-09-24 15:05:13.509666,-121
2021-09-24 15:05:13.689387,-9
2021-09-24 15:05:13.689411,75
2021-09-24 15:05:13.689419,128
2021-09-24 15:05:13.689426,170
2021-09-24 15:05:13.689432,194
2021-09-24 15:05:13.689439,204
2021-09-24 15:05:13.689446,211
2021-09-24 15:05:13.689452,216
2021-09-24 15:05:13.689459,211
2021-09-24 15:05:13.689465,194
2021-09-24 15:05:13.689472,184
2021-09-24 15:05:13.689479,177
2021-09-24 15:05:13.689485,160
2021-09-24 15:05:13.689492,143
2021-09-24 15:05:13.689499,133
2021-09-24 15:05:13.689505,114
2021-09-24 15:05:13.689512,92
2021-09-24 15:05:13.689523,87
2021-09-24 15:05:13.689530,87
2021-09-24 15:05:13.689537,77
2021-09-24 15:05:13.689544,63
2021-09-24 15:05:13.689550,55
2021-09-24 15:05:13.689557,55
2021-09-24 15:05:13.689564,60
2021-09-24 15:05:13.689570,60
2021-09-24 15:05:13.689577,58
2021-09-24 15:05:13.689584,58
2021-09-24 15:05:13.689590,60
2021-09-24 15:05:13.689597,60
2021-09-24 15:05:13.689603,63
2021-09-24 15:05:14.003085,63
2021-09-24 15:05:14.003109,63
2021-09-24 15:05:14.003116,63
2021-09-24 15:05:14.003123,51
2021-09-24 15:05:14.003130,43
2021-09-24 15:05:14.003136,51
2021-09-24 15:05:14.003143,51
2021-09-24 15:05:14.003155,46
2021-09-24 15:05:14.003162,48
2021-09-24 15:05:14.003168,41
2021-09-24 15:05:14.003175,34
2021-09-24 15:05:14.003181,36
2021-09-24 15:05:14.003188,36
2021-09-24 15:05:14.003195,36
2021-09-24 15:05:14.003201,36
2021-09-24 15:05:14.003208,31
2021-09-24 15:05:14.003215,38
2021-09-24 15:05:14.003221,43
2021-09-24 15:05:14.003228,36
2021-09-24 15:05:14.003234,19
2021-09-24 15:05:14.003241,7
2021-09-24 15:05:14.003248,4
2021-09-24 15:05:14.003254,2
2021-09-24 15:05:14.003261,9
2021-09-24 15:05:14.003267,29
2021-09-24 15:05:14.003274,43
2021-09-24 15:05:14.003280,46
2021-09-24 15:05:14.003287,43
2021-09-24 15:05:14.003293,46
2021-09-24 15:05:14.003301,51
2021-09-24 15:05:14.183856,55
2021-09-24 15:05:14.183877,53
2021-09-24 15:05:14.183885,46
2021-09-24 15:05:14.183892,43
2021-09-24 15:05:14.183898,38
2021-09-24 15:05:14.183905,7
2021-09-24 15:05:14.183911,-46
2021-09-24 15:05:14.183918,-177
2021-09-24 15:05:14.183925,-403
2021-09-24 15:05:14.183931,-488
2021-09-24 15:05:14.183938,-218
2021-09-24 15:05:14.183944,298
2021-09-24 15:05:14.183951,651
2021-09-24 15:05:14.183958,463
2021-09-24 15:05:14.183964,102
2021-09-24 15:05:14.183971,41
2021-09-24 15:05:14.183977,38
2021-09-24 15:05:14.183984,-92
2021-09-24 15:05:14.183990,-136
2021-09-24 15:05:14.183997,-102
2021-09-24 15:05:14.184004,-126
2021-09-24 15:05:14.184010,-150
2021-09-24 15:05:14.184017,-140
2021-09-24 15:05:14.184023,-148
2021-09-24 15:05:14.184033,-160
2021-09-24 15:05:14.184039,-165
2021-09-24 15:05:14.184046,-182
2021-09-24 15:05:14.184053,-196
2021-09-24 15:05:14.184059,-201
2021-09-24 15:05:14.184066,-213
2021-09-24 15:05:14.453935,-235
2021-09-24 15:05:14.453956,-259
2021-09-24 15:05:14.453964,-286
2021-09-24 15:05:14.453971,-318
2021-09-24 15:05:14.453978,-349
2021-09-24 15:05:14.453985,-374
2021-09-24 15:05:14.453992,-393
2021-09-24 15:05:14.453998,-415
2021-09-24 15:05:14.454005,-425
2021-09-24 15:05:14.454011,-408
2021-09-24 15:05:14.454018,-369
2021-09-24 15:05:14.454025,-310
2021-09-24 15:05:14.454032,-228
2021-09-24 15:05:14.454038,-128
2021-09-24 15:05:14.454045,-31
2021-09-24 15:05:14.454052,51
2021-09-24 15:05:14.454058,116
2021-09-24 15:05:14.454065,167
2021-09-24 15:05:14.454072,206
2021-09-24 15:05:14.454078,221
2021-09-24 15:05:14.454085,218
2021-09-24 15:05:14.454092,213
2021-09-24 15:05:14.454100,216
2021-09-24 15:05:14.454107,216
2021-09-24 15:05:14.454114,211
2021-09-24 15:05:14.454120,196
2021-09-24 15:05:14.454127,184
2021-09-24 15:05:14.454133,179
2021-09-24 15:05:14.454140,172
2021-09-24 15:05:14.454146,162
2021-09-24 15:05:14.634115,153
2021-09-24 15:05:14.634145,140
2021-09-24 15:05:14.634159,128
2021-09-24 15:05:14.634172,123
2021-09-24 15:05:14.634184,123
2021-09-24 15:05:14.634195,119
2021-09-24 15:05:14.634205,109
2021-09-24 15:05:14.634216,99
2021-09-24 15:05:14.634229,92
2021-09-24 15:05:14.634240,89
2021-09-24 15:05:14.634252,85
2021-09-24 15:05:14.634264,85
2021-09-24 15:05:14.634276,82
2021-09-24 15:05:14.634289,75
2021-09-24 15:05:14.634396,70
2021-09-24 15:05:14.634415,72
2021-09-24 15:05:14.634422,72
2021-09-24 15:05:14.634429,70
2021-09-24 15:05:14.634436,58
2021-09-24 15:05:14.634443,51
2021-09-24 15:05:14.634449,53
2021-09-24 15:05:14.634456,55
2021-09-24 15:05:14.634463,53
2021-09-24 15:05:14.634469,43
2021-09-24 15:05:14.634481,34
2021-09-24 15:05:14.634488,36
2021-09-24 15:05:14.634494,36
2021-09-24 15:05:14.634501,34
2021-09-24 15:05:14.634508,38
2021-09-24 15:05:14.634514,46
2021-09-24 15:05:14.904397,53
2021-09-24 15:05:14.904421,48
2021-09-24 15:05:14.904428,36
2021-09-24 15:05:14.904435,26
2021-09-24 15:05:14.904442,19
2021-09-24 15:05:14.904448,12
2021-09-24 15:05:14.904455,-2
2021-09-24 15:05:14.904462,-2
2021-09-24 15:05:14.904468,26
2021-09-24 15:05:14.904475,43
2021-09-24 15:05:14.904481,38
2021-09-24 15:05:14.904488,36
2021-09-24 15:05:14.904494,26
2021-09-24 15:05:14.904501,12
2021-09-24 15:05:14.904507,7
2021-09-24 15:05:14.904514,2
2021-09-24 15:05:14.904520,-7
2021-09-24 15:05:14.904527,-17
2021-09-24 15:05:14.904533,-26
2021-09-24 15:05:14.904540,-58
2021-09-24 15:05:14.904546,-131
2021-09-24 15:05:14.904553,-293
2021-09-24 15:05:14.904559,-512
2021-09-24 15:05:14.904566,-536
2021-09-24 15:05:14.904573,-218
2021-09-24 15:05:14.904579,301
2021-09-24 15:05:14.904586,609
2021-09-24 15:05:14.904592,383
2021-09-24 15:05:14.904599,63
2021-09-24 15:05:14.904606,48
2021-09-24 15:05:15.084103,19
2021-09-24 15:05:15.084132,-106
2021-09-24 15:05:15.084147,-119
2021-09-24 15:05:15.084160,-87
2021-09-24 15:05:15.084172,-116
2021-09-24 15:05:15.084184,-138
2021-09-24 15:05:15.084196,-136
2021-09-24 15:05:15.084208,-145
2021-09-24 15:05:15.084220,-157
2021-09-24 15:05:15.084232,-160
2021-09-24 15:05:15.084244,-170
2021-09-24 15:05:15.084256,-189
2021-09-24 15:05:15.084268,-211
2021-09-24 15:05:15.084281,-218
2021-09-24 15:05:15.084293,-233
2021-09-24 15:05:15.084304,-259
2021-09-24 15:05:15.084316,-291
2021-09-24 15:05:15.084327,-325
2021-09-24 15:05:15.084339,-359
2021-09-24 15:05:15.084350,-388
2021-09-24 15:05:15.084362,-410
2021-09-24 15:05:15.084375,-429
2021-09-24 15:05:15.084386,-437
2021-09-24 15:05:15.084397,-425
2021-09-24 15:05:15.084408,-391
2021-09-24 15:05:15.084420,-323
2021-09-24 15:05:15.084432,-225
2021-09-24 15:05:15.084443,-119
2021-09-24 15:05:15.084454,-24
2021-09-24 15:05:15.084465,53
2021-09-24 15:05:15.309517,133
2021-09-24 15:05:15.309541,187
2021-09-24 15:05:15.309549,208
2021-09-24 15:05:15.309556,223
2021-09-24 15:05:15.309562,230
2021-09-24 15:05:15.309569,223
2021-09-24 15:05:15.309576,223
2021-09-24 15:05:15.309582,225
2021-09-24 15:05:15.309589,218
2021-09-24 15:05:15.309595,206
2021-09-24 15:05:15.309607,196
2021-09-24 15:05:15.309614,182
2021-09-24 15:05:15.309620,170
2021-09-24 15:05:15.309627,157
2021-09-24 15:05:15.309633,145
2021-09-24 15:05:15.309640,136
2021-09-24 15:05:15.309646,128
2021-09-24 15:05:15.309653,119
2021-09-24 15:05:15.309660,116
2021-09-24 15:05:15.309666,114
2021-09-24 15:05:15.309673,106
2021-09-24 15:05:15.309679,99
2021-09-24 15:05:15.309686,97
2021-09-24 15:05:15.309693,92
2021-09-24 15:05:15.309699,85
2021-09-24 15:05:15.309706,87
2021-09-24 15:05:15.309714,92
2021-09-24 15:05:15.309721,87
2021-09-24 15:05:15.309727,82
2021-09-24 15:05:15.309734,82
2021-09-24 15:05:15.624532,80
2021-09-24 15:05:15.624557,72
2021-09-24 15:05:15.624566,70
2021-09-24 15:05:15.624574,70
2021-09-24 15:05:15.624581,60
2021-09-24 15:05:15.624589,55
2021-09-24 15:05:15.624596,63
2021-09-24 15:05:15.624603,65
2021-09-24 15:05:15.624611,60
2021-09-24 15:05:15.624618,53
2021-09-24 15:05:15.624625,48
2021-09-24 15:05:15.624633,46
2021-09-24 15:05:15.624640,51
2021-09-24 15:05:15.624647,51
2021-09-24 15:05:15.624654,51
2021-09-24 15:05:15.624662,48
2021-09-24 15:05:15.624669,55
2021-09-24 15:05:15.624676,65
2021-09-24 15:05:15.624699,63
2021-09-24 15:05:15.624706,51
2021-09-24 15:05:15.624713,31
2021-09-24 15:05:15.624720,17
2021-09-24 15:05:15.624726,19
2021-09-24 15:05:15.624733,19
2021-09-24 15:05:15.624740,14
2021-09-24 15:05:15.624750,24
2021-09-24 15:05:15.624757,36
2021-09-24 15:05:15.624764,41
2021-09-24 15:05:15.624771,46
2021-09-24 15:05:15.624778,51
2021-09-24 15:05:15.804656,53
2021-09-24 15:05:15.804680,55
2021-09-24 15:05:15.804688,55
2021-09-24 15:05:15.804726,46
2021-09-24 15:05:15.804733,34
2021-09-24 15:05:15.804740,31
2021-09-24 15:05:15.804746,19
2021-09-24 15:05:15.804753,-24
2021-09-24 15:05:15.804759,-131
2021-09-24 15:05:15.804766,-359
2021-09-24 15:05:15.804772,-553
2021-09-24 15:05:15.804779,-422
2021-09-24 15:05:15.804786,26
2021-09-24 15:05:15.804792,522
2021-09-24 15:05:15.804799,619
2021-09-24 15:05:15.804805,257
2021-09-24 15:05:15.804812,46
2021-09-24 15:05:15.804818,75
2021-09-24 15:05:15.804825,-14
2021-09-24 15:05:15.804831,-104
2021-09-24 15:05:15.804838,-77
2021-09-24 15:05:15.804844,-85
2021-09-24 15:05:15.804851,-123
2021-09-24 15:05:15.804857,-116
2021-09-24 15:05:15.804864,-116
2021-09-24 15:05:15.804870,-136
2021-09-24 15:05:15.804877,-145
2021-09-24 15:05:15.804883,-157
2021-09-24 15:05:15.804890,-172
2021-09-24 15:05:15.804896,-184
2021-09-24 15:05:16.073103,-194
2021-09-24 15:05:16.073127,-213
2021-09-24 15:05:16.073135,-238
2021-09-24 15:05:16.073142,-267
2021-09-24 15:05:16.073148,-296
2021-09-24 15:05:16.073155,-327
2021-09-24 15:05:16.073162,-359
2021-09-24 15:05:16.073169,-391
2021-09-24 15:05:16.073175,-420
2021-09-24 15:05:16.073182,-437
2021-09-24 15:05:16.073189,-429
2021-09-24 15:05:16.073195,-405
2021-09-24 15:05:16.073202,-364
2021-09-24 15:05:16.073209,-291
2021-09-24 15:05:16.073215,-194
2021-09-24 15:05:16.073222,-89
2021-09-24 15:05:16.073232,19
2021-09-24 15:05:16.073239,106
2021-09-24 15:05:16.073245,170
2021-09-24 15:05:16.073252,213
2021-09-24 15:05:16.073259,238
2021-09-24 15:05:16.073266,245
2021-09-24 15:05:16.073272,250
2021-09-24 15:05:16.073279,252
2021-09-24 15:05:16.073285,250
2021-09-24 15:05:16.073292,245
2021-09-24 15:05:16.073299,235
2021-09-24 15:05:16.073305,225
2021-09-24 15:05:16.073312,218
2021-09-24 15:05:16.073319,206
2021-09-24 15:05:16.254847,191
2021-09-24 15:05:16.254889,177
2021-09-24 15:05:16.254899,167
2021-09-24 15:05:16.254906,153
2021-09-24 15:05:16.254913,138
2021-09-24 15:05:16.254919,133
2021-09-24 15:05:16.254927,131
2021-09-24 15:05:16.254933,119
2021-09-24 15:05:16.254939,102
2021-09-24 15:05:16.254946,87
2021-09-24 15:05:16.254952,80
2021-09-24 15:05:16.254958,85
2021-09-24 15:05:16.254965,89
2021-09-24 15:05:16.254973,85
2021-09-24 15:05:16.254979,77
2021-09-24 15:05:16.254985,77
2021-09-24 15:05:16.254991,82
2021-09-24 15:05:16.255005,85
2021-09-24 15:05:16.255015,82
2021-09-24 15:05:16.255021,75
2021-09-24 15:05:16.255029,70
2021-09-24 15:05:16.255035,68
2021-09-24 15:05:16.255042,63
2021-09-24 15:05:16.255049,65
2021-09-24 15:05:16.255056,65
2021-09-24 15:05:16.255064,60
2021-09-24 15:05:16.255071,58
2021-09-24 15:05:16.255078,58
2021-09-24 15:05:16.255084,60
2021-09-24 15:05:16.255091,63
2021-09-24 15:05:16.479458,60
2021-09-24 15:05:16.479483,60
2021-09-24 15:05:16.479491,53
2021-09-24 15:05:16.479498,46
2021-09-24 15:05:16.479505,53
2021-09-24 15:05:16.479512,60
2021-09-24 15:05:16.479519,53
2021-09-24 15:05:16.479526,31
2021-09-24 15:05:16.479533,9
2021-09-24 15:05:16.479540,2
2021-09-24 15:05:16.479547,14
2021-09-24 15:05:16.479554,14
2021-09-24 15:05:16.479561,2
2021-09-24 15:05:16.479572,9
2021-09-24 15:05:16.479579,29
2021-09-24 15:05:16.479586,43
2021-09-24 15:05:16.479593,46
2021-09-24 15:05:16.479600,46
2021-09-24 15:05:16.479607,43
2021-09-24 15:05:16.479614,43
2021-09-24 15:05:16.479621,46
2021-09-24 15:05:16.479628,48
2021-09-24 15:05:16.479634,51
2021-09-24 15:05:16.479641,46
2021-09-24 15:05:16.479648,31
2021-09-24 15:05:16.479655,-9
2021-09-24 15:05:16.479662,-109
2021-09-24 15:05:16.479670,-335
2021-09-24 15:05:16.479677,-539
2021-09-24 15:05:16.479684,-425
2021-09-24 15:05:16.749869,31
2021-09-24 15:05:16.749889,546
2021-09-24 15:05:16.749896,643
2021-09-24 15:05:16.749902,276
2021-09-24 15:05:16.749908,58
2021-09-24 15:05:16.749913,77
2021-09-24 15:05:16.749925,-19
2021-09-24 15:05:16.749931,-111
2021-09-24 15:05:16.749937,-80
2021-09-24 15:05:16.749943,-80
2021-09-24 15:05:16.749949,-116
2021-09-24 15:05:16.749957,-116
2021-09-24 15:05:16.749963,-121
2021-09-24 15:05:16.749968,-145
2021-09-24 15:05:16.749974,-157
2021-09-24 15:05:16.749980,-174
2021-09-24 15:05:16.749986,-191
2021-09-24 15:05:16.749992,-201
2021-09-24 15:05:16.749997,-216
2021-09-24 15:05:16.750003,-238
2021-09-24 15:05:16.750009,-257
2021-09-24 15:05:16.750015,-284
2021-09-24 15:05:16.750020,-313
2021-09-24 15:05:16.750026,-344
2021-09-24 15:05:16.750032,-378
2021-09-24 15:05:16.750038,-405
2021-09-24 15:05:16.750043,-422
2021-09-24 15:05:16.750049,-434
2021-09-24 15:05:16.750055,-432
2021-09-24 15:05:16.750060,-412
2021-09-24 15:05:16.929334,-369
2021-09-24 15:05:16.929356,-293
2021-09-24 15:05:16.929363,-189
2021-09-24 15:05:16.929370,-80
2021-09-24 15:05:16.929377,21
2021-09-24 15:05:16.929383,106
2021-09-24 15:05:16.929390,167
2021-09-24 15:05:16.929396,206
2021-09-24 15:05:16.929403,240
2021-09-24 15:05:16.929409,250
2021-09-24 15:05:16.929416,247
2021-09-24 15:05:16.929422,242
2021-09-24 15:05:16.929429,240
2021-09-24 15:05:16.929435,235
2021-09-24 15:05:16.929442,228
2021-09-24 15:05:16.929448,216
2021-09-24 15:05:16.929455,206
2021-09-24 15:05:16.929465,191
2021-09-24 15:05:16.929471,174
2021-09-24 15:05:16.929478,167
2021-09-24 15:05:16.929484,160
2021-09-24 15:05:16.929491,143
2021-09-24 15:05:16.929497,131
2021-09-24 15:05:16.929504,123
2021-09-24 15:05:16.929510,116
2021-09-24 15:05:16.929517,111
2021-09-24 15:05:16.929523,109
2021-09-24 15:05:16.929530,104
2021-09-24 15:05:16.929537,99
2021-09-24 15:05:16.929543,99
2021-09-24 15:05:17.199001,99
2021-09-24 15:05:17.199021,102
2021-09-24 15:05:17.199027,102
2021-09-24 15:05:17.199033,99
2021-09-24 15:05:17.199038,97
2021-09-24 15:05:17.199044,89
2021-09-24 15:05:17.199049,82
2021-09-24 15:05:17.199054,77
2021-09-24 15:05:17.199060,65
2021-09-24 15:05:17.199065,53
2021-09-24 15:05:17.199070,51
2021-09-24 15:05:17.199075,43
2021-09-24 15:05:17.199081,41
2021-09-24 15:05:17.199086,48
2021-09-24 15:05:17.199091,48
2021-09-24 15:05:17.199097,46
2021-09-24 15:05:17.199102,48
2021-09-24 15:05:17.199107,46
2021-09-24 15:05:17.199112,46
2021-09-24 15:05:17.199118,51
2021-09-24 15:05:17.199123,41
2021-09-24 15:05:17.199128,26
2021-09-24 15:05:17.199133,21
2021-09-24 15:05:17.199139,29
2021-09-24 15:05:17.199144,34
2021-09-24 15:05:17.199149,36
2021-09-24 15:05:17.199155,26
2021-09-24 15:05:17.199160,4
2021-09-24 15:05:17.199165,-7
2021-09-24 15:05:17.199171,2
2021-09-24 15:05:17.380140,2
2021-09-24 15:05:17.380165,-7
2021-09-24 15:05:17.380178,2
2021-09-24 15:05:17.380189,21
2021-09-24 15:05:17.380201,29
2021-09-24 15:05:17.380210,31
2021-09-24 15:05:17.380217,34
2021-09-24 15:05:17.380223,36
2021-09-24 15:05:17.380230,36
2021-09-24 15:05:17.380236,36
2021-09-24 15:05:17.380243,31
2021-09-24 15:05:17.380249,26
2021-09-24 15:05:17.380256,26
2021-09-24 15:05:17.380263,21
2021-09-24 15:05:17.380274,-9
2021-09-24 15:05:17.380285,-92
2021-09-24 15:05:17.380297,-286
2021-09-24 15:05:17.380307,-524
2021-09-24 15:05:17.380319,-524
2021-09-24 15:05:17.380331,-150
2021-09-24 15:05:17.380342,400
2021-09-24 15:05:17.380354,660
2021-09-24 15:05:17.380419,374
2021-09-24 15:05:17.380436,75
2021-09-24 15:05:17.380449,72
2021-09-24 15:05:17.380460,24
2021-09-24 15:05:17.380472,-94
2021-09-24 15:05:17.380484,-92
2021-09-24 15:05:17.380495,-75
2021-09-24 15:05:17.380511,-109
2021-09-24 15:05:17.693757,-119
2021-09-24 15:05:17.693777,-114
2021-09-24 15:05:17.693783,-131
2021-09-24 15:05:17.693789,-150
2021-09-24 15:05:17.693794,-160
2021-09-24 15:05:17.693799,-167
2021-09-24 15:05:17.693804,-182
2021-09-24 15:05:17.693809,-199
2021-09-24 15:05:17.693815,-221
2021-09-24 15:05:17.693820,-247
2021-09-24 15:05:17.693825,-274
2021-09-24 15:05:17.693830,-301
2021-09-24 15:05:17.693835,-335
2021-09-24 15:05:17.693840,-374
2021-09-24 15:05:17.693846,-403
2021-09-24 15:05:17.693851,-425
2021-09-24 15:05:17.693856,-444
2021-09-24 15:05:17.693861,-444
2021-09-24 15:05:17.693866,-425
2021-09-24 15:05:17.693871,-388
2021-09-24 15:05:17.693880,-327
2021-09-24 15:05:17.693889,-238
2021-09-24 15:05:17.693898,-123
2021-09-24 15:05:17.693907,-17
2021-09-24 15:05:17.693916,72
2021-09-24 15:05:17.693926,140
2021-09-24 15:05:17.693935,177
2021-09-24 15:05:17.693943,196
2021-09-24 15:05:17.693952,218
2021-09-24 15:05:17.693960,233
2021-09-24 15:05:17.874238,230
2021-09-24 15:05:17.874262,230
2021-09-24 15:05:17.874270,228
2021-09-24 15:05:17.874277,216
2021-09-24 15:05:17.874284,201
2021-09-24 15:05:17.874290,191
2021-09-24 15:05:17.874297,182
2021-09-24 15:05:17.874303,172
2021-09-24 15:05:17.874310,153
2021-09-24 15:05:17.874316,133
2021-09-24 15:05:17.874323,126
2021-09-24 15:05:17.874329,123
2021-09-24 15:05:17.874336,111
2021-09-24 15:05:17.874343,104
2021-09-24 15:05:17.874349,104
2021-09-24 15:05:17.874355,92
2021-09-24 15:05:17.874362,85
2021-09-24 15:05:17.874368,89
2021-09-24 15:05:17.874375,92
2021-09-24 15:05:17.874381,89
2021-09-24 15:05:17.874388,82
2021-09-24 15:05:17.874395,72
2021-09-24 15:05:17.874401,72
2021-09-24 15:05:17.874407,75
2021-09-24 15:05:17.874414,70
2021-09-24 15:05:17.874420,65
2021-09-24 15:05:17.874427,65
2021-09-24 15:05:17.874433,65
2021-09-24 15:05:17.874440,63
2021-09-24 15:05:17.874446,65
2021-09-24 15:05:18.188011,68
2021-09-24 15:05:18.188039,68
2021-09-24 15:05:18.188047,58
2021-09-24 15:05:18.188054,51
2021-09-24 15:05:18.188060,55
2021-09-24 15:05:18.188067,60
2021-09-24 15:05:18.188074,58
2021-09-24 15:05:18.188080,53
2021-09-24 15:05:18.188087,43
2021-09-24 15:05:18.188093,41
2021-09-24 15:05:18.188100,43
2021-09-24 15:05:18.188106,46
2021-09-24 15:05:18.188113,38
2021-09-24 15:05:18.188119,34
2021-09-24 15:05:18.188126,29
2021-09-24 15:05:18.188133,26
2021-09-24 15:05:18.188139,26
2021-09-24 15:05:18.188146,21
2021-09-24 15:05:18.188152,4
2021-09-24 15:05:18.188159,-14
2021-09-24 15:05:18.188169,-14
2021-09-24 15:05:18.188175,-12
2021-09-24 15:05:18.188182,-19
2021-09-24 15:05:18.188189,-4
2021-09-24 15:05:18.188195,19
2021-09-24 15:05:18.188202,29
2021-09-24 15:05:18.188208,26
2021-09-24 15:05:18.188215,26
2021-09-24 15:05:18.188221,31
2021-09-24 15:05:18.188228,34
2021-09-24 15:05:18.324078,34
2021-09-24 15:05:18.324098,29
2021-09-24 15:05:18.324104,17
2021-09-24 15:05:18.324110,9
2021-09-24 15:05:18.324115,2
2021-09-24 15:05:18.324120,-29
2021-09-24 15:05:18.324126,-121
2021-09-24 15:05:18.324131,-344
2021-09-24 15:05:18.324136,-573
2021-09-24 15:05:18.324141,-502
2021-09-24 15:05:18.324147,-65
2021-09-24 15:05:18.324152,478
2021-09-24 15:05:18.324157,614
2021-09-24 15:05:18.324162,250
2021-09-24 15:05:18.324168,21
2021-09-24 15:05:18.324173,58
2021-09-24 15:05:18.324178,-19
2021-09-24 15:05:18.324183,-121
2021-09-24 15:05:18.324188,-102
2021-09-24 15:05:18.324194,-97
2021-09-24 15:05:18.324199,-131
2021-09-24 15:05:18.324204,-136
2021-09-24 15:05:18.324209,-131
2021-09-24 15:05:18.324214,-148
2021-09-24 15:05:18.324220,-165
2021-09-24 15:05:18.324225,-174
2021-09-24 15:05:18.324230,-184
2021-09-24 15:05:18.324235,-196
2021-09-24 15:05:18.324240,-211
2021-09-24 15:05:18.324246,-225
2021-09-24 15:05:18.594517,-245
2021-09-24 15:05:18.594542,-276
2021-09-24 15:05:18.594550,-310
2021-09-24 15:05:18.594557,-340
2021-09-24 15:05:18.594564,-366
2021-09-24 15:05:18.594571,-395
2021-09-24 15:05:18.594578,-420
2021-09-24 15:05:18.594585,-432
2021-09-24 15:05:18.594592,-432
2021-09-24 15:05:18.594599,-415
2021-09-24 15:05:18.594605,-374
2021-09-24 15:05:18.594612,-306
2021-09-24 15:05:18.594619,-213
2021-09-24 15:05:18.594626,-109
2021-09-24 15:05:18.594633,-9
2021-09-24 15:05:18.594640,75
2021-09-24 15:05:18.594646,143
2021-09-24 15:05:18.594653,191
2021-09-24 15:05:18.594660,213
2021-09-24 15:05:18.594667,218
2021-09-24 15:05:18.594674,221
2021-09-24 15:05:18.594681,211
2021-09-24 15:05:18.594688,208
2021-09-24 15:05:18.594695,211
2021-09-24 15:05:18.594702,199
2021-09-24 15:05:18.594708,182
2021-09-24 15:05:18.594715,177
2021-09-24 15:05:18.594722,167
2021-09-24 15:05:18.594729,155
2021-09-24 15:05:18.594736,148
2021-09-24 15:05:18.818932,136
2021-09-24 15:05:18.818963,126
2021-09-24 15:05:18.818975,119
2021-09-24 15:05:18.818985,111
2021-09-24 15:05:18.818995,106
2021-09-24 15:05:18.819005,99
2021-09-24 15:05:18.819015,82
2021-09-24 15:05:18.819024,68
2021-09-24 15:05:18.819034,58
2021-09-24 15:05:18.819044,60
2021-09-24 15:05:18.819054,63
2021-09-24 15:05:18.819063,53
2021-09-24 15:05:18.819073,53
2021-09-24 15:05:18.819083,58
2021-09-24 15:05:18.819093,60
2021-09-24 15:05:18.819103,55
2021-09-24 15:05:18.819113,53
2021-09-24 15:05:18.819122,46
2021-09-24 15:05:18.819132,41
2021-09-24 15:05:18.819142,46
2021-09-24 15:05:18.819152,48
2021-09-24 15:05:18.819161,46
2021-09-24 15:05:18.819178,41
2021-09-24 15:05:18.819188,31
2021-09-24 15:05:18.819198,29
2021-09-24 15:05:18.819208,34
2021-09-24 15:05:18.819218,38
2021-09-24 15:05:18.819228,36
2021-09-24 15:05:18.819238,36
2021-09-24 15:05:18.819248,38
2021-09-24 15:05:18.999300,21
2021-09-24 15:05:18.999323,2
2021-09-24 15:05:18.999331,4
2021-09-24 15:05:18.999338,2
2021-09-24 15:05:18.999345,-9
2021-09-24 15:05:18.999352,0
2021-09-24 15:05:18.999358,19
2021-09-24 15:05:18.999365,31
2021-09-24 15:05:18.999372,31
2021-09-24 15:05:18.999378,29
2021-09-24 15:05:18.999385,24
2021-09-24 15:05:18.999391,17
2021-09-24 15:05:18.999398,19
2021-09-24 15:05:18.999404,26
2021-09-24 15:05:18.999411,24
2021-09-24 15:05:18.999417,12
2021-09-24 15:05:18.999424,-7
2021-09-24 15:05:18.999430,-51
2021-09-24 15:05:18.999437,-131
2021-09-24 15:05:18.999443,-296
2021-09-24 15:05:18.999450,-485
2021-09-24 15:05:18.999456,-427
2021-09-24 15:05:18.999462,-7
2021-09-24 15:05:18.999469,524
2021-09-24 15:05:18.999475,634
2021-09-24 15:05:18.999482,255
2021-09-24 15:05:18.999488,31
2021-09-24 15:05:18.999495,65
2021-09-24 15:05:18.999501,-19
2021-09-24 15:05:18.999508,-133
2021-09-24 15:05:19.269411,-116
2021-09-24 15:05:19.269432,-106
2021-09-24 15:05:19.269440,-136
2021-09-24 15:05:19.269447,-145
2021-09-24 15:05:19.269454,-155
2021-09-24 15:05:19.269460,-177
2021-09-24 15:05:19.269467,-179
2021-09-24 15:05:19.269474,-179
2021-09-24 15:05:19.269480,-196
2021-09-24 15:05:19.269487,-218
2021-09-24 15:05:19.269493,-242
2021-09-24 15:05:19.269500,-267
2021-09-24 15:05:19.269507,-293
2021-09-24 15:05:19.269513,-318
2021-09-24 15:05:19.269520,-342
2021-09-24 15:05:19.269527,-378
2021-09-24 15:05:19.269534,-410
2021-09-24 15:05:19.269541,-429
2021-09-24 15:05:19.269547,-446
2021-09-24 15:05:19.269554,-456
2021-09-24 15:05:19.269561,-446
2021-09-24 15:05:19.269567,-422
2021-09-24 15:05:19.269574,-381
2021-09-24 15:05:19.269580,-303
2021-09-24 15:05:19.269587,-196
2021-09-24 15:05:19.269594,-87
2021-09-24 15:05:19.269601,2
2021-09-24 15:05:19.269607,75
2021-09-24 15:05:19.269614,136
2021-09-24 15:05:19.269621,184
2021-09-24 15:05:19.449539,208
2021-09-24 15:05:19.449563,223
2021-09-24 15:05:19.449571,233
2021-09-24 15:05:19.449578,225
2021-09-24 15:05:19.449584,216
2021-09-24 15:05:19.449591,208
2021-09-24 15:05:19.449597,201
2021-09-24 15:05:19.449604,184
2021-09-24 15:05:19.449611,174
2021-09-24 15:05:19.449617,160
2021-09-24 15:05:19.449624,143
2021-09-24 15:05:19.449630,138
2021-09-24 15:05:19.449637,138
2021-09-24 15:05:19.449644,123
2021-09-24 15:05:19.449650,111
2021-09-24 15:05:19.449657,104
2021-09-24 15:05:19.449663,97
2021-09-24 15:05:19.449670,97
2021-09-24 15:05:19.449676,94
2021-09-24 15:05:19.449683,89
2021-09-24 15:05:19.449690,89
2021-09-24 15:05:19.449696,85
2021-09-24 15:05:19.449703,80
2021-09-24 15:05:19.449709,85
2021-09-24 15:05:19.449716,85
2021-09-24 15:05:19.449722,75
2021-09-24 15:05:19.449729,72
2021-09-24 15:05:19.449736,70
2021-09-24 15:05:19.449742,63
2021-09-24 15:05:19.449749,58
2021-09-24 15:05:19.719598,63
2021-09-24 15:05:19.719622,63
2021-09-24 15:05:19.719630,58
2021-09-24 15:05:19.719637,48
2021-09-24 15:05:19.719644,48
2021-09-24 15:05:19.719656,55
2021-09-24 15:05:19.719663,58
2021-09-24 15:05:19.719670,60
2021-09-24 15:05:19.719677,63
2021-09-24 15:05:19.719684,51
2021-09-24 15:05:19.719691,41
2021-09-24 15:05:19.719698,34
2021-09-24 15:05:19.719705,24
2021-09-24 15:05:19.719712,21
2021-09-24 15:05:19.719719,19
2021-09-24 15:05:19.719726,7
2021-09-24 15:05:19.719733,17
2021-09-24 15:05:19.719740,41
2021-09-24 15:05:19.719747,41
2021-09-24 15:05:19.719754,31
2021-09-24 15:05:19.719791,31
2021-09-24 15:05:19.719799,34
2021-09-24 15:05:19.719806,36
2021-09-24 15:05:19.719813,43
2021-09-24 15:05:19.719820,46
2021-09-24 15:05:19.719827,41
2021-09-24 15:05:19.719834,31
2021-09-24 15:05:19.719841,-2
2021-09-24 15:05:19.719848,-55
2021-09-24 15:05:19.719855,-165
2021-09-24 15:05:19.944479,-374
2021-09-24 15:05:19.944503,-505
2021-09-24 15:05:19.944511,-289
2021-09-24 15:05:19.944518,213
2021-09-24 15:05:19.944525,626
2021-09-24 15:05:19.944531,539
2021-09-24 15:05:19.944538,165
2021-09-24 15:05:19.944544,55
2021-09-24 15:05:19.944551,65
2021-09-24 15:05:19.944558,-60
2021-09-24 15:05:19.944564,-123
2021-09-24 15:05:19.944571,-87
2021-09-24 15:05:19.944577,-94
2021-09-24 15:05:19.944584,-128
2021-09-24 15:05:19.944590,-138
2021-09-24 15:05:19.944597,-145
2021-09-24 15:05:19.944604,-155
2021-09-24 15:05:19.944610,-157
2021-09-24 15:05:19.944617,-160
2021-09-24 15:05:19.944623,-177
2021-09-24 15:05:19.944630,-196
2021-09-24 15:05:19.944636,-211
2021-09-24 15:05:19.944643,-223
2021-09-24 15:05:19.944649,-245
2021-09-24 15:05:19.944656,-274
2021-09-24 15:05:19.944663,-306
2021-09-24 15:05:19.944669,-335
2021-09-24 15:05:19.944676,-364
2021-09-24 15:05:19.944682,-388
2021-09-24 15:05:19.944689,-400
2021-09-24 15:05:20.213132,-405
2021-09-24 15:05:20.213155,-403
2021-09-24 15:05:20.213163,-381
2021-09-24 15:05:20.213170,-327
2021-09-24 15:05:20.213177,-238
2021-09-24 15:05:20.213183,-133
2021-09-24 15:05:20.213190,-31
2021-09-24 15:05:20.213197,55
2021-09-24 15:05:20.213203,123
2021-09-24 15:05:20.213210,177
2021-09-24 15:05:20.213217,213
2021-09-24 15:05:20.213223,233
2021-09-24 15:05:20.213230,238
2021-09-24 15:05:20.213237,235
2021-09-24 15:05:20.213243,228
2021-09-24 15:05:20.213250,223
2021-09-24 15:05:20.213257,218
2021-09-24 15:05:20.213263,213
2021-09-24 15:05:20.213270,206
2021-09-24 15:05:20.213276,196
2021-09-24 15:05:20.213283,184
2021-09-24 15:05:20.213290,177
2021-09-24 15:05:20.213296,170
2021-09-24 15:05:20.213303,157
2021-09-24 15:05:20.213309,131
2021-09-24 15:05:20.213316,109
2021-09-24 15:05:20.213323,109
2021-09-24 15:05:20.213329,109
2021-09-24 15:05:20.213336,102
2021-09-24 15:05:20.213342,102
2021-09-24 15:05:20.439696,102
2021-09-24 15:05:20.439728,94
2021-09-24 15:05:20.439740,94
2021-09-24 15:05:20.439750,94
2021-09-24 15:05:20.439760,92
2021-09-24 15:05:20.439770,87
2021-09-24 15:05:20.439813,80
2021-09-24 15:05:20.439823,75
2021-09-24 15:05:20.439833,75
2021-09-24 15:05:20.439843,77
2021-09-24 15:05:20.439853,75
2021-09-24 15:05:20.439863,70
2021-09-24 15:05:20.439873,60
2021-09-24 15:05:20.439883,46
2021-09-24 15:05:20.439892,43
2021-09-24 15:05:20.439902,51
2021-09-24 15:05:20.439912,51
2021-09-24 15:05:20.439922,48
2021-09-24 15:05:20.439932,55
2021-09-24 15:05:20.439942,55
2021-09-24 15:05:20.439952,51
2021-09-24 15:05:20.439962,48
2021-09-24 15:05:20.439972,41
2021-09-24 15:05:20.439982,31
2021-09-24 15:05:20.439992,24
2021-09-24 15:05:20.440002,17
2021-09-24 15:05:20.440012,12
2021-09-24 15:05:20.440022,26
2021-09-24 15:05:20.440033,48
2021-09-24 15:05:20.440043,53
2021-09-24 15:05:20.619663,46
2021-09-24 15:05:20.619689,48
2021-09-24 15:05:20.619725,51
2021-09-24 15:05:20.619733,48
2021-09-24 15:05:20.619740,46
2021-09-24 15:05:20.619747,48
2021-09-24 15:05:20.619754,48
2021-09-24 15:05:20.619761,36
2021-09-24 15:05:20.619767,4
2021-09-24 15:05:20.619774,-53
2021-09-24 15:05:20.619783,-182
2021-09-24 15:05:20.619793,-417
2021-09-24 15:05:20.619800,-536
2021-09-24 15:05:20.619807,-293
2021-09-24 15:05:20.619814,199
2021-09-24 15:05:20.619821,612
2021-09-24 15:05:20.619828,551
2021-09-24 15:05:20.619835,170
2021-09-24 15:05:20.619842,38
2021-09-24 15:05:20.619849,58
2021-09-24 15:05:20.619856,-55
2021-09-24 15:05:20.619863,-119
2021-09-24 15:05:20.619870,-82
2021-09-24 15:05:20.619877,-97
2021-09-24 15:05:20.619884,-128
2021-09-24 15:05:20.619890,-121
2021-09-24 15:05:20.619897,-123
2021-09-24 15:05:20.619904,-145
2021-09-24 15:05:20.619911,-153
2021-09-24 15:05:20.619918,-162
2021-09-24 15:05:20.889649,-187
2021-09-24 15:05:20.889673,-201
2021-09-24 15:05:20.889682,-208
2021-09-24 15:05:20.889689,-228
2021-09-24 15:05:20.889696,-255
2021-09-24 15:05:20.889703,-289
2021-09-24 15:05:20.889710,-320
2021-09-24 15:05:20.889717,-349
2021-09-24 15:05:20.889724,-383
2021-09-24 15:05:20.889730,-417
2021-09-24 15:05:20.889737,-442
2021-09-24 15:05:20.889744,-451
2021-09-24 15:05:20.889751,-446
2021-09-24 15:05:20.889758,-415
2021-09-24 15:05:20.889765,-359
2021-09-24 15:05:20.889771,-274
2021-09-24 15:05:20.889778,-162
2021-09-24 15:05:20.889785,-51
2021-09-24 15:05:20.889792,43
2021-09-24 15:05:20.889799,121
2021-09-24 15:05:20.889806,179
2021-09-24 15:05:20.889813,216
2021-09-24 15:05:20.889852,233
2021-09-24 15:05:20.889858,238
2021-09-24 15:05:20.889865,240
2021-09-24 15:05:20.889872,242
2021-09-24 15:05:20.889879,238
2021-09-24 15:05:20.889885,230
2021-09-24 15:05:20.889892,221
2021-09-24 15:05:20.889899,208
2021-09-24 15:05:21.069559,204
2021-09-24 15:05:21.069582,194
2021-09-24 15:05:21.069590,184
2021-09-24 15:05:21.069597,177
2021-09-24 15:05:21.069603,160
2021-09-24 15:05:21.069610,140
2021-09-24 15:05:21.069617,133
2021-09-24 15:05:21.069623,133
2021-09-24 15:05:21.069630,123
2021-09-24 15:05:21.069636,114
2021-09-24 15:05:21.069643,111
2021-09-24 15:05:21.069650,102
2021-09-24 15:05:21.069656,94
2021-09-24 15:05:21.069663,97
2021-09-24 15:05:21.069669,92
2021-09-24 15:05:21.069676,80
2021-09-24 15:05:21.069683,75
2021-09-24 15:05:21.069689,75
2021-09-24 15:05:21.069696,77
2021-09-24 15:05:21.069702,80
2021-09-24 15:05:21.069709,82
2021-09-24 15:05:21.069715,80
2021-09-24 15:05:21.069722,72
2021-09-24 15:05:21.069729,72
2021-09-24 15:05:21.069735,87
2021-09-24 15:05:21.069742,92
2021-09-24 15:05:21.069748,77
2021-09-24 15:05:21.069755,60
2021-09-24 15:05:21.069762,58
2021-09-24 15:05:21.069768,58
2021-09-24 15:05:21.429074,55
2021-09-24 15:05:21.429097,68
2021-09-24 15:05:21.429105,58
2021-09-24 15:05:21.429112,21
2021-09-24 15:05:21.429119,7
2021-09-24 15:05:21.429126,19
2021-09-24 15:05:21.429133,9
2021-09-24 15:05:21.429140,-14
2021-09-24 15:05:21.429147,-19
2021-09-24 15:05:21.429154,0
2021-09-24 15:05:21.429161,17
2021-09-24 15:05:21.429167,21
2021-09-24 15:05:21.429174,21
2021-09-24 15:05:21.429181,14
2021-09-24 15:05:21.429188,7
2021-09-24 15:05:21.429195,17
2021-09-24 15:05:21.429201,7
2021-09-24 15:05:21.429208,-12
2021-09-24 15:05:21.429215,0
2021-09-24 15:05:21.429222,14
2021-09-24 15:05:21.429229,-19
2021-09-24 15:05:21.429236,-87
2021-09-24 15:05:21.429242,-240
2021-09-24 15:05:21.429249,-480
2021-09-24 15:05:21.429256,-548
2021-09-24 15:05:21.429263,-250
2021-09-24 15:05:21.429270,276
2021-09-24 15:05:21.429277,624
2021-09-24 15:05:21.429284,422
2021-09-24 15:05:21.429291,70
2021-09-24 15:05:21.564560,46
2021-09-24 15:05:21.564584,38
2021-09-24 15:05:21.564592,-99
2021-09-24 15:05:21.564599,-123
2021-09-24 15:05:21.564605,-77
2021-09-24 15:05:21.564612,-94
2021-09-24 15:05:21.564619,-116
2021-09-24 15:05:21.564625,-121
2021-09-24 15:05:21.564632,-140
2021-09-24 15:05:21.564638,-157
2021-09-24 15:05:21.564645,-160
2021-09-24 15:05:21.564658,-177
2021-09-24 15:05:21.564665,-194
2021-09-24 15:05:21.564672,-204
2021-09-24 15:05:21.564679,-213
2021-09-24 15:05:21.564685,-230
2021-09-24 15:05:21.564692,-250
2021-09-24 15:05:21.564698,-279
2021-09-24 15:05:21.564705,-318
2021-09-24 15:05:21.564712,-349
2021-09-24 15:05:21.564718,-386
2021-09-24 15:05:21.564725,-429
2021-09-24 15:05:21.564731,-439
2021-09-24 15:05:21.564738,-429
2021-09-24 15:05:21.564745,-422
2021-09-24 15:05:21.564751,-386
2021-09-24 15:05:21.564758,-315
2021-09-24 15:05:21.564764,-225
2021-09-24 15:05:21.564771,-121
2021-09-24 15:05:21.564778,-9
2021-09-24 15:05:21.789439,82
2021-09-24 15:05:21.789460,138
2021-09-24 15:05:21.789468,170
2021-09-24 15:05:21.789475,201
2021-09-24 15:05:21.789482,230
2021-09-24 15:05:21.789489,235
2021-09-24 15:05:21.789495,233
2021-09-24 15:05:21.789502,235
2021-09-24 15:05:21.789508,225
2021-09-24 15:05:21.789515,213
2021-09-24 15:05:21.789521,194
2021-09-24 15:05:21.789528,167
2021-09-24 15:05:21.789534,162
2021-09-24 15:05:21.789541,157
2021-09-24 15:05:21.789547,128
2021-09-24 15:05:21.789554,126
2021-09-24 15:05:21.789560,136
2021-09-24 15:05:21.789567,114
2021-09-24 15:05:21.789573,94
2021-09-24 15:05:21.789580,97
2021-09-24 15:05:21.789586,89
2021-09-24 15:05:21.789593,82
2021-09-24 15:05:21.789599,77
2021-09-24 15:05:21.789606,55
2021-09-24 15:05:21.789612,53
2021-09-24 15:05:21.789619,87
2021-09-24 15:05:21.789625,106
2021-09-24 15:05:21.789632,92
2021-09-24 15:05:21.789638,92
2021-09-24 15:05:21.789645,99
2021-09-24 15:05:22.014480,92
2021-09-24 15:05:22.014503,80
2021-09-24 15:05:22.014511,68
2021-09-24 15:05:22.014518,72
2021-09-24 15:05:22.014525,65
2021-09-24 15:05:22.014532,43
2021-09-24 15:05:22.014539,53
2021-09-24 15:05:22.014546,82
2021-09-24 15:05:22.014553,82
2021-09-24 15:05:22.014560,80
2021-09-24 15:05:22.014567,99
2021-09-24 15:05:22.014574,87
2021-09-24 15:05:22.014581,46
2021-09-24 15:05:22.014588,14
2021-09-24 15:05:22.014595,4
2021-09-24 15:05:22.014602,-7
2021-09-24 15:05:22.014609,2
2021-09-24 15:05:22.014616,41
2021-09-24 15:05:22.014623,55
2021-09-24 15:05:22.014630,36
2021-09-24 15:05:22.014637,9
2021-09-24 15:05:22.014644,29
2021-09-24 15:05:22.014650,60
2021-09-24 15:05:22.014657,31
2021-09-24 15:05:22.014664,-2
2021-09-24 15:05:22.014671,9
2021-09-24 15:05:22.014678,-7
2021-09-24 15:05:22.014685,-51
2021-09-24 15:05:22.014692,-63
2021-09-24 15:05:22.014699,-131
2021-09-24 15:05:22.283402,-359
2021-09-24 15:05:22.283423,-502
2021-09-24 15:05:22.283430,-315
2021-09-24 15:05:22.283437,80
2021-09-24 15:05:22.283444,485
2021-09-24 15:05:22.283450,558
2021-09-24 15:05:22.283457,250
2021-09-24 15:05:22.283463,2
2021-09-24 15:05:22.283470,-80
2021-09-24 15:05:22.283476,-104
2021-09-24 15:05:22.283483,-34
2021-09-24 15:05:22.283489,-58
2021-09-24 15:05:22.283496,-199
2021-09-24 15:05:22.283502,-245
2021-09-24 15:05:22.283509,-182
2021-09-24 15:05:22.283515,-77
2021-09-24 15:05:22.283522,-72
2021-09-24 15:05:22.283528,-218
2021-09-24 15:05:22.283535,-240
2021-09-24 15:05:22.283541,-199
2021-09-24 15:05:22.283548,-374
2021-09-24 15:05:22.283554,-556
2021-09-24 15:05:22.283561,-493
2021-09-24 15:05:22.283567,-301
2021-09-24 15:05:22.283574,-291
2021-09-24 15:05:22.283580,-468
2021-09-24 15:05:22.283587,-412
2021-09-24 15:05:22.283593,-308
2021-09-24 15:05:22.283600,-432
2021-09-24 15:05:22.283606,-410
2021-09-24 15:05:22.464577,-250
2021-09-24 15:05:22.464601,-255
2021-09-24 15:05:22.464610,-383
2021-09-24 15:05:22.464617,-325
2021-09-24 15:05:22.464624,-165
2021-09-24 15:05:22.464631,-262
2021-09-24 15:05:22.464638,-121
2021-09-24 15:05:22.464645,221
2021-09-24 15:05:22.464652,138
2021-09-24 15:05:22.464659,65
2021-09-24 15:05:22.464666,182
2021-09-24 15:05:22.464673,233
2021-09-24 15:05:22.464680,257
2021-09-24 15:05:22.464687,170
2021-09-24 15:05:22.464694,179
2021-09-24 15:05:22.464701,352
2021-09-24 15:05:22.464708,208
2021-09-24 15:05:22.464715,29
2021-09-24 15:05:22.464721,306
2021-09-24 15:05:22.464728,412
2021-09-24 15:05:22.464735,247
2021-09-24 15:05:22.464742,298
2021-09-24 15:05:22.464749,257
2021-09-24 15:05:22.464756,94
2021-09-24 15:05:22.464763,121
2021-09-24 15:05:22.464769,92
2021-09-24 15:05:22.464776,36
2021-09-24 15:05:22.464783,189
2021-09-24 15:05:22.464790,221
2021-09-24 15:05:22.464797,119
2021-09-24 15:05:22.689500,187
2021-09-24 15:05:22.689524,221
2021-09-24 15:05:22.689532,136
2021-09-24 15:05:22.689539,138
2021-09-24 15:05:22.689546,165
2021-09-24 15:05:22.689552,111
2021-09-24 15:05:22.689559,77
2021-09-24 15:05:22.689565,102
2021-09-24 15:05:22.689578,116
2021-09-24 15:05:22.689585,111
2021-09-24 15:05:22.689592,126
2021-09-24 15:05:22.689598,126
2021-09-24 15:05:22.689605,97
2021-09-24 15:05:22.689611,87
2021-09-24 15:05:22.689618,89
2021-09-24 15:05:22.689625,77
2021-09-24 15:05:22.689631,58
2021-09-24 15:05:22.689638,43
2021-09-24 15:05:22.689644,26
2021-09-24 15:05:22.689651,31
2021-09-24 15:05:22.689657,48
2021-09-24 15:05:22.689664,53
2021-09-24 15:05:22.689670,48
2021-09-24 15:05:22.689685,41
2021-09-24 15:05:22.689692,29
2021-09-24 15:05:22.689699,21
2021-09-24 15:05:22.689705,19
2021-09-24 15:05:22.689712,17
2021-09-24 15:05:22.689719,17
2021-09-24 15:05:22.689744,14
2021-09-24 15:05:22.914411,-2
2021-09-24 15:05:22.914434,-36
2021-09-24 15:05:22.914442,-89
2021-09-24 15:05:22.914449,-216
2021-09-24 15:05:22.914456,-405
2021-09-24 15:05:22.914463,-429
2021-09-24 15:05:22.914470,-126
2021-09-24 15:05:22.914477,335
2021-09-24 15:05:22.914484,529
2021-09-24 15:05:22.914491,272
2021-09-24 15:05:22.914498,14
2021-09-24 15:05:22.914504,17
2021-09-24 15:05:22.914511,-9
2021-09-24 15:05:22.914518,-121
2021-09-24 15:05:22.914525,-136
2021-09-24 15:05:22.914532,-119
2021-09-24 15:05:22.914539,-148
2021-09-24 15:05:22.914546,-160
2021-09-24 15:05:22.914553,-150
2021-09-24 15:05:22.914560,-162
2021-09-24 15:05:22.914566,-177
2021-09-24 15:05:22.914573,-182
2021-09-24 15:05:22.914580,-187
2021-09-24 15:05:22.914587,-204
2021-09-24 15:05:22.914594,-216
2021-09-24 15:05:22.914601,-223
2021-09-24 15:05:22.914608,-240
2021-09-24 15:05:22.914615,-272
2021-09-24 15:05:22.914622,-296
2021-09-24 15:05:22.914629,-315
2021-09-24 15:05:23.183547,-344
2021-09-24 15:05:23.183575,-376
2021-09-24 15:05:23.183583,-388
2021-09-24 15:05:23.183590,-393
2021-09-24 15:05:23.183597,-403
2021-09-24 15:05:23.183604,-403
2021-09-24 15:05:23.183610,-371
2021-09-24 15:05:23.183617,-289
2021-09-24 15:05:23.183624,-174
2021-09-24 15:05:23.183631,-85
2021-09-24 15:05:23.183638,-24
2021-09-24 15:05:23.183645,55
2021-09-24 15:05:23.183651,128
2021-09-24 15:05:23.183658,155
2021-09-24 15:05:23.183665,167
2021-09-24 15:05:23.183672,177
2021-09-24 15:05:23.183679,177
2021-09-24 15:05:23.183685,184
2021-09-24 15:05:23.183692,194
2021-09-24 15:05:23.183699,187
2021-09-24 15:05:23.183706,167
2021-09-24 15:05:23.183712,157
2021-09-24 15:05:23.183719,155
2021-09-24 15:05:23.183726,143
2021-09-24 15:05:23.183733,140
2021-09-24 15:05:23.183739,140
2021-09-24 15:05:23.183746,126
2021-09-24 15:05:23.183753,106
2021-09-24 15:05:23.183760,99
2021-09-24 15:05:23.183767,82
2021-09-24 15:05:23.409653,63
2021-09-24 15:05:23.409677,60
2021-09-24 15:05:23.409685,65
2021-09-24 15:05:23.409691,63
2021-09-24 15:05:23.409698,55
2021-09-24 15:05:23.409705,53
2021-09-24 15:05:23.409711,65
2021-09-24 15:05:23.409718,68
2021-09-24 15:05:23.409724,63
2021-09-24 15:05:23.409731,53
2021-09-24 15:05:23.409737,53
2021-09-24 15:05:23.409744,58
2021-09-24 15:05:23.409751,68
2021-09-24 15:05:23.409757,80
2021-09-24 15:05:23.409764,70
2021-09-24 15:05:23.409770,55
2021-09-24 15:05:23.409777,55
2021-09-24 15:05:23.409783,60
2021-09-24 15:05:23.409790,60
2021-09-24 15:05:23.409828,48
2021-09-24 15:05:23.409835,36
2021-09-24 15:05:23.409841,36
2021-09-24 15:05:23.409848,48
2021-09-24 15:05:23.409854,63
2021-09-24 15:05:23.409861,68
2021-09-24 15:05:23.409867,65
2021-09-24 15:05:23.409874,58
2021-09-24 15:05:23.409880,53
2021-09-24 15:05:23.409887,51
2021-09-24 15:05:23.409893,53
2021-09-24 15:05:23.634548,51
2021-09-24 15:05:23.634572,41
2021-09-24 15:05:23.634581,7
2021-09-24 15:05:23.634588,-38
2021-09-24 15:05:23.634595,-97
2021-09-24 15:05:23.634602,-230
2021-09-24 15:05:23.634609,-342
2021-09-24 15:05:23.634615,-189
2021-09-24 15:05:23.634622,213
2021-09-24 15:05:23.634629,556
2021-09-24 15:05:23.634636,502
2021-09-24 15:05:23.634643,182
2021-09-24 15:05:23.634650,48
2021-09-24 15:05:23.634657,53
2021-09-24 15:05:23.634664,-48
2021-09-24 15:05:23.634671,-140
2021-09-24 15:05:23.634677,-131
2021-09-24 15:05:23.634684,-121
2021-09-24 15:05:23.634691,-145
2021-09-24 15:05:23.634698,-155
2021-09-24 15:05:23.634705,-153
2021-09-24 15:05:23.634712,-165
2021-09-24 15:05:23.634718,-174
2021-09-24 15:05:23.634725,-174
2021-09-24 15:05:23.634732,-179
2021-09-24 15:05:23.634739,-196
2021-09-24 15:05:23.634746,-208
2021-09-24 15:05:23.634753,-225
2021-09-24 15:05:23.634760,-259
2021-09-24 15:05:23.634767,-274
2021-09-24 15:05:23.859545,-284
2021-09-24 15:05:23.859567,-315
2021-09-24 15:05:23.859575,-344
2021-09-24 15:05:23.859582,-374
2021-09-24 15:05:23.859589,-400
2021-09-24 15:05:23.859595,-400
2021-09-24 15:05:23.859602,-381
2021-09-24 15:05:23.859608,-366
2021-09-24 15:05:23.859615,-330
2021-09-24 15:05:23.859621,-242
2021-09-24 15:05:23.859628,-131
2021-09-24 15:05:23.859635,-36
2021-09-24 15:05:23.859641,31
2021-09-24 15:05:23.859648,87
2021-09-24 15:05:23.859655,128
2021-09-24 15:05:23.859661,157
2021-09-24 15:05:23.859668,182
2021-09-24 15:05:23.859674,191
2021-09-24 15:05:23.859681,182
2021-09-24 15:05:23.859687,174
2021-09-24 15:05:23.859694,177
2021-09-24 15:05:23.859700,174
2021-09-24 15:05:23.859707,167
2021-09-24 15:05:23.859718,167
2021-09-24 15:05:23.859725,160
2021-09-24 15:05:23.859731,145
2021-09-24 15:05:23.859738,138
2021-09-24 15:05:23.859745,136
2021-09-24 15:05:23.859752,128
2021-09-24 15:05:23.859758,121
2021-09-24 15:05:24.129266,123
2021-09-24 15:05:24.129288,119
2021-09-24 15:05:24.129295,106
2021-09-24 15:05:24.129303,104
2021-09-24 15:05:24.129310,104
2021-09-24 15:05:24.129316,102
2021-09-24 15:05:24.129323,92
2021-09-24 15:05:24.129329,82
2021-09-24 15:05:24.129336,82
2021-09-24 15:05:24.129342,94
2021-09-24 15:05:24.129349,97
2021-09-24 15:05:24.129355,87
2021-09-24 15:05:24.129362,82
2021-09-24 15:05:24.129368,85
2021-09-24 15:05:24.129375,92
2021-09-24 15:05:24.129382,94
2021-09-24 15:05:24.129388,75
2021-09-24 15:05:24.129395,70
2021-09-24 15:05:24.129401,77
2021-09-24 15:05:24.129408,68
2021-09-24 15:05:24.129414,53
2021-09-24 15:05:24.129421,58
2021-09-24 15:05:24.129427,75
2021-09-24 15:05:24.129434,87
2021-09-24 15:05:24.129440,82
2021-09-24 15:05:24.129447,72
2021-09-24 15:05:24.129453,82
2021-09-24 15:05:24.129460,99
2021-09-24 15:05:24.129466,94
2021-09-24 15:05:24.129473,80
2021-09-24 15:05:24.398301,77
2021-09-24 15:05:24.398326,80
2021-09-24 15:05:24.398334,58
2021-09-24 15:05:24.398341,12
2021-09-24 15:05:24.398348,-48
2021-09-24 15:05:24.398355,-177
2021-09-24 15:05:24.398362,-301
2021-09-24 15:05:24.398369,-172
2021-09-24 15:05:24.398376,221
2021-09-24 15:05:24.398383,592
2021-09-24 15:05:24.398389,568
2021-09-24 15:05:24.398396,211
2021-09-24 15:05:24.398403,43
2021-09-24 15:05:24.398410,72
2021-09-24 15:05:24.398417,-9
2021-09-24 15:05:24.398424,-102
2021-09-24 15:05:24.398430,-97
2021-09-24 15:05:24.398437,-97
2021-09-24 15:05:24.398445,-126
2021-09-24 15:05:24.398451,-133
2021-09-24 15:05:24.398458,-128
2021-09-24 15:05:24.398465,-140
2021-09-24 15:05:24.398472,-153
2021-09-24 15:05:24.398479,-160
2021-09-24 15:05:24.398486,-174
2021-09-24 15:05:24.398492,-182
2021-09-24 15:05:24.398499,-194
2021-09-24 15:05:24.398506,-228
2021-09-24 15:05:24.398513,-255
2021-09-24 15:05:24.398520,-274
2021-09-24 15:05:24.579264,-296
2021-09-24 15:05:24.579287,-320
2021-09-24 15:05:24.579295,-344
2021-09-24 15:05:24.579302,-374
2021-09-24 15:05:24.579309,-386
2021-09-24 15:05:24.579316,-391
2021-09-24 15:05:24.579323,-388
2021-09-24 15:05:24.579330,-357
2021-09-24 15:05:24.579337,-301
2021-09-24 15:05:24.579343,-228
2021-09-24 15:05:24.579350,-138
2021-09-24 15:05:24.579357,-48
2021-09-24 15:05:24.579364,29
2021-09-24 15:05:24.579371,94
2021-09-24 15:05:24.579378,143
2021-09-24 15:05:24.579385,170
2021-09-24 15:05:24.579391,182
2021-09-24 15:05:24.579398,189
2021-09-24 15:05:24.579405,189
2021-09-24 15:05:24.579412,187
2021-09-24 15:05:24.579419,187
2021-09-24 15:05:24.579426,184
2021-09-24 15:05:24.579433,172
2021-09-24 15:05:24.579440,160
2021-09-24 15:05:24.579446,157
2021-09-24 15:05:24.579453,157
2021-09-24 15:05:24.579460,150
2021-09-24 15:05:24.579467,128
2021-09-24 15:05:24.579474,119
2021-09-24 15:05:24.579481,128
2021-09-24 15:05:24.759671,126
2021-09-24 15:05:24.759760,111
2021-09-24 15:05:24.759776,109
2021-09-24 15:05:24.759787,111
2021-09-24 15:05:24.759798,97
2021-09-24 15:05:24.759810,77
2021-09-24 15:05:24.759822,85
2021-09-24 15:05:24.759834,104
2021-09-24 15:05:24.759846,99
2021-09-24 15:05:24.759858,89
2021-09-24 15:05:24.759869,99
2021-09-24 15:05:24.759880,97
2021-09-24 15:05:24.759891,89
2021-09-24 15:05:24.759902,97
2021-09-24 15:05:24.759913,97
2021-09-24 15:05:24.759924,75
2021-09-24 15:05:24.759934,53
2021-09-24 15:05:24.759944,51
2021-09-24 15:05:24.759955,51
2021-09-24 15:05:24.759965,41
2021-09-24 15:05:24.759976,38
2021-09-24 15:05:24.759986,46
2021-09-24 15:05:24.759997,53
2021-09-24 15:05:24.760009,63
2021-09-24 15:05:24.760021,65
2021-09-24 15:05:24.760032,68
2021-09-24 15:05:24.760043,68
2021-09-24 15:05:24.760055,68
2021-09-24 15:05:24.760066,68
2021-09-24 15:05:24.760077,68
2021-09-24 15:05:24.984361,65
2021-09-24 15:05:24.984383,55
2021-09-24 15:05:24.984391,26
2021-09-24 15:05:24.984398,-24
2021-09-24 15:05:24.984408,-123
2021-09-24 15:05:24.984415,-281
2021-09-24 15:05:24.984421,-330
2021-09-24 15:05:24.984428,-89
2021-09-24 15:05:24.984435,342
2021-09-24 15:05:24.984442,634
2021-09-24 15:05:24.984449,478
2021-09-24 15:05:24.984455,143
2021-09-24 15:05:24.984462,72
2021-09-24 15:05:24.984469,77
2021-09-24 15:05:24.984476,-43
2021-09-24 15:05:24.984483,-104
2021-09-24 15:05:24.984490,-80
2021-09-24 15:05:24.984496,-92
2021-09-24 15:05:24.984503,-116
2021-09-24 15:05:24.984510,-116
2021-09-24 15:05:24.984517,-119
2021-09-24 15:05:24.984523,-140
2021-09-24 15:05:24.984530,-153
2021-09-24 15:05:24.984537,-153
2021-09-24 15:05:24.984544,-162
2021-09-24 15:05:24.984550,-172
2021-09-24 15:05:24.984557,-187
2021-09-24 15:05:24.984564,-211
2021-09-24 15:05:24.984571,-233
2021-09-24 15:05:24.984578,-262
2021-09-24 15:05:25.298868,-281
2021-09-24 15:05:25.298889,-301
2021-09-24 15:05:25.298897,-340
2021-09-24 15:05:25.298904,-374
2021-09-24 15:05:25.298910,-381
2021-09-24 15:05:25.298917,-371
2021-09-24 15:05:25.298924,-364
2021-09-24 15:05:25.298930,-337
2021-09-24 15:05:25.298937,-284
2021-09-24 15:05:25.298943,-213
2021-09-24 15:05:25.298950,-123
2021-09-24 15:05:25.298956,-14
2021-09-24 15:05:25.298963,65
2021-09-24 15:05:25.298969,109
2021-09-24 15:05:25.298976,148
2021-09-24 15:05:25.298982,165
2021-09-24 15:05:25.298989,170
2021-09-24 15:05:25.298995,187
2021-09-24 15:05:25.299002,189
2021-09-24 15:05:25.299008,177
2021-09-24 15:05:25.299015,167
2021-09-24 15:05:25.299021,157
2021-09-24 15:05:25.299028,148
2021-09-24 15:05:25.299034,140
2021-09-24 15:05:25.299041,128
2021-09-24 15:05:25.299048,128
2021-09-24 15:05:25.299054,126
2021-09-24 15:05:25.299061,111
2021-09-24 15:05:25.299067,104
2021-09-24 15:05:25.299082,109
2021-09-24 15:05:25.479632,102
2021-09-24 15:05:25.479656,89
2021-09-24 15:05:25.479664,85
2021-09-24 15:05:25.479672,82
2021-09-24 15:05:25.479678,80
2021-09-24 15:05:25.479685,82
2021-09-24 15:05:25.479692,92
2021-09-24 15:05:25.479699,94
2021-09-24 15:05:25.479706,82
2021-09-24 15:05:25.479713,75
2021-09-24 15:05:25.479720,82
2021-09-24 15:05:25.479726,92
2021-09-24 15:05:25.479733,97
2021-09-24 15:05:25.479740,87
2021-09-24 15:05:25.479747,72
2021-09-24 15:05:25.479754,65
2021-09-24 15:05:25.479761,68
2021-09-24 15:05:25.479767,63
2021-09-24 15:05:25.479774,46
2021-09-24 15:05:25.479781,34
2021-09-24 15:05:25.479788,41
2021-09-24 15:05:25.479795,63
2021-09-24 15:05:25.479802,70
2021-09-24 15:05:25.479809,70
2021-09-24 15:05:25.479815,75
2021-09-24 15:05:25.479822,75
2021-09-24 15:05:25.479829,70
2021-09-24 15:05:25.479836,68
2021-09-24 15:05:25.479843,68
2021-09-24 15:05:25.479850,68
2021-09-24 15:05:25.704447,51
2021-09-24 15:05:25.704469,4
2021-09-24 15:05:25.704477,-70
2021-09-24 15:05:25.704484,-206
2021-09-24 15:05:25.704491,-352
2021-09-24 15:05:25.704498,-276
2021-09-24 15:05:25.704504,89
2021-09-24 15:05:25.704511,493
2021-09-24 15:05:25.704518,609
2021-09-24 15:05:25.704524,347
2021-09-24 15:05:25.704531,111
2021-09-24 15:05:25.704537,106
2021-09-24 15:05:25.704544,60
2021-09-24 15:05:25.704551,-53
2021-09-24 15:05:25.704557,-75
2021-09-24 15:05:25.704564,-63
2021-09-24 15:05:25.704570,-82
2021-09-24 15:05:25.704577,-92
2021-09-24 15:05:25.704584,-92
2021-09-24 15:05:25.704590,-102
2021-09-24 15:05:25.704597,-114
2021-09-24 15:05:25.704603,-126
2021-09-24 15:05:25.704610,-133
2021-09-24 15:05:25.704617,-140
2021-09-24 15:05:25.704623,-155
2021-09-24 15:05:25.704630,-174
2021-09-24 15:05:25.704636,-199
2021-09-24 15:05:25.704643,-233
2021-09-24 15:05:25.704650,-262
2021-09-24 15:05:25.704656,-281
2021-09-24 15:05:25.973964,-301
2021-09-24 15:05:25.973986,-327
2021-09-24 15:05:25.973994,-354
2021-09-24 15:05:25.974000,-359
2021-09-24 15:05:25.974007,-347
2021-09-24 15:05:25.974014,-323
2021-09-24 15:05:25.974020,-281
2021-09-24 15:05:25.974027,-213
2021-09-24 15:05:25.974034,-126
2021-09-24 15:05:25.974040,-34
2021-09-24 15:05:25.974047,51
2021-09-24 15:05:25.974054,114
2021-09-24 15:05:25.974060,157
2021-09-24 15:05:25.974067,179
2021-09-24 15:05:25.974073,184
2021-09-24 15:05:25.974080,187
2021-09-24 15:05:25.974086,189
2021-09-24 15:05:25.974093,189
2021-09-24 15:05:25.974099,187
2021-09-24 15:05:25.974106,179
2021-09-24 15:05:25.974113,170
2021-09-24 15:05:25.974119,160
2021-09-24 15:05:25.974126,145
2021-09-24 15:05:25.974132,136
2021-09-24 15:05:25.974139,133
2021-09-24 15:05:25.974145,126
2021-09-24 15:05:25.974152,114
2021-09-24 15:05:25.974158,106
2021-09-24 15:05:25.974165,104
2021-09-24 15:05:25.974171,99
2021-09-24 15:05:26.154775,92
2021-09-24 15:05:26.154799,92
2021-09-24 15:05:26.154807,89
2021-09-24 15:05:26.154814,82
2021-09-24 15:05:26.154821,80
2021-09-24 15:05:26.154827,82
2021-09-24 15:05:26.154834,77
2021-09-24 15:05:26.154841,75
2021-09-24 15:05:26.154847,80
2021-09-24 15:05:26.154854,85
2021-09-24 15:05:26.154860,87
2021-09-24 15:05:26.154867,80
2021-09-24 15:05:26.154874,65
2021-09-24 15:05:26.154880,60
2021-09-24 15:05:26.154887,63
2021-09-24 15:05:26.154893,58
2021-09-24 15:05:26.154900,51
2021-09-24 15:05:26.154907,46
2021-09-24 15:05:26.154913,48
2021-09-24 15:05:26.154920,68
2021-09-24 15:05:26.154927,77
2021-09-24 15:05:26.154964,72
2021-09-24 15:05:26.154971,80
2021-09-24 15:05:26.154977,80
2021-09-24 15:05:26.154984,65
2021-09-24 15:05:26.154990,65
2021-09-24 15:05:26.154997,70
2021-09-24 15:05:26.155003,63
2021-09-24 15:05:26.155010,48
2021-09-24 15:05:26.155017,14
2021-09-24 15:05:26.423365,-60
2021-09-24 15:05:26.423395,-194
2021-09-24 15:05:26.423407,-364
2021-09-24 15:05:26.423417,-335
2021-09-24 15:05:26.423427,-9
2021-09-24 15:05:26.423438,361
2021-09-24 15:05:26.423448,548
2021-09-24 15:05:26.423458,391
2021-09-24 15:05:26.423468,106
2021-09-24 15:05:26.423478,48
2021-09-24 15:05:26.423488,34
2021-09-24 15:05:26.423498,-72
2021-09-24 15:05:26.423508,-106
2021-09-24 15:05:26.423518,-82
2021-09-24 15:05:26.423528,-102
2021-09-24 15:05:26.423537,-119
2021-09-24 15:05:26.423547,-114
2021-09-24 15:05:26.423557,-123
2021-09-24 15:05:26.423567,-136
2021-09-24 15:05:26.423577,-138
2021-09-24 15:05:26.423587,-143
2021-09-24 15:05:26.423597,-155
2021-09-24 15:05:26.423607,-165
2021-09-24 15:05:26.423617,-182
2021-09-24 15:05:26.423627,-204
2021-09-24 15:05:26.423637,-221
2021-09-24 15:05:26.423647,-247
2021-09-24 15:05:26.423657,-286
2021-09-24 15:05:26.423667,-313
2021-09-24 15:05:26.423677,-330
2021-09-24 15:05:26.604774,-349
2021-09-24 15:05:26.604838,-366
2021-09-24 15:05:26.604850,-376
2021-09-24 15:05:26.604860,-361
2021-09-24 15:05:26.604870,-325
2021-09-24 15:05:26.604880,-267
2021-09-24 15:05:26.604890,-170
2021-09-24 15:05:26.604900,-60
2021-09-24 15:05:26.604910,21
2021-09-24 15:05:26.604921,82
2021-09-24 15:05:26.604931,136
2021-09-24 15:05:26.604941,167
2021-09-24 15:05:26.604951,179
2021-09-24 15:05:26.604961,189
2021-09-24 15:05:26.604971,196
2021-09-24 15:05:26.604981,194
2021-09-24 15:05:26.604991,179
2021-09-24 15:05:26.605001,170
2021-09-24 15:05:26.605011,162
2021-09-24 15:05:26.605021,155
2021-09-24 15:05:26.605031,145
2021-09-24 15:05:26.605041,133
2021-09-24 15:05:26.605051,121
2021-09-24 15:05:26.605061,116
2021-09-24 15:05:26.605071,114
2021-09-24 15:05:26.605081,109
2021-09-24 15:05:26.605091,97
2021-09-24 15:05:26.605101,89
2021-09-24 15:05:26.605111,85
2021-09-24 15:05:26.605122,72
2021-09-24 15:05:26.829292,70
2021-09-24 15:05:26.829314,70
2021-09-24 15:05:26.829322,65
2021-09-24 15:05:26.829329,63
2021-09-24 15:05:26.829335,58
2021-09-24 15:05:26.829342,55
2021-09-24 15:05:26.829348,65
2021-09-24 15:05:26.829354,58
2021-09-24 15:05:26.829361,41
2021-09-24 15:05:26.829367,34
2021-09-24 15:05:26.829374,24
2021-09-24 15:05:26.829380,14
2021-09-24 15:05:26.829387,17
2021-09-24 15:05:26.829393,19
2021-09-24 15:05:26.829400,24
2021-09-24 15:05:26.829406,36
2021-09-24 15:05:26.829413,46
2021-09-24 15:05:26.829419,51
2021-09-24 15:05:26.829425,53
2021-09-24 15:05:26.829432,51
2021-09-24 15:05:26.829439,53
2021-09-24 15:05:26.829445,51
2021-09-24 15:05:26.829452,43
2021-09-24 15:05:26.829458,46
2021-09-24 15:05:26.829464,36
2021-09-24 15:05:26.829471,-9
2021-09-24 15:05:26.829477,-89
2021-09-24 15:05:26.829484,-233
2021-09-24 15:05:26.829499,-374
2021-09-24 15:05:26.829506,-259
2021-09-24 15:05:27.143448,104
2021-09-24 15:05:27.143468,461
2021-09-24 15:05:27.143475,566
2021-09-24 15:05:27.143481,308
2021-09-24 15:05:27.143487,53
2021-09-24 15:05:27.143492,51
2021-09-24 15:05:27.143498,12
2021-09-24 15:05:27.143504,-92
2021-09-24 15:05:27.143509,-97
2021-09-24 15:05:27.143515,-85
2021-09-24 15:05:27.143521,-114
2021-09-24 15:05:27.143526,-121
2021-09-24 15:05:27.143532,-114
2021-09-24 15:05:27.143538,-123
2021-09-24 15:05:27.143544,-138
2021-09-24 15:05:27.143549,-145
2021-09-24 15:05:27.143555,-153
2021-09-24 15:05:27.143561,-160
2021-09-24 15:05:27.143566,-170
2021-09-24 15:05:27.143572,-182
2021-09-24 15:05:27.143577,-199
2021-09-24 15:05:27.143583,-228
2021-09-24 15:05:27.143588,-255
2021-09-24 15:05:27.143594,-274
2021-09-24 15:05:27.143599,-301
2021-09-24 15:05:27.143605,-325
2021-09-24 15:05:27.143611,-337
2021-09-24 15:05:27.143616,-347
2021-09-24 15:05:27.143622,-340
2021-09-24 15:05:27.143627,-313
2021-09-24 15:05:27.324146,-264
2021-09-24 15:05:27.324165,-187
2021-09-24 15:05:27.324174,-97
2021-09-24 15:05:27.324180,-12
2021-09-24 15:05:27.324187,63
2021-09-24 15:05:27.324194,128
2021-09-24 15:05:27.324200,179
2021-09-24 15:05:27.324207,206
2021-09-24 15:05:27.324214,213
2021-09-24 15:05:27.324220,208
2021-09-24 15:05:27.324227,206
2021-09-24 15:05:27.324233,208
2021-09-24 15:05:27.324240,204
2021-09-24 15:05:27.324246,189
2021-09-24 15:05:27.324253,167
2021-09-24 15:05:27.324260,155
2021-09-24 15:05:27.324266,153
2021-09-24 15:05:27.324273,148
2021-09-24 15:05:27.324279,138
2021-09-24 15:05:27.324286,128
2021-09-24 15:05:27.324292,114
2021-09-24 15:05:27.324299,97
2021-09-24 15:05:27.324305,87
2021-09-24 15:05:27.324312,87
2021-09-24 15:05:27.324319,85
2021-09-24 15:05:27.324325,80
2021-09-24 15:05:27.324332,70
2021-09-24 15:05:27.324338,65
2021-09-24 15:05:27.324345,65
2021-09-24 15:05:27.324352,68
2021-09-24 15:05:27.549572,72
2021-09-24 15:05:27.549596,77
2021-09-24 15:05:27.549604,72
2021-09-24 15:05:27.549611,65
2021-09-24 15:05:27.549617,60
2021-09-24 15:05:27.549624,53
2021-09-24 15:05:27.549631,43
2021-09-24 15:05:27.549637,36
2021-09-24 15:05:27.549644,19
2021-09-24 15:05:27.549650,17
2021-09-24 15:05:27.549657,43
2021-09-24 15:05:27.549663,63
2021-09-24 15:05:27.549670,63
2021-09-24 15:05:27.549677,55
2021-09-24 15:05:27.549683,51
2021-09-24 15:05:27.549690,48
2021-09-24 15:05:27.549696,51
2021-09-24 15:05:27.549703,55
2021-09-24 15:05:27.549709,55
2021-09-24 15:05:27.549716,41
2021-09-24 15:05:27.549722,0
2021-09-24 15:05:27.549729,-70
2021-09-24 15:05:27.549736,-196
2021-09-24 15:05:27.549742,-349
2021-09-24 15:05:27.549749,-286
2021-09-24 15:05:27.549755,68
2021-09-24 15:05:27.549762,466
2021-09-24 15:05:27.549769,624
2021-09-24 15:05:27.549775,395
2021-09-24 15:05:27.549782,102
2021-09-24 15:05:27.774731,63
2021-09-24 15:05:27.774762,38
2021-09-24 15:05:27.774774,-75
2021-09-24 15:05:27.774784,-89
2021-09-24 15:05:27.774794,-63
2021-09-24 15:05:27.774804,-92
2021-09-24 15:05:27.774814,-119
2021-09-24 15:05:27.774824,-123
2021-09-24 15:05:27.774834,-136
2021-09-24 15:05:27.774844,-148
2021-09-24 15:05:27.774854,-150
2021-09-24 15:05:27.774865,-155
2021-09-24 15:05:27.774875,-170
2021-09-24 15:05:27.774885,-189
2021-09-24 15:05:27.774895,-211
2021-09-24 15:05:27.774905,-225
2021-09-24 15:05:27.774915,-245
2021-09-24 15:05:27.774925,-269
2021-09-24 15:05:27.774935,-296
2021-09-24 15:05:27.774945,-330
2021-09-24 15:05:27.774955,-361
2021-09-24 15:05:27.774965,-376
2021-09-24 15:05:27.774975,-378
2021-09-24 15:05:27.774985,-376
2021-09-24 15:05:27.774995,-359
2021-09-24 15:05:27.775005,-318
2021-09-24 15:05:27.775015,-238
2021-09-24 15:05:27.775025,-136
2021-09-24 15:05:27.775035,-38
2021-09-24 15:05:27.775046,43
2021-09-24 15:05:27.999276,111
2021-09-24 15:05:27.999295,162
2021-09-24 15:05:27.999303,191
2021-09-24 15:05:27.999310,201
2021-09-24 15:05:27.999317,204
2021-09-24 15:05:27.999323,208
2021-09-24 15:05:27.999330,206
2021-09-24 15:05:27.999336,194
2021-09-24 15:05:27.999343,182
2021-09-24 15:05:27.999349,170
2021-09-24 15:05:27.999355,157
2021-09-24 15:05:27.999362,155
2021-09-24 15:05:27.999368,143
2021-09-24 15:05:27.999375,126
2021-09-24 15:05:27.999381,123
2021-09-24 15:05:27.999387,116
2021-09-24 15:05:27.999394,104
2021-09-24 15:05:27.999400,99
2021-09-24 15:05:27.999407,92
2021-09-24 15:05:27.999413,82
2021-09-24 15:05:27.999420,80
2021-09-24 15:05:27.999426,72
2021-09-24 15:05:27.999432,68
2021-09-24 15:05:27.999439,70
2021-09-24 15:05:27.999445,70
2021-09-24 15:05:27.999452,68
2021-09-24 15:05:27.999458,68
2021-09-24 15:05:27.999464,72
2021-09-24 15:05:27.999471,75
2021-09-24 15:05:27.999477,77
2021-09-24 15:05:28.314036,80
2021-09-24 15:05:28.314057,80
2021-09-24 15:05:28.314065,77
2021-09-24 15:05:28.314071,68
2021-09-24 15:05:28.314078,58
2021-09-24 15:05:28.314085,46
2021-09-24 15:05:28.314092,31
2021-09-24 15:05:28.314098,26
2021-09-24 15:05:28.314105,38
2021-09-24 15:05:28.314112,51
2021-09-24 15:05:28.314119,58
2021-09-24 15:05:28.314125,48
2021-09-24 15:05:28.314132,36
2021-09-24 15:05:28.314139,38
2021-09-24 15:05:28.314145,43
2021-09-24 15:05:28.314152,41
2021-09-24 15:05:28.314158,41
2021-09-24 15:05:28.314165,41
2021-09-24 15:05:28.314172,26
2021-09-24 15:05:28.314178,-7
2021-09-24 15:05:28.314185,-72
2021-09-24 15:05:28.314191,-218
2021-09-24 15:05:28.314198,-403
2021-09-24 15:05:28.314205,-371
2021-09-24 15:05:28.314211,-31
2021-09-24 15:05:28.314218,405
2021-09-24 15:05:28.314225,609
2021-09-24 15:05:28.314231,369
2021-09-24 15:05:28.314238,68
2021-09-24 15:05:28.314244,41
2021-09-24 15:05:28.493318,9
2021-09-24 15:05:28.493340,-102
2021-09-24 15:05:28.493348,-106
2021-09-24 15:05:28.493355,-82
2021-09-24 15:05:28.493361,-114
2021-09-24 15:05:28.493368,-136
2021-09-24 15:05:28.493374,-131
2021-09-24 15:05:28.493381,-138
2021-09-24 15:05:28.493387,-150
2021-09-24 15:05:28.493394,-153
2021-09-24 15:05:28.493400,-165
2021-09-24 15:05:28.493407,-179
2021-09-24 15:05:28.493413,-191
2021-09-24 15:05:28.493420,-208
2021-09-24 15:05:28.493426,-230
2021-09-24 15:05:28.493433,-250
2021-09-24 15:05:28.493439,-279
2021-09-24 15:05:28.493446,-318
2021-09-24 15:05:28.493453,-342
2021-09-24 15:05:28.493459,-359
2021-09-24 15:05:28.493466,-376
2021-09-24 15:05:28.493472,-386
2021-09-24 15:05:28.493479,-381
2021-09-24 15:05:28.493485,-364
2021-09-24 15:05:28.493492,-320
2021-09-24 15:05:28.493498,-242
2021-09-24 15:05:28.493505,-145
2021-09-24 15:05:28.493511,-46
2021-09-24 15:05:28.493518,41
2021-09-24 15:05:28.493525,109
2021-09-24 15:05:28.674126,167
2021-09-24 15:05:28.674174,204
2021-09-24 15:05:28.674190,216
2021-09-24 15:05:28.674202,216
2021-09-24 15:05:28.674213,213
2021-09-24 15:05:28.674224,208
2021-09-24 15:05:28.674235,204
2021-09-24 15:05:28.674247,196
2021-09-24 15:05:28.674259,189
2021-09-24 15:05:28.674270,177
2021-09-24 15:05:28.674324,160
2021-09-24 15:05:28.674342,145
2021-09-24 15:05:28.674349,140
2021-09-24 15:05:28.674355,136
2021-09-24 15:05:28.674361,121
2021-09-24 15:05:28.674368,106
2021-09-24 15:05:28.674374,97
2021-09-24 15:05:28.674389,94
2021-09-24 15:05:28.674396,89
2021-09-24 15:05:28.674402,82
2021-09-24 15:05:28.674413,80
2021-09-24 15:05:28.674426,72
2021-09-24 15:05:28.674433,65
2021-09-24 15:05:28.674446,70
2021-09-24 15:05:28.674453,75
2021-09-24 15:05:28.674459,72
2021-09-24 15:05:28.674465,72
2021-09-24 15:05:28.674471,70
2021-09-24 15:05:28.674477,68
2021-09-24 15:05:28.674484,70
2021-09-24 15:05:28.899082,68
2021-09-24 15:05:28.899101,58
2021-09-24 15:05:28.899108,48
2021-09-24 15:05:28.899115,43
2021-09-24 15:05:28.899121,38
2021-09-24 15:05:28.899127,41
2021-09-24 15:05:28.899133,48
2021-09-24 15:05:28.899138,55
2021-09-24 15:05:28.899144,55
2021-09-24 15:05:28.899150,43
2021-09-24 15:05:28.899156,26
2021-09-24 15:05:28.899162,26
2021-09-24 15:05:28.899168,26
2021-09-24 15:05:28.899174,14
2021-09-24 15:05:28.899180,14
2021-09-24 15:05:28.899186,31
2021-09-24 15:05:28.899192,41
2021-09-24 15:05:28.899198,36
2021-09-24 15:05:28.899204,34
2021-09-24 15:05:28.899210,38
2021-09-24 15:05:28.899216,38
2021-09-24 15:05:28.899222,34
2021-09-24 15:05:28.899228,36
2021-09-24 15:05:28.899234,41
2021-09-24 15:05:28.899240,38
2021-09-24 15:05:28.899246,26
2021-09-24 15:05:28.899252,-12
2021-09-24 15:05:28.899258,-114
2021-09-24 15:05:28.899264,-318
2021-09-24 15:05:28.899270,-497
2021-09-24 15:05:29.169671,-381
2021-09-24 15:05:29.169689,53
2021-09-24 15:05:29.169697,517
2021-09-24 15:05:29.169702,553
2021-09-24 15:05:29.169708,201
2021-09-24 15:05:29.169714,41
2021-09-24 15:05:29.169719,75
2021-09-24 15:05:29.169724,-21
2021-09-24 15:05:29.169730,-102
2021-09-24 15:05:29.169735,-75
2021-09-24 15:05:29.169741,-77
2021-09-24 15:05:29.169746,-109
2021-09-24 15:05:29.169752,-109
2021-09-24 15:05:29.169757,-109
2021-09-24 15:05:29.169763,-128
2021-09-24 15:05:29.169768,-140
2021-09-24 15:05:29.169774,-145
2021-09-24 15:05:29.169779,-153
2021-09-24 15:05:29.169784,-165
2021-09-24 15:05:29.169790,-184
2021-09-24 15:05:29.169795,-206
2021-09-24 15:05:29.169801,-228
2021-09-24 15:05:29.169806,-245
2021-09-24 15:05:29.169812,-267
2021-09-24 15:05:29.169817,-293
2021-09-24 15:05:29.169822,-318
2021-09-24 15:05:29.169828,-342
2021-09-24 15:05:29.169833,-357
2021-09-24 15:05:29.169839,-357
2021-09-24 15:05:29.169844,-347
2021-09-24 15:05:29.394690,-330
2021-09-24 15:05:29.394714,-291
2021-09-24 15:05:29.394722,-221
2021-09-24 15:05:29.394730,-123
2021-09-24 15:05:29.394736,-24
2021-09-24 15:05:29.394743,58
2021-09-24 15:05:29.394750,114
2021-09-24 15:05:29.394757,157
2021-09-24 15:05:29.394764,187
2021-09-24 15:05:29.394771,196
2021-09-24 15:05:29.394778,208
2021-09-24 15:05:29.394785,216
2021-09-24 15:05:29.394792,213
2021-09-24 15:05:29.394799,204
2021-09-24 15:05:29.394806,189
2021-09-24 15:05:29.394812,174
2021-09-24 15:05:29.394819,167
2021-09-24 15:05:29.394826,153
2021-09-24 15:05:29.394833,140
2021-09-24 15:05:29.394840,126
2021-09-24 15:05:29.394847,106
2021-09-24 15:05:29.394854,89
2021-09-24 15:05:29.394860,87
2021-09-24 15:05:29.394867,85
2021-09-24 15:05:29.394874,82
2021-09-24 15:05:29.394881,77
2021-09-24 15:05:29.394920,75
2021-09-24 15:05:29.394927,75
2021-09-24 15:05:29.394934,80
2021-09-24 15:05:29.394941,80
2021-09-24 15:05:29.619738,82
2021-09-24 15:05:29.619767,82
2021-09-24 15:05:29.619780,80
2021-09-24 15:05:29.619790,80
2021-09-24 15:05:29.619800,82
2021-09-24 15:05:29.619811,85
2021-09-24 15:05:29.619821,82
2021-09-24 15:05:29.619831,75
2021-09-24 15:05:29.619841,70
2021-09-24 15:05:29.619851,70
2021-09-24 15:05:29.619861,77
2021-09-24 15:05:29.619871,85
2021-09-24 15:05:29.619881,85
2021-09-24 15:05:29.619891,77
2021-09-24 15:05:29.619901,68
2021-09-24 15:05:29.619911,63
2021-09-24 15:05:29.619921,53
2021-09-24 15:05:29.619931,46
2021-09-24 15:05:29.619941,38
2021-09-24 15:05:29.619951,38
2021-09-24 15:05:29.619961,53
2021-09-24 15:05:29.619971,68
2021-09-24 15:05:29.619982,65
2021-09-24 15:05:29.619992,55
2021-09-24 15:05:29.620002,55
2021-09-24 15:05:29.620012,55
2021-09-24 15:05:29.620022,55
2021-09-24 15:05:29.620032,53
2021-09-24 15:05:29.620043,53
2021-09-24 15:05:29.620053,48
2021-09-24 15:05:29.844741,19
2021-09-24 15:05:29.844773,-51
2021-09-24 15:05:29.844785,-218
2021-09-24 15:05:29.844796,-439
2021-09-24 15:05:29.844806,-425
2021-09-24 15:05:29.844816,-36
2021-09-24 15:05:29.844858,471
2021-09-24 15:05:29.844869,641
2021-09-24 15:05:29.844879,344
2021-09-24 15:05:29.844889,82
2021-09-24 15:05:29.844899,80
2021-09-24 15:05:29.844909,14
2021-09-24 15:05:29.844919,-106
2021-09-24 15:05:29.844929,-106
2021-09-24 15:05:29.844939,-85
2021-09-24 15:05:29.844949,-119
2021-09-24 15:05:29.844959,-131
2021-09-24 15:05:29.844969,-121
2021-09-24 15:05:29.844980,-138
2021-09-24 15:05:29.844990,-150
2021-09-24 15:05:29.845000,-150
2021-09-24 15:05:29.845010,-165
2021-09-24 15:05:29.845020,-179
2021-09-24 15:05:29.845030,-184
2021-09-24 15:05:29.845040,-199
2021-09-24 15:05:29.845050,-225
2021-09-24 15:05:29.845060,-247
2021-09-24 15:05:29.845070,-267
2021-09-24 15:05:29.845080,-293
2021-09-24 15:05:29.845090,-325
2021-09-24 15:05:30.159090,-349
2021-09-24 15:05:30.159111,-359
2021-09-24 15:05:30.159119,-361
2021-09-24 15:05:30.159125,-359
2021-09-24 15:05:30.159132,-342
2021-09-24 15:05:30.159139,-301
2021-09-24 15:05:30.159145,-242
2021-09-24 15:05:30.159152,-153
2021-09-24 15:05:30.159158,-48
2021-09-24 15:05:30.159165,36
2021-09-24 15:05:30.159172,102
2021-09-24 15:05:30.159178,153
2021-09-24 15:05:30.159185,184
2021-09-24 15:05:30.159192,206
2021-09-24 15:05:30.159200,218
2021-09-24 15:05:30.159207,216
2021-09-24 15:05:30.159213,211
2021-09-24 15:05:30.159220,201
2021-09-24 15:05:30.159227,187
2021-09-24 15:05:30.159233,179
2021-09-24 15:05:30.159240,172
2021-09-24 15:05:30.159247,160
2021-09-24 15:05:30.159253,150
2021-09-24 15:05:30.159260,143
2021-09-24 15:05:30.159266,133
2021-09-24 15:05:30.159273,126
2021-09-24 15:05:30.159280,123
2021-09-24 15:05:30.159286,106
2021-09-24 15:05:30.159293,99
2021-09-24 15:05:30.159300,97
2021-09-24 15:05:30.294683,92
2021-09-24 15:05:30.294706,94
2021-09-24 15:05:30.294714,99
2021-09-24 15:05:30.294721,94
2021-09-24 15:05:30.294727,94
2021-09-24 15:05:30.294734,99
2021-09-24 15:05:30.294740,99
2021-09-24 15:05:30.294747,102
2021-09-24 15:05:30.294754,104
2021-09-24 15:05:30.294760,102
2021-09-24 15:05:30.294767,97
2021-09-24 15:05:30.294773,92
2021-09-24 15:05:30.294780,89
2021-09-24 15:05:30.294786,99
2021-09-24 15:05:30.294793,102
2021-09-24 15:05:30.294799,92
2021-09-24 15:05:30.294806,85
2021-09-24 15:05:30.294812,72
2021-09-24 15:05:30.294819,51
2021-09-24 15:05:30.294825,41
2021-09-24 15:05:30.294832,43
2021-09-24 15:05:30.294838,51
2021-09-24 15:05:30.294845,63
2021-09-24 15:05:30.294851,65
2021-09-24 15:05:30.294858,58
2021-09-24 15:05:30.294864,58
2021-09-24 15:05:30.294871,68
2021-09-24 15:05:30.294877,70
2021-09-24 15:05:30.294884,65
2021-09-24 15:05:30.294890,55
2021-09-24 15:05:30.563946,51
2021-09-24 15:05:30.563968,36
2021-09-24 15:05:30.563976,-9
2021-09-24 15:05:30.563983,-133
2021-09-24 15:05:30.563990,-361
2021-09-24 15:05:30.563996,-490
2021-09-24 15:05:30.564003,-247
2021-09-24 15:05:30.564009,279
2021-09-24 15:05:30.564016,636
2021-09-24 15:05:30.564023,466
2021-09-24 15:05:30.564029,121
2021-09-24 15:05:30.564036,55
2021-09-24 15:05:30.564042,53
2021-09-24 15:05:30.564049,-63
2021-09-24 15:05:30.564055,-99
2021-09-24 15:05:30.564062,-70
2021-09-24 15:05:30.564068,-97
2021-09-24 15:05:30.564075,-121
2021-09-24 15:05:30.564081,-109
2021-09-24 15:05:30.564088,-116
2021-09-24 15:05:30.564094,-136
2021-09-24 15:05:30.564101,-143
2021-09-24 15:05:30.564107,-153
2021-09-24 15:05:30.564114,-170
2021-09-24 15:05:30.564120,-184
2021-09-24 15:05:30.564127,-201
2021-09-24 15:05:30.564134,-223
2021-09-24 15:05:30.564140,-242
2021-09-24 15:05:30.564147,-267
2021-09-24 15:05:30.564153,-293
2021-09-24 15:05:30.789510,-318
2021-09-24 15:05:30.789532,-342
2021-09-24 15:05:30.789540,-364
2021-09-24 15:05:30.789547,-376
2021-09-24 15:05:30.789554,-371
2021-09-24 15:05:30.789560,-352
2021-09-24 15:05:30.789567,-315
2021-09-24 15:05:30.789574,-262
2021-09-24 15:05:30.789580,-184
2021-09-24 15:05:30.789587,-89
2021-09-24 15:05:30.789594,-9
2021-09-24 15:05:30.789600,53
2021-09-24 15:05:30.789607,114
2021-09-24 15:05:30.789613,155
2021-09-24 15:05:30.789620,182
2021-09-24 15:05:30.789627,189
2021-09-24 15:05:30.789633,187
2021-09-24 15:05:30.789643,189
2021-09-24 15:05:30.789650,187
2021-09-24 15:05:30.789656,177
2021-09-24 15:05:30.789663,165
2021-09-24 15:05:30.789670,150
2021-09-24 15:05:30.789676,140
2021-09-24 15:05:30.789683,128
2021-09-24 15:05:30.789689,106
2021-09-24 15:05:30.789696,102
2021-09-24 15:05:30.789702,102
2021-09-24 15:05:30.789709,89
2021-09-24 15:05:30.789724,87
2021-09-24 15:05:30.789730,94
2021-09-24 15:05:31.014686,94
2021-09-24 15:05:31.014709,87
2021-09-24 15:05:31.014717,85
2021-09-24 15:05:31.014724,82
2021-09-24 15:05:31.014730,80
2021-09-24 15:05:31.014737,87
2021-09-24 15:05:31.014744,92
2021-09-24 15:05:31.014750,89
2021-09-24 15:05:31.014757,82
2021-09-24 15:05:31.014764,72
2021-09-24 15:05:31.014770,75
2021-09-24 15:05:31.014777,82
2021-09-24 15:05:31.014784,80
2021-09-24 15:05:31.014790,80
2021-09-24 15:05:31.014797,77
2021-09-24 15:05:31.014804,72
2021-09-24 15:05:31.014810,75
2021-09-24 15:05:31.014849,82
2021-09-24 15:05:31.014855,77
2021-09-24 15:05:31.014862,68
2021-09-24 15:05:31.014868,60
2021-09-24 15:05:31.014875,48
2021-09-24 15:05:31.014881,41
2021-09-24 15:05:31.014888,43
2021-09-24 15:05:31.014894,51
2021-09-24 15:05:31.014901,68
2021-09-24 15:05:31.014908,75
2021-09-24 15:05:31.014914,65
2021-09-24 15:05:31.014921,63
2021-09-24 15:05:31.014927,70
2021-09-24 15:05:31.284686,70
2021-09-24 15:05:31.284707,68
2021-09-24 15:05:31.284715,63
2021-09-24 15:05:31.284722,43
2021-09-24 15:05:31.284729,19
2021-09-24 15:05:31.284735,-21
2021-09-24 15:05:31.284742,-131
2021-09-24 15:05:31.284749,-332
2021-09-24 15:05:31.284755,-439
2021-09-24 15:05:31.284762,-213
2021-09-24 15:05:31.284769,296
2021-09-24 15:05:31.284775,626
2021-09-24 15:05:31.284782,427
2021-09-24 15:05:31.284788,111
2021-09-24 15:05:31.284795,80
2021-09-24 15:05:31.284802,65
2021-09-24 15:05:31.284808,-58
2021-09-24 15:05:31.284815,-92
2021-09-24 15:05:31.284822,-63
2021-09-24 15:05:31.284828,-82
2021-09-24 15:05:31.284835,-116
2021-09-24 15:05:31.284841,-126
2021-09-24 15:05:31.284848,-131
2021-09-24 15:05:31.284855,-136
2021-09-24 15:05:31.284861,-140
2021-09-24 15:05:31.284868,-148
2021-09-24 15:05:31.284874,-167
2021-09-24 15:05:31.284881,-187
2021-09-24 15:05:31.284888,-201
2021-09-24 15:05:31.284894,-225
2021-09-24 15:05:31.464662,-247
2021-09-24 15:05:31.464686,-267
2021-09-24 15:05:31.464694,-291
2021-09-24 15:05:31.464701,-315
2021-09-24 15:05:31.464708,-325
2021-09-24 15:05:31.464715,-337
2021-09-24 15:05:31.464722,-349
2021-09-24 15:05:31.464737,-352
2021-09-24 15:05:31.464744,-344
2021-09-24 15:05:31.464751,-313
2021-09-24 15:05:31.464758,-247
2021-09-24 15:05:31.464765,-165
2021-09-24 15:05:31.464772,-75
2021-09-24 15:05:31.464816,2
2021-09-24 15:05:31.464863,63
2021-09-24 15:05:31.464871,114
2021-09-24 15:05:31.464878,153
2021-09-24 15:05:31.464885,179
2021-09-24 15:05:31.464892,191
2021-09-24 15:05:31.464899,189
2021-09-24 15:05:31.464906,182
2021-09-24 15:05:31.464913,177
2021-09-24 15:05:31.464920,172
2021-09-24 15:05:31.464927,165
2021-09-24 15:05:31.464934,160
2021-09-24 15:05:31.464940,150
2021-09-24 15:05:31.464947,140
2021-09-24 15:05:31.464954,131
2021-09-24 15:05:31.464961,123
2021-09-24 15:05:31.464968,121
2021-09-24 15:05:31.734373,114
2021-09-24 15:05:31.734395,106
2021-09-24 15:05:31.734403,109
2021-09-24 15:05:31.734409,111
2021-09-24 15:05:31.734416,106
2021-09-24 15:05:31.734423,104
2021-09-24 15:05:31.734429,106
2021-09-24 15:05:31.734436,102
2021-09-24 15:05:31.734443,97
2021-09-24 15:05:31.734449,94
2021-09-24 15:05:31.734456,92
2021-09-24 15:05:31.734462,94
2021-09-24 15:05:31.734469,92
2021-09-24 15:05:31.734475,85
2021-09-24 15:05:31.734482,89
2021-09-24 15:05:31.734488,94
2021-09-24 15:05:31.734495,89
2021-09-24 15:05:31.734502,92
2021-09-24 15:05:31.734508,94
2021-09-24 15:05:31.734515,92
2021-09-24 15:05:31.734521,97
2021-09-24 15:05:31.734528,99
2021-09-24 15:05:31.734534,89
2021-09-24 15:05:31.734541,77
2021-09-24 15:05:31.734547,70
2021-09-24 15:05:31.734554,65
2021-09-24 15:05:31.734561,58
2021-09-24 15:05:31.734567,58
2021-09-24 15:05:31.734574,70
2021-09-24 15:05:31.734580,87
2021-09-24 15:05:31.959675,87
2021-09-24 15:05:31.959699,82
2021-09-24 15:05:31.959707,87
2021-09-24 15:05:31.959714,89
2021-09-24 15:05:31.959721,82
2021-09-24 15:05:31.959728,63
2021-09-24 15:05:31.959735,43
2021-09-24 15:05:31.959741,29
2021-09-24 15:05:31.959748,-4
2021-09-24 15:05:31.959755,-72
2021-09-24 15:05:31.959762,-225
2021-09-24 15:05:31.959769,-420
2021-09-24 15:05:31.959775,-391
2021-09-24 15:05:31.959782,-4
2021-09-24 15:05:31.959789,493
2021-09-24 15:05:31.959796,617
2021-09-24 15:05:31.959802,293
2021-09-24 15:05:31.959809,77
2021-09-24 15:05:31.959816,97
2021-09-24 15:05:31.959823,17
2021-09-24 15:05:31.959829,-94
2021-09-24 15:05:31.959836,-85
2021-09-24 15:05:31.959843,-68
2021-09-24 15:05:31.959850,-102
2021-09-24 15:05:31.959857,-116
2021-09-24 15:05:31.959863,-114
2021-09-24 15:05:31.959870,-126
2021-09-24 15:05:31.959877,-136
2021-09-24 15:05:31.959916,-138
2021-09-24 15:05:31.959923,-150
2021-09-24 15:05:32.229090,-170
2021-09-24 15:05:32.229129,-177
2021-09-24 15:05:32.229142,-189
2021-09-24 15:05:32.229154,-216
2021-09-24 15:05:32.229166,-240
2021-09-24 15:05:32.229178,-267
2021-09-24 15:05:32.229190,-296
2021-09-24 15:05:32.229202,-318
2021-09-24 15:05:32.229213,-337
2021-09-24 15:05:32.229224,-352
2021-09-24 15:05:32.229235,-352
2021-09-24 15:05:32.229247,-344
2021-09-24 15:05:32.229259,-327
2021-09-24 15:05:32.229270,-289
2021-09-24 15:05:32.229282,-221
2021-09-24 15:05:32.229294,-128
2021-09-24 15:05:32.229306,-38
2021-09-24 15:05:32.229317,31
2021-09-24 15:05:32.229328,97
2021-09-24 15:05:32.229340,150
2021-09-24 15:05:32.229351,179
2021-09-24 15:05:32.229363,194
2021-09-24 15:05:32.229374,204
2021-09-24 15:05:32.229385,206
2021-09-24 15:05:32.229396,201
2021-09-24 15:05:32.229407,199
2021-09-24 15:05:32.229417,189
2021-09-24 15:05:32.229428,179
2021-09-24 15:05:32.229438,172
2021-09-24 15:05:32.229447,165
2021-09-24 15:05:32.365020,155
2021-09-24 15:05:32.365041,145
2021-09-24 15:05:32.365049,136
2021-09-24 15:05:32.365056,126
2021-09-24 15:05:32.365062,116
2021-09-24 15:05:32.365069,111
2021-09-24 15:05:32.365075,111
2021-09-24 15:05:32.365082,111
2021-09-24 15:05:32.365088,106
2021-09-24 15:05:32.365095,104
2021-09-24 15:05:32.365102,109
2021-09-24 15:05:32.365108,102
2021-09-24 15:05:32.365115,92
2021-09-24 15:05:32.365121,97
2021-09-24 15:05:32.365128,102
2021-09-24 15:05:32.365134,94
2021-09-24 15:05:32.365141,80
2021-09-24 15:05:32.365148,77
2021-09-24 15:05:32.365154,85
2021-09-24 15:05:32.365161,87
2021-09-24 15:05:32.365167,82
2021-09-24 15:05:32.365174,77
2021-09-24 15:05:32.365181,72
2021-09-24 15:05:32.365187,72
2021-09-24 15:05:32.365194,75
2021-09-24 15:05:32.365200,75
2021-09-24 15:05:32.365207,77
2021-09-24 15:05:32.365213,82
2021-09-24 15:05:32.365220,85
2021-09-24 15:05:32.365227,82
2021-09-24 15:05:32.633343,77
2021-09-24 15:05:32.633367,72
2021-09-24 15:05:32.633376,65
2021-09-24 15:05:32.633383,48
2021-09-24 15:05:32.633390,29
2021-09-24 15:05:32.633397,29
2021-09-24 15:05:32.633404,51
2021-09-24 15:05:32.633411,68
2021-09-24 15:05:32.633417,65
2021-09-24 15:05:32.633424,58
2021-09-24 15:05:32.633431,53
2021-09-24 15:05:32.633438,55
2021-09-24 15:05:32.633445,58
2021-09-24 15:05:32.633452,60
2021-09-24 15:05:32.633459,58
2021-09-24 15:05:32.633466,41
2021-09-24 15:05:32.633473,0
2021-09-24 15:05:32.633480,-77
2021-09-24 15:05:32.633487,-247
2021-09-24 15:05:32.633494,-442
2021-09-24 15:05:32.633501,-391
2021-09-24 15:05:32.633507,-4
2021-09-24 15:05:32.633514,478
2021-09-24 15:05:32.633521,636
2021-09-24 15:05:32.633528,330
2021-09-24 15:05:32.633535,80
2021-09-24 15:05:32.633542,85
2021-09-24 15:05:32.633549,12
2021-09-24 15:05:32.633556,-99
2021-09-24 15:05:32.633563,-85
2021-09-24 15:05:32.859670,-70
2021-09-24 15:05:32.859693,-102
2021-09-24 15:05:32.859701,-114
2021-09-24 15:05:32.859708,-123
2021-09-24 15:05:32.859714,-143
2021-09-24 15:05:32.859721,-150
2021-09-24 15:05:32.859727,-153
2021-09-24 15:05:32.859734,-160
2021-09-24 15:05:32.859741,-174
2021-09-24 15:05:32.859747,-199
2021-09-24 15:05:32.859754,-218
2021-09-24 15:05:32.859761,-233
2021-09-24 15:05:32.859767,-255
2021-09-24 15:05:32.859774,-281
2021-09-24 15:05:32.859780,-313
2021-09-24 15:05:32.859787,-344
2021-09-24 15:05:32.859793,-364
2021-09-24 15:05:32.859800,-381
2021-09-24 15:05:32.859837,-388
2021-09-24 15:05:32.859844,-381
2021-09-24 15:05:32.859850,-369
2021-09-24 15:05:32.859857,-335
2021-09-24 15:05:32.859863,-267
2021-09-24 15:05:32.859870,-172
2021-09-24 15:05:32.859876,-75
2021-09-24 15:05:32.859883,12
2021-09-24 15:05:32.859889,82
2021-09-24 15:05:32.859895,131
2021-09-24 15:05:32.859902,170
2021-09-24 15:05:32.859908,196
2021-09-24 15:05:33.128926,206
2021-09-24 15:05:33.128948,211
2021-09-24 15:05:33.128956,208
2021-09-24 15:05:33.128963,196
2021-09-24 15:05:33.128969,187
2021-09-24 15:05:33.128976,184
2021-09-24 15:05:33.128983,174
2021-09-24 15:05:33.128989,160
2021-09-24 15:05:33.128996,148
2021-09-24 15:05:33.129002,133
2021-09-24 15:05:33.129009,126
2021-09-24 15:05:33.129015,123
2021-09-24 15:05:33.129022,119
2021-09-24 15:05:33.129028,114
2021-09-24 15:05:33.129039,104
2021-09-24 15:05:33.129046,94
2021-09-24 15:05:33.129052,97
2021-09-24 15:05:33.129059,102
2021-09-24 15:05:33.129065,99
2021-09-24 15:05:33.129072,102
2021-09-24 15:05:33.129079,99
2021-09-24 15:05:33.129085,94
2021-09-24 15:05:33.129092,92
2021-09-24 15:05:33.129098,92
2021-09-24 15:05:33.129105,97
2021-09-24 15:05:33.129111,97
2021-09-24 15:05:33.129118,92
2021-09-24 15:05:33.129124,89
2021-09-24 15:05:33.129131,92
2021-09-24 15:05:33.129138,92
2021-09-24 15:05:33.309847,89
2021-09-24 15:05:33.309878,89
2021-09-24 15:05:33.309890,87
2021-09-24 15:05:33.309901,85
2021-09-24 15:05:33.309911,85
2021-09-24 15:05:33.309921,85
2021-09-24 15:05:33.309932,80
2021-09-24 15:05:33.309942,77
2021-09-24 15:05:33.309952,75
2021-09-24 15:05:33.309962,80
2021-09-24 15:05:33.309972,82
2021-09-24 15:05:33.309982,77
2021-09-24 15:05:33.309992,68
2021-09-24 15:05:33.310002,55
2021-09-24 15:05:33.310012,36
2021-09-24 15:05:33.310022,24
2021-09-24 15:05:33.310032,24
2021-09-24 15:05:33.310042,38
2021-09-24 15:05:33.310052,53
2021-09-24 15:05:33.310062,60
2021-09-24 15:05:33.310072,55
2021-09-24 15:05:33.310082,55
2021-09-24 15:05:33.310092,55
2021-09-24 15:05:33.310102,43
2021-09-24 15:05:33.310112,24
2021-09-24 15:05:33.310123,21
2021-09-24 15:05:33.310133,21
2021-09-24 15:05:33.310143,-4
2021-09-24 15:05:33.310153,-63
2021-09-24 15:05:33.310163,-199
2021-09-24 15:05:33.579837,-425
2021-09-24 15:05:33.579893,-500
2021-09-24 15:05:33.579901,-208
2021-09-24 15:05:33.579908,306
2021-09-24 15:05:33.579915,621
2021-09-24 15:05:33.579922,432
2021-09-24 15:05:33.579929,99
2021-09-24 15:05:33.579936,41
2021-09-24 15:05:33.579943,21
2021-09-24 15:05:33.579950,-92
2021-09-24 15:05:33.579957,-114
2021-09-24 15:05:33.579964,-85
2021-09-24 15:05:33.579971,-114
2021-09-24 15:05:33.579978,-145
2021-09-24 15:05:33.579984,-140
2021-09-24 15:05:33.579991,-150
2021-09-24 15:05:33.579998,-170
2021-09-24 15:05:33.580005,-177
2021-09-24 15:05:33.580012,-187
2021-09-24 15:05:33.580019,-206
2021-09-24 15:05:33.580026,-221
2021-09-24 15:05:33.580033,-233
2021-09-24 15:05:33.580040,-250
2021-09-24 15:05:33.580046,-269
2021-09-24 15:05:33.580053,-291
2021-09-24 15:05:33.580060,-320
2021-09-24 15:05:33.580067,-349
2021-09-24 15:05:33.580074,-369
2021-09-24 15:05:33.580081,-378
2021-09-24 15:05:33.580088,-381
2021-09-24 15:05:33.759401,-381
2021-09-24 15:05:33.759421,-366
2021-09-24 15:05:33.759430,-335
2021-09-24 15:05:33.759436,-279
2021-09-24 15:05:33.759443,-194
2021-09-24 15:05:33.759450,-97
2021-09-24 15:05:33.759456,-12
2021-09-24 15:05:33.759463,63
2021-09-24 15:05:33.759469,126
2021-09-24 15:05:33.759475,172
2021-09-24 15:05:33.759482,196
2021-09-24 15:05:33.759488,211
2021-09-24 15:05:33.759495,216
2021-09-24 15:05:33.759501,216
2021-09-24 15:05:33.759508,213
2021-09-24 15:05:33.759514,204
2021-09-24 15:05:33.759521,194
2021-09-24 15:05:33.759527,182
2021-09-24 15:05:33.759534,167
2021-09-24 15:05:33.759540,155
2021-09-24 15:05:33.759547,148
2021-09-24 15:05:33.759553,138
2021-09-24 15:05:33.759560,131
2021-09-24 15:05:33.759566,126
2021-09-24 15:05:33.759572,119
2021-09-24 15:05:33.759579,114
2021-09-24 15:05:33.759585,114
2021-09-24 15:05:33.759592,111
2021-09-24 15:05:33.759598,102
2021-09-24 15:05:33.759605,89
2021-09-24 15:05:33.984852,89
2021-09-24 15:05:33.984876,97
2021-09-24 15:05:33.984884,97
2021-09-24 15:05:33.984892,97
2021-09-24 15:05:33.984899,97
2021-09-24 15:05:33.984906,92
2021-09-24 15:05:33.984912,87
2021-09-24 15:05:33.984919,89
2021-09-24 15:05:33.984927,92
2021-09-24 15:05:33.984933,87
2021-09-24 15:05:33.984940,85
2021-09-24 15:05:33.984947,80
2021-09-24 15:05:33.984954,77
2021-09-24 15:05:33.984961,80
2021-09-24 15:05:33.984968,80
2021-09-24 15:05:33.984975,77
2021-09-24 15:05:33.984982,77
2021-09-24 15:05:33.984989,77
2021-09-24 15:05:33.984996,75
2021-09-24 15:05:33.985003,80
2021-09-24 15:05:33.985010,85
2021-09-24 15:05:33.985017,87
2021-09-24 15:05:33.985023,87
2021-09-24 15:05:33.985030,80
2021-09-24 15:05:33.985037,70
2021-09-24 15:05:33.985044,63
2021-09-24 15:05:33.985051,53
2021-09-24 15:05:33.985058,38
2021-09-24 15:05:33.985065,36
2021-09-24 15:05:33.985072,48
2021-09-24 15:05:34.255523,60
2021-09-24 15:05:34.255566,60
2021-09-24 15:05:34.255578,53
2021-09-24 15:05:34.255586,48
2021-09-24 15:05:34.255595,46
2021-09-24 15:05:34.255603,38
2021-09-24 15:05:34.255611,36
2021-09-24 15:05:34.255619,41
2021-09-24 15:05:34.255627,34
2021-09-24 15:05:34.255635,7
2021-09-24 15:05:34.255643,-46
2021-09-24 15:05:34.255651,-177
2021-09-24 15:05:34.255659,-403
2021-09-24 15:05:34.255666,-517
2021-09-24 15:05:34.255681,-272
2021-09-24 15:05:34.255690,255
2021-09-24 15:05:34.255698,636
2021-09-24 15:05:34.255706,476
2021-09-24 15:05:34.255714,116
2021-09-24 15:05:34.255722,43
2021-09-24 15:05:34.255729,31
2021-09-24 15:05:34.255737,-94
2021-09-24 15:05:34.255745,-128
2021-09-24 15:05:34.255753,-94
2021-09-24 15:05:34.255760,-119
2021-09-24 15:05:34.255768,-140
2021-09-24 15:05:34.255776,-133
2021-09-24 15:05:34.255783,-143
2021-09-24 15:05:34.255792,-160
2021-09-24 15:05:34.255800,-165
2021-09-24 15:05:34.479711,-174
2021-09-24 15:05:34.479734,-191
2021-09-24 15:05:34.479742,-211
2021-09-24 15:05:34.479749,-228
2021-09-24 15:05:34.479755,-250
2021-09-24 15:05:34.479762,-274
2021-09-24 15:05:34.479769,-296
2021-09-24 15:05:34.479775,-313
2021-09-24 15:05:34.479782,-337
2021-09-24 15:05:34.479788,-361
2021-09-24 15:05:34.479795,-386
2021-09-24 15:05:34.479801,-391
2021-09-24 15:05:34.479808,-381
2021-09-24 15:05:34.479814,-366
2021-09-24 15:05:34.479821,-337
2021-09-24 15:05:34.479827,-286
2021-09-24 15:05:34.479834,-211
2021-09-24 15:05:34.479840,-114
2021-09-24 15:05:34.479847,-17
2021-09-24 15:05:34.479853,65
2021-09-24 15:05:34.479860,126
2021-09-24 15:05:34.479898,167
2021-09-24 15:05:34.479905,191
2021-09-24 15:05:34.479911,208
2021-09-24 15:05:34.479918,218
2021-09-24 15:05:34.479924,221
2021-09-24 15:05:34.479930,213
2021-09-24 15:05:34.479937,199
2021-09-24 15:05:34.479944,191
2021-09-24 15:05:34.479950,189
2021-09-24 15:05:34.747786,179
2021-09-24 15:05:34.747805,167
2021-09-24 15:05:34.747812,157
2021-09-24 15:05:34.747818,148
2021-09-24 15:05:34.747824,133
2021-09-24 15:05:34.747830,128
2021-09-24 15:05:34.747836,123
2021-09-24 15:05:34.747842,121
2021-09-24 15:05:34.747848,116
2021-09-24 15:05:34.747854,102
2021-09-24 15:05:34.747860,94
2021-09-24 15:05:34.747865,102
2021-09-24 15:05:34.747871,109
2021-09-24 15:05:34.747877,106
2021-09-24 15:05:34.747882,102
2021-09-24 15:05:34.747888,94
2021-09-24 15:05:34.747894,89
2021-09-24 15:05:34.747899,97
2021-09-24 15:05:34.747905,99
2021-09-24 15:05:34.747911,97
2021-09-24 15:05:34.747917,94
2021-09-24 15:05:34.747923,89
2021-09-24 15:05:34.747929,89
2021-09-24 15:05:34.747935,92
2021-09-24 15:05:34.747942,92
2021-09-24 15:05:34.747948,92
2021-09-24 15:05:34.747954,89
2021-09-24 15:05:34.747960,85
2021-09-24 15:05:34.747966,82
2021-09-24 15:05:34.747973,85
2021-09-24 15:05:34.974695,87
2021-09-24 15:05:34.974717,85
2021-09-24 15:05:34.974724,80
2021-09-24 15:05:34.974731,77
2021-09-24 15:05:34.974738,80
2021-09-24 15:05:34.974744,77
2021-09-24 15:05:34.974751,68
2021-09-24 15:05:34.974758,55
2021-09-24 15:05:34.974764,34
2021-09-24 15:05:34.974771,12
2021-09-24 15:05:34.974778,-4
2021-09-24 15:05:34.974784,-12
2021-09-24 15:05:34.974791,-7
2021-09-24 15:05:34.974797,12
2021-09-24 15:05:34.974804,19
2021-09-24 15:05:34.974810,9
2021-09-24 15:05:34.974817,12
2021-09-24 15:05:34.974823,19
2021-09-24 15:05:34.974830,21
2021-09-24 15:05:34.974837,21
2021-09-24 15:05:34.974843,17
2021-09-24 15:05:34.974850,7
2021-09-24 15:05:34.974857,-4
2021-09-24 15:05:34.974863,-34
2021-09-24 15:05:34.974870,-104
2021-09-24 15:05:34.974877,-279
2021-09-24 15:05:34.974884,-502
2021-09-24 15:05:34.974890,-488
2021-09-24 15:05:34.974897,-87
2021-09-24 15:05:34.974904,454
2021-09-24 15:05:35.154687,624
2021-09-24 15:05:35.154710,296
2021-09-24 15:05:35.154718,36
2021-09-24 15:05:35.154725,41
2021-09-24 15:05:35.154732,-24
2021-09-24 15:05:35.154739,-126
2021-09-24 15:05:35.154746,-109
2021-09-24 15:05:35.154753,-99
2021-09-24 15:05:35.154759,-140
2021-09-24 15:05:35.154766,-153
2021-09-24 15:05:35.154773,-145
2021-09-24 15:05:35.154779,-157
2021-09-24 15:05:35.154786,-170
2021-09-24 15:05:35.154793,-179
2021-09-24 15:05:35.154799,-199
2021-09-24 15:05:35.154806,-213
2021-09-24 15:05:35.154813,-218
2021-09-24 15:05:35.154819,-233
2021-09-24 15:05:35.154857,-252
2021-09-24 15:05:35.154863,-276
2021-09-24 15:05:35.154870,-306
2021-09-24 15:05:35.154877,-330
2021-09-24 15:05:35.154883,-349
2021-09-24 15:05:35.154890,-364
2021-09-24 15:05:35.154896,-374
2021-09-24 15:05:35.154903,-376
2021-09-24 15:05:35.154910,-369
2021-09-24 15:05:35.154916,-349
2021-09-24 15:05:35.154923,-310
2021-09-24 15:05:35.154929,-242
2021-09-24 15:05:35.424941,-153
2021-09-24 15:05:35.424995,-60
2021-09-24 15:05:35.425003,24
2021-09-24 15:05:35.425010,94
2021-09-24 15:05:35.425017,153
2021-09-24 15:05:35.425024,194
2021-09-24 15:05:35.425030,213
2021-09-24 15:05:35.425037,216
2021-09-24 15:05:35.425044,216
2021-09-24 15:05:35.425051,213
2021-09-24 15:05:35.425058,204
2021-09-24 15:05:35.425064,189
2021-09-24 15:05:35.425071,177
2021-09-24 15:05:35.425078,165
2021-09-24 15:05:35.425085,150
2021-09-24 15:05:35.425092,138
2021-09-24 15:05:35.425098,121
2021-09-24 15:05:35.425105,109
2021-09-24 15:05:35.425112,106
2021-09-24 15:05:35.425119,102
2021-09-24 15:05:35.425126,94
2021-09-24 15:05:35.425132,92
2021-09-24 15:05:35.425139,92
2021-09-24 15:05:35.425146,92
2021-09-24 15:05:35.425153,89
2021-09-24 15:05:35.425159,89
2021-09-24 15:05:35.425166,92
2021-09-24 15:05:35.425173,92
2021-09-24 15:05:35.425180,94
2021-09-24 15:05:35.425187,99
2021-09-24 15:05:35.649615,97
2021-09-24 15:05:35.649639,94
2021-09-24 15:05:35.649647,97
2021-09-24 15:05:35.649655,97
2021-09-24 15:05:35.649662,94
2021-09-24 15:05:35.649669,94
2021-09-24 15:05:35.649675,87
2021-09-24 15:05:35.649682,77
2021-09-24 15:05:35.649689,75
2021-09-24 15:05:35.649696,70
2021-09-24 15:05:35.649703,70
2021-09-24 15:05:35.649710,70
2021-09-24 15:05:35.649717,65
2021-09-24 15:05:35.649724,60
2021-09-24 15:05:35.649731,63
2021-09-24 15:05:35.649737,63
2021-09-24 15:05:35.649744,60
2021-09-24 15:05:35.649751,58
2021-09-24 15:05:35.649758,53
2021-09-24 15:05:35.649768,48
2021-09-24 15:05:35.649775,55
2021-09-24 15:05:35.649782,60
2021-09-24 15:05:35.649789,63
2021-09-24 15:05:35.649796,55
2021-09-24 15:05:35.649803,36
2021-09-24 15:05:35.649810,14
2021-09-24 15:05:35.649816,4
2021-09-24 15:05:35.649855,0
2021-09-24 15:05:35.649863,-4
2021-09-24 15:05:35.649869,0
2021-09-24 15:05:35.919098,17
2021-09-24 15:05:35.919128,34
2021-09-24 15:05:35.919140,34
2021-09-24 15:05:35.919150,29
2021-09-24 15:05:35.919161,31
2021-09-24 15:05:35.919171,31
2021-09-24 15:05:35.919181,21
2021-09-24 15:05:35.919191,24
2021-09-24 15:05:35.919201,26
2021-09-24 15:05:35.919211,14
2021-09-24 15:05:35.919221,-12
2021-09-24 15:05:35.919231,-80
2021-09-24 15:05:35.919241,-262
2021-09-24 15:05:35.919251,-485
2021-09-24 15:05:35.919261,-471
2021-09-24 15:05:35.919271,-80
2021-09-24 15:05:35.919281,459
2021-09-24 15:05:35.919291,629
2021-09-24 15:05:35.919301,301
2021-09-24 15:05:35.919311,51
2021-09-24 15:05:35.919321,60
2021-09-24 15:05:35.919331,-19
2021-09-24 15:05:35.919341,-133
2021-09-24 15:05:35.919351,-119
2021-09-24 15:05:35.919361,-102
2021-09-24 15:05:35.919371,-136
2021-09-24 15:05:35.919381,-143
2021-09-24 15:05:35.919391,-140
2021-09-24 15:05:35.919401,-155
2021-09-24 15:05:35.919411,-165
2021-09-24 15:05:36.054774,-170
2021-09-24 15:05:36.054797,-177
2021-09-24 15:05:36.054805,-189
2021-09-24 15:05:36.054812,-204
2021-09-24 15:05:36.054819,-223
2021-09-24 15:05:36.054826,-247
2021-09-24 15:05:36.054833,-269
2021-09-24 15:05:36.054840,-286
2021-09-24 15:05:36.054847,-308
2021-09-24 15:05:36.054854,-332
2021-09-24 15:05:36.054861,-352
2021-09-24 15:05:36.054867,-364
2021-09-24 15:05:36.054874,-364
2021-09-24 15:05:36.054881,-352
2021-09-24 15:05:36.054888,-332
2021-09-24 15:05:36.054895,-298
2021-09-24 15:05:36.054902,-240
2021-09-24 15:05:36.054909,-155
2021-09-24 15:05:36.054916,-58
2021-09-24 15:05:36.054923,31
2021-09-24 15:05:36.054929,102
2021-09-24 15:05:36.054936,157
2021-09-24 15:05:36.054943,194
2021-09-24 15:05:36.054950,216
2021-09-24 15:05:36.054957,228
2021-09-24 15:05:36.054963,235
2021-09-24 15:05:36.054970,233
2021-09-24 15:05:36.054977,225
2021-09-24 15:05:36.054984,216
2021-09-24 15:05:36.054991,206
2021-09-24 15:05:36.279715,199
2021-09-24 15:05:36.279737,189
2021-09-24 15:05:36.279745,177
2021-09-24 15:05:36.279751,165
2021-09-24 15:05:36.279758,148
2021-09-24 15:05:36.279765,136
2021-09-24 15:05:36.279771,133
2021-09-24 15:05:36.279778,131
2021-09-24 15:05:36.279784,123
2021-09-24 15:05:36.279791,116
2021-09-24 15:05:36.279798,109
2021-09-24 15:05:36.279804,106
2021-09-24 15:05:36.279811,109
2021-09-24 15:05:36.279817,114
2021-09-24 15:05:36.279824,111
2021-09-24 15:05:36.279830,109
2021-09-24 15:05:36.279837,104
2021-09-24 15:05:36.279844,99
2021-09-24 15:05:36.279850,97
2021-09-24 15:05:36.279857,94
2021-09-24 15:05:36.279863,89
2021-09-24 15:05:36.279870,87
2021-09-24 15:05:36.279876,85
2021-09-24 15:05:36.279883,87
2021-09-24 15:05:36.279889,89
2021-09-24 15:05:36.279896,87
2021-09-24 15:05:36.279903,85
2021-09-24 15:05:36.279909,77
2021-09-24 15:05:36.279916,65
2021-09-24 15:05:36.279922,65
2021-09-24 15:05:36.549893,70
2021-09-24 15:05:36.549916,65
2021-09-24 15:05:36.549924,55
2021-09-24 15:05:36.549931,46
2021-09-24 15:05:36.549938,34
2021-09-24 15:05:36.549944,31
2021-09-24 15:05:36.549951,34
2021-09-24 15:05:36.549958,34
2021-09-24 15:05:36.549965,31
2021-09-24 15:05:36.549972,26
2021-09-24 15:05:36.549978,26
2021-09-24 15:05:36.549985,29
2021-09-24 15:05:36.549992,24
2021-09-24 15:05:36.549999,7
2021-09-24 15:05:36.550006,-7
2021-09-24 15:05:36.550013,-7
2021-09-24 15:05:36.550020,-9
2021-09-24 15:05:36.550026,-12
2021-09-24 15:05:36.550033,4
2021-09-24 15:05:36.550040,29
2021-09-24 15:05:36.550047,31
2021-09-24 15:05:36.550054,19
2021-09-24 15:05:36.550060,19
2021-09-24 15:05:36.550067,29
2021-09-24 15:05:36.550074,31
2021-09-24 15:05:36.550081,31
2021-09-24 15:05:36.550087,31
2021-09-24 15:05:36.550094,24
2021-09-24 15:05:36.550101,7
2021-09-24 15:05:36.550108,-34
2021-09-24 15:05:36.818242,-150
2021-09-24 15:05:36.818272,-378
2021-09-24 15:05:36.818280,-514
2021-09-24 15:05:36.818288,-284
2021-09-24 15:05:36.818295,255
2021-09-24 15:05:36.818302,648
2021-09-24 15:05:36.818309,505
2021-09-24 15:05:36.818316,150
2021-09-24 15:05:36.818323,65
2021-09-24 15:05:36.818330,51
2021-09-24 15:05:36.818337,-68
2021-09-24 15:05:36.818343,-104
2021-09-24 15:05:36.818350,-72
2021-09-24 15:05:36.818357,-92
2021-09-24 15:05:36.818364,-123
2021-09-24 15:05:36.818371,-131
2021-09-24 15:05:36.818378,-133
2021-09-24 15:05:36.818385,-143
2021-09-24 15:05:36.818392,-153
2021-09-24 15:05:36.818399,-162
2021-09-24 15:05:36.818406,-179
2021-09-24 15:05:36.818413,-196
2021-09-24 15:05:36.818420,-213
2021-09-24 15:05:36.818427,-233
2021-09-24 15:05:36.818434,-252
2021-09-24 15:05:36.818441,-272
2021-09-24 15:05:36.818448,-301
2021-09-24 15:05:36.818455,-327
2021-09-24 15:05:36.818462,-344
2021-09-24 15:05:36.818469,-352
2021-09-24 15:05:37.089807,-359
2021-09-24 15:05:37.089832,-357
2021-09-24 15:05:37.089840,-349
2021-09-24 15:05:37.089847,-332
2021-09-24 15:05:37.089854,-284
2021-09-24 15:05:37.089861,-199
2021-09-24 15:05:37.089868,-104
2021-09-24 15:05:37.089874,-14
2021-09-24 15:05:37.089881,53
2021-09-24 15:05:37.089888,114
2021-09-24 15:05:37.089895,165
2021-09-24 15:05:37.089902,196
2021-09-24 15:05:37.089909,213
2021-09-24 15:05:37.089948,216
2021-09-24 15:05:37.089955,208
2021-09-24 15:05:37.089962,204
2021-09-24 15:05:37.089969,201
2021-09-24 15:05:37.089975,194
2021-09-24 15:05:37.089982,187
2021-09-24 15:05:37.089989,174
2021-09-24 15:05:37.089996,160
2021-09-24 15:05:37.090003,150
2021-09-24 15:05:37.090010,143
2021-09-24 15:05:37.090017,138
2021-09-24 15:05:37.090023,126
2021-09-24 15:05:37.090030,111
2021-09-24 15:05:37.090037,102
2021-09-24 15:05:37.090044,94
2021-09-24 15:05:37.090051,89
2021-09-24 15:05:37.090057,87
2021-09-24 15:05:37.224147,89
2021-09-24 15:05:37.224162,89
2021-09-24 15:05:37.224169,85
2021-09-24 15:05:37.224174,85
2021-09-24 15:05:37.224179,87
2021-09-24 15:05:37.224185,87
2021-09-24 15:05:37.224190,87
2021-09-24 15:05:37.224195,80
2021-09-24 15:05:37.224200,72
2021-09-24 15:05:37.224206,75
2021-09-24 15:05:37.224211,77
2021-09-24 15:05:37.224216,77
2021-09-24 15:05:37.224221,72
2021-09-24 15:05:37.224227,68
2021-09-24 15:05:37.224232,63
2021-09-24 15:05:37.224237,58
2021-09-24 15:05:37.224243,53
2021-09-24 15:05:37.224248,55
2021-09-24 15:05:37.224253,51
2021-09-24 15:05:37.224258,43
2021-09-24 15:05:37.224264,41
2021-09-24 15:05:37.224269,43
2021-09-24 15:05:37.224274,43
2021-09-24 15:05:37.224279,43
2021-09-24 15:05:37.224284,41
2021-09-24 15:05:37.224290,31
2021-09-24 15:05:37.224295,26
2021-09-24 15:05:37.224300,21
2021-09-24 15:05:37.224305,21
2021-09-24 15:05:37.224311,29
2021-09-24 15:05:37.494884,31
2021-09-24 15:05:37.494941,26
2021-09-24 15:05:37.494950,17
2021-09-24 15:05:37.494957,0
2021-09-24 15:05:37.494965,-7
2021-09-24 15:05:37.494972,0
2021-09-24 15:05:37.494979,-9
2021-09-24 15:05:37.494986,-21
2021-09-24 15:05:37.494994,-4
2021-09-24 15:05:37.495001,9
2021-09-24 15:05:37.495008,7
2021-09-24 15:05:37.495015,7
2021-09-24 15:05:37.495022,7
2021-09-24 15:05:37.495029,2
2021-09-24 15:05:37.495037,7
2021-09-24 15:05:37.495044,12
2021-09-24 15:05:37.495051,9
2021-09-24 15:05:37.495058,4
2021-09-24 15:05:37.495065,-17
2021-09-24 15:05:37.495073,-68
2021-09-24 15:05:37.495080,-208
2021-09-24 15:05:37.495087,-442
2021-09-24 15:05:37.495094,-519
2021-09-24 15:05:37.495101,-216
2021-09-24 15:05:37.495109,327
2021-09-24 15:05:37.495116,641
2021-09-24 15:05:37.495123,420
2021-09-24 15:05:37.495130,94
2021-09-24 15:05:37.495137,53
2021-09-24 15:05:37.495144,21
2021-09-24 15:05:37.675162,-97
2021-09-24 15:05:37.675185,-111
2021-09-24 15:05:37.675194,-85
2021-09-24 15:05:37.675201,-114
2021-09-24 15:05:37.675208,-131
2021-09-24 15:05:37.675215,-123
2021-09-24 15:05:37.675222,-136
2021-09-24 15:05:37.675229,-153
2021-09-24 15:05:37.675236,-155
2021-09-24 15:05:37.675243,-165
2021-09-24 15:05:37.675250,-182
2021-09-24 15:05:37.675257,-199
2021-09-24 15:05:37.675264,-218
2021-09-24 15:05:37.675270,-235
2021-09-24 15:05:37.675277,-250
2021-09-24 15:05:37.675284,-274
2021-09-24 15:05:37.675291,-301
2021-09-24 15:05:37.675298,-330
2021-09-24 15:05:37.675305,-357
2021-09-24 15:05:37.675313,-366
2021-09-24 15:05:37.675320,-369
2021-09-24 15:05:37.675327,-369
2021-09-24 15:05:37.675334,-352
2021-09-24 15:05:37.675341,-318
2021-09-24 15:05:37.675348,-264
2021-09-24 15:05:37.675355,-179
2021-09-24 15:05:37.675362,-82
2021-09-24 15:05:37.675369,7
2021-09-24 15:05:37.675376,82
2021-09-24 15:05:37.675383,145
2021-09-24 15:05:37.944205,184
2021-09-24 15:05:37.944232,206
2021-09-24 15:05:37.944245,218
2021-09-24 15:05:37.944257,223
2021-09-24 15:05:37.944268,221
2021-09-24 15:05:37.944278,211
2021-09-24 15:05:37.944285,199
2021-09-24 15:05:37.944292,196
2021-09-24 15:05:37.944298,187
2021-09-24 15:05:37.944305,167
2021-09-24 15:05:37.944311,150
2021-09-24 15:05:37.944318,136
2021-09-24 15:05:37.944324,126
2021-09-24 15:05:37.944331,121
2021-09-24 15:05:37.944337,106
2021-09-24 15:05:37.944344,85
2021-09-24 15:05:37.944350,80
2021-09-24 15:05:37.944357,82
2021-09-24 15:05:37.944364,77
2021-09-24 15:05:37.944370,75
2021-09-24 15:05:37.944377,77
2021-09-24 15:05:37.944383,75
2021-09-24 15:05:37.944390,72
2021-09-24 15:05:37.944396,75
2021-09-24 15:05:37.944403,75
2021-09-24 15:05:37.944409,72
2021-09-24 15:05:37.944416,68
2021-09-24 15:05:37.944422,65
2021-09-24 15:05:37.944428,60
2021-09-24 15:05:37.944435,58
2021-09-24 15:05:38.124141,60
2021-09-24 15:05:38.124158,60
2021-09-24 15:05:38.124164,55
2021-09-24 15:05:38.124170,46
2021-09-24 15:05:38.124175,41
2021-09-24 15:05:38.124180,41
2021-09-24 15:05:38.124186,43
2021-09-24 15:05:38.124194,46
2021-09-24 15:05:38.124200,43
2021-09-24 15:05:38.124205,38
2021-09-24 15:05:38.124210,34
2021-09-24 15:05:38.124216,29
2021-09-24 15:05:38.124221,31
2021-09-24 15:05:38.124229,36
2021-09-24 15:05:38.124235,34
2021-09-24 15:05:38.124241,29
2021-09-24 15:05:38.124246,21
2021-09-24 15:05:38.124251,21
2021-09-24 15:05:38.124256,29
2021-09-24 15:05:38.124262,31
2021-09-24 15:05:38.124267,29
2021-09-24 15:05:38.124272,29
2021-09-24 15:05:38.124277,29
2021-09-24 15:05:38.124283,26
2021-09-24 15:05:38.124288,19
2021-09-24 15:05:38.124293,4
2021-09-24 15:05:38.124299,0
2021-09-24 15:05:38.124304,2
2021-09-24 15:05:38.124309,-4
2021-09-24 15:05:38.124315,-4
2021-09-24 15:05:38.349526,17
2021-09-24 15:05:38.349547,38
2021-09-24 15:05:38.349555,43
2021-09-24 15:05:38.349563,34
2021-09-24 15:05:38.349569,24
2021-09-24 15:05:38.349576,21
2021-09-24 15:05:38.349583,24
2021-09-24 15:05:38.349590,29
2021-09-24 15:05:38.349597,26
2021-09-24 15:05:38.349604,12
2021-09-24 15:05:38.349611,-14
2021-09-24 15:05:38.349617,-65
2021-09-24 15:05:38.349624,-204
2021-09-24 15:05:38.349631,-439
2021-09-24 15:05:38.349638,-524
2021-09-24 15:05:38.349645,-233
2021-09-24 15:05:38.349652,308
2021-09-24 15:05:38.349659,641
2021-09-24 15:05:38.349665,429
2021-09-24 15:05:38.349672,104
2021-09-24 15:05:38.349679,60
2021-09-24 15:05:38.349686,26
2021-09-24 15:05:38.349693,-97
2021-09-24 15:05:38.349700,-109
2021-09-24 15:05:38.349706,-77
2021-09-24 15:05:38.349713,-104
2021-09-24 15:05:38.349720,-128
2021-09-24 15:05:38.349727,-128
2021-09-24 15:05:38.349734,-138
2021-09-24 15:05:38.349741,-148
2021-09-24 15:05:38.664799,-153
2021-09-24 15:05:38.664822,-162
2021-09-24 15:05:38.664831,-179
2021-09-24 15:05:38.664838,-204
2021-09-24 15:05:38.664845,-223
2021-09-24 15:05:38.664855,-233
2021-09-24 15:05:38.664862,-255
2021-09-24 15:05:38.664869,-286
2021-09-24 15:05:38.664876,-318
2021-09-24 15:05:38.664883,-347
2021-09-24 15:05:38.664890,-366
2021-09-24 15:05:38.664900,-376
2021-09-24 15:05:38.664913,-381
2021-09-24 15:05:38.664925,-376
2021-09-24 15:05:38.664938,-364
2021-09-24 15:05:38.664950,-337
2021-09-24 15:05:38.664961,-279
2021-09-24 15:05:38.664968,-191
2021-09-24 15:05:38.664975,-94
2021-09-24 15:05:38.664982,-4
2021-09-24 15:05:38.664989,70
2021-09-24 15:05:38.664995,131
2021-09-24 15:05:38.665002,172
2021-09-24 15:05:38.665009,199
2021-09-24 15:05:38.665016,213
2021-09-24 15:05:38.665023,218
2021-09-24 15:05:38.665029,221
2021-09-24 15:05:38.665036,213
2021-09-24 15:05:38.665043,208
2021-09-24 15:05:38.665050,204
2021-09-24 15:05:38.889189,194
2021-09-24 15:05:38.889213,182
2021-09-24 15:05:38.889221,167
2021-09-24 15:05:38.889228,153
2021-09-24 15:05:38.889234,145
2021-09-24 15:05:38.889241,140
2021-09-24 15:05:38.889247,133
2021-09-24 15:05:38.889254,128
2021-09-24 15:05:38.889260,114
2021-09-24 15:05:38.889267,97
2021-09-24 15:05:38.889273,89
2021-09-24 15:05:38.889280,87
2021-09-24 15:05:38.889287,82
2021-09-24 15:05:38.889293,77
2021-09-24 15:05:38.889300,68
2021-09-24 15:05:38.889306,60
2021-09-24 15:05:38.889313,65
2021-09-24 15:05:38.889319,70
2021-09-24 15:05:38.889326,70
2021-09-24 15:05:38.889332,65
2021-09-24 15:05:38.889339,58
2021-09-24 15:05:38.889345,55
2021-09-24 15:05:38.889352,60
2021-09-24 15:05:38.889358,63
2021-09-24 15:05:38.889365,60
2021-09-24 15:05:38.889371,60
2021-09-24 15:05:38.889378,51
2021-09-24 15:05:38.889384,38
2021-09-24 15:05:38.889391,43
2021-09-24 15:05:38.889398,51
2021-09-24 15:05:39.114844,48
2021-09-24 15:05:39.114875,46
2021-09-24 15:05:39.114887,43
2021-09-24 15:05:39.114897,41
2021-09-24 15:05:39.114908,41
2021-09-24 15:05:39.114918,46
2021-09-24 15:05:39.114928,43
2021-09-24 15:05:39.114938,36
2021-09-24 15:05:39.114948,31
2021-09-24 15:05:39.114958,34
2021-09-24 15:05:39.114968,34
2021-09-24 15:05:39.114978,29
2021-09-24 15:05:39.114989,24
2021-09-24 15:05:39.114999,24
2021-09-24 15:05:39.115009,21
2021-09-24 15:05:39.115019,19
2021-09-24 15:05:39.115029,12
2021-09-24 15:05:39.115039,-2
2021-09-24 15:05:39.115049,-9
2021-09-24 15:05:39.115059,-4
2021-09-24 15:05:39.115070,-12
2021-09-24 15:05:39.115080,-14
2021-09-24 15:05:39.115090,7
2021-09-24 15:05:39.115100,29
2021-09-24 15:05:39.115110,34
2021-09-24 15:05:39.115120,31
2021-09-24 15:05:39.115130,31
2021-09-24 15:05:39.115140,36
2021-09-24 15:05:39.115150,36
2021-09-24 15:05:39.115160,38
2021-09-24 15:05:39.294840,38
2021-09-24 15:05:39.294863,36
2021-09-24 15:05:39.294871,14
2021-09-24 15:05:39.294878,-29
2021-09-24 15:05:39.294884,-140
2021-09-24 15:05:39.294891,-369
2021-09-24 15:05:39.294897,-524
2021-09-24 15:05:39.294904,-327
2021-09-24 15:05:39.294910,187
2021-09-24 15:05:39.294917,609
2021-09-24 15:05:39.294923,517
2021-09-24 15:05:39.294930,162
2021-09-24 15:05:39.294936,58
2021-09-24 15:05:39.294943,60
2021-09-24 15:05:39.294949,-58
2021-09-24 15:05:39.294956,-106
2021-09-24 15:05:39.294962,-70
2021-09-24 15:05:39.294969,-87
2021-09-24 15:05:39.294976,-121
2021-09-24 15:05:39.294982,-123
2021-09-24 15:05:39.294989,-126
2021-09-24 15:05:39.294995,-143
2021-09-24 15:05:39.295002,-153
2021-09-24 15:05:39.295008,-160
2021-09-24 15:05:39.295014,-177
2021-09-24 15:05:39.295021,-189
2021-09-24 15:05:39.295028,-201
2021-09-24 15:05:39.295034,-221
2021-09-24 15:05:39.295041,-242
2021-09-24 15:05:39.295047,-267
2021-09-24 15:05:39.610032,-296
2021-09-24 15:05:39.610054,-332
2021-09-24 15:05:39.610062,-364
2021-09-24 15:05:39.610070,-381
2021-09-24 15:05:39.610077,-386
2021-09-24 15:05:39.610083,-388
2021-09-24 15:05:39.610090,-386
2021-09-24 15:05:39.610097,-357
2021-09-24 15:05:39.610104,-296
2021-09-24 15:05:39.610111,-221
2021-09-24 15:05:39.610118,-131
2021-09-24 15:05:39.610125,-41
2021-09-24 15:05:39.610132,38
2021-09-24 15:05:39.610139,104
2021-09-24 15:05:39.610146,153
2021-09-24 15:05:39.610153,179
2021-09-24 15:05:39.610160,189
2021-09-24 15:05:39.610167,199
2021-09-24 15:05:39.610174,204
2021-09-24 15:05:39.610181,201
2021-09-24 15:05:39.610188,199
2021-09-24 15:05:39.610194,191
2021-09-24 15:05:39.610201,184
2021-09-24 15:05:39.610208,174
2021-09-24 15:05:39.610215,165
2021-09-24 15:05:39.610222,153
2021-09-24 15:05:39.610229,138
2021-09-24 15:05:39.610236,128
2021-09-24 15:05:39.610243,116
2021-09-24 15:05:39.610249,102
2021-09-24 15:05:39.744327,94
2021-09-24 15:05:39.744352,94
2021-09-24 15:05:39.744365,89
2021-09-24 15:05:39.744376,82
2021-09-24 15:05:39.744385,80
2021-09-24 15:05:39.744397,77
2021-09-24 15:05:39.744409,75
2021-09-24 15:05:39.744421,80
2021-09-24 15:05:39.744433,82
2021-09-24 15:05:39.744446,80
2021-09-24 15:05:39.744458,77
2021-09-24 15:05:39.744470,72
2021-09-24 15:05:39.744482,68
2021-09-24 15:05:39.744494,72
2021-09-24 15:05:39.744506,75
2021-09-24 15:05:39.744518,72
2021-09-24 15:05:39.744527,70
2021-09-24 15:05:39.744535,68
2021-09-24 15:05:39.744544,63
2021-09-24 15:05:39.744557,68
2021-09-24 15:05:39.744565,68
2021-09-24 15:05:39.744578,65
2021-09-24 15:05:39.744590,60
2021-09-24 15:05:39.744598,55
2021-09-24 15:05:39.744610,55
2021-09-24 15:05:39.744622,58
2021-09-24 15:05:39.744633,58
2021-09-24 15:05:39.744646,53
2021-09-24 15:05:39.744656,51
2021-09-24 15:05:39.744668,53
2021-09-24 15:05:39.969780,53
2021-09-24 15:05:39.969804,53
2021-09-24 15:05:39.969812,53
2021-09-24 15:05:39.969819,51
2021-09-24 15:05:39.969825,43
2021-09-24 15:05:39.969831,41
2021-09-24 15:05:39.969838,46
2021-09-24 15:05:39.969844,43
2021-09-24 15:05:39.969851,24
2021-09-24 15:05:39.969857,2
2021-09-24 15:05:39.969864,-7
2021-09-24 15:05:39.969870,-7
2021-09-24 15:05:39.969909,-4
2021-09-24 15:05:39.969915,-4
2021-09-24 15:05:39.969922,4
2021-09-24 15:05:39.969928,24
2021-09-24 15:05:39.969935,36
2021-09-24 15:05:39.969941,36
2021-09-24 15:05:39.969948,36
2021-09-24 15:05:39.969954,34
2021-09-24 15:05:39.969960,31
2021-09-24 15:05:39.969967,31
2021-09-24 15:05:39.969973,31
2021-09-24 15:05:39.969980,31
2021-09-24 15:05:39.969986,24
2021-09-24 15:05:39.969993,-2
2021-09-24 15:05:39.969999,-77
2021-09-24 15:05:39.970006,-267
2021-09-24 15:05:39.970012,-493
2021-09-24 15:05:39.970019,-461
2021-09-24 15:05:40.194961,-58
2021-09-24 15:05:40.194989,471
2021-09-24 15:05:40.195002,638
2021-09-24 15:05:40.195012,315
2021-09-24 15:05:40.195023,60
2021-09-24 15:05:40.195032,75
2021-09-24 15:05:40.195043,12
2021-09-24 15:05:40.195054,-92
2021-09-24 15:05:40.195064,-77
2021-09-24 15:05:40.195099,-70
2021-09-24 15:05:40.195121,-114
2021-09-24 15:05:40.195130,-119
2021-09-24 15:05:40.195137,-111
2021-09-24 15:05:40.195143,-128
2021-09-24 15:05:40.195150,-143
2021-09-24 15:05:40.195157,-150
2021-09-24 15:05:40.195188,-162
2021-09-24 15:05:40.195200,-174
2021-09-24 15:05:40.195210,-187
2021-09-24 15:05:40.195220,-204
2021-09-24 15:05:40.195229,-225
2021-09-24 15:05:40.195240,-255
2021-09-24 15:05:40.195250,-284
2021-09-24 15:05:40.195260,-308
2021-09-24 15:05:40.195269,-332
2021-09-24 15:05:40.195279,-354
2021-09-24 15:05:40.195289,-371
2021-09-24 15:05:40.195299,-381
2021-09-24 15:05:40.195334,-378
2021-09-24 15:05:40.195350,-361
2021-09-24 15:05:40.509287,-318
2021-09-24 15:05:40.509318,-250
2021-09-24 15:05:40.509329,-162
2021-09-24 15:05:40.509340,-72
2021-09-24 15:05:40.509349,17
2021-09-24 15:05:40.509359,97
2021-09-24 15:05:40.509369,157
2021-09-24 15:05:40.509379,196
2021-09-24 15:05:40.509389,213
2021-09-24 15:05:40.509399,218
2021-09-24 15:05:40.509409,218
2021-09-24 15:05:40.509419,223
2021-09-24 15:05:40.509429,218
2021-09-24 15:05:40.509439,201
2021-09-24 15:05:40.509449,179
2021-09-24 15:05:40.509465,167
2021-09-24 15:05:40.509475,157
2021-09-24 15:05:40.509485,145
2021-09-24 15:05:40.509496,133
2021-09-24 15:05:40.509506,128
2021-09-24 15:05:40.509515,116
2021-09-24 15:05:40.509525,102
2021-09-24 15:05:40.509535,94
2021-09-24 15:05:40.509545,87
2021-09-24 15:05:40.509555,75
2021-09-24 15:05:40.509565,72
2021-09-24 15:05:40.509575,68
2021-09-24 15:05:40.509585,63
2021-09-24 15:05:40.509594,65
2021-09-24 15:05:40.509604,72
2021-09-24 15:05:40.689148,72
2021-09-24 15:05:40.689166,72
2021-09-24 15:05:40.689173,70
2021-09-24 15:05:40.689179,68
2021-09-24 15:05:40.689185,72
2021-09-24 15:05:40.689190,77
2021-09-24 15:05:40.689196,77
2021-09-24 15:05:40.689202,77
2021-09-24 15:05:40.689208,70
2021-09-24 15:05:40.689213,65
2021-09-24 15:05:40.689219,68
2021-09-24 15:05:40.689225,70
2021-09-24 15:05:40.689230,70
2021-09-24 15:05:40.689236,68
2021-09-24 15:05:40.689242,58
2021-09-24 15:05:40.689247,53
2021-09-24 15:05:40.689253,58
2021-09-24 15:05:40.689259,60
2021-09-24 15:05:40.689265,60
2021-09-24 15:05:40.689270,60
2021-09-24 15:05:40.689276,58
2021-09-24 15:05:40.689282,53
2021-09-24 15:05:40.689288,55
2021-09-24 15:05:40.689293,58
2021-09-24 15:05:40.689299,58
2021-09-24 15:05:40.689305,53
2021-09-24 15:05:40.689310,46
2021-09-24 15:05:40.689316,46
2021-09-24 15:05:40.689322,55
2021-09-24 15:05:40.689328,58
2021-09-24 15:05:40.957899,51
2021-09-24 15:05:40.957921,36
2021-09-24 15:05:40.957929,17
2021-09-24 15:05:40.957936,14
2021-09-24 15:05:40.957943,21
2021-09-24 15:05:40.957949,14
2021-09-24 15:05:40.957956,17
2021-09-24 15:05:40.957962,36
2021-09-24 15:05:40.957969,43
2021-09-24 15:05:40.957976,43
2021-09-24 15:05:40.957982,46
2021-09-24 15:05:40.957989,48
2021-09-24 15:05:40.957995,46
2021-09-24 15:05:40.958002,41
2021-09-24 15:05:40.958008,36
2021-09-24 15:05:40.958015,34
2021-09-24 15:05:40.958021,31
2021-09-24 15:05:40.958028,9
2021-09-24 15:05:40.958034,-51
2021-09-24 15:05:40.958041,-208
2021-09-24 15:05:40.958048,-451
2021-09-24 15:05:40.958054,-519
2021-09-24 15:05:40.958061,-208
2021-09-24 15:05:40.958067,330
2021-09-24 15:05:40.958074,638
2021-09-24 15:05:40.958080,415
2021-09-24 15:05:40.958087,94
2021-09-24 15:05:40.958093,60
2021-09-24 15:05:40.958100,26
2021-09-24 15:05:40.958106,-89
2021-09-24 15:05:41.139648,-102
2021-09-24 15:05:41.139673,-77
2021-09-24 15:05:41.139680,-106
2021-09-24 15:05:41.139687,-123
2021-09-24 15:05:41.139693,-119
2021-09-24 15:05:41.139700,-128
2021-09-24 15:05:41.139707,-148
2021-09-24 15:05:41.139713,-165
2021-09-24 15:05:41.139720,-174
2021-09-24 15:05:41.139726,-187
2021-09-24 15:05:41.139733,-199
2021-09-24 15:05:41.139739,-213
2021-09-24 15:05:41.139746,-240
2021-09-24 15:05:41.139752,-269
2021-09-24 15:05:41.139759,-293
2021-09-24 15:05:41.139766,-320
2021-09-24 15:05:41.139772,-349
2021-09-24 15:05:41.139779,-374
2021-09-24 15:05:41.139785,-395
2021-09-24 15:05:41.139792,-410
2021-09-24 15:05:41.139798,-405
2021-09-24 15:05:41.139805,-388
2021-09-24 15:05:41.139811,-352
2021-09-24 15:05:41.139818,-289
2021-09-24 15:05:41.139824,-199
2021-09-24 15:05:41.139863,-99
2021-09-24 15:05:41.139869,-2
2021-09-24 15:05:41.139876,77
2021-09-24 15:05:41.139883,140
2021-09-24 15:05:41.139889,182
2021-09-24 15:05:41.364987,199
2021-09-24 15:05:41.365009,208
2021-09-24 15:05:41.365017,218
2021-09-24 15:05:41.365024,216
2021-09-24 15:05:41.365031,206
2021-09-24 15:05:41.365038,199
2021-09-24 15:05:41.365044,184
2021-09-24 15:05:41.365051,165
2021-09-24 15:05:41.365057,157
2021-09-24 15:05:41.365064,148
2021-09-24 15:05:41.365070,138
2021-09-24 15:05:41.365077,126
2021-09-24 15:05:41.365083,109
2021-09-24 15:05:41.365090,99
2021-09-24 15:05:41.365097,92
2021-09-24 15:05:41.365103,87
2021-09-24 15:05:41.365110,80
2021-09-24 15:05:41.365117,77
2021-09-24 15:05:41.365123,72
2021-09-24 15:05:41.365130,72
2021-09-24 15:05:41.365137,72
2021-09-24 15:05:41.365143,70
2021-09-24 15:05:41.365150,70
2021-09-24 15:05:41.365156,72
2021-09-24 15:05:41.365163,68
2021-09-24 15:05:41.365169,60
2021-09-24 15:05:41.365176,55
2021-09-24 15:05:41.365183,58
2021-09-24 15:05:41.365189,63
2021-09-24 15:05:41.365196,60
2021-09-24 15:05:41.634778,60
2021-09-24 15:05:41.634801,58
2021-09-24 15:05:41.634841,53
2021-09-24 15:05:41.634848,51
2021-09-24 15:05:41.634854,51
2021-09-24 15:05:41.634861,46
2021-09-24 15:05:41.634867,41
2021-09-24 15:05:41.634874,43
2021-09-24 15:05:41.634881,48
2021-09-24 15:05:41.634887,46
2021-09-24 15:05:41.634894,43
2021-09-24 15:05:41.634900,41
2021-09-24 15:05:41.634907,36
2021-09-24 15:05:41.634914,38
2021-09-24 15:05:41.634920,41
2021-09-24 15:05:41.634927,36
2021-09-24 15:05:41.634933,38
2021-09-24 15:05:41.634940,38
2021-09-24 15:05:41.634946,36
2021-09-24 15:05:41.634953,41
2021-09-24 15:05:41.634959,46
2021-09-24 15:05:41.634966,46
2021-09-24 15:05:41.634973,38
2021-09-24 15:05:41.634979,26
2021-09-24 15:05:41.634986,12
2021-09-24 15:05:41.634992,14
2021-09-24 15:05:41.634999,19
2021-09-24 15:05:41.635005,9
2021-09-24 15:05:41.635012,9
2021-09-24 15:05:41.635019,31
2021-09-24 15:05:41.814806,46
2021-09-24 15:05:41.814827,53
2021-09-24 15:05:41.814835,51
2021-09-24 15:05:41.814842,43
2021-09-24 15:05:41.814849,34
2021-09-24 15:05:41.814855,34
2021-09-24 15:05:41.814862,38
2021-09-24 15:05:41.814868,41
2021-09-24 15:05:41.814931,34
2021-09-24 15:05:41.814939,9
2021-09-24 15:05:41.814945,-48
2021-09-24 15:05:41.814952,-199
2021-09-24 15:05:41.814959,-437
2021-09-24 15:05:41.814965,-527
2021-09-24 15:05:41.814972,-247
2021-09-24 15:05:41.814978,284
2021-09-24 15:05:41.814985,624
2021-09-24 15:05:41.814991,434
2021-09-24 15:05:41.814998,104
2021-09-24 15:05:41.815004,60
2021-09-24 15:05:41.815011,41
2021-09-24 15:05:41.815017,-80
2021-09-24 15:05:41.815024,-106
2021-09-24 15:05:41.815030,-80
2021-09-24 15:05:41.815037,-104
2021-09-24 15:05:41.815043,-123
2021-09-24 15:05:41.815050,-116
2021-09-24 15:05:41.815056,-131
2021-09-24 15:05:41.815062,-148
2021-09-24 15:05:41.815069,-153
2021-09-24 15:05:42.039790,-162
2021-09-24 15:05:42.039813,-189
2021-09-24 15:05:42.039820,-213
2021-09-24 15:05:42.039827,-233
2021-09-24 15:05:42.039834,-257
2021-09-24 15:05:42.039840,-289
2021-09-24 15:05:42.039847,-315
2021-09-24 15:05:42.039854,-342
2021-09-24 15:05:42.039860,-371
2021-09-24 15:05:42.039867,-405
2021-09-24 15:05:42.039874,-437
2021-09-24 15:05:42.039880,-446
2021-09-24 15:05:42.039887,-439
2021-09-24 15:05:42.039893,-422
2021-09-24 15:05:42.039900,-388
2021-09-24 15:05:42.039906,-327
2021-09-24 15:05:42.039913,-238
2021-09-24 15:05:42.039919,-131
2021-09-24 15:05:42.039926,-26
2021-09-24 15:05:42.039933,55
2021-09-24 15:05:42.039939,121
2021-09-24 15:05:42.039946,165
2021-09-24 15:05:42.039952,189
2021-09-24 15:05:42.039959,206
2021-09-24 15:05:42.039965,213
2021-09-24 15:05:42.039972,213
2021-09-24 15:05:42.039978,206
2021-09-24 15:05:42.039985,196
2021-09-24 15:05:42.039992,184
2021-09-24 15:05:42.039998,174
2021-09-24 15:05:42.354211,170
2021-09-24 15:05:42.354236,162
2021-09-24 15:05:42.354244,148
2021-09-24 15:05:42.354251,128
2021-09-24 15:05:42.354258,114
2021-09-24 15:05:42.354264,109
2021-09-24 15:05:42.354271,104
2021-09-24 15:05:42.354277,92
2021-09-24 15:05:42.354284,75
2021-09-24 15:05:42.354291,60
2021-09-24 15:05:42.354297,58
2021-09-24 15:05:42.354304,60
2021-09-24 15:05:42.354310,60
2021-09-24 15:05:42.354317,58
2021-09-24 15:05:42.354324,58
2021-09-24 15:05:42.354330,58
2021-09-24 15:05:42.354337,58
2021-09-24 15:05:42.354344,65
2021-09-24 15:05:42.354350,70
2021-09-24 15:05:42.354357,70
2021-09-24 15:05:42.354363,70
2021-09-24 15:05:42.354370,68
2021-09-24 15:05:42.354377,68
2021-09-24 15:05:42.354383,72
2021-09-24 15:05:42.354390,72
2021-09-24 15:05:42.354397,72
2021-09-24 15:05:42.354403,70
2021-09-24 15:05:42.354410,65
2021-09-24 15:05:42.354417,65
2021-09-24 15:05:42.354423,68
2021-09-24 15:05:42.534602,70
2021-09-24 15:05:42.534625,68
2021-09-24 15:05:42.534633,65
2021-09-24 15:05:42.534640,60
2021-09-24 15:05:42.534646,63
2021-09-24 15:05:42.534653,65
2021-09-24 15:05:42.534659,58
2021-09-24 15:05:42.534666,43
2021-09-24 15:05:42.534673,36
2021-09-24 15:05:42.534679,29
2021-09-24 15:05:42.534686,21
2021-09-24 15:05:42.534692,24
2021-09-24 15:05:42.534699,31
2021-09-24 15:05:42.534705,34
2021-09-24 15:05:42.534712,26
2021-09-24 15:05:42.534718,12
2021-09-24 15:05:42.534725,0
2021-09-24 15:05:42.534732,-2
2021-09-24 15:05:42.534738,2
2021-09-24 15:05:42.534745,0
2021-09-24 15:05:42.534752,-12
2021-09-24 15:05:42.534758,-2
2021-09-24 15:05:42.534765,21
2021-09-24 15:05:42.534771,36
2021-09-24 15:05:42.534778,38
2021-09-24 15:05:42.534784,38
2021-09-24 15:05:42.534791,34
2021-09-24 15:05:42.534798,34
2021-09-24 15:05:42.534804,38
2021-09-24 15:05:42.534811,43
2021-09-24 15:05:42.804569,43
2021-09-24 15:05:42.804586,36
2021-09-24 15:05:42.804593,9
2021-09-24 15:05:42.804599,-53
2021-09-24 15:05:42.804604,-211
2021-09-24 15:05:42.804624,-449
2021-09-24 15:05:42.804629,-502
2021-09-24 15:05:42.804634,-184
2021-09-24 15:05:42.804639,344
2021-09-24 15:05:42.804644,634
2021-09-24 15:05:42.804650,400
2021-09-24 15:05:42.804655,92
2021-09-24 15:05:42.804660,65
2021-09-24 15:05:42.804665,24
2021-09-24 15:05:42.804670,-97
2021-09-24 15:05:42.804675,-104
2021-09-24 15:05:42.804680,-75
2021-09-24 15:05:42.804686,-104
2021-09-24 15:05:42.804691,-121
2021-09-24 15:05:42.804696,-119
2021-09-24 15:05:42.804701,-133
2021-09-24 15:05:42.804706,-148
2021-09-24 15:05:42.804712,-150
2021-09-24 15:05:42.804717,-157
2021-09-24 15:05:42.804722,-172
