Time,ECG
2021-10-14 16:13:31.215448,-7
2021-10-14 16:13:31.215469,-7
2021-10-14 16:13:31.215479,-7
2021-10-14 16:13:31.215489,-4
2021-10-14 16:13:31.215498,2
2021-10-14 16:13:31.215507,9
2021-10-14 16:13:31.215516,19
2021-10-14 16:13:31.215525,24
2021-10-14 16:13:31.215534,21
2021-10-14 16:13:31.215543,24
2021-10-14 16:13:31.215552,36
2021-10-14 16:13:31.215560,45
2021-10-14 16:13:31.215569,43
2021-10-14 16:13:31.215578,31
2021-10-14 16:13:31.215587,19
2021-10-14 16:13:31.215595,21
2021-10-14 16:13:31.215604,31
2021-10-14 16:13:31.215613,31
2021-10-14 16:13:31.215622,33
2021-10-14 16:13:31.215631,31
2021-10-14 16:13:31.215639,28
2021-10-14 16:13:31.215648,31
2021-10-14 16:13:31.215657,28
2021-10-14 16:13:31.215665,24
2021-10-14 16:13:31.215674,26
2021-10-14 16:13:31.215683,33
2021-10-14 16:13:31.215692,31
2021-10-14 16:13:31.215701,31
2021-10-14 16:13:31.215709,36
2021-10-14 16:13:31.215718,40
2021-10-14 16:13:31.352183,43
2021-10-14 16:13:31.352201,43
2021-10-14 16:13:31.352211,40
2021-10-14 16:13:31.352219,40
2021-10-14 16:13:31.352228,48
2021-10-14 16:13:31.352236,55
2021-10-14 16:13:31.352245,60
2021-10-14 16:13:31.352254,62
2021-10-14 16:13:31.352262,76
2021-10-14 16:13:31.352270,81
2021-10-14 16:13:31.352279,64
2021-10-14 16:13:31.352287,43
2021-10-14 16:13:31.352295,33
2021-10-14 16:13:31.352304,26
2021-10-14 16:13:31.352312,26
2021-10-14 16:13:31.352320,31
2021-10-14 16:13:31.352328,33
2021-10-14 16:13:31.352337,36
2021-10-14 16:13:31.352346,31
2021-10-14 16:13:31.352354,21
2021-10-14 16:13:31.352362,26
2021-10-14 16:13:31.352371,38
2021-10-14 16:13:31.352379,93
2021-10-14 16:13:31.352387,336
2021-10-14 16:13:31.352395,764
2021-10-14 16:13:31.352404,858
2021-10-14 16:13:31.352412,64
2021-10-14 16:13:31.352420,-971
2021-10-14 16:13:31.352428,-978
2021-10-14 16:13:31.352438,-288
2021-10-14 16:13:31.531255,-38
2021-10-14 16:13:31.531274,-69
2021-10-14 16:13:31.531284,64
2021-10-14 16:13:31.531292,134
2021-10-14 16:13:31.531301,88
2021-10-14 16:13:31.531309,110
2021-10-14 16:13:31.531317,146
2021-10-14 16:13:31.531325,125
2021-10-14 16:13:31.531334,127
2021-10-14 16:13:31.531342,151
2021-10-14 16:13:31.531350,156
2021-10-14 16:13:31.531359,151
2021-10-14 16:13:31.531367,146
2021-10-14 16:13:31.531379,149
2021-10-14 16:13:31.531387,163
2021-10-14 16:13:31.531396,173
2021-10-14 16:13:31.531404,182
2021-10-14 16:13:31.531412,202
2021-10-14 16:13:31.531421,216
2021-10-14 16:13:31.531429,218
2021-10-14 16:13:31.531437,230
2021-10-14 16:13:31.531446,245
2021-10-14 16:13:31.531454,254
2021-10-14 16:13:31.531462,259
2021-10-14 16:13:31.531471,254
2021-10-14 16:13:31.531479,242
2021-10-14 16:13:31.531488,230
2021-10-14 16:13:31.531496,216
2021-10-14 16:13:31.531504,197
2021-10-14 16:13:31.531514,173
2021-10-14 16:13:31.711835,146
2021-10-14 16:13:31.711853,122
2021-10-14 16:13:31.711862,108
2021-10-14 16:13:31.711871,96
2021-10-14 16:13:31.711879,86
2021-10-14 16:13:31.711888,74
2021-10-14 16:13:31.711896,62
2021-10-14 16:13:31.711904,57
2021-10-14 16:13:31.711913,64
2021-10-14 16:13:31.711921,67
2021-10-14 16:13:31.711929,69
2021-10-14 16:13:31.711937,72
2021-10-14 16:13:31.711946,69
2021-10-14 16:13:31.711954,74
2021-10-14 16:13:31.711962,86
2021-10-14 16:13:31.711970,93
2021-10-14 16:13:31.711979,98
2021-10-14 16:13:31.711989,108
2021-10-14 16:13:31.711997,117
2021-10-14 16:13:31.712005,129
2021-10-14 16:13:31.712014,141
2021-10-14 16:13:31.712022,146
2021-10-14 16:13:31.712030,149
2021-10-14 16:13:31.712038,161
2021-10-14 16:13:31.712047,170
2021-10-14 16:13:31.712055,177
2021-10-14 16:13:31.712063,177
2021-10-14 16:13:31.712071,180
2021-10-14 16:13:31.712079,187
2021-10-14 16:13:31.712088,192
2021-10-14 16:13:31.937307,194
2021-10-14 16:13:31.937328,199
2021-10-14 16:13:31.937338,204
2021-10-14 16:13:31.937346,204
2021-10-14 16:13:31.937355,206
2021-10-14 16:13:31.937363,206
2021-10-14 16:13:31.937371,206
2021-10-14 16:13:31.937385,209
2021-10-14 16:13:31.937393,211
2021-10-14 16:13:31.937402,214
2021-10-14 16:13:31.937410,216
2021-10-14 16:13:31.937419,214
2021-10-14 16:13:31.937427,214
2021-10-14 16:13:31.937435,223
2021-10-14 16:13:31.937444,223
2021-10-14 16:13:31.937452,218
2021-10-14 16:13:31.937460,216
2021-10-14 16:13:31.937468,211
2021-10-14 16:13:31.937477,216
2021-10-14 16:13:31.937485,228
2021-10-14 16:13:31.937493,230
2021-10-14 16:13:31.937501,235
2021-10-14 16:13:31.937510,257
2021-10-14 16:13:31.937518,262
2021-10-14 16:13:31.937526,223
2021-10-14 16:13:31.937535,202
2021-10-14 16:13:31.937543,214
2021-10-14 16:13:31.937551,214
2021-10-14 16:13:31.937560,206
2021-10-14 16:13:31.937569,206
2021-10-14 16:13:32.161818,209
2021-10-14 16:13:32.161839,211
2021-10-14 16:13:32.161848,216
2021-10-14 16:13:32.161857,214
2021-10-14 16:13:32.161865,206
2021-10-14 16:13:32.161873,211
2021-10-14 16:13:32.161882,259
2021-10-14 16:13:32.161890,478
2021-10-14 16:13:32.161899,894
2021-10-14 16:13:32.161907,1036
2021-10-14 16:13:32.161915,307
2021-10-14 16:13:32.161924,-755
2021-10-14 16:13:32.161932,-863
2021-10-14 16:13:32.161940,-182
2021-10-14 16:13:32.161948,108
2021-10-14 16:13:32.161957,57
2021-10-14 16:13:32.161965,180
2021-10-14 16:13:32.161973,264
2021-10-14 16:13:32.161981,206
2021-10-14 16:13:32.161989,204
2021-10-14 16:13:32.161998,238
2021-10-14 16:13:32.162006,228
2021-10-14 16:13:32.162014,221
2021-10-14 16:13:32.162022,238
2021-10-14 16:13:32.162035,242
2021-10-14 16:13:32.162044,242
2021-10-14 16:13:32.162052,252
2021-10-14 16:13:32.162061,257
2021-10-14 16:13:32.162069,254
2021-10-14 16:13:32.162077,262
2021-10-14 16:13:32.387381,276
2021-10-14 16:13:32.387402,281
2021-10-14 16:13:32.387411,286
2021-10-14 16:13:32.387420,298
2021-10-14 16:13:32.387428,295
2021-10-14 16:13:32.387437,295
2021-10-14 16:13:32.387446,310
2021-10-14 16:13:32.387454,315
2021-10-14 16:13:32.387462,303
2021-10-14 16:13:32.387471,283
2021-10-14 16:13:32.387479,266
2021-10-14 16:13:32.387487,252
2021-10-14 16:13:32.387496,226
2021-10-14 16:13:32.387504,189
2021-10-14 16:13:32.387512,156
2021-10-14 16:13:32.387520,129
2021-10-14 16:13:32.387529,103
2021-10-14 16:13:32.387537,81
2021-10-14 16:13:32.387545,64
2021-10-14 16:13:32.387554,50
2021-10-14 16:13:32.387562,38
2021-10-14 16:13:32.387570,26
2021-10-14 16:13:32.387580,19
2021-10-14 16:13:32.387589,14
2021-10-14 16:13:32.387597,14
2021-10-14 16:13:32.387605,12
2021-10-14 16:13:32.387613,12
2021-10-14 16:13:32.387621,16
2021-10-14 16:13:32.387630,21
2021-10-14 16:13:32.387638,19
2021-10-14 16:13:32.656942,16
2021-10-14 16:13:32.656963,21
2021-10-14 16:13:32.656972,21
2021-10-14 16:13:32.656981,14
2021-10-14 16:13:32.656989,14
2021-10-14 16:13:32.656998,28
2021-10-14 16:13:32.657006,36
2021-10-14 16:13:32.657015,36
2021-10-14 16:13:32.657023,33
2021-10-14 16:13:32.657032,28
2021-10-14 16:13:32.657040,26
2021-10-14 16:13:32.657048,26
2021-10-14 16:13:32.657057,28
2021-10-14 16:13:32.657065,31
2021-10-14 16:13:32.657073,24
2021-10-14 16:13:32.657082,19
2021-10-14 16:13:32.657090,26
2021-10-14 16:13:32.657098,28
2021-10-14 16:13:32.657106,24
2021-10-14 16:13:32.657115,26
2021-10-14 16:13:32.657123,26
2021-10-14 16:13:32.657131,14
2021-10-14 16:13:32.657140,9
2021-10-14 16:13:32.657148,14
2021-10-14 16:13:32.657160,19
2021-10-14 16:13:32.657169,21
2021-10-14 16:13:32.657177,12
2021-10-14 16:13:32.657185,12
2021-10-14 16:13:32.657194,21
2021-10-14 16:13:32.657202,21
2021-10-14 16:13:32.882312,9
2021-10-14 16:13:32.882333,12
2021-10-14 16:13:32.882342,19
2021-10-14 16:13:32.882351,16
2021-10-14 16:13:32.882359,26
2021-10-14 16:13:32.882367,38
2021-10-14 16:13:32.882376,36
2021-10-14 16:13:32.882384,31
2021-10-14 16:13:32.882392,26
2021-10-14 16:13:32.882400,26
2021-10-14 16:13:32.882409,21
2021-10-14 16:13:32.882417,4
2021-10-14 16:13:32.882425,-4
2021-10-14 16:13:32.882433,-4
2021-10-14 16:13:32.882441,-14
2021-10-14 16:13:32.882450,-31
2021-10-14 16:13:32.882458,-31
2021-10-14 16:13:32.882466,-19
2021-10-14 16:13:32.882475,-7
2021-10-14 16:13:32.882483,-4
2021-10-14 16:13:32.882491,-16
2021-10-14 16:13:32.882499,-14
2021-10-14 16:13:32.882508,52
2021-10-14 16:13:32.882516,290
2021-10-14 16:13:32.882524,680
2021-10-14 16:13:32.882533,702
2021-10-14 16:13:32.882541,-134
2021-10-14 16:13:32.882549,-1089
2021-10-14 16:13:32.882557,-1014
2021-10-14 16:13:32.882566,-408
2021-10-14 16:13:33.150571,-194
2021-10-14 16:13:33.150592,-137
2021-10-14 16:13:33.150601,24
2021-10-14 16:13:33.150610,64
2021-10-14 16:13:33.150618,26
2021-10-14 16:13:33.150626,40
2021-10-14 16:13:33.150635,48
2021-10-14 16:13:33.150643,31
2021-10-14 16:13:33.150651,36
2021-10-14 16:13:33.150660,48
2021-10-14 16:13:33.150668,48
2021-10-14 16:13:33.150677,57
2021-10-14 16:13:33.150685,69
2021-10-14 16:13:33.150693,62
2021-10-14 16:13:33.150701,60
2021-10-14 16:13:33.150710,79
2021-10-14 16:13:33.150718,93
2021-10-14 16:13:33.150726,98
2021-10-14 16:13:33.150735,110
2021-10-14 16:13:33.150743,125
2021-10-14 16:13:33.150751,129
2021-10-14 16:13:33.150759,141
2021-10-14 16:13:33.150768,156
2021-10-14 16:13:33.150776,163
2021-10-14 16:13:33.150784,156
2021-10-14 16:13:33.150793,132
2021-10-14 16:13:33.150801,105
2021-10-14 16:13:33.150809,86
2021-10-14 16:13:33.150818,62
2021-10-14 16:13:33.150826,26
2021-10-14 16:13:33.332299,-9
2021-10-14 16:13:33.332320,-33
2021-10-14 16:13:33.332329,-60
2021-10-14 16:13:33.332338,-88
2021-10-14 16:13:33.332347,-105
2021-10-14 16:13:33.332355,-115
2021-10-14 16:13:33.332364,-132
2021-10-14 16:13:33.332372,-146
2021-10-14 16:13:33.332380,-149
2021-10-14 16:13:33.332389,-153
2021-10-14 16:13:33.332402,-151
2021-10-14 16:13:33.332411,-139
2021-10-14 16:13:33.332419,-137
2021-10-14 16:13:33.332427,-141
2021-10-14 16:13:33.332436,-139
2021-10-14 16:13:33.332444,-129
2021-10-14 16:13:33.332452,-122
2021-10-14 16:13:33.332461,-115
2021-10-14 16:13:33.332469,-103
2021-10-14 16:13:33.332477,-96
2021-10-14 16:13:33.332486,-93
2021-10-14 16:13:33.332494,-93
2021-10-14 16:13:33.332503,-88
2021-10-14 16:13:33.332511,-81
2021-10-14 16:13:33.332519,-81
2021-10-14 16:13:33.332528,-76
2021-10-14 16:13:33.332536,-76
2021-10-14 16:13:33.332544,-81
2021-10-14 16:13:33.332552,-88
2021-10-14 16:13:33.332560,-91
2021-10-14 16:13:33.556970,-86
2021-10-14 16:13:33.556991,-84
2021-10-14 16:13:33.557001,-86
2021-10-14 16:13:33.557009,-88
2021-10-14 16:13:33.557018,-86
2021-10-14 16:13:33.557026,-84
2021-10-14 16:13:33.557035,-93
2021-10-14 16:13:33.557043,-98
2021-10-14 16:13:33.557051,-88
2021-10-14 16:13:33.557060,-91
2021-10-14 16:13:33.557068,-91
2021-10-14 16:13:33.557076,-93
2021-10-14 16:13:33.557085,-110
2021-10-14 16:13:33.557093,-110
2021-10-14 16:13:33.557102,-98
2021-10-14 16:13:33.557110,-98
2021-10-14 16:13:33.557119,-98
2021-10-14 16:13:33.557127,-93
2021-10-14 16:13:33.557135,-93
2021-10-14 16:13:33.557143,-93
2021-10-14 16:13:33.557152,-91
2021-10-14 16:13:33.557160,-88
2021-10-14 16:13:33.557169,-86
2021-10-14 16:13:33.557177,-86
2021-10-14 16:13:33.557186,-81
2021-10-14 16:13:33.557198,-72
2021-10-14 16:13:33.557207,-52
2021-10-14 16:13:33.557215,-52
2021-10-14 16:13:33.557224,-81
2021-10-14 16:13:33.557232,-101
2021-10-14 16:13:33.782349,-108
2021-10-14 16:13:33.782370,-115
2021-10-14 16:13:33.782379,-115
2021-10-14 16:13:33.782388,-105
2021-10-14 16:13:33.782397,-108
2021-10-14 16:13:33.782405,-113
2021-10-14 16:13:33.782414,-113
2021-10-14 16:13:33.782422,-105
2021-10-14 16:13:33.782430,-93
2021-10-14 16:13:33.782439,-67
2021-10-14 16:13:33.782447,24
2021-10-14 16:13:33.782456,322
2021-10-14 16:13:33.782464,707
2021-10-14 16:13:33.782472,548
2021-10-14 16:13:33.782480,-437
2021-10-14 16:13:33.782489,-1224
2021-10-14 16:13:33.782497,-884
2021-10-14 16:13:33.782505,-281
2021-10-14 16:13:33.782514,-189
2021-10-14 16:13:33.782522,-139
2021-10-14 16:13:33.782530,9
2021-10-14 16:13:33.782539,2
2021-10-14 16:13:33.782547,-33
2021-10-14 16:13:33.782555,14
2021-10-14 16:13:33.782563,26
2021-10-14 16:13:33.782572,9
2021-10-14 16:13:33.782580,24
2021-10-14 16:13:33.782588,38
2021-10-14 16:13:33.782597,36
2021-10-14 16:13:33.782605,40
2021-10-14 16:13:34.096880,55
2021-10-14 16:13:34.096901,57
2021-10-14 16:13:34.096910,52
2021-10-14 16:13:34.096919,55
2021-10-14 16:13:34.096928,60
2021-10-14 16:13:34.096936,67
2021-10-14 16:13:34.096945,81
2021-10-14 16:13:34.096953,98
2021-10-14 16:13:34.096961,103
2021-10-14 16:13:34.096970,103
2021-10-14 16:13:34.096978,103
2021-10-14 16:13:34.096987,103
2021-10-14 16:13:34.096995,103
2021-10-14 16:13:34.097004,93
2021-10-14 16:13:34.097012,79
2021-10-14 16:13:34.097021,55
2021-10-14 16:13:34.097033,16
2021-10-14 16:13:34.097041,-16
2021-10-14 16:13:34.097050,-40
2021-10-14 16:13:34.097058,-60
2021-10-14 16:13:34.097067,-81
2021-10-14 16:13:34.097075,-98
2021-10-14 16:13:34.097083,-110
2021-10-14 16:13:34.097092,-115
2021-10-14 16:13:34.097100,-120
2021-10-14 16:13:34.097108,-122
2021-10-14 16:13:34.097116,-125
2021-10-14 16:13:34.097125,-127
2021-10-14 16:13:34.097133,-125
2021-10-14 16:13:34.097141,-117
2021-10-14 16:13:34.232298,-110
2021-10-14 16:13:34.232319,-105
2021-10-14 16:13:34.232328,-101
2021-10-14 16:13:34.232337,-96
2021-10-14 16:13:34.232345,-96
2021-10-14 16:13:34.232353,-96
2021-10-14 16:13:34.232362,-91
2021-10-14 16:13:34.232370,-86
2021-10-14 16:13:34.232378,-88
2021-10-14 16:13:34.232386,-86
2021-10-14 16:13:34.232395,-76
2021-10-14 16:13:34.232403,-76
2021-10-14 16:13:34.232411,-84
2021-10-14 16:13:34.232420,-84
2021-10-14 16:13:34.232428,-79
2021-10-14 16:13:34.232436,-79
2021-10-14 16:13:34.232444,-79
2021-10-14 16:13:34.232453,-79
2021-10-14 16:13:34.232461,-79
2021-10-14 16:13:34.232469,-76
2021-10-14 16:13:34.232477,-74
2021-10-14 16:13:34.232486,-81
2021-10-14 16:13:34.232494,-91
2021-10-14 16:13:34.232502,-81
2021-10-14 16:13:34.232511,-69
2021-10-14 16:13:34.232519,-72
2021-10-14 16:13:34.232527,-76
2021-10-14 16:13:34.232536,-79
2021-10-14 16:13:34.232544,-74
2021-10-14 16:13:34.232552,-72
2021-10-14 16:13:34.547331,-76
2021-10-14 16:13:34.547351,-76
2021-10-14 16:13:34.547360,-72
2021-10-14 16:13:34.547369,-76
2021-10-14 16:13:34.547377,-81
2021-10-14 16:13:34.547386,-86
2021-10-14 16:13:34.547395,-96
2021-10-14 16:13:34.547403,-103
2021-10-14 16:13:34.547411,-105
2021-10-14 16:13:34.547420,-115
2021-10-14 16:13:34.547428,-113
2021-10-14 16:13:34.547436,-101
2021-10-14 16:13:34.547445,-103
2021-10-14 16:13:34.547456,-110
2021-10-14 16:13:34.547464,-108
2021-10-14 16:13:34.547473,-105
2021-10-14 16:13:34.547481,-101
2021-10-14 16:13:34.547489,-88
2021-10-14 16:13:34.547498,-76
2021-10-14 16:13:34.547506,-55
2021-10-14 16:13:34.547514,-50
2021-10-14 16:13:34.547522,-79
2021-10-14 16:13:34.547530,-101
2021-10-14 16:13:34.547539,-105
2021-10-14 16:13:34.547547,-103
2021-10-14 16:13:34.547555,-101
2021-10-14 16:13:34.547564,-98
2021-10-14 16:13:34.547572,-96
2021-10-14 16:13:34.547580,-84
2021-10-14 16:13:34.547588,-64
2021-10-14 16:13:34.726913,-52
2021-10-14 16:13:34.726933,-48
2021-10-14 16:13:34.726942,-28
2021-10-14 16:13:34.726951,76
2021-10-14 16:13:34.726960,413
2021-10-14 16:13:34.726968,812
2021-10-14 16:13:34.726977,632
2021-10-14 16:13:34.726985,-375
2021-10-14 16:13:34.726994,-1163
2021-10-14 16:13:34.727002,-805
2021-10-14 16:13:34.727010,-185
2021-10-14 16:13:34.727019,-127
2021-10-14 16:13:34.727027,-117
2021-10-14 16:13:34.727035,31
2021-10-14 16:13:34.727043,36
2021-10-14 16:13:34.727052,-4
2021-10-14 16:13:34.727060,40
2021-10-14 16:13:34.727069,62
2021-10-14 16:13:34.727077,45
2021-10-14 16:13:34.727085,55
2021-10-14 16:13:34.727093,62
2021-10-14 16:13:34.727101,50
2021-10-14 16:13:34.727108,55
2021-10-14 16:13:34.727116,72
2021-10-14 16:13:34.727123,76
2021-10-14 16:13:34.727132,81
2021-10-14 16:13:34.727140,91
2021-10-14 16:13:34.727148,96
2021-10-14 16:13:34.727156,105
2021-10-14 16:13:34.727165,120
2021-10-14 16:13:35.041302,137
2021-10-14 16:13:35.041323,144
2021-10-14 16:13:35.041332,144
2021-10-14 16:13:35.041341,144
2021-10-14 16:13:35.041349,149
2021-10-14 16:13:35.041357,151
2021-10-14 16:13:35.041366,144
2021-10-14 16:13:35.041374,115
2021-10-14 16:13:35.041382,81
2021-10-14 16:13:35.041391,57
2021-10-14 16:13:35.041399,33
2021-10-14 16:13:35.041407,2
2021-10-14 16:13:35.041416,-19
2021-10-14 16:13:35.041424,-43
2021-10-14 16:13:35.041432,-76
2021-10-14 16:13:35.041441,-91
2021-10-14 16:13:35.041449,-91
2021-10-14 16:13:35.041460,-93
2021-10-14 16:13:35.041468,-101
2021-10-14 16:13:35.041477,-105
2021-10-14 16:13:35.041485,-108
2021-10-14 16:13:35.041493,-105
2021-10-14 16:13:35.041501,-98
2021-10-14 16:13:35.041509,-86
2021-10-14 16:13:35.041518,-84
2021-10-14 16:13:35.041526,-91
2021-10-14 16:13:35.041534,-91
2021-10-14 16:13:35.041542,-84
2021-10-14 16:13:35.041551,-81
2021-10-14 16:13:35.041559,-76
2021-10-14 16:13:35.220921,-62
2021-10-14 16:13:35.220940,-57
2021-10-14 16:13:35.220949,-62
2021-10-14 16:13:35.220958,-55
2021-10-14 16:13:35.220966,-45
2021-10-14 16:13:35.220974,-40
2021-10-14 16:13:35.220983,-40
2021-10-14 16:13:35.220991,-50
2021-10-14 16:13:35.220999,-57
2021-10-14 16:13:35.221007,-57
2021-10-14 16:13:35.221015,-57
2021-10-14 16:13:35.221024,-57
2021-10-14 16:13:35.221032,-57
2021-10-14 16:13:35.221040,-64
2021-10-14 16:13:35.221048,-72
2021-10-14 16:13:35.221057,-72
2021-10-14 16:13:35.221065,-69
2021-10-14 16:13:35.221073,-74
2021-10-14 16:13:35.221081,-81
2021-10-14 16:13:35.221090,-79
2021-10-14 16:13:35.221098,-74
2021-10-14 16:13:35.221106,-76
2021-10-14 16:13:35.221114,-76
2021-10-14 16:13:35.221123,-76
2021-10-14 16:13:35.221131,-81
2021-10-14 16:13:35.221139,-76
2021-10-14 16:13:35.221148,-64
2021-10-14 16:13:35.221156,-64
2021-10-14 16:13:35.221164,-64
2021-10-14 16:13:35.221172,-38
2021-10-14 16:13:35.401949,-21
2021-10-14 16:13:35.401970,-45
2021-10-14 16:13:35.401980,-69
2021-10-14 16:13:35.401988,-69
2021-10-14 16:13:35.401997,-64
2021-10-14 16:13:35.402005,-62
2021-10-14 16:13:35.402014,-64
2021-10-14 16:13:35.402022,-69
2021-10-14 16:13:35.402030,-62
2021-10-14 16:13:35.402039,-57
2021-10-14 16:13:35.402047,-57
2021-10-14 16:13:35.402056,-52
2021-10-14 16:13:35.402064,-40
2021-10-14 16:13:35.402073,33
2021-10-14 16:13:35.402081,300
2021-10-14 16:13:35.402090,704
2021-10-14 16:13:35.402098,682
2021-10-14 16:13:35.402106,-211
2021-10-14 16:13:35.402115,-1132
2021-10-14 16:13:35.402123,-940
2021-10-14 16:13:35.402131,-278
2021-10-14 16:13:35.402139,-127
2021-10-14 16:13:35.402147,-120
2021-10-14 16:13:35.402156,26
2021-10-14 16:13:35.402164,52
2021-10-14 16:13:35.402172,14
2021-10-14 16:13:35.402181,50
2021-10-14 16:13:35.402189,74
2021-10-14 16:13:35.402197,52
2021-10-14 16:13:35.402208,55
2021-10-14 16:13:35.626923,69
2021-10-14 16:13:35.626943,74
2021-10-14 16:13:35.626953,79
2021-10-14 16:13:35.626962,79
2021-10-14 16:13:35.626970,72
2021-10-14 16:13:35.626978,72
2021-10-14 16:13:35.626987,76
2021-10-14 16:13:35.626995,84
2021-10-14 16:13:35.627003,98
2021-10-14 16:13:35.627012,113
2021-10-14 16:13:35.627020,120
2021-10-14 16:13:35.627028,122
2021-10-14 16:13:35.627036,132
2021-10-14 16:13:35.627045,149
2021-10-14 16:13:35.627053,156
2021-10-14 16:13:35.627061,146
2021-10-14 16:13:35.627069,129
2021-10-14 16:13:35.627077,105
2021-10-14 16:13:35.627086,74
2021-10-14 16:13:35.627094,52
2021-10-14 16:13:35.627102,33
2021-10-14 16:13:35.627110,4
2021-10-14 16:13:35.627118,-19
2021-10-14 16:13:35.627127,-43
2021-10-14 16:13:35.627135,-60
2021-10-14 16:13:35.627143,-69
2021-10-14 16:13:35.627151,-81
2021-10-14 16:13:35.627159,-86
2021-10-14 16:13:35.627168,-81
2021-10-14 16:13:35.627176,-81
2021-10-14 16:13:35.852245,-84
2021-10-14 16:13:35.852263,-86
2021-10-14 16:13:35.852273,-91
2021-10-14 16:13:35.852281,-91
2021-10-14 16:13:35.852290,-93
2021-10-14 16:13:35.852298,-91
2021-10-14 16:13:35.852306,-79
2021-10-14 16:13:35.852315,-67
2021-10-14 16:13:35.852323,-62
2021-10-14 16:13:35.852331,-52
2021-10-14 16:13:35.852339,-45
2021-10-14 16:13:35.852347,-48
2021-10-14 16:13:35.852355,-43
2021-10-14 16:13:35.852364,-33
2021-10-14 16:13:35.852372,-28
2021-10-14 16:13:35.852380,-33
2021-10-14 16:13:35.852388,-38
2021-10-14 16:13:35.852397,-38
2021-10-14 16:13:35.852405,-38
2021-10-14 16:13:35.852413,-48
2021-10-14 16:13:35.852421,-52
2021-10-14 16:13:35.852429,-43
2021-10-14 16:13:35.852438,-38
2021-10-14 16:13:35.852446,-48
2021-10-14 16:13:35.852454,-48
2021-10-14 16:13:35.852462,-33
2021-10-14 16:13:35.852470,-38
2021-10-14 16:13:35.852479,-62
2021-10-14 16:13:35.852487,-67
2021-10-14 16:13:35.852495,-55
2021-10-14 16:13:36.076881,-55
2021-10-14 16:13:36.076901,-62
2021-10-14 16:13:36.076910,-67
2021-10-14 16:13:36.076919,-69
2021-10-14 16:13:36.076928,-64
2021-10-14 16:13:36.076936,-57
2021-10-14 16:13:36.076944,-38
2021-10-14 16:13:36.076953,-21
2021-10-14 16:13:36.076961,-38
2021-10-14 16:13:36.076970,-76
2021-10-14 16:13:36.076978,-105
2021-10-14 16:13:36.076986,-96
2021-10-14 16:13:36.076995,-79
2021-10-14 16:13:36.077003,-81
2021-10-14 16:13:36.077011,-84
2021-10-14 16:13:36.077020,-81
2021-10-14 16:13:36.077028,-79
2021-10-14 16:13:36.077036,-72
2021-10-14 16:13:36.077044,-60
2021-10-14 16:13:36.077053,-50
2021-10-14 16:13:36.077066,-16
2021-10-14 16:13:36.077074,158
2021-10-14 16:13:36.077082,553
2021-10-14 16:13:36.077091,786
2021-10-14 16:13:36.077099,209
2021-10-14 16:13:36.077107,-865
2021-10-14 16:13:36.077116,-1139
2021-10-14 16:13:36.077124,-495
2021-10-14 16:13:36.077132,-108
2021-10-14 16:13:36.077140,-129
2021-10-14 16:13:36.392527,-26
2021-10-14 16:13:36.392548,62
2021-10-14 16:13:36.392557,16
2021-10-14 16:13:36.392566,14
2021-10-14 16:13:36.392574,50
2021-10-14 16:13:36.392583,45
2021-10-14 16:13:36.392591,43
2021-10-14 16:13:36.392600,55
2021-10-14 16:13:36.392608,52
2021-10-14 16:13:36.392617,48
2021-10-14 16:13:36.392625,60
2021-10-14 16:13:36.392634,74
2021-10-14 16:13:36.392642,81
2021-10-14 16:13:36.392650,88
2021-10-14 16:13:36.392659,98
2021-10-14 16:13:36.392667,103
2021-10-14 16:13:36.392675,115
2021-10-14 16:13:36.392684,132
2021-10-14 16:13:36.392692,141
2021-10-14 16:13:36.392701,144
2021-10-14 16:13:36.392709,146
2021-10-14 16:13:36.392717,151
2021-10-14 16:13:36.392726,149
2021-10-14 16:13:36.392734,137
2021-10-14 16:13:36.392742,122
2021-10-14 16:13:36.392751,108
2021-10-14 16:13:36.392759,81
2021-10-14 16:13:36.392767,48
2021-10-14 16:13:36.392775,24
2021-10-14 16:13:36.392784,7
2021-10-14 16:13:36.572383,-4
2021-10-14 16:13:36.572403,-19
2021-10-14 16:13:36.572413,-38
2021-10-14 16:13:36.572422,-62
2021-10-14 16:13:36.572430,-76
2021-10-14 16:13:36.572439,-69
2021-10-14 16:13:36.572447,-62
2021-10-14 16:13:36.572455,-72
2021-10-14 16:13:36.572463,-84
2021-10-14 16:13:36.572472,-84
2021-10-14 16:13:36.572480,-76
2021-10-14 16:13:36.572488,-67
2021-10-14 16:13:36.572497,-62
2021-10-14 16:13:36.572505,-48
2021-10-14 16:13:36.572513,-43
2021-10-14 16:13:36.572522,-57
2021-10-14 16:13:36.572530,-57
2021-10-14 16:13:36.572538,-40
2021-10-14 16:13:36.572546,-36
2021-10-14 16:13:36.572555,-36
2021-10-14 16:13:36.572563,-38
2021-10-14 16:13:36.572571,-43
2021-10-14 16:13:36.572579,-36
2021-10-14 16:13:36.572588,-31
2021-10-14 16:13:36.572596,-36
2021-10-14 16:13:36.572604,-38
2021-10-14 16:13:36.572613,-40
2021-10-14 16:13:36.572621,-40
2021-10-14 16:13:36.572629,-38
2021-10-14 16:13:36.572637,-38
2021-10-14 16:13:36.797307,-36
2021-10-14 16:13:36.797326,-33
2021-10-14 16:13:36.797335,-36
2021-10-14 16:13:36.797344,-33
2021-10-14 16:13:36.797352,-26
2021-10-14 16:13:36.797361,-28
2021-10-14 16:13:36.797369,-33
2021-10-14 16:13:36.797377,-28
2021-10-14 16:13:36.797386,-36
2021-10-14 16:13:36.797394,-50
2021-10-14 16:13:36.797402,-43
2021-10-14 16:13:36.797410,-28
2021-10-14 16:13:36.797419,-26
2021-10-14 16:13:36.797427,-21
2021-10-14 16:13:36.797435,-16
2021-10-14 16:13:36.797443,-21
2021-10-14 16:13:36.797452,-36
2021-10-14 16:13:36.797460,-55
2021-10-14 16:13:36.797468,-72
2021-10-14 16:13:36.797477,-72
2021-10-14 16:13:36.797485,-62
2021-10-14 16:13:36.797493,-55
2021-10-14 16:13:36.797505,-62
2021-10-14 16:13:36.797513,-69
2021-10-14 16:13:36.797521,-60
2021-10-14 16:13:36.797530,-45
2021-10-14 16:13:36.797538,-43
2021-10-14 16:13:36.797546,-40
2021-10-14 16:13:36.797554,-7
2021-10-14 16:13:36.797563,161
2021-10-14 16:13:37.022311,538
2021-10-14 16:13:37.022330,771
2021-10-14 16:13:37.022340,204
2021-10-14 16:13:37.022348,-868
2021-10-14 16:13:37.022357,-1159
2021-10-14 16:13:37.022365,-574
2021-10-14 16:13:37.022373,-209
2021-10-14 16:13:37.022382,-177
2021-10-14 16:13:37.022390,-31
2021-10-14 16:13:37.022398,76
2021-10-14 16:13:37.022407,45
2021-10-14 16:13:37.022415,52
2021-10-14 16:13:37.022423,84
2021-10-14 16:13:37.022432,76
2021-10-14 16:13:37.022440,72
2021-10-14 16:13:37.022448,74
2021-10-14 16:13:37.022456,81
2021-10-14 16:13:37.022465,96
2021-10-14 16:13:37.022473,98
2021-10-14 16:13:37.022481,101
2021-10-14 16:13:37.022489,108
2021-10-14 16:13:37.022497,103
2021-10-14 16:13:37.022506,113
2021-10-14 16:13:37.022514,134
2021-10-14 16:13:37.022522,144
2021-10-14 16:13:37.022530,149
2021-10-14 16:13:37.022539,168
2021-10-14 16:13:37.022547,180
2021-10-14 16:13:37.022555,185
2021-10-14 16:13:37.022564,189
2021-10-14 16:13:37.290660,182
2021-10-14 16:13:37.290680,168
2021-10-14 16:13:37.290690,146
2021-10-14 16:13:37.290699,127
2021-10-14 16:13:37.290707,105
2021-10-14 16:13:37.290715,79
2021-10-14 16:13:37.290724,36
2021-10-14 16:13:37.290732,-7
2021-10-14 16:13:37.290741,-36
2021-10-14 16:13:37.290749,-52
2021-10-14 16:13:37.290757,-76
2021-10-14 16:13:37.290766,-91
2021-10-14 16:13:37.290774,-96
2021-10-14 16:13:37.290782,-108
2021-10-14 16:13:37.290790,-115
2021-10-14 16:13:37.290799,-108
2021-10-14 16:13:37.290807,-103
2021-10-14 16:13:37.290815,-96
2021-10-14 16:13:37.290824,-91
2021-10-14 16:13:37.290832,-96
2021-10-14 16:13:37.290840,-91
2021-10-14 16:13:37.290849,-79
2021-10-14 16:13:37.290857,-74
2021-10-14 16:13:37.290865,-74
2021-10-14 16:13:37.290873,-67
2021-10-14 16:13:37.290882,-64
2021-10-14 16:13:37.290890,-62
2021-10-14 16:13:37.290898,-57
2021-10-14 16:13:37.290906,-55
2021-10-14 16:13:37.290914,-55
2021-10-14 16:13:37.471982,-52
2021-10-14 16:13:37.472002,-57
2021-10-14 16:13:37.472012,-64
2021-10-14 16:13:37.472020,-60
2021-10-14 16:13:37.472028,-60
2021-10-14 16:13:37.472037,-72
2021-10-14 16:13:37.472045,-74
2021-10-14 16:13:37.472053,-64
2021-10-14 16:13:37.472062,-64
2021-10-14 16:13:37.472070,-60
2021-10-14 16:13:37.472078,-52
2021-10-14 16:13:37.472087,-52
2021-10-14 16:13:37.472095,-60
2021-10-14 16:13:37.472103,-52
2021-10-14 16:13:37.472111,-36
2021-10-14 16:13:37.472120,-28
2021-10-14 16:13:37.472128,-26
2021-10-14 16:13:37.472136,-14
2021-10-14 16:13:37.472144,-4
2021-10-14 16:13:37.472153,-7
2021-10-14 16:13:37.472161,-31
2021-10-14 16:13:37.472169,-48
2021-10-14 16:13:37.472177,-43
2021-10-14 16:13:37.472186,-33
2021-10-14 16:13:37.472194,-40
2021-10-14 16:13:37.472202,-52
2021-10-14 16:13:37.472210,-62
2021-10-14 16:13:37.472218,-67
2021-10-14 16:13:37.472227,-57
2021-10-14 16:13:37.472235,-38
2021-10-14 16:13:37.741948,-31
2021-10-14 16:13:37.741968,-2
2021-10-14 16:13:37.741977,115
2021-10-14 16:13:37.741986,435
2021-10-14 16:13:37.741994,747
2021-10-14 16:13:37.742005,358
2021-10-14 16:13:37.742014,-731
2021-10-14 16:13:37.742022,-1245
2021-10-14 16:13:37.742030,-702
2021-10-14 16:13:37.742038,-218
2021-10-14 16:13:37.742047,-182
2021-10-14 16:13:37.742055,-81
2021-10-14 16:13:37.742064,43
2021-10-14 16:13:37.742072,19
2021-10-14 16:13:37.742080,9
2021-10-14 16:13:37.742088,48
2021-10-14 16:13:37.742097,50
2021-10-14 16:13:37.742105,43
2021-10-14 16:13:37.742113,64
2021-10-14 16:13:37.742121,81
2021-10-14 16:13:37.742130,76
2021-10-14 16:13:37.742138,72
2021-10-14 16:13:37.742146,79
2021-10-14 16:13:37.742154,98
2021-10-14 16:13:37.742163,108
2021-10-14 16:13:37.742171,110
2021-10-14 16:13:37.742179,122
2021-10-14 16:13:37.742187,141
2021-10-14 16:13:37.742195,149
2021-10-14 16:13:37.742203,163
2021-10-14 16:13:37.921902,182
2021-10-14 16:13:37.921921,187
2021-10-14 16:13:37.921931,185
2021-10-14 16:13:37.921939,185
2021-10-14 16:13:37.921948,177
2021-10-14 16:13:37.921956,158
2021-10-14 16:13:37.921964,134
2021-10-14 16:13:37.921972,115
2021-10-14 16:13:37.921981,91
2021-10-14 16:13:37.921989,50
2021-10-14 16:13:37.921997,14
2021-10-14 16:13:37.922005,-2
2021-10-14 16:13:37.922014,-9
2021-10-14 16:13:37.922022,-24
2021-10-14 16:13:37.922030,-31
2021-10-14 16:13:37.922038,-40
2021-10-14 16:13:37.922047,-55
2021-10-14 16:13:37.922055,-48
2021-10-14 16:13:37.922063,-36
2021-10-14 16:13:37.922071,-31
2021-10-14 16:13:37.922080,-24
2021-10-14 16:13:37.922088,-19
2021-10-14 16:13:37.922096,-24
2021-10-14 16:13:37.922104,-12
2021-10-14 16:13:37.922113,4
2021-10-14 16:13:37.922121,12
2021-10-14 16:13:37.922129,16
2021-10-14 16:13:37.922137,26
2021-10-14 16:13:37.922146,28
2021-10-14 16:13:37.922154,36
2021-10-14 16:13:38.237384,50
2021-10-14 16:13:38.237404,43
2021-10-14 16:13:38.237414,26
2021-10-14 16:13:38.237422,21
2021-10-14 16:13:38.237431,19
2021-10-14 16:13:38.237439,21
2021-10-14 16:13:38.237447,26
2021-10-14 16:13:38.237455,26
2021-10-14 16:13:38.237464,19
2021-10-14 16:13:38.237473,9
2021-10-14 16:13:38.237481,7
2021-10-14 16:13:38.237489,21
2021-10-14 16:13:38.237497,28
2021-10-14 16:13:38.237506,26
2021-10-14 16:13:38.237514,28
2021-10-14 16:13:38.237522,31
2021-10-14 16:13:38.237530,28
2021-10-14 16:13:38.237539,38
2021-10-14 16:13:38.237547,50
2021-10-14 16:13:38.237555,52
2021-10-14 16:13:38.237563,50
2021-10-14 16:13:38.237572,57
2021-10-14 16:13:38.237580,72
2021-10-14 16:13:38.237588,84
2021-10-14 16:13:38.237596,98
2021-10-14 16:13:38.237605,108
2021-10-14 16:13:38.237613,91
2021-10-14 16:13:38.237621,69
2021-10-14 16:13:38.237629,67
2021-10-14 16:13:38.237638,74
2021-10-14 16:13:38.417317,84
2021-10-14 16:13:38.417337,84
2021-10-14 16:13:38.417347,79
2021-10-14 16:13:38.417355,81
2021-10-14 16:13:38.417364,96
2021-10-14 16:13:38.417372,105
2021-10-14 16:13:38.417381,110
2021-10-14 16:13:38.417389,127
2021-10-14 16:13:38.417397,211
2021-10-14 16:13:38.417406,505
2021-10-14 16:13:38.417414,889
2021-10-14 16:13:38.417422,745
2021-10-14 16:13:38.417431,-242
2021-10-14 16:13:38.417439,-1060
2021-10-14 16:13:38.417447,-723
2021-10-14 16:13:38.417455,-98
2021-10-14 16:13:38.417464,-7
2021-10-14 16:13:38.417472,28
2021-10-14 16:13:38.417480,180
2021-10-14 16:13:38.417489,175
2021-10-14 16:13:38.417497,120
2021-10-14 16:13:38.417505,151
2021-10-14 16:13:38.417513,173
2021-10-14 16:13:38.417522,163
2021-10-14 16:13:38.417530,170
2021-10-14 16:13:38.417538,173
2021-10-14 16:13:38.417547,163
2021-10-14 16:13:38.417555,165
2021-10-14 16:13:38.417563,165
2021-10-14 16:13:38.417571,170
2021-10-14 16:13:38.686980,182
2021-10-14 16:13:38.687004,189
2021-10-14 16:13:38.687014,187
2021-10-14 16:13:38.687022,194
2021-10-14 16:13:38.687031,216
2021-10-14 16:13:38.687039,230
2021-10-14 16:13:38.687047,228
2021-10-14 16:13:38.687055,218
2021-10-14 16:13:38.687064,211
2021-10-14 16:13:38.687072,206
2021-10-14 16:13:38.687080,197
2021-10-14 16:13:38.687088,173
2021-10-14 16:13:38.687096,146
2021-10-14 16:13:38.687105,122
2021-10-14 16:13:38.687113,93
2021-10-14 16:13:38.687121,64
2021-10-14 16:13:38.687129,50
2021-10-14 16:13:38.687137,33
2021-10-14 16:13:38.687145,12
2021-10-14 16:13:38.687154,-4
2021-10-14 16:13:38.687162,-14
2021-10-14 16:13:38.687170,-19
2021-10-14 16:13:38.687178,-24
2021-10-14 16:13:38.687186,-28
2021-10-14 16:13:38.687194,-26
2021-10-14 16:13:38.687202,-24
2021-10-14 16:13:38.687210,-24
2021-10-14 16:13:38.687218,-19
2021-10-14 16:13:38.687226,-9
2021-10-14 16:13:38.687235,-7
2021-10-14 16:13:38.911962,-2
2021-10-14 16:13:38.911981,4
2021-10-14 16:13:38.911991,9
2021-10-14 16:13:38.911999,12
2021-10-14 16:13:38.912008,16
2021-10-14 16:13:38.912016,24
2021-10-14 16:13:38.912024,24
2021-10-14 16:13:38.912032,24
2021-10-14 16:13:38.912041,21
2021-10-14 16:13:38.912049,19
2021-10-14 16:13:38.912057,19
2021-10-14 16:13:38.912065,24
2021-10-14 16:13:38.912074,24
2021-10-14 16:13:38.912082,19
2021-10-14 16:13:38.912090,14
2021-10-14 16:13:38.912099,14
2021-10-14 16:13:38.912107,16
2021-10-14 16:13:38.912115,14
2021-10-14 16:13:38.912123,7
2021-10-14 16:13:38.912131,4
2021-10-14 16:13:38.912140,4
2021-10-14 16:13:38.912148,7
2021-10-14 16:13:38.912156,9
2021-10-14 16:13:38.912164,9
2021-10-14 16:13:38.912173,12
2021-10-14 16:13:38.912181,9
2021-10-14 16:13:38.912189,4
2021-10-14 16:13:38.912197,7
2021-10-14 16:13:38.912205,12
2021-10-14 16:13:38.912214,9
2021-10-14 16:13:39.181298,9
2021-10-14 16:13:39.181317,14
2021-10-14 16:13:39.181326,21
2021-10-14 16:13:39.181335,36
2021-10-14 16:13:39.181343,50
2021-10-14 16:13:39.181351,38
2021-10-14 16:13:39.181360,7
2021-10-14 16:13:39.181368,-9
2021-10-14 16:13:39.181376,-7
2021-10-14 16:13:39.181385,0
2021-10-14 16:13:39.181393,0
2021-10-14 16:13:39.181401,0
2021-10-14 16:13:39.181410,-4
2021-10-14 16:13:39.181418,-9
2021-10-14 16:13:39.181426,-4
2021-10-14 16:13:39.181434,-4
2021-10-14 16:13:39.181443,0
2021-10-14 16:13:39.181451,38
2021-10-14 16:13:39.181459,216
2021-10-14 16:13:39.181468,608
2021-10-14 16:13:39.181476,834
2021-10-14 16:13:39.181484,240
2021-10-14 16:13:39.181493,-848
2021-10-14 16:13:39.181501,-1120
2021-10-14 16:13:39.181509,-456
2021-10-14 16:13:39.181518,-67
2021-10-14 16:13:39.181526,-103
2021-10-14 16:13:39.181534,-2
2021-10-14 16:13:39.181542,103
2021-10-14 16:13:39.181551,52
2021-10-14 16:13:39.361028,43
2021-10-14 16:13:39.361049,84
2021-10-14 16:13:39.361059,76
2021-10-14 16:13:39.361067,67
2021-10-14 16:13:39.361075,81
2021-10-14 16:13:39.361084,79
2021-10-14 16:13:39.361092,64
2021-10-14 16:13:39.361100,72
2021-10-14 16:13:39.361108,84
2021-10-14 16:13:39.361117,72
2021-10-14 16:13:39.361125,72
2021-10-14 16:13:39.361133,81
2021-10-14 16:13:39.361142,84
2021-10-14 16:13:39.361150,91
2021-10-14 16:13:39.361158,105
2021-10-14 16:13:39.361167,113
2021-10-14 16:13:39.361175,115
2021-10-14 16:13:39.361183,115
2021-10-14 16:13:39.361191,108
2021-10-14 16:13:39.361199,101
2021-10-14 16:13:39.361208,93
2021-10-14 16:13:39.361216,79
2021-10-14 16:13:39.361224,57
2021-10-14 16:13:39.361232,28
2021-10-14 16:13:39.361241,4
2021-10-14 16:13:39.361249,-9
2021-10-14 16:13:39.361257,-31
2021-10-14 16:13:39.361265,-60
2021-10-14 16:13:39.361274,-74
2021-10-14 16:13:39.361282,-81
2021-10-14 16:13:39.541956,-86
2021-10-14 16:13:39.541975,-86
2021-10-14 16:13:39.541984,-93
2021-10-14 16:13:39.541993,-101
2021-10-14 16:13:39.542001,-103
2021-10-14 16:13:39.542009,-105
2021-10-14 16:13:39.542017,-105
2021-10-14 16:13:39.542025,-88
2021-10-14 16:13:39.542033,-81
2021-10-14 16:13:39.542042,-86
2021-10-14 16:13:39.542050,-86
2021-10-14 16:13:39.542064,-76
2021-10-14 16:13:39.542072,-72
2021-10-14 16:13:39.542080,-69
2021-10-14 16:13:39.542089,-67
2021-10-14 16:13:39.542097,-64
2021-10-14 16:13:39.542105,-57
2021-10-14 16:13:39.542113,-52
2021-10-14 16:13:39.542121,-57
2021-10-14 16:13:39.542130,-69
2021-10-14 16:13:39.542138,-74
2021-10-14 16:13:39.542146,-76
2021-10-14 16:13:39.542154,-76
2021-10-14 16:13:39.542162,-76
2021-10-14 16:13:39.542171,-74
2021-10-14 16:13:39.542179,-74
2021-10-14 16:13:39.542187,-69
2021-10-14 16:13:39.542195,-62
2021-10-14 16:13:39.542203,-64
2021-10-14 16:13:39.542212,-69
2021-10-14 16:13:39.767440,-69
2021-10-14 16:13:39.767460,-60
2021-10-14 16:13:39.767469,-52
2021-10-14 16:13:39.767477,-55
2021-10-14 16:13:39.767486,-64
2021-10-14 16:13:39.767494,-72
2021-10-14 16:13:39.767502,-67
2021-10-14 16:13:39.767510,-62
2021-10-14 16:13:39.767519,-55
2021-10-14 16:13:39.767527,-52
2021-10-14 16:13:39.767536,-64
2021-10-14 16:13:39.767544,-72
2021-10-14 16:13:39.767552,-64
2021-10-14 16:13:39.767561,-52
2021-10-14 16:13:39.767569,-45
2021-10-14 16:13:39.767577,-50
2021-10-14 16:13:39.767585,-38
2021-10-14 16:13:39.767593,-16
2021-10-14 16:13:39.767602,-21
2021-10-14 16:13:39.767610,-45
2021-10-14 16:13:39.767618,-57
2021-10-14 16:13:39.767626,-57
2021-10-14 16:13:39.767635,-55
2021-10-14 16:13:39.767643,-48
2021-10-14 16:13:39.767651,-43
2021-10-14 16:13:39.767659,-45
2021-10-14 16:13:39.767667,-43
2021-10-14 16:13:39.767675,-33
2021-10-14 16:13:39.767684,-28
2021-10-14 16:13:39.767692,-19
2021-10-14 16:13:39.991986,24
2021-10-14 16:13:39.992005,211
2021-10-14 16:13:39.992015,610
2021-10-14 16:13:39.992023,805
2021-10-14 16:13:39.992032,173
2021-10-14 16:13:39.992040,-875
2021-10-14 16:13:39.992049,-1067
2021-10-14 16:13:39.992057,-425
2021-10-14 16:13:39.992066,-93
2021-10-14 16:13:39.992074,-129
2021-10-14 16:13:39.992082,-28
2021-10-14 16:13:39.992091,64
2021-10-14 16:13:39.992099,26
2021-10-14 16:13:39.992107,26
2021-10-14 16:13:39.992116,52
2021-10-14 16:13:39.992124,36
2021-10-14 16:13:39.992132,28
2021-10-14 16:13:39.992141,45
2021-10-14 16:13:39.992149,57
2021-10-14 16:13:39.992157,62
2021-10-14 16:13:39.992166,67
2021-10-14 16:13:39.992174,69
2021-10-14 16:13:39.992182,74
2021-10-14 16:13:39.992190,86
2021-10-14 16:13:39.992199,88
2021-10-14 16:13:39.992207,88
2021-10-14 16:13:39.992216,98
2021-10-14 16:13:39.992224,110
2021-10-14 16:13:39.992232,122
2021-10-14 16:13:39.992240,137
2021-10-14 16:13:40.262394,141
2021-10-14 16:13:40.262414,139
2021-10-14 16:13:40.262423,132
2021-10-14 16:13:40.262432,113
2021-10-14 16:13:40.262440,96
2021-10-14 16:13:40.262449,84
2021-10-14 16:13:40.262457,67
2021-10-14 16:13:40.262465,45
2021-10-14 16:13:40.262474,24
2021-10-14 16:13:40.262482,0
2021-10-14 16:13:40.262490,-16
2021-10-14 16:13:40.262499,-24
2021-10-14 16:13:40.262507,-28
2021-10-14 16:13:40.262515,-38
2021-10-14 16:13:40.262524,-45
2021-10-14 16:13:40.262532,-50
2021-10-14 16:13:40.262540,-40
2021-10-14 16:13:40.262549,-36
2021-10-14 16:13:40.262557,-33
2021-10-14 16:13:40.262565,-24
2021-10-14 16:13:40.262573,-16
2021-10-14 16:13:40.262582,-12
2021-10-14 16:13:40.262590,-2
2021-10-14 16:13:40.262598,7
2021-10-14 16:13:40.262606,19
2021-10-14 16:13:40.262615,26
2021-10-14 16:13:40.262623,28
2021-10-14 16:13:40.262631,28
2021-10-14 16:13:40.262640,38
2021-10-14 16:13:40.262648,50
2021-10-14 16:13:40.487028,52
2021-10-14 16:13:40.487048,57
2021-10-14 16:13:40.487058,57
2021-10-14 16:13:40.487066,52
2021-10-14 16:13:40.487075,57
2021-10-14 16:13:40.487083,69
2021-10-14 16:13:40.487091,72
2021-10-14 16:13:40.487099,64
2021-10-14 16:13:40.487107,60
2021-10-14 16:13:40.487116,57
2021-10-14 16:13:40.487124,60
2021-10-14 16:13:40.487132,62
2021-10-14 16:13:40.487141,67
2021-10-14 16:13:40.487149,67
2021-10-14 16:13:40.487157,62
2021-10-14 16:13:40.487165,62
2021-10-14 16:13:40.487174,67
2021-10-14 16:13:40.487182,74
2021-10-14 16:13:40.487190,79
2021-10-14 16:13:40.487198,81
2021-10-14 16:13:40.487206,81
2021-10-14 16:13:40.487215,81
2021-10-14 16:13:40.487223,88
2021-10-14 16:13:40.487231,96
2021-10-14 16:13:40.487239,93
2021-10-14 16:13:40.487247,88
2021-10-14 16:13:40.487255,88
2021-10-14 16:13:40.487264,93
2021-10-14 16:13:40.487272,98
2021-10-14 16:13:40.487280,101
2021-10-14 16:13:40.711964,110
2021-10-14 16:13:40.711982,115
2021-10-14 16:13:40.711991,98
2021-10-14 16:13:40.711999,76
2021-10-14 16:13:40.712008,69
2021-10-14 16:13:40.712016,74
2021-10-14 16:13:40.712024,74
2021-10-14 16:13:40.712033,69
2021-10-14 16:13:40.712044,69
2021-10-14 16:13:40.712052,76
2021-10-14 16:13:40.712060,79
2021-10-14 16:13:40.712068,86
2021-10-14 16:13:40.712077,98
2021-10-14 16:13:40.712085,101
2021-10-14 16:13:40.712093,120
2021-10-14 16:13:40.712101,278
2021-10-14 16:13:40.712109,663
2021-10-14 16:13:40.712117,913
2021-10-14 16:13:40.712126,377
2021-10-14 16:13:40.712134,-670
2021-10-14 16:13:40.712142,-969
2021-10-14 16:13:40.712150,-363
2021-10-14 16:13:40.712158,12
2021-10-14 16:13:40.712167,-9
2021-10-14 16:13:40.712175,81
2021-10-14 16:13:40.712183,165
2021-10-14 16:13:40.712191,117
2021-10-14 16:13:40.712199,117
2021-10-14 16:13:40.712207,158
2021-10-14 16:13:40.712215,153
2021-10-14 16:13:40.982352,137
2021-10-14 16:13:40.982371,144
2021-10-14 16:13:40.982380,153
2021-10-14 16:13:40.982389,156
2021-10-14 16:13:40.982397,158
2021-10-14 16:13:40.982405,168
2021-10-14 16:13:40.982413,168
2021-10-14 16:13:40.982422,163
2021-10-14 16:13:40.982430,173
2021-10-14 16:13:40.982438,185
2021-10-14 16:13:40.982446,194
2021-10-14 16:13:40.982454,204
2021-10-14 16:13:40.982463,209
2021-10-14 16:13:40.982471,211
2021-10-14 16:13:40.982479,216
2021-10-14 16:13:40.982487,211
2021-10-14 16:13:40.982495,202
2021-10-14 16:13:40.982503,189
2021-10-14 16:13:40.982512,170
2021-10-14 16:13:40.982520,146
2021-10-14 16:13:40.982528,125
2021-10-14 16:13:40.982536,108
2021-10-14 16:13:40.982544,91
2021-10-14 16:13:40.982552,69
2021-10-14 16:13:40.982561,45
2021-10-14 16:13:40.982569,26
2021-10-14 16:13:40.982577,14
2021-10-14 16:13:40.982585,7
2021-10-14 16:13:40.982593,2
2021-10-14 16:13:40.982601,-7
2021-10-14 16:13:41.161939,-14
2021-10-14 16:13:41.161957,-14
2021-10-14 16:13:41.161966,-21
2021-10-14 16:13:41.161975,-28
2021-10-14 16:13:41.161983,-14
2021-10-14 16:13:41.161992,0
2021-10-14 16:13:41.162000,-7
2021-10-14 16:13:41.162008,-14
2021-10-14 16:13:41.162017,-2
2021-10-14 16:13:41.162025,9
2021-10-14 16:13:41.162033,4
2021-10-14 16:13:41.162042,-9
2021-10-14 16:13:41.162050,-9
2021-10-14 16:13:41.162058,2
2021-10-14 16:13:41.162067,4
2021-10-14 16:13:41.162075,2
2021-10-14 16:13:41.162083,9
2021-10-14 16:13:41.162091,16
2021-10-14 16:13:41.162099,4
2021-10-14 16:13:41.162108,-4
2021-10-14 16:13:41.162116,-7
2021-10-14 16:13:41.162124,-9
2021-10-14 16:13:41.162133,-2
2021-10-14 16:13:41.162141,-2
2021-10-14 16:13:41.162149,-4
2021-10-14 16:13:41.162157,7
2021-10-14 16:13:41.162165,12
2021-10-14 16:13:41.162174,-7
2021-10-14 16:13:41.162182,-14
2021-10-14 16:13:41.162190,0
2021-10-14 16:13:41.431055,7
2021-10-14 16:13:41.431074,2
2021-10-14 16:13:41.431084,4
2021-10-14 16:13:41.431092,4
2021-10-14 16:13:41.431101,-4
2021-10-14 16:13:41.431109,-14
2021-10-14 16:13:41.431117,-14
2021-10-14 16:13:41.431126,-12
2021-10-14 16:13:41.431134,-14
2021-10-14 16:13:41.431142,-9
2021-10-14 16:13:41.431151,-2
2021-10-14 16:13:41.431159,-7
2021-10-14 16:13:41.431167,-4
2021-10-14 16:13:41.431176,19
2021-10-14 16:13:41.431184,21
2021-10-14 16:13:41.431192,-12
2021-10-14 16:13:41.431201,-28
2021-10-14 16:13:41.431209,-24
2021-10-14 16:13:41.431217,-24
2021-10-14 16:13:41.431226,-33
2021-10-14 16:13:41.431234,-33
2021-10-14 16:13:41.431242,-28
2021-10-14 16:13:41.431251,-28
2021-10-14 16:13:41.431259,-28
2021-10-14 16:13:41.431267,-24
2021-10-14 16:13:41.431275,-14
2021-10-14 16:13:41.431284,14
2021-10-14 16:13:41.431292,158
2021-10-14 16:13:41.431300,526
2021-10-14 16:13:41.431309,776
2021-10-14 16:13:41.611963,218
2021-10-14 16:13:41.611982,-853
2021-10-14 16:13:41.611991,-1144
2021-10-14 16:13:41.611999,-581
2021-10-14 16:13:41.612008,-245
2021-10-14 16:13:41.612016,-194
2021-10-14 16:13:41.612025,-26
2021-10-14 16:13:41.612033,64
2021-10-14 16:13:41.612041,26
2021-10-14 16:13:41.612050,31
2021-10-14 16:13:41.612058,48
2021-10-14 16:13:41.612066,38
2021-10-14 16:13:41.612075,40
2021-10-14 16:13:41.612083,48
2021-10-14 16:13:41.612091,48
2021-10-14 16:13:41.612099,50
2021-10-14 16:13:41.612107,57
2021-10-14 16:13:41.612116,67
2021-10-14 16:13:41.612124,86
2021-10-14 16:13:41.612132,103
2021-10-14 16:13:41.612140,101
2021-10-14 16:13:41.612148,96
2021-10-14 16:13:41.612157,113
2021-10-14 16:13:41.612165,137
2021-10-14 16:13:41.612173,151
2021-10-14 16:13:41.612181,161
2021-10-14 16:13:41.612189,170
2021-10-14 16:13:41.612198,173
2021-10-14 16:13:41.612206,161
2021-10-14 16:13:41.612214,141
2021-10-14 16:13:41.837316,127
2021-10-14 16:13:41.837333,113
2021-10-14 16:13:41.837342,81
2021-10-14 16:13:41.837351,40
2021-10-14 16:13:41.837359,2
2021-10-14 16:13:41.837367,-31
2021-10-14 16:13:41.837376,-55
2021-10-14 16:13:41.837384,-76
2021-10-14 16:13:41.837392,-105
2021-10-14 16:13:41.837400,-129
2021-10-14 16:13:41.837409,-139
2021-10-14 16:13:41.837417,-137
2021-10-14 16:13:41.837425,-132
2021-10-14 16:13:41.837433,-132
2021-10-14 16:13:41.837441,-137
2021-10-14 16:13:41.837450,-134
2021-10-14 16:13:41.837458,-125
2021-10-14 16:13:41.837466,-113
2021-10-14 16:13:41.837474,-101
2021-10-14 16:13:41.837483,-93
2021-10-14 16:13:41.837491,-91
2021-10-14 16:13:41.837499,-91
2021-10-14 16:13:41.837508,-86
2021-10-14 16:13:41.837519,-79
2021-10-14 16:13:41.837527,-67
2021-10-14 16:13:41.837536,-57
2021-10-14 16:13:41.837544,-57
2021-10-14 16:13:41.837552,-64
2021-10-14 16:13:41.837560,-67
2021-10-14 16:13:41.837569,-57
2021-10-14 16:13:42.107324,-52
2021-10-14 16:13:42.107343,-55
2021-10-14 16:13:42.107352,-64
2021-10-14 16:13:42.107361,-76
2021-10-14 16:13:42.107369,-76
2021-10-14 16:13:42.107377,-67
2021-10-14 16:13:42.107386,-57
2021-10-14 16:13:42.107394,-52
2021-10-14 16:13:42.107402,-64
2021-10-14 16:13:42.107410,-86
2021-10-14 16:13:42.107419,-88
2021-10-14 16:13:42.107427,-76
2021-10-14 16:13:42.107435,-69
2021-10-14 16:13:42.107443,-67
2021-10-14 16:13:42.107452,-64
2021-10-14 16:13:42.107460,-64
2021-10-14 16:13:42.107468,-64
2021-10-14 16:13:42.107476,-64
2021-10-14 16:13:42.107485,-72
2021-10-14 16:13:42.107493,-57
2021-10-14 16:13:42.107501,-36
2021-10-14 16:13:42.107509,-48
2021-10-14 16:13:42.107518,-67
2021-10-14 16:13:42.107526,-69
2021-10-14 16:13:42.107534,-74
2021-10-14 16:13:42.107542,-76
2021-10-14 16:13:42.107551,-72
2021-10-14 16:13:42.107559,-74
2021-10-14 16:13:42.107567,-72
2021-10-14 16:13:42.107575,-67
2021-10-14 16:13:42.377040,-62
2021-10-14 16:13:42.377061,-55
2021-10-14 16:13:42.377070,-52
2021-10-14 16:13:42.377079,-33
2021-10-14 16:13:42.377087,125
2021-10-14 16:13:42.377095,507
2021-10-14 16:13:42.377104,757
2021-10-14 16:13:42.377112,199
2021-10-14 16:13:42.377120,-882
2021-10-14 16:13:42.377129,-1185
2021-10-14 16:13:42.377137,-574
2021-10-14 16:13:42.377146,-194
2021-10-14 16:13:42.377154,-180
2021-10-14 16:13:42.377162,-52
2021-10-14 16:13:42.377170,33
2021-10-14 16:13:42.377178,-9
2021-10-14 16:13:42.377187,7
2021-10-14 16:13:42.377195,48
2021-10-14 16:13:42.377203,38
2021-10-14 16:13:42.377211,33
2021-10-14 16:13:42.377219,48
2021-10-14 16:13:42.377228,50
2021-10-14 16:13:42.377236,55
2021-10-14 16:13:42.377244,69
2021-10-14 16:13:42.377252,81
2021-10-14 16:13:42.377260,86
2021-10-14 16:13:42.377268,91
2021-10-14 16:13:42.377277,103
2021-10-14 16:13:42.377285,115
2021-10-14 16:13:42.377293,122
2021-10-14 16:13:42.601729,134
2021-10-14 16:13:42.601748,144
2021-10-14 16:13:42.601758,151
2021-10-14 16:13:42.601766,156
2021-10-14 16:13:42.601775,161
2021-10-14 16:13:42.601783,158
2021-10-14 16:13:42.601791,144
2021-10-14 16:13:42.601800,117
2021-10-14 16:13:42.601808,84
2021-10-14 16:13:42.601816,57
2021-10-14 16:13:42.601824,31
2021-10-14 16:13:42.601833,4
2021-10-14 16:13:42.601841,-19
2021-10-14 16:13:42.601849,-36
2021-10-14 16:13:42.601857,-55
2021-10-14 16:13:42.601866,-76
2021-10-14 16:13:42.601874,-84
2021-10-14 16:13:42.601882,-76
2021-10-14 16:13:42.601891,-79
2021-10-14 16:13:42.601899,-91
2021-10-14 16:13:42.601907,-103
2021-10-14 16:13:42.601915,-103
2021-10-14 16:13:42.601924,-93
2021-10-14 16:13:42.601932,-88
2021-10-14 16:13:42.601940,-93
2021-10-14 16:13:42.601948,-96
2021-10-14 16:13:42.601957,-86
2021-10-14 16:13:42.601965,-76
2021-10-14 16:13:42.601973,-72
2021-10-14 16:13:42.601981,-62
2021-10-14 16:13:42.782447,-57
2021-10-14 16:13:42.782468,-55
2021-10-14 16:13:42.782477,-48
2021-10-14 16:13:42.782486,-40
2021-10-14 16:13:42.782494,-38
2021-10-14 16:13:42.782502,-33
2021-10-14 16:13:42.782511,-38
2021-10-14 16:13:42.782519,-50
2021-10-14 16:13:42.782527,-50
2021-10-14 16:13:42.782535,-40
2021-10-14 16:13:42.782544,-38
2021-10-14 16:13:42.782552,-38
2021-10-14 16:13:42.782560,-48
2021-10-14 16:13:42.782569,-60
2021-10-14 16:13:42.782577,-55
2021-10-14 16:13:42.782585,-48
2021-10-14 16:13:42.782593,-52
2021-10-14 16:13:42.782602,-60
2021-10-14 16:13:42.782610,-55
2021-10-14 16:13:42.782618,-50
2021-10-14 16:13:42.782627,-50
2021-10-14 16:13:42.782635,-48
2021-10-14 16:13:42.782644,-43
2021-10-14 16:13:42.782652,-40
2021-10-14 16:13:42.782660,-43
2021-10-14 16:13:42.782668,-43
2021-10-14 16:13:42.782677,-38
2021-10-14 16:13:42.782685,-31
2021-10-14 16:13:42.782693,-21
2021-10-14 16:13:42.782701,-2
2021-10-14 16:13:43.006958,4
2021-10-14 16:13:43.006977,-12
2021-10-14 16:13:43.006986,-28
2021-10-14 16:13:43.006994,-38
2021-10-14 16:13:43.007003,-43
2021-10-14 16:13:43.007011,-50
2021-10-14 16:13:43.007019,-52
2021-10-14 16:13:43.007027,-48
2021-10-14 16:13:43.007036,-45
2021-10-14 16:13:43.007044,-45
2021-10-14 16:13:43.007052,-43
2021-10-14 16:13:43.007060,-40
2021-10-14 16:13:43.007069,-36
2021-10-14 16:13:43.007077,50
2021-10-14 16:13:43.007085,353
2021-10-14 16:13:43.007094,745
2021-10-14 16:13:43.007102,608
2021-10-14 16:13:43.007110,-372
2021-10-14 16:13:43.007118,-1197
2021-10-14 16:13:43.007127,-868
2021-10-14 16:13:43.007135,-233
2021-10-14 16:13:43.007143,-151
2021-10-14 16:13:43.007152,-125
2021-10-14 16:13:43.007160,36
2021-10-14 16:13:43.007168,40
2021-10-14 16:13:43.007176,0
2021-10-14 16:13:43.007184,40
2021-10-14 16:13:43.007193,55
2021-10-14 16:13:43.007201,38
2021-10-14 16:13:43.007209,40
2021-10-14 16:13:43.232274,45
2021-10-14 16:13:43.232292,48
2021-10-14 16:13:43.232302,55
2021-10-14 16:13:43.232310,62
2021-10-14 16:13:43.232319,67
2021-10-14 16:13:43.232327,67
2021-10-14 16:13:43.232335,64
2021-10-14 16:13:43.232343,76
2021-10-14 16:13:43.232352,98
2021-10-14 16:13:43.232360,110
2021-10-14 16:13:43.232369,120
2021-10-14 16:13:43.232377,125
2021-10-14 16:13:43.232385,125
2021-10-14 16:13:43.232393,132
2021-10-14 16:13:43.232402,132
2021-10-14 16:13:43.232410,122
2021-10-14 16:13:43.232418,108
2021-10-14 16:13:43.232427,88
2021-10-14 16:13:43.232435,64
2021-10-14 16:13:43.232443,40
2021-10-14 16:13:43.232451,12
2021-10-14 16:13:43.232460,-19
2021-10-14 16:13:43.232468,-38
2021-10-14 16:13:43.232476,-48
2021-10-14 16:13:43.232484,-57
2021-10-14 16:13:43.232493,-64
2021-10-14 16:13:43.232501,-69
2021-10-14 16:13:43.232509,-74
2021-10-14 16:13:43.232518,-74
2021-10-14 16:13:43.232528,-72
2021-10-14 16:13:43.546115,-69
2021-10-14 16:13:43.546136,-64
2021-10-14 16:13:43.546145,-55
2021-10-14 16:13:43.546154,-50
2021-10-14 16:13:43.546162,-50
2021-10-14 16:13:43.546170,-43
2021-10-14 16:13:43.546179,-31
2021-10-14 16:13:43.546187,-16
2021-10-14 16:13:43.546195,-7
2021-10-14 16:13:43.546203,-4
2021-10-14 16:13:43.546212,-4
2021-10-14 16:13:43.546220,-2
2021-10-14 16:13:43.546228,14
2021-10-14 16:13:43.546237,26
2021-10-14 16:13:43.546245,31
2021-10-14 16:13:43.546253,33
2021-10-14 16:13:43.546262,38
2021-10-14 16:13:43.546270,40
2021-10-14 16:13:43.546278,48
2021-10-14 16:13:43.546286,55
2021-10-14 16:13:43.546294,57
2021-10-14 16:13:43.546303,57
2021-10-14 16:13:43.546311,62
2021-10-14 16:13:43.546319,64
2021-10-14 16:13:43.546327,72
2021-10-14 16:13:43.546336,79
2021-10-14 16:13:43.546344,84
2021-10-14 16:13:43.546352,91
2021-10-14 16:13:43.546360,96
2021-10-14 16:13:43.546369,103
2021-10-14 16:13:43.681983,110
2021-10-14 16:13:43.682001,117
2021-10-14 16:13:43.682011,127
2021-10-14 16:13:43.682020,129
2021-10-14 16:13:43.682028,127
2021-10-14 16:13:43.682036,125
2021-10-14 16:13:43.682045,132
2021-10-14 16:13:43.682053,139
2021-10-14 16:13:43.682061,149
2021-10-14 16:13:43.682070,151
2021-10-14 16:13:43.682078,156
2021-10-14 16:13:43.682086,177
2021-10-14 16:13:43.682094,202
2021-10-14 16:13:43.682103,189
2021-10-14 16:13:43.682111,170
2021-10-14 16:13:43.682119,165
2021-10-14 16:13:43.682127,163
2021-10-14 16:13:43.682136,163
2021-10-14 16:13:43.682144,168
2021-10-14 16:13:43.682152,177
2021-10-14 16:13:43.682160,187
2021-10-14 16:13:43.682169,194
2021-10-14 16:13:43.682177,204
2021-10-14 16:13:43.682185,209
2021-10-14 16:13:43.682193,206
2021-10-14 16:13:43.682202,245
2021-10-14 16:13:43.682210,473
2021-10-14 16:13:43.682218,889
2021-10-14 16:13:43.682226,1010
2021-10-14 16:13:43.682235,271
2021-10-14 16:13:43.952403,-759
2021-10-14 16:13:43.952422,-803
2021-10-14 16:13:43.952432,-98
2021-10-14 16:13:43.952441,163
2021-10-14 16:13:43.952449,113
2021-10-14 16:13:43.952457,247
2021-10-14 16:13:43.952466,322
2021-10-14 16:13:43.952474,266
2021-10-14 16:13:43.952482,274
2021-10-14 16:13:43.952490,303
2021-10-14 16:13:43.952499,288
2021-10-14 16:13:43.952507,290
2021-10-14 16:13:43.952515,312
2021-10-14 16:13:43.952524,315
2021-10-14 16:13:43.952532,312
2021-10-14 16:13:43.952540,324
2021-10-14 16:13:43.952548,334
2021-10-14 16:13:43.952557,341
2021-10-14 16:13:43.952565,353
2021-10-14 16:13:43.952573,360
2021-10-14 16:13:43.952582,360
2021-10-14 16:13:43.952590,363
2021-10-14 16:13:43.952599,372
2021-10-14 16:13:43.952607,382
2021-10-14 16:13:43.952615,391
2021-10-14 16:13:43.952624,399
2021-10-14 16:13:43.952632,396
2021-10-14 16:13:43.952640,379
2021-10-14 16:13:43.952648,367
2021-10-14 16:13:43.952656,355
2021-10-14 16:13:44.177351,329
2021-10-14 16:13:44.177369,303
2021-10-14 16:13:44.177378,274
2021-10-14 16:13:44.177387,242
2021-10-14 16:13:44.177395,216
2021-10-14 16:13:44.177404,194
2021-10-14 16:13:44.177412,180
2021-10-14 16:13:44.177420,170
2021-10-14 16:13:44.177429,151
2021-10-14 16:13:44.177437,132
2021-10-14 16:13:44.177445,120
2021-10-14 16:13:44.177453,105
2021-10-14 16:13:44.177462,103
2021-10-14 16:13:44.177470,93
2021-10-14 16:13:44.177478,81
2021-10-14 16:13:44.177486,86
2021-10-14 16:13:44.177495,98
2021-10-14 16:13:44.177503,101
2021-10-14 16:13:44.177511,101
2021-10-14 16:13:44.177520,105
2021-10-14 16:13:44.177528,110
2021-10-14 16:13:44.177536,117
2021-10-14 16:13:44.177544,127
2021-10-14 16:13:44.177553,129
2021-10-14 16:13:44.177561,122
2021-10-14 16:13:44.177569,122
2021-10-14 16:13:44.177577,127
2021-10-14 16:13:44.177586,129
2021-10-14 16:13:44.177594,120
2021-10-14 16:13:44.177602,110
2021-10-14 16:13:44.402161,110
2021-10-14 16:13:44.402183,110
2021-10-14 16:13:44.402193,105
2021-10-14 16:13:44.402201,103
2021-10-14 16:13:44.402210,103
2021-10-14 16:13:44.402218,103
2021-10-14 16:13:44.402264,105
2021-10-14 16:13:44.402278,105
2021-10-14 16:13:44.402287,91
2021-10-14 16:13:44.402295,72
2021-10-14 16:13:44.402302,76
2021-10-14 16:13:44.402308,91
2021-10-14 16:13:44.402315,93
2021-10-14 16:13:44.402323,86
2021-10-14 16:13:44.402331,76
2021-10-14 16:13:44.402338,74
2021-10-14 16:13:44.402345,76
2021-10-14 16:13:44.402352,76
2021-10-14 16:13:44.402359,74
2021-10-14 16:13:44.402367,74
2021-10-14 16:13:44.402374,74
2021-10-14 16:13:44.402381,76
2021-10-14 16:13:44.402388,84
2021-10-14 16:13:44.402395,81
2021-10-14 16:13:44.402402,74
2021-10-14 16:13:44.402409,76
2021-10-14 16:13:44.402416,84
2021-10-14 16:13:44.402422,88
2021-10-14 16:13:44.402429,98
2021-10-14 16:13:44.402436,101
2021-10-14 16:13:44.627034,79
2021-10-14 16:13:44.627054,55
2021-10-14 16:13:44.627063,45
2021-10-14 16:13:44.627072,43
2021-10-14 16:13:44.627080,40
2021-10-14 16:13:44.627088,45
2021-10-14 16:13:44.627096,45
2021-10-14 16:13:44.627105,33
2021-10-14 16:13:44.627113,24
2021-10-14 16:13:44.627121,19
2021-10-14 16:13:44.627129,19
2021-10-14 16:13:44.627138,38
2021-10-14 16:13:44.627146,122
2021-10-14 16:13:44.627155,404
2021-10-14 16:13:44.627163,793
2021-10-14 16:13:44.627171,670
2021-10-14 16:13:44.627180,-300
2021-10-14 16:13:44.627188,-1123
2021-10-14 16:13:44.627196,-832
2021-10-14 16:13:44.627204,-230
2021-10-14 16:13:44.627213,-117
2021-10-14 16:13:44.627221,-76
2021-10-14 16:13:44.627229,76
2021-10-14 16:13:44.627238,91
2021-10-14 16:13:44.627246,50
2021-10-14 16:13:44.627254,81
2021-10-14 16:13:44.627262,101
2021-10-14 16:13:44.627270,88
2021-10-14 16:13:44.627278,101
2021-10-14 16:13:44.627287,110
2021-10-14 16:13:44.852352,105
2021-10-14 16:13:44.852369,113
2021-10-14 16:13:44.852379,125
2021-10-14 16:13:44.852387,125
2021-10-14 16:13:44.852396,129
2021-10-14 16:13:44.852404,137
2021-10-14 16:13:44.852412,129
2021-10-14 16:13:44.852421,137
2021-10-14 16:13:44.852429,156
2021-10-14 16:13:44.852438,168
2021-10-14 16:13:44.852446,185
2021-10-14 16:13:44.852455,197
2021-10-14 16:13:44.852463,185
2021-10-14 16:13:44.852471,177
2021-10-14 16:13:44.852480,177
2021-10-14 16:13:44.852488,163
2021-10-14 16:13:44.852496,144
2021-10-14 16:13:44.852504,122
2021-10-14 16:13:44.852513,93
2021-10-14 16:13:44.852521,62
2021-10-14 16:13:44.852529,28
2021-10-14 16:13:44.852538,-2
2021-10-14 16:13:44.852546,-24
2021-10-14 16:13:44.852554,-43
2021-10-14 16:13:44.852562,-60
2021-10-14 16:13:44.852571,-67
2021-10-14 16:13:44.852579,-79
2021-10-14 16:13:44.852587,-93
2021-10-14 16:13:44.852599,-93
2021-10-14 16:13:44.852607,-91
2021-10-14 16:13:45.077006,-93
2021-10-14 16:13:45.077026,-98
2021-10-14 16:13:45.077035,-88
2021-10-14 16:13:45.077044,-84
2021-10-14 16:13:45.077052,-88
2021-10-14 16:13:45.077060,-96
2021-10-14 16:13:45.077069,-96
2021-10-14 16:13:45.077077,-79
2021-10-14 16:13:45.077086,-64
2021-10-14 16:13:45.077094,-69
2021-10-14 16:13:45.077103,-74
2021-10-14 16:13:45.077111,-79
2021-10-14 16:13:45.077119,-81
2021-10-14 16:13:45.077128,-74
2021-10-14 16:13:45.077136,-69
2021-10-14 16:13:45.077144,-67
2021-10-14 16:13:45.077153,-67
2021-10-14 16:13:45.077161,-79
2021-10-14 16:13:45.077169,-81
2021-10-14 16:13:45.077177,-72
2021-10-14 16:13:45.077186,-64
2021-10-14 16:13:45.077194,-72
2021-10-14 16:13:45.077202,-86
2021-10-14 16:13:45.077211,-103
2021-10-14 16:13:45.077219,-113
2021-10-14 16:13:45.077227,-105
2021-10-14 16:13:45.077236,-96
2021-10-14 16:13:45.077244,-101
2021-10-14 16:13:45.077252,-96
2021-10-14 16:13:45.077261,-86
2021-10-14 16:13:45.302426,-91
2021-10-14 16:13:45.302446,-98
2021-10-14 16:13:45.302455,-91
2021-10-14 16:13:45.302464,-91
2021-10-14 16:13:45.302472,-103
2021-10-14 16:13:45.302481,-98
2021-10-14 16:13:45.302489,-96
2021-10-14 16:13:45.302498,-110
2021-10-14 16:13:45.302506,-108
2021-10-14 16:13:45.302514,-105
2021-10-14 16:13:45.302523,-115
2021-10-14 16:13:45.302531,-108
2021-10-14 16:13:45.302539,-105
2021-10-14 16:13:45.302548,-115
2021-10-14 16:13:45.302556,-129
2021-10-14 16:13:45.302564,-144
2021-10-14 16:13:45.302573,-141
2021-10-14 16:13:45.302581,-129
2021-10-14 16:13:45.302589,-127
2021-10-14 16:13:45.302598,-137
2021-10-14 16:13:45.302606,-134
2021-10-14 16:13:45.302614,-125
2021-10-14 16:13:45.302623,-125
2021-10-14 16:13:45.302631,-122
2021-10-14 16:13:45.302639,-76
2021-10-14 16:13:45.302647,91
2021-10-14 16:13:45.302656,442
2021-10-14 16:13:45.302664,670
2021-10-14 16:13:45.302672,113
2021-10-14 16:13:45.302681,-990
2021-10-14 16:13:45.570680,-1329
2021-10-14 16:13:45.570700,-752
2021-10-14 16:13:45.570709,-351
2021-10-14 16:13:45.570718,-271
2021-10-14 16:13:45.570726,-105
2021-10-14 16:13:45.570735,2
2021-10-14 16:13:45.570743,-33
2021-10-14 16:13:45.570751,-26
2021-10-14 16:13:45.570760,4
2021-10-14 16:13:45.570768,-16
2021-10-14 16:13:45.570776,-31
2021-10-14 16:13:45.570785,-12
2021-10-14 16:13:45.570793,4
2021-10-14 16:13:45.570801,9
2021-10-14 16:13:45.570809,7
2021-10-14 16:13:45.570818,9
2021-10-14 16:13:45.570826,26
2021-10-14 16:13:45.570834,33
2021-10-14 16:13:45.570842,38
2021-10-14 16:13:45.570850,45
2021-10-14 16:13:45.570859,62
2021-10-14 16:13:45.570867,84
2021-10-14 16:13:45.570875,84
2021-10-14 16:13:45.570883,98
2021-10-14 16:13:45.570891,132
2021-10-14 16:13:45.570900,132
2021-10-14 16:13:45.570908,117
2021-10-14 16:13:45.570916,113
2021-10-14 16:13:45.570924,93
2021-10-14 16:13:45.570932,64
2021-10-14 16:13:45.841384,31
2021-10-14 16:13:45.841401,-16
2021-10-14 16:13:45.841410,-60
2021-10-14 16:13:45.841419,-88
2021-10-14 16:13:45.841427,-132
2021-10-14 16:13:45.841436,-180
2021-10-14 16:13:45.841444,-206
2021-10-14 16:13:45.841452,-216
2021-10-14 16:13:45.841461,-216
2021-10-14 16:13:45.841469,-216
2021-10-14 16:13:45.841478,-233
2021-10-14 16:13:45.841486,-254
2021-10-14 16:13:45.841494,-238
2021-10-14 16:13:45.841503,-221
2021-10-14 16:13:45.841511,-221
2021-10-14 16:13:45.841519,-221
2021-10-14 16:13:45.841528,-214
2021-10-14 16:13:45.841536,-199
2021-10-14 16:13:45.841544,-182
2021-10-14 16:13:45.841552,-177
2021-10-14 16:13:45.841561,-180
2021-10-14 16:13:45.841569,-165
2021-10-14 16:13:45.841577,-153
2021-10-14 16:13:45.841585,-153
2021-10-14 16:13:45.841593,-144
2021-10-14 16:13:45.841601,-139
2021-10-14 16:13:45.841610,-137
2021-10-14 16:13:45.841618,-137
2021-10-14 16:13:45.841626,-137
2021-10-14 16:13:45.841634,-122
2021-10-14 16:13:46.022370,-115
2021-10-14 16:13:46.022389,-125
2021-10-14 16:13:46.022398,-134
2021-10-14 16:13:46.022407,-127
2021-10-14 16:13:46.022415,-115
2021-10-14 16:13:46.022424,-117
2021-10-14 16:13:46.022432,-125
2021-10-14 16:13:46.022440,-117
2021-10-14 16:13:46.022449,-122
2021-10-14 16:13:46.022457,-129
2021-10-14 16:13:46.022465,-129
2021-10-14 16:13:46.022474,-129
2021-10-14 16:13:46.022482,-108
2021-10-14 16:13:46.022490,-96
2021-10-14 16:13:46.022498,-127
2021-10-14 16:13:46.022507,-125
2021-10-14 16:13:46.022515,-81
2021-10-14 16:13:46.022523,-93
2021-10-14 16:13:46.022531,-139
2021-10-14 16:13:46.022539,-146
2021-10-14 16:13:46.022548,-132
2021-10-14 16:13:46.022556,-129
2021-10-14 16:13:46.022564,-137
2021-10-14 16:13:46.022572,-139
2021-10-14 16:13:46.022581,-132
2021-10-14 16:13:46.022589,-125
2021-10-14 16:13:46.022597,-127
2021-10-14 16:13:46.022606,-117
2021-10-14 16:13:46.022614,-96
2021-10-14 16:13:46.022622,-52
2021-10-14 16:13:46.246913,137
2021-10-14 16:13:46.246932,526
2021-10-14 16:13:46.246941,656
2021-10-14 16:13:46.246950,-93
2021-10-14 16:13:46.246958,-1161
2021-10-14 16:13:46.246967,-1274
2021-10-14 16:13:46.246975,-663
2021-10-14 16:13:46.246983,-367
2021-10-14 16:13:46.246992,-278
2021-10-14 16:13:46.247000,-79
2021-10-14 16:13:46.247008,-24
2021-10-14 16:13:46.247017,-79
2021-10-14 16:13:46.247025,-40
2021-10-14 16:13:46.247034,12
2021-10-14 16:13:46.247042,-4
2021-10-14 16:13:46.247050,-14
2021-10-14 16:13:46.247059,9
2021-10-14 16:13:46.247067,24
2021-10-14 16:13:46.247075,28
2021-10-14 16:13:46.247083,28
2021-10-14 16:13:46.247092,19
2021-10-14 16:13:46.247100,24
2021-10-14 16:13:46.247108,50
2021-10-14 16:13:46.247116,76
2021-10-14 16:13:46.247125,86
2021-10-14 16:13:46.247133,96
2021-10-14 16:13:46.247141,110
2021-10-14 16:13:46.247149,134
2021-10-14 16:13:46.247157,146
2021-10-14 16:13:46.247166,156
2021-10-14 16:13:46.472482,168
2021-10-14 16:13:46.472504,165
2021-10-14 16:13:46.472513,146
2021-10-14 16:13:46.472522,127
2021-10-14 16:13:46.472530,98
2021-10-14 16:13:46.472538,67
2021-10-14 16:13:46.472547,21
2021-10-14 16:13:46.472555,-33
2021-10-14 16:13:46.472563,-72
2021-10-14 16:13:46.472571,-101
2021-10-14 16:13:46.472580,-129
2021-10-14 16:13:46.472588,-149
2021-10-14 16:13:46.472596,-158
2021-10-14 16:13:46.472604,-165
2021-10-14 16:13:46.472612,-177
2021-10-14 16:13:46.472621,-177
2021-10-14 16:13:46.472629,-168
2021-10-14 16:13:46.472637,-177
2021-10-14 16:13:46.472645,-185
2021-10-14 16:13:46.472654,-165
2021-10-14 16:13:46.472662,-158
2021-10-14 16:13:46.472670,-161
2021-10-14 16:13:46.472679,-144
2021-10-14 16:13:46.472687,-129
2021-10-14 16:13:46.472695,-127
2021-10-14 16:13:46.472703,-120
2021-10-14 16:13:46.472711,-101
2021-10-14 16:13:46.472720,-86
2021-10-14 16:13:46.472728,-88
2021-10-14 16:13:46.472736,-88
2021-10-14 16:13:46.697409,-88
2021-10-14 16:13:46.697428,-103
2021-10-14 16:13:46.697438,-105
2021-10-14 16:13:46.697446,-93
2021-10-14 16:13:46.697455,-93
2021-10-14 16:13:46.697463,-103
2021-10-14 16:13:46.697471,-108
2021-10-14 16:13:46.697479,-98
2021-10-14 16:13:46.697488,-93
2021-10-14 16:13:46.697496,-105
2021-10-14 16:13:46.697504,-113
2021-10-14 16:13:46.697513,-105
2021-10-14 16:13:46.697521,-105
2021-10-14 16:13:46.697529,-108
2021-10-14 16:13:46.697537,-105
2021-10-14 16:13:46.697545,-98
2021-10-14 16:13:46.697553,-93
2021-10-14 16:13:46.697562,-93
2021-10-14 16:13:46.697570,-93
2021-10-14 16:13:46.697578,-86
2021-10-14 16:13:46.697586,-91
2021-10-14 16:13:46.697594,-103
2021-10-14 16:13:46.697602,-108
2021-10-14 16:13:46.697613,-96
2021-10-14 16:13:46.697621,-88
2021-10-14 16:13:46.697630,-81
2021-10-14 16:13:46.697638,-62
2021-10-14 16:13:46.697646,-64
2021-10-14 16:13:46.697654,-86
2021-10-14 16:13:46.697662,-98
2021-10-14 16:13:46.922017,-103
2021-10-14 16:13:46.922035,-105
2021-10-14 16:13:46.922044,-96
2021-10-14 16:13:46.922053,-84
2021-10-14 16:13:46.922061,-72
2021-10-14 16:13:46.922069,-60
2021-10-14 16:13:46.922078,-67
2021-10-14 16:13:46.922086,-76
2021-10-14 16:13:46.922094,-76
2021-10-14 16:13:46.922102,-38
2021-10-14 16:13:46.922111,86
2021-10-14 16:13:46.922119,416
2021-10-14 16:13:46.922128,771
2021-10-14 16:13:46.922136,483
2021-10-14 16:13:46.922144,-589
2021-10-14 16:13:46.922152,-1293
2021-10-14 16:13:46.922161,-889
2021-10-14 16:13:46.922169,-317
2021-10-14 16:13:46.922177,-199
2021-10-14 16:13:46.922185,-93
2021-10-14 16:13:46.922194,52
2021-10-14 16:13:46.922202,40
2021-10-14 16:13:46.922210,9
2021-10-14 16:13:46.922218,45
2021-10-14 16:13:46.922227,64
2021-10-14 16:13:46.922235,60
2021-10-14 16:13:46.922243,69
2021-10-14 16:13:46.922252,69
2021-10-14 16:13:46.922260,72
2021-10-14 16:13:46.922268,86
2021-10-14 16:13:47.147392,93
2021-10-14 16:13:47.147411,96
2021-10-14 16:13:47.147420,108
2021-10-14 16:13:47.147429,120
2021-10-14 16:13:47.147437,125
2021-10-14 16:13:47.147446,132
2021-10-14 16:13:47.147454,146
2021-10-14 16:13:47.147462,156
2021-10-14 16:13:47.147470,170
2021-10-14 16:13:47.147479,192
2021-10-14 16:13:47.147487,199
2021-10-14 16:13:47.147495,194
2021-10-14 16:13:47.147504,197
2021-10-14 16:13:47.147512,189
2021-10-14 16:13:47.147520,153
2021-10-14 16:13:47.147528,105
2021-10-14 16:13:47.147537,69
2021-10-14 16:13:47.147545,33
2021-10-14 16:13:47.147553,-2
2021-10-14 16:13:47.147562,-33
2021-10-14 16:13:47.147570,-64
2021-10-14 16:13:47.147578,-93
2021-10-14 16:13:47.147586,-105
2021-10-14 16:13:47.147595,-115
2021-10-14 16:13:47.147603,-132
2021-10-14 16:13:47.147611,-132
2021-10-14 16:13:47.147620,-120
2021-10-14 16:13:47.147628,-122
2021-10-14 16:13:47.147636,-129
2021-10-14 16:13:47.147644,-127
2021-10-14 16:13:47.372165,-120
2021-10-14 16:13:47.372187,-113
2021-10-14 16:13:47.372196,-103
2021-10-14 16:13:47.372205,-96
2021-10-14 16:13:47.372213,-96
2021-10-14 16:13:47.372221,-91
2021-10-14 16:13:47.372229,-81
2021-10-14 16:13:47.372238,-74
2021-10-14 16:13:47.372246,-74
2021-10-14 16:13:47.372254,-60
2021-10-14 16:13:47.372262,-48
2021-10-14 16:13:47.372271,-55
2021-10-14 16:13:47.372279,-55
2021-10-14 16:13:47.372287,-40
2021-10-14 16:13:47.372295,-40
2021-10-14 16:13:47.372304,-50
2021-10-14 16:13:47.372312,-52
2021-10-14 16:13:47.372320,-48
2021-10-14 16:13:47.372328,-43
2021-10-14 16:13:47.372337,-43
2021-10-14 16:13:47.372345,-40
2021-10-14 16:13:47.372353,-36
2021-10-14 16:13:47.372361,-33
2021-10-14 16:13:47.372369,-36
2021-10-14 16:13:47.372377,-36
2021-10-14 16:13:47.372386,-40
2021-10-14 16:13:47.372394,-48
2021-10-14 16:13:47.372402,-43
2021-10-14 16:13:47.372411,-36
2021-10-14 16:13:47.372419,-38
2021-10-14 16:13:47.731061,-40
2021-10-14 16:13:47.731080,-36
2021-10-14 16:13:47.731089,-36
2021-10-14 16:13:47.731098,-33
2021-10-14 16:13:47.731106,-28
2021-10-14 16:13:47.731115,-31
2021-10-14 16:13:47.731123,-36
2021-10-14 16:13:47.731131,-33
2021-10-14 16:13:47.731139,-31
2021-10-14 16:13:47.731148,-36
2021-10-14 16:13:47.731156,-40
2021-10-14 16:13:47.731165,-36
2021-10-14 16:13:47.731173,-24
2021-10-14 16:13:47.731181,-14
2021-10-14 16:13:47.731189,-7
2021-10-14 16:13:47.731198,-12
2021-10-14 16:13:47.731206,-31
2021-10-14 16:13:47.731214,-48
2021-10-14 16:13:47.731222,-55
2021-10-14 16:13:47.731231,-55
2021-10-14 16:13:47.731239,-67
2021-10-14 16:13:47.731247,-86
2021-10-14 16:13:47.731256,-93
2021-10-14 16:13:47.731264,-79
2021-10-14 16:13:47.731272,-64
2021-10-14 16:13:47.731281,-57
2021-10-14 16:13:47.731289,-50
2021-10-14 16:13:47.731297,-12
2021-10-14 16:13:47.731305,163
2021-10-14 16:13:47.731314,569
2021-10-14 16:13:47.867391,808
2021-10-14 16:13:47.867408,209
2021-10-14 16:13:47.867418,-901
2021-10-14 16:13:47.867426,-1240
2021-10-14 16:13:47.867435,-632
2021-10-14 16:13:47.867443,-199
2021-10-14 16:13:47.867451,-163
2021-10-14 16:13:47.867460,-36
2021-10-14 16:13:47.867468,67
2021-10-14 16:13:47.867476,21
2021-10-14 16:13:47.867484,16
2021-10-14 16:13:47.867492,67
2021-10-14 16:13:47.867501,69
2021-10-14 16:13:47.867509,57
2021-10-14 16:13:47.867517,67
2021-10-14 16:13:47.867525,62
2021-10-14 16:13:47.867533,64
2021-10-14 16:13:47.867542,79
2021-10-14 16:13:47.867550,86
2021-10-14 16:13:47.867558,93
2021-10-14 16:13:47.867566,98
2021-10-14 16:13:47.867574,103
2021-10-14 16:13:47.867583,113
2021-10-14 16:13:47.867591,129
2021-10-14 16:13:47.867599,149
2021-10-14 16:13:47.867607,163
2021-10-14 16:13:47.867615,168
2021-10-14 16:13:47.867623,177
2021-10-14 16:13:47.867632,185
2021-10-14 16:13:47.867640,192
2021-10-14 16:13:48.136404,202
2021-10-14 16:13:48.136423,192
2021-10-14 16:13:48.136432,153
2021-10-14 16:13:48.136441,117
2021-10-14 16:13:48.136450,96
2021-10-14 16:13:48.136458,67
2021-10-14 16:13:48.136466,28
2021-10-14 16:13:48.136475,-4
2021-10-14 16:13:48.136483,-36
2021-10-14 16:13:48.136491,-64
2021-10-14 16:13:48.136500,-76
2021-10-14 16:13:48.136508,-84
2021-10-14 16:13:48.136517,-91
2021-10-14 16:13:48.136525,-98
2021-10-14 16:13:48.136533,-108
2021-10-14 16:13:48.136541,-108
2021-10-14 16:13:48.136550,-98
2021-10-14 16:13:48.136558,-96
2021-10-14 16:13:48.136567,-96
2021-10-14 16:13:48.136575,-88
2021-10-14 16:13:48.136583,-84
2021-10-14 16:13:48.136591,-76
2021-10-14 16:13:48.136600,-72
2021-10-14 16:13:48.136608,-64
2021-10-14 16:13:48.136617,-55
2021-10-14 16:13:48.136625,-50
2021-10-14 16:13:48.136633,-57
2021-10-14 16:13:48.136641,-57
2021-10-14 16:13:48.136650,-48
2021-10-14 16:13:48.136658,-40
2021-10-14 16:13:48.317524,-36
2021-10-14 16:13:48.317544,-38
2021-10-14 16:13:48.317553,-50
2021-10-14 16:13:48.317562,-52
2021-10-14 16:13:48.317571,-45
2021-10-14 16:13:48.317579,-36
2021-10-14 16:13:48.317587,-38
2021-10-14 16:13:48.317596,-48
2021-10-14 16:13:48.317604,-50
2021-10-14 16:13:48.317612,-48
2021-10-14 16:13:48.317621,-45
2021-10-14 16:13:48.317629,-43
2021-10-14 16:13:48.317637,-43
2021-10-14 16:13:48.317646,-50
2021-10-14 16:13:48.317654,-55
2021-10-14 16:13:48.317662,-48
2021-10-14 16:13:48.317671,-40
2021-10-14 16:13:48.317679,-40
2021-10-14 16:13:48.317687,-40
2021-10-14 16:13:48.317696,-40
2021-10-14 16:13:48.317704,-38
2021-10-14 16:13:48.317712,-36
2021-10-14 16:13:48.317721,-31
2021-10-14 16:13:48.317729,-24
2021-10-14 16:13:48.317738,-26
2021-10-14 16:13:48.317746,-28
2021-10-14 16:13:48.317754,-26
2021-10-14 16:13:48.317763,-24
2021-10-14 16:13:48.317771,-26
2021-10-14 16:13:48.317779,-26
2021-10-14 16:13:48.587460,-26
2021-10-14 16:13:48.587480,-28
2021-10-14 16:13:48.587489,-26
2021-10-14 16:13:48.587498,-31
2021-10-14 16:13:48.587506,-45
2021-10-14 16:13:48.587514,-45
2021-10-14 16:13:48.587522,-40
2021-10-14 16:13:48.587531,-43
2021-10-14 16:13:48.587539,-33
2021-10-14 16:13:48.587547,-31
2021-10-14 16:13:48.587555,-52
2021-10-14 16:13:48.587563,-69
2021-10-14 16:13:48.587572,-74
2021-10-14 16:13:48.587580,-79
2021-10-14 16:13:48.587588,-76
2021-10-14 16:13:48.587596,-67
2021-10-14 16:13:48.587605,-60
2021-10-14 16:13:48.587613,-57
2021-10-14 16:13:48.587621,-55
2021-10-14 16:13:48.587629,-50
2021-10-14 16:13:48.587638,-38
2021-10-14 16:13:48.587646,-14
2021-10-14 16:13:48.587654,86
2021-10-14 16:13:48.587662,399
2021-10-14 16:13:48.587671,781
2021-10-14 16:13:48.587679,613
2021-10-14 16:13:48.587687,-363
2021-10-14 16:13:48.587695,-1180
2021-10-14 16:13:48.587704,-889
2021-10-14 16:13:48.587712,-254
2021-10-14 16:13:48.811430,-127
2021-10-14 16:13:48.811450,-105
2021-10-14 16:13:48.811459,38
2021-10-14 16:13:48.811467,60
2021-10-14 16:13:48.811476,31
2021-10-14 16:13:48.811484,62
2021-10-14 16:13:48.811492,69
2021-10-14 16:13:48.811501,55
2021-10-14 16:13:48.811509,67
2021-10-14 16:13:48.811517,79
2021-10-14 16:13:48.811526,79
2021-10-14 16:13:48.811534,81
2021-10-14 16:13:48.811542,84
2021-10-14 16:13:48.811550,91
2021-10-14 16:13:48.811559,101
2021-10-14 16:13:48.811567,110
2021-10-14 16:13:48.811575,117
2021-10-14 16:13:48.811589,125
2021-10-14 16:13:48.811597,129
2021-10-14 16:13:48.811606,146
2021-10-14 16:13:48.811614,163
2021-10-14 16:13:48.811622,170
2021-10-14 16:13:48.811631,175
2021-10-14 16:13:48.811639,180
2021-10-14 16:13:48.811647,177
2021-10-14 16:13:48.811656,168
2021-10-14 16:13:48.811664,151
2021-10-14 16:13:48.811672,127
2021-10-14 16:13:48.811681,101
2021-10-14 16:13:48.811689,72
2021-10-14 16:13:49.037418,38
2021-10-14 16:13:49.037437,9
2021-10-14 16:13:49.037447,-14
2021-10-14 16:13:49.037456,-43
2021-10-14 16:13:49.037464,-62
2021-10-14 16:13:49.037473,-79
2021-10-14 16:13:49.037481,-91
2021-10-14 16:13:49.037489,-98
2021-10-14 16:13:49.037497,-105
2021-10-14 16:13:49.037505,-113
2021-10-14 16:13:49.037514,-117
2021-10-14 16:13:49.037522,-122
2021-10-14 16:13:49.037530,-120
2021-10-14 16:13:49.037538,-108
2021-10-14 16:13:49.037546,-98
2021-10-14 16:13:49.037555,-91
2021-10-14 16:13:49.037563,-84
2021-10-14 16:13:49.037571,-76
2021-10-14 16:13:49.037579,-69
2021-10-14 16:13:49.037587,-57
2021-10-14 16:13:49.037596,-48
2021-10-14 16:13:49.037604,-45
2021-10-14 16:13:49.037612,-43
2021-10-14 16:13:49.037620,-40
2021-10-14 16:13:49.037628,-36
2021-10-14 16:13:49.037636,-36
2021-10-14 16:13:49.037645,-40
2021-10-14 16:13:49.037653,-43
2021-10-14 16:13:49.037661,-43
2021-10-14 16:13:49.037669,-43
2021-10-14 16:13:49.217441,-43
2021-10-14 16:13:49.217460,-38
2021-10-14 16:13:49.217469,-40
2021-10-14 16:13:49.217478,-45
2021-10-14 16:13:49.217486,-52
2021-10-14 16:13:49.217495,-52
2021-10-14 16:13:49.217503,-52
2021-10-14 16:13:49.217511,-67
2021-10-14 16:13:49.217519,-74
2021-10-14 16:13:49.217528,-67
2021-10-14 16:13:49.217536,-67
2021-10-14 16:13:49.217545,-74
2021-10-14 16:13:49.217553,-67
2021-10-14 16:13:49.217561,-62
2021-10-14 16:13:49.217569,-62
2021-10-14 16:13:49.217578,-64
2021-10-14 16:13:49.217586,-72
2021-10-14 16:13:49.217594,-76
2021-10-14 16:13:49.217602,-72
2021-10-14 16:13:49.217610,-69
2021-10-14 16:13:49.217619,-74
2021-10-14 16:13:49.217627,-76
2021-10-14 16:13:49.217635,-76
2021-10-14 16:13:49.217643,-72
2021-10-14 16:13:49.217651,-64
2021-10-14 16:13:49.217659,-62
2021-10-14 16:13:49.217667,-62
2021-10-14 16:13:49.217676,-60
2021-10-14 16:13:49.217684,-57
2021-10-14 16:13:49.217692,-50
2021-10-14 16:13:49.442103,-48
2021-10-14 16:13:49.442123,-45
2021-10-14 16:13:49.442133,-45
2021-10-14 16:13:49.442142,-55
2021-10-14 16:13:49.442150,-55
2021-10-14 16:13:49.442159,-40
2021-10-14 16:13:49.442167,-26
2021-10-14 16:13:49.442176,-12
2021-10-14 16:13:49.442184,-4
2021-10-14 16:13:49.442193,-31
2021-10-14 16:13:49.442201,-62
2021-10-14 16:13:49.442209,-60
2021-10-14 16:13:49.442218,-62
2021-10-14 16:13:49.442226,-64
2021-10-14 16:13:49.442235,-57
2021-10-14 16:13:49.442243,-55
2021-10-14 16:13:49.442252,-60
2021-10-14 16:13:49.442260,-50
2021-10-14 16:13:49.442269,-33
2021-10-14 16:13:49.442277,-24
2021-10-14 16:13:49.442285,-14
2021-10-14 16:13:49.442294,31
2021-10-14 16:13:49.442302,238
2021-10-14 16:13:49.442311,646
2021-10-14 16:13:49.442320,793
2021-10-14 16:13:49.442328,115
2021-10-14 16:13:49.442337,-916
2021-10-14 16:13:49.442345,-1089
2021-10-14 16:13:49.442354,-449
2021-10-14 16:13:49.442363,-93
2021-10-14 16:13:49.755754,-93
2021-10-14 16:13:49.755774,19
2021-10-14 16:13:49.755783,98
2021-10-14 16:13:49.755792,48
2021-10-14 16:13:49.755800,55
2021-10-14 16:13:49.755808,96
2021-10-14 16:13:49.755817,88
2021-10-14 16:13:49.755825,81
2021-10-14 16:13:49.755833,91
2021-10-14 16:13:49.755841,86
2021-10-14 16:13:49.755850,84
2021-10-14 16:13:49.755858,98
2021-10-14 16:13:49.755866,96
2021-10-14 16:13:49.755875,84
2021-10-14 16:13:49.755883,86
2021-10-14 16:13:49.755891,96
2021-10-14 16:13:49.755900,108
2021-10-14 16:13:49.755908,122
2021-10-14 16:13:49.755916,137
2021-10-14 16:13:49.755924,149
2021-10-14 16:13:49.755933,156
2021-10-14 16:13:49.755941,161
2021-10-14 16:13:49.755949,165
2021-10-14 16:13:49.755958,165
2021-10-14 16:13:49.755966,161
2021-10-14 16:13:49.755974,151
2021-10-14 16:13:49.755982,132
2021-10-14 16:13:49.755991,101
2021-10-14 16:13:49.755999,76
2021-10-14 16:13:49.756007,55
2021-10-14 16:13:49.937476,26
2021-10-14 16:13:49.937495,-2
2021-10-14 16:13:49.937504,-21
2021-10-14 16:13:49.937513,-48
2021-10-14 16:13:49.937521,-64
2021-10-14 16:13:49.937530,-72
2021-10-14 16:13:49.937538,-74
2021-10-14 16:13:49.937546,-79
2021-10-14 16:13:49.937555,-93
2021-10-14 16:13:49.937563,-98
2021-10-14 16:13:49.937571,-88
2021-10-14 16:13:49.937580,-79
2021-10-14 16:13:49.937588,-81
2021-10-14 16:13:49.937596,-84
2021-10-14 16:13:49.937605,-88
2021-10-14 16:13:49.937613,-88
2021-10-14 16:13:49.937621,-86
2021-10-14 16:13:49.937629,-84
2021-10-14 16:13:49.937638,-79
2021-10-14 16:13:49.937646,-72
2021-10-14 16:13:49.937654,-72
2021-10-14 16:13:49.937662,-74
2021-10-14 16:13:49.937671,-72
2021-10-14 16:13:49.937679,-62
2021-10-14 16:13:49.937687,-60
2021-10-14 16:13:49.937695,-69
2021-10-14 16:13:49.937704,-69
2021-10-14 16:13:49.937712,-62
2021-10-14 16:13:49.937720,-64
2021-10-14 16:13:49.937728,-67
2021-10-14 16:13:50.162060,-62
2021-10-14 16:13:50.162078,-62
2021-10-14 16:13:50.162088,-64
2021-10-14 16:13:50.162096,-64
2021-10-14 16:13:50.162104,-64
2021-10-14 16:13:50.162113,-60
2021-10-14 16:13:50.162121,-52
2021-10-14 16:13:50.162129,-55
2021-10-14 16:13:50.162138,-64
2021-10-14 16:13:50.162146,-55
2021-10-14 16:13:50.162154,-38
2021-10-14 16:13:50.162162,-36
2021-10-14 16:13:50.162171,-40
2021-10-14 16:13:50.162179,-43
2021-10-14 16:13:50.162187,-40
2021-10-14 16:13:50.162196,-36
2021-10-14 16:13:50.162204,-33
2021-10-14 16:13:50.162212,-38
2021-10-14 16:13:50.162220,-48
2021-10-14 16:13:50.162229,-55
2021-10-14 16:13:50.162237,-52
2021-10-14 16:13:50.162245,-57
2021-10-14 16:13:50.162253,-64
2021-10-14 16:13:50.162261,-57
2021-10-14 16:13:50.162269,-55
2021-10-14 16:13:50.162278,-55
2021-10-14 16:13:50.162286,-45
2021-10-14 16:13:50.162294,-38
2021-10-14 16:13:50.162302,-31
2021-10-14 16:13:50.162310,-21
2021-10-14 16:13:50.431885,-19
2021-10-14 16:13:50.431905,-19
2021-10-14 16:13:50.431914,-12
2021-10-14 16:13:50.431923,-4
2021-10-14 16:13:50.431932,-2
2021-10-14 16:13:50.431940,4
2021-10-14 16:13:50.431949,14
2021-10-14 16:13:50.431957,0
2021-10-14 16:13:50.431966,-24
2021-10-14 16:13:50.431974,-36
2021-10-14 16:13:50.431982,-31
2021-10-14 16:13:50.431990,-28
2021-10-14 16:13:50.431999,-36
2021-10-14 16:13:50.432007,-33
2021-10-14 16:13:50.432015,-26
2021-10-14 16:13:50.432023,-28
2021-10-14 16:13:50.432031,-24
2021-10-14 16:13:50.432040,-9
2021-10-14 16:13:50.432048,2
2021-10-14 16:13:50.432056,38
2021-10-14 16:13:50.432065,204
2021-10-14 16:13:50.432073,577
2021-10-14 16:13:50.432081,795
2021-10-14 16:13:50.432089,238
2021-10-14 16:13:50.432098,-788
2021-10-14 16:13:50.432106,-1082
2021-10-14 16:13:50.432114,-538
2021-10-14 16:13:50.432123,-168
2021-10-14 16:13:50.432131,-117
2021-10-14 16:13:50.432139,16
2021-10-14 16:13:50.612083,103
2021-10-14 16:13:50.612102,67
2021-10-14 16:13:50.612111,76
2021-10-14 16:13:50.612120,108
2021-10-14 16:13:50.612128,103
2021-10-14 16:13:50.612136,98
2021-10-14 16:13:50.612145,98
2021-10-14 16:13:50.612153,101
2021-10-14 16:13:50.612161,115
2021-10-14 16:13:50.612170,127
2021-10-14 16:13:50.612178,132
2021-10-14 16:13:50.612186,129
2021-10-14 16:13:50.612195,127
2021-10-14 16:13:50.612203,137
2021-10-14 16:13:50.612211,158
2021-10-14 16:13:50.612220,170
2021-10-14 16:13:50.612228,180
2021-10-14 16:13:50.612236,185
2021-10-14 16:13:50.612245,192
2021-10-14 16:13:50.612253,211
2021-10-14 16:13:50.612261,221
2021-10-14 16:13:50.612270,211
2021-10-14 16:13:50.612278,194
2021-10-14 16:13:50.612286,177
2021-10-14 16:13:50.612294,153
2021-10-14 16:13:50.612303,122
2021-10-14 16:13:50.612311,93
2021-10-14 16:13:50.612319,60
2021-10-14 16:13:50.612328,21
2021-10-14 16:13:50.612336,-9
2021-10-14 16:13:50.881819,-31
2021-10-14 16:13:50.881837,-48
2021-10-14 16:13:50.881846,-69
2021-10-14 16:13:50.881855,-91
2021-10-14 16:13:50.881863,-103
2021-10-14 16:13:50.881872,-120
2021-10-14 16:13:50.881880,-129
2021-10-14 16:13:50.881888,-122
2021-10-14 16:13:50.881896,-120
2021-10-14 16:13:50.881905,-125
2021-10-14 16:13:50.881913,-125
2021-10-14 16:13:50.881921,-117
2021-10-14 16:13:50.881929,-110
2021-10-14 16:13:50.881938,-105
2021-10-14 16:13:50.881946,-103
2021-10-14 16:13:50.881954,-93
2021-10-14 16:13:50.881963,-81
2021-10-14 16:13:50.881971,-79
2021-10-14 16:13:50.881979,-76
2021-10-14 16:13:50.881987,-60
2021-10-14 16:13:50.881995,-55
2021-10-14 16:13:50.882003,-64
2021-10-14 16:13:50.882011,-57
2021-10-14 16:13:50.882020,-50
2021-10-14 16:13:50.882028,-60
2021-10-14 16:13:50.882036,-62
2021-10-14 16:13:50.882044,-62
2021-10-14 16:13:50.882052,-62
2021-10-14 16:13:50.882061,-50
2021-10-14 16:13:50.882069,-50
2021-10-14 16:13:51.062424,-60
2021-10-14 16:13:51.062442,-55
2021-10-14 16:13:51.062452,-45
2021-10-14 16:13:51.062460,-48
2021-10-14 16:13:51.062469,-60
2021-10-14 16:13:51.062477,-64
2021-10-14 16:13:51.062485,-55
2021-10-14 16:13:51.062494,-43
2021-10-14 16:13:51.062502,-43
2021-10-14 16:13:51.062510,-48
2021-10-14 16:13:51.062519,-52
2021-10-14 16:13:51.062527,-52
2021-10-14 16:13:51.062535,-45
2021-10-14 16:13:51.062544,-36
2021-10-14 16:13:51.062560,-33
2021-10-14 16:13:51.062569,-33
2021-10-14 16:13:51.062577,-36
2021-10-14 16:13:51.062586,-36
2021-10-14 16:13:51.062594,-31
2021-10-14 16:13:51.062602,-26
2021-10-14 16:13:51.062610,-31
2021-10-14 16:13:51.062619,-26
2021-10-14 16:13:51.062627,-14
2021-10-14 16:13:51.062635,2
2021-10-14 16:13:51.062644,7
2021-10-14 16:13:51.062652,4
2021-10-14 16:13:51.062660,7
2021-10-14 16:13:51.062668,-7
2021-10-14 16:13:51.062677,-33
2021-10-14 16:13:51.062685,-48
2021-10-14 16:13:51.287373,-48
2021-10-14 16:13:51.287392,-48
2021-10-14 16:13:51.287401,-48
2021-10-14 16:13:51.287410,-50
2021-10-14 16:13:51.287418,-55
2021-10-14 16:13:51.287427,-48
2021-10-14 16:13:51.287435,-33
2021-10-14 16:13:51.287443,-31
2021-10-14 16:13:51.287451,-21
2021-10-14 16:13:51.287460,12
2021-10-14 16:13:51.287468,149
2021-10-14 16:13:51.287476,502
2021-10-14 16:13:51.287484,791
2021-10-14 16:13:51.287493,341
2021-10-14 16:13:51.287501,-726
2021-10-14 16:13:51.287509,-1178
2021-10-14 16:13:51.287518,-694
2021-10-14 16:13:51.287526,-276
2021-10-14 16:13:51.287534,-170
2021-10-14 16:13:51.287542,-7
2021-10-14 16:13:51.287551,96
2021-10-14 16:13:51.287559,57
2021-10-14 16:13:51.287567,57
2021-10-14 16:13:51.287575,101
2021-10-14 16:13:51.287583,113
2021-10-14 16:13:51.287591,108
2021-10-14 16:13:51.287600,115
2021-10-14 16:13:51.287608,117
2021-10-14 16:13:51.287616,110
2021-10-14 16:13:51.287624,113
2021-10-14 16:13:51.557211,129
2021-10-14 16:13:51.557232,137
2021-10-14 16:13:51.557242,132
2021-10-14 16:13:51.557250,129
2021-10-14 16:13:51.557259,141
2021-10-14 16:13:51.557267,161
2021-10-14 16:13:51.557275,175
2021-10-14 16:13:51.557284,182
2021-10-14 16:13:51.557292,189
2021-10-14 16:13:51.557300,187
2021-10-14 16:13:51.557309,185
2021-10-14 16:13:51.557317,182
2021-10-14 16:13:51.557325,189
2021-10-14 16:13:51.557333,187
2021-10-14 16:13:51.557341,158
2021-10-14 16:13:51.557350,115
2021-10-14 16:13:51.557358,84
2021-10-14 16:13:51.557366,55
2021-10-14 16:13:51.557375,14
2021-10-14 16:13:51.557383,-24
2021-10-14 16:13:51.557391,-57
2021-10-14 16:13:51.557399,-86
2021-10-14 16:13:51.557407,-103
2021-10-14 16:13:51.557416,-113
2021-10-14 16:13:51.557424,-122
2021-10-14 16:13:51.557432,-127
2021-10-14 16:13:51.557440,-132
2021-10-14 16:13:51.557448,-134
2021-10-14 16:13:51.557456,-127
2021-10-14 16:13:51.557465,-120
2021-10-14 16:13:51.825741,-127
2021-10-14 16:13:51.825760,-125
2021-10-14 16:13:51.825769,-113
2021-10-14 16:13:51.825778,-108
2021-10-14 16:13:51.825786,-113
2021-10-14 16:13:51.825794,-117
2021-10-14 16:13:51.825802,-105
2021-10-14 16:13:51.825811,-93
2021-10-14 16:13:51.825819,-98
2021-10-14 16:13:51.825827,-101
2021-10-14 16:13:51.825836,-88
2021-10-14 16:13:51.825844,-76
2021-10-14 16:13:51.825852,-72
2021-10-14 16:13:51.825861,-72
2021-10-14 16:13:51.825869,-79
2021-10-14 16:13:51.825877,-86
2021-10-14 16:13:51.825885,-81
2021-10-14 16:13:51.825893,-76
2021-10-14 16:13:51.825902,-79
2021-10-14 16:13:51.825910,-84
2021-10-14 16:13:51.825918,-88
2021-10-14 16:13:51.825927,-81
2021-10-14 16:13:51.825935,-60
2021-10-14 16:13:51.825943,-45
2021-10-14 16:13:51.825951,-50
2021-10-14 16:13:51.825960,-57
2021-10-14 16:13:51.825968,-55
2021-10-14 16:13:51.825977,-55
2021-10-14 16:13:51.825985,-52
2021-10-14 16:13:51.825993,-38
2021-10-14 16:13:52.007081,-33
2021-10-14 16:13:52.007100,-38
2021-10-14 16:13:52.007109,-43
2021-10-14 16:13:52.007118,-50
2021-10-14 16:13:52.007126,-45
2021-10-14 16:13:52.007134,-38
2021-10-14 16:13:52.007143,-33
2021-10-14 16:13:52.007151,-36
2021-10-14 16:13:52.007159,-43
2021-10-14 16:13:52.007167,-45
2021-10-14 16:13:52.007176,-38
2021-10-14 16:13:52.007184,-33
2021-10-14 16:13:52.007192,-33
2021-10-14 16:13:52.007200,-31
2021-10-14 16:13:52.007209,-28
2021-10-14 16:13:52.007217,-19
2021-10-14 16:13:52.007225,-2
2021-10-14 16:13:52.007233,2
2021-10-14 16:13:52.007242,-21
2021-10-14 16:13:52.007250,-43
2021-10-14 16:13:52.007258,-40
2021-10-14 16:13:52.007266,-33
2021-10-14 16:13:52.007275,-31
2021-10-14 16:13:52.007283,-24
2021-10-14 16:13:52.007291,-24
2021-10-14 16:13:52.007299,-28
2021-10-14 16:13:52.007308,-26
2021-10-14 16:13:52.007316,-16
2021-10-14 16:13:52.007324,-4
2021-10-14 16:13:52.007332,26
2021-10-14 16:13:52.277397,134
2021-10-14 16:13:52.277416,444
2021-10-14 16:13:52.277425,808
2021-10-14 16:13:52.277434,596
2021-10-14 16:13:52.277443,-408
2021-10-14 16:13:52.277451,-1187
2021-10-14 16:13:52.277459,-875
2021-10-14 16:13:52.277468,-266
2021-10-14 16:13:52.277476,-115
2021-10-14 16:13:52.277484,-57
2021-10-14 16:13:52.277493,60
2021-10-14 16:13:52.277501,64
2021-10-14 16:13:52.277509,36
2021-10-14 16:13:52.277518,64
2021-10-14 16:13:52.277526,79
2021-10-14 16:13:52.277534,74
2021-10-14 16:13:52.277543,84
2021-10-14 16:13:52.277551,96
2021-10-14 16:13:52.277559,93
2021-10-14 16:13:52.277568,91
2021-10-14 16:13:52.277576,103
2021-10-14 16:13:52.277584,110
2021-10-14 16:13:52.277592,117
2021-10-14 16:13:52.277601,125
2021-10-14 16:13:52.277609,137
2021-10-14 16:13:52.277617,151
2021-10-14 16:13:52.277625,163
2021-10-14 16:13:52.277634,173
2021-10-14 16:13:52.277642,185
2021-10-14 16:13:52.277650,197
2021-10-14 16:13:52.592173,202
2021-10-14 16:13:52.592194,204
2021-10-14 16:13:52.592203,199
2021-10-14 16:13:52.592212,185
2021-10-14 16:13:52.592220,163
2021-10-14 16:13:52.592228,137
2021-10-14 16:13:52.592236,108
2021-10-14 16:13:52.592245,72
2021-10-14 16:13:52.592253,33
2021-10-14 16:13:52.592261,2
2021-10-14 16:13:52.592269,-24
2021-10-14 16:13:52.592277,-45
2021-10-14 16:13:52.592286,-62
2021-10-14 16:13:52.592294,-79
2021-10-14 16:13:52.592302,-101
2021-10-14 16:13:52.592310,-113
2021-10-14 16:13:52.592318,-110
2021-10-14 16:13:52.592326,-117
2021-10-14 16:13:52.592335,-129
2021-10-14 16:13:52.592343,-127
2021-10-14 16:13:52.592351,-125
2021-10-14 16:13:52.592359,-122
2021-10-14 16:13:52.592367,-117
2021-10-14 16:13:52.592375,-113
2021-10-14 16:13:52.592383,-108
2021-10-14 16:13:52.592392,-98
2021-10-14 16:13:52.592400,-91
2021-10-14 16:13:52.592408,-86
2021-10-14 16:13:52.592416,-72
2021-10-14 16:13:52.592424,-67
2021-10-14 16:13:52.727120,-67
2021-10-14 16:13:52.727139,-67
2021-10-14 16:13:52.727148,-62
2021-10-14 16:13:52.727157,-57
2021-10-14 16:13:52.727166,-57
2021-10-14 16:13:52.727174,-64
2021-10-14 16:13:52.727182,-69
2021-10-14 16:13:52.727191,-60
2021-10-14 16:13:52.727199,-62
2021-10-14 16:13:52.727207,-72
2021-10-14 16:13:52.727215,-62
2021-10-14 16:13:52.727224,-52
2021-10-14 16:13:52.727232,-55
2021-10-14 16:13:52.727240,-52
2021-10-14 16:13:52.727249,-50
2021-10-14 16:13:52.727257,-52
2021-10-14 16:13:52.727265,-64
2021-10-14 16:13:52.727274,-72
2021-10-14 16:13:52.727282,-64
2021-10-14 16:13:52.727290,-57
2021-10-14 16:13:52.727298,-60
2021-10-14 16:13:52.727306,-62
2021-10-14 16:13:52.727314,-67
2021-10-14 16:13:52.727323,-74
2021-10-14 16:13:52.727331,-69
2021-10-14 16:13:52.727339,-57
2021-10-14 16:13:52.727347,-62
2021-10-14 16:13:52.727356,-64
2021-10-14 16:13:52.727364,-50
2021-10-14 16:13:52.727372,-45
2021-10-14 16:13:52.951895,-50
2021-10-14 16:13:52.951915,-45
2021-10-14 16:13:52.951924,-38
2021-10-14 16:13:52.951933,-21
2021-10-14 16:13:52.951941,-19
2021-10-14 16:13:52.951949,-57
2021-10-14 16:13:52.951958,-88
2021-10-14 16:13:52.951966,-76
2021-10-14 16:13:52.951974,-62
2021-10-14 16:13:52.951983,-67
2021-10-14 16:13:52.951991,-64
2021-10-14 16:13:52.951999,-62
2021-10-14 16:13:52.952007,-62
2021-10-14 16:13:52.952016,-55
2021-10-14 16:13:52.952024,-40
2021-10-14 16:13:52.952032,-33
2021-10-14 16:13:52.952041,-19
2021-10-14 16:13:52.952049,57
2021-10-14 16:13:52.952057,319
2021-10-14 16:13:52.952066,694
2021-10-14 16:13:52.952074,646
2021-10-14 16:13:52.952083,-221
2021-10-14 16:13:52.952091,-1130
2021-10-14 16:13:52.952100,-1026
2021-10-14 16:13:52.952108,-399
2021-10-14 16:13:52.952116,-153
2021-10-14 16:13:52.952124,-98
2021-10-14 16:13:52.952133,31
2021-10-14 16:13:52.952141,57
2021-10-14 16:13:52.952149,21
2021-10-14 16:13:53.132474,52
2021-10-14 16:13:53.132493,79
2021-10-14 16:13:53.132502,69
2021-10-14 16:13:53.132511,67
2021-10-14 16:13:53.132520,67
2021-10-14 16:13:53.132528,64
2021-10-14 16:13:53.132536,81
2021-10-14 16:13:53.132545,101
2021-10-14 16:13:53.132553,103
2021-10-14 16:13:53.132561,93
2021-10-14 16:13:53.132570,91
2021-10-14 16:13:53.132578,105
2021-10-14 16:13:53.132587,117
2021-10-14 16:13:53.132595,120
2021-10-14 16:13:53.132604,134
2021-10-14 16:13:53.132612,146
2021-10-14 16:13:53.132620,149
2021-10-14 16:13:53.132629,161
2021-10-14 16:13:53.132637,168
2021-10-14 16:13:53.132645,158
2021-10-14 16:13:53.132653,144
2021-10-14 16:13:53.132662,127
2021-10-14 16:13:53.132670,96
2021-10-14 16:13:53.132678,69
2021-10-14 16:13:53.132687,48
2021-10-14 16:13:53.132695,16
2021-10-14 16:13:53.132703,-21
2021-10-14 16:13:53.132712,-57
2021-10-14 16:13:53.132720,-84
2021-10-14 16:13:53.132728,-101
2021-10-14 16:13:53.402224,-105
2021-10-14 16:13:53.402244,-110
2021-10-14 16:13:53.402254,-122
2021-10-14 16:13:53.402262,-137
2021-10-14 16:13:53.402271,-134
2021-10-14 16:13:53.402279,-120
2021-10-14 16:13:53.402287,-122
2021-10-14 16:13:53.402295,-137
2021-10-14 16:13:53.402303,-144
2021-10-14 16:13:53.402311,-146
2021-10-14 16:13:53.402320,-132
2021-10-14 16:13:53.402328,-110
2021-10-14 16:13:53.402336,-103
2021-10-14 16:13:53.402344,-108
2021-10-14 16:13:53.402353,-115
2021-10-14 16:13:53.402361,-115
2021-10-14 16:13:53.402369,-108
2021-10-14 16:13:53.402377,-103
2021-10-14 16:13:53.402385,-101
2021-10-14 16:13:53.402394,-105
2021-10-14 16:13:53.402402,-110
2021-10-14 16:13:53.402410,-98
2021-10-14 16:13:53.402418,-81
2021-10-14 16:13:53.402426,-86
2021-10-14 16:13:53.402435,-86
2021-10-14 16:13:53.402443,-86
2021-10-14 16:13:53.402451,-93
2021-10-14 16:13:53.402460,-96
2021-10-14 16:13:53.402468,-91
2021-10-14 16:13:53.402476,-88
2021-10-14 16:13:53.627187,-86
2021-10-14 16:13:53.627207,-84
2021-10-14 16:13:53.627216,-84
2021-10-14 16:13:53.627225,-81
2021-10-14 16:13:53.627233,-76
2021-10-14 16:13:53.627241,-67
2021-10-14 16:13:53.627250,-55
2021-10-14 16:13:53.627258,-48
2021-10-14 16:13:53.627266,-57
2021-10-14 16:13:53.627275,-67
2021-10-14 16:13:53.627283,-55
2021-10-14 16:13:53.627291,-43
2021-10-14 16:13:53.627299,-45
2021-10-14 16:13:53.627308,-31
2021-10-14 16:13:53.627316,-19
2021-10-14 16:13:53.627324,-31
2021-10-14 16:13:53.627333,-36
2021-10-14 16:13:53.627341,-24
2021-10-14 16:13:53.627350,-28
2021-10-14 16:13:53.627367,-52
2021-10-14 16:13:53.627376,-74
2021-10-14 16:13:53.627384,-74
2021-10-14 16:13:53.627393,-52
2021-10-14 16:13:53.627401,-36
2021-10-14 16:13:53.627409,-33
2021-10-14 16:13:53.627418,-38
2021-10-14 16:13:53.627426,-43
2021-10-14 16:13:53.627434,-55
2021-10-14 16:13:53.627443,-55
2021-10-14 16:13:53.627451,-31
2021-10-14 16:13:53.895828,19
2021-10-14 16:13:53.895848,194
2021-10-14 16:13:53.895857,572
2021-10-14 16:13:53.895866,769
2021-10-14 16:13:53.895874,170
2021-10-14 16:13:53.895882,-851
2021-10-14 16:13:53.895891,-1098
2021-10-14 16:13:53.895899,-589
2021-10-14 16:13:53.895907,-266
2021-10-14 16:13:53.895915,-158
2021-10-14 16:13:53.895924,14
2021-10-14 16:13:53.895932,84
2021-10-14 16:13:53.895940,43
2021-10-14 16:13:53.895949,52
2021-10-14 16:13:53.895957,81
2021-10-14 16:13:53.895965,84
2021-10-14 16:13:53.895973,91
2021-10-14 16:13:53.895982,101
2021-10-14 16:13:53.895990,105
2021-10-14 16:13:53.895998,105
2021-10-14 16:13:53.896006,103
2021-10-14 16:13:53.896015,108
2021-10-14 16:13:53.896023,122
2021-10-14 16:13:53.896031,139
2021-10-14 16:13:53.896039,151
2021-10-14 16:13:53.896047,151
2021-10-14 16:13:53.896056,153
2021-10-14 16:13:53.896064,175
2021-10-14 16:13:53.896072,194
2021-10-14 16:13:53.896080,209
2021-10-14 16:13:54.122519,226
2021-10-14 16:13:54.122539,230
2021-10-14 16:13:54.122548,226
2021-10-14 16:13:54.122557,226
2021-10-14 16:13:54.122565,214
2021-10-14 16:13:54.122573,187
2021-10-14 16:13:54.122582,153
2021-10-14 16:13:54.122590,122
2021-10-14 16:13:54.122598,84
2021-10-14 16:13:54.122607,40
2021-10-14 16:13:54.122615,0
2021-10-14 16:13:54.122623,-24
2021-10-14 16:13:54.122632,-45
2021-10-14 16:13:54.122640,-72
2021-10-14 16:13:54.122648,-86
2021-10-14 16:13:54.122657,-84
2021-10-14 16:13:54.122665,-84
2021-10-14 16:13:54.122673,-86
2021-10-14 16:13:54.122681,-91
2021-10-14 16:13:54.122690,-101
2021-10-14 16:13:54.122698,-110
2021-10-14 16:13:54.122706,-110
2021-10-14 16:13:54.122714,-93
2021-10-14 16:13:54.122722,-76
2021-10-14 16:13:54.122731,-79
2021-10-14 16:13:54.122739,-79
2021-10-14 16:13:54.122747,-67
2021-10-14 16:13:54.122755,-64
2021-10-14 16:13:54.122764,-50
2021-10-14 16:13:54.122772,-26
2021-10-14 16:13:54.302430,-28
2021-10-14 16:13:54.302449,-31
2021-10-14 16:13:54.302458,-26
2021-10-14 16:13:54.302467,-36
2021-10-14 16:13:54.302475,-40
2021-10-14 16:13:54.302483,-33
2021-10-14 16:13:54.302492,-45
2021-10-14 16:13:54.302500,-52
2021-10-14 16:13:54.302508,-43
2021-10-14 16:13:54.302516,-40
2021-10-14 16:13:54.302525,-43
2021-10-14 16:13:54.302533,-43
2021-10-14 16:13:54.302541,-55
2021-10-14 16:13:54.302550,-57
2021-10-14 16:13:54.302558,-60
2021-10-14 16:13:54.302566,-67
2021-10-14 16:13:54.302575,-64
2021-10-14 16:13:54.302583,-69
2021-10-14 16:13:54.302591,-76
2021-10-14 16:13:54.302599,-69
2021-10-14 16:13:54.302608,-67
2021-10-14 16:13:54.302616,-74
2021-10-14 16:13:54.302624,-69
2021-10-14 16:13:54.302632,-60
2021-10-14 16:13:54.302641,-55
2021-10-14 16:13:54.302649,-48
2021-10-14 16:13:54.302657,-31
2021-10-14 16:13:54.302665,-21
2021-10-14 16:13:54.302673,-43
2021-10-14 16:13:54.302682,-72
2021-10-14 16:13:54.527180,-74
2021-10-14 16:13:54.527201,-60
2021-10-14 16:13:54.527210,-52
2021-10-14 16:13:54.527219,-55
2021-10-14 16:13:54.527227,-57
2021-10-14 16:13:54.527236,-64
2021-10-14 16:13:54.527244,-60
2021-10-14 16:13:54.527252,-36
2021-10-14 16:13:54.527260,-28
2021-10-14 16:13:54.527268,-24
2021-10-14 16:13:54.527276,28
2021-10-14 16:13:54.527285,214
2021-10-14 16:13:54.527293,586
2021-10-14 16:13:54.527301,786
2021-10-14 16:13:54.527310,161
2021-10-14 16:13:54.527318,-901
2021-10-14 16:13:54.527326,-1130
2021-10-14 16:13:54.527334,-577
2021-10-14 16:13:54.527342,-247
2021-10-14 16:13:54.527351,-146
2021-10-14 16:13:54.527359,36
2021-10-14 16:13:54.527367,113
2021-10-14 16:13:54.527375,74
2021-10-14 16:13:54.527384,98
2021-10-14 16:13:54.527392,129
2021-10-14 16:13:54.527400,108
2021-10-14 16:13:54.527408,105
2021-10-14 16:13:54.527416,125
2021-10-14 16:13:54.527425,127
2021-10-14 16:13:54.527433,129
2021-10-14 16:13:54.752513,149
2021-10-14 16:13:54.752533,165
2021-10-14 16:13:54.752543,168
2021-10-14 16:13:54.752551,173
2021-10-14 16:13:54.752559,180
2021-10-14 16:13:54.752568,189
2021-10-14 16:13:54.752576,211
2021-10-14 16:13:54.752584,230
2021-10-14 16:13:54.752593,228
2021-10-14 16:13:54.752601,228
2021-10-14 16:13:54.752609,240
2021-10-14 16:13:54.752618,242
2021-10-14 16:13:54.752626,238
2021-10-14 16:13:54.752634,238
2021-10-14 16:13:54.752642,223
2021-10-14 16:13:54.752651,192
2021-10-14 16:13:54.752659,163
2021-10-14 16:13:54.752667,129
2021-10-14 16:13:54.752675,86
2021-10-14 16:13:54.752684,50
2021-10-14 16:13:54.752692,28
2021-10-14 16:13:54.752700,4
2021-10-14 16:13:54.752708,-4
2021-10-14 16:13:54.752717,-7
2021-10-14 16:13:54.752725,-16
2021-10-14 16:13:54.752733,-21
2021-10-14 16:13:54.752741,-21
2021-10-14 16:13:54.752750,-31
2021-10-14 16:13:54.752758,-38
2021-10-14 16:13:54.752766,-36
2021-10-14 16:13:54.977496,-26
2021-10-14 16:13:54.977515,-14
2021-10-14 16:13:54.977525,-4
2021-10-14 16:13:54.977533,9
2021-10-14 16:13:54.977542,14
2021-10-14 16:13:54.977550,14
2021-10-14 16:13:54.977558,33
2021-10-14 16:13:54.977566,52
2021-10-14 16:13:54.977575,55
2021-10-14 16:13:54.977583,60
2021-10-14 16:13:54.977591,67
2021-10-14 16:13:54.977600,76
2021-10-14 16:13:54.977608,86
2021-10-14 16:13:54.977616,93
2021-10-14 16:13:54.977624,96
2021-10-14 16:13:54.977633,105
2021-10-14 16:13:54.977641,103
2021-10-14 16:13:54.977649,88
2021-10-14 16:13:54.977657,88
2021-10-14 16:13:54.977665,101
2021-10-14 16:13:54.977674,101
2021-10-14 16:13:54.977682,86
2021-10-14 16:13:54.977690,93
2021-10-14 16:13:54.977698,127
2021-10-14 16:13:54.977706,146
2021-10-14 16:13:54.977715,132
2021-10-14 16:13:54.977723,129
2021-10-14 16:13:54.977731,137
2021-10-14 16:13:54.977739,134
2021-10-14 16:13:54.977748,134
2021-10-14 16:13:55.247118,144
2021-10-14 16:13:55.247136,146
2021-10-14 16:13:55.247145,141
2021-10-14 16:13:55.247154,134
2021-10-14 16:13:55.247162,127
2021-10-14 16:13:55.247171,120
2021-10-14 16:13:55.247179,125
2021-10-14 16:13:55.247188,144
2021-10-14 16:13:55.247196,156
2021-10-14 16:13:55.247205,158
2021-10-14 16:13:55.247213,161
2021-10-14 16:13:55.247221,168
2021-10-14 16:13:55.247230,156
2021-10-14 16:13:55.247238,141
2021-10-14 16:13:55.247246,132
2021-10-14 16:13:55.247255,125
2021-10-14 16:13:55.247263,132
2021-10-14 16:13:55.247271,146
2021-10-14 16:13:55.247280,153
2021-10-14 16:13:55.247288,161
2021-10-14 16:13:55.247296,168
2021-10-14 16:13:55.247304,173
2021-10-14 16:13:55.247313,185
2021-10-14 16:13:55.247321,214
2021-10-14 16:13:55.247329,322
2021-10-14 16:13:55.247337,646
2021-10-14 16:13:55.247345,1053
2021-10-14 16:13:55.247354,913
2021-10-14 16:13:55.247362,-84
2021-10-14 16:13:55.247370,-959
2021-10-14 16:13:55.472222,-707
2021-10-14 16:13:55.472242,-67
2021-10-14 16:13:55.472252,93
2021-10-14 16:13:55.472260,144
2021-10-14 16:13:55.472269,305
2021-10-14 16:13:55.472277,327
2021-10-14 16:13:55.472285,281
2021-10-14 16:13:55.472294,310
2021-10-14 16:13:55.472302,331
2021-10-14 16:13:55.472310,322
2021-10-14 16:13:55.472319,329
2021-10-14 16:13:55.472327,343
2021-10-14 16:13:55.472335,353
2021-10-14 16:13:55.472343,365
2021-10-14 16:13:55.472352,355
2021-10-14 16:13:55.472360,334
2021-10-14 16:13:55.472368,336
2021-10-14 16:13:55.472376,346
2021-10-14 16:13:55.472385,367
2021-10-14 16:13:55.472393,404
2021-10-14 16:13:55.472401,423
2021-10-14 16:13:55.472409,401
2021-10-14 16:13:55.472418,384
2021-10-14 16:13:55.472426,411
2021-10-14 16:13:55.472434,435
2021-10-14 16:13:55.472443,423
2021-10-14 16:13:55.472451,418
2021-10-14 16:13:55.472459,423
2021-10-14 16:13:55.472467,396
2021-10-14 16:13:55.472476,363
2021-10-14 16:13:55.697558,336
2021-10-14 16:13:55.697577,300
2021-10-14 16:13:55.697586,259
2021-10-14 16:13:55.697595,223
2021-10-14 16:13:55.697603,182
2021-10-14 16:13:55.697612,146
2021-10-14 16:13:55.697620,137
2021-10-14 16:13:55.697628,129
2021-10-14 16:13:55.697637,103
2021-10-14 16:13:55.697645,76
2021-10-14 16:13:55.697653,79
2021-10-14 16:13:55.697662,88
2021-10-14 16:13:55.697670,81
2021-10-14 16:13:55.697678,72
2021-10-14 16:13:55.697687,69
2021-10-14 16:13:55.697695,72
2021-10-14 16:13:55.697703,86
2021-10-14 16:13:55.697712,93
2021-10-14 16:13:55.697720,81
2021-10-14 16:13:55.697728,72
2021-10-14 16:13:55.697737,81
2021-10-14 16:13:55.697745,98
2021-10-14 16:13:55.697754,103
2021-10-14 16:13:55.697762,105
2021-10-14 16:13:55.697770,105
2021-10-14 16:13:55.697779,108
2021-10-14 16:13:55.697787,110
2021-10-14 16:13:55.697795,103
2021-10-14 16:13:55.697803,96
2021-10-14 16:13:55.697812,105
2021-10-14 16:13:56.056497,115
2021-10-14 16:13:56.056519,108
2021-10-14 16:13:56.056529,103
2021-10-14 16:13:56.056539,105
2021-10-14 16:13:56.056548,96
2021-10-14 16:13:56.056557,86
2021-10-14 16:13:56.056565,84
2021-10-14 16:13:56.056574,76
2021-10-14 16:13:56.056583,62
2021-10-14 16:13:56.056592,67
2021-10-14 16:13:56.056601,76
2021-10-14 16:13:56.056609,67
2021-10-14 16:13:56.056618,52
2021-10-14 16:13:56.056627,55
2021-10-14 16:13:56.056636,60
2021-10-14 16:13:56.056644,64
2021-10-14 16:13:56.056653,69
2021-10-14 16:13:56.056661,69
2021-10-14 16:13:56.056669,55
2021-10-14 16:13:56.056678,40
2021-10-14 16:13:56.056687,40
2021-10-14 16:13:56.056696,48
2021-10-14 16:13:56.056704,57
2021-10-14 16:13:56.056713,62
2021-10-14 16:13:56.056722,64
2021-10-14 16:13:56.056731,62
2021-10-14 16:13:56.056739,31
2021-10-14 16:13:56.056748,19
2021-10-14 16:13:56.056757,21
2021-10-14 16:13:56.056765,12
2021-10-14 16:13:56.191933,12
2021-10-14 16:13:56.191952,14
2021-10-14 16:13:56.191962,12
2021-10-14 16:13:56.191970,19
2021-10-14 16:13:56.191978,24
2021-10-14 16:13:56.191987,21
2021-10-14 16:13:56.191995,24
2021-10-14 16:13:56.192003,40
2021-10-14 16:13:56.192012,137
2021-10-14 16:13:56.192020,461
2021-10-14 16:13:56.192028,863
2021-10-14 16:13:56.192037,711
2021-10-14 16:13:56.192045,-276
2021-10-14 16:13:56.192053,-1139
2021-10-14 16:13:56.192061,-889
2021-10-14 16:13:56.192070,-240
2021-10-14 16:13:56.192078,-72
2021-10-14 16:13:56.192086,-52
2021-10-14 16:13:56.192095,62
2021-10-14 16:13:56.192103,84
2021-10-14 16:13:56.192111,62
2021-10-14 16:13:56.192119,93
2021-10-14 16:13:56.192128,113
2021-10-14 16:13:56.192136,120
2021-10-14 16:13:56.192144,134
2021-10-14 16:13:56.192152,125
2021-10-14 16:13:56.192161,96
2021-10-14 16:13:56.192169,91
2021-10-14 16:13:56.192177,105
2021-10-14 16:13:56.192185,113
2021-10-14 16:13:56.417655,115
2021-10-14 16:13:56.417676,132
2021-10-14 16:13:56.417685,151
2021-10-14 16:13:56.417694,165
2021-10-14 16:13:56.417702,177
2021-10-14 16:13:56.417710,185
2021-10-14 16:13:56.417719,194
2021-10-14 16:13:56.417727,209
2021-10-14 16:13:56.417735,209
2021-10-14 16:13:56.417744,197
2021-10-14 16:13:56.417752,189
2021-10-14 16:13:56.417760,177
2021-10-14 16:13:56.417769,153
2021-10-14 16:13:56.417777,132
2021-10-14 16:13:56.417785,115
2021-10-14 16:13:56.417794,91
2021-10-14 16:13:56.417802,48
2021-10-14 16:13:56.417811,0
2021-10-14 16:13:56.417819,-31
2021-10-14 16:13:56.417828,-55
2021-10-14 16:13:56.417836,-79
2021-10-14 16:13:56.417844,-101
2021-10-14 16:13:56.417853,-115
2021-10-14 16:13:56.417861,-127
2021-10-14 16:13:56.417869,-117
2021-10-14 16:13:56.417878,-98
2021-10-14 16:13:56.417886,-105
2021-10-14 16:13:56.417894,-113
2021-10-14 16:13:56.417903,-105
2021-10-14 16:13:56.417911,-108
2021-10-14 16:13:56.597572,-98
2021-10-14 16:13:56.597592,-93
2021-10-14 16:13:56.597601,-108
2021-10-14 16:13:56.597610,-103
2021-10-14 16:13:56.597618,-81
2021-10-14 16:13:56.597633,-84
2021-10-14 16:13:56.597642,-88
2021-10-14 16:13:56.597650,-62
2021-10-14 16:13:56.597659,-43
2021-10-14 16:13:56.597667,-48
2021-10-14 16:13:56.597675,-43
2021-10-14 16:13:56.597684,-45
2021-10-14 16:13:56.597692,-60
2021-10-14 16:13:56.597700,-55
2021-10-14 16:13:56.597708,-40
2021-10-14 16:13:56.597717,-38
2021-10-14 16:13:56.597725,-52
2021-10-14 16:13:56.597733,-62
2021-10-14 16:13:56.597741,-52
2021-10-14 16:13:56.597750,-50
2021-10-14 16:13:56.597758,-50
2021-10-14 16:13:56.597766,-31
2021-10-14 16:13:56.597774,-31
2021-10-14 16:13:56.597783,-38
2021-10-14 16:13:56.597791,-28
2021-10-14 16:13:56.597799,-21
2021-10-14 16:13:56.597807,-21
2021-10-14 16:13:56.597816,-24
2021-10-14 16:13:56.597824,-31
2021-10-14 16:13:56.597832,-16
2021-10-14 16:13:56.822564,0
2021-10-14 16:13:56.822584,-12
2021-10-14 16:13:56.822593,-16
2021-10-14 16:13:56.822601,-12
2021-10-14 16:13:56.822610,-24
2021-10-14 16:13:56.822618,-24
2021-10-14 16:13:56.822626,4
2021-10-14 16:13:56.822635,26
2021-10-14 16:13:56.822643,26
2021-10-14 16:13:56.822651,38
2021-10-14 16:13:56.822660,55
2021-10-14 16:13:56.822668,26
2021-10-14 16:13:56.822676,-9
2021-10-14 16:13:56.822684,0
2021-10-14 16:13:56.822692,4
2021-10-14 16:13:56.822701,-9
2021-10-14 16:13:56.822709,2
2021-10-14 16:13:56.822717,28
2021-10-14 16:13:56.822726,36
2021-10-14 16:13:56.822734,38
2021-10-14 16:13:56.822742,48
2021-10-14 16:13:56.822750,60
2021-10-14 16:13:56.822759,69
2021-10-14 16:13:56.822767,110
2021-10-14 16:13:56.822775,245
2021-10-14 16:13:56.822784,567
2021-10-14 16:13:56.822792,916
2021-10-14 16:13:56.822800,663
2021-10-14 16:13:56.822809,-351
2021-10-14 16:13:56.822817,-1024
2021-10-14 16:13:57.092166,-644
2021-10-14 16:13:57.092186,-125
2021-10-14 16:13:57.092195,-14
2021-10-14 16:13:57.092204,98
2021-10-14 16:13:57.092213,250
2021-10-14 16:13:57.092221,259
2021-10-14 16:13:57.092229,240
2021-10-14 16:13:57.092238,262
2021-10-14 16:13:57.092246,269
2021-10-14 16:13:57.092254,262
2021-10-14 16:13:57.092263,269
2021-10-14 16:13:57.092271,290
2021-10-14 16:13:57.092279,319
2021-10-14 16:13:57.092288,334
2021-10-14 16:13:57.092296,331
2021-10-14 16:13:57.092304,319
2021-10-14 16:13:57.092313,315
2021-10-14 16:13:57.092321,331
2021-10-14 16:13:57.092329,355
2021-10-14 16:13:57.092338,375
2021-10-14 16:13:57.092346,387
2021-10-14 16:13:57.092354,384
2021-10-14 16:13:57.092362,408
2021-10-14 16:13:57.092371,454
2021-10-14 16:13:57.092379,464
2021-10-14 16:13:57.092387,449
2021-10-14 16:13:57.092395,437
2021-10-14 16:13:57.092404,406
2021-10-14 16:13:57.092412,382
2021-10-14 16:13:57.092420,387
2021-10-14 16:13:57.317607,358
2021-10-14 16:13:57.317626,303
2021-10-14 16:13:57.317636,264
2021-10-14 16:13:57.317644,221
2021-10-14 16:13:57.317653,175
2021-10-14 16:13:57.317661,161
2021-10-14 16:13:57.317669,144
2021-10-14 16:13:57.317678,110
2021-10-14 16:13:57.317686,101
2021-10-14 16:13:57.317694,96
2021-10-14 16:13:57.317703,79
2021-10-14 16:13:57.317711,72
2021-10-14 16:13:57.317719,74
2021-10-14 16:13:57.317728,69
2021-10-14 16:13:57.317736,79
2021-10-14 16:13:57.317744,96
2021-10-14 16:13:57.317752,88
2021-10-14 16:13:57.317760,79
2021-10-14 16:13:57.317769,86
2021-10-14 16:13:57.317777,93
2021-10-14 16:13:57.317785,98
2021-10-14 16:13:57.317793,91
2021-10-14 16:13:57.317802,88
2021-10-14 16:13:57.317810,113
2021-10-14 16:13:57.317818,132
2021-10-14 16:13:57.317827,122
2021-10-14 16:13:57.317835,120
2021-10-14 16:13:57.317843,122
2021-10-14 16:13:57.317851,125
2021-10-14 16:13:57.317860,122
2021-10-14 16:13:57.587023,98
2021-10-14 16:13:57.587045,91
2021-10-14 16:13:57.587054,120
2021-10-14 16:13:57.587063,129
2021-10-14 16:13:57.587072,113
2021-10-14 16:13:57.587080,103
2021-10-14 16:13:57.587089,101
2021-10-14 16:13:57.587097,96
2021-10-14 16:13:57.587106,84
2021-10-14 16:13:57.587114,81
2021-10-14 16:13:57.587122,101
2021-10-14 16:13:57.587131,110
2021-10-14 16:13:57.587139,93
2021-10-14 16:13:57.587147,72
2021-10-14 16:13:57.587156,69
2021-10-14 16:13:57.587164,81
2021-10-14 16:13:57.587172,79
2021-10-14 16:13:57.587181,72
2021-10-14 16:13:57.587189,76
2021-10-14 16:13:57.587197,86
2021-10-14 16:13:57.587206,79
2021-10-14 16:13:57.587214,57
2021-10-14 16:13:57.587223,48
2021-10-14 16:13:57.587231,40
2021-10-14 16:13:57.587239,24
2021-10-14 16:13:57.587248,31
2021-10-14 16:13:57.587256,55
2021-10-14 16:13:57.587264,55
2021-10-14 16:13:57.587273,52
2021-10-14 16:13:57.587281,67
2021-10-14 16:13:57.767147,64
2021-10-14 16:13:57.767166,69
2021-10-14 16:13:57.767175,84
2021-10-14 16:13:57.767184,57
2021-10-14 16:13:57.767192,16
2021-10-14 16:13:57.767201,24
2021-10-14 16:13:57.767209,38
2021-10-14 16:13:57.767218,19
2021-10-14 16:13:57.767226,12
2021-10-14 16:13:57.767234,21
2021-10-14 16:13:57.767243,26
2021-10-14 16:13:57.767251,21
2021-10-14 16:13:57.767259,9
2021-10-14 16:13:57.767267,-2
2021-10-14 16:13:57.767276,4
2021-10-14 16:13:57.767284,43
2021-10-14 16:13:57.767292,158
2021-10-14 16:13:57.767301,473
2021-10-14 16:13:57.767309,834
2021-10-14 16:13:57.767317,613
2021-10-14 16:13:57.767326,-406
2021-10-14 16:13:57.767334,-1156
2021-10-14 16:13:57.767342,-822
2021-10-14 16:13:57.767351,-281
2021-10-14 16:13:57.767359,-161
2021-10-14 16:13:57.767367,-50
2021-10-14 16:13:57.767376,101
2021-10-14 16:13:57.767384,108
2021-10-14 16:13:57.767392,96
2021-10-14 16:13:57.767401,132
2021-10-14 16:13:58.081881,134
2021-10-14 16:13:58.081900,125
2021-10-14 16:13:58.081909,132
2021-10-14 16:13:58.081918,132
2021-10-14 16:13:58.081926,132
2021-10-14 16:13:58.081935,146
2021-10-14 16:13:58.081943,144
2021-10-14 16:13:58.081951,132
2021-10-14 16:13:58.081960,149
2021-10-14 16:13:58.081968,175
2021-10-14 16:13:58.081976,182
2021-10-14 16:13:58.081985,197
2021-10-14 16:13:58.081993,202
2021-10-14 16:13:58.082001,194
2021-10-14 16:13:58.082009,214
2021-10-14 16:13:58.082018,238
2021-10-14 16:13:58.082026,235
2021-10-14 16:13:58.082034,226
2021-10-14 16:13:58.082042,230
2021-10-14 16:13:58.082050,226
2021-10-14 16:13:58.082059,194
2021-10-14 16:13:58.082067,165
2021-10-14 16:13:58.082076,144
2021-10-14 16:13:58.082084,105
2021-10-14 16:13:58.082092,55
2021-10-14 16:13:58.082100,12
2021-10-14 16:13:58.082109,-7
2021-10-14 16:13:58.082117,-21
2021-10-14 16:13:58.082125,-38
2021-10-14 16:13:58.082133,-57
2021-10-14 16:13:58.217525,-72
2021-10-14 16:13:58.217543,-72
2021-10-14 16:13:58.217552,-79
2021-10-14 16:13:58.217561,-93
2021-10-14 16:13:58.217570,-79
2021-10-14 16:13:58.217578,-67
2021-10-14 16:13:58.217586,-88
2021-10-14 16:13:58.217594,-86
2021-10-14 16:13:58.217602,-76
2021-10-14 16:13:58.217611,-84
2021-10-14 16:13:58.217619,-74
2021-10-14 16:13:58.217627,-60
2021-10-14 16:13:58.217636,-57
2021-10-14 16:13:58.217644,-57
2021-10-14 16:13:58.217652,-55
2021-10-14 16:13:58.217660,-43
2021-10-14 16:13:58.217668,-40
2021-10-14 16:13:58.217677,-52
2021-10-14 16:13:58.217685,-48
2021-10-14 16:13:58.217693,-28
2021-10-14 16:13:58.217701,-36
2021-10-14 16:13:58.217710,-52
2021-10-14 16:13:58.217718,-55
2021-10-14 16:13:58.217726,-60
2021-10-14 16:13:58.217734,-60
2021-10-14 16:13:58.217742,-43
2021-10-14 16:13:58.217751,-62
2021-10-14 16:13:58.217759,-84
2021-10-14 16:13:58.217767,-72
2021-10-14 16:13:58.217776,-79
2021-10-14 16:13:58.487275,-91
2021-10-14 16:13:58.487295,-81
2021-10-14 16:13:58.487304,-79
2021-10-14 16:13:58.487313,-91
2021-10-14 16:13:58.487321,-91
2021-10-14 16:13:58.487330,-96
2021-10-14 16:13:58.487338,-108
2021-10-14 16:13:58.487346,-108
2021-10-14 16:13:58.487355,-98
2021-10-14 16:13:58.487363,-91
2021-10-14 16:13:58.487371,-105
2021-10-14 16:13:58.487380,-122
2021-10-14 16:13:58.487388,-120
2021-10-14 16:13:58.487396,-115
2021-10-14 16:13:58.487405,-115
2021-10-14 16:13:58.487413,-105
2021-10-14 16:13:58.487421,-91
2021-10-14 16:13:58.487430,-96
2021-10-14 16:13:58.487438,-108
2021-10-14 16:13:58.487446,-108
2021-10-14 16:13:58.487454,-96
2021-10-14 16:13:58.487463,-96
2021-10-14 16:13:58.487471,-101
2021-10-14 16:13:58.487479,-96
2021-10-14 16:13:58.487488,-101
2021-10-14 16:13:58.487496,-108
2021-10-14 16:13:58.487504,-101
2021-10-14 16:13:58.487513,-93
2021-10-14 16:13:58.487521,-84
2021-10-14 16:13:58.487529,-67
2021-10-14 16:13:58.667542,-62
2021-10-14 16:13:58.667561,-81
2021-10-14 16:13:58.667570,-98
2021-10-14 16:13:58.667579,-115
2021-10-14 16:13:58.667587,-125
2021-10-14 16:13:58.667595,-120
2021-10-14 16:13:58.667604,-122
2021-10-14 16:13:58.667612,-129
2021-10-14 16:13:58.667620,-115
2021-10-14 16:13:58.667629,-101
2021-10-14 16:13:58.667637,-101
2021-10-14 16:13:58.667645,-96
2021-10-14 16:13:58.667653,-79
2021-10-14 16:13:58.667662,4
2021-10-14 16:13:58.667670,286
2021-10-14 16:13:58.667678,699
2021-10-14 16:13:58.667686,668
2021-10-14 16:13:58.667695,-228
2021-10-14 16:13:58.667703,-1187
2021-10-14 16:13:58.667711,-1070
2021-10-14 16:13:58.667719,-404
2021-10-14 16:13:58.667728,-206
2021-10-14 16:13:58.667736,-199
2021-10-14 16:13:58.667744,-40
2021-10-14 16:13:58.667752,7
2021-10-14 16:13:58.667761,-48
2021-10-14 16:13:58.667769,-26
2021-10-14 16:13:58.667777,4
2021-10-14 16:13:58.667786,-12
2021-10-14 16:13:58.667794,-12
2021-10-14 16:13:58.937587,-9
2021-10-14 16:13:58.937606,-14
2021-10-14 16:13:58.937615,-12
2021-10-14 16:13:58.937624,-16
2021-10-14 16:13:58.937632,-24
2021-10-14 16:13:58.937640,-4
2021-10-14 16:13:58.937649,28
2021-10-14 16:13:58.937657,43
2021-10-14 16:13:58.937665,36
2021-10-14 16:13:58.937674,43
2021-10-14 16:13:58.937682,62
2021-10-14 16:13:58.937690,64
2021-10-14 16:13:58.937699,57
2021-10-14 16:13:58.937707,72
2021-10-14 16:13:58.937715,86
2021-10-14 16:13:58.937723,79
2021-10-14 16:13:58.937732,74
2021-10-14 16:13:58.937740,67
2021-10-14 16:13:58.937748,52
2021-10-14 16:13:58.937756,31
2021-10-14 16:13:58.937765,-4
2021-10-14 16:13:58.937773,-45
2021-10-14 16:13:58.937781,-74
2021-10-14 16:13:58.937789,-98
2021-10-14 16:13:58.937797,-127
2021-10-14 16:13:58.937806,-146
2021-10-14 16:13:58.937814,-161
2021-10-14 16:13:58.937822,-165
2021-10-14 16:13:58.937830,-170
2021-10-14 16:13:58.937838,-180
2021-10-14 16:13:59.162594,-173
2021-10-14 16:13:59.162613,-163
2021-10-14 16:13:59.162622,-182
2021-10-14 16:13:59.162631,-194
2021-10-14 16:13:59.162639,-185
2021-10-14 16:13:59.162648,-182
2021-10-14 16:13:59.162656,-182
2021-10-14 16:13:59.162664,-163
2021-10-14 16:13:59.162672,-156
2021-10-14 16:13:59.162681,-168
2021-10-14 16:13:59.162689,-161
2021-10-14 16:13:59.162697,-139
2021-10-14 16:13:59.162706,-146
2021-10-14 16:13:59.162714,-146
2021-10-14 16:13:59.162722,-129
2021-10-14 16:13:59.162730,-134
2021-10-14 16:13:59.162739,-144
2021-10-14 16:13:59.162747,-141
2021-10-14 16:13:59.162755,-146
2021-10-14 16:13:59.162763,-151
2021-10-14 16:13:59.162772,-158
2021-10-14 16:13:59.162780,-158
2021-10-14 16:13:59.162788,-149
2021-10-14 16:13:59.162796,-158
2021-10-14 16:13:59.162804,-158
2021-10-14 16:13:59.162812,-134
2021-10-14 16:13:59.162821,-137
2021-10-14 16:13:59.162829,-161
2021-10-14 16:13:59.162837,-165
2021-10-14 16:13:59.162845,-170
2021-10-14 16:13:59.387624,-180
2021-10-14 16:13:59.387643,-168
2021-10-14 16:13:59.387653,-151
2021-10-14 16:13:59.387661,-168
2021-10-14 16:13:59.387670,-175
2021-10-14 16:13:59.387678,-146
2021-10-14 16:13:59.387687,-132
2021-10-14 16:13:59.387695,-158
2021-10-14 16:13:59.387703,-173
2021-10-14 16:13:59.387712,-165
2021-10-14 16:13:59.387720,-156
2021-10-14 16:13:59.387728,-144
2021-10-14 16:13:59.387736,-134
2021-10-14 16:13:59.387745,-151
2021-10-14 16:13:59.387753,-163
2021-10-14 16:13:59.387761,-144
2021-10-14 16:13:59.387770,-127
2021-10-14 16:13:59.387778,-137
2021-10-14 16:13:59.387786,-139
2021-10-14 16:13:59.387794,-125
2021-10-14 16:13:59.387803,-127
2021-10-14 16:13:59.387811,-129
2021-10-14 16:13:59.387819,-120
2021-10-14 16:13:59.387827,-115
2021-10-14 16:13:59.387835,-113
2021-10-14 16:13:59.387844,-117
2021-10-14 16:13:59.387852,-120
2021-10-14 16:13:59.387860,-115
2021-10-14 16:13:59.387868,-110
2021-10-14 16:13:59.387876,-105
2021-10-14 16:13:59.612286,-86
2021-10-14 16:13:59.612307,-74
2021-10-14 16:13:59.612316,-81
2021-10-14 16:13:59.612325,-79
2021-10-14 16:13:59.612333,-67
2021-10-14 16:13:59.612341,-74
2021-10-14 16:13:59.612349,-96
2021-10-14 16:13:59.612358,-105
2021-10-14 16:13:59.612366,-110
2021-10-14 16:13:59.612374,-113
2021-10-14 16:13:59.612383,-108
2021-10-14 16:13:59.612391,-103
2021-10-14 16:13:59.612400,-105
2021-10-14 16:13:59.612408,-108
2021-10-14 16:13:59.612416,-101
2021-10-14 16:13:59.612425,-86
2021-10-14 16:13:59.612433,-72
2021-10-14 16:13:59.612441,-28
2021-10-14 16:13:59.612450,163
2021-10-14 16:13:59.612458,577
2021-10-14 16:13:59.612466,767
2021-10-14 16:13:59.612475,151
2021-10-14 16:13:59.612483,-894
2021-10-14 16:13:59.612492,-1163
2021-10-14 16:13:59.612500,-560
2021-10-14 16:13:59.612508,-168
2021-10-14 16:13:59.612516,-161
2021-10-14 16:13:59.612525,-57
2021-10-14 16:13:59.612533,43
2021-10-14 16:13:59.612541,16
2021-10-14 16:13:59.837615,14
2021-10-14 16:13:59.837635,45
2021-10-14 16:13:59.837644,38
2021-10-14 16:13:59.837652,19
2021-10-14 16:13:59.837661,24
2021-10-14 16:13:59.837669,31
2021-10-14 16:13:59.837677,16
2021-10-14 16:13:59.837686,7
2021-10-14 16:13:59.837738,24
2021-10-14 16:13:59.837748,45
2021-10-14 16:13:59.837757,48
2021-10-14 16:13:59.837765,52
2021-10-14 16:13:59.837773,57
2021-10-14 16:13:59.837782,60
2021-10-14 16:13:59.837790,76
2021-10-14 16:13:59.837798,84
2021-10-14 16:13:59.837807,88
2021-10-14 16:13:59.837815,105
2021-10-14 16:13:59.837823,115
2021-10-14 16:13:59.837831,122
2021-10-14 16:13:59.837840,125
2021-10-14 16:13:59.837848,115
2021-10-14 16:13:59.837856,98
2021-10-14 16:13:59.837864,74
2021-10-14 16:13:59.837873,48
2021-10-14 16:13:59.837881,16
2021-10-14 16:13:59.837889,-26
2021-10-14 16:13:59.837897,-62
2021-10-14 16:13:59.837905,-84
2021-10-14 16:13:59.837914,-93
2021-10-14 16:14:00.106315,-105
2021-10-14 16:14:00.106336,-120
2021-10-14 16:14:00.106345,-127
2021-10-14 16:14:00.106354,-141
2021-10-14 16:14:00.106362,-151
2021-10-14 16:14:00.106370,-158
2021-10-14 16:14:00.106379,-175
2021-10-14 16:14:00.106387,-173
2021-10-14 16:14:00.106395,-158
2021-10-14 16:14:00.106404,-168
2021-10-14 16:14:00.106412,-156
2021-10-14 16:14:00.106420,-122
2021-10-14 16:14:00.106428,-129
2021-10-14 16:14:00.106437,-146
2021-10-14 16:14:00.106445,-146
2021-10-14 16:14:00.106453,-151
2021-10-14 16:14:00.106461,-137
2021-10-14 16:14:00.106470,-108
2021-10-14 16:14:00.106478,-103
2021-10-14 16:14:00.106486,-105
2021-10-14 16:14:00.106495,-96
2021-10-14 16:14:00.106503,-86
2021-10-14 16:14:00.106511,-86
2021-10-14 16:14:00.106519,-96
2021-10-14 16:14:00.106528,-98
2021-10-14 16:14:00.106536,-79
2021-10-14 16:14:00.106544,-62
2021-10-14 16:14:00.106553,-55
2021-10-14 16:14:00.106561,-67
2021-10-14 16:14:00.106569,-86
2021-10-14 16:14:00.287189,-79
2021-10-14 16:14:00.287209,-48
2021-10-14 16:14:00.287218,-48
2021-10-14 16:14:00.287227,-62
2021-10-14 16:14:00.287236,-55
2021-10-14 16:14:00.287244,-48
2021-10-14 16:14:00.287252,-67
2021-10-14 16:14:00.287261,-81
2021-10-14 16:14:00.287269,-69
2021-10-14 16:14:00.287277,-67
2021-10-14 16:14:00.287286,-69
2021-10-14 16:14:00.287294,-67
2021-10-14 16:14:00.287303,-76
2021-10-14 16:14:00.287311,-88
2021-10-14 16:14:00.287319,-79
2021-10-14 16:14:00.287328,-69
2021-10-14 16:14:00.287336,-76
2021-10-14 16:14:00.287344,-88
2021-10-14 16:14:00.287353,-72
2021-10-14 16:14:00.287361,-52
2021-10-14 16:14:00.287369,-43
2021-10-14 16:14:00.287378,-31
2021-10-14 16:14:00.287386,-40
2021-10-14 16:14:00.287394,-67
2021-10-14 16:14:00.287402,-50
2021-10-14 16:14:00.287411,-28
2021-10-14 16:14:00.287419,-40
2021-10-14 16:14:00.287427,-45
2021-10-14 16:14:00.287436,-31
2021-10-14 16:14:00.287444,-26
2021-10-14 16:14:00.512294,-31
2021-10-14 16:14:00.512316,-33
2021-10-14 16:14:00.512325,-19
2021-10-14 16:14:00.512334,0
2021-10-14 16:14:00.512343,-4
2021-10-14 16:14:00.512351,-21
2021-10-14 16:14:00.512359,-16
2021-10-14 16:14:00.512367,12
2021-10-14 16:14:00.512376,16
2021-10-14 16:14:00.512384,-24
2021-10-14 16:14:00.512392,-57
2021-10-14 16:14:00.512401,-31
2021-10-14 16:14:00.512409,-7
2021-10-14 16:14:00.512417,-48
2021-10-14 16:14:00.512426,-69
2021-10-14 16:14:00.512434,-26
2021-10-14 16:14:00.512442,-9
2021-10-14 16:14:00.512451,-33
2021-10-14 16:14:00.512459,-43
2021-10-14 16:14:00.512467,-33
2021-10-14 16:14:00.512476,-7
2021-10-14 16:14:00.512484,45
2021-10-14 16:14:00.512492,226
2021-10-14 16:14:00.512501,622
2021-10-14 16:14:00.512509,803
2021-10-14 16:14:00.512517,156
2021-10-14 16:14:00.512525,-853
2021-10-14 16:14:00.512534,-1062
2021-10-14 16:14:00.512542,-548
2021-10-14 16:14:00.512550,-218
2021-10-14 16:14:00.826607,-117
2021-10-14 16:14:00.826627,40
2021-10-14 16:14:00.826636,115
2021-10-14 16:14:00.826645,74
2021-10-14 16:14:00.826654,79
2021-10-14 16:14:00.826662,115
2021-10-14 16:14:00.826671,105
2021-10-14 16:14:00.826679,86
2021-10-14 16:14:00.826687,105
2021-10-14 16:14:00.826696,117
2021-10-14 16:14:00.826704,98
2021-10-14 16:14:00.826713,98
2021-10-14 16:14:00.826721,115
2021-10-14 16:14:00.826730,129
2021-10-14 16:14:00.826738,127
2021-10-14 16:14:00.826746,101
2021-10-14 16:14:00.826755,103
