Time,ECG
2021-10-14 16:28:36.050484,120
2021-10-14 16:28:36.050504,120
2021-10-14 16:28:36.050513,105
2021-10-14 16:28:36.050522,84
2021-10-14 16:28:36.050530,57
2021-10-14 16:28:36.050539,21
2021-10-14 16:28:36.050548,-14
2021-10-14 16:28:36.050556,-52
2021-10-14 16:28:36.050564,-98
2021-10-14 16:28:36.050573,-129
2021-10-14 16:28:36.050582,-151
2021-10-14 16:28:36.050590,-177
2021-10-14 16:28:36.050598,-189
2021-10-14 16:28:36.050607,-185
2021-10-14 16:28:36.050615,-185
2021-10-14 16:28:36.050623,-189
2021-10-14 16:28:36.050631,-199
2021-10-14 16:28:36.050640,-209
2021-10-14 16:28:36.050649,-206
2021-10-14 16:28:36.050657,-189
2021-10-14 16:28:36.050665,-180
2021-10-14 16:28:36.050673,-187
2021-10-14 16:28:36.050682,-187
2021-10-14 16:28:36.050690,-170
2021-10-14 16:28:36.050698,-153
2021-10-14 16:28:36.050706,-161
2021-10-14 16:28:36.050715,-173
2021-10-14 16:28:36.050724,-163
2021-10-14 16:28:36.050732,-151
2021-10-14 16:28:36.050740,-146
2021-10-14 16:28:36.179606,-137
2021-10-14 16:28:36.179625,-132
2021-10-14 16:28:36.179634,-132
2021-10-14 16:28:36.179643,-141
2021-10-14 16:28:36.179651,-146
2021-10-14 16:28:36.179659,-141
2021-10-14 16:28:36.179669,-144
2021-10-14 16:28:36.179677,-153
2021-10-14 16:28:36.179686,-156
2021-10-14 16:28:36.179694,-151
2021-10-14 16:28:36.179702,-149
2021-10-14 16:28:36.179711,-156
2021-10-14 16:28:36.179719,-153
2021-10-14 16:28:36.179727,-144
2021-10-14 16:28:36.179736,-149
2021-10-14 16:28:36.179744,-156
2021-10-14 16:28:36.179752,-149
2021-10-14 16:28:36.179761,-139
2021-10-14 16:28:36.179769,-127
2021-10-14 16:28:36.179778,-117
2021-10-14 16:28:36.179786,-144
2021-10-14 16:28:36.179794,-177
2021-10-14 16:28:36.179802,-175
2021-10-14 16:28:36.179811,-161
2021-10-14 16:28:36.179819,-158
2021-10-14 16:28:36.179827,-161
2021-10-14 16:28:36.179835,-165
2021-10-14 16:28:36.179843,-170
2021-10-14 16:28:36.179851,-163
2021-10-14 16:28:36.179861,-153
2021-10-14 16:28:36.449279,-144
2021-10-14 16:28:36.449298,-122
2021-10-14 16:28:36.449307,-86
2021-10-14 16:28:36.449315,50
2021-10-14 16:28:36.449323,399
2021-10-14 16:28:36.449331,634
2021-10-14 16:28:36.449339,108
2021-10-14 16:28:36.449347,-909
2021-10-14 16:28:36.449355,-1214
2021-10-14 16:28:36.449363,-697
2021-10-14 16:28:36.449370,-322
2021-10-14 16:28:36.449378,-228
2021-10-14 16:28:36.449386,-86
2021-10-14 16:28:36.449398,-12
2021-10-14 16:28:36.449406,-40
2021-10-14 16:28:36.449413,-28
2021-10-14 16:28:36.449422,0
2021-10-14 16:28:36.449429,-4
2021-10-14 16:28:36.449437,-2
2021-10-14 16:28:36.449445,14
2021-10-14 16:28:36.449453,16
2021-10-14 16:28:36.449461,9
2021-10-14 16:28:36.449469,16
2021-10-14 16:28:36.449477,31
2021-10-14 16:28:36.449484,43
2021-10-14 16:28:36.449492,52
2021-10-14 16:28:36.449500,52
2021-10-14 16:28:36.449534,50
2021-10-14 16:28:36.449543,62
2021-10-14 16:28:36.449554,72
2021-10-14 16:28:36.674576,81
2021-10-14 16:28:36.674595,110
2021-10-14 16:28:36.674605,122
2021-10-14 16:28:36.674614,103
2021-10-14 16:28:36.674623,96
2021-10-14 16:28:36.674632,105
2021-10-14 16:28:36.674641,91
2021-10-14 16:28:36.674650,52
2021-10-14 16:28:36.674659,9
2021-10-14 16:28:36.674668,-28
2021-10-14 16:28:36.674677,-55
2021-10-14 16:28:36.674685,-88
2021-10-14 16:28:36.674694,-129
2021-10-14 16:28:36.674703,-161
2021-10-14 16:28:36.674712,-185
2021-10-14 16:28:36.674721,-199
2021-10-14 16:28:36.674730,-204
2021-10-14 16:28:36.674741,-206
2021-10-14 16:28:36.674750,-216
2021-10-14 16:28:36.674759,-230
2021-10-14 16:28:36.674768,-238
2021-10-14 16:28:36.674776,-230
2021-10-14 16:28:36.674785,-214
2021-10-14 16:28:36.674794,-202
2021-10-14 16:28:36.674803,-192
2021-10-14 16:28:36.674812,-182
2021-10-14 16:28:36.674820,-175
2021-10-14 16:28:36.674829,-175
2021-10-14 16:28:36.674838,-177
2021-10-14 16:28:36.674847,-165
2021-10-14 16:28:36.944723,-146
2021-10-14 16:28:36.944744,-146
2021-10-14 16:28:36.944754,-161
2021-10-14 16:28:36.944771,-149
2021-10-14 16:28:36.944780,-122
2021-10-14 16:28:36.944788,-117
2021-10-14 16:28:36.944796,-127
2021-10-14 16:28:36.944808,-132
2021-10-14 16:28:36.944816,-134
2021-10-14 16:28:36.944824,-137
2021-10-14 16:28:36.944866,-137
2021-10-14 16:28:36.944879,-132
2021-10-14 16:28:36.944888,-122
2021-10-14 16:28:36.944897,-134
2021-10-14 16:28:36.944905,-151
2021-10-14 16:28:36.944914,-141
2021-10-14 16:28:36.944922,-117
2021-10-14 16:28:36.944930,-113
2021-10-14 16:28:36.944938,-120
2021-10-14 16:28:36.944946,-115
2021-10-14 16:28:36.944954,-105
2021-10-14 16:28:36.944962,-101
2021-10-14 16:28:36.944970,-91
2021-10-14 16:28:36.944978,-88
2021-10-14 16:28:36.944986,-79
2021-10-14 16:28:36.944995,-60
2021-10-14 16:28:36.945003,-72
2021-10-14 16:28:36.945010,-101
2021-10-14 16:28:36.945142,-108
2021-10-14 16:28:36.945158,-105
2021-10-14 16:28:37.168669,-103
2021-10-14 16:28:37.168690,-108
2021-10-14 16:28:37.168700,-110
2021-10-14 16:28:37.168708,-101
2021-10-14 16:28:37.168717,-93
2021-10-14 16:28:37.168725,-91
2021-10-14 16:28:37.168734,-86
2021-10-14 16:28:37.168742,-74
2021-10-14 16:28:37.168750,-36
2021-10-14 16:28:37.168759,137
2021-10-14 16:28:37.168767,517
2021-10-14 16:28:37.168775,707
2021-10-14 16:28:37.168784,98
2021-10-14 16:28:37.168792,-925
2021-10-14 16:28:37.168800,-1154
2021-10-14 16:28:37.168809,-579
2021-10-14 16:28:37.168817,-211
2021-10-14 16:28:37.168826,-149
2021-10-14 16:28:37.168834,-31
2021-10-14 16:28:37.168842,33
2021-10-14 16:28:37.168851,-4
2021-10-14 16:28:37.168859,7
2021-10-14 16:28:37.168867,52
2021-10-14 16:28:37.168875,48
2021-10-14 16:28:37.168888,24
2021-10-14 16:28:37.168897,28
2021-10-14 16:28:37.168905,43
2021-10-14 16:28:37.168914,52
2021-10-14 16:28:37.168922,57
2021-10-14 16:28:37.168931,60
2021-10-14 16:28:37.349613,72
2021-10-14 16:28:37.349632,86
2021-10-14 16:28:37.349642,88
2021-10-14 16:28:37.349650,88
2021-10-14 16:28:37.349658,103
2021-10-14 16:28:37.349667,113
2021-10-14 16:28:37.349675,117
2021-10-14 16:28:37.349683,132
2021-10-14 16:28:37.349692,141
2021-10-14 16:28:37.349700,129
2021-10-14 16:28:37.349708,117
2021-10-14 16:28:37.349716,110
2021-10-14 16:28:37.349725,91
2021-10-14 16:28:37.349733,60
2021-10-14 16:28:37.349741,26
2021-10-14 16:28:37.349749,-4
2021-10-14 16:28:37.349758,-33
2021-10-14 16:28:37.349766,-72
2021-10-14 16:28:37.349774,-110
2021-10-14 16:28:37.349782,-127
2021-10-14 16:28:37.349791,-139
2021-10-14 16:28:37.349799,-158
2021-10-14 16:28:37.349809,-165
2021-10-14 16:28:37.349817,-165
2021-10-14 16:28:37.349825,-170
2021-10-14 16:28:37.349833,-161
2021-10-14 16:28:37.349842,-153
2021-10-14 16:28:37.349850,-161
2021-10-14 16:28:37.349858,-156
2021-10-14 16:28:37.349866,-141
2021-10-14 16:28:37.618215,-132
2021-10-14 16:28:37.618234,-127
2021-10-14 16:28:37.618243,-122
2021-10-14 16:28:37.618252,-115
2021-10-14 16:28:37.618261,-115
2021-10-14 16:28:37.618269,-120
2021-10-14 16:28:37.618280,-115
2021-10-14 16:28:37.618289,-103
2021-10-14 16:28:37.618297,-88
2021-10-14 16:28:37.618306,-74
2021-10-14 16:28:37.618314,-74
2021-10-14 16:28:37.618322,-91
2021-10-14 16:28:37.618330,-98
2021-10-14 16:28:37.618339,-91
2021-10-14 16:28:37.618347,-86
2021-10-14 16:28:37.618355,-91
2021-10-14 16:28:37.618364,-88
2021-10-14 16:28:37.618372,-84
2021-10-14 16:28:37.618380,-79
2021-10-14 16:28:37.618389,-76
2021-10-14 16:28:37.618397,-76
2021-10-14 16:28:37.618405,-74
2021-10-14 16:28:37.618413,-72
2021-10-14 16:28:37.618422,-72
2021-10-14 16:28:37.618434,-74
2021-10-14 16:28:37.618442,-69
2021-10-14 16:28:37.618450,-60
2021-10-14 16:28:37.618459,-60
2021-10-14 16:28:37.618467,-64
2021-10-14 16:28:37.618476,-64
2021-10-14 16:28:37.799203,-67
2021-10-14 16:28:37.799220,-69
2021-10-14 16:28:37.799228,-67
2021-10-14 16:28:37.799236,-55
2021-10-14 16:28:37.799245,-50
2021-10-14 16:28:37.799253,-55
2021-10-14 16:28:37.799262,-43
2021-10-14 16:28:37.799270,-38
2021-10-14 16:28:37.799279,-69
2021-10-14 16:28:37.799287,-91
2021-10-14 16:28:37.799295,-91
2021-10-14 16:28:37.799304,-88
2021-10-14 16:28:37.799312,-84
2021-10-14 16:28:37.799320,-76
2021-10-14 16:28:37.799329,-74
2021-10-14 16:28:37.799337,-74
2021-10-14 16:28:37.799345,-72
2021-10-14 16:28:37.799354,-62
2021-10-14 16:28:37.799362,-50
2021-10-14 16:28:37.799370,-28
2021-10-14 16:28:37.799379,62
2021-10-14 16:28:37.799387,355
2021-10-14 16:28:37.799395,711
2021-10-14 16:28:37.799404,541
2021-10-14 16:28:37.799412,-391
2021-10-14 16:28:37.799420,-1147
2021-10-14 16:28:37.799428,-851
2021-10-14 16:28:37.799437,-252
2021-10-14 16:28:37.799445,-108
2021-10-14 16:28:37.799453,-50
2021-10-14 16:28:38.068580,76
2021-10-14 16:28:38.068600,72
2021-10-14 16:28:38.068609,45
2021-10-14 16:28:38.068618,79
2021-10-14 16:28:38.068626,74
2021-10-14 16:28:38.068635,57
2021-10-14 16:28:38.068643,74
2021-10-14 16:28:38.068651,86
2021-10-14 16:28:38.068660,79
2021-10-14 16:28:38.068668,72
2021-10-14 16:28:38.068677,79
2021-10-14 16:28:38.068685,86
2021-10-14 16:28:38.068694,91
2021-10-14 16:28:38.068702,96
2021-10-14 16:28:38.068711,98
2021-10-14 16:28:38.068719,98
2021-10-14 16:28:38.068728,110
2021-10-14 16:28:38.068736,132
2021-10-14 16:28:38.068745,149
2021-10-14 16:28:38.068753,158
2021-10-14 16:28:38.068762,163
2021-10-14 16:28:38.068770,163
2021-10-14 16:28:38.068779,163
2021-10-14 16:28:38.068787,161
2021-10-14 16:28:38.068796,139
2021-10-14 16:28:38.068804,103
2021-10-14 16:28:38.068813,69
2021-10-14 16:28:38.068821,33
2021-10-14 16:28:38.068830,2
2021-10-14 16:28:38.068838,-26
2021-10-14 16:28:38.339301,-52
2021-10-14 16:28:38.339321,-72
2021-10-14 16:28:38.339331,-88
2021-10-14 16:28:38.339339,-117
2021-10-14 16:28:38.339348,-134
2021-10-14 16:28:38.339356,-137
2021-10-14 16:28:38.339364,-144
2021-10-14 16:28:38.339373,-144
2021-10-14 16:28:38.339381,-141
2021-10-14 16:28:38.339390,-149
2021-10-14 16:28:38.339403,-156
2021-10-14 16:28:38.339412,-141
2021-10-14 16:28:38.339420,-127
2021-10-14 16:28:38.339428,-117
2021-10-14 16:28:38.339437,-110
2021-10-14 16:28:38.339445,-108
2021-10-14 16:28:38.339453,-103
2021-10-14 16:28:38.339462,-91
2021-10-14 16:28:38.339470,-74
2021-10-14 16:28:38.339478,-60
2021-10-14 16:28:38.339487,-57
2021-10-14 16:28:38.339495,-67
2021-10-14 16:28:38.339503,-64
2021-10-14 16:28:38.339512,-55
2021-10-14 16:28:38.339520,-50
2021-10-14 16:28:38.339528,-50
2021-10-14 16:28:38.339537,-50
2021-10-14 16:28:38.339545,-52
2021-10-14 16:28:38.339553,-52
2021-10-14 16:28:38.339561,-45
2021-10-14 16:28:38.653614,-40
2021-10-14 16:28:38.653634,-40
2021-10-14 16:28:38.653643,-48
2021-10-14 16:28:38.653652,-52
2021-10-14 16:28:38.653660,-43
2021-10-14 16:28:38.653668,-31
2021-10-14 16:28:38.653677,-38
2021-10-14 16:28:38.653685,-40
2021-10-14 16:28:38.653693,-43
2021-10-14 16:28:38.653702,-50
2021-10-14 16:28:38.653710,-43
2021-10-14 16:28:38.653719,-28
2021-10-14 16:28:38.653727,-40
2021-10-14 16:28:38.653735,-50
2021-10-14 16:28:38.653743,-43
2021-10-14 16:28:38.653752,-43
2021-10-14 16:28:38.653760,-48
2021-10-14 16:28:38.653768,-33
2021-10-14 16:28:38.653776,-19
2021-10-14 16:28:38.653785,-26
2021-10-14 16:28:38.653793,-33
2021-10-14 16:28:38.653801,-24
2021-10-14 16:28:38.653809,-16
2021-10-14 16:28:38.653817,-12
2021-10-14 16:28:38.653825,4
2021-10-14 16:28:38.653836,-4
2021-10-14 16:28:38.653845,-36
2021-10-14 16:28:38.653853,-43
2021-10-14 16:28:38.653862,-33
2021-10-14 16:28:38.653870,-26
2021-10-14 16:28:38.789575,-26
2021-10-14 16:28:38.789594,-31
2021-10-14 16:28:38.789603,-38
2021-10-14 16:28:38.789612,-31
2021-10-14 16:28:38.789620,-14
2021-10-14 16:28:38.789629,-7
2021-10-14 16:28:38.789637,4
2021-10-14 16:28:38.789646,55
2021-10-14 16:28:38.789654,242
2021-10-14 16:28:38.789662,593
2021-10-14 16:28:38.789670,699
2021-10-14 16:28:38.789678,33
2021-10-14 16:28:38.789687,-906
2021-10-14 16:28:38.789695,-1017
2021-10-14 16:28:38.789703,-490
2021-10-14 16:28:38.789711,-206
2021-10-14 16:28:38.789720,-120
2021-10-14 16:28:38.789728,19
2021-10-14 16:28:38.789736,50
2021-10-14 16:28:38.789744,0
2021-10-14 16:28:38.789753,21
2021-10-14 16:28:38.789761,52
2021-10-14 16:28:38.789769,43
2021-10-14 16:28:38.789777,52
2021-10-14 16:28:38.789785,72
2021-10-14 16:28:38.789793,67
2021-10-14 16:28:38.789802,67
2021-10-14 16:28:38.789810,76
2021-10-14 16:28:38.789818,81
2021-10-14 16:28:38.789826,96
2021-10-14 16:28:38.969257,105
2021-10-14 16:28:38.969277,110
2021-10-14 16:28:38.969286,127
2021-10-14 16:28:38.969295,139
2021-10-14 16:28:38.969303,151
2021-10-14 16:28:38.969311,170
2021-10-14 16:28:38.969320,177
2021-10-14 16:28:38.969328,182
2021-10-14 16:28:38.969336,192
2021-10-14 16:28:38.969345,192
2021-10-14 16:28:38.969353,185
2021-10-14 16:28:38.969361,170
2021-10-14 16:28:38.969370,144
2021-10-14 16:28:38.969378,110
2021-10-14 16:28:38.969386,88
2021-10-14 16:28:38.969476,52
2021-10-14 16:28:38.969489,0
2021-10-14 16:28:38.969494,-36
2021-10-14 16:28:38.969499,-62
2021-10-14 16:28:38.969503,-88
2021-10-14 16:28:38.969508,-98
2021-10-14 16:28:38.969512,-113
2021-10-14 16:28:38.969517,-132
2021-10-14 16:28:38.969521,-122
2021-10-14 16:28:38.969525,-110
2021-10-14 16:28:38.969530,-120
2021-10-14 16:28:38.969534,-120
2021-10-14 16:28:38.969538,-103
2021-10-14 16:28:38.969542,-96
2021-10-14 16:28:38.969547,-98
2021-10-14 16:28:39.238711,-88
2021-10-14 16:28:39.238732,-72
2021-10-14 16:28:39.238741,-62
2021-10-14 16:28:39.238749,-55
2021-10-14 16:28:39.238758,-48
2021-10-14 16:28:39.238766,-48
2021-10-14 16:28:39.238775,-45
2021-10-14 16:28:39.238783,-40
2021-10-14 16:28:39.238791,-40
2021-10-14 16:28:39.238799,-33
2021-10-14 16:28:39.238808,-24
2021-10-14 16:28:39.238816,-33
2021-10-14 16:28:39.238824,-50
2021-10-14 16:28:39.238832,-50
2021-10-14 16:28:39.238841,-40
2021-10-14 16:28:39.238849,-38
2021-10-14 16:28:39.238857,-50
2021-10-14 16:28:39.238866,-57
2021-10-14 16:28:39.238874,-52
2021-10-14 16:28:39.238882,-48
2021-10-14 16:28:39.238890,-60
2021-10-14 16:28:39.238899,-60
2021-10-14 16:28:39.238907,-48
2021-10-14 16:28:39.238915,-50
2021-10-14 16:28:39.238923,-60
2021-10-14 16:28:39.238931,-52
2021-10-14 16:28:39.238939,-43
2021-10-14 16:28:39.238948,-38
2021-10-14 16:28:39.238956,-31
2021-10-14 16:28:39.238964,-28
2021-10-14 16:28:39.464616,-31
2021-10-14 16:28:39.464635,-24
2021-10-14 16:28:39.464645,-21
2021-10-14 16:28:39.464653,-26
2021-10-14 16:28:39.464661,-14
2021-10-14 16:28:39.464670,0
2021-10-14 16:28:39.464678,0
2021-10-14 16:28:39.464686,9
2021-10-14 16:28:39.464695,12
2021-10-14 16:28:39.464703,-21
2021-10-14 16:28:39.464711,-43
2021-10-14 16:28:39.464720,-38
2021-10-14 16:28:39.464728,-40
2021-10-14 16:28:39.464739,-48
2021-10-14 16:28:39.464748,-50
2021-10-14 16:28:39.464756,-45
2021-10-14 16:28:39.464764,-40
2021-10-14 16:28:39.464772,-36
2021-10-14 16:28:39.464780,-31
2021-10-14 16:28:39.464789,-26
2021-10-14 16:28:39.464797,-14
2021-10-14 16:28:39.464805,67
2021-10-14 16:28:39.464814,353
2021-10-14 16:28:39.464822,702
2021-10-14 16:28:39.464830,500
2021-10-14 16:28:39.464838,-468
2021-10-14 16:28:39.464847,-1183
2021-10-14 16:28:39.464855,-853
2021-10-14 16:28:39.464863,-305
2021-10-14 16:28:39.464871,-173
2021-10-14 16:28:39.687918,-72
2021-10-14 16:28:39.687937,72
2021-10-14 16:28:39.687947,62
2021-10-14 16:28:39.687955,31
2021-10-14 16:28:39.687964,72
2021-10-14 16:28:39.687972,81
2021-10-14 16:28:39.687981,74
2021-10-14 16:28:39.687989,91
2021-10-14 16:28:39.687997,93
2021-10-14 16:28:39.688005,88
2021-10-14 16:28:39.688014,98
2021-10-14 16:28:39.688022,110
2021-10-14 16:28:39.688030,117
2021-10-14 16:28:39.688038,127
2021-10-14 16:28:39.688047,137
2021-10-14 16:28:39.688055,149
2021-10-14 16:28:39.688063,158
2021-10-14 16:28:39.688071,163
2021-10-14 16:28:39.688080,180
2021-10-14 16:28:39.688088,202
2021-10-14 16:28:39.688096,206
2021-10-14 16:28:39.688105,199
2021-10-14 16:28:39.688113,194
2021-10-14 16:28:39.688121,192
2021-10-14 16:28:39.688129,189
2021-10-14 16:28:39.688138,170
2021-10-14 16:28:39.688146,134
2021-10-14 16:28:39.688154,103
2021-10-14 16:28:39.688162,72
2021-10-14 16:28:39.688170,28
2021-10-14 16:28:39.958753,-7
2021-10-14 16:28:39.958773,-36
2021-10-14 16:28:39.958783,-69
2021-10-14 16:28:39.958791,-101
2021-10-14 16:28:39.958800,-117
2021-10-14 16:28:39.958808,-105
2021-10-14 16:28:39.958816,-98
2021-10-14 16:28:39.958825,-108
2021-10-14 16:28:39.958833,-110
2021-10-14 16:28:39.958841,-110
2021-10-14 16:28:39.958850,-117
2021-10-14 16:28:39.958858,-117
2021-10-14 16:28:39.958866,-108
2021-10-14 16:28:39.958874,-103
2021-10-14 16:28:39.958883,-93
2021-10-14 16:28:39.958891,-84
2021-10-14 16:28:39.958899,-76
2021-10-14 16:28:39.958911,-67
2021-10-14 16:28:39.958920,-55
2021-10-14 16:28:39.958928,-43
2021-10-14 16:28:39.958936,-38
2021-10-14 16:28:39.958944,-43
2021-10-14 16:28:39.958953,-40
2021-10-14 16:28:39.958961,-26
2021-10-14 16:28:39.958969,-28
2021-10-14 16:28:39.958977,-48
2021-10-14 16:28:39.958986,-48
2021-10-14 16:28:39.958994,-40
2021-10-14 16:28:39.959002,-43
2021-10-14 16:28:39.959011,-45
2021-10-14 16:28:40.184695,-43
2021-10-14 16:28:40.184715,-31
2021-10-14 16:28:40.184724,-26
2021-10-14 16:28:40.184733,-38
2021-10-14 16:28:40.184742,-43
2021-10-14 16:28:40.184750,-43
2021-10-14 16:28:40.184758,-48
2021-10-14 16:28:40.184767,-45
2021-10-14 16:28:40.184775,-43
2021-10-14 16:28:40.184783,-52
2021-10-14 16:28:40.184792,-55
2021-10-14 16:28:40.184800,-40
2021-10-14 16:28:40.184808,-31
2021-10-14 16:28:40.184817,-31
2021-10-14 16:28:40.184825,-28
2021-10-14 16:28:40.184917,-31
2021-10-14 16:28:40.184922,-40
2021-10-14 16:28:40.184927,-48
2021-10-14 16:28:40.184931,-43
2021-10-14 16:28:40.184935,-28
2021-10-14 16:28:40.184939,-16
2021-10-14 16:28:40.184944,-14
2021-10-14 16:28:40.184948,-12
2021-10-14 16:28:40.184952,-16
2021-10-14 16:28:40.184957,-43
2021-10-14 16:28:40.184961,-64
2021-10-14 16:28:40.184965,-72
2021-10-14 16:28:40.184969,-86
2021-10-14 16:28:40.184974,-98
2021-10-14 16:28:40.184978,-93
2021-10-14 16:28:40.453677,-76
2021-10-14 16:28:40.453698,-72
2021-10-14 16:28:40.453707,-79
2021-10-14 16:28:40.453716,-79
2021-10-14 16:28:40.453724,-67
2021-10-14 16:28:40.453733,-26
2021-10-14 16:28:40.453742,122
2021-10-14 16:28:40.453750,473
2021-10-14 16:28:40.453759,738
2021-10-14 16:28:40.453767,322
2021-10-14 16:28:40.453775,-692
2021-10-14 16:28:40.453783,-1197
2021-10-14 16:28:40.453792,-726
2021-10-14 16:28:40.453800,-218
2021-10-14 16:28:40.453808,-134
2021-10-14 16:28:40.453817,-43
2021-10-14 16:28:40.453825,67
2021-10-14 16:28:40.453833,45
2021-10-14 16:28:40.453841,33
2021-10-14 16:28:40.453849,67
2021-10-14 16:28:40.453858,62
2021-10-14 16:28:40.453866,57
2021-10-14 16:28:40.453874,79
2021-10-14 16:28:40.453882,91
2021-10-14 16:28:40.453891,91
2021-10-14 16:28:40.453899,98
2021-10-14 16:28:40.453907,101
2021-10-14 16:28:40.453915,108
2021-10-14 16:28:40.453924,127
2021-10-14 16:28:40.453937,129
2021-10-14 16:28:40.634672,127
2021-10-14 16:28:40.634692,141
2021-10-14 16:28:40.634702,161
2021-10-14 16:28:40.634710,180
2021-10-14 16:28:40.634718,199
2021-10-14 16:28:40.634727,206
2021-10-14 16:28:40.634735,204
2021-10-14 16:28:40.634743,202
2021-10-14 16:28:40.634751,194
2021-10-14 16:28:40.634759,180
2021-10-14 16:28:40.634768,161
2021-10-14 16:28:40.634776,139
2021-10-14 16:28:40.634784,117
2021-10-14 16:28:40.634792,74
2021-10-14 16:28:40.634800,19
2021-10-14 16:28:40.634809,-14
2021-10-14 16:28:40.634817,-38
2021-10-14 16:28:40.634825,-67
2021-10-14 16:28:40.634833,-84
2021-10-14 16:28:40.634842,-88
2021-10-14 16:28:40.634850,-101
2021-10-14 16:28:40.634858,-101
2021-10-14 16:28:40.634866,-93
2021-10-14 16:28:40.634874,-93
2021-10-14 16:28:40.634883,-93
2021-10-14 16:28:40.634891,-96
2021-10-14 16:28:40.634899,-103
2021-10-14 16:28:40.634907,-101
2021-10-14 16:28:40.634915,-81
2021-10-14 16:28:40.634924,-69
2021-10-14 16:28:40.814681,-62
2021-10-14 16:28:40.814702,-55
2021-10-14 16:28:40.814711,-50
2021-10-14 16:28:40.814720,-55
2021-10-14 16:28:40.814728,-67
2021-10-14 16:28:40.814737,-60
2021-10-14 16:28:40.814745,-50
2021-10-14 16:28:40.814753,-55
2021-10-14 16:28:40.814762,-52
2021-10-14 16:28:40.814770,-43
2021-10-14 16:28:40.814778,-48
2021-10-14 16:28:40.814787,-43
2021-10-14 16:28:40.814795,-33
2021-10-14 16:28:40.814803,-45
2021-10-14 16:28:40.814812,-50
2021-10-14 16:28:40.814820,-40
2021-10-14 16:28:40.814828,-38
2021-10-14 16:28:40.814837,-38
2021-10-14 16:28:40.814845,-43
2021-10-14 16:28:40.814853,-45
2021-10-14 16:28:40.814862,-43
2021-10-14 16:28:40.814870,-45
2021-10-14 16:28:40.814878,-48
2021-10-14 16:28:40.814887,-45
2021-10-14 16:28:40.814895,-43
2021-10-14 16:28:40.814903,-43
2021-10-14 16:28:40.814912,-43
2021-10-14 16:28:40.814920,-48
2021-10-14 16:28:40.814928,-48
2021-10-14 16:28:40.814937,-48
2021-10-14 16:28:41.084252,-50
2021-10-14 16:28:41.084273,-57
2021-10-14 16:28:41.084282,-62
2021-10-14 16:28:41.084291,-62
2021-10-14 16:28:41.084299,-60
2021-10-14 16:28:41.084308,-60
2021-10-14 16:28:41.084316,-62
2021-10-14 16:28:41.084324,-60
2021-10-14 16:28:41.084333,-64
2021-10-14 16:28:41.084341,-67
2021-10-14 16:28:41.084349,-52
2021-10-14 16:28:41.084358,-40
2021-10-14 16:28:41.084366,-40
2021-10-14 16:28:41.084375,-33
2021-10-14 16:28:41.084383,-21
2021-10-14 16:28:41.084391,-28
2021-10-14 16:28:41.084400,-43
2021-10-14 16:28:41.084408,-50
2021-10-14 16:28:41.084417,-57
2021-10-14 16:28:41.084425,-64
2021-10-14 16:28:41.084439,-60
2021-10-14 16:28:41.084447,-45
2021-10-14 16:28:41.084455,-43
2021-10-14 16:28:41.084464,-55
2021-10-14 16:28:41.084472,-45
2021-10-14 16:28:41.084480,-21
2021-10-14 16:28:41.084489,-14
2021-10-14 16:28:41.084497,-4
2021-10-14 16:28:41.084506,93
2021-10-14 16:28:41.084514,394
2021-10-14 16:28:41.264714,723
2021-10-14 16:28:41.264734,524
2021-10-14 16:28:41.264744,-399
2021-10-14 16:28:41.264752,-1113
2021-10-14 16:28:41.264761,-803
2021-10-14 16:28:41.264769,-221
2021-10-14 16:28:41.264777,-91
2021-10-14 16:28:41.264786,-40
2021-10-14 16:28:41.264794,81
2021-10-14 16:28:41.264803,84
2021-10-14 16:28:41.264811,45
2021-10-14 16:28:41.264819,62
2021-10-14 16:28:41.264827,67
2021-10-14 16:28:41.264836,60
2021-10-14 16:28:41.264844,74
2021-10-14 16:28:41.264852,88
2021-10-14 16:28:41.264860,86
2021-10-14 16:28:41.264869,84
2021-10-14 16:28:41.264877,86
2021-10-14 16:28:41.264885,101
2021-10-14 16:28:41.264893,120
2021-10-14 16:28:41.264901,129
2021-10-14 16:28:41.264909,139
2021-10-14 16:28:41.264917,146
2021-10-14 16:28:41.264926,149
2021-10-14 16:28:41.264934,168
2021-10-14 16:28:41.264942,199
2021-10-14 16:28:41.264950,211
2021-10-14 16:28:41.264958,206
2021-10-14 16:28:41.264966,209
2021-10-14 16:28:41.489669,214
2021-10-14 16:28:41.489689,202
2021-10-14 16:28:41.489698,182
2021-10-14 16:28:41.489707,170
2021-10-14 16:28:41.489715,139
2021-10-14 16:28:41.489723,88
2021-10-14 16:28:41.489732,52
2021-10-14 16:28:41.489740,16
2021-10-14 16:28:41.489749,-28
2021-10-14 16:28:41.489757,-55
2021-10-14 16:28:41.489765,-74
2021-10-14 16:28:41.489774,-101
2021-10-14 16:28:41.489782,-110
2021-10-14 16:28:41.489790,-98
2021-10-14 16:28:41.489799,-96
2021-10-14 16:28:41.489807,-105
2021-10-14 16:28:41.489815,-115
2021-10-14 16:28:41.489823,-105
2021-10-14 16:28:41.489832,-93
2021-10-14 16:28:41.489840,-91
2021-10-14 16:28:41.489848,-84
2021-10-14 16:28:41.489856,-76
2021-10-14 16:28:41.489865,-81
2021-10-14 16:28:41.489873,-76
2021-10-14 16:28:41.489881,-55
2021-10-14 16:28:41.489890,-43
2021-10-14 16:28:41.489898,-45
2021-10-14 16:28:41.489906,-38
2021-10-14 16:28:41.489915,-31
2021-10-14 16:28:41.489923,-31
2021-10-14 16:28:41.758301,-28
2021-10-14 16:28:41.758320,-26
2021-10-14 16:28:41.758329,-24
2021-10-14 16:28:41.758338,-24
2021-10-14 16:28:41.758346,-40
2021-10-14 16:28:41.758355,-52
2021-10-14 16:28:41.758363,-43
2021-10-14 16:28:41.758371,-31
2021-10-14 16:28:41.758379,-33
2021-10-14 16:28:41.758388,-55
2021-10-14 16:28:41.758396,-79
2021-10-14 16:28:41.758405,-79
2021-10-14 16:28:41.758413,-60
2021-10-14 16:28:41.758421,-62
2021-10-14 16:28:41.758429,-76
2021-10-14 16:28:41.758438,-79
2021-10-14 16:28:41.758446,-79
2021-10-14 16:28:41.758454,-81
2021-10-14 16:28:41.758462,-88
2021-10-14 16:28:41.758470,-91
2021-10-14 16:28:41.758479,-76
2021-10-14 16:28:41.758487,-67
2021-10-14 16:28:41.758499,-74
2021-10-14 16:28:41.758508,-69
2021-10-14 16:28:41.758516,-48
2021-10-14 16:28:41.758524,-33
2021-10-14 16:28:41.758533,-48
2021-10-14 16:28:41.758541,-60
2021-10-14 16:28:41.758549,-43
2021-10-14 16:28:41.758557,-21
2021-10-14 16:28:42.074574,-12
2021-10-14 16:28:42.074593,-19
2021-10-14 16:28:42.074603,-16
2021-10-14 16:28:42.074611,-7
2021-10-14 16:28:42.074620,-24
2021-10-14 16:28:42.074628,-55
2021-10-14 16:28:42.074636,-52
2021-10-14 16:28:42.074645,-36
2021-10-14 16:28:42.074653,-36
2021-10-14 16:28:42.074662,-57
2021-10-14 16:28:42.074670,-74
2021-10-14 16:28:42.074678,-64
2021-10-14 16:28:42.074687,-50
2021-10-14 16:28:42.074695,-40
2021-10-14 16:28:42.074703,-33
2021-10-14 16:28:42.074712,-28
2021-10-14 16:28:42.074720,4
2021-10-14 16:28:42.074729,151
2021-10-14 16:28:42.074737,492
2021-10-14 16:28:42.074745,743
2021-10-14 16:28:42.074754,295
2021-10-14 16:28:42.074762,-719
2021-10-14 16:28:42.074770,-1142
2021-10-14 16:28:42.074779,-656
2021-10-14 16:28:42.074787,-223
2021-10-14 16:28:42.074795,-122
2021-10-14 16:28:42.074804,14
2021-10-14 16:28:42.074812,105
2021-10-14 16:28:42.074820,76
2021-10-14 16:28:42.074829,86
2021-10-14 16:28:42.209271,120
2021-10-14 16:28:42.209290,110
2021-10-14 16:28:42.209299,105
2021-10-14 16:28:42.209308,117
2021-10-14 16:28:42.209316,125
2021-10-14 16:28:42.209325,134
2021-10-14 16:28:42.209333,144
2021-10-14 16:28:42.209341,141
2021-10-14 16:28:42.209349,137
2021-10-14 16:28:42.209357,144
2021-10-14 16:28:42.209366,158
2021-10-14 16:28:42.209374,177
2021-10-14 16:28:42.209382,187
2021-10-14 16:28:42.209390,187
2021-10-14 16:28:42.209398,192
2021-10-14 16:28:42.209407,209
2021-10-14 16:28:42.209415,221
2021-10-14 16:28:42.209423,223
2021-10-14 16:28:42.209431,223
2021-10-14 16:28:42.209440,216
2021-10-14 16:28:42.209448,192
2021-10-14 16:28:42.209456,161
2021-10-14 16:28:42.209464,129
2021-10-14 16:28:42.209472,96
2021-10-14 16:28:42.209481,67
2021-10-14 16:28:42.209489,31
2021-10-14 16:28:42.209497,-19
2021-10-14 16:28:42.209505,-60
2021-10-14 16:28:42.209514,-76
2021-10-14 16:28:42.209522,-86
2021-10-14 16:28:42.434624,-98
2021-10-14 16:28:42.434643,-108
2021-10-14 16:28:42.434652,-113
2021-10-14 16:28:42.434661,-115
2021-10-14 16:28:42.434669,-108
2021-10-14 16:28:42.434678,-103
2021-10-14 16:28:42.434686,-103
2021-10-14 16:28:42.434695,-103
2021-10-14 16:28:42.434703,-103
2021-10-14 16:28:42.434711,-96
2021-10-14 16:28:42.434720,-86
2021-10-14 16:28:42.434728,-76
2021-10-14 16:28:42.434737,-69
2021-10-14 16:28:42.434745,-64
2021-10-14 16:28:42.434753,-64
2021-10-14 16:28:42.434762,-64
2021-10-14 16:28:42.434770,-64
2021-10-14 16:28:42.434778,-60
2021-10-14 16:28:42.434786,-50
2021-10-14 16:28:42.434795,-50
2021-10-14 16:28:42.434803,-52
2021-10-14 16:28:42.434811,-52
2021-10-14 16:28:42.434819,-60
2021-10-14 16:28:42.434828,-57
2021-10-14 16:28:42.434836,-50
2021-10-14 16:28:42.434844,-50
2021-10-14 16:28:42.434852,-60
2021-10-14 16:28:42.434861,-64
2021-10-14 16:28:42.434869,-60
2021-10-14 16:28:42.434877,-60
2021-10-14 16:28:42.659640,-79
2021-10-14 16:28:42.659659,-81
2021-10-14 16:28:42.659669,-62
2021-10-14 16:28:42.659678,-57
2021-10-14 16:28:42.659686,-67
2021-10-14 16:28:42.659697,-62
2021-10-14 16:28:42.659706,-62
2021-10-14 16:28:42.659714,-74
2021-10-14 16:28:42.659723,-72
2021-10-14 16:28:42.659731,-67
2021-10-14 16:28:42.659740,-62
2021-10-14 16:28:42.659748,-52
2021-10-14 16:28:42.659756,-55
2021-10-14 16:28:42.659765,-69
2021-10-14 16:28:42.659773,-64
2021-10-14 16:28:42.659781,-50
2021-10-14 16:28:42.659789,-55
2021-10-14 16:28:42.659797,-69
2021-10-14 16:28:42.659806,-72
2021-10-14 16:28:42.659814,-52
2021-10-14 16:28:42.659822,-31
2021-10-14 16:28:42.659831,-28
2021-10-14 16:28:42.659839,-19
2021-10-14 16:28:42.659847,-4
2021-10-14 16:28:42.659855,-24
2021-10-14 16:28:42.659864,-57
2021-10-14 16:28:42.659872,-62
2021-10-14 16:28:42.659880,-62
2021-10-14 16:28:42.659888,-74
2021-10-14 16:28:42.659897,-67
2021-10-14 16:28:42.884242,-57
2021-10-14 16:28:42.884261,-60
2021-10-14 16:28:42.884270,-55
2021-10-14 16:28:42.884279,-36
2021-10-14 16:28:42.884287,-26
2021-10-14 16:28:42.884295,-26
2021-10-14 16:28:42.884304,14
2021-10-14 16:28:42.884312,214
2021-10-14 16:28:42.884321,591
2021-10-14 16:28:42.884329,726
2021-10-14 16:28:42.884337,74
2021-10-14 16:28:42.884346,-911
2021-10-14 16:28:42.884354,-1079
2021-10-14 16:28:42.884362,-505
2021-10-14 16:28:42.884371,-153
2021-10-14 16:28:42.884379,-101
2021-10-14 16:28:42.884387,12
2021-10-14 16:28:42.884396,84
2021-10-14 16:28:42.884404,60
2021-10-14 16:28:42.884412,57
2021-10-14 16:28:42.884421,74
2021-10-14 16:28:42.884429,76
2021-10-14 16:28:42.884437,91
2021-10-14 16:28:42.884446,103
2021-10-14 16:28:42.884454,91
2021-10-14 16:28:42.884463,98
2021-10-14 16:28:42.884471,120
2021-10-14 16:28:42.884479,125
2021-10-14 16:28:42.884488,122
2021-10-14 16:28:42.884496,132
2021-10-14 16:28:43.244793,149
2021-10-14 16:28:43.244813,156
2021-10-14 16:28:43.244823,168
2021-10-14 16:28:43.244831,185
2021-10-14 16:28:43.244840,199
2021-10-14 16:28:43.244848,204
2021-10-14 16:28:43.244856,211
2021-10-14 16:28:43.244864,216
2021-10-14 16:28:43.244870,211
2021-10-14 16:28:43.244877,202
2021-10-14 16:28:43.244884,192
2021-10-14 16:28:43.244890,168
2021-10-14 16:28:43.244897,127
2021-10-14 16:28:43.244905,103
2021-10-14 16:28:43.244912,79
2021-10-14 16:28:43.244920,36
2021-10-14 16:28:43.244927,-7
2021-10-14 16:28:43.244935,-36
2021-10-14 16:28:43.244942,-52
2021-10-14 16:28:43.244950,-62
2021-10-14 16:28:43.244957,-76
2021-10-14 16:28:43.244964,-96
2021-10-14 16:28:43.244971,-110
2021-10-14 16:28:43.244978,-108
2021-10-14 16:28:43.244985,-101
2021-10-14 16:28:43.244993,-103
2021-10-14 16:28:43.245001,-98
2021-10-14 16:28:43.245009,-81
2021-10-14 16:28:43.245017,-74
2021-10-14 16:28:43.245025,-81
2021-10-14 16:28:43.334661,-76
2021-10-14 16:28:43.334680,-62
2021-10-14 16:28:43.334689,-52
2021-10-14 16:28:43.334698,-60
2021-10-14 16:28:43.334706,-74
2021-10-14 16:28:43.334714,-64
2021-10-14 16:28:43.334723,-55
2021-10-14 16:28:43.334731,-52
2021-10-14 16:28:43.334739,-45
2021-10-14 16:28:43.334747,-45
2021-10-14 16:28:43.334756,-45
2021-10-14 16:28:43.334764,-48
2021-10-14 16:28:43.334772,-57
2021-10-14 16:28:43.334780,-69
2021-10-14 16:28:43.334789,-69
2021-10-14 16:28:43.334797,-62
2021-10-14 16:28:43.334805,-67
2021-10-14 16:28:43.334813,-79
2021-10-14 16:28:43.334822,-74
2021-10-14 16:28:43.334830,-67
2021-10-14 16:28:43.334838,-72
2021-10-14 16:28:43.334846,-72
2021-10-14 16:28:43.334854,-67
2021-10-14 16:28:43.334863,-72
2021-10-14 16:28:43.334871,-72
2021-10-14 16:28:43.334879,-64
2021-10-14 16:28:43.334887,-60
2021-10-14 16:28:43.334896,-60
2021-10-14 16:28:43.334904,-67
2021-10-14 16:28:43.334912,-69
2021-10-14 16:28:43.604270,-67
2021-10-14 16:28:43.604291,-67
2021-10-14 16:28:43.604301,-62
2021-10-14 16:28:43.604309,-57
2021-10-14 16:28:43.604318,-62
2021-10-14 16:28:43.604326,-60
2021-10-14 16:28:43.604335,-48
2021-10-14 16:28:43.604343,-43
2021-10-14 16:28:43.604351,-38
2021-10-14 16:28:43.604359,-43
2021-10-14 16:28:43.604368,-60
2021-10-14 16:28:43.604376,-64
2021-10-14 16:28:43.604384,-50
2021-10-14 16:28:43.604392,-33
2021-10-14 16:28:43.604401,-21
2021-10-14 16:28:43.604409,-21
2021-10-14 16:28:43.604417,-14
2021-10-14 16:28:43.604425,7
2021-10-14 16:28:43.604434,-4
2021-10-14 16:28:43.604442,-31
2021-10-14 16:28:43.604450,-31
2021-10-14 16:28:43.604458,-26
2021-10-14 16:28:43.604467,-38
2021-10-14 16:28:43.604475,-40
2021-10-14 16:28:43.604483,-28
2021-10-14 16:28:43.604491,-24
2021-10-14 16:28:43.604499,-33
2021-10-14 16:28:43.604508,-38
2021-10-14 16:28:43.604516,-24
2021-10-14 16:28:43.604524,-12
2021-10-14 16:28:43.873314,24
2021-10-14 16:28:43.873333,199
2021-10-14 16:28:43.873342,555
2021-10-14 16:28:43.873351,745
2021-10-14 16:28:43.873359,211
2021-10-14 16:28:43.873367,-776
2021-10-14 16:28:43.873375,-1089
2021-10-14 16:28:43.873384,-533
2021-10-14 16:28:43.873392,-115
2021-10-14 16:28:43.873400,-86
2021-10-14 16:28:43.873408,-4
2021-10-14 16:28:43.873417,84
2021-10-14 16:28:43.873425,64
2021-10-14 16:28:43.873433,69
2021-10-14 16:28:43.873441,98
2021-10-14 16:28:43.873449,74
2021-10-14 16:28:43.873458,57
2021-10-14 16:28:43.873466,88
2021-10-14 16:28:43.873474,108
2021-10-14 16:28:43.873482,103
2021-10-14 16:28:43.873491,108
2021-10-14 16:28:43.873499,110
2021-10-14 16:28:43.873507,113
2021-10-14 16:28:43.873515,129
2021-10-14 16:28:43.873524,149
2021-10-14 16:28:43.873532,158
2021-10-14 16:28:43.873540,165
2021-10-14 16:28:43.873548,175
2021-10-14 16:28:43.873556,175
2021-10-14 16:28:43.873565,187
2021-10-14 16:28:44.099569,204
2021-10-14 16:28:44.099588,204
2021-10-14 16:28:44.099598,204
2021-10-14 16:28:44.099606,204
2021-10-14 16:28:44.099615,192
2021-10-14 16:28:44.099623,175
2021-10-14 16:28:44.099631,149
2021-10-14 16:28:44.099639,120
2021-10-14 16:28:44.099648,86
2021-10-14 16:28:44.099656,38
2021-10-14 16:28:44.099664,-4
2021-10-14 16:28:44.099673,-26
2021-10-14 16:28:44.099681,-38
2021-10-14 16:28:44.099689,-57
2021-10-14 16:28:44.099698,-81
2021-10-14 16:28:44.099706,-96
2021-10-14 16:28:44.099714,-96
2021-10-14 16:28:44.099723,-88
2021-10-14 16:28:44.099731,-91
2021-10-14 16:28:44.099739,-98
2021-10-14 16:28:44.099748,-105
2021-10-14 16:28:44.099756,-108
2021-10-14 16:28:44.099764,-101
2021-10-14 16:28:44.099773,-91
2021-10-14 16:28:44.099781,-86
2021-10-14 16:28:44.099789,-84
2021-10-14 16:28:44.099798,-81
2021-10-14 16:28:44.099806,-79
2021-10-14 16:28:44.099815,-81
2021-10-14 16:28:44.099823,-88
2021-10-14 16:28:44.414179,-88
2021-10-14 16:28:44.414198,-81
2021-10-14 16:28:44.414208,-76
2021-10-14 16:28:44.414216,-72
2021-10-14 16:28:44.414224,-74
2021-10-14 16:28:44.414233,-79
2021-10-14 16:28:44.414241,-69
2021-10-14 16:28:44.414249,-57
2021-10-14 16:28:44.414258,-67
2021-10-14 16:28:44.414266,-86
2021-10-14 16:28:44.414275,-84
2021-10-14 16:28:44.414283,-69
2021-10-14 16:28:44.414291,-69
2021-10-14 16:28:44.414299,-74
2021-10-14 16:28:44.414308,-69
2021-10-14 16:28:44.414316,-74
2021-10-14 16:28:44.414324,-76
2021-10-14 16:28:44.414333,-69
2021-10-14 16:28:44.414341,-69
2021-10-14 16:28:44.414349,-69
2021-10-14 16:28:44.414357,-76
2021-10-14 16:28:44.414366,-79
2021-10-14 16:28:44.414374,-69
2021-10-14 16:28:44.414382,-60
2021-10-14 16:28:44.414390,-62
2021-10-14 16:28:44.414399,-57
2021-10-14 16:28:44.414407,-48
2021-10-14 16:28:44.414415,-57
2021-10-14 16:28:44.414423,-55
2021-10-14 16:28:44.414432,-40
2021-10-14 16:28:44.549639,-40
2021-10-14 16:28:44.549658,-43
2021-10-14 16:28:44.549667,-40
2021-10-14 16:28:44.549676,-40
2021-10-14 16:28:44.549684,-36
2021-10-14 16:28:44.549692,-24
2021-10-14 16:28:44.549701,-28
2021-10-14 16:28:44.549709,-19
2021-10-14 16:28:44.549717,9
2021-10-14 16:28:44.549726,7
2021-10-14 16:28:44.549734,-19
2021-10-14 16:28:44.549745,-24
2021-10-14 16:28:44.549753,-16
2021-10-14 16:28:44.549761,-28
2021-10-14 16:28:44.549770,-40
2021-10-14 16:28:44.549778,-31
2021-10-14 16:28:44.549786,-26
2021-10-14 16:28:44.549794,-24
2021-10-14 16:28:44.549802,-19
2021-10-14 16:28:44.549811,-21
2021-10-14 16:28:44.549819,-21
2021-10-14 16:28:44.549827,9
2021-10-14 16:28:44.549835,113
2021-10-14 16:28:44.549844,396
2021-10-14 16:28:44.549852,726
2021-10-14 16:28:44.549860,517
2021-10-14 16:28:44.549869,-413
2021-10-14 16:28:44.549877,-1082
2021-10-14 16:28:44.549885,-788
2021-10-14 16:28:44.549893,-295
2021-10-14 16:28:44.774268,-149
2021-10-14 16:28:44.774286,-38
2021-10-14 16:28:44.774295,88
2021-10-14 16:28:44.774304,81
2021-10-14 16:28:44.774312,55
2021-10-14 16:28:44.774321,91
2021-10-14 16:28:44.774329,105
2021-10-14 16:28:44.774337,79
2021-10-14 16:28:44.774345,84
2021-10-14 16:28:44.774354,103
2021-10-14 16:28:44.774362,105
2021-10-14 16:28:44.774370,115
2021-10-14 16:28:44.774378,125
2021-10-14 16:28:44.774386,122
2021-10-14 16:28:44.774394,122
2021-10-14 16:28:44.774403,127
2021-10-14 16:28:44.774411,146
2021-10-14 16:28:44.774419,168
2021-10-14 16:28:44.774427,170
2021-10-14 16:28:44.774436,173
2021-10-14 16:28:44.774444,182
2021-10-14 16:28:44.774452,185
2021-10-14 16:28:44.774460,189
2021-10-14 16:28:44.774469,204
2021-10-14 16:28:44.774477,199
2021-10-14 16:28:44.774485,180
2021-10-14 16:28:44.774494,168
2021-10-14 16:28:44.774502,158
2021-10-14 16:28:44.774510,132
2021-10-14 16:28:44.774518,88
2021-10-14 16:28:44.954305,50
2021-10-14 16:28:44.954324,19
2021-10-14 16:28:44.954334,-12
2021-10-14 16:28:44.954342,-48
2021-10-14 16:28:44.954351,-72
2021-10-14 16:28:44.954359,-86
2021-10-14 16:28:44.954367,-96
2021-10-14 16:28:44.954376,-101
2021-10-14 16:28:44.954384,-105
2021-10-14 16:28:44.954392,-103
2021-10-14 16:28:44.954401,-91
2021-10-14 16:28:44.954409,-91
2021-10-14 16:28:44.954417,-103
2021-10-14 16:28:44.954426,-110
2021-10-14 16:28:44.954434,-103
2021-10-14 16:28:44.954442,-91
2021-10-14 16:28:44.954450,-81
2021-10-14 16:28:44.954458,-86
2021-10-14 16:28:44.954467,-91
2021-10-14 16:28:44.954475,-76
2021-10-14 16:28:44.954483,-67
2021-10-14 16:28:44.954491,-76
2021-10-14 16:28:44.954499,-76
2021-10-14 16:28:44.954508,-72
2021-10-14 16:28:44.954516,-69
2021-10-14 16:28:44.954524,-67
2021-10-14 16:28:44.954533,-64
2021-10-14 16:28:44.954541,-60
2021-10-14 16:28:44.954549,-62
2021-10-14 16:28:44.954557,-69
2021-10-14 16:28:45.269342,-62
2021-10-14 16:28:45.269363,-55
2021-10-14 16:28:45.269372,-60
2021-10-14 16:28:45.269380,-64
2021-10-14 16:28:45.269389,-62
2021-10-14 16:28:45.269397,-64
2021-10-14 16:28:45.269405,-67
2021-10-14 16:28:45.269414,-67
2021-10-14 16:28:45.269422,-74
2021-10-14 16:28:45.269430,-74
2021-10-14 16:28:45.269439,-67
2021-10-14 16:28:45.269447,-74
2021-10-14 16:28:45.269455,-79
2021-10-14 16:28:45.269463,-76
2021-10-14 16:28:45.269472,-72
2021-10-14 16:28:45.269480,-57
2021-10-14 16:28:45.269488,-48
2021-10-14 16:28:45.269497,-48
2021-10-14 16:28:45.269505,-52
2021-10-14 16:28:45.269513,-50
2021-10-14 16:28:45.269521,-36
2021-10-14 16:28:45.269530,-24
2021-10-14 16:28:45.269538,-24
2021-10-14 16:28:45.269546,-19
2021-10-14 16:28:45.269554,7
2021-10-14 16:28:45.269563,2
2021-10-14 16:28:45.269571,-43
2021-10-14 16:28:45.269579,-62
2021-10-14 16:28:45.269588,-45
2021-10-14 16:28:45.269596,-50
2021-10-14 16:28:45.404262,-62
2021-10-14 16:28:45.404281,-50
2021-10-14 16:28:45.404290,-36
2021-10-14 16:28:45.404299,-43
2021-10-14 16:28:45.404307,-48
2021-10-14 16:28:45.404316,-36
2021-10-14 16:28:45.404324,-19
2021-10-14 16:28:45.404332,16
2021-10-14 16:28:45.404341,161
2021-10-14 16:28:45.404349,502
2021-10-14 16:28:45.404357,764
2021-10-14 16:28:45.404365,336
2021-10-14 16:28:45.404374,-675
2021-10-14 16:28:45.404382,-1147
2021-10-14 16:28:45.404390,-678
2021-10-14 16:28:45.404398,-218
2021-10-14 16:28:45.404407,-134
2021-10-14 16:28:45.404415,-16
2021-10-14 16:28:45.404423,98
2021-10-14 16:28:45.404431,76
2021-10-14 16:28:45.404440,69
2021-10-14 16:28:45.404448,98
2021-10-14 16:28:45.404456,86
2021-10-14 16:28:45.404464,81
2021-10-14 16:28:45.404472,105
2021-10-14 16:28:45.404480,110
2021-10-14 16:28:45.404489,108
2021-10-14 16:28:45.404497,115
2021-10-14 16:28:45.404505,125
2021-10-14 16:28:45.404513,129
2021-10-14 16:28:45.629290,139
2021-10-14 16:28:45.629309,153
2021-10-14 16:28:45.629318,163
2021-10-14 16:28:45.629326,168
2021-10-14 16:28:45.629335,170
2021-10-14 16:28:45.629343,182
2021-10-14 16:28:45.629352,204
2021-10-14 16:28:45.629360,216
2021-10-14 16:28:45.629373,218
2021-10-14 16:28:45.629382,209
2021-10-14 16:28:45.629390,199
2021-10-14 16:28:45.629399,189
2021-10-14 16:28:45.629407,163
2021-10-14 16:28:45.629415,129
2021-10-14 16:28:45.629423,98
2021-10-14 16:28:45.629431,64
2021-10-14 16:28:45.629440,28
2021-10-14 16:28:45.629448,0
2021-10-14 16:28:45.629457,-24
2021-10-14 16:28:45.629465,-43
2021-10-14 16:28:45.629474,-67
2021-10-14 16:28:45.629482,-86
2021-10-14 16:28:45.629490,-91
2021-10-14 16:28:45.629498,-84
2021-10-14 16:28:45.629506,-84
2021-10-14 16:28:45.629515,-81
2021-10-14 16:28:45.629523,-81
2021-10-14 16:28:45.629531,-84
2021-10-14 16:28:45.629539,-76
2021-10-14 16:28:45.629547,-69
2021-10-14 16:28:46.032938,-74
2021-10-14 16:28:46.032957,-86
2021-10-14 16:28:46.032967,-98
2021-10-14 16:28:46.032976,-103
2021-10-14 16:28:46.032984,-88
2021-10-14 16:28:46.032992,-74
2021-10-14 16:28:46.033001,-76
2021-10-14 16:28:46.033009,-69
2021-10-14 16:28:46.033017,-60
2021-10-14 16:28:46.033026,-69
2021-10-14 16:28:46.033034,-81
2021-10-14 16:28:46.033042,-81
2021-10-14 16:28:46.033051,-72
2021-10-14 16:28:46.033059,-67
2021-10-14 16:28:46.033067,-79
2021-10-14 16:28:46.033076,-93
2021-10-14 16:28:46.033084,-84
2021-10-14 16:28:46.033092,-72
2021-10-14 16:28:46.033100,-79
2021-10-14 16:28:46.033108,-81
2021-10-14 16:28:46.033117,-74
2021-10-14 16:28:46.033125,-72
2021-10-14 16:28:46.033133,-74
2021-10-14 16:28:46.033141,-67
2021-10-14 16:28:46.033150,-52
2021-10-14 16:28:46.033158,-50
2021-10-14 16:28:46.033166,-57
2021-10-14 16:28:46.033174,-60
2021-10-14 16:28:46.033183,-57
2021-10-14 16:28:46.033191,-48
2021-10-14 16:28:46.169343,-38
2021-10-14 16:28:46.169365,-33
2021-10-14 16:28:46.169374,-40
2021-10-14 16:28:46.169383,-43
2021-10-14 16:28:46.169391,-33
2021-10-14 16:28:46.169400,-28
2021-10-14 16:28:46.169408,-26
2021-10-14 16:28:46.169417,-19
2021-10-14 16:28:46.169425,-12
2021-10-14 16:28:46.169433,-12
2021-10-14 16:28:46.169441,-2
2021-10-14 16:28:46.169450,12
2021-10-14 16:28:46.169458,2
2021-10-14 16:28:46.169466,-26
2021-10-14 16:28:46.169474,-43
2021-10-14 16:28:46.169482,-45
2021-10-14 16:28:46.169491,-38
2021-10-14 16:28:46.169499,-33
2021-10-14 16:28:46.169507,-33
2021-10-14 16:28:46.169515,-40
2021-10-14 16:28:46.169524,-45
2021-10-14 16:28:46.169532,-38
2021-10-14 16:28:46.169540,-28
2021-10-14 16:28:46.169549,-19
2021-10-14 16:28:46.169557,12
2021-10-14 16:28:46.169565,151
2021-10-14 16:28:46.169573,500
2021-10-14 16:28:46.169582,764
2021-10-14 16:28:46.169590,324
2021-10-14 16:28:46.169599,-697
2021-10-14 16:28:46.349670,-1156
2021-10-14 16:28:46.349689,-651
2021-10-14 16:28:46.349698,-165
2021-10-14 16:28:46.349706,-91
2021-10-14 16:28:46.349715,7
2021-10-14 16:28:46.349723,110
2021-10-14 16:28:46.349732,79
2021-10-14 16:28:46.349740,60
2021-10-14 16:28:46.349748,91
2021-10-14 16:28:46.349757,93
2021-10-14 16:28:46.349765,91
2021-10-14 16:28:46.349773,98
2021-10-14 16:28:46.349782,101
2021-10-14 16:28:46.349790,103
2021-10-14 16:28:46.349798,105
2021-10-14 16:28:46.349806,115
2021-10-14 16:28:46.349815,127
2021-10-14 16:28:46.349823,132
2021-10-14 16:28:46.349831,129
2021-10-14 16:28:46.349839,129
2021-10-14 16:28:46.349847,146
2021-10-14 16:28:46.349856,158
2021-10-14 16:28:46.349864,161
2021-10-14 16:28:46.349872,180
2021-10-14 16:28:46.349880,204
2021-10-14 16:28:46.349889,192
2021-10-14 16:28:46.349897,177
2021-10-14 16:28:46.349905,180
2021-10-14 16:28:46.349914,170
2021-10-14 16:28:46.349922,151
2021-10-14 16:28:46.574680,134
2021-10-14 16:28:46.574698,113
2021-10-14 16:28:46.574708,76
2021-10-14 16:28:46.574716,45
2021-10-14 16:28:46.574725,24
2021-10-14 16:28:46.574733,-7
2021-10-14 16:28:46.574741,-45
2021-10-14 16:28:46.574750,-72
2021-10-14 16:28:46.574758,-84
2021-10-14 16:28:46.574766,-96
2021-10-14 16:28:46.574775,-96
2021-10-14 16:28:46.574783,-86
2021-10-14 16:28:46.574791,-93
2021-10-14 16:28:46.574799,-103
2021-10-14 16:28:46.574808,-88
2021-10-14 16:28:46.574816,-79
2021-10-14 16:28:46.574824,-84
2021-10-14 16:28:46.574832,-79
2021-10-14 16:28:46.574840,-62
2021-10-14 16:28:46.574849,-64
2021-10-14 16:28:46.574857,-74
2021-10-14 16:28:46.574865,-69
2021-10-14 16:28:46.574873,-55
2021-10-14 16:28:46.574881,-45
2021-10-14 16:28:46.574890,-48
2021-10-14 16:28:46.574898,-57
2021-10-14 16:28:46.574906,-55
2021-10-14 16:28:46.574914,-52
2021-10-14 16:28:46.574922,-57
2021-10-14 16:28:46.574930,-55
2021-10-14 16:28:46.799316,-45
2021-10-14 16:28:46.799335,-45
2021-10-14 16:28:46.799344,-57
2021-10-14 16:28:46.799353,-62
2021-10-14 16:28:46.799361,-55
2021-10-14 16:28:46.799370,-60
2021-10-14 16:28:46.799378,-72
2021-10-14 16:28:46.799386,-74
2021-10-14 16:28:46.799395,-69
2021-10-14 16:28:46.799403,-62
2021-10-14 16:28:46.799412,-57
2021-10-14 16:28:46.799420,-57
2021-10-14 16:28:46.799428,-62
2021-10-14 16:28:46.799437,-62
2021-10-14 16:28:46.799445,-67
2021-10-14 16:28:46.799453,-74
2021-10-14 16:28:46.799461,-72
2021-10-14 16:28:46.799470,-64
2021-10-14 16:28:46.799478,-69
2021-10-14 16:28:46.799486,-69
2021-10-14 16:28:46.799494,-55
2021-10-14 16:28:46.799503,-50
2021-10-14 16:28:46.799511,-60
2021-10-14 16:28:46.799522,-57
2021-10-14 16:28:46.799530,-43
2021-10-14 16:28:46.799539,-31
2021-10-14 16:28:46.799547,-28
2021-10-14 16:28:46.799555,-19
2021-10-14 16:28:46.799564,7
2021-10-14 16:28:46.799572,-2
2021-10-14 16:28:47.113995,-45
2021-10-14 16:28:47.114013,-55
2021-10-14 16:28:47.114023,-36
2021-10-14 16:28:47.114031,-36
2021-10-14 16:28:47.114040,-45
2021-10-14 16:28:47.114048,-50
2021-10-14 16:28:47.114056,-45
2021-10-14 16:28:47.114065,-33
2021-10-14 16:28:47.114073,-26
2021-10-14 16:28:47.114081,-26
2021-10-14 16:28:47.114090,-24
2021-10-14 16:28:47.114098,-7
2021-10-14 16:28:47.114106,86
2021-10-14 16:28:47.114115,389
2021-10-14 16:28:47.114123,723
2021-10-14 16:28:47.114131,495
2021-10-14 16:28:47.114140,-449
2021-10-14 16:28:47.114148,-1120
2021-10-14 16:28:47.114156,-781
2021-10-14 16:28:47.114164,-223
2021-10-14 16:28:47.114172,-91
2021-10-14 16:28:47.114181,-21
2021-10-14 16:28:47.114189,88
2021-10-14 16:28:47.114197,84
2021-10-14 16:28:47.114205,69
2021-10-14 16:28:47.114213,101
2021-10-14 16:28:47.114222,108
2021-10-14 16:28:47.114230,93
2021-10-14 16:28:47.114238,91
2021-10-14 16:28:47.114246,98
2021-10-14 16:28:47.249715,108
2021-10-14 16:28:47.249734,120
2021-10-14 16:28:47.249744,129
2021-10-14 16:28:47.249753,132
2021-10-14 16:28:47.249761,134
2021-10-14 16:28:47.249770,139
2021-10-14 16:28:47.249778,153
2021-10-14 16:28:47.249786,175
2021-10-14 16:28:47.249795,187
2021-10-14 16:28:47.249803,187
2021-10-14 16:28:47.249812,192
2021-10-14 16:28:47.249820,204
2021-10-14 16:28:47.249828,204
2021-10-14 16:28:47.249837,204
2021-10-14 16:28:47.249845,206
2021-10-14 16:28:47.249853,194
2021-10-14 16:28:47.249862,170
2021-10-14 16:28:47.249870,151
2021-10-14 16:28:47.249878,125
2021-10-14 16:28:47.249886,88
2021-10-14 16:28:47.249895,52
2021-10-14 16:28:47.249903,9
2021-10-14 16:28:47.249911,-33
2021-10-14 16:28:47.249920,-52
2021-10-14 16:28:47.249928,-57
2021-10-14 16:28:47.249936,-76
2021-10-14 16:28:47.249944,-103
2021-10-14 16:28:47.249953,-113
2021-10-14 16:28:47.249961,-103
2021-10-14 16:28:47.249969,-98
2021-10-14 16:28:47.474334,-108
2021-10-14 16:28:47.474353,-101
2021-10-14 16:28:47.474362,-86
2021-10-14 16:28:47.474371,-93
2021-10-14 16:28:47.474379,-101
2021-10-14 16:28:47.474388,-86
2021-10-14 16:28:47.474396,-76
2021-10-14 16:28:47.474405,-72
2021-10-14 16:28:47.474413,-62
2021-10-14 16:28:47.474421,-55
2021-10-14 16:28:47.474429,-60
2021-10-14 16:28:47.474438,-60
2021-10-14 16:28:47.474446,-48
2021-10-14 16:28:47.474454,-43
2021-10-14 16:28:47.474462,-48
2021-10-14 16:28:47.474471,-57
2021-10-14 16:28:47.474479,-52
2021-10-14 16:28:47.474487,-43
2021-10-14 16:28:47.474495,-48
2021-10-14 16:28:47.474503,-48
2021-10-14 16:28:47.474512,-52
2021-10-14 16:28:47.474520,-64
2021-10-14 16:28:47.474528,-67
2021-10-14 16:28:47.474537,-67
2021-10-14 16:28:47.474545,-67
2021-10-14 16:28:47.474553,-60
2021-10-14 16:28:47.474561,-62
2021-10-14 16:28:47.474569,-74
2021-10-14 16:28:47.474577,-81
2021-10-14 16:28:47.474586,-67
2021-10-14 16:28:47.789068,-57
2021-10-14 16:28:47.789087,-62
2021-10-14 16:28:47.789097,-74
2021-10-14 16:28:47.789106,-81
2021-10-14 16:28:47.789115,-69
2021-10-14 16:28:47.789124,-52
2021-10-14 16:28:47.789133,-60
2021-10-14 16:28:47.789141,-69
2021-10-14 16:28:47.789150,-52
2021-10-14 16:28:47.789158,-45
2021-10-14 16:28:47.789167,-45
2021-10-14 16:28:47.789175,-26
2021-10-14 16:28:47.789184,-14
2021-10-14 16:28:47.789193,-38
2021-10-14 16:28:47.789202,-64
2021-10-14 16:28:47.789210,-60
2021-10-14 16:28:47.789219,-55
2021-10-14 16:28:47.789228,-55
2021-10-14 16:28:47.789236,-48
2021-10-14 16:28:47.789245,-48
2021-10-14 16:28:47.789254,-57
2021-10-14 16:28:47.789262,-43
2021-10-14 16:28:47.789271,-26
2021-10-14 16:28:47.789280,-24
2021-10-14 16:28:47.789288,-12
2021-10-14 16:28:47.789297,55
2021-10-14 16:28:47.789306,286
2021-10-14 16:28:47.789315,632
2021-10-14 16:28:47.789323,579
2021-10-14 16:28:47.789332,-257
2021-10-14 16:28:48.149034,-1070
2021-10-14 16:28:48.149054,-916
2021-10-14 16:28:48.149064,-382
2021-10-14 16:28:48.149073,-192
2021-10-14 16:28:48.149081,-81
2021-10-14 16:28:48.149089,64
2021-10-14 16:28:48.149098,79
2021-10-14 16:28:48.149106,57
2021-10-14 16:28:48.149114,84
2021-10-14 16:28:48.149123,88
2021-10-14 16:28:48.149131,81
2021-10-14 16:28:48.149139,96
2021-10-14 16:28:48.149147,110
2021-10-14 16:28:48.149156,105
2021-10-14 16:28:48.149164,105
2021-10-14 16:28:48.149172,115
2021-10-14 16:28:48.149181,125
2021-10-14 16:28:48.149189,132
2021-10-14 16:28:48.149197,149
2021-10-14 16:28:48.149205,163
2021-10-14 16:28:48.149214,165
2021-10-14 16:28:48.149222,163
2021-10-14 16:28:48.149231,182
2021-10-14 16:28:48.149239,216
2021-10-14 16:28:48.149247,233
2021-10-14 16:28:48.149255,233
2021-10-14 16:28:48.149264,216
2021-10-14 16:28:48.149272,197
2021-10-14 16:28:48.149280,199
2021-10-14 16:28:48.149288,199
2021-10-14 16:28:48.284720,168
2021-10-14 16:28:48.284740,134
2021-10-14 16:28:48.284750,101
2021-10-14 16:28:48.284758,52
2021-10-14 16:28:48.284767,14
2021-10-14 16:28:48.284775,-4
2021-10-14 16:28:48.284783,-26
2021-10-14 16:28:48.284792,-60
2021-10-14 16:28:48.284800,-84
2021-10-14 16:28:48.284808,-79
2021-10-14 16:28:48.284817,-72
2021-10-14 16:28:48.284825,-81
2021-10-14 16:28:48.284833,-88
2021-10-14 16:28:48.284842,-91
2021-10-14 16:28:48.284850,-96
2021-10-14 16:28:48.284858,-98
2021-10-14 16:28:48.284867,-84
2021-10-14 16:28:48.284875,-67
2021-10-14 16:28:48.284883,-60
2021-10-14 16:28:48.284891,-67
2021-10-14 16:28:48.284900,-57
2021-10-14 16:28:48.284908,-36
2021-10-14 16:28:48.284916,-36
2021-10-14 16:28:48.284924,-48
2021-10-14 16:28:48.284933,-40
2021-10-14 16:28:48.284941,-28
2021-10-14 16:28:48.284949,-31
2021-10-14 16:28:48.284958,-26
2021-10-14 16:28:48.284966,-16
2021-10-14 16:28:48.284977,-19
2021-10-14 16:28:48.464741,-28
2021-10-14 16:28:48.464760,-33
2021-10-14 16:28:48.464769,-45
2021-10-14 16:28:48.464778,-52
2021-10-14 16:28:48.464786,-48
2021-10-14 16:28:48.464795,-55
2021-10-14 16:28:48.464803,-74
2021-10-14 16:28:48.464811,-76
2021-10-14 16:28:48.464820,-64
2021-10-14 16:28:48.464828,-60
2021-10-14 16:28:48.464836,-64
2021-10-14 16:28:48.464845,-67
2021-10-14 16:28:48.464853,-72
2021-10-14 16:28:48.464861,-79
2021-10-14 16:28:48.464869,-84
2021-10-14 16:28:48.464877,-91
2021-10-14 16:28:48.464885,-91
2021-10-14 16:28:48.464894,-76
2021-10-14 16:28:48.464902,-67
2021-10-14 16:28:48.464910,-79
2021-10-14 16:28:48.464918,-76
2021-10-14 16:28:48.464927,-60
2021-10-14 16:28:48.464935,-52
2021-10-14 16:28:48.464943,-45
2021-10-14 16:28:48.464951,-33
2021-10-14 16:28:48.464960,-48
2021-10-14 16:28:48.464968,-76
2021-10-14 16:28:48.464976,-84
2021-10-14 16:28:48.464984,-69
2021-10-14 16:28:48.464992,-62
2021-10-14 16:28:48.644361,-64
2021-10-14 16:28:48.644380,-64
2021-10-14 16:28:48.644389,-62
2021-10-14 16:28:48.644397,-62
2021-10-14 16:28:48.644404,-57
2021-10-14 16:28:48.644412,-40
2021-10-14 16:28:48.644419,-31
2021-10-14 16:28:48.644427,7
2021-10-14 16:28:48.644435,189
2021-10-14 16:28:48.644443,555
2021-10-14 16:28:48.644451,731
2021-10-14 16:28:48.644458,151
2021-10-14 16:28:48.644466,-851
2021-10-14 16:28:48.644474,-1118
2021-10-14 16:28:48.644482,-577
2021-10-14 16:28:48.644490,-194
2021-10-14 16:28:48.644498,-115
2021-10-14 16:28:48.644505,7
2021-10-14 16:28:48.644513,81
2021-10-14 16:28:48.644521,57
2021-10-14 16:28:48.644528,60
2021-10-14 16:28:48.644535,84
2021-10-14 16:28:48.644543,86
2021-10-14 16:28:48.644551,84
2021-10-14 16:28:48.644559,86
2021-10-14 16:28:48.644566,98
2021-10-14 16:28:48.644574,117
2021-10-14 16:28:48.644582,120
2021-10-14 16:28:48.644590,115
2021-10-14 16:28:48.644598,120
2021-10-14 16:28:48.914819,139
2021-10-14 16:28:48.914840,158
2021-10-14 16:28:48.914850,170
2021-10-14 16:28:48.914858,175
2021-10-14 16:28:48.914866,177
2021-10-14 16:28:48.914875,177
2021-10-14 16:28:48.914883,185
2021-10-14 16:28:48.914891,194
2021-10-14 16:28:48.914900,187
2021-10-14 16:28:48.914908,170
2021-10-14 16:28:48.914916,158
2021-10-14 16:28:48.914924,141
2021-10-14 16:28:48.914932,122
2021-10-14 16:28:48.914941,101
2021-10-14 16:28:48.914949,64
2021-10-14 16:28:48.914957,31
2021-10-14 16:28:48.914966,2
2021-10-14 16:28:48.914974,-28
2021-10-14 16:28:48.914982,-50
2021-10-14 16:28:48.914991,-64
2021-10-14 16:28:48.914999,-79
2021-10-14 16:28:48.915007,-88
2021-10-14 16:28:48.915016,-91
2021-10-14 16:28:48.915024,-96
2021-10-14 16:28:48.915032,-101
2021-10-14 16:28:48.915040,-96
2021-10-14 16:28:48.915049,-88
2021-10-14 16:28:48.915057,-84
2021-10-14 16:28:48.915065,-74
2021-10-14 16:28:48.915073,-69
2021-10-14 16:28:49.094856,-64
2021-10-14 16:28:49.094876,-55
2021-10-14 16:28:49.094885,-52
2021-10-14 16:28:49.094894,-48
2021-10-14 16:28:49.094903,-38
2021-10-14 16:28:49.094911,-36
2021-10-14 16:28:49.094919,-36
2021-10-14 16:28:49.094928,-33
2021-10-14 16:28:49.094936,-26
2021-10-14 16:28:49.094944,-19
2021-10-14 16:28:49.094953,-16
2021-10-14 16:28:49.094961,-21
2021-10-14 16:28:49.094970,-28
2021-10-14 16:28:49.094978,-33
2021-10-14 16:28:49.094986,-28
2021-10-14 16:28:49.094994,-24
2021-10-14 16:28:49.095003,-31
2021-10-14 16:28:49.095011,-38
2021-10-14 16:28:49.095019,-33
2021-10-14 16:28:49.095028,-26
2021-10-14 16:28:49.095036,-28
2021-10-14 16:28:49.095044,-33
2021-10-14 16:28:49.095053,-40
2021-10-14 16:28:49.095061,-40
2021-10-14 16:28:49.095069,-31
2021-10-14 16:28:49.095078,-26
2021-10-14 16:28:49.095086,-31
2021-10-14 16:28:49.095094,-38
2021-10-14 16:28:49.095102,-45
2021-10-14 16:28:49.095111,-45
2021-10-14 16:28:49.319454,-43
2021-10-14 16:28:49.319475,-40
2021-10-14 16:28:49.319484,-38
2021-10-14 16:28:49.319493,-40
2021-10-14 16:28:49.319501,-43
2021-10-14 16:28:49.319510,-40
2021-10-14 16:28:49.319518,-28
2021-10-14 16:28:49.319526,-4
2021-10-14 16:28:49.319535,-7
2021-10-14 16:28:49.319543,-43
2021-10-14 16:28:49.319551,-72
2021-10-14 16:28:49.319559,-72
2021-10-14 16:28:49.319568,-64
2021-10-14 16:28:49.319576,-69
2021-10-14 16:28:49.319584,-72
2021-10-14 16:28:49.319593,-72
2021-10-14 16:28:49.319601,-67
2021-10-14 16:28:49.319609,-57
2021-10-14 16:28:49.319618,-40
2021-10-14 16:28:49.319626,-28
2021-10-14 16:28:49.319634,-7
2021-10-14 16:28:49.319642,113
2021-10-14 16:28:49.319651,456
2021-10-14 16:28:49.319659,747
2021-10-14 16:28:49.319667,353
2021-10-14 16:28:49.319676,-658
2021-10-14 16:28:49.319684,-1154
2021-10-14 16:28:49.319693,-675
2021-10-14 16:28:49.319701,-177
2021-10-14 16:28:49.319709,-91
2021-10-14 16:28:49.589747,0
2021-10-14 16:28:49.589765,98
2021-10-14 16:28:49.589775,69
2021-10-14 16:28:49.589784,45
2021-10-14 16:28:49.589792,81
2021-10-14 16:28:49.589801,93
2021-10-14 16:28:49.589809,93
2021-10-14 16:28:49.589818,98
2021-10-14 16:28:49.589826,93
2021-10-14 16:28:49.589834,93
2021-10-14 16:28:49.589843,108
2021-10-14 16:28:49.589851,117
2021-10-14 16:28:49.589859,117
2021-10-14 16:28:49.589868,132
2021-10-14 16:28:49.589876,146
2021-10-14 16:28:49.589884,144
2021-10-14 16:28:49.589893,149
2021-10-14 16:28:49.589901,168
2021-10-14 16:28:49.589909,185
2021-10-14 16:28:49.589918,197
2021-10-14 16:28:49.589926,206
2021-10-14 16:28:49.589934,209
2021-10-14 16:28:49.589943,199
2021-10-14 16:28:49.589951,187
2021-10-14 16:28:49.589959,180
2021-10-14 16:28:49.589968,165
2021-10-14 16:28:49.589976,134
2021-10-14 16:28:49.589984,103
2021-10-14 16:28:49.589993,76
2021-10-14 16:28:49.590001,40
2021-10-14 16:28:49.814731,9
2021-10-14 16:28:49.814750,-14
2021-10-14 16:28:49.814759,-36
2021-10-14 16:28:49.814767,-55
2021-10-14 16:28:49.814776,-67
2021-10-14 16:28:49.814784,-74
2021-10-14 16:28:49.814793,-74
2021-10-14 16:28:49.814801,-67
2021-10-14 16:28:49.814809,-76
2021-10-14 16:28:49.814818,-91
2021-10-14 16:28:49.814827,-84
2021-10-14 16:28:49.814835,-72
2021-10-14 16:28:49.814843,-72
2021-10-14 16:28:49.814852,-72
2021-10-14 16:28:49.814860,-72
2021-10-14 16:28:49.814868,-64
2021-10-14 16:28:49.814876,-55
2021-10-14 16:28:49.814884,-48
2021-10-14 16:28:49.814893,-50
2021-10-14 16:28:49.814901,-60
2021-10-14 16:28:49.814909,-69
2021-10-14 16:28:49.814917,-64
2021-10-14 16:28:49.814926,-48
2021-10-14 16:28:49.814934,-40
2021-10-14 16:28:49.814942,-45
2021-10-14 16:28:49.814951,-43
2021-10-14 16:28:49.814959,-40
2021-10-14 16:28:49.814967,-38
2021-10-14 16:28:49.814978,-43
2021-10-14 16:28:49.814987,-43
2021-10-14 16:28:50.083014,-36
2021-10-14 16:28:50.083033,-33
2021-10-14 16:28:50.083043,-36
2021-10-14 16:28:50.083051,-33
2021-10-14 16:28:50.083060,-36
2021-10-14 16:28:50.083068,-36
2021-10-14 16:28:50.083077,-28
2021-10-14 16:28:50.083085,-33
2021-10-14 16:28:50.083094,-52
2021-10-14 16:28:50.083102,-57
2021-10-14 16:28:50.083110,-48
2021-10-14 16:28:50.083119,-40
2021-10-14 16:28:50.083127,-36
2021-10-14 16:28:50.083135,-40
2021-10-14 16:28:50.083144,-57
2021-10-14 16:28:50.083152,-64
2021-10-14 16:28:50.083161,-52
2021-10-14 16:28:50.083169,-52
2021-10-14 16:28:50.083177,-62
2021-10-14 16:28:50.083186,-60
2021-10-14 16:28:50.083194,-60
2021-10-14 16:28:50.083202,-60
2021-10-14 16:28:50.083211,-52
2021-10-14 16:28:50.083219,-45
2021-10-14 16:28:50.083227,-33
2021-10-14 16:28:50.083236,-26
2021-10-14 16:28:50.083244,-19
2021-10-14 16:28:50.083252,-12
2021-10-14 16:28:50.083261,-28
2021-10-14 16:28:50.083269,-50
2021-10-14 16:28:50.309162,-48
2021-10-14 16:28:50.309181,-43
2021-10-14 16:28:50.309191,-48
2021-10-14 16:28:50.309199,-45
2021-10-14 16:28:50.309208,-36
2021-10-14 16:28:50.309216,-33
2021-10-14 16:28:50.309224,-48
2021-10-14 16:28:50.309232,-52
2021-10-14 16:28:50.309241,-38
2021-10-14 16:28:50.309249,-26
2021-10-14 16:28:50.309257,14
2021-10-14 16:28:50.309266,202
2021-10-14 16:28:50.309274,557
2021-10-14 16:28:50.309282,716
2021-10-14 16:28:50.309290,153
2021-10-14 16:28:50.309299,-815
2021-10-14 16:28:50.309307,-1065
2021-10-14 16:28:50.309315,-505
2021-10-14 16:28:50.309324,-122
2021-10-14 16:28:50.309332,-76
2021-10-14 16:28:50.309340,21
2021-10-14 16:28:50.309349,88
2021-10-14 16:28:50.309357,50
2021-10-14 16:28:50.309365,52
2021-10-14 16:28:50.309374,84
2021-10-14 16:28:50.309382,76
2021-10-14 16:28:50.309390,72
2021-10-14 16:28:50.309399,88
2021-10-14 16:28:50.309407,93
2021-10-14 16:28:50.309415,96
2021-10-14 16:28:50.534362,110
2021-10-14 16:28:50.534381,120
2021-10-14 16:28:50.534391,120
2021-10-14 16:28:50.534399,127
2021-10-14 16:28:50.534408,139
2021-10-14 16:28:50.534416,141
2021-10-14 16:28:50.534424,146
2021-10-14 16:28:50.534432,165
2021-10-14 16:28:50.534441,182
2021-10-14 16:28:50.534449,185
2021-10-14 16:28:50.534458,192
2021-10-14 16:28:50.534466,199
2021-10-14 16:28:50.534474,187
2021-10-14 16:28:50.534483,168
2021-10-14 16:28:50.534491,158
2021-10-14 16:28:50.534499,151
2021-10-14 16:28:50.534508,129
2021-10-14 16:28:50.534516,93
2021-10-14 16:28:50.534524,60
2021-10-14 16:28:50.534532,36
2021-10-14 16:28:50.534540,2
2021-10-14 16:28:50.534549,-31
2021-10-14 16:28:50.534557,-50
2021-10-14 16:28:50.534565,-67
2021-10-14 16:28:50.534573,-88
2021-10-14 16:28:50.534582,-88
2021-10-14 16:28:50.534590,-81
2021-10-14 16:28:50.534598,-86
2021-10-14 16:28:50.534606,-101
2021-10-14 16:28:50.534614,-98
2021-10-14 16:28:50.714388,-81
2021-10-14 16:28:50.714407,-69
2021-10-14 16:28:50.714416,-72
2021-10-14 16:28:50.714425,-64
2021-10-14 16:28:50.714433,-48
2021-10-14 16:28:50.714441,-50
2021-10-14 16:28:50.714450,-60
2021-10-14 16:28:50.714458,-40
2021-10-14 16:28:50.714466,-21
2021-10-14 16:28:50.714475,-26
2021-10-14 16:28:50.714483,-33
2021-10-14 16:28:50.714491,-31
2021-10-14 16:28:50.714499,-31
2021-10-14 16:28:50.714507,-24
2021-10-14 16:28:50.714516,-26
2021-10-14 16:28:50.714524,-33
2021-10-14 16:28:50.714532,-31
2021-10-14 16:28:50.714540,-33
2021-10-14 16:28:50.714549,-36
2021-10-14 16:28:50.714557,-33
2021-10-14 16:28:50.714565,-31
2021-10-14 16:28:50.714573,-33
2021-10-14 16:28:50.714581,-36
2021-10-14 16:28:50.714590,-33
2021-10-14 16:28:50.714598,-31
2021-10-14 16:28:50.714606,-40
2021-10-14 16:28:50.714614,-52
2021-10-14 16:28:50.714623,-55
2021-10-14 16:28:50.714631,-48
2021-10-14 16:28:50.714639,-48
2021-10-14 16:28:50.939381,-45
2021-10-14 16:28:50.939400,-55
2021-10-14 16:28:50.939409,-74
2021-10-14 16:28:50.939418,-79
2021-10-14 16:28:50.939426,-76
2021-10-14 16:28:50.939435,-86
2021-10-14 16:28:50.939443,-86
2021-10-14 16:28:50.939451,-69
2021-10-14 16:28:50.939460,-64
2021-10-14 16:28:50.939468,-67
2021-10-14 16:28:50.939476,-60
2021-10-14 16:28:50.939485,-52
2021-10-14 16:28:50.939493,-52
2021-10-14 16:28:50.939501,-38
2021-10-14 16:28:50.939510,-33
2021-10-14 16:28:50.939518,-55
2021-10-14 16:28:50.939526,-69
2021-10-14 16:28:50.939534,-69
2021-10-14 16:28:50.939543,-67
2021-10-14 16:28:50.939551,-67
2021-10-14 16:28:50.939559,-60
2021-10-14 16:28:50.939568,-50
2021-10-14 16:28:50.939576,-55
2021-10-14 16:28:50.939584,-55
2021-10-14 16:28:50.939592,-33
2021-10-14 16:28:50.939601,-24
2021-10-14 16:28:50.939609,-14
2021-10-14 16:28:50.939617,84
2021-10-14 16:28:50.939626,372
2021-10-14 16:28:50.939634,687
2021-10-14 16:28:51.164411,461
2021-10-14 16:28:51.164431,-459
2021-10-14 16:28:51.164440,-1091
2021-10-14 16:28:51.164449,-774
2021-10-14 16:28:51.164458,-298
2021-10-14 16:28:51.164466,-163
2021-10-14 16:28:51.164474,-43
2021-10-14 16:28:51.164483,74
2021-10-14 16:28:51.164491,67
2021-10-14 16:28:51.164499,60
2021-10-14 16:28:51.164508,86
2021-10-14 16:28:51.164516,81
2021-10-14 16:28:51.164524,74
2021-10-14 16:28:51.164533,91
2021-10-14 16:28:51.164541,98
2021-10-14 16:28:51.164549,103
2021-10-14 16:28:51.164557,117
2021-10-14 16:28:51.164566,125
2021-10-14 16:28:51.164574,125
2021-10-14 16:28:51.164582,139
2021-10-14 16:28:51.164590,158
2021-10-14 16:28:51.164599,153
2021-10-14 16:28:51.164607,151
2021-10-14 16:28:51.164615,180
2021-10-14 16:28:51.164623,209
2021-10-14 16:28:51.164632,211
2021-10-14 16:28:51.164640,214
2021-10-14 16:28:51.164648,226
2021-10-14 16:28:51.164657,216
2021-10-14 16:28:51.164665,197
2021-10-14 16:28:51.523767,192
2021-10-14 16:28:51.523786,182
2021-10-14 16:28:51.523795,151
2021-10-14 16:28:51.523804,115
2021-10-14 16:28:51.523812,79
2021-10-14 16:28:51.523820,48
2021-10-14 16:28:51.523829,7
2021-10-14 16:28:51.523837,-43
2021-10-14 16:28:51.523846,-69
2021-10-14 16:28:51.523854,-91
2021-10-14 16:28:51.523862,-110
2021-10-14 16:28:51.523871,-108
2021-10-14 16:28:51.523879,-103
2021-10-14 16:28:51.523887,-105
2021-10-14 16:28:51.523896,-103
2021-10-14 16:28:51.523904,-101
2021-10-14 16:28:51.523912,-98
2021-10-14 16:28:51.523920,-88
2021-10-14 16:28:51.523929,-86
2021-10-14 16:28:51.523937,-81
2021-10-14 16:28:51.523945,-69
2021-10-14 16:28:51.523953,-60
2021-10-14 16:28:51.523961,-57
2021-10-14 16:28:51.523970,-50
2021-10-14 16:28:51.523978,-40
2021-10-14 16:28:51.523986,-38
2021-10-14 16:28:51.523994,-28
2021-10-14 16:28:51.524002,-16
2021-10-14 16:28:51.524010,-14
2021-10-14 16:28:51.524018,-24
2021-10-14 16:28:51.659810,-24
2021-10-14 16:28:51.659828,-26
2021-10-14 16:28:51.659837,-36
2021-10-14 16:28:51.659844,-40
2021-10-14 16:28:51.659852,-36
2021-10-14 16:28:51.659859,-28
2021-10-14 16:28:51.659866,-19
2021-10-14 16:28:51.659873,-21
2021-10-14 16:28:51.659881,-45
2021-10-14 16:28:51.659889,-64
2021-10-14 16:28:51.659896,-50
2021-10-14 16:28:51.659903,-36
2021-10-14 16:28:51.659910,-40
2021-10-14 16:28:51.659918,-40
2021-10-14 16:28:51.659925,-48
2021-10-14 16:28:51.659932,-57
2021-10-14 16:28:51.659939,-48
2021-10-14 16:28:51.659947,-52
2021-10-14 16:28:51.659954,-67
2021-10-14 16:28:51.659962,-64
2021-10-14 16:28:51.659969,-62
2021-10-14 16:28:51.659976,-69
2021-10-14 16:28:51.660004,-67
2021-10-14 16:28:51.660029,-60
2021-10-14 16:28:51.660039,-50
2021-10-14 16:28:51.660048,-33
2021-10-14 16:28:51.660056,-36
2021-10-14 16:28:51.660064,-40
2021-10-14 16:28:51.660073,-19
2021-10-14 16:28:51.660081,-4
2021-10-14 16:28:51.929394,-31
2021-10-14 16:28:51.929413,-55
2021-10-14 16:28:51.929423,-57
2021-10-14 16:28:51.929431,-60
2021-10-14 16:28:51.929440,-69
2021-10-14 16:28:51.929448,-64
2021-10-14 16:28:51.929457,-48
2021-10-14 16:28:51.929465,-45
2021-10-14 16:28:51.929474,-60
2021-10-14 16:28:51.929482,-50
2021-10-14 16:28:51.929491,-28
2021-10-14 16:28:51.929499,-12
2021-10-14 16:28:51.929507,72
2021-10-14 16:28:51.929516,346
2021-10-14 16:28:51.929524,685
2021-10-14 16:28:51.929532,521
2021-10-14 16:28:51.929540,-396
2021-10-14 16:28:51.929549,-1144
2021-10-14 16:28:51.929557,-877
2021-10-14 16:28:51.929565,-322
2021-10-14 16:28:51.929573,-158
2021-10-14 16:28:51.929581,-64
2021-10-14 16:28:51.929590,60
2021-10-14 16:28:51.929598,62
2021-10-14 16:28:51.929606,50
2021-10-14 16:28:51.929614,81
2021-10-14 16:28:51.929623,86
2021-10-14 16:28:51.929631,81
2021-10-14 16:28:51.929639,91
2021-10-14 16:28:51.929647,98
2021-10-14 16:28:52.244078,110
2021-10-14 16:28:52.244097,120
2021-10-14 16:28:52.244105,117
2021-10-14 16:28:52.244113,122
2021-10-14 16:28:52.244120,129
2021-10-14 16:28:52.244127,137
2021-10-14 16:28:52.244134,141
2021-10-14 16:28:52.244142,151
2021-10-14 16:28:52.244149,161
2021-10-14 16:28:52.244157,170
2021-10-14 16:28:52.244164,185
2021-10-14 16:28:52.244172,202
2021-10-14 16:28:52.244179,206
2021-10-14 16:28:52.244187,194
2021-10-14 16:28:52.244194,180
2021-10-14 16:28:52.244201,168
2021-10-14 16:28:52.244208,158
2021-10-14 16:28:52.244215,144
2021-10-14 16:28:52.244223,113
2021-10-14 16:28:52.244231,62
2021-10-14 16:28:52.244240,16
2021-10-14 16:28:52.244248,-12
2021-10-14 16:28:52.244257,-36
2021-10-14 16:28:52.244265,-57
2021-10-14 16:28:52.244272,-72
2021-10-14 16:28:52.244280,-88
2021-10-14 16:28:52.244288,-98
2021-10-14 16:28:52.244296,-93
2021-10-14 16:28:52.244303,-88
2021-10-14 16:28:52.244311,-93
2021-10-14 16:28:52.334755,-101
2021-10-14 16:28:52.334774,-93
2021-10-14 16:28:52.334783,-84
2021-10-14 16:28:52.334792,-81
2021-10-14 16:28:52.334800,-81
2021-10-14 16:28:52.334809,-69
2021-10-14 16:28:52.334817,-60
2021-10-14 16:28:52.334825,-62
2021-10-14 16:28:52.334833,-67
2021-10-14 16:28:52.334842,-50
2021-10-14 16:28:52.334850,-33
2021-10-14 16:28:52.334858,-36
2021-10-14 16:28:52.334866,-43
2021-10-14 16:28:52.334875,-45
2021-10-14 16:28:52.334883,-43
2021-10-14 16:28:52.334891,-36
2021-10-14 16:28:52.334899,-24
2021-10-14 16:28:52.334908,-26
2021-10-14 16:28:52.334916,-45
2021-10-14 16:28:52.334924,-60
2021-10-14 16:28:52.334932,-57
2021-10-14 16:28:52.334941,-52
2021-10-14 16:28:52.334949,-57
2021-10-14 16:28:52.334957,-67
2021-10-14 16:28:52.334965,-76
2021-10-14 16:28:52.334973,-76
2021-10-14 16:28:52.334981,-74
2021-10-14 16:28:52.334989,-74
2021-10-14 16:28:52.334998,-69
2021-10-14 16:28:52.335006,-69
2021-10-14 16:28:52.604838,-81
2021-10-14 16:28:52.604857,-88
2021-10-14 16:28:52.604866,-81
2021-10-14 16:28:52.604875,-76
2021-10-14 16:28:52.604884,-76
2021-10-14 16:28:52.604892,-86
2021-10-14 16:28:52.604900,-93
2021-10-14 16:28:52.604909,-79
2021-10-14 16:28:52.604917,-62
2021-10-14 16:28:52.604925,-64
2021-10-14 16:28:52.604934,-76
2021-10-14 16:28:52.604942,-64
2021-10-14 16:28:52.604950,-48
2021-10-14 16:28:52.604959,-62
2021-10-14 16:28:52.604967,-88
2021-10-14 16:28:52.604975,-98
2021-10-14 16:28:52.604983,-91
2021-10-14 16:28:52.604992,-86
2021-10-14 16:28:52.605000,-84
2021-10-14 16:28:52.605008,-76
2021-10-14 16:28:52.605017,-69
2021-10-14 16:28:52.605028,-62
2021-10-14 16:28:52.605037,-57
2021-10-14 16:28:52.605045,-55
2021-10-14 16:28:52.605053,-45
2021-10-14 16:28:52.605062,-9
2021-10-14 16:28:52.605070,149
2021-10-14 16:28:52.605078,524
2021-10-14 16:28:52.605086,762
2021-10-14 16:28:52.605095,240
2021-10-14 16:28:52.784782,-786
2021-10-14 16:28:52.784801,-1132
2021-10-14 16:28:52.784810,-591
2021-10-14 16:28:52.784819,-170
2021-10-14 16:28:52.784827,-115
2021-10-14 16:28:52.784836,-14
2021-10-14 16:28:52.784844,76
2021-10-14 16:28:52.784852,50
2021-10-14 16:28:52.784860,52
2021-10-14 16:28:52.784869,84
2021-10-14 16:28:52.784877,76
2021-10-14 16:28:52.784885,69
2021-10-14 16:28:52.784893,84
2021-10-14 16:28:52.784901,91
2021-10-14 16:28:52.784910,96
2021-10-14 16:28:52.784918,108
2021-10-14 16:28:52.784926,110
2021-10-14 16:28:52.784934,110
2021-10-14 16:28:52.784942,125
2021-10-14 16:28:52.784951,134
2021-10-14 16:28:52.784959,132
2021-10-14 16:28:52.784967,146
2021-10-14 16:28:52.784975,165
2021-10-14 16:28:52.784983,173
2021-10-14 16:28:52.784991,177
2021-10-14 16:28:52.785000,185
2021-10-14 16:28:52.785008,187
2021-10-14 16:28:52.785016,182
2021-10-14 16:28:52.785024,170
2021-10-14 16:28:52.785032,158
2021-10-14 16:28:53.009773,139
2021-10-14 16:28:53.009792,110
2021-10-14 16:28:53.009802,88
2021-10-14 16:28:53.009810,57
2021-10-14 16:28:53.009818,9
2021-10-14 16:28:53.009827,-26
2021-10-14 16:28:53.009835,-43
2021-10-14 16:28:53.009843,-64
2021-10-14 16:28:53.009852,-86
2021-10-14 16:28:53.009860,-96
2021-10-14 16:28:53.009868,-108
2021-10-14 16:28:53.009877,-117
2021-10-14 16:28:53.009885,-108
2021-10-14 16:28:53.009893,-101
2021-10-14 16:28:53.009902,-108
2021-10-14 16:28:53.009910,-110
2021-10-14 16:28:53.009918,-108
2021-10-14 16:28:53.009926,-103
2021-10-14 16:28:53.009935,-93
2021-10-14 16:28:53.009943,-81
2021-10-14 16:28:53.009951,-67
2021-10-14 16:28:53.009960,-62
2021-10-14 16:28:53.009968,-62
2021-10-14 16:28:53.009976,-55
2021-10-14 16:28:53.009985,-43
2021-10-14 16:28:53.009993,-33
2021-10-14 16:28:53.010001,-26
2021-10-14 16:28:53.010010,-31
2021-10-14 16:28:53.010018,-28
2021-10-14 16:28:53.010026,-19
2021-10-14 16:28:53.279855,-14
2021-10-14 16:28:53.279876,-21
2021-10-14 16:28:53.279886,-26
2021-10-14 16:28:53.279895,-33
2021-10-14 16:28:53.279903,-45
2021-10-14 16:28:53.279912,-50
2021-10-14 16:28:53.279920,-43
2021-10-14 16:28:53.279929,-33
2021-10-14 16:28:53.279937,-36
2021-10-14 16:28:53.279945,-50
2021-10-14 16:28:53.279954,-60
2021-10-14 16:28:53.279962,-57
2021-10-14 16:28:53.279970,-50
2021-10-14 16:28:53.279978,-55
2021-10-14 16:28:53.279987,-64
2021-10-14 16:28:53.279995,-64
2021-10-14 16:28:53.280003,-67
2021-10-14 16:28:53.280012,-64
2021-10-14 16:28:53.280020,-52
2021-10-14 16:28:53.280028,-50
2021-10-14 16:28:53.280037,-52
2021-10-14 16:28:53.280045,-43
2021-10-14 16:28:53.280053,-43
2021-10-14 16:28:53.280062,-45
2021-10-14 16:28:53.280070,-40
2021-10-14 16:28:53.280078,-24
2021-10-14 16:28:53.280086,-14
2021-10-14 16:28:53.280095,-9
2021-10-14 16:28:53.280103,9
2021-10-14 16:28:53.280111,12
2021-10-14 16:28:53.504792,-31
2021-10-14 16:28:53.504811,-62
2021-10-14 16:28:53.504820,-52
2021-10-14 16:28:53.504829,-60
2021-10-14 16:28:53.504837,-69
2021-10-14 16:28:53.504846,-57
2021-10-14 16:28:53.504854,-48
2021-10-14 16:28:53.504862,-38
2021-10-14 16:28:53.504871,-33
2021-10-14 16:28:53.504879,-43
2021-10-14 16:28:53.504887,-40
2021-10-14 16:28:53.504896,-9
2021-10-14 16:28:53.504904,101
2021-10-14 16:28:53.504912,401
2021-10-14 16:28:53.504921,738
2021-10-14 16:28:53.504929,521
2021-10-14 16:28:53.504937,-425
2021-10-14 16:28:53.504945,-1135
2021-10-14 16:28:53.504953,-808
2021-10-14 16:28:53.504962,-228
2021-10-14 16:28:53.504970,-105
2021-10-14 16:28:53.504978,-55
2021-10-14 16:28:53.504986,69
2021-10-14 16:28:53.504995,79
2021-10-14 16:28:53.505003,62
2021-10-14 16:28:53.505011,93
2021-10-14 16:28:53.505019,103
2021-10-14 16:28:53.505028,101
2021-10-14 16:28:53.505036,120
2021-10-14 16:28:53.505044,125
2021-10-14 16:28:53.729398,110
2021-10-14 16:28:53.729417,110
2021-10-14 16:28:53.729426,120
2021-10-14 16:28:53.729435,125
2021-10-14 16:28:53.729443,137
2021-10-14 16:28:53.729451,153
2021-10-14 16:28:53.729460,165
2021-10-14 16:28:53.729468,173
2021-10-14 16:28:53.729476,175
2021-10-14 16:28:53.729485,182
2021-10-14 16:28:53.729493,199
2021-10-14 16:28:53.729501,211
2021-10-14 16:28:53.729510,214
2021-10-14 16:28:53.729518,204
2021-10-14 16:28:53.729526,197
2021-10-14 16:28:53.729535,194
2021-10-14 16:28:53.729543,173
2021-10-14 16:28:53.729554,146
2021-10-14 16:28:53.729562,129
2021-10-14 16:28:53.729571,101
2021-10-14 16:28:53.729579,50
2021-10-14 16:28:53.729588,7
2021-10-14 16:28:53.729596,-2
2021-10-14 16:28:53.729604,-14
2021-10-14 16:28:53.729613,-45
2021-10-14 16:28:53.729621,-62
2021-10-14 16:28:53.729629,-62
2021-10-14 16:28:53.729637,-62
2021-10-14 16:28:53.729646,-67
2021-10-14 16:28:53.729654,-72
2021-10-14 16:28:53.999768,-67
2021-10-14 16:28:53.999786,-60
2021-10-14 16:28:53.999796,-60
2021-10-14 16:28:53.999804,-62
2021-10-14 16:28:53.999812,-55
2021-10-14 16:28:53.999821,-50
2021-10-14 16:28:53.999829,-67
2021-10-14 16:28:53.999837,-79
2021-10-14 16:28:53.999845,-69
2021-10-14 16:28:53.999854,-52
2021-10-14 16:28:53.999862,-43
2021-10-14 16:28:53.999870,-33
2021-10-14 16:28:53.999878,-28
2021-10-14 16:28:53.999886,-38
2021-10-14 16:28:53.999895,-43
2021-10-14 16:28:53.999903,-38
2021-10-14 16:28:53.999911,-33
2021-10-14 16:28:53.999919,-26
2021-10-14 16:28:53.999927,-26
2021-10-14 16:28:53.999936,-33
2021-10-14 16:28:53.999944,-36
2021-10-14 16:28:53.999952,-36
2021-10-14 16:28:53.999960,-45
2021-10-14 16:28:53.999969,-50
2021-10-14 16:28:53.999977,-50
2021-10-14 16:28:53.999985,-50
2021-10-14 16:28:53.999993,-48
2021-10-14 16:28:54.000002,-48
2021-10-14 16:28:54.000010,-40
2021-10-14 16:28:54.000019,-36
2021-10-14 16:28:54.357948,-45
2021-10-14 16:28:54.357967,-55
2021-10-14 16:28:54.357977,-52
2021-10-14 16:28:54.357985,-60
2021-10-14 16:28:54.357994,-57
2021-10-14 16:28:54.358002,-48
2021-10-14 16:28:54.358011,-52
2021-10-14 16:28:54.358019,-64
2021-10-14 16:28:54.358028,-64
2021-10-14 16:28:54.358036,-64
2021-10-14 16:28:54.358044,-60
2021-10-14 16:28:54.358053,-45
2021-10-14 16:28:54.358061,-40
2021-10-14 16:28:54.358069,-45
2021-10-14 16:28:54.358077,-38
2021-10-14 16:28:54.358086,-24
2021-10-14 16:28:54.358094,-19
2021-10-14 16:28:54.358103,-12
2021-10-14 16:28:54.358111,-16
2021-10-14 16:28:54.358119,-40
2021-10-14 16:28:54.358128,-52
2021-10-14 16:28:54.358136,-57
2021-10-14 16:28:54.358144,-60
2021-10-14 16:28:54.358152,-52
2021-10-14 16:28:54.358161,-52
2021-10-14 16:28:54.358208,-55
2021-10-14 16:28:54.358222,-48
2021-10-14 16:28:54.358231,-38
2021-10-14 16:28:54.358240,-31
2021-10-14 16:28:54.358248,-24
2021-10-14 16:28:54.448798,-4
2021-10-14 16:28:54.448816,96
2021-10-14 16:28:54.448825,396
2021-10-14 16:28:54.448834,733
2021-10-14 16:28:54.448842,514
2021-10-14 16:28:54.448851,-437
2021-10-14 16:28:54.448859,-1123
2021-10-14 16:28:54.448867,-803
2021-10-14 16:28:54.448875,-278
2021-10-14 16:28:54.448884,-139
2021-10-14 16:28:54.448892,-38
2021-10-14 16:28:54.448900,76
2021-10-14 16:28:54.448908,60
2021-10-14 16:28:54.448917,50
2021-10-14 16:28:54.448925,88
2021-10-14 16:28:54.448933,86
2021-10-14 16:28:54.448942,76
2021-10-14 16:28:54.448950,91
2021-10-14 16:28:54.448958,96
2021-10-14 16:28:54.448966,93
2021-10-14 16:28:54.448974,101
2021-10-14 16:28:54.448983,110
2021-10-14 16:28:54.448991,110
2021-10-14 16:28:54.448999,110
2021-10-14 16:28:54.449008,117
2021-10-14 16:28:54.449016,137
2021-10-14 16:28:54.449024,149
2021-10-14 16:28:54.449032,149
2021-10-14 16:28:54.449041,161
2021-10-14 16:28:54.449049,182
2021-10-14 16:28:54.629783,192
2021-10-14 16:28:54.629801,204
2021-10-14 16:28:54.629811,211
2021-10-14 16:28:54.629819,202
2021-10-14 16:28:54.629828,185
2021-10-14 16:28:54.629836,158
2021-10-14 16:28:54.629845,139
2021-10-14 16:28:54.629853,120
2021-10-14 16:28:54.629861,79
2021-10-14 16:28:54.629870,38
2021-10-14 16:28:54.629878,12
2021-10-14 16:28:54.629886,-19
2021-10-14 16:28:54.629895,-45
2021-10-14 16:28:54.629903,-64
2021-10-14 16:28:54.629911,-86
2021-10-14 16:28:54.629919,-93
2021-10-14 16:28:54.629928,-88
2021-10-14 16:28:54.629936,-86
2021-10-14 16:28:54.629944,-79
2021-10-14 16:28:54.629952,-74
2021-10-14 16:28:54.629961,-79
2021-10-14 16:28:54.629969,-81
2021-10-14 16:28:54.629977,-76
2021-10-14 16:28:54.629985,-67
2021-10-14 16:28:54.629994,-55
2021-10-14 16:28:54.630002,-43
2021-10-14 16:28:54.630010,-38
2021-10-14 16:28:54.630019,-40
2021-10-14 16:28:54.630027,-43
2021-10-14 16:28:54.630035,-43
2021-10-14 16:28:54.854435,-36
2021-10-14 16:28:54.854454,-26
2021-10-14 16:28:54.854463,-24
2021-10-14 16:28:54.854472,-21
2021-10-14 16:28:54.854480,-24
2021-10-14 16:28:54.854488,-26
2021-10-14 16:28:54.854497,-26
2021-10-14 16:28:54.854505,-31
2021-10-14 16:28:54.854513,-33
2021-10-14 16:28:54.854521,-40
2021-10-14 16:28:54.854529,-50
2021-10-14 16:28:54.854538,-57
2021-10-14 16:28:54.854546,-45
2021-10-14 16:28:54.854554,-33
2021-10-14 16:28:54.854562,-40
2021-10-14 16:28:54.854570,-55
2021-10-14 16:28:54.854579,-55
2021-10-14 16:28:54.854587,-57
2021-10-14 16:28:54.854596,-64
2021-10-14 16:28:54.854604,-69
2021-10-14 16:28:54.854612,-76
2021-10-14 16:28:54.854620,-74
2021-10-14 16:28:54.854629,-62
2021-10-14 16:28:54.854637,-60
2021-10-14 16:28:54.854645,-64
2021-10-14 16:28:54.854654,-55
2021-10-14 16:28:54.854662,-38
2021-10-14 16:28:54.854670,-43
2021-10-14 16:28:54.854678,-45
2021-10-14 16:28:54.854687,-26
2021-10-14 16:28:55.079420,-28
2021-10-14 16:28:55.079440,-38
2021-10-14 16:28:55.079449,-14
2021-10-14 16:28:55.079457,-14
2021-10-14 16:28:55.079466,-60
2021-10-14 16:28:55.079474,-69
2021-10-14 16:28:55.079482,-52
2021-10-14 16:28:55.079490,-52
2021-10-14 16:28:55.079498,-57
2021-10-14 16:28:55.079507,-60
2021-10-14 16:28:55.079515,-57
2021-10-14 16:28:55.079523,-50
2021-10-14 16:28:55.079531,-45
2021-10-14 16:28:55.079540,-33
2021-10-14 16:28:55.079548,-14
2021-10-14 16:28:55.079556,4
2021-10-14 16:28:55.079564,115
2021-10-14 16:28:55.079573,442
2021-10-14 16:28:55.079581,767
2021-10-14 16:28:55.079589,464
2021-10-14 16:28:55.079597,-533
2021-10-14 16:28:55.079605,-1139
2021-10-14 16:28:55.079614,-735
2021-10-14 16:28:55.079622,-216
2021-10-14 16:28:55.079630,-108
2021-10-14 16:28:55.079638,-7
2021-10-14 16:28:55.079647,108
2021-10-14 16:28:55.079655,86
2021-10-14 16:28:55.079663,76
2021-10-14 16:28:55.079671,122
2021-10-14 16:28:55.349850,132
2021-10-14 16:28:55.349870,115
2021-10-14 16:28:55.349879,105
2021-10-14 16:28:55.349888,103
2021-10-14 16:28:55.349896,115
2021-10-14 16:28:55.349904,134
2021-10-14 16:28:55.349913,132
2021-10-14 16:28:55.349921,132
2021-10-14 16:28:55.349930,141
2021-10-14 16:28:55.349938,146
2021-10-14 16:28:55.349946,161
2021-10-14 16:28:55.349954,185
2021-10-14 16:28:55.349963,194
2021-10-14 16:28:55.349971,199
2021-10-14 16:28:55.349979,216
2021-10-14 16:28:55.349987,230
2021-10-14 16:28:55.349996,233
2021-10-14 16:28:55.350004,230
2021-10-14 16:28:55.350012,223
2021-10-14 16:28:55.350020,206
2021-10-14 16:28:55.350029,180
2021-10-14 16:28:55.350037,153
2021-10-14 16:28:55.350045,125
2021-10-14 16:28:55.350053,84
2021-10-14 16:28:55.350062,45
2021-10-14 16:28:55.350070,24
2021-10-14 16:28:55.350078,4
2021-10-14 16:28:55.350087,-21
2021-10-14 16:28:55.350095,-36
2021-10-14 16:28:55.350103,-48
2021-10-14 16:28:55.574798,-60
2021-10-14 16:28:55.574817,-60
2021-10-14 16:28:55.574826,-62
2021-10-14 16:28:55.574835,-69
2021-10-14 16:28:55.574843,-72
2021-10-14 16:28:55.574852,-64
2021-10-14 16:28:55.574860,-52
2021-10-14 16:28:55.574868,-52
2021-10-14 16:28:55.574877,-67
2021-10-14 16:28:55.574885,-57
2021-10-14 16:28:55.574893,-36
2021-10-14 16:28:55.574901,-26
2021-10-14 16:28:55.574910,-26
2021-10-14 16:28:55.574918,-24
2021-10-14 16:28:55.574926,-26
2021-10-14 16:28:55.574935,-24
2021-10-14 16:28:55.574943,-14
2021-10-14 16:28:55.574951,-4
2021-10-14 16:28:55.574959,-2
2021-10-14 16:28:55.574968,-2
2021-10-14 16:28:55.574976,-2
2021-10-14 16:28:55.574984,-4
2021-10-14 16:28:55.574992,-7
2021-10-14 16:28:55.575000,-2
2021-10-14 16:28:55.575009,2
2021-10-14 16:28:55.575017,-2
2021-10-14 16:28:55.575025,-14
2021-10-14 16:28:55.575033,-16
2021-10-14 16:28:55.575042,-12
2021-10-14 16:28:55.575050,-4
2021-10-14 16:28:55.889816,-4
2021-10-14 16:28:55.889835,-14
2021-10-14 16:28:55.889845,-19
2021-10-14 16:28:55.889853,-24
2021-10-14 16:28:55.889862,-33
2021-10-14 16:28:55.889870,-33
2021-10-14 16:28:55.889879,-28
2021-10-14 16:28:55.889887,-40
2021-10-14 16:28:55.889895,-52
2021-10-14 16:28:55.889904,-45
2021-10-14 16:28:55.889912,-38
2021-10-14 16:28:55.889920,-36
2021-10-14 16:28:55.889929,-26
2021-10-14 16:28:55.889937,-28
2021-10-14 16:28:55.889945,-43
2021-10-14 16:28:55.889953,-50
2021-10-14 16:28:55.889961,-38
2021-10-14 16:28:55.889970,-24
2021-10-14 16:28:55.889978,-21
2021-10-14 16:28:55.889986,-16
2021-10-14 16:28:55.889995,-7
2021-10-14 16:28:55.890003,0
2021-10-14 16:28:55.890011,19
2021-10-14 16:28:55.890020,21
2021-10-14 16:28:55.890028,-12
2021-10-14 16:28:55.890036,-36
2021-10-14 16:28:55.890044,-33
2021-10-14 16:28:55.890053,-26
2021-10-14 16:28:55.890061,-31
2021-10-14 16:28:55.890069,-33
2021-10-14 16:28:56.068828,-33
2021-10-14 16:28:56.068848,-33
2021-10-14 16:28:56.068857,-26
2021-10-14 16:28:56.068866,-12
2021-10-14 16:28:56.068874,-4
2021-10-14 16:28:56.068882,21
2021-10-14 16:28:56.068891,163
2021-10-14 16:28:56.068899,507
2021-10-14 16:28:56.068907,767
2021-10-14 16:28:56.068916,346
2021-10-14 16:28:56.068924,-661
2021-10-14 16:28:56.068932,-1135
2021-10-14 16:28:56.068941,-651
2021-10-14 16:28:56.068949,-168
2021-10-14 16:28:56.068966,-91
2021-10-14 16:28:56.068974,0
2021-10-14 16:28:56.068982,101
2021-10-14 16:28:56.068991,72
2021-10-14 16:28:56.068999,62
2021-10-14 16:28:56.069008,103
2021-10-14 16:28:56.069016,105
2021-10-14 16:28:56.069025,93
2021-10-14 16:28:56.069033,105
2021-10-14 16:28:56.069041,117
2021-10-14 16:28:56.069049,113
2021-10-14 16:28:56.069058,105
2021-10-14 16:28:56.069066,113
2021-10-14 16:28:56.069074,129
2021-10-14 16:28:56.069083,137
2021-10-14 16:28:56.069091,146
2021-10-14 16:28:56.338775,156
2021-10-14 16:28:56.338795,163
2021-10-14 16:28:56.338805,175
2021-10-14 16:28:56.338813,197
2021-10-14 16:28:56.338822,211
2021-10-14 16:28:56.338830,209
2021-10-14 16:28:56.338839,199
2021-10-14 16:28:56.338847,199
2021-10-14 16:28:56.338856,194
2021-10-14 16:28:56.338864,177
2021-10-14 16:28:56.338872,158
2021-10-14 16:28:56.338881,134
2021-10-14 16:28:56.338889,96
2021-10-14 16:28:56.338897,67
2021-10-14 16:28:56.338906,38
2021-10-14 16:28:56.338914,2
2021-10-14 16:28:56.338922,-21
2021-10-14 16:28:56.338931,-43
2021-10-14 16:28:56.338939,-60
2021-10-14 16:28:56.338947,-67
2021-10-14 16:28:56.338956,-74
2021-10-14 16:28:56.338964,-81
2021-10-14 16:28:56.338972,-76
2021-10-14 16:28:56.338980,-76
2021-10-14 16:28:56.338988,-84
2021-10-14 16:28:56.338997,-79
2021-10-14 16:28:56.339005,-62
2021-10-14 16:28:56.339013,-55
2021-10-14 16:28:56.339021,-55
2021-10-14 16:28:56.339030,-50
2021-10-14 16:28:56.519474,-48
2021-10-14 16:28:56.519492,-43
2021-10-14 16:28:56.519501,-36
2021-10-14 16:28:56.519561,-31
2021-10-14 16:28:56.519570,-43
2021-10-14 16:28:56.519579,-50
2021-10-14 16:28:56.519587,-33
2021-10-14 16:28:56.519595,-21
2021-10-14 16:28:56.519603,-26
2021-10-14 16:28:56.519612,-38
2021-10-14 16:28:56.519620,-43
2021-10-14 16:28:56.519628,-45
2021-10-14 16:28:56.519637,-52
2021-10-14 16:28:56.519645,-60
2021-10-14 16:28:56.519653,-60
2021-10-14 16:28:56.519661,-64
2021-10-14 16:28:56.519670,-74
2021-10-14 16:28:56.519678,-81
2021-10-14 16:28:56.519686,-84
2021-10-14 16:28:56.519694,-79
2021-10-14 16:28:56.519702,-79
2021-10-14 16:28:56.519711,-84
2021-10-14 16:28:56.519719,-81
2021-10-14 16:28:56.519727,-81
2021-10-14 16:28:56.519735,-81
2021-10-14 16:28:56.519744,-72
2021-10-14 16:28:56.519752,-64
2021-10-14 16:28:56.519760,-64
2021-10-14 16:28:56.519768,-62
2021-10-14 16:28:56.519777,-60
2021-10-14 16:28:56.789826,-60
2021-10-14 16:28:56.789846,-55
2021-10-14 16:28:56.789855,-50
2021-10-14 16:28:56.789864,-50
2021-10-14 16:28:56.789872,-55
2021-10-14 16:28:56.789880,-60
2021-10-14 16:28:56.789889,-57
2021-10-14 16:28:56.789897,-48
2021-10-14 16:28:56.789905,-40
2021-10-14 16:28:56.789913,-45
2021-10-14 16:28:56.789922,-48
2021-10-14 16:28:56.789930,-33
2021-10-14 16:28:56.789938,-24
2021-10-14 16:28:56.789947,-26
2021-10-14 16:28:56.789955,-21
2021-10-14 16:28:56.789963,-19
2021-10-14 16:28:56.789971,-24
2021-10-14 16:28:56.789980,-16
2021-10-14 16:28:56.789988,-14
2021-10-14 16:28:56.789996,-38
2021-10-14 16:28:56.790004,-48
2021-10-14 16:28:56.790013,-40
2021-10-14 16:28:56.790021,-45
2021-10-14 16:28:56.790029,-48
2021-10-14 16:28:56.790038,-43
2021-10-14 16:28:56.790046,-33
2021-10-14 16:28:56.790054,-26
2021-10-14 16:28:56.790063,-28
2021-10-14 16:28:56.790071,-26
2021-10-14 16:28:56.790080,-9
2021-10-14 16:28:57.013941,19
2021-10-14 16:28:57.013962,134
2021-10-14 16:28:57.013972,440
2021-10-14 16:28:57.013981,728
2021-10-14 16:28:57.013989,432
2021-10-14 16:28:57.013998,-492
2021-10-14 16:28:57.014006,-1053
2021-10-14 16:28:57.014015,-692
2021-10-14 16:28:57.014023,-226
2021-10-14 16:28:57.014031,-127
2021-10-14 16:28:57.014040,-43
2021-10-14 16:28:57.014048,67
2021-10-14 16:28:57.014056,67
2021-10-14 16:28:57.014065,64
2021-10-14 16:28:57.014073,96
2021-10-14 16:28:57.014081,93
2021-10-14 16:28:57.014090,81
2021-10-14 16:28:57.014098,93
2021-10-14 16:28:57.014106,101
2021-10-14 16:28:57.014115,103
2021-10-14 16:28:57.014123,113
2021-10-14 16:28:57.014131,105
2021-10-14 16:28:57.014139,103
2021-10-14 16:28:57.014148,127
2021-10-14 16:28:57.014156,139
2021-10-14 16:28:57.014164,134
2021-10-14 16:28:57.014172,149
2021-10-14 16:28:57.014181,170
2021-10-14 16:28:57.014189,182
2021-10-14 16:28:57.014198,194
2021-10-14 16:28:57.284595,202
2021-10-14 16:28:57.284616,194
2021-10-14 16:28:57.284625,189
2021-10-14 16:28:57.284634,187
2021-10-14 16:28:57.284642,177
2021-10-14 16:28:57.284651,163
2021-10-14 16:28:57.284659,141
2021-10-14 16:28:57.284667,115
2021-10-14 16:28:57.284676,81
2021-10-14 16:28:57.284684,43
2021-10-14 16:28:57.284692,16
2021-10-14 16:28:57.284701,0
2021-10-14 16:28:57.284709,-26
2021-10-14 16:28:57.284717,-45
2021-10-14 16:28:57.284726,-57
2021-10-14 16:28:57.284734,-74
2021-10-14 16:28:57.284742,-81
2021-10-14 16:28:57.284751,-81
2021-10-14 16:28:57.284759,-84
2021-10-14 16:28:57.284768,-88
2021-10-14 16:28:57.284776,-91
2021-10-14 16:28:57.284784,-96
2021-10-14 16:28:57.284792,-91
2021-10-14 16:28:57.284801,-79
2021-10-14 16:28:57.284809,-74
2021-10-14 16:28:57.284817,-74
2021-10-14 16:28:57.284826,-69
2021-10-14 16:28:57.284834,-57
2021-10-14 16:28:57.284842,-48
2021-10-14 16:28:57.284850,-45
2021-10-14 16:28:57.509832,-43
2021-10-14 16:28:57.509850,-43
2021-10-14 16:28:57.509859,-50
2021-10-14 16:28:57.509868,-48
2021-10-14 16:28:57.509876,-43
2021-10-14 16:28:57.509885,-50
2021-10-14 16:28:57.509893,-57
2021-10-14 16:28:57.509901,-52
2021-10-14 16:28:57.509910,-52
2021-10-14 16:28:57.509918,-57
2021-10-14 16:28:57.509926,-55
2021-10-14 16:28:57.509935,-50
2021-10-14 16:28:57.509943,-48
2021-10-14 16:28:57.509951,-43
2021-10-14 16:28:57.509960,-50
2021-10-14 16:28:57.509968,-69
2021-10-14 16:28:57.509976,-62
2021-10-14 16:28:57.509984,-38
2021-10-14 16:28:57.509993,-40
2021-10-14 16:28:57.510001,-55
2021-10-14 16:28:57.510009,-57
2021-10-14 16:28:57.510017,-48
2021-10-14 16:28:57.510026,-43
2021-10-14 16:28:57.510034,-40
2021-10-14 16:28:57.510042,-38
2021-10-14 16:28:57.510050,-36
2021-10-14 16:28:57.510059,-40
2021-10-14 16:28:57.510067,-45
2021-10-14 16:28:57.510075,-36
2021-10-14 16:28:57.510084,-24
2021-10-14 16:28:57.779263,-28
2021-10-14 16:28:57.779281,-33
2021-10-14 16:28:57.779291,-24
2021-10-14 16:28:57.779299,-7
2021-10-14 16:28:57.779308,0
2021-10-14 16:28:57.779316,0
2021-10-14 16:28:57.779325,12
2021-10-14 16:28:57.779333,19
2021-10-14 16:28:57.779342,-2
2021-10-14 16:28:57.779350,-28
2021-10-14 16:28:57.779358,-28
2021-10-14 16:28:57.779367,-26
2021-10-14 16:28:57.779375,-31
2021-10-14 16:28:57.779383,-31
2021-10-14 16:28:57.779392,-21
2021-10-14 16:28:57.779400,-16
2021-10-14 16:28:57.779408,-12
2021-10-14 16:28:57.779417,-4
2021-10-14 16:28:57.779425,-2
2021-10-14 16:28:57.779433,-2
2021-10-14 16:28:57.779441,62
2021-10-14 16:28:57.779449,295
2021-10-14 16:28:57.779456,661
2021-10-14 16:28:57.779464,685
2021-10-14 16:28:57.779472,-81
2021-10-14 16:28:57.779480,-993
2021-10-14 16:28:57.779488,-981
2021-10-14 16:28:57.779496,-411
2021-10-14 16:28:57.779505,-163
2021-10-14 16:28:57.779513,-93
2021-10-14 16:28:57.914843,55
2021-10-14 16:28:57.914862,96
2021-10-14 16:28:57.914871,62
2021-10-14 16:28:57.914880,88
2021-10-14 16:28:57.914888,110
2021-10-14 16:28:57.914896,96
2021-10-14 16:28:57.914905,98
2021-10-14 16:28:57.914913,105
2021-10-14 16:28:57.914921,110
2021-10-14 16:28:57.914929,117
2021-10-14 16:28:57.914938,125
2021-10-14 16:28:57.914946,125
2021-10-14 16:28:57.914954,127
2021-10-14 16:28:57.914962,141
2021-10-14 16:28:57.914971,151
2021-10-14 16:28:57.914979,156
2021-10-14 16:28:57.914987,170
2021-10-14 16:28:57.914996,185
2021-10-14 16:28:57.915004,185
2021-10-14 16:28:57.915012,192
2021-10-14 16:28:57.915021,197
2021-10-14 16:28:57.915029,180
2021-10-14 16:28:57.915037,170
2021-10-14 16:28:57.915046,177
2021-10-14 16:28:57.915054,158
2021-10-14 16:28:57.915062,120
2021-10-14 16:28:57.915070,96
2021-10-14 16:28:57.915078,69
2021-10-14 16:28:57.915087,40
2021-10-14 16:28:57.915095,14
2021-10-14 16:28:58.138831,-19
2021-10-14 16:28:58.138850,-48
2021-10-14 16:28:58.138859,-62
2021-10-14 16:28:58.138868,-72
2021-10-14 16:28:58.138876,-76
2021-10-14 16:28:58.138884,-81
2021-10-14 16:28:58.138893,-96
2021-10-14 16:28:58.138901,-98
2021-10-14 16:28:58.138909,-88
2021-10-14 16:28:58.138917,-88
2021-10-14 16:28:58.138926,-88
2021-10-14 16:28:58.138934,-79
2021-10-14 16:28:58.138942,-79
2021-10-14 16:28:58.138950,-79
2021-10-14 16:28:58.138959,-69
2021-10-14 16:28:58.138967,-64
2021-10-14 16:28:58.138975,-60
2021-10-14 16:28:58.138983,-57
2021-10-14 16:28:58.138992,-64
2021-10-14 16:28:58.139000,-62
2021-10-14 16:28:58.139008,-55
2021-10-14 16:28:58.139016,-55
2021-10-14 16:28:58.139025,-55
2021-10-14 16:28:58.139033,-52
2021-10-14 16:28:58.139041,-57
2021-10-14 16:28:58.139049,-60
2021-10-14 16:28:58.139057,-60
2021-10-14 16:28:58.139065,-74
2021-10-14 16:28:58.139074,-79
2021-10-14 16:28:58.139082,-74
2021-10-14 16:28:58.364121,-74
2021-10-14 16:28:58.364141,-72
2021-10-14 16:28:58.364150,-67
2021-10-14 16:28:58.364159,-67
2021-10-14 16:28:58.364167,-64
2021-10-14 16:28:58.364175,-67
2021-10-14 16:28:58.364184,-69
2021-10-14 16:28:58.364192,-67
2021-10-14 16:28:58.364200,-64
2021-10-14 16:28:58.364209,-60
2021-10-14 16:28:58.364217,-57
2021-10-14 16:28:58.364225,-67
2021-10-14 16:28:58.364234,-67
2021-10-14 16:28:58.364242,-52
2021-10-14 16:28:58.364250,-48
2021-10-14 16:28:58.364258,-50
2021-10-14 16:28:58.364267,-48
2021-10-14 16:28:58.364275,-48
2021-10-14 16:28:58.364283,-50
2021-10-14 16:28:58.364292,-45
2021-10-14 16:28:58.364300,-36
2021-10-14 16:28:58.364308,-31
2021-10-14 16:28:58.364317,-26
2021-10-14 16:28:58.364325,-21
2021-10-14 16:28:58.364333,-19
2021-10-14 16:28:58.364341,-16
2021-10-14 16:28:58.364349,-19
2021-10-14 16:28:58.364358,-19
2021-10-14 16:28:58.364366,-4
2021-10-14 16:28:58.364374,-7
2021-10-14 16:28:58.589222,-33
2021-10-14 16:28:58.589241,-48
2021-10-14 16:28:58.589251,-43
2021-10-14 16:28:58.589259,-43
2021-10-14 16:28:58.589268,-45
2021-10-14 16:28:58.589276,-43
2021-10-14 16:28:58.589284,-38
2021-10-14 16:28:58.589292,-33
2021-10-14 16:28:58.589301,-33
2021-10-14 16:28:58.589309,-31
2021-10-14 16:28:58.589317,-28
2021-10-14 16:28:58.589326,-14
2021-10-14 16:28:58.589334,86
2021-10-14 16:28:58.589342,377
2021-10-14 16:28:58.589350,721
2021-10-14 16:28:58.589359,586
2021-10-14 16:28:58.589367,-303
2021-10-14 16:28:58.589375,-1089
2021-10-14 16:28:58.589383,-868
2021-10-14 16:28:58.589398,-271
2021-10-14 16:28:58.589407,-86
2021-10-14 16:28:58.589415,-33
2021-10-14 16:28:58.589423,81
2021-10-14 16:28:58.589432,96
2021-10-14 16:28:58.589440,76
2021-10-14 16:28:58.589448,105
2021-10-14 16:28:58.589456,115
2021-10-14 16:28:58.589464,103
2021-10-14 16:28:58.589473,115
2021-10-14 16:28:58.589481,127
2021-10-14 16:28:58.859476,120
2021-10-14 16:28:58.859495,120
2021-10-14 16:28:58.859504,129
2021-10-14 16:28:58.859512,125
2021-10-14 16:28:58.859521,125
2021-10-14 16:28:58.859529,144
2021-10-14 16:28:58.859537,163
2021-10-14 16:28:58.859546,168
2021-10-14 16:28:58.859554,170
2021-10-14 16:28:58.859562,180
2021-10-14 16:28:58.859571,185
2021-10-14 16:28:58.859579,197
2021-10-14 16:28:58.859587,206
2021-10-14 16:28:58.859595,204
2021-10-14 16:28:58.859603,194
2021-10-14 16:28:58.859612,177
2021-10-14 16:28:58.859620,161
2021-10-14 16:28:58.859628,146
2021-10-14 16:28:58.859636,125
2021-10-14 16:28:58.859644,88
2021-10-14 16:28:58.859653,52
2021-10-14 16:28:58.859661,24
2021-10-14 16:28:58.859669,-2
2021-10-14 16:28:58.859678,-21
2021-10-14 16:28:58.859686,-31
2021-10-14 16:28:58.859694,-45
2021-10-14 16:28:58.859702,-62
2021-10-14 16:28:58.859710,-67
2021-10-14 16:28:58.859719,-64
2021-10-14 16:28:58.859727,-72
2021-10-14 16:28:59.039472,-74
2021-10-14 16:28:59.039491,-74
2021-10-14 16:28:59.039500,-86
2021-10-14 16:28:59.039509,-103
2021-10-14 16:28:59.039517,-98
2021-10-14 16:28:59.039525,-88
2021-10-14 16:28:59.039534,-84
2021-10-14 16:28:59.039542,-74
2021-10-14 16:28:59.039550,-74
2021-10-14 16:28:59.039558,-84
2021-10-14 16:28:59.039567,-84
2021-10-14 16:28:59.039575,-72
2021-10-14 16:28:59.039583,-64
2021-10-14 16:28:59.039591,-60
2021-10-14 16:28:59.039600,-62
2021-10-14 16:28:59.039608,-67
2021-10-14 16:28:59.039616,-67
2021-10-14 16:28:59.039624,-62
2021-10-14 16:28:59.039633,-50
2021-10-14 16:28:59.039641,-48
2021-10-14 16:28:59.039649,-64
2021-10-14 16:28:59.039657,-72
2021-10-14 16:28:59.039666,-64
2021-10-14 16:28:59.039674,-64
2021-10-14 16:28:59.039682,-67
2021-10-14 16:28:59.039691,-57
2021-10-14 16:28:59.039699,-50
2021-10-14 16:28:59.039707,-55
2021-10-14 16:28:59.039715,-52
2021-10-14 16:28:59.039724,-48
2021-10-14 16:28:59.309913,-43
2021-10-14 16:28:59.309933,-38
2021-10-14 16:28:59.309943,-40
2021-10-14 16:28:59.309951,-45
2021-10-14 16:28:59.309959,-43
2021-10-14 16:28:59.309968,-38
2021-10-14 16:28:59.309976,-36
2021-10-14 16:28:59.309984,-38
2021-10-14 16:28:59.309993,-57
2021-10-14 16:28:59.310001,-60
2021-10-14 16:28:59.310009,-38
2021-10-14 16:28:59.310017,-31
2021-10-14 16:28:59.310025,-36
2021-10-14 16:28:59.310034,-28
2021-10-14 16:28:59.310042,-36
2021-10-14 16:28:59.310050,-52
2021-10-14 16:28:59.310059,-40
2021-10-14 16:28:59.310067,-16
2021-10-14 16:28:59.310075,-9
2021-10-14 16:28:59.310083,0
2021-10-14 16:28:59.310092,16
2021-10-14 16:28:59.310100,24
2021-10-14 16:28:59.310108,4
2021-10-14 16:28:59.310117,-26
2021-10-14 16:28:59.310125,-36
2021-10-14 16:28:59.310133,-28
2021-10-14 16:28:59.310142,-26
2021-10-14 16:28:59.310150,-26
2021-10-14 16:28:59.310158,-24
2021-10-14 16:28:59.310166,-14
2021-10-14 16:28:59.489482,-9
2021-10-14 16:28:59.489501,-9
2021-10-14 16:28:59.489511,-9
2021-10-14 16:28:59.489519,-4
2021-10-14 16:28:59.489528,14
2021-10-14 16:28:59.489536,127
2021-10-14 16:28:59.489544,432
2021-10-14 16:28:59.489553,740
2021-10-14 16:28:59.489561,488
2021-10-14 16:28:59.489569,-447
2021-10-14 16:28:59.489578,-1089
2021-10-14 16:28:59.489586,-747
2021-10-14 16:28:59.489594,-218
2021-10-14 16:28:59.489602,-96
2021-10-14 16:28:59.489611,-33
2021-10-14 16:28:59.489619,69
2021-10-14 16:28:59.489627,67
2021-10-14 16:28:59.489635,50
2021-10-14 16:28:59.489644,84
2021-10-14 16:28:59.489652,91
2021-10-14 16:28:59.489660,79
2021-10-14 16:28:59.489669,84
2021-10-14 16:28:59.489677,91
2021-10-14 16:28:59.489685,101
2021-10-14 16:28:59.489694,115
2021-10-14 16:28:59.489702,117
2021-10-14 16:28:59.489710,115
2021-10-14 16:28:59.489718,122
2021-10-14 16:28:59.489726,132
2021-10-14 16:28:59.489735,137
2021-10-14 16:28:59.714883,149
2021-10-14 16:28:59.714902,165
2021-10-14 16:28:59.714912,175
2021-10-14 16:28:59.714920,177
2021-10-14 16:28:59.714927,185
2021-10-14 16:28:59.714935,197
2021-10-14 16:28:59.714942,202
2021-10-14 16:28:59.714948,192
2021-10-14 16:28:59.714955,173
2021-10-14 16:28:59.714962,146
2021-10-14 16:28:59.714970,125
2021-10-14 16:28:59.714978,117
2021-10-14 16:28:59.714985,86
2021-10-14 16:28:59.714992,31
2021-10-14 16:28:59.715000,0
2021-10-14 16:28:59.715007,-16
2021-10-14 16:28:59.715014,-48
2021-10-14 16:28:59.715020,-69
2021-10-14 16:28:59.715028,-74
2021-10-14 16:28:59.715036,-86
2021-10-14 16:28:59.715043,-98
2021-10-14 16:28:59.715051,-98
2021-10-14 16:28:59.715058,-93
2021-10-14 16:28:59.715066,-101
2021-10-14 16:28:59.715074,-105
2021-10-14 16:28:59.715081,-96
2021-10-14 16:28:59.715089,-88
2021-10-14 16:28:59.715098,-91
2021-10-14 16:28:59.715106,-93
2021-10-14 16:28:59.715114,-88
2021-10-14 16:28:59.984501,-84
2021-10-14 16:28:59.984520,-79
2021-10-14 16:28:59.984529,-69
2021-10-14 16:28:59.984538,-67
2021-10-14 16:28:59.984546,-74
2021-10-14 16:28:59.984554,-74
2021-10-14 16:28:59.984563,-72
2021-10-14 16:28:59.984571,-62
2021-10-14 16:28:59.984580,-52
2021-10-14 16:28:59.984588,-52
2021-10-14 16:28:59.984596,-62
2021-10-14 16:28:59.984604,-69
2021-10-14 16:28:59.984613,-72
2021-10-14 16:28:59.984621,-62
2021-10-14 16:28:59.984629,-64
2021-10-14 16:28:59.984637,-88
2021-10-14 16:28:59.984646,-96
2021-10-14 16:28:59.984654,-88
2021-10-14 16:28:59.984662,-86
2021-10-14 16:28:59.984670,-79
2021-10-14 16:28:59.984678,-69
2021-10-14 16:28:59.984687,-72
2021-10-14 16:28:59.984695,-74
2021-10-14 16:28:59.984703,-69
2021-10-14 16:28:59.984711,-60
2021-10-14 16:28:59.984720,-50
2021-10-14 16:28:59.984728,-43
2021-10-14 16:28:59.984736,-48
2021-10-14 16:28:59.984744,-50
2021-10-14 16:28:59.984752,-45
2021-10-14 16:29:00.164505,-43
2021-10-14 16:29:00.164525,-33
2021-10-14 16:29:00.164534,-26
2021-10-14 16:29:00.164543,-21
2021-10-14 16:29:00.164551,-9
2021-10-14 16:29:00.164560,2
2021-10-14 16:29:00.164568,0
2021-10-14 16:29:00.164577,4
2021-10-14 16:29:00.164585,19
2021-10-14 16:29:00.164593,0
2021-10-14 16:29:00.164602,-36
2021-10-14 16:29:00.164610,-48
2021-10-14 16:29:00.164618,-43
2021-10-14 16:29:00.164627,-48
2021-10-14 16:29:00.164635,-52
2021-10-14 16:29:00.164643,-43
2021-10-14 16:29:00.164652,-33
2021-10-14 16:29:00.164660,-40
2021-10-14 16:29:00.164668,-45
2021-10-14 16:29:00.164676,-28
2021-10-14 16:29:00.164685,-9
2021-10-14 16:29:00.164693,33
2021-10-14 16:29:00.164701,214
2021-10-14 16:29:00.164710,574
2021-10-14 16:29:00.164718,714
2021-10-14 16:29:00.164726,86
2021-10-14 16:29:00.164735,-872
2021-10-14 16:29:00.164743,-1043
2021-10-14 16:29:00.164751,-512
2021-10-14 16:29:00.164760,-182
2021-10-14 16:29:00.478586,-88
2021-10-14 16:29:00.478607,50
2021-10-14 16:29:00.478616,105
2021-10-14 16:29:00.478625,79
2021-10-14 16:29:00.478633,86
2021-10-14 16:29:00.478642,101
2021-10-14 16:29:00.478650,103
2021-10-14 16:29:00.478659,117
2021-10-14 16:29:00.478667,129
2021-10-14 16:29:00.478675,125
2021-10-14 16:29:00.478683,120
2021-10-14 16:29:00.478692,113
2021-10-14 16:29:00.478700,117
2021-10-14 16:29:00.478708,137
2021-10-14 16:29:00.478717,151
2021-10-14 16:29:00.478725,149
2021-10-14 16:29:00.478733,149
2021-10-14 16:29:00.478742,168
2021-10-14 16:29:00.478750,187
2021-10-14 16:29:00.478759,194
2021-10-14 16:29:00.478767,194
2021-10-14 16:29:00.478775,185
2021-10-14 16:29:00.478784,177
2021-10-14 16:29:00.478792,185
2021-10-14 16:29:00.478800,187
2021-10-14 16:29:00.478809,177
2021-10-14 16:29:00.478817,156
2021-10-14 16:29:00.478825,120
2021-10-14 16:29:00.478834,81
2021-10-14 16:29:00.478842,62
2021-10-14 16:29:00.614854,38
2021-10-14 16:29:00.614872,-4
2021-10-14 16:29:00.614881,-43
2021-10-14 16:29:00.614890,-62
2021-10-14 16:29:00.614898,-84
2021-10-14 16:29:00.614907,-98
2021-10-14 16:29:00.614915,-98
2021-10-14 16:29:00.614924,-93
2021-10-14 16:29:00.614932,-93
2021-10-14 16:29:00.614940,-93
2021-10-14 16:29:00.614949,-98
2021-10-14 16:29:00.614957,-103
2021-10-14 16:29:00.614965,-93
2021-10-14 16:29:00.614974,-81
2021-10-14 16:29:00.614982,-79
2021-10-14 16:29:00.614990,-86
2021-10-14 16:29:00.614999,-84
2021-10-14 16:29:00.615007,-76
2021-10-14 16:29:00.615015,-74
2021-10-14 16:29:00.615024,-67
2021-10-14 16:29:00.615032,-62
2021-10-14 16:29:00.615040,-69
2021-10-14 16:29:00.615049,-76
2021-10-14 16:29:00.615057,-69
2021-10-14 16:29:00.615065,-57
2021-10-14 16:29:00.615074,-55
2021-10-14 16:29:00.615082,-64
2021-10-14 16:29:00.615090,-74
2021-10-14 16:29:00.615099,-76
2021-10-14 16:29:00.615107,-69
2021-10-14 16:29:00.884534,-64
2021-10-14 16:29:00.884553,-60
2021-10-14 16:29:00.884563,-64
2021-10-14 16:29:00.884571,-79
2021-10-14 16:29:00.884580,-81
2021-10-14 16:29:00.884588,-67
2021-10-14 16:29:00.884596,-64
2021-10-14 16:29:00.884605,-64
2021-10-14 16:29:00.884613,-64
2021-10-14 16:29:00.884621,-69
2021-10-14 16:29:00.884630,-74
2021-10-14 16:29:00.884638,-69
2021-10-14 16:29:00.884646,-60
2021-10-14 16:29:00.884655,-55
2021-10-14 16:29:00.884663,-50
2021-10-14 16:29:00.884671,-48
2021-10-14 16:29:00.884680,-43
2021-10-14 16:29:00.884688,-33
2021-10-14 16:29:00.884696,-24
2021-10-14 16:29:00.884705,-21
2021-10-14 16:29:00.884713,-19
2021-10-14 16:29:00.884721,-26
2021-10-14 16:29:00.884730,-45
2021-10-14 16:29:00.884738,-60
2021-10-14 16:29:00.884746,-57
2021-10-14 16:29:00.884754,-48
2021-10-14 16:29:00.884762,-48
2021-10-14 16:29:00.884771,-62
2021-10-14 16:29:00.884780,-60
2021-10-14 16:29:00.884789,-45
2021-10-14 16:29:01.245113,-38
2021-10-14 16:29:01.245139,-31
2021-10-14 16:29:01.245149,-31
2021-10-14 16:29:01.245158,-4
2021-10-14 16:29:01.245166,149
2021-10-14 16:29:01.245174,505
2021-10-14 16:29:01.245183,759
2021-10-14 16:29:01.245191,307
2021-10-14 16:29:01.245200,-709
2021-10-14 16:29:01.245208,-1142
2021-10-14 16:29:01.245217,-656
2021-10-14 16:29:01.245225,-209
2021-10-14 16:29:01.245233,-115
2021-10-14 16:29:01.245242,2
2021-10-14 16:29:01.245250,93
2021-10-14 16:29:01.245258,57
2021-10-14 16:29:01.245267,50
2021-10-14 16:29:01.245275,86
2021-10-14 16:29:01.245283,91
2021-10-14 16:29:01.245292,91
2021-10-14 16:29:01.245300,96
2021-10-14 16:29:01.245308,91
2021-10-14 16:29:01.245317,84
2021-10-14 16:29:01.245325,91
2021-10-14 16:29:01.245333,105
2021-10-14 16:29:01.245342,120
2021-10-14 16:29:01.245350,134
2021-10-14 16:29:01.245358,141
2021-10-14 16:29:01.245367,144
2021-10-14 16:29:01.245375,151
2021-10-14 16:29:01.334876,170
2021-10-14 16:29:01.334896,187
2021-10-14 16:29:01.334906,192
2021-10-14 16:29:01.334914,202
2021-10-14 16:29:01.334923,211
2021-10-14 16:29:01.334931,206
2021-10-14 16:29:01.334940,192
2021-10-14 16:29:01.334948,180
2021-10-14 16:29:01.334956,163
2021-10-14 16:29:01.334964,132
2021-10-14 16:29:01.334973,98
2021-10-14 16:29:01.334981,69
2021-10-14 16:29:01.334989,38
2021-10-14 16:29:01.334997,14
2021-10-14 16:29:01.335006,-9
2021-10-14 16:29:01.335014,-40
2021-10-14 16:29:01.335022,-62
2021-10-14 16:29:01.335031,-64
2021-10-14 16:29:01.335039,-69
2021-10-14 16:29:01.335047,-76
2021-10-14 16:29:01.335055,-79
2021-10-14 16:29:01.335064,-74
2021-10-14 16:29:01.335072,-72
2021-10-14 16:29:01.335080,-74
2021-10-14 16:29:01.335088,-84
2021-10-14 16:29:01.335096,-86
2021-10-14 16:29:01.335105,-86
2021-10-14 16:29:01.335113,-81
2021-10-14 16:29:01.335121,-62
2021-10-14 16:29:01.335129,-45
2021-10-14 16:29:01.649348,-45
2021-10-14 16:29:01.649369,-55
2021-10-14 16:29:01.649378,-62
2021-10-14 16:29:01.649387,-64
2021-10-14 16:29:01.649396,-67
2021-10-14 16:29:01.649411,-60
2021-10-14 16:29:01.649420,-52
2021-10-14 16:29:01.649428,-57
2021-10-14 16:29:01.649437,-60
2021-10-14 16:29:01.649445,-62
2021-10-14 16:29:01.649454,-76
2021-10-14 16:29:01.649462,-84
2021-10-14 16:29:01.649471,-81
2021-10-14 16:29:01.649479,-86
2021-10-14 16:29:01.649487,-96
2021-10-14 16:29:01.649495,-98
2021-10-14 16:29:01.649504,-88
2021-10-14 16:29:01.649512,-74
2021-10-14 16:29:01.649521,-72
2021-10-14 16:29:01.649529,-79
2021-10-14 16:29:01.649538,-74
2021-10-14 16:29:01.649546,-62
2021-10-14 16:29:01.649554,-60
2021-10-14 16:29:01.649563,-60
2021-10-14 16:29:01.649571,-57
2021-10-14 16:29:01.649579,-52
2021-10-14 16:29:01.649587,-57
2021-10-14 16:29:01.649596,-60
2021-10-14 16:29:01.649604,-55
2021-10-14 16:29:01.649612,-55
2021-10-14 16:29:01.786618,-50
2021-10-14 16:29:01.786639,-45
2021-10-14 16:29:01.786649,-43
2021-10-14 16:29:01.786657,-31
2021-10-14 16:29:01.786666,-16
2021-10-14 16:29:01.786674,-12
2021-10-14 16:29:01.786682,-16
2021-10-14 16:29:01.786691,-7
2021-10-14 16:29:01.786699,0
2021-10-14 16:29:01.786708,-26
2021-10-14 16:29:01.786716,-50
2021-10-14 16:29:01.786724,-45
2021-10-14 16:29:01.786732,-40
2021-10-14 16:29:01.786741,-48
2021-10-14 16:29:01.786749,-43
2021-10-14 16:29:01.786757,-38
2021-10-14 16:29:01.786765,-33
2021-10-14 16:29:01.786774,-26
2021-10-14 16:29:01.786782,-24
2021-10-14 16:29:01.786790,-19
2021-10-14 16:29:01.786798,2
2021-10-14 16:29:01.786807,110
2021-10-14 16:29:01.786815,420
2021-10-14 16:29:01.786824,750
2021-10-14 16:29:01.786832,505
2021-10-14 16:29:01.786840,-437
2021-10-14 16:29:01.786848,-1103
2021-10-14 16:29:01.786857,-779
2021-10-14 16:29:01.786865,-230
2021-10-14 16:29:01.786873,-88
2021-10-14 16:29:02.009976,-19
2021-10-14 16:29:02.009997,93
2021-10-14 16:29:02.010007,91
2021-10-14 16:29:02.010015,67
2021-10-14 16:29:02.010024,96
2021-10-14 16:29:02.010032,101
2021-10-14 16:29:02.010040,84
2021-10-14 16:29:02.010049,96
2021-10-14 16:29:02.010057,103
2021-10-14 16:29:02.010065,86
2021-10-14 16:29:02.010074,91
2021-10-14 16:29:02.010082,103
2021-10-14 16:29:02.010091,105
2021-10-14 16:29:02.010099,113
2021-10-14 16:29:02.010107,122
2021-10-14 16:29:02.010116,132
2021-10-14 16:29:02.010124,146
2021-10-14 16:29:02.010132,156
2021-10-14 16:29:02.010141,163
2021-10-14 16:29:02.010149,175
2021-10-14 16:29:02.010157,189
2021-10-14 16:29:02.010165,199
2021-10-14 16:29:02.010174,189
2021-10-14 16:29:02.010182,175
2021-10-14 16:29:02.010190,168
2021-10-14 16:29:02.010198,161
2021-10-14 16:29:02.010207,139
2021-10-14 16:29:02.010215,108
2021-10-14 16:29:02.010223,81
2021-10-14 16:29:02.010232,55
2021-10-14 16:29:02.280021,28
2021-10-14 16:29:02.280042,0
2021-10-14 16:29:02.280052,-28
2021-10-14 16:29:02.280060,-60
2021-10-14 16:29:02.280069,-84
2021-10-14 16:29:02.280078,-91
2021-10-14 16:29:02.280086,-84
2021-10-14 16:29:02.280095,-76
2021-10-14 16:29:02.280103,-79
2021-10-14 16:29:02.280112,-79
2021-10-14 16:29:02.280120,-81
2021-10-14 16:29:02.280129,-81
2021-10-14 16:29:02.280137,-76
2021-10-14 16:29:02.280145,-74
2021-10-14 16:29:02.280154,-74
2021-10-14 16:29:02.280162,-62
2021-10-14 16:29:02.280171,-48
2021-10-14 16:29:02.280179,-38
2021-10-14 16:29:02.280187,-31
2021-10-14 16:29:02.280196,-36
2021-10-14 16:29:02.280204,-40
2021-10-14 16:29:02.280212,-33
2021-10-14 16:29:02.280221,-21
2021-10-14 16:29:02.280229,-16
2021-10-14 16:29:02.280238,-19
2021-10-14 16:29:02.280246,-19
2021-10-14 16:29:02.280255,-19
2021-10-14 16:29:02.280263,-19
2021-10-14 16:29:02.280271,-24
2021-10-14 16:29:02.280280,-31
2021-10-14 16:29:02.593583,-31
2021-10-14 16:29:02.593602,-28
2021-10-14 16:29:02.593612,-43
2021-10-14 16:29:02.593620,-57
2021-10-14 16:29:02.593629,-57
2021-10-14 16:29:02.593637,-60
2021-10-14 16:29:02.593646,-62
2021-10-14 16:29:02.593654,-64
2021-10-14 16:29:02.593663,-62
2021-10-14 16:29:02.593671,-62
2021-10-14 16:29:02.593679,-62
2021-10-14 16:29:02.593688,-64
2021-10-14 16:29:02.593696,-67
2021-10-14 16:29:02.593704,-62
2021-10-14 16:29:02.593713,-60
2021-10-14 16:29:02.593721,-72
2021-10-14 16:29:02.593729,-76
2021-10-14 16:29:02.593738,-62
2021-10-14 16:29:02.593746,-50
2021-10-14 16:29:02.593754,-45
2021-10-14 16:29:02.593763,-40
2021-10-14 16:29:02.593771,-33
2021-10-14 16:29:02.593779,-43
2021-10-14 16:29:02.593787,-60
2021-10-14 16:29:02.593796,-64
2021-10-14 16:29:02.593804,-62
2021-10-14 16:29:02.593812,-62
2021-10-14 16:29:02.593820,-62
2021-10-14 16:29:02.593829,-57
2021-10-14 16:29:02.593837,-45
2021-10-14 16:29:02.729630,-38
2021-10-14 16:29:02.729651,-31
2021-10-14 16:29:02.729661,-19
2021-10-14 16:29:02.729670,-21
2021-10-14 16:29:02.729679,-2
2021-10-14 16:29:02.729687,158
2021-10-14 16:29:02.729696,509
2021-10-14 16:29:02.729704,731
2021-10-14 16:29:02.729712,247
2021-10-14 16:29:02.729721,-738
2021-10-14 16:29:02.729729,-1096
2021-10-14 16:29:02.729738,-598
2021-10-14 16:29:02.729746,-192
2021-10-14 16:29:02.729755,-113
2021-10-14 16:29:02.729763,4
2021-10-14 16:29:02.729772,88
2021-10-14 16:29:02.729780,57
2021-10-14 16:29:02.729788,55
2021-10-14 16:29:02.729797,81
2021-10-14 16:29:02.729805,86
2021-10-14 16:29:02.729814,88
2021-10-14 16:29:02.729822,98
2021-10-14 16:29:02.729830,101
2021-10-14 16:29:02.729839,108
2021-10-14 16:29:02.729847,122
2021-10-14 16:29:02.729856,134
2021-10-14 16:29:02.729864,134
2021-10-14 16:29:02.729873,132
2021-10-14 16:29:02.729882,151
2021-10-14 16:29:02.729890,173
2021-10-14 16:29:03.000004,180
2021-10-14 16:29:03.000026,182
2021-10-14 16:29:03.000035,194
2021-10-14 16:29:03.000044,202
2021-10-14 16:29:03.000052,209
2021-10-14 16:29:03.000060,216
2021-10-14 16:29:03.000069,214
2021-10-14 16:29:03.000077,199
2021-10-14 16:29:03.000086,180
2021-10-14 16:29:03.000094,153
2021-10-14 16:29:03.000102,127
2021-10-14 16:29:03.000111,108
2021-10-14 16:29:03.000119,84
2021-10-14 16:29:03.000127,33
2021-10-14 16:29:03.000136,-16
2021-10-14 16:29:03.000144,-43
2021-10-14 16:29:03.000153,-50
2021-10-14 16:29:03.000161,-62
2021-10-14 16:29:03.000169,-79
2021-10-14 16:29:03.000178,-86
2021-10-14 16:29:03.000186,-91
2021-10-14 16:29:03.000194,-101
2021-10-14 16:29:03.000203,-98
2021-10-14 16:29:03.000211,-101
2021-10-14 16:29:03.000219,-105
2021-10-14 16:29:03.000227,-98
2021-10-14 16:29:03.000235,-81
2021-10-14 16:29:03.000244,-67
2021-10-14 16:29:03.000252,-62
2021-10-14 16:29:03.000260,-60
2021-10-14 16:29:03.180007,-48
2021-10-14 16:29:03.180027,-43
2021-10-14 16:29:03.180037,-40
2021-10-14 16:29:03.180046,-33
2021-10-14 16:29:03.180054,-31
2021-10-14 16:29:03.180063,-33
2021-10-14 16:29:03.180071,-26
2021-10-14 16:29:03.180079,-19
2021-10-14 16:29:03.180087,-21
2021-10-14 16:29:03.180096,-36
2021-10-14 16:29:03.180104,-38
2021-10-14 16:29:03.180112,-24
2021-10-14 16:29:03.180121,-16
2021-10-14 16:29:03.180129,-28
2021-10-14 16:29:03.180137,-50
2021-10-14 16:29:03.180146,-50
2021-10-14 16:29:03.180154,-36
2021-10-14 16:29:03.180162,-28
2021-10-14 16:29:03.180170,-36
2021-10-14 16:29:03.180179,-50
2021-10-14 16:29:03.180187,-57
2021-10-14 16:29:03.180195,-50
2021-10-14 16:29:03.180204,-38
2021-10-14 16:29:03.180212,-48
2021-10-14 16:29:03.180220,-52
2021-10-14 16:29:03.180229,-45
2021-10-14 16:29:03.180237,-52
2021-10-14 16:29:03.180245,-57
2021-10-14 16:29:03.180254,-50
2021-10-14 16:29:03.180262,-43
2021-10-14 16:29:03.450000,-43
2021-10-14 16:29:03.450021,-33
2021-10-14 16:29:03.450031,-14
2021-10-14 16:29:03.450039,-24
2021-10-14 16:29:03.450048,-50
2021-10-14 16:29:03.450056,-64
2021-10-14 16:29:03.450065,-72
2021-10-14 16:29:03.450073,-74
2021-10-14 16:29:03.450081,-64
2021-10-14 16:29:03.450090,-67
2021-10-14 16:29:03.450098,-74
2021-10-14 16:29:03.450106,-67
2021-10-14 16:29:03.450115,-64
2021-10-14 16:29:03.450123,-67
2021-10-14 16:29:03.450131,-55
2021-10-14 16:29:03.450140,-4
2021-10-14 16:29:03.450148,163
2021-10-14 16:29:03.450157,529
2021-10-14 16:29:03.450165,740
2021-10-14 16:29:03.450174,192
2021-10-14 16:29:03.450182,-829
2021-10-14 16:29:03.450190,-1137
2021-10-14 16:29:03.450199,-586
2021-10-14 16:29:03.450207,-180
2021-10-14 16:29:03.450215,-117
2021-10-14 16:29:03.450223,-7
2021-10-14 16:29:03.450232,64
2021-10-14 16:29:03.450240,28
2021-10-14 16:29:03.450249,43
2021-10-14 16:29:03.450257,86
2021-10-14 16:29:03.719472,76
2021-10-14 16:29:03.719502,69
2021-10-14 16:29:03.719511,84
2021-10-14 16:29:03.719520,88
2021-10-14 16:29:03.719529,96
2021-10-14 16:29:03.719537,113
2021-10-14 16:29:03.719545,108
2021-10-14 16:29:03.719554,98
2021-10-14 16:29:03.719562,115
2021-10-14 16:29:03.719571,132
2021-10-14 16:29:03.719579,141
2021-10-14 16:29:03.719588,151
2021-10-14 16:29:03.719596,161
2021-10-14 16:29:03.719604,170
2021-10-14 16:29:03.719613,185
2021-10-14 16:29:03.719621,194
2021-10-14 16:29:03.719630,202
2021-10-14 16:29:03.719638,202
2021-10-14 16:29:03.719647,187
2021-10-14 16:29:03.719655,168
2021-10-14 16:29:03.719664,149
2021-10-14 16:29:03.719672,117
2021-10-14 16:29:03.719680,84
2021-10-14 16:29:03.719689,55
2021-10-14 16:29:03.719697,19
2021-10-14 16:29:03.719706,-7
2021-10-14 16:29:03.719714,-19
2021-10-14 16:29:03.719723,-45
2021-10-14 16:29:03.719732,-69
2021-10-14 16:29:03.719740,-67
2021-10-14 16:29:03.854704,-67
2021-10-14 16:29:03.854726,-76
2021-10-14 16:29:03.854735,-79
2021-10-14 16:29:03.854743,-72
2021-10-14 16:29:03.854752,-67
2021-10-14 16:29:03.854760,-72
2021-10-14 16:29:03.854769,-79
2021-10-14 16:29:03.854777,-72
2021-10-14 16:29:03.854786,-57
2021-10-14 16:29:03.854794,-60
2021-10-14 16:29:03.854802,-57
2021-10-14 16:29:03.854811,-43
2021-10-14 16:29:03.854819,-33
2021-10-14 16:29:03.854828,-31
2021-10-14 16:29:03.854836,-33
2021-10-14 16:29:03.854844,-36
2021-10-14 16:29:03.854852,-33
2021-10-14 16:29:03.854861,-36
2021-10-14 16:29:03.854869,-38
2021-10-14 16:29:03.854878,-31
2021-10-14 16:29:03.854886,-24
2021-10-14 16:29:03.854894,-26
2021-10-14 16:29:03.854903,-31
2021-10-14 16:29:03.854911,-36
2021-10-14 16:29:03.854920,-28
2021-10-14 16:29:03.854928,-24
2021-10-14 16:29:03.854936,-33
2021-10-14 16:29:03.854944,-43
2021-10-14 16:29:03.854953,-36
2021-10-14 16:29:03.854961,-26
2021-10-14 16:29:04.124167,-26
2021-10-14 16:29:04.124190,-31
2021-10-14 16:29:04.124200,-38
2021-10-14 16:29:04.124209,-36
2021-10-14 16:29:04.124217,-36
2021-10-14 16:29:04.124226,-55
2021-10-14 16:29:04.124234,-62
2021-10-14 16:29:04.124242,-50
2021-10-14 16:29:04.124251,-45
2021-10-14 16:29:04.124259,-48
2021-10-14 16:29:04.124268,-48
2021-10-14 16:29:04.124276,-45
2021-10-14 16:29:04.124285,-45
2021-10-14 16:29:04.124293,-43
2021-10-14 16:29:04.124301,-40
2021-10-14 16:29:04.124310,-36
2021-10-14 16:29:04.124318,-40
2021-10-14 16:29:04.124327,-57
2021-10-14 16:29:04.124335,-69
2021-10-14 16:29:04.124344,-72
2021-10-14 16:29:04.124352,-76
2021-10-14 16:29:04.124360,-72
2021-10-14 16:29:04.124369,-67
2021-10-14 16:29:04.124377,-67
2021-10-14 16:29:04.124385,-62
2021-10-14 16:29:04.124394,-57
2021-10-14 16:29:04.124402,-52
2021-10-14 16:29:04.124410,-40
2021-10-14 16:29:04.124418,-31
2021-10-14 16:29:04.124427,2
2021-10-14 16:29:04.305660,173
2021-10-14 16:29:04.305681,538
2021-10-14 16:29:04.305691,738
2021-10-14 16:29:04.305700,189
2021-10-14 16:29:04.305708,-824
2021-10-14 16:29:04.305717,-1127
2021-10-14 16:29:04.305725,-562
2021-10-14 16:29:04.305734,-146
2021-10-14 16:29:04.305742,-98
2021-10-14 16:29:04.305750,4
2021-10-14 16:29:04.305759,86
2021-10-14 16:29:04.305767,52
2021-10-14 16:29:04.305776,55
2021-10-14 16:29:04.305784,86
2021-10-14 16:29:04.305792,86
2021-10-14 16:29:04.305801,86
2021-10-14 16:29:04.305809,101
2021-10-14 16:29:04.305818,101
2021-10-14 16:29:04.305826,93
2021-10-14 16:29:04.305835,101
2021-10-14 16:29:04.305843,108
2021-10-14 16:29:04.305851,113
2021-10-14 16:29:04.305860,122
2021-10-14 16:29:04.305868,134
2021-10-14 16:29:04.305877,146
2021-10-14 16:29:04.305885,161
2021-10-14 16:29:04.305894,177
2021-10-14 16:29:04.305902,187
2021-10-14 16:29:04.305911,189
2021-10-14 16:29:04.305919,194
2021-10-14 16:29:04.664000,204
2021-10-14 16:29:04.664022,209
2021-10-14 16:29:04.664031,194
2021-10-14 16:29:04.664040,168
2021-10-14 16:29:04.664049,141
2021-10-14 16:29:04.664057,122
2021-10-14 16:29:04.664065,91
2021-10-14 16:29:04.664074,50
2021-10-14 16:29:04.664083,9
2021-10-14 16:29:04.664092,-24
2021-10-14 16:29:04.664100,-50
2021-10-14 16:29:04.664109,-69
2021-10-14 16:29:04.664117,-76
2021-10-14 16:29:04.664126,-84
2021-10-14 16:29:04.664134,-93
2021-10-14 16:29:04.664142,-98
2021-10-14 16:29:04.664151,-98
2021-10-14 16:29:04.664159,-96
2021-10-14 16:29:04.664168,-86
2021-10-14 16:29:04.664176,-79
2021-10-14 16:29:04.664184,-79
2021-10-14 16:29:04.664193,-84
2021-10-14 16:29:04.664201,-79
2021-10-14 16:29:04.664209,-64
2021-10-14 16:29:04.664218,-57
2021-10-14 16:29:04.664226,-50
2021-10-14 16:29:04.664234,-45
2021-10-14 16:29:04.664243,-43
2021-10-14 16:29:04.664251,-38
2021-10-14 16:29:04.664260,-26
2021-10-14 16:29:04.799734,-19
2021-10-14 16:29:04.799757,-14
2021-10-14 16:29:04.799766,-14
2021-10-14 16:29:04.799775,-16
2021-10-14 16:29:04.799783,-14
2021-10-14 16:29:04.799791,-7
2021-10-14 16:29:04.799799,-9
2021-10-14 16:29:04.799807,-14
2021-10-14 16:29:04.799866,-19
2021-10-14 16:29:04.799876,-21
2021-10-14 16:29:04.799885,-16
2021-10-14 16:29:04.799893,-14
2021-10-14 16:29:04.799901,-12
2021-10-14 16:29:04.799910,-12
2021-10-14 16:29:04.799918,-14
2021-10-14 16:29:04.799927,-19
2021-10-14 16:29:04.799935,-16
2021-10-14 16:29:04.799943,-21
2021-10-14 16:29:04.799951,-28
2021-10-14 16:29:04.799960,-28
2021-10-14 16:29:04.799968,-24
2021-10-14 16:29:04.799976,-33
2021-10-14 16:29:04.799985,-50
2021-10-14 16:29:04.799993,-60
2021-10-14 16:29:04.800001,-52
2021-10-14 16:29:04.800009,-45
2021-10-14 16:29:04.800017,-55
2021-10-14 16:29:04.800026,-64
2021-10-14 16:29:04.800034,-57
2021-10-14 16:29:04.800042,-50
2021-10-14 16:29:05.024736,-43
2021-10-14 16:29:05.024759,-43
2021-10-14 16:29:05.024769,-40
2021-10-14 16:29:05.024777,-28
2021-10-14 16:29:05.024786,-19
2021-10-14 16:29:05.024794,-14
2021-10-14 16:29:05.024802,0
2021-10-14 16:29:05.024811,-12
2021-10-14 16:29:05.024819,-55
2021-10-14 16:29:05.024827,-67
2021-10-14 16:29:05.024835,-55
2021-10-14 16:29:05.024844,-52
2021-10-14 16:29:05.024852,-50
2021-10-14 16:29:05.024860,-52
2021-10-14 16:29:05.024868,-69
2021-10-14 16:29:05.024877,-69
2021-10-14 16:29:05.024885,-52
2021-10-14 16:29:05.024893,-40
2021-10-14 16:29:05.024902,-31
2021-10-14 16:29:05.024910,-4
2021-10-14 16:29:05.024918,122
2021-10-14 16:29:05.024927,442
2021-10-14 16:29:05.024935,716
2021-10-14 16:29:05.024943,370
2021-10-14 16:29:05.024952,-584
2021-10-14 16:29:05.024960,-1091
2021-10-14 16:29:05.024968,-670
2021-10-14 16:29:05.024977,-197
2021-10-14 16:29:05.024985,-103
2021-10-14 16:29:05.024993,-4
2021-10-14 16:29:05.384132,101
2021-10-14 16:29:05.384155,76
2021-10-14 16:29:05.384164,62
2021-10-14 16:29:05.384173,101
2021-10-14 16:29:05.384182,105
2021-10-14 16:29:05.384190,103
2021-10-14 16:29:05.384198,117
2021-10-14 16:29:05.384207,110
2021-10-14 16:29:05.384215,108
2021-10-14 16:29:05.384223,127
2021-10-14 16:29:05.384232,141
2021-10-14 16:29:05.384240,144
2021-10-14 16:29:05.384248,151
2021-10-14 16:29:05.384257,153
2021-10-14 16:29:05.384265,153
2021-10-14 16:29:05.384274,175
2021-10-14 16:29:05.384282,202
2021-10-14 16:29:05.384291,209
2021-10-14 16:29:05.384299,211
2021-10-14 16:29:05.384307,218
2021-10-14 16:29:05.384316,226
2021-10-14 16:29:05.384324,226
2021-10-14 16:29:05.384333,226
2021-10-14 16:29:05.384341,226
2021-10-14 16:29:05.384349,214
2021-10-14 16:29:05.384358,182
2021-10-14 16:29:05.384366,141
2021-10-14 16:29:05.384374,108
2021-10-14 16:29:05.384383,81
2021-10-14 16:29:05.384391,55
2021-10-14 16:29:05.475038,28
2021-10-14 16:29:05.475058,12
2021-10-14 16:29:05.475068,4
2021-10-14 16:29:05.475076,-12
2021-10-14 16:29:05.475085,-28
2021-10-14 16:29:05.475093,-24
2021-10-14 16:29:05.475101,-19
2021-10-14 16:29:05.475110,-28
2021-10-14 16:29:05.475118,-31
2021-10-14 16:29:05.475127,-16
2021-10-14 16:29:05.475135,-9
2021-10-14 16:29:05.475143,-14
2021-10-14 16:29:05.475151,-16
2021-10-14 16:29:05.475160,-4
2021-10-14 16:29:05.475168,9
2021-10-14 16:29:05.475176,14
2021-10-14 16:29:05.475185,19
2021-10-14 16:29:05.475193,24
2021-10-14 16:29:05.475202,12
2021-10-14 16:29:05.475210,2
2021-10-14 16:29:05.475218,9
2021-10-14 16:29:05.475226,24
2021-10-14 16:29:05.475235,31
2021-10-14 16:29:05.475243,33
2021-10-14 16:29:05.475251,28
2021-10-14 16:29:05.475259,14
2021-10-14 16:29:05.475267,2
2021-10-14 16:29:05.475276,7
2021-10-14 16:29:05.475284,9
2021-10-14 16:29:05.475292,9
2021-10-14 16:29:05.700042,14
2021-10-14 16:29:05.700062,14
2021-10-14 16:29:05.700072,4
2021-10-14 16:29:05.700080,2
2021-10-14 16:29:05.700089,2
2021-10-14 16:29:05.700097,-4
2021-10-14 16:29:05.700106,-9
