Time,ECG
2021-10-14 15:48:24.486334,197
2021-10-14 15:48:24.486352,187
2021-10-14 15:48:24.486362,161
2021-10-14 15:48:24.486370,132
2021-10-14 15:48:24.486379,113
2021-10-14 15:48:24.486388,88
2021-10-14 15:48:24.486396,55
2021-10-14 15:48:24.486405,16
2021-10-14 15:48:24.486413,-21
2021-10-14 15:48:24.486422,-43
2021-10-14 15:48:24.486430,-64
2021-10-14 15:48:24.486438,-91
2021-10-14 15:48:24.486446,-103
2021-10-14 15:48:24.486455,-108
2021-10-14 15:48:24.486463,-117
2021-10-14 15:48:24.486471,-125
2021-10-14 15:48:24.486479,-120
2021-10-14 15:48:24.486488,-115
2021-10-14 15:48:24.486496,-115
2021-10-14 15:48:24.486505,-108
2021-10-14 15:48:24.486513,-101
2021-10-14 15:48:24.486521,-103
2021-10-14 15:48:24.486529,-96
2021-10-14 15:48:24.486537,-79
2021-10-14 15:48:24.486546,-74
2021-10-14 15:48:24.486554,-74
2021-10-14 15:48:24.486563,-64
2021-10-14 15:48:24.486571,-55
2021-10-14 15:48:24.486579,-52
2021-10-14 15:48:24.486588,-50
2021-10-14 15:48:24.506843,-45
2021-10-14 15:48:24.506860,-38
2021-10-14 15:48:24.506869,-40
2021-10-14 15:48:24.506878,-55
2021-10-14 15:48:24.506886,-60
2021-10-14 15:48:24.506895,-48
2021-10-14 15:48:24.506904,-45
2021-10-14 15:48:24.506912,-62
2021-10-14 15:48:24.506920,-60
2021-10-14 15:48:24.506928,-45
2021-10-14 15:48:24.506937,-43
2021-10-14 15:48:24.506945,-48
2021-10-14 15:48:24.506953,-43
2021-10-14 15:48:24.506961,-31
2021-10-14 15:48:24.506969,-31
2021-10-14 15:48:24.506978,-40
2021-10-14 15:48:24.506986,-43
2021-10-14 15:48:24.506995,-45
2021-10-14 15:48:24.507004,-55
2021-10-14 15:48:24.507012,-57
2021-10-14 15:48:24.507020,-48
2021-10-14 15:48:24.507028,-40
2021-10-14 15:48:24.507037,-33
2021-10-14 15:48:24.507045,-28
2021-10-14 15:48:24.507053,-31
2021-10-14 15:48:24.507061,-28
2021-10-14 15:48:24.507070,-21
2021-10-14 15:48:24.507078,-26
2021-10-14 15:48:24.507086,-26
2021-10-14 15:48:24.507096,-14
2021-10-14 15:48:24.732423,-16
2021-10-14 15:48:24.732444,-21
2021-10-14 15:48:24.732454,-12
2021-10-14 15:48:24.732462,0
2021-10-14 15:48:24.732471,4
2021-10-14 15:48:24.732479,12
2021-10-14 15:48:24.732487,12
2021-10-14 15:48:24.732496,16
2021-10-14 15:48:24.732504,31
2021-10-14 15:48:24.732512,24
2021-10-14 15:48:24.732520,-7
2021-10-14 15:48:24.732529,-19
2021-10-14 15:48:24.732537,-14
2021-10-14 15:48:24.732549,-21
2021-10-14 15:48:24.732557,-19
2021-10-14 15:48:24.732566,-7
2021-10-14 15:48:24.732574,-12
2021-10-14 15:48:24.732582,-12
2021-10-14 15:48:24.732590,-2
2021-10-14 15:48:24.732598,0
2021-10-14 15:48:24.732607,-2
2021-10-14 15:48:24.732615,24
2021-10-14 15:48:24.732623,129
2021-10-14 15:48:24.732632,420
2021-10-14 15:48:24.732640,764
2021-10-14 15:48:24.732648,603
2021-10-14 15:48:24.732657,-303
2021-10-14 15:48:24.732665,-1058
2021-10-14 15:48:24.732674,-822
2021-10-14 15:48:24.732684,-290
2021-10-14 15:48:25.090649,-137
2021-10-14 15:48:25.090670,-40
2021-10-14 15:48:25.090679,96
2021-10-14 15:48:25.090688,96
2021-10-14 15:48:25.090696,67
2021-10-14 15:48:25.090705,103
2021-10-14 15:48:25.090713,108
2021-10-14 15:48:25.090722,101
2021-10-14 15:48:25.090730,115
2021-10-14 15:48:25.090739,113
2021-10-14 15:48:25.090747,91
2021-10-14 15:48:25.090755,86
2021-10-14 15:48:25.090764,98
2021-10-14 15:48:25.090772,120
2021-10-14 15:48:25.090781,129
2021-10-14 15:48:25.090789,120
2021-10-14 15:48:25.090798,129
2021-10-14 15:48:25.090808,149
2021-10-14 15:48:25.090817,156
2021-10-14 15:48:25.090825,165
2021-10-14 15:48:25.090833,182
2021-10-14 15:48:25.090842,187
2021-10-14 15:48:25.090850,182
2021-10-14 15:48:25.090858,187
2021-10-14 15:48:25.090866,197
2021-10-14 15:48:25.090875,197
2021-10-14 15:48:25.090883,182
2021-10-14 15:48:25.090891,170
2021-10-14 15:48:25.090900,149
2021-10-14 15:48:25.090908,113
2021-10-14 15:48:25.181987,84
2021-10-14 15:48:25.182007,57
2021-10-14 15:48:25.182017,19
2021-10-14 15:48:25.182025,-7
2021-10-14 15:48:25.182034,-33
2021-10-14 15:48:25.182042,-64
2021-10-14 15:48:25.182050,-76
2021-10-14 15:48:25.182064,-84
2021-10-14 15:48:25.182072,-105
2021-10-14 15:48:25.182081,-108
2021-10-14 15:48:25.182089,-98
2021-10-14 15:48:25.182097,-105
2021-10-14 15:48:25.182106,-108
2021-10-14 15:48:25.182114,-96
2021-10-14 15:48:25.182122,-84
2021-10-14 15:48:25.182130,-84
2021-10-14 15:48:25.182139,-88
2021-10-14 15:48:25.182147,-79
2021-10-14 15:48:25.182155,-67
2021-10-14 15:48:25.182163,-72
2021-10-14 15:48:25.182171,-74
2021-10-14 15:48:25.182180,-57
2021-10-14 15:48:25.182188,-48
2021-10-14 15:48:25.182196,-57
2021-10-14 15:48:25.182205,-57
2021-10-14 15:48:25.182213,-45
2021-10-14 15:48:25.182221,-48
2021-10-14 15:48:25.182230,-60
2021-10-14 15:48:25.182238,-60
2021-10-14 15:48:25.182247,-55
2021-10-14 15:48:25.452006,-55
2021-10-14 15:48:25.452027,-48
2021-10-14 15:48:25.452037,-45
2021-10-14 15:48:25.452045,-52
2021-10-14 15:48:25.452054,-57
2021-10-14 15:48:25.452062,-55
2021-10-14 15:48:25.452070,-52
2021-10-14 15:48:25.452079,-55
2021-10-14 15:48:25.452087,-55
2021-10-14 15:48:25.452095,-57
2021-10-14 15:48:25.452103,-62
2021-10-14 15:48:25.452112,-57
2021-10-14 15:48:25.452120,-48
2021-10-14 15:48:25.452128,-43
2021-10-14 15:48:25.452137,-50
2021-10-14 15:48:25.452145,-64
2021-10-14 15:48:25.452153,-64
2021-10-14 15:48:25.452161,-55
2021-10-14 15:48:25.452169,-50
2021-10-14 15:48:25.452177,-43
2021-10-14 15:48:25.452186,-38
2021-10-14 15:48:25.452194,-45
2021-10-14 15:48:25.452202,-48
2021-10-14 15:48:25.452210,-38
2021-10-14 15:48:25.452223,-36
2021-10-14 15:48:25.452231,-40
2021-10-14 15:48:25.452239,-36
2021-10-14 15:48:25.452248,-38
2021-10-14 15:48:25.452256,-40
2021-10-14 15:48:25.452264,-21
2021-10-14 15:48:25.767034,-2
2021-10-14 15:48:25.767055,4
2021-10-14 15:48:25.767064,9
2021-10-14 15:48:25.767073,-4
2021-10-14 15:48:25.767081,-36
2021-10-14 15:48:25.767090,-43
2021-10-14 15:48:25.767098,-36
2021-10-14 15:48:25.767106,-31
2021-10-14 15:48:25.767115,-31
2021-10-14 15:48:25.767123,-31
2021-10-14 15:48:25.767131,-31
2021-10-14 15:48:25.767139,-24
2021-10-14 15:48:25.767147,-16
2021-10-14 15:48:25.767158,-12
2021-10-14 15:48:25.767189,-7
2021-10-14 15:48:25.767202,0
2021-10-14 15:48:25.767211,86
2021-10-14 15:48:25.767220,382
2021-10-14 15:48:25.767228,764
2021-10-14 15:48:25.767237,678
2021-10-14 15:48:25.767245,-216
2021-10-14 15:48:25.767254,-1089
2021-10-14 15:48:25.767264,-940
2021-10-14 15:48:25.767272,-339
2021-10-14 15:48:25.767281,-137
2021-10-14 15:48:25.767289,-69
2021-10-14 15:48:25.767297,69
2021-10-14 15:48:25.767306,88
2021-10-14 15:48:25.767314,57
2021-10-14 15:48:25.767322,91
2021-10-14 15:48:25.947741,108
2021-10-14 15:48:25.947763,93
2021-10-14 15:48:25.947772,98
2021-10-14 15:48:25.947779,110
2021-10-14 15:48:25.947786,113
2021-10-14 15:48:25.947794,117
2021-10-14 15:48:25.947815,127
2021-10-14 15:48:25.947823,132
2021-10-14 15:48:25.947829,127
2021-10-14 15:48:25.947837,122
2021-10-14 15:48:25.947844,137
2021-10-14 15:48:25.947851,156
2021-10-14 15:48:25.947857,161
2021-10-14 15:48:25.947865,168
2021-10-14 15:48:25.947874,180
2021-10-14 15:48:25.947881,189
2021-10-14 15:48:25.947887,199
2021-10-14 15:48:25.947895,209
2021-10-14 15:48:25.947902,209
2021-10-14 15:48:25.947909,192
2021-10-14 15:48:25.947915,161
2021-10-14 15:48:25.947923,132
2021-10-14 15:48:25.947930,113
2021-10-14 15:48:25.947937,93
2021-10-14 15:48:25.947950,64
2021-10-14 15:48:25.947957,26
2021-10-14 15:48:25.947964,-21
2021-10-14 15:48:25.947971,-55
2021-10-14 15:48:25.947978,-76
2021-10-14 15:48:25.947985,-103
2021-10-14 15:48:26.127444,-120
2021-10-14 15:48:26.127470,-122
2021-10-14 15:48:26.127479,-129
2021-10-14 15:48:26.127487,-137
2021-10-14 15:48:26.127494,-137
2021-10-14 15:48:26.127502,-134
2021-10-14 15:48:26.127510,-127
2021-10-14 15:48:26.127517,-132
2021-10-14 15:48:26.127525,-139
2021-10-14 15:48:26.127533,-132
2021-10-14 15:48:26.127541,-115
2021-10-14 15:48:26.127548,-108
2021-10-14 15:48:26.127556,-101
2021-10-14 15:48:26.127564,-91
2021-10-14 15:48:26.127572,-86
2021-10-14 15:48:26.127579,-81
2021-10-14 15:48:26.127587,-72
2021-10-14 15:48:26.127595,-62
2021-10-14 15:48:26.127602,-62
2021-10-14 15:48:26.127610,-64
2021-10-14 15:48:26.127618,-67
2021-10-14 15:48:26.127626,-67
2021-10-14 15:48:26.127633,-62
2021-10-14 15:48:26.127641,-57
2021-10-14 15:48:26.127648,-57
2021-10-14 15:48:26.127656,-62
2021-10-14 15:48:26.127664,-62
2021-10-14 15:48:26.127671,-55
2021-10-14 15:48:26.127679,-55
2021-10-14 15:48:26.127687,-55
2021-10-14 15:48:26.351995,-45
2021-10-14 15:48:26.352015,-48
2021-10-14 15:48:26.352024,-57
2021-10-14 15:48:26.352033,-55
2021-10-14 15:48:26.352041,-48
2021-10-14 15:48:26.352050,-43
2021-10-14 15:48:26.352058,-43
2021-10-14 15:48:26.352067,-52
2021-10-14 15:48:26.352075,-55
2021-10-14 15:48:26.352083,-48
2021-10-14 15:48:26.352092,-40
2021-10-14 15:48:26.352100,-40
2021-10-14 15:48:26.352108,-36
2021-10-14 15:48:26.352117,-40
2021-10-14 15:48:26.352125,-45
2021-10-14 15:48:26.352133,-40
2021-10-14 15:48:26.352142,-33
2021-10-14 15:48:26.352150,-28
2021-10-14 15:48:26.352159,-28
2021-10-14 15:48:26.352167,-28
2021-10-14 15:48:26.352175,-24
2021-10-14 15:48:26.352184,-24
2021-10-14 15:48:26.352192,-16
2021-10-14 15:48:26.352201,0
2021-10-14 15:48:26.352209,7
2021-10-14 15:48:26.352218,2
2021-10-14 15:48:26.352226,2
2021-10-14 15:48:26.352234,-7
2021-10-14 15:48:26.352243,-28
2021-10-14 15:48:26.352251,-40
2021-10-14 15:48:26.621994,-38
2021-10-14 15:48:26.622015,-38
2021-10-14 15:48:26.622025,-40
2021-10-14 15:48:26.622033,-43
2021-10-14 15:48:26.622042,-43
2021-10-14 15:48:26.622050,-38
2021-10-14 15:48:26.622058,-40
2021-10-14 15:48:26.622067,-40
2021-10-14 15:48:26.622075,-31
2021-10-14 15:48:26.622083,0
2021-10-14 15:48:26.622094,125
2021-10-14 15:48:26.622103,456
2021-10-14 15:48:26.622112,800
2021-10-14 15:48:26.622120,562
2021-10-14 15:48:26.622128,-418
2021-10-14 15:48:26.622137,-1161
2021-10-14 15:48:26.622146,-829
2021-10-14 15:48:26.622154,-230
2021-10-14 15:48:26.622162,-113
2021-10-14 15:48:26.622171,-57
2021-10-14 15:48:26.622179,79
2021-10-14 15:48:26.622187,76
2021-10-14 15:48:26.622196,48
2021-10-14 15:48:26.622204,88
2021-10-14 15:48:26.622212,98
2021-10-14 15:48:26.622221,84
2021-10-14 15:48:26.622229,98
2021-10-14 15:48:26.622237,110
2021-10-14 15:48:26.622246,110
2021-10-14 15:48:26.622254,115
2021-10-14 15:48:26.802356,120
2021-10-14 15:48:26.802377,125
2021-10-14 15:48:26.802386,134
2021-10-14 15:48:26.802395,144
2021-10-14 15:48:26.802403,149
2021-10-14 15:48:26.802412,151
2021-10-14 15:48:26.802420,158
2021-10-14 15:48:26.802429,175
2021-10-14 15:48:26.802437,187
2021-10-14 15:48:26.802445,189
2021-10-14 15:48:26.802454,197
2021-10-14 15:48:26.802462,197
2021-10-14 15:48:26.802470,180
2021-10-14 15:48:26.802478,173
2021-10-14 15:48:26.802487,165
2021-10-14 15:48:26.802495,144
2021-10-14 15:48:26.802503,115
2021-10-14 15:48:26.802511,79
2021-10-14 15:48:26.802520,40
2021-10-14 15:48:26.802528,14
2021-10-14 15:48:26.802536,-14
2021-10-14 15:48:26.802544,-48
2021-10-14 15:48:26.802553,-69
2021-10-14 15:48:26.802561,-84
2021-10-14 15:48:26.802569,-101
2021-10-14 15:48:26.802582,-110
2021-10-14 15:48:26.802590,-113
2021-10-14 15:48:26.802598,-113
2021-10-14 15:48:26.802606,-113
2021-10-14 15:48:26.802615,-115
2021-10-14 15:48:27.070678,-122
2021-10-14 15:48:27.070700,-127
2021-10-14 15:48:27.070709,-125
2021-10-14 15:48:27.070718,-115
2021-10-14 15:48:27.070726,-113
2021-10-14 15:48:27.070735,-115
2021-10-14 15:48:27.070743,-105
2021-10-14 15:48:27.070752,-101
2021-10-14 15:48:27.070760,-105
2021-10-14 15:48:27.070768,-101
2021-10-14 15:48:27.070776,-91
2021-10-14 15:48:27.070785,-91
2021-10-14 15:48:27.070793,-86
2021-10-14 15:48:27.070801,-74
2021-10-14 15:48:27.070810,-69
2021-10-14 15:48:27.070818,-67
2021-10-14 15:48:27.070826,-69
2021-10-14 15:48:27.070835,-67
2021-10-14 15:48:27.070843,-60
2021-10-14 15:48:27.070851,-55
2021-10-14 15:48:27.070860,-55
2021-10-14 15:48:27.070868,-55
2021-10-14 15:48:27.070876,-55
2021-10-14 15:48:27.070884,-50
2021-10-14 15:48:27.070893,-43
2021-10-14 15:48:27.070901,-38
2021-10-14 15:48:27.070910,-36
2021-10-14 15:48:27.070918,-38
2021-10-14 15:48:27.070926,-40
2021-10-14 15:48:27.070934,-33
2021-10-14 15:48:27.252011,-24
2021-10-14 15:48:27.252033,-21
2021-10-14 15:48:27.252042,-24
2021-10-14 15:48:27.252051,-28
2021-10-14 15:48:27.252059,-38
2021-10-14 15:48:27.252067,-40
2021-10-14 15:48:27.252076,-28
2021-10-14 15:48:27.252084,-19
2021-10-14 15:48:27.252092,-21
2021-10-14 15:48:27.252100,-38
2021-10-14 15:48:27.252109,-50
2021-10-14 15:48:27.252117,-40
2021-10-14 15:48:27.252125,-28
2021-10-14 15:48:27.252134,-28
2021-10-14 15:48:27.252142,-28
2021-10-14 15:48:27.252150,-21
2021-10-14 15:48:27.252161,-21
2021-10-14 15:48:27.252170,-21
2021-10-14 15:48:27.252178,-12
2021-10-14 15:48:27.252186,-4
2021-10-14 15:48:27.252194,-2
2021-10-14 15:48:27.252203,4
2021-10-14 15:48:27.252211,12
2021-10-14 15:48:27.252219,24
2021-10-14 15:48:27.252228,36
2021-10-14 15:48:27.252236,14
2021-10-14 15:48:27.252244,-16
2021-10-14 15:48:27.252253,-16
2021-10-14 15:48:27.252261,-4
2021-10-14 15:48:27.252269,-4
2021-10-14 15:48:27.611400,-9
2021-10-14 15:48:27.611422,-4
2021-10-14 15:48:27.611431,-2
2021-10-14 15:48:27.611439,-12
2021-10-14 15:48:27.611448,-12
2021-10-14 15:48:27.611456,-2
2021-10-14 15:48:27.611464,-7
2021-10-14 15:48:27.611473,12
2021-10-14 15:48:27.611481,168
2021-10-14 15:48:27.611490,519
2021-10-14 15:48:27.611498,791
2021-10-14 15:48:27.611506,418
2021-10-14 15:48:27.611515,-577
2021-10-14 15:48:27.611523,-1120
2021-10-14 15:48:27.611531,-656
2021-10-14 15:48:27.611540,-151
2021-10-14 15:48:27.611548,-105
2021-10-14 15:48:27.611556,-36
2021-10-14 15:48:27.611565,84
2021-10-14 15:48:27.611573,57
2021-10-14 15:48:27.611581,38
2021-10-14 15:48:27.611590,81
2021-10-14 15:48:27.611598,86
2021-10-14 15:48:27.611606,76
2021-10-14 15:48:27.611615,88
2021-10-14 15:48:27.611623,101
2021-10-14 15:48:27.611632,101
2021-10-14 15:48:27.611640,101
2021-10-14 15:48:27.611648,108
2021-10-14 15:48:27.611657,117
2021-10-14 15:48:27.792450,125
2021-10-14 15:48:27.792470,139
2021-10-14 15:48:27.792478,149
2021-10-14 15:48:27.792485,146
2021-10-14 15:48:27.792492,156
2021-10-14 15:48:27.792498,177
2021-10-14 15:48:27.792505,189
2021-10-14 15:48:27.792512,189
2021-10-14 15:48:27.792518,189
2021-10-14 15:48:27.792525,185
2021-10-14 15:48:27.792532,180
2021-10-14 15:48:27.792539,177
2021-10-14 15:48:27.792546,170
2021-10-14 15:48:27.792555,146
2021-10-14 15:48:27.792562,113
2021-10-14 15:48:27.792569,79
2021-10-14 15:48:27.792576,50
2021-10-14 15:48:27.792582,26
2021-10-14 15:48:27.792589,-4
2021-10-14 15:48:27.792595,-43
2021-10-14 15:48:27.792603,-76
2021-10-14 15:48:27.792610,-91
2021-10-14 15:48:27.792617,-93
2021-10-14 15:48:27.792625,-96
2021-10-14 15:48:27.792632,-103
2021-10-14 15:48:27.792639,-105
2021-10-14 15:48:27.792647,-105
2021-10-14 15:48:27.792656,-113
2021-10-14 15:48:27.792664,-120
2021-10-14 15:48:27.792673,-110
2021-10-14 15:48:27.972397,-96
2021-10-14 15:48:27.972419,-86
2021-10-14 15:48:27.972428,-81
2021-10-14 15:48:27.972437,-76
2021-10-14 15:48:27.972445,-69
2021-10-14 15:48:27.972453,-60
2021-10-14 15:48:27.972462,-50
2021-10-14 15:48:27.972470,-52
2021-10-14 15:48:27.972478,-62
2021-10-14 15:48:27.972487,-57
2021-10-14 15:48:27.972495,-43
2021-10-14 15:48:27.972503,-45
2021-10-14 15:48:27.972512,-60
2021-10-14 15:48:27.972520,-67
2021-10-14 15:48:27.972528,-62
2021-10-14 15:48:27.972536,-67
2021-10-14 15:48:27.972546,-72
2021-10-14 15:48:27.972554,-69
2021-10-14 15:48:27.972562,-62
2021-10-14 15:48:27.972570,-62
2021-10-14 15:48:27.972579,-72
2021-10-14 15:48:27.972587,-74
2021-10-14 15:48:27.972595,-60
2021-10-14 15:48:27.972604,-50
2021-10-14 15:48:27.972612,-48
2021-10-14 15:48:27.972620,-40
2021-10-14 15:48:27.972628,-36
2021-10-14 15:48:27.972636,-38
2021-10-14 15:48:27.972645,-40
2021-10-14 15:48:27.972653,-33
2021-10-14 15:48:28.197055,-24
2021-10-14 15:48:28.197078,-26
2021-10-14 15:48:28.197087,-24
2021-10-14 15:48:28.197096,-19
2021-10-14 15:48:28.197104,-16
2021-10-14 15:48:28.197113,-16
2021-10-14 15:48:28.197121,-12
2021-10-14 15:48:28.197129,-14
2021-10-14 15:48:28.197138,-19
2021-10-14 15:48:28.197146,-12
2021-10-14 15:48:28.197155,-4
2021-10-14 15:48:28.197163,-4
2021-10-14 15:48:28.197171,-2
2021-10-14 15:48:28.197177,4
2021-10-14 15:48:28.197185,4
2021-10-14 15:48:28.197192,19
2021-10-14 15:48:28.197199,38
2021-10-14 15:48:28.197210,19
2021-10-14 15:48:28.197217,-26
2021-10-14 15:48:28.197224,-36
2021-10-14 15:48:28.197232,-16
2021-10-14 15:48:28.197240,-12
2021-10-14 15:48:28.197247,-9
2021-10-14 15:48:28.197255,4
2021-10-14 15:48:28.197263,2
2021-10-14 15:48:28.197271,-14
2021-10-14 15:48:28.197279,-7
2021-10-14 15:48:28.197287,14
2021-10-14 15:48:28.197296,28
2021-10-14 15:48:28.197304,72
2021-10-14 15:48:28.467076,228
2021-10-14 15:48:28.467098,572
2021-10-14 15:48:28.467108,824
2021-10-14 15:48:28.467117,389
2021-10-14 15:48:28.467125,-627
2021-10-14 15:48:28.467133,-1111
2021-10-14 15:48:28.467166,-656
2021-10-14 15:48:28.467178,-197
2021-10-14 15:48:28.467187,-96
2021-10-14 15:48:28.467195,28
2021-10-14 15:48:28.467204,134
2021-10-14 15:48:28.467212,113
2021-10-14 15:48:28.467220,110
2021-10-14 15:48:28.467229,134
2021-10-14 15:48:28.467237,129
2021-10-14 15:48:28.467245,137
2021-10-14 15:48:28.467254,158
2021-10-14 15:48:28.467262,146
2021-10-14 15:48:28.467270,127
2021-10-14 15:48:28.467278,137
2021-10-14 15:48:28.467287,149
2021-10-14 15:48:28.467295,153
2021-10-14 15:48:28.467303,165
2021-10-14 15:48:28.467312,177
2021-10-14 15:48:28.467320,182
2021-10-14 15:48:28.467328,194
2021-10-14 15:48:28.467337,209
2021-10-14 15:48:28.467345,218
2021-10-14 15:48:28.467354,242
2021-10-14 15:48:28.467362,259
2021-10-14 15:48:28.647417,254
2021-10-14 15:48:28.647437,257
2021-10-14 15:48:28.647446,264
2021-10-14 15:48:28.647455,259
2021-10-14 15:48:28.647464,247
2021-10-14 15:48:28.647472,216
2021-10-14 15:48:28.647481,177
2021-10-14 15:48:28.647489,153
2021-10-14 15:48:28.647498,122
2021-10-14 15:48:28.647506,86
2021-10-14 15:48:28.647514,50
2021-10-14 15:48:28.647523,9
2021-10-14 15:48:28.647531,-21
2021-10-14 15:48:28.647539,-36
2021-10-14 15:48:28.647547,-50
2021-10-14 15:48:28.647556,-62
2021-10-14 15:48:28.647564,-69
2021-10-14 15:48:28.647573,-74
2021-10-14 15:48:28.647581,-81
2021-10-14 15:48:28.647589,-74
2021-10-14 15:48:28.647597,-67
2021-10-14 15:48:28.647606,-72
2021-10-14 15:48:28.647614,-74
2021-10-14 15:48:28.647623,-67
2021-10-14 15:48:28.647631,-55
2021-10-14 15:48:28.647639,-38
2021-10-14 15:48:28.647648,-33
2021-10-14 15:48:28.647656,-38
2021-10-14 15:48:28.647665,-31
2021-10-14 15:48:28.647676,-21
2021-10-14 15:48:28.916430,-16
2021-10-14 15:48:28.916451,-14
2021-10-14 15:48:28.916461,-7
2021-10-14 15:48:28.916469,0
2021-10-14 15:48:28.916478,0
2021-10-14 15:48:28.916486,-9
2021-10-14 15:48:28.916494,-16
2021-10-14 15:48:28.916503,-9
2021-10-14 15:48:28.916511,-4
2021-10-14 15:48:28.916519,-4
2021-10-14 15:48:28.916527,-14
2021-10-14 15:48:28.916536,-19
2021-10-14 15:48:28.916544,-9
2021-10-14 15:48:28.916552,4
2021-10-14 15:48:28.916560,4
2021-10-14 15:48:28.916568,2
2021-10-14 15:48:28.916577,2
2021-10-14 15:48:28.916585,7
2021-10-14 15:48:28.916593,9
2021-10-14 15:48:28.916601,12
2021-10-14 15:48:28.916610,14
2021-10-14 15:48:28.916618,19
2021-10-14 15:48:28.916626,9
2021-10-14 15:48:28.916634,-4
2021-10-14 15:48:28.916642,-4
2021-10-14 15:48:28.916685,9
2021-10-14 15:48:28.916693,21
2021-10-14 15:48:28.916714,21
2021-10-14 15:48:28.916723,31
2021-10-14 15:48:28.916732,50
2021-10-14 15:48:29.142353,45
2021-10-14 15:48:29.142382,16
2021-10-14 15:48:29.142391,4
2021-10-14 15:48:29.142400,9
2021-10-14 15:48:29.142409,2
2021-10-14 15:48:29.142417,2
2021-10-14 15:48:29.142426,12
2021-10-14 15:48:29.142434,16
2021-10-14 15:48:29.142442,16
2021-10-14 15:48:29.142450,14
2021-10-14 15:48:29.142459,14
2021-10-14 15:48:29.142467,26
2021-10-14 15:48:29.142475,60
2021-10-14 15:48:29.142483,175
2021-10-14 15:48:29.142492,500
2021-10-14 15:48:29.142500,863
2021-10-14 15:48:29.142508,630
2021-10-14 15:48:29.142517,-389
2021-10-14 15:48:29.142525,-1144
2021-10-14 15:48:29.142533,-815
2021-10-14 15:48:29.142542,-228
2021-10-14 15:48:29.142550,-93
2021-10-14 15:48:29.142558,-7
2021-10-14 15:48:29.142566,137
2021-10-14 15:48:29.142575,139
2021-10-14 15:48:29.142583,105
2021-10-14 15:48:29.142591,129
2021-10-14 15:48:29.142599,137
2021-10-14 15:48:29.142608,125
2021-10-14 15:48:29.142616,134
2021-10-14 15:48:29.367044,149
2021-10-14 15:48:29.367066,156
2021-10-14 15:48:29.367076,161
2021-10-14 15:48:29.367084,153
2021-10-14 15:48:29.367093,144
2021-10-14 15:48:29.367101,158
2021-10-14 15:48:29.367109,175
2021-10-14 15:48:29.367118,182
2021-10-14 15:48:29.367126,189
2021-10-14 15:48:29.367135,194
2021-10-14 15:48:29.367143,202
2021-10-14 15:48:29.367151,221
2021-10-14 15:48:29.367159,235
2021-10-14 15:48:29.367168,242
2021-10-14 15:48:29.367176,247
2021-10-14 15:48:29.367184,238
2021-10-14 15:48:29.367193,223
2021-10-14 15:48:29.367201,216
2021-10-14 15:48:29.367210,204
2021-10-14 15:48:29.367218,177
2021-10-14 15:48:29.367231,141
2021-10-14 15:48:29.367240,98
2021-10-14 15:48:29.367248,62
2021-10-14 15:48:29.367257,36
2021-10-14 15:48:29.367265,12
2021-10-14 15:48:29.367274,-2
2021-10-14 15:48:29.367282,-16
2021-10-14 15:48:29.367290,-43
2021-10-14 15:48:29.367299,-72
2021-10-14 15:48:29.367307,-79
2021-10-14 15:48:29.592030,-74
2021-10-14 15:48:29.592052,-72
2021-10-14 15:48:29.592061,-79
2021-10-14 15:48:29.592070,-88
2021-10-14 15:48:29.592078,-81
2021-10-14 15:48:29.592087,-69
2021-10-14 15:48:29.592095,-69
2021-10-14 15:48:29.592103,-67
2021-10-14 15:48:29.592112,-69
2021-10-14 15:48:29.592120,-74
2021-10-14 15:48:29.592128,-62
2021-10-14 15:48:29.592136,-50
2021-10-14 15:48:29.592144,-48
2021-10-14 15:48:29.592152,-38
2021-10-14 15:48:29.592161,-38
2021-10-14 15:48:29.592169,-45
2021-10-14 15:48:29.592177,-40
2021-10-14 15:48:29.592185,-36
2021-10-14 15:48:29.592194,-38
2021-10-14 15:48:29.592202,-33
2021-10-14 15:48:29.592210,-31
2021-10-14 15:48:29.592218,-38
2021-10-14 15:48:29.592226,-33
2021-10-14 15:48:29.592235,-24
2021-10-14 15:48:29.592243,-21
2021-10-14 15:48:29.592251,-26
2021-10-14 15:48:29.592267,-28
2021-10-14 15:48:29.592276,-28
2021-10-14 15:48:29.592284,-24
2021-10-14 15:48:29.592293,-24
2021-10-14 15:48:29.862406,-31
2021-10-14 15:48:29.862427,-28
2021-10-14 15:48:29.862436,-24
2021-10-14 15:48:29.862445,-24
2021-10-14 15:48:29.862453,-24
2021-10-14 15:48:29.862462,-19
2021-10-14 15:48:29.862470,-12
2021-10-14 15:48:29.862478,-12
2021-10-14 15:48:29.862486,-19
2021-10-14 15:48:29.862495,-19
2021-10-14 15:48:29.862503,-7
2021-10-14 15:48:29.862511,0
2021-10-14 15:48:29.862519,2
2021-10-14 15:48:29.862527,14
2021-10-14 15:48:29.862536,21
2021-10-14 15:48:29.862544,0
2021-10-14 15:48:29.862552,-24
2021-10-14 15:48:29.862561,-24
2021-10-14 15:48:29.862569,-14
2021-10-14 15:48:29.862577,-16
2021-10-14 15:48:29.862586,-19
2021-10-14 15:48:29.862594,-14
2021-10-14 15:48:29.862602,-2
2021-10-14 15:48:29.862610,4
2021-10-14 15:48:29.862618,7
2021-10-14 15:48:29.862627,9
2021-10-14 15:48:29.862635,19
2021-10-14 15:48:29.862643,79
2021-10-14 15:48:29.862652,307
2021-10-14 15:48:29.862660,721
2021-10-14 15:48:30.086803,848
2021-10-14 15:48:30.086824,132
2021-10-14 15:48:30.086834,-925
2021-10-14 15:48:30.086842,-1096
2021-10-14 15:48:30.086851,-478
2021-10-14 15:48:30.086859,-127
2021-10-14 15:48:30.086868,-91
2021-10-14 15:48:30.086876,26
2021-10-14 15:48:30.086884,93
2021-10-14 15:48:30.086893,62
2021-10-14 15:48:30.086901,74
2021-10-14 15:48:30.086909,101
2021-10-14 15:48:30.086918,93
2021-10-14 15:48:30.086926,88
2021-10-14 15:48:30.086934,98
2021-10-14 15:48:30.086942,103
2021-10-14 15:48:30.086951,108
2021-10-14 15:48:30.086959,120
2021-10-14 15:48:30.086967,122
2021-10-14 15:48:30.086975,117
2021-10-14 15:48:30.086984,127
2021-10-14 15:48:30.086992,141
2021-10-14 15:48:30.087006,151
2021-10-14 15:48:30.087014,163
2021-10-14 15:48:30.087022,177
2021-10-14 15:48:30.087030,187
2021-10-14 15:48:30.087039,194
2021-10-14 15:48:30.087047,199
2021-10-14 15:48:30.087055,209
2021-10-14 15:48:30.087064,214
2021-10-14 15:48:30.312076,209
2021-10-14 15:48:30.312096,192
2021-10-14 15:48:30.312105,175
2021-10-14 15:48:30.312113,151
2021-10-14 15:48:30.312121,115
2021-10-14 15:48:30.312129,86
2021-10-14 15:48:30.312137,55
2021-10-14 15:48:30.312144,19
2021-10-14 15:48:30.312152,-9
2021-10-14 15:48:30.312160,-31
2021-10-14 15:48:30.312168,-48
2021-10-14 15:48:30.312176,-62
2021-10-14 15:48:30.312183,-84
2021-10-14 15:48:30.312191,-96
2021-10-14 15:48:30.312200,-96
2021-10-14 15:48:30.312208,-93
2021-10-14 15:48:30.312215,-93
2021-10-14 15:48:30.312223,-86
2021-10-14 15:48:30.312231,-86
2021-10-14 15:48:30.312238,-88
2021-10-14 15:48:30.312246,-79
2021-10-14 15:48:30.312254,-67
2021-10-14 15:48:30.312261,-62
2021-10-14 15:48:30.312269,-62
2021-10-14 15:48:30.312277,-64
2021-10-14 15:48:30.312285,-57
2021-10-14 15:48:30.312292,-50
2021-10-14 15:48:30.312300,-48
2021-10-14 15:48:30.312308,-45
2021-10-14 15:48:30.312315,-45
2021-10-14 15:48:30.536426,-52
2021-10-14 15:48:30.536446,-52
2021-10-14 15:48:30.536455,-57
2021-10-14 15:48:30.536464,-62
2021-10-14 15:48:30.536472,-60
2021-10-14 15:48:30.536481,-60
2021-10-14 15:48:30.536489,-72
2021-10-14 15:48:30.536497,-74
2021-10-14 15:48:30.536505,-76
2021-10-14 15:48:30.536514,-91
2021-10-14 15:48:30.536522,-101
2021-10-14 15:48:30.536530,-96
2021-10-14 15:48:30.536538,-98
2021-10-14 15:48:30.536546,-93
2021-10-14 15:48:30.536555,-86
2021-10-14 15:48:30.536563,-81
2021-10-14 15:48:30.536571,-81
2021-10-14 15:48:30.536579,-84
2021-10-14 15:48:30.536587,-88
2021-10-14 15:48:30.536596,-81
2021-10-14 15:48:30.536604,-74
2021-10-14 15:48:30.536612,-74
2021-10-14 15:48:30.536620,-69
2021-10-14 15:48:30.536629,-67
2021-10-14 15:48:30.536637,-67
2021-10-14 15:48:30.536645,-60
2021-10-14 15:48:30.536654,-55
2021-10-14 15:48:30.536662,-52
2021-10-14 15:48:30.536670,-50
2021-10-14 15:48:30.536679,-48
2021-10-14 15:48:30.807076,-48
2021-10-14 15:48:30.807098,-45
2021-10-14 15:48:30.807108,-40
2021-10-14 15:48:30.807117,-38
2021-10-14 15:48:30.807125,-28
2021-10-14 15:48:30.807134,-24
2021-10-14 15:48:30.807142,-19
2021-10-14 15:48:30.807150,-7
2021-10-14 15:48:30.807159,-16
2021-10-14 15:48:30.807167,-48
2021-10-14 15:48:30.807175,-62
2021-10-14 15:48:30.807184,-64
2021-10-14 15:48:30.807192,-64
2021-10-14 15:48:30.807200,-57
2021-10-14 15:48:30.807209,-52
2021-10-14 15:48:30.807217,-55
2021-10-14 15:48:30.807225,-55
2021-10-14 15:48:30.807234,-50
2021-10-14 15:48:30.807242,-40
2021-10-14 15:48:30.807251,-33
2021-10-14 15:48:30.807259,-16
2021-10-14 15:48:30.807267,67
2021-10-14 15:48:30.807275,343
2021-10-14 15:48:30.807284,738
2021-10-14 15:48:30.807292,719
2021-10-14 15:48:30.807301,-125
2021-10-14 15:48:30.807309,-1065
2021-10-14 15:48:30.807317,-983
2021-10-14 15:48:30.807326,-334
2021-10-14 15:48:30.807334,-101
2021-10-14 15:48:30.942054,-81
2021-10-14 15:48:30.942085,45
2021-10-14 15:48:30.942095,81
2021-10-14 15:48:30.942103,38
2021-10-14 15:48:30.942112,57
2021-10-14 15:48:30.942123,76
2021-10-14 15:48:30.942132,69
2021-10-14 15:48:30.942140,74
2021-10-14 15:48:30.942148,84
2021-10-14 15:48:30.942157,79
2021-10-14 15:48:30.942165,76
2021-10-14 15:48:30.942173,86
2021-10-14 15:48:30.942182,96
2021-10-14 15:48:30.942190,101
2021-10-14 15:48:30.942198,103
2021-10-14 15:48:30.942206,96
2021-10-14 15:48:30.942215,91
2021-10-14 15:48:30.942223,105
2021-10-14 15:48:30.942231,122
2021-10-14 15:48:30.942239,134
2021-10-14 15:48:30.942248,149
2021-10-14 15:48:30.942256,153
2021-10-14 15:48:30.942264,146
2021-10-14 15:48:30.942272,146
2021-10-14 15:48:30.942280,146
2021-10-14 15:48:30.942289,137
2021-10-14 15:48:30.942297,117
2021-10-14 15:48:30.942305,96
2021-10-14 15:48:30.942313,79
2021-10-14 15:48:30.942321,60
2021-10-14 15:48:31.346074,36
2021-10-14 15:48:31.346097,4
2021-10-14 15:48:31.346105,-24
2021-10-14 15:48:31.346111,-48
2021-10-14 15:48:31.346118,-74
2021-10-14 15:48:31.346125,-84
2021-10-14 15:48:31.346132,-84
2021-10-14 15:48:31.346138,-93
2021-10-14 15:48:31.346145,-103
2021-10-14 15:48:31.346152,-108
2021-10-14 15:48:31.346158,-110
2021-10-14 15:48:31.346165,-105
2021-10-14 15:48:31.346172,-105
2021-10-14 15:48:31.346178,-110
2021-10-14 15:48:31.346185,-105
2021-10-14 15:48:31.346192,-98
2021-10-14 15:48:31.346199,-96
2021-10-14 15:48:31.346206,-86
2021-10-14 15:48:31.346213,-74
2021-10-14 15:48:31.346219,-69
2021-10-14 15:48:31.346226,-69
2021-10-14 15:48:31.346233,-74
2021-10-14 15:48:31.346239,-74
2021-10-14 15:48:31.346246,-64
2021-10-14 15:48:31.346253,-60
2021-10-14 15:48:31.346259,-57
2021-10-14 15:48:31.346266,-55
2021-10-14 15:48:31.346273,-62
2021-10-14 15:48:31.346279,-69
2021-10-14 15:48:31.346286,-72
2021-10-14 15:48:31.437074,-74
2021-10-14 15:48:31.437095,-74
2021-10-14 15:48:31.437104,-69
2021-10-14 15:48:31.437113,-76
2021-10-14 15:48:31.437121,-81
2021-10-14 15:48:31.437130,-76
2021-10-14 15:48:31.437138,-69
2021-10-14 15:48:31.437147,-69
2021-10-14 15:48:31.437155,-76
2021-10-14 15:48:31.437164,-86
2021-10-14 15:48:31.437172,-81
2021-10-14 15:48:31.437180,-72
2021-10-14 15:48:31.437189,-72
2021-10-14 15:48:31.437197,-72
2021-10-14 15:48:31.437205,-76
2021-10-14 15:48:31.437213,-76
2021-10-14 15:48:31.437222,-67
2021-10-14 15:48:31.437230,-60
2021-10-14 15:48:31.437239,-60
2021-10-14 15:48:31.437247,-57
2021-10-14 15:48:31.437255,-60
2021-10-14 15:48:31.437263,-69
2021-10-14 15:48:31.437272,-67
2021-10-14 15:48:31.437280,-55
2021-10-14 15:48:31.437288,-55
2021-10-14 15:48:31.437296,-60
2021-10-14 15:48:31.437305,-57
2021-10-14 15:48:31.437313,-55
2021-10-14 15:48:31.437321,-50
2021-10-14 15:48:31.437329,-40
2021-10-14 15:48:31.662472,-28
2021-10-14 15:48:31.662494,-24
2021-10-14 15:48:31.662503,-21
2021-10-14 15:48:31.662512,-19
2021-10-14 15:48:31.662520,-31
2021-10-14 15:48:31.662529,-48
2021-10-14 15:48:31.662537,-48
2021-10-14 15:48:31.662546,-45
2021-10-14 15:48:31.662554,-55
2021-10-14 15:48:31.662562,-60
2021-10-14 15:48:31.662571,-45
2021-10-14 15:48:31.662579,-36
2021-10-14 15:48:31.662587,-38
2021-10-14 15:48:31.662596,-40
2021-10-14 15:48:31.662604,-43
2021-10-14 15:48:31.662612,-45
2021-10-14 15:48:31.662621,-21
2021-10-14 15:48:31.662629,108
2021-10-14 15:48:31.662637,437
2021-10-14 15:48:31.662646,743
2021-10-14 15:48:31.662654,430
2021-10-14 15:48:31.662662,-541
2021-10-14 15:48:31.662670,-1127
2021-10-14 15:48:31.662679,-759
2021-10-14 15:48:31.662687,-271
2021-10-14 15:48:31.662695,-149
2021-10-14 15:48:31.662704,-38
2021-10-14 15:48:31.662712,72
2021-10-14 15:48:31.662720,60
2021-10-14 15:48:31.662729,48
2021-10-14 15:48:31.932484,79
2021-10-14 15:48:31.932508,79
2021-10-14 15:48:31.932518,67
2021-10-14 15:48:31.932527,76
2021-10-14 15:48:31.932535,79
2021-10-14 15:48:31.932544,81
2021-10-14 15:48:31.932552,93
2021-10-14 15:48:31.932560,88
2021-10-14 15:48:31.932568,79
2021-10-14 15:48:31.932577,101
2021-10-14 15:48:31.932585,127
2021-10-14 15:48:31.932593,125
2021-10-14 15:48:31.932601,127
2021-10-14 15:48:31.932609,132
2021-10-14 15:48:31.932617,139
2021-10-14 15:48:31.932626,153
2021-10-14 15:48:31.932634,161
2021-10-14 15:48:31.932642,158
2021-10-14 15:48:31.932650,156
2021-10-14 15:48:31.932658,151
2021-10-14 15:48:31.932667,134
2021-10-14 15:48:31.932675,113
2021-10-14 15:48:31.932683,101
2021-10-14 15:48:31.932691,96
2021-10-14 15:48:31.932699,79
2021-10-14 15:48:31.932707,45
2021-10-14 15:48:31.932716,7
2021-10-14 15:48:31.932724,-16
2021-10-14 15:48:31.932732,-28
2021-10-14 15:48:31.932740,-43
2021-10-14 15:48:32.112062,-60
2021-10-14 15:48:32.112084,-74
2021-10-14 15:48:32.112093,-76
2021-10-14 15:48:32.112102,-76
2021-10-14 15:48:32.112110,-81
2021-10-14 15:48:32.112118,-72
2021-10-14 15:48:32.112127,-64
2021-10-14 15:48:32.112135,-74
2021-10-14 15:48:32.112144,-74
2021-10-14 15:48:32.112152,-62
2021-10-14 15:48:32.112160,-52
2021-10-14 15:48:32.112169,-50
2021-10-14 15:48:32.112177,-52
2021-10-14 15:48:32.112185,-55
2021-10-14 15:48:32.112193,-55
2021-10-14 15:48:32.112201,-52
2021-10-14 15:48:32.112210,-50
2021-10-14 15:48:32.112218,-43
2021-10-14 15:48:32.112226,-52
2021-10-14 15:48:32.112235,-74
2021-10-14 15:48:32.112243,-81
2021-10-14 15:48:32.112252,-86
2021-10-14 15:48:32.112260,-86
2021-10-14 15:48:32.112268,-86
2021-10-14 15:48:32.112277,-93
2021-10-14 15:48:32.112285,-96
2021-10-14 15:48:32.112293,-88
2021-10-14 15:48:32.112302,-91
2021-10-14 15:48:32.112310,-93
2021-10-14 15:48:32.112318,-86
2021-10-14 15:48:32.337082,-79
2021-10-14 15:48:32.337103,-76
2021-10-14 15:48:32.337113,-79
2021-10-14 15:48:32.337122,-76
2021-10-14 15:48:32.337130,-72
2021-10-14 15:48:32.337139,-79
2021-10-14 15:48:32.337147,-91
2021-10-14 15:48:32.337155,-86
2021-10-14 15:48:32.337164,-69
2021-10-14 15:48:32.337172,-69
2021-10-14 15:48:32.337180,-72
2021-10-14 15:48:32.337189,-72
2021-10-14 15:48:32.337197,-79
2021-10-14 15:48:32.337205,-76
2021-10-14 15:48:32.337213,-64
2021-10-14 15:48:32.337222,-62
2021-10-14 15:48:32.337230,-69
2021-10-14 15:48:32.337238,-69
2021-10-14 15:48:32.337246,-62
2021-10-14 15:48:32.337255,-50
2021-10-14 15:48:32.337263,-40
2021-10-14 15:48:32.337271,-40
2021-10-14 15:48:32.337280,-38
2021-10-14 15:48:32.337288,-36
2021-10-14 15:48:32.337296,-31
2021-10-14 15:48:32.337305,-12
2021-10-14 15:48:32.337313,-9
2021-10-14 15:48:32.337321,-36
2021-10-14 15:48:32.337330,-55
2021-10-14 15:48:32.337338,-55
2021-10-14 15:48:32.562413,-50
2021-10-14 15:48:32.562432,-50
2021-10-14 15:48:32.562442,-60
2021-10-14 15:48:32.562450,-57
2021-10-14 15:48:32.562458,-55
2021-10-14 15:48:32.562467,-60
2021-10-14 15:48:32.562475,-60
2021-10-14 15:48:32.562484,-43
2021-10-14 15:48:32.562492,-28
2021-10-14 15:48:32.562500,26
2021-10-14 15:48:32.562509,240
2021-10-14 15:48:32.562517,598
2021-10-14 15:48:32.562526,692
2021-10-14 15:48:32.562534,40
2021-10-14 15:48:32.562542,-875
2021-10-14 15:48:32.562551,-966
2021-10-14 15:48:32.562559,-413
2021-10-14 15:48:32.562567,-139
2021-10-14 15:48:32.562576,-101
2021-10-14 15:48:32.562584,19
2021-10-14 15:48:32.562592,79
2021-10-14 15:48:32.562601,43
2021-10-14 15:48:32.562609,48
2021-10-14 15:48:32.562617,76
2021-10-14 15:48:32.562625,67
2021-10-14 15:48:32.562634,62
2021-10-14 15:48:32.562642,76
2021-10-14 15:48:32.562650,79
2021-10-14 15:48:32.562658,79
2021-10-14 15:48:32.562667,98
2021-10-14 15:48:32.787077,108
2021-10-14 15:48:32.787098,105
2021-10-14 15:48:32.787108,113
2021-10-14 15:48:32.787116,122
2021-10-14 15:48:32.787125,120
2021-10-14 15:48:32.787133,129
2021-10-14 15:48:32.787141,153
2021-10-14 15:48:32.787149,163
2021-10-14 15:48:32.787158,170
2021-10-14 15:48:32.787166,185
2021-10-14 15:48:32.787174,180
2021-10-14 15:48:32.787186,165
2021-10-14 15:48:32.787194,168
2021-10-14 15:48:32.787203,177
2021-10-14 15:48:32.787211,161
2021-10-14 15:48:32.787219,122
2021-10-14 15:48:32.787228,101
2021-10-14 15:48:32.787236,91
2021-10-14 15:48:32.787244,57
2021-10-14 15:48:32.787253,24
2021-10-14 15:48:32.787261,12
2021-10-14 15:48:32.787269,2
2021-10-14 15:48:32.787278,-16
2021-10-14 15:48:32.787286,-31
2021-10-14 15:48:32.787294,-36
2021-10-14 15:48:32.787302,-45
2021-10-14 15:48:32.787311,-67
2021-10-14 15:48:32.787319,-79
2021-10-14 15:48:32.787328,-74
2021-10-14 15:48:32.787336,-72
2021-10-14 15:48:33.012484,-64
2021-10-14 15:48:33.012505,-57
2021-10-14 15:48:33.012515,-62
2021-10-14 15:48:33.012523,-76
2021-10-14 15:48:33.012532,-81
2021-10-14 15:48:33.012540,-81
2021-10-14 15:48:33.012549,-74
2021-10-14 15:48:33.012557,-64
2021-10-14 15:48:33.012565,-72
2021-10-14 15:48:33.012574,-88
2021-10-14 15:48:33.012582,-88
2021-10-14 15:48:33.012590,-72
2021-10-14 15:48:33.012598,-62
2021-10-14 15:48:33.012606,-64
2021-10-14 15:48:33.012615,-67
2021-10-14 15:48:33.012623,-67
2021-10-14 15:48:33.012631,-67
2021-10-14 15:48:33.012639,-60
2021-10-14 15:48:33.012648,-57
2021-10-14 15:48:33.012656,-60
2021-10-14 15:48:33.012664,-55
2021-10-14 15:48:33.012672,-50
2021-10-14 15:48:33.012681,-50
2021-10-14 15:48:33.012689,-45
2021-10-14 15:48:33.012697,-45
2021-10-14 15:48:33.012705,-40
2021-10-14 15:48:33.012714,-28
2021-10-14 15:48:33.012722,-36
2021-10-14 15:48:33.012730,-50
2021-10-14 15:48:33.012739,-33
2021-10-14 15:48:33.371387,-19
2021-10-14 15:48:33.371408,-31
2021-10-14 15:48:33.371418,-36
2021-10-14 15:48:33.371426,-40
2021-10-14 15:48:33.371435,-43
2021-10-14 15:48:33.371443,-26
2021-10-14 15:48:33.371451,-14
2021-10-14 15:48:33.371460,-16
2021-10-14 15:48:33.371468,-24
2021-10-14 15:48:33.371476,-26
2021-10-14 15:48:33.371485,-12
2021-10-14 15:48:33.371493,4
2021-10-14 15:48:33.371501,14
2021-10-14 15:48:33.371510,24
2021-10-14 15:48:33.371518,12
2021-10-14 15:48:33.371526,-12
2021-10-14 15:48:33.371534,-16
2021-10-14 15:48:33.371543,-14
2021-10-14 15:48:33.371551,-21
2021-10-14 15:48:33.371559,-14
2021-10-14 15:48:33.371568,4
2021-10-14 15:48:33.371576,4
2021-10-14 15:48:33.371584,4
2021-10-14 15:48:33.371592,12
2021-10-14 15:48:33.371601,19
2021-10-14 15:48:33.371609,38
2021-10-14 15:48:33.371617,96
2021-10-14 15:48:33.371626,303
2021-10-14 15:48:33.371634,678
2021-10-14 15:48:33.371643,776
2021-10-14 15:48:33.507442,69
2021-10-14 15:48:33.507463,-909
2021-10-14 15:48:33.507473,-1019
2021-10-14 15:48:33.507481,-454
2021-10-14 15:48:33.507490,-151
2021-10-14 15:48:33.507498,-79
2021-10-14 15:48:33.507507,69
2021-10-14 15:48:33.507515,132
2021-10-14 15:48:33.507523,86
2021-10-14 15:48:33.507532,91
2021-10-14 15:48:33.507540,122
2021-10-14 15:48:33.507548,125
2021-10-14 15:48:33.507557,134
2021-10-14 15:48:33.507565,146
2021-10-14 15:48:33.507573,129
2021-10-14 15:48:33.507581,120
2021-10-14 15:48:33.507590,134
2021-10-14 15:48:33.507608,144
2021-10-14 15:48:33.507617,151
2021-10-14 15:48:33.507625,153
2021-10-14 15:48:33.507633,153
2021-10-14 15:48:33.507642,168
2021-10-14 15:48:33.507650,182
2021-10-14 15:48:33.507658,194
2021-10-14 15:48:33.507667,206
2021-10-14 15:48:33.507675,209
2021-10-14 15:48:33.507683,211
2021-10-14 15:48:33.507691,223
2021-10-14 15:48:33.507700,228
2021-10-14 15:48:33.507708,218
2021-10-14 15:48:33.732486,211
2021-10-14 15:48:33.732507,202
2021-10-14 15:48:33.732517,170
2021-10-14 15:48:33.732525,132
2021-10-14 15:48:33.732533,103
2021-10-14 15:48:33.732542,74
2021-10-14 15:48:33.732550,40
2021-10-14 15:48:33.732559,2
2021-10-14 15:48:33.732567,-33
2021-10-14 15:48:33.732576,-48
2021-10-14 15:48:33.732584,-55
2021-10-14 15:48:33.732592,-76
2021-10-14 15:48:33.732600,-91
2021-10-14 15:48:33.732609,-93
2021-10-14 15:48:33.732617,-96
2021-10-14 15:48:33.732625,-98
2021-10-14 15:48:33.732633,-101
2021-10-14 15:48:33.732642,-101
2021-10-14 15:48:33.732650,-101
2021-10-14 15:48:33.732658,-105
2021-10-14 15:48:33.732666,-108
2021-10-14 15:48:33.732675,-98
2021-10-14 15:48:33.732683,-84
2021-10-14 15:48:33.732691,-74
2021-10-14 15:48:33.732699,-64
2021-10-14 15:48:33.732708,-64
2021-10-14 15:48:33.732716,-74
2021-10-14 15:48:33.732724,-64
2021-10-14 15:48:33.732732,-52
2021-10-14 15:48:33.732741,-48
2021-10-14 15:48:34.046500,-55
2021-10-14 15:48:34.046522,-67
2021-10-14 15:48:34.046531,-69
2021-10-14 15:48:34.046540,-60
2021-10-14 15:48:34.046548,-57
2021-10-14 15:48:34.046556,-64
2021-10-14 15:48:34.046564,-76
2021-10-14 15:48:34.046573,-76
2021-10-14 15:48:34.046584,-72
2021-10-14 15:48:34.046592,-74
2021-10-14 15:48:34.046601,-72
2021-10-14 15:48:34.046609,-62
2021-10-14 15:48:34.046617,-69
2021-10-14 15:48:34.046626,-79
2021-10-14 15:48:34.046634,-69
2021-10-14 15:48:34.046642,-57
2021-10-14 15:48:34.046650,-60
2021-10-14 15:48:34.046659,-57
2021-10-14 15:48:34.046667,-50
2021-10-14 15:48:34.046675,-52
2021-10-14 15:48:34.046684,-64
2021-10-14 15:48:34.046692,-64
2021-10-14 15:48:34.046700,-38
2021-10-14 15:48:34.046709,-16
2021-10-14 15:48:34.046717,-31
2021-10-14 15:48:34.046725,-55
2021-10-14 15:48:34.046734,-55
2021-10-14 15:48:34.046742,-48
2021-10-14 15:48:34.046751,-43
2021-10-14 15:48:34.046759,-38
2021-10-14 15:48:34.227011,-45
2021-10-14 15:48:34.227034,-55
2021-10-14 15:48:34.227044,-50
2021-10-14 15:48:34.227052,-38
2021-10-14 15:48:34.227061,-24
2021-10-14 15:48:34.227069,-4
2021-10-14 15:48:34.227077,43
2021-10-14 15:48:34.227085,221
2021-10-14 15:48:34.227094,598
2021-10-14 15:48:34.227102,800
2021-10-14 15:48:34.227110,214
2021-10-14 15:48:34.227119,-836
2021-10-14 15:48:34.227127,-1139
2021-10-14 15:48:34.227135,-581
2021-10-14 15:48:34.227143,-197
2021-10-14 15:48:34.227152,-144
2021-10-14 15:48:34.227160,-7
2021-10-14 15:48:34.227168,72
2021-10-14 15:48:34.227176,26
2021-10-14 15:48:34.227184,50
2021-10-14 15:48:34.227192,96
2021-10-14 15:48:34.227201,72
2021-10-14 15:48:34.227209,64
2021-10-14 15:48:34.227217,88
2021-10-14 15:48:34.227225,88
2021-10-14 15:48:34.227234,91
2021-10-14 15:48:34.227242,98
2021-10-14 15:48:34.227250,101
2021-10-14 15:48:34.227258,108
2021-10-14 15:48:34.227266,122
2021-10-14 15:48:34.541841,127
2021-10-14 15:48:34.541862,129
2021-10-14 15:48:34.541872,146
2021-10-14 15:48:34.541881,163
2021-10-14 15:48:34.541889,173
2021-10-14 15:48:34.541897,180
2021-10-14 15:48:34.541906,182
2021-10-14 15:48:34.541914,187
2021-10-14 15:48:34.541923,197
2021-10-14 15:48:34.541931,182
2021-10-14 15:48:34.541939,153
2021-10-14 15:48:34.541947,125
2021-10-14 15:48:34.541956,108
2021-10-14 15:48:34.541964,93
2021-10-14 15:48:34.541972,57
2021-10-14 15:48:34.541981,14
2021-10-14 15:48:34.541989,-16
2021-10-14 15:48:34.541997,-48
2021-10-14 15:48:34.542005,-72
2021-10-14 15:48:34.542014,-81
2021-10-14 15:48:34.542022,-91
2021-10-14 15:48:34.542030,-110
2021-10-14 15:48:34.542038,-115
2021-10-14 15:48:34.542047,-113
2021-10-14 15:48:34.542055,-117
2021-10-14 15:48:34.542063,-125
2021-10-14 15:48:34.542072,-129
2021-10-14 15:48:34.542080,-132
2021-10-14 15:48:34.542088,-127
2021-10-14 15:48:34.542097,-122
2021-10-14 15:48:34.677160,-110
2021-10-14 15:48:34.677182,-96
2021-10-14 15:48:34.677192,-91
2021-10-14 15:48:34.677202,-91
2021-10-14 15:48:34.677211,-88
2021-10-14 15:48:34.677220,-91
2021-10-14 15:48:34.677228,-86
2021-10-14 15:48:34.677236,-69
2021-10-14 15:48:34.677244,-64
2021-10-14 15:48:34.677252,-64
2021-10-14 15:48:34.677260,-72
2021-10-14 15:48:34.677269,-81
2021-10-14 15:48:34.677277,-81
2021-10-14 15:48:34.677285,-84
2021-10-14 15:48:34.677293,-96
2021-10-14 15:48:34.677301,-110
2021-10-14 15:48:34.677309,-115
2021-10-14 15:48:34.677318,-115
2021-10-14 15:48:34.677326,-113
2021-10-14 15:48:34.677334,-105
2021-10-14 15:48:34.677342,-103
2021-10-14 15:48:34.677351,-113
2021-10-14 15:48:34.677359,-117
2021-10-14 15:48:34.677367,-110
2021-10-14 15:48:34.677375,-101
2021-10-14 15:48:34.677383,-103
2021-10-14 15:48:34.677391,-113
2021-10-14 15:48:34.677399,-108
2021-10-14 15:48:34.677408,-96
2021-10-14 15:48:34.677416,-88
2021-10-14 15:48:34.946902,-84
2021-10-14 15:48:34.946927,-74
2021-10-14 15:48:34.946936,-69
2021-10-14 15:48:34.946945,-76
2021-10-14 15:48:34.946953,-64
2021-10-14 15:48:34.946961,-45
2021-10-14 15:48:34.946970,-60
2021-10-14 15:48:34.946978,-84
2021-10-14 15:48:34.946986,-93
2021-10-14 15:48:34.946994,-101
2021-10-14 15:48:34.947003,-108
2021-10-14 15:48:34.947011,-96
2021-10-14 15:48:34.947019,-91
2021-10-14 15:48:34.947028,-103
2021-10-14 15:48:34.947036,-98
2021-10-14 15:48:34.947044,-98
2021-10-14 15:48:34.947052,-98
2021-10-14 15:48:34.947060,-69
2021-10-14 15:48:34.947068,-4
2021-10-14 15:48:34.947076,180
2021-10-14 15:48:34.947085,555
2021-10-14 15:48:34.947093,740
2021-10-14 15:48:34.947101,153
2021-10-14 15:48:34.947109,-865
2021-10-14 15:48:34.947118,-1142
2021-10-14 15:48:34.947126,-586
2021-10-14 15:48:34.947134,-197
2021-10-14 15:48:34.947142,-134
2021-10-14 15:48:34.947150,-12
2021-10-14 15:48:34.947158,69
2021-10-14 15:48:35.127464,28
2021-10-14 15:48:35.127483,26
2021-10-14 15:48:35.127490,43
2021-10-14 15:48:35.127497,24
2021-10-14 15:48:35.127503,31
2021-10-14 15:48:35.127510,48
2021-10-14 15:48:35.127516,43
2021-10-14 15:48:35.127522,50
2021-10-14 15:48:35.127529,57
2021-10-14 15:48:35.127535,55
2021-10-14 15:48:35.127541,67
2021-10-14 15:48:35.127548,84
2021-10-14 15:48:35.127554,93
2021-10-14 15:48:35.127560,101
2021-10-14 15:48:35.127567,103
2021-10-14 15:48:35.127573,115
2021-10-14 15:48:35.127580,139
2021-10-14 15:48:35.127586,151
2021-10-14 15:48:35.127593,149
2021-10-14 15:48:35.127599,156
2021-10-14 15:48:35.127606,163
2021-10-14 15:48:35.127612,151
2021-10-14 15:48:35.127618,139
2021-10-14 15:48:35.127627,132
2021-10-14 15:48:35.127633,113
2021-10-14 15:48:35.127639,88
2021-10-14 15:48:35.127646,57
2021-10-14 15:48:35.127652,14
2021-10-14 15:48:35.127659,-19
2021-10-14 15:48:35.127666,-31
2021-10-14 15:48:35.440746,-38
2021-10-14 15:48:35.440766,-50
2021-10-14 15:48:35.440776,-67
2021-10-14 15:48:35.440784,-86
2021-10-14 15:48:35.440793,-98
2021-10-14 15:48:35.440801,-93
2021-10-14 15:48:35.440810,-81
2021-10-14 15:48:35.440818,-84
2021-10-14 15:48:35.440826,-108
2021-10-14 15:48:35.440834,-120
2021-10-14 15:48:35.440843,-98
2021-10-14 15:48:35.440851,-74
2021-10-14 15:48:35.440859,-76
2021-10-14 15:48:35.440867,-86
2021-10-14 15:48:35.440876,-86
2021-10-14 15:48:35.440884,-76
2021-10-14 15:48:35.440893,-67
2021-10-14 15:48:35.440901,-69
2021-10-14 15:48:35.440909,-69
2021-10-14 15:48:35.440917,-57
2021-10-14 15:48:35.440926,-48
2021-10-14 15:48:35.440934,-52
2021-10-14 15:48:35.440942,-50
2021-10-14 15:48:35.440950,-36
2021-10-14 15:48:35.440959,-33
2021-10-14 15:48:35.440967,-50
2021-10-14 15:48:35.440975,-60
2021-10-14 15:48:35.440983,-50
2021-10-14 15:48:35.440992,-43
2021-10-14 15:48:35.441000,-50
2021-10-14 15:48:35.666570,-57
2021-10-14 15:48:35.666597,-57
2021-10-14 15:48:35.666607,-67
2021-10-14 15:48:35.666616,-69
2021-10-14 15:48:35.666624,-60
2021-10-14 15:48:35.666633,-57
2021-10-14 15:48:35.666641,-72
2021-10-14 15:48:35.666649,-91
2021-10-14 15:48:35.666657,-110
2021-10-14 15:48:35.666666,-108
2021-10-14 15:48:35.666674,-96
2021-10-14 15:48:35.666682,-93
2021-10-14 15:48:35.666690,-98
2021-10-14 15:48:35.666699,-101
2021-10-14 15:48:35.666707,-103
2021-10-14 15:48:35.666715,-96
2021-10-14 15:48:35.666723,-86
2021-10-14 15:48:35.666732,-74
2021-10-14 15:48:35.666740,-67
2021-10-14 15:48:35.666748,-72
2021-10-14 15:48:35.666756,-67
2021-10-14 15:48:35.666764,-55
2021-10-14 15:48:35.666773,-67
2021-10-14 15:48:35.666781,-86
2021-10-14 15:48:35.666789,-79
2021-10-14 15:48:35.666797,-72
2021-10-14 15:48:35.666805,-79
2021-10-14 15:48:35.666814,-81
2021-10-14 15:48:35.666822,-67
2021-10-14 15:48:35.666830,-60
2021-10-14 15:48:35.848329,-62
2021-10-14 15:48:35.848351,-62
2021-10-14 15:48:35.848361,-52
2021-10-14 15:48:35.848369,-33
2021-10-14 15:48:35.848378,33
2021-10-14 15:48:35.848386,262
2021-10-14 15:48:35.848394,639
2021-10-14 15:48:35.848403,728
2021-10-14 15:48:35.848411,50
2021-10-14 15:48:35.848419,-909
2021-10-14 15:48:35.848427,-1055
2021-10-14 15:48:35.848436,-492
2021-10-14 15:48:35.848444,-158
2021-10-14 15:48:35.848452,-105
2021-10-14 15:48:35.848460,14
2021-10-14 15:48:35.848468,74
2021-10-14 15:48:35.848477,31
2021-10-14 15:48:35.848485,40
2021-10-14 15:48:35.848493,64
2021-10-14 15:48:35.848501,45
2021-10-14 15:48:35.848510,48
2021-10-14 15:48:35.848518,72
2021-10-14 15:48:35.848526,72
2021-10-14 15:48:35.848534,69
2021-10-14 15:48:35.848542,79
2021-10-14 15:48:35.848550,69
2021-10-14 15:48:35.848559,64
2021-10-14 15:48:35.848567,88
2021-10-14 15:48:35.848575,113
2021-10-14 15:48:35.848583,120
2021-10-14 15:48:36.027153,127
2021-10-14 15:48:36.027174,134
2021-10-14 15:48:36.027184,141
2021-10-14 15:48:36.027192,156
2021-10-14 15:48:36.027201,170
2021-10-14 15:48:36.027209,153
2021-10-14 15:48:36.027217,127
2021-10-14 15:48:36.027226,137
2021-10-14 15:48:36.027234,141
2021-10-14 15:48:36.027242,108
2021-10-14 15:48:36.027251,103
2021-10-14 15:48:36.027259,101
2021-10-14 15:48:36.027267,55
2021-10-14 15:48:36.027275,7
2021-10-14 15:48:36.027284,-19
2021-10-14 15:48:36.027292,-38
2021-10-14 15:48:36.027300,-50
2021-10-14 15:48:36.027308,-69
2021-10-14 15:48:36.027316,-93
2021-10-14 15:48:36.027325,-103
2021-10-14 15:48:36.027333,-103
2021-10-14 15:48:36.027341,-98
2021-10-14 15:48:36.027349,-91
2021-10-14 15:48:36.027358,-98
2021-10-14 15:48:36.027366,-115
2021-10-14 15:48:36.027374,-108
2021-10-14 15:48:36.027382,-81
2021-10-14 15:48:36.027391,-69
2021-10-14 15:48:36.027399,-69
2021-10-14 15:48:36.027407,-69
2021-10-14 15:48:36.252268,-72
2021-10-14 15:48:36.252289,-64
2021-10-14 15:48:36.252298,-52
2021-10-14 15:48:36.252306,-48
2021-10-14 15:48:36.252315,-52
2021-10-14 15:48:36.252323,-57
2021-10-14 15:48:36.252332,-50
2021-10-14 15:48:36.252340,-38
2021-10-14 15:48:36.252348,-36
2021-10-14 15:48:36.252356,-40
2021-10-14 15:48:36.252364,-40
2021-10-14 15:48:36.252373,-43
2021-10-14 15:48:36.252381,-43
2021-10-14 15:48:36.252389,-43
2021-10-14 15:48:36.252397,-50
2021-10-14 15:48:36.252406,-55
2021-10-14 15:48:36.252414,-52
2021-10-14 15:48:36.252422,-43
2021-10-14 15:48:36.252430,-40
2021-10-14 15:48:36.252439,-45
2021-10-14 15:48:36.252447,-38
2021-10-14 15:48:36.252455,-28
2021-10-14 15:48:36.252464,-38
2021-10-14 15:48:36.252472,-62
2021-10-14 15:48:36.252480,-72
2021-10-14 15:48:36.252488,-50
2021-10-14 15:48:36.252496,-28
2021-10-14 15:48:36.252505,-33
2021-10-14 15:48:36.252513,-50
2021-10-14 15:48:36.252521,-62
2021-10-14 15:48:36.521557,-67
2021-10-14 15:48:36.521579,-60
2021-10-14 15:48:36.521588,-57
2021-10-14 15:48:36.521597,-62
2021-10-14 15:48:36.521605,-69
2021-10-14 15:48:36.521614,-67
2021-10-14 15:48:36.521622,-67
2021-10-14 15:48:36.521630,-50
2021-10-14 15:48:36.521639,-14
2021-10-14 15:48:36.521647,-9
2021-10-14 15:48:36.521655,-52
2021-10-14 15:48:36.521663,-81
2021-10-14 15:48:36.521672,-69
2021-10-14 15:48:36.521680,-50
2021-10-14 15:48:36.521688,-45
2021-10-14 15:48:36.521697,-50
2021-10-14 15:48:36.521705,-62
2021-10-14 15:48:36.521714,-62
2021-10-14 15:48:36.521722,-64
2021-10-14 15:48:36.521730,-69
2021-10-14 15:48:36.521739,-50
2021-10-14 15:48:36.521747,-16
2021-10-14 15:48:36.521755,33
2021-10-14 15:48:36.521764,209
2021-10-14 15:48:36.521772,567
2021-10-14 15:48:36.521781,733
2021-10-14 15:48:36.521789,168
2021-10-14 15:48:36.521797,-805
2021-10-14 15:48:36.521806,-1058
2021-10-14 15:48:36.521817,-495
2021-10-14 15:48:36.791905,-110
2021-10-14 15:48:36.791926,-81
2021-10-14 15:48:36.791936,-14
2021-10-14 15:48:36.791945,48
2021-10-14 15:48:36.791953,40
2021-10-14 15:48:36.791961,64
2021-10-14 15:48:36.791969,84
2021-10-14 15:48:36.791978,60
2021-10-14 15:48:36.791986,57
2021-10-14 15:48:36.791994,69
2021-10-14 15:48:36.792002,60
2021-10-14 15:48:36.792010,64
2021-10-14 15:48:36.792018,84
2021-10-14 15:48:36.792027,98
2021-10-14 15:48:36.792035,108
2021-10-14 15:48:36.792043,110
2021-10-14 15:48:36.792052,113
2021-10-14 15:48:36.792060,129
2021-10-14 15:48:36.792068,149
2021-10-14 15:48:36.792076,161
2021-10-14 15:48:36.792084,161
2021-10-14 15:48:36.792093,156
2021-10-14 15:48:36.792101,163
2021-10-14 15:48:36.792109,177
2021-10-14 15:48:36.792118,187
2021-10-14 15:48:36.792126,187
2021-10-14 15:48:36.792134,175
2021-10-14 15:48:36.792142,170
2021-10-14 15:48:36.792151,153
2021-10-14 15:48:36.792159,122
2021-10-14 15:48:36.972504,93
2021-10-14 15:48:36.972524,74
2021-10-14 15:48:36.972534,31
2021-10-14 15:48:36.972542,-21
2021-10-14 15:48:36.972551,-40
2021-10-14 15:48:36.972559,-19
2021-10-14 15:48:36.972567,-14
2021-10-14 15:48:36.972576,-26
2021-10-14 15:48:36.972584,-48
2021-10-14 15:48:36.972592,-69
2021-10-14 15:48:36.972600,-67
2021-10-14 15:48:36.972609,-50
2021-10-14 15:48:36.972617,-55
2021-10-14 15:48:36.972625,-69
2021-10-14 15:48:36.972634,-74
2021-10-14 15:48:36.972642,-57
2021-10-14 15:48:36.972650,-31
2021-10-14 15:48:36.972659,-28
2021-10-14 15:48:36.972667,-36
2021-10-14 15:48:36.972675,-26
2021-10-14 15:48:36.972683,-21
2021-10-14 15:48:36.972692,-21
2021-10-14 15:48:36.972700,-14
2021-10-14 15:48:36.972708,-9
2021-10-14 15:48:36.972716,-16
2021-10-14 15:48:36.972725,-16
2021-10-14 15:48:36.972733,-21
2021-10-14 15:48:36.972741,-26
2021-10-14 15:48:36.972750,-14
2021-10-14 15:48:36.972758,-12
2021-10-14 15:48:37.197157,-16
2021-10-14 15:48:37.197177,-19
2021-10-14 15:48:37.197187,-28
2021-10-14 15:48:37.197195,-31
2021-10-14 15:48:37.197203,-19
2021-10-14 15:48:37.197212,-12
2021-10-14 15:48:37.197220,-19
2021-10-14 15:48:37.197228,-24
2021-10-14 15:48:37.197237,-19
2021-10-14 15:48:37.197245,-9
2021-10-14 15:48:37.197253,-14
2021-10-14 15:48:37.197261,-21
2021-10-14 15:48:37.197270,-24
2021-10-14 15:48:37.197278,-31
2021-10-14 15:48:37.197286,-36
2021-10-14 15:48:37.197294,-28
2021-10-14 15:48:37.197302,-21
2021-10-14 15:48:37.197311,-33
2021-10-14 15:48:37.197319,-48
2021-10-14 15:48:37.197327,-40
2021-10-14 15:48:37.197335,-26
2021-10-14 15:48:37.197343,-24
2021-10-14 15:48:37.197351,-19
2021-10-14 15:48:37.197360,-7
2021-10-14 15:48:37.197368,-2
2021-10-14 15:48:37.197376,9
2021-10-14 15:48:37.197384,19
2021-10-14 15:48:37.197393,7
2021-10-14 15:48:37.197401,-16
2021-10-14 15:48:37.197409,-24
2021-10-14 15:48:37.466445,-14
2021-10-14 15:48:37.466466,-16
2021-10-14 15:48:37.466476,-24
2021-10-14 15:48:37.466484,-26
2021-10-14 15:48:37.466493,-21
2021-10-14 15:48:37.466501,-14
2021-10-14 15:48:37.466509,-12
2021-10-14 15:48:37.466518,-9
2021-10-14 15:48:37.466526,-9
2021-10-14 15:48:37.466534,16
2021-10-14 15:48:37.466580,141
2021-10-14 15:48:37.466591,461
2021-10-14 15:48:37.466611,779
2021-10-14 15:48:37.466620,536
2021-10-14 15:48:37.466628,-416
2021-10-14 15:48:37.466637,-1096
2021-10-14 15:48:37.466660,-776
2021-10-14 15:48:37.466680,-250
2021-10-14 15:48:37.466690,-125
2021-10-14 15:48:37.466706,-33
2021-10-14 15:48:37.466715,98
2021-10-14 15:48:37.466723,96
2021-10-14 15:48:37.466732,79
2021-10-14 15:48:37.466740,115
2021-10-14 15:48:37.466748,122
2021-10-14 15:48:37.466757,108
2021-10-14 15:48:37.466765,115
2021-10-14 15:48:37.466773,134
2021-10-14 15:48:37.466782,153
2021-10-14 15:48:37.466790,146
2021-10-14 15:48:37.736489,125
2021-10-14 15:48:37.736510,129
2021-10-14 15:48:37.736519,156
2021-10-14 15:48:37.736528,170
2021-10-14 15:48:37.736536,168
2021-10-14 15:48:37.736545,168
2021-10-14 15:48:37.736553,177
2021-10-14 15:48:37.736561,180
2021-10-14 15:48:37.736570,185
2021-10-14 15:48:37.736578,189
2021-10-14 15:48:37.736586,206
2021-10-14 15:48:37.736595,226
2021-10-14 15:48:37.736603,221
2021-10-14 15:48:37.736611,197
2021-10-14 15:48:37.736619,187
2021-10-14 15:48:37.736628,180
2021-10-14 15:48:37.736636,149
2021-10-14 15:48:37.736644,113
2021-10-14 15:48:37.736653,88
2021-10-14 15:48:37.736661,72
2021-10-14 15:48:37.736669,45
2021-10-14 15:48:37.736677,4
2021-10-14 15:48:37.736686,-16
2021-10-14 15:48:37.736694,-19
2021-10-14 15:48:37.736702,-33
2021-10-14 15:48:37.736711,-52
2021-10-14 15:48:37.736719,-55
2021-10-14 15:48:37.736727,-52
2021-10-14 15:48:37.736735,-52
2021-10-14 15:48:37.736744,-50
2021-10-14 15:48:37.917155,-48
2021-10-14 15:48:37.917176,-38
2021-10-14 15:48:37.917185,-19
2021-10-14 15:48:37.917194,-19
2021-10-14 15:48:37.917203,-28
2021-10-14 15:48:37.917211,-19
2021-10-14 15:48:37.917219,-7
2021-10-14 15:48:37.917227,-26
2021-10-14 15:48:37.917236,-40
2021-10-14 15:48:37.917244,-33
2021-10-14 15:48:37.917252,-21
2021-10-14 15:48:37.917261,-16
2021-10-14 15:48:37.917269,-16
2021-10-14 15:48:37.917277,-31
2021-10-14 15:48:37.917286,-36
2021-10-14 15:48:37.917294,-19
2021-10-14 15:48:37.917302,-14
2021-10-14 15:48:37.917311,-26
2021-10-14 15:48:37.917319,-26
2021-10-14 15:48:37.917327,-28
2021-10-14 15:48:37.917336,-45
2021-10-14 15:48:37.917344,-50
2021-10-14 15:48:37.917352,-38
2021-10-14 15:48:37.917361,-31
2021-10-14 15:48:37.917369,-38
2021-10-14 15:48:37.917377,-45
2021-10-14 15:48:37.917385,-48
2021-10-14 15:48:37.917394,-57
2021-10-14 15:48:37.917402,-57
2021-10-14 15:48:37.917410,-48
2021-10-14 15:48:38.142586,-50
2021-10-14 15:48:38.142607,-60
2021-10-14 15:48:38.142616,-55
2021-10-14 15:48:38.142625,-40
2021-10-14 15:48:38.142633,-21
2021-10-14 15:48:38.142641,-19
2021-10-14 15:48:38.142649,-38
2021-10-14 15:48:38.142657,-38
2021-10-14 15:48:38.142666,-26
2021-10-14 15:48:38.142674,-48
2021-10-14 15:48:38.142682,-81
2021-10-14 15:48:38.142688,-108
2021-10-14 15:48:38.142696,-108
2021-10-14 15:48:38.142703,-64
2021-10-14 15:48:38.142711,-50
2021-10-14 15:48:38.142719,-76
2021-10-14 15:48:38.142727,-72
2021-10-14 15:48:38.142735,-62
2021-10-14 15:48:38.142743,-64
2021-10-14 15:48:38.142751,-50
2021-10-14 15:48:38.142759,-19
2021-10-14 15:48:38.142767,86
2021-10-14 15:48:38.142775,401
2021-10-14 15:48:38.142784,750
2021-10-14 15:48:38.142792,533
2021-10-14 15:48:38.142800,-420
2021-10-14 15:48:38.142807,-1156
2021-10-14 15:48:38.142815,-870
2021-10-14 15:48:38.142830,-307
2021-10-14 15:48:38.142839,-158
2021-10-14 15:48:38.322131,-67
2021-10-14 15:48:38.322151,84
2021-10-14 15:48:38.322161,86
2021-10-14 15:48:38.322170,50
2021-10-14 15:48:38.322178,81
2021-10-14 15:48:38.322186,91
2021-10-14 15:48:38.322195,79
2021-10-14 15:48:38.322203,91
2021-10-14 15:48:38.322212,108
2021-10-14 15:48:38.322220,113
2021-10-14 15:48:38.322228,108
2021-10-14 15:48:38.322237,108
2021-10-14 15:48:38.322245,122
2021-10-14 15:48:38.322253,141
2021-10-14 15:48:38.322262,139
2021-10-14 15:48:38.322270,134
2021-10-14 15:48:38.322278,149
2021-10-14 15:48:38.322287,165
2021-10-14 15:48:38.322295,173
2021-10-14 15:48:38.322303,185
2021-10-14 15:48:38.322312,202
2021-10-14 15:48:38.322320,206
2021-10-14 15:48:38.322328,199
2021-10-14 15:48:38.322336,204
2021-10-14 15:48:38.322345,202
2021-10-14 15:48:38.322353,182
2021-10-14 15:48:38.322361,161
2021-10-14 15:48:38.322369,137
2021-10-14 15:48:38.322378,98
2021-10-14 15:48:38.322386,69
2021-10-14 15:48:38.547103,50
2021-10-14 15:48:38.547124,21
2021-10-14 15:48:38.547133,-4
2021-10-14 15:48:38.547142,-26
2021-10-14 15:48:38.547150,-57
2021-10-14 15:48:38.547159,-81
2021-10-14 15:48:38.547167,-81
2021-10-14 15:48:38.547175,-81
2021-10-14 15:48:38.547184,-79
2021-10-14 15:48:38.547192,-74
2021-10-14 15:48:38.547200,-79
2021-10-14 15:48:38.547209,-93
2021-10-14 15:48:38.547217,-101
2021-10-14 15:48:38.547225,-101
2021-10-14 15:48:38.547234,-96
2021-10-14 15:48:38.547242,-93
2021-10-14 15:48:38.547251,-86
2021-10-14 15:48:38.547258,-67
2021-10-14 15:48:38.547265,-45
2021-10-14 15:48:38.547273,-48
2021-10-14 15:48:38.547281,-57
2021-10-14 15:48:38.547289,-48
2021-10-14 15:48:38.547297,-36
2021-10-14 15:48:38.547306,-28
2021-10-14 15:48:38.547314,-21
2021-10-14 15:48:38.547322,-19
2021-10-14 15:48:38.547331,-24
2021-10-14 15:48:38.547339,-36
2021-10-14 15:48:38.547348,-31
2021-10-14 15:48:38.547356,-24
2021-10-14 15:48:38.817569,-16
2021-10-14 15:48:38.817591,-4
2021-10-14 15:48:38.817600,-26
2021-10-14 15:48:38.817607,-69
2021-10-14 15:48:38.817615,-67
2021-10-14 15:48:38.817623,-36
2021-10-14 15:48:38.817631,-36
2021-10-14 15:48:38.817639,-50
2021-10-14 15:48:38.817648,-55
2021-10-14 15:48:38.817656,-64
2021-10-14 15:48:38.817663,-60
2021-10-14 15:48:38.817671,-43
2021-10-14 15:48:38.817678,-33
2021-10-14 15:48:38.817686,-33
2021-10-14 15:48:38.817693,-21
2021-10-14 15:48:38.817700,-16
2021-10-14 15:48:38.817708,-50
2021-10-14 15:48:38.817717,-81
2021-10-14 15:48:38.817725,-67
2021-10-14 15:48:38.817733,-52
2021-10-14 15:48:38.817740,-60
2021-10-14 15:48:38.817747,-62
2021-10-14 15:48:38.817755,-50
2021-10-14 15:48:38.817762,-45
2021-10-14 15:48:38.817769,-36
2021-10-14 15:48:38.817776,-26
2021-10-14 15:48:38.817784,-28
2021-10-14 15:48:38.817791,-14
2021-10-14 15:48:38.817798,67
2021-10-14 15:48:38.817806,312
2021-10-14 15:48:39.042616,699
2021-10-14 15:48:39.042639,728
2021-10-14 15:48:39.042648,-93
2021-10-14 15:48:39.042657,-1060
2021-10-14 15:48:39.042665,-1017
2021-10-14 15:48:39.042674,-389
2021-10-14 15:48:39.042683,-144
2021-10-14 15:48:39.042691,-93
2021-10-14 15:48:39.042700,45
2021-10-14 15:48:39.042708,76
2021-10-14 15:48:39.042717,50
2021-10-14 15:48:39.042725,88
2021-10-14 15:48:39.042734,105
2021-10-14 15:48:39.042742,84
2021-10-14 15:48:39.042751,76
2021-10-14 15:48:39.042759,88
2021-10-14 15:48:39.042768,96
2021-10-14 15:48:39.042776,79
2021-10-14 15:48:39.042785,64
2021-10-14 15:48:39.042793,84
2021-10-14 15:48:39.042802,105
2021-10-14 15:48:39.042810,108
2021-10-14 15:48:39.042819,105
2021-10-14 15:48:39.042827,110
2021-10-14 15:48:39.042836,134
2021-10-14 15:48:39.042844,163
2021-10-14 15:48:39.042853,170
2021-10-14 15:48:39.042861,175
2021-10-14 15:48:39.042870,189
2021-10-14 15:48:39.042878,202
2021-10-14 15:48:39.267195,192
2021-10-14 15:48:39.267216,175
2021-10-14 15:48:39.267225,161
2021-10-14 15:48:39.267234,144
2021-10-14 15:48:39.267242,127
2021-10-14 15:48:39.267251,110
2021-10-14 15:48:39.267259,81
2021-10-14 15:48:39.267267,31
2021-10-14 15:48:39.267276,-7
2021-10-14 15:48:39.267284,-24
2021-10-14 15:48:39.267292,-48
2021-10-14 15:48:39.267301,-81
2021-10-14 15:48:39.267309,-86
2021-10-14 15:48:39.267317,-84
2021-10-14 15:48:39.267325,-96
2021-10-14 15:48:39.267333,-93
2021-10-14 15:48:39.267341,-84
2021-10-14 15:48:39.267349,-91
2021-10-14 15:48:39.267358,-91
2021-10-14 15:48:39.267366,-84
2021-10-14 15:48:39.267374,-86
2021-10-14 15:48:39.267382,-79
2021-10-14 15:48:39.267390,-62
2021-10-14 15:48:39.267399,-57
2021-10-14 15:48:39.267407,-52
2021-10-14 15:48:39.267415,-40
2021-10-14 15:48:39.267423,-45
2021-10-14 15:48:39.267432,-45
2021-10-14 15:48:39.267440,-31
2021-10-14 15:48:39.267448,-26
2021-10-14 15:48:39.536338,-31
2021-10-14 15:48:39.536358,-26
2021-10-14 15:48:39.536368,-21
2021-10-14 15:48:39.536376,-28
2021-10-14 15:48:39.536385,-28
2021-10-14 15:48:39.536393,-31
2021-10-14 15:48:39.536401,-40
2021-10-14 15:48:39.536410,-48
2021-10-14 15:48:39.536418,-45
2021-10-14 15:48:39.536426,-38
2021-10-14 15:48:39.536434,-38
2021-10-14 15:48:39.536443,-36
2021-10-14 15:48:39.536451,-26
2021-10-14 15:48:39.536459,-24
2021-10-14 15:48:39.536468,-28
2021-10-14 15:48:39.536476,-28
2021-10-14 15:48:39.536484,-24
2021-10-14 15:48:39.536492,-38
2021-10-14 15:48:39.536500,-67
2021-10-14 15:48:39.536509,-76
2021-10-14 15:48:39.536517,-72
2021-10-14 15:48:39.536525,-69
2021-10-14 15:48:39.536533,-72
2021-10-14 15:48:39.536541,-84
2021-10-14 15:48:39.536550,-91
2021-10-14 15:48:39.536558,-86
2021-10-14 15:48:39.536566,-88
2021-10-14 15:48:39.536574,-88
2021-10-14 15:48:39.536582,-60
2021-10-14 15:48:39.536591,33
2021-10-14 15:48:39.761954,319
2021-10-14 15:48:39.761975,704
2021-10-14 15:48:39.761984,596
2021-10-14 15:48:39.761993,-348
2021-10-14 15:48:39.762001,-1199
2021-10-14 15:48:39.762010,-964
2021-10-14 15:48:39.762018,-353
2021-10-14 15:48:39.762026,-187
2021-10-14 15:48:39.762035,-125
2021-10-14 15:48:39.762043,21
2021-10-14 15:48:39.762051,38
2021-10-14 15:48:39.762060,2
2021-10-14 15:48:39.762068,31
2021-10-14 15:48:39.762076,48
2021-10-14 15:48:39.762084,31
2021-10-14 15:48:39.762093,40
2021-10-14 15:48:39.762101,55
2021-10-14 15:48:39.762109,57
2021-10-14 15:48:39.762117,60
2021-10-14 15:48:39.762126,69
2021-10-14 15:48:39.762134,79
2021-10-14 15:48:39.762142,88
2021-10-14 15:48:39.762150,101
2021-10-14 15:48:39.762158,110
2021-10-14 15:48:39.762166,113
2021-10-14 15:48:39.762175,122
2021-10-14 15:48:39.762183,141
2021-10-14 15:48:39.762191,158
2021-10-14 15:48:39.762200,165
2021-10-14 15:48:39.762208,173
2021-10-14 15:48:39.942215,177
2021-10-14 15:48:39.942236,170
2021-10-14 15:48:39.942245,156
2021-10-14 15:48:39.942253,137
2021-10-14 15:48:39.942261,115
2021-10-14 15:48:39.942269,81
2021-10-14 15:48:39.942277,43
2021-10-14 15:48:39.942284,21
2021-10-14 15:48:39.942292,0
2021-10-14 15:48:39.942300,-26
2021-10-14 15:48:39.942308,-45
2021-10-14 15:48:39.942315,-67
2021-10-14 15:48:39.942323,-88
2021-10-14 15:48:39.942331,-98
2021-10-14 15:48:39.942339,-105
2021-10-14 15:48:39.942347,-113
2021-10-14 15:48:39.942356,-110
2021-10-14 15:48:39.942364,-103
2021-10-14 15:48:39.942373,-101
2021-10-14 15:48:39.942381,-93
2021-10-14 15:48:39.942389,-84
2021-10-14 15:48:39.942398,-84
2021-10-14 15:48:39.942406,-76
2021-10-14 15:48:39.942418,-62
2021-10-14 15:48:39.942426,-60
2021-10-14 15:48:39.942435,-67
2021-10-14 15:48:39.942443,-62
2021-10-14 15:48:39.942451,-50
2021-10-14 15:48:39.942460,-48
2021-10-14 15:48:39.942468,-62
2021-10-14 15:48:40.167196,-67
2021-10-14 15:48:40.167218,-57
2021-10-14 15:48:40.167227,-57
2021-10-14 15:48:40.167235,-64
2021-10-14 15:48:40.167243,-67
2021-10-14 15:48:40.167251,-67
2021-10-14 15:48:40.167258,-67
2021-10-14 15:48:40.167266,-57
2021-10-14 15:48:40.167273,-48
2021-10-14 15:48:40.167280,-55
2021-10-14 15:48:40.167287,-69
2021-10-14 15:48:40.167294,-76
2021-10-14 15:48:40.167302,-64
2021-10-14 15:48:40.167309,-52
2021-10-14 15:48:40.167316,-48
2021-10-14 15:48:40.167323,-38
2021-10-14 15:48:40.167330,-31
2021-10-14 15:48:40.167338,-28
2021-10-14 15:48:40.167346,-19
2021-10-14 15:48:40.167354,-28
2021-10-14 15:48:40.167361,-60
2021-10-14 15:48:40.167369,-60
2021-10-14 15:48:40.167377,-43
2021-10-14 15:48:40.167384,-43
2021-10-14 15:48:40.167391,-38
2021-10-14 15:48:40.167398,-28
2021-10-14 15:48:40.167406,-43
2021-10-14 15:48:40.167414,-50
2021-10-14 15:48:40.167422,-38
2021-10-14 15:48:40.167431,-31
2021-10-14 15:48:40.482208,-14
2021-10-14 15:48:40.482238,57
2021-10-14 15:48:40.482247,290
2021-10-14 15:48:40.482256,670
2021-10-14 15:48:40.482264,726
2021-10-14 15:48:40.482273,-45
2021-10-14 15:48:40.482281,-1012
2021-10-14 15:48:40.482290,-1041
2021-10-14 15:48:40.482298,-442
2021-10-14 15:48:40.482306,-168
2021-10-14 15:48:40.482315,-120
2021-10-14 15:48:40.482323,9
2021-10-14 15:48:40.482331,57
2021-10-14 15:48:40.482340,16
2021-10-14 15:48:40.482348,26
2021-10-14 15:48:40.482356,43
2021-10-14 15:48:40.482365,33
2021-10-14 15:48:40.482373,48
2021-10-14 15:48:40.482381,69
2021-10-14 15:48:40.482390,62
2021-10-14 15:48:40.482398,57
2021-10-14 15:48:40.482407,60
2021-10-14 15:48:40.482415,67
2021-10-14 15:48:40.482423,81
2021-10-14 15:48:40.482432,96
2021-10-14 15:48:40.482440,110
2021-10-14 15:48:40.482448,122
2021-10-14 15:48:40.482456,132
2021-10-14 15:48:40.482465,141
2021-10-14 15:48:40.482473,149
2021-10-14 15:48:40.662604,153
2021-10-14 15:48:40.662624,158
2021-10-14 15:48:40.662633,161
2021-10-14 15:48:40.662642,158
2021-10-14 15:48:40.662651,144
2021-10-14 15:48:40.662659,120
2021-10-14 15:48:40.662668,103
2021-10-14 15:48:40.662676,86
2021-10-14 15:48:40.662685,55
2021-10-14 15:48:40.662693,24
2021-10-14 15:48:40.662701,-7
2021-10-14 15:48:40.662710,-36
2021-10-14 15:48:40.662718,-50
2021-10-14 15:48:40.662726,-62
2021-10-14 15:48:40.662734,-79
2021-10-14 15:48:40.662743,-103
2021-10-14 15:48:40.662751,-122
2021-10-14 15:48:40.662759,-113
2021-10-14 15:48:40.662768,-98
2021-10-14 15:48:40.662776,-93
2021-10-14 15:48:40.662784,-98
2021-10-14 15:48:40.662792,-113
2021-10-14 15:48:40.662801,-108
2021-10-14 15:48:40.662809,-81
2021-10-14 15:48:40.662817,-69
2021-10-14 15:48:40.662826,-62
2021-10-14 15:48:40.662834,-57
2021-10-14 15:48:40.662842,-62
2021-10-14 15:48:40.662850,-62
2021-10-14 15:48:40.662859,-43
2021-10-14 15:48:40.977037,-33
2021-10-14 15:48:40.977060,-38
2021-10-14 15:48:40.977070,-48
2021-10-14 15:48:40.977078,-52
2021-10-14 15:48:40.977087,-45
2021-10-14 15:48:40.977095,-38
2021-10-14 15:48:40.977103,-43
2021-10-14 15:48:40.977111,-48
2021-10-14 15:48:40.977120,-52
2021-10-14 15:48:40.977128,-60
2021-10-14 15:48:40.977136,-60
2021-10-14 15:48:40.977145,-52
2021-10-14 15:48:40.977153,-45
2021-10-14 15:48:40.977161,-38
2021-10-14 15:48:40.977169,-50
2021-10-14 15:48:40.977178,-64
2021-10-14 15:48:40.977187,-57
2021-10-14 15:48:40.977195,-40
2021-10-14 15:48:40.977203,-31
2021-10-14 15:48:40.977212,-21
2021-10-14 15:48:40.977220,-24
2021-10-14 15:48:40.977229,-14
2021-10-14 15:48:40.977237,2
2021-10-14 15:48:40.977245,-16
2021-10-14 15:48:40.977254,-48
2021-10-14 15:48:40.977262,-50
2021-10-14 15:48:40.977270,-43
2021-10-14 15:48:40.977278,-38
2021-10-14 15:48:40.977287,-33
2021-10-14 15:48:40.977295,-28
2021-10-14 15:48:41.112176,-24
2021-10-14 15:48:41.112197,-19
2021-10-14 15:48:41.112206,-19
2021-10-14 15:48:41.112215,-24
2021-10-14 15:48:41.112223,-14
2021-10-14 15:48:41.112232,48
2021-10-14 15:48:41.112240,257
2021-10-14 15:48:41.112248,632
2021-10-14 15:48:41.112257,740
2021-10-14 15:48:41.112265,36
2021-10-14 15:48:41.112273,-981
2021-10-14 15:48:41.112281,-1118
2021-10-14 15:48:41.112290,-514
2021-10-14 15:48:41.112298,-182
2021-10-14 15:48:41.112306,-132
2021-10-14 15:48:41.112315,0
2021-10-14 15:48:41.112323,72
2021-10-14 15:48:41.112331,43
2021-10-14 15:48:41.112339,50
2021-10-14 15:48:41.112347,74
2021-10-14 15:48:41.112356,69
2021-10-14 15:48:41.112364,76
2021-10-14 15:48:41.112372,96
2021-10-14 15:48:41.112381,93
2021-10-14 15:48:41.112389,84
2021-10-14 15:48:41.112397,88
2021-10-14 15:48:41.112405,91
2021-10-14 15:48:41.112413,96
2021-10-14 15:48:41.112421,108
2021-10-14 15:48:41.112430,113
2021-10-14 15:48:41.337188,113
2021-10-14 15:48:41.337207,117
2021-10-14 15:48:41.337217,125
2021-10-14 15:48:41.337226,137
2021-10-14 15:48:41.337234,151
2021-10-14 15:48:41.337242,149
2021-10-14 15:48:41.337251,139
2021-10-14 15:48:41.337259,132
2021-10-14 15:48:41.337267,115
2021-10-14 15:48:41.337275,98
2021-10-14 15:48:41.337283,81
2021-10-14 15:48:41.337292,60
2021-10-14 15:48:41.337300,28
2021-10-14 15:48:41.337308,0
2021-10-14 15:48:41.337316,-33
2021-10-14 15:48:41.337325,-60
2021-10-14 15:48:41.337333,-72
2021-10-14 15:48:41.337341,-88
2021-10-14 15:48:41.337350,-108
2021-10-14 15:48:41.337358,-113
2021-10-14 15:48:41.337366,-108
2021-10-14 15:48:41.337384,-115
2021-10-14 15:48:41.337393,-122
2021-10-14 15:48:41.337401,-117
2021-10-14 15:48:41.337409,-110
2021-10-14 15:48:41.337417,-101
2021-10-14 15:48:41.337425,-91
2021-10-14 15:48:41.337434,-93
2021-10-14 15:48:41.337442,-93
2021-10-14 15:48:41.337450,-76
2021-10-14 15:48:41.606223,-57
2021-10-14 15:48:41.606244,-57
2021-10-14 15:48:41.606254,-60
2021-10-14 15:48:41.606262,-52
2021-10-14 15:48:41.606271,-38
2021-10-14 15:48:41.606279,-38
2021-10-14 15:48:41.606287,-48
2021-10-14 15:48:41.606295,-60
2021-10-14 15:48:41.606304,-62
2021-10-14 15:48:41.606312,-60
2021-10-14 15:48:41.606320,-52
2021-10-14 15:48:41.606328,-57
2021-10-14 15:48:41.606336,-69
2021-10-14 15:48:41.606344,-69
2021-10-14 15:48:41.606353,-62
2021-10-14 15:48:41.606361,-62
2021-10-14 15:48:41.606369,-72
2021-10-14 15:48:41.606377,-79
2021-10-14 15:48:41.606386,-84
2021-10-14 15:48:41.606394,-76
2021-10-14 15:48:41.606402,-69
2021-10-14 15:48:41.606411,-69
2021-10-14 15:48:41.606419,-64
2021-10-14 15:48:41.606427,-55
2021-10-14 15:48:41.606435,-52
2021-10-14 15:48:41.606443,-55
2021-10-14 15:48:41.606452,-48
2021-10-14 15:48:41.606460,-48
2021-10-14 15:48:41.606468,-45
2021-10-14 15:48:41.606476,-38
2021-10-14 15:48:41.832579,-28
2021-10-14 15:48:41.832599,-9
2021-10-14 15:48:41.832608,2
2021-10-14 15:48:41.832617,-7
2021-10-14 15:48:41.832625,-26
2021-10-14 15:48:41.832634,-43
2021-10-14 15:48:41.832642,-55
2021-10-14 15:48:41.832651,-48
2021-10-14 15:48:41.832659,-38
2021-10-14 15:48:41.832667,-38
2021-10-14 15:48:41.832676,-50
2021-10-14 15:48:41.832684,-69
2021-10-14 15:48:41.832692,-64
2021-10-14 15:48:41.832701,-38
2021-10-14 15:48:41.832709,-31
2021-10-14 15:48:41.832717,-16
2021-10-14 15:48:41.832726,91
2021-10-14 15:48:41.832734,394
2021-10-14 15:48:41.832742,745
2021-10-14 15:48:41.832750,603
2021-10-14 15:48:41.832759,-298
2021-10-14 15:48:41.832767,-1103
2021-10-14 15:48:41.832775,-906
2021-10-14 15:48:41.832784,-315
2021-10-14 15:48:41.832792,-110
2021-10-14 15:48:41.832800,-45
2021-10-14 15:48:41.832808,74
2021-10-14 15:48:41.832817,84
2021-10-14 15:48:41.832825,60
2021-10-14 15:48:41.832833,93
2021-10-14 15:48:42.012204,96
2021-10-14 15:48:42.012225,64
2021-10-14 15:48:42.012234,86
2021-10-14 15:48:42.012243,122
2021-10-14 15:48:42.012251,105
2021-10-14 15:48:42.012259,88
2021-10-14 15:48:42.012268,108
2021-10-14 15:48:42.012276,115
2021-10-14 15:48:42.012284,115
2021-10-14 15:48:42.012293,122
2021-10-14 15:48:42.012301,117
2021-10-14 15:48:42.012309,110
2021-10-14 15:48:42.012317,117
2021-10-14 15:48:42.012325,117
2021-10-14 15:48:42.012334,120
2021-10-14 15:48:42.012342,134
2021-10-14 15:48:42.012350,127
2021-10-14 15:48:42.012361,105
2021-10-14 15:48:42.012370,110
2021-10-14 15:48:42.012378,120
2021-10-14 15:48:42.012386,105
2021-10-14 15:48:42.012394,69
2021-10-14 15:48:42.012402,33
2021-10-14 15:48:42.012411,9
2021-10-14 15:48:42.012419,-7
2021-10-14 15:48:42.012427,-31
2021-10-14 15:48:42.012436,-67
2021-10-14 15:48:42.012444,-101
2021-10-14 15:48:42.012453,-105
2021-10-14 15:48:42.012461,-93
2021-10-14 15:48:42.416653,-96
2021-10-14 15:48:42.416674,-105
2021-10-14 15:48:42.416684,-115
2021-10-14 15:48:42.416692,-125
2021-10-14 15:48:42.416700,-125
2021-10-14 15:48:42.416709,-115
2021-10-14 15:48:42.416717,-105
2021-10-14 15:48:42.416726,-96
2021-10-14 15:48:42.416734,-93
2021-10-14 15:48:42.416742,-98
2021-10-14 15:48:42.416750,-86
2021-10-14 15:48:42.416759,-69
2021-10-14 15:48:42.416767,-72
2021-10-14 15:48:42.416775,-76
2021-10-14 15:48:42.416784,-72
2021-10-14 15:48:42.416792,-62
2021-10-14 15:48:42.416800,-55
2021-10-14 15:48:42.416808,-67
2021-10-14 15:48:42.416816,-84
2021-10-14 15:48:42.416825,-57
2021-10-14 15:48:42.416833,-31
2021-10-14 15:48:42.416841,-60
2021-10-14 15:48:42.416850,-69
2021-10-14 15:48:42.416858,-28
2021-10-14 15:48:42.416866,-26
2021-10-14 15:48:42.416874,-60
2021-10-14 15:48:42.416883,-60
2021-10-14 15:48:42.416891,-38
2021-10-14 15:48:42.416899,-31
2021-10-14 15:48:42.416907,-31
2021-10-14 15:48:42.507525,-28
2021-10-14 15:48:42.507546,-36
2021-10-14 15:48:42.507555,-28
2021-10-14 15:48:42.507564,-21
2021-10-14 15:48:42.507572,-24
2021-10-14 15:48:42.507580,-19
2021-10-14 15:48:42.507589,-9
2021-10-14 15:48:42.507597,-12
2021-10-14 15:48:42.507605,-16
2021-10-14 15:48:42.507613,-21
2021-10-14 15:48:42.507622,-16
2021-10-14 15:48:42.507630,-2
2021-10-14 15:48:42.507638,9
2021-10-14 15:48:42.507646,16
2021-10-14 15:48:42.507655,19
2021-10-14 15:48:42.507663,19
2021-10-14 15:48:42.507671,16
2021-10-14 15:48:42.507679,2
2021-10-14 15:48:42.507688,-16
2021-10-14 15:48:42.507696,-7
2021-10-14 15:48:42.507704,4
2021-10-14 15:48:42.507713,-9
2021-10-14 15:48:42.507721,-19
2021-10-14 15:48:42.507729,-9
2021-10-14 15:48:42.507737,2
2021-10-14 15:48:42.507745,14
2021-10-14 15:48:42.507754,24
2021-10-14 15:48:42.507762,12
2021-10-14 15:48:42.507770,7
2021-10-14 15:48:42.507778,79
2021-10-14 15:48:42.821655,331
2021-10-14 15:48:42.821676,719
2021-10-14 15:48:42.821685,757
2021-10-14 15:48:42.821694,-2
2021-10-14 15:48:42.821702,-947
2021-10-14 15:48:42.821711,-976
2021-10-14 15:48:42.821719,-377
2021-10-14 15:48:42.821727,-101
2021-10-14 15:48:42.821735,-62
2021-10-14 15:48:42.821744,60
2021-10-14 15:48:42.821752,110
2021-10-14 15:48:42.821760,69
2021-10-14 15:48:42.821768,88
2021-10-14 15:48:42.821777,125
2021-10-14 15:48:42.821785,103
2021-10-14 15:48:42.821794,84
2021-10-14 15:48:42.821802,96
2021-10-14 15:48:42.821810,103
2021-10-14 15:48:42.821818,93
2021-10-14 15:48:42.821827,96
2021-10-14 15:48:42.821836,101
2021-10-14 15:48:42.821844,98
2021-10-14 15:48:42.821853,108
2021-10-14 15:48:42.821861,122
2021-10-14 15:48:42.821869,129
2021-10-14 15:48:42.821878,146
2021-10-14 15:48:42.821886,165
2021-10-14 15:48:42.821894,168
2021-10-14 15:48:42.821902,180
2021-10-14 15:48:42.821910,197
2021-10-14 15:48:42.957595,199
2021-10-14 15:48:42.957616,185
2021-10-14 15:48:42.957626,173
2021-10-14 15:48:42.957634,168
2021-10-14 15:48:42.957643,158
2021-10-14 15:48:42.957651,134
2021-10-14 15:48:42.957660,108
2021-10-14 15:48:42.957668,84
2021-10-14 15:48:42.957677,48
2021-10-14 15:48:42.957685,12
2021-10-14 15:48:42.957694,-7
2021-10-14 15:48:42.957702,-21
2021-10-14 15:48:42.957710,-33
2021-10-14 15:48:42.957718,-43
2021-10-14 15:48:42.957726,-57
2021-10-14 15:48:42.957734,-62
2021-10-14 15:48:42.957743,-62
2021-10-14 15:48:42.957751,-60
2021-10-14 15:48:42.957759,-48
2021-10-14 15:48:42.957767,-31
2021-10-14 15:48:42.957775,-38
2021-10-14 15:48:42.957783,-50
2021-10-14 15:48:42.957792,-33
2021-10-14 15:48:42.957800,-12
2021-10-14 15:48:42.957808,-7
2021-10-14 15:48:42.957816,-16
2021-10-14 15:48:42.957824,-14
2021-10-14 15:48:42.957832,4
2021-10-14 15:48:42.957841,12
2021-10-14 15:48:42.957849,-4
2021-10-14 15:48:43.182255,-7
2021-10-14 15:48:43.182277,9
2021-10-14 15:48:43.182287,4
2021-10-14 15:48:43.182295,-9
2021-10-14 15:48:43.182304,-12
2021-10-14 15:48:43.182312,0
2021-10-14 15:48:43.182320,4
2021-10-14 15:48:43.182329,-12
2021-10-14 15:48:43.182337,-19
2021-10-14 15:48:43.182345,2
2021-10-14 15:48:43.182354,12
2021-10-14 15:48:43.182362,-4
2021-10-14 15:48:43.182370,-9
2021-10-14 15:48:43.182378,-4
2021-10-14 15:48:43.182387,-16
2021-10-14 15:48:43.182395,-14
2021-10-14 15:48:43.182403,19
2021-10-14 15:48:43.182412,26
2021-10-14 15:48:43.182420,7
2021-10-14 15:48:43.182428,7
2021-10-14 15:48:43.182437,19
2021-10-14 15:48:43.182445,9
2021-10-14 15:48:43.182453,2
2021-10-14 15:48:43.182462,16
2021-10-14 15:48:43.182470,36
2021-10-14 15:48:43.182478,33
2021-10-14 15:48:43.182487,33
2021-10-14 15:48:43.182495,43
2021-10-14 15:48:43.182504,31
2021-10-14 15:48:43.182512,12
2021-10-14 15:48:43.452430,4
2021-10-14 15:48:43.452452,16
2021-10-14 15:48:43.452461,28
2021-10-14 15:48:43.452470,19
2021-10-14 15:48:43.452478,19
2021-10-14 15:48:43.452487,31
2021-10-14 15:48:43.452495,21
2021-10-14 15:48:43.452504,19
2021-10-14 15:48:43.452512,33
2021-10-14 15:48:43.452520,50
2021-10-14 15:48:43.452529,125
2021-10-14 15:48:43.452537,353
2021-10-14 15:48:43.452545,704
2021-10-14 15:48:43.452553,702
2021-10-14 15:48:43.452561,-129
2021-10-14 15:48:43.452570,-1082
2021-10-14 15:48:43.452578,-1046
2021-10-14 15:48:43.452586,-452
2021-10-14 15:48:43.452594,-187
2021-10-14 15:48:43.452603,-74
2021-10-14 15:48:43.452611,86
2021-10-14 15:48:43.452619,117
2021-10-14 15:48:43.452627,91
2021-10-14 15:48:43.452635,110
2021-10-14 15:48:43.452644,120
2021-10-14 15:48:43.452652,120
2021-10-14 15:48:43.452660,122
2021-10-14 15:48:43.452668,132
2021-10-14 15:48:43.452677,137
2021-10-14 15:48:43.452685,132
2021-10-14 15:48:43.676049,141
2021-10-14 15:48:43.676071,151
2021-10-14 15:48:43.676081,146
2021-10-14 15:48:43.676089,163
2021-10-14 15:48:43.676098,177
2021-10-14 15:48:43.676107,165
2021-10-14 15:48:43.676115,175
2021-10-14 15:48:43.676123,209
2021-10-14 15:48:43.676132,221
2021-10-14 15:48:43.676141,202
2021-10-14 15:48:43.676149,199
2021-10-14 15:48:43.676158,221
2021-10-14 15:48:43.676166,218
2021-10-14 15:48:43.676175,197
2021-10-14 15:48:43.676183,182
2021-10-14 15:48:43.676192,168
2021-10-14 15:48:43.676200,144
2021-10-14 15:48:43.676209,110
2021-10-14 15:48:43.676217,64
2021-10-14 15:48:43.676226,24
2021-10-14 15:48:43.676234,-4
2021-10-14 15:48:43.676242,-24
2021-10-14 15:48:43.676251,-45
2021-10-14 15:48:43.676260,-74
2021-10-14 15:48:43.676268,-91
2021-10-14 15:48:43.676277,-88
2021-10-14 15:48:43.676285,-98
2021-10-14 15:48:43.676293,-108
2021-10-14 15:48:43.676303,-105
2021-10-14 15:48:43.676312,-103
2021-10-14 15:48:43.947039,-86
2021-10-14 15:48:43.947060,-76
2021-10-14 15:48:43.947069,-98
2021-10-14 15:48:43.947078,-93
2021-10-14 15:48:43.947086,-57
2021-10-14 15:48:43.947095,-48
2021-10-14 15:48:43.947103,-64
2021-10-14 15:48:43.947111,-67
2021-10-14 15:48:43.947119,-55
2021-10-14 15:48:43.947128,-45
2021-10-14 15:48:43.947136,-40
2021-10-14 15:48:43.947144,-57
2021-10-14 15:48:43.947153,-67
2021-10-14 15:48:43.947161,-43
2021-10-14 15:48:43.947169,-43
2021-10-14 15:48:43.947177,-64
2021-10-14 15:48:43.947186,-52
2021-10-14 15:48:43.947194,-33
2021-10-14 15:48:43.947202,-45
2021-10-14 15:48:43.947210,-57
2021-10-14 15:48:43.947219,-48
2021-10-14 15:48:43.947227,-33
2021-10-14 15:48:43.947235,-36
2021-10-14 15:48:43.947243,-38
2021-10-14 15:48:43.947251,-40
2021-10-14 15:48:43.947260,-33
2021-10-14 15:48:43.947268,-31
2021-10-14 15:48:43.947276,-40
2021-10-14 15:48:43.947284,-36
2021-10-14 15:48:43.947293,-31
2021-10-14 15:48:44.127603,-31
2021-10-14 15:48:44.127624,-26
2021-10-14 15:48:44.127633,-26
2021-10-14 15:48:44.127642,-21
2021-10-14 15:48:44.127650,16
2021-10-14 15:48:44.127658,19
2021-10-14 15:48:44.127666,-28
2021-10-14 15:48:44.127675,-48
2021-10-14 15:48:44.127683,-31
2021-10-14 15:48:44.127692,-26
2021-10-14 15:48:44.127700,-38
2021-10-14 15:48:44.127708,-33
2021-10-14 15:48:44.127716,-38
2021-10-14 15:48:44.127724,-60
2021-10-14 15:48:44.127733,-64
2021-10-14 15:48:44.127741,-45
2021-10-14 15:48:44.127749,-40
2021-10-14 15:48:44.127757,-21
2021-10-14 15:48:44.127766,93
2021-10-14 15:48:44.127774,372
2021-10-14 15:48:44.127782,687
2021-10-14 15:48:44.127790,480
2021-10-14 15:48:44.127799,-536
2021-10-14 15:48:44.127807,-1339
2021-10-14 15:48:44.127815,-1022
2021-10-14 15:48:44.127823,-413
2021-10-14 15:48:44.127831,-245
2021-10-14 15:48:44.127840,-117
2021-10-14 15:48:44.127848,69
2021-10-14 15:48:44.127856,76
2021-10-14 15:48:44.487008,24
2021-10-14 15:48:44.487030,55
2021-10-14 15:48:44.487039,79
2021-10-14 15:48:44.487048,57
2021-10-14 15:48:44.487056,57
2021-10-14 15:48:44.487065,81
2021-10-14 15:48:44.487073,88
2021-10-14 15:48:44.487081,93
2021-10-14 15:48:44.487089,105
2021-10-14 15:48:44.487097,101
2021-10-14 15:48:44.487106,105
2021-10-14 15:48:44.487114,122
2021-10-14 15:48:44.487122,129
2021-10-14 15:48:44.487130,146
2021-10-14 15:48:44.487142,170
2021-10-14 15:48:44.487150,168
2021-10-14 15:48:44.487158,173
2021-10-14 15:48:44.487166,199
2021-10-14 15:48:44.487174,216
2021-10-14 15:48:44.487183,216
2021-10-14 15:48:44.487191,197
2021-10-14 15:48:44.487199,173
2021-10-14 15:48:44.487207,151
2021-10-14 15:48:44.487215,117
2021-10-14 15:48:44.487223,96
2021-10-14 15:48:44.487232,74
2021-10-14 15:48:44.487240,33
2021-10-14 15:48:44.487248,-7
2021-10-14 15:48:44.487256,-40
2021-10-14 15:48:44.487265,-60
2021-10-14 15:48:44.577478,-72
2021-10-14 15:48:44.577497,-84
2021-10-14 15:48:44.577506,-91
2021-10-14 15:48:44.577515,-101
2021-10-14 15:48:44.577523,-110
2021-10-14 15:48:44.577532,-113
2021-10-14 15:48:44.577540,-115
2021-10-14 15:48:44.577548,-120
2021-10-14 15:48:44.577557,-120
2021-10-14 15:48:44.577565,-110
2021-10-14 15:48:44.577573,-101
2021-10-14 15:48:44.577581,-96
2021-10-14 15:48:44.577590,-86
2021-10-14 15:48:44.577598,-69
2021-10-14 15:48:44.577606,-74
2021-10-14 15:48:44.577614,-101
2021-10-14 15:48:44.577623,-98
2021-10-14 15:48:44.577631,-67
2021-10-14 15:48:44.577639,-55
2021-10-14 15:48:44.577647,-52
2021-10-14 15:48:44.577656,-62
2021-10-14 15:48:44.577664,-84
2021-10-14 15:48:44.577672,-86
2021-10-14 15:48:44.577680,-69
2021-10-14 15:48:44.577688,-69
2021-10-14 15:48:44.577697,-76
2021-10-14 15:48:44.577705,-74
2021-10-14 15:48:44.577713,-74
2021-10-14 15:48:44.577721,-81
2021-10-14 15:48:44.577729,-79
2021-10-14 15:48:44.802629,-72
2021-10-14 15:48:44.802649,-72
2021-10-14 15:48:44.802658,-76
2021-10-14 15:48:44.802666,-76
2021-10-14 15:48:44.802675,-67
2021-10-14 15:48:44.802683,-67
2021-10-14 15:48:44.802692,-72
2021-10-14 15:48:44.802700,-69
2021-10-14 15:48:44.802708,-74
2021-10-14 15:48:44.802717,-76
2021-10-14 15:48:44.802725,-60
2021-10-14 15:48:44.802733,-43
2021-10-14 15:48:44.802742,-31
2021-10-14 15:48:44.802750,-28
2021-10-14 15:48:44.802758,-40
2021-10-14 15:48:44.802766,-52
2021-10-14 15:48:44.802774,-64
2021-10-14 15:48:44.802783,-64
2021-10-14 15:48:44.802791,-62
2021-10-14 15:48:44.802799,-64
2021-10-14 15:48:44.802807,-67
2021-10-14 15:48:44.802816,-57
2021-10-14 15:48:44.802824,-43
2021-10-14 15:48:44.802832,-50
2021-10-14 15:48:44.802840,-69
2021-10-14 15:48:44.802848,-69
2021-10-14 15:48:44.802856,-24
2021-10-14 15:48:44.802864,96
2021-10-14 15:48:44.802873,408
2021-10-14 15:48:44.802881,747
2021-10-14 15:48:45.072566,466
2021-10-14 15:48:45.072587,-565
2021-10-14 15:48:45.072597,-1264
2021-10-14 15:48:45.072605,-904
2021-10-14 15:48:45.072614,-334
2021-10-14 15:48:45.072622,-189
2021-10-14 15:48:45.072631,-88
2021-10-14 15:48:45.072639,48
2021-10-14 15:48:45.072647,38
2021-10-14 15:48:45.072656,19
2021-10-14 15:48:45.072664,67
2021-10-14 15:48:45.072672,74
2021-10-14 15:48:45.072680,64
2021-10-14 15:48:45.072689,81
2021-10-14 15:48:45.072697,84
2021-10-14 15:48:45.072705,67
2021-10-14 15:48:45.072713,69
2021-10-14 15:48:45.072722,81
2021-10-14 15:48:45.072730,96
2021-10-14 15:48:45.072738,105
2021-10-14 15:48:45.072746,115
2021-10-14 15:48:45.072755,132
2021-10-14 15:48:45.072763,151
2021-10-14 15:48:45.072771,161
2021-10-14 15:48:45.072779,165
2021-10-14 15:48:45.072788,177
2021-10-14 15:48:45.072796,185
2021-10-14 15:48:45.072804,173
2021-10-14 15:48:45.072812,165
2021-10-14 15:48:45.072821,170
2021-10-14 15:48:45.297609,163
2021-10-14 15:48:45.297630,139
2021-10-14 15:48:45.297640,115
2021-10-14 15:48:45.297648,86
2021-10-14 15:48:45.297657,60
2021-10-14 15:48:45.297665,33
2021-10-14 15:48:45.297674,-2
2021-10-14 15:48:45.297682,-36
2021-10-14 15:48:45.297691,-52
2021-10-14 15:48:45.297699,-69
2021-10-14 15:48:45.297707,-88
2021-10-14 15:48:45.297716,-96
2021-10-14 15:48:45.297724,-105
2021-10-14 15:48:45.297732,-110
2021-10-14 15:48:45.297741,-108
2021-10-14 15:48:45.297749,-103
2021-10-14 15:48:45.297758,-93
2021-10-14 15:48:45.297766,-84
2021-10-14 15:48:45.297774,-86
2021-10-14 15:48:45.297782,-81
2021-10-14 15:48:45.297791,-67
2021-10-14 15:48:45.297799,-55
2021-10-14 15:48:45.297807,-55
2021-10-14 15:48:45.297825,-50
2021-10-14 15:48:45.297834,-40
2021-10-14 15:48:45.297842,-33
2021-10-14 15:48:45.297850,-36
2021-10-14 15:48:45.297859,-28
2021-10-14 15:48:45.297867,-14
2021-10-14 15:48:45.297876,-9
2021-10-14 15:48:45.521693,-19
2021-10-14 15:48:45.521715,-28
2021-10-14 15:48:45.521724,-19
2021-10-14 15:48:45.521733,-7
2021-10-14 15:48:45.521741,-7
2021-10-14 15:48:45.521750,-19
2021-10-14 15:48:45.521758,-31
2021-10-14 15:48:45.521767,-28
2021-10-14 15:48:45.521775,-14
2021-10-14 15:48:45.521783,-16
2021-10-14 15:48:45.521792,-28
2021-10-14 15:48:45.521800,-36
2021-10-14 15:48:45.521809,-33
2021-10-14 15:48:45.521817,-21
2021-10-14 15:48:45.521825,-19
2021-10-14 15:48:45.521834,-26
2021-10-14 15:48:45.521842,-21
2021-10-14 15:48:45.521850,-14
2021-10-14 15:48:45.521858,-16
2021-10-14 15:48:45.521867,-16
2021-10-14 15:48:45.521875,-9
2021-10-14 15:48:45.521883,2
2021-10-14 15:48:45.521892,19
2021-10-14 15:48:45.521900,26
2021-10-14 15:48:45.521908,31
2021-10-14 15:48:45.521916,38
2021-10-14 15:48:45.521924,16
2021-10-14 15:48:45.521933,0
2021-10-14 15:48:45.521941,4
2021-10-14 15:48:45.521949,0
2021-10-14 15:48:45.745924,-9
2021-10-14 15:48:45.745946,-12
2021-10-14 15:48:45.745955,-16
2021-10-14 15:48:45.745964,-14
2021-10-14 15:48:45.745972,-12
2021-10-14 15:48:45.745980,-21
2021-10-14 15:48:45.745989,-19
2021-10-14 15:48:45.745997,7
2021-10-14 15:48:45.746005,84
2021-10-14 15:48:45.746014,341
2021-10-14 15:48:45.746022,731
2021-10-14 15:48:45.746030,709
2021-10-14 15:48:45.746038,-139
2021-10-14 15:48:45.746047,-1077
2021-10-14 15:48:45.746055,-1026
2021-10-14 15:48:45.746063,-399
2021-10-14 15:48:45.746072,-139
2021-10-14 15:48:45.746080,-91
2021-10-14 15:48:45.746089,50
2021-10-14 15:48:45.746097,101
2021-10-14 15:48:45.746105,60
2021-10-14 15:48:45.746113,81
2021-10-14 15:48:45.746122,110
2021-10-14 15:48:45.746130,101
2021-10-14 15:48:45.746138,105
2021-10-14 15:48:45.746147,125
2021-10-14 15:48:45.746155,125
2021-10-14 15:48:45.746163,122
2021-10-14 15:48:45.746172,129
2021-10-14 15:48:45.746180,144
2021-10-14 15:48:45.972001,156
2021-10-14 15:48:45.972022,173
2021-10-14 15:48:45.972032,182
2021-10-14 15:48:45.972040,185
2021-10-14 15:48:45.972049,187
2021-10-14 15:48:45.972057,197
2021-10-14 15:48:45.972065,214
2021-10-14 15:48:45.972074,221
2021-10-14 15:48:45.972082,226
2021-10-14 15:48:45.972090,228
2021-10-14 15:48:45.972099,216
2021-10-14 15:48:45.972107,202
2021-10-14 15:48:45.972115,194
2021-10-14 15:48:45.972124,177
2021-10-14 15:48:45.972132,149
2021-10-14 15:48:45.972140,115
2021-10-14 15:48:45.972148,84
2021-10-14 15:48:45.972157,55
2021-10-14 15:48:45.972165,33
2021-10-14 15:48:45.972173,14
2021-10-14 15:48:45.972181,-2
2021-10-14 15:48:45.972190,-16
2021-10-14 15:48:45.972198,-28
2021-10-14 15:48:45.972207,-36
2021-10-14 15:48:45.972215,-31
2021-10-14 15:48:45.972223,-26
2021-10-14 15:48:45.972232,-26
2021-10-14 15:48:45.972240,-21
2021-10-14 15:48:45.972248,-19
2021-10-14 15:48:45.972257,-14
2021-10-14 15:48:46.152431,-7
2021-10-14 15:48:46.152452,0
2021-10-14 15:48:46.152461,4
2021-10-14 15:48:46.152470,2
2021-10-14 15:48:46.152478,4
2021-10-14 15:48:46.152487,19
2021-10-14 15:48:46.152495,24
2021-10-14 15:48:46.152503,14
2021-10-14 15:48:46.152511,12
2021-10-14 15:48:46.152520,12
2021-10-14 15:48:46.152528,2
2021-10-14 15:48:46.152536,4
2021-10-14 15:48:46.152544,19
2021-10-14 15:48:46.152553,21
2021-10-14 15:48:46.152561,9
2021-10-14 15:48:46.152569,2
2021-10-14 15:48:46.152577,4
2021-10-14 15:48:46.152585,2
2021-10-14 15:48:46.152594,-4
2021-10-14 15:48:46.152602,-4
2021-10-14 15:48:46.152610,4
2021-10-14 15:48:46.152618,4
2021-10-14 15:48:46.152626,2
2021-10-14 15:48:46.152634,16
2021-10-14 15:48:46.152643,28
2021-10-14 15:48:46.152651,26
2021-10-14 15:48:46.152659,14
2021-10-14 15:48:46.152667,16
2021-10-14 15:48:46.152676,26
2021-10-14 15:48:46.152684,28
2021-10-14 15:48:46.466663,31
2021-10-14 15:48:46.466683,38
2021-10-14 15:48:46.466692,38
2021-10-14 15:48:46.466701,26
2021-10-14 15:48:46.466709,24
2021-10-14 15:48:46.466718,40
2021-10-14 15:48:46.466726,52
2021-10-14 15:48:46.466734,55
2021-10-14 15:48:46.466743,55
2021-10-14 15:48:46.466751,48
2021-10-14 15:48:46.466759,52
2021-10-14 15:48:46.466767,69
2021-10-14 15:48:46.466775,67
2021-10-14 15:48:46.466784,38
2021-10-14 15:48:46.466792,16
2021-10-14 15:48:46.466800,14
2021-10-14 15:48:46.466809,21
2021-10-14 15:48:46.466817,26
2021-10-14 15:48:46.466825,26
2021-10-14 15:48:46.466833,21
2021-10-14 15:48:46.466841,9
2021-10-14 15:48:46.466850,0
2021-10-14 15:48:46.466858,9
2021-10-14 15:48:46.466867,26
2021-10-14 15:48:46.466875,50
2021-10-14 15:48:46.466883,170
2021-10-14 15:48:46.466891,492
2021-10-14 15:48:46.466900,810
2021-10-14 15:48:46.466908,577
2021-10-14 15:48:46.466916,-353
2021-10-14 15:48:46.782309,-1060
2021-10-14 15:48:46.782331,-759
2021-10-14 15:48:46.782340,-173
2021-10-14 15:48:46.782348,-31
2021-10-14 15:48:46.782357,16
2021-10-14 15:48:46.782365,129
2021-10-14 15:48:46.782373,134
2021-10-14 15:48:46.782382,113
2021-10-14 15:48:46.782390,137
2021-10-14 15:48:46.782398,139
2021-10-14 15:48:46.782406,134
2021-10-14 15:48:46.782415,149
2021-10-14 15:48:46.782423,149
2021-10-14 15:48:46.782431,137
2021-10-14 15:48:46.782440,137
2021-10-14 15:48:46.782450,141
2021-10-14 15:48:46.782458,149
2021-10-14 15:48:46.782467,163
2021-10-14 15:48:46.782475,175
2021-10-14 15:48:46.782483,177
2021-10-14 15:48:46.782491,177
2021-10-14 15:48:46.782499,185
2021-10-14 15:48:46.782508,194
2021-10-14 15:48:46.782516,211
2021-10-14 15:48:46.782524,226
2021-10-14 15:48:46.782532,230
2021-10-14 15:48:46.782541,230
2021-10-14 15:48:46.782549,223
2021-10-14 15:48:46.782557,209
2021-10-14 15:48:46.782565,189
2021-10-14 15:48:46.872188,177
2021-10-14 15:48:46.872207,161
2021-10-14 15:48:46.872217,129
2021-10-14 15:48:46.872225,103
2021-10-14 15:48:46.872234,84
2021-10-14 15:48:46.872242,62
2021-10-14 15:48:46.872250,40
2021-10-14 15:48:46.872258,14
2021-10-14 15:48:46.872267,-7
2021-10-14 15:48:46.872275,-12
2021-10-14 15:48:46.872283,-12
2021-10-14 15:48:46.872292,-19
2021-10-14 15:48:46.872300,-19
2021-10-14 15:48:46.872308,-19
2021-10-14 15:48:46.872317,-24
2021-10-14 15:48:46.872325,-16
2021-10-14 15:48:46.872333,-7
2021-10-14 15:48:46.872341,-2
2021-10-14 15:48:46.872350,2
2021-10-14 15:48:46.872408,7
2021-10-14 15:48:46.872417,4
2021-10-14 15:48:46.872425,4
2021-10-14 15:48:46.872433,9
2021-10-14 15:48:46.872441,12
2021-10-14 15:48:46.872450,4
2021-10-14 15:48:46.872458,4
2021-10-14 15:48:46.872466,14
2021-10-14 15:48:46.872474,21
2021-10-14 15:48:46.872482,14
2021-10-14 15:48:46.872491,7
2021-10-14 15:48:47.097640,7
2021-10-14 15:48:47.097661,7
2021-10-14 15:48:47.097671,7
2021-10-14 15:48:47.097679,7
2021-10-14 15:48:47.097688,7
2021-10-14 15:48:47.097696,7
2021-10-14 15:48:47.097704,-2
2021-10-14 15:48:47.097712,-9
2021-10-14 15:48:47.097721,0
2021-10-14 15:48:47.097729,4
2021-10-14 15:48:47.097737,0
2021-10-14 15:48:47.097746,9
2021-10-14 15:48:47.097754,12
2021-10-14 15:48:47.097763,7
2021-10-14 15:48:47.097771,4
2021-10-14 15:48:47.097779,-2
2021-10-14 15:48:47.097787,0
2021-10-14 15:48:47.097796,2
2021-10-14 15:48:47.097804,-9
2021-10-14 15:48:47.097812,-12
2021-10-14 15:48:47.097820,4
2021-10-14 15:48:47.097829,9
2021-10-14 15:48:47.097837,14
2021-10-14 15:48:47.097845,21
2021-10-14 15:48:47.097853,19
2021-10-14 15:48:47.097861,16
2021-10-14 15:48:47.097870,19
2021-10-14 15:48:47.097878,4
2021-10-14 15:48:47.097886,-16
2021-10-14 15:48:47.097894,-26
2021-10-14 15:48:47.367279,-24
2021-10-14 15:48:47.367300,-28
2021-10-14 15:48:47.367310,-38
2021-10-14 15:48:47.367318,-38
2021-10-14 15:48:47.367327,-28
2021-10-14 15:48:47.367335,-19
2021-10-14 15:48:47.367343,-26
2021-10-14 15:48:47.367352,-33
2021-10-14 15:48:47.367360,-2
2021-10-14 15:48:47.367378,98
2021-10-14 15:48:47.367386,370
2021-10-14 15:48:47.367395,714
2021-10-14 15:48:47.367403,591
2021-10-14 15:48:47.367411,-298
2021-10-14 15:48:47.367420,-1108
2021-10-14 15:48:47.367428,-928
2021-10-14 15:48:47.367436,-353
2021-10-14 15:48:47.367444,-153
2021-10-14 15:48:47.367453,-76
2021-10-14 15:48:47.367461,62
2021-10-14 15:48:47.367469,91
2021-10-14 15:48:47.367478,64
2021-10-14 15:48:47.367486,81
2021-10-14 15:48:47.367494,93
2021-10-14 15:48:47.367502,98
2021-10-14 15:48:47.367510,115
2021-10-14 15:48:47.367519,110
2021-10-14 15:48:47.367527,101
2021-10-14 15:48:47.367535,115
2021-10-14 15:48:47.367543,127
2021-10-14 15:48:47.592032,122
2021-10-14 15:48:47.592052,127
2021-10-14 15:48:47.592062,134
2021-10-14 15:48:47.592070,144
2021-10-14 15:48:47.592079,161
2021-10-14 15:48:47.592087,177
2021-10-14 15:48:47.592096,192
2021-10-14 15:48:47.592104,199
2021-10-14 15:48:47.592113,194
2021-10-14 15:48:47.592121,202
2021-10-14 15:48:47.592129,221
2021-10-14 15:48:47.592138,202
2021-10-14 15:48:47.592146,175
2021-10-14 15:48:47.592154,173
2021-10-14 15:48:47.592163,153
2021-10-14 15:48:47.592171,113
2021-10-14 15:48:47.592179,81
2021-10-14 15:48:47.592187,60
2021-10-14 15:48:47.592196,33
2021-10-14 15:48:47.592204,2
2021-10-14 15:48:47.592212,-33
2021-10-14 15:48:47.592221,-55
2021-10-14 15:48:47.592229,-62
2021-10-14 15:48:47.592237,-76
2021-10-14 15:48:47.592246,-93
2021-10-14 15:48:47.592254,-93
2021-10-14 15:48:47.592262,-88
2021-10-14 15:48:47.592270,-96
2021-10-14 15:48:47.592279,-91
2021-10-14 15:48:47.592287,-86
2021-10-14 15:48:47.906327,-88
2021-10-14 15:48:47.906348,-86
2021-10-14 15:48:47.906357,-74
2021-10-14 15:48:47.906366,-69
2021-10-14 15:48:47.906374,-74
2021-10-14 15:48:47.906383,-74
2021-10-14 15:48:47.906391,-60
2021-10-14 15:48:47.906399,-48
2021-10-14 15:48:47.906407,-48
2021-10-14 15:48:47.906416,-52
2021-10-14 15:48:47.906424,-52
2021-10-14 15:48:47.906432,-55
2021-10-14 15:48:47.906440,-60
2021-10-14 15:48:47.906449,-50
2021-10-14 15:48:47.906457,-43
2021-10-14 15:48:47.906465,-57
2021-10-14 15:48:47.906473,-64
2021-10-14 15:48:47.906482,-57
2021-10-14 15:48:47.906490,-55
2021-10-14 15:48:47.906498,-50
2021-10-14 15:48:47.906506,-43
2021-10-14 15:48:47.906514,-45
2021-10-14 15:48:47.906523,-52
2021-10-14 15:48:47.906531,-50
2021-10-14 15:48:47.906539,-43
2021-10-14 15:48:47.906547,-45
2021-10-14 15:48:47.906556,-43
2021-10-14 15:48:47.906564,-38
2021-10-14 15:48:47.906572,-38
2021-10-14 15:48:47.906580,-43
2021-10-14 15:48:48.042825,-50
2021-10-14 15:48:48.042847,-55
2021-10-14 15:48:48.042856,-57
2021-10-14 15:48:48.042865,-62
2021-10-14 15:48:48.042874,-60
2021-10-14 15:48:48.042882,-43
2021-10-14 15:48:48.042891,-33
2021-10-14 15:48:48.042899,-45
2021-10-14 15:48:48.042908,-50
2021-10-14 15:48:48.042916,-45
2021-10-14 15:48:48.042925,-67
2021-10-14 15:48:48.042933,-81
2021-10-14 15:48:48.042942,-81
2021-10-14 15:48:48.042950,-81
2021-10-14 15:48:48.042959,-81
2021-10-14 15:48:48.042967,-86
2021-10-14 15:48:48.042976,-91
2021-10-14 15:48:48.042984,-84
2021-10-14 15:48:48.042992,-76
2021-10-14 15:48:48.043001,-69
2021-10-14 15:48:48.043009,-60
2021-10-14 15:48:48.043018,-45
2021-10-14 15:48:48.043026,64
2021-10-14 15:48:48.043035,387
2021-10-14 15:48:48.043043,719
2021-10-14 15:48:48.043052,466
2021-10-14 15:48:48.043060,-509
2021-10-14 15:48:48.043069,-1197
2021-10-14 15:48:48.043077,-860
2021-10-14 15:48:48.043086,-322
2021-10-14 15:48:48.491083,-199
2021-10-14 15:48:48.491105,-101
2021-10-14 15:48:48.491114,36
2021-10-14 15:48:48.491123,26
2021-10-14 15:48:48.491131,4
2021-10-14 15:48:48.491139,43
2021-10-14 15:48:48.491148,40
2021-10-14 15:48:48.491156,33
2021-10-14 15:48:48.491164,52
2021-10-14 15:48:48.491172,48
2021-10-14 15:48:48.491181,38
2021-10-14 15:48:48.491189,62
2021-10-14 15:48:48.491197,84
2021-10-14 15:48:48.491205,86
2021-10-14 15:48:48.491213,86
2021-10-14 15:48:48.491222,84
2021-10-14 15:48:48.491230,101
2021-10-14 15:48:48.491238,120
2021-10-14 15:48:48.491246,125
2021-10-14 15:48:48.491255,137
2021-10-14 15:48:48.491263,146
2021-10-14 15:48:48.491271,137
2021-10-14 15:48:48.491279,139
2021-10-14 15:48:48.491288,161
2021-10-14 15:48:48.491296,158
2021-10-14 15:48:48.491304,141
2021-10-14 15:48:48.491312,129
2021-10-14 15:48:48.491320,105
2021-10-14 15:48:48.491329,72
2021-10-14 15:48:48.491337,57
2021-10-14 15:48:48.581646,43
2021-10-14 15:48:48.581666,0
2021-10-14 15:48:48.581675,-45
2021-10-14 15:48:48.581684,-52
2021-10-14 15:48:48.581692,-43
2021-10-14 15:48:48.581701,-62
2021-10-14 15:48:48.581709,-91
2021-10-14 15:48:48.581717,-93
2021-10-14 15:48:48.581726,-93
2021-10-14 15:48:48.581734,-103
2021-10-14 15:48:48.581743,-96
2021-10-14 15:48:48.581751,-81
2021-10-14 15:48:48.581759,-84
2021-10-14 15:48:48.581767,-93
2021-10-14 15:48:48.581776,-88
2021-10-14 15:48:48.581784,-79
2021-10-14 15:48:48.581792,-72
2021-10-14 15:48:48.581800,-60
2021-10-14 15:48:48.581809,-52
2021-10-14 15:48:48.581817,-55
2021-10-14 15:48:48.581825,-60
2021-10-14 15:48:48.581833,-55
2021-10-14 15:48:48.581842,-38
2021-10-14 15:48:48.581850,-28
2021-10-14 15:48:48.581858,-48
2021-10-14 15:48:48.581866,-64
2021-10-14 15:48:48.581875,-60
2021-10-14 15:48:48.581883,-55
2021-10-14 15:48:48.581891,-55
2021-10-14 15:48:48.581900,-52
2021-10-14 15:48:48.717656,-50
2021-10-14 15:48:48.717677,-57
2021-10-14 15:48:48.717687,-60
2021-10-14 15:48:48.717695,-52
2021-10-14 15:48:48.717704,-48
2021-10-14 15:48:48.717712,-62
2021-10-14 15:48:48.717720,-76
2021-10-14 15:48:48.717729,-74
2021-10-14 15:48:48.717737,-74
2021-10-14 15:48:48.717745,-81
2021-10-14 15:48:48.717754,-79
2021-10-14 15:48:48.717762,-74
2021-10-14 15:48:48.717770,-69
2021-10-14 15:48:48.717779,-72
2021-10-14 15:48:48.717787,-79
2021-10-14 15:48:48.717795,-79
2021-10-14 15:48:48.717803,-74
2021-10-14 15:48:48.717811,-62
2021-10-14 15:48:48.717820,-64
2021-10-14 15:48:48.717828,-84
2021-10-14 15:48:48.717836,-79
2021-10-14 15:48:48.717844,-50
2021-10-14 15:48:48.717853,-57
2021-10-14 15:48:48.717861,-93
2021-10-14 15:48:48.717869,-98
2021-10-14 15:48:48.717877,-88
2021-10-14 15:48:48.717885,-91
2021-10-14 15:48:48.717894,-91
2021-10-14 15:48:48.717902,-81
2021-10-14 15:48:48.717910,-74
2021-10-14 15:48:48.987047,-72
2021-10-14 15:48:48.987067,-64
2021-10-14 15:48:48.987076,-60
2021-10-14 15:48:48.987085,-52
2021-10-14 15:48:48.987093,9
2021-10-14 15:48:48.987101,230
2021-10-14 15:48:48.987110,608
2021-10-14 15:48:48.987118,694
2021-10-14 15:48:48.987126,-16
2021-10-14 15:48:48.987135,-997
2021-10-14 15:48:48.987143,-1103
2021-10-14 15:48:48.987151,-500
2021-10-14 15:48:48.987159,-177
2021-10-14 15:48:48.987168,-134
2021-10-14 15:48:48.987176,-12
2021-10-14 15:48:48.987184,50
2021-10-14 15:48:48.987192,16
2021-10-14 15:48:48.987201,31
2021-10-14 15:48:48.987209,55
2021-10-14 15:48:48.987217,43
2021-10-14 15:48:48.987226,50
2021-10-14 15:48:48.987234,72
2021-10-14 15:48:48.987242,74
2021-10-14 15:48:48.987250,76
2021-10-14 15:48:48.987259,91
2021-10-14 15:48:48.987267,105
2021-10-14 15:48:48.987275,110
2021-10-14 15:48:48.987284,113
2021-10-14 15:48:48.987293,127
2021-10-14 15:48:48.987301,144
2021-10-14 15:48:49.167252,144
2021-10-14 15:48:49.167272,149
2021-10-14 15:48:49.167281,170
2021-10-14 15:48:49.167289,182
2021-10-14 15:48:49.167298,182
2021-10-14 15:48:49.167306,180
2021-10-14 15:48:49.167314,173
2021-10-14 15:48:49.167323,158
2021-10-14 15:48:49.167331,141
2021-10-14 15:48:49.167339,125
2021-10-14 15:48:49.167347,103
2021-10-14 15:48:49.167356,57
2021-10-14 15:48:49.167364,4
2021-10-14 15:48:49.167372,-12
2021-10-14 15:48:49.167380,-16
2021-10-14 15:48:49.167389,-45
2021-10-14 15:48:49.167397,-69
2021-10-14 15:48:49.167405,-74
2021-10-14 15:48:49.167413,-84
2021-10-14 15:48:49.167422,-93
2021-10-14 15:48:49.167430,-96
2021-10-14 15:48:49.167438,-98
2021-10-14 15:48:49.167446,-101
2021-10-14 15:48:49.167454,-101
2021-10-14 15:48:49.167462,-96
2021-10-14 15:48:49.167471,-84
2021-10-14 15:48:49.167479,-62
2021-10-14 15:48:49.167487,-55
2021-10-14 15:48:49.167495,-55
2021-10-14 15:48:49.167504,-45
2021-10-14 15:48:49.526640,-36
2021-10-14 15:48:49.526660,-38
2021-10-14 15:48:49.526670,-43
2021-10-14 15:48:49.526678,-36
2021-10-14 15:48:49.526686,-28
2021-10-14 15:48:49.526695,-31
2021-10-14 15:48:49.526703,-38
2021-10-14 15:48:49.526711,-38
2021-10-14 15:48:49.526719,-36
2021-10-14 15:48:49.526728,-36
2021-10-14 15:48:49.526736,-33
2021-10-14 15:48:49.526744,-36
2021-10-14 15:48:49.526753,-40
2021-10-14 15:48:49.526761,-43
2021-10-14 15:48:49.526769,-52
2021-10-14 15:48:49.526777,-55
2021-10-14 15:48:49.526786,-45
2021-10-14 15:48:49.526794,-45
2021-10-14 15:48:49.526802,-52
2021-10-14 15:48:49.526810,-50
2021-10-14 15:48:49.526819,-40
2021-10-14 15:48:49.526827,-40
2021-10-14 15:48:49.526835,-40
2021-10-14 15:48:49.526844,-45
2021-10-14 15:48:49.526852,-50
2021-10-14 15:48:49.526860,-40
2021-10-14 15:48:49.526868,-38
2021-10-14 15:48:49.526877,-50
2021-10-14 15:48:49.526885,-52
2021-10-14 15:48:49.526893,-40
2021-10-14 15:48:49.617609,-38
2021-10-14 15:48:49.617629,-33
2021-10-14 15:48:49.617637,-31
2021-10-14 15:48:49.617644,-36
2021-10-14 15:48:49.617651,-26
2021-10-14 15:48:49.617658,-16
2021-10-14 15:48:49.617666,-38
2021-10-14 15:48:49.617673,-69
2021-10-14 15:48:49.617680,-67
2021-10-14 15:48:49.617688,-50
2021-10-14 15:48:49.617696,-60
2021-10-14 15:48:49.617704,-74
2021-10-14 15:48:49.617711,-62
2021-10-14 15:48:49.617719,-52
2021-10-14 15:48:49.617726,-62
2021-10-14 15:48:49.617733,-60
2021-10-14 15:48:49.617739,-48
2021-10-14 15:48:49.617746,-31
2021-10-14 15:48:49.617753,79
2021-10-14 15:48:49.617760,406
2021-10-14 15:48:49.617767,731
2021-10-14 15:48:49.617775,461
2021-10-14 15:48:49.617782,-509
2021-10-14 15:48:49.617790,-1178
2021-10-14 15:48:49.617797,-836
2021-10-14 15:48:49.617806,-290
2021-10-14 15:48:49.617814,-151
2021-10-14 15:48:49.617822,-64
2021-10-14 15:48:49.617829,50
2021-10-14 15:48:49.617837,43
2021-10-14 15:48:49.886278,33
2021-10-14 15:48:49.886298,79
2021-10-14 15:48:49.886307,79
2021-10-14 15:48:49.886316,50
2021-10-14 15:48:49.886324,57
2021-10-14 15:48:49.886342,81
2021-10-14 15:48:49.886350,91
2021-10-14 15:48:49.886359,96
2021-10-14 15:48:49.886367,105
2021-10-14 15:48:49.886376,105
2021-10-14 15:48:49.886384,98
2021-10-14 15:48:49.886392,110
2021-10-14 15:48:49.886400,129
2021-10-14 15:48:49.886409,146
2021-10-14 15:48:49.886417,163
2021-10-14 15:48:49.886425,175
2021-10-14 15:48:49.886434,175
2021-10-14 15:48:49.886442,170
2021-10-14 15:48:49.886450,173
2021-10-14 15:48:49.886458,182
2021-10-14 15:48:49.886467,180
2021-10-14 15:48:49.886475,165
2021-10-14 15:48:49.886483,144
2021-10-14 15:48:49.886492,129
2021-10-14 15:48:49.886500,113
2021-10-14 15:48:49.886508,86
2021-10-14 15:48:49.886517,50
2021-10-14 15:48:49.886525,16
2021-10-14 15:48:49.886533,-4
2021-10-14 15:48:49.886541,-24
2021-10-14 15:48:50.112249,-36
2021-10-14 15:48:50.112269,-38
2021-10-14 15:48:50.112278,-52
2021-10-14 15:48:50.112287,-79
2021-10-14 15:48:50.112295,-86
2021-10-14 15:48:50.112304,-76
2021-10-14 15:48:50.112312,-69
2021-10-14 15:48:50.112320,-72
2021-10-14 15:48:50.112329,-81
2021-10-14 15:48:50.112337,-84
2021-10-14 15:48:50.112345,-72
2021-10-14 15:48:50.112353,-52
2021-10-14 15:48:50.112362,-45
2021-10-14 15:48:50.112370,-38
2021-10-14 15:48:50.112379,-31
2021-10-14 15:48:50.112387,-28
2021-10-14 15:48:50.112395,-28
2021-10-14 15:48:50.112403,-28
2021-10-14 15:48:50.112411,-24
2021-10-14 15:48:50.112420,-19
2021-10-14 15:48:50.112428,-33
2021-10-14 15:48:50.112436,-48
2021-10-14 15:48:50.112444,-36
2021-10-14 15:48:50.112452,-38
2021-10-14 15:48:50.112461,-57
2021-10-14 15:48:50.112469,-64
2021-10-14 15:48:50.112477,-67
2021-10-14 15:48:50.112485,-64
2021-10-14 15:48:50.112494,-52
2021-10-14 15:48:50.112502,-50
2021-10-14 15:48:50.337238,-52
2021-10-14 15:48:50.337258,-50
2021-10-14 15:48:50.337267,-48
2021-10-14 15:48:50.337276,-48
2021-10-14 15:48:50.337285,-48
2021-10-14 15:48:50.337293,-50
2021-10-14 15:48:50.337301,-52
2021-10-14 15:48:50.337309,-48
2021-10-14 15:48:50.337318,-57
2021-10-14 15:48:50.337326,-74
2021-10-14 15:48:50.337334,-62
2021-10-14 15:48:50.337343,-43
2021-10-14 15:48:50.337351,-43
2021-10-14 15:48:50.337359,-43
2021-10-14 15:48:50.337368,-50
2021-10-14 15:48:50.337376,-55
2021-10-14 15:48:50.337384,-48
2021-10-14 15:48:50.337392,-55
2021-10-14 15:48:50.337401,-76
2021-10-14 15:48:50.337409,-88
2021-10-14 15:48:50.337417,-93
2021-10-14 15:48:50.337425,-96
2021-10-14 15:48:50.337434,-96
2021-10-14 15:48:50.337442,-91
2021-10-14 15:48:50.337450,-79
2021-10-14 15:48:50.337458,-69
2021-10-14 15:48:50.337467,-64
2021-10-14 15:48:50.337475,-64
2021-10-14 15:48:50.337483,-57
2021-10-14 15:48:50.337491,19
2021-10-14 15:48:50.562688,266
2021-10-14 15:48:50.562708,630
2021-10-14 15:48:50.562718,649
2021-10-14 15:48:50.562726,-98
2021-10-14 15:48:50.562734,-1002
2021-10-14 15:48:50.562743,-1012
2021-10-14 15:48:50.562751,-432
2021-10-14 15:48:50.562759,-163
2021-10-14 15:48:50.562767,-108
2021-10-14 15:48:50.562776,12
2021-10-14 15:48:50.562784,57
2021-10-14 15:48:50.562792,38
2021-10-14 15:48:50.562800,60
2021-10-14 15:48:50.562808,67
2021-10-14 15:48:50.562817,50
2021-10-14 15:48:50.562825,57
2021-10-14 15:48:50.562833,79
2021-10-14 15:48:50.562841,88
2021-10-14 15:48:50.562849,84
2021-10-14 15:48:50.562858,76
2021-10-14 15:48:50.562866,88
2021-10-14 15:48:50.562874,105
2021-10-14 15:48:50.562882,110
2021-10-14 15:48:50.562890,120
2021-10-14 15:48:50.562899,122
2021-10-14 15:48:50.562907,120
2021-10-14 15:48:50.562915,132
2021-10-14 15:48:50.562923,151
2021-10-14 15:48:50.562931,161
2021-10-14 15:48:50.562940,156
2021-10-14 15:48:50.787343,149
2021-10-14 15:48:50.787364,132
2021-10-14 15:48:50.787373,115
2021-10-14 15:48:50.787382,103
2021-10-14 15:48:50.787390,88
2021-10-14 15:48:50.787399,72
2021-10-14 15:48:50.787407,48
2021-10-14 15:48:50.787415,12
2021-10-14 15:48:50.787424,-19
2021-10-14 15:48:50.787432,-36
2021-10-14 15:48:50.787440,-48
2021-10-14 15:48:50.787449,-64
2021-10-14 15:48:50.787457,-88
2021-10-14 15:48:50.787466,-105
2021-10-14 15:48:50.787474,-110
2021-10-14 15:48:50.787482,-108
2021-10-14 15:48:50.787491,-103
2021-10-14 15:48:50.787499,-101
2021-10-14 15:48:50.787507,-108
2021-10-14 15:48:50.787516,-103
2021-10-14 15:48:50.787524,-84
2021-10-14 15:48:50.787532,-74
2021-10-14 15:48:50.787541,-72
2021-10-14 15:48:50.787549,-60
2021-10-14 15:48:50.787557,-52
2021-10-14 15:48:50.787566,-60
2021-10-14 15:48:50.787574,-64
2021-10-14 15:48:50.787583,-60
2021-10-14 15:48:50.787591,-50
2021-10-14 15:48:50.787599,-43
2021-10-14 15:48:51.057707,-40
2021-10-14 15:48:51.057729,-45
2021-10-14 15:48:51.057738,-48
2021-10-14 15:48:51.057747,-43
2021-10-14 15:48:51.057756,-38
2021-10-14 15:48:51.057764,-40
2021-10-14 15:48:51.057772,-55
2021-10-14 15:48:51.057781,-64
2021-10-14 15:48:51.057789,-57
2021-10-14 15:48:51.057797,-52
2021-10-14 15:48:51.057805,-52
2021-10-14 15:48:51.057813,-50
2021-10-14 15:48:51.057822,-57
2021-10-14 15:48:51.057830,-62
2021-10-14 15:48:51.057838,-55
2021-10-14 15:48:51.057846,-45
2021-10-14 15:48:51.057854,-45
2021-10-14 15:48:51.057863,-43
2021-10-14 15:48:51.057871,-40
2021-10-14 15:48:51.057879,-38
2021-10-14 15:48:51.057887,-38
2021-10-14 15:48:51.057895,-40
2021-10-14 15:48:51.057903,-36
2021-10-14 15:48:51.057911,-33
2021-10-14 15:48:51.057920,-33
2021-10-14 15:48:51.057928,-19
2021-10-14 15:48:51.057936,-9
2021-10-14 15:48:51.057945,-43
2021-10-14 15:48:51.057953,-74
2021-10-14 15:48:51.057961,-72
2021-10-14 15:48:51.281727,-72
2021-10-14 15:48:51.281749,-84
2021-10-14 15:48:51.281758,-79
2021-10-14 15:48:51.281767,-69
2021-10-14 15:48:51.281775,-74
2021-10-14 15:48:51.281784,-88
2021-10-14 15:48:51.281792,-96
2021-10-14 15:48:51.281800,-91
2021-10-14 15:48:51.281808,-74
2021-10-14 15:48:51.281816,38
2021-10-14 15:48:51.281825,358
2021-10-14 15:48:51.281847,685
2021-10-14 15:48:51.281856,461
2021-10-14 15:48:51.281864,-473
2021-10-14 15:48:51.281872,-1171
2021-10-14 15:48:51.281881,-856
2021-10-14 15:48:51.281889,-298
2021-10-14 15:48:51.281897,-173
2021-10-14 15:48:51.281906,-105
2021-10-14 15:48:51.281914,26
2021-10-14 15:48:51.281922,14
2021-10-14 15:48:51.281931,-16
2021-10-14 15:48:51.281939,26
2021-10-14 15:48:51.281947,40
2021-10-14 15:48:51.281955,31
2021-10-14 15:48:51.281964,50
2021-10-14 15:48:51.281972,64
2021-10-14 15:48:51.281980,67
2021-10-14 15:48:51.281988,72
2021-10-14 15:48:51.281997,67
2021-10-14 15:48:51.507703,62
2021-10-14 15:48:51.507725,74
2021-10-14 15:48:51.507734,91
2021-10-14 15:48:51.507743,98
2021-10-14 15:48:51.507751,108
2021-10-14 15:48:51.507760,117
2021-10-14 15:48:51.507768,127
2021-10-14 15:48:51.507776,139
2021-10-14 15:48:51.507785,151
2021-10-14 15:48:51.507793,156
2021-10-14 15:48:51.507801,151
2021-10-14 15:48:51.507810,134
2021-10-14 15:48:51.507818,113
2021-10-14 15:48:51.507826,98
2021-10-14 15:48:51.507835,84
2021-10-14 15:48:51.507843,57
2021-10-14 15:48:51.507851,31
2021-10-14 15:48:51.507860,9
2021-10-14 15:48:51.507868,-7
2021-10-14 15:48:51.507876,-26
2021-10-14 15:48:51.507885,-50
2021-10-14 15:48:51.507893,-69
2021-10-14 15:48:51.507901,-81
2021-10-14 15:48:51.507909,-88
2021-10-14 15:48:51.507917,-91
2021-10-14 15:48:51.507926,-88
2021-10-14 15:48:51.507934,-88
2021-10-14 15:48:51.507942,-88
2021-10-14 15:48:51.507950,-86
2021-10-14 15:48:51.507958,-79
2021-10-14 15:48:51.732745,-64
2021-10-14 15:48:51.732766,-52
2021-10-14 15:48:51.732775,-55
2021-10-14 15:48:51.732784,-72
2021-10-14 15:48:51.732793,-76
2021-10-14 15:48:51.732801,-57
2021-10-14 15:48:51.732809,-43
2021-10-14 15:48:51.732818,-48
2021-10-14 15:48:51.732826,-45
2021-10-14 15:48:51.732834,-43
2021-10-14 15:48:51.732843,-52
2021-10-14 15:48:51.732851,-57
2021-10-14 15:48:51.732859,-48
2021-10-14 15:48:51.732868,-40
2021-10-14 15:48:51.732876,-43
2021-10-14 15:48:51.732884,-52
2021-10-14 15:48:51.732893,-62
2021-10-14 15:48:51.732901,-60
2021-10-14 15:48:51.732909,-48
2021-10-14 15:48:51.732917,-43
2021-10-14 15:48:51.732926,-50
2021-10-14 15:48:51.732934,-57
2021-10-14 15:48:51.732943,-55
2021-10-14 15:48:51.732951,-45
2021-10-14 15:48:51.732959,-36
2021-10-14 15:48:51.732968,-26
2021-10-14 15:48:51.732976,-28
2021-10-14 15:48:51.732984,-38
2021-10-14 15:48:51.732992,-33
2021-10-14 15:48:51.733001,-24
2021-10-14 15:48:52.091388,-21
2021-10-14 15:48:52.091409,-12
2021-10-14 15:48:52.091419,-2
2021-10-14 15:48:52.091427,-7
2021-10-14 15:48:52.091436,-19
2021-10-14 15:48:52.091444,-16
2021-10-14 15:48:52.091453,4
2021-10-14 15:48:52.091461,4
2021-10-14 15:48:52.091469,-33
2021-10-14 15:48:52.091477,-62
2021-10-14 15:48:52.091485,-62
2021-10-14 15:48:52.091494,-52
2021-10-14 15:48:52.091502,-60
2021-10-14 15:48:52.091510,-69
2021-10-14 15:48:52.091518,-67
2021-10-14 15:48:52.091526,-67
2021-10-14 15:48:52.091535,-64
2021-10-14 15:48:52.091543,-50
2021-10-14 15:48:52.091551,-36
2021-10-14 15:48:52.091559,16
2021-10-14 15:48:52.091568,223
2021-10-14 15:48:52.091576,591
2021-10-14 15:48:52.091584,694
2021-10-14 15:48:52.091592,24
2021-10-14 15:48:52.091600,-942
2021-10-14 15:48:52.091609,-1082
2021-10-14 15:48:52.091617,-517
2021-10-14 15:48:52.091625,-187
2021-10-14 15:48:52.091634,-115
2021-10-14 15:48:52.091642,19
2021-10-14 15:48:52.228262,84
2021-10-14 15:48:52.228279,52
2021-10-14 15:48:52.228284,62
2021-10-14 15:48:52.228289,88
2021-10-14 15:48:52.228293,86
2021-10-14 15:48:52.228298,88
2021-10-14 15:48:52.228302,88
2021-10-14 15:48:52.228306,84
2021-10-14 15:48:52.228311,86
2021-10-14 15:48:52.228315,101
2021-10-14 15:48:52.228319,108
2021-10-14 15:48:52.228324,108
2021-10-14 15:48:52.228328,122
2021-10-14 15:48:52.228332,144
2021-10-14 15:48:52.228336,146
2021-10-14 15:48:52.228341,139
2021-10-14 15:48:52.228345,144
2021-10-14 15:48:52.228349,173
2021-10-14 15:48:52.228353,189
2021-10-14 15:48:52.228358,182
2021-10-14 15:48:52.228362,177
2021-10-14 15:48:52.228366,173
2021-10-14 15:48:52.228371,165
2021-10-14 15:48:52.228375,161
2021-10-14 15:48:52.228379,149
2021-10-14 15:48:52.228384,120
2021-10-14 15:48:52.228388,76
2021-10-14 15:48:52.228392,40
2021-10-14 15:48:52.228397,19
2021-10-14 15:48:52.228401,-2
2021-10-14 15:48:52.407781,-28
2021-10-14 15:48:52.407801,-45
2021-10-14 15:48:52.407811,-62
2021-10-14 15:48:52.407819,-81
2021-10-14 15:48:52.407828,-91
2021-10-14 15:48:52.407836,-84
2021-10-14 15:48:52.407845,-84
2021-10-14 15:48:52.407853,-91
2021-10-14 15:48:52.407861,-84
2021-10-14 15:48:52.407870,-72
2021-10-14 15:48:52.407878,-72
2021-10-14 15:48:52.407886,-67
2021-10-14 15:48:52.407894,-55
2021-10-14 15:48:52.407903,-57
2021-10-14 15:48:52.407911,-62
2021-10-14 15:48:52.407920,-52
2021-10-14 15:48:52.407928,-45
2021-10-14 15:48:52.407936,-31
2021-10-14 15:48:52.407945,-21
2021-10-14 15:48:52.407953,-24
2021-10-14 15:48:52.407961,-33
2021-10-14 15:48:52.407970,-26
2021-10-14 15:48:52.407978,-24
2021-10-14 15:48:52.407986,-33
2021-10-14 15:48:52.407995,-33
2021-10-14 15:48:52.408003,-28
2021-10-14 15:48:52.408011,-31
2021-10-14 15:48:52.408020,-24
2021-10-14 15:48:52.408028,-16
2021-10-14 15:48:52.408037,-19
2021-10-14 15:48:52.721776,-16
2021-10-14 15:48:52.721798,-19
2021-10-14 15:48:52.721808,-26
2021-10-14 15:48:52.721816,-28
2021-10-14 15:48:52.721825,-16
2021-10-14 15:48:52.721833,-4
2021-10-14 15:48:52.721841,-14
2021-10-14 15:48:52.721849,-26
2021-10-14 15:48:52.721858,-19
2021-10-14 15:48:52.721866,-9
2021-10-14 15:48:52.721874,-12
2021-10-14 15:48:52.721883,-16
2021-10-14 15:48:52.721891,-7
2021-10-14 15:48:52.721899,-2
2021-10-14 15:48:52.721907,-19
2021-10-14 15:48:52.721916,-45
2021-10-14 15:48:52.721924,-52
2021-10-14 15:48:52.721932,-45
2021-10-14 15:48:52.721941,-40
2021-10-14 15:48:52.721949,-45
2021-10-14 15:48:52.721957,-50
2021-10-14 15:48:52.721966,-50
2021-10-14 15:48:52.721974,-55
2021-10-14 15:48:52.721982,-64
2021-10-14 15:48:52.721991,-57
2021-10-14 15:48:52.721999,-31
2021-10-14 15:48:52.722007,57
2021-10-14 15:48:52.722016,343
2021-10-14 15:48:52.722024,716
2021-10-14 15:48:52.722032,560
2021-10-14 15:48:52.857694,-420
2021-10-14 15:48:52.857715,-1236
2021-10-14 15:48:52.857724,-957
2021-10-14 15:48:52.857733,-346
2021-10-14 15:48:52.857741,-173
2021-10-14 15:48:52.857750,-79
2021-10-14 15:48:52.857758,62
2021-10-14 15:48:52.857767,57
2021-10-14 15:48:52.857775,21
2021-10-14 15:48:52.857783,60
2021-10-14 15:48:52.857792,81
2021-10-14 15:48:52.857800,79
2021-10-14 15:48:52.857808,81
2021-10-14 15:48:52.857817,84
2021-10-14 15:48:52.857825,93
2021-10-14 15:48:52.857833,103
2021-10-14 15:48:52.857841,103
2021-10-14 15:48:52.857850,108
2021-10-14 15:48:52.857858,115
2021-10-14 15:48:52.857867,120
2021-10-14 15:48:52.857875,137
2021-10-14 15:48:52.857883,153
2021-10-14 15:48:52.857892,165
2021-10-14 15:48:52.857900,177
2021-10-14 15:48:52.857908,185
2021-10-14 15:48:52.857916,194
2021-10-14 15:48:52.857925,204
2021-10-14 15:48:52.857933,206
2021-10-14 15:48:52.857941,202
2021-10-14 15:48:52.857949,189
2021-10-14 15:48:53.082380,175
2021-10-14 15:48:53.082414,156
2021-10-14 15:48:53.082424,127
2021-10-14 15:48:53.082432,91
2021-10-14 15:48:53.082441,62
2021-10-14 15:48:53.082449,24
2021-10-14 15:48:53.082458,-24
2021-10-14 15:48:53.082466,-38
2021-10-14 15:48:53.082523,-48
2021-10-14 15:48:53.082532,-69
2021-10-14 15:48:53.082541,-76
2021-10-14 15:48:53.082549,-81
2021-10-14 15:48:53.082557,-93
2021-10-14 15:48:53.082566,-98
2021-10-14 15:48:53.082574,-93
2021-10-14 15:48:53.082583,-88
2021-10-14 15:48:53.082591,-84
2021-10-14 15:48:53.082600,-81
2021-10-14 15:48:53.082608,-76
2021-10-14 15:48:53.082617,-64
2021-10-14 15:48:53.082625,-48
2021-10-14 15:48:53.082633,-43
2021-10-14 15:48:53.082642,-45
2021-10-14 15:48:53.082650,-40
2021-10-14 15:48:53.082659,-26
2021-10-14 15:48:53.082667,-19
2021-10-14 15:48:53.082676,-26
2021-10-14 15:48:53.082684,-33
2021-10-14 15:48:53.082693,-31
2021-10-14 15:48:53.082701,-33
2021-10-14 15:48:53.396753,-43
2021-10-14 15:48:53.396777,-38
2021-10-14 15:48:53.396786,-31
2021-10-14 15:48:53.396797,-28
2021-10-14 15:48:53.396809,-28
2021-10-14 15:48:53.396820,-38
2021-10-14 15:48:53.396831,-43
2021-10-14 15:48:53.396842,-33
2021-10-14 15:48:53.396854,-28
2021-10-14 15:48:53.396862,-36
2021-10-14 15:48:53.396869,-40
2021-10-14 15:48:53.396876,-43
2021-10-14 15:48:53.396885,-40
2021-10-14 15:48:53.396892,-33
2021-10-14 15:48:53.396900,-31
2021-10-14 15:48:53.396907,-28
2021-10-14 15:48:53.396915,-21
2021-10-14 15:48:53.396923,-7
2021-10-14 15:48:53.396931,16
2021-10-14 15:48:53.396940,14
2021-10-14 15:48:53.396948,-21
2021-10-14 15:48:53.396956,-40
2021-10-14 15:48:53.396964,-36
2021-10-14 15:48:53.396973,-31
2021-10-14 15:48:53.396981,-28
2021-10-14 15:48:53.396990,-24
2021-10-14 15:48:53.396998,-14
2021-10-14 15:48:53.397006,-9
2021-10-14 15:48:53.397015,-7
2021-10-14 15:48:53.397023,0
2021-10-14 15:48:53.532790,9
2021-10-14 15:48:53.532811,40
2021-10-14 15:48:53.532818,211
2021-10-14 15:48:53.532825,589
2021-10-14 15:48:53.532832,800
2021-10-14 15:48:53.532838,221
2021-10-14 15:48:53.532845,-853
2021-10-14 15:48:53.532852,-1199
2021-10-14 15:48:53.532859,-632
2021-10-14 15:48:53.532866,-197
2021-10-14 15:48:53.532873,-122
2021-10-14 15:48:53.532880,9
2021-10-14 15:48:53.532886,101
2021-10-14 15:48:53.532893,60
2021-10-14 15:48:53.532900,62
2021-10-14 15:48:53.532907,93
2021-10-14 15:48:53.532915,76
2021-10-14 15:48:53.532923,72
2021-10-14 15:48:53.532931,81
2021-10-14 15:48:53.532938,79
2021-10-14 15:48:53.532944,76
2021-10-14 15:48:53.532951,81
2021-10-14 15:48:53.532958,88
2021-10-14 15:48:53.532967,105
2021-10-14 15:48:53.532974,115
2021-10-14 15:48:53.532980,120
2021-10-14 15:48:53.532987,132
2021-10-14 15:48:53.532994,144
2021-10-14 15:48:53.533000,156
2021-10-14 15:48:53.533007,170
2021-10-14 15:48:53.802744,182
2021-10-14 15:48:53.802773,187
2021-10-14 15:48:53.802782,182
2021-10-14 15:48:53.802791,161
2021-10-14 15:48:53.802799,137
2021-10-14 15:48:53.802807,127
2021-10-14 15:48:53.802816,113
2021-10-14 15:48:53.802824,88
2021-10-14 15:48:53.802833,62
2021-10-14 15:48:53.802841,19
2021-10-14 15:48:53.802849,-19
2021-10-14 15:48:53.802858,-38
2021-10-14 15:48:53.802866,-55
2021-10-14 15:48:53.802874,-72
2021-10-14 15:48:53.802883,-88
2021-10-14 15:48:53.802891,-108
2021-10-14 15:48:53.802899,-113
2021-10-14 15:48:53.802907,-101
2021-10-14 15:48:53.802916,-101
2021-10-14 15:48:53.802924,-110
2021-10-14 15:48:53.802932,-115
2021-10-14 15:48:53.802941,-110
2021-10-14 15:48:53.802949,-103
2021-10-14 15:48:53.802957,-91
2021-10-14 15:48:53.802965,-76
2021-10-14 15:48:53.802974,-69
2021-10-14 15:48:53.802982,-69
2021-10-14 15:48:53.802990,-64
2021-10-14 15:48:53.802998,-45
2021-10-14 15:48:53.803007,-31
2021-10-14 15:48:54.116437,-28
2021-10-14 15:48:54.116471,-33
2021-10-14 15:48:54.116481,-38
2021-10-14 15:48:54.116489,-40
2021-10-14 15:48:54.116522,-38
2021-10-14 15:48:54.116535,-33
2021-10-14 15:48:54.116544,-31
2021-10-14 15:48:54.116553,-33
2021-10-14 15:48:54.116561,-45
2021-10-14 15:48:54.116570,-50
2021-10-14 15:48:54.116578,-43
2021-10-14 15:48:54.116586,-38
2021-10-14 15:48:54.116594,-36
2021-10-14 15:48:54.116603,-36
2021-10-14 15:48:54.116611,-50
2021-10-14 15:48:54.116619,-64
2021-10-14 15:48:54.116628,-50
2021-10-14 15:48:54.116636,-31
2021-10-14 15:48:54.116644,-38
