Time,ECG
2021-10-14 15:53:25.695677,-98
2021-10-14 15:53:25.695700,-103
2021-10-14 15:53:25.695709,-101
2021-10-14 15:53:25.695718,-105
2021-10-14 15:53:25.695727,-101
2021-10-14 15:53:25.695736,-86
2021-10-14 15:53:25.695744,-86
2021-10-14 15:53:25.695753,-91
2021-10-14 15:53:25.695761,-81
2021-10-14 15:53:25.695770,-76
2021-10-14 15:53:25.695778,-76
2021-10-14 15:53:25.695787,-74
2021-10-14 15:53:25.695795,-79
2021-10-14 15:53:25.695803,-81
2021-10-14 15:53:25.695812,-72
2021-10-14 15:53:25.695819,-62
2021-10-14 15:53:25.695827,-64
2021-10-14 15:53:25.695836,-72
2021-10-14 15:53:25.695844,-72
2021-10-14 15:53:25.695852,-67
2021-10-14 15:53:25.695861,-69
2021-10-14 15:53:25.695869,-84
2021-10-14 15:53:25.695878,-76
2021-10-14 15:53:25.695886,-69
2021-10-14 15:53:25.695894,-81
2021-10-14 15:53:25.695903,-84
2021-10-14 15:53:25.695912,-62
2021-10-14 15:53:25.695920,-62
2021-10-14 15:53:25.695929,-79
2021-10-14 15:53:25.695937,-76
2021-10-14 15:53:25.874687,-62
2021-10-14 15:53:25.874713,-60
2021-10-14 15:53:25.874723,-69
2021-10-14 15:53:25.874732,-72
2021-10-14 15:53:25.874740,-62
2021-10-14 15:53:25.874749,-52
2021-10-14 15:53:25.874758,-55
2021-10-14 15:53:25.874767,-50
2021-10-14 15:53:25.874775,-33
2021-10-14 15:53:25.874783,-40
2021-10-14 15:53:25.874792,-69
2021-10-14 15:53:25.874800,-81
2021-10-14 15:53:25.874808,-72
2021-10-14 15:53:25.874817,-62
2021-10-14 15:53:25.874825,-60
2021-10-14 15:53:25.874833,-50
2021-10-14 15:53:25.874842,-48
2021-10-14 15:53:25.874851,-60
2021-10-14 15:53:25.874859,-55
2021-10-14 15:53:25.874867,-40
2021-10-14 15:53:25.874876,-31
2021-10-14 15:53:25.874884,7
2021-10-14 15:53:25.874892,182
2021-10-14 15:53:25.874901,536
2021-10-14 15:53:25.874909,711
2021-10-14 15:53:25.874917,151
2021-10-14 15:53:25.874926,-815
2021-10-14 15:53:25.874934,-1031
2021-10-14 15:53:25.874942,-480
2021-10-14 15:53:25.874952,-146
2021-10-14 15:53:26.011313,-115
2021-10-14 15:53:26.011332,-16
2021-10-14 15:53:26.011341,48
2021-10-14 15:53:26.011350,19
2021-10-14 15:53:26.011358,24
2021-10-14 15:53:26.011367,38
2021-10-14 15:53:26.011375,21
2021-10-14 15:53:26.011383,24
2021-10-14 15:53:26.011391,45
2021-10-14 15:53:26.011400,57
2021-10-14 15:53:26.011408,55
2021-10-14 15:53:26.011416,55
2021-10-14 15:53:26.011425,72
2021-10-14 15:53:26.011437,86
2021-10-14 15:53:26.011445,91
2021-10-14 15:53:26.011454,93
2021-10-14 15:53:26.011462,93
2021-10-14 15:53:26.011470,101
2021-10-14 15:53:26.011479,125
2021-10-14 15:53:26.011487,139
2021-10-14 15:53:26.011495,141
2021-10-14 15:53:26.011504,144
2021-10-14 15:53:26.011512,141
2021-10-14 15:53:26.011520,137
2021-10-14 15:53:26.011529,132
2021-10-14 15:53:26.011537,117
2021-10-14 15:53:26.011546,91
2021-10-14 15:53:26.011554,57
2021-10-14 15:53:26.011562,24
2021-10-14 15:53:26.011572,-2
2021-10-14 15:53:26.325936,-19
2021-10-14 15:53:26.325957,-40
2021-10-14 15:53:26.325965,-69
2021-10-14 15:53:26.325973,-86
2021-10-14 15:53:26.325981,-96
2021-10-14 15:53:26.325988,-105
2021-10-14 15:53:26.325996,-101
2021-10-14 15:53:26.326003,-103
2021-10-14 15:53:26.326011,-120
2021-10-14 15:53:26.326019,-127
2021-10-14 15:53:26.326026,-125
2021-10-14 15:53:26.326034,-122
2021-10-14 15:53:26.326041,-120
2021-10-14 15:53:26.326049,-101
2021-10-14 15:53:26.326057,-93
2021-10-14 15:53:26.326064,-101
2021-10-14 15:53:26.326072,-93
2021-10-14 15:53:26.326081,-76
2021-10-14 15:53:26.326089,-69
2021-10-14 15:53:26.326097,-64
2021-10-14 15:53:26.326105,-62
2021-10-14 15:53:26.326112,-69
2021-10-14 15:53:26.326120,-67
2021-10-14 15:53:26.326128,-52
2021-10-14 15:53:26.326135,-40
2021-10-14 15:53:26.326143,-40
2021-10-14 15:53:26.326151,-52
2021-10-14 15:53:26.326158,-62
2021-10-14 15:53:26.326166,-52
2021-10-14 15:53:26.326174,-40
2021-10-14 15:53:26.505939,-45
2021-10-14 15:53:26.505959,-55
2021-10-14 15:53:26.505969,-45
2021-10-14 15:53:26.505977,-33
2021-10-14 15:53:26.505986,-45
2021-10-14 15:53:26.505994,-60
2021-10-14 15:53:26.506003,-69
2021-10-14 15:53:26.506016,-74
2021-10-14 15:53:26.506025,-74
2021-10-14 15:53:26.506033,-74
2021-10-14 15:53:26.506041,-81
2021-10-14 15:53:26.506050,-72
2021-10-14 15:53:26.506058,-48
2021-10-14 15:53:26.506066,-45
2021-10-14 15:53:26.506075,-55
2021-10-14 15:53:26.506083,-60
2021-10-14 15:53:26.506091,-79
2021-10-14 15:53:26.506100,-101
2021-10-14 15:53:26.506108,-105
2021-10-14 15:53:26.506116,-108
2021-10-14 15:53:26.506125,-105
2021-10-14 15:53:26.506133,-105
2021-10-14 15:53:26.506141,-110
2021-10-14 15:53:26.506149,-108
2021-10-14 15:53:26.506158,-91
2021-10-14 15:53:26.506166,-74
2021-10-14 15:53:26.506174,-74
2021-10-14 15:53:26.506182,-79
2021-10-14 15:53:26.506191,-62
2021-10-14 15:53:26.506200,76
2021-10-14 15:53:26.776328,428
2021-10-14 15:53:26.776349,711
2021-10-14 15:53:26.776358,317
2021-10-14 15:53:26.776369,-663
2021-10-14 15:53:26.776377,-1106
2021-10-14 15:53:26.776385,-622
2021-10-14 15:53:26.776392,-180
2021-10-14 15:53:26.776400,-125
2021-10-14 15:53:26.776407,-50
2021-10-14 15:53:26.776415,24
2021-10-14 15:53:26.776423,9
2021-10-14 15:53:26.776430,14
2021-10-14 15:53:26.776438,33
2021-10-14 15:53:26.776445,24
2021-10-14 15:53:26.776453,16
2021-10-14 15:53:26.776460,21
2021-10-14 15:53:26.776468,36
2021-10-14 15:53:26.776476,52
2021-10-14 15:53:26.776484,52
2021-10-14 15:53:26.776491,45
2021-10-14 15:53:26.776499,62
2021-10-14 15:53:26.776506,84
2021-10-14 15:53:26.776523,93
2021-10-14 15:53:26.776534,103
2021-10-14 15:53:26.776546,115
2021-10-14 15:53:26.776555,120
2021-10-14 15:53:26.776563,129
2021-10-14 15:53:26.776571,141
2021-10-14 15:53:26.776580,146
2021-10-14 15:53:26.776588,144
2021-10-14 15:53:27.000985,144
2021-10-14 15:53:27.001006,134
2021-10-14 15:53:27.001016,108
2021-10-14 15:53:27.001024,84
2021-10-14 15:53:27.001033,69
2021-10-14 15:53:27.001041,52
2021-10-14 15:53:27.001050,21
2021-10-14 15:53:27.001058,-19
2021-10-14 15:53:27.001066,-57
2021-10-14 15:53:27.001075,-72
2021-10-14 15:53:27.001083,-76
2021-10-14 15:53:27.001091,-93
2021-10-14 15:53:27.001100,-113
2021-10-14 15:53:27.001108,-115
2021-10-14 15:53:27.001116,-115
2021-10-14 15:53:27.001124,-117
2021-10-14 15:53:27.001133,-113
2021-10-14 15:53:27.001141,-113
2021-10-14 15:53:27.001149,-113
2021-10-14 15:53:27.001158,-113
2021-10-14 15:53:27.001166,-110
2021-10-14 15:53:27.001175,-105
2021-10-14 15:53:27.001185,-93
2021-10-14 15:53:27.001193,-74
2021-10-14 15:53:27.001201,-64
2021-10-14 15:53:27.001210,-67
2021-10-14 15:53:27.001218,-67
2021-10-14 15:53:27.001226,-62
2021-10-14 15:53:27.001234,-52
2021-10-14 15:53:27.001243,-38
2021-10-14 15:53:27.180973,-33
2021-10-14 15:53:27.180995,-36
2021-10-14 15:53:27.181005,-38
2021-10-14 15:53:27.181013,-43
2021-10-14 15:53:27.181021,-43
2021-10-14 15:53:27.181030,-33
2021-10-14 15:53:27.181038,-38
2021-10-14 15:53:27.181047,-50
2021-10-14 15:53:27.181055,-43
2021-10-14 15:53:27.181063,-38
2021-10-14 15:53:27.181072,-50
2021-10-14 15:53:27.181080,-45
2021-10-14 15:53:27.181088,-33
2021-10-14 15:53:27.181097,-40
2021-10-14 15:53:27.181105,-43
2021-10-14 15:53:27.181113,-38
2021-10-14 15:53:27.181122,-48
2021-10-14 15:53:27.181130,-52
2021-10-14 15:53:27.181138,-45
2021-10-14 15:53:27.181146,-57
2021-10-14 15:53:27.181155,-69
2021-10-14 15:53:27.181163,-60
2021-10-14 15:53:27.181171,-50
2021-10-14 15:53:27.181180,-33
2021-10-14 15:53:27.181194,-28
2021-10-14 15:53:27.181202,-36
2021-10-14 15:53:27.181210,-31
2021-10-14 15:53:27.181218,-26
2021-10-14 15:53:27.181227,-21
2021-10-14 15:53:27.181235,-12
2021-10-14 15:53:27.451344,-9
2021-10-14 15:53:27.451364,-12
2021-10-14 15:53:27.451374,-14
2021-10-14 15:53:27.451383,-28
2021-10-14 15:53:27.451391,-43
2021-10-14 15:53:27.451400,-52
2021-10-14 15:53:27.451409,-62
2021-10-14 15:53:27.451417,-64
2021-10-14 15:53:27.451425,-67
2021-10-14 15:53:27.451434,-74
2021-10-14 15:53:27.451442,-67
2021-10-14 15:53:27.451450,-64
2021-10-14 15:53:27.451459,-69
2021-10-14 15:53:27.451467,-60
2021-10-14 15:53:27.451475,-31
2021-10-14 15:53:27.451484,81
2021-10-14 15:53:27.451492,391
2021-10-14 15:53:27.451500,675
2021-10-14 15:53:27.451508,360
2021-10-14 15:53:27.451517,-545
2021-10-14 15:53:27.451525,-1038
2021-10-14 15:53:27.451534,-642
2021-10-14 15:53:27.451542,-197
2021-10-14 15:53:27.451550,-125
2021-10-14 15:53:27.451558,-57
2021-10-14 15:53:27.451567,33
2021-10-14 15:53:27.451575,19
2021-10-14 15:53:27.451584,12
2021-10-14 15:53:27.451592,48
2021-10-14 15:53:27.451601,55
2021-10-14 15:53:27.631351,50
2021-10-14 15:53:27.631373,69
2021-10-14 15:53:27.631382,76
2021-10-14 15:53:27.631391,67
2021-10-14 15:53:27.631399,76
2021-10-14 15:53:27.631408,93
2021-10-14 15:53:27.631416,98
2021-10-14 15:53:27.631425,103
2021-10-14 15:53:27.631433,113
2021-10-14 15:53:27.631442,120
2021-10-14 15:53:27.631450,132
2021-10-14 15:53:27.631459,144
2021-10-14 15:53:27.631467,144
2021-10-14 15:53:27.631475,144
2021-10-14 15:53:27.631484,153
2021-10-14 15:53:27.631492,158
2021-10-14 15:53:27.631500,156
2021-10-14 15:53:27.631509,144
2021-10-14 15:53:27.631517,117
2021-10-14 15:53:27.631525,98
2021-10-14 15:53:27.631534,74
2021-10-14 15:53:27.631542,43
2021-10-14 15:53:27.631551,31
2021-10-14 15:53:27.631559,9
2021-10-14 15:53:27.631568,-24
2021-10-14 15:53:27.631577,-36
2021-10-14 15:53:27.631585,-45
2021-10-14 15:53:27.631593,-62
2021-10-14 15:53:27.631602,-72
2021-10-14 15:53:27.631610,-86
2021-10-14 15:53:27.990737,-93
2021-10-14 15:53:27.990759,-81
2021-10-14 15:53:27.990768,-72
2021-10-14 15:53:27.990776,-76
2021-10-14 15:53:27.990792,-74
2021-10-14 15:53:27.990799,-69
2021-10-14 15:53:27.990807,-76
2021-10-14 15:53:27.990815,-79
2021-10-14 15:53:27.990823,-64
2021-10-14 15:53:27.990830,-48
2021-10-14 15:53:27.990841,-48
2021-10-14 15:53:27.990848,-52
2021-10-14 15:53:27.990856,-48
2021-10-14 15:53:27.990864,-33
2021-10-14 15:53:27.990871,-24
2021-10-14 15:53:27.990879,-24
2021-10-14 15:53:27.990886,-26
2021-10-14 15:53:27.990894,-31
2021-10-14 15:53:27.990901,-24
2021-10-14 15:53:27.990909,-4
2021-10-14 15:53:27.990918,-12
2021-10-14 15:53:27.990925,-33
2021-10-14 15:53:27.990933,-28
2021-10-14 15:53:27.990941,-21
2021-10-14 15:53:27.990949,-33
2021-10-14 15:53:27.990956,-48
2021-10-14 15:53:27.990964,-45
2021-10-14 15:53:27.990972,-38
2021-10-14 15:53:27.990980,-33
2021-10-14 15:53:27.990987,-26
2021-10-14 15:53:28.261483,-24
2021-10-14 15:53:28.261505,-28
2021-10-14 15:53:28.261515,-28
2021-10-14 15:53:28.261523,-26
2021-10-14 15:53:28.261532,-31
2021-10-14 15:53:28.261540,-21
2021-10-14 15:53:28.261549,-12
2021-10-14 15:53:28.261557,-9
2021-10-14 15:53:28.261565,-12
2021-10-14 15:53:28.261574,-9
2021-10-14 15:53:28.261582,-4
2021-10-14 15:53:28.261591,-2
2021-10-14 15:53:28.261599,-12
2021-10-14 15:53:28.261608,-2
2021-10-14 15:53:28.261616,24
2021-10-14 15:53:28.261624,28
2021-10-14 15:53:28.261633,24
2021-10-14 15:53:28.261641,28
2021-10-14 15:53:28.261649,4
2021-10-14 15:53:28.261658,-26
2021-10-14 15:53:28.261666,-31
2021-10-14 15:53:28.261674,-31
2021-10-14 15:53:28.261682,-26
2021-10-14 15:53:28.261691,-12
2021-10-14 15:53:28.261699,-21
2021-10-14 15:53:28.261710,-43
2021-10-14 15:53:28.261719,-48
2021-10-14 15:53:28.261727,-52
2021-10-14 15:53:28.261735,-55
2021-10-14 15:53:28.261744,-31
2021-10-14 15:53:28.396350,33
2021-10-14 15:53:28.396370,242
2021-10-14 15:53:28.396380,598
2021-10-14 15:53:28.396389,663
2021-10-14 15:53:28.396397,-38
2021-10-14 15:53:28.396406,-916
2021-10-14 15:53:28.396414,-921
2021-10-14 15:53:28.396422,-391
2021-10-14 15:53:28.396430,-173
2021-10-14 15:53:28.396439,-110
2021-10-14 15:53:28.396447,33
2021-10-14 15:53:28.396455,76
2021-10-14 15:53:28.396463,57
2021-10-14 15:53:28.396472,91
2021-10-14 15:53:28.396480,103
2021-10-14 15:53:28.396488,79
2021-10-14 15:53:28.396497,84
2021-10-14 15:53:28.396505,103
2021-10-14 15:53:28.396513,96
2021-10-14 15:53:28.396522,98
2021-10-14 15:53:28.396530,153
2021-10-14 15:53:28.396539,192
2021-10-14 15:53:28.396547,165
2021-10-14 15:53:28.396556,132
2021-10-14 15:53:28.396564,137
2021-10-14 15:53:28.396572,170
2021-10-14 15:53:28.396581,202
2021-10-14 15:53:28.396589,206
2021-10-14 15:53:28.396598,199
2021-10-14 15:53:28.396606,202
2021-10-14 15:53:28.621365,204
2021-10-14 15:53:28.621386,211
2021-10-14 15:53:28.621395,194
2021-10-14 15:53:28.621404,139
2021-10-14 15:53:28.621412,115
2021-10-14 15:53:28.621421,132
2021-10-14 15:53:28.621429,125
2021-10-14 15:53:28.621438,93
2021-10-14 15:53:28.621446,62
2021-10-14 15:53:28.621454,26
2021-10-14 15:53:28.621463,4
2021-10-14 15:53:28.621471,14
2021-10-14 15:53:28.621479,19
2021-10-14 15:53:28.621488,2
2021-10-14 15:53:28.621496,4
2021-10-14 15:53:28.621504,2
2021-10-14 15:53:28.621517,-12
2021-10-14 15:53:28.621526,2
2021-10-14 15:53:28.621534,24
2021-10-14 15:53:28.621542,21
2021-10-14 15:53:28.621551,19
2021-10-14 15:53:28.621559,21
2021-10-14 15:53:28.621567,38
2021-10-14 15:53:28.621575,50
2021-10-14 15:53:28.621583,48
2021-10-14 15:53:28.621592,62
2021-10-14 15:53:28.621600,81
2021-10-14 15:53:28.621608,79
2021-10-14 15:53:28.621617,81
2021-10-14 15:53:28.621625,108
2021-10-14 15:53:28.801366,117
2021-10-14 15:53:28.801387,93
2021-10-14 15:53:28.801397,81
2021-10-14 15:53:28.801406,91
2021-10-14 15:53:28.801415,93
2021-10-14 15:53:28.801423,103
2021-10-14 15:53:28.801432,120
2021-10-14 15:53:28.801440,110
2021-10-14 15:53:28.801448,86
2021-10-14 15:53:28.801457,84
2021-10-14 15:53:28.801465,98
2021-10-14 15:53:28.801474,101
2021-10-14 15:53:28.801482,113
2021-10-14 15:53:28.801490,137
2021-10-14 15:53:28.801499,115
2021-10-14 15:53:28.801507,79
2021-10-14 15:53:28.801516,108
2021-10-14 15:53:28.801524,146
2021-10-14 15:53:28.801533,144
2021-10-14 15:53:28.801541,127
2021-10-14 15:53:28.801549,122
2021-10-14 15:53:28.801558,120
2021-10-14 15:53:28.801566,117
2021-10-14 15:53:28.801575,132
2021-10-14 15:53:28.801583,144
2021-10-14 15:53:28.801592,134
2021-10-14 15:53:28.801600,137
2021-10-14 15:53:28.801608,158
2021-10-14 15:53:28.801616,158
2021-10-14 15:53:28.801625,158
2021-10-14 15:53:29.026043,168
2021-10-14 15:53:29.026064,168
2021-10-14 15:53:29.026073,165
2021-10-14 15:53:29.026082,175
2021-10-14 15:53:29.026090,170
2021-10-14 15:53:29.026098,139
2021-10-14 15:53:29.026107,108
2021-10-14 15:53:29.026115,103
2021-10-14 15:53:29.026123,101
2021-10-14 15:53:29.026132,96
2021-10-14 15:53:29.026140,98
2021-10-14 15:53:29.026148,103
2021-10-14 15:53:29.026157,115
2021-10-14 15:53:29.026169,117
2021-10-14 15:53:29.026178,101
2021-10-14 15:53:29.026186,110
2021-10-14 15:53:29.026194,153
2021-10-14 15:53:29.026203,245
2021-10-14 15:53:29.026211,483
2021-10-14 15:53:29.026219,759
2021-10-14 15:53:29.026227,591
2021-10-14 15:53:29.026236,-168
2021-10-14 15:53:29.026244,-702
2021-10-14 15:53:29.026252,-464
2021-10-14 15:53:29.026260,-88
2021-10-14 15:53:29.026269,24
2021-10-14 15:53:29.026277,110
2021-10-14 15:53:29.026285,187
2021-10-14 15:53:29.026294,187
2021-10-14 15:53:29.026302,202
2021-10-14 15:53:29.296379,228
2021-10-14 15:53:29.296401,218
2021-10-14 15:53:29.296411,214
2021-10-14 15:53:29.296419,216
2021-10-14 15:53:29.296428,211
2021-10-14 15:53:29.296436,226
2021-10-14 15:53:29.296444,242
2021-10-14 15:53:29.296453,250
2021-10-14 15:53:29.296461,262
2021-10-14 15:53:29.296469,262
2021-10-14 15:53:29.296478,259
2021-10-14 15:53:29.296486,283
2021-10-14 15:53:29.296495,305
2021-10-14 15:53:29.296503,300
2021-10-14 15:53:29.296511,293
2021-10-14 15:53:29.296520,298
2021-10-14 15:53:29.296528,305
2021-10-14 15:53:29.296536,298
2021-10-14 15:53:29.296545,283
2021-10-14 15:53:29.296553,274
2021-10-14 15:53:29.296561,257
2021-10-14 15:53:29.296570,230
2021-10-14 15:53:29.296578,209
2021-10-14 15:53:29.296586,194
2021-10-14 15:53:29.296595,189
2021-10-14 15:53:29.296603,161
2021-10-14 15:53:29.296611,117
2021-10-14 15:53:29.296620,110
2021-10-14 15:53:29.296628,108
2021-10-14 15:53:29.296636,84
2021-10-14 15:53:29.476357,69
2021-10-14 15:53:29.476378,74
2021-10-14 15:53:29.476388,84
2021-10-14 15:53:29.476396,76
2021-10-14 15:53:29.476405,57
2021-10-14 15:53:29.476413,38
2021-10-14 15:53:29.476421,31
2021-10-14 15:53:29.476430,40
2021-10-14 15:53:29.476438,55
2021-10-14 15:53:29.476446,60
2021-10-14 15:53:29.476454,60
2021-10-14 15:53:29.476463,55
2021-10-14 15:53:29.476471,43
2021-10-14 15:53:29.476479,45
2021-10-14 15:53:29.476488,57
2021-10-14 15:53:29.476496,57
2021-10-14 15:53:29.476504,50
2021-10-14 15:53:29.476515,50
2021-10-14 15:53:29.476523,52
2021-10-14 15:53:29.476532,52
2021-10-14 15:53:29.476540,52
2021-10-14 15:53:29.476549,50
2021-10-14 15:53:29.476557,45
2021-10-14 15:53:29.476565,40
2021-10-14 15:53:29.476573,28
2021-10-14 15:53:29.476582,24
2021-10-14 15:53:29.476590,43
2021-10-14 15:53:29.476598,55
2021-10-14 15:53:29.476606,45
2021-10-14 15:53:29.476614,43
2021-10-14 15:53:29.790451,48
2021-10-14 15:53:29.790473,48
2021-10-14 15:53:29.790482,48
2021-10-14 15:53:29.790491,45
2021-10-14 15:53:29.790500,33
2021-10-14 15:53:29.790508,28
2021-10-14 15:53:29.790517,28
2021-10-14 15:53:29.790525,24
2021-10-14 15:53:29.790534,16
2021-10-14 15:53:29.790542,16
2021-10-14 15:53:29.790551,12
2021-10-14 15:53:29.790559,7
2021-10-14 15:53:29.790568,4
2021-10-14 15:53:29.790576,4
2021-10-14 15:53:29.790585,-4
2021-10-14 15:53:29.790593,-12
2021-10-14 15:53:29.790601,-16
2021-10-14 15:53:29.790610,-14
2021-10-14 15:53:29.790618,-2
2021-10-14 15:53:29.790627,-9
2021-10-14 15:53:29.790635,-36
2021-10-14 15:53:29.790643,-28
2021-10-14 15:53:29.790652,-7
2021-10-14 15:53:29.790660,-12
2021-10-14 15:53:29.790668,-9
2021-10-14 15:53:29.790677,-7
2021-10-14 15:53:29.790685,-33
2021-10-14 15:53:29.790694,-52
2021-10-14 15:53:29.790702,-36
2021-10-14 15:53:29.790710,-31
2021-10-14 15:53:29.970315,-43
2021-10-14 15:53:29.970336,-36
2021-10-14 15:53:29.970345,-21
2021-10-14 15:53:29.970354,-24
2021-10-14 15:53:29.970362,-26
2021-10-14 15:53:29.970371,-21
2021-10-14 15:53:29.970379,-12
2021-10-14 15:53:29.970387,-2
2021-10-14 15:53:29.970396,62
2021-10-14 15:53:29.970404,310
2021-10-14 15:53:29.970412,658
2021-10-14 15:53:29.970421,618
2021-10-14 15:53:29.970429,-144
2021-10-14 15:53:29.970437,-928
2021-10-14 15:53:29.970446,-795
2021-10-14 15:53:29.970454,-240
2021-10-14 15:53:29.970462,-79
2021-10-14 15:53:29.970471,-62
2021-10-14 15:53:29.970479,43
2021-10-14 15:53:29.970487,64
2021-10-14 15:53:29.970495,31
2021-10-14 15:53:29.970504,50
2021-10-14 15:53:29.970512,64
2021-10-14 15:53:29.970520,67
2021-10-14 15:53:29.970529,84
2021-10-14 15:53:29.970537,98
2021-10-14 15:53:29.970545,101
2021-10-14 15:53:29.970553,98
2021-10-14 15:53:29.970562,96
2021-10-14 15:53:29.970575,101
2021-10-14 15:53:30.151351,122
2021-10-14 15:53:30.151371,137
2021-10-14 15:53:30.151381,141
2021-10-14 15:53:30.151389,144
2021-10-14 15:53:30.151398,144
2021-10-14 15:53:30.151406,158
2021-10-14 15:53:30.151414,189
2021-10-14 15:53:30.151422,216
2021-10-14 15:53:30.151430,218
2021-10-14 15:53:30.151439,175
2021-10-14 15:53:30.151447,125
2021-10-14 15:53:30.151455,108
2021-10-14 15:53:30.151463,108
2021-10-14 15:53:30.151471,98
2021-10-14 15:53:30.151479,84
2021-10-14 15:53:30.151488,50
2021-10-14 15:53:30.151496,16
2021-10-14 15:53:30.151504,2
2021-10-14 15:53:30.151512,-16
2021-10-14 15:53:30.151520,-36
2021-10-14 15:53:30.151529,-48
2021-10-14 15:53:30.151537,-57
2021-10-14 15:53:30.151545,-60
2021-10-14 15:53:30.151553,-60
2021-10-14 15:53:30.151561,-69
2021-10-14 15:53:30.151569,-62
2021-10-14 15:53:30.151578,-50
2021-10-14 15:53:30.151586,-55
2021-10-14 15:53:30.151594,-64
2021-10-14 15:53:30.151602,-60
2021-10-14 15:53:30.421011,-52
2021-10-14 15:53:30.421032,-45
2021-10-14 15:53:30.421041,-43
2021-10-14 15:53:30.421050,-50
2021-10-14 15:53:30.421058,-55
2021-10-14 15:53:30.421067,-45
2021-10-14 15:53:30.421075,-36
2021-10-14 15:53:30.421084,-31
2021-10-14 15:53:30.421092,-28
2021-10-14 15:53:30.421100,-28
2021-10-14 15:53:30.421109,-38
2021-10-14 15:53:30.421117,-57
2021-10-14 15:53:30.421125,-76
2021-10-14 15:53:30.421134,-86
2021-10-14 15:53:30.421142,-79
2021-10-14 15:53:30.421150,-57
2021-10-14 15:53:30.421159,-36
2021-10-14 15:53:30.421167,-43
2021-10-14 15:53:30.421175,-62
2021-10-14 15:53:30.421183,-62
2021-10-14 15:53:30.421192,-60
2021-10-14 15:53:30.421200,-72
2021-10-14 15:53:30.421208,-72
2021-10-14 15:53:30.421216,-76
2021-10-14 15:53:30.421225,-88
2021-10-14 15:53:30.421233,-88
2021-10-14 15:53:30.421241,-86
2021-10-14 15:53:30.421249,-88
2021-10-14 15:53:30.421257,-84
2021-10-14 15:53:30.421266,-79
2021-10-14 15:53:30.646378,-84
2021-10-14 15:53:30.646399,-86
2021-10-14 15:53:30.646408,-79
2021-10-14 15:53:30.646417,-67
2021-10-14 15:53:30.646425,-62
2021-10-14 15:53:30.646434,-67
2021-10-14 15:53:30.646442,-64
2021-10-14 15:53:30.646450,-69
2021-10-14 15:53:30.646458,-84
2021-10-14 15:53:30.646467,-81
2021-10-14 15:53:30.646475,-67
2021-10-14 15:53:30.646483,-74
2021-10-14 15:53:30.646492,-79
2021-10-14 15:53:30.646500,-72
2021-10-14 15:53:30.646508,-74
2021-10-14 15:53:30.646517,-74
2021-10-14 15:53:30.646525,-67
2021-10-14 15:53:30.646533,-55
2021-10-14 15:53:30.646541,-43
2021-10-14 15:53:30.646550,-62
2021-10-14 15:53:30.646563,-91
2021-10-14 15:53:30.646571,-88
2021-10-14 15:53:30.646580,-74
2021-10-14 15:53:30.646588,-79
2021-10-14 15:53:30.646596,-81
2021-10-14 15:53:30.646605,-79
2021-10-14 15:53:30.646613,-81
2021-10-14 15:53:30.646622,-81
2021-10-14 15:53:30.646630,-64
2021-10-14 15:53:30.646638,-48
2021-10-14 15:53:30.871032,-55
2021-10-14 15:53:30.871053,-74
2021-10-14 15:53:30.871062,-12
2021-10-14 15:53:30.871071,262
2021-10-14 15:53:30.871079,634
2021-10-14 15:53:30.871088,618
2021-10-14 15:53:30.871096,-134
2021-10-14 15:53:30.871104,-930
2021-10-14 15:53:30.871113,-834
2021-10-14 15:53:30.871121,-317
2021-10-14 15:53:30.871129,-144
2021-10-14 15:53:30.871137,-84
2021-10-14 15:53:30.871146,38
2021-10-14 15:53:30.871154,43
2021-10-14 15:53:30.871162,2
2021-10-14 15:53:30.871171,28
2021-10-14 15:53:30.871179,45
2021-10-14 15:53:30.871187,40
2021-10-14 15:53:30.871196,52
2021-10-14 15:53:30.871204,60
2021-10-14 15:53:30.871212,60
2021-10-14 15:53:30.871220,69
2021-10-14 15:53:30.871229,69
2021-10-14 15:53:30.871237,64
2021-10-14 15:53:30.871245,74
2021-10-14 15:53:30.871253,88
2021-10-14 15:53:30.871262,98
2021-10-14 15:53:30.871270,103
2021-10-14 15:53:30.871278,103
2021-10-14 15:53:30.871286,105
2021-10-14 15:53:31.096408,115
2021-10-14 15:53:31.096430,125
2021-10-14 15:53:31.096439,127
2021-10-14 15:53:31.096448,127
2021-10-14 15:53:31.096456,132
2021-10-14 15:53:31.096465,125
2021-10-14 15:53:31.096473,91
2021-10-14 15:53:31.096482,55
2021-10-14 15:53:31.096490,38
2021-10-14 15:53:31.096498,16
2021-10-14 15:53:31.096507,-9
2021-10-14 15:53:31.096515,-36
2021-10-14 15:53:31.096523,-74
2021-10-14 15:53:31.096532,-105
2021-10-14 15:53:31.096540,-110
2021-10-14 15:53:31.096548,-110
2021-10-14 15:53:31.096557,-120
2021-10-14 15:53:31.096565,-120
2021-10-14 15:53:31.096573,-113
2021-10-14 15:53:31.096582,-115
2021-10-14 15:53:31.096590,-127
2021-10-14 15:53:31.096598,-132
2021-10-14 15:53:31.096606,-120
2021-10-14 15:53:31.096615,-105
2021-10-14 15:53:31.096623,-108
2021-10-14 15:53:31.096631,-113
2021-10-14 15:53:31.096639,-103
2021-10-14 15:53:31.096648,-103
2021-10-14 15:53:31.096656,-108
2021-10-14 15:53:31.096664,-101
2021-10-14 15:53:31.321377,-93
2021-10-14 15:53:31.321398,-88
2021-10-14 15:53:31.321407,-79
2021-10-14 15:53:31.321416,-79
2021-10-14 15:53:31.321424,-88
2021-10-14 15:53:31.321433,-101
2021-10-14 15:53:31.321441,-113
2021-10-14 15:53:31.321449,-108
2021-10-14 15:53:31.321458,-93
2021-10-14 15:53:31.321466,-93
2021-10-14 15:53:31.321474,-105
2021-10-14 15:53:31.321482,-110
2021-10-14 15:53:31.321491,-113
2021-10-14 15:53:31.321499,-108
2021-10-14 15:53:31.321507,-101
2021-10-14 15:53:31.321515,-105
2021-10-14 15:53:31.321523,-110
2021-10-14 15:53:31.321532,-108
2021-10-14 15:53:31.321540,-103
2021-10-14 15:53:31.321548,-101
2021-10-14 15:53:31.321556,-101
2021-10-14 15:53:31.321565,-108
2021-10-14 15:53:31.321575,-103
2021-10-14 15:53:31.321583,-101
2021-10-14 15:53:31.321591,-103
2021-10-14 15:53:31.321600,-96
2021-10-14 15:53:31.321608,-84
2021-10-14 15:53:31.321616,-81
2021-10-14 15:53:31.321624,-76
2021-10-14 15:53:31.321633,-74
2021-10-14 15:53:31.591489,-76
2021-10-14 15:53:31.591511,-69
2021-10-14 15:53:31.591520,-67
2021-10-14 15:53:31.591528,-86
2021-10-14 15:53:31.591537,-101
2021-10-14 15:53:31.591545,-101
2021-10-14 15:53:31.591553,-91
2021-10-14 15:53:31.591562,-72
2021-10-14 15:53:31.591570,-55
2021-10-14 15:53:31.591578,-57
2021-10-14 15:53:31.591587,-55
2021-10-14 15:53:31.591595,-52
2021-10-14 15:53:31.591603,-72
2021-10-14 15:53:31.591612,-91
2021-10-14 15:53:31.591620,-91
2021-10-14 15:53:31.591628,-84
2021-10-14 15:53:31.591636,-84
2021-10-14 15:53:31.591645,-81
2021-10-14 15:53:31.591653,-67
2021-10-14 15:53:31.591661,-64
2021-10-14 15:53:31.591670,-69
2021-10-14 15:53:31.591678,-64
2021-10-14 15:53:31.591686,-57
2021-10-14 15:53:31.591694,-55
2021-10-14 15:53:31.591703,-24
2021-10-14 15:53:31.591711,122
2021-10-14 15:53:31.591719,459
2021-10-14 15:53:31.591727,719
2021-10-14 15:53:31.591736,310
2021-10-14 15:53:31.591744,-654
2021-10-14 15:53:31.816593,-1058
2021-10-14 15:53:31.816615,-581
2021-10-14 15:53:31.816625,-185
2021-10-14 15:53:31.816633,-146
2021-10-14 15:53:31.816642,-50
2021-10-14 15:53:31.816650,40
2021-10-14 15:53:31.816659,21
2021-10-14 15:53:31.816667,31
2021-10-14 15:53:31.816675,64
2021-10-14 15:53:31.816684,50
2021-10-14 15:53:31.816692,38
2021-10-14 15:53:31.816700,52
2021-10-14 15:53:31.816708,64
2021-10-14 15:53:31.816717,72
2021-10-14 15:53:31.816725,74
2021-10-14 15:53:31.816733,76
2021-10-14 15:53:31.816742,76
2021-10-14 15:53:31.816750,81
2021-10-14 15:53:31.816758,98
2021-10-14 15:53:31.816767,115
2021-10-14 15:53:31.816775,120
2021-10-14 15:53:31.816783,122
2021-10-14 15:53:31.816791,134
2021-10-14 15:53:31.816800,144
2021-10-14 15:53:31.816808,153
2021-10-14 15:53:31.816817,153
2021-10-14 15:53:31.816825,144
2021-10-14 15:53:31.816834,134
2021-10-14 15:53:31.816842,122
2021-10-14 15:53:31.816850,101
2021-10-14 15:53:32.084702,72
2021-10-14 15:53:32.084723,40
2021-10-14 15:53:32.084733,7
2021-10-14 15:53:32.084741,-28
2021-10-14 15:53:32.084750,-55
2021-10-14 15:53:32.084758,-64
2021-10-14 15:53:32.084766,-84
2021-10-14 15:53:32.084774,-98
2021-10-14 15:53:32.084783,-103
2021-10-14 15:53:32.084791,-113
2021-10-14 15:53:32.084799,-125
2021-10-14 15:53:32.084807,-122
2021-10-14 15:53:32.084815,-117
2021-10-14 15:53:32.084824,-122
2021-10-14 15:53:32.084832,-127
2021-10-14 15:53:32.084840,-127
2021-10-14 15:53:32.084848,-125
2021-10-14 15:53:32.084856,-113
2021-10-14 15:53:32.084865,-113
2021-10-14 15:53:32.084873,-120
2021-10-14 15:53:32.084881,-117
2021-10-14 15:53:32.084889,-108
2021-10-14 15:53:32.084897,-103
2021-10-14 15:53:32.084905,-101
2021-10-14 15:53:32.084913,-93
2021-10-14 15:53:32.084921,-84
2021-10-14 15:53:32.084929,-86
2021-10-14 15:53:32.084938,-98
2021-10-14 15:53:32.084946,-96
2021-10-14 15:53:32.084954,-76
2021-10-14 15:53:32.448582,-74
2021-10-14 15:53:32.448604,-81
2021-10-14 15:53:32.448613,-88
2021-10-14 15:53:32.448622,-101
2021-10-14 15:53:32.448630,-103
2021-10-14 15:53:32.448641,-88
2021-10-14 15:53:32.448649,-81
2021-10-14 15:53:32.448657,-86
2021-10-14 15:53:32.448665,-88
2021-10-14 15:53:32.448674,-93
2021-10-14 15:53:32.448682,-88
2021-10-14 15:53:32.448690,-81
2021-10-14 15:53:32.448698,-79
2021-10-14 15:53:32.448707,-79
2021-10-14 15:53:32.448715,-76
2021-10-14 15:53:32.448723,-74
2021-10-14 15:53:32.448731,-62
2021-10-14 15:53:32.448740,-55
2021-10-14 15:53:32.448748,-60
2021-10-14 15:53:32.448756,-57
2021-10-14 15:53:32.448764,-48
2021-10-14 15:53:32.448772,-50
2021-10-14 15:53:32.448780,-52
2021-10-14 15:53:32.448789,-45
2021-10-14 15:53:32.448797,-38
2021-10-14 15:53:32.448805,-38
2021-10-14 15:53:32.448813,-36
2021-10-14 15:53:32.448821,-36
2021-10-14 15:53:32.448830,-43
2021-10-14 15:53:32.448838,-48
2021-10-14 15:53:32.536352,-43
2021-10-14 15:53:32.536372,-40
2021-10-14 15:53:32.536381,-36
2021-10-14 15:53:32.536389,-19
2021-10-14 15:53:32.536398,0
2021-10-14 15:53:32.536406,9
2021-10-14 15:53:32.536414,4
2021-10-14 15:53:32.536423,-12
2021-10-14 15:53:32.536431,-31
2021-10-14 15:53:32.536439,-40
2021-10-14 15:53:32.536447,-45
2021-10-14 15:53:32.536456,-43
2021-10-14 15:53:32.536464,-38
2021-10-14 15:53:32.536472,-31
2021-10-14 15:53:32.536481,-33
2021-10-14 15:53:32.536489,-43
2021-10-14 15:53:32.536497,-40
2021-10-14 15:53:32.536505,-33
2021-10-14 15:53:32.536514,-21
2021-10-14 15:53:32.536522,4
2021-10-14 15:53:32.536530,125
2021-10-14 15:53:32.536538,466
2021-10-14 15:53:32.536547,757
2021-10-14 15:53:32.536555,394
2021-10-14 15:53:32.536563,-565
2021-10-14 15:53:32.536571,-1048
2021-10-14 15:53:32.536579,-591
2021-10-14 15:53:32.536588,-134
2021-10-14 15:53:32.536596,-105
2021-10-14 15:53:32.536604,-38
2021-10-14 15:53:32.761411,74
2021-10-14 15:53:32.761432,50
2021-10-14 15:53:32.761441,24
2021-10-14 15:53:32.761450,60
2021-10-14 15:53:32.761458,69
2021-10-14 15:53:32.761466,62
2021-10-14 15:53:32.761475,72
2021-10-14 15:53:32.761483,76
2021-10-14 15:53:32.761491,67
2021-10-14 15:53:32.761499,72
2021-10-14 15:53:32.761508,86
2021-10-14 15:53:32.761516,93
2021-10-14 15:53:32.761524,91
2021-10-14 15:53:32.761532,91
2021-10-14 15:53:32.761540,96
2021-10-14 15:53:32.761548,115
2021-10-14 15:53:32.761557,129
2021-10-14 15:53:32.761565,134
2021-10-14 15:53:32.761573,144
2021-10-14 15:53:32.761581,149
2021-10-14 15:53:32.761589,149
2021-10-14 15:53:32.761597,146
2021-10-14 15:53:32.761606,134
2021-10-14 15:53:32.761614,117
2021-10-14 15:53:32.761622,105
2021-10-14 15:53:32.761630,86
2021-10-14 15:53:32.761638,64
2021-10-14 15:53:32.761646,28
2021-10-14 15:53:32.761655,-7
2021-10-14 15:53:32.761663,-21
2021-10-14 15:53:33.031066,-36
2021-10-14 15:53:33.031088,-69
2021-10-14 15:53:33.031097,-86
2021-10-14 15:53:33.031106,-91
2021-10-14 15:53:33.031114,-96
2021-10-14 15:53:33.031123,-101
2021-10-14 15:53:33.031131,-108
2021-10-14 15:53:33.031139,-117
2021-10-14 15:53:33.031148,-113
2021-10-14 15:53:33.031156,-108
2021-10-14 15:53:33.031164,-103
2021-10-14 15:53:33.031173,-93
2021-10-14 15:53:33.031181,-91
2021-10-14 15:53:33.031189,-88
2021-10-14 15:53:33.031197,-79
2021-10-14 15:53:33.031206,-76
2021-10-14 15:53:33.031214,-67
2021-10-14 15:53:33.031222,-45
2021-10-14 15:53:33.031231,-40
2021-10-14 15:53:33.031239,-48
2021-10-14 15:53:33.031248,-48
2021-10-14 15:53:33.031256,-43
2021-10-14 15:53:33.031264,-26
2021-10-14 15:53:33.031273,-12
2021-10-14 15:53:33.031281,-9
2021-10-14 15:53:33.031289,0
2021-10-14 15:53:33.031298,4
2021-10-14 15:53:33.031306,-2
2021-10-14 15:53:33.031315,12
2021-10-14 15:53:33.031323,31
2021-10-14 15:53:33.212355,26
2021-10-14 15:53:33.212378,31
2021-10-14 15:53:33.212388,48
2021-10-14 15:53:33.212396,52
2021-10-14 15:53:33.212405,60
2021-10-14 15:53:33.212413,72
2021-10-14 15:53:33.212421,67
2021-10-14 15:53:33.212430,57
2021-10-14 15:53:33.212438,60
2021-10-14 15:53:33.212446,74
2021-10-14 15:53:33.212455,79
2021-10-14 15:53:33.212463,64
2021-10-14 15:53:33.212471,57
2021-10-14 15:53:33.212480,84
2021-10-14 15:53:33.212488,105
2021-10-14 15:53:33.212496,101
2021-10-14 15:53:33.212504,105
2021-10-14 15:53:33.212512,117
2021-10-14 15:53:33.212521,120
2021-10-14 15:53:33.212529,132
2021-10-14 15:53:33.212537,156
2021-10-14 15:53:33.212545,161
2021-10-14 15:53:33.212553,168
2021-10-14 15:53:33.212562,175
2021-10-14 15:53:33.212570,163
2021-10-14 15:53:33.212578,173
2021-10-14 15:53:33.212586,197
2021-10-14 15:53:33.212594,204
2021-10-14 15:53:33.212602,204
2021-10-14 15:53:33.212611,209
2021-10-14 15:53:33.391487,214
2021-10-14 15:53:33.391510,238
2021-10-14 15:53:33.391520,259
2021-10-14 15:53:33.391529,274
2021-10-14 15:53:33.391537,288
2021-10-14 15:53:33.391545,288
2021-10-14 15:53:33.391554,262
2021-10-14 15:53:33.391562,242
2021-10-14 15:53:33.391570,245
2021-10-14 15:53:33.391579,254
2021-10-14 15:53:33.391587,259
2021-10-14 15:53:33.391595,257
2021-10-14 15:53:33.391604,257
2021-10-14 15:53:33.391612,278
2021-10-14 15:53:33.391620,288
2021-10-14 15:53:33.391629,286
2021-10-14 15:53:33.391637,305
2021-10-14 15:53:33.391645,346
2021-10-14 15:53:33.391654,391
2021-10-14 15:53:33.391662,521
2021-10-14 15:53:33.391670,853
2021-10-14 15:53:33.391679,1118
2021-10-14 15:53:33.391687,747
2021-10-14 15:53:33.391695,-153
2021-10-14 15:53:33.391703,-577
2021-10-14 15:53:33.391712,-163
2021-10-14 15:53:33.391720,242
2021-10-14 15:53:33.391729,300
2021-10-14 15:53:33.391737,372
2021-10-14 15:53:33.391745,454
2021-10-14 15:53:33.661064,440
2021-10-14 15:53:33.661086,449
2021-10-14 15:53:33.661095,488
2021-10-14 15:53:33.661103,488
2021-10-14 15:53:33.661111,473
2021-10-14 15:53:33.661120,478
2021-10-14 15:53:33.661128,490
2021-10-14 15:53:33.661136,500
2021-10-14 15:53:33.661144,509
2021-10-14 15:53:33.661153,514
2021-10-14 15:53:33.661161,500
2021-10-14 15:53:33.661169,488
2021-10-14 15:53:33.661177,502
2021-10-14 15:53:33.661185,529
2021-10-14 15:53:33.661194,536
2021-10-14 15:53:33.661202,526
2021-10-14 15:53:33.661210,531
2021-10-14 15:53:33.661218,555
2021-10-14 15:53:33.661226,565
2021-10-14 15:53:33.661234,562
2021-10-14 15:53:33.661243,555
2021-10-14 15:53:33.661251,536
2021-10-14 15:53:33.661259,514
2021-10-14 15:53:33.661267,500
2021-10-14 15:53:33.661275,478
2021-10-14 15:53:33.661283,449
2021-10-14 15:53:33.661291,420
2021-10-14 15:53:33.661300,389
2021-10-14 15:53:33.661308,358
2021-10-14 15:53:33.661316,331
2021-10-14 15:53:33.841068,303
2021-10-14 15:53:33.841090,278
2021-10-14 15:53:33.841099,274
2021-10-14 15:53:33.841107,269
2021-10-14 15:53:33.841116,245
2021-10-14 15:53:33.841124,230
2021-10-14 15:53:33.841133,242
2021-10-14 15:53:33.841141,245
2021-10-14 15:53:33.841149,233
2021-10-14 15:53:33.841158,230
2021-10-14 15:53:33.841166,223
2021-10-14 15:53:33.841174,211
2021-10-14 15:53:33.841182,211
2021-10-14 15:53:33.841190,228
2021-10-14 15:53:33.841198,230
2021-10-14 15:53:33.841207,221
2021-10-14 15:53:33.841215,221
2021-10-14 15:53:33.841223,223
2021-10-14 15:53:33.841231,226
2021-10-14 15:53:33.841240,230
2021-10-14 15:53:33.841248,230
2021-10-14 15:53:33.841256,221
2021-10-14 15:53:33.841264,221
2021-10-14 15:53:33.841272,226
2021-10-14 15:53:33.841280,218
2021-10-14 15:53:33.841289,214
2021-10-14 15:53:33.841297,209
2021-10-14 15:53:33.841305,202
2021-10-14 15:53:33.841314,202
2021-10-14 15:53:33.841322,202
2021-10-14 15:53:34.154717,192
2021-10-14 15:53:34.154739,187
2021-10-14 15:53:34.154748,185
2021-10-14 15:53:34.154756,165
2021-10-14 15:53:34.154765,146
2021-10-14 15:53:34.154773,153
2021-10-14 15:53:34.154781,170
2021-10-14 15:53:34.154793,173
2021-10-14 15:53:34.154803,158
2021-10-14 15:53:34.154814,146
2021-10-14 15:53:34.154824,149
2021-10-14 15:53:34.154838,156
2021-10-14 15:53:34.154849,153
2021-10-14 15:53:34.154861,144
2021-10-14 15:53:34.154873,132
2021-10-14 15:53:34.154884,127
2021-10-14 15:53:34.154896,132
2021-10-14 15:53:34.154903,146
2021-10-14 15:53:34.154911,158
2021-10-14 15:53:34.154919,149
2021-10-14 15:53:34.154927,132
2021-10-14 15:53:34.154935,129
2021-10-14 15:53:34.154943,137
2021-10-14 15:53:34.154951,144
2021-10-14 15:53:34.154959,144
2021-10-14 15:53:34.154967,149
2021-10-14 15:53:34.154975,158
2021-10-14 15:53:34.154984,156
2021-10-14 15:53:34.154992,161
2021-10-14 15:53:34.155000,158
2021-10-14 15:53:34.380868,127
2021-10-14 15:53:34.380890,93
2021-10-14 15:53:34.380899,72
2021-10-14 15:53:34.380908,64
2021-10-14 15:53:34.380916,69
2021-10-14 15:53:34.380924,69
2021-10-14 15:53:34.380933,62
2021-10-14 15:53:34.380941,57
2021-10-14 15:53:34.380949,60
2021-10-14 15:53:34.380957,62
2021-10-14 15:53:34.380966,67
2021-10-14 15:53:34.380974,98
2021-10-14 15:53:34.380982,209
2021-10-14 15:53:34.380991,490
2021-10-14 15:53:34.380999,788
2021-10-14 15:53:34.381007,548
2021-10-14 15:53:34.381015,-363
2021-10-14 15:53:34.381024,-969
2021-10-14 15:53:34.381032,-642
2021-10-14 15:53:34.381040,-175
2021-10-14 15:53:34.381048,-76
2021-10-14 15:53:34.381056,21
2021-10-14 15:53:34.381065,151
2021-10-14 15:53:34.381073,146
2021-10-14 15:53:34.381081,127
2021-10-14 15:53:34.381089,153
2021-10-14 15:53:34.381098,156
2021-10-14 15:53:34.381106,153
2021-10-14 15:53:34.381114,163
2021-10-14 15:53:34.381122,165
2021-10-14 15:53:34.561450,177
2021-10-14 15:53:34.561471,187
2021-10-14 15:53:34.561481,175
2021-10-14 15:53:34.561489,173
2021-10-14 15:53:34.561498,194
2021-10-14 15:53:34.561506,202
2021-10-14 15:53:34.561514,185
2021-10-14 15:53:34.561522,177
2021-10-14 15:53:34.561531,185
2021-10-14 15:53:34.561539,204
2021-10-14 15:53:34.561547,216
2021-10-14 15:53:34.561555,216
2021-10-14 15:53:34.561564,211
2021-10-14 15:53:34.561572,209
2021-10-14 15:53:34.561580,202
2021-10-14 15:53:34.561588,177
2021-10-14 15:53:34.561597,146
2021-10-14 15:53:34.561605,122
2021-10-14 15:53:34.561613,86
2021-10-14 15:53:34.561622,50
2021-10-14 15:53:34.561630,38
2021-10-14 15:53:34.561638,9
2021-10-14 15:53:34.561647,-31
2021-10-14 15:53:34.561655,-57
2021-10-14 15:53:34.561663,-74
2021-10-14 15:53:34.561672,-91
2021-10-14 15:53:34.561680,-101
2021-10-14 15:53:34.561688,-93
2021-10-14 15:53:34.561696,-79
2021-10-14 15:53:34.561704,-86
2021-10-14 15:53:34.831061,-96
2021-10-14 15:53:34.831082,-86
2021-10-14 15:53:34.831091,-76
2021-10-14 15:53:34.831100,-79
2021-10-14 15:53:34.831108,-79
2021-10-14 15:53:34.831117,-81
2021-10-14 15:53:34.831125,-76
2021-10-14 15:53:34.831133,-67
2021-10-14 15:53:34.831142,-64
2021-10-14 15:53:34.831150,-64
2021-10-14 15:53:34.831158,-62
2021-10-14 15:53:34.831166,-55
2021-10-14 15:53:34.831175,-50
2021-10-14 15:53:34.831183,-60
2021-10-14 15:53:34.831192,-67
2021-10-14 15:53:34.831200,-67
2021-10-14 15:53:34.831208,-62
2021-10-14 15:53:34.831217,-57
2021-10-14 15:53:34.831225,-60
2021-10-14 15:53:34.831234,-64
2021-10-14 15:53:34.831242,-67
2021-10-14 15:53:34.831250,-74
2021-10-14 15:53:34.831259,-76
2021-10-14 15:53:34.831267,-67
2021-10-14 15:53:34.831276,-67
2021-10-14 15:53:34.831284,-76
2021-10-14 15:53:34.831292,-76
2021-10-14 15:53:34.831301,-69
2021-10-14 15:53:34.831309,-72
2021-10-14 15:53:34.831318,-76
2021-10-14 15:53:35.056184,-74
2021-10-14 15:53:35.056200,-72
2021-10-14 15:53:35.056205,-79
2021-10-14 15:53:35.056209,-81
2021-10-14 15:53:35.056214,-72
2021-10-14 15:53:35.056218,-67
2021-10-14 15:53:35.056222,-76
2021-10-14 15:53:35.056227,-79
2021-10-14 15:53:35.056231,-74
2021-10-14 15:53:35.056235,-74
2021-10-14 15:53:35.056239,-81
2021-10-14 15:53:35.056244,-91
2021-10-14 15:53:35.056248,-105
2021-10-14 15:53:35.056252,-108
2021-10-14 15:53:35.056256,-105
2021-10-14 15:53:35.056261,-110
2021-10-14 15:53:35.056265,-105
2021-10-14 15:53:35.056269,-93
2021-10-14 15:53:35.056274,-86
2021-10-14 15:53:35.056278,-74
2021-10-14 15:53:35.056282,-67
2021-10-14 15:53:35.056287,-86
2021-10-14 15:53:35.056291,-113
2021-10-14 15:53:35.056295,-132
2021-10-14 15:53:35.056299,-149
2021-10-14 15:53:35.056304,-141
2021-10-14 15:53:35.056308,-117
2021-10-14 15:53:35.056323,-125
2021-10-14 15:53:35.056339,-134
2021-10-14 15:53:35.056347,-127
2021-10-14 15:53:35.236437,-125
2021-10-14 15:53:35.236457,-120
2021-10-14 15:53:35.236467,-113
2021-10-14 15:53:35.236475,-103
2021-10-14 15:53:35.236484,-2
2021-10-14 15:53:35.236492,300
2021-10-14 15:53:35.236500,637
2021-10-14 15:53:35.236508,459
2021-10-14 15:53:35.236524,-437
2021-10-14 15:53:35.236532,-1144
2021-10-14 15:53:35.236541,-868
2021-10-14 15:53:35.236549,-343
2021-10-14 15:53:35.236557,-233
2021-10-14 15:53:35.236565,-163
2021-10-14 15:53:35.236574,-28
2021-10-14 15:53:35.236582,-33
2021-10-14 15:53:35.236590,-64
2021-10-14 15:53:35.236598,-36
2021-10-14 15:53:35.236607,-26
2021-10-14 15:53:35.236615,-31
2021-10-14 15:53:35.236623,-19
2021-10-14 15:53:35.236631,-9
2021-10-14 15:53:35.236639,-12
2021-10-14 15:53:35.236647,-19
2021-10-14 15:53:35.236655,-16
2021-10-14 15:53:35.236664,-2
2021-10-14 15:53:35.236672,12
2021-10-14 15:53:35.236680,19
2021-10-14 15:53:35.236689,14
2021-10-14 15:53:35.236697,26
2021-10-14 15:53:35.461052,43
2021-10-14 15:53:35.461074,50
2021-10-14 15:53:35.461083,52
2021-10-14 15:53:35.461092,60
2021-10-14 15:53:35.461100,57
2021-10-14 15:53:35.461108,45
2021-10-14 15:53:35.461116,36
2021-10-14 15:53:35.461125,24
2021-10-14 15:53:35.461133,-2
2021-10-14 15:53:35.461141,-40
2021-10-14 15:53:35.461149,-69
2021-10-14 15:53:35.461157,-93
2021-10-14 15:53:35.461166,-122
2021-10-14 15:53:35.461174,-151
2021-10-14 15:53:35.461182,-180
2021-10-14 15:53:35.461190,-202
2021-10-14 15:53:35.461198,-223
2021-10-14 15:53:35.461207,-247
2021-10-14 15:53:35.461215,-259
2021-10-14 15:53:35.461223,-250
2021-10-14 15:53:35.461231,-250
2021-10-14 15:53:35.461240,-262
2021-10-14 15:53:35.461248,-266
2021-10-14 15:53:35.461256,-266
2021-10-14 15:53:35.461264,-252
2021-10-14 15:53:35.461273,-242
2021-10-14 15:53:35.461281,-252
2021-10-14 15:53:35.461289,-247
2021-10-14 15:53:35.461297,-230
2021-10-14 15:53:35.461306,-226
2021-10-14 15:53:35.776467,-218
2021-10-14 15:53:35.776488,-202
2021-10-14 15:53:35.776497,-202
2021-10-14 15:53:35.776506,-202
2021-10-14 15:53:35.776514,-197
2021-10-14 15:53:35.776523,-202
2021-10-14 15:53:35.776531,-197
2021-10-14 15:53:35.776539,-182
2021-10-14 15:53:35.776547,-173
2021-10-14 15:53:35.776555,-170
2021-10-14 15:53:35.776564,-173
2021-10-14 15:53:35.776572,-170
2021-10-14 15:53:35.776580,-168
2021-10-14 15:53:35.776589,-170
2021-10-14 15:53:35.776597,-165
2021-10-14 15:53:35.776605,-165
2021-10-14 15:53:35.776614,-170
2021-10-14 15:53:35.776622,-153
2021-10-14 15:53:35.776631,-139
2021-10-14 15:53:35.776640,-141
2021-10-14 15:53:35.776648,-141
2021-10-14 15:53:35.776656,-146
2021-10-14 15:53:35.776665,-151
2021-10-14 15:53:35.776673,-144
2021-10-14 15:53:35.776682,-137
2021-10-14 15:53:35.776690,-134
2021-10-14 15:53:35.776698,-137
2021-10-14 15:53:35.776707,-132
2021-10-14 15:53:35.776715,-117
2021-10-14 15:53:35.776723,-117
2021-10-14 15:53:36.001466,-134
2021-10-14 15:53:36.001487,-137
2021-10-14 15:53:36.001496,-115
2021-10-14 15:53:36.001505,-117
2021-10-14 15:53:36.001513,-132
2021-10-14 15:53:36.001522,-129
2021-10-14 15:53:36.001530,-125
2021-10-14 15:53:36.001539,-122
2021-10-14 15:53:36.001547,-117
2021-10-14 15:53:36.001555,-125
2021-10-14 15:53:36.001564,-125
2021-10-14 15:53:36.001572,-103
2021-10-14 15:53:36.001580,-84
2021-10-14 15:53:36.001588,-81
2021-10-14 15:53:36.001597,-86
2021-10-14 15:53:36.001605,-108
2021-10-14 15:53:36.001613,-125
2021-10-14 15:53:36.001622,-122
2021-10-14 15:53:36.001630,-117
2021-10-14 15:53:36.001638,-117
2021-10-14 15:53:36.001646,-127
2021-10-14 15:53:36.001655,-137
2021-10-14 15:53:36.001663,-132
2021-10-14 15:53:36.001671,-134
2021-10-14 15:53:36.001680,-141
2021-10-14 15:53:36.001688,-132
2021-10-14 15:53:36.001696,-125
2021-10-14 15:53:36.001704,-91
2021-10-14 15:53:36.001713,91
2021-10-14 15:53:36.001721,454
2021-10-14 15:53:36.225443,646
2021-10-14 15:53:36.225465,141
2021-10-14 15:53:36.225473,-795
2021-10-14 15:53:36.225481,-1067
2021-10-14 15:53:36.225489,-541
2021-10-14 15:53:36.225497,-187
2021-10-14 15:53:36.225506,-177
2021-10-14 15:53:36.225513,-93
2021-10-14 15:53:36.225521,-16
2021-10-14 15:53:36.225529,-38
2021-10-14 15:53:36.225537,-26
2021-10-14 15:53:36.225545,0
2021-10-14 15:53:36.225553,-7
2021-10-14 15:53:36.225561,-7
2021-10-14 15:53:36.225569,2
2021-10-14 15:53:36.225576,0
2021-10-14 15:53:36.225584,0
2021-10-14 15:53:36.225592,12
2021-10-14 15:53:36.225600,16
2021-10-14 15:53:36.225607,12
2021-10-14 15:53:36.225616,14
2021-10-14 15:53:36.225624,26
2021-10-14 15:53:36.225632,40
2021-10-14 15:53:36.225639,55
2021-10-14 15:53:36.225647,69
2021-10-14 15:53:36.225655,74
2021-10-14 15:53:36.225663,76
2021-10-14 15:53:36.225670,88
2021-10-14 15:53:36.225678,93
2021-10-14 15:53:36.225685,84
2021-10-14 15:53:36.406455,76
2021-10-14 15:53:36.406477,67
2021-10-14 15:53:36.406486,33
2021-10-14 15:53:36.406495,-4
2021-10-14 15:53:36.406503,-21
2021-10-14 15:53:36.406511,-36
2021-10-14 15:53:36.406520,-69
2021-10-14 15:53:36.406527,-103
2021-10-14 15:53:36.406536,-129
2021-10-14 15:53:36.406544,-151
2021-10-14 15:53:36.406552,-161
2021-10-14 15:53:36.406560,-168
2021-10-14 15:53:36.406569,-185
2021-10-14 15:53:36.406577,-192
2021-10-14 15:53:36.406585,-194
2021-10-14 15:53:36.406593,-185
2021-10-14 15:53:36.406602,-180
2021-10-14 15:53:36.406610,-185
2021-10-14 15:53:36.406618,-180
2021-10-14 15:53:36.406626,-168
2021-10-14 15:53:36.406634,-170
2021-10-14 15:53:36.406642,-175
2021-10-14 15:53:36.406651,-161
2021-10-14 15:53:36.406664,-144
2021-10-14 15:53:36.406673,-141
2021-10-14 15:53:36.406681,-141
2021-10-14 15:53:36.406689,-134
2021-10-14 15:53:36.406697,-127
2021-10-14 15:53:36.406706,-127
2021-10-14 15:53:36.406714,-139
2021-10-14 15:53:36.676340,-141
2021-10-14 15:53:36.676360,-129
2021-10-14 15:53:36.676369,-127
2021-10-14 15:53:36.676378,-132
2021-10-14 15:53:36.676386,-137
2021-10-14 15:53:36.676395,-139
2021-10-14 15:53:36.676403,-139
2021-10-14 15:53:36.676411,-146
2021-10-14 15:53:36.676420,-146
2021-10-14 15:53:36.676428,-134
2021-10-14 15:53:36.676436,-127
2021-10-14 15:53:36.676445,-134
2021-10-14 15:53:36.676453,-137
2021-10-14 15:53:36.676461,-134
2021-10-14 15:53:36.676470,-129
2021-10-14 15:53:36.676478,-117
2021-10-14 15:53:36.676486,-110
2021-10-14 15:53:36.676494,-110
2021-10-14 15:53:36.676502,-105
2021-10-14 15:53:36.676510,-105
2021-10-14 15:53:36.676519,-110
2021-10-14 15:53:36.676527,-101
2021-10-14 15:53:36.676535,-84
2021-10-14 15:53:36.676543,-88
2021-10-14 15:53:36.676551,-103
2021-10-14 15:53:36.676559,-101
2021-10-14 15:53:36.676568,-79
2021-10-14 15:53:36.676576,-72
2021-10-14 15:53:36.676584,-76
2021-10-14 15:53:36.676592,-74
2021-10-14 15:53:36.991626,-69
2021-10-14 15:53:36.991666,-67
2021-10-14 15:53:36.991677,-60
2021-10-14 15:53:36.991685,-57
2021-10-14 15:53:36.991694,-50
2021-10-14 15:53:36.991702,-36
2021-10-14 15:53:36.991711,-26
2021-10-14 15:53:36.991719,-24
2021-10-14 15:53:36.991727,-31
2021-10-14 15:53:36.991736,-55
2021-10-14 15:53:36.991744,-69
2021-10-14 15:53:36.991753,-76
2021-10-14 15:53:36.991761,-84
2021-10-14 15:53:36.991769,-76
2021-10-14 15:53:36.991778,-62
2021-10-14 15:53:36.991786,-57
2021-10-14 15:53:36.991794,-55
2021-10-14 15:53:36.991803,-62
2021-10-14 15:53:36.991811,-64
2021-10-14 15:53:36.991819,-60
2021-10-14 15:53:36.991828,-43
2021-10-14 15:53:36.991836,45
2021-10-14 15:53:36.991844,319
2021-10-14 15:53:36.991853,651
2021-10-14 15:53:36.991861,509
2021-10-14 15:53:36.991869,-329
2021-10-14 15:53:36.991877,-1014
2021-10-14 15:53:36.991886,-786
2021-10-14 15:53:36.991894,-293
2021-10-14 15:53:36.991902,-151
2021-10-14 15:53:37.126249,-84
2021-10-14 15:53:37.126268,21
2021-10-14 15:53:37.126277,38
2021-10-14 15:53:37.126285,33
2021-10-14 15:53:37.126293,45
2021-10-14 15:53:37.126301,26
2021-10-14 15:53:37.126308,21
2021-10-14 15:53:37.126316,45
2021-10-14 15:53:37.126324,48
2021-10-14 15:53:37.126331,43
2021-10-14 15:53:37.126339,60
2021-10-14 15:53:37.126347,76
2021-10-14 15:53:37.126354,67
2021-10-14 15:53:37.126362,52
2021-10-14 15:53:37.126370,55
2021-10-14 15:53:37.126377,88
2021-10-14 15:53:37.126385,122
2021-10-14 15:53:37.126392,120
2021-10-14 15:53:37.126400,113
2021-10-14 15:53:37.126408,122
2021-10-14 15:53:37.126415,132
2021-10-14 15:53:37.126423,134
2021-10-14 15:53:37.126431,127
2021-10-14 15:53:37.126439,105
2021-10-14 15:53:37.126446,98
2021-10-14 15:53:37.126454,113
2021-10-14 15:53:37.126462,96
2021-10-14 15:53:37.126469,38
2021-10-14 15:53:37.126477,-9
2021-10-14 15:53:37.126485,-28
2021-10-14 15:53:37.306454,-40
2021-10-14 15:53:37.306474,-57
2021-10-14 15:53:37.306483,-79
2021-10-14 15:53:37.306492,-105
2021-10-14 15:53:37.306500,-127
2021-10-14 15:53:37.306508,-134
2021-10-14 15:53:37.306517,-139
2021-10-14 15:53:37.306525,-151
2021-10-14 15:53:37.306533,-161
2021-10-14 15:53:37.306542,-161
2021-10-14 15:53:37.306550,-163
2021-10-14 15:53:37.306558,-163
2021-10-14 15:53:37.306566,-158
2021-10-14 15:53:37.306574,-156
2021-10-14 15:53:37.306582,-144
2021-10-14 15:53:37.306591,-127
2021-10-14 15:53:37.306599,-125
2021-10-14 15:53:37.306607,-132
2021-10-14 15:53:37.306615,-132
2021-10-14 15:53:37.306624,-115
2021-10-14 15:53:37.306632,-96
2021-10-14 15:53:37.306640,-103
2021-10-14 15:53:37.306648,-117
2021-10-14 15:53:37.306656,-110
2021-10-14 15:53:37.306665,-88
2021-10-14 15:53:37.306673,-88
2021-10-14 15:53:37.306681,-113
2021-10-14 15:53:37.306689,-122
2021-10-14 15:53:37.306697,-110
2021-10-14 15:53:37.306706,-98
2021-10-14 15:53:37.576126,-93
2021-10-14 15:53:37.576148,-91
2021-10-14 15:53:37.576157,-84
2021-10-14 15:53:37.576165,-96
2021-10-14 15:53:37.576174,-115
2021-10-14 15:53:37.576182,-115
2021-10-14 15:53:37.576191,-98
2021-10-14 15:53:37.576199,-93
2021-10-14 15:53:37.576207,-96
2021-10-14 15:53:37.576216,-108
2021-10-14 15:53:37.576224,-122
2021-10-14 15:53:37.576232,-115
2021-10-14 15:53:37.576241,-101
2021-10-14 15:53:37.576249,-103
2021-10-14 15:53:37.576257,-117
2021-10-14 15:53:37.576265,-120
2021-10-14 15:53:37.576274,-108
2021-10-14 15:53:37.576282,-98
2021-10-14 15:53:37.576290,-79
2021-10-14 15:53:37.576299,-69
2021-10-14 15:53:37.576307,-79
2021-10-14 15:53:37.576315,-67
2021-10-14 15:53:37.576323,-48
2021-10-14 15:53:37.576332,-50
2021-10-14 15:53:37.576340,-45
2021-10-14 15:53:37.576348,-28
2021-10-14 15:53:37.576357,-43
2021-10-14 15:53:37.576365,-76
2021-10-14 15:53:37.576373,-79
2021-10-14 15:53:37.576382,-62
2021-10-14 15:53:37.846499,-67
2021-10-14 15:53:37.846521,-74
2021-10-14 15:53:37.846530,-62
2021-10-14 15:53:37.846539,-55
2021-10-14 15:53:37.846548,-60
2021-10-14 15:53:37.846557,-57
2021-10-14 15:53:37.846565,-48
2021-10-14 15:53:37.846574,-45
2021-10-14 15:53:37.846582,-14
2021-10-14 15:53:37.846590,158
2021-10-14 15:53:37.846599,521
2021-10-14 15:53:37.846607,709
2021-10-14 15:53:37.846615,149
2021-10-14 15:53:37.846624,-812
2021-10-14 15:53:37.846632,-1058
2021-10-14 15:53:37.846641,-560
2021-10-14 15:53:37.846649,-223
2021-10-14 15:53:37.846658,-149
2021-10-14 15:53:37.846666,-26
2021-10-14 15:53:37.846675,48
2021-10-14 15:53:37.846683,24
2021-10-14 15:53:37.846692,26
2021-10-14 15:53:37.846700,50
2021-10-14 15:53:37.846709,55
2021-10-14 15:53:37.846717,55
2021-10-14 15:53:37.846725,69
2021-10-14 15:53:37.846734,76
2021-10-14 15:53:37.846742,69
2021-10-14 15:53:37.846751,72
2021-10-14 15:53:37.846763,91
2021-10-14 15:53:38.071128,110
2021-10-14 15:53:38.071160,120
2021-10-14 15:53:38.071169,120
2021-10-14 15:53:38.071178,120
2021-10-14 15:53:38.071186,134
2021-10-14 15:53:38.071194,151
2021-10-14 15:53:38.071203,161
2021-10-14 15:53:38.071211,177
2021-10-14 15:53:38.071219,182
2021-10-14 15:53:38.071228,168
2021-10-14 15:53:38.071236,165
2021-10-14 15:53:38.071244,165
2021-10-14 15:53:38.071252,141
2021-10-14 15:53:38.071261,117
2021-10-14 15:53:38.071269,93
2021-10-14 15:53:38.071277,52
2021-10-14 15:53:38.071285,14
2021-10-14 15:53:38.071294,-12
2021-10-14 15:53:38.071302,-40
2021-10-14 15:53:38.071310,-64
2021-10-14 15:53:38.071318,-86
2021-10-14 15:53:38.071326,-105
2021-10-14 15:53:38.071335,-108
2021-10-14 15:53:38.071343,-103
2021-10-14 15:53:38.071351,-110
2021-10-14 15:53:38.071359,-115
2021-10-14 15:53:38.071368,-125
2021-10-14 15:53:38.071376,-127
2021-10-14 15:53:38.071384,-113
2021-10-14 15:53:38.071393,-103
2021-10-14 15:53:38.339776,-108
2021-10-14 15:53:38.339797,-110
2021-10-14 15:53:38.339806,-101
2021-10-14 15:53:38.339815,-93
2021-10-14 15:53:38.339823,-103
2021-10-14 15:53:38.339832,-103
2021-10-14 15:53:38.339840,-81
2021-10-14 15:53:38.339848,-69
2021-10-14 15:53:38.339857,-76
2021-10-14 15:53:38.339865,-76
2021-10-14 15:53:38.339873,-64
2021-10-14 15:53:38.339882,-57
2021-10-14 15:53:38.339890,-57
2021-10-14 15:53:38.339898,-52
2021-10-14 15:53:38.339907,-60
2021-10-14 15:53:38.339915,-69
2021-10-14 15:53:38.339923,-62
2021-10-14 15:53:38.339931,-67
2021-10-14 15:53:38.339940,-79
2021-10-14 15:53:38.339948,-84
2021-10-14 15:53:38.339956,-88
2021-10-14 15:53:38.339965,-86
2021-10-14 15:53:38.339973,-69
2021-10-14 15:53:38.339981,-60
2021-10-14 15:53:38.339990,-60
2021-10-14 15:53:38.339998,-52
2021-10-14 15:53:38.340006,-43
2021-10-14 15:53:38.340015,-26
2021-10-14 15:53:38.340023,0
2021-10-14 15:53:38.340031,14
2021-10-14 15:53:38.476459,26
2021-10-14 15:53:38.476479,55
2021-10-14 15:53:38.476489,81
2021-10-14 15:53:38.476497,88
2021-10-14 15:53:38.476506,96
2021-10-14 15:53:38.476515,81
2021-10-14 15:53:38.476523,43
2021-10-14 15:53:38.476532,14
2021-10-14 15:53:38.476540,2
2021-10-14 15:53:38.476548,-4
2021-10-14 15:53:38.476557,-4
2021-10-14 15:53:38.476565,2
2021-10-14 15:53:38.476573,4
2021-10-14 15:53:38.476582,-4
2021-10-14 15:53:38.476590,-24
2021-10-14 15:53:38.476598,-45
2021-10-14 15:53:38.476606,-52
2021-10-14 15:53:38.476615,-45
2021-10-14 15:53:38.476623,-43
2021-10-14 15:53:38.476631,-40
2021-10-14 15:53:38.476639,-43
2021-10-14 15:53:38.476648,-55
2021-10-14 15:53:38.476656,-52
2021-10-14 15:53:38.476664,-31
2021-10-14 15:53:38.476672,-33
2021-10-14 15:53:38.476680,-43
2021-10-14 15:53:38.476688,-9
2021-10-14 15:53:38.476697,165
2021-10-14 15:53:38.476705,521
2021-10-14 15:53:38.476713,707
2021-10-14 15:53:38.790672,173
2021-10-14 15:53:38.790705,-795
2021-10-14 15:53:38.790715,-1084
2021-10-14 15:53:38.790723,-531
2021-10-14 15:53:38.790732,-134
2021-10-14 15:53:38.790739,-108
2021-10-14 15:53:38.790748,-14
2021-10-14 15:53:38.790756,74
2021-10-14 15:53:38.790763,55
2021-10-14 15:53:38.790771,69
2021-10-14 15:53:38.790779,113
2021-10-14 15:53:38.790787,117
2021-10-14 15:53:38.790794,105
2021-10-14 15:53:38.790802,115
2021-10-14 15:53:38.790810,125
2021-10-14 15:53:38.790818,120
2021-10-14 15:53:38.790826,120
2021-10-14 15:53:38.790834,127
2021-10-14 15:53:38.790842,137
2021-10-14 15:53:38.790850,149
2021-10-14 15:53:38.790858,156
2021-10-14 15:53:38.790866,158
2021-10-14 15:53:38.790874,163
2021-10-14 15:53:38.790882,168
2021-10-14 15:53:38.790890,177
2021-10-14 15:53:38.790897,192
2021-10-14 15:53:38.790905,197
2021-10-14 15:53:38.790913,187
2021-10-14 15:53:38.790921,182
2021-10-14 15:53:38.790929,175
2021-10-14 15:53:39.015852,161
2021-10-14 15:53:39.015873,137
2021-10-14 15:53:39.015882,115
2021-10-14 15:53:39.015891,91
2021-10-14 15:53:39.015899,60
2021-10-14 15:53:39.015908,21
2021-10-14 15:53:39.015916,-9
2021-10-14 15:53:39.015924,-31
2021-10-14 15:53:39.015933,-52
2021-10-14 15:53:39.015941,-64
2021-10-14 15:53:39.015949,-69
2021-10-14 15:53:39.015958,-76
2021-10-14 15:53:39.015966,-81
2021-10-14 15:53:39.015974,-76
2021-10-14 15:53:39.015983,-79
2021-10-14 15:53:39.015991,-84
2021-10-14 15:53:39.015999,-79
2021-10-14 15:53:39.016007,-76
2021-10-14 15:53:39.016016,-86
2021-10-14 15:53:39.016024,-84
2021-10-14 15:53:39.016032,-74
2021-10-14 15:53:39.016041,-64
2021-10-14 15:53:39.016049,-57
2021-10-14 15:53:39.016057,-60
2021-10-14 15:53:39.016065,-72
2021-10-14 15:53:39.016074,-86
2021-10-14 15:53:39.016082,-101
2021-10-14 15:53:39.016090,-105
2021-10-14 15:53:39.016098,-98
2021-10-14 15:53:39.016107,-88
2021-10-14 15:53:39.195985,-88
2021-10-14 15:53:39.196006,-84
2021-10-14 15:53:39.196015,-81
2021-10-14 15:53:39.196024,-88
2021-10-14 15:53:39.196033,-88
2021-10-14 15:53:39.196041,-84
2021-10-14 15:53:39.196049,-81
2021-10-14 15:53:39.196057,-76
2021-10-14 15:53:39.196066,-72
2021-10-14 15:53:39.196074,-72
2021-10-14 15:53:39.196082,-76
2021-10-14 15:53:39.196090,-84
2021-10-14 15:53:39.196099,-84
2021-10-14 15:53:39.196107,-69
2021-10-14 15:53:39.196115,-62
2021-10-14 15:53:39.196123,-69
2021-10-14 15:53:39.196132,-76
2021-10-14 15:53:39.196140,-79
2021-10-14 15:53:39.196148,-72
2021-10-14 15:53:39.196156,-64
2021-10-14 15:53:39.196164,-60
2021-10-14 15:53:39.196173,-60
2021-10-14 15:53:39.196181,-55
2021-10-14 15:53:39.196189,-52
2021-10-14 15:53:39.196197,-50
2021-10-14 15:53:39.196205,-50
2021-10-14 15:53:39.196214,-55
2021-10-14 15:53:39.196222,-52
2021-10-14 15:53:39.196230,-43
2021-10-14 15:53:39.196238,-28
2021-10-14 15:53:39.376074,-24
2021-10-14 15:53:39.376094,-14
2021-10-14 15:53:39.376103,-7
2021-10-14 15:53:39.376112,-21
2021-10-14 15:53:39.376120,-57
2021-10-14 15:53:39.376128,-72
2021-10-14 15:53:39.376137,-52
2021-10-14 15:53:39.376145,-36
2021-10-14 15:53:39.376153,-48
2021-10-14 15:53:39.376162,-64
2021-10-14 15:53:39.376170,-60
2021-10-14 15:53:39.376178,-43
2021-10-14 15:53:39.376187,-33
2021-10-14 15:53:39.376195,-36
2021-10-14 15:53:39.376203,-38
2021-10-14 15:53:39.376211,-12
2021-10-14 15:53:39.376219,132
2021-10-14 15:53:39.376228,466
2021-10-14 15:53:39.376236,714
2021-10-14 15:53:39.376244,324
2021-10-14 15:53:39.376253,-601
2021-10-14 15:53:39.376261,-1034
2021-10-14 15:53:39.376269,-618
2021-10-14 15:53:39.376278,-202
2021-10-14 15:53:39.376286,-115
2021-10-14 15:53:39.376294,-7
2021-10-14 15:53:39.376303,84
2021-10-14 15:53:39.376311,48
2021-10-14 15:53:39.376330,28
2021-10-14 15:53:39.376338,60
2021-10-14 15:53:39.691401,67
2021-10-14 15:53:39.691421,69
2021-10-14 15:53:39.691430,67
2021-10-14 15:53:39.691439,38
2021-10-14 15:53:39.691447,28
2021-10-14 15:53:39.691456,57
2021-10-14 15:53:39.691464,76
2021-10-14 15:53:39.691472,76
2021-10-14 15:53:39.691481,84
2021-10-14 15:53:39.691489,91
2021-10-14 15:53:39.691497,105
2021-10-14 15:53:39.691505,129
2021-10-14 15:53:39.691514,139
2021-10-14 15:53:39.691522,141
2021-10-14 15:53:39.691530,161
2021-10-14 15:53:39.691538,175
2021-10-14 15:53:39.691546,177
2021-10-14 15:53:39.691555,177
2021-10-14 15:53:39.691563,165
2021-10-14 15:53:39.691571,158
2021-10-14 15:53:39.691579,151
2021-10-14 15:53:39.691588,110
2021-10-14 15:53:39.691596,69
2021-10-14 15:53:39.691604,57
2021-10-14 15:53:39.691612,38
2021-10-14 15:53:39.691620,9
2021-10-14 15:53:39.691629,-31
2021-10-14 15:53:39.691637,-91
2021-10-14 15:53:39.691645,-108
2021-10-14 15:53:39.691653,-62
2021-10-14 15:53:39.961132,-52
2021-10-14 15:53:39.961152,-74
2021-10-14 15:53:39.961162,-74
2021-10-14 15:53:39.961170,-76
2021-10-14 15:53:39.961179,-91
2021-10-14 15:53:39.961187,-79
2021-10-14 15:53:39.961195,-67
2021-10-14 15:53:39.961204,-72
2021-10-14 15:53:39.961212,-67
2021-10-14 15:53:39.961220,-60
2021-10-14 15:53:39.961229,-64
2021-10-14 15:53:39.961237,-72
2021-10-14 15:53:39.961245,-55
2021-10-14 15:53:39.961254,-40
2021-10-14 15:53:39.961262,-55
2021-10-14 15:53:39.961271,-64
2021-10-14 15:53:39.961279,-52
2021-10-14 15:53:39.961287,-43
2021-10-14 15:53:39.961295,-45
2021-10-14 15:53:39.961304,-52
2021-10-14 15:53:39.961312,-69
2021-10-14 15:53:39.961320,-105
2021-10-14 15:53:39.961328,-132
2021-10-14 15:53:39.961337,-120
2021-10-14 15:53:39.961345,-105
2021-10-14 15:53:39.961353,-117
2021-10-14 15:53:39.961361,-122
2021-10-14 15:53:39.961370,-91
2021-10-14 15:53:39.961378,-64
2021-10-14 15:53:39.961387,-81
2021-10-14 15:53:40.095995,-113
2021-10-14 15:53:40.096013,-108
2021-10-14 15:53:40.096022,-86
2021-10-14 15:53:40.096031,-103
2021-10-14 15:53:40.096039,-127
2021-10-14 15:53:40.096048,-105
2021-10-14 15:53:40.096056,-79
2021-10-14 15:53:40.096064,-84
2021-10-14 15:53:40.096073,-101
2021-10-14 15:53:40.096081,-105
2021-10-14 15:53:40.096089,-93
2021-10-14 15:53:40.096098,-86
2021-10-14 15:53:40.096106,-81
2021-10-14 15:53:40.096114,-72
2021-10-14 15:53:40.096123,-81
2021-10-14 15:53:40.096131,-81
2021-10-14 15:53:40.096139,-60
2021-10-14 15:53:40.096147,-40
2021-10-14 15:53:40.096156,-45
2021-10-14 15:53:40.096164,-72
2021-10-14 15:53:40.096172,-93
2021-10-14 15:53:40.096180,-98
2021-10-14 15:53:40.096188,-86
2021-10-14 15:53:40.096197,-67
2021-10-14 15:53:40.096205,-60
2021-10-14 15:53:40.096213,-76
2021-10-14 15:53:40.096221,-91
2021-10-14 15:53:40.096229,-76
2021-10-14 15:53:40.096237,-60
2021-10-14 15:53:40.096246,-57
2021-10-14 15:53:40.410090,-38
2021-10-14 15:53:40.410109,67
2021-10-14 15:53:40.410118,353
2021-10-14 15:53:40.410127,673
2021-10-14 15:53:40.410135,480
2021-10-14 15:53:40.410144,-416
2021-10-14 15:53:40.410152,-1082
2021-10-14 15:53:40.410160,-793
2021-10-14 15:53:40.410169,-307
2021-10-14 15:53:40.410177,-187
2021-10-14 15:53:40.410185,-91
2021-10-14 15:53:40.410194,31
2021-10-14 15:53:40.410202,33
2021-10-14 15:53:40.410210,16
2021-10-14 15:53:40.410219,40
2021-10-14 15:53:40.410227,45
2021-10-14 15:53:40.410235,48
2021-10-14 15:53:40.410243,67
2021-10-14 15:53:40.410252,72
2021-10-14 15:53:40.410260,64
2021-10-14 15:53:40.410268,62
2021-10-14 15:53:40.410276,62
2021-10-14 15:53:40.410285,72
2021-10-14 15:53:40.410293,91
2021-10-14 15:53:40.410301,98
2021-10-14 15:53:40.410309,103
2021-10-14 15:53:40.410317,117
2021-10-14 15:53:40.410325,134
2021-10-14 15:53:40.410333,146
2021-10-14 15:53:40.410342,161
2021-10-14 15:53:40.546149,168
2021-10-14 15:53:40.546169,168
2021-10-14 15:53:40.546179,170
2021-10-14 15:53:40.546188,165
2021-10-14 15:53:40.546196,146
2021-10-14 15:53:40.546204,125
2021-10-14 15:53:40.546213,101
2021-10-14 15:53:40.546221,69
2021-10-14 15:53:40.546229,45
2021-10-14 15:53:40.546238,16
2021-10-14 15:53:40.546246,-19
2021-10-14 15:53:40.546255,-45
2021-10-14 15:53:40.546263,-57
2021-10-14 15:53:40.546271,-79
2021-10-14 15:53:40.546280,-108
2021-10-14 15:53:40.546288,-122
2021-10-14 15:53:40.546296,-120
2021-10-14 15:53:40.546305,-117
2021-10-14 15:53:40.546313,-132
2021-10-14 15:53:40.546321,-137
2021-10-14 15:53:40.546330,-122
2021-10-14 15:53:40.546338,-117
2021-10-14 15:53:40.546346,-120
2021-10-14 15:53:40.546355,-117
2021-10-14 15:53:40.546363,-108
2021-10-14 15:53:40.546371,-88
2021-10-14 15:53:40.546380,-76
2021-10-14 15:53:40.546388,-76
2021-10-14 15:53:40.546396,-74
2021-10-14 15:53:40.546404,-62
2021-10-14 15:53:40.816632,-57
2021-10-14 15:53:40.816652,-55
2021-10-14 15:53:40.816663,-45
2021-10-14 15:53:40.816671,-48
2021-10-14 15:53:40.816679,-62
2021-10-14 15:53:40.816688,-64
2021-10-14 15:53:40.816695,-62
2021-10-14 15:53:40.816703,-67
2021-10-14 15:53:40.816712,-74
2021-10-14 15:53:40.816719,-81
2021-10-14 15:53:40.816727,-96
2021-10-14 15:53:40.816735,-101
2021-10-14 15:53:40.816743,-105
2021-10-14 15:53:40.816752,-108
2021-10-14 15:53:40.816760,-108
2021-10-14 15:53:40.816768,-105
2021-10-14 15:53:40.816776,-93
2021-10-14 15:53:40.816784,-88
2021-10-14 15:53:40.816792,-101
2021-10-14 15:53:40.816800,-105
2021-10-14 15:53:40.816809,-91
2021-10-14 15:53:40.816817,-86
2021-10-14 15:53:40.816825,-88
2021-10-14 15:53:40.816833,-91
2021-10-14 15:53:40.816841,-88
2021-10-14 15:53:40.816849,-79
2021-10-14 15:53:40.816857,-69
2021-10-14 15:53:40.816865,-72
2021-10-14 15:53:40.816873,-72
2021-10-14 15:53:40.816880,-67
2021-10-14 15:53:41.041144,-62
2021-10-14 15:53:41.041165,-48
2021-10-14 15:53:41.041174,-31
2021-10-14 15:53:41.041183,-21
2021-10-14 15:53:41.041191,-19
2021-10-14 15:53:41.041200,-38
2021-10-14 15:53:41.041208,-67
2021-10-14 15:53:41.041216,-79
2021-10-14 15:53:41.041225,-67
2021-10-14 15:53:41.041233,-55
2021-10-14 15:53:41.041241,-57
2021-10-14 15:53:41.041250,-62
2021-10-14 15:53:41.041258,-62
2021-10-14 15:53:41.041267,-52
2021-10-14 15:53:41.041275,-45
2021-10-14 15:53:41.041283,-43
2021-10-14 15:53:41.041291,-45
2021-10-14 15:53:41.041300,-26
2021-10-14 15:53:41.041308,88
2021-10-14 15:53:41.041316,399
2021-10-14 15:53:41.041325,716
2021-10-14 15:53:41.041333,483
2021-10-14 15:53:41.041342,-440
2021-10-14 15:53:41.041350,-1096
2021-10-14 15:53:41.041358,-762
2021-10-14 15:53:41.041367,-235
2021-10-14 15:53:41.041375,-139
2021-10-14 15:53:41.041383,-79
2021-10-14 15:53:41.041392,40
2021-10-14 15:53:41.041400,40
2021-10-14 15:53:41.221142,19
2021-10-14 15:53:41.221163,57
2021-10-14 15:53:41.221172,69
2021-10-14 15:53:41.221181,60
2021-10-14 15:53:41.221189,72
2021-10-14 15:53:41.221198,79
2021-10-14 15:53:41.221207,84
2021-10-14 15:53:41.221215,96
2021-10-14 15:53:41.221223,96
2021-10-14 15:53:41.221232,88
2021-10-14 15:53:41.221240,88
2021-10-14 15:53:41.221248,98
2021-10-14 15:53:41.221257,113
2021-10-14 15:53:41.221265,127
2021-10-14 15:53:41.221273,127
2021-10-14 15:53:41.221282,132
2021-10-14 15:53:41.221290,141
2021-10-14 15:53:41.221299,153
2021-10-14 15:53:41.221307,158
2021-10-14 15:53:41.221315,149
2021-10-14 15:53:41.221323,137
2021-10-14 15:53:41.221332,122
2021-10-14 15:53:41.221340,105
2021-10-14 15:53:41.221358,86
2021-10-14 15:53:41.221367,60
2021-10-14 15:53:41.221375,36
2021-10-14 15:53:41.221384,9
2021-10-14 15:53:41.221392,-21
2021-10-14 15:53:41.221401,-43
2021-10-14 15:53:41.221409,-57
2021-10-14 15:53:41.446573,-74
2021-10-14 15:53:41.446594,-84
2021-10-14 15:53:41.446603,-86
2021-10-14 15:53:41.446612,-96
2021-10-14 15:53:41.446620,-101
2021-10-14 15:53:41.446629,-93
2021-10-14 15:53:41.446637,-88
2021-10-14 15:53:41.446645,-88
2021-10-14 15:53:41.446653,-88
2021-10-14 15:53:41.446662,-91
2021-10-14 15:53:41.446670,-93
2021-10-14 15:53:41.446678,-84
2021-10-14 15:53:41.446687,-67
2021-10-14 15:53:41.446695,-60
2021-10-14 15:53:41.446703,-64
2021-10-14 15:53:41.446712,-64
2021-10-14 15:53:41.446720,-57
2021-10-14 15:53:41.446729,-48
2021-10-14 15:53:41.446737,-43
2021-10-14 15:53:41.446746,-40
2021-10-14 15:53:41.446754,-38
2021-10-14 15:53:41.446762,-45
2021-10-14 15:53:41.446771,-52
2021-10-14 15:53:41.446779,-48
2021-10-14 15:53:41.446787,-40
2021-10-14 15:53:41.446795,-48
2021-10-14 15:53:41.446804,-67
2021-10-14 15:53:41.446812,-79
2021-10-14 15:53:41.446820,-79
2021-10-14 15:53:41.446829,-74
2021-10-14 15:53:41.806007,-74
2021-10-14 15:53:41.806028,-79
2021-10-14 15:53:41.806037,-86
2021-10-14 15:53:41.806044,-93
2021-10-14 15:53:41.806051,-88
2021-10-14 15:53:41.806058,-79
2021-10-14 15:53:41.806065,-74
2021-10-14 15:53:41.806073,-76
2021-10-14 15:53:41.806080,-86
2021-10-14 15:53:41.806088,-88
2021-10-14 15:53:41.806096,-81
2021-10-14 15:53:41.806103,-76
2021-10-14 15:53:41.806111,-74
2021-10-14 15:53:41.806119,-69
2021-10-14 15:53:41.806126,-69
2021-10-14 15:53:41.806134,-69
2021-10-14 15:53:41.806142,-57
2021-10-14 15:53:41.806149,-57
2021-10-14 15:53:41.806157,-72
2021-10-14 15:53:41.806165,-62
2021-10-14 15:53:41.806173,-43
2021-10-14 15:53:41.806181,-43
2021-10-14 15:53:41.806190,-43
2021-10-14 15:53:41.806198,-24
2021-10-14 15:53:41.806207,-4
2021-10-14 15:53:41.806215,-14
2021-10-14 15:53:41.806224,-40
2021-10-14 15:53:41.806232,-55
2021-10-14 15:53:41.806241,-48
2021-10-14 15:53:41.806249,-43
2021-10-14 15:53:41.986171,-45
2021-10-14 15:53:41.986192,-45
2021-10-14 15:53:41.986201,-38
2021-10-14 15:53:41.986209,-33
2021-10-14 15:53:41.986218,-31
2021-10-14 15:53:41.986226,-21
2021-10-14 15:53:41.986235,-9
2021-10-14 15:53:41.986243,2
2021-10-14 15:53:41.986251,69
2021-10-14 15:53:41.986260,339
2021-10-14 15:53:41.986268,702
2021-10-14 15:53:41.986276,622
2021-10-14 15:53:41.986285,-211
2021-10-14 15:53:41.986293,-1007
2021-10-14 15:53:41.986301,-829
2021-10-14 15:53:41.986310,-250
2021-10-14 15:53:41.986318,-96
2021-10-14 15:53:41.986326,-67
2021-10-14 15:53:41.986334,64
2021-10-14 15:53:41.986343,84
2021-10-14 15:53:41.986351,28
2021-10-14 15:53:41.986359,48
2021-10-14 15:53:41.986367,81
2021-10-14 15:53:41.986376,74
2021-10-14 15:53:41.986384,74
2021-10-14 15:53:41.986392,86
2021-10-14 15:53:41.986400,84
2021-10-14 15:53:41.986409,86
2021-10-14 15:53:41.986417,108
2021-10-14 15:53:41.986425,117
2021-10-14 15:53:42.166554,117
2021-10-14 15:53:42.166574,117
2021-10-14 15:53:42.166583,113
2021-10-14 15:53:42.166592,117
2021-10-14 15:53:42.166600,141
2021-10-14 15:53:42.166608,156
2021-10-14 15:53:42.166617,151
2021-10-14 15:53:42.166625,156
2021-10-14 15:53:42.166633,165
2021-10-14 15:53:42.166642,165
2021-10-14 15:53:42.166650,161
2021-10-14 15:53:42.166658,151
2021-10-14 15:53:42.166666,137
2021-10-14 15:53:42.166674,108
2021-10-14 15:53:42.166682,72
2021-10-14 15:53:42.166691,50
2021-10-14 15:53:42.166699,28
2021-10-14 15:53:42.166707,-2
2021-10-14 15:53:42.166715,-31
2021-10-14 15:53:42.166724,-57
2021-10-14 15:53:42.166732,-72
2021-10-14 15:53:42.166740,-84
2021-10-14 15:53:42.166748,-91
2021-10-14 15:53:42.166756,-93
2021-10-14 15:53:42.166764,-93
2021-10-14 15:53:42.166773,-93
2021-10-14 15:53:42.166781,-91
2021-10-14 15:53:42.166789,-84
2021-10-14 15:53:42.166798,-79
2021-10-14 15:53:42.166806,-81
2021-10-14 15:53:42.479813,-81
2021-10-14 15:53:42.479835,-64
2021-10-14 15:53:42.479844,-52
2021-10-14 15:53:42.479853,-52
2021-10-14 15:53:42.479861,-45
2021-10-14 15:53:42.479870,-43
2021-10-14 15:53:42.479878,-50
2021-10-14 15:53:42.479887,-48
2021-10-14 15:53:42.479895,-33
2021-10-14 15:53:42.479903,-33
2021-10-14 15:53:42.479912,-40
2021-10-14 15:53:42.479920,-31
2021-10-14 15:53:42.479928,-26
2021-10-14 15:53:42.479937,-43
2021-10-14 15:53:42.479945,-50
2021-10-14 15:53:42.479953,-50
2021-10-14 15:53:42.479961,-52
2021-10-14 15:53:42.479970,-52
2021-10-14 15:53:42.479978,-60
2021-10-14 15:53:42.479986,-64
2021-10-14 15:53:42.479994,-52
2021-10-14 15:53:42.480003,-45
2021-10-14 15:53:42.480011,-45
2021-10-14 15:53:42.480019,-55
2021-10-14 15:53:42.480027,-74
2021-10-14 15:53:42.480036,-72
2021-10-14 15:53:42.480044,-57
2021-10-14 15:53:42.480052,-55
2021-10-14 15:53:42.480060,-52
2021-10-14 15:53:42.480069,-43
2021-10-14 15:53:42.616269,-45
2021-10-14 15:53:42.616289,-52
2021-10-14 15:53:42.616299,-48
2021-10-14 15:53:42.616307,-45
2021-10-14 15:53:42.616316,-36
2021-10-14 15:53:42.616324,-16
2021-10-14 15:53:42.616332,-28
2021-10-14 15:53:42.616341,-52
2021-10-14 15:53:42.616349,-48
2021-10-14 15:53:42.616357,-28
2021-10-14 15:53:42.616366,-26
2021-10-14 15:53:42.616374,-24
2021-10-14 15:53:42.616382,-21
2021-10-14 15:53:42.616391,-16
2021-10-14 15:53:42.616399,0
2021-10-14 15:53:42.616408,9
2021-10-14 15:53:42.616416,-7
2021-10-14 15:53:42.616424,-43
2021-10-14 15:53:42.616433,-52
2021-10-14 15:53:42.616441,-33
2021-10-14 15:53:42.616449,-24
2021-10-14 15:53:42.616458,-36
2021-10-14 15:53:42.616466,-36
2021-10-14 15:53:42.616474,-31
2021-10-14 15:53:42.616483,-24
2021-10-14 15:53:42.616491,-24
2021-10-14 15:53:42.616499,-26
2021-10-14 15:53:42.616507,-21
2021-10-14 15:53:42.616516,-7
2021-10-14 15:53:42.616524,57
2021-10-14 15:53:42.886197,307
2021-10-14 15:53:42.886218,673
2021-10-14 15:53:42.886228,656
2021-10-14 15:53:42.886236,-120
2021-10-14 15:53:42.886245,-942
2021-10-14 15:53:42.886253,-863
2021-10-14 15:53:42.886262,-355
2021-10-14 15:53:42.886270,-158
2021-10-14 15:53:42.886279,-72
2021-10-14 15:53:42.886287,60
2021-10-14 15:53:42.886295,86
2021-10-14 15:53:42.886304,55
2021-10-14 15:53:42.886312,72
2021-10-14 15:53:42.886321,96
2021-10-14 15:53:42.886329,108
2021-10-14 15:53:42.886337,110
2021-10-14 15:53:42.886346,103
2021-10-14 15:53:42.886354,98
2021-10-14 15:53:42.886363,105
2021-10-14 15:53:42.886371,113
2021-10-14 15:53:42.886379,125
2021-10-14 15:53:42.886388,141
2021-10-14 15:53:42.886396,158
2021-10-14 15:53:42.886404,158
2021-10-14 15:53:42.886412,161
2021-10-14 15:53:42.886421,177
2021-10-14 15:53:42.886429,194
2021-10-14 15:53:42.886437,192
2021-10-14 15:53:42.886445,180
2021-10-14 15:53:42.886453,180
2021-10-14 15:53:43.066654,194
2021-10-14 15:53:43.066677,199
2021-10-14 15:53:43.066687,189
2021-10-14 15:53:43.066695,170
2021-10-14 15:53:43.066704,134
2021-10-14 15:53:43.066712,88
2021-10-14 15:53:43.066721,62
2021-10-14 15:53:43.066729,48
2021-10-14 15:53:43.066738,14
2021-10-14 15:53:43.066746,-21
2021-10-14 15:53:43.066755,-38
2021-10-14 15:53:43.066763,-48
2021-10-14 15:53:43.066772,-69
2021-10-14 15:53:43.066780,-86
2021-10-14 15:53:43.066789,-86
2021-10-14 15:53:43.066797,-93
2021-10-14 15:53:43.066805,-110
2021-10-14 15:53:43.066814,-103
2021-10-14 15:53:43.066822,-84
2021-10-14 15:53:43.066831,-81
2021-10-14 15:53:43.066839,-86
2021-10-14 15:53:43.066847,-84
2021-10-14 15:53:43.066856,-72
2021-10-14 15:53:43.066864,-62
2021-10-14 15:53:43.066873,-60
2021-10-14 15:53:43.066881,-52
2021-10-14 15:53:43.066889,-43
2021-10-14 15:53:43.066898,-50
2021-10-14 15:53:43.066906,-55
2021-10-14 15:53:43.066915,-55
2021-10-14 15:53:43.336631,-57
2021-10-14 15:53:43.336652,-52
2021-10-14 15:53:43.336662,-50
2021-10-14 15:53:43.336670,-62
2021-10-14 15:53:43.336679,-76
2021-10-14 15:53:43.336687,-81
2021-10-14 15:53:43.336695,-76
2021-10-14 15:53:43.336704,-74
2021-10-14 15:53:43.336712,-84
2021-10-14 15:53:43.336720,-96
2021-10-14 15:53:43.336728,-98
2021-10-14 15:53:43.336737,-93
2021-10-14 15:53:43.336745,-98
2021-10-14 15:53:43.336753,-96
2021-10-14 15:53:43.336761,-84
2021-10-14 15:53:43.336770,-81
2021-10-14 15:53:43.336778,-91
2021-10-14 15:53:43.336792,-86
2021-10-14 15:53:43.336801,-72
2021-10-14 15:53:43.336809,-67
2021-10-14 15:53:43.336817,-74
2021-10-14 15:53:43.336825,-76
2021-10-14 15:53:43.336834,-69
2021-10-14 15:53:43.336842,-64
2021-10-14 15:53:43.336850,-62
2021-10-14 15:53:43.336858,-50
2021-10-14 15:53:43.336867,-45
2021-10-14 15:53:43.336875,-57
2021-10-14 15:53:43.336884,-64
2021-10-14 15:53:43.336892,-52
2021-10-14 15:53:43.650996,-36
2021-10-14 15:53:43.651016,-36
2021-10-14 15:53:43.651023,-40
2021-10-14 15:53:43.651030,-40
2021-10-14 15:53:43.651037,-21
2021-10-14 15:53:43.651044,-9
2021-10-14 15:53:43.651050,-31
2021-10-14 15:53:43.651057,-52
2021-10-14 15:53:43.651065,-60
2021-10-14 15:53:43.651073,-69
2021-10-14 15:53:43.651082,-69
2021-10-14 15:53:43.651090,-60
2021-10-14 15:53:43.651098,-62
2021-10-14 15:53:43.651105,-55
2021-10-14 15:53:43.651113,-45
2021-10-14 15:53:43.651121,-50
2021-10-14 15:53:43.651129,-45
2021-10-14 15:53:43.651137,-45
2021-10-14 15:53:43.651145,-31
2021-10-14 15:53:43.651153,115
2021-10-14 15:53:43.651161,464
2021-10-14 15:53:43.651169,728
2021-10-14 15:53:43.651176,336
2021-10-14 15:53:43.651184,-637
2021-10-14 15:53:43.651192,-1098
2021-10-14 15:53:43.651200,-637
2021-10-14 15:53:43.651208,-204
2021-10-14 15:53:43.651216,-158
2021-10-14 15:53:43.651224,-52
2021-10-14 15:53:43.651232,69
2021-10-14 15:53:43.786186,43
2021-10-14 15:53:43.786208,28
2021-10-14 15:53:43.786217,62
2021-10-14 15:53:43.786226,52
2021-10-14 15:53:43.786234,33
2021-10-14 15:53:43.786243,55
2021-10-14 15:53:43.786251,72
2021-10-14 15:53:43.786260,69
2021-10-14 15:53:43.786268,64
2021-10-14 15:53:43.786276,69
2021-10-14 15:53:43.786284,86
2021-10-14 15:53:43.786293,105
2021-10-14 15:53:43.786301,113
2021-10-14 15:53:43.786310,108
2021-10-14 15:53:43.786319,108
2021-10-14 15:53:43.786327,120
2021-10-14 15:53:43.786335,139
2021-10-14 15:53:43.786343,153
2021-10-14 15:53:43.786352,158
2021-10-14 15:53:43.786360,158
2021-10-14 15:53:43.786368,151
2021-10-14 15:53:43.786377,137
2021-10-14 15:53:43.786385,120
2021-10-14 15:53:43.786393,103
2021-10-14 15:53:43.786401,84
2021-10-14 15:53:43.786410,52
2021-10-14 15:53:43.786418,19
2021-10-14 15:53:43.786427,-2
2021-10-14 15:53:43.786435,-26
2021-10-14 15:53:43.786443,-45
2021-10-14 15:53:44.101583,-60
2021-10-14 15:53:44.101603,-74
2021-10-14 15:53:44.101612,-88
2021-10-14 15:53:44.101621,-96
2021-10-14 15:53:44.101629,-93
2021-10-14 15:53:44.101638,-93
2021-10-14 15:53:44.101646,-101
2021-10-14 15:53:44.101655,-108
2021-10-14 15:53:44.101663,-108
2021-10-14 15:53:44.101671,-108
2021-10-14 15:53:44.101680,-101
2021-10-14 15:53:44.101688,-93
2021-10-14 15:53:44.101696,-93
2021-10-14 15:53:44.101704,-91
2021-10-14 15:53:44.101713,-91
2021-10-14 15:53:44.101721,-88
2021-10-14 15:53:44.101729,-84
2021-10-14 15:53:44.101737,-74
2021-10-14 15:53:44.101745,-67
2021-10-14 15:53:44.101754,-67
2021-10-14 15:53:44.101762,-76
2021-10-14 15:53:44.101770,-84
2021-10-14 15:53:44.101778,-76
2021-10-14 15:53:44.101787,-81
2021-10-14 15:53:44.101795,-98
2021-10-14 15:53:44.101803,-101
2021-10-14 15:53:44.101811,-98
2021-10-14 15:53:44.101820,-101
2021-10-14 15:53:44.101828,-98
2021-10-14 15:53:44.101836,-88
2021-10-14 15:53:44.236552,-93
2021-10-14 15:53:44.236572,-98
2021-10-14 15:53:44.236581,-88
2021-10-14 15:53:44.236590,-81
2021-10-14 15:53:44.236598,-84
2021-10-14 15:53:44.236607,-79
2021-10-14 15:53:44.236615,-74
2021-10-14 15:53:44.236623,-76
2021-10-14 15:53:44.236632,-72
2021-10-14 15:53:44.236640,-72
2021-10-14 15:53:44.236648,-76
2021-10-14 15:53:44.236657,-74
2021-10-14 15:53:44.236665,-64
2021-10-14 15:53:44.236673,-55
2021-10-14 15:53:44.236681,-52
2021-10-14 15:53:44.236690,-60
2021-10-14 15:53:44.236698,-52
2021-10-14 15:53:44.236706,-38
2021-10-14 15:53:44.236714,-50
2021-10-14 15:53:44.236723,-69
2021-10-14 15:53:44.236731,-62
2021-10-14 15:53:44.236739,-45
2021-10-14 15:53:44.236747,-40
2021-10-14 15:53:44.236756,-43
2021-10-14 15:53:44.236764,-48
2021-10-14 15:53:44.236772,-43
2021-10-14 15:53:44.236781,-36
2021-10-14 15:53:44.236789,-24
2021-10-14 15:53:44.236797,-14
2021-10-14 15:53:44.236806,-9
2021-10-14 15:53:44.595365,-2
2021-10-14 15:53:44.595386,-16
2021-10-14 15:53:44.595396,-38
2021-10-14 15:53:44.595404,-38
2021-10-14 15:53:44.595412,-26
2021-10-14 15:53:44.595421,-38
2021-10-14 15:53:44.595429,-52
2021-10-14 15:53:44.595437,-45
2021-10-14 15:53:44.595446,-28
2021-10-14 15:53:44.595454,-28
2021-10-14 15:53:44.595463,-43
2021-10-14 15:53:44.595471,-52
2021-10-14 15:53:44.595479,-43
2021-10-14 15:53:44.595488,2
2021-10-14 15:53:44.595496,170
2021-10-14 15:53:44.595504,533
2021-10-14 15:53:44.595512,769
2021-10-14 15:53:44.595521,283
2021-10-14 15:53:44.595529,-709
2021-10-14 15:53:44.595537,-1058
2021-10-14 15:53:44.595546,-519
2021-10-14 15:53:44.595554,-110
2021-10-14 15:53:44.595562,-93
2021-10-14 15:53:44.595570,-7
2021-10-14 15:53:44.595579,81
2021-10-14 15:53:44.595587,52
2021-10-14 15:53:44.595596,50
2021-10-14 15:53:44.595604,76
2021-10-14 15:53:44.595612,72
2021-10-14 15:53:44.595620,67
2021-10-14 15:53:44.686166,79
2021-10-14 15:53:44.686186,86
2021-10-14 15:53:44.686195,91
2021-10-14 15:53:44.686204,96
2021-10-14 15:53:44.686212,96
2021-10-14 15:53:44.686221,98
2021-10-14 15:53:44.686229,113
2021-10-14 15:53:44.686237,129
2021-10-14 15:53:44.686246,134
2021-10-14 15:53:44.686254,144
2021-10-14 15:53:44.686263,158
2021-10-14 15:53:44.686271,170
2021-10-14 15:53:44.686279,177
2021-10-14 15:53:44.686288,177
2021-10-14 15:53:44.686296,175
2021-10-14 15:53:44.686304,168
2021-10-14 15:53:44.686313,156
2021-10-14 15:53:44.686321,137
2021-10-14 15:53:44.686329,115
2021-10-14 15:53:44.686337,93
2021-10-14 15:53:44.686346,69
2021-10-14 15:53:44.686354,45
2021-10-14 15:53:44.686362,16
2021-10-14 15:53:44.686371,-21
2021-10-14 15:53:44.686379,-50
2021-10-14 15:53:44.686387,-60
2021-10-14 15:53:44.686395,-67
2021-10-14 15:53:44.686404,-67
2021-10-14 15:53:44.686412,-67
2021-10-14 15:53:44.686420,-86
2021-10-14 15:53:45.045980,-93
2021-10-14 15:53:45.046002,-79
2021-10-14 15:53:45.046011,-81
2021-10-14 15:53:45.046020,-93
2021-10-14 15:53:45.046028,-98
2021-10-14 15:53:45.046037,-91
2021-10-14 15:53:45.046045,-81
2021-10-14 15:53:45.046053,-76
2021-10-14 15:53:45.046062,-79
2021-10-14 15:53:45.046070,-84
2021-10-14 15:53:45.046079,-91
2021-10-14 15:53:45.046087,-88
2021-10-14 15:53:45.046095,-72
2021-10-14 15:53:45.046104,-67
2021-10-14 15:53:45.046112,-84
2021-10-14 15:53:45.046120,-88
2021-10-14 15:53:45.046129,-69
2021-10-14 15:53:45.046137,-60
2021-10-14 15:53:45.046145,-64
2021-10-14 15:53:45.046153,-67
2021-10-14 15:53:45.046162,-67
2021-10-14 15:53:45.046170,-64
2021-10-14 15:53:45.046178,-60
2021-10-14 15:53:45.046187,-55
2021-10-14 15:53:45.046195,-52
2021-10-14 15:53:45.046203,-55
2021-10-14 15:53:45.046211,-55
2021-10-14 15:53:45.046220,-50
2021-10-14 15:53:45.046228,-45
2021-10-14 15:53:45.046236,-40
2021-10-14 15:53:45.136164,-45
2021-10-14 15:53:45.136185,-48
2021-10-14 15:53:45.136194,-38
2021-10-14 15:53:45.136203,-38
2021-10-14 15:53:45.136212,-60
2021-10-14 15:53:45.136220,-62
2021-10-14 15:53:45.136228,-40
2021-10-14 15:53:45.136236,-31
2021-10-14 15:53:45.136245,-36
2021-10-14 15:53:45.136253,-43
2021-10-14 15:53:45.136261,-48
2021-10-14 15:53:45.136270,-38
2021-10-14 15:53:45.136278,-28
2021-10-14 15:53:45.136286,-28
2021-10-14 15:53:45.136295,-31
2021-10-14 15:53:45.136303,-33
2021-10-14 15:53:45.136311,-36
2021-10-14 15:53:45.136319,-28
2021-10-14 15:53:45.136328,-19
2021-10-14 15:53:45.136336,-16
2021-10-14 15:53:45.136344,-24
2021-10-14 15:53:45.136352,-26
2021-10-14 15:53:45.136361,-21
2021-10-14 15:53:45.136369,-14
2021-10-14 15:53:45.136377,-7
2021-10-14 15:53:45.136385,-2
2021-10-14 15:53:45.136394,0
2021-10-14 15:53:45.136402,4
2021-10-14 15:53:45.136410,14
2021-10-14 15:53:45.136419,31
2021-10-14 15:53:45.496577,24
2021-10-14 15:53:45.496598,2
2021-10-14 15:53:45.496608,-12
2021-10-14 15:53:45.496616,-26
2021-10-14 15:53:45.496625,-33
2021-10-14 15:53:45.496633,-16
2021-10-14 15:53:45.496642,-4
2021-10-14 15:53:45.496650,-14
2021-10-14 15:53:45.496659,-24
2021-10-14 15:53:45.496667,-24
2021-10-14 15:53:45.496675,-14
2021-10-14 15:53:45.496683,-9
2021-10-14 15:53:45.496692,-7
2021-10-14 15:53:45.496700,43
2021-10-14 15:53:45.496709,238
2021-10-14 15:53:45.496717,584
2021-10-14 15:53:45.496726,721
2021-10-14 15:53:45.496734,153
2021-10-14 15:53:45.496742,-755
2021-10-14 15:53:45.496751,-935
2021-10-14 15:53:45.496759,-423
2021-10-14 15:53:45.496767,-120
2021-10-14 15:53:45.496776,-79
2021-10-14 15:53:45.496784,33
2021-10-14 15:53:45.496792,98
2021-10-14 15:53:45.496801,69
2021-10-14 15:53:45.496809,74
2021-10-14 15:53:45.496817,93
2021-10-14 15:53:45.496826,81
2021-10-14 15:53:45.496834,91
2021-10-14 15:53:45.720477,113
2021-10-14 15:53:45.720506,113
2021-10-14 15:53:45.720515,108
2021-10-14 15:53:45.720524,115
2021-10-14 15:53:45.720532,125
2021-10-14 15:53:45.720540,132
2021-10-14 15:53:45.720549,141
2021-10-14 15:53:45.720557,156
2021-10-14 15:53:45.720565,170
2021-10-14 15:53:45.720573,170
2021-10-14 15:53:45.720582,163
2021-10-14 15:53:45.720590,161
2021-10-14 15:53:45.720598,170
2021-10-14 15:53:45.720607,182
2021-10-14 15:53:45.720661,168
2021-10-14 15:53:45.720670,156
2021-10-14 15:53:45.720678,161
2021-10-14 15:53:45.720686,156
2021-10-14 15:53:45.720694,132
2021-10-14 15:53:45.720703,108
2021-10-14 15:53:45.720711,84
2021-10-14 15:53:45.720719,45
2021-10-14 15:53:45.720727,16
2021-10-14 15:53:45.720736,2
2021-10-14 15:53:45.720744,-9
2021-10-14 15:53:45.720752,-31
2021-10-14 15:53:45.720761,-64
2021-10-14 15:53:45.720769,-88
2021-10-14 15:53:45.720777,-91
2021-10-14 15:53:45.720786,-81
2021-10-14 15:53:45.856287,-81
2021-10-14 15:53:45.856309,-88
2021-10-14 15:53:45.856319,-96
2021-10-14 15:53:45.856327,-93
2021-10-14 15:53:45.856336,-86
2021-10-14 15:53:45.856344,-74
2021-10-14 15:53:45.856353,-64
2021-10-14 15:53:45.856361,-62
2021-10-14 15:53:45.856370,-76
2021-10-14 15:53:45.856378,-69
2021-10-14 15:53:45.856386,-43
2021-10-14 15:53:45.856395,-31
2021-10-14 15:53:45.856403,-38
2021-10-14 15:53:45.856411,-45
2021-10-14 15:53:45.856420,-45
2021-10-14 15:53:45.856428,-45
2021-10-14 15:53:45.856436,-43
2021-10-14 15:53:45.856445,-31
2021-10-14 15:53:45.856453,-19
2021-10-14 15:53:45.856461,-26
2021-10-14 15:53:45.856469,-38
2021-10-14 15:53:45.856478,-31
2021-10-14 15:53:45.856486,-28
2021-10-14 15:53:45.856495,-33
2021-10-14 15:53:45.856503,-31
2021-10-14 15:53:45.856512,-28
2021-10-14 15:53:45.856520,-38
2021-10-14 15:53:45.856528,-33
2021-10-14 15:53:45.856537,-21
2021-10-14 15:53:45.856545,-21
2021-10-14 15:53:46.081585,-21
2021-10-14 15:53:46.081607,-21
2021-10-14 15:53:46.081616,-31
2021-10-14 15:53:46.081625,-26
2021-10-14 15:53:46.081633,-2
2021-10-14 15:53:46.081641,4
2021-10-14 15:53:46.081650,-7
2021-10-14 15:53:46.081658,-16
2021-10-14 15:53:46.081667,-19
2021-10-14 15:53:46.081675,-14
2021-10-14 15:53:46.081683,-7
2021-10-14 15:53:46.081692,0
2021-10-14 15:53:46.081700,2
2021-10-14 15:53:46.081709,-2
2021-10-14 15:53:46.081717,-2
2021-10-14 15:53:46.081725,-9
2021-10-14 15:53:46.081733,-28
2021-10-14 15:53:46.081742,-28
2021-10-14 15:53:46.081750,-12
2021-10-14 15:53:46.081758,-7
2021-10-14 15:53:46.081767,-4
2021-10-14 15:53:46.081775,9
2021-10-14 15:53:46.081783,26
2021-10-14 15:53:46.081792,33
2021-10-14 15:53:46.081800,21
2021-10-14 15:53:46.081808,0
2021-10-14 15:53:46.081817,-12
2021-10-14 15:53:46.081825,-14
2021-10-14 15:53:46.081833,-9
2021-10-14 15:53:46.081841,-7
2021-10-14 15:53:46.306644,-9
2021-10-14 15:53:46.306665,-7
2021-10-14 15:53:46.306674,2
2021-10-14 15:53:46.306681,9
2021-10-14 15:53:46.306688,14
2021-10-14 15:53:46.306695,16
2021-10-14 15:53:46.306703,36
2021-10-14 15:53:46.306711,146
2021-10-14 15:53:46.306718,447
2021-10-14 15:53:46.306726,755
2021-10-14 15:53:46.306734,529
2021-10-14 15:53:46.306742,-387
2021-10-14 15:53:46.306751,-1034
2021-10-14 15:53:46.306759,-719
2021-10-14 15:53:46.306767,-230
2021-10-14 15:53:46.306774,-125
2021-10-14 15:53:46.306782,-28
2021-10-14 15:53:46.306791,96
2021-10-14 15:53:46.306798,88
2021-10-14 15:53:46.306805,72
2021-10-14 15:53:46.306813,105
2021-10-14 15:53:46.306821,113
2021-10-14 15:53:46.306829,103
2021-10-14 15:53:46.306837,117
2021-10-14 15:53:46.306845,125
2021-10-14 15:53:46.306853,120
2021-10-14 15:53:46.306861,115
2021-10-14 15:53:46.306870,115
2021-10-14 15:53:46.306878,125
2021-10-14 15:53:46.306886,139
2021-10-14 15:53:46.575264,144
2021-10-14 15:53:46.575285,151
2021-10-14 15:53:46.575294,163
2021-10-14 15:53:46.575303,168
2021-10-14 15:53:46.575311,168
2021-10-14 15:53:46.575319,173
2021-10-14 15:53:46.575328,177
2021-10-14 15:53:46.575336,182
2021-10-14 15:53:46.575345,189
2021-10-14 15:53:46.575353,182
2021-10-14 15:53:46.575361,161
2021-10-14 15:53:46.575369,127
2021-10-14 15:53:46.575378,86
2021-10-14 15:53:46.575386,62
2021-10-14 15:53:46.575394,48
2021-10-14 15:53:46.575402,16
2021-10-14 15:53:46.575411,-16
2021-10-14 15:53:46.575419,-45
2021-10-14 15:53:46.575427,-67
2021-10-14 15:53:46.575436,-79
2021-10-14 15:53:46.575444,-93
2021-10-14 15:53:46.575452,-117
2021-10-14 15:53:46.575460,-137
2021-10-14 15:53:46.575468,-134
2021-10-14 15:53:46.575477,-129
2021-10-14 15:53:46.575485,-129
2021-10-14 15:53:46.575493,-120
2021-10-14 15:53:46.575501,-117
2021-10-14 15:53:46.575509,-129
2021-10-14 15:53:46.575518,-125
2021-10-14 15:53:46.756258,-103
2021-10-14 15:53:46.756278,-93
2021-10-14 15:53:46.756287,-96
2021-10-14 15:53:46.756296,-91
2021-10-14 15:53:46.756304,-91
2021-10-14 15:53:46.756313,-98
2021-10-14 15:53:46.756321,-86
2021-10-14 15:53:46.756329,-69
2021-10-14 15:53:46.756337,-76
2021-10-14 15:53:46.756345,-81
2021-10-14 15:53:46.756352,-81
2021-10-14 15:53:46.756360,-79
2021-10-14 15:53:46.756368,-76
2021-10-14 15:53:46.756376,-72
2021-10-14 15:53:46.756384,-72
2021-10-14 15:53:46.756392,-72
2021-10-14 15:53:46.756400,-69
2021-10-14 15:53:46.756408,-67
2021-10-14 15:53:46.756417,-64
2021-10-14 15:53:46.756425,-67
2021-10-14 15:53:46.756433,-64
2021-10-14 15:53:46.756442,-57
2021-10-14 15:53:46.756450,-57
2021-10-14 15:53:46.756458,-57
2021-10-14 15:53:46.756464,-48
2021-10-14 15:53:46.756473,-38
2021-10-14 15:53:46.756481,-40
2021-10-14 15:53:46.756489,-45
2021-10-14 15:53:46.756497,-40
2021-10-14 15:53:46.756505,-38
2021-10-14 15:53:47.026307,-40
2021-10-14 15:53:47.026329,-40
2021-10-14 15:53:47.026337,-38
2021-10-14 15:53:47.026345,-43
2021-10-14 15:53:47.026353,-50
2021-10-14 15:53:47.026361,-50
2021-10-14 15:53:47.026368,-40
2021-10-14 15:53:47.026376,-38
2021-10-14 15:53:47.026384,-38
2021-10-14 15:53:47.026391,-36
2021-10-14 15:53:47.026399,-38
2021-10-14 15:53:47.026407,-33
2021-10-14 15:53:47.026414,-14
2021-10-14 15:53:47.026422,-7
2021-10-14 15:53:47.026430,-4
2021-10-14 15:53:47.026437,0
2021-10-14 15:53:47.026445,-9
2021-10-14 15:53:47.026453,-28
2021-10-14 15:53:47.026465,-36
2021-10-14 15:53:47.026475,-33
2021-10-14 15:53:47.026483,-28
2021-10-14 15:53:47.026490,-28
2021-10-14 15:53:47.026498,-33
2021-10-14 15:53:47.026506,-26
2021-10-14 15:53:47.026513,-19
2021-10-14 15:53:47.026521,-21
2021-10-14 15:53:47.026529,-21
2021-10-14 15:53:47.026536,-19
2021-10-14 15:53:47.026544,12
2021-10-14 15:53:47.026552,192
2021-10-14 15:53:47.251625,567
2021-10-14 15:53:47.251646,764
2021-10-14 15:53:47.251656,221
2021-10-14 15:53:47.251665,-774
2021-10-14 15:53:47.251673,-1065
2021-10-14 15:53:47.251681,-521
2021-10-14 15:53:47.251690,-149
2021-10-14 15:53:47.251698,-117
2021-10-14 15:53:47.251706,-12
2021-10-14 15:53:47.251715,67
2021-10-14 15:53:47.251723,28
2021-10-14 15:53:47.251732,31
2021-10-14 15:53:47.251740,69
2021-10-14 15:53:47.251748,69
2021-10-14 15:53:47.251756,62
2021-10-14 15:53:47.251765,67
2021-10-14 15:53:47.251773,72
2021-10-14 15:53:47.251781,76
2021-10-14 15:53:47.251790,86
2021-10-14 15:53:47.251799,93
2021-10-14 15:53:47.251807,101
2021-10-14 15:53:47.251816,103
2021-10-14 15:53:47.251824,115
2021-10-14 15:53:47.251832,137
2021-10-14 15:53:47.251840,146
2021-10-14 15:53:47.251848,151
2021-10-14 15:53:47.251857,158
2021-10-14 15:53:47.251865,163
2021-10-14 15:53:47.251873,177
2021-10-14 15:53:47.251881,185
2021-10-14 15:53:47.476595,175
2021-10-14 15:53:47.476616,168
2021-10-14 15:53:47.476626,144
2021-10-14 15:53:47.476634,105
2021-10-14 15:53:47.476643,79
2021-10-14 15:53:47.476651,55
2021-10-14 15:53:47.476659,26
2021-10-14 15:53:47.476668,-4
2021-10-14 15:53:47.476676,-48
2021-10-14 15:53:47.476684,-81
2021-10-14 15:53:47.476693,-96
2021-10-14 15:53:47.476701,-105
2021-10-14 15:53:47.476709,-115
2021-10-14 15:53:47.476718,-122
2021-10-14 15:53:47.476726,-125
2021-10-14 15:53:47.476734,-129
2021-10-14 15:53:47.476742,-132
2021-10-14 15:53:47.476751,-129
2021-10-14 15:53:47.476759,-125
2021-10-14 15:53:47.476767,-115
2021-10-14 15:53:47.476775,-113
2021-10-14 15:53:47.476784,-110
2021-10-14 15:53:47.476792,-103
2021-10-14 15:53:47.476800,-91
2021-10-14 15:53:47.476808,-79
2021-10-14 15:53:47.476817,-64
2021-10-14 15:53:47.476825,-62
2021-10-14 15:53:47.476833,-72
2021-10-14 15:53:47.476842,-64
2021-10-14 15:53:47.476850,-43
2021-10-14 15:53:47.701243,-38
2021-10-14 15:53:47.701273,-40
2021-10-14 15:53:47.701282,-48
2021-10-14 15:53:47.701291,-57
2021-10-14 15:53:47.701299,-55
2021-10-14 15:53:47.701308,-45
2021-10-14 15:53:47.701316,-48
2021-10-14 15:53:47.701325,-60
2021-10-14 15:53:47.701333,-69
2021-10-14 15:53:47.701341,-72
2021-10-14 15:53:47.701349,-67
2021-10-14 15:53:47.701358,-55
2021-10-14 15:53:47.701366,-52
2021-10-14 15:53:47.701374,-60
2021-10-14 15:53:47.701382,-67
2021-10-14 15:53:47.701391,-62
2021-10-14 15:53:47.701399,-52
2021-10-14 15:53:47.701407,-45
2021-10-14 15:53:47.701415,-43
2021-10-14 15:53:47.701424,-45
2021-10-14 15:53:47.701432,-48
2021-10-14 15:53:47.701440,-43
2021-10-14 15:53:47.701448,-36
2021-10-14 15:53:47.701457,-31
2021-10-14 15:53:47.701465,-26
2021-10-14 15:53:47.701473,-26
2021-10-14 15:53:47.701481,-28
2021-10-14 15:53:47.701490,-26
2021-10-14 15:53:47.701498,-19
2021-10-14 15:53:47.701506,-12
2021-10-14 15:53:47.926226,-9
2021-10-14 15:53:47.926252,-12
2021-10-14 15:53:47.926262,-14
2021-10-14 15:53:47.926270,-16
2021-10-14 15:53:47.926279,-4
2021-10-14 15:53:47.926287,14
2021-10-14 15:53:47.926295,19
2021-10-14 15:53:47.926304,14
2021-10-14 15:53:47.926312,12
2021-10-14 15:53:47.926320,-2
2021-10-14 15:53:47.926328,-26
2021-10-14 15:53:47.926336,-36
2021-10-14 15:53:47.926345,-31
2021-10-14 15:53:47.926353,-28
2021-10-14 15:53:47.926361,-31
2021-10-14 15:53:47.926369,-36
2021-10-14 15:53:47.926378,-38
2021-10-14 15:53:47.926386,-26
2021-10-14 15:53:47.926394,-12
2021-10-14 15:53:47.926403,-9
2021-10-14 15:53:47.926411,-4
2021-10-14 15:53:47.926419,19
2021-10-14 15:53:47.926428,163
2021-10-14 15:53:47.926436,524
2021-10-14 15:53:47.926445,786
2021-10-14 15:53:47.926453,375
2021-10-14 15:53:47.926461,-598
2021-10-14 15:53:47.926470,-1055
2021-10-14 15:53:47.926478,-569
2021-10-14 15:53:47.926486,-103
2021-10-14 15:53:48.151623,-67
2021-10-14 15:53:48.151643,2
2021-10-14 15:53:48.151653,105
2021-10-14 15:53:48.151661,79
2021-10-14 15:53:48.151669,67
2021-10-14 15:53:48.151678,98
2021-10-14 15:53:48.151686,86
2021-10-14 15:53:48.151694,72
2021-10-14 15:53:48.151703,86
2021-10-14 15:53:48.151711,86
2021-10-14 15:53:48.151719,76
2021-10-14 15:53:48.151727,76
2021-10-14 15:53:48.151735,74
2021-10-14 15:53:48.151743,81
2021-10-14 15:53:48.151752,91
2021-10-14 15:53:48.151760,98
2021-10-14 15:53:48.151768,105
2021-10-14 15:53:48.151776,120
2021-10-14 15:53:48.151785,132
2021-10-14 15:53:48.151805,144
2021-10-14 15:53:48.151814,156
2021-10-14 15:53:48.151822,161
2021-10-14 15:53:48.151830,163
2021-10-14 15:53:48.151838,165
2021-10-14 15:53:48.151847,156
2021-10-14 15:53:48.151855,139
2021-10-14 15:53:48.151863,120
2021-10-14 15:53:48.151872,98
2021-10-14 15:53:48.151880,74
2021-10-14 15:53:48.151888,43
2021-10-14 15:53:48.376248,12
2021-10-14 15:53:48.376270,-9
2021-10-14 15:53:48.376279,-33
2021-10-14 15:53:48.376288,-55
2021-10-14 15:53:48.376296,-69
2021-10-14 15:53:48.376305,-91
2021-10-14 15:53:48.376313,-105
2021-10-14 15:53:48.376321,-103
2021-10-14 15:53:48.376330,-105
2021-10-14 15:53:48.376338,-113
2021-10-14 15:53:48.376346,-105
2021-10-14 15:53:48.376355,-105
2021-10-14 15:53:48.376363,-117
2021-10-14 15:53:48.376371,-117
2021-10-14 15:53:48.376379,-103
2021-10-14 15:53:48.376388,-101
2021-10-14 15:53:48.376396,-101
2021-10-14 15:53:48.376404,-91
2021-10-14 15:53:48.376413,-74
2021-10-14 15:53:48.376421,-67
2021-10-14 15:53:48.376429,-67
2021-10-14 15:53:48.376437,-67
2021-10-14 15:53:48.376446,-60
2021-10-14 15:53:48.376454,-50
2021-10-14 15:53:48.376462,-50
2021-10-14 15:53:48.376471,-45
2021-10-14 15:53:48.376479,-40
2021-10-14 15:53:48.376487,-40
2021-10-14 15:53:48.376495,-36
2021-10-14 15:53:48.376503,-31
2021-10-14 15:53:48.735312,-31
2021-10-14 15:53:48.735332,-31
2021-10-14 15:53:48.735342,-33
2021-10-14 15:53:48.735350,-40
2021-10-14 15:53:48.735358,-43
2021-10-14 15:53:48.735367,-45
2021-10-14 15:53:48.735375,-40
2021-10-14 15:53:48.735383,-31
2021-10-14 15:53:48.735392,-31
2021-10-14 15:53:48.735400,-31
2021-10-14 15:53:48.735408,-33
2021-10-14 15:53:48.735416,-38
2021-10-14 15:53:48.735424,-33
2021-10-14 15:53:48.735433,-24
2021-10-14 15:53:48.735441,-33
2021-10-14 15:53:48.735449,-55
2021-10-14 15:53:48.735457,-57
2021-10-14 15:53:48.735465,-50
2021-10-14 15:53:48.735473,-48
2021-10-14 15:53:48.735482,-45
2021-10-14 15:53:48.735490,-40
2021-10-14 15:53:48.735498,-36
2021-10-14 15:53:48.735506,-33
2021-10-14 15:53:48.735514,-26
2021-10-14 15:53:48.735523,-24
2021-10-14 15:53:48.735531,-28
2021-10-14 15:53:48.735539,-24
2021-10-14 15:53:48.735547,-12
2021-10-14 15:53:48.735555,-7
2021-10-14 15:53:48.735564,-2
2021-10-14 15:53:48.826223,16
2021-10-14 15:53:48.826246,26
2021-10-14 15:53:48.826255,28
2021-10-14 15:53:48.826264,28
2021-10-14 15:53:48.826272,2
2021-10-14 15:53:48.826280,-31
2021-10-14 15:53:48.826289,-36
2021-10-14 15:53:48.826297,-16
2021-10-14 15:53:48.826306,-14
2021-10-14 15:53:48.826314,-26
2021-10-14 15:53:48.826322,-31
2021-10-14 15:53:48.826331,-24
2021-10-14 15:53:48.826339,-16
2021-10-14 15:53:48.826347,-9
2021-10-14 15:53:48.826355,2
2021-10-14 15:53:48.826364,12
2021-10-14 15:53:48.826372,28
2021-10-14 15:53:48.826380,153
2021-10-14 15:53:48.826389,480
2021-10-14 15:53:48.826397,750
2021-10-14 15:53:48.826405,389
2021-10-14 15:53:48.826413,-550
2021-10-14 15:53:48.826422,-1005
2021-10-14 15:53:48.826430,-579
2021-10-14 15:53:48.826438,-163
2021-10-14 15:53:48.826446,-86
2021-10-14 15:53:48.826455,9
2021-10-14 15:53:48.826463,93
2021-10-14 15:53:48.826471,74
2021-10-14 15:53:48.826480,76
2021-10-14 15:53:49.096632,105
2021-10-14 15:53:49.096658,110
2021-10-14 15:53:49.096668,108
2021-10-14 15:53:49.096676,101
2021-10-14 15:53:49.096685,93
2021-10-14 15:53:49.096693,108
2021-10-14 15:53:49.096701,125
2021-10-14 15:53:49.096710,127
2021-10-14 15:53:49.096718,125
2021-10-14 15:53:49.096726,115
2021-10-14 15:53:49.096735,125
2021-10-14 15:53:49.096743,151
2021-10-14 15:53:49.096751,161
2021-10-14 15:53:49.096760,165
2021-10-14 15:53:49.096768,177
2021-10-14 15:53:49.096776,187
2021-10-14 15:53:49.096785,182
2021-10-14 15:53:49.096793,182
2021-10-14 15:53:49.096802,187
2021-10-14 15:53:49.096810,175
2021-10-14 15:53:49.096818,141
2021-10-14 15:53:49.096826,115
2021-10-14 15:53:49.096835,110
2021-10-14 15:53:49.096843,88
2021-10-14 15:53:49.096851,43
2021-10-14 15:53:49.096859,14
2021-10-14 15:53:49.096868,-2
2021-10-14 15:53:49.096876,-28
2021-10-14 15:53:49.096885,-43
2021-10-14 15:53:49.096893,-52
2021-10-14 15:53:49.321638,-62
2021-10-14 15:53:49.321659,-64
2021-10-14 15:53:49.321668,-81
2021-10-14 15:53:49.321677,-93
2021-10-14 15:53:49.321685,-81
2021-10-14 15:53:49.321693,-81
2021-10-14 15:53:49.321702,-91
2021-10-14 15:53:49.321710,-88
2021-10-14 15:53:49.321718,-86
2021-10-14 15:53:49.321727,-93
2021-10-14 15:53:49.321735,-84
2021-10-14 15:53:49.321743,-72
2021-10-14 15:53:49.321751,-67
2021-10-14 15:53:49.321759,-57
2021-10-14 15:53:49.321767,-62
2021-10-14 15:53:49.321776,-69
2021-10-14 15:53:49.321784,-52
2021-10-14 15:53:49.321792,-38
2021-10-14 15:53:49.321800,-45
2021-10-14 15:53:49.321808,-52
2021-10-14 15:53:49.321817,-55
2021-10-14 15:53:49.321825,-50
2021-10-14 15:53:49.321833,-45
2021-10-14 15:53:49.321841,-43
2021-10-14 15:53:49.321849,-43
2021-10-14 15:53:49.321857,-43
2021-10-14 15:53:49.321866,-48
2021-10-14 15:53:49.321874,-45
2021-10-14 15:53:49.321882,-33
2021-10-14 15:53:49.321890,-31
2021-10-14 15:53:49.546241,-43
2021-10-14 15:53:49.546262,-43
2021-10-14 15:53:49.546272,-36
2021-10-14 15:53:49.546280,-33
2021-10-14 15:53:49.546288,-33
2021-10-14 15:53:49.546297,-28
2021-10-14 15:53:49.546305,-21
2021-10-14 15:53:49.546314,-26
2021-10-14 15:53:49.546322,-40
2021-10-14 15:53:49.546330,-43
2021-10-14 15:53:49.546338,-28
2021-10-14 15:53:49.546347,-14
2021-10-14 15:53:49.546355,-19
2021-10-14 15:53:49.546363,-28
2021-10-14 15:53:49.546372,-36
2021-10-14 15:53:49.546380,-36
2021-10-14 15:53:49.546388,-24
2021-10-14 15:53:49.546397,-12
2021-10-14 15:53:49.546405,-7
2021-10-14 15:53:49.546414,0
2021-10-14 15:53:49.546422,9
2021-10-14 15:53:49.546430,14
2021-10-14 15:53:49.546439,12
2021-10-14 15:53:49.546447,-9
2021-10-14 15:53:49.546455,-36
2021-10-14 15:53:49.546463,-43
2021-10-14 15:53:49.546472,-45
2021-10-14 15:53:49.546480,-45
2021-10-14 15:53:49.546488,-43
2021-10-14 15:53:49.546497,-33
2021-10-14 15:53:49.816491,-28
2021-10-14 15:53:49.816512,-26
2021-10-14 15:53:49.816521,-26
2021-10-14 15:53:49.816530,-19
2021-10-14 15:53:49.816538,-2
2021-10-14 15:53:49.816547,45
2021-10-14 15:53:49.816555,233
2021-10-14 15:53:49.816563,598
2021-10-14 15:53:49.816572,733
2021-10-14 15:53:49.816580,96
2021-10-14 15:53:49.816589,-839
2021-10-14 15:53:49.816597,-957
2021-10-14 15:53:49.816606,-435
2021-10-14 15:53:49.816614,-175
2021-10-14 15:53:49.816623,-105
2021-10-14 15:53:49.816631,38
2021-10-14 15:53:49.816640,88
2021-10-14 15:53:49.816648,57
2021-10-14 15:53:49.816656,74
2021-10-14 15:53:49.816665,98
2021-10-14 15:53:49.816673,101
2021-10-14 15:53:49.816681,103
2021-10-14 15:53:49.816689,108
2021-10-14 15:53:49.816698,113
2021-10-14 15:53:49.816706,122
2021-10-14 15:53:49.816715,129
2021-10-14 15:53:49.816723,132
2021-10-14 15:53:49.816732,141
2021-10-14 15:53:49.816740,151
2021-10-14 15:53:49.816771,153
2021-10-14 15:53:49.996643,165
2021-10-14 15:53:49.996664,175
2021-10-14 15:53:49.996673,180
2021-10-14 15:53:49.996681,189
2021-10-14 15:53:49.996690,204
2021-10-14 15:53:49.996698,216
2021-10-14 15:53:49.996706,211
2021-10-14 15:53:49.996715,197
2021-10-14 15:53:49.996723,192
2021-10-14 15:53:49.996731,185
2021-10-14 15:53:49.996740,163
2021-10-14 15:53:49.996748,134
2021-10-14 15:53:49.996756,108
2021-10-14 15:53:49.996764,76
2021-10-14 15:53:49.996773,36
2021-10-14 15:53:49.996781,2
2021-10-14 15:53:49.996789,-4
2021-10-14 15:53:49.996797,-4
2021-10-14 15:53:49.996805,-24
2021-10-14 15:53:49.996814,-36
2021-10-14 15:53:49.996822,-38
2021-10-14 15:53:49.996830,-48
2021-10-14 15:53:49.996838,-50
2021-10-14 15:53:49.996846,-45
2021-10-14 15:53:49.996855,-50
2021-10-14 15:53:49.996863,-55
2021-10-14 15:53:49.996871,-55
2021-10-14 15:53:49.996880,-52
2021-10-14 15:53:49.996888,-50
2021-10-14 15:53:49.996896,-57
2021-10-14 15:53:50.221273,-62
2021-10-14 15:53:50.221294,-57
2021-10-14 15:53:50.221303,-52
2021-10-14 15:53:50.221311,-43
2021-10-14 15:53:50.221320,-36
2021-10-14 15:53:50.221328,-43
2021-10-14 15:53:50.221336,-50
2021-10-14 15:53:50.221345,-48
2021-10-14 15:53:50.221353,-43
2021-10-14 15:53:50.221361,-38
2021-10-14 15:53:50.221369,-36
2021-10-14 15:53:50.221378,-43
2021-10-14 15:53:50.221386,-50
2021-10-14 15:53:50.221394,-45
2021-10-14 15:53:50.221403,-33
2021-10-14 15:53:50.221411,-26
2021-10-14 15:53:50.221419,-21
2021-10-14 15:53:50.221427,-28
2021-10-14 15:53:50.221436,-40
2021-10-14 15:53:50.221444,-28
2021-10-14 15:53:50.221452,-14
2021-10-14 15:53:50.221460,-21
2021-10-14 15:53:50.221469,-19
2021-10-14 15:53:50.221477,-9
2021-10-14 15:53:50.221485,-14
2021-10-14 15:53:50.221493,-16
2021-10-14 15:53:50.221502,-2
2021-10-14 15:53:50.221510,2
2021-10-14 15:53:50.221518,-2
2021-10-14 15:53:50.221527,0
2021-10-14 15:53:50.446646,2
2021-10-14 15:53:50.446667,7
2021-10-14 15:53:50.446676,7
2021-10-14 15:53:50.446685,2
2021-10-14 15:53:50.446693,2
2021-10-14 15:53:50.446701,-2
2021-10-14 15:53:50.446710,2
2021-10-14 15:53:50.446718,21
2021-10-14 15:53:50.446726,38
2021-10-14 15:53:50.446734,40
2021-10-14 15:53:50.446742,38
2021-10-14 15:53:50.446750,33
2021-10-14 15:53:50.446759,19
2021-10-14 15:53:50.446767,9
2021-10-14 15:53:50.446775,7
2021-10-14 15:53:50.446783,7
2021-10-14 15:53:50.446791,7
2021-10-14 15:53:50.446799,7
2021-10-14 15:53:50.446808,12
2021-10-14 15:53:50.446816,19
2021-10-14 15:53:50.446824,19
2021-10-14 15:53:50.446832,19
2021-10-14 15:53:50.446840,24
2021-10-14 15:53:50.446848,40
2021-10-14 15:53:50.446857,91
2021-10-14 15:53:50.446865,288
2021-10-14 15:53:50.446873,658
2021-10-14 15:53:50.446881,800
2021-10-14 15:53:50.446889,192
2021-10-14 15:53:50.446898,-757
2021-10-14 15:53:50.849932,-925
2021-10-14 15:53:50.849953,-382
2021-10-14 15:53:50.849963,-81
2021-10-14 15:53:50.849971,-64
2021-10-14 15:53:50.849980,36
2021-10-14 15:53:50.849988,105
2021-10-14 15:53:50.849996,76
2021-10-14 15:53:50.850005,72
2021-10-14 15:53:50.850013,86
2021-10-14 15:53:50.850021,79
2021-10-14 15:53:50.850029,72
2021-10-14 15:53:50.850037,86
2021-10-14 15:53:50.850046,105
2021-10-14 15:53:50.850054,115
2021-10-14 15:53:50.850062,120
2021-10-14 15:53:50.850071,117
2021-10-14 15:53:50.850079,108
2021-10-14 15:53:50.850087,122
2021-10-14 15:53:50.850096,146
2021-10-14 15:53:50.850104,163
2021-10-14 15:53:50.850112,175
2021-10-14 15:53:50.850120,182
2021-10-14 15:53:50.850129,182
2021-10-14 15:53:50.850137,189
2021-10-14 15:53:50.850145,199
2021-10-14 15:53:50.850153,204
2021-10-14 15:53:50.850162,206
2021-10-14 15:53:50.850170,202
2021-10-14 15:53:50.850178,177
2021-10-14 15:53:50.850187,151
2021-10-14 15:53:51.031664,132
2021-10-14 15:53:51.031685,105
2021-10-14 15:53:51.031695,74
2021-10-14 15:53:51.031703,36
2021-10-14 15:53:51.031712,2
2021-10-14 15:53:51.031720,-14
2021-10-14 15:53:51.031729,-24
2021-10-14 15:53:51.031737,-31
2021-10-14 15:53:51.031745,-36
2021-10-14 15:53:51.031754,-43
2021-10-14 15:53:51.031762,-45
2021-10-14 15:53:51.031770,-48
2021-10-14 15:53:51.031779,-60
2021-10-14 15:53:51.031787,-60
2021-10-14 15:53:51.031796,-55
2021-10-14 15:53:51.031804,-62
2021-10-14 15:53:51.031812,-64
2021-10-14 15:53:51.031821,-55
2021-10-14 15:53:51.031829,-57
2021-10-14 15:53:51.031837,-60
2021-10-14 15:53:51.031845,-57
2021-10-14 15:53:51.031854,-69
2021-10-14 15:53:51.031862,-74
2021-10-14 15:53:51.031871,-55
2021-10-14 15:53:51.031879,-48
2021-10-14 15:53:51.031887,-48
2021-10-14 15:53:51.031923,-40
2021-10-14 15:53:51.031934,-40
2021-10-14 15:53:51.031942,-45
2021-10-14 15:53:51.031951,-38
2021-10-14 15:53:51.166658,-31
2021-10-14 15:53:51.166679,-36
2021-10-14 15:53:51.166688,-43
2021-10-14 15:53:51.166697,-43
2021-10-14 15:53:51.166705,-40
2021-10-14 15:53:51.166721,-45
2021-10-14 15:53:51.166729,-50
2021-10-14 15:53:51.166737,-43
2021-10-14 15:53:51.166746,-40
2021-10-14 15:53:51.166754,-50
2021-10-14 15:53:51.166762,-52
2021-10-14 15:53:51.166770,-48
2021-10-14 15:53:51.166778,-52
2021-10-14 15:53:51.166787,-60
2021-10-14 15:53:51.166795,-62
2021-10-14 15:53:51.166803,-62
2021-10-14 15:53:51.166811,-57
2021-10-14 15:53:51.166820,-50
2021-10-14 15:53:51.166828,-48
2021-10-14 15:53:51.166836,-43
2021-10-14 15:53:51.166844,-43
2021-10-14 15:53:51.166853,-45
2021-10-14 15:53:51.166861,-36
2021-10-14 15:53:51.166869,-26
2021-10-14 15:53:51.166877,-24
2021-10-14 15:53:51.166885,-19
2021-10-14 15:53:51.166894,-9
2021-10-14 15:53:51.166902,-9
2021-10-14 15:53:51.166910,-2
2021-10-14 15:53:51.166918,9
2021-10-14 15:53:51.480707,9
2021-10-14 15:53:51.480728,-9
2021-10-14 15:53:51.480738,-28
2021-10-14 15:53:51.480746,-43
2021-10-14 15:53:51.480755,-43
2021-10-14 15:53:51.480763,-26
2021-10-14 15:53:51.480771,-14
2021-10-14 15:53:51.480779,-26
2021-10-14 15:53:51.480788,-45
2021-10-14 15:53:51.480796,-45
2021-10-14 15:53:51.480804,-26
2021-10-14 15:53:51.480813,-16
2021-10-14 15:53:51.480821,-7
2021-10-14 15:53:51.480830,55
2021-10-14 15:53:51.480838,303
2021-10-14 15:53:51.480846,675
2021-10-14 15:53:51.480855,682
2021-10-14 15:53:51.480863,-88
2021-10-14 15:53:51.480871,-952
2021-10-14 15:53:51.480880,-870
2021-10-14 15:53:51.480888,-295
2021-10-14 15:53:51.480896,-105
2021-10-14 15:53:51.480904,-76
2021-10-14 15:53:51.480913,57
2021-10-14 15:53:51.480921,91
2021-10-14 15:53:51.480929,48
2021-10-14 15:53:51.480938,69
2021-10-14 15:53:51.480946,96
2021-10-14 15:53:51.480954,86
2021-10-14 15:53:51.480962,86
2021-10-14 15:53:51.616339,93
2021-10-14 15:53:51.616360,96
2021-10-14 15:53:51.616369,103
2021-10-14 15:53:51.616387,117
2021-10-14 15:53:51.616396,122
2021-10-14 15:53:51.616404,127
2021-10-14 15:53:51.616412,139
2021-10-14 15:53:51.616421,139
2021-10-14 15:53:51.616429,132
2021-10-14 15:53:51.616437,141
2021-10-14 15:53:51.616446,156
2021-10-14 15:53:51.616454,168
2021-10-14 15:53:51.616462,177
2021-10-14 15:53:51.616471,185
2021-10-14 15:53:51.616479,177
2021-10-14 15:53:51.616487,170
2021-10-14 15:53:51.616496,168
2021-10-14 15:53:51.616504,151
2021-10-14 15:53:51.616512,125
2021-10-14 15:53:51.616520,91
2021-10-14 15:53:51.616529,60
2021-10-14 15:53:51.616537,31
2021-10-14 15:53:51.616545,4
2021-10-14 15:53:51.616553,-16
2021-10-14 15:53:51.616561,-38
2021-10-14 15:53:51.616570,-67
2021-10-14 15:53:51.616578,-86
2021-10-14 15:53:51.616586,-88
2021-10-14 15:53:51.616594,-79
2021-10-14 15:53:51.616603,-72
2021-10-14 15:53:51.841302,-76
2021-10-14 15:53:51.841323,-81
2021-10-14 15:53:51.841332,-79
2021-10-14 15:53:51.841341,-72
2021-10-14 15:53:51.841350,-74
2021-10-14 15:53:51.841358,-86
2021-10-14 15:53:51.841366,-91
2021-10-14 15:53:51.841374,-81
2021-10-14 15:53:51.841382,-74
2021-10-14 15:53:51.841391,-72
2021-10-14 15:53:51.841399,-67
2021-10-14 15:53:51.841407,-69
2021-10-14 15:53:51.841415,-84
2021-10-14 15:53:51.841424,-96
2021-10-14 15:53:51.841432,-84
2021-10-14 15:53:51.841440,-72
2021-10-14 15:53:51.841449,-76
2021-10-14 15:53:51.841457,-72
2021-10-14 15:53:51.841465,-67
2021-10-14 15:53:51.841474,-76
2021-10-14 15:53:51.841482,-84
2021-10-14 15:53:51.841490,-74
2021-10-14 15:53:51.841498,-62
2021-10-14 15:53:51.841506,-57
2021-10-14 15:53:51.841515,-62
2021-10-14 15:53:51.841523,-67
2021-10-14 15:53:51.841531,-67
2021-10-14 15:53:51.841539,-55
2021-10-14 15:53:51.841548,-48
2021-10-14 15:53:51.841556,-55
2021-10-14 15:53:52.111288,-55
2021-10-14 15:53:52.111308,-38
2021-10-14 15:53:52.111317,-38
2021-10-14 15:53:52.111326,-50
2021-10-14 15:53:52.111334,-48
2021-10-14 15:53:52.111342,-43
2021-10-14 15:53:52.111350,-50
2021-10-14 15:53:52.111358,-50
2021-10-14 15:53:52.111366,-38
2021-10-14 15:53:52.111374,-28
2021-10-14 15:53:52.111382,-24
2021-10-14 15:53:52.111390,-33
2021-10-14 15:53:52.111398,-38
2021-10-14 15:53:52.111406,-24
2021-10-14 15:53:52.111414,-24
2021-10-14 15:53:52.111422,-19
2021-10-14 15:53:52.111430,-2
2021-10-14 15:53:52.111438,-21
2021-10-14 15:53:52.111446,-55
2021-10-14 15:53:52.111454,-55
2021-10-14 15:53:52.111462,-48
2021-10-14 15:53:52.111470,-45
2021-10-14 15:53:52.111478,-31
2021-10-14 15:53:52.111486,-26
2021-10-14 15:53:52.111495,-38
2021-10-14 15:53:52.111503,-45
2021-10-14 15:53:52.111511,-38
2021-10-14 15:53:52.111519,-28
2021-10-14 15:53:52.111527,-19
2021-10-14 15:53:52.111535,28
2021-10-14 15:53:52.381077,233
2021-10-14 15:53:52.381098,601
2021-10-14 15:53:52.381108,728
2021-10-14 15:53:52.381117,91
2021-10-14 15:53:52.381125,-858
2021-10-14 15:53:52.381133,-1002
2021-10-14 15:53:52.381142,-471
2021-10-14 15:53:52.381151,-175
2021-10-14 15:53:52.381159,-103
2021-10-14 15:53:52.381167,28
2021-10-14 15:53:52.381176,79
2021-10-14 15:53:52.381184,48
2021-10-14 15:53:52.381193,69
2021-10-14 15:53:52.381201,91
2021-10-14 15:53:52.381209,74
2021-10-14 15:53:52.381218,74
2021-10-14 15:53:52.381226,81
2021-10-14 15:53:52.381234,74
2021-10-14 15:53:52.381243,88
2021-10-14 15:53:52.381251,105
2021-10-14 15:53:52.381260,105
2021-10-14 15:53:52.381268,101
2021-10-14 15:53:52.381276,105
2021-10-14 15:53:52.381285,127
2021-10-14 15:53:52.381293,156
2021-10-14 15:53:52.381302,165
2021-10-14 15:53:52.381310,173
2021-10-14 15:53:52.381318,187
2021-10-14 15:53:52.381326,189
2021-10-14 15:53:52.381335,187
2021-10-14 15:53:52.516675,206
2021-10-14 15:53:52.516706,218
2021-10-14 15:53:52.516715,202
2021-10-14 15:53:52.516744,173
2021-10-14 15:53:52.516758,144
2021-10-14 15:53:52.516766,120
2021-10-14 15:53:52.516774,93
2021-10-14 15:53:52.516782,57
2021-10-14 15:53:52.516791,24
2021-10-14 15:53:52.516799,-7
2021-10-14 15:53:52.516808,-48
2021-10-14 15:53:52.516816,-72
2021-10-14 15:53:52.516825,-74
2021-10-14 15:53:52.516833,-81
2021-10-14 15:53:52.516841,-91
2021-10-14 15:53:52.516849,-88
2021-10-14 15:53:52.516858,-91
2021-10-14 15:53:52.516866,-98
2021-10-14 15:53:52.516874,-103
2021-10-14 15:53:52.516882,-98
2021-10-14 15:53:52.516891,-93
2021-10-14 15:53:52.516899,-88
2021-10-14 15:53:52.516907,-84
2021-10-14 15:53:52.516916,-76
2021-10-14 15:53:52.516924,-72
2021-10-14 15:53:52.516932,-67
2021-10-14 15:53:52.516941,-55
2021-10-14 15:53:52.516949,-43
2021-10-14 15:53:52.516957,-45
2021-10-14 15:53:52.516965,-67
2021-10-14 15:53:52.784893,-81
2021-10-14 15:53:52.784913,-72
2021-10-14 15:53:52.784923,-62
2021-10-14 15:53:52.784932,-74
2021-10-14 15:53:52.784940,-84
2021-10-14 15:53:52.784949,-76
2021-10-14 15:53:52.784957,-76
2021-10-14 15:53:52.784965,-81
2021-10-14 15:53:52.784974,-84
2021-10-14 15:53:52.784982,-101
2021-10-14 15:53:52.784991,-113
2021-10-14 15:53:52.784999,-101
2021-10-14 15:53:52.785007,-88
2021-10-14 15:53:52.785015,-86
2021-10-14 15:53:52.785024,-91
2021-10-14 15:53:52.785032,-96
2021-10-14 15:53:52.785041,-88
2021-10-14 15:53:52.785049,-76
2021-10-14 15:53:52.785057,-76
2021-10-14 15:53:52.785065,-88
2021-10-14 15:53:52.785074,-88
2021-10-14 15:53:52.785082,-88
2021-10-14 15:53:52.785090,-86
2021-10-14 15:53:52.785099,-79
2021-10-14 15:53:52.785107,-72
2021-10-14 15:53:52.785115,-69
2021-10-14 15:53:52.785123,-72
2021-10-14 15:53:52.785132,-64
2021-10-14 15:53:52.785140,-43
2021-10-14 15:53:52.785148,-26
2021-10-14 15:53:53.011683,-21
2021-10-14 15:53:53.011705,-14
2021-10-14 15:53:53.011714,-31
2021-10-14 15:53:53.011723,-74
2021-10-14 15:53:53.011731,-81
2021-10-14 15:53:53.011740,-55
2021-10-14 15:53:53.011748,-48
2021-10-14 15:53:53.011757,-50
2021-10-14 15:53:53.011765,-50
2021-10-14 15:53:53.011773,-62
2021-10-14 15:53:53.011782,-60
2021-10-14 15:53:53.011790,-40
2021-10-14 15:53:53.011798,-33
2021-10-14 15:53:53.011807,-31
2021-10-14 15:53:53.011815,0
2021-10-14 15:53:53.011823,149
2021-10-14 15:53:53.011832,512
2021-10-14 15:53:53.011840,795
2021-10-14 15:53:53.011849,379
2021-10-14 15:53:53.011857,-644
2021-10-14 15:53:53.011865,-1120
2021-10-14 15:53:53.011874,-644
2021-10-14 15:53:53.011882,-202
2021-10-14 15:53:53.011890,-146
2021-10-14 15:53:53.011898,-33
2021-10-14 15:53:53.011907,81
2021-10-14 15:53:53.011915,52
2021-10-14 15:53:53.011923,38
2021-10-14 15:53:53.011932,76
2021-10-14 15:53:53.011940,84
2021-10-14 15:53:53.281692,76
2021-10-14 15:53:53.281712,91
2021-10-14 15:53:53.281722,93
2021-10-14 15:53:53.281731,86
2021-10-14 15:53:53.281739,98
2021-10-14 15:53:53.281747,103
2021-10-14 15:53:53.281756,96
2021-10-14 15:53:53.281764,103
2021-10-14 15:53:53.281772,110
2021-10-14 15:53:53.281781,110
2021-10-14 15:53:53.281789,125
2021-10-14 15:53:53.281797,144
2021-10-14 15:53:53.281806,161
2021-10-14 15:53:53.281814,168
2021-10-14 15:53:53.281822,168
2021-10-14 15:53:53.281830,165
2021-10-14 15:53:53.281839,175
2021-10-14 15:53:53.281847,173
2021-10-14 15:53:53.281855,156
2021-10-14 15:53:53.281863,134
2021-10-14 15:53:53.281872,108
2021-10-14 15:53:53.281880,72
2021-10-14 15:53:53.281888,43
2021-10-14 15:53:53.281896,14
2021-10-14 15:53:53.281904,-21
2021-10-14 15:53:53.281913,-50
2021-10-14 15:53:53.281921,-72
2021-10-14 15:53:53.281929,-91
2021-10-14 15:53:53.281937,-96
2021-10-14 15:53:53.281945,-91
2021-10-14 15:53:53.506326,-93
2021-10-14 15:53:53.506353,-98
2021-10-14 15:53:53.506362,-96
2021-10-14 15:53:53.506371,-93
2021-10-14 15:53:53.506379,-86
2021-10-14 15:53:53.506388,-81
2021-10-14 15:53:53.506396,-79
2021-10-14 15:53:53.506404,-84
2021-10-14 15:53:53.506413,-88
2021-10-14 15:53:53.506421,-86
2021-10-14 15:53:53.506430,-72
2021-10-14 15:53:53.506438,-57
2021-10-14 15:53:53.506535,-50
2021-10-14 15:53:53.506546,-52
2021-10-14 15:53:53.506554,-48
2021-10-14 15:53:53.506561,-36
2021-10-14 15:53:53.506568,-31
2021-10-14 15:53:53.506574,-28
2021-10-14 15:53:53.506581,-31
2021-10-14 15:53:53.506589,-43
2021-10-14 15:53:53.506595,-50
2021-10-14 15:53:53.506603,-45
2021-10-14 15:53:53.506611,-40
2021-10-14 15:53:53.506618,-40
2021-10-14 15:53:53.506627,-48
2021-10-14 15:53:53.506635,-52
2021-10-14 15:53:53.506643,-60
2021-10-14 15:53:53.506651,-64
2021-10-14 15:53:53.506659,-67
2021-10-14 15:53:53.506668,-64
2021-10-14 15:53:53.731093,-62
2021-10-14 15:53:53.731114,-62
2021-10-14 15:53:53.731124,-62
2021-10-14 15:53:53.731132,-57
2021-10-14 15:53:53.731141,-57
2021-10-14 15:53:53.731149,-60
2021-10-14 15:53:53.731158,-62
2021-10-14 15:53:53.731166,-64
2021-10-14 15:53:53.731174,-64
2021-10-14 15:53:53.731183,-60
2021-10-14 15:53:53.731191,-52
2021-10-14 15:53:53.731199,-57
2021-10-14 15:53:53.731208,-69
2021-10-14 15:53:53.731216,-67
2021-10-14 15:53:53.731224,-57
2021-10-14 15:53:53.731233,-57
2021-10-14 15:53:53.731241,-55
2021-10-14 15:53:53.731249,-48
2021-10-14 15:53:53.731258,-43
2021-10-14 15:53:53.731266,-36
2021-10-14 15:53:53.731274,-26
2021-10-14 15:53:53.731282,-14
2021-10-14 15:53:53.731291,-9
2021-10-14 15:53:53.731299,-26
2021-10-14 15:53:53.731308,-55
2021-10-14 15:53:53.731316,-55
2021-10-14 15:53:53.731324,-36
2021-10-14 15:53:53.731333,-38
2021-10-14 15:53:53.731341,-50
2021-10-14 15:53:53.731349,-50
2021-10-14 15:53:53.911669,-50
2021-10-14 15:53:53.911690,-43
2021-10-14 15:53:53.911700,-36
2021-10-14 15:53:53.911708,-36
2021-10-14 15:53:53.911717,-24
2021-10-14 15:53:53.911725,21
2021-10-14 15:53:53.911734,180
2021-10-14 15:53:53.911742,555
2021-10-14 15:53:53.911751,812
2021-10-14 15:53:53.911759,322
2021-10-14 15:53:53.911767,-709
2021-10-14 15:53:53.911776,-1082
2021-10-14 15:53:53.911784,-550
2021-10-14 15:53:53.911792,-146
2021-10-14 15:53:53.911801,-122
2021-10-14 15:53:53.911809,-19
2021-10-14 15:53:53.911817,81
2021-10-14 15:53:53.911826,48
2021-10-14 15:53:53.911834,40
2021-10-14 15:53:53.911842,84
2021-10-14 15:53:53.911851,86
2021-10-14 15:53:53.911859,76
2021-10-14 15:53:53.911867,88
2021-10-14 15:53:53.911876,93
2021-10-14 15:53:53.911884,88
2021-10-14 15:53:53.911892,101
2021-10-14 15:53:53.911901,110
2021-10-14 15:53:53.911909,113
2021-10-14 15:53:53.911917,129
2021-10-14 15:53:53.911925,141
2021-10-14 15:53:54.136685,137
2021-10-14 15:53:54.136706,141
2021-10-14 15:53:54.136715,163
2021-10-14 15:53:54.136724,177
2021-10-14 15:53:54.136732,182
2021-10-14 15:53:54.136741,189
2021-10-14 15:53:54.136749,187
2021-10-14 15:53:54.136758,187
2021-10-14 15:53:54.136766,180
2021-10-14 15:53:54.136774,163
2021-10-14 15:53:54.136783,144
2021-10-14 15:53:54.136791,120
2021-10-14 15:53:54.136799,86
2021-10-14 15:53:54.136807,48
2021-10-14 15:53:54.136816,12
2021-10-14 15:53:54.136824,-14
2021-10-14 15:53:54.136832,-40
2021-10-14 15:53:54.136840,-60
2021-10-14 15:53:54.136849,-79
2021-10-14 15:53:54.136857,-96
2021-10-14 15:53:54.136866,-96
2021-10-14 15:53:54.136874,-91
2021-10-14 15:53:54.136882,-91
2021-10-14 15:53:54.136890,-96
2021-10-14 15:53:54.136898,-93
2021-10-14 15:53:54.136907,-84
2021-10-14 15:53:54.136915,-81
2021-10-14 15:53:54.136923,-88
2021-10-14 15:53:54.136931,-86
2021-10-14 15:53:54.136940,-67
2021-10-14 15:53:54.406600,-62
2021-10-14 15:53:54.406620,-69
2021-10-14 15:53:54.406630,-72
2021-10-14 15:53:54.406638,-57
2021-10-14 15:53:54.406647,-48
2021-10-14 15:53:54.406655,-55
2021-10-14 15:53:54.406664,-57
2021-10-14 15:53:54.406672,-43
2021-10-14 15:53:54.406725,-43
2021-10-14 15:53:54.406735,-52
2021-10-14 15:53:54.406743,-57
2021-10-14 15:53:54.406751,-64
2021-10-14 15:53:54.406760,-57
2021-10-14 15:53:54.406768,-45
2021-10-14 15:53:54.406777,-52
2021-10-14 15:53:54.406785,-69
2021-10-14 15:53:54.406794,-81
2021-10-14 15:53:54.406802,-84
2021-10-14 15:53:54.406811,-74
2021-10-14 15:53:54.406819,-64
2021-10-14 15:53:54.406827,-64
2021-10-14 15:53:54.406836,-67
2021-10-14 15:53:54.406844,-69
2021-10-14 15:53:54.406852,-67
2021-10-14 15:53:54.406861,-57
2021-10-14 15:53:54.406869,-55
2021-10-14 15:53:54.406877,-52
2021-10-14 15:53:54.406885,-48
2021-10-14 15:53:54.406894,-50
2021-10-14 15:53:54.406902,-57
2021-10-14 15:53:54.631064,-55
2021-10-14 15:53:54.631085,-43
2021-10-14 15:53:54.631095,-33
2021-10-14 15:53:54.631103,-33
2021-10-14 15:53:54.631111,-40
2021-10-14 15:53:54.631120,-43
2021-10-14 15:53:54.631128,-38
2021-10-14 15:53:54.631137,-26
2021-10-14 15:53:54.631145,-26
2021-10-14 15:53:54.631153,-36
2021-10-14 15:53:54.631162,-38
2021-10-14 15:53:54.631170,-26
2021-10-14 15:53:54.631178,-24
2021-10-14 15:53:54.631187,-26
2021-10-14 15:53:54.631195,-14
2021-10-14 15:53:54.631203,-7
2021-10-14 15:53:54.631212,-12
2021-10-14 15:53:54.631220,0
2021-10-14 15:53:54.631229,12
2021-10-14 15:53:54.631237,-2
2021-10-14 15:53:54.631245,-19
2021-10-14 15:53:54.631253,-28
2021-10-14 15:53:54.631262,-31
2021-10-14 15:53:54.631270,-33
2021-10-14 15:53:54.631278,-43
2021-10-14 15:53:54.631286,-45
2021-10-14 15:53:54.631295,-33
2021-10-14 15:53:54.631303,-26
2021-10-14 15:53:54.631311,-33
2021-10-14 15:53:54.631319,-28
2021-10-14 15:53:54.990355,-14
2021-10-14 15:53:54.990376,-4
2021-10-14 15:53:54.990386,64
2021-10-14 15:53:54.990394,334
2021-10-14 15:53:54.990403,699
2021-10-14 15:53:54.990411,649
2021-10-14 15:53:54.990420,-165
2021-10-14 15:53:54.990428,-978
2021-10-14 15:53:54.990436,-829
2021-10-14 15:53:54.990444,-276
2021-10-14 15:53:54.990453,-122
2021-10-14 15:53:54.990461,-86
2021-10-14 15:53:54.990469,43
2021-10-14 15:53:54.990477,67
2021-10-14 15:53:54.990486,33
2021-10-14 15:53:54.990494,52
2021-10-14 15:53:54.990502,74
2021-10-14 15:53:54.990511,67
2021-10-14 15:53:54.990519,74
2021-10-14 15:53:54.990527,84
2021-10-14 15:53:54.990536,88
2021-10-14 15:53:54.990544,91
2021-10-14 15:53:54.990552,98
2021-10-14 15:53:54.990561,105
2021-10-14 15:53:54.990569,115
2021-10-14 15:53:54.990578,129
2021-10-14 15:53:54.990586,139
2021-10-14 15:53:54.990594,144
2021-10-14 15:53:54.990603,158
2021-10-14 15:53:54.990611,165
2021-10-14 15:53:55.126276,170
2021-10-14 15:53:55.126297,187
2021-10-14 15:53:55.126306,197
2021-10-14 15:53:55.126315,192
2021-10-14 15:53:55.126323,185
2021-10-14 15:53:55.126331,180
2021-10-14 15:53:55.126340,165
2021-10-14 15:53:55.126348,139
2021-10-14 15:53:55.126356,108
2021-10-14 15:53:55.126365,79
2021-10-14 15:53:55.126373,57
2021-10-14 15:53:55.126381,28
2021-10-14 15:53:55.126390,7
2021-10-14 15:53:55.126398,-9
2021-10-14 15:53:55.126406,-36
2021-10-14 15:53:55.126414,-62
2021-10-14 15:53:55.126423,-69
2021-10-14 15:53:55.126431,-62
2021-10-14 15:53:55.126439,-62
2021-10-14 15:53:55.126447,-74
2021-10-14 15:53:55.126456,-84
2021-10-14 15:53:55.126464,-79
2021-10-14 15:53:55.126472,-64
2021-10-14 15:53:55.126480,-62
2021-10-14 15:53:55.126489,-62
2021-10-14 15:53:55.126497,-57
2021-10-14 15:53:55.126505,-60
2021-10-14 15:53:55.126513,-62
2021-10-14 15:53:55.126522,-57
2021-10-14 15:53:55.126530,-55
2021-10-14 15:53:55.351341,-60
2021-10-14 15:53:55.351362,-55
2021-10-14 15:53:55.351372,-55
2021-10-14 15:53:55.351380,-62
2021-10-14 15:53:55.351389,-60
2021-10-14 15:53:55.351397,-57
2021-10-14 15:53:55.351405,-60
2021-10-14 15:53:55.351414,-64
2021-10-14 15:53:55.351422,-74
2021-10-14 15:53:55.351430,-74
