Time,ECG
2021-10-14 16:23:34.601927,-96
2021-10-14 16:23:34.601947,-96
2021-10-14 16:23:34.601957,-81
2021-10-14 16:23:34.601966,-93
2021-10-14 16:23:34.601974,-122
2021-10-14 16:23:34.601983,-113
2021-10-14 16:23:34.601991,-96
2021-10-14 16:23:34.602000,-86
2021-10-14 16:23:34.602008,-72
2021-10-14 16:23:34.602017,-79
2021-10-14 16:23:34.602025,-110
2021-10-14 16:23:34.602034,-134
2021-10-14 16:23:34.602042,-117
2021-10-14 16:23:34.602050,-62
2021-10-14 16:23:34.602059,-38
2021-10-14 16:23:34.602067,-62
2021-10-14 16:23:34.602075,-84
2021-10-14 16:23:34.602084,-76
2021-10-14 16:23:34.602092,-62
2021-10-14 16:23:34.602101,-67
2021-10-14 16:23:34.602109,-74
2021-10-14 16:23:34.602117,-72
2021-10-14 16:23:34.602126,-67
2021-10-14 16:23:34.602134,-62
2021-10-14 16:23:34.602142,-76
2021-10-14 16:23:34.602150,-76
2021-10-14 16:23:34.602159,-55
2021-10-14 16:23:34.602168,-69
2021-10-14 16:23:34.602176,-79
2021-10-14 16:23:34.602184,-60
2021-10-14 16:23:34.764455,-76
2021-10-14 16:23:34.764474,-98
2021-10-14 16:23:34.764483,-79
2021-10-14 16:23:34.764492,-67
2021-10-14 16:23:34.764500,-81
2021-10-14 16:23:34.764508,-74
2021-10-14 16:23:34.764518,-55
2021-10-14 16:23:34.764526,-57
2021-10-14 16:23:34.764534,-69
2021-10-14 16:23:34.764543,-84
2021-10-14 16:23:34.764551,-86
2021-10-14 16:23:34.764559,-79
2021-10-14 16:23:34.764567,-74
2021-10-14 16:23:34.764575,-52
2021-10-14 16:23:34.764584,-40
2021-10-14 16:23:34.764592,-57
2021-10-14 16:23:34.764600,-62
2021-10-14 16:23:34.764609,-50
2021-10-14 16:23:34.764617,-52
2021-10-14 16:23:34.764626,-62
2021-10-14 16:23:34.764634,-64
2021-10-14 16:23:34.764642,-64
2021-10-14 16:23:34.764650,-64
2021-10-14 16:23:34.764658,-64
2021-10-14 16:23:34.764667,-40
2021-10-14 16:23:34.764675,-31
2021-10-14 16:23:34.764683,-55
2021-10-14 16:23:34.764691,-31
2021-10-14 16:23:34.764699,12
2021-10-14 16:23:34.764709,9
2021-10-14 16:23:34.989531,2
2021-10-14 16:23:34.989550,2
2021-10-14 16:23:34.989559,-38
2021-10-14 16:23:34.989568,-79
2021-10-14 16:23:34.989577,-57
2021-10-14 16:23:34.989585,-26
2021-10-14 16:23:34.989594,-40
2021-10-14 16:23:34.989602,-64
2021-10-14 16:23:34.989610,-62
2021-10-14 16:23:34.989619,-36
2021-10-14 16:23:34.989627,-28
2021-10-14 16:23:34.989635,-40
2021-10-14 16:23:34.989643,-48
2021-10-14 16:23:34.989655,-33
2021-10-14 16:23:34.989664,-14
2021-10-14 16:23:34.989672,93
2021-10-14 16:23:34.989680,420
2021-10-14 16:23:34.989689,747
2021-10-14 16:23:34.989697,512
2021-10-14 16:23:34.989705,-401
2021-10-14 16:23:34.989714,-1065
2021-10-14 16:23:34.989722,-786
2021-10-14 16:23:34.989730,-283
2021-10-14 16:23:34.989738,-139
2021-10-14 16:23:34.989747,-40
2021-10-14 16:23:34.989755,60
2021-10-14 16:23:34.989763,33
2021-10-14 16:23:34.989772,26
2021-10-14 16:23:34.989780,72
2021-10-14 16:23:34.989790,69
2021-10-14 16:23:35.170116,72
2021-10-14 16:23:35.170134,86
2021-10-14 16:23:35.170143,72
2021-10-14 16:23:35.170152,74
2021-10-14 16:23:35.170160,88
2021-10-14 16:23:35.170169,91
2021-10-14 16:23:35.170177,113
2021-10-14 16:23:35.170185,117
2021-10-14 16:23:35.170194,86
2021-10-14 16:23:35.170202,84
2021-10-14 16:23:35.170210,93
2021-10-14 16:23:35.170219,101
2021-10-14 16:23:35.170227,139
2021-10-14 16:23:35.170235,158
2021-10-14 16:23:35.170243,141
2021-10-14 16:23:35.170252,158
2021-10-14 16:23:35.170260,189
2021-10-14 16:23:35.170270,182
2021-10-14 16:23:35.170279,139
2021-10-14 16:23:35.170287,103
2021-10-14 16:23:35.170295,93
2021-10-14 16:23:35.170303,81
2021-10-14 16:23:35.170312,45
2021-10-14 16:23:35.170320,7
2021-10-14 16:23:35.170328,-28
2021-10-14 16:23:35.170336,-48
2021-10-14 16:23:35.170344,-62
2021-10-14 16:23:35.170353,-84
2021-10-14 16:23:35.170361,-96
2021-10-14 16:23:35.170369,-110
2021-10-14 16:23:35.440773,-134
2021-10-14 16:23:35.440793,-132
2021-10-14 16:23:35.440804,-127
2021-10-14 16:23:35.440813,-139
2021-10-14 16:23:35.440822,-149
2021-10-14 16:23:35.440831,-144
2021-10-14 16:23:35.440840,-127
2021-10-14 16:23:35.440855,-117
2021-10-14 16:23:35.440864,-132
2021-10-14 16:23:35.440873,-149
2021-10-14 16:23:35.440882,-141
2021-10-14 16:23:35.440890,-115
2021-10-14 16:23:35.440899,-93
2021-10-14 16:23:35.440908,-98
2021-10-14 16:23:35.440917,-108
2021-10-14 16:23:35.440926,-101
2021-10-14 16:23:35.440935,-93
2021-10-14 16:23:35.440943,-96
2021-10-14 16:23:35.440952,-98
2021-10-14 16:23:35.440961,-79
2021-10-14 16:23:35.440970,-55
2021-10-14 16:23:35.440977,-69
2021-10-14 16:23:35.440986,-81
2021-10-14 16:23:35.440995,-62
2021-10-14 16:23:35.441003,-60
2021-10-14 16:23:35.441012,-84
2021-10-14 16:23:35.441021,-88
2021-10-14 16:23:35.441030,-74
2021-10-14 16:23:35.441039,-67
2021-10-14 16:23:35.441049,-74
2021-10-14 16:23:35.620063,-76
2021-10-14 16:23:35.620083,-60
2021-10-14 16:23:35.620092,-45
2021-10-14 16:23:35.620100,-48
2021-10-14 16:23:35.620109,-43
2021-10-14 16:23:35.620117,-45
2021-10-14 16:23:35.620126,-60
2021-10-14 16:23:35.620134,-57
2021-10-14 16:23:35.620142,-67
2021-10-14 16:23:35.620151,-91
2021-10-14 16:23:35.620159,-76
2021-10-14 16:23:35.620168,-45
2021-10-14 16:23:35.620176,-40
2021-10-14 16:23:35.620184,-43
2021-10-14 16:23:35.620193,-43
2021-10-14 16:23:35.620201,-52
2021-10-14 16:23:35.620209,-55
2021-10-14 16:23:35.620218,-31
2021-10-14 16:23:35.620226,-24
2021-10-14 16:23:35.620234,-38
2021-10-14 16:23:35.620242,-48
2021-10-14 16:23:35.620251,-52
2021-10-14 16:23:35.620259,-45
2021-10-14 16:23:35.620267,-21
2021-10-14 16:23:35.620280,21
2021-10-14 16:23:35.620289,33
2021-10-14 16:23:35.620297,0
2021-10-14 16:23:35.620305,-24
2021-10-14 16:23:35.620314,-14
2021-10-14 16:23:35.620322,-21
2021-10-14 16:23:35.845522,-60
2021-10-14 16:23:35.845541,-74
2021-10-14 16:23:35.845550,-55
2021-10-14 16:23:35.845559,-50
2021-10-14 16:23:35.845567,-52
2021-10-14 16:23:35.845576,-43
2021-10-14 16:23:35.845584,-48
2021-10-14 16:23:35.845592,-62
2021-10-14 16:23:35.845600,-57
2021-10-14 16:23:35.845609,-43
2021-10-14 16:23:35.845617,-28
2021-10-14 16:23:35.845625,16
2021-10-14 16:23:35.845634,206
2021-10-14 16:23:35.845642,591
2021-10-14 16:23:35.845650,774
2021-10-14 16:23:35.845659,158
2021-10-14 16:23:35.845667,-870
2021-10-14 16:23:35.845675,-1111
2021-10-14 16:23:35.845683,-557
2021-10-14 16:23:35.845692,-199
2021-10-14 16:23:35.845700,-129
2021-10-14 16:23:35.845708,-4
2021-10-14 16:23:35.845718,67
2021-10-14 16:23:35.845726,50
2021-10-14 16:23:35.845734,64
2021-10-14 16:23:35.845743,88
2021-10-14 16:23:35.845751,88
2021-10-14 16:23:35.845759,81
2021-10-14 16:23:35.845767,91
2021-10-14 16:23:35.845775,108
2021-10-14 16:23:36.070527,105
2021-10-14 16:23:36.070546,103
2021-10-14 16:23:36.070556,105
2021-10-14 16:23:36.070564,96
2021-10-14 16:23:36.070573,93
2021-10-14 16:23:36.070581,115
2021-10-14 16:23:36.070590,151
2021-10-14 16:23:36.070598,168
2021-10-14 16:23:36.070607,165
2021-10-14 16:23:36.070615,170
2021-10-14 16:23:36.070624,182
2021-10-14 16:23:36.070632,182
2021-10-14 16:23:36.070641,170
2021-10-14 16:23:36.070649,156
2021-10-14 16:23:36.070657,151
2021-10-14 16:23:36.070666,149
2021-10-14 16:23:36.070675,125
2021-10-14 16:23:36.070683,88
2021-10-14 16:23:36.070692,62
2021-10-14 16:23:36.070700,40
2021-10-14 16:23:36.070709,19
2021-10-14 16:23:36.070717,-9
2021-10-14 16:23:36.070725,-45
2021-10-14 16:23:36.070734,-84
2021-10-14 16:23:36.070746,-108
2021-10-14 16:23:36.070755,-117
2021-10-14 16:23:36.070763,-117
2021-10-14 16:23:36.070773,-115
2021-10-14 16:23:36.070781,-115
2021-10-14 16:23:36.070790,-122
2021-10-14 16:23:36.340125,-129
2021-10-14 16:23:36.340144,-117
2021-10-14 16:23:36.340153,-101
2021-10-14 16:23:36.340162,-115
2021-10-14 16:23:36.340170,-139
2021-10-14 16:23:36.340178,-125
2021-10-14 16:23:36.340187,-108
2021-10-14 16:23:36.340195,-120
2021-10-14 16:23:36.340203,-105
2021-10-14 16:23:36.340212,-81
2021-10-14 16:23:36.340220,-101
2021-10-14 16:23:36.340228,-113
2021-10-14 16:23:36.340237,-79
2021-10-14 16:23:36.340245,-60
2021-10-14 16:23:36.340253,-79
2021-10-14 16:23:36.340261,-88
2021-10-14 16:23:36.340270,-62
2021-10-14 16:23:36.340278,-52
2021-10-14 16:23:36.340286,-60
2021-10-14 16:23:36.340294,-50
2021-10-14 16:23:36.340303,-60
2021-10-14 16:23:36.340311,-86
2021-10-14 16:23:36.340319,-81
2021-10-14 16:23:36.340327,-62
2021-10-14 16:23:36.340335,-67
2021-10-14 16:23:36.340344,-62
2021-10-14 16:23:36.340352,-50
2021-10-14 16:23:36.340360,-55
2021-10-14 16:23:36.340369,-55
2021-10-14 16:23:36.340377,-36
2021-10-14 16:23:36.565122,-28
2021-10-14 16:23:36.565141,-28
2021-10-14 16:23:36.565150,-21
2021-10-14 16:23:36.565159,-43
2021-10-14 16:23:36.565167,-64
2021-10-14 16:23:36.565176,-43
2021-10-14 16:23:36.565184,-19
2021-10-14 16:23:36.565192,-28
2021-10-14 16:23:36.565201,-33
2021-10-14 16:23:36.565209,-38
2021-10-14 16:23:36.565217,-60
2021-10-14 16:23:36.565226,-55
2021-10-14 16:23:36.565234,-21
2021-10-14 16:23:36.565242,-9
2021-10-14 16:23:36.565251,-19
2021-10-14 16:23:36.565259,-16
2021-10-14 16:23:36.565267,-14
2021-10-14 16:23:36.565276,-33
2021-10-14 16:23:36.565284,-43
2021-10-14 16:23:36.565292,-38
2021-10-14 16:23:36.565300,-45
2021-10-14 16:23:36.565309,-50
2021-10-14 16:23:36.565317,-45
2021-10-14 16:23:36.565325,-38
2021-10-14 16:23:36.565334,4
2021-10-14 16:23:36.565342,57
2021-10-14 16:23:36.565350,43
2021-10-14 16:23:36.565359,7
2021-10-14 16:23:36.565367,-2
2021-10-14 16:23:36.565375,-26
2021-10-14 16:23:36.878869,-40
2021-10-14 16:23:36.878890,-16
2021-10-14 16:23:36.878899,-24
2021-10-14 16:23:36.878908,-50
2021-10-14 16:23:36.878916,-26
2021-10-14 16:23:36.878925,9
2021-10-14 16:23:36.878933,4
2021-10-14 16:23:36.878942,-14
2021-10-14 16:23:36.878950,-12
2021-10-14 16:23:36.878958,0
2021-10-14 16:23:36.878971,28
2021-10-14 16:23:36.878980,180
2021-10-14 16:23:36.878988,538
2021-10-14 16:23:36.878996,762
2021-10-14 16:23:36.879005,247
2021-10-14 16:23:36.879013,-735
2021-10-14 16:23:36.879022,-1048
2021-10-14 16:23:36.879030,-545
2021-10-14 16:23:36.879038,-173
2021-10-14 16:23:36.879047,-122
2021-10-14 16:23:36.879055,-12
2021-10-14 16:23:36.879064,84
2021-10-14 16:23:36.879072,52
2021-10-14 16:23:36.879080,45
2021-10-14 16:23:36.879088,74
2021-10-14 16:23:36.879097,64
2021-10-14 16:23:36.879105,52
2021-10-14 16:23:36.879114,60
2021-10-14 16:23:36.879122,76
2021-10-14 16:23:36.879130,117
2021-10-14 16:23:37.015135,132
2021-10-14 16:23:37.015155,110
2021-10-14 16:23:37.015164,113
2021-10-14 16:23:37.015173,125
2021-10-14 16:23:37.015181,117
2021-10-14 16:23:37.015189,127
2021-10-14 16:23:37.015198,158
2021-10-14 16:23:37.015206,153
2021-10-14 16:23:37.015215,122
2021-10-14 16:23:37.015223,137
2021-10-14 16:23:37.015231,175
2021-10-14 16:23:37.015239,175
2021-10-14 16:23:37.015248,173
2021-10-14 16:23:37.015256,158
2021-10-14 16:23:37.015264,122
2021-10-14 16:23:37.015273,108
2021-10-14 16:23:37.015281,86
2021-10-14 16:23:37.015290,33
2021-10-14 16:23:37.015298,12
2021-10-14 16:23:37.015306,12
2021-10-14 16:23:37.015314,-19
2021-10-14 16:23:37.015323,-55
2021-10-14 16:23:37.015331,-64
2021-10-14 16:23:37.015340,-72
2021-10-14 16:23:37.015348,-96
2021-10-14 16:23:37.015360,-113
2021-10-14 16:23:37.015369,-110
2021-10-14 16:23:37.015377,-105
2021-10-14 16:23:37.015386,-110
2021-10-14 16:23:37.015394,-110
2021-10-14 16:23:37.285615,-110
2021-10-14 16:23:37.285636,-103
2021-10-14 16:23:37.285645,-93
2021-10-14 16:23:37.285654,-88
2021-10-14 16:23:37.285662,-81
2021-10-14 16:23:37.285671,-72
2021-10-14 16:23:37.285679,-67
2021-10-14 16:23:37.285688,-67
2021-10-14 16:23:37.285696,-69
2021-10-14 16:23:37.285704,-74
2021-10-14 16:23:37.285712,-64
2021-10-14 16:23:37.285721,-36
2021-10-14 16:23:37.285729,-33
2021-10-14 16:23:37.285737,-52
2021-10-14 16:23:37.285745,-48
2021-10-14 16:23:37.285754,-36
2021-10-14 16:23:37.285762,-52
2021-10-14 16:23:37.285770,-76
2021-10-14 16:23:37.285779,-60
2021-10-14 16:23:37.285787,-28
2021-10-14 16:23:37.285795,-36
2021-10-14 16:23:37.285804,-62
2021-10-14 16:23:37.285812,-72
2021-10-14 16:23:37.285821,-64
2021-10-14 16:23:37.285829,-69
2021-10-14 16:23:37.285837,-81
2021-10-14 16:23:37.285845,-60
2021-10-14 16:23:37.285854,-38
2021-10-14 16:23:37.285862,-52
2021-10-14 16:23:37.285870,-62
2021-10-14 16:23:37.510106,-45
2021-10-14 16:23:37.510127,-33
2021-10-14 16:23:37.510136,-43
2021-10-14 16:23:37.510145,-55
2021-10-14 16:23:37.510153,-43
2021-10-14 16:23:37.510162,-28
2021-10-14 16:23:37.510170,-33
2021-10-14 16:23:37.510178,-43
2021-10-14 16:23:37.510187,-48
2021-10-14 16:23:37.510195,-40
2021-10-14 16:23:37.510204,-24
2021-10-14 16:23:37.510212,-19
2021-10-14 16:23:37.510221,-26
2021-10-14 16:23:37.510229,-36
2021-10-14 16:23:37.510237,-36
2021-10-14 16:23:37.510246,-31
2021-10-14 16:23:37.510258,-26
2021-10-14 16:23:37.510267,-28
2021-10-14 16:23:37.510275,-45
2021-10-14 16:23:37.510283,-48
2021-10-14 16:23:37.510292,-31
2021-10-14 16:23:37.510300,-16
2021-10-14 16:23:37.510309,-2
2021-10-14 16:23:37.510317,19
2021-10-14 16:23:37.510325,31
2021-10-14 16:23:37.510334,14
2021-10-14 16:23:37.510343,-14
2021-10-14 16:23:37.510352,-31
2021-10-14 16:23:37.510360,-40
2021-10-14 16:23:37.510368,-40
2021-10-14 16:23:37.690587,-33
2021-10-14 16:23:37.690608,-36
2021-10-14 16:23:37.690617,-38
2021-10-14 16:23:37.690626,-36
2021-10-14 16:23:37.690634,-31
2021-10-14 16:23:37.690643,-26
2021-10-14 16:23:37.690651,-21
2021-10-14 16:23:37.690660,-4
2021-10-14 16:23:37.690668,0
2021-10-14 16:23:37.690677,12
2021-10-14 16:23:37.690685,175
2021-10-14 16:23:37.690693,533
2021-10-14 16:23:37.690702,719
2021-10-14 16:23:37.690710,202
2021-10-14 16:23:37.690718,-707
2021-10-14 16:23:37.690727,-978
2021-10-14 16:23:37.690735,-533
2021-10-14 16:23:37.690744,-197
2021-10-14 16:23:37.690752,-108
2021-10-14 16:23:37.690760,12
2021-10-14 16:23:37.690769,67
2021-10-14 16:23:37.690777,24
2021-10-14 16:23:37.690786,33
2021-10-14 16:23:37.690794,69
2021-10-14 16:23:37.690802,57
2021-10-14 16:23:37.690811,55
2021-10-14 16:23:37.690819,64
2021-10-14 16:23:37.690828,48
2021-10-14 16:23:37.690836,40
2021-10-14 16:23:37.690845,52
2021-10-14 16:23:37.960545,72
2021-10-14 16:23:37.960565,88
2021-10-14 16:23:37.960575,91
2021-10-14 16:23:37.960583,84
2021-10-14 16:23:37.960592,88
2021-10-14 16:23:37.960600,96
2021-10-14 16:23:37.960609,93
2021-10-14 16:23:37.960617,101
2021-10-14 16:23:37.960626,113
2021-10-14 16:23:37.960634,108
2021-10-14 16:23:37.960642,105
2021-10-14 16:23:37.960651,120
2021-10-14 16:23:37.960659,115
2021-10-14 16:23:37.960670,91
2021-10-14 16:23:37.960679,81
2021-10-14 16:23:37.960687,67
2021-10-14 16:23:37.960695,45
2021-10-14 16:23:37.960704,19
2021-10-14 16:23:37.960712,-14
2021-10-14 16:23:37.960720,-36
2021-10-14 16:23:37.960729,-48
2021-10-14 16:23:37.960737,-74
2021-10-14 16:23:37.960745,-98
2021-10-14 16:23:37.960754,-96
2021-10-14 16:23:37.960762,-103
2021-10-14 16:23:37.960770,-122
2021-10-14 16:23:37.960779,-117
2021-10-14 16:23:37.960787,-96
2021-10-14 16:23:37.960795,-98
2021-10-14 16:23:37.960803,-115
2021-10-14 16:23:38.229536,-108
2021-10-14 16:23:38.229556,-91
2021-10-14 16:23:38.229565,-86
2021-10-14 16:23:38.229574,-86
2021-10-14 16:23:38.229582,-86
2021-10-14 16:23:38.229591,-93
2021-10-14 16:23:38.229599,-93
2021-10-14 16:23:38.229607,-67
2021-10-14 16:23:38.229615,-48
2021-10-14 16:23:38.229623,-48
2021-10-14 16:23:38.229632,-36
2021-10-14 16:23:38.229640,-36
2021-10-14 16:23:38.229648,-45
2021-10-14 16:23:38.229656,-33
2021-10-14 16:23:38.229665,-31
2021-10-14 16:23:38.229673,-50
2021-10-14 16:23:38.229681,-45
2021-10-14 16:23:38.229689,-31
2021-10-14 16:23:38.229697,-50
2021-10-14 16:23:38.229706,-57
2021-10-14 16:23:38.229714,-31
2021-10-14 16:23:38.229722,-31
2021-10-14 16:23:38.229730,-55
2021-10-14 16:23:38.229739,-45
2021-10-14 16:23:38.229747,-21
2021-10-14 16:23:38.229755,-26
2021-10-14 16:23:38.229763,-40
2021-10-14 16:23:38.229771,-48
2021-10-14 16:23:38.229780,-43
2021-10-14 16:23:38.229788,-36
2021-10-14 16:23:38.410510,-43
2021-10-14 16:23:38.410529,-45
2021-10-14 16:23:38.410538,-40
2021-10-14 16:23:38.410547,-45
2021-10-14 16:23:38.410555,-43
2021-10-14 16:23:38.410564,-38
2021-10-14 16:23:38.410572,-38
2021-10-14 16:23:38.410580,-16
2021-10-14 16:23:38.410589,0
2021-10-14 16:23:38.410597,-36
2021-10-14 16:23:38.410606,-55
2021-10-14 16:23:38.410614,-26
2021-10-14 16:23:38.410622,-19
2021-10-14 16:23:38.410630,-43
2021-10-14 16:23:38.410639,-31
2021-10-14 16:23:38.410647,-12
2021-10-14 16:23:38.410656,-28
2021-10-14 16:23:38.410667,-14
2021-10-14 16:23:38.410675,36
2021-10-14 16:23:38.410684,43
2021-10-14 16:23:38.410692,9
2021-10-14 16:23:38.410700,-14
2021-10-14 16:23:38.410709,-26
2021-10-14 16:23:38.410717,-19
2021-10-14 16:23:38.410725,-21
2021-10-14 16:23:38.410733,-28
2021-10-14 16:23:38.410742,-16
2021-10-14 16:23:38.410750,-12
2021-10-14 16:23:38.410758,-19
2021-10-14 16:23:38.410766,-7
2021-10-14 16:23:38.724971,0
2021-10-14 16:23:38.724991,-7
2021-10-14 16:23:38.725001,-7
2021-10-14 16:23:38.725010,2
2021-10-14 16:23:38.725018,52
2021-10-14 16:23:38.725026,276
2021-10-14 16:23:38.725035,654
2021-10-14 16:23:38.725043,755
2021-10-14 16:23:38.725051,81
2021-10-14 16:23:38.725060,-860
2021-10-14 16:23:38.725068,-983
2021-10-14 16:23:38.725076,-444
2021-10-14 16:23:38.725084,-134
2021-10-14 16:23:38.725093,-69
2021-10-14 16:23:38.725101,19
2021-10-14 16:23:38.725110,67
2021-10-14 16:23:38.725118,60
2021-10-14 16:23:38.725126,72
2021-10-14 16:23:38.725135,98
2021-10-14 16:23:38.725143,110
2021-10-14 16:23:38.725151,88
2021-10-14 16:23:38.725159,84
2021-10-14 16:23:38.725168,113
2021-10-14 16:23:38.725176,120
2021-10-14 16:23:38.725184,110
2021-10-14 16:23:38.725193,127
2021-10-14 16:23:38.725201,137
2021-10-14 16:23:38.725209,134
2021-10-14 16:23:38.725217,153
2021-10-14 16:23:38.725226,170
2021-10-14 16:23:38.948825,158
2021-10-14 16:23:38.948845,151
2021-10-14 16:23:38.948854,158
2021-10-14 16:23:38.948863,168
2021-10-14 16:23:38.948871,168
2021-10-14 16:23:38.948880,165
2021-10-14 16:23:38.948888,158
2021-10-14 16:23:38.948897,146
2021-10-14 16:23:38.948905,125
2021-10-14 16:23:38.948914,103
2021-10-14 16:23:38.948922,74
2021-10-14 16:23:38.948931,36
2021-10-14 16:23:38.948939,19
2021-10-14 16:23:38.948947,-4
2021-10-14 16:23:38.948956,-55
2021-10-14 16:23:38.948964,-81
2021-10-14 16:23:38.948972,-81
2021-10-14 16:23:38.948981,-88
2021-10-14 16:23:38.948989,-103
2021-10-14 16:23:38.948997,-117
2021-10-14 16:23:38.949006,-122
2021-10-14 16:23:38.949014,-101
2021-10-14 16:23:38.949022,-91
2021-10-14 16:23:38.949031,-108
2021-10-14 16:23:38.949039,-115
2021-10-14 16:23:38.949048,-103
2021-10-14 16:23:38.949056,-101
2021-10-14 16:23:38.949064,-98
2021-10-14 16:23:38.949073,-86
2021-10-14 16:23:38.949086,-72
2021-10-14 16:23:39.085622,-69
2021-10-14 16:23:39.085643,-57
2021-10-14 16:23:39.085652,-31
2021-10-14 16:23:39.085661,-24
2021-10-14 16:23:39.085669,-43
2021-10-14 16:23:39.085678,-48
2021-10-14 16:23:39.085687,-33
2021-10-14 16:23:39.085695,-31
2021-10-14 16:23:39.085704,-38
2021-10-14 16:23:39.085712,-36
2021-10-14 16:23:39.085721,-28
2021-10-14 16:23:39.085729,-24
2021-10-14 16:23:39.085737,-24
2021-10-14 16:23:39.085746,-40
2021-10-14 16:23:39.085754,-45
2021-10-14 16:23:39.085762,-16
2021-10-14 16:23:39.085770,9
2021-10-14 16:23:39.085779,-4
2021-10-14 16:23:39.085787,-38
2021-10-14 16:23:39.085795,-48
2021-10-14 16:23:39.085804,-43
2021-10-14 16:23:39.085812,-50
2021-10-14 16:23:39.085820,-43
2021-10-14 16:23:39.085828,-24
2021-10-14 16:23:39.085836,-33
2021-10-14 16:23:39.085845,-36
2021-10-14 16:23:39.085853,-9
2021-10-14 16:23:39.085862,0
2021-10-14 16:23:39.085870,-9
2021-10-14 16:23:39.085878,-2
2021-10-14 16:23:39.310603,7
2021-10-14 16:23:39.310623,-2
2021-10-14 16:23:39.310633,-16
2021-10-14 16:23:39.310641,-16
2021-10-14 16:23:39.310650,-2
2021-10-14 16:23:39.310658,-4
2021-10-14 16:23:39.310666,-14
2021-10-14 16:23:39.310674,-4
2021-10-14 16:23:39.310683,4
2021-10-14 16:23:39.310691,-14
2021-10-14 16:23:39.310700,-19
2021-10-14 16:23:39.310708,-14
2021-10-14 16:23:39.310716,-28
2021-10-14 16:23:39.310724,-28
2021-10-14 16:23:39.310733,2
2021-10-14 16:23:39.310741,16
2021-10-14 16:23:39.310750,9
2021-10-14 16:23:39.310758,16
2021-10-14 16:23:39.310766,26
2021-10-14 16:23:39.310775,19
2021-10-14 16:23:39.310783,7
2021-10-14 16:23:39.310791,-2
2021-10-14 16:23:39.310799,-7
2021-10-14 16:23:39.310808,-7
2021-10-14 16:23:39.310816,-7
2021-10-14 16:23:39.310824,-12
2021-10-14 16:23:39.310832,-16
2021-10-14 16:23:39.310841,4
2021-10-14 16:23:39.310849,26
2021-10-14 16:23:39.310857,14
2021-10-14 16:23:39.625151,4
2021-10-14 16:23:39.625171,19
2021-10-14 16:23:39.625181,48
2021-10-14 16:23:39.625190,197
2021-10-14 16:23:39.625198,567
2021-10-14 16:23:39.625206,812
2021-10-14 16:23:39.625215,334
2021-10-14 16:23:39.625223,-637
2021-10-14 16:23:39.625232,-1007
2021-10-14 16:23:39.625240,-543
2021-10-14 16:23:39.625248,-137
2021-10-14 16:23:39.625256,-76
2021-10-14 16:23:39.625265,7
2021-10-14 16:23:39.625273,98
2021-10-14 16:23:39.625281,81
2021-10-14 16:23:39.625290,69
2021-10-14 16:23:39.625298,93
2021-10-14 16:23:39.625306,96
2021-10-14 16:23:39.625315,96
2021-10-14 16:23:39.625323,113
2021-10-14 16:23:39.625335,122
2021-10-14 16:23:39.625344,115
2021-10-14 16:23:39.625353,117
2021-10-14 16:23:39.625361,132
2021-10-14 16:23:39.625369,129
2021-10-14 16:23:39.625377,125
2021-10-14 16:23:39.625385,129
2021-10-14 16:23:39.625394,144
2021-10-14 16:23:39.625402,168
2021-10-14 16:23:39.625410,180
2021-10-14 16:23:39.760648,187
2021-10-14 16:23:39.760668,199
2021-10-14 16:23:39.760678,206
2021-10-14 16:23:39.760686,194
2021-10-14 16:23:39.760695,165
2021-10-14 16:23:39.760703,141
2021-10-14 16:23:39.760711,144
2021-10-14 16:23:39.760720,156
2021-10-14 16:23:39.760728,134
2021-10-14 16:23:39.760736,101
2021-10-14 16:23:39.760745,81
2021-10-14 16:23:39.760753,50
2021-10-14 16:23:39.760762,14
2021-10-14 16:23:39.760770,-9
2021-10-14 16:23:39.760778,-31
2021-10-14 16:23:39.760787,-64
2021-10-14 16:23:39.760795,-91
2021-10-14 16:23:39.760803,-96
2021-10-14 16:23:39.760812,-91
2021-10-14 16:23:39.760820,-74
2021-10-14 16:23:39.760828,-55
2021-10-14 16:23:39.760837,-62
2021-10-14 16:23:39.760845,-79
2021-10-14 16:23:39.760853,-72
2021-10-14 16:23:39.760862,-55
2021-10-14 16:23:39.760870,-52
2021-10-14 16:23:39.760878,-55
2021-10-14 16:23:39.760886,-38
2021-10-14 16:23:39.760895,-16
2021-10-14 16:23:39.760903,-4
2021-10-14 16:23:39.985613,7
2021-10-14 16:23:39.985634,16
2021-10-14 16:23:39.985643,12
2021-10-14 16:23:39.985652,7
2021-10-14 16:23:39.985660,12
2021-10-14 16:23:39.985668,14
2021-10-14 16:23:39.985677,19
2021-10-14 16:23:39.985685,43
2021-10-14 16:23:39.985694,69
2021-10-14 16:23:39.985702,60
2021-10-14 16:23:39.985710,38
2021-10-14 16:23:39.985719,38
2021-10-14 16:23:39.985727,48
2021-10-14 16:23:39.985735,50
2021-10-14 16:23:39.985744,48
2021-10-14 16:23:39.985752,45
2021-10-14 16:23:39.985760,57
2021-10-14 16:23:39.985769,67
2021-10-14 16:23:39.985777,55
2021-10-14 16:23:39.985785,48
2021-10-14 16:23:39.985793,62
2021-10-14 16:23:39.985802,74
2021-10-14 16:23:39.985810,86
2021-10-14 16:23:39.985818,88
2021-10-14 16:23:39.985827,86
2021-10-14 16:23:39.985835,105
2021-10-14 16:23:39.985843,115
2021-10-14 16:23:39.985851,103
2021-10-14 16:23:39.985860,101
2021-10-14 16:23:39.985868,113
2021-10-14 16:23:40.255235,127
2021-10-14 16:23:40.255256,137
2021-10-14 16:23:40.255266,132
2021-10-14 16:23:40.255274,127
2021-10-14 16:23:40.255283,137
2021-10-14 16:23:40.255291,151
2021-10-14 16:23:40.255299,141
2021-10-14 16:23:40.255308,137
2021-10-14 16:23:40.255316,151
2021-10-14 16:23:40.255324,156
2021-10-14 16:23:40.255333,149
2021-10-14 16:23:40.255341,151
2021-10-14 16:23:40.255349,163
2021-10-14 16:23:40.255358,180
2021-10-14 16:23:40.255366,192
2021-10-14 16:23:40.255375,187
2021-10-14 16:23:40.255383,189
2021-10-14 16:23:40.255391,214
2021-10-14 16:23:40.255399,228
2021-10-14 16:23:40.255407,204
2021-10-14 16:23:40.255416,156
2021-10-14 16:23:40.255424,132
2021-10-14 16:23:40.255435,156
2021-10-14 16:23:40.255443,177
2021-10-14 16:23:40.255452,163
2021-10-14 16:23:40.255460,151
2021-10-14 16:23:40.255468,158
2021-10-14 16:23:40.255476,161
2021-10-14 16:23:40.255485,170
2021-10-14 16:23:40.255493,194
2021-10-14 16:23:40.480192,209
2021-10-14 16:23:40.480211,226
2021-10-14 16:23:40.480220,312
2021-10-14 16:23:40.480229,579
2021-10-14 16:23:40.480237,911
2021-10-14 16:23:40.480245,781
2021-10-14 16:23:40.480254,-72
2021-10-14 16:23:40.480262,-791
2021-10-14 16:23:40.480270,-584
2021-10-14 16:23:40.480279,-110
2021-10-14 16:23:40.480287,52
2021-10-14 16:23:40.480295,163
2021-10-14 16:23:40.480303,271
2021-10-14 16:23:40.480312,259
2021-10-14 16:23:40.480320,235
2021-10-14 16:23:40.480328,262
2021-10-14 16:23:40.480337,278
2021-10-14 16:23:40.480345,286
2021-10-14 16:23:40.480353,288
2021-10-14 16:23:40.480362,269
2021-10-14 16:23:40.480370,254
2021-10-14 16:23:40.480378,274
2021-10-14 16:23:40.480386,288
2021-10-14 16:23:40.480395,278
2021-10-14 16:23:40.480403,286
2021-10-14 16:23:40.480411,298
2021-10-14 16:23:40.480419,298
2021-10-14 16:23:40.480428,298
2021-10-14 16:23:40.480436,298
2021-10-14 16:23:40.480444,310
2021-10-14 16:23:40.750240,331
2021-10-14 16:23:40.750261,341
2021-10-14 16:23:40.750270,341
2021-10-14 16:23:40.750279,327
2021-10-14 16:23:40.750288,315
2021-10-14 16:23:40.750296,307
2021-10-14 16:23:40.750305,293
2021-10-14 16:23:40.750313,264
2021-10-14 16:23:40.750321,226
2021-10-14 16:23:40.750330,189
2021-10-14 16:23:40.750338,173
2021-10-14 16:23:40.750346,151
2021-10-14 16:23:40.750355,120
2021-10-14 16:23:40.750363,91
2021-10-14 16:23:40.750371,64
2021-10-14 16:23:40.750380,38
2021-10-14 16:23:40.750388,33
2021-10-14 16:23:40.750396,36
2021-10-14 16:23:40.750404,26
2021-10-14 16:23:40.750412,14
2021-10-14 16:23:40.750421,-2
2021-10-14 16:23:40.750429,-4
2021-10-14 16:23:40.750437,4
2021-10-14 16:23:40.750445,14
2021-10-14 16:23:40.750454,24
2021-10-14 16:23:40.750462,28
2021-10-14 16:23:40.750470,26
2021-10-14 16:23:40.750478,31
2021-10-14 16:23:40.750487,26
2021-10-14 16:23:40.750495,24
2021-10-14 16:23:40.974257,28
2021-10-14 16:23:40.974278,24
2021-10-14 16:23:40.974287,19
2021-10-14 16:23:40.974295,43
2021-10-14 16:23:40.974304,69
2021-10-14 16:23:40.974312,60
2021-10-14 16:23:40.974320,45
2021-10-14 16:23:40.974328,50
2021-10-14 16:23:40.974337,55
2021-10-14 16:23:40.974345,55
2021-10-14 16:23:40.974353,52
2021-10-14 16:23:40.974362,50
2021-10-14 16:23:40.974370,43
2021-10-14 16:23:40.974378,21
2021-10-14 16:23:40.974386,19
2021-10-14 16:23:40.974395,50
2021-10-14 16:23:40.974403,57
2021-10-14 16:23:40.974411,28
2021-10-14 16:23:40.974419,16
2021-10-14 16:23:40.974428,38
2021-10-14 16:23:40.974436,52
2021-10-14 16:23:40.974444,43
2021-10-14 16:23:40.974452,28
2021-10-14 16:23:40.974461,19
2021-10-14 16:23:40.974469,7
2021-10-14 16:23:40.974477,16
2021-10-14 16:23:40.974485,38
2021-10-14 16:23:40.974493,36
2021-10-14 16:23:40.974501,26
2021-10-14 16:23:40.974509,45
2021-10-14 16:23:41.155619,55
2021-10-14 16:23:41.155639,40
2021-10-14 16:23:41.155649,38
2021-10-14 16:23:41.155657,36
2021-10-14 16:23:41.155666,28
2021-10-14 16:23:41.155677,40
2021-10-14 16:23:41.155686,55
2021-10-14 16:23:41.155694,43
2021-10-14 16:23:41.155702,31
2021-10-14 16:23:41.155711,50
2021-10-14 16:23:41.155719,84
2021-10-14 16:23:41.155727,84
2021-10-14 16:23:41.155736,40
2021-10-14 16:23:41.155744,7
2021-10-14 16:23:41.155752,14
2021-10-14 16:23:41.155761,24
2021-10-14 16:23:41.155769,21
2021-10-14 16:23:41.155777,14
2021-10-14 16:23:41.155785,9
2021-10-14 16:23:41.155794,9
2021-10-14 16:23:41.155802,14
2021-10-14 16:23:41.155810,21
2021-10-14 16:23:41.155818,31
2021-10-14 16:23:41.155827,38
2021-10-14 16:23:41.155835,62
2021-10-14 16:23:41.155843,194
2021-10-14 16:23:41.155850,538
2021-10-14 16:23:41.155857,800
2021-10-14 16:23:41.155864,401
2021-10-14 16:23:41.155872,-562
2021-10-14 16:23:41.380578,-1034
2021-10-14 16:23:41.380598,-618
2021-10-14 16:23:41.380607,-182
2021-10-14 16:23:41.380615,-91
2021-10-14 16:23:41.380624,12
2021-10-14 16:23:41.380632,101
2021-10-14 16:23:41.380641,64
2021-10-14 16:23:41.380649,55
2021-10-14 16:23:41.380657,93
2021-10-14 16:23:41.380666,86
2021-10-14 16:23:41.380674,67
2021-10-14 16:23:41.380682,84
2021-10-14 16:23:41.380691,101
2021-10-14 16:23:41.380699,96
2021-10-14 16:23:41.380707,96
2021-10-14 16:23:41.380715,110
2021-10-14 16:23:41.380723,120
2021-10-14 16:23:41.380731,122
2021-10-14 16:23:41.380740,129
2021-10-14 16:23:41.380748,146
2021-10-14 16:23:41.380756,156
2021-10-14 16:23:41.380764,158
2021-10-14 16:23:41.380773,170
2021-10-14 16:23:41.380781,177
2021-10-14 16:23:41.380789,168
2021-10-14 16:23:41.380798,177
2021-10-14 16:23:41.380806,197
2021-10-14 16:23:41.380814,175
2021-10-14 16:23:41.380822,139
2021-10-14 16:23:41.380831,120
2021-10-14 16:23:41.605639,117
2021-10-14 16:23:41.605660,105
2021-10-14 16:23:41.605669,62
2021-10-14 16:23:41.605678,14
2021-10-14 16:23:41.605687,-16
2021-10-14 16:23:41.605695,-50
2021-10-14 16:23:41.605703,-76
2021-10-14 16:23:41.605712,-86
2021-10-14 16:23:41.605720,-101
2021-10-14 16:23:41.605728,-122
2021-10-14 16:23:41.605737,-134
2021-10-14 16:23:41.605745,-129
2021-10-14 16:23:41.605753,-125
2021-10-14 16:23:41.605762,-127
2021-10-14 16:23:41.605770,-125
2021-10-14 16:23:41.605779,-113
2021-10-14 16:23:41.605787,-110
2021-10-14 16:23:41.605795,-117
2021-10-14 16:23:41.605804,-103
2021-10-14 16:23:41.605812,-88
2021-10-14 16:23:41.605820,-88
2021-10-14 16:23:41.605829,-84
2021-10-14 16:23:41.605837,-72
2021-10-14 16:23:41.605845,-64
2021-10-14 16:23:41.605854,-60
2021-10-14 16:23:41.605862,-55
2021-10-14 16:23:41.605870,-52
2021-10-14 16:23:41.605879,-45
2021-10-14 16:23:41.605887,-36
2021-10-14 16:23:41.605895,-50
2021-10-14 16:23:41.830680,-69
2021-10-14 16:23:41.830701,-52
2021-10-14 16:23:41.830710,-36
2021-10-14 16:23:41.830719,-45
2021-10-14 16:23:41.830727,-55
2021-10-14 16:23:41.830736,-57
2021-10-14 16:23:41.830744,-57
2021-10-14 16:23:41.830753,-57
2021-10-14 16:23:41.830761,-67
2021-10-14 16:23:41.830769,-74
2021-10-14 16:23:41.830778,-79
2021-10-14 16:23:41.830786,-91
2021-10-14 16:23:41.830794,-86
2021-10-14 16:23:41.830803,-74
2021-10-14 16:23:41.830811,-69
2021-10-14 16:23:41.830819,-62
2021-10-14 16:23:41.830828,-62
2021-10-14 16:23:41.830836,-64
2021-10-14 16:23:41.830844,-57
2021-10-14 16:23:41.830852,-48
2021-10-14 16:23:41.830861,-50
2021-10-14 16:23:41.830869,-55
2021-10-14 16:23:41.830877,-60
2021-10-14 16:23:41.830885,-50
2021-10-14 16:23:41.830894,-33
2021-10-14 16:23:41.830902,-33
2021-10-14 16:23:41.830910,-33
2021-10-14 16:23:41.830919,-26
2021-10-14 16:23:41.830927,-26
2021-10-14 16:23:41.830935,-33
2021-10-14 16:23:42.190621,-31
2021-10-14 16:23:42.190644,-26
2021-10-14 16:23:42.190654,-28
2021-10-14 16:23:42.190662,-21
2021-10-14 16:23:42.190671,-16
2021-10-14 16:23:42.190679,-16
2021-10-14 16:23:42.190687,-9
2021-10-14 16:23:42.190695,-24
2021-10-14 16:23:42.190704,-45
2021-10-14 16:23:42.190712,-52
2021-10-14 16:23:42.190720,-57
2021-10-14 16:23:42.190729,-64
2021-10-14 16:23:42.190737,-60
2021-10-14 16:23:42.190745,-52
2021-10-14 16:23:42.190753,-45
2021-10-14 16:23:42.190762,-36
2021-10-14 16:23:42.190770,-28
2021-10-14 16:23:42.190778,-24
2021-10-14 16:23:42.190786,-19
2021-10-14 16:23:42.190794,-2
2021-10-14 16:23:42.190803,110
2021-10-14 16:23:42.190811,420
2021-10-14 16:23:42.190819,709
2021-10-14 16:23:42.190827,406
2021-10-14 16:23:42.190836,-478
2021-10-14 16:23:42.190844,-961
2021-10-14 16:23:42.190852,-613
2021-10-14 16:23:42.190860,-216
2021-10-14 16:23:42.190869,-122
2021-10-14 16:23:42.190877,-19
2021-10-14 16:23:42.325586,72
2021-10-14 16:23:42.325604,57
2021-10-14 16:23:42.325613,57
2021-10-14 16:23:42.325622,76
2021-10-14 16:23:42.325630,64
2021-10-14 16:23:42.325639,55
2021-10-14 16:23:42.325647,64
2021-10-14 16:23:42.325655,81
2021-10-14 16:23:42.325664,96
2021-10-14 16:23:42.325672,86
2021-10-14 16:23:42.325681,79
2021-10-14 16:23:42.325689,93
2021-10-14 16:23:42.325697,101
2021-10-14 16:23:42.325706,98
2021-10-14 16:23:42.325714,103
2021-10-14 16:23:42.325722,108
2021-10-14 16:23:42.325730,120
2021-10-14 16:23:42.325739,137
2021-10-14 16:23:42.325747,139
2021-10-14 16:23:42.325755,141
2021-10-14 16:23:42.325763,139
2021-10-14 16:23:42.325772,125
2021-10-14 16:23:42.325780,113
2021-10-14 16:23:42.325788,117
2021-10-14 16:23:42.325797,108
2021-10-14 16:23:42.325805,79
2021-10-14 16:23:42.325813,38
2021-10-14 16:23:42.325822,9
2021-10-14 16:23:42.325830,-9
2021-10-14 16:23:42.325838,-36
2021-10-14 16:23:42.595582,-55
2021-10-14 16:23:42.595600,-72
2021-10-14 16:23:42.595609,-96
2021-10-14 16:23:42.595618,-113
2021-10-14 16:23:42.595627,-120
2021-10-14 16:23:42.595635,-127
2021-10-14 16:23:42.595643,-134
2021-10-14 16:23:42.595652,-139
2021-10-14 16:23:42.595660,-151
2021-10-14 16:23:42.595669,-156
2021-10-14 16:23:42.595677,-146
2021-10-14 16:23:42.595686,-134
2021-10-14 16:23:42.595694,-132
2021-10-14 16:23:42.595702,-129
2021-10-14 16:23:42.595711,-127
2021-10-14 16:23:42.595719,-122
2021-10-14 16:23:42.595727,-108
2021-10-14 16:23:42.595736,-101
2021-10-14 16:23:42.595744,-91
2021-10-14 16:23:42.595752,-86
2021-10-14 16:23:42.595760,-93
2021-10-14 16:23:42.595769,-91
2021-10-14 16:23:42.595777,-72
2021-10-14 16:23:42.595785,-62
2021-10-14 16:23:42.595793,-67
2021-10-14 16:23:42.595802,-79
2021-10-14 16:23:42.595810,-86
2021-10-14 16:23:42.595818,-81
2021-10-14 16:23:42.595826,-74
2021-10-14 16:23:42.595835,-72
2021-10-14 16:23:42.819712,-69
2021-10-14 16:23:42.819733,-69
2021-10-14 16:23:42.819742,-72
2021-10-14 16:23:42.819751,-72
2021-10-14 16:23:42.819759,-67
2021-10-14 16:23:42.819768,-64
2021-10-14 16:23:42.819776,-67
2021-10-14 16:23:42.819785,-62
2021-10-14 16:23:42.819793,-62
2021-10-14 16:23:42.819802,-69
2021-10-14 16:23:42.819810,-69
2021-10-14 16:23:42.819818,-60
2021-10-14 16:23:42.819826,-55
2021-10-14 16:23:42.819834,-64
2021-10-14 16:23:42.819843,-72
2021-10-14 16:23:42.819851,-67
2021-10-14 16:23:42.819859,-72
2021-10-14 16:23:42.819868,-74
2021-10-14 16:23:42.819876,-62
2021-10-14 16:23:42.819884,-60
2021-10-14 16:23:42.819892,-74
2021-10-14 16:23:42.819901,-81
2021-10-14 16:23:42.819909,-84
2021-10-14 16:23:42.819917,-81
2021-10-14 16:23:42.819925,-67
2021-10-14 16:23:42.819934,-55
2021-10-14 16:23:42.819942,-50
2021-10-14 16:23:42.819950,-50
2021-10-14 16:23:42.819959,-38
2021-10-14 16:23:42.819967,-19
2021-10-14 16:23:43.089937,-21
2021-10-14 16:23:43.089958,-52
2021-10-14 16:23:43.089967,-69
2021-10-14 16:23:43.089976,-64
2021-10-14 16:23:43.089984,-60
2021-10-14 16:23:43.089993,-52
2021-10-14 16:23:43.090001,-52
2021-10-14 16:23:43.090009,-62
2021-10-14 16:23:43.090018,-60
2021-10-14 16:23:43.090026,-62
2021-10-14 16:23:43.090034,-64
2021-10-14 16:23:43.090046,-48
2021-10-14 16:23:43.090054,-40
2021-10-14 16:23:43.090063,-19
2021-10-14 16:23:43.090071,173
2021-10-14 16:23:43.090080,538
2021-10-14 16:23:43.090088,661
2021-10-14 16:23:43.090096,50
2021-10-14 16:23:43.090105,-820
2021-10-14 16:23:43.090113,-930
2021-10-14 16:23:43.090122,-492
2021-10-14 16:23:43.090130,-259
2021-10-14 16:23:43.090138,-139
2021-10-14 16:23:43.090146,14
2021-10-14 16:23:43.090155,40
2021-10-14 16:23:43.090163,12
2021-10-14 16:23:43.090171,40
2021-10-14 16:23:43.090180,62
2021-10-14 16:23:43.090188,57
2021-10-14 16:23:43.090196,64
2021-10-14 16:23:43.225569,72
2021-10-14 16:23:43.225587,64
2021-10-14 16:23:43.225597,64
2021-10-14 16:23:43.225606,72
2021-10-14 16:23:43.225614,76
2021-10-14 16:23:43.225622,72
2021-10-14 16:23:43.225631,69
2021-10-14 16:23:43.225639,93
2021-10-14 16:23:43.225647,115
2021-10-14 16:23:43.225656,113
2021-10-14 16:23:43.225664,120
2021-10-14 16:23:43.225672,134
2021-10-14 16:23:43.225680,134
2021-10-14 16:23:43.225689,134
2021-10-14 16:23:43.225697,146
2021-10-14 16:23:43.225705,151
2021-10-14 16:23:43.225714,139
2021-10-14 16:23:43.225722,120
2021-10-14 16:23:43.225730,93
2021-10-14 16:23:43.225739,64
2021-10-14 16:23:43.225747,45
2021-10-14 16:23:43.225755,21
2021-10-14 16:23:43.225764,-16
2021-10-14 16:23:43.225772,-48
2021-10-14 16:23:43.225780,-72
2021-10-14 16:23:43.225788,-98
2021-10-14 16:23:43.225797,-125
2021-10-14 16:23:43.225805,-146
2021-10-14 16:23:43.225813,-158
2021-10-14 16:23:43.225821,-156
2021-10-14 16:23:43.539987,-156
2021-10-14 16:23:43.540006,-151
2021-10-14 16:23:43.540015,-141
2021-10-14 16:23:43.540024,-139
2021-10-14 16:23:43.540032,-139
2021-10-14 16:23:43.540040,-144
2021-10-14 16:23:43.540049,-146
2021-10-14 16:23:43.540057,-132
2021-10-14 16:23:43.540065,-129
2021-10-14 16:23:43.540073,-127
2021-10-14 16:23:43.540082,-103
2021-10-14 16:23:43.540090,-101
2021-10-14 16:23:43.540098,-113
2021-10-14 16:23:43.540106,-105
2021-10-14 16:23:43.540114,-101
2021-10-14 16:23:43.540123,-101
2021-10-14 16:23:43.540131,-101
2021-10-14 16:23:43.540139,-98
2021-10-14 16:23:43.540148,-91
2021-10-14 16:23:43.540156,-86
2021-10-14 16:23:43.540164,-88
2021-10-14 16:23:43.540173,-101
2021-10-14 16:23:43.540181,-101
2021-10-14 16:23:43.540189,-86
2021-10-14 16:23:43.540197,-74
2021-10-14 16:23:43.540205,-69
2021-10-14 16:23:43.540214,-67
2021-10-14 16:23:43.540222,-62
2021-10-14 16:23:43.540230,-57
2021-10-14 16:23:43.540238,-60
2021-10-14 16:23:43.675610,-64
2021-10-14 16:23:43.675629,-55
2021-10-14 16:23:43.675637,-55
2021-10-14 16:23:43.675645,-64
2021-10-14 16:23:43.675653,-62
2021-10-14 16:23:43.675661,-55
2021-10-14 16:23:43.675668,-50
2021-10-14 16:23:43.675676,-52
2021-10-14 16:23:43.675683,-50
2021-10-14 16:23:43.675691,-45
2021-10-14 16:23:43.675697,-52
2021-10-14 16:23:43.675705,-52
2021-10-14 16:23:43.675712,-43
2021-10-14 16:23:43.675719,-45
2021-10-14 16:23:43.675727,-50
2021-10-14 16:23:43.675735,-40
2021-10-14 16:23:43.675743,-28
2021-10-14 16:23:43.675751,-16
2021-10-14 16:23:43.675758,-9
2021-10-14 16:23:43.675766,-4
2021-10-14 16:23:43.675773,7
2021-10-14 16:23:43.675780,7
2021-10-14 16:23:43.675787,-21
2021-10-14 16:23:43.675795,-43
2021-10-14 16:23:43.675802,-45
2021-10-14 16:23:43.675810,-43
2021-10-14 16:23:43.675818,-43
2021-10-14 16:23:43.675826,-36
2021-10-14 16:23:43.675833,-26
2021-10-14 16:23:43.675840,-24
2021-10-14 16:23:43.900630,-19
2021-10-14 16:23:43.900649,-12
2021-10-14 16:23:43.900659,-9
2021-10-14 16:23:43.900667,-24
2021-10-14 16:23:43.900675,-14
2021-10-14 16:23:43.900684,134
2021-10-14 16:23:43.900692,480
2021-10-14 16:23:43.900701,747
2021-10-14 16:23:43.900709,370
2021-10-14 16:23:43.900717,-577
2021-10-14 16:23:43.900726,-1043
2021-10-14 16:23:43.900734,-639
2021-10-14 16:23:43.900742,-223
2021-10-14 16:23:43.900751,-127
2021-10-14 16:23:43.900759,-12
2021-10-14 16:23:43.900767,69
2021-10-14 16:23:43.900775,36
2021-10-14 16:23:43.900784,36
2021-10-14 16:23:43.900792,69
2021-10-14 16:23:43.900800,67
2021-10-14 16:23:43.900808,62
2021-10-14 16:23:43.900817,74
2021-10-14 16:23:43.900825,81
2021-10-14 16:23:43.900833,79
2021-10-14 16:23:43.900841,84
2021-10-14 16:23:43.900850,93
2021-10-14 16:23:43.900858,98
2021-10-14 16:23:43.900866,103
2021-10-14 16:23:43.900874,117
2021-10-14 16:23:43.900883,129
2021-10-14 16:23:44.215588,139
2021-10-14 16:23:44.215607,151
2021-10-14 16:23:44.215616,158
2021-10-14 16:23:44.215624,156
2021-10-14 16:23:44.215633,161
2021-10-14 16:23:44.215641,168
2021-10-14 16:23:44.215649,173
2021-10-14 16:23:44.215658,168
2021-10-14 16:23:44.215669,151
2021-10-14 16:23:44.215677,120
2021-10-14 16:23:44.215685,98
2021-10-14 16:23:44.215694,91
2021-10-14 16:23:44.215702,74
2021-10-14 16:23:44.215710,33
2021-10-14 16:23:44.215718,2
2021-10-14 16:23:44.215727,-16
2021-10-14 16:23:44.215735,-38
2021-10-14 16:23:44.215743,-55
2021-10-14 16:23:44.215752,-67
2021-10-14 16:23:44.215760,-76
2021-10-14 16:23:44.215768,-91
2021-10-14 16:23:44.215777,-101
2021-10-14 16:23:44.215785,-101
2021-10-14 16:23:44.215793,-96
2021-10-14 16:23:44.215801,-96
2021-10-14 16:23:44.215809,-103
2021-10-14 16:23:44.215818,-103
2021-10-14 16:23:44.215826,-98
2021-10-14 16:23:44.215834,-98
2021-10-14 16:23:44.215842,-93
2021-10-14 16:23:44.439977,-79
2021-10-14 16:23:44.439995,-67
2021-10-14 16:23:44.440005,-67
2021-10-14 16:23:44.440013,-64
2021-10-14 16:23:44.440021,-57
2021-10-14 16:23:44.440030,-50
2021-10-14 16:23:44.440038,-40
2021-10-14 16:23:44.440046,-36
2021-10-14 16:23:44.440054,-45
2021-10-14 16:23:44.440063,-57
2021-10-14 16:23:44.440071,-52
2021-10-14 16:23:44.440079,-48
2021-10-14 16:23:44.440087,-52
2021-10-14 16:23:44.440096,-48
2021-10-14 16:23:44.440104,-43
2021-10-14 16:23:44.440112,-50
2021-10-14 16:23:44.440120,-52
2021-10-14 16:23:44.440128,-40
2021-10-14 16:23:44.440136,-36
2021-10-14 16:23:44.440144,-43
2021-10-14 16:23:44.440152,-50
2021-10-14 16:23:44.440160,-52
2021-10-14 16:23:44.440168,-55
2021-10-14 16:23:44.440176,-62
2021-10-14 16:23:44.440184,-50
2021-10-14 16:23:44.440192,-40
2021-10-14 16:23:44.440201,-45
2021-10-14 16:23:44.440209,-45
2021-10-14 16:23:44.440217,-43
2021-10-14 16:23:44.440225,-40
2021-10-14 16:23:44.620233,-28
2021-10-14 16:23:44.620252,-24
2021-10-14 16:23:44.620261,-36
2021-10-14 16:23:44.620269,-33
2021-10-14 16:23:44.620278,-21
2021-10-14 16:23:44.620286,-19
2021-10-14 16:23:44.620294,-24
2021-10-14 16:23:44.620303,-24
2021-10-14 16:23:44.620311,-19
2021-10-14 16:23:44.620319,-19
2021-10-14 16:23:44.620328,-26
2021-10-14 16:23:44.620336,-31
2021-10-14 16:23:44.620344,-12
2021-10-14 16:23:44.620352,12
2021-10-14 16:23:44.620361,14
2021-10-14 16:23:44.620369,16
2021-10-14 16:23:44.620377,26
2021-10-14 16:23:44.620385,14
2021-10-14 16:23:44.620393,-19
2021-10-14 16:23:44.620402,-33
2021-10-14 16:23:44.620410,-28
2021-10-14 16:23:44.620418,-26
2021-10-14 16:23:44.620426,-28
2021-10-14 16:23:44.620435,-26
2021-10-14 16:23:44.620443,-28
2021-10-14 16:23:44.620451,-33
2021-10-14 16:23:44.620459,-31
2021-10-14 16:23:44.620467,-21
2021-10-14 16:23:44.620475,-12
2021-10-14 16:23:44.620484,0
2021-10-14 16:23:44.845659,40
2021-10-14 16:23:44.845680,235
2021-10-14 16:23:44.845690,598
2021-10-14 16:23:44.845699,721
2021-10-14 16:23:44.845707,117
2021-10-14 16:23:44.845716,-769
2021-10-14 16:23:44.845724,-918
2021-10-14 16:23:44.845732,-432
2021-10-14 16:23:44.845741,-141
2021-10-14 16:23:44.845749,-79
2021-10-14 16:23:44.845757,24
2021-10-14 16:23:44.845766,67
2021-10-14 16:23:44.845774,31
2021-10-14 16:23:44.845783,40
2021-10-14 16:23:44.845791,57
2021-10-14 16:23:44.845799,40
2021-10-14 16:23:44.845808,48
2021-10-14 16:23:44.845820,69
2021-10-14 16:23:44.845830,67
2021-10-14 16:23:44.845838,62
2021-10-14 16:23:44.845846,72
2021-10-14 16:23:44.845855,81
2021-10-14 16:23:44.845863,88
2021-10-14 16:23:44.845871,101
2021-10-14 16:23:44.845880,108
2021-10-14 16:23:44.845888,108
2021-10-14 16:23:44.845897,113
2021-10-14 16:23:44.845905,125
2021-10-14 16:23:44.845914,139
2021-10-14 16:23:44.845922,144
2021-10-14 16:23:45.115037,149
2021-10-14 16:23:45.115059,158
2021-10-14 16:23:45.115069,161
2021-10-14 16:23:45.115078,153
2021-10-14 16:23:45.115086,144
2021-10-14 16:23:45.115094,129
2021-10-14 16:23:45.115103,103
2021-10-14 16:23:45.115111,76
2021-10-14 16:23:45.115120,60
2021-10-14 16:23:45.115128,31
2021-10-14 16:23:45.115136,-4
2021-10-14 16:23:45.115145,-40
2021-10-14 16:23:45.115153,-62
2021-10-14 16:23:45.115161,-67
2021-10-14 16:23:45.115170,-79
2021-10-14 16:23:45.115178,-105
2021-10-14 16:23:45.115186,-117
2021-10-14 16:23:45.115194,-115
2021-10-14 16:23:45.115202,-113
2021-10-14 16:23:45.115211,-117
2021-10-14 16:23:45.115219,-120
2021-10-14 16:23:45.115227,-117
2021-10-14 16:23:45.115236,-115
2021-10-14 16:23:45.115244,-115
2021-10-14 16:23:45.115252,-110
2021-10-14 16:23:45.115260,-103
2021-10-14 16:23:45.115269,-93
2021-10-14 16:23:45.115277,-81
2021-10-14 16:23:45.115286,-81
2021-10-14 16:23:45.115294,-93
2021-10-14 16:23:45.295321,-93
2021-10-14 16:23:45.295342,-74
2021-10-14 16:23:45.295351,-57
2021-10-14 16:23:45.295360,-62
2021-10-14 16:23:45.295369,-67
2021-10-14 16:23:45.295378,-64
2021-10-14 16:23:45.295386,-69
2021-10-14 16:23:45.295395,-69
2021-10-14 16:23:45.295403,-64
2021-10-14 16:23:45.295411,-64
2021-10-14 16:23:45.295420,-62
2021-10-14 16:23:45.295428,-69
2021-10-14 16:23:45.295436,-72
2021-10-14 16:23:45.295445,-60
2021-10-14 16:23:45.295453,-52
2021-10-14 16:23:45.295461,-60
2021-10-14 16:23:45.295470,-64
2021-10-14 16:23:45.295478,-67
2021-10-14 16:23:45.295486,-60
2021-10-14 16:23:45.295495,-48
2021-10-14 16:23:45.295503,-62
2021-10-14 16:23:45.295512,-79
2021-10-14 16:23:45.295520,-69
2021-10-14 16:23:45.295534,-67
2021-10-14 16:23:45.295542,-76
2021-10-14 16:23:45.295550,-67
2021-10-14 16:23:45.295559,-55
2021-10-14 16:23:45.295567,-60
2021-10-14 16:23:45.295576,-62
2021-10-14 16:23:45.295584,-55
2021-10-14 16:23:45.565280,-52
2021-10-14 16:23:45.565299,-60
2021-10-14 16:23:45.565308,-57
2021-10-14 16:23:45.565317,-50
2021-10-14 16:23:45.565326,-55
2021-10-14 16:23:45.565334,-57
2021-10-14 16:23:45.565342,-45
2021-10-14 16:23:45.565351,-31
2021-10-14 16:23:45.565359,-19
2021-10-14 16:23:45.565367,-7
2021-10-14 16:23:45.565376,-4
2021-10-14 16:23:45.565384,-19
2021-10-14 16:23:45.565392,-40
2021-10-14 16:23:45.565401,-48
2021-10-14 16:23:45.565409,-45
2021-10-14 16:23:45.565417,-38
2021-10-14 16:23:45.565425,-38
2021-10-14 16:23:45.565434,-36
2021-10-14 16:23:45.565442,-26
2021-10-14 16:23:45.565450,-19
2021-10-14 16:23:45.565459,-19
2021-10-14 16:23:45.565467,-19
2021-10-14 16:23:45.565475,-16
2021-10-14 16:23:45.565484,-7
2021-10-14 16:23:45.565492,40
2021-10-14 16:23:45.565500,214
2021-10-14 16:23:45.565509,572
2021-10-14 16:23:45.565517,771
2021-10-14 16:23:45.565525,240
2021-10-14 16:23:45.565534,-719
2021-10-14 16:23:45.790656,-995
2021-10-14 16:23:45.790676,-538
2021-10-14 16:23:45.790686,-216
2021-10-14 16:23:45.790694,-120
2021-10-14 16:23:45.790703,16
2021-10-14 16:23:45.790711,72
2021-10-14 16:23:45.790720,48
2021-10-14 16:23:45.790728,67
2021-10-14 16:23:45.790737,88
2021-10-14 16:23:45.790745,74
2021-10-14 16:23:45.790754,62
2021-10-14 16:23:45.790762,72
2021-10-14 16:23:45.790771,81
2021-10-14 16:23:45.790779,91
2021-10-14 16:23:45.790787,101
2021-10-14 16:23:45.790796,101
2021-10-14 16:23:45.790804,96
2021-10-14 16:23:45.790813,105
2021-10-14 16:23:45.790821,117
2021-10-14 16:23:45.790829,120
2021-10-14 16:23:45.790838,129
2021-10-14 16:23:45.790846,146
2021-10-14 16:23:45.790855,158
2021-10-14 16:23:45.790863,170
2021-10-14 16:23:45.790871,177
2021-10-14 16:23:45.790879,177
2021-10-14 16:23:45.790888,168
2021-10-14 16:23:45.790896,149
2021-10-14 16:23:45.790904,141
2021-10-14 16:23:45.790913,132
2021-10-14 16:23:46.015687,110
2021-10-14 16:23:46.015705,84
2021-10-14 16:23:46.015715,64
2021-10-14 16:23:46.015723,38
2021-10-14 16:23:46.015732,0
2021-10-14 16:23:46.015740,-38
2021-10-14 16:23:46.015749,-52
2021-10-14 16:23:46.015757,-50
2021-10-14 16:23:46.015765,-69
2021-10-14 16:23:46.015774,-103
2021-10-14 16:23:46.015782,-117
2021-10-14 16:23:46.015790,-113
2021-10-14 16:23:46.015798,-108
2021-10-14 16:23:46.015806,-110
2021-10-14 16:23:46.015815,-120
2021-10-14 16:23:46.015823,-129
2021-10-14 16:23:46.015831,-125
2021-10-14 16:23:46.015839,-110
2021-10-14 16:23:46.015848,-101
2021-10-14 16:23:46.015856,-98
2021-10-14 16:23:46.015864,-88
2021-10-14 16:23:46.015872,-84
2021-10-14 16:23:46.015881,-81
2021-10-14 16:23:46.015889,-74
2021-10-14 16:23:46.015897,-62
2021-10-14 16:23:46.015905,-55
2021-10-14 16:23:46.015914,-57
2021-10-14 16:23:46.015922,-57
2021-10-14 16:23:46.015930,-50
2021-10-14 16:23:46.015939,-43
2021-10-14 16:23:46.375008,-38
2021-10-14 16:23:46.375027,-33
2021-10-14 16:23:46.375037,-36
2021-10-14 16:23:46.375045,-48
2021-10-14 16:23:46.375053,-48
2021-10-14 16:23:46.375061,-43
2021-10-14 16:23:46.375070,-50
2021-10-14 16:23:46.375078,-55
2021-10-14 16:23:46.375086,-57
2021-10-14 16:23:46.375095,-64
2021-10-14 16:23:46.375103,-64
2021-10-14 16:23:46.375111,-57
2021-10-14 16:23:46.375119,-55
2021-10-14 16:23:46.375128,-52
2021-10-14 16:23:46.375136,-57
2021-10-14 16:23:46.375144,-62
2021-10-14 16:23:46.375152,-45
2021-10-14 16:23:46.375160,-33
2021-10-14 16:23:46.375168,-52
2021-10-14 16:23:46.375177,-67
2021-10-14 16:23:46.375185,-45
2021-10-14 16:23:46.375193,-14
2021-10-14 16:23:46.375201,-12
2021-10-14 16:23:46.375210,-24
2021-10-14 16:23:46.375218,-21
2021-10-14 16:23:46.375226,-14
2021-10-14 16:23:46.375234,-16
2021-10-14 16:23:46.375242,-19
2021-10-14 16:23:46.375251,-12
2021-10-14 16:23:46.375259,-4
2021-10-14 16:23:46.465298,-12
2021-10-14 16:23:46.465317,-21
2021-10-14 16:23:46.465326,-24
2021-10-14 16:23:46.465335,-9
2021-10-14 16:23:46.465343,7
2021-10-14 16:23:46.465351,9
2021-10-14 16:23:46.465360,16
2021-10-14 16:23:46.465368,33
2021-10-14 16:23:46.465376,24
2021-10-14 16:23:46.465385,-9
2021-10-14 16:23:46.465393,-21
2021-10-14 16:23:46.465401,-9
2021-10-14 16:23:46.465410,-4
2021-10-14 16:23:46.465418,-9
2021-10-14 16:23:46.465426,-9
2021-10-14 16:23:46.465435,-12
2021-10-14 16:23:46.465443,-9
2021-10-14 16:23:46.465451,2
2021-10-14 16:23:46.465460,4
2021-10-14 16:23:46.465468,-2
2021-10-14 16:23:46.465477,-2
2021-10-14 16:23:46.465485,16
2021-10-14 16:23:46.465493,127
2021-10-14 16:23:46.465502,442
2021-10-14 16:23:46.465510,764
2021-10-14 16:23:46.465518,543
2021-10-14 16:23:46.465527,-348
2021-10-14 16:23:46.465535,-993
2021-10-14 16:23:46.465543,-714
2021-10-14 16:23:46.465552,-226
2021-10-14 16:23:46.780342,-103
2021-10-14 16:23:46.780362,-33
2021-10-14 16:23:46.780371,69
2021-10-14 16:23:46.780380,72
2021-10-14 16:23:46.780388,64
2021-10-14 16:23:46.780396,93
2021-10-14 16:23:46.780405,88
2021-10-14 16:23:46.780413,69
2021-10-14 16:23:46.780421,79
2021-10-14 16:23:46.780429,93
2021-10-14 16:23:46.780437,84
2021-10-14 16:23:46.780446,74
2021-10-14 16:23:46.780454,84
2021-10-14 16:23:46.780462,96
2021-10-14 16:23:46.780470,96
2021-10-14 16:23:46.780479,98
2021-10-14 16:23:46.780487,110
2021-10-14 16:23:46.780495,127
2021-10-14 16:23:46.780503,139
2021-10-14 16:23:46.780512,141
2021-10-14 16:23:46.780520,151
2021-10-14 16:23:46.780528,163
2021-10-14 16:23:46.780537,170
2021-10-14 16:23:46.780545,168
2021-10-14 16:23:46.780553,161
2021-10-14 16:23:46.780562,158
2021-10-14 16:23:46.780570,153
2021-10-14 16:23:46.780578,129
2021-10-14 16:23:46.780586,101
2021-10-14 16:23:46.780598,79
2021-10-14 16:23:46.960148,50
2021-10-14 16:23:46.960189,19
2021-10-14 16:23:46.960200,-7
2021-10-14 16:23:46.960209,-26
2021-10-14 16:23:46.960217,-43
2021-10-14 16:23:46.960226,-64
2021-10-14 16:23:46.960234,-86
2021-10-14 16:23:46.960245,-103
2021-10-14 16:23:46.960254,-110
2021-10-14 16:23:46.960262,-105
2021-10-14 16:23:46.960271,-103
2021-10-14 16:23:46.960279,-103
2021-10-14 16:23:46.960287,-103
2021-10-14 16:23:46.960296,-103
2021-10-14 16:23:46.960304,-98
2021-10-14 16:23:46.960312,-88
2021-10-14 16:23:46.960321,-81
2021-10-14 16:23:46.960329,-81
2021-10-14 16:23:46.960337,-84
2021-10-14 16:23:46.960345,-74
2021-10-14 16:23:46.960354,-60
2021-10-14 16:23:46.960362,-50
2021-10-14 16:23:46.960370,-45
2021-10-14 16:23:46.960378,-45
2021-10-14 16:23:46.960387,-45
2021-10-14 16:23:46.960395,-28
2021-10-14 16:23:46.960403,-28
2021-10-14 16:23:46.960411,-40
2021-10-14 16:23:46.960419,-38
2021-10-14 16:23:46.960428,-36
2021-10-14 16:23:47.274323,-43
2021-10-14 16:23:47.274342,-36
2021-10-14 16:23:47.274351,-28
2021-10-14 16:23:47.274360,-36
2021-10-14 16:23:47.274368,-38
2021-10-14 16:23:47.274376,-31
2021-10-14 16:23:47.274385,-31
2021-10-14 16:23:47.274393,-28
2021-10-14 16:23:47.274401,-31
2021-10-14 16:23:47.274410,-26
2021-10-14 16:23:47.274418,-12
2021-10-14 16:23:47.274426,-12
2021-10-14 16:23:47.274434,-26
2021-10-14 16:23:47.274442,-24
2021-10-14 16:23:47.274451,-21
2021-10-14 16:23:47.274459,-33
2021-10-14 16:23:47.274467,-36
2021-10-14 16:23:47.274475,-28
2021-10-14 16:23:47.274484,-28
2021-10-14 16:23:47.274492,-28
2021-10-14 16:23:47.274500,-21
2021-10-14 16:23:47.274508,-16
2021-10-14 16:23:47.274516,-21
2021-10-14 16:23:47.274524,-21
2021-10-14 16:23:47.274533,-16
2021-10-14 16:23:47.274541,-14
2021-10-14 16:23:47.274549,-14
2021-10-14 16:23:47.274557,-14
2021-10-14 16:23:47.274566,-4
2021-10-14 16:23:47.274574,0
2021-10-14 16:23:47.455627,-4
2021-10-14 16:23:47.455646,-2
2021-10-14 16:23:47.455655,14
2021-10-14 16:23:47.455664,24
2021-10-14 16:23:47.455672,26
2021-10-14 16:23:47.455681,24
2021-10-14 16:23:47.455689,28
2021-10-14 16:23:47.455697,28
2021-10-14 16:23:47.455705,4
2021-10-14 16:23:47.455714,-14
2021-10-14 16:23:47.455722,-12
2021-10-14 16:23:47.455731,-7
2021-10-14 16:23:47.455739,-21
2021-10-14 16:23:47.455747,-28
2021-10-14 16:23:47.455755,-19
2021-10-14 16:23:47.455764,-12
2021-10-14 16:23:47.455772,-16
2021-10-14 16:23:47.455780,-14
2021-10-14 16:23:47.455788,-2
2021-10-14 16:23:47.455796,4
2021-10-14 16:23:47.455805,50
2021-10-14 16:23:47.455813,257
2021-10-14 16:23:47.455821,620
2021-10-14 16:23:47.455830,728
2021-10-14 16:23:47.455838,113
2021-10-14 16:23:47.455846,-781
2021-10-14 16:23:47.455854,-940
2021-10-14 16:23:47.455862,-456
2021-10-14 16:23:47.455871,-156
2021-10-14 16:23:47.455879,-74
2021-10-14 16:23:47.635271,43
2021-10-14 16:23:47.635290,91
2021-10-14 16:23:47.635299,64
2021-10-14 16:23:47.635308,76
2021-10-14 16:23:47.635316,98
2021-10-14 16:23:47.635325,93
2021-10-14 16:23:47.635333,101
2021-10-14 16:23:47.635341,117
2021-10-14 16:23:47.635350,117
2021-10-14 16:23:47.635358,110
2021-10-14 16:23:47.635366,115
2021-10-14 16:23:47.635375,120
2021-10-14 16:23:47.635383,125
2021-10-14 16:23:47.635391,132
2021-10-14 16:23:47.635399,146
2021-10-14 16:23:47.635408,156
2021-10-14 16:23:47.635416,153
2021-10-14 16:23:47.635424,153
2021-10-14 16:23:47.635433,161
2021-10-14 16:23:47.635441,168
2021-10-14 16:23:47.635450,168
2021-10-14 16:23:47.635458,165
2021-10-14 16:23:47.635466,156
2021-10-14 16:23:47.635474,149
2021-10-14 16:23:47.635483,146
2021-10-14 16:23:47.635491,139
2021-10-14 16:23:47.635500,113
2021-10-14 16:23:47.635508,69
2021-10-14 16:23:47.635516,40
2021-10-14 16:23:47.635524,16
2021-10-14 16:23:47.905704,-16
2021-10-14 16:23:47.905724,-48
2021-10-14 16:23:47.905734,-62
2021-10-14 16:23:47.905743,-84
2021-10-14 16:23:47.905751,-113
2021-10-14 16:23:47.905760,-122
2021-10-14 16:23:47.905768,-117
2021-10-14 16:23:47.905776,-113
2021-10-14 16:23:47.905785,-110
2021-10-14 16:23:47.905793,-113
2021-10-14 16:23:47.905801,-113
2021-10-14 16:23:47.905809,-101
2021-10-14 16:23:47.905818,-88
2021-10-14 16:23:47.905826,-86
2021-10-14 16:23:47.905834,-86
2021-10-14 16:23:47.905843,-93
2021-10-14 16:23:47.905851,-101
2021-10-14 16:23:47.905859,-93
2021-10-14 16:23:47.905868,-84
2021-10-14 16:23:47.905876,-76
2021-10-14 16:23:47.905884,-69
2021-10-14 16:23:47.905892,-67
2021-10-14 16:23:47.905900,-64
2021-10-14 16:23:47.905908,-64
2021-10-14 16:23:47.905917,-57
2021-10-14 16:23:47.905925,-52
2021-10-14 16:23:47.905933,-57
2021-10-14 16:23:47.905941,-64
2021-10-14 16:23:47.905950,-52
2021-10-14 16:23:47.905958,-40
2021-10-14 16:23:48.085655,-45
2021-10-14 16:23:48.085675,-50
2021-10-14 16:23:48.085684,-48
2021-10-14 16:23:48.085693,-48
2021-10-14 16:23:48.085701,-48
2021-10-14 16:23:48.085710,-38
2021-10-14 16:23:48.085718,-31
2021-10-14 16:23:48.085727,-28
2021-10-14 16:23:48.085735,-31
2021-10-14 16:23:48.085744,-33
2021-10-14 16:23:48.085752,-31
2021-10-14 16:23:48.085760,-26
2021-10-14 16:23:48.085769,-21
2021-10-14 16:23:48.085777,-21
2021-10-14 16:23:48.085785,-31
2021-10-14 16:23:48.085794,-38
2021-10-14 16:23:48.085802,-28
2021-10-14 16:23:48.085811,-16
2021-10-14 16:23:48.085819,-16
2021-10-14 16:23:48.085827,-16
2021-10-14 16:23:48.085836,-19
2021-10-14 16:23:48.085844,-19
2021-10-14 16:23:48.085852,-19
2021-10-14 16:23:48.085861,-26
2021-10-14 16:23:48.085869,-28
2021-10-14 16:23:48.085877,-21
2021-10-14 16:23:48.085885,-14
2021-10-14 16:23:48.085894,-4
2021-10-14 16:23:48.085902,14
2021-10-14 16:23:48.085910,21
2021-10-14 16:23:48.310651,2
2021-10-14 16:23:48.310670,-21
2021-10-14 16:23:48.310680,-28
2021-10-14 16:23:48.310689,-24
2021-10-14 16:23:48.310697,-16
2021-10-14 16:23:48.310705,-12
2021-10-14 16:23:48.310714,-14
2021-10-14 16:23:48.310722,-21
2021-10-14 16:23:48.310730,-24
2021-10-14 16:23:48.310739,-16
2021-10-14 16:23:48.310747,-4
2021-10-14 16:23:48.310755,2
2021-10-14 16:23:48.310764,33
2021-10-14 16:23:48.310772,185
2021-10-14 16:23:48.310780,550
2021-10-14 16:23:48.310789,827
2021-10-14 16:23:48.310797,396
2021-10-14 16:23:48.310805,-608
2021-10-14 16:23:48.310814,-1065
2021-10-14 16:23:48.310822,-630
2021-10-14 16:23:48.310830,-209
2021-10-14 16:23:48.310839,-125
2021-10-14 16:23:48.310847,0
2021-10-14 16:23:48.310855,93
2021-10-14 16:23:48.310864,52
2021-10-14 16:23:48.310872,50
2021-10-14 16:23:48.310880,86
2021-10-14 16:23:48.310888,74
2021-10-14 16:23:48.310901,76
2021-10-14 16:23:48.310910,105
2021-10-14 16:23:48.579667,105
2021-10-14 16:23:48.579686,88
2021-10-14 16:23:48.579695,91
2021-10-14 16:23:48.579704,105
2021-10-14 16:23:48.579712,113
2021-10-14 16:23:48.579721,115
2021-10-14 16:23:48.579729,120
2021-10-14 16:23:48.579737,129
2021-10-14 16:23:48.579746,141
2021-10-14 16:23:48.579754,149
2021-10-14 16:23:48.579763,156
2021-10-14 16:23:48.579771,170
2021-10-14 16:23:48.579779,180
2021-10-14 16:23:48.579788,177
2021-10-14 16:23:48.579796,177
2021-10-14 16:23:48.579805,180
2021-10-14 16:23:48.579813,161
2021-10-14 16:23:48.579821,132
2021-10-14 16:23:48.579830,117
2021-10-14 16:23:48.579838,101
2021-10-14 16:23:48.579846,69
2021-10-14 16:23:48.579855,31
2021-10-14 16:23:48.579863,-2
2021-10-14 16:23:48.579871,-26
2021-10-14 16:23:48.579879,-55
2021-10-14 16:23:48.579888,-91
2021-10-14 16:23:48.579896,-108
2021-10-14 16:23:48.579904,-120
2021-10-14 16:23:48.579912,-129
2021-10-14 16:23:48.579921,-125
2021-10-14 16:23:48.849795,-125
2021-10-14 16:23:48.849846,-132
2021-10-14 16:23:48.849861,-127
2021-10-14 16:23:48.849868,-117
2021-10-14 16:23:48.849875,-115
2021-10-14 16:23:48.849880,-115
2021-10-14 16:23:48.849885,-113
2021-10-14 16:23:48.849892,-113
2021-10-14 16:23:48.849945,-103
2021-10-14 16:23:48.849953,-96
2021-10-14 16:23:48.849957,-81
2021-10-14 16:23:48.849963,-74
2021-10-14 16:23:48.849967,-79
2021-10-14 16:23:48.849972,-76
2021-10-14 16:23:48.849977,-69
2021-10-14 16:23:48.849981,-74
2021-10-14 16:23:48.849987,-72
2021-10-14 16:23:48.849991,-62
2021-10-14 16:23:48.849996,-60
2021-10-14 16:23:48.850001,-60
2021-10-14 16:23:48.850006,-55
2021-10-14 16:23:48.850010,-52
2021-10-14 16:23:48.850015,-50
2021-10-14 16:23:48.850020,-52
2021-10-14 16:23:48.850024,-52
2021-10-14 16:23:48.850030,-50
2021-10-14 16:23:48.850034,-55
2021-10-14 16:23:48.850039,-60
2021-10-14 16:23:48.850044,-62
2021-10-14 16:23:48.850048,-72
2021-10-14 16:23:49.074686,-76
2021-10-14 16:23:49.074705,-64
2021-10-14 16:23:49.074715,-52
2021-10-14 16:23:49.074724,-57
2021-10-14 16:23:49.074733,-62
2021-10-14 16:23:49.074741,-62
2021-10-14 16:23:49.074749,-57
2021-10-14 16:23:49.074758,-48
2021-10-14 16:23:49.074766,-48
2021-10-14 16:23:49.074774,-55
2021-10-14 16:23:49.074783,-52
2021-10-14 16:23:49.074791,-48
2021-10-14 16:23:49.074799,-43
2021-10-14 16:23:49.074807,-36
2021-10-14 16:23:49.074816,-38
2021-10-14 16:23:49.074824,-40
2021-10-14 16:23:49.074832,-40
2021-10-14 16:23:49.074841,-45
2021-10-14 16:23:49.074849,-45
2021-10-14 16:23:49.074857,-33
2021-10-14 16:23:49.074865,-33
2021-10-14 16:23:49.074874,-43
2021-10-14 16:23:49.074882,-33
2021-10-14 16:23:49.074890,-16
2021-10-14 16:23:49.074898,-12
2021-10-14 16:23:49.074907,-4
2021-10-14 16:23:49.074915,9
2021-10-14 16:23:49.074923,-12
2021-10-14 16:23:49.074932,-43
2021-10-14 16:23:49.074940,-40
2021-10-14 16:23:49.344341,-28
2021-10-14 16:23:49.344360,-40
2021-10-14 16:23:49.344369,-57
2021-10-14 16:23:49.344378,-52
2021-10-14 16:23:49.344386,-43
2021-10-14 16:23:49.344394,-45
2021-10-14 16:23:49.344402,-40
2021-10-14 16:23:49.344410,-28
2021-10-14 16:23:49.344418,-24
2021-10-14 16:23:49.344426,-21
2021-10-14 16:23:49.344434,31
2021-10-14 16:23:49.344442,259
2021-10-14 16:23:49.344450,642
2021-10-14 16:23:49.344459,733
2021-10-14 16:23:49.344467,60
2021-10-14 16:23:49.344475,-860
2021-10-14 16:23:49.344483,-973
2021-10-14 16:23:49.344491,-442
2021-10-14 16:23:49.344500,-149
2021-10-14 16:23:49.344508,-96
2021-10-14 16:23:49.344516,7
2021-10-14 16:23:49.344524,52
2021-10-14 16:23:49.344533,28
2021-10-14 16:23:49.344541,33
2021-10-14 16:23:49.344549,55
2021-10-14 16:23:49.344557,60
2021-10-14 16:23:49.344566,69
2021-10-14 16:23:49.344574,72
2021-10-14 16:23:49.344582,67
2021-10-14 16:23:49.344590,72
2021-10-14 16:23:49.480054,84
2021-10-14 16:23:49.480073,88
2021-10-14 16:23:49.480083,91
2021-10-14 16:23:49.480091,91
2021-10-14 16:23:49.480100,81
2021-10-14 16:23:49.480108,81
2021-10-14 16:23:49.480116,96
2021-10-14 16:23:49.480125,108
2021-10-14 16:23:49.480133,115
2021-10-14 16:23:49.480141,120
2021-10-14 16:23:49.480150,120
2021-10-14 16:23:49.480158,120
2021-10-14 16:23:49.480166,125
2021-10-14 16:23:49.480174,122
2021-10-14 16:23:49.480183,108
2021-10-14 16:23:49.480191,91
2021-10-14 16:23:49.480199,69
2021-10-14 16:23:49.480207,43
2021-10-14 16:23:49.480215,19
2021-10-14 16:23:49.480224,-14
2021-10-14 16:23:49.480232,-50
2021-10-14 16:23:49.480240,-72
2021-10-14 16:23:49.480248,-93
2021-10-14 16:23:49.480257,-117
2021-10-14 16:23:49.480265,-125
2021-10-14 16:23:49.480273,-122
2021-10-14 16:23:49.480281,-127
2021-10-14 16:23:49.480289,-132
2021-10-14 16:23:49.480297,-132
2021-10-14 16:23:49.480306,-127
2021-10-14 16:23:49.749739,-125
2021-10-14 16:23:49.749759,-122
2021-10-14 16:23:49.749769,-115
2021-10-14 16:23:49.749777,-113
2021-10-14 16:23:49.749786,-120
2021-10-14 16:23:49.749794,-122
2021-10-14 16:23:49.749802,-113
2021-10-14 16:23:49.749811,-96
2021-10-14 16:23:49.749819,-88
2021-10-14 16:23:49.749827,-91
2021-10-14 16:23:49.749836,-91
2021-10-14 16:23:49.749844,-81
2021-10-14 16:23:49.749852,-69
2021-10-14 16:23:49.749860,-64
2021-10-14 16:23:49.749869,-60
2021-10-14 16:23:49.749877,-64
2021-10-14 16:23:49.749885,-67
2021-10-14 16:23:49.749893,-62
2021-10-14 16:23:49.749902,-57
2021-10-14 16:23:49.749910,-50
2021-10-14 16:23:49.749918,-50
2021-10-14 16:23:49.749927,-57
2021-10-14 16:23:49.749935,-52
2021-10-14 16:23:49.749943,-43
2021-10-14 16:23:49.749951,-40
2021-10-14 16:23:49.749959,-40
2021-10-14 16:23:49.749968,-40
2021-10-14 16:23:49.749976,-48
2021-10-14 16:23:49.749984,-43
2021-10-14 16:23:49.749992,-31
2021-10-14 16:23:49.930688,-26
2021-10-14 16:23:49.930707,-24
2021-10-14 16:23:49.930717,-24
2021-10-14 16:23:49.930725,-33
2021-10-14 16:23:49.930733,-33
2021-10-14 16:23:49.930742,-24
2021-10-14 16:23:49.930750,-21
2021-10-14 16:23:49.930758,-24
2021-10-14 16:23:49.930767,-26
2021-10-14 16:23:49.930775,-33
2021-10-14 16:23:49.930784,-40
2021-10-14 16:23:49.930792,-40
2021-10-14 16:23:49.930800,-33
2021-10-14 16:23:49.930809,-31
2021-10-14 16:23:49.930817,-36
2021-10-14 16:23:49.930825,-48
2021-10-14 16:23:49.930833,-43
2021-10-14 16:23:49.930842,-26
2021-10-14 16:23:49.930850,-19
2021-10-14 16:23:49.930858,-19
2021-10-14 16:23:49.930867,-19
2021-10-14 16:23:49.930875,-24
2021-10-14 16:23:49.930883,-21
2021-10-14 16:23:49.930891,-12
2021-10-14 16:23:49.930899,-7
2021-10-14 16:23:49.930908,2
2021-10-14 16:23:49.930916,14
2021-10-14 16:23:49.930924,16
2021-10-14 16:23:49.930932,26
2021-10-14 16:23:49.930941,36
2021-10-14 16:23:50.155676,16
2021-10-14 16:23:50.155696,-12
2021-10-14 16:23:50.155705,-16
2021-10-14 16:23:50.155714,-7
2021-10-14 16:23:50.155722,-4
2021-10-14 16:23:50.155731,-7
2021-10-14 16:23:50.155739,-2
2021-10-14 16:23:50.155747,0
2021-10-14 16:23:50.155756,-9
2021-10-14 16:23:50.155764,-24
2021-10-14 16:23:50.155772,-21
2021-10-14 16:23:50.155781,-7
2021-10-14 16:23:50.155789,4
2021-10-14 16:23:50.155797,31
2021-10-14 16:23:50.155806,173
2021-10-14 16:23:50.155814,509
2021-10-14 16:23:50.155822,750
2021-10-14 16:23:50.155831,341
2021-10-14 16:23:50.155839,-569
2021-10-14 16:23:50.155847,-973
2021-10-14 16:23:50.155856,-557
2021-10-14 16:23:50.155864,-156
2021-10-14 16:23:50.155872,-74
2021-10-14 16:23:50.155883,9
2021-10-14 16:23:50.155892,88
2021-10-14 16:23:50.155900,72
2021-10-14 16:23:50.155908,67
2021-10-14 16:23:50.155916,91
2021-10-14 16:23:50.155925,93
2021-10-14 16:23:50.155933,93
2021-10-14 16:23:50.425310,105
2021-10-14 16:23:50.425330,103
2021-10-14 16:23:50.425339,101
2021-10-14 16:23:50.425347,103
2021-10-14 16:23:50.425356,117
2021-10-14 16:23:50.425364,127
2021-10-14 16:23:50.425373,129
2021-10-14 16:23:50.425381,122
2021-10-14 16:23:50.425389,120
2021-10-14 16:23:50.425398,134
2021-10-14 16:23:50.425406,149
2021-10-14 16:23:50.425414,151
2021-10-14 16:23:50.425423,153
2021-10-14 16:23:50.425431,146
2021-10-14 16:23:50.425439,137
2021-10-14 16:23:50.425448,137
2021-10-14 16:23:50.425456,132
2021-10-14 16:23:50.425464,108
2021-10-14 16:23:50.425473,88
2021-10-14 16:23:50.425481,74
2021-10-14 16:23:50.425489,52
2021-10-14 16:23:50.425497,38
2021-10-14 16:23:50.425506,24
2021-10-14 16:23:50.425514,-7
2021-10-14 16:23:50.425522,-38
2021-10-14 16:23:50.425531,-52
2021-10-14 16:23:50.425539,-67
2021-10-14 16:23:50.425547,-81
2021-10-14 16:23:50.425556,-86
2021-10-14 16:23:50.425564,-86
2021-10-14 16:23:50.695130,-88
2021-10-14 16:23:50.695151,-88
2021-10-14 16:23:50.695160,-93
2021-10-14 16:23:50.695169,-88
2021-10-14 16:23:50.695178,-72
2021-10-14 16:23:50.695186,-64
2021-10-14 16:23:50.695195,-76
2021-10-14 16:23:50.695203,-81
2021-10-14 16:23:50.695211,-67
2021-10-14 16:23:50.695220,-55
2021-10-14 16:23:50.695228,-52
2021-10-14 16:23:50.695236,-40
2021-10-14 16:23:50.695245,-26
2021-10-14 16:23:50.695253,-24
2021-10-14 16:23:50.695262,-31
2021-10-14 16:23:50.695270,-31
2021-10-14 16:23:50.695279,-21
2021-10-14 16:23:50.695287,-16
2021-10-14 16:23:50.695295,-24
2021-10-14 16:23:50.695304,-28
2021-10-14 16:23:50.695312,-21
2021-10-14 16:23:50.695320,-9
2021-10-14 16:23:50.695329,-9
2021-10-14 16:23:50.695337,-14
2021-10-14 16:23:50.695345,-9
2021-10-14 16:23:50.695354,0
2021-10-14 16:23:50.695362,-9
2021-10-14 16:23:50.695370,-16
2021-10-14 16:23:50.695379,-4
2021-10-14 16:23:50.695387,4
2021-10-14 16:23:50.830704,-2
2021-10-14 16:23:50.830723,-4
2021-10-14 16:23:50.830732,4
2021-10-14 16:23:50.830741,12
2021-10-14 16:23:50.830749,7
2021-10-14 16:23:50.830758,4
2021-10-14 16:23:50.830766,4
2021-10-14 16:23:50.830774,4
2021-10-14 16:23:50.830782,7
2021-10-14 16:23:50.830791,7
2021-10-14 16:23:50.830799,7
2021-10-14 16:23:50.830807,7
2021-10-14 16:23:50.830816,4
2021-10-14 16:23:50.830824,7
2021-10-14 16:23:50.830832,9
2021-10-14 16:23:50.830841,9
2021-10-14 16:23:50.830849,4
2021-10-14 16:23:50.830857,2
2021-10-14 16:23:50.830866,-2
2021-10-14 16:23:50.830874,-7
2021-10-14 16:23:50.830882,-2
2021-10-14 16:23:50.830890,4
2021-10-14 16:23:50.830898,4
2021-10-14 16:23:50.830907,-7
2021-10-14 16:23:50.830915,-7
2021-10-14 16:23:50.830923,9
2021-10-14 16:23:50.830931,21
2021-10-14 16:23:50.830940,26
2021-10-14 16:23:50.830948,33
2021-10-14 16:23:50.830956,16
2021-10-14 16:23:51.055316,-14
2021-10-14 16:23:51.055335,-19
2021-10-14 16:23:51.055344,-4
2021-10-14 16:23:51.055353,0
2021-10-14 16:23:51.055362,-7
2021-10-14 16:23:51.055370,-9
2021-10-14 16:23:51.055378,-9
2021-10-14 16:23:51.055387,-2
2021-10-14 16:23:51.055395,2
2021-10-14 16:23:51.055403,7
2021-10-14 16:23:51.055412,12
2021-10-14 16:23:51.055420,16
2021-10-14 16:23:51.055428,67
2021-10-14 16:23:51.055437,288
2021-10-14 16:23:51.055445,656
2021-10-14 16:23:51.055453,752
2021-10-14 16:23:51.055461,91
2021-10-14 16:23:51.055470,-808
2021-10-14 16:23:51.055478,-901
2021-10-14 16:23:51.055487,-411
2021-10-14 16:23:51.055495,-156
2021-10-14 16:23:51.055503,-76
2021-10-14 16:23:51.055511,57
2021-10-14 16:23:51.055520,108
2021-10-14 16:23:51.055528,79
2021-10-14 16:23:51.055536,96
2021-10-14 16:23:51.055545,113
2021-10-14 16:23:51.055553,98
2021-10-14 16:23:51.055561,103
2021-10-14 16:23:51.055569,120
2021-10-14 16:23:51.324367,125
2021-10-14 16:23:51.324386,125
2021-10-14 16:23:51.324395,129
2021-10-14 16:23:51.324404,134
2021-10-14 16:23:51.324412,134
2021-10-14 16:23:51.324421,134
2021-10-14 16:23:51.324429,137
2021-10-14 16:23:51.324438,141
2021-10-14 16:23:51.324446,146
2021-10-14 16:23:51.324454,156
2021-10-14 16:23:51.324463,161
2021-10-14 16:23:51.324471,163
2021-10-14 16:23:51.324479,168
2021-10-14 16:23:51.324488,168
2021-10-14 16:23:51.324496,161
2021-10-14 16:23:51.324504,149
2021-10-14 16:23:51.324513,137
2021-10-14 16:23:51.324521,120
2021-10-14 16:23:51.324529,101
2021-10-14 16:23:51.324538,79
2021-10-14 16:23:51.324546,45
2021-10-14 16:23:51.324554,9
2021-10-14 16:23:51.324563,-14
2021-10-14 16:23:51.324571,-36
2021-10-14 16:23:51.324579,-50
2021-10-14 16:23:51.324587,-57
2021-10-14 16:23:51.324595,-69
2021-10-14 16:23:51.324604,-84
2021-10-14 16:23:51.324612,-91
2021-10-14 16:23:51.324620,-98
2021-10-14 16:23:51.505702,-96
2021-10-14 16:23:51.505721,-93
2021-10-14 16:23:51.505730,-91
2021-10-14 16:23:51.505739,-91
2021-10-14 16:23:51.505747,-88
2021-10-14 16:23:51.505755,-81
2021-10-14 16:23:51.505764,-76
2021-10-14 16:23:51.505772,-72
2021-10-14 16:23:51.505780,-60
2021-10-14 16:23:51.505788,-60
2021-10-14 16:23:51.505797,-67
2021-10-14 16:23:51.505805,-57
2021-10-14 16:23:51.505813,-38
2021-10-14 16:23:51.505821,-28
2021-10-14 16:23:51.505830,-31
2021-10-14 16:23:51.505838,-36
2021-10-14 16:23:51.505846,-38
2021-10-14 16:23:51.505855,-31
2021-10-14 16:23:51.505863,-24
2021-10-14 16:23:51.505871,-24
2021-10-14 16:23:51.505879,-24
2021-10-14 16:23:51.505888,-26
2021-10-14 16:23:51.505896,-28
2021-10-14 16:23:51.505904,-31
2021-10-14 16:23:51.505912,-26
2021-10-14 16:23:51.505920,-19
2021-10-14 16:23:51.505929,-21
2021-10-14 16:23:51.505937,-28
2021-10-14 16:23:51.505945,-21
2021-10-14 16:23:51.505953,-16
2021-10-14 16:23:51.775359,-14
2021-10-14 16:23:51.775379,-12
2021-10-14 16:23:51.775388,-12
2021-10-14 16:23:51.775397,-16
2021-10-14 16:23:51.775406,-14
2021-10-14 16:23:51.775414,-14
2021-10-14 16:23:51.775423,-9
2021-10-14 16:23:51.775431,-4
2021-10-14 16:23:51.775439,-14
2021-10-14 16:23:51.775447,-26
2021-10-14 16:23:51.775456,-16
2021-10-14 16:23:51.775464,-2
2021-10-14 16:23:51.775472,-2
2021-10-14 16:23:51.775481,-2
2021-10-14 16:23:51.775489,2
2021-10-14 16:23:51.775497,-2
2021-10-14 16:23:51.775506,-7
2021-10-14 16:23:51.775514,-2
2021-10-14 16:23:51.775522,0
2021-10-14 16:23:51.775531,4
2021-10-14 16:23:51.775539,9
2021-10-14 16:23:51.775547,9
2021-10-14 16:23:51.775555,4
2021-10-14 16:23:51.775563,0
2021-10-14 16:23:51.775572,-4
2021-10-14 16:23:51.775580,2
2021-10-14 16:23:51.775588,24
2021-10-14 16:23:51.775597,28
2021-10-14 16:23:51.775605,26
2021-10-14 16:23:51.775613,43
2021-10-14 16:23:52.000773,50
2021-10-14 16:23:52.000795,26
2021-10-14 16:23:52.000804,2
2021-10-14 16:23:52.000813,-4
2021-10-14 16:23:52.000822,-7
2021-10-14 16:23:52.000830,-16
2021-10-14 16:23:52.000838,-19
2021-10-14 16:23:52.000847,-16
2021-10-14 16:23:52.000856,-19
2021-10-14 16:23:52.000864,-24
2021-10-14 16:23:52.000872,-19
2021-10-14 16:23:52.000881,-4
2021-10-14 16:23:52.000889,-2
2021-10-14 16:23:52.000898,4
2021-10-14 16:23:52.000906,72
2021-10-14 16:23:52.000914,319
2021-10-14 16:23:52.000923,685
2021-10-14 16:23:52.000931,682
2021-10-14 16:23:52.000940,-64
2021-10-14 16:23:52.000948,-889
2021-10-14 16:23:52.000956,-844
2021-10-14 16:23:52.000965,-324
2021-10-14 16:23:52.000973,-103
2021-10-14 16:23:52.000981,-45
2021-10-14 16:23:52.000990,57
2021-10-14 16:23:52.000998,79
2021-10-14 16:23:52.001006,48
2021-10-14 16:23:52.001015,57
2021-10-14 16:23:52.001023,72
2021-10-14 16:23:52.001032,72
2021-10-14 16:23:52.225769,81
2021-10-14 16:23:52.225789,84
2021-10-14 16:23:52.225798,76
2021-10-14 16:23:52.225807,81
2021-10-14 16:23:52.225815,88
2021-10-14 16:23:52.225823,86
2021-10-14 16:23:52.225832,81
2021-10-14 16:23:52.225840,76
2021-10-14 16:23:52.225848,74
2021-10-14 16:23:52.225857,86
2021-10-14 16:23:52.225865,98
2021-10-14 16:23:52.225873,108
2021-10-14 16:23:52.225882,115
2021-10-14 16:23:52.225890,113
2021-10-14 16:23:52.225898,113
2021-10-14 16:23:52.225906,122
2021-10-14 16:23:52.225915,120
2021-10-14 16:23:52.225926,113
2021-10-14 16:23:52.225935,108
2021-10-14 16:23:52.225943,88
2021-10-14 16:23:52.225952,64
2021-10-14 16:23:52.225960,50
2021-10-14 16:23:52.225968,28
2021-10-14 16:23:52.225977,2
2021-10-14 16:23:52.225985,-16
2021-10-14 16:23:52.225993,-31
2021-10-14 16:23:52.226002,-48
2021-10-14 16:23:52.226010,-64
2021-10-14 16:23:52.226018,-76
2021-10-14 16:23:52.226027,-81
2021-10-14 16:23:52.450350,-91
2021-10-14 16:23:52.450370,-96
2021-10-14 16:23:52.450379,-93
2021-10-14 16:23:52.450388,-86
2021-10-14 16:23:52.450396,-81
2021-10-14 16:23:52.450405,-72
2021-10-14 16:23:52.450413,-69
2021-10-14 16:23:52.450421,-72
2021-10-14 16:23:52.450430,-67
2021-10-14 16:23:52.450438,-64
2021-10-14 16:23:52.450447,-74
2021-10-14 16:23:52.450455,-72
2021-10-14 16:23:52.450463,-60
2021-10-14 16:23:52.450472,-60
2021-10-14 16:23:52.450480,-60
2021-10-14 16:23:52.450488,-48
2021-10-14 16:23:52.450497,-40
2021-10-14 16:23:52.450505,-36
2021-10-14 16:23:52.450513,-36
2021-10-14 16:23:52.450522,-36
2021-10-14 16:23:52.450530,-33
2021-10-14 16:23:52.450538,-28
2021-10-14 16:23:52.450546,-28
2021-10-14 16:23:52.450555,-28
2021-10-14 16:23:52.450563,-24
2021-10-14 16:23:52.450571,-24
2021-10-14 16:23:52.450579,-28
2021-10-14 16:23:52.450588,-26
2021-10-14 16:23:52.450596,-19
2021-10-14 16:23:52.450604,-14
2021-10-14 16:23:52.675710,-24
2021-10-14 16:23:52.675729,-28
2021-10-14 16:23:52.675739,-24
2021-10-14 16:23:52.675749,-19
2021-10-14 16:23:52.675758,-12
2021-10-14 16:23:52.675767,-12
2021-10-14 16:23:52.675777,-19
2021-10-14 16:23:52.675786,-16
2021-10-14 16:23:52.675795,-7
2021-10-14 16:23:52.675803,-9
2021-10-14 16:23:52.675812,-16
2021-10-14 16:23:52.675821,-14
2021-10-14 16:23:52.675830,-14
2021-10-14 16:23:52.675839,-12
2021-10-14 16:23:52.675848,-4
2021-10-14 16:23:52.675857,-2
2021-10-14 16:23:52.675866,-2
2021-10-14 16:23:52.675875,-4
2021-10-14 16:23:52.675884,-7
2021-10-14 16:23:52.675893,0
2021-10-14 16:23:52.675902,12
2021-10-14 16:23:52.675910,16
2021-10-14 16:23:52.675919,12
2021-10-14 16:23:52.675928,7
2021-10-14 16:23:52.675937,14
2021-10-14 16:23:52.675946,26
2021-10-14 16:23:52.675955,31
2021-10-14 16:23:52.675963,36
2021-10-14 16:23:52.675972,43
2021-10-14 16:23:52.675981,52
2021-10-14 16:23:52.945440,50
2021-10-14 16:23:52.945461,24
2021-10-14 16:23:52.945471,-9
2021-10-14 16:23:52.945479,-14
2021-10-14 16:23:52.945488,2
2021-10-14 16:23:52.945496,-2
2021-10-14 16:23:52.945504,-14
2021-10-14 16:23:52.945512,-4
2021-10-14 16:23:52.945521,2
2021-10-14 16:23:52.945529,-4
2021-10-14 16:23:52.945537,-2
2021-10-14 16:23:52.945545,4
2021-10-14 16:23:52.945554,7
2021-10-14 16:23:52.945562,45
2021-10-14 16:23:52.945570,204
2021-10-14 16:23:52.945578,531
2021-10-14 16:23:52.945587,745
2021-10-14 16:23:52.945595,298
2021-10-14 16:23:52.945603,-632
2021-10-14 16:23:52.945611,-993
2021-10-14 16:23:52.945619,-562
2021-10-14 16:23:52.945628,-189
2021-10-14 16:23:52.945636,-103
2021-10-14 16:23:52.945644,9
2021-10-14 16:23:52.945652,88
2021-10-14 16:23:52.945661,69
2021-10-14 16:23:52.945669,67
2021-10-14 16:23:52.945677,86
2021-10-14 16:23:52.945685,79
2021-10-14 16:23:52.945693,76
2021-10-14 16:23:53.125699,96
2021-10-14 16:23:53.125718,101
2021-10-14 16:23:53.125728,91
2021-10-14 16:23:53.125736,91
2021-10-14 16:23:53.125745,88
2021-10-14 16:23:53.125753,76
2021-10-14 16:23:53.125761,81
2021-10-14 16:23:53.125770,96
2021-10-14 16:23:53.125778,108
2021-10-14 16:23:53.125786,115
2021-10-14 16:23:53.125795,122
2021-10-14 16:23:53.125803,129
2021-10-14 16:23:53.125811,146
2021-10-14 16:23:53.125820,161
2021-10-14 16:23:53.125828,163
2021-10-14 16:23:53.125836,158
2021-10-14 16:23:53.125845,153
2021-10-14 16:23:53.125853,146
2021-10-14 16:23:53.125861,139
2021-10-14 16:23:53.125869,122
2021-10-14 16:23:53.125878,91
2021-10-14 16:23:53.125886,57
2021-10-14 16:23:53.125894,36
2021-10-14 16:23:53.125903,16
2021-10-14 16:23:53.125911,-4
2021-10-14 16:23:53.125919,-21
2021-10-14 16:23:53.125927,-40
2021-10-14 16:23:53.125935,-60
2021-10-14 16:23:53.125944,-72
2021-10-14 16:23:53.125952,-72
2021-10-14 16:23:53.395017,-72
2021-10-14 16:23:53.395036,-74
2021-10-14 16:23:53.395046,-72
2021-10-14 16:23:53.395054,-67
2021-10-14 16:23:53.395063,-72
2021-10-14 16:23:53.395071,-76
2021-10-14 16:23:53.395079,-74
2021-10-14 16:23:53.395088,-64
2021-10-14 16:23:53.395096,-60
2021-10-14 16:23:53.395105,-69
2021-10-14 16:23:53.395113,-67
2021-10-14 16:23:53.395122,-45
2021-10-14 16:23:53.395130,-36
2021-10-14 16:23:53.395138,-36
2021-10-14 16:23:53.395146,-26
2021-10-14 16:23:53.395155,-26
2021-10-14 16:23:53.395163,-31
2021-10-14 16:23:53.395171,-28
2021-10-14 16:23:53.395179,-26
2021-10-14 16:23:53.395188,-21
2021-10-14 16:23:53.395196,-12
2021-10-14 16:23:53.395204,-21
2021-10-14 16:23:53.395213,-40
2021-10-14 16:23:53.395221,-33
2021-10-14 16:23:53.395229,-24
2021-10-14 16:23:53.395238,-24
2021-10-14 16:23:53.395246,-19
2021-10-14 16:23:53.395254,-19
2021-10-14 16:23:53.395262,-28
2021-10-14 16:23:53.395271,-24
2021-10-14 16:23:53.620352,-12
2021-10-14 16:23:53.620370,-9
2021-10-14 16:23:53.620380,-12
2021-10-14 16:23:53.620388,-19
2021-10-14 16:23:53.620397,-24
2021-10-14 16:23:53.620405,-19
2021-10-14 16:23:53.620413,-9
2021-10-14 16:23:53.620422,-7
2021-10-14 16:23:53.620430,-19
2021-10-14 16:23:53.620438,-33
2021-10-14 16:23:53.620447,-33
2021-10-14 16:23:53.620455,-24
2021-10-14 16:23:53.620463,-16
2021-10-14 16:23:53.620472,-12
2021-10-14 16:23:53.620480,-14
2021-10-14 16:23:53.620488,-21
2021-10-14 16:23:53.620497,-12
2021-10-14 16:23:53.620505,9
2021-10-14 16:23:53.620513,19
2021-10-14 16:23:53.620521,31
2021-10-14 16:23:53.620530,26
2021-10-14 16:23:53.620538,-2
2021-10-14 16:23:53.620546,-19
2021-10-14 16:23:53.620554,-14
2021-10-14 16:23:53.620562,-12
2021-10-14 16:23:53.620571,-12
2021-10-14 16:23:53.620579,-9
2021-10-14 16:23:53.620587,-9
2021-10-14 16:23:53.620595,-7
2021-10-14 16:23:53.620604,0
2021-10-14 16:23:53.845751,4
2021-10-14 16:23:53.845770,12
2021-10-14 16:23:53.845779,16
2021-10-14 16:23:53.845788,43
2021-10-14 16:23:53.845796,187
2021-10-14 16:23:53.845805,550
2021-10-14 16:23:53.845813,841
2021-10-14 16:23:53.845822,425
2021-10-14 16:23:53.845830,-589
2021-10-14 16:23:53.845838,-1060
2021-10-14 16:23:53.845847,-627
2021-10-14 16:23:53.845855,-214
2021-10-14 16:23:53.845863,-122
2021-10-14 16:23:53.845871,-2
2021-10-14 16:23:53.845880,84
2021-10-14 16:23:53.845888,55
2021-10-14 16:23:53.845896,60
2021-10-14 16:23:53.845905,93
2021-10-14 16:23:53.845913,88
2021-10-14 16:23:53.845921,88
2021-10-14 16:23:53.845929,103
2021-10-14 16:23:53.845938,105
2021-10-14 16:23:53.845946,103
2021-10-14 16:23:53.845954,113
2021-10-14 16:23:53.845962,117
2021-10-14 16:23:53.845971,120
2021-10-14 16:23:53.845979,125
2021-10-14 16:23:53.845987,129
2021-10-14 16:23:53.845995,127
2021-10-14 16:23:53.846004,129
2021-10-14 16:23:54.115748,137
2021-10-14 16:23:54.115768,144
2021-10-14 16:23:54.115777,151
2021-10-14 16:23:54.115786,158
2021-10-14 16:23:54.115794,165
2021-10-14 16:23:54.115802,165
2021-10-14 16:23:54.115811,153
2021-10-14 16:23:54.115819,139
2021-10-14 16:23:54.115827,110
2021-10-14 16:23:54.115835,86
2021-10-14 16:23:54.115843,67
2021-10-14 16:23:54.115852,38
2021-10-14 16:23:54.115860,0
2021-10-14 16:23:54.115868,-38
2021-10-14 16:23:54.115876,-67
2021-10-14 16:23:54.115885,-86
2021-10-14 16:23:54.115893,-96
2021-10-14 16:23:54.115901,-103
2021-10-14 16:23:54.115909,-110
2021-10-14 16:23:54.115917,-117
2021-10-14 16:23:54.115926,-117
2021-10-14 16:23:54.115934,-113
2021-10-14 16:23:54.115942,-110
2021-10-14 16:23:54.115950,-108
2021-10-14 16:23:54.115958,-103
2021-10-14 16:23:54.115967,-101
2021-10-14 16:23:54.115975,-96
2021-10-14 16:23:54.115983,-91
2021-10-14 16:23:54.115991,-79
2021-10-14 16:23:54.116000,-62
2021-10-14 16:23:54.295362,-57
2021-10-14 16:23:54.295380,-57
2021-10-14 16:23:54.295390,-55
2021-10-14 16:23:54.295398,-45
2021-10-14 16:23:54.295407,-38
2021-10-14 16:23:54.295415,-33
2021-10-14 16:23:54.295423,-28
2021-10-14 16:23:54.295431,-33
2021-10-14 16:23:54.295440,-36
2021-10-14 16:23:54.295448,-33
2021-10-14 16:23:54.295457,-31
2021-10-14 16:23:54.295465,-28
2021-10-14 16:23:54.295473,-31
2021-10-14 16:23:54.295481,-40
2021-10-14 16:23:54.295489,-48
2021-10-14 16:23:54.295498,-50
2021-10-14 16:23:54.295506,-48
2021-10-14 16:23:54.295514,-45
2021-10-14 16:23:54.295522,-48
2021-10-14 16:23:54.295531,-50
2021-10-14 16:23:54.295539,-43
2021-10-14 16:23:54.295547,-33
2021-10-14 16:23:54.295555,-33
2021-10-14 16:23:54.295563,-33
2021-10-14 16:23:54.295572,-33
2021-10-14 16:23:54.295580,-36
2021-10-14 16:23:54.295588,-28
2021-10-14 16:23:54.295596,-21
2021-10-14 16:23:54.295604,-19
2021-10-14 16:23:54.295612,-19
2021-10-14 16:23:54.520365,-16
2021-10-14 16:23:54.520384,-16
2021-10-14 16:23:54.520393,-14
2021-10-14 16:23:54.520402,-14
2021-10-14 16:23:54.520411,-26
2021-10-14 16:23:54.520419,-36
2021-10-14 16:23:54.520427,-33
2021-10-14 16:23:54.520436,-31
2021-10-14 16:23:54.520444,-24
2021-10-14 16:23:54.520452,-12
2021-10-14 16:23:54.520461,-2
2021-10-14 16:23:54.520469,7
2021-10-14 16:23:54.520477,9
2021-10-14 16:23:54.520486,0
2021-10-14 16:23:54.520500,-21
2021-10-14 16:23:54.520508,-36
2021-10-14 16:23:54.520516,-33
2021-10-14 16:23:54.520525,-33
2021-10-14 16:23:54.520533,-38
2021-10-14 16:23:54.520541,-36
2021-10-14 16:23:54.520550,-28
2021-10-14 16:23:54.520558,-24
2021-10-14 16:23:54.520566,-19
2021-10-14 16:23:54.520575,-14
2021-10-14 16:23:54.520583,-9
2021-10-14 16:23:54.520591,9
2021-10-14 16:23:54.520599,93
2021-10-14 16:23:54.520608,372
2021-10-14 16:23:54.520616,745
2021-10-14 16:23:54.520624,675
2021-10-14 16:23:54.790770,-163
2021-10-14 16:23:54.790789,-976
2021-10-14 16:23:54.790799,-832
2021-10-14 16:23:54.790807,-274
2021-10-14 16:23:54.790816,-93
2021-10-14 16:23:54.790824,-50
2021-10-14 16:23:54.790832,67
2021-10-14 16:23:54.790841,88
2021-10-14 16:23:54.790849,57
2021-10-14 16:23:54.790857,76
2021-10-14 16:23:54.790865,93
2021-10-14 16:23:54.790874,79
2021-10-14 16:23:54.790882,79
2021-10-14 16:23:54.790890,93
2021-10-14 16:23:54.790898,98
2021-10-14 16:23:54.790906,98
2021-10-14 16:23:54.790915,103
2021-10-14 16:23:54.790923,108
2021-10-14 16:23:54.790931,108
2021-10-14 16:23:54.790939,113
2021-10-14 16:23:54.790947,125
2021-10-14 16:23:54.790956,132
2021-10-14 16:23:54.790964,137
2021-10-14 16:23:54.790972,146
2021-10-14 16:23:54.790980,158
2021-10-14 16:23:54.790989,170
2021-10-14 16:23:54.790997,173
2021-10-14 16:23:54.791005,170
2021-10-14 16:23:54.791013,168
2021-10-14 16:23:54.791021,153
2021-10-14 16:23:55.015128,139
2021-10-14 16:23:55.015148,127
2021-10-14 16:23:55.015157,108
2021-10-14 16:23:55.015166,76
2021-10-14 16:23:55.015174,38
2021-10-14 16:23:55.015182,4
2021-10-14 16:23:55.015191,-26
2021-10-14 16:23:55.015199,-50
2021-10-14 16:23:55.015207,-64
2021-10-14 16:23:55.015216,-81
2021-10-14 16:23:55.015224,-105
2021-10-14 16:23:55.015232,-117
2021-10-14 16:23:55.015241,-110
2021-10-14 16:23:55.015249,-110
2021-10-14 16:23:55.015257,-113
2021-10-14 16:23:55.015266,-110
2021-10-14 16:23:55.015274,-113
2021-10-14 16:23:55.015282,-115
2021-10-14 16:23:55.015290,-105
2021-10-14 16:23:55.015299,-101
2021-10-14 16:23:55.015307,-101
2021-10-14 16:23:55.015315,-96
2021-10-14 16:23:55.015324,-86
2021-10-14 16:23:55.015332,-76
2021-10-14 16:23:55.015340,-69
2021-10-14 16:23:55.015348,-62
2021-10-14 16:23:55.015357,-55
2021-10-14 16:23:55.015365,-52
2021-10-14 16:23:55.015373,-48
2021-10-14 16:23:55.015381,-43
2021-10-14 16:23:55.195860,-33
2021-10-14 16:23:55.195881,-26
2021-10-14 16:23:55.195890,-21
2021-10-14 16:23:55.195899,-31
2021-10-14 16:23:55.195907,-45
2021-10-14 16:23:55.195916,-45
2021-10-14 16:23:55.195924,-36
2021-10-14 16:23:55.195932,-36
2021-10-14 16:23:55.195941,-38
2021-10-14 16:23:55.195949,-40
2021-10-14 16:23:55.195957,-43
2021-10-14 16:23:55.195965,-40
2021-10-14 16:23:55.195974,-36
2021-10-14 16:23:55.195982,-28
2021-10-14 16:23:55.195990,-26
2021-10-14 16:23:55.195998,-28
2021-10-14 16:23:55.196007,-31
2021-10-14 16:23:55.196015,-26
2021-10-14 16:23:55.196023,-24
2021-10-14 16:23:55.196032,-19
2021-10-14 16:23:55.196040,-16
2021-10-14 16:23:55.196048,-16
2021-10-14 16:23:55.196056,-16
2021-10-14 16:23:55.196065,-16
2021-10-14 16:23:55.196073,-16
2021-10-14 16:23:55.196081,-9
2021-10-14 16:23:55.196089,-7
2021-10-14 16:23:55.196098,-9
2021-10-14 16:23:55.196106,-9
2021-10-14 16:23:55.196114,-4
2021-10-14 16:23:55.599479,0
2021-10-14 16:23:55.599498,2
2021-10-14 16:23:55.599508,0
2021-10-14 16:23:55.599516,-9
2021-10-14 16:23:55.599525,-9
2021-10-14 16:23:55.599533,4
2021-10-14 16:23:55.599541,19
2021-10-14 16:23:55.599550,26
2021-10-14 16:23:55.599558,33
2021-10-14 16:23:55.599567,31
2021-10-14 16:23:55.599575,7
2021-10-14 16:23:55.599583,-12
2021-10-14 16:23:55.599591,-9
2021-10-14 16:23:55.599600,-4
2021-10-14 16:23:55.599608,-4
2021-10-14 16:23:55.599616,-12
2021-10-14 16:23:55.599624,-21
2021-10-14 16:23:55.599633,-16
2021-10-14 16:23:55.599641,-9
2021-10-14 16:23:55.599649,-4
2021-10-14 16:23:55.599657,-2
2021-10-14 16:23:55.599666,-4
2021-10-14 16:23:55.599674,12
2021-10-14 16:23:55.599682,93
2021-10-14 16:23:55.599691,355
2021-10-14 16:23:55.599699,709
2021-10-14 16:23:55.599707,646
2021-10-14 16:23:55.599715,-165
2021-10-14 16:23:55.599724,-954
2021-10-14 16:23:55.599732,-798
2021-10-14 16:23:55.690674,-252
2021-10-14 16:23:55.690692,-81
2021-10-14 16:23:55.690701,-36
2021-10-14 16:23:55.690710,74
2021-10-14 16:23:55.690718,88
2021-10-14 16:23:55.690727,62
2021-10-14 16:23:55.690735,93
2021-10-14 16:23:55.690743,108
2021-10-14 16:23:55.690751,86
2021-10-14 16:23:55.690760,84
2021-10-14 16:23:55.690768,98
2021-10-14 16:23:55.690776,105
2021-10-14 16:23:55.690784,108
2021-10-14 16:23:55.690793,113
2021-10-14 16:23:55.690801,115
2021-10-14 16:23:55.690809,110
2021-10-14 16:23:55.690817,120
2021-10-14 16:23:55.690826,139
2021-10-14 16:23:55.690834,149
2021-10-14 16:23:55.690842,153
2021-10-14 16:23:55.690851,158
2021-10-14 16:23:55.690859,168
2021-10-14 16:23:55.690867,175
2021-10-14 16:23:55.690875,182
2021-10-14 16:23:55.690884,187
2021-10-14 16:23:55.690892,185
2021-10-14 16:23:55.690900,175
2021-10-14 16:23:55.690908,158
2021-10-14 16:23:55.690917,146
2021-10-14 16:23:55.690925,125
2021-10-14 16:23:55.960811,88
2021-10-14 16:23:55.960831,57
2021-10-14 16:23:55.960841,33
2021-10-14 16:23:55.960850,7
2021-10-14 16:23:55.960858,-12
2021-10-14 16:23:55.960866,-28
2021-10-14 16:23:55.960875,-50
2021-10-14 16:23:55.960883,-64
2021-10-14 16:23:55.960892,-81
2021-10-14 16:23:55.960900,-101
2021-10-14 16:23:55.960908,-93
2021-10-14 16:23:55.960916,-84
2021-10-14 16:23:55.960925,-93
2021-10-14 16:23:55.960933,-101
2021-10-14 16:23:55.960941,-98
2021-10-14 16:23:55.960950,-96
2021-10-14 16:23:55.960958,-86
2021-10-14 16:23:55.960966,-76
2021-10-14 16:23:55.960974,-69
2021-10-14 16:23:55.960983,-64
2021-10-14 16:23:55.960991,-64
2021-10-14 16:23:55.960999,-74
2021-10-14 16:23:55.961007,-69
2021-10-14 16:23:55.961016,-57
2021-10-14 16:23:55.961024,-52
2021-10-14 16:23:55.961032,-43
2021-10-14 16:23:55.961040,-38
2021-10-14 16:23:55.961049,-43
2021-10-14 16:23:55.961057,-43
2021-10-14 16:23:55.961065,-45
2021-10-14 16:23:56.140371,-50
2021-10-14 16:23:56.140390,-48
2021-10-14 16:23:56.140400,-43
2021-10-14 16:23:56.140408,-40
2021-10-14 16:23:56.140417,-36
2021-10-14 16:23:56.140425,-33
2021-10-14 16:23:56.140434,-33
2021-10-14 16:23:56.140442,-40
2021-10-14 16:23:56.140450,-45
2021-10-14 16:23:56.140459,-40
2021-10-14 16:23:56.140467,-33
2021-10-14 16:23:56.140476,-31
2021-10-14 16:23:56.140484,-31
2021-10-14 16:23:56.140492,-36
2021-10-14 16:23:56.140500,-31
2021-10-14 16:23:56.140509,-21
2021-10-14 16:23:56.140517,-31
2021-10-14 16:23:56.140525,-36
2021-10-14 16:23:56.140534,-24
2021-10-14 16:23:56.140542,-24
2021-10-14 16:23:56.140550,-26
2021-10-14 16:23:56.140558,-19
2021-10-14 16:23:56.140567,-14
2021-10-14 16:23:56.140575,-16
2021-10-14 16:23:56.140583,-14
2021-10-14 16:23:56.140591,-9
2021-10-14 16:23:56.140600,-7
2021-10-14 16:23:56.140608,-7
2021-10-14 16:23:56.140616,-2
2021-10-14 16:23:56.140625,2
2021-10-14 16:23:56.365393,2
2021-10-14 16:23:56.365412,-2
2021-10-14 16:23:56.365422,7
2021-10-14 16:23:56.365431,24
2021-10-14 16:23:56.365439,26
2021-10-14 16:23:56.365448,28
2021-10-14 16:23:56.365456,28
2021-10-14 16:23:56.365464,7
2021-10-14 16:23:56.365473,-14
2021-10-14 16:23:56.365481,-12
2021-10-14 16:23:56.365490,-7
2021-10-14 16:23:56.365498,-12
2021-10-14 16:23:56.365506,-16
2021-10-14 16:23:56.365514,-14
2021-10-14 16:23:56.365523,-7
2021-10-14 16:23:56.365531,-4
2021-10-14 16:23:56.365539,-2
2021-10-14 16:23:56.365547,7
2021-10-14 16:23:56.365556,14
2021-10-14 16:23:56.365564,31
2021-10-14 16:23:56.365573,146
2021-10-14 16:23:56.365581,476
2021-10-14 16:23:56.365589,812
2021-10-14 16:23:56.365598,553
2021-10-14 16:23:56.365606,-406
2021-10-14 16:23:56.365614,-1031
2021-10-14 16:23:56.365623,-694
2021-10-14 16:23:56.365631,-238
2021-10-14 16:23:56.365639,-141
2021-10-14 16:23:56.365648,-31
2021-10-14 16:23:56.680691,91
2021-10-14 16:23:56.680709,76
2021-10-14 16:23:56.680719,55
2021-10-14 16:23:56.680728,79
2021-10-14 16:23:56.680736,84
2021-10-14 16:23:56.680744,74
2021-10-14 16:23:56.680753,79
2021-10-14 16:23:56.680761,91
2021-10-14 16:23:56.680769,96
2021-10-14 16:23:56.680778,98
2021-10-14 16:23:56.680786,103
2021-10-14 16:23:56.680794,105
2021-10-14 16:23:56.680802,105
2021-10-14 16:23:56.680810,110
2021-10-14 16:23:56.680819,120
2021-10-14 16:23:56.680827,129
2021-10-14 16:23:56.680835,144
2021-10-14 16:23:56.680844,151
2021-10-14 16:23:56.680852,158
2021-10-14 16:23:56.680860,173
2021-10-14 16:23:56.680869,182
2021-10-14 16:23:56.680877,185
2021-10-14 16:23:56.680885,180
2021-10-14 16:23:56.680893,168
2021-10-14 16:23:56.680901,151
2021-10-14 16:23:56.680910,132
2021-10-14 16:23:56.680918,113
2021-10-14 16:23:56.680926,86
2021-10-14 16:23:56.680935,55
2021-10-14 16:23:56.680943,24
2021-10-14 16:23:56.904852,-4
2021-10-14 16:23:56.904872,-24
2021-10-14 16:23:56.904881,-36
2021-10-14 16:23:56.904890,-55
2021-10-14 16:23:56.904898,-74
2021-10-14 16:23:56.904906,-81
2021-10-14 16:23:56.904915,-86
2021-10-14 16:23:56.904923,-91
2021-10-14 16:23:56.904931,-96
2021-10-14 16:23:56.904939,-96
2021-10-14 16:23:56.904947,-96
2021-10-14 16:23:56.904955,-103
2021-10-14 16:23:56.904964,-98
2021-10-14 16:23:56.904972,-86
2021-10-14 16:23:56.904980,-86
2021-10-14 16:23:56.904988,-81
2021-10-14 16:23:56.904997,-76
2021-10-14 16:23:56.905005,-72
2021-10-14 16:23:56.905013,-62
2021-10-14 16:23:56.905021,-50
2021-10-14 16:23:56.905029,-50
2021-10-14 16:23:56.905037,-52
2021-10-14 16:23:56.905046,-50
2021-10-14 16:23:56.905054,-48
2021-10-14 16:23:56.905062,-45
2021-10-14 16:23:56.905070,-40
2021-10-14 16:23:56.905078,-43
2021-10-14 16:23:56.905087,-45
2021-10-14 16:23:56.905095,-45
2021-10-14 16:23:56.905103,-43
2021-10-14 16:23:57.175778,-40
2021-10-14 16:23:57.175796,-33
2021-10-14 16:23:57.175806,-36
2021-10-14 16:23:57.175814,-50
2021-10-14 16:23:57.175823,-60
2021-10-14 16:23:57.175831,-52
2021-10-14 16:23:57.175839,-48
2021-10-14 16:23:57.175848,-55
2021-10-14 16:23:57.175856,-52
2021-10-14 16:23:57.175865,-52
2021-10-14 16:23:57.175873,-62
2021-10-14 16:23:57.175881,-60
2021-10-14 16:23:57.175889,-40
2021-10-14 16:23:57.175898,-36
2021-10-14 16:23:57.175906,-43
2021-10-14 16:23:57.175914,-43
2021-10-14 16:23:57.175922,-48
2021-10-14 16:23:57.175931,-45
2021-10-14 16:23:57.175939,-36
2021-10-14 16:23:57.175956,-28
2021-10-14 16:23:57.175965,-31
2021-10-14 16:23:57.175973,-33
2021-10-14 16:23:57.175981,-31
2021-10-14 16:23:57.175989,-26
2021-10-14 16:23:57.175998,-21
2021-10-14 16:23:57.176006,-19
2021-10-14 16:23:57.176014,-21
2021-10-14 16:23:57.176022,-21
2021-10-14 16:23:57.176031,-9
2021-10-14 16:23:57.176039,0
2021-10-14 16:23:57.355772,2
2021-10-14 16:23:57.355791,14
2021-10-14 16:23:57.355801,33
2021-10-14 16:23:57.355809,28
2021-10-14 16:23:57.355818,0
2021-10-14 16:23:57.355826,-16
2021-10-14 16:23:57.355834,-16
2021-10-14 16:23:57.355842,-14
2021-10-14 16:23:57.355851,-14
2021-10-14 16:23:57.355859,-19
2021-10-14 16:23:57.355868,-16
2021-10-14 16:23:57.355876,-9
2021-10-14 16:23:57.355885,-7
2021-10-14 16:23:57.355893,-4
2021-10-14 16:23:57.355901,4
2021-10-14 16:23:57.355909,12
2021-10-14 16:23:57.355918,31
2021-10-14 16:23:57.355926,170
2021-10-14 16:23:57.355934,524
2021-10-14 16:23:57.355943,810
2021-10-14 16:23:57.355951,435
2021-10-14 16:23:57.355959,-519
2021-10-14 16:23:57.355968,-993
2021-10-14 16:23:57.355976,-560
2021-10-14 16:23:57.355984,-122
2021-10-14 16:23:57.355993,-67
2021-10-14 16:23:57.356001,4
2021-10-14 16:23:57.356009,88
2021-10-14 16:23:57.356018,64
2021-10-14 16:23:57.356026,64
2021-10-14 16:23:57.579052,101
2021-10-14 16:23:57.579071,96
2021-10-14 16:23:57.579080,84
2021-10-14 16:23:57.579089,93
2021-10-14 16:23:57.579097,103
2021-10-14 16:23:57.579105,105
2021-10-14 16:23:57.579114,103
2021-10-14 16:23:57.579122,108
2021-10-14 16:23:57.579131,115
2021-10-14 16:23:57.579139,113
2021-10-14 16:23:57.579147,110
2021-10-14 16:23:57.579156,115
2021-10-14 16:23:57.579164,122
2021-10-14 16:23:57.579172,132
2021-10-14 16:23:57.579181,134
2021-10-14 16:23:57.579189,132
2021-10-14 16:23:57.579197,141
2021-10-14 16:23:57.579205,153
2021-10-14 16:23:57.579214,156
2021-10-14 16:23:57.579222,149
2021-10-14 16:23:57.579230,122
2021-10-14 16:23:57.579239,91
2021-10-14 16:23:57.579247,81
2021-10-14 16:23:57.579255,72
2021-10-14 16:23:57.579263,45
2021-10-14 16:23:57.579272,12
2021-10-14 16:23:57.579280,-24
2021-10-14 16:23:57.579288,-48
2021-10-14 16:23:57.579297,-62
2021-10-14 16:23:57.579305,-74
2021-10-14 16:23:57.760912,-88
2021-10-14 16:23:57.760932,-98
2021-10-14 16:23:57.760941,-103
2021-10-14 16:23:57.760950,-105
2021-10-14 16:23:57.760958,-101
2021-10-14 16:23:57.760966,-96
2021-10-14 16:23:57.760975,-98
2021-10-14 16:23:57.760983,-101
2021-10-14 16:23:57.760991,-98
2021-10-14 16:23:57.761000,-93
2021-10-14 16:23:57.761008,-91
2021-10-14 16:23:57.761016,-84
2021-10-14 16:23:57.761024,-72
2021-10-14 16:23:57.761033,-72
2021-10-14 16:23:57.761041,-84
2021-10-14 16:23:57.761049,-79
2021-10-14 16:23:57.761058,-62
2021-10-14 16:23:57.761066,-55
2021-10-14 16:23:57.761074,-50
2021-10-14 16:23:57.761083,-48
2021-10-14 16:23:57.761091,-45
2021-10-14 16:23:57.761099,-36
2021-10-14 16:23:57.761108,-33
2021-10-14 16:23:57.761116,-38
2021-10-14 16:23:57.761124,-38
2021-10-14 16:23:57.761132,-36
2021-10-14 16:23:57.761141,-36
2021-10-14 16:23:57.761149,-36
2021-10-14 16:23:57.761157,-28
2021-10-14 16:23:57.761165,-21
2021-10-14 16:23:58.029812,-21
2021-10-14 16:23:58.029831,-28
2021-10-14 16:23:58.029841,-26
2021-10-14 16:23:58.029849,-21
2021-10-14 16:23:58.029858,-16
2021-10-14 16:23:58.029866,-9
2021-10-14 16:23:58.029874,-12
2021-10-14 16:23:58.029883,-21
2021-10-14 16:23:58.029891,-26
2021-10-14 16:23:58.029899,-19
2021-10-14 16:23:58.029908,-12
2021-10-14 16:23:58.029916,-7
2021-10-14 16:23:58.029924,-14
2021-10-14 16:23:58.029933,-21
2021-10-14 16:23:58.029941,-33
2021-10-14 16:23:58.029950,-45
2021-10-14 16:23:58.029958,-45
2021-10-14 16:23:58.029966,-33
2021-10-14 16:23:58.029974,-31
2021-10-14 16:23:58.029983,-38
2021-10-14 16:23:58.029991,-36
2021-10-14 16:23:58.029999,-31
2021-10-14 16:23:58.030008,-26
2021-10-14 16:23:58.030016,-19
2021-10-14 16:23:58.030024,-16
2021-10-14 16:23:58.030032,-19
2021-10-14 16:23:58.030040,-16
2021-10-14 16:23:58.030049,-14
2021-10-14 16:23:58.030057,-9
2021-10-14 16:23:58.030065,2
2021-10-14 16:23:58.210384,14
2021-10-14 16:23:58.210403,21
2021-10-14 16:23:58.210412,26
2021-10-14 16:23:58.210420,31
2021-10-14 16:23:58.210429,24
2021-10-14 16:23:58.210437,7
2021-10-14 16:23:58.210445,-9
2021-10-14 16:23:58.210454,-19
2021-10-14 16:23:58.210462,-19
2021-10-14 16:23:58.210470,-12
2021-10-14 16:23:58.210479,-7
2021-10-14 16:23:58.210487,-4
2021-10-14 16:23:58.210495,-9
2021-10-14 16:23:58.210504,-14
2021-10-14 16:23:58.210512,-7
2021-10-14 16:23:58.210520,9
2021-10-14 16:23:58.210529,14
2021-10-14 16:23:58.210537,55
2021-10-14 16:23:58.210545,278
2021-10-14 16:23:58.210554,666
2021-10-14 16:23:58.210562,740
2021-10-14 16:23:58.210570,50
2021-10-14 16:23:58.210579,-829
2021-10-14 16:23:58.210587,-853
2021-10-14 16:23:58.210595,-322
2021-10-14 16:23:58.210604,-98
2021-10-14 16:23:58.210612,-64
2021-10-14 16:23:58.210620,48
2021-10-14 16:23:58.210629,88
2021-10-14 16:23:58.210637,57
2021-10-14 16:23:58.480797,74
2021-10-14 16:23:58.480816,96
2021-10-14 16:23:58.480825,86
2021-10-14 16:23:58.480834,88
2021-10-14 16:23:58.480842,105
2021-10-14 16:23:58.480851,105
2021-10-14 16:23:58.480859,96
2021-10-14 16:23:58.480867,103
2021-10-14 16:23:58.480876,113
2021-10-14 16:23:58.480884,110
2021-10-14 16:23:58.480893,117
2021-10-14 16:23:58.480901,127
2021-10-14 16:23:58.480909,125
2021-10-14 16:23:58.480918,127
2021-10-14 16:23:58.480926,141
2021-10-14 16:23:58.480934,151
2021-10-14 16:23:58.480943,156
2021-10-14 16:23:58.480951,161
2021-10-14 16:23:58.480959,158
2021-10-14 16:23:58.480967,146
2021-10-14 16:23:58.480975,115
2021-10-14 16:23:58.480983,86
2021-10-14 16:23:58.480992,79
2021-10-14 16:23:58.481000,67
2021-10-14 16:23:58.481008,40
2021-10-14 16:23:58.481017,24
2021-10-14 16:23:58.481025,9
2021-10-14 16:23:58.481033,-16
2021-10-14 16:23:58.481041,-43
2021-10-14 16:23:58.481050,-55
2021-10-14 16:23:58.660824,-67
2021-10-14 16:23:58.660844,-74
2021-10-14 16:23:58.660853,-81
2021-10-14 16:23:58.660861,-81
2021-10-14 16:23:58.660870,-81
2021-10-14 16:23:58.660878,-86
2021-10-14 16:23:58.660886,-91
2021-10-14 16:23:58.660895,-86
2021-10-14 16:23:58.660903,-76
2021-10-14 16:23:58.660911,-76
2021-10-14 16:23:58.660919,-72
2021-10-14 16:23:58.660927,-64
2021-10-14 16:23:58.660936,-60
2021-10-14 16:23:58.660944,-48
2021-10-14 16:23:58.660952,-38
2021-10-14 16:23:58.660960,-38
2021-10-14 16:23:58.660968,-38
2021-10-14 16:23:58.660977,-36
2021-10-14 16:23:58.660985,-26
2021-10-14 16:23:58.660993,-9
2021-10-14 16:23:58.661001,-7
2021-10-14 16:23:58.661009,-14
2021-10-14 16:23:58.661018,-16
2021-10-14 16:23:58.661026,-14
2021-10-14 16:23:58.661034,-16
2021-10-14 16:23:58.661042,-19
2021-10-14 16:23:58.661050,-16
2021-10-14 16:23:58.661058,-14
2021-10-14 16:23:58.661067,-12
2021-10-14 16:23:58.661075,-14
2021-10-14 16:23:58.885840,-19
2021-10-14 16:23:58.885860,-14
2021-10-14 16:23:58.885870,-12
2021-10-14 16:23:58.885878,-16
2021-10-14 16:23:58.885887,-16
2021-10-14 16:23:58.885895,-9
2021-10-14 16:23:58.885904,-9
2021-10-14 16:23:58.885912,-14
2021-10-14 16:23:58.885920,-7
2021-10-14 16:23:58.885929,-7
2021-10-14 16:23:58.885937,-14
2021-10-14 16:23:58.885945,-12
2021-10-14 16:23:58.885954,-4
2021-10-14 16:23:58.885962,-4
2021-10-14 16:23:58.885970,-2
2021-10-14 16:23:58.885978,-2
2021-10-14 16:23:58.885987,-4
2021-10-14 16:23:58.885995,-2
2021-10-14 16:23:58.886003,4
2021-10-14 16:23:58.886012,12
2021-10-14 16:23:58.886020,16
2021-10-14 16:23:58.886028,16
2021-10-14 16:23:58.886036,14
2021-10-14 16:23:58.886045,7
2021-10-14 16:23:58.886053,4
2021-10-14 16:23:58.886061,14
2021-10-14 16:23:58.886070,16
2021-10-14 16:23:58.886078,2
2021-10-14 16:23:58.886086,4
2021-10-14 16:23:58.886095,24
2021-10-14 16:23:59.200811,40
2021-10-14 16:23:59.200830,31
2021-10-14 16:23:59.200839,0
2021-10-14 16:23:59.200848,-21
2021-10-14 16:23:59.200856,-21
2021-10-14 16:23:59.200865,-12
2021-10-14 16:23:59.200873,-9
2021-10-14 16:23:59.200881,-9
2021-10-14 16:23:59.200890,-7
2021-10-14 16:23:59.200898,-14
2021-10-14 16:23:59.200906,-14
2021-10-14 16:23:59.200915,0
2021-10-14 16:23:59.200923,7
2021-10-14 16:23:59.200931,16
2021-10-14 16:23:59.200939,84
2021-10-14 16:23:59.200948,329
2021-10-14 16:23:59.200956,711
2021-10-14 16:23:59.200964,709
2021-10-14 16:23:59.200973,-105
2021-10-14 16:23:59.200981,-964
2021-10-14 16:23:59.200990,-872
2021-10-14 16:23:59.200998,-358
2021-10-14 16:23:59.201006,-177
2021-10-14 16:23:59.201014,-98
2021-10-14 16:23:59.201022,33
2021-10-14 16:23:59.201031,50
2021-10-14 16:23:59.201039,14
2021-10-14 16:23:59.201047,36
2021-10-14 16:23:59.201056,57
2021-10-14 16:23:59.201064,60
2021-10-14 16:23:59.380424,69
2021-10-14 16:23:59.380444,79
2021-10-14 16:23:59.380453,79
2021-10-14 16:23:59.380462,79
2021-10-14 16:23:59.380470,84
2021-10-14 16:23:59.380479,98
2021-10-14 16:23:59.380487,110
2021-10-14 16:23:59.380495,117
2021-10-14 16:23:59.380503,115
2021-10-14 16:23:59.380512,115
2021-10-14 16:23:59.380520,132
2021-10-14 16:23:59.380528,149
2021-10-14 16:23:59.380536,156
2021-10-14 16:23:59.380545,161
2021-10-14 16:23:59.380553,158
2021-10-14 16:23:59.380561,146
2021-10-14 16:23:59.380569,141
2021-10-14 16:23:59.380577,134
2021-10-14 16:23:59.380586,122
2021-10-14 16:23:59.380594,105
2021-10-14 16:23:59.380602,74
2021-10-14 16:23:59.380610,43
2021-10-14 16:23:59.380619,21
2021-10-14 16:23:59.380627,-2
2021-10-14 16:23:59.380635,-21
2021-10-14 16:23:59.380643,-31
2021-10-14 16:23:59.380651,-48
2021-10-14 16:23:59.380659,-69
2021-10-14 16:23:59.380667,-79
2021-10-14 16:23:59.380676,-79
2021-10-14 16:23:59.649085,-72
2021-10-14 16:23:59.649103,-72
2021-10-14 16:23:59.649113,-91
2021-10-14 16:23:59.649122,-105
2021-10-14 16:23:59.649130,-93
2021-10-14 16:23:59.649138,-76
2021-10-14 16:23:59.649146,-72
2021-10-14 16:23:59.649155,-69
2021-10-14 16:23:59.649163,-72
2021-10-14 16:23:59.649171,-72
2021-10-14 16:23:59.649180,-57
2021-10-14 16:23:59.649188,-43
2021-10-14 16:23:59.649196,-43
2021-10-14 16:23:59.649204,-40
2021-10-14 16:23:59.649213,-40
2021-10-14 16:23:59.649221,-43
2021-10-14 16:23:59.649229,-33
2021-10-14 16:23:59.649237,-24
2021-10-14 16:23:59.649245,-21
2021-10-14 16:23:59.649254,-24
2021-10-14 16:23:59.649262,-28
2021-10-14 16:23:59.649270,-31
2021-10-14 16:23:59.649278,-28
2021-10-14 16:23:59.649286,-21
2021-10-14 16:23:59.649295,-16
2021-10-14 16:23:59.649303,-19
2021-10-14 16:23:59.649311,-21
2021-10-14 16:23:59.649319,-19
2021-10-14 16:23:59.649328,-16
2021-10-14 16:23:59.649336,-21
2021-10-14 16:23:59.875915,-24
2021-10-14 16:23:59.875936,-19
2021-10-14 16:23:59.875945,-21
2021-10-14 16:23:59.875954,-24
2021-10-14 16:23:59.875962,-14
2021-10-14 16:23:59.875971,-7
2021-10-14 16:23:59.875979,-12
2021-10-14 16:23:59.875987,-19
2021-10-14 16:23:59.875996,-19
2021-10-14 16:23:59.876004,-19
2021-10-14 16:23:59.876012,-16
2021-10-14 16:23:59.876021,-4
2021-10-14 16:23:59.876029,-2
2021-10-14 16:23:59.876037,-14
2021-10-14 16:23:59.876046,-16
2021-10-14 16:23:59.876054,-4
2021-10-14 16:23:59.876062,-4
2021-10-14 16:23:59.876070,-7
2021-10-14 16:23:59.876078,-4
2021-10-14 16:23:59.876087,-4
2021-10-14 16:23:59.876095,0
2021-10-14 16:23:59.876103,4
2021-10-14 16:23:59.876112,7
2021-10-14 16:23:59.876120,9
2021-10-14 16:23:59.876128,9
2021-10-14 16:23:59.876136,12
2021-10-14 16:23:59.876145,24
2021-10-14 16:23:59.876153,33
2021-10-14 16:23:59.876161,40
2021-10-14 16:23:59.876170,52
2021-10-14 16:24:00.190862,48
2021-10-14 16:24:00.190883,16
2021-10-14 16:24:00.190892,-2
2021-10-14 16:24:00.190901,-2
2021-10-14 16:24:00.190909,2
2021-10-14 16:24:00.190928,4
2021-10-14 16:24:00.190937,9
2021-10-14 16:24:00.190945,4
2021-10-14 16:24:00.190954,-7
2021-10-14 16:24:00.190962,-4
2021-10-14 16:24:00.190971,7
2021-10-14 16:24:00.190979,14
2021-10-14 16:24:00.190987,12
2021-10-14 16:24:00.190996,55
2021-10-14 16:24:00.191004,278
2021-10-14 16:24:00.191012,666
2021-10-14 16:24:00.191021,762
2021-10-14 16:24:00.191029,98
2021-10-14 16:24:00.191038,-810
2021-10-14 16:24:00.191046,-889
2021-10-14 16:24:00.191054,-339
2021-10-14 16:24:00.191063,-86
2021-10-14 16:24:00.191071,-67
2021-10-14 16:24:00.191079,40
2021-10-14 16:24:00.191088,88
2021-10-14 16:24:00.191096,52
2021-10-14 16:24:00.191104,67
2021-10-14 16:24:00.191113,91
2021-10-14 16:24:00.191121,84
2021-10-14 16:24:00.191129,84
2021-10-14 16:24:00.370266,91
2021-10-14 16:24:00.370287,98
2021-10-14 16:24:00.370296,98
2021-10-14 16:24:00.370305,98
2021-10-14 16:24:00.370313,101
2021-10-14 16:24:00.370322,103
2021-10-14 16:24:00.370330,103
2021-10-14 16:24:00.370339,105
2021-10-14 16:24:00.370347,113
2021-10-14 16:24:00.370355,122
2021-10-14 16:24:00.370364,129
2021-10-14 16:24:00.370372,132
2021-10-14 16:24:00.370380,129
2021-10-14 16:24:00.370389,129
2021-10-14 16:24:00.370397,129
2021-10-14 16:24:00.370405,127
2021-10-14 16:24:00.370413,120
2021-10-14 16:24:00.370422,98
2021-10-14 16:24:00.370430,72
2021-10-14 16:24:00.370439,57
2021-10-14 16:24:00.370447,45
2021-10-14 16:24:00.370455,28
2021-10-14 16:24:00.370464,7
2021-10-14 16:24:00.370472,-21
2021-10-14 16:24:00.370481,-45
2021-10-14 16:24:00.370489,-55
2021-10-14 16:24:00.370497,-60
2021-10-14 16:24:00.370506,-72
2021-10-14 16:24:00.370514,-79
2021-10-14 16:24:00.370522,-86
2021-10-14 16:24:00.594894,-91
2021-10-14 16:24:00.594914,-88
2021-10-14 16:24:00.594923,-84
2021-10-14 16:24:00.594932,-81
2021-10-14 16:24:00.594940,-79
2021-10-14 16:24:00.594948,-79
2021-10-14 16:24:00.594957,-79
2021-10-14 16:24:00.594965,-69
2021-10-14 16:24:00.594974,-60
2021-10-14 16:24:00.594982,-55
2021-10-14 16:24:00.594990,-52
2021-10-14 16:24:00.594999,-52
2021-10-14 16:24:00.595007,-48
2021-10-14 16:24:00.595015,-45
2021-10-14 16:24:00.595024,-57
2021-10-14 16:24:00.595032,-57
2021-10-14 16:24:00.595040,-48
2021-10-14 16:24:00.595049,-48
2021-10-14 16:24:00.595057,-48
2021-10-14 16:24:00.595065,-45
2021-10-14 16:24:00.595073,-40
2021-10-14 16:24:00.595082,-36
2021-10-14 16:24:00.595090,-38
2021-10-14 16:24:00.595098,-40
2021-10-14 16:24:00.595106,-36
2021-10-14 16:24:00.595115,-28
2021-10-14 16:24:00.595123,-28
2021-10-14 16:24:00.595131,-33
2021-10-14 16:24:00.595139,-31
2021-10-14 16:24:00.595148,-28
2021-10-14 16:24:00.775856,-28
2021-10-14 16:24:00.775877,-26
2021-10-14 16:24:00.775886,-19
2021-10-14 16:24:00.775895,-14
2021-10-14 16:24:00.775904,-21
2021-10-14 16:24:00.775912,-26
2021-10-14 16:24:00.775920,-19
2021-10-14 16:24:00.775929,-16
2021-10-14 16:24:00.775937,-26
2021-10-14 16:24:00.775946,-28
2021-10-14 16:24:00.775954,-31
2021-10-14 16:24:00.775962,-36
2021-10-14 16:24:00.775971,-28
2021-10-14 16:24:00.775979,-21
2021-10-14 16:24:00.775987,-19
2021-10-14 16:24:00.775996,-16
2021-10-14 16:24:00.776004,-14
2021-10-14 16:24:00.776012,-16
2021-10-14 16:24:00.776020,-12
2021-10-14 16:24:00.776028,-4
2021-10-14 16:24:00.776037,-2
2021-10-14 16:24:00.776045,-4
2021-10-14 16:24:00.776053,-12
2021-10-14 16:24:00.776061,-4
2021-10-14 16:24:00.776069,14
2021-10-14 16:24:00.776078,26
2021-10-14 16:24:00.776086,26
2021-10-14 16:24:00.776094,28
2021-10-14 16:24:00.776102,36
2021-10-14 16:24:00.776111,21
2021-10-14 16:24:00.955834,0
2021-10-14 16:24:00.955854,-4
2021-10-14 16:24:00.955863,2
2021-10-14 16:24:00.955872,-4
2021-10-14 16:24:00.955880,-16
2021-10-14 16:24:00.955889,-9
2021-10-14 16:24:00.955897,0
2021-10-14 16:24:00.955905,2
2021-10-14 16:24:00.955914,4
2021-10-14 16:24:00.955922,4
2021-10-14 16:24:00.955931,4
2021-10-14 16:24:00.955939,14
2021-10-14 16:24:00.955947,98
2021-10-14 16:24:00.955956,375
2021-10-14 16:24:00.955964,728
2021-10-14 16:24:00.955972,642
2021-10-14 16:24:00.955981,-170
2021-10-14 16:24:00.955989,-928
2021-10-14 16:24:00.955997,-757
2021-10-14 16:24:00.956006,-242
2021-10-14 16:24:00.956014,-105
2021-10-14 16:24:00.956022,-69
2021-10-14 16:24:00.956031,45
2021-10-14 16:24:00.956039,62
2021-10-14 16:24:00.956047,43
2021-10-14 16:24:00.956056,72
2021-10-14 16:24:00.956064,79
2021-10-14 16:24:00.956072,67
2021-10-14 16:24:00.956081,79
2021-10-14 16:24:00.956089,88
2021-10-14 16:24:01.270559,88
2021-10-14 16:24:01.270580,93
2021-10-14 16:24:01.270590,93
2021-10-14 16:24:01.270598,86
2021-10-14 16:24:01.270607,86
2021-10-14 16:24:01.270615,88
2021-10-14 16:24:01.270624,98
2021-10-14 16:24:01.270633,115
2021-10-14 16:24:01.270641,122
2021-10-14 16:24:01.270650,105
2021-10-14 16:24:01.270658,103
2021-10-14 16:24:01.270666,120
2021-10-14 16:24:01.270675,129
2021-10-14 16:24:01.270683,134
2021-10-14 16:24:01.270692,132
2021-10-14 16:24:01.270700,110
2021-10-14 16:24:01.270708,96
2021-10-14 16:24:01.270717,91
2021-10-14 16:24:01.270725,76
2021-10-14 16:24:01.270733,52
2021-10-14 16:24:01.270741,26
2021-10-14 16:24:01.270750,0
2021-10-14 16:24:01.270758,-16
2021-10-14 16:24:01.270767,-26
2021-10-14 16:24:01.270775,-40
2021-10-14 16:24:01.270783,-57
2021-10-14 16:24:01.270792,-69
2021-10-14 16:24:01.270800,-74
2021-10-14 16:24:01.270808,-76
2021-10-14 16:24:01.270817,-79
2021-10-14 16:24:01.450451,-79
2021-10-14 16:24:01.450470,-69
2021-10-14 16:24:01.450479,-62
2021-10-14 16:24:01.450488,-62
2021-10-14 16:24:01.450496,-52
2021-10-14 16:24:01.450505,-45
2021-10-14 16:24:01.450513,-40
2021-10-14 16:24:01.450521,-40
2021-10-14 16:24:01.450530,-48
2021-10-14 16:24:01.450538,-43
2021-10-14 16:24:01.450546,-26
2021-10-14 16:24:01.450555,-19
2021-10-14 16:24:01.450563,-19
2021-10-14 16:24:01.450571,-21
2021-10-14 16:24:01.450580,-21
2021-10-14 16:24:01.450588,-14
2021-10-14 16:24:01.450596,-9
2021-10-14 16:24:01.450604,-14
2021-10-14 16:24:01.450613,-14
2021-10-14 16:24:01.450621,-14
2021-10-14 16:24:01.450629,-19
2021-10-14 16:24:01.450638,-24
2021-10-14 16:24:01.450646,-19
2021-10-14 16:24:01.450654,-12
2021-10-14 16:24:01.450662,-19
2021-10-14 16:24:01.450671,-40
2021-10-14 16:24:01.450679,-45
2021-10-14 16:24:01.450687,-40
2021-10-14 16:24:01.450695,-43
2021-10-14 16:24:01.450704,-40
2021-10-14 16:24:01.719092,-31
2021-10-14 16:24:01.719110,-38
2021-10-14 16:24:01.719120,-43
2021-10-14 16:24:01.719129,-31
2021-10-14 16:24:01.719137,-19
2021-10-14 16:24:01.719146,-19
2021-10-14 16:24:01.719154,-16
2021-10-14 16:24:01.719163,-21
2021-10-14 16:24:01.719171,-33
2021-10-14 16:24:01.719179,-31
2021-10-14 16:24:01.719187,-21
2021-10-14 16:24:01.719196,-19
2021-10-14 16:24:01.719204,-16
2021-10-14 16:24:01.719213,-19
2021-10-14 16:24:01.719221,-31
2021-10-14 16:24:01.719230,-28
2021-10-14 16:24:01.719238,-14
2021-10-14 16:24:01.719246,-9
2021-10-14 16:24:01.719255,-7
2021-10-14 16:24:01.719263,4
2021-10-14 16:24:01.719271,14
2021-10-14 16:24:01.719280,-2
2021-10-14 16:24:01.719288,-24
2021-10-14 16:24:01.719296,-24
2021-10-14 16:24:01.719305,-24
2021-10-14 16:24:01.719313,-31
2021-10-14 16:24:01.719321,-33
2021-10-14 16:24:01.719329,-26
2021-10-14 16:24:01.719338,-19
2021-10-14 16:24:01.719346,-12
2021-10-14 16:24:01.945538,-9
2021-10-14 16:24:01.945558,-7
2021-10-14 16:24:01.945568,0
2021-10-14 16:24:01.945576,21
2021-10-14 16:24:01.945585,139
2021-10-14 16:24:01.945593,468
2021-10-14 16:24:01.945601,786
2021-10-14 16:24:01.945610,483
2021-10-14 16:24:01.945618,-480
2021-10-14 16:24:01.945626,-1034
2021-10-14 16:24:01.945634,-651
2021-10-14 16:24:01.945643,-214
2021-10-14 16:24:01.945651,-139
2021-10-14 16:24:01.945659,-38
2021-10-14 16:24:01.945668,76
2021-10-14 16:24:01.945676,60
2021-10-14 16:24:01.945684,45
2021-10-14 16:24:01.945693,74
2021-10-14 16:24:01.945701,76
2021-10-14 16:24:01.945709,67
2021-10-14 16:24:01.945717,76
2021-10-14 16:24:01.945726,81
2021-10-14 16:24:01.945734,84
2021-10-14 16:24:01.945742,91
2021-10-14 16:24:01.945750,93
2021-10-14 16:24:01.945758,96
2021-10-14 16:24:01.945766,105
2021-10-14 16:24:01.945774,113
2021-10-14 16:24:01.945783,117
2021-10-14 16:24:01.945791,125
2021-10-14 16:24:02.125902,122
2021-10-14 16:24:02.125922,125
2021-10-14 16:24:02.125931,132
2021-10-14 16:24:02.125940,132
2021-10-14 16:24:02.125948,134
2021-10-14 16:24:02.125957,141
2021-10-14 16:24:02.125965,129
2021-10-14 16:24:02.125974,113
2021-10-14 16:24:02.125982,96
2021-10-14 16:24:02.125991,69
2021-10-14 16:24:02.125999,43
2021-10-14 16:24:02.126008,16
2021-10-14 16:24:02.126016,-19
2021-10-14 16:24:02.126024,-48
2021-10-14 16:24:02.126033,-67
2021-10-14 16:24:02.126041,-84
2021-10-14 16:24:02.126050,-93
2021-10-14 16:24:02.126058,-105
2021-10-14 16:24:02.126066,-122
2021-10-14 16:24:02.126075,-125
2021-10-14 16:24:02.126083,-125
2021-10-14 16:24:02.126091,-132
2021-10-14 16:24:02.126100,-132
2021-10-14 16:24:02.126108,-127
2021-10-14 16:24:02.126116,-125
2021-10-14 16:24:02.126125,-117
2021-10-14 16:24:02.126133,-108
2021-10-14 16:24:02.126141,-101
2021-10-14 16:24:02.126150,-93
2021-10-14 16:24:02.126158,-88
2021-10-14 16:24:02.395886,-79
2021-10-14 16:24:02.395902,-67
2021-10-14 16:24:02.395908,-62
2021-10-14 16:24:02.395912,-62
2021-10-14 16:24:02.395917,-64
2021-10-14 16:24:02.395921,-64
2021-10-14 16:24:02.395925,-64
2021-10-14 16:24:02.395929,-60
2021-10-14 16:24:02.395934,-55
2021-10-14 16:24:02.395938,-55
2021-10-14 16:24:02.395942,-55
2021-10-14 16:24:02.395947,-55
2021-10-14 16:24:02.395951,-62
2021-10-14 16:24:02.395955,-62
2021-10-14 16:24:02.395959,-52
2021-10-14 16:24:02.395964,-48
2021-10-14 16:24:02.395968,-50
2021-10-14 16:24:02.395972,-50
2021-10-14 16:24:02.395976,-48
2021-10-14 16:24:02.395981,-48
2021-10-14 16:24:02.395985,-45
2021-10-14 16:24:02.395989,-43
2021-10-14 16:24:02.395994,-50
2021-10-14 16:24:02.395998,-52
2021-10-14 16:24:02.396002,-45
2021-10-14 16:24:02.396006,-43
2021-10-14 16:24:02.396010,-40
2021-10-14 16:24:02.396015,-33
2021-10-14 16:24:02.396019,-33
2021-10-14 16:24:02.396023,-38
2021-10-14 16:24:02.575488,-33
2021-10-14 16:24:02.575507,-28
2021-10-14 16:24:02.575516,-26
2021-10-14 16:24:02.575525,-24
2021-10-14 16:24:02.575533,-26
2021-10-14 16:24:02.575541,-33
2021-10-14 16:24:02.575550,-40
2021-10-14 16:24:02.575558,-31
2021-10-14 16:24:02.575566,-21
2021-10-14 16:24:02.575575,-21
2021-10-14 16:24:02.575583,-26
2021-10-14 16:24:02.575592,-19
2021-10-14 16:24:02.575600,4
2021-10-14 16:24:02.575608,14
2021-10-14 16:24:02.575617,-9
2021-10-14 16:24:02.575625,-36
2021-10-14 16:24:02.575633,-48
2021-10-14 16:24:02.575641,-45
2021-10-14 16:24:02.575650,-38
2021-10-14 16:24:02.575658,-31
2021-10-14 16:24:02.575666,-31
2021-10-14 16:24:02.575675,-33
2021-10-14 16:24:02.575683,-31
2021-10-14 16:24:02.575691,-28
2021-10-14 16:24:02.575699,-24
2021-10-14 16:24:02.575708,-19
2021-10-14 16:24:02.575716,7
2021-10-14 16:24:02.575724,153
2021-10-14 16:24:02.575733,502
2021-10-14 16:24:02.575741,757
2021-10-14 16:24:02.850758,360
2021-10-14 16:24:02.850780,-572
2021-10-14 16:24:02.850789,-995
2021-10-14 16:24:02.850798,-562
2021-10-14 16:24:02.850807,-156
2021-10-14 16:24:02.850815,-101
2021-10-14 16:24:02.850824,-19
2021-10-14 16:24:02.850832,69
2021-10-14 16:24:02.850840,50
2021-10-14 16:24:02.850849,36
2021-10-14 16:24:02.850857,57
2021-10-14 16:24:02.850865,64
2021-10-14 16:24:02.850873,69
2021-10-14 16:24:02.850882,79
2021-10-14 16:24:02.850890,79
2021-10-14 16:24:02.850898,76
2021-10-14 16:24:02.850906,81
2021-10-14 16:24:02.850915,93
2021-10-14 16:24:02.850923,98
2021-10-14 16:24:02.850932,103
2021-10-14 16:24:02.850940,113
2021-10-14 16:24:02.850948,120
2021-10-14 16:24:02.850957,125
2021-10-14 16:24:02.850965,137
2021-10-14 16:24:02.850973,151
2021-10-14 16:24:02.850982,158
2021-10-14 16:24:02.850990,156
2021-10-14 16:24:02.850998,146
2021-10-14 16:24:02.851006,146
2021-10-14 16:24:02.851015,144
2021-10-14 16:24:03.070943,127
2021-10-14 16:24:03.070964,108
2021-10-14 16:24:03.070973,88
2021-10-14 16:24:03.070982,67
2021-10-14 16:24:03.070991,48
2021-10-14 16:24:03.070999,24
2021-10-14 16:24:03.071007,-4
2021-10-14 16:24:03.071016,-26
2021-10-14 16:24:03.071024,-52
2021-10-14 16:24:03.071032,-81
2021-10-14 16:24:03.071041,-93
2021-10-14 16:24:03.071049,-101
2021-10-14 16:24:03.071057,-115
2021-10-14 16:24:03.071066,-115
2021-10-14 16:24:03.071074,-115
2021-10-14 16:24:03.071082,-127
2021-10-14 16:24:03.071090,-122
2021-10-14 16:24:03.071099,-108
2021-10-14 16:24:03.071107,-98
2021-10-14 16:24:03.071115,-91
2021-10-14 16:24:03.071124,-86
2021-10-14 16:24:03.071132,-84
2021-10-14 16:24:03.071140,-76
2021-10-14 16:24:03.071149,-64
2021-10-14 16:24:03.071157,-52
2021-10-14 16:24:03.071165,-43
2021-10-14 16:24:03.071173,-40
2021-10-14 16:24:03.071182,-48
2021-10-14 16:24:03.071190,-48
2021-10-14 16:24:03.071198,-38
2021-10-14 16:24:03.295533,-31
2021-10-14 16:24:03.295553,-26
2021-10-14 16:24:03.295563,-28
2021-10-14 16:24:03.295571,-36
2021-10-14 16:24:03.295580,-28
2021-10-14 16:24:03.295588,-21
2021-10-14 16:24:03.295596,-21
2021-10-14 16:24:03.295605,-21
2021-10-14 16:24:03.295658,-24
2021-10-14 16:24:03.295667,-31
2021-10-14 16:24:03.295676,-28
2021-10-14 16:24:03.295684,-21
2021-10-14 16:24:03.295692,-16
2021-10-14 16:24:03.295701,-12
2021-10-14 16:24:03.295709,-19
2021-10-14 16:24:03.295718,-26
2021-10-14 16:24:03.295726,-19
2021-10-14 16:24:03.295734,-9
2021-10-14 16:24:03.295743,-9
2021-10-14 16:24:03.295751,-4
2021-10-14 16:24:03.295759,-4
2021-10-14 16:24:03.295768,-7
2021-10-14 16:24:03.295776,0
2021-10-14 16:24:03.295784,7
2021-10-14 16:24:03.295793,9
2021-10-14 16:24:03.295801,14
2021-10-14 16:24:03.295809,16
2021-10-14 16:24:03.295818,14
2021-10-14 16:24:03.295826,16
2021-10-14 16:24:03.295835,28
2021-10-14 16:24:03.564848,33
2021-10-14 16:24:03.564867,33
2021-10-14 16:24:03.564877,40
2021-10-14 16:24:03.564885,36
2021-10-14 16:24:03.564894,14
2021-10-14 16:24:03.564902,7
2021-10-14 16:24:03.564910,7
2021-10-14 16:24:03.564919,7
2021-10-14 16:24:03.564927,7
2021-10-14 16:24:03.564936,0
2021-10-14 16:24:03.564944,-7
2021-10-14 16:24:03.564952,4
2021-10-14 16:24:03.564961,16
2021-10-14 16:24:03.564969,14
2021-10-14 16:24:03.564977,12
2021-10-14 16:24:03.564985,24
2021-10-14 16:24:03.564994,105
2021-10-14 16:24:03.565002,387
2021-10-14 16:24:03.565010,764
2021-10-14 16:24:03.565018,656
2021-10-14 16:24:03.565027,-259
2021-10-14 16:24:03.565035,-1060
2021-10-14 16:24:03.565043,-839
2021-10-14 16:24:03.565051,-295
2021-10-14 16:24:03.565060,-144
2021-10-14 16:24:03.565068,-57
2021-10-14 16:24:03.565076,81
2021-10-14 16:24:03.565085,81
2021-10-14 16:24:03.565093,60
2021-10-14 16:24:03.565101,103
2021-10-14 16:24:03.789165,115
2021-10-14 16:24:03.789185,88
2021-10-14 16:24:03.789195,93
2021-10-14 16:24:03.789203,105
2021-10-14 16:24:03.789212,103
2021-10-14 16:24:03.789221,115
2021-10-14 16:24:03.789229,132
2021-10-14 16:24:03.789237,129
2021-10-14 16:24:03.789246,132
2021-10-14 16:24:03.789254,144
2021-10-14 16:24:03.789262,158
2021-10-14 16:24:03.789271,168
2021-10-14 16:24:03.789279,175
2021-10-14 16:24:03.789287,185
2021-10-14 16:24:03.789296,204
2021-10-14 16:24:03.789304,216
2021-10-14 16:24:03.789312,218
2021-10-14 16:24:03.789321,216
2021-10-14 16:24:03.789329,216
2021-10-14 16:24:03.789337,206
2021-10-14 16:24:03.789345,189
2021-10-14 16:24:03.789354,173
2021-10-14 16:24:03.789362,151
2021-10-14 16:24:03.789370,120
2021-10-14 16:24:03.789379,86
2021-10-14 16:24:03.789387,52
2021-10-14 16:24:03.789395,24
2021-10-14 16:24:03.789403,0
2021-10-14 16:24:03.789412,-21
2021-10-14 16:24:03.789420,-45
2021-10-14 16:24:04.015870,-62
2021-10-14 16:24:04.015889,-64
2021-10-14 16:24:04.015899,-67
2021-10-14 16:24:04.015908,-76
2021-10-14 16:24:04.015916,-84
2021-10-14 16:24:04.015925,-93
2021-10-14 16:24:04.015933,-98
2021-10-14 16:24:04.015942,-101
2021-10-14 16:24:04.015950,-108
2021-10-14 16:24:04.015958,-105
2021-10-14 16:24:04.015966,-88
2021-10-14 16:24:04.015975,-84
2021-10-14 16:24:04.015983,-93
2021-10-14 16:24:04.015992,-88
2021-10-14 16:24:04.016000,-79
2021-10-14 16:24:04.016008,-74
2021-10-14 16:24:04.016016,-67
2021-10-14 16:24:04.016025,-57
2021-10-14 16:24:04.016033,-50
2021-10-14 16:24:04.016042,-48
2021-10-14 16:24:04.016050,-45
2021-10-14 16:24:04.016058,-48
2021-10-14 16:24:04.016066,-50
2021-10-14 16:24:04.016075,-55
2021-10-14 16:24:04.016083,-64
2021-10-14 16:24:04.016091,-64
2021-10-14 16:24:04.016099,-57
2021-10-14 16:24:04.016108,-52
2021-10-14 16:24:04.016116,-50
2021-10-14 16:24:04.016124,-50
2021-10-14 16:24:04.195864,-48
2021-10-14 16:24:04.195883,-40
2021-10-14 16:24:04.195892,-36
2021-10-14 16:24:04.195901,-40
2021-10-14 16:24:04.195909,-36
2021-10-14 16:24:04.195918,-26
2021-10-14 16:24:04.195926,-33
2021-10-14 16:24:04.195935,-40
2021-10-14 16:24:04.195943,-33
2021-10-14 16:24:04.195952,-21
2021-10-14 16:24:04.195960,-19
2021-10-14 16:24:04.195969,-24
2021-10-14 16:24:04.195977,-12
2021-10-14 16:24:04.195986,9
2021-10-14 16:24:04.195994,0
2021-10-14 16:24:04.196002,-28
2021-10-14 16:24:04.196011,-43
2021-10-14 16:24:04.196019,-45
2021-10-14 16:24:04.196027,-45
2021-10-14 16:24:04.196036,-31
2021-10-14 16:24:04.196044,-24
2021-10-14 16:24:04.196052,-31
2021-10-14 16:24:04.196061,-31
2021-10-14 16:24:04.196069,-24
2021-10-14 16:24:04.196077,-14
2021-10-14 16:24:04.196086,-7
2021-10-14 16:24:04.196094,19
2021-10-14 16:24:04.196102,141
