Time,ECG
2021-10-14 16:43:40.347138,98
2021-10-14 16:43:40.347157,67
2021-10-14 16:43:40.347166,57
2021-10-14 16:43:40.347175,91
2021-10-14 16:43:40.347183,91
2021-10-14 16:43:40.347192,86
2021-10-14 16:43:40.347200,101
2021-10-14 16:43:40.347209,105
2021-10-14 16:43:40.347217,98
2021-10-14 16:43:40.347226,96
2021-10-14 16:43:40.347234,108
2021-10-14 16:43:40.347243,117
2021-10-14 16:43:40.347251,122
2021-10-14 16:43:40.347259,132
2021-10-14 16:43:40.347268,134
2021-10-14 16:43:40.347276,134
2021-10-14 16:43:40.347284,149
2021-10-14 16:43:40.347293,168
2021-10-14 16:43:40.347301,175
2021-10-14 16:43:40.347310,177
2021-10-14 16:43:40.347318,187
2021-10-14 16:43:40.347326,192
2021-10-14 16:43:40.347334,189
2021-10-14 16:43:40.347343,182
2021-10-14 16:43:40.347351,170
2021-10-14 16:43:40.347360,146
2021-10-14 16:43:40.347369,113
2021-10-14 16:43:40.347377,84
2021-10-14 16:43:40.347385,55
2021-10-14 16:43:40.347393,19
2021-10-14 16:43:40.645306,-16
2021-10-14 16:43:40.645326,-40
2021-10-14 16:43:40.645335,-62
2021-10-14 16:43:40.645344,-84
2021-10-14 16:43:40.645352,-88
2021-10-14 16:43:40.645361,-86
2021-10-14 16:43:40.645370,-88
2021-10-14 16:43:40.645378,-93
2021-10-14 16:43:40.645386,-103
2021-10-14 16:43:40.645395,-105
2021-10-14 16:43:40.645403,-101
2021-10-14 16:43:40.645411,-93
2021-10-14 16:43:40.645420,-91
2021-10-14 16:43:40.645428,-96
2021-10-14 16:43:40.645436,-103
2021-10-14 16:43:40.645445,-98
2021-10-14 16:43:40.645453,-91
2021-10-14 16:43:40.645462,-86
2021-10-14 16:43:40.645470,-76
2021-10-14 16:43:40.645479,-76
2021-10-14 16:43:40.645487,-86
2021-10-14 16:43:40.645495,-96
2021-10-14 16:43:40.645503,-93
2021-10-14 16:43:40.645511,-81
2021-10-14 16:43:40.645520,-76
2021-10-14 16:43:40.645528,-81
2021-10-14 16:43:40.645536,-81
2021-10-14 16:43:40.645544,-72
2021-10-14 16:43:40.645552,-67
2021-10-14 16:43:40.645562,-69
2021-10-14 16:43:40.735838,-64
2021-10-14 16:43:40.735856,-62
2021-10-14 16:43:40.735865,-69
2021-10-14 16:43:40.735873,-74
2021-10-14 16:43:40.735882,-64
2021-10-14 16:43:40.735890,-57
2021-10-14 16:43:40.735898,-57
2021-10-14 16:43:40.735907,-64
2021-10-14 16:43:40.735915,-62
2021-10-14 16:43:40.735923,-57
2021-10-14 16:43:40.735931,-52
2021-10-14 16:43:40.735939,-45
2021-10-14 16:43:40.735948,-40
2021-10-14 16:43:40.735966,-43
2021-10-14 16:43:40.735975,-45
2021-10-14 16:43:40.735983,-40
2021-10-14 16:43:40.735992,-33
2021-10-14 16:43:40.736000,-26
2021-10-14 16:43:40.736008,-31
2021-10-14 16:43:40.736017,-40
2021-10-14 16:43:40.736025,-38
2021-10-14 16:43:40.736033,-33
2021-10-14 16:43:40.736041,-28
2021-10-14 16:43:40.736049,-16
2021-10-14 16:43:40.736058,-7
2021-10-14 16:43:40.736066,-7
2021-10-14 16:43:40.736074,-2
2021-10-14 16:43:40.736083,16
2021-10-14 16:43:40.736091,12
2021-10-14 16:43:40.736100,-14
2021-10-14 16:43:40.961922,-33
2021-10-14 16:43:40.961941,-36
2021-10-14 16:43:40.961951,-33
2021-10-14 16:43:40.961959,-33
2021-10-14 16:43:40.961968,-38
2021-10-14 16:43:40.961976,-36
2021-10-14 16:43:40.961984,-38
2021-10-14 16:43:40.961992,-40
2021-10-14 16:43:40.962001,-31
2021-10-14 16:43:40.962009,-21
2021-10-14 16:43:40.962017,-9
2021-10-14 16:43:40.962025,28
2021-10-14 16:43:40.962034,204
2021-10-14 16:43:40.962042,565
2021-10-14 16:43:40.962050,740
2021-10-14 16:43:40.962058,180
2021-10-14 16:43:40.962067,-769
2021-10-14 16:43:40.962077,-988
2021-10-14 16:43:40.962085,-459
2021-10-14 16:43:40.962094,-120
2021-10-14 16:43:40.962102,-76
2021-10-14 16:43:40.962110,24
2021-10-14 16:43:40.962119,88
2021-10-14 16:43:40.962127,57
2021-10-14 16:43:40.962135,67
2021-10-14 16:43:40.962143,93
2021-10-14 16:43:40.962152,74
2021-10-14 16:43:40.962160,62
2021-10-14 16:43:40.962168,84
2021-10-14 16:43:40.962177,91
2021-10-14 16:43:41.141861,84
2021-10-14 16:43:41.141880,91
2021-10-14 16:43:41.141890,103
2021-10-14 16:43:41.141898,108
2021-10-14 16:43:41.141907,117
2021-10-14 16:43:41.141915,127
2021-10-14 16:43:41.141923,129
2021-10-14 16:43:41.141935,137
2021-10-14 16:43:41.141944,149
2021-10-14 16:43:41.141952,158
2021-10-14 16:43:41.141960,165
2021-10-14 16:43:41.141969,173
2021-10-14 16:43:41.141977,173
2021-10-14 16:43:41.141985,175
2021-10-14 16:43:41.141993,175
2021-10-14 16:43:41.142002,165
2021-10-14 16:43:41.142010,149
2021-10-14 16:43:41.142018,125
2021-10-14 16:43:41.142027,98
2021-10-14 16:43:41.142035,79
2021-10-14 16:43:41.142043,52
2021-10-14 16:43:41.142051,14
2021-10-14 16:43:41.142060,-12
2021-10-14 16:43:41.142068,-31
2021-10-14 16:43:41.142076,-50
2021-10-14 16:43:41.142084,-62
2021-10-14 16:43:41.142092,-69
2021-10-14 16:43:41.142100,-76
2021-10-14 16:43:41.142109,-81
2021-10-14 16:43:41.142118,-86
2021-10-14 16:43:41.456458,-86
2021-10-14 16:43:41.456476,-76
2021-10-14 16:43:41.456485,-74
2021-10-14 16:43:41.456494,-76
2021-10-14 16:43:41.456503,-79
2021-10-14 16:43:41.456511,-84
2021-10-14 16:43:41.456519,-84
2021-10-14 16:43:41.456528,-81
2021-10-14 16:43:41.456536,-84
2021-10-14 16:43:41.456544,-84
2021-10-14 16:43:41.456552,-76
2021-10-14 16:43:41.456561,-74
2021-10-14 16:43:41.456569,-67
2021-10-14 16:43:41.456577,-60
2021-10-14 16:43:41.456586,-57
2021-10-14 16:43:41.456594,-57
2021-10-14 16:43:41.456602,-57
2021-10-14 16:43:41.456610,-55
2021-10-14 16:43:41.456618,-50
2021-10-14 16:43:41.456627,-45
2021-10-14 16:43:41.456635,-43
2021-10-14 16:43:41.456643,-43
2021-10-14 16:43:41.456651,-43
2021-10-14 16:43:41.456660,-45
2021-10-14 16:43:41.456672,-43
2021-10-14 16:43:41.456680,-36
2021-10-14 16:43:41.456689,-28
2021-10-14 16:43:41.456697,-28
2021-10-14 16:43:41.456705,-31
2021-10-14 16:43:41.456714,-33
2021-10-14 16:43:41.591846,-33
2021-10-14 16:43:41.591866,-36
2021-10-14 16:43:41.591875,-40
2021-10-14 16:43:41.591884,-43
2021-10-14 16:43:41.591892,-45
2021-10-14 16:43:41.591900,-43
2021-10-14 16:43:41.591909,-36
2021-10-14 16:43:41.591917,-28
2021-10-14 16:43:41.591925,-26
2021-10-14 16:43:41.591934,-28
2021-10-14 16:43:41.591942,-28
2021-10-14 16:43:41.591950,-26
2021-10-14 16:43:41.591958,-21
2021-10-14 16:43:41.591966,-21
2021-10-14 16:43:41.591975,-19
2021-10-14 16:43:41.591983,-16
2021-10-14 16:43:41.591991,-16
2021-10-14 16:43:41.591999,-7
2021-10-14 16:43:41.592007,7
2021-10-14 16:43:41.592016,19
2021-10-14 16:43:41.592024,26
2021-10-14 16:43:41.592032,4
2021-10-14 16:43:41.592041,-28
2021-10-14 16:43:41.592050,-31
2021-10-14 16:43:41.592058,-19
2021-10-14 16:43:41.592066,-21
2021-10-14 16:43:41.592074,-26
2021-10-14 16:43:41.592083,-26
2021-10-14 16:43:41.592091,-24
2021-10-14 16:43:41.592099,-14
2021-10-14 16:43:41.862044,-7
2021-10-14 16:43:41.862065,0
2021-10-14 16:43:41.862074,7
2021-10-14 16:43:41.862083,7
2021-10-14 16:43:41.862091,52
2021-10-14 16:43:41.862099,278
2021-10-14 16:43:41.862106,637
2021-10-14 16:43:41.862114,678
2021-10-14 16:43:41.862122,-28
2021-10-14 16:43:41.862130,-877
2021-10-14 16:43:41.862138,-863
2021-10-14 16:43:41.862145,-348
2021-10-14 16:43:41.862153,-132
2021-10-14 16:43:41.862161,-69
2021-10-14 16:43:41.862169,50
2021-10-14 16:43:41.862177,76
2021-10-14 16:43:41.862185,45
2021-10-14 16:43:41.862193,69
2021-10-14 16:43:41.862201,96
2021-10-14 16:43:41.862209,93
2021-10-14 16:43:41.862217,96
2021-10-14 16:43:41.862224,101
2021-10-14 16:43:41.862232,98
2021-10-14 16:43:41.862240,108
2021-10-14 16:43:41.862253,122
2021-10-14 16:43:41.862261,127
2021-10-14 16:43:41.862269,125
2021-10-14 16:43:41.862276,127
2021-10-14 16:43:41.862284,139
2021-10-14 16:43:41.862292,153
2021-10-14 16:43:42.130233,163
2021-10-14 16:43:42.130254,170
2021-10-14 16:43:42.130264,175
2021-10-14 16:43:42.130272,182
2021-10-14 16:43:42.130281,192
2021-10-14 16:43:42.130289,199
2021-10-14 16:43:42.130298,194
2021-10-14 16:43:42.130306,180
2021-10-14 16:43:42.130315,161
2021-10-14 16:43:42.130323,134
2021-10-14 16:43:42.130331,113
2021-10-14 16:43:42.130340,101
2021-10-14 16:43:42.130348,84
2021-10-14 16:43:42.130356,52
2021-10-14 16:43:42.130364,7
2021-10-14 16:43:42.130372,-31
2021-10-14 16:43:42.130380,-50
2021-10-14 16:43:42.130388,-60
2021-10-14 16:43:42.130395,-74
2021-10-14 16:43:42.130404,-84
2021-10-14 16:43:42.130412,-86
2021-10-14 16:43:42.130420,-91
2021-10-14 16:43:42.130428,-88
2021-10-14 16:43:42.130436,-88
2021-10-14 16:43:42.130444,-88
2021-10-14 16:43:42.130452,-86
2021-10-14 16:43:42.130460,-86
2021-10-14 16:43:42.130468,-86
2021-10-14 16:43:42.130476,-79
2021-10-14 16:43:42.130485,-69
2021-10-14 16:43:42.356874,-69
2021-10-14 16:43:42.356893,-67
2021-10-14 16:43:42.356903,-67
2021-10-14 16:43:42.356911,-69
2021-10-14 16:43:42.356920,-67
2021-10-14 16:43:42.356928,-62
2021-10-14 16:43:42.356937,-57
2021-10-14 16:43:42.356945,-57
2021-10-14 16:43:42.356953,-64
2021-10-14 16:43:42.356962,-64
2021-10-14 16:43:42.356970,-55
2021-10-14 16:43:42.356978,-55
2021-10-14 16:43:42.356987,-60
2021-10-14 16:43:42.356995,-60
2021-10-14 16:43:42.357004,-69
2021-10-14 16:43:42.357012,-76
2021-10-14 16:43:42.357020,-74
2021-10-14 16:43:42.357029,-74
2021-10-14 16:43:42.357037,-69
2021-10-14 16:43:42.357045,-64
2021-10-14 16:43:42.357054,-64
2021-10-14 16:43:42.357062,-64
2021-10-14 16:43:42.357070,-64
2021-10-14 16:43:42.357078,-57
2021-10-14 16:43:42.357087,-52
2021-10-14 16:43:42.357095,-50
2021-10-14 16:43:42.357103,-50
2021-10-14 16:43:42.357112,-52
2021-10-14 16:43:42.357120,-45
2021-10-14 16:43:42.357129,-33
2021-10-14 16:43:42.536513,-28
2021-10-14 16:43:42.536532,-26
2021-10-14 16:43:42.536541,-21
2021-10-14 16:43:42.536550,-12
2021-10-14 16:43:42.536558,4
2021-10-14 16:43:42.536567,0
2021-10-14 16:43:42.536575,-31
2021-10-14 16:43:42.536583,-52
2021-10-14 16:43:42.536592,-50
2021-10-14 16:43:42.536600,-43
2021-10-14 16:43:42.536611,-40
2021-10-14 16:43:42.536619,-38
2021-10-14 16:43:42.536628,-38
2021-10-14 16:43:42.536636,-45
2021-10-14 16:43:42.536644,-48
2021-10-14 16:43:42.536653,-43
2021-10-14 16:43:42.536661,-31
2021-10-14 16:43:42.536669,-19
2021-10-14 16:43:42.536678,14
2021-10-14 16:43:42.536686,204
2021-10-14 16:43:42.536694,586
2021-10-14 16:43:42.536703,704
2021-10-14 16:43:42.536711,14
2021-10-14 16:43:42.536719,-913
2021-10-14 16:43:42.536727,-961
2021-10-14 16:43:42.536736,-418
2021-10-14 16:43:42.536744,-170
2021-10-14 16:43:42.536752,-103
2021-10-14 16:43:42.536761,38
2021-10-14 16:43:42.536769,84
2021-10-14 16:43:42.761570,50
2021-10-14 16:43:42.761591,69
2021-10-14 16:43:42.761600,93
2021-10-14 16:43:42.761609,84
2021-10-14 16:43:42.761617,88
2021-10-14 16:43:42.761625,103
2021-10-14 16:43:42.761634,96
2021-10-14 16:43:42.761642,91
2021-10-14 16:43:42.761650,101
2021-10-14 16:43:42.761658,110
2021-10-14 16:43:42.761667,117
2021-10-14 16:43:42.761675,125
2021-10-14 16:43:42.761684,129
2021-10-14 16:43:42.761692,134
2021-10-14 16:43:42.761700,146
2021-10-14 16:43:42.761708,158
2021-10-14 16:43:42.761717,170
2021-10-14 16:43:42.761725,185
2021-10-14 16:43:42.761733,189
2021-10-14 16:43:42.761741,192
2021-10-14 16:43:42.761750,192
2021-10-14 16:43:42.761758,185
2021-10-14 16:43:42.761766,173
2021-10-14 16:43:42.761774,156
2021-10-14 16:43:42.761782,127
2021-10-14 16:43:42.761795,96
2021-10-14 16:43:42.761804,67
2021-10-14 16:43:42.761812,31
2021-10-14 16:43:42.761820,-2
2021-10-14 16:43:42.761829,-24
2021-10-14 16:43:42.986970,-45
2021-10-14 16:43:42.986991,-62
2021-10-14 16:43:42.987000,-74
2021-10-14 16:43:42.987008,-81
2021-10-14 16:43:42.987017,-81
2021-10-14 16:43:42.987025,-86
2021-10-14 16:43:42.987034,-96
2021-10-14 16:43:42.987042,-93
2021-10-14 16:43:42.987051,-86
2021-10-14 16:43:42.987059,-86
2021-10-14 16:43:42.987067,-84
2021-10-14 16:43:42.987075,-79
2021-10-14 16:43:42.987084,-81
2021-10-14 16:43:42.987092,-72
2021-10-14 16:43:42.987100,-60
2021-10-14 16:43:42.987109,-55
2021-10-14 16:43:42.987117,-57
2021-10-14 16:43:42.987125,-55
2021-10-14 16:43:42.987140,-52
2021-10-14 16:43:42.987199,-55
2021-10-14 16:43:42.987209,-57
2021-10-14 16:43:42.987217,-60
2021-10-14 16:43:42.987226,-64
2021-10-14 16:43:42.987234,-74
2021-10-14 16:43:42.987242,-72
2021-10-14 16:43:42.987251,-72
2021-10-14 16:43:42.987259,-74
2021-10-14 16:43:42.987267,-76
2021-10-14 16:43:42.987275,-74
2021-10-14 16:43:42.987283,-72
2021-10-14 16:43:43.211526,-69
2021-10-14 16:43:43.211546,-67
2021-10-14 16:43:43.211555,-67
2021-10-14 16:43:43.211564,-67
2021-10-14 16:43:43.211572,-67
2021-10-14 16:43:43.211580,-74
2021-10-14 16:43:43.211589,-74
2021-10-14 16:43:43.211597,-64
2021-10-14 16:43:43.211605,-62
2021-10-14 16:43:43.211613,-62
2021-10-14 16:43:43.211622,-60
2021-10-14 16:43:43.211630,-62
2021-10-14 16:43:43.211638,-57
2021-10-14 16:43:43.211647,-50
2021-10-14 16:43:43.211655,-50
2021-10-14 16:43:43.211663,-50
2021-10-14 16:43:43.211674,-45
2021-10-14 16:43:43.211683,-38
2021-10-14 16:43:43.211691,-24
2021-10-14 16:43:43.211699,-19
2021-10-14 16:43:43.211707,-14
2021-10-14 16:43:43.211716,2
2021-10-14 16:43:43.211724,-2
2021-10-14 16:43:43.211732,-31
2021-10-14 16:43:43.211741,-48
2021-10-14 16:43:43.211749,-43
2021-10-14 16:43:43.211757,-40
2021-10-14 16:43:43.211765,-40
2021-10-14 16:43:43.211774,-40
2021-10-14 16:43:43.211782,-36
2021-10-14 16:43:43.436541,-28
2021-10-14 16:43:43.436560,-21
2021-10-14 16:43:43.436570,-19
2021-10-14 16:43:43.436578,-19
2021-10-14 16:43:43.436587,-14
2021-10-14 16:43:43.436595,33
2021-10-14 16:43:43.436603,250
2021-10-14 16:43:43.436612,634
2021-10-14 16:43:43.436620,747
2021-10-14 16:43:43.436628,69
2021-10-14 16:43:43.436637,-887
2021-10-14 16:43:43.436645,-976
2021-10-14 16:43:43.436653,-384
2021-10-14 16:43:43.436662,-93
2021-10-14 16:43:43.436670,-67
2021-10-14 16:43:43.436678,38
2021-10-14 16:43:43.436686,86
2021-10-14 16:43:43.436695,52
2021-10-14 16:43:43.436703,69
2021-10-14 16:43:43.436711,96
2021-10-14 16:43:43.436720,91
2021-10-14 16:43:43.436728,91
2021-10-14 16:43:43.436736,101
2021-10-14 16:43:43.436744,98
2021-10-14 16:43:43.436753,91
2021-10-14 16:43:43.436761,91
2021-10-14 16:43:43.436769,96
2021-10-14 16:43:43.436777,96
2021-10-14 16:43:43.436786,105
2021-10-14 16:43:43.436794,120
2021-10-14 16:43:43.706324,127
2021-10-14 16:43:43.706344,139
2021-10-14 16:43:43.706353,151
2021-10-14 16:43:43.706362,151
2021-10-14 16:43:43.706370,151
2021-10-14 16:43:43.706379,165
2021-10-14 16:43:43.706387,180
2021-10-14 16:43:43.706395,180
2021-10-14 16:43:43.706404,175
2021-10-14 16:43:43.706412,158
2021-10-14 16:43:43.706420,134
2021-10-14 16:43:43.706428,117
2021-10-14 16:43:43.706437,101
2021-10-14 16:43:43.706449,74
2021-10-14 16:43:43.706457,40
2021-10-14 16:43:43.706466,4
2021-10-14 16:43:43.706474,-26
2021-10-14 16:43:43.706482,-43
2021-10-14 16:43:43.706490,-57
2021-10-14 16:43:43.706498,-67
2021-10-14 16:43:43.706507,-74
2021-10-14 16:43:43.706515,-84
2021-10-14 16:43:43.706523,-86
2021-10-14 16:43:43.706531,-76
2021-10-14 16:43:43.706539,-74
2021-10-14 16:43:43.706548,-74
2021-10-14 16:43:43.706556,-72
2021-10-14 16:43:43.706564,-69
2021-10-14 16:43:43.706572,-74
2021-10-14 16:43:43.706580,-74
2021-10-14 16:43:43.931946,-60
2021-10-14 16:43:43.931967,-48
2021-10-14 16:43:43.931976,-50
2021-10-14 16:43:43.931985,-62
2021-10-14 16:43:43.931993,-60
2021-10-14 16:43:43.932002,-48
2021-10-14 16:43:43.932010,-38
2021-10-14 16:43:43.932019,-36
2021-10-14 16:43:43.932027,-38
2021-10-14 16:43:43.932035,-48
2021-10-14 16:43:43.932044,-45
2021-10-14 16:43:43.932052,-40
2021-10-14 16:43:43.932061,-45
2021-10-14 16:43:43.932069,-48
2021-10-14 16:43:43.932077,-50
2021-10-14 16:43:43.932086,-55
2021-10-14 16:43:43.932094,-52
2021-10-14 16:43:43.932102,-45
2021-10-14 16:43:43.932111,-45
2021-10-14 16:43:43.932119,-48
2021-10-14 16:43:43.932127,-48
2021-10-14 16:43:43.932135,-48
2021-10-14 16:43:43.932144,-48
2021-10-14 16:43:43.932152,-45
2021-10-14 16:43:43.932160,-40
2021-10-14 16:43:43.932169,-38
2021-10-14 16:43:43.932177,-38
2021-10-14 16:43:43.932185,-38
2021-10-14 16:43:43.932194,-33
2021-10-14 16:43:43.932202,-31
2021-10-14 16:43:44.200640,-40
2021-10-14 16:43:44.200661,-45
2021-10-14 16:43:44.200670,-43
2021-10-14 16:43:44.200679,-43
2021-10-14 16:43:44.200687,-40
2021-10-14 16:43:44.200696,-31
2021-10-14 16:43:44.200704,-24
2021-10-14 16:43:44.200713,-24
2021-10-14 16:43:44.200722,-24
2021-10-14 16:43:44.200730,-19
2021-10-14 16:43:44.200738,-4
2021-10-14 16:43:44.200747,12
2021-10-14 16:43:44.200755,-2
2021-10-14 16:43:44.200763,-36
2021-10-14 16:43:44.200772,-52
2021-10-14 16:43:44.200780,-43
2021-10-14 16:43:44.200788,-36
2021-10-14 16:43:44.200799,-36
2021-10-14 16:43:44.200808,-31
2021-10-14 16:43:44.200816,-28
2021-10-14 16:43:44.200824,-31
2021-10-14 16:43:44.200832,-31
2021-10-14 16:43:44.200841,-19
2021-10-14 16:43:44.200849,-12
2021-10-14 16:43:44.200857,-4
2021-10-14 16:43:44.200866,33
2021-10-14 16:43:44.200874,197
2021-10-14 16:43:44.200882,543
2021-10-14 16:43:44.200890,743
2021-10-14 16:43:44.200899,235
2021-10-14 16:43:44.426920,-704
2021-10-14 16:43:44.426939,-971
2021-10-14 16:43:44.426948,-478
2021-10-14 16:43:44.426957,-132
2021-10-14 16:43:44.426965,-72
2021-10-14 16:43:44.426974,36
2021-10-14 16:43:44.426982,98
2021-10-14 16:43:44.426991,62
2021-10-14 16:43:44.426999,62
2021-10-14 16:43:44.427007,88
2021-10-14 16:43:44.427016,84
2021-10-14 16:43:44.427024,86
2021-10-14 16:43:44.427032,98
2021-10-14 16:43:44.427041,91
2021-10-14 16:43:44.427049,86
2021-10-14 16:43:44.427057,98
2021-10-14 16:43:44.427065,108
2021-10-14 16:43:44.427073,113
2021-10-14 16:43:44.427082,122
2021-10-14 16:43:44.427090,129
2021-10-14 16:43:44.427098,134
2021-10-14 16:43:44.427107,146
2021-10-14 16:43:44.427115,158
2021-10-14 16:43:44.427123,168
2021-10-14 16:43:44.427132,175
2021-10-14 16:43:44.427140,185
2021-10-14 16:43:44.427148,189
2021-10-14 16:43:44.427157,192
2021-10-14 16:43:44.427165,189
2021-10-14 16:43:44.427173,180
2021-10-14 16:43:44.651525,163
2021-10-14 16:43:44.651543,141
2021-10-14 16:43:44.651553,120
2021-10-14 16:43:44.651561,93
2021-10-14 16:43:44.651570,57
2021-10-14 16:43:44.651578,21
2021-10-14 16:43:44.651586,-9
2021-10-14 16:43:44.651594,-38
2021-10-14 16:43:44.651603,-57
2021-10-14 16:43:44.651611,-67
2021-10-14 16:43:44.651619,-76
2021-10-14 16:43:44.651627,-79
2021-10-14 16:43:44.651636,-84
2021-10-14 16:43:44.651644,-91
2021-10-14 16:43:44.651652,-86
2021-10-14 16:43:44.651661,-84
2021-10-14 16:43:44.651669,-84
2021-10-14 16:43:44.651677,-79
2021-10-14 16:43:44.651686,-76
2021-10-14 16:43:44.651694,-69
2021-10-14 16:43:44.651702,-62
2021-10-14 16:43:44.651710,-57
2021-10-14 16:43:44.651718,-50
2021-10-14 16:43:44.651727,-45
2021-10-14 16:43:44.651735,-45
2021-10-14 16:43:44.651743,-48
2021-10-14 16:43:44.651751,-40
2021-10-14 16:43:44.651759,-33
2021-10-14 16:43:44.651768,-31
2021-10-14 16:43:44.651778,-28
2021-10-14 16:43:44.831541,-33
2021-10-14 16:43:44.831560,-38
2021-10-14 16:43:44.831569,-38
2021-10-14 16:43:44.831578,-45
2021-10-14 16:43:44.831587,-45
2021-10-14 16:43:44.831595,-38
2021-10-14 16:43:44.831603,-45
2021-10-14 16:43:44.831612,-57
2021-10-14 16:43:44.831620,-52
2021-10-14 16:43:44.831629,-50
2021-10-14 16:43:44.831637,-57
2021-10-14 16:43:44.831646,-57
2021-10-14 16:43:44.831654,-57
2021-10-14 16:43:44.831662,-57
2021-10-14 16:43:44.831671,-55
2021-10-14 16:43:44.831679,-50
2021-10-14 16:43:44.831687,-45
2021-10-14 16:43:44.831695,-48
2021-10-14 16:43:44.831704,-55
2021-10-14 16:43:44.831712,-52
2021-10-14 16:43:44.831720,-43
2021-10-14 16:43:44.831728,-38
2021-10-14 16:43:44.831737,-36
2021-10-14 16:43:44.831745,-38
2021-10-14 16:43:44.831754,-38
2021-10-14 16:43:44.831762,-33
2021-10-14 16:43:44.831770,-28
2021-10-14 16:43:44.831778,-24
2021-10-14 16:43:44.831787,-19
2021-10-14 16:43:44.831795,-19
2021-10-14 16:43:45.101969,-16
2021-10-14 16:43:45.101990,-4
2021-10-14 16:43:45.101999,7
2021-10-14 16:43:45.102008,9
2021-10-14 16:43:45.102016,14
2021-10-14 16:43:45.102024,19
2021-10-14 16:43:45.102033,4
2021-10-14 16:43:45.102041,-21
2021-10-14 16:43:45.102049,-33
2021-10-14 16:43:45.102058,-33
2021-10-14 16:43:45.102066,-31
2021-10-14 16:43:45.102074,-36
2021-10-14 16:43:45.102083,-55
2021-10-14 16:43:45.102091,-62
2021-10-14 16:43:45.102099,-52
2021-10-14 16:43:45.102107,-45
2021-10-14 16:43:45.102116,-40
2021-10-14 16:43:45.102124,-36
2021-10-14 16:43:45.102132,-21
2021-10-14 16:43:45.102140,28
2021-10-14 16:43:45.102149,204
2021-10-14 16:43:45.102157,545
2021-10-14 16:43:45.102165,709
2021-10-14 16:43:45.102173,153
2021-10-14 16:43:45.102181,-757
2021-10-14 16:43:45.102190,-945
2021-10-14 16:43:45.102198,-456
2021-10-14 16:43:45.102207,-163
2021-10-14 16:43:45.102215,-93
2021-10-14 16:43:45.102223,31
2021-10-14 16:43:45.281549,93
2021-10-14 16:43:45.281569,72
2021-10-14 16:43:45.281578,84
2021-10-14 16:43:45.281586,101
2021-10-14 16:43:45.281595,86
2021-10-14 16:43:45.281603,86
2021-10-14 16:43:45.281612,105
2021-10-14 16:43:45.281620,110
2021-10-14 16:43:45.281628,108
2021-10-14 16:43:45.281637,110
2021-10-14 16:43:45.281645,117
2021-10-14 16:43:45.281654,125
2021-10-14 16:43:45.281662,134
2021-10-14 16:43:45.281671,146
2021-10-14 16:43:45.281679,149
2021-10-14 16:43:45.281688,146
2021-10-14 16:43:45.281696,151
2021-10-14 16:43:45.281704,163
2021-10-14 16:43:45.281713,180
2021-10-14 16:43:45.281721,189
2021-10-14 16:43:45.281732,192
2021-10-14 16:43:45.281741,189
2021-10-14 16:43:45.281749,187
2021-10-14 16:43:45.281757,182
2021-10-14 16:43:45.281766,165
2021-10-14 16:43:45.281774,146
2021-10-14 16:43:45.281782,127
2021-10-14 16:43:45.281791,98
2021-10-14 16:43:45.281799,62
2021-10-14 16:43:45.281807,31
2021-10-14 16:43:45.506900,4
2021-10-14 16:43:45.506918,-9
2021-10-14 16:43:45.506928,-28
2021-10-14 16:43:45.506936,-55
2021-10-14 16:43:45.506945,-74
2021-10-14 16:43:45.506953,-76
2021-10-14 16:43:45.506962,-72
2021-10-14 16:43:45.506970,-69
2021-10-14 16:43:45.506978,-69
2021-10-14 16:43:45.506987,-76
2021-10-14 16:43:45.506995,-81
2021-10-14 16:43:45.507003,-74
2021-10-14 16:43:45.507012,-69
2021-10-14 16:43:45.507020,-69
2021-10-14 16:43:45.507029,-64
2021-10-14 16:43:45.507037,-60
2021-10-14 16:43:45.507046,-57
2021-10-14 16:43:45.507054,-62
2021-10-14 16:43:45.507062,-69
2021-10-14 16:43:45.507071,-72
2021-10-14 16:43:45.507079,-64
2021-10-14 16:43:45.507088,-62
2021-10-14 16:43:45.507096,-64
2021-10-14 16:43:45.507104,-62
2021-10-14 16:43:45.507113,-62
2021-10-14 16:43:45.507121,-62
2021-10-14 16:43:45.507129,-67
2021-10-14 16:43:45.507138,-76
2021-10-14 16:43:45.507146,-74
2021-10-14 16:43:45.507154,-67
2021-10-14 16:43:45.776911,-64
2021-10-14 16:43:45.776930,-60
2021-10-14 16:43:45.776940,-62
2021-10-14 16:43:45.776948,-76
2021-10-14 16:43:45.776957,-79
2021-10-14 16:43:45.776965,-64
2021-10-14 16:43:45.776973,-60
2021-10-14 16:43:45.776981,-62
2021-10-14 16:43:45.776990,-62
2021-10-14 16:43:45.776998,-67
2021-10-14 16:43:45.777006,-69
2021-10-14 16:43:45.777015,-57
2021-10-14 16:43:45.777023,-50
2021-10-14 16:43:45.777031,-45
2021-10-14 16:43:45.777040,-48
2021-10-14 16:43:45.777048,-50
2021-10-14 16:43:45.777056,-48
2021-10-14 16:43:45.777065,-38
2021-10-14 16:43:45.777073,-31
2021-10-14 16:43:45.777081,-21
2021-10-14 16:43:45.777089,-16
2021-10-14 16:43:45.777097,-14
2021-10-14 16:43:45.777106,-2
2021-10-14 16:43:45.777114,7
2021-10-14 16:43:45.777122,-9
2021-10-14 16:43:45.777131,-28
2021-10-14 16:43:45.777139,-28
2021-10-14 16:43:45.777147,-33
2021-10-14 16:43:45.777155,-33
2021-10-14 16:43:45.777164,-24
2021-10-14 16:43:46.001966,-19
2021-10-14 16:43:46.001985,-19
2021-10-14 16:43:46.001994,-16
2021-10-14 16:43:46.002003,-9
2021-10-14 16:43:46.002011,-4
2021-10-14 16:43:46.002020,4
2021-10-14 16:43:46.002028,24
2021-10-14 16:43:46.002036,129
2021-10-14 16:43:46.002045,437
2021-10-14 16:43:46.002053,774
2021-10-14 16:43:46.002061,529
2021-10-14 16:43:46.002069,-425
2021-10-14 16:43:46.002078,-1055
2021-10-14 16:43:46.002086,-692
2021-10-14 16:43:46.002094,-197
2021-10-14 16:43:46.002103,-110
2021-10-14 16:43:46.002111,-28
2021-10-14 16:43:46.002119,86
2021-10-14 16:43:46.002128,69
2021-10-14 16:43:46.002136,55
2021-10-14 16:43:46.002144,86
2021-10-14 16:43:46.002152,86
2021-10-14 16:43:46.002163,79
2021-10-14 16:43:46.002172,86
2021-10-14 16:43:46.002180,81
2021-10-14 16:43:46.002188,81
2021-10-14 16:43:46.002196,91
2021-10-14 16:43:46.002205,96
2021-10-14 16:43:46.002213,101
2021-10-14 16:43:46.002222,115
2021-10-14 16:43:46.270571,127
2021-10-14 16:43:46.270590,132
2021-10-14 16:43:46.270599,141
2021-10-14 16:43:46.270608,153
2021-10-14 16:43:46.270617,163
2021-10-14 16:43:46.270625,175
2021-10-14 16:43:46.270633,185
2021-10-14 16:43:46.270642,189
2021-10-14 16:43:46.270650,187
2021-10-14 16:43:46.270658,180
2021-10-14 16:43:46.270666,175
2021-10-14 16:43:46.270675,165
2021-10-14 16:43:46.270683,144
2021-10-14 16:43:46.270691,113
2021-10-14 16:43:46.270699,79
2021-10-14 16:43:46.270708,45
2021-10-14 16:43:46.270716,16
2021-10-14 16:43:46.270724,-7
2021-10-14 16:43:46.270733,-31
2021-10-14 16:43:46.270741,-55
2021-10-14 16:43:46.270749,-72
2021-10-14 16:43:46.270757,-81
2021-10-14 16:43:46.270766,-84
2021-10-14 16:43:46.270774,-84
2021-10-14 16:43:46.270782,-86
2021-10-14 16:43:46.270790,-86
2021-10-14 16:43:46.270799,-86
2021-10-14 16:43:46.270807,-81
2021-10-14 16:43:46.270815,-74
2021-10-14 16:43:46.270823,-69
2021-10-14 16:43:46.451559,-67
2021-10-14 16:43:46.451579,-64
2021-10-14 16:43:46.451588,-62
2021-10-14 16:43:46.451597,-57
2021-10-14 16:43:46.451605,-48
2021-10-14 16:43:46.451614,-38
2021-10-14 16:43:46.451622,-40
2021-10-14 16:43:46.451631,-50
2021-10-14 16:43:46.451639,-50
2021-10-14 16:43:46.451647,-45
2021-10-14 16:43:46.451655,-48
2021-10-14 16:43:46.451663,-52
2021-10-14 16:43:46.451672,-57
2021-10-14 16:43:46.451680,-62
2021-10-14 16:43:46.451688,-60
2021-10-14 16:43:46.451697,-55
2021-10-14 16:43:46.451705,-57
2021-10-14 16:43:46.451713,-52
2021-10-14 16:43:46.451722,-50
2021-10-14 16:43:46.451730,-52
2021-10-14 16:43:46.451738,-57
2021-10-14 16:43:46.451747,-64
2021-10-14 16:43:46.451755,-62
2021-10-14 16:43:46.451763,-55
2021-10-14 16:43:46.451771,-55
2021-10-14 16:43:46.451780,-52
2021-10-14 16:43:46.451788,-48
2021-10-14 16:43:46.451796,-48
2021-10-14 16:43:46.451805,-48
2021-10-14 16:43:46.451813,-55
2021-10-14 16:43:46.676919,-64
2021-10-14 16:43:46.676937,-57
2021-10-14 16:43:46.676947,-48
2021-10-14 16:43:46.676955,-50
2021-10-14 16:43:46.676963,-48
2021-10-14 16:43:46.676972,-45
2021-10-14 16:43:46.676980,-55
2021-10-14 16:43:46.676988,-50
2021-10-14 16:43:46.676997,-38
2021-10-14 16:43:46.677005,-36
2021-10-14 16:43:46.677014,-33
2021-10-14 16:43:46.677022,-31
2021-10-14 16:43:46.677030,-38
2021-10-14 16:43:46.677039,-38
2021-10-14 16:43:46.677047,-24
2021-10-14 16:43:46.677055,-9
2021-10-14 16:43:46.677064,-4
2021-10-14 16:43:46.677072,2
2021-10-14 16:43:46.677080,14
2021-10-14 16:43:46.677089,7
2021-10-14 16:43:46.677097,-16
2021-10-14 16:43:46.677105,-26
2021-10-14 16:43:46.677113,-26
2021-10-14 16:43:46.677122,-33
2021-10-14 16:43:46.677130,-36
2021-10-14 16:43:46.677138,-28
2021-10-14 16:43:46.677146,-24
2021-10-14 16:43:46.677155,-21
2021-10-14 16:43:46.677163,-14
2021-10-14 16:43:46.677171,-14
2021-10-14 16:43:47.080341,-12
2021-10-14 16:43:47.080360,-4
2021-10-14 16:43:47.080369,26
2021-10-14 16:43:47.080378,170
2021-10-14 16:43:47.080386,509
2021-10-14 16:43:47.080397,759
2021-10-14 16:43:47.080406,348
2021-10-14 16:43:47.080415,-596
2021-10-14 16:43:47.080423,-1002
2021-10-14 16:43:47.080431,-543
2021-10-14 16:43:47.080440,-127
2021-10-14 16:43:47.080448,-79
2021-10-14 16:43:47.080456,0
2021-10-14 16:43:47.080464,88
2021-10-14 16:43:47.080473,67
2021-10-14 16:43:47.080481,60
2021-10-14 16:43:47.080489,91
2021-10-14 16:43:47.080498,88
2021-10-14 16:43:47.080506,88
2021-10-14 16:43:47.080514,105
2021-10-14 16:43:47.080523,108
2021-10-14 16:43:47.080531,103
2021-10-14 16:43:47.080539,113
2021-10-14 16:43:47.080547,117
2021-10-14 16:43:47.080556,117
2021-10-14 16:43:47.080564,122
2021-10-14 16:43:47.080572,127
2021-10-14 16:43:47.080581,137
2021-10-14 16:43:47.080589,144
2021-10-14 16:43:47.080597,151
2021-10-14 16:43:47.170948,163
2021-10-14 16:43:47.170968,177
2021-10-14 16:43:47.170977,182
2021-10-14 16:43:47.170986,182
2021-10-14 16:43:47.170994,182
2021-10-14 16:43:47.171002,173
2021-10-14 16:43:47.171011,153
2021-10-14 16:43:47.171019,139
2021-10-14 16:43:47.171027,125
2021-10-14 16:43:47.171036,101
2021-10-14 16:43:47.171044,69
2021-10-14 16:43:47.171052,43
2021-10-14 16:43:47.171061,19
2021-10-14 16:43:47.171069,-9
2021-10-14 16:43:47.171077,-33
2021-10-14 16:43:47.171085,-52
2021-10-14 16:43:47.171094,-69
2021-10-14 16:43:47.171102,-84
2021-10-14 16:43:47.171110,-88
2021-10-14 16:43:47.171118,-93
2021-10-14 16:43:47.171126,-96
2021-10-14 16:43:47.171134,-96
2021-10-14 16:43:47.171142,-93
2021-10-14 16:43:47.171150,-93
2021-10-14 16:43:47.171159,-93
2021-10-14 16:43:47.171167,-88
2021-10-14 16:43:47.171175,-86
2021-10-14 16:43:47.171183,-93
2021-10-14 16:43:47.171191,-96
2021-10-14 16:43:47.171199,-86
2021-10-14 16:43:47.351554,-79
2021-10-14 16:43:47.351573,-74
2021-10-14 16:43:47.351582,-67
2021-10-14 16:43:47.351590,-67
2021-10-14 16:43:47.351599,-74
2021-10-14 16:43:47.351607,-67
2021-10-14 16:43:47.351615,-55
2021-10-14 16:43:47.351624,-55
2021-10-14 16:43:47.351632,-55
2021-10-14 16:43:47.351640,-52
2021-10-14 16:43:47.351648,-60
2021-10-14 16:43:47.351657,-62
2021-10-14 16:43:47.351665,-52
2021-10-14 16:43:47.351673,-50
2021-10-14 16:43:47.351681,-52
2021-10-14 16:43:47.351690,-55
2021-10-14 16:43:47.351698,-57
2021-10-14 16:43:47.351706,-55
2021-10-14 16:43:47.351714,-45
2021-10-14 16:43:47.351723,-40
2021-10-14 16:43:47.351731,-40
2021-10-14 16:43:47.351739,-36
2021-10-14 16:43:47.351747,-33
2021-10-14 16:43:47.351756,-36
2021-10-14 16:43:47.351764,-28
2021-10-14 16:43:47.351772,-21
2021-10-14 16:43:47.351780,-16
2021-10-14 16:43:47.351789,-21
2021-10-14 16:43:47.351797,-26
2021-10-14 16:43:47.351805,-28
2021-10-14 16:43:47.666567,-26
2021-10-14 16:43:47.666585,-16
2021-10-14 16:43:47.666594,-19
2021-10-14 16:43:47.666603,-33
2021-10-14 16:43:47.666611,-36
2021-10-14 16:43:47.666620,-21
2021-10-14 16:43:47.666628,-14
2021-10-14 16:43:47.666636,-9
2021-10-14 16:43:47.666645,-14
2021-10-14 16:43:47.666653,-26
2021-10-14 16:43:47.666661,-31
2021-10-14 16:43:47.666669,-33
2021-10-14 16:43:47.666678,-36
2021-10-14 16:43:47.666686,-28
2021-10-14 16:43:47.666694,-14
2021-10-14 16:43:47.666702,-7
2021-10-14 16:43:47.666711,-2
2021-10-14 16:43:47.666719,7
2021-10-14 16:43:47.666728,24
2021-10-14 16:43:47.666736,21
2021-10-14 16:43:47.666744,-9
2021-10-14 16:43:47.666753,-31
2021-10-14 16:43:47.666761,-24
2021-10-14 16:43:47.666769,-19
2021-10-14 16:43:47.666777,-21
2021-10-14 16:43:47.666785,-12
2021-10-14 16:43:47.666794,-7
2021-10-14 16:43:47.666802,-12
2021-10-14 16:43:47.666810,-7
2021-10-14 16:43:47.666818,7
2021-10-14 16:43:47.846547,12
2021-10-14 16:43:47.846568,12
2021-10-14 16:43:47.846578,40
2021-10-14 16:43:47.846587,199
2021-10-14 16:43:47.846595,538
2021-10-14 16:43:47.846603,726
2021-10-14 16:43:47.846611,214
2021-10-14 16:43:47.846620,-694
2021-10-14 16:43:47.846628,-930
2021-10-14 16:43:47.846636,-473
2021-10-14 16:43:47.846644,-165
2021-10-14 16:43:47.846652,-86
2021-10-14 16:43:47.846661,36
2021-10-14 16:43:47.846669,96
2021-10-14 16:43:47.846677,67
2021-10-14 16:43:47.846685,76
2021-10-14 16:43:47.846694,105
2021-10-14 16:43:47.846702,103
2021-10-14 16:43:47.846710,101
2021-10-14 16:43:47.846718,108
2021-10-14 16:43:47.846726,108
2021-10-14 16:43:47.846735,105
2021-10-14 16:43:47.846743,117
2021-10-14 16:43:47.846751,122
2021-10-14 16:43:47.846759,122
2021-10-14 16:43:47.846768,134
2021-10-14 16:43:47.846776,144
2021-10-14 16:43:47.846784,149
2021-10-14 16:43:47.846792,156
2021-10-14 16:43:47.846801,165
2021-10-14 16:43:48.071958,180
2021-10-14 16:43:48.071977,189
2021-10-14 16:43:48.071987,189
2021-10-14 16:43:48.071995,182
2021-10-14 16:43:48.072004,182
2021-10-14 16:43:48.072012,189
2021-10-14 16:43:48.072021,182
2021-10-14 16:43:48.072029,163
2021-10-14 16:43:48.072037,129
2021-10-14 16:43:48.072046,101
2021-10-14 16:43:48.072054,88
2021-10-14 16:43:48.072062,67
2021-10-14 16:43:48.072071,28
2021-10-14 16:43:48.072079,-9
2021-10-14 16:43:48.072087,-43
2021-10-14 16:43:48.072095,-64
2021-10-14 16:43:48.072104,-79
2021-10-14 16:43:48.072112,-105
2021-10-14 16:43:48.072120,-122
2021-10-14 16:43:48.072128,-120
2021-10-14 16:43:48.072137,-122
2021-10-14 16:43:48.072145,-127
2021-10-14 16:43:48.072153,-117
2021-10-14 16:43:48.072161,-113
2021-10-14 16:43:48.072170,-115
2021-10-14 16:43:48.072178,-110
2021-10-14 16:43:48.072186,-103
2021-10-14 16:43:48.072194,-98
2021-10-14 16:43:48.072202,-86
2021-10-14 16:43:48.072211,-74
2021-10-14 16:43:48.340207,-69
2021-10-14 16:43:48.340226,-69
2021-10-14 16:43:48.340235,-67
2021-10-14 16:43:48.340244,-57
2021-10-14 16:43:48.340252,-52
2021-10-14 16:43:48.340261,-60
2021-10-14 16:43:48.340269,-64
2021-10-14 16:43:48.340278,-69
2021-10-14 16:43:48.340286,-69
2021-10-14 16:43:48.340294,-64
2021-10-14 16:43:48.340303,-60
2021-10-14 16:43:48.340311,-60
2021-10-14 16:43:48.340319,-64
2021-10-14 16:43:48.340327,-67
2021-10-14 16:43:48.340336,-64
2021-10-14 16:43:48.340344,-62
2021-10-14 16:43:48.340352,-64
2021-10-14 16:43:48.340360,-57
2021-10-14 16:43:48.340369,-50
2021-10-14 16:43:48.340377,-50
2021-10-14 16:43:48.340385,-48
2021-10-14 16:43:48.340394,-40
2021-10-14 16:43:48.340402,-40
2021-10-14 16:43:48.340410,-43
2021-10-14 16:43:48.340418,-36
2021-10-14 16:43:48.340427,-31
2021-10-14 16:43:48.340435,-31
2021-10-14 16:43:48.340444,-31
2021-10-14 16:43:48.340452,-24
2021-10-14 16:43:48.340460,-19
2021-10-14 16:43:48.521556,-21
2021-10-14 16:43:48.521575,-21
2021-10-14 16:43:48.521585,-16
2021-10-14 16:43:48.521594,-12
2021-10-14 16:43:48.521602,-2
2021-10-14 16:43:48.521611,9
2021-10-14 16:43:48.521619,4
2021-10-14 16:43:48.521627,9
2021-10-14 16:43:48.521636,9
2021-10-14 16:43:48.521644,-19
2021-10-14 16:43:48.521653,-38
2021-10-14 16:43:48.521661,-33
2021-10-14 16:43:48.521669,-38
2021-10-14 16:43:48.521678,-45
2021-10-14 16:43:48.521686,-38
2021-10-14 16:43:48.521694,-33
2021-10-14 16:43:48.521703,-26
2021-10-14 16:43:48.521711,-19
2021-10-14 16:43:48.521720,-19
2021-10-14 16:43:48.521728,-12
2021-10-14 16:43:48.521736,-2
2021-10-14 16:43:48.521745,24
2021-10-14 16:43:48.521753,144
2021-10-14 16:43:48.521761,461
2021-10-14 16:43:48.521770,757
2021-10-14 16:43:48.521778,442
2021-10-14 16:43:48.521786,-526
2021-10-14 16:43:48.521795,-1060
2021-10-14 16:43:48.521803,-649
2021-10-14 16:43:48.521811,-206
2021-10-14 16:43:48.791945,-127
2021-10-14 16:43:48.791964,-9
2021-10-14 16:43:48.791974,98
2021-10-14 16:43:48.791982,72
2021-10-14 16:43:48.791991,64
2021-10-14 16:43:48.791999,93
2021-10-14 16:43:48.792008,86
2021-10-14 16:43:48.792016,84
2021-10-14 16:43:48.792024,96
2021-10-14 16:43:48.792033,91
2021-10-14 16:43:48.792041,86
2021-10-14 16:43:48.792052,91
2021-10-14 16:43:48.792060,93
2021-10-14 16:43:48.792068,101
2021-10-14 16:43:48.792077,115
2021-10-14 16:43:48.792085,125
2021-10-14 16:43:48.792093,132
2021-10-14 16:43:48.792101,144
2021-10-14 16:43:48.792110,153
2021-10-14 16:43:48.792118,163
2021-10-14 16:43:48.792126,175
2021-10-14 16:43:48.792134,187
2021-10-14 16:43:48.792143,192
2021-10-14 16:43:48.792151,192
2021-10-14 16:43:48.792159,192
2021-10-14 16:43:48.792167,182
2021-10-14 16:43:48.792176,165
2021-10-14 16:43:48.792184,149
2021-10-14 16:43:48.792192,125
2021-10-14 16:43:48.792200,96
2021-10-14 16:43:48.971952,67
2021-10-14 16:43:48.971972,38
2021-10-14 16:43:48.971981,9
2021-10-14 16:43:48.971989,-21
2021-10-14 16:43:48.971998,-50
2021-10-14 16:43:48.972006,-69
2021-10-14 16:43:48.972015,-76
2021-10-14 16:43:48.972023,-79
2021-10-14 16:43:48.972031,-86
2021-10-14 16:43:48.972039,-96
2021-10-14 16:43:48.972048,-98
2021-10-14 16:43:48.972056,-105
2021-10-14 16:43:48.972064,-108
2021-10-14 16:43:48.972073,-103
2021-10-14 16:43:48.972081,-98
2021-10-14 16:43:48.972089,-96
2021-10-14 16:43:48.972098,-96
2021-10-14 16:43:48.972106,-93
2021-10-14 16:43:48.972114,-81
2021-10-14 16:43:48.972122,-69
2021-10-14 16:43:48.972131,-67
2021-10-14 16:43:48.972139,-67
2021-10-14 16:43:48.972147,-62
2021-10-14 16:43:48.972155,-55
2021-10-14 16:43:48.972163,-50
2021-10-14 16:43:48.972172,-48
2021-10-14 16:43:48.972180,-45
2021-10-14 16:43:48.972188,-45
2021-10-14 16:43:48.972196,-45
2021-10-14 16:43:48.972204,-52
2021-10-14 16:43:49.196585,-62
2021-10-14 16:43:49.196603,-55
2021-10-14 16:43:49.196613,-50
2021-10-14 16:43:49.196622,-60
2021-10-14 16:43:49.196630,-67
2021-10-14 16:43:49.196638,-64
2021-10-14 16:43:49.196647,-57
2021-10-14 16:43:49.196655,-52
2021-10-14 16:43:49.196663,-52
2021-10-14 16:43:49.196671,-57
2021-10-14 16:43:49.196679,-57
2021-10-14 16:43:49.196688,-52
2021-10-14 16:43:49.196696,-48
2021-10-14 16:43:49.196704,-48
2021-10-14 16:43:49.196712,-55
2021-10-14 16:43:49.196721,-55
2021-10-14 16:43:49.196729,-48
2021-10-14 16:43:49.196737,-43
2021-10-14 16:43:49.196745,-38
2021-10-14 16:43:49.196753,-33
2021-10-14 16:43:49.196762,-31
2021-10-14 16:43:49.196770,-33
2021-10-14 16:43:49.196778,-31
2021-10-14 16:43:49.196787,-21
2021-10-14 16:43:49.196795,-14
2021-10-14 16:43:49.196803,-14
2021-10-14 16:43:49.196811,-7
2021-10-14 16:43:49.196819,2
2021-10-14 16:43:49.196828,7
2021-10-14 16:43:49.196836,24
2021-10-14 16:43:49.466579,33
2021-10-14 16:43:49.466597,9
2021-10-14 16:43:49.466607,-16
2021-10-14 16:43:49.466616,-26
2021-10-14 16:43:49.466624,-26
2021-10-14 16:43:49.466632,-19
2021-10-14 16:43:49.466641,-14
2021-10-14 16:43:49.466649,-14
2021-10-14 16:43:49.466657,-14
2021-10-14 16:43:49.466665,-14
2021-10-14 16:43:49.466674,-14
2021-10-14 16:43:49.466682,-9
2021-10-14 16:43:49.466690,-2
2021-10-14 16:43:49.466698,19
2021-10-14 16:43:49.466707,122
2021-10-14 16:43:49.466715,425
2021-10-14 16:43:49.466723,755
2021-10-14 16:43:49.466732,550
2021-10-14 16:43:49.466740,-363
2021-10-14 16:43:49.466748,-1031
2021-10-14 16:43:49.466756,-714
2021-10-14 16:43:49.466765,-182
2021-10-14 16:43:49.466773,-69
2021-10-14 16:43:49.466782,-12
2021-10-14 16:43:49.466790,96
2021-10-14 16:43:49.466798,91
2021-10-14 16:43:49.466806,69
2021-10-14 16:43:49.466815,96
2021-10-14 16:43:49.466823,103
2021-10-14 16:43:49.466831,98
2021-10-14 16:43:49.691954,108
2021-10-14 16:43:49.691972,117
2021-10-14 16:43:49.691981,115
2021-10-14 16:43:49.691990,113
2021-10-14 16:43:49.691998,113
2021-10-14 16:43:49.692006,108
2021-10-14 16:43:49.692015,113
2021-10-14 16:43:49.692023,127
2021-10-14 16:43:49.692032,129
2021-10-14 16:43:49.692040,125
2021-10-14 16:43:49.692048,137
2021-10-14 16:43:49.692056,156
2021-10-14 16:43:49.692065,165
2021-10-14 16:43:49.692073,170
2021-10-14 16:43:49.692081,170
2021-10-14 16:43:49.692090,168
2021-10-14 16:43:49.692098,173
2021-10-14 16:43:49.692106,165
2021-10-14 16:43:49.692114,149
2021-10-14 16:43:49.692122,129
2021-10-14 16:43:49.692131,101
2021-10-14 16:43:49.692139,74
2021-10-14 16:43:49.692147,52
2021-10-14 16:43:49.692155,28
2021-10-14 16:43:49.692163,-2
2021-10-14 16:43:49.692172,-31
2021-10-14 16:43:49.692180,-60
2021-10-14 16:43:49.692188,-84
2021-10-14 16:43:49.692196,-98
2021-10-14 16:43:49.692205,-105
2021-10-14 16:43:49.916575,-110
2021-10-14 16:43:49.916594,-108
2021-10-14 16:43:49.916603,-110
2021-10-14 16:43:49.916611,-110
2021-10-14 16:43:49.916620,-105
2021-10-14 16:43:49.916628,-98
2021-10-14 16:43:49.916636,-93
2021-10-14 16:43:49.916645,-96
2021-10-14 16:43:49.916655,-101
2021-10-14 16:43:49.916664,-93
2021-10-14 16:43:49.916672,-79
2021-10-14 16:43:49.916680,-69
2021-10-14 16:43:49.916688,-67
2021-10-14 16:43:49.916697,-67
2021-10-14 16:43:49.916705,-67
2021-10-14 16:43:49.916714,-62
2021-10-14 16:43:49.916722,-55
2021-10-14 16:43:49.916730,-48
2021-10-14 16:43:49.916738,-40
2021-10-14 16:43:49.916747,-40
2021-10-14 16:43:49.916755,-45
2021-10-14 16:43:49.916763,-45
2021-10-14 16:43:49.916771,-36
2021-10-14 16:43:49.916779,-31
2021-10-14 16:43:49.916787,-33
2021-10-14 16:43:49.916795,-36
2021-10-14 16:43:49.916803,-38
2021-10-14 16:43:49.916812,-36
2021-10-14 16:43:49.916820,-33
2021-10-14 16:43:49.916828,-28
2021-10-14 16:43:50.141955,-28
2021-10-14 16:43:50.141973,-31
2021-10-14 16:43:50.141983,-31
2021-10-14 16:43:50.141991,-28
2021-10-14 16:43:50.141999,-24
2021-10-14 16:43:50.142008,-16
2021-10-14 16:43:50.142016,-16
2021-10-14 16:43:50.142024,-24
2021-10-14 16:43:50.142032,-26
2021-10-14 16:43:50.142040,-26
2021-10-14 16:43:50.142049,-33
2021-10-14 16:43:50.142057,-36
2021-10-14 16:43:50.142065,-33
2021-10-14 16:43:50.142073,-36
2021-10-14 16:43:50.142082,-40
2021-10-14 16:43:50.142090,-36
2021-10-14 16:43:50.142098,-31
2021-10-14 16:43:50.142106,-24
2021-10-14 16:43:50.142114,-21
2021-10-14 16:43:50.142123,-21
2021-10-14 16:43:50.142131,-19
2021-10-14 16:43:50.142139,-16
2021-10-14 16:43:50.142147,-14
2021-10-14 16:43:50.142156,-7
2021-10-14 16:43:50.142164,2
2021-10-14 16:43:50.142172,7
2021-10-14 16:43:50.142180,24
2021-10-14 16:43:50.142188,24
2021-10-14 16:43:50.142197,-4
2021-10-14 16:43:50.142205,-19
2021-10-14 16:43:50.410815,-16
2021-10-14 16:43:50.410833,-19
2021-10-14 16:43:50.410843,-19
2021-10-14 16:43:50.410851,-14
2021-10-14 16:43:50.410860,-4
2021-10-14 16:43:50.410868,-4
2021-10-14 16:43:50.410876,-14
2021-10-14 16:43:50.410885,-14
2021-10-14 16:43:50.410893,-4
2021-10-14 16:43:50.410901,0
2021-10-14 16:43:50.410910,24
2021-10-14 16:43:50.410918,146
2021-10-14 16:43:50.410926,442
2021-10-14 16:43:50.410934,726
2021-10-14 16:43:50.410943,454
2021-10-14 16:43:50.410951,-442
2021-10-14 16:43:50.410959,-985
2021-10-14 16:43:50.410968,-630
2021-10-14 16:43:50.410976,-175
2021-10-14 16:43:50.410984,-79
2021-10-14 16:43:50.410992,0
2021-10-14 16:43:50.411000,86
2021-10-14 16:43:50.411009,74
2021-10-14 16:43:50.411017,67
2021-10-14 16:43:50.411025,91
2021-10-14 16:43:50.411033,96
2021-10-14 16:43:50.411041,88
2021-10-14 16:43:50.411050,98
2021-10-14 16:43:50.411058,108
2021-10-14 16:43:50.411066,110
2021-10-14 16:43:50.591966,115
2021-10-14 16:43:50.591985,125
2021-10-14 16:43:50.591994,127
2021-10-14 16:43:50.592002,129
2021-10-14 16:43:50.592011,137
2021-10-14 16:43:50.592019,146
2021-10-14 16:43:50.592027,149
2021-10-14 16:43:50.592036,156
2021-10-14 16:43:50.592044,168
2021-10-14 16:43:50.592052,175
2021-10-14 16:43:50.592061,182
2021-10-14 16:43:50.592069,185
2021-10-14 16:43:50.592077,187
2021-10-14 16:43:50.592085,189
2021-10-14 16:43:50.592094,180
2021-10-14 16:43:50.592102,161
2021-10-14 16:43:50.592110,127
2021-10-14 16:43:50.592118,88
2021-10-14 16:43:50.592126,67
2021-10-14 16:43:50.592134,52
2021-10-14 16:43:50.592143,19
2021-10-14 16:43:50.592151,-19
2021-10-14 16:43:50.592159,-45
2021-10-14 16:43:50.592167,-67
2021-10-14 16:43:50.592175,-88
2021-10-14 16:43:50.592184,-105
2021-10-14 16:43:50.592192,-117
2021-10-14 16:43:50.592200,-125
2021-10-14 16:43:50.592208,-127
2021-10-14 16:43:50.592216,-132
2021-10-14 16:43:50.816959,-125
2021-10-14 16:43:50.816978,-108
2021-10-14 16:43:50.816987,-103
2021-10-14 16:43:50.816996,-105
2021-10-14 16:43:50.817004,-108
2021-10-14 16:43:50.817012,-105
2021-10-14 16:43:50.817021,-93
2021-10-14 16:43:50.817029,-81
2021-10-14 16:43:50.817037,-81
2021-10-14 16:43:50.817045,-81
2021-10-14 16:43:50.817054,-74
2021-10-14 16:43:50.817062,-67
2021-10-14 16:43:50.817070,-64
2021-10-14 16:43:50.817078,-60
2021-10-14 16:43:50.817087,-55
2021-10-14 16:43:50.817095,-55
2021-10-14 16:43:50.817103,-55
2021-10-14 16:43:50.817111,-52
2021-10-14 16:43:50.817119,-45
2021-10-14 16:43:50.817128,-40
2021-10-14 16:43:50.817136,-40
2021-10-14 16:43:50.817144,-43
2021-10-14 16:43:50.817152,-40
2021-10-14 16:43:50.817160,-36
2021-10-14 16:43:50.817168,-33
2021-10-14 16:43:50.817177,-36
2021-10-14 16:43:50.817185,-33
2021-10-14 16:43:50.817193,-31
2021-10-14 16:43:50.817201,-36
2021-10-14 16:43:50.817209,-36
2021-10-14 16:43:51.086060,-31
2021-10-14 16:43:51.086080,-26
2021-10-14 16:43:51.086089,-24
2021-10-14 16:43:51.086098,-26
2021-10-14 16:43:51.086106,-33
2021-10-14 16:43:51.086115,-31
2021-10-14 16:43:51.086123,-24
2021-10-14 16:43:51.086131,-26
2021-10-14 16:43:51.086139,-24
2021-10-14 16:43:51.086148,-24
2021-10-14 16:43:51.086156,-28
2021-10-14 16:43:51.086164,-28
2021-10-14 16:43:51.086172,-16
2021-10-14 16:43:51.086180,-12
2021-10-14 16:43:51.086188,-12
2021-10-14 16:43:51.086197,-12
2021-10-14 16:43:51.086205,-2
2021-10-14 16:43:51.086213,9
2021-10-14 16:43:51.086221,14
2021-10-14 16:43:51.086230,24
2021-10-14 16:43:51.086238,38
2021-10-14 16:43:51.086246,16
2021-10-14 16:43:51.086254,-24
2021-10-14 16:43:51.086268,-38
2021-10-14 16:43:51.086276,-26
2021-10-14 16:43:51.086285,-16
2021-10-14 16:43:51.086293,-24
2021-10-14 16:43:51.086301,-28
2021-10-14 16:43:51.086310,-24
2021-10-14 16:43:51.086318,-19
2021-10-14 16:43:51.356478,-21
2021-10-14 16:43:51.356499,-19
2021-10-14 16:43:51.356511,-14
2021-10-14 16:43:51.356520,-2
2021-10-14 16:43:51.356528,81
2021-10-14 16:43:51.356536,355
2021-10-14 16:43:51.356545,704
2021-10-14 16:43:51.356553,586
2021-10-14 16:43:51.356561,-276
2021-10-14 16:43:51.356570,-1002
2021-10-14 16:43:51.356578,-774
2021-10-14 16:43:51.356586,-290
2021-10-14 16:43:51.356594,-156
2021-10-14 16:43:51.356603,-48
2021-10-14 16:43:51.356611,84
2021-10-14 16:43:51.356619,74
2021-10-14 16:43:51.356627,52
2021-10-14 16:43:51.356635,91
2021-10-14 16:43:51.356644,101
2021-10-14 16:43:51.356652,88
2021-10-14 16:43:51.356660,101
2021-10-14 16:43:51.356668,108
2021-10-14 16:43:51.356676,105
2021-10-14 16:43:51.356685,113
2021-10-14 16:43:51.356693,122
2021-10-14 16:43:51.356701,129
2021-10-14 16:43:51.356709,134
2021-10-14 16:43:51.356718,137
2021-10-14 16:43:51.356726,144
2021-10-14 16:43:51.356734,158
2021-10-14 16:43:51.627136,168
2021-10-14 16:43:51.627157,173
2021-10-14 16:43:51.627166,175
2021-10-14 16:43:51.627174,175
2021-10-14 16:43:51.627183,182
2021-10-14 16:43:51.627191,189
2021-10-14 16:43:51.627200,187
2021-10-14 16:43:51.627208,180
2021-10-14 16:43:51.627216,161
2021-10-14 16:43:51.627225,134
2021-10-14 16:43:51.627233,113
2021-10-14 16:43:51.627241,91
2021-10-14 16:43:51.627250,64
2021-10-14 16:43:51.627258,36
2021-10-14 16:43:51.627266,-2
2021-10-14 16:43:51.627275,-40
2021-10-14 16:43:51.627283,-60
2021-10-14 16:43:51.627291,-67
2021-10-14 16:43:51.627300,-79
2021-10-14 16:43:51.627308,-86
2021-10-14 16:43:51.627316,-93
2021-10-14 16:43:51.627324,-103
2021-10-14 16:43:51.627333,-105
2021-10-14 16:43:51.627341,-98
2021-10-14 16:43:51.627349,-96
2021-10-14 16:43:51.627357,-101
2021-10-14 16:43:51.627365,-101
2021-10-14 16:43:51.627374,-103
2021-10-14 16:43:51.627382,-105
2021-10-14 16:43:51.627390,-103
2021-10-14 16:43:51.762103,-91
2021-10-14 16:43:51.762124,-86
2021-10-14 16:43:51.762133,-86
2021-10-14 16:43:51.762142,-84
2021-10-14 16:43:51.762150,-79
2021-10-14 16:43:51.762158,-76
2021-10-14 16:43:51.762167,-72
2021-10-14 16:43:51.762175,-67
2021-10-14 16:43:51.762183,-67
2021-10-14 16:43:51.762191,-64
2021-10-14 16:43:51.762199,-60
2021-10-14 16:43:51.762208,-55
2021-10-14 16:43:51.762216,-52
2021-10-14 16:43:51.762224,-57
2021-10-14 16:43:51.762232,-67
2021-10-14 16:43:51.762241,-67
2021-10-14 16:43:51.762249,-57
2021-10-14 16:43:51.762257,-57
2021-10-14 16:43:51.762266,-60
2021-10-14 16:43:51.762274,-55
2021-10-14 16:43:51.762282,-57
2021-10-14 16:43:51.762290,-57
2021-10-14 16:43:51.762299,-52
2021-10-14 16:43:51.762307,-48
2021-10-14 16:43:51.762315,-48
2021-10-14 16:43:51.762323,-55
2021-10-14 16:43:51.762331,-62
2021-10-14 16:43:51.762340,-57
2021-10-14 16:43:51.762348,-50
2021-10-14 16:43:51.762356,-45
2021-10-14 16:43:51.987158,-40
2021-10-14 16:43:51.987179,-43
2021-10-14 16:43:51.987189,-43
2021-10-14 16:43:51.987197,-36
2021-10-14 16:43:51.987206,-33
2021-10-14 16:43:51.987214,-36
2021-10-14 16:43:51.987222,-43
2021-10-14 16:43:51.987231,-50
2021-10-14 16:43:51.987239,-45
2021-10-14 16:43:51.987247,-33
2021-10-14 16:43:51.987256,-26
2021-10-14 16:43:51.987264,-9
2021-10-14 16:43:51.987272,-2
2021-10-14 16:43:51.987280,-31
2021-10-14 16:43:51.987288,-57
2021-10-14 16:43:51.987297,-55
2021-10-14 16:43:51.987305,-50
2021-10-14 16:43:51.987313,-48
2021-10-14 16:43:51.987322,-45
2021-10-14 16:43:51.987330,-45
2021-10-14 16:43:51.987338,-40
2021-10-14 16:43:51.987346,-38
2021-10-14 16:43:51.987355,-33
2021-10-14 16:43:51.987363,-24
2021-10-14 16:43:51.987371,-16
2021-10-14 16:43:51.987379,-2
2021-10-14 16:43:51.987387,103
2021-10-14 16:43:51.987396,413
2021-10-14 16:43:51.987404,747
2021-10-14 16:43:51.987412,533
2021-10-14 16:43:52.257075,-372
2021-10-14 16:43:52.257095,-1026
2021-10-14 16:43:52.257105,-704
2021-10-14 16:43:52.257113,-189
2021-10-14 16:43:52.257121,-98
2021-10-14 16:43:52.257130,-45
2021-10-14 16:43:52.257138,57
2021-10-14 16:43:52.257146,38
2021-10-14 16:43:52.257155,16
2021-10-14 16:43:52.257163,50
2021-10-14 16:43:52.257171,57
2021-10-14 16:43:52.257179,45
2021-10-14 16:43:52.257187,50
2021-10-14 16:43:52.257196,57
2021-10-14 16:43:52.257204,60
2021-10-14 16:43:52.257213,67
2021-10-14 16:43:52.257221,76
2021-10-14 16:43:52.257230,81
2021-10-14 16:43:52.257238,86
2021-10-14 16:43:52.257246,96
2021-10-14 16:43:52.257254,110
2021-10-14 16:43:52.257262,115
2021-10-14 16:43:52.257271,125
2021-10-14 16:43:52.257279,139
2021-10-14 16:43:52.257287,149
2021-10-14 16:43:52.257295,153
2021-10-14 16:43:52.257303,156
2021-10-14 16:43:52.257312,161
2021-10-14 16:43:52.257320,163
2021-10-14 16:43:52.257328,161
2021-10-14 16:43:52.480987,146
2021-10-14 16:43:52.481007,129
2021-10-14 16:43:52.481016,115
2021-10-14 16:43:52.481025,88
2021-10-14 16:43:52.481033,55
2021-10-14 16:43:52.481041,21
2021-10-14 16:43:52.481050,-12
2021-10-14 16:43:52.481058,-33
2021-10-14 16:43:52.481066,-52
2021-10-14 16:43:52.481075,-76
2021-10-14 16:43:52.481083,-98
2021-10-14 16:43:52.481091,-117
2021-10-14 16:43:52.481100,-129
2021-10-14 16:43:52.481108,-129
2021-10-14 16:43:52.481117,-129
2021-10-14 16:43:52.481125,-132
2021-10-14 16:43:52.481133,-129
2021-10-14 16:43:52.481142,-132
2021-10-14 16:43:52.481150,-129
2021-10-14 16:43:52.481158,-120
2021-10-14 16:43:52.481166,-115
2021-10-14 16:43:52.481175,-110
2021-10-14 16:43:52.481183,-101
2021-10-14 16:43:52.481191,-93
2021-10-14 16:43:52.481200,-88
2021-10-14 16:43:52.481208,-79
2021-10-14 16:43:52.481216,-72
2021-10-14 16:43:52.481224,-67
2021-10-14 16:43:52.481233,-64
2021-10-14 16:43:52.481245,-60
2021-10-14 16:43:52.707003,-52
2021-10-14 16:43:52.707021,-45
2021-10-14 16:43:52.707031,-43
2021-10-14 16:43:52.707039,-43
2021-10-14 16:43:52.707048,-45
2021-10-14 16:43:52.707056,-52
2021-10-14 16:43:52.707065,-50
2021-10-14 16:43:52.707073,-40
2021-10-14 16:43:52.707081,-38
2021-10-14 16:43:52.707090,-52
2021-10-14 16:43:52.707098,-67
2021-10-14 16:43:52.707106,-72
2021-10-14 16:43:52.707114,-74
2021-10-14 16:43:52.707123,-72
2021-10-14 16:43:52.707131,-64
2021-10-14 16:43:52.707140,-62
2021-10-14 16:43:52.707166,-64
2021-10-14 16:43:52.707176,-64
2021-10-14 16:43:52.707184,-60
2021-10-14 16:43:52.707192,-50
2021-10-14 16:43:52.707201,-45
2021-10-14 16:43:52.707209,-45
2021-10-14 16:43:52.707217,-43
2021-10-14 16:43:52.707226,-38
2021-10-14 16:43:52.707234,-31
2021-10-14 16:43:52.707242,-24
2021-10-14 16:43:52.707251,-24
2021-10-14 16:43:52.707259,-26
2021-10-14 16:43:52.707267,-14
2021-10-14 16:43:52.707276,7
2021-10-14 16:43:53.110452,12
2021-10-14 16:43:53.110471,16
2021-10-14 16:43:53.110481,28
2021-10-14 16:43:53.110490,16
2021-10-14 16:43:53.110498,-24
2021-10-14 16:43:53.110506,-40
2021-10-14 16:43:53.110515,-21
2021-10-14 16:43:53.110523,-12
2021-10-14 16:43:53.110531,-19
2021-10-14 16:43:53.110540,-19
2021-10-14 16:43:53.110548,-19
2021-10-14 16:43:53.110556,-19
2021-10-14 16:43:53.110564,-12
2021-10-14 16:43:53.110573,-2
2021-10-14 16:43:53.110581,-2
2021-10-14 16:43:53.110589,-4
2021-10-14 16:43:53.110598,43
2021-10-14 16:43:53.110606,257
2021-10-14 16:43:53.110614,615
2021-10-14 16:43:53.110622,690
2021-10-14 16:43:53.110630,19
2021-10-14 16:43:53.110639,-841
2021-10-14 16:43:53.110647,-877
2021-10-14 16:43:53.110655,-375
2021-10-14 16:43:53.110663,-134
2021-10-14 16:43:53.110672,-57
2021-10-14 16:43:53.110680,62
2021-10-14 16:43:53.110688,93
2021-10-14 16:43:53.110696,62
2021-10-14 16:43:53.110705,84
2021-10-14 16:43:53.201391,110
2021-10-14 16:43:53.201410,105
2021-10-14 16:43:53.201419,108
2021-10-14 16:43:53.201427,103
2021-10-14 16:43:53.201436,101
2021-10-14 16:43:53.201444,113
2021-10-14 16:43:53.201452,122
2021-10-14 16:43:53.201461,125
2021-10-14 16:43:53.201469,129
2021-10-14 16:43:53.201477,122
2021-10-14 16:43:53.201485,120
2021-10-14 16:43:53.201493,134
2021-10-14 16:43:53.201502,146
2021-10-14 16:43:53.201510,161
2021-10-14 16:43:53.201518,180
2021-10-14 16:43:53.201526,177
2021-10-14 16:43:53.201535,163
2021-10-14 16:43:53.201543,168
2021-10-14 16:43:53.201551,182
2021-10-14 16:43:53.201559,170
2021-10-14 16:43:53.201567,153
2021-10-14 16:43:53.201576,141
2021-10-14 16:43:53.201584,129
2021-10-14 16:43:53.201592,110
2021-10-14 16:43:53.201600,86
2021-10-14 16:43:53.201608,55
2021-10-14 16:43:53.201617,21
2021-10-14 16:43:53.201625,-4
2021-10-14 16:43:53.201633,-26
2021-10-14 16:43:53.201641,-45
2021-10-14 16:43:53.381633,-62
2021-10-14 16:43:53.381652,-69
2021-10-14 16:43:53.381661,-74
2021-10-14 16:43:53.381669,-86
2021-10-14 16:43:53.381678,-91
2021-10-14 16:43:53.381686,-81
2021-10-14 16:43:53.381694,-79
2021-10-14 16:43:53.381703,-86
2021-10-14 16:43:53.381711,-88
2021-10-14 16:43:53.381720,-91
2021-10-14 16:43:53.381728,-86
2021-10-14 16:43:53.381736,-79
2021-10-14 16:43:53.381745,-74
2021-10-14 16:43:53.381753,-64
2021-10-14 16:43:53.381761,-64
2021-10-14 16:43:53.381769,-72
2021-10-14 16:43:53.381778,-64
2021-10-14 16:43:53.381786,-52
2021-10-14 16:43:53.381794,-57
2021-10-14 16:43:53.381802,-64
2021-10-14 16:43:53.381811,-62
2021-10-14 16:43:53.381819,-60
2021-10-14 16:43:53.381827,-57
2021-10-14 16:43:53.381835,-52
2021-10-14 16:43:53.381844,-50
2021-10-14 16:43:53.381852,-52
2021-10-14 16:43:53.381860,-55
2021-10-14 16:43:53.381869,-50
2021-10-14 16:43:53.381877,-45
2021-10-14 16:43:53.381885,-45
2021-10-14 16:43:53.606625,-36
2021-10-14 16:43:53.606644,-24
2021-10-14 16:43:53.606653,-33
2021-10-14 16:43:53.606662,-40
2021-10-14 16:43:53.606670,-36
2021-10-14 16:43:53.606678,-28
2021-10-14 16:43:53.606687,-24
2021-10-14 16:43:53.606695,-19
2021-10-14 16:43:53.606703,-31
2021-10-14 16:43:53.606712,-38
2021-10-14 16:43:53.606720,-28
2021-10-14 16:43:53.606728,-19
2021-10-14 16:43:53.606736,-7
2021-10-14 16:43:53.606745,-4
2021-10-14 16:43:53.606753,-4
2021-10-14 16:43:53.606761,7
2021-10-14 16:43:53.606770,14
2021-10-14 16:43:53.606778,-12
2021-10-14 16:43:53.606787,-33
2021-10-14 16:43:53.606795,-26
2021-10-14 16:43:53.606803,-24
2021-10-14 16:43:53.606811,-40
2021-10-14 16:43:53.606820,-50
2021-10-14 16:43:53.606828,-45
2021-10-14 16:43:53.606836,-38
2021-10-14 16:43:53.606844,-33
2021-10-14 16:43:53.606853,-28
2021-10-14 16:43:53.606861,-24
2021-10-14 16:43:53.606869,-14
2021-10-14 16:43:53.606878,28
2021-10-14 16:43:53.877015,211
2021-10-14 16:43:53.877034,574
2021-10-14 16:43:53.877043,747
2021-10-14 16:43:53.877052,156
2021-10-14 16:43:53.877060,-798
2021-10-14 16:43:53.877068,-966
2021-10-14 16:43:53.877077,-444
2021-10-14 16:43:53.877085,-168
2021-10-14 16:43:53.877093,-110
2021-10-14 16:43:53.877102,38
2021-10-14 16:43:53.877110,103
2021-10-14 16:43:53.877118,64
2021-10-14 16:43:53.877127,79
2021-10-14 16:43:53.877135,101
2021-10-14 16:43:53.877143,91
2021-10-14 16:43:53.877151,96
2021-10-14 16:43:53.877160,105
2021-10-14 16:43:53.877168,110
2021-10-14 16:43:53.877176,113
2021-10-14 16:43:53.877184,120
2021-10-14 16:43:53.877193,129
2021-10-14 16:43:53.877201,137
2021-10-14 16:43:53.877209,134
2021-10-14 16:43:53.877218,134
2021-10-14 16:43:53.877226,149
2021-10-14 16:43:53.877234,161
2021-10-14 16:43:53.877242,168
2021-10-14 16:43:53.877250,177
2021-10-14 16:43:53.877258,192
2021-10-14 16:43:53.877266,204
2021-10-14 16:43:54.102233,206
2021-10-14 16:43:54.102252,206
2021-10-14 16:43:54.102262,202
2021-10-14 16:43:54.102270,187
2021-10-14 16:43:54.102279,170
2021-10-14 16:43:54.102287,151
2021-10-14 16:43:54.102295,127
2021-10-14 16:43:54.102304,93
2021-10-14 16:43:54.102312,60
2021-10-14 16:43:54.102320,31
2021-10-14 16:43:54.102328,4
2021-10-14 16:43:54.102337,-16
2021-10-14 16:43:54.102345,-38
2021-10-14 16:43:54.102353,-57
2021-10-14 16:43:54.102362,-60
2021-10-14 16:43:54.102370,-62
2021-10-14 16:43:54.102378,-62
2021-10-14 16:43:54.102386,-62
2021-10-14 16:43:54.102395,-67
2021-10-14 16:43:54.102403,-69
2021-10-14 16:43:54.102412,-67
2021-10-14 16:43:54.102420,-62
2021-10-14 16:43:54.102428,-52
2021-10-14 16:43:54.102436,-45
2021-10-14 16:43:54.102445,-52
2021-10-14 16:43:54.102453,-55
2021-10-14 16:43:54.102461,-50
2021-10-14 16:43:54.102469,-55
2021-10-14 16:43:54.102481,-57
2021-10-14 16:43:54.102489,-52
2021-10-14 16:43:54.281647,-52
2021-10-14 16:43:54.281667,-52
2021-10-14 16:43:54.281676,-50
2021-10-14 16:43:54.281685,-52
2021-10-14 16:43:54.281693,-55
2021-10-14 16:43:54.281702,-55
2021-10-14 16:43:54.281710,-62
2021-10-14 16:43:54.281718,-62
2021-10-14 16:43:54.281726,-55
2021-10-14 16:43:54.281735,-57
2021-10-14 16:43:54.281743,-57
2021-10-14 16:43:54.281751,-50
2021-10-14 16:43:54.281759,-45
2021-10-14 16:43:54.281768,-45
2021-10-14 16:43:54.281776,-38
2021-10-14 16:43:54.281784,-36
2021-10-14 16:43:54.281792,-40
2021-10-14 16:43:54.281800,-43
2021-10-14 16:43:54.281808,-43
2021-10-14 16:43:54.281817,-38
2021-10-14 16:43:54.281825,-36
2021-10-14 16:43:54.281833,-36
2021-10-14 16:43:54.281841,-33
2021-10-14 16:43:54.281850,-31
2021-10-14 16:43:54.281858,-26
2021-10-14 16:43:54.281866,-24
2021-10-14 16:43:54.281874,-24
2021-10-14 16:43:54.281882,-21
2021-10-14 16:43:54.281890,-12
2021-10-14 16:43:54.281899,-4
2021-10-14 16:43:54.550958,9
2021-10-14 16:43:54.550977,9
2021-10-14 16:43:54.550986,-16
2021-10-14 16:43:54.550995,-38
2021-10-14 16:43:54.551004,-40
2021-10-14 16:43:54.551012,-48
2021-10-14 16:43:54.551020,-50
2021-10-14 16:43:54.551029,-40
2021-10-14 16:43:54.551037,-40
2021-10-14 16:43:54.551045,-45
2021-10-14 16:43:54.551053,-40
2021-10-14 16:43:54.551062,-33
2021-10-14 16:43:54.551070,-31
2021-10-14 16:43:54.551078,-24
2021-10-14 16:43:54.551086,4
2021-10-14 16:43:54.551094,139
2021-10-14 16:43:54.551103,483
2021-10-14 16:43:54.551111,783
2021-10-14 16:43:54.551119,432
2021-10-14 16:43:54.551128,-550
2021-10-14 16:43:54.551136,-1074
2021-10-14 16:43:54.551144,-630
2021-10-14 16:43:54.551152,-151
2021-10-14 16:43:54.551161,-88
2021-10-14 16:43:54.551169,-7
2021-10-14 16:43:54.551177,96
2021-10-14 16:43:54.551185,74
2021-10-14 16:43:54.551193,62
2021-10-14 16:43:54.551201,96
2021-10-14 16:43:54.551209,91
2021-10-14 16:43:54.732018,81
2021-10-14 16:43:54.732036,98
2021-10-14 16:43:54.732046,96
2021-10-14 16:43:54.732055,79
2021-10-14 16:43:54.732063,76
2021-10-14 16:43:54.732071,86
2021-10-14 16:43:54.732080,96
2021-10-14 16:43:54.732088,103
2021-10-14 16:43:54.732096,113
2021-10-14 16:43:54.732105,117
2021-10-14 16:43:54.732113,120
2021-10-14 16:43:54.732121,127
2021-10-14 16:43:54.732130,146
2021-10-14 16:43:54.732138,161
2021-10-14 16:43:54.732146,168
2021-10-14 16:43:54.732154,170
2021-10-14 16:43:54.732163,168
2021-10-14 16:43:54.732171,165
2021-10-14 16:43:54.732179,165
2021-10-14 16:43:54.732188,156
2021-10-14 16:43:54.732196,137
2021-10-14 16:43:54.732204,110
2021-10-14 16:43:54.732213,81
2021-10-14 16:43:54.732221,52
2021-10-14 16:43:54.732229,24
2021-10-14 16:43:54.732237,-4
2021-10-14 16:43:54.732246,-28
2021-10-14 16:43:54.732254,-50
2021-10-14 16:43:54.732262,-64
2021-10-14 16:43:54.732270,-74
2021-10-14 16:43:55.046770,-81
2021-10-14 16:43:55.046791,-86
2021-10-14 16:43:55.046800,-88
2021-10-14 16:43:55.046809,-91
2021-10-14 16:43:55.046816,-98
2021-10-14 16:43:55.046825,-93
2021-10-14 16:43:55.046832,-84
2021-10-14 16:43:55.046840,-81
2021-10-14 16:43:55.046848,-76
2021-10-14 16:43:55.046855,-76
2021-10-14 16:43:55.046863,-76
2021-10-14 16:43:55.046870,-67
2021-10-14 16:43:55.046878,-52
2021-10-14 16:43:55.046886,-48
2021-10-14 16:43:55.046893,-43
2021-10-14 16:43:55.046902,-40
2021-10-14 16:43:55.046910,-38
2021-10-14 16:43:55.046918,-36
2021-10-14 16:43:55.046926,-36
2021-10-14 16:43:55.046935,-31
2021-10-14 16:43:55.046943,-28
2021-10-14 16:43:55.046951,-33
2021-10-14 16:43:55.046960,-36
2021-10-14 16:43:55.046968,-38
2021-10-14 16:43:55.046976,-40
2021-10-14 16:43:55.046985,-40
2021-10-14 16:43:55.046993,-48
2021-10-14 16:43:55.047014,-55
2021-10-14 16:43:55.047037,-50
2021-10-14 16:43:55.047048,-45
2021-10-14 16:43:55.227034,-48
2021-10-14 16:43:55.227053,-45
2021-10-14 16:43:55.227062,-48
2021-10-14 16:43:55.227071,-55
2021-10-14 16:43:55.227079,-55
2021-10-14 16:43:55.227087,-45
2021-10-14 16:43:55.227096,-43
2021-10-14 16:43:55.227104,-40
2021-10-14 16:43:55.227113,-43
2021-10-14 16:43:55.227121,-57
2021-10-14 16:43:55.227129,-57
2021-10-14 16:43:55.227137,-40
2021-10-14 16:43:55.227146,-33
2021-10-14 16:43:55.227154,-38
2021-10-14 16:43:55.227162,-43
2021-10-14 16:43:55.227170,-50
2021-10-14 16:43:55.227178,-40
2021-10-14 16:43:55.227187,-21
2021-10-14 16:43:55.227195,-14
2021-10-14 16:43:55.227203,-7
2021-10-14 16:43:55.227211,2
2021-10-14 16:43:55.227220,-16
2021-10-14 16:43:55.227228,-40
2021-10-14 16:43:55.227236,-40
2021-10-14 16:43:55.227244,-38
2021-10-14 16:43:55.227253,-38
2021-10-14 16:43:55.227261,-33
2021-10-14 16:43:55.227269,-36
2021-10-14 16:43:55.227277,-31
2021-10-14 16:43:55.227286,-21
2021-10-14 16:43:55.496661,-19
2021-10-14 16:43:55.496679,-16
2021-10-14 16:43:55.496688,-14
2021-10-14 16:43:55.496697,-4
2021-10-14 16:43:55.496705,50
2021-10-14 16:43:55.496714,264
2021-10-14 16:43:55.496722,642
2021-10-14 16:43:55.496731,740
2021-10-14 16:43:55.496739,45
2021-10-14 16:43:55.496747,-899
2021-10-14 16:43:55.496756,-964
2021-10-14 16:43:55.496764,-382
2021-10-14 16:43:55.496772,-103
2021-10-14 16:43:55.496781,-72
2021-10-14 16:43:55.496789,31
2021-10-14 16:43:55.496798,74
2021-10-14 16:43:55.496806,45
2021-10-14 16:43:55.496814,62
2021-10-14 16:43:55.496823,88
2021-10-14 16:43:55.496831,79
2021-10-14 16:43:55.496839,79
2021-10-14 16:43:55.496848,91
2021-10-14 16:43:55.496856,98
2021-10-14 16:43:55.496864,103
2021-10-14 16:43:55.496872,115
2021-10-14 16:43:55.496881,120
2021-10-14 16:43:55.496889,122
2021-10-14 16:43:55.496897,129
2021-10-14 16:43:55.496906,139
2021-10-14 16:43:55.496914,151
2021-10-14 16:43:55.676647,163
2021-10-14 16:43:55.676665,170
2021-10-14 16:43:55.676674,175
2021-10-14 16:43:55.676683,182
2021-10-14 16:43:55.676691,194
2021-10-14 16:43:55.676699,204
2021-10-14 16:43:55.676708,199
2021-10-14 16:43:55.676716,177
2021-10-14 16:43:55.676725,156
2021-10-14 16:43:55.676733,144
2021-10-14 16:43:55.676741,127
2021-10-14 16:43:55.676750,105
2021-10-14 16:43:55.676758,84
2021-10-14 16:43:55.676766,50
2021-10-14 16:43:55.676774,7
2021-10-14 16:43:55.676783,-28
2021-10-14 16:43:55.676791,-48
2021-10-14 16:43:55.676799,-57
2021-10-14 16:43:55.676808,-72
2021-10-14 16:43:55.676816,-91
2021-10-14 16:43:55.676824,-96
2021-10-14 16:43:55.676832,-88
2021-10-14 16:43:55.676840,-86
2021-10-14 16:43:55.676849,-86
2021-10-14 16:43:55.676857,-84
2021-10-14 16:43:55.676865,-81
2021-10-14 16:43:55.676873,-76
2021-10-14 16:43:55.676881,-72
2021-10-14 16:43:55.676890,-64
2021-10-14 16:43:55.676898,-57
2021-10-14 16:43:55.947044,-50
2021-10-14 16:43:55.947063,-48
2021-10-14 16:43:55.947072,-40
2021-10-14 16:43:55.947081,-33
2021-10-14 16:43:55.947089,-26
2021-10-14 16:43:55.947097,-21
2021-10-14 16:43:55.947106,-24
2021-10-14 16:43:55.947114,-26
2021-10-14 16:43:55.947122,-31
2021-10-14 16:43:55.947131,-36
2021-10-14 16:43:55.947139,-36
2021-10-14 16:43:55.947147,-31
2021-10-14 16:43:55.947156,-36
2021-10-14 16:43:55.947164,-45
2021-10-14 16:43:55.947172,-45
2021-10-14 16:43:55.947180,-45
2021-10-14 16:43:55.947189,-50
2021-10-14 16:43:55.947197,-55
2021-10-14 16:43:55.947205,-60
2021-10-14 16:43:55.947213,-60
2021-10-14 16:43:55.947221,-57
2021-10-14 16:43:55.947230,-60
2021-10-14 16:43:55.947238,-57
2021-10-14 16:43:55.947249,-48
2021-10-14 16:43:55.947258,-48
2021-10-14 16:43:55.947266,-48
2021-10-14 16:43:55.947274,-43
2021-10-14 16:43:55.947282,-38
2021-10-14 16:43:55.947290,-24
2021-10-14 16:43:55.947299,-19
2021-10-14 16:43:56.216664,-14
2021-10-14 16:43:56.216683,-2
2021-10-14 16:43:56.216692,-9
2021-10-14 16:43:56.216701,-38
2021-10-14 16:43:56.216709,-48
2021-10-14 16:43:56.216718,-40
2021-10-14 16:43:56.216726,-43
2021-10-14 16:43:56.216735,-45
2021-10-14 16:43:56.216743,-38
2021-10-14 16:43:56.216751,-31
2021-10-14 16:43:56.216759,-33
2021-10-14 16:43:56.216768,-40
2021-10-14 16:43:56.216776,-40
2021-10-14 16:43:56.216784,-31
2021-10-14 16:43:56.216792,-14
2021-10-14 16:43:56.216800,55
2021-10-14 16:43:56.216808,315
2021-10-14 16:43:56.216816,685
2021-10-14 16:43:56.216825,637
2021-10-14 16:43:56.216833,-206
2021-10-14 16:43:56.216841,-1058
2021-10-14 16:43:56.216849,-909
2021-10-14 16:43:56.216857,-317
2021-10-14 16:43:56.216865,-127
2021-10-14 16:43:56.216874,-76
2021-10-14 16:43:56.216882,48
2021-10-14 16:43:56.216890,67
2021-10-14 16:43:56.216898,38
2021-10-14 16:43:56.216906,69
2021-10-14 16:43:56.216915,86
2021-10-14 16:43:56.351698,74
2021-10-14 16:43:56.351718,86
2021-10-14 16:43:56.351727,101
2021-10-14 16:43:56.351736,96
2021-10-14 16:43:56.351744,96
2021-10-14 16:43:56.351753,98
2021-10-14 16:43:56.351761,103
2021-10-14 16:43:56.351769,113
2021-10-14 16:43:56.351777,122
2021-10-14 16:43:56.351786,132
2021-10-14 16:43:56.351794,144
2021-10-14 16:43:56.351802,151
2021-10-14 16:43:56.351811,156
2021-10-14 16:43:56.351819,163
2021-10-14 16:43:56.351827,173
2021-10-14 16:43:56.351835,177
2021-10-14 16:43:56.351844,185
2021-10-14 16:43:56.351852,185
2021-10-14 16:43:56.351860,177
2021-10-14 16:43:56.351868,165
2021-10-14 16:43:56.351876,149
2021-10-14 16:43:56.351884,122
2021-10-14 16:43:56.351892,91
2021-10-14 16:43:56.351900,55
2021-10-14 16:43:56.351909,24
2021-10-14 16:43:56.351917,-2
2021-10-14 16:43:56.351925,-28
2021-10-14 16:43:56.351933,-52
2021-10-14 16:43:56.351942,-64
2021-10-14 16:43:56.351950,-76
2021-10-14 16:43:56.620322,-81
2021-10-14 16:43:56.620341,-81
2021-10-14 16:43:56.620350,-79
2021-10-14 16:43:56.620358,-81
2021-10-14 16:43:56.620367,-86
2021-10-14 16:43:56.620375,-91
2021-10-14 16:43:56.620383,-84
2021-10-14 16:43:56.620392,-74
2021-10-14 16:43:56.620400,-69
2021-10-14 16:43:56.620408,-67
2021-10-14 16:43:56.620417,-67
2021-10-14 16:43:56.620425,-64
2021-10-14 16:43:56.620433,-52
2021-10-14 16:43:56.620442,-43
2021-10-14 16:43:56.620450,-38
2021-10-14 16:43:56.620458,-40
2021-10-14 16:43:56.620467,-43
2021-10-14 16:43:56.620475,-38
2021-10-14 16:43:56.620483,-28
2021-10-14 16:43:56.620491,-24
2021-10-14 16:43:56.620500,-26
2021-10-14 16:43:56.620508,-26
2021-10-14 16:43:56.620516,-28
2021-10-14 16:43:56.620524,-26
2021-10-14 16:43:56.620533,-21
2021-10-14 16:43:56.620541,-28
2021-10-14 16:43:56.620549,-40
2021-10-14 16:43:56.620557,-43
2021-10-14 16:43:56.620565,-38
2021-10-14 16:43:56.620574,-40
2021-10-14 16:43:56.846070,-45
2021-10-14 16:43:56.846090,-40
2021-10-14 16:43:56.846099,-36
2021-10-14 16:43:56.846108,-45
2021-10-14 16:43:56.846116,-52
2021-10-14 16:43:56.846124,-50
2021-10-14 16:43:56.846132,-38
2021-10-14 16:43:56.846141,-33
2021-10-14 16:43:56.846149,-33
2021-10-14 16:43:56.846157,-33
2021-10-14 16:43:56.846165,-50
2021-10-14 16:43:56.846174,-74
2021-10-14 16:43:56.846182,-79
2021-10-14 16:43:56.846190,-74
2021-10-14 16:43:56.846199,-74
2021-10-14 16:43:56.846207,-76
2021-10-14 16:43:56.846216,-79
2021-10-14 16:43:56.846224,-79
2021-10-14 16:43:56.846232,-72
2021-10-14 16:43:56.846240,-62
2021-10-14 16:43:56.846249,-57
2021-10-14 16:43:56.846257,-57
2021-10-14 16:43:56.846265,-45
2021-10-14 16:43:56.846273,16
2021-10-14 16:43:56.846282,242
2021-10-14 16:43:56.846290,620
2021-10-14 16:43:56.846298,661
2021-10-14 16:43:56.846306,-105
2021-10-14 16:43:56.846314,-988
2021-10-14 16:43:56.846323,-918
2021-10-14 16:43:57.072061,-346
2021-10-14 16:43:57.072081,-127
2021-10-14 16:43:57.072090,-69
2021-10-14 16:43:57.072099,40
2021-10-14 16:43:57.072107,55
2021-10-14 16:43:57.072116,33
2021-10-14 16:43:57.072124,64
2021-10-14 16:43:57.072132,79
2021-10-14 16:43:57.072141,64
2021-10-14 16:43:57.072149,62
2021-10-14 16:43:57.072157,72
2021-10-14 16:43:57.072166,79
2021-10-14 16:43:57.072174,86
2021-10-14 16:43:57.072182,98
2021-10-14 16:43:57.072191,101
2021-10-14 16:43:57.072199,101
2021-10-14 16:43:57.072207,115
2021-10-14 16:43:57.072216,127
2021-10-14 16:43:57.072224,134
2021-10-14 16:43:57.072232,139
2021-10-14 16:43:57.072241,144
2021-10-14 16:43:57.072249,151
2021-10-14 16:43:57.072257,165
2021-10-14 16:43:57.072266,173
2021-10-14 16:43:57.072274,175
2021-10-14 16:43:57.072282,175
2021-10-14 16:43:57.072290,170
2021-10-14 16:43:57.072298,153
2021-10-14 16:43:57.072307,137
2021-10-14 16:43:57.072315,120
2021-10-14 16:43:57.342059,96
2021-10-14 16:43:57.342078,60
2021-10-14 16:43:57.342087,14
2021-10-14 16:43:57.342095,-16
2021-10-14 16:43:57.342104,-33
2021-10-14 16:43:57.342112,-50
2021-10-14 16:43:57.342121,-64
2021-10-14 16:43:57.342129,-72
2021-10-14 16:43:57.342137,-86
2021-10-14 16:43:57.342145,-98
2021-10-14 16:43:57.342154,-93
2021-10-14 16:43:57.342162,-84
2021-10-14 16:43:57.342170,-79
2021-10-14 16:43:57.342178,-74
2021-10-14 16:43:57.342187,-81
2021-10-14 16:43:57.342195,-86
2021-10-14 16:43:57.342203,-74
2021-10-14 16:43:57.342211,-64
2021-10-14 16:43:57.342220,-57
2021-10-14 16:43:57.342228,-52
2021-10-14 16:43:57.342236,-50
2021-10-14 16:43:57.342244,-48
2021-10-14 16:43:57.342252,-40
2021-10-14 16:43:57.342260,-31
2021-10-14 16:43:57.342269,-31
2021-10-14 16:43:57.342277,-33
2021-10-14 16:43:57.342285,-33
2021-10-14 16:43:57.342293,-28
2021-10-14 16:43:57.342301,-24
2021-10-14 16:43:57.342309,-19
2021-10-14 16:43:57.566692,-16
2021-10-14 16:43:57.566711,-16
2021-10-14 16:43:57.566720,-19
2021-10-14 16:43:57.566729,-21
2021-10-14 16:43:57.566738,-16
2021-10-14 16:43:57.566746,-14
2021-10-14 16:43:57.566755,-14
2021-10-14 16:43:57.566763,-21
2021-10-14 16:43:57.566771,-28
2021-10-14 16:43:57.566780,-28
2021-10-14 16:43:57.566788,-21
2021-10-14 16:43:57.566796,-19
2021-10-14 16:43:57.566805,-19
2021-10-14 16:43:57.566813,-26
2021-10-14 16:43:57.566821,-31
2021-10-14 16:43:57.566829,-31
2021-10-14 16:43:57.566838,-26
2021-10-14 16:43:57.566846,-19
2021-10-14 16:43:57.566854,-12
2021-10-14 16:43:57.566863,-16
2021-10-14 16:43:57.566871,-24
2021-10-14 16:43:57.566879,-19
2021-10-14 16:43:57.566887,-16
2021-10-14 16:43:57.566896,-38
2021-10-14 16:43:57.566904,-62
2021-10-14 16:43:57.566912,-64
2021-10-14 16:43:57.566921,-64
2021-10-14 16:43:57.566929,-67
2021-10-14 16:43:57.566938,-62
2021-10-14 16:43:57.566946,-52
2021-10-14 16:43:57.747085,-50
2021-10-14 16:43:57.747104,-55
2021-10-14 16:43:57.747113,-52
2021-10-14 16:43:57.747122,-43
2021-10-14 16:43:57.747130,-36
2021-10-14 16:43:57.747138,-16
2021-10-14 16:43:57.747147,62
2021-10-14 16:43:57.747155,303
2021-10-14 16:43:57.747163,632
2021-10-14 16:43:57.747171,538
2021-10-14 16:43:57.747180,-278
2021-10-14 16:43:57.747188,-985
2021-10-14 16:43:57.747196,-791
2021-10-14 16:43:57.747204,-327
2021-10-14 16:43:57.747213,-168
2021-10-14 16:43:57.747221,-62
2021-10-14 16:43:57.747229,50
2021-10-14 16:43:57.747238,50
2021-10-14 16:43:57.747246,31
2021-10-14 16:43:57.747254,60
2021-10-14 16:43:57.747262,69
2021-10-14 16:43:57.747271,60
2021-10-14 16:43:57.747279,72
2021-10-14 16:43:57.747287,84
2021-10-14 16:43:57.747295,86
2021-10-14 16:43:57.747302,88
2021-10-14 16:43:57.747309,93
2021-10-14 16:43:57.747316,96
2021-10-14 16:43:57.747323,101
2021-10-14 16:43:57.747330,115
2021-10-14 16:43:57.972093,127
2021-10-14 16:43:57.972112,129
2021-10-14 16:43:57.972122,139
2021-10-14 16:43:57.972130,156
2021-10-14 16:43:57.972139,165
2021-10-14 16:43:57.972147,168
2021-10-14 16:43:57.972155,168
2021-10-14 16:43:57.972164,165
2021-10-14 16:43:57.972172,165
2021-10-14 16:43:57.972180,161
2021-10-14 16:43:57.972189,149
2021-10-14 16:43:57.972197,132
2021-10-14 16:43:57.972205,105
2021-10-14 16:43:57.972214,81
2021-10-14 16:43:57.972222,57
2021-10-14 16:43:57.972230,28
2021-10-14 16:43:57.972239,2
2021-10-14 16:43:57.972250,-19
2021-10-14 16:43:57.972258,-38
2021-10-14 16:43:57.972267,-50
2021-10-14 16:43:57.972275,-62
2021-10-14 16:43:57.972283,-72
2021-10-14 16:43:57.972291,-67
2021-10-14 16:43:57.972300,-62
2021-10-14 16:43:57.972308,-67
2021-10-14 16:43:57.972316,-67
2021-10-14 16:43:57.972324,-57
2021-10-14 16:43:57.972333,-60
2021-10-14 16:43:57.972341,-64
2021-10-14 16:43:57.972349,-57
2021-10-14 16:43:58.196723,-50
2021-10-14 16:43:58.196742,-48
2021-10-14 16:43:58.196751,-33
2021-10-14 16:43:58.196760,-28
2021-10-14 16:43:58.196768,-33
2021-10-14 16:43:58.196776,-36
2021-10-14 16:43:58.196785,-38
2021-10-14 16:43:58.196793,-36
2021-10-14 16:43:58.196801,-28
2021-10-14 16:43:58.196810,-26
2021-10-14 16:43:58.196818,-26
2021-10-14 16:43:58.196826,-31
2021-10-14 16:43:58.196835,-45
2021-10-14 16:43:58.196843,-55
2021-10-14 16:43:58.196851,-52
2021-10-14 16:43:58.196859,-48
2021-10-14 16:43:58.196868,-48
2021-10-14 16:43:58.196876,-48
2021-10-14 16:43:58.196884,-43
2021-10-14 16:43:58.196892,-40
2021-10-14 16:43:58.196901,-43
2021-10-14 16:43:58.196909,-40
2021-10-14 16:43:58.196920,-36
2021-10-14 16:43:58.196929,-36
2021-10-14 16:43:58.196939,-33
2021-10-14 16:43:58.196947,-28
2021-10-14 16:43:58.196955,-24
2021-10-14 16:43:58.196963,-26
2021-10-14 16:43:58.196972,-28
2021-10-14 16:43:58.196980,-21
2021-10-14 16:43:58.422069,-19
2021-10-14 16:43:58.422088,-14
2021-10-14 16:43:58.422097,-2
2021-10-14 16:43:58.422106,-12
2021-10-14 16:43:58.422114,-52
2021-10-14 16:43:58.422122,-74
2021-10-14 16:43:58.422130,-69
2021-10-14 16:43:58.422139,-69
2021-10-14 16:43:58.422147,-69
2021-10-14 16:43:58.422155,-67
2021-10-14 16:43:58.422164,-72
2021-10-14 16:43:58.422172,-74
2021-10-14 16:43:58.422180,-64
2021-10-14 16:43:58.422188,-60
2021-10-14 16:43:58.422197,-55
2021-10-14 16:43:58.422205,-48
2021-10-14 16:43:58.422213,-14
2021-10-14 16:43:58.422222,149
2021-10-14 16:43:58.422230,507
2021-10-14 16:43:58.422238,716
2021-10-14 16:43:58.422246,170
2021-10-14 16:43:58.422254,-798
2021-10-14 16:43:58.422263,-1024
2021-10-14 16:43:58.422271,-514
2021-10-14 16:43:58.422279,-202
2021-10-14 16:43:58.422287,-127
2021-10-14 16:43:58.422295,16
2021-10-14 16:43:58.422304,79
2021-10-14 16:43:58.422312,38
2021-10-14 16:43:58.422320,55
2021-10-14 16:43:58.735357,91
2021-10-14 16:43:58.735375,79
2021-10-14 16:43:58.735384,72
2021-10-14 16:43:58.735393,79
2021-10-14 16:43:58.735401,76
2021-10-14 16:43:58.735410,79
2021-10-14 16:43:58.735418,88
2021-10-14 16:43:58.735426,98
2021-10-14 16:43:58.735434,103
2021-10-14 16:43:58.735443,105
2021-10-14 16:43:58.735451,105
2021-10-14 16:43:58.735459,117
2021-10-14 16:43:58.735467,134
2021-10-14 16:43:58.735476,146
2021-10-14 16:43:58.735484,161
2021-10-14 16:43:58.735492,168
2021-10-14 16:43:58.735500,170
2021-10-14 16:43:58.735508,170
2021-10-14 16:43:58.735517,161
2021-10-14 16:43:58.735525,151
2021-10-14 16:43:58.735533,146
2021-10-14 16:43:58.735541,125
2021-10-14 16:43:58.735549,96
2021-10-14 16:43:58.735558,72
2021-10-14 16:43:58.735566,50
2021-10-14 16:43:58.735574,21
2021-10-14 16:43:58.735582,-4
2021-10-14 16:43:58.735591,-31
2021-10-14 16:43:58.735599,-52
2021-10-14 16:43:58.735607,-64
2021-10-14 16:43:58.917080,-67
2021-10-14 16:43:58.917098,-74
2021-10-14 16:43:58.917108,-79
2021-10-14 16:43:58.917116,-84
2021-10-14 16:43:58.917125,-86
2021-10-14 16:43:58.917133,-79
2021-10-14 16:43:58.917141,-72
2021-10-14 16:43:58.917150,-67
2021-10-14 16:43:58.917158,-67
2021-10-14 16:43:58.917166,-72
2021-10-14 16:43:58.917175,-64
2021-10-14 16:43:58.917183,-50
2021-10-14 16:43:58.917191,-48
2021-10-14 16:43:58.917199,-43
2021-10-14 16:43:58.917208,-38
2021-10-14 16:43:58.917216,-43
2021-10-14 16:43:58.917224,-43
2021-10-14 16:43:58.917232,-31
2021-10-14 16:43:58.917241,-26
2021-10-14 16:43:58.917249,-24
2021-10-14 16:43:58.917257,-24
2021-10-14 16:43:58.917265,-26
2021-10-14 16:43:58.917274,-24
2021-10-14 16:43:58.917282,-21
2021-10-14 16:43:58.917290,-19
2021-10-14 16:43:58.917298,-16
2021-10-14 16:43:58.917306,-19
2021-10-14 16:43:58.917315,-26
2021-10-14 16:43:58.917323,-24
2021-10-14 16:43:58.917331,-19
2021-10-14 16:43:59.187090,-16
2021-10-14 16:43:59.187109,-12
2021-10-14 16:43:59.187118,-14
2021-10-14 16:43:59.187127,-19
2021-10-14 16:43:59.187135,-19
2021-10-14 16:43:59.187143,-16
2021-10-14 16:43:59.187151,-19
2021-10-14 16:43:59.187160,-19
2021-10-14 16:43:59.187168,-26
2021-10-14 16:43:59.187176,-31
2021-10-14 16:43:59.187185,-24
2021-10-14 16:43:59.187193,-16
2021-10-14 16:43:59.187201,-16
2021-10-14 16:43:59.187209,-19
2021-10-14 16:43:59.187218,-26
2021-10-14 16:43:59.187226,-38
2021-10-14 16:43:59.187234,-36
2021-10-14 16:43:59.187242,-33
2021-10-14 16:43:59.187251,-43
2021-10-14 16:43:59.187259,-40
2021-10-14 16:43:59.187267,-43
2021-10-14 16:43:59.187276,-67
2021-10-14 16:43:59.187284,-84
2021-10-14 16:43:59.187292,-86
2021-10-14 16:43:59.187300,-96
2021-10-14 16:43:59.187311,-103
2021-10-14 16:43:59.187319,-103
2021-10-14 16:43:59.187327,-101
2021-10-14 16:43:59.187335,-98
2021-10-14 16:43:59.187344,-91
2021-10-14 16:43:59.366700,-81
2021-10-14 16:43:59.366719,-74
2021-10-14 16:43:59.366729,-72
2021-10-14 16:43:59.366737,-50
2021-10-14 16:43:59.366746,67
2021-10-14 16:43:59.366754,384
2021-10-14 16:43:59.366763,716
2021-10-14 16:43:59.366771,466
2021-10-14 16:43:59.366779,-488
2021-10-14 16:43:59.366787,-1120
2021-10-14 16:43:59.366796,-738
2021-10-14 16:43:59.366804,-211
2021-10-14 16:43:59.366813,-122
2021-10-14 16:43:59.366821,-62
2021-10-14 16:43:59.366829,43
2021-10-14 16:43:59.366837,33
2021-10-14 16:43:59.366845,21
2021-10-14 16:43:59.366853,60
2021-10-14 16:43:59.366862,64
2021-10-14 16:43:59.366870,48
2021-10-14 16:43:59.366878,52
2021-10-14 16:43:59.366886,64
2021-10-14 16:43:59.366895,69
2021-10-14 16:43:59.366903,74
2021-10-14 16:43:59.366911,88
2021-10-14 16:43:59.366920,98
2021-10-14 16:43:59.366928,101
2021-10-14 16:43:59.366936,113
2021-10-14 16:43:59.366944,125
2021-10-14 16:43:59.366952,137
2021-10-14 16:43:59.636735,146
2021-10-14 16:43:59.636754,156
2021-10-14 16:43:59.636763,163
2021-10-14 16:43:59.636772,170
2021-10-14 16:43:59.636780,177
2021-10-14 16:43:59.636789,182
2021-10-14 16:43:59.636797,175
2021-10-14 16:43:59.636806,158
2021-10-14 16:43:59.636814,144
2021-10-14 16:43:59.636822,125
2021-10-14 16:43:59.636830,98
2021-10-14 16:43:59.636839,72
2021-10-14 16:43:59.636847,48
2021-10-14 16:43:59.636855,9
2021-10-14 16:43:59.636864,-24
2021-10-14 16:43:59.636872,-43
2021-10-14 16:43:59.636880,-60
2021-10-14 16:43:59.636888,-69
2021-10-14 16:43:59.636897,-76
2021-10-14 16:43:59.636905,-81
2021-10-14 16:43:59.636913,-86
2021-10-14 16:43:59.636921,-86
2021-10-14 16:43:59.636929,-79
2021-10-14 16:43:59.636937,-72
2021-10-14 16:43:59.636945,-72
2021-10-14 16:43:59.636954,-72
2021-10-14 16:43:59.636962,-64
2021-10-14 16:43:59.636970,-57
2021-10-14 16:43:59.636978,-50
2021-10-14 16:43:59.636986,-45
2021-10-14 16:43:59.861479,-48
2021-10-14 16:43:59.861498,-50
2021-10-14 16:43:59.861507,-40
2021-10-14 16:43:59.861516,-31
2021-10-14 16:43:59.861524,-26
2021-10-14 16:43:59.861533,-21
2021-10-14 16:43:59.861541,-26
2021-10-14 16:43:59.861549,-31
2021-10-14 16:43:59.861557,-24
2021-10-14 16:43:59.861566,-21
2021-10-14 16:43:59.861574,-21
2021-10-14 16:43:59.861582,-21
2021-10-14 16:43:59.861590,-28
2021-10-14 16:43:59.861599,-28
2021-10-14 16:43:59.861607,-21
2021-10-14 16:43:59.861615,-21
2021-10-14 16:43:59.861623,-21
2021-10-14 16:43:59.861632,-19
2021-10-14 16:43:59.861640,-26
2021-10-14 16:43:59.861648,-28
2021-10-14 16:43:59.861657,-26
2021-10-14 16:43:59.861665,-26
2021-10-14 16:43:59.861673,-24
2021-10-14 16:43:59.861681,-19
2021-10-14 16:43:59.861689,-19
2021-10-14 16:43:59.861698,-16
2021-10-14 16:43:59.861706,-14
2021-10-14 16:43:59.861714,-14
2021-10-14 16:43:59.861723,-14
2021-10-14 16:43:59.861731,-14
2021-10-14 16:44:00.086834,-14
2021-10-14 16:44:00.086855,-14
2021-10-14 16:44:00.086865,-12
2021-10-14 16:44:00.086874,-12
2021-10-14 16:44:00.086882,-16
2021-10-14 16:44:00.086891,-16
2021-10-14 16:44:00.086899,-14
2021-10-14 16:44:00.086907,-16
2021-10-14 16:44:00.086916,-14
2021-10-14 16:44:00.086924,0
2021-10-14 16:44:00.086932,-9
2021-10-14 16:44:00.086941,-43
2021-10-14 16:44:00.086949,-60
2021-10-14 16:44:00.086957,-57
2021-10-14 16:44:00.086966,-60
2021-10-14 16:44:00.086974,-62
2021-10-14 16:44:00.086982,-57
2021-10-14 16:44:00.086990,-57
2021-10-14 16:44:00.086999,-55
2021-10-14 16:44:00.087007,-48
2021-10-14 16:44:00.087015,-40
2021-10-14 16:44:00.087024,-36
2021-10-14 16:44:00.087032,-26
2021-10-14 16:44:00.087040,7
2021-10-14 16:44:00.087048,163
2021-10-14 16:44:00.087057,517
2021-10-14 16:44:00.087065,738
2021-10-14 16:44:00.087073,257
2021-10-14 16:44:00.087082,-697
2021-10-14 16:44:00.087090,-1014
2021-10-14 16:44:00.266825,-521
2021-10-14 16:44:00.266844,-137
2021-10-14 16:44:00.266853,-79
2021-10-14 16:44:00.266862,19
2021-10-14 16:44:00.266870,91
2021-10-14 16:44:00.266878,57
2021-10-14 16:44:00.266887,50
2021-10-14 16:44:00.266895,84
2021-10-14 16:44:00.266903,81
2021-10-14 16:44:00.266912,74
2021-10-14 16:44:00.266920,84
2021-10-14 16:44:00.266928,88
2021-10-14 16:44:00.266937,88
2021-10-14 16:44:00.266945,98
2021-10-14 16:44:00.266962,110
2021-10-14 16:44:00.266970,108
2021-10-14 16:44:00.266979,96
2021-10-14 16:44:00.266987,96
2021-10-14 16:44:00.266995,115
2021-10-14 16:44:00.267004,132
2021-10-14 16:44:00.267012,139
2021-10-14 16:44:00.267020,149
2021-10-14 16:44:00.267029,161
2021-10-14 16:44:00.267037,165
2021-10-14 16:44:00.267045,168
2021-10-14 16:44:00.267054,177
2021-10-14 16:44:00.267062,177
2021-10-14 16:44:00.267070,161
2021-10-14 16:44:00.267079,144
2021-10-14 16:44:00.267087,132
2021-10-14 16:44:00.492125,115
2021-10-14 16:44:00.492144,91
2021-10-14 16:44:00.492154,62
2021-10-14 16:44:00.492163,24
2021-10-14 16:44:00.492171,-14
2021-10-14 16:44:00.492180,-31
2021-10-14 16:44:00.492188,-40
2021-10-14 16:44:00.492196,-50
2021-10-14 16:44:00.492205,-57
2021-10-14 16:44:00.492213,-64
2021-10-14 16:44:00.492221,-76
2021-10-14 16:44:00.492230,-79
2021-10-14 16:44:00.492238,-69
2021-10-14 16:44:00.492247,-64
2021-10-14 16:44:00.492255,-69
2021-10-14 16:44:00.492263,-69
2021-10-14 16:44:00.492272,-64
2021-10-14 16:44:00.492280,-57
2021-10-14 16:44:00.492288,-55
2021-10-14 16:44:00.492297,-45
2021-10-14 16:44:00.492305,-36
2021-10-14 16:44:00.492313,-38
2021-10-14 16:44:00.492322,-40
2021-10-14 16:44:00.492330,-28
2021-10-14 16:44:00.492338,-14
2021-10-14 16:44:00.492346,-12
2021-10-14 16:44:00.492355,-16
2021-10-14 16:44:00.492363,-21
2021-10-14 16:44:00.492372,-19
2021-10-14 16:44:00.492380,-7
2021-10-14 16:44:00.806380,-2
2021-10-14 16:44:00.806400,-4
2021-10-14 16:44:00.806409,-12
2021-10-14 16:44:00.806418,-24
2021-10-14 16:44:00.806426,-31
2021-10-14 16:44:00.806434,-19
2021-10-14 16:44:00.806443,-19
2021-10-14 16:44:00.806451,-28
2021-10-14 16:44:00.806459,-26
2021-10-14 16:44:00.806468,-28
2021-10-14 16:44:00.806476,-43
2021-10-14 16:44:00.806484,-48
2021-10-14 16:44:00.806493,-52
2021-10-14 16:44:00.806501,-60
2021-10-14 16:44:00.806509,-62
2021-10-14 16:44:00.806518,-64
2021-10-14 16:44:00.806526,-64
2021-10-14 16:44:00.806534,-57
2021-10-14 16:44:00.806543,-55
2021-10-14 16:44:00.806551,-57
2021-10-14 16:44:00.806559,-64
2021-10-14 16:44:00.806567,-64
2021-10-14 16:44:00.806576,-57
2021-10-14 16:44:00.806584,-48
2021-10-14 16:44:00.806592,-36
2021-10-14 16:44:00.806601,-24
2021-10-14 16:44:00.806609,-24
2021-10-14 16:44:00.806617,-26
2021-10-14 16:44:00.806625,-7
2021-10-14 16:44:00.806634,-12
2021-10-14 16:44:00.987249,-40
2021-10-14 16:44:00.987271,-48
2021-10-14 16:44:00.987280,-38
2021-10-14 16:44:00.987289,-43
2021-10-14 16:44:00.987298,-43
2021-10-14 16:44:00.987306,-33
2021-10-14 16:44:00.987315,-31
2021-10-14 16:44:00.987323,-28
2021-10-14 16:44:00.987332,-26
2021-10-14 16:44:00.987340,-31
2021-10-14 16:44:00.987349,-26
2021-10-14 16:44:00.987357,-7
2021-10-14 16:44:00.987365,43
2021-10-14 16:44:00.987374,242
2021-10-14 16:44:00.987382,593
2021-10-14 16:44:00.987391,666
2021-10-14 16:44:00.987399,-14
2021-10-14 16:44:00.987407,-875
2021-10-14 16:44:00.987415,-889
2021-10-14 16:44:00.987424,-391
2021-10-14 16:44:00.987432,-182
2021-10-14 16:44:00.987440,-105
2021-10-14 16:44:00.987448,33
2021-10-14 16:44:00.987457,67
2021-10-14 16:44:00.987465,40
2021-10-14 16:44:00.987474,69
2021-10-14 16:44:00.987482,86
2021-10-14 16:44:00.987490,72
2021-10-14 16:44:00.987498,81
2021-10-14 16:44:00.987507,98
2021-10-14 16:44:01.212237,103
2021-10-14 16:44:01.212258,108
2021-10-14 16:44:01.212268,110
2021-10-14 16:44:01.212276,110
2021-10-14 16:44:01.212285,117
2021-10-14 16:44:01.212293,129
2021-10-14 16:44:01.212301,137
2021-10-14 16:44:01.212310,141
2021-10-14 16:44:01.212318,144
2021-10-14 16:44:01.212326,149
2021-10-14 16:44:01.212335,163
2021-10-14 16:44:01.212343,175
2021-10-14 16:44:01.212351,180
2021-10-14 16:44:01.212360,180
2021-10-14 16:44:01.212368,170
2021-10-14 16:44:01.212376,158
2021-10-14 16:44:01.212384,151
2021-10-14 16:44:01.212393,129
2021-10-14 16:44:01.212401,98
2021-10-14 16:44:01.212409,74
2021-10-14 16:44:01.212417,50
2021-10-14 16:44:01.212425,21
2021-10-14 16:44:01.212434,-2
2021-10-14 16:44:01.212442,-24
2021-10-14 16:44:01.212450,-50
2021-10-14 16:44:01.212459,-69
2021-10-14 16:44:01.212467,-79
2021-10-14 16:44:01.212475,-84
2021-10-14 16:44:01.212483,-84
2021-10-14 16:44:01.212492,-81
2021-10-14 16:44:01.436725,-79
2021-10-14 16:44:01.436745,-79
2021-10-14 16:44:01.436754,-74
2021-10-14 16:44:01.436763,-67
2021-10-14 16:44:01.436771,-60
2021-10-14 16:44:01.436779,-52
2021-10-14 16:44:01.436788,-48
2021-10-14 16:44:01.436796,-50
2021-10-14 16:44:01.436804,-52
2021-10-14 16:44:01.436813,-45
2021-10-14 16:44:01.436821,-36
2021-10-14 16:44:01.436829,-28
2021-10-14 16:44:01.436838,-28
2021-10-14 16:44:01.436846,-33
2021-10-14 16:44:01.436854,-33
2021-10-14 16:44:01.436863,-26
2021-10-14 16:44:01.436871,-24
2021-10-14 16:44:01.436879,-24
2021-10-14 16:44:01.436888,-28
2021-10-14 16:44:01.436896,-33
2021-10-14 16:44:01.436904,-33
2021-10-14 16:44:01.436912,-36
2021-10-14 16:44:01.436921,-36
2021-10-14 16:44:01.436929,-36
2021-10-14 16:44:01.436937,-36
2021-10-14 16:44:01.436945,-40
2021-10-14 16:44:01.436954,-50
2021-10-14 16:44:01.436962,-55
2021-10-14 16:44:01.436970,-55
2021-10-14 16:44:01.436978,-55
2021-10-14 16:44:01.662148,-55
2021-10-14 16:44:01.662168,-52
2021-10-14 16:44:01.662177,-50
2021-10-14 16:44:01.662185,-52
2021-10-14 16:44:01.662194,-45
2021-10-14 16:44:01.662202,-40
2021-10-14 16:44:01.662211,-50
2021-10-14 16:44:01.662219,-52
2021-10-14 16:44:01.662227,-43
2021-10-14 16:44:01.662235,-40
2021-10-14 16:44:01.662244,-43
2021-10-14 16:44:01.662252,-36
2021-10-14 16:44:01.662261,-38
2021-10-14 16:44:01.662269,-40
2021-10-14 16:44:01.662277,-36
2021-10-14 16:44:01.662285,-28
2021-10-14 16:44:01.662294,-24
2021-10-14 16:44:01.662302,-12
2021-10-14 16:44:01.662310,-7
2021-10-14 16:44:01.662319,-4
2021-10-14 16:44:01.662327,9
2021-10-14 16:44:01.662335,12
2021-10-14 16:44:01.662343,-14
2021-10-14 16:44:01.662352,-43
2021-10-14 16:44:01.662360,-52
2021-10-14 16:44:01.662368,-45
2021-10-14 16:44:01.662377,-38
2021-10-14 16:44:01.662385,-40
2021-10-14 16:44:01.662393,-43
2021-10-14 16:44:01.662401,-43
2021-10-14 16:44:01.886740,-38
2021-10-14 16:44:01.886760,-31
2021-10-14 16:44:01.886769,-26
2021-10-14 16:44:01.886778,-16
2021-10-14 16:44:01.886787,14
2021-10-14 16:44:01.886795,151
2021-10-14 16:44:01.886804,490
2021-10-14 16:44:01.886812,774
2021-10-14 16:44:01.886821,384
2021-10-14 16:44:01.886829,-606
2021-10-14 16:44:01.886837,-1067
2021-10-14 16:44:01.886846,-601
2021-10-14 16:44:01.886854,-156
2021-10-14 16:44:01.886862,-93
2021-10-14 16:44:01.886871,-4
2021-10-14 16:44:01.886879,86
2021-10-14 16:44:01.886887,62
2021-10-14 16:44:01.886896,57
2021-10-14 16:44:01.886904,88
2021-10-14 16:44:01.886912,91
2021-10-14 16:44:01.886921,88
2021-10-14 16:44:01.886929,101
2021-10-14 16:44:01.886937,103
2021-10-14 16:44:01.886946,103
2021-10-14 16:44:01.886954,110
2021-10-14 16:44:01.886962,120
2021-10-14 16:44:01.886970,127
2021-10-14 16:44:01.886978,134
2021-10-14 16:44:01.886987,141
2021-10-14 16:44:01.886995,146
2021-10-14 16:44:02.157235,153
2021-10-14 16:44:02.157257,163
2021-10-14 16:44:02.157267,170
2021-10-14 16:44:02.157275,175
2021-10-14 16:44:02.157284,180
2021-10-14 16:44:02.157292,177
2021-10-14 16:44:02.157300,175
2021-10-14 16:44:02.157308,177
2021-10-14 16:44:02.157317,170
2021-10-14 16:44:02.157325,151
2021-10-14 16:44:02.157333,129
2021-10-14 16:44:02.157341,105
2021-10-14 16:44:02.157350,81
2021-10-14 16:44:02.157358,55
2021-10-14 16:44:02.157366,26
2021-10-14 16:44:02.157374,-4
2021-10-14 16:44:02.157382,-28
2021-10-14 16:44:02.157391,-45
2021-10-14 16:44:02.157399,-55
2021-10-14 16:44:02.157407,-62
2021-10-14 16:44:02.157415,-67
2021-10-14 16:44:02.157423,-72
2021-10-14 16:44:02.157432,-72
2021-10-14 16:44:02.157440,-69
2021-10-14 16:44:02.157448,-64
2021-10-14 16:44:02.157456,-62
2021-10-14 16:44:02.157465,-60
2021-10-14 16:44:02.157473,-55
2021-10-14 16:44:02.157481,-55
2021-10-14 16:44:02.157490,-64
2021-10-14 16:44:02.381784,-67
2021-10-14 16:44:02.381804,-55
2021-10-14 16:44:02.381813,-55
2021-10-14 16:44:02.381822,-62
2021-10-14 16:44:02.381830,-62
2021-10-14 16:44:02.381838,-55
2021-10-14 16:44:02.381847,-57
2021-10-14 16:44:02.381855,-57
2021-10-14 16:44:02.381864,-55
2021-10-14 16:44:02.381872,-62
2021-10-14 16:44:02.381880,-69
2021-10-14 16:44:02.381889,-69
2021-10-14 16:44:02.381897,-64
2021-10-14 16:44:02.381905,-60
2021-10-14 16:44:02.381914,-62
2021-10-14 16:44:02.381922,-67
2021-10-14 16:44:02.381931,-76
2021-10-14 16:44:02.381939,-72
2021-10-14 16:44:02.381947,-60
2021-10-14 16:44:02.381956,-60
2021-10-14 16:44:02.381964,-62
2021-10-14 16:44:02.381972,-62
2021-10-14 16:44:02.381981,-60
2021-10-14 16:44:02.381989,-52
2021-10-14 16:44:02.381997,-48
2021-10-14 16:44:02.382006,-43
2021-10-14 16:44:02.382014,-40
2021-10-14 16:44:02.382023,-45
2021-10-14 16:44:02.382031,-45
2021-10-14 16:44:02.382039,-36
2021-10-14 16:44:02.606743,-28
2021-10-14 16:44:02.606762,-28
2021-10-14 16:44:02.606772,-26
2021-10-14 16:44:02.606780,-24
2021-10-14 16:44:02.606789,-26
2021-10-14 16:44:02.606797,-28
2021-10-14 16:44:02.606806,-21
2021-10-14 16:44:02.606814,-19
2021-10-14 16:44:02.606822,-21
2021-10-14 16:44:02.606831,-26
2021-10-14 16:44:02.606839,-28
2021-10-14 16:44:02.606847,-21
2021-10-14 16:44:02.606855,-12
2021-10-14 16:44:02.606864,-7
2021-10-14 16:44:02.606872,-4
2021-10-14 16:44:02.606880,-2
2021-10-14 16:44:02.606889,2
2021-10-14 16:44:02.606897,9
2021-10-14 16:44:02.606905,21
2021-10-14 16:44:02.606913,21
2021-10-14 16:44:02.606922,-2
2021-10-14 16:44:02.606930,-24
2021-10-14 16:44:02.606938,-21
2021-10-14 16:44:02.606947,-16
2021-10-14 16:44:02.606955,-16
2021-10-14 16:44:02.606964,-9
2021-10-14 16:44:02.606972,-7
2021-10-14 16:44:02.606980,-9
2021-10-14 16:44:02.606988,-7
2021-10-14 16:44:02.606997,2
2021-10-14 16:44:02.920798,7
2021-10-14 16:44:02.920818,16
2021-10-14 16:44:02.920827,40
2021-10-14 16:44:02.920836,158
2021-10-14 16:44:02.920844,473
2021-10-14 16:44:02.920853,745
2021-10-14 16:44:02.920861,401
2021-10-14 16:44:02.920869,-529
2021-10-14 16:44:02.920877,-1019
2021-10-14 16:44:02.920886,-618
2021-10-14 16:44:02.920894,-168
2021-10-14 16:44:02.920902,-88
2021-10-14 16:44:02.920911,-7
2021-10-14 16:44:02.920919,84
2021-10-14 16:44:02.920927,57
2021-10-14 16:44:02.920935,38
2021-10-14 16:44:02.920944,74
2021-10-14 16:44:02.920952,81
2021-10-14 16:44:02.920960,79
2021-10-14 16:44:02.920977,93
2021-10-14 16:44:02.920986,96
2021-10-14 16:44:02.920994,88
2021-10-14 16:44:02.921003,98
2021-10-14 16:44:02.921011,110
2021-10-14 16:44:02.921019,117
2021-10-14 16:44:02.921027,127
2021-10-14 16:44:02.921035,134
2021-10-14 16:44:02.921044,139
2021-10-14 16:44:02.921052,149
2021-10-14 16:44:02.921060,163
2021-10-14 16:44:03.057141,175
2021-10-14 16:44:03.057161,182
2021-10-14 16:44:03.057170,182
2021-10-14 16:44:03.057179,182
2021-10-14 16:44:03.057187,185
2021-10-14 16:44:03.057196,187
2021-10-14 16:44:03.057204,180
2021-10-14 16:44:03.057212,170
2021-10-14 16:44:03.057221,146
2021-10-14 16:44:03.057229,117
2021-10-14 16:44:03.057237,98
2021-10-14 16:44:03.057245,79
2021-10-14 16:44:03.057254,48
2021-10-14 16:44:03.057262,14
2021-10-14 16:44:03.057270,-12
2021-10-14 16:44:03.057279,-31
2021-10-14 16:44:03.057287,-43
2021-10-14 16:44:03.057295,-57
2021-10-14 16:44:03.057303,-69
2021-10-14 16:44:03.057312,-76
2021-10-14 16:44:03.057320,-86
2021-10-14 16:44:03.057328,-84
2021-10-14 16:44:03.057337,-81
2021-10-14 16:44:03.057345,-84
2021-10-14 16:44:03.057353,-86
2021-10-14 16:44:03.057361,-91
2021-10-14 16:44:03.057370,-93
2021-10-14 16:44:03.057378,-86
2021-10-14 16:44:03.057386,-76
2021-10-14 16:44:03.057395,-69
2021-10-14 16:44:03.372344,-62
2021-10-14 16:44:03.372363,-57
2021-10-14 16:44:03.372372,-57
2021-10-14 16:44:03.372381,-55
2021-10-14 16:44:03.372389,-50
2021-10-14 16:44:03.372398,-45
2021-10-14 16:44:03.372406,-43
2021-10-14 16:44:03.372415,-50
2021-10-14 16:44:03.372423,-55
2021-10-14 16:44:03.372431,-52
2021-10-14 16:44:03.372439,-60
2021-10-14 16:44:03.372447,-67
2021-10-14 16:44:03.372456,-64
2021-10-14 16:44:03.372464,-67
2021-10-14 16:44:03.372472,-74
2021-10-14 16:44:03.372480,-74
2021-10-14 16:44:03.372488,-67
2021-10-14 16:44:03.372497,-67
2021-10-14 16:44:03.372505,-62
2021-10-14 16:44:03.372513,-52
2021-10-14 16:44:03.372521,-52
2021-10-14 16:44:03.372529,-55
2021-10-14 16:44:03.372537,-48
2021-10-14 16:44:03.372546,-45
2021-10-14 16:44:03.372554,-45
2021-10-14 16:44:03.372562,-38
2021-10-14 16:44:03.372571,-38
2021-10-14 16:44:03.372579,-38
2021-10-14 16:44:03.372587,-31
2021-10-14 16:44:03.372595,-24
2021-10-14 16:44:03.507174,-21
2021-10-14 16:44:03.507194,-21
2021-10-14 16:44:03.507203,-21
2021-10-14 16:44:03.507212,-19
2021-10-14 16:44:03.507220,-14
2021-10-14 16:44:03.507229,-12
2021-10-14 16:44:03.507237,-19
2021-10-14 16:44:03.507246,-26
2021-10-14 16:44:03.507254,-16
2021-10-14 16:44:03.507262,-2
2021-10-14 16:44:03.507271,2
2021-10-14 16:44:03.507279,9
2021-10-14 16:44:03.507288,9
2021-10-14 16:44:03.507296,12
2021-10-14 16:44:03.507304,26
2021-10-14 16:44:03.507313,19
2021-10-14 16:44:03.507321,-9
2021-10-14 16:44:03.507329,-19
2021-10-14 16:44:03.507337,-16
2021-10-14 16:44:03.507346,-19
2021-10-14 16:44:03.507354,-19
2021-10-14 16:44:03.507362,-21
2021-10-14 16:44:03.507370,-19
2021-10-14 16:44:03.507379,-14
2021-10-14 16:44:03.507387,-16
2021-10-14 16:44:03.507395,-14
2021-10-14 16:44:03.507404,-2
2021-10-14 16:44:03.507419,9
2021-10-14 16:44:03.507428,60
2021-10-14 16:44:03.507436,252
2021-10-14 16:44:03.732132,598
2021-10-14 16:44:03.732150,694
2021-10-14 16:44:03.732160,45
2021-10-14 16:44:03.732168,-822
2021-10-14 16:44:03.732176,-875
2021-10-14 16:44:03.732185,-401
2021-10-14 16:44:03.732193,-180
2021-10-14 16:44:03.732201,-88
2021-10-14 16:44:03.732210,55
2021-10-14 16:44:03.732218,88
2021-10-14 16:44:03.732226,60
2021-10-14 16:44:03.732234,81
2021-10-14 16:44:03.732243,91
2021-10-14 16:44:03.732251,86
2021-10-14 16:44:03.732260,88
2021-10-14 16:44:03.732268,79
2021-10-14 16:44:03.732276,67
2021-10-14 16:44:03.732285,74
2021-10-14 16:44:03.732293,84
2021-10-14 16:44:03.732301,91
2021-10-14 16:44:03.732310,101
2021-10-14 16:44:03.732318,108
2021-10-14 16:44:03.732326,117
2021-10-14 16:44:03.732335,125
2021-10-14 16:44:03.732343,132
2021-10-14 16:44:03.732351,144
2021-10-14 16:44:03.732360,158
2021-10-14 16:44:03.732368,165
2021-10-14 16:44:03.732376,170
2021-10-14 16:44:03.732384,170
2021-10-14 16:44:03.956785,173
2021-10-14 16:44:03.956804,170
2021-10-14 16:44:03.956813,158
2021-10-14 16:44:03.956822,139
2021-10-14 16:44:03.956830,117
2021-10-14 16:44:03.956839,88
2021-10-14 16:44:03.956847,57
2021-10-14 16:44:03.956856,28
2021-10-14 16:44:03.956864,2
2021-10-14 16:44:03.956872,-21
2021-10-14 16:44:03.956881,-45
2021-10-14 16:44:03.956889,-69
2021-10-14 16:44:03.956898,-86
2021-10-14 16:44:03.956906,-96
2021-10-14 16:44:03.956914,-101
2021-10-14 16:44:03.956922,-110
2021-10-14 16:44:03.956931,-117
2021-10-14 16:44:03.956939,-115
2021-10-14 16:44:03.956948,-108
2021-10-14 16:44:03.956956,-101
2021-10-14 16:44:03.956964,-98
2021-10-14 16:44:03.956973,-96
2021-10-14 16:44:03.956981,-91
2021-10-14 16:44:03.956989,-81
2021-10-14 16:44:03.956997,-72
2021-10-14 16:44:03.957005,-67
2021-10-14 16:44:03.957014,-64
2021-10-14 16:44:03.957022,-62
2021-10-14 16:44:03.957030,-60
2021-10-14 16:44:03.957039,-60
2021-10-14 16:44:04.181811,-55
2021-10-14 16:44:04.181830,-48
2021-10-14 16:44:04.181839,-43
2021-10-14 16:44:04.181848,-45
2021-10-14 16:44:04.181857,-55
2021-10-14 16:44:04.181865,-62
2021-10-14 16:44:04.181874,-55
2021-10-14 16:44:04.181882,-48
2021-10-14 16:44:04.181890,-48
2021-10-14 16:44:04.181899,-48
2021-10-14 16:44:04.181919,-55
2021-10-14 16:44:04.181941,-60
2021-10-14 16:44:04.181951,-50
2021-10-14 16:44:04.181960,-43
2021-10-14 16:44:04.181968,-43
2021-10-14 16:44:04.181977,-45
2021-10-14 16:44:04.181985,-40
2021-10-14 16:44:04.181994,-36
2021-10-14 16:44:04.182002,-38
2021-10-14 16:44:04.182010,-40
2021-10-14 16:44:04.182019,-45
2021-10-14 16:44:04.182027,-57
2021-10-14 16:44:04.182035,-60
2021-10-14 16:44:04.182044,-48
2021-10-14 16:44:04.182052,-43
2021-10-14 16:44:04.182060,-40
2021-10-14 16:44:04.182069,-33
2021-10-14 16:44:04.182077,-33
2021-10-14 16:44:04.182086,-36
2021-10-14 16:44:04.182094,-31
2021-10-14 16:44:04.451159,-24
2021-10-14 16:44:04.451178,-19
2021-10-14 16:44:04.451187,-16
2021-10-14 16:44:04.451196,-21
2021-10-14 16:44:04.451204,-26
2021-10-14 16:44:04.451213,-21
2021-10-14 16:44:04.451221,-14
2021-10-14 16:44:04.451229,-7
2021-10-14 16:44:04.451237,2
2021-10-14 16:44:04.451246,0
2021-10-14 16:44:04.451254,0
2021-10-14 16:44:04.451262,16
2021-10-14 16:44:04.451271,19
2021-10-14 16:44:04.451279,-7
2021-10-14 16:44:04.451288,-21
2021-10-14 16:44:04.451296,-21
2021-10-14 16:44:04.451304,-24
2021-10-14 16:44:04.451312,-16
2021-10-14 16:44:04.451321,-9
2021-10-14 16:44:04.451329,-12
2021-10-14 16:44:04.451337,-14
2021-10-14 16:44:04.451345,-16
2021-10-14 16:44:04.451354,-14
2021-10-14 16:44:04.451362,-4
2021-10-14 16:44:04.451370,9
2021-10-14 16:44:04.451379,55
2021-10-14 16:44:04.451387,235
2021-10-14 16:44:04.451396,596
2021-10-14 16:44:04.451404,769
2021-10-14 16:44:04.451412,204
2021-10-14 16:44:04.677150,-752
2021-10-14 16:44:04.677169,-966
2021-10-14 16:44:04.677179,-432
2021-10-14 16:44:04.677187,-115
2021-10-14 16:44:04.677196,-76
2021-10-14 16:44:04.677204,40
2021-10-14 16:44:04.677212,103
2021-10-14 16:44:04.677221,64
2021-10-14 16:44:04.677229,72
2021-10-14 16:44:04.677237,91
2021-10-14 16:44:04.677246,84
2021-10-14 16:44:04.677254,88
2021-10-14 16:44:04.677262,101
2021-10-14 16:44:04.677271,103
2021-10-14 16:44:04.677279,103
2021-10-14 16:44:04.677287,105
2021-10-14 16:44:04.677295,110
2021-10-14 16:44:04.677304,120
2021-10-14 16:44:04.677312,129
2021-10-14 16:44:04.677320,139
2021-10-14 16:44:04.677329,144
2021-10-14 16:44:04.677337,149
2021-10-14 16:44:04.677345,156
2021-10-14 16:44:04.677354,163
2021-10-14 16:44:04.677362,168
2021-10-14 16:44:04.677370,170
2021-10-14 16:44:04.677378,165
2021-10-14 16:44:04.677387,151
2021-10-14 16:44:04.677395,144
2021-10-14 16:44:04.677403,141
2021-10-14 16:44:04.945814,127
2021-10-14 16:44:04.945834,101
2021-10-14 16:44:04.945843,69
2021-10-14 16:44:04.945852,43
2021-10-14 16:44:04.945860,12
2021-10-14 16:44:04.945869,-14
2021-10-14 16:44:04.945878,-38
2021-10-14 16:44:04.945886,-62
2021-10-14 16:44:04.945894,-91
2021-10-14 16:44:04.945903,-110
2021-10-14 16:44:04.945911,-113
2021-10-14 16:44:04.945920,-115
2021-10-14 16:44:04.945928,-117
2021-10-14 16:44:04.945936,-120
2021-10-14 16:44:04.945944,-122
2021-10-14 16:44:04.945953,-125
2021-10-14 16:44:04.945961,-120
2021-10-14 16:44:04.945969,-110
2021-10-14 16:44:04.945978,-101
2021-10-14 16:44:04.945986,-96
2021-10-14 16:44:04.945994,-93
2021-10-14 16:44:04.946002,-86
2021-10-14 16:44:04.946011,-76
2021-10-14 16:44:04.946019,-67
2021-10-14 16:44:04.946027,-64
2021-10-14 16:44:04.946035,-69
2021-10-14 16:44:04.946044,-67
2021-10-14 16:44:04.946052,-57
2021-10-14 16:44:04.946061,-52
2021-10-14 16:44:04.946069,-50
2021-10-14 16:44:05.126807,-40
2021-10-14 16:44:05.126827,-38
2021-10-14 16:44:05.126836,-43
2021-10-14 16:44:05.126845,-40
2021-10-14 16:44:05.126854,-33
2021-10-14 16:44:05.126862,-33
2021-10-14 16:44:05.126870,-33
2021-10-14 16:44:05.126879,-38
2021-10-14 16:44:05.126887,-45
2021-10-14 16:44:05.126895,-43
2021-10-14 16:44:05.126903,-36
2021-10-14 16:44:05.126912,-31
2021-10-14 16:44:05.126920,-31
2021-10-14 16:44:05.126928,-36
2021-10-14 16:44:05.126937,-40
2021-10-14 16:44:05.126945,-38
2021-10-14 16:44:05.126953,-33
2021-10-14 16:44:05.126961,-28
2021-10-14 16:44:05.126970,-24
2021-10-14 16:44:05.126978,-26
2021-10-14 16:44:05.126986,-26
2021-10-14 16:44:05.126994,-21
2021-10-14 16:44:05.127003,-16
2021-10-14 16:44:05.127011,-12
2021-10-14 16:44:05.127019,-9
2021-10-14 16:44:05.127027,-12
2021-10-14 16:44:05.127036,-14
2021-10-14 16:44:05.127044,-19
2021-10-14 16:44:05.127052,-16
2021-10-14 16:44:05.127061,-12
2021-10-14 16:44:05.351803,-7
2021-10-14 16:44:05.351822,-9
2021-10-14 16:44:05.351831,-19
2021-10-14 16:44:05.351840,-26
2021-10-14 16:44:05.351848,-19
2021-10-14 16:44:05.351857,-12
2021-10-14 16:44:05.351865,-16
2021-10-14 16:44:05.351874,-19
2021-10-14 16:44:05.351882,-7
2021-10-14 16:44:05.351891,4
2021-10-14 16:44:05.351899,9
2021-10-14 16:44:05.351908,19
2021-10-14 16:44:05.351916,14
2021-10-14 16:44:05.351924,-14
2021-10-14 16:44:05.351933,-31
2021-10-14 16:44:05.351941,-26
2021-10-14 16:44:05.351949,-24
2021-10-14 16:44:05.351958,-21
2021-10-14 16:44:05.351966,-21
2021-10-14 16:44:05.351974,-19
2021-10-14 16:44:05.351983,-14
2021-10-14 16:44:05.351991,-12
2021-10-14 16:44:05.351999,-9
2021-10-14 16:44:05.352008,0
2021-10-14 16:44:05.352016,7
2021-10-14 16:44:05.352024,33
2021-10-14 16:44:05.352033,156
2021-10-14 16:44:05.352041,471
2021-10-14 16:44:05.352049,752
2021-10-14 16:44:05.352058,430
2021-10-14 16:44:05.577169,-492
2021-10-14 16:44:05.577188,-993
2021-10-14 16:44:05.577197,-596
2021-10-14 16:44:05.577206,-153
2021-10-14 16:44:05.577215,-72
2021-10-14 16:44:05.577223,4
2021-10-14 16:44:05.577232,86
2021-10-14 16:44:05.577240,67
2021-10-14 16:44:05.577248,64
2021-10-14 16:44:05.577257,93
2021-10-14 16:44:05.577265,96
2021-10-14 16:44:05.577273,86
2021-10-14 16:44:05.577282,88
2021-10-14 16:44:05.577290,96
2021-10-14 16:44:05.577298,103
2021-10-14 16:44:05.577306,105
2021-10-14 16:44:05.577315,110
2021-10-14 16:44:05.577323,113
2021-10-14 16:44:05.577331,108
2021-10-14 16:44:05.577339,117
2021-10-14 16:44:05.577348,132
2021-10-14 16:44:05.577356,139
2021-10-14 16:44:05.577364,144
2021-10-14 16:44:05.577373,153
2021-10-14 16:44:05.577381,156
2021-10-14 16:44:05.577389,161
2021-10-14 16:44:05.577398,163
2021-10-14 16:44:05.577406,158
2021-10-14 16:44:05.577414,153
2021-10-14 16:44:05.577422,151
2021-10-14 16:44:05.801777,132
2021-10-14 16:44:05.801796,105
2021-10-14 16:44:05.801805,84
2021-10-14 16:44:05.801814,62
2021-10-14 16:44:05.801822,40
2021-10-14 16:44:05.801864,4
2021-10-14 16:44:05.801873,-26
2021-10-14 16:44:05.801881,-52
2021-10-14 16:44:05.801890,-79
2021-10-14 16:44:05.801898,-98
2021-10-14 16:44:05.801906,-108
2021-10-14 16:44:05.801914,-117
2021-10-14 16:44:05.801923,-120
2021-10-14 16:44:05.801931,-113
2021-10-14 16:44:05.801940,-110
2021-10-14 16:44:05.801948,-108
2021-10-14 16:44:05.801956,-105
2021-10-14 16:44:05.801965,-103
2021-10-14 16:44:05.801973,-98
2021-10-14 16:44:05.801981,-88
2021-10-14 16:44:05.801989,-84
2021-10-14 16:44:05.801997,-76
2021-10-14 16:44:05.802006,-64
2021-10-14 16:44:05.802014,-57
2021-10-14 16:44:05.802022,-55
2021-10-14 16:44:05.802030,-45
2021-10-14 16:44:05.802038,-40
2021-10-14 16:44:05.802047,-40
2021-10-14 16:44:05.802055,-33
2021-10-14 16:44:05.802063,-28
2021-10-14 16:44:06.027179,-26
2021-10-14 16:44:06.027198,-24
2021-10-14 16:44:06.027207,-26
2021-10-14 16:44:06.027215,-38
2021-10-14 16:44:06.027224,-45
2021-10-14 16:44:06.027232,-43
2021-10-14 16:44:06.027241,-38
2021-10-14 16:44:06.027249,-33
2021-10-14 16:44:06.027257,-36
2021-10-14 16:44:06.027266,-43
2021-10-14 16:44:06.027274,-45
2021-10-14 16:44:06.027282,-43
2021-10-14 16:44:06.027291,-33
2021-10-14 16:44:06.027299,-28
2021-10-14 16:44:06.027307,-36
2021-10-14 16:44:06.027316,-33
2021-10-14 16:44:06.027324,-26
2021-10-14 16:44:06.027332,-24
2021-10-14 16:44:06.027340,-26
2021-10-14 16:44:06.027349,-26
2021-10-14 16:44:06.027357,-24
2021-10-14 16:44:06.027365,-19
2021-10-14 16:44:06.027374,-19
2021-10-14 16:44:06.027382,-14
2021-10-14 16:44:06.027390,-9
2021-10-14 16:44:06.027398,-12
2021-10-14 16:44:06.027407,-12
2021-10-14 16:44:06.027415,-7
2021-10-14 16:44:06.027423,-7
2021-10-14 16:44:06.027431,-4
2021-10-14 16:44:06.296857,2
2021-10-14 16:44:06.296877,7
2021-10-14 16:44:06.296886,2
2021-10-14 16:44:06.296895,-7
2021-10-14 16:44:06.296904,-14
2021-10-14 16:44:06.296912,-16
2021-10-14 16:44:06.296921,-12
2021-10-14 16:44:06.296929,2
2021-10-14 16:44:06.296937,14
2021-10-14 16:44:06.296946,9
2021-10-14 16:44:06.296954,4
2021-10-14 16:44:06.296962,14
2021-10-14 16:44:06.296971,2
2021-10-14 16:44:06.296979,-33
2021-10-14 16:44:06.296987,-48
2021-10-14 16:44:06.296996,-40
2021-10-14 16:44:06.297004,-40
2021-10-14 16:44:06.297012,-38
2021-10-14 16:44:06.297020,-28
2021-10-14 16:44:06.297028,-24
2021-10-14 16:44:06.297037,-21
2021-10-14 16:44:06.297045,-24
2021-10-14 16:44:06.297053,-21
2021-10-14 16:44:06.297061,-9
2021-10-14 16:44:06.297070,14
2021-10-14 16:44:06.297078,110
2021-10-14 16:44:06.297086,375
2021-10-14 16:44:06.297095,687
2021-10-14 16:44:06.297103,526
2021-10-14 16:44:06.297111,-317
2021-10-14 16:44:06.566816,-952
2021-10-14 16:44:06.566836,-697
2021-10-14 16:44:06.566845,-274
2021-10-14 16:44:06.566854,-158
2021-10-14 16:44:06.566862,-33
2021-10-14 16:44:06.566871,88
2021-10-14 16:44:06.566880,76
2021-10-14 16:44:06.566888,60
2021-10-14 16:44:06.566897,88
2021-10-14 16:44:06.566905,84
2021-10-14 16:44:06.566913,74
2021-10-14 16:44:06.566922,93
2021-10-14 16:44:06.566930,103
2021-10-14 16:44:06.566938,98
2021-10-14 16:44:06.566947,98
2021-10-14 16:44:06.566955,93
2021-10-14 16:44:06.566963,88
2021-10-14 16:44:06.566972,98
2021-10-14 16:44:06.566980,110
2021-10-14 16:44:06.566988,122
2021-10-14 16:44:06.566997,129
2021-10-14 16:44:06.567005,127
2021-10-14 16:44:06.567013,129
2021-10-14 16:44:06.567022,144
2021-10-14 16:44:06.567030,149
2021-10-14 16:44:06.567038,141
2021-10-14 16:44:06.567047,144
2021-10-14 16:44:06.567055,146
2021-10-14 16:44:06.567063,139
2021-10-14 16:44:06.567071,129
2021-10-14 16:44:06.747191,115
2021-10-14 16:44:06.747210,93
2021-10-14 16:44:06.747219,67
2021-10-14 16:44:06.747228,38
2021-10-14 16:44:06.747236,9
2021-10-14 16:44:06.747245,-14
2021-10-14 16:44:06.747253,-33
2021-10-14 16:44:06.747261,-48
2021-10-14 16:44:06.747270,-64
2021-10-14 16:44:06.747278,-86
2021-10-14 16:44:06.747286,-98
2021-10-14 16:44:06.747295,-96
2021-10-14 16:44:06.747303,-93
2021-10-14 16:44:06.747311,-93
2021-10-14 16:44:06.747320,-93
2021-10-14 16:44:06.747328,-93
2021-10-14 16:44:06.747336,-88
2021-10-14 16:44:06.747345,-84
2021-10-14 16:44:06.747353,-88
2021-10-14 16:44:06.747361,-98
2021-10-14 16:44:06.747370,-96
2021-10-14 16:44:06.747378,-86
2021-10-14 16:44:06.747386,-76
2021-10-14 16:44:06.747395,-69
2021-10-14 16:44:06.747403,-64
2021-10-14 16:44:06.747412,-57
2021-10-14 16:44:06.747420,-52
2021-10-14 16:44:06.747428,-52
2021-10-14 16:44:06.747436,-50
2021-10-14 16:44:06.747445,-45
2021-10-14 16:44:07.060482,-43
2021-10-14 16:44:07.060501,-43
2021-10-14 16:44:07.060510,-43
2021-10-14 16:44:07.060519,-45
2021-10-14 16:44:07.060528,-40
2021-10-14 16:44:07.060536,-33
2021-10-14 16:44:07.060545,-31
2021-10-14 16:44:07.060553,-36
2021-10-14 16:44:07.060561,-43
2021-10-14 16:44:07.060570,-40
2021-10-14 16:44:07.060578,-38
2021-10-14 16:44:07.060587,-38
2021-10-14 16:44:07.060595,-40
2021-10-14 16:44:07.060603,-45
2021-10-14 16:44:07.060612,-45
2021-10-14 16:44:07.060620,-40
2021-10-14 16:44:07.060628,-38
2021-10-14 16:44:07.060637,-38
2021-10-14 16:44:07.060645,-33
2021-10-14 16:44:07.060653,-31
2021-10-14 16:44:07.060662,-28
2021-10-14 16:44:07.060670,-24
2021-10-14 16:44:07.060678,-21
2021-10-14 16:44:07.060687,-16
2021-10-14 16:44:07.060696,-14
2021-10-14 16:44:07.060704,-14
2021-10-14 16:44:07.060712,-14
2021-10-14 16:44:07.060721,-9
2021-10-14 16:44:07.060729,-2
2021-10-14 16:44:07.060737,9
2021-10-14 16:44:07.196822,19
2021-10-14 16:44:07.196841,19
2021-10-14 16:44:07.196850,28
2021-10-14 16:44:07.196859,38
2021-10-14 16:44:07.196868,19
2021-10-14 16:44:07.196876,-4
2021-10-14 16:44:07.196885,-12
2021-10-14 16:44:07.196893,-19
2021-10-14 16:44:07.196901,-21
2021-10-14 16:44:07.196910,-14
2021-10-14 16:44:07.196918,-9
2021-10-14 16:44:07.196926,-7
2021-10-14 16:44:07.196935,-4
2021-10-14 16:44:07.196943,-4
2021-10-14 16:44:07.196951,-2
2021-10-14 16:44:07.196960,7
2021-10-14 16:44:07.196968,28
2021-10-14 16:44:07.196977,132
2021-10-14 16:44:07.196985,432
2021-10-14 16:44:07.196993,762
2021-10-14 16:44:07.197002,550
2021-10-14 16:44:07.197010,-372
2021-10-14 16:44:07.197018,-1029
2021-10-14 16:44:07.197026,-716
2021-10-14 16:44:07.197035,-226
2021-10-14 16:44:07.197043,-115
2021-10-14 16:44:07.197051,-31
2021-10-14 16:44:07.197059,81
2021-10-14 16:44:07.197067,69
2021-10-14 16:44:07.197076,55
2021-10-14 16:44:07.422204,91
2021-10-14 16:44:07.422224,96
2021-10-14 16:44:07.422233,88
2021-10-14 16:44:07.422242,101
2021-10-14 16:44:07.422250,105
2021-10-14 16:44:07.422259,103
2021-10-14 16:44:07.422267,103
2021-10-14 16:44:07.422276,108
2021-10-14 16:44:07.422284,115
2021-10-14 16:44:07.422292,120
2021-10-14 16:44:07.422301,129
2021-10-14 16:44:07.422309,134
2021-10-14 16:44:07.422317,129
2021-10-14 16:44:07.422326,137
2021-10-14 16:44:07.422334,153
2021-10-14 16:44:07.422342,156
2021-10-14 16:44:07.422351,153
2021-10-14 16:44:07.422359,158
2021-10-14 16:44:07.422367,161
2021-10-14 16:44:07.422375,156
2021-10-14 16:44:07.422384,144
2021-10-14 16:44:07.422392,127
2021-10-14 16:44:07.422400,110
2021-10-14 16:44:07.422408,91
2021-10-14 16:44:07.422417,64
2021-10-14 16:44:07.422425,36
2021-10-14 16:44:07.422433,7
2021-10-14 16:44:07.422441,-26
2021-10-14 16:44:07.422449,-50
2021-10-14 16:44:07.422458,-69
2021-10-14 16:44:07.647310,-84
2021-10-14 16:44:07.647334,-91
2021-10-14 16:44:07.647343,-96
2021-10-14 16:44:07.647352,-101
2021-10-14 16:44:07.647361,-103
2021-10-14 16:44:07.647369,-110
2021-10-14 16:44:07.647378,-110
2021-10-14 16:44:07.647386,-103
2021-10-14 16:44:07.647395,-96
2021-10-14 16:44:07.647403,-96
2021-10-14 16:44:07.647411,-91
2021-10-14 16:44:07.647420,-88
2021-10-14 16:44:07.647428,-88
2021-10-14 16:44:07.647436,-74
2021-10-14 16:44:07.647445,-64
2021-10-14 16:44:07.647454,-62
2021-10-14 16:44:07.647463,-55
2021-10-14 16:44:07.647471,-48
2021-10-14 16:44:07.647480,-48
2021-10-14 16:44:07.647488,-40
2021-10-14 16:44:07.647496,-31
2021-10-14 16:44:07.647505,-33
2021-10-14 16:44:07.647513,-33
2021-10-14 16:44:07.647523,-31
2021-10-14 16:44:07.647532,-31
2021-10-14 16:44:07.647540,-26
2021-10-14 16:44:07.647549,-24
2021-10-14 16:44:07.647557,-26
2021-10-14 16:44:07.647566,-26
2021-10-14 16:44:07.647575,-28
2021-10-14 16:44:07.871909,-36
2021-10-14 16:44:07.871930,-33
2021-10-14 16:44:07.871940,-26
2021-10-14 16:44:07.871948,-31
2021-10-14 16:44:07.871957,-38
2021-10-14 16:44:07.871965,-38
2021-10-14 16:44:07.871973,-33
2021-10-14 16:44:07.871982,-28
2021-10-14 16:44:07.871990,-26
2021-10-14 16:44:07.871998,-28
2021-10-14 16:44:07.872007,-33
2021-10-14 16:44:07.872015,-36
2021-10-14 16:44:07.872023,-28
2021-10-14 16:44:07.872032,-21
2021-10-14 16:44:07.872040,-21
2021-10-14 16:44:07.872048,-19
2021-10-14 16:44:07.872056,-16
2021-10-14 16:44:07.872065,-14
2021-10-14 16:44:07.872073,-12
2021-10-14 16:44:07.872081,-14
2021-10-14 16:44:07.872089,-21
2021-10-14 16:44:07.872098,-21
2021-10-14 16:44:07.872106,-16
2021-10-14 16:44:07.872114,-9
2021-10-14 16:44:07.872122,-4
2021-10-14 16:44:07.872130,4
2021-10-14 16:44:07.872139,14
2021-10-14 16:44:07.872147,19
2021-10-14 16:44:07.872156,21
2021-10-14 16:44:07.872164,28
2021-10-14 16:44:08.096866,19
2021-10-14 16:44:08.096885,-2
2021-10-14 16:44:08.096895,-9
2021-10-14 16:44:08.096903,-12
2021-10-14 16:44:08.096911,-21
2021-10-14 16:44:08.096920,-24
2021-10-14 16:44:08.096928,-14
2021-10-14 16:44:08.096936,-9
2021-10-14 16:44:08.096945,-9
2021-10-14 16:44:08.096953,-12
2021-10-14 16:44:08.096962,-12
2021-10-14 16:44:08.096970,-4
2021-10-14 16:44:08.096978,9
2021-10-14 16:44:08.096987,62
2021-10-14 16:44:08.096995,281
2021-10-14 16:44:08.097003,649
2021-10-14 16:44:08.097012,728
2021-10-14 16:44:08.097020,52
2021-10-14 16:44:08.097028,-851
2021-10-14 16:44:08.097037,-906
2021-10-14 16:44:08.097045,-348
2021-10-14 16:44:08.097053,-88
2021-10-14 16:44:08.097061,-57
2021-10-14 16:44:08.097070,52
2021-10-14 16:44:08.097078,101
2021-10-14 16:44:08.097086,67
2021-10-14 16:44:08.097095,79
2021-10-14 16:44:08.097103,103
2021-10-14 16:44:08.097111,93
2021-10-14 16:44:08.097119,96
2021-10-14 16:44:08.411846,105
2021-10-14 16:44:08.411866,110
2021-10-14 16:44:08.411875,113
2021-10-14 16:44:08.411883,110
2021-10-14 16:44:08.411892,103
2021-10-14 16:44:08.411900,103
2021-10-14 16:44:08.411909,105
2021-10-14 16:44:08.411917,115
2021-10-14 16:44:08.411925,120
2021-10-14 16:44:08.411934,113
2021-10-14 16:44:08.411942,122
2021-10-14 16:44:08.411950,141
2021-10-14 16:44:08.411958,151
2021-10-14 16:44:08.411967,156
2021-10-14 16:44:08.411975,156
2021-10-14 16:44:08.411983,151
2021-10-14 16:44:08.411992,144
2021-10-14 16:44:08.412000,137
2021-10-14 16:44:08.412008,120
2021-10-14 16:44:08.412016,103
2021-10-14 16:44:08.412024,79
2021-10-14 16:44:08.412033,50
2021-10-14 16:44:08.412041,19
2021-10-14 16:44:08.412049,-12
2021-10-14 16:44:08.412057,-43
2021-10-14 16:44:08.412065,-64
2021-10-14 16:44:08.412074,-81
2021-10-14 16:44:08.412082,-101
2021-10-14 16:44:08.412090,-105
2021-10-14 16:44:08.412098,-103
2021-10-14 16:44:08.592221,-103
2021-10-14 16:44:08.592241,-105
2021-10-14 16:44:08.592250,-105
2021-10-14 16:44:08.592259,-103
2021-10-14 16:44:08.592267,-98
2021-10-14 16:44:08.592276,-93
2021-10-14 16:44:08.592284,-86
2021-10-14 16:44:08.592293,-81
2021-10-14 16:44:08.592301,-81
2021-10-14 16:44:08.592309,-79
2021-10-14 16:44:08.592318,-67
2021-10-14 16:44:08.592326,-60
2021-10-14 16:44:08.592335,-50
2021-10-14 16:44:08.592343,-40
2021-10-14 16:44:08.592351,-45
2021-10-14 16:44:08.592360,-52
2021-10-14 16:44:08.592368,-43
2021-10-14 16:44:08.592377,-28
2021-10-14 16:44:08.592385,-24
2021-10-14 16:44:08.592393,-28
2021-10-14 16:44:08.592402,-40
2021-10-14 16:44:08.592410,-45
2021-10-14 16:44:08.592418,-36
2021-10-14 16:44:08.592427,-33
2021-10-14 16:44:08.592435,-36
2021-10-14 16:44:08.592443,-31
2021-10-14 16:44:08.592452,-33
2021-10-14 16:44:08.592460,-40
2021-10-14 16:44:08.592468,-36
2021-10-14 16:44:08.592477,-26
2021-10-14 16:44:08.817224,-24
2021-10-14 16:44:08.817243,-24
2021-10-14 16:44:08.817252,-28
2021-10-14 16:44:08.817261,-31
2021-10-14 16:44:08.817269,-26
2021-10-14 16:44:08.817278,-24
2021-10-14 16:44:08.817286,-21
2021-10-14 16:44:08.817295,-19
2021-10-14 16:44:08.817303,-24
2021-10-14 16:44:08.817311,-28
2021-10-14 16:44:08.817319,-31
2021-10-14 16:44:08.817328,-38
2021-10-14 16:44:08.817336,-40
2021-10-14 16:44:08.817344,-40
2021-10-14 16:44:08.817352,-43
2021-10-14 16:44:08.817361,-40
2021-10-14 16:44:08.817369,-33
2021-10-14 16:44:08.817377,-26
2021-10-14 16:44:08.817385,-24
2021-10-14 16:44:08.817394,-28
2021-10-14 16:44:08.817402,-26
2021-10-14 16:44:08.817410,-19
2021-10-14 16:44:08.817419,-16
2021-10-14 16:44:08.817427,-16
2021-10-14 16:44:08.817435,-12
2021-10-14 16:44:08.817443,-4
2021-10-14 16:44:08.817451,4
2021-10-14 16:44:08.817460,7
2021-10-14 16:44:08.817468,9
2021-10-14 16:44:08.817476,16
2021-10-14 16:44:09.085587,24
2021-10-14 16:44:09.085608,12
2021-10-14 16:44:09.085618,-14
2021-10-14 16:44:09.085631,-19
2021-10-14 16:44:09.085640,-16
2021-10-14 16:44:09.085648,-16
2021-10-14 16:44:09.085656,-16
2021-10-14 16:44:09.085664,-21
2021-10-14 16:44:09.085732,-24
2021-10-14 16:44:09.085741,-19
2021-10-14 16:44:09.085750,-14
2021-10-14 16:44:09.085758,-12
2021-10-14 16:44:09.085766,-9
2021-10-14 16:44:09.085775,-7
2021-10-14 16:44:09.085783,24
2021-10-14 16:44:09.085791,168
2021-10-14 16:44:09.085800,485
2021-10-14 16:44:09.085808,726
2021-10-14 16:44:09.085816,334
2021-10-14 16:44:09.085825,-574
2021-10-14 16:44:09.085833,-959
2021-10-14 16:44:09.085841,-555
2021-10-14 16:44:09.085849,-197
2021-10-14 16:44:09.085858,-105
2021-10-14 16:44:09.085866,16
2021-10-14 16:44:09.085874,93
2021-10-14 16:44:09.085882,69
2021-10-14 16:44:09.085891,76
2021-10-14 16:44:09.085899,105
2021-10-14 16:44:09.085907,96
2021-10-14 16:44:09.266896,81
2021-10-14 16:44:09.266915,93
2021-10-14 16:44:09.266925,105
2021-10-14 16:44:09.266934,105
2021-10-14 16:44:09.266943,108
2021-10-14 16:44:09.266951,115
2021-10-14 16:44:09.266960,113
2021-10-14 16:44:09.266968,110
2021-10-14 16:44:09.266976,125
2021-10-14 16:44:09.266985,132
2021-10-14 16:44:09.266993,134
2021-10-14 16:44:09.267002,141
2021-10-14 16:44:09.267010,141
2021-10-14 16:44:09.267018,146
2021-10-14 16:44:09.267027,158
2021-10-14 16:44:09.267035,161
2021-10-14 16:44:09.267044,151
2021-10-14 16:44:09.267052,134
2021-10-14 16:44:09.267061,120
2021-10-14 16:44:09.267069,113
2021-10-14 16:44:09.267077,98
2021-10-14 16:44:09.267086,74
2021-10-14 16:44:09.267094,52
2021-10-14 16:44:09.267103,28
2021-10-14 16:44:09.267111,-4
2021-10-14 16:44:09.267120,-33
2021-10-14 16:44:09.267128,-57
2021-10-14 16:44:09.267136,-81
2021-10-14 16:44:09.267145,-98
2021-10-14 16:44:09.267153,-103
2021-10-14 16:44:09.492230,-105
2021-10-14 16:44:09.492249,-110
2021-10-14 16:44:09.492259,-117
2021-10-14 16:44:09.492267,-122
2021-10-14 16:44:09.492276,-117
2021-10-14 16:44:09.492284,-115
2021-10-14 16:44:09.492293,-120
2021-10-14 16:44:09.492301,-115
2021-10-14 16:44:09.492310,-105
2021-10-14 16:44:09.492318,-98
2021-10-14 16:44:09.492326,-93
2021-10-14 16:44:09.492334,-88
2021-10-14 16:44:09.492343,-86
2021-10-14 16:44:09.492351,-76
2021-10-14 16:44:09.492359,-72
2021-10-14 16:44:09.492368,-67
2021-10-14 16:44:09.492376,-62
2021-10-14 16:44:09.492384,-62
2021-10-14 16:44:09.492393,-62
2021-10-14 16:44:09.492401,-52
2021-10-14 16:44:09.492409,-45
2021-10-14 16:44:09.492417,-45
2021-10-14 16:44:09.492426,-43
2021-10-14 16:44:09.492434,-43
2021-10-14 16:44:09.492442,-45
2021-10-14 16:44:09.492451,-43
2021-10-14 16:44:09.492459,-38
2021-10-14 16:44:09.492468,-36
2021-10-14 16:44:09.492476,-33
2021-10-14 16:44:09.492484,-33
2021-10-14 16:44:09.716901,-33
2021-10-14 16:44:09.716922,-31
2021-10-14 16:44:09.716931,-31
2021-10-14 16:44:09.716940,-33
2021-10-14 16:44:09.716948,-45
2021-10-14 16:44:09.716957,-52
2021-10-14 16:44:09.716965,-45
2021-10-14 16:44:09.716974,-38
2021-10-14 16:44:09.716982,-38
2021-10-14 16:44:09.716990,-40
2021-10-14 16:44:09.716999,-45
2021-10-14 16:44:09.717007,-48
2021-10-14 16:44:09.717015,-40
2021-10-14 16:44:09.717024,-31
2021-10-14 16:44:09.717032,-31
2021-10-14 16:44:09.717040,-33
2021-10-14 16:44:09.717048,-31
2021-10-14 16:44:09.717057,-31
2021-10-14 16:44:09.717065,-31
2021-10-14 16:44:09.717073,-26
2021-10-14 16:44:09.717081,-19
2021-10-14 16:44:09.717089,-24
2021-10-14 16:44:09.717098,-28
2021-10-14 16:44:09.717106,-19
2021-10-14 16:44:09.717114,-2
2021-10-14 16:44:09.717122,-2
2021-10-14 16:44:09.717130,-19
2021-10-14 16:44:09.717139,-43
2021-10-14 16:44:09.717147,-50
2021-10-14 16:44:09.717155,-45
2021-10-14 16:44:09.987276,-45
2021-10-14 16:44:09.987296,-45
2021-10-14 16:44:09.987306,-36
2021-10-14 16:44:09.987315,-28
2021-10-14 16:44:09.987323,-33
2021-10-14 16:44:09.987332,-38
2021-10-14 16:44:09.987340,-45
2021-10-14 16:44:09.987349,-40
2021-10-14 16:44:09.987357,-21
2021-10-14 16:44:09.987365,36
2021-10-14 16:44:09.987374,264
2021-10-14 16:44:09.987383,642
2021-10-14 16:44:09.987391,687
2021-10-14 16:44:09.987399,-45
2021-10-14 16:44:09.987408,-921
2021-10-14 16:44:09.987416,-904
2021-10-14 16:44:09.987424,-355
