Time,ECG
2021-10-14 16:38:38.885790,-1142
2021-10-14 16:38:38.885810,-533
2021-10-14 16:38:38.885819,-182
2021-10-14 16:38:38.885828,-137
2021-10-14 16:38:38.885836,16
2021-10-14 16:38:38.885845,98
2021-10-14 16:38:38.885854,52
2021-10-14 16:38:38.885862,45
2021-10-14 16:38:38.885870,69
2021-10-14 16:38:38.885879,72
2021-10-14 16:38:38.885887,76
2021-10-14 16:38:38.885895,88
2021-10-14 16:38:38.885903,88
2021-10-14 16:38:38.885911,96
2021-10-14 16:38:38.885919,115
2021-10-14 16:38:38.885927,122
2021-10-14 16:38:38.885935,120
2021-10-14 16:38:38.885944,132
2021-10-14 16:38:38.885952,146
2021-10-14 16:38:38.885960,149
2021-10-14 16:38:38.885968,153
2021-10-14 16:38:38.885976,168
2021-10-14 16:38:38.885984,185
2021-10-14 16:38:38.885992,199
2021-10-14 16:38:38.886000,199
2021-10-14 16:38:38.886008,202
2021-10-14 16:38:38.886017,209
2021-10-14 16:38:38.886025,199
2021-10-14 16:38:38.886033,175
2021-10-14 16:38:38.886041,158
2021-10-14 16:38:39.007951,137
2021-10-14 16:38:39.007971,96
2021-10-14 16:38:39.007980,55
2021-10-14 16:38:39.007989,24
2021-10-14 16:38:39.007997,-4
2021-10-14 16:38:39.008005,-31
2021-10-14 16:38:39.008015,-52
2021-10-14 16:38:39.008023,-72
2021-10-14 16:38:39.008031,-84
2021-10-14 16:38:39.008040,-88
2021-10-14 16:38:39.008048,-84
2021-10-14 16:38:39.008056,-81
2021-10-14 16:38:39.008065,-103
2021-10-14 16:38:39.008073,-110
2021-10-14 16:38:39.008081,-91
2021-10-14 16:38:39.008090,-86
2021-10-14 16:38:39.008098,-101
2021-10-14 16:38:39.008107,-105
2021-10-14 16:38:39.008115,-101
2021-10-14 16:38:39.008124,-86
2021-10-14 16:38:39.008132,-74
2021-10-14 16:38:39.008140,-69
2021-10-14 16:38:39.008148,-60
2021-10-14 16:38:39.008157,-52
2021-10-14 16:38:39.008165,-60
2021-10-14 16:38:39.008173,-55
2021-10-14 16:38:39.008182,-38
2021-10-14 16:38:39.008190,-45
2021-10-14 16:38:39.008198,-55
2021-10-14 16:38:39.008208,-38
2021-10-14 16:38:39.276152,-36
2021-10-14 16:38:39.276172,-40
2021-10-14 16:38:39.276181,-36
2021-10-14 16:38:39.276189,-38
2021-10-14 16:38:39.276198,-40
2021-10-14 16:38:39.276206,-36
2021-10-14 16:38:39.276215,-40
2021-10-14 16:38:39.276223,-48
2021-10-14 16:38:39.276231,-43
2021-10-14 16:38:39.276240,-40
2021-10-14 16:38:39.276248,-52
2021-10-14 16:38:39.276257,-67
2021-10-14 16:38:39.276265,-69
2021-10-14 16:38:39.276277,-60
2021-10-14 16:38:39.276285,-50
2021-10-14 16:38:39.276294,-60
2021-10-14 16:38:39.276302,-69
2021-10-14 16:38:39.276310,-69
2021-10-14 16:38:39.276319,-62
2021-10-14 16:38:39.276327,-57
2021-10-14 16:38:39.276336,-57
2021-10-14 16:38:39.276344,-50
2021-10-14 16:38:39.276353,-31
2021-10-14 16:38:39.276361,-38
2021-10-14 16:38:39.276369,-72
2021-10-14 16:38:39.276378,-79
2021-10-14 16:38:39.276386,-67
2021-10-14 16:38:39.276394,-67
2021-10-14 16:38:39.276403,-72
2021-10-14 16:38:39.276413,-67
2021-10-14 16:38:39.412454,-62
2021-10-14 16:38:39.412473,-55
2021-10-14 16:38:39.412482,-48
2021-10-14 16:38:39.412491,-48
2021-10-14 16:38:39.412499,-45
2021-10-14 16:38:39.412508,-9
2021-10-14 16:38:39.412516,161
2021-10-14 16:38:39.412524,545
2021-10-14 16:38:39.412533,779
2021-10-14 16:38:39.412541,216
2021-10-14 16:38:39.412549,-860
2021-10-14 16:38:39.412558,-1180
2021-10-14 16:38:39.412566,-557
2021-10-14 16:38:39.412574,-125
2021-10-14 16:38:39.412582,-108
2021-10-14 16:38:39.412591,-12
2021-10-14 16:38:39.412599,84
2021-10-14 16:38:39.412610,40
2021-10-14 16:38:39.412618,38
2021-10-14 16:38:39.412627,81
2021-10-14 16:38:39.412635,79
2021-10-14 16:38:39.412643,69
2021-10-14 16:38:39.412651,79
2021-10-14 16:38:39.412660,79
2021-10-14 16:38:39.412668,84
2021-10-14 16:38:39.412676,96
2021-10-14 16:38:39.412685,96
2021-10-14 16:38:39.412693,101
2021-10-14 16:38:39.412702,113
2021-10-14 16:38:39.412710,117
2021-10-14 16:38:39.637869,137
2021-10-14 16:38:39.637889,170
2021-10-14 16:38:39.637898,177
2021-10-14 16:38:39.637907,168
2021-10-14 16:38:39.637915,170
2021-10-14 16:38:39.637924,182
2021-10-14 16:38:39.637932,187
2021-10-14 16:38:39.637945,187
2021-10-14 16:38:39.637953,180
2021-10-14 16:38:39.637962,158
2021-10-14 16:38:39.637970,137
2021-10-14 16:38:39.637979,117
2021-10-14 16:38:39.637987,76
2021-10-14 16:38:39.637995,33
2021-10-14 16:38:39.638004,7
2021-10-14 16:38:39.638012,-19
2021-10-14 16:38:39.638021,-48
2021-10-14 16:38:39.638029,-67
2021-10-14 16:38:39.638037,-79
2021-10-14 16:38:39.638046,-88
2021-10-14 16:38:39.638054,-88
2021-10-14 16:38:39.638062,-86
2021-10-14 16:38:39.638071,-86
2021-10-14 16:38:39.638079,-86
2021-10-14 16:38:39.638087,-84
2021-10-14 16:38:39.638095,-84
2021-10-14 16:38:39.638104,-84
2021-10-14 16:38:39.638112,-88
2021-10-14 16:38:39.638120,-79
2021-10-14 16:38:39.638130,-57
2021-10-14 16:38:39.862552,-45
2021-10-14 16:38:39.862573,-45
2021-10-14 16:38:39.862582,-40
2021-10-14 16:38:39.862591,-36
2021-10-14 16:38:39.862599,-36
2021-10-14 16:38:39.862607,-28
2021-10-14 16:38:39.862615,-19
2021-10-14 16:38:39.862624,-24
2021-10-14 16:38:39.862632,-26
2021-10-14 16:38:39.862640,-16
2021-10-14 16:38:39.862649,-28
2021-10-14 16:38:39.862657,-36
2021-10-14 16:38:39.862665,-28
2021-10-14 16:38:39.862674,-21
2021-10-14 16:38:39.862682,-21
2021-10-14 16:38:39.862690,-31
2021-10-14 16:38:39.862699,-36
2021-10-14 16:38:39.862707,-26
2021-10-14 16:38:39.862715,-21
2021-10-14 16:38:39.862724,-16
2021-10-14 16:38:39.862732,-21
2021-10-14 16:38:39.862740,-31
2021-10-14 16:38:39.862749,-26
2021-10-14 16:38:39.862757,-16
2021-10-14 16:38:39.862769,-19
2021-10-14 16:38:39.862778,-21
2021-10-14 16:38:39.862786,-16
2021-10-14 16:38:39.862795,-19
2021-10-14 16:38:39.862803,-21
2021-10-14 16:38:39.862811,-16
2021-10-14 16:38:40.132528,-9
2021-10-14 16:38:40.132549,-7
2021-10-14 16:38:40.132559,-14
2021-10-14 16:38:40.132568,-14
2021-10-14 16:38:40.132576,-9
2021-10-14 16:38:40.132584,-31
2021-10-14 16:38:40.132593,-60
2021-10-14 16:38:40.132601,-62
2021-10-14 16:38:40.132610,-62
2021-10-14 16:38:40.132618,-74
2021-10-14 16:38:40.132626,-69
2021-10-14 16:38:40.132635,-55
2021-10-14 16:38:40.132643,-48
2021-10-14 16:38:40.132651,-43
2021-10-14 16:38:40.132660,-50
2021-10-14 16:38:40.132668,-64
2021-10-14 16:38:40.132676,-50
2021-10-14 16:38:40.132685,43
2021-10-14 16:38:40.132693,327
2021-10-14 16:38:40.132701,699
2021-10-14 16:38:40.132710,589
2021-10-14 16:38:40.132718,-348
2021-10-14 16:38:40.132728,-1173
2021-10-14 16:38:40.132736,-901
2021-10-14 16:38:40.132745,-271
2021-10-14 16:38:40.132753,-115
2021-10-14 16:38:40.132761,-64
2021-10-14 16:38:40.132770,64
2021-10-14 16:38:40.132778,69
2021-10-14 16:38:40.132786,40
2021-10-14 16:38:40.357910,84
2021-10-14 16:38:40.357932,98
2021-10-14 16:38:40.357941,74
2021-10-14 16:38:40.357949,81
2021-10-14 16:38:40.357958,98
2021-10-14 16:38:40.357966,98
2021-10-14 16:38:40.357974,110
2021-10-14 16:38:40.357982,127
2021-10-14 16:38:40.357990,117
2021-10-14 16:38:40.357999,113
2021-10-14 16:38:40.358007,139
2021-10-14 16:38:40.358015,156
2021-10-14 16:38:40.358023,156
2021-10-14 16:38:40.358031,168
2021-10-14 16:38:40.358040,177
2021-10-14 16:38:40.358048,180
2021-10-14 16:38:40.358056,189
2021-10-14 16:38:40.358064,199
2021-10-14 16:38:40.358073,206
2021-10-14 16:38:40.358081,194
2021-10-14 16:38:40.358089,168
2021-10-14 16:38:40.358098,156
2021-10-14 16:38:40.358106,146
2021-10-14 16:38:40.358114,108
2021-10-14 16:38:40.358127,72
2021-10-14 16:38:40.358135,45
2021-10-14 16:38:40.358143,12
2021-10-14 16:38:40.358152,-21
2021-10-14 16:38:40.358160,-40
2021-10-14 16:38:40.358168,-55
2021-10-14 16:38:40.626923,-72
2021-10-14 16:38:40.626943,-81
2021-10-14 16:38:40.626952,-84
2021-10-14 16:38:40.626961,-96
2021-10-14 16:38:40.626969,-117
2021-10-14 16:38:40.626978,-110
2021-10-14 16:38:40.626986,-91
2021-10-14 16:38:40.626994,-105
2021-10-14 16:38:40.627003,-115
2021-10-14 16:38:40.627011,-96
2021-10-14 16:38:40.627019,-81
2021-10-14 16:38:40.627028,-76
2021-10-14 16:38:40.627036,-60
2021-10-14 16:38:40.627044,-48
2021-10-14 16:38:40.627053,-57
2021-10-14 16:38:40.627061,-67
2021-10-14 16:38:40.627069,-60
2021-10-14 16:38:40.627077,-43
2021-10-14 16:38:40.627086,-45
2021-10-14 16:38:40.627094,-45
2021-10-14 16:38:40.627102,-33
2021-10-14 16:38:40.627110,-38
2021-10-14 16:38:40.627118,-52
2021-10-14 16:38:40.627127,-45
2021-10-14 16:38:40.627135,-31
2021-10-14 16:38:40.627143,-38
2021-10-14 16:38:40.627151,-40
2021-10-14 16:38:40.627159,-31
2021-10-14 16:38:40.627167,-33
2021-10-14 16:38:40.627176,-38
2021-10-14 16:38:40.808114,-33
2021-10-14 16:38:40.808135,-28
2021-10-14 16:38:40.808144,-26
2021-10-14 16:38:40.808153,-19
2021-10-14 16:38:40.808161,-14
2021-10-14 16:38:40.808169,-21
2021-10-14 16:38:40.808177,-28
2021-10-14 16:38:40.808186,-21
2021-10-14 16:38:40.808194,-9
2021-10-14 16:38:40.808202,-7
2021-10-14 16:38:40.808211,-4
2021-10-14 16:38:40.808219,12
2021-10-14 16:38:40.808227,12
2021-10-14 16:38:40.808235,-19
2021-10-14 16:38:40.808244,-36
2021-10-14 16:38:40.808252,-31
2021-10-14 16:38:40.808260,-36
2021-10-14 16:38:40.808269,-40
2021-10-14 16:38:40.808277,-43
2021-10-14 16:38:40.808285,-45
2021-10-14 16:38:40.808293,-45
2021-10-14 16:38:40.808302,-33
2021-10-14 16:38:40.808310,-26
2021-10-14 16:38:40.808318,-40
2021-10-14 16:38:40.808327,-40
2021-10-14 16:38:40.808335,26
2021-10-14 16:38:40.808343,266
2021-10-14 16:38:40.808351,649
2021-10-14 16:38:40.808360,673
2021-10-14 16:38:40.808368,-168
2021-10-14 16:38:41.032576,-1132
2021-10-14 16:38:41.032597,-1038
2021-10-14 16:38:41.032606,-387
2021-10-14 16:38:41.032615,-165
2021-10-14 16:38:41.032623,-120
2021-10-14 16:38:41.032632,36
2021-10-14 16:38:41.032640,74
2021-10-14 16:38:41.032648,31
2021-10-14 16:38:41.032657,57
2021-10-14 16:38:41.032665,76
2021-10-14 16:38:41.032679,50
2021-10-14 16:38:41.032687,50
2021-10-14 16:38:41.032695,62
2021-10-14 16:38:41.032704,62
2021-10-14 16:38:41.032712,74
2021-10-14 16:38:41.032721,91
2021-10-14 16:38:41.032729,98
2021-10-14 16:38:41.032737,103
2021-10-14 16:38:41.032745,108
2021-10-14 16:38:41.032754,122
2021-10-14 16:38:41.032762,139
2021-10-14 16:38:41.032770,151
2021-10-14 16:38:41.032779,168
2021-10-14 16:38:41.032787,180
2021-10-14 16:38:41.032796,182
2021-10-14 16:38:41.032804,192
2021-10-14 16:38:41.032812,199
2021-10-14 16:38:41.032821,192
2021-10-14 16:38:41.032829,175
2021-10-14 16:38:41.032837,146
2021-10-14 16:38:41.301222,125
2021-10-14 16:38:41.301243,110
2021-10-14 16:38:41.301253,84
2021-10-14 16:38:41.301261,40
2021-10-14 16:38:41.301270,2
2021-10-14 16:38:41.301278,-33
2021-10-14 16:38:41.301286,-62
2021-10-14 16:38:41.301295,-79
2021-10-14 16:38:41.301303,-88
2021-10-14 16:38:41.301311,-98
2021-10-14 16:38:41.301320,-101
2021-10-14 16:38:41.301328,-110
2021-10-14 16:38:41.301336,-115
2021-10-14 16:38:41.301345,-101
2021-10-14 16:38:41.301353,-96
2021-10-14 16:38:41.301362,-98
2021-10-14 16:38:41.301370,-91
2021-10-14 16:38:41.301378,-84
2021-10-14 16:38:41.301386,-84
2021-10-14 16:38:41.301395,-72
2021-10-14 16:38:41.301403,-50
2021-10-14 16:38:41.301411,-48
2021-10-14 16:38:41.301420,-57
2021-10-14 16:38:41.301428,-52
2021-10-14 16:38:41.301436,-31
2021-10-14 16:38:41.301450,-16
2021-10-14 16:38:41.301459,-19
2021-10-14 16:38:41.301467,-31
2021-10-14 16:38:41.301475,-40
2021-10-14 16:38:41.301483,-40
2021-10-14 16:38:41.482865,-31
2021-10-14 16:38:41.482884,-28
2021-10-14 16:38:41.482893,-33
2021-10-14 16:38:41.482902,-31
2021-10-14 16:38:41.482910,-38
2021-10-14 16:38:41.482918,-55
2021-10-14 16:38:41.482927,-50
2021-10-14 16:38:41.482935,-28
2021-10-14 16:38:41.482944,-26
2021-10-14 16:38:41.482952,-40
2021-10-14 16:38:41.482960,-48
2021-10-14 16:38:41.482969,-48
2021-10-14 16:38:41.482977,-36
2021-10-14 16:38:41.482986,-31
2021-10-14 16:38:41.482994,-48
2021-10-14 16:38:41.483002,-62
2021-10-14 16:38:41.483011,-48
2021-10-14 16:38:41.483019,-38
2021-10-14 16:38:41.483027,-40
2021-10-14 16:38:41.483036,-24
2021-10-14 16:38:41.483044,4
2021-10-14 16:38:41.483052,14
2021-10-14 16:38:41.483061,-19
2021-10-14 16:38:41.483069,-52
2021-10-14 16:38:41.483077,-43
2021-10-14 16:38:41.483086,-31
2021-10-14 16:38:41.483094,-40
2021-10-14 16:38:41.483102,-48
2021-10-14 16:38:41.483110,-38
2021-10-14 16:38:41.483119,-33
2021-10-14 16:38:41.707892,-38
2021-10-14 16:38:41.707911,-36
2021-10-14 16:38:41.707921,-26
2021-10-14 16:38:41.707929,-12
2021-10-14 16:38:41.707938,64
2021-10-14 16:38:41.707946,348
2021-10-14 16:38:41.707954,731
2021-10-14 16:38:41.707962,584
2021-10-14 16:38:41.707971,-404
2021-10-14 16:38:41.707979,-1214
2021-10-14 16:38:41.707987,-901
2021-10-14 16:38:41.707996,-290
2021-10-14 16:38:41.708004,-163
2021-10-14 16:38:41.708013,-98
2021-10-14 16:38:41.708021,48
2021-10-14 16:38:41.708029,50
2021-10-14 16:38:41.708040,16
2021-10-14 16:38:41.708053,55
2021-10-14 16:38:41.708061,67
2021-10-14 16:38:41.708070,60
2021-10-14 16:38:41.708078,81
2021-10-14 16:38:41.708086,98
2021-10-14 16:38:41.708095,86
2021-10-14 16:38:41.708103,79
2021-10-14 16:38:41.708111,93
2021-10-14 16:38:41.708119,115
2021-10-14 16:38:41.708127,120
2021-10-14 16:38:41.708136,117
2021-10-14 16:38:41.708144,132
2021-10-14 16:38:41.708152,153
2021-10-14 16:38:41.977558,163
2021-10-14 16:38:41.977578,173
2021-10-14 16:38:41.977588,175
2021-10-14 16:38:41.977597,168
2021-10-14 16:38:41.977605,170
2021-10-14 16:38:41.977613,185
2021-10-14 16:38:41.977622,180
2021-10-14 16:38:41.977630,161
2021-10-14 16:38:41.977638,139
2021-10-14 16:38:41.977646,110
2021-10-14 16:38:41.977655,81
2021-10-14 16:38:41.977663,50
2021-10-14 16:38:41.977671,24
2021-10-14 16:38:41.977680,0
2021-10-14 16:38:41.977688,-38
2021-10-14 16:38:41.977697,-72
2021-10-14 16:38:41.977705,-79
2021-10-14 16:38:41.977713,-88
2021-10-14 16:38:41.977722,-96
2021-10-14 16:38:41.977730,-91
2021-10-14 16:38:41.977739,-105
2021-10-14 16:38:41.977747,-125
2021-10-14 16:38:41.977755,-120
2021-10-14 16:38:41.977763,-101
2021-10-14 16:38:41.977771,-91
2021-10-14 16:38:41.977780,-88
2021-10-14 16:38:41.977788,-84
2021-10-14 16:38:41.977796,-81
2021-10-14 16:38:41.977805,-76
2021-10-14 16:38:41.977813,-64
2021-10-14 16:38:42.202875,-50
2021-10-14 16:38:42.202895,-38
2021-10-14 16:38:42.202904,-40
2021-10-14 16:38:42.202913,-45
2021-10-14 16:38:42.202922,-40
2021-10-14 16:38:42.202930,-38
2021-10-14 16:38:42.202939,-38
2021-10-14 16:38:42.202947,-33
2021-10-14 16:38:42.202955,-36
2021-10-14 16:38:42.202964,-43
2021-10-14 16:38:42.202972,-45
2021-10-14 16:38:42.202981,-43
2021-10-14 16:38:42.202989,-33
2021-10-14 16:38:42.203001,-28
2021-10-14 16:38:42.203009,-45
2021-10-14 16:38:42.203018,-57
2021-10-14 16:38:42.203026,-43
2021-10-14 16:38:42.203035,-38
2021-10-14 16:38:42.203043,-43
2021-10-14 16:38:42.203052,-31
2021-10-14 16:38:42.203060,-21
2021-10-14 16:38:42.203068,-26
2021-10-14 16:38:42.203077,-19
2021-10-14 16:38:42.203085,9
2021-10-14 16:38:42.203093,19
2021-10-14 16:38:42.203102,-14
2021-10-14 16:38:42.203110,-45
2021-10-14 16:38:42.203118,-43
2021-10-14 16:38:42.203126,-31
2021-10-14 16:38:42.203135,-21
2021-10-14 16:38:42.562549,-21
2021-10-14 16:38:42.562569,-26
2021-10-14 16:38:42.562578,-24
2021-10-14 16:38:42.562587,-16
2021-10-14 16:38:42.562596,-9
2021-10-14 16:38:42.562604,-7
2021-10-14 16:38:42.562612,9
2021-10-14 16:38:42.562621,120
2021-10-14 16:38:42.562629,430
2021-10-14 16:38:42.562638,769
2021-10-14 16:38:42.562646,517
2021-10-14 16:38:42.562654,-507
2021-10-14 16:38:42.562663,-1202
2021-10-14 16:38:42.562671,-798
2021-10-14 16:38:42.562679,-233
2021-10-14 16:38:42.562688,-139
2021-10-14 16:38:42.562696,-62
2021-10-14 16:38:42.562705,64
2021-10-14 16:38:42.562713,48
2021-10-14 16:38:42.562721,16
2021-10-14 16:38:42.562730,50
2021-10-14 16:38:42.562738,60
2021-10-14 16:38:42.562746,55
2021-10-14 16:38:42.562755,74
2021-10-14 16:38:42.562763,84
2021-10-14 16:38:42.562771,69
2021-10-14 16:38:42.562780,64
2021-10-14 16:38:42.562788,76
2021-10-14 16:38:42.562796,91
2021-10-14 16:38:42.562804,98
2021-10-14 16:38:42.652475,108
2021-10-14 16:38:42.652494,125
2021-10-14 16:38:42.652503,137
2021-10-14 16:38:42.652512,144
2021-10-14 16:38:42.652521,161
2021-10-14 16:38:42.652529,177
2021-10-14 16:38:42.652537,185
2021-10-14 16:38:42.652545,189
2021-10-14 16:38:42.652554,185
2021-10-14 16:38:42.652562,168
2021-10-14 16:38:42.652570,151
2021-10-14 16:38:42.652579,141
2021-10-14 16:38:42.652587,120
2021-10-14 16:38:42.652595,81
2021-10-14 16:38:42.652603,45
2021-10-14 16:38:42.652612,16
2021-10-14 16:38:42.652620,-14
2021-10-14 16:38:42.652631,-45
2021-10-14 16:38:42.652639,-69
2021-10-14 16:38:42.652648,-88
2021-10-14 16:38:42.652656,-96
2021-10-14 16:38:42.652664,-93
2021-10-14 16:38:42.652673,-88
2021-10-14 16:38:42.652681,-91
2021-10-14 16:38:42.652689,-105
2021-10-14 16:38:42.652698,-117
2021-10-14 16:38:42.652706,-110
2021-10-14 16:38:42.652714,-96
2021-10-14 16:38:42.652723,-84
2021-10-14 16:38:42.652731,-79
2021-10-14 16:38:42.922816,-81
2021-10-14 16:38:42.922835,-79
2021-10-14 16:38:42.922845,-62
2021-10-14 16:38:42.922853,-48
2021-10-14 16:38:42.922862,-43
2021-10-14 16:38:42.922871,-43
2021-10-14 16:38:42.922879,-50
2021-10-14 16:38:42.922887,-50
2021-10-14 16:38:42.922895,-38
2021-10-14 16:38:42.922903,-38
2021-10-14 16:38:42.922912,-45
2021-10-14 16:38:42.922920,-45
2021-10-14 16:38:42.922928,-48
2021-10-14 16:38:42.922936,-50
2021-10-14 16:38:42.922944,-48
2021-10-14 16:38:42.922953,-50
2021-10-14 16:38:42.922961,-50
2021-10-14 16:38:42.922970,-45
2021-10-14 16:38:42.922978,-38
2021-10-14 16:38:42.922986,-31
2021-10-14 16:38:42.922995,-28
2021-10-14 16:38:42.923003,-26
2021-10-14 16:38:42.923011,-7
2021-10-14 16:38:42.923019,7
2021-10-14 16:38:42.923027,-14
2021-10-14 16:38:42.923036,-40
2021-10-14 16:38:42.923044,-43
2021-10-14 16:38:42.923052,-33
2021-10-14 16:38:42.923061,-28
2021-10-14 16:38:42.923069,-31
2021-10-14 16:38:43.102943,-36
2021-10-14 16:38:43.102963,-36
2021-10-14 16:38:43.102973,-38
2021-10-14 16:38:43.102982,-38
2021-10-14 16:38:43.102990,-26
2021-10-14 16:38:43.102998,-19
2021-10-14 16:38:43.103007,14
2021-10-14 16:38:43.103015,226
2021-10-14 16:38:43.103023,632
2021-10-14 16:38:43.103032,762
2021-10-14 16:38:43.103040,19
2021-10-14 16:38:43.103048,-1031
2021-10-14 16:38:43.103057,-1103
2021-10-14 16:38:43.103065,-425
2021-10-14 16:38:43.103073,-113
2021-10-14 16:38:43.103081,-91
2021-10-14 16:38:43.103090,43
2021-10-14 16:38:43.103098,93
2021-10-14 16:38:43.103106,38
2021-10-14 16:38:43.103114,60
2021-10-14 16:38:43.103123,86
2021-10-14 16:38:43.103131,64
2021-10-14 16:38:43.103139,72
2021-10-14 16:38:43.103147,84
2021-10-14 16:38:43.103156,79
2021-10-14 16:38:43.103164,84
2021-10-14 16:38:43.103172,103
2021-10-14 16:38:43.103181,113
2021-10-14 16:38:43.103189,113
2021-10-14 16:38:43.103202,105
2021-10-14 16:38:43.416646,110
2021-10-14 16:38:43.416667,132
2021-10-14 16:38:43.416676,144
2021-10-14 16:38:43.416685,149
2021-10-14 16:38:43.416693,161
2021-10-14 16:38:43.416702,165
2021-10-14 16:38:43.416710,170
2021-10-14 16:38:43.416718,187
2021-10-14 16:38:43.416727,185
2021-10-14 16:38:43.416735,163
2021-10-14 16:38:43.416744,134
2021-10-14 16:38:43.416752,110
2021-10-14 16:38:43.416760,91
2021-10-14 16:38:43.416769,55
2021-10-14 16:38:43.416777,-4
2021-10-14 16:38:43.416785,-43
2021-10-14 16:38:43.416794,-57
2021-10-14 16:38:43.416802,-76
2021-10-14 16:38:43.416810,-101
2021-10-14 16:38:43.416818,-115
2021-10-14 16:38:43.416827,-113
2021-10-14 16:38:43.416835,-108
2021-10-14 16:38:43.416843,-117
2021-10-14 16:38:43.416851,-122
2021-10-14 16:38:43.416860,-110
2021-10-14 16:38:43.416868,-96
2021-10-14 16:38:43.416876,-96
2021-10-14 16:38:43.416884,-101
2021-10-14 16:38:43.416893,-91
2021-10-14 16:38:43.416901,-76
2021-10-14 16:38:43.642272,-64
2021-10-14 16:38:43.642291,-50
2021-10-14 16:38:43.642300,-45
2021-10-14 16:38:43.642309,-48
2021-10-14 16:38:43.642317,-45
2021-10-14 16:38:43.642325,-36
2021-10-14 16:38:43.642334,-31
2021-10-14 16:38:43.642342,-31
2021-10-14 16:38:43.642350,-36
2021-10-14 16:38:43.642359,-50
2021-10-14 16:38:43.642367,-60
2021-10-14 16:38:43.642376,-52
2021-10-14 16:38:43.642384,-43
2021-10-14 16:38:43.642392,-48
2021-10-14 16:38:43.642401,-55
2021-10-14 16:38:43.642409,-52
2021-10-14 16:38:43.642417,-50
2021-10-14 16:38:43.642426,-52
2021-10-14 16:38:43.642434,-50
2021-10-14 16:38:43.642442,-36
2021-10-14 16:38:43.642451,-33
2021-10-14 16:38:43.642459,-43
2021-10-14 16:38:43.642467,-48
2021-10-14 16:38:43.642476,-43
2021-10-14 16:38:43.642484,-28
2021-10-14 16:38:43.642492,-14
2021-10-14 16:38:43.642500,-2
2021-10-14 16:38:43.642508,0
2021-10-14 16:38:43.642517,4
2021-10-14 16:38:43.642525,19
2021-10-14 16:38:43.912402,4
2021-10-14 16:38:43.912420,-21
2021-10-14 16:38:43.912430,-26
2021-10-14 16:38:43.912438,-28
2021-10-14 16:38:43.912447,-33
2021-10-14 16:38:43.912455,-31
2021-10-14 16:38:43.912463,-24
2021-10-14 16:38:43.912472,-14
2021-10-14 16:38:43.912480,-12
2021-10-14 16:38:43.912488,-33
2021-10-14 16:38:43.912497,-40
2021-10-14 16:38:43.912505,-16
2021-10-14 16:38:43.912513,4
2021-10-14 16:38:43.912522,81
2021-10-14 16:38:43.912530,372
2021-10-14 16:38:43.912538,745
2021-10-14 16:38:43.912547,596
2021-10-14 16:38:43.912555,-363
2021-10-14 16:38:43.912563,-1149
2021-10-14 16:38:43.912572,-832
2021-10-14 16:38:43.912583,-214
2021-10-14 16:38:43.912591,-86
2021-10-14 16:38:43.912600,-36
2021-10-14 16:38:43.912608,96
2021-10-14 16:38:43.912616,93
2021-10-14 16:38:43.912625,64
2021-10-14 16:38:43.912633,98
2021-10-14 16:38:43.912642,101
2021-10-14 16:38:43.912650,93
2021-10-14 16:38:43.912658,120
2021-10-14 16:38:44.047563,132
2021-10-14 16:38:44.047583,122
2021-10-14 16:38:44.047592,117
2021-10-14 16:38:44.047601,117
2021-10-14 16:38:44.047610,120
2021-10-14 16:38:44.047618,132
2021-10-14 16:38:44.047627,151
2021-10-14 16:38:44.047635,158
2021-10-14 16:38:44.047643,144
2021-10-14 16:38:44.047652,137
2021-10-14 16:38:44.047660,158
2021-10-14 16:38:44.047669,175
2021-10-14 16:38:44.047677,168
2021-10-14 16:38:44.047685,173
2021-10-14 16:38:44.047694,175
2021-10-14 16:38:44.047702,153
2021-10-14 16:38:44.047711,139
2021-10-14 16:38:44.047719,129
2021-10-14 16:38:44.047728,105
2021-10-14 16:38:44.047736,81
2021-10-14 16:38:44.047744,48
2021-10-14 16:38:44.047753,2
2021-10-14 16:38:44.047761,-31
2021-10-14 16:38:44.047769,-40
2021-10-14 16:38:44.047778,-50
2021-10-14 16:38:44.047786,-81
2021-10-14 16:38:44.047794,-115
2021-10-14 16:38:44.047802,-115
2021-10-14 16:38:44.047810,-98
2021-10-14 16:38:44.047819,-108
2021-10-14 16:38:44.272906,-113
2021-10-14 16:38:44.272925,-98
2021-10-14 16:38:44.272935,-91
2021-10-14 16:38:44.272943,-91
2021-10-14 16:38:44.272951,-86
2021-10-14 16:38:44.272960,-76
2021-10-14 16:38:44.272968,-67
2021-10-14 16:38:44.272976,-64
2021-10-14 16:38:44.272985,-76
2021-10-14 16:38:44.272993,-72
2021-10-14 16:38:44.273002,-45
2021-10-14 16:38:44.273010,-38
2021-10-14 16:38:44.273018,-38
2021-10-14 16:38:44.273027,-36
2021-10-14 16:38:44.273035,-43
2021-10-14 16:38:44.273044,-40
2021-10-14 16:38:44.273052,-36
2021-10-14 16:38:44.273060,-36
2021-10-14 16:38:44.273068,-28
2021-10-14 16:38:44.273077,-26
2021-10-14 16:38:44.273085,-36
2021-10-14 16:38:44.273094,-38
2021-10-14 16:38:44.273102,-33
2021-10-14 16:38:44.273110,-38
2021-10-14 16:38:44.273119,-40
2021-10-14 16:38:44.273127,-31
2021-10-14 16:38:44.273135,-28
2021-10-14 16:38:44.273144,-26
2021-10-14 16:38:44.273152,-19
2021-10-14 16:38:44.273160,-21
2021-10-14 16:38:44.497520,-33
2021-10-14 16:38:44.497539,-24
2021-10-14 16:38:44.497549,-9
2021-10-14 16:38:44.497557,-19
2021-10-14 16:38:44.497566,-21
2021-10-14 16:38:44.497574,0
2021-10-14 16:38:44.497582,12
2021-10-14 16:38:44.497591,7
2021-10-14 16:38:44.497599,9
2021-10-14 16:38:44.497607,12
2021-10-14 16:38:44.497615,-4
2021-10-14 16:38:44.497624,-28
2021-10-14 16:38:44.497632,-36
2021-10-14 16:38:44.497640,-36
2021-10-14 16:38:44.497649,-24
2021-10-14 16:38:44.497657,-9
2021-10-14 16:38:44.497665,-14
2021-10-14 16:38:44.497673,-21
2021-10-14 16:38:44.497681,-12
2021-10-14 16:38:44.497690,-2
2021-10-14 16:38:44.497698,-19
2021-10-14 16:38:44.497706,-24
2021-10-14 16:38:44.497717,62
2021-10-14 16:38:44.497726,339
2021-10-14 16:38:44.497734,711
2021-10-14 16:38:44.497742,646
2021-10-14 16:38:44.497751,-250
2021-10-14 16:38:44.497759,-1106
2021-10-14 16:38:44.497767,-894
2021-10-14 16:38:44.497776,-300
2021-10-14 16:38:44.722881,-139
2021-10-14 16:38:44.722900,-60
2021-10-14 16:38:44.722909,93
2021-10-14 16:38:44.722917,101
2021-10-14 16:38:44.722926,69
2021-10-14 16:38:44.722934,108
2021-10-14 16:38:44.722943,117
2021-10-14 16:38:44.722951,101
2021-10-14 16:38:44.722959,113
2021-10-14 16:38:44.722967,122
2021-10-14 16:38:44.722976,105
2021-10-14 16:38:44.722984,103
2021-10-14 16:38:44.722992,120
2021-10-14 16:38:44.723001,120
2021-10-14 16:38:44.723009,122
2021-10-14 16:38:44.723017,139
2021-10-14 16:38:44.723026,146
2021-10-14 16:38:44.723034,151
2021-10-14 16:38:44.723042,163
2021-10-14 16:38:44.723051,180
2021-10-14 16:38:44.723059,189
2021-10-14 16:38:44.723067,185
2021-10-14 16:38:44.723075,194
2021-10-14 16:38:44.723084,199
2021-10-14 16:38:44.723092,175
2021-10-14 16:38:44.723100,163
2021-10-14 16:38:44.723108,153
2021-10-14 16:38:44.723117,117
2021-10-14 16:38:44.723125,88
2021-10-14 16:38:44.723133,69
2021-10-14 16:38:44.992965,24
2021-10-14 16:38:44.992988,-16
2021-10-14 16:38:44.992998,-33
2021-10-14 16:38:44.993006,-50
2021-10-14 16:38:44.993014,-84
2021-10-14 16:38:44.993023,-108
2021-10-14 16:38:44.993031,-113
2021-10-14 16:38:44.993040,-113
2021-10-14 16:38:44.993048,-115
2021-10-14 16:38:44.993056,-110
2021-10-14 16:38:44.993064,-103
2021-10-14 16:38:44.993073,-103
2021-10-14 16:38:44.993081,-105
2021-10-14 16:38:44.993089,-103
2021-10-14 16:38:44.993098,-93
2021-10-14 16:38:44.993106,-86
2021-10-14 16:38:44.993115,-76
2021-10-14 16:38:44.993123,-72
2021-10-14 16:38:44.993131,-64
2021-10-14 16:38:44.993139,-50
2021-10-14 16:38:44.993148,-45
2021-10-14 16:38:44.993156,-43
2021-10-14 16:38:44.993164,-38
2021-10-14 16:38:44.993172,-36
2021-10-14 16:38:44.993181,-31
2021-10-14 16:38:44.993189,-21
2021-10-14 16:38:44.993197,-31
2021-10-14 16:38:44.993206,-64
2021-10-14 16:38:44.993214,-74
2021-10-14 16:38:44.993222,-57
2021-10-14 16:38:45.172573,-57
2021-10-14 16:38:45.172593,-62
2021-10-14 16:38:45.172602,-57
2021-10-14 16:38:45.172611,-50
2021-10-14 16:38:45.172619,-48
2021-10-14 16:38:45.172628,-48
2021-10-14 16:38:45.172636,-48
2021-10-14 16:38:45.172644,-45
2021-10-14 16:38:45.172653,-43
2021-10-14 16:38:45.172661,-43
2021-10-14 16:38:45.172669,-45
2021-10-14 16:38:45.172677,-45
2021-10-14 16:38:45.172686,-36
2021-10-14 16:38:45.172694,-28
2021-10-14 16:38:45.172702,-28
2021-10-14 16:38:45.172710,-21
2021-10-14 16:38:45.172719,-12
2021-10-14 16:38:45.172727,-9
2021-10-14 16:38:45.172736,2
2021-10-14 16:38:45.172744,7
2021-10-14 16:38:45.172752,-16
2021-10-14 16:38:45.172760,-43
2021-10-14 16:38:45.172769,-48
2021-10-14 16:38:45.172777,-38
2021-10-14 16:38:45.172785,-28
2021-10-14 16:38:45.172793,-28
2021-10-14 16:38:45.172801,-26
2021-10-14 16:38:45.172810,-24
2021-10-14 16:38:45.172818,-24
2021-10-14 16:38:45.172826,-19
2021-10-14 16:38:45.486587,0
2021-10-14 16:38:45.486607,16
2021-10-14 16:38:45.486616,86
2021-10-14 16:38:45.486625,379
2021-10-14 16:38:45.486633,762
2021-10-14 16:38:45.486644,596
2021-10-14 16:38:45.486653,-391
2021-10-14 16:38:45.486661,-1178
2021-10-14 16:38:45.486670,-853
2021-10-14 16:38:45.486678,-250
2021-10-14 16:38:45.486686,-120
2021-10-14 16:38:45.486694,-48
2021-10-14 16:38:45.486703,91
2021-10-14 16:38:45.486711,81
2021-10-14 16:38:45.486719,52
2021-10-14 16:38:45.486727,86
2021-10-14 16:38:45.486736,88
2021-10-14 16:38:45.486744,81
2021-10-14 16:38:45.486752,93
2021-10-14 16:38:45.486760,101
2021-10-14 16:38:45.486768,103
2021-10-14 16:38:45.486777,105
2021-10-14 16:38:45.486785,113
2021-10-14 16:38:45.486793,122
2021-10-14 16:38:45.486801,122
2021-10-14 16:38:45.486809,125
2021-10-14 16:38:45.486818,141
2021-10-14 16:38:45.486826,151
2021-10-14 16:38:45.486834,146
2021-10-14 16:38:45.486842,153
2021-10-14 16:38:45.667886,173
2021-10-14 16:38:45.667905,182
2021-10-14 16:38:45.667915,170
2021-10-14 16:38:45.667923,153
2021-10-14 16:38:45.667932,146
2021-10-14 16:38:45.667940,132
2021-10-14 16:38:45.667949,113
2021-10-14 16:38:45.667957,98
2021-10-14 16:38:45.667966,67
2021-10-14 16:38:45.667974,19
2021-10-14 16:38:45.667983,-12
2021-10-14 16:38:45.667991,-33
2021-10-14 16:38:45.667999,-67
2021-10-14 16:38:45.668008,-91
2021-10-14 16:38:45.668016,-98
2021-10-14 16:38:45.668024,-117
2021-10-14 16:38:45.668032,-132
2021-10-14 16:38:45.668040,-125
2021-10-14 16:38:45.668049,-117
2021-10-14 16:38:45.668057,-115
2021-10-14 16:38:45.668065,-120
2021-10-14 16:38:45.668074,-122
2021-10-14 16:38:45.668082,-110
2021-10-14 16:38:45.668090,-93
2021-10-14 16:38:45.668098,-86
2021-10-14 16:38:45.668106,-76
2021-10-14 16:38:45.668115,-72
2021-10-14 16:38:45.668123,-76
2021-10-14 16:38:45.668131,-69
2021-10-14 16:38:45.668139,-50
2021-10-14 16:38:45.892527,-40
2021-10-14 16:38:45.892546,-36
2021-10-14 16:38:45.892555,-31
2021-10-14 16:38:45.892563,-24
2021-10-14 16:38:45.892572,-28
2021-10-14 16:38:45.892580,-43
2021-10-14 16:38:45.892588,-43
2021-10-14 16:38:45.892597,-36
2021-10-14 16:38:45.892605,-40
2021-10-14 16:38:45.892614,-50
2021-10-14 16:38:45.892622,-48
2021-10-14 16:38:45.892630,-43
2021-10-14 16:38:45.892638,-43
2021-10-14 16:38:45.892647,-43
2021-10-14 16:38:45.892655,-48
2021-10-14 16:38:45.892663,-50
2021-10-14 16:38:45.892672,-50
2021-10-14 16:38:45.892680,-43
2021-10-14 16:38:45.892688,-33
2021-10-14 16:38:45.892696,-31
2021-10-14 16:38:45.892705,-40
2021-10-14 16:38:45.892713,-43
2021-10-14 16:38:45.892721,-31
2021-10-14 16:38:45.892729,-26
2021-10-14 16:38:45.892738,-28
2021-10-14 16:38:45.892746,-21
2021-10-14 16:38:45.892754,-21
2021-10-14 16:38:45.892763,-24
2021-10-14 16:38:45.892771,-14
2021-10-14 16:38:45.892779,-7
2021-10-14 16:38:46.117979,-7
2021-10-14 16:38:46.118000,-9
2021-10-14 16:38:46.118009,-12
2021-10-14 16:38:46.118018,-2
2021-10-14 16:38:46.118026,14
2021-10-14 16:38:46.118035,28
2021-10-14 16:38:46.118043,31
2021-10-14 16:38:46.118051,-4
2021-10-14 16:38:46.118060,-52
2021-10-14 16:38:46.118068,-64
2021-10-14 16:38:46.118077,-55
2021-10-14 16:38:46.118085,-48
2021-10-14 16:38:46.118094,-40
2021-10-14 16:38:46.118102,-48
2021-10-14 16:38:46.118111,-62
2021-10-14 16:38:46.118119,-50
2021-10-14 16:38:46.118127,-26
2021-10-14 16:38:46.118136,-33
2021-10-14 16:38:46.118144,-33
2021-10-14 16:38:46.118153,40
2021-10-14 16:38:46.118161,286
2021-10-14 16:38:46.118169,670
2021-10-14 16:38:46.118178,707
2021-10-14 16:38:46.118186,-108
2021-10-14 16:38:46.118194,-1074
2021-10-14 16:38:46.118203,-1010
2021-10-14 16:38:46.118211,-341
2021-10-14 16:38:46.118220,-98
2021-10-14 16:38:46.118228,-93
2021-10-14 16:38:46.118236,24
2021-10-14 16:38:46.342965,64
2021-10-14 16:38:46.342986,31
2021-10-14 16:38:46.342996,55
2021-10-14 16:38:46.343004,81
2021-10-14 16:38:46.343013,64
2021-10-14 16:38:46.343021,74
2021-10-14 16:38:46.343029,98
2021-10-14 16:38:46.343037,96
2021-10-14 16:38:46.343046,74
2021-10-14 16:38:46.343054,62
2021-10-14 16:38:46.343062,81
2021-10-14 16:38:46.343070,103
2021-10-14 16:38:46.343078,108
2021-10-14 16:38:46.343086,103
2021-10-14 16:38:46.343095,105
2021-10-14 16:38:46.343103,125
2021-10-14 16:38:46.343111,153
2021-10-14 16:38:46.343119,163
2021-10-14 16:38:46.343127,161
2021-10-14 16:38:46.343136,170
2021-10-14 16:38:46.343144,173
2021-10-14 16:38:46.343152,156
2021-10-14 16:38:46.343160,134
2021-10-14 16:38:46.343169,127
2021-10-14 16:38:46.343177,120
2021-10-14 16:38:46.343185,103
2021-10-14 16:38:46.343193,79
2021-10-14 16:38:46.343202,45
2021-10-14 16:38:46.343210,9
2021-10-14 16:38:46.343218,-4
2021-10-14 16:38:46.612937,-21
2021-10-14 16:38:46.612956,-62
2021-10-14 16:38:46.612965,-96
2021-10-14 16:38:46.612974,-98
2021-10-14 16:38:46.612982,-84
2021-10-14 16:38:46.612991,-86
2021-10-14 16:38:46.612999,-101
2021-10-14 16:38:46.613007,-110
2021-10-14 16:38:46.613015,-103
2021-10-14 16:38:46.613024,-88
2021-10-14 16:38:46.613032,-81
2021-10-14 16:38:46.613040,-76
2021-10-14 16:38:46.613049,-79
2021-10-14 16:38:46.613057,-88
2021-10-14 16:38:46.613065,-91
2021-10-14 16:38:46.613073,-79
2021-10-14 16:38:46.613082,-69
2021-10-14 16:38:46.613090,-69
2021-10-14 16:38:46.613098,-60
2021-10-14 16:38:46.613113,-43
2021-10-14 16:38:46.613121,-38
2021-10-14 16:38:46.613129,-57
2021-10-14 16:38:46.613137,-67
2021-10-14 16:38:46.613145,-48
2021-10-14 16:38:46.613153,-33
2021-10-14 16:38:46.613162,-40
2021-10-14 16:38:46.613170,-45
2021-10-14 16:38:46.613178,-31
2021-10-14 16:38:46.613186,-14
2021-10-14 16:38:46.613195,-12
2021-10-14 16:38:46.792933,-21
2021-10-14 16:38:46.792952,-19
2021-10-14 16:38:46.792961,-16
2021-10-14 16:38:46.792970,-14
2021-10-14 16:38:46.792978,-7
2021-10-14 16:38:46.792986,-14
2021-10-14 16:38:46.792995,-36
2021-10-14 16:38:46.793003,-33
2021-10-14 16:38:46.793011,-16
2021-10-14 16:38:46.793019,-14
2021-10-14 16:38:46.793028,-21
2021-10-14 16:38:46.793036,-24
2021-10-14 16:38:46.793044,-19
2021-10-14 16:38:46.793052,-9
2021-10-14 16:38:46.793060,0
2021-10-14 16:38:46.793069,-2
2021-10-14 16:38:46.793077,-19
2021-10-14 16:38:46.793085,-31
2021-10-14 16:38:46.793093,-26
2021-10-14 16:38:46.793101,-19
2021-10-14 16:38:46.793109,-9
2021-10-14 16:38:46.793117,-2
2021-10-14 16:38:46.793126,-14
2021-10-14 16:38:46.793134,-14
2021-10-14 16:38:46.793142,9
2021-10-14 16:38:46.793150,19
2021-10-14 16:38:46.793158,-7
2021-10-14 16:38:46.793167,-9
2021-10-14 16:38:46.793175,21
2021-10-14 16:38:46.793184,2
2021-10-14 16:38:47.017630,-48
2021-10-14 16:38:47.017651,-43
2021-10-14 16:38:47.017660,-31
2021-10-14 16:38:47.017669,-48
2021-10-14 16:38:47.017677,-48
2021-10-14 16:38:47.017686,-36
2021-10-14 16:38:47.017694,-43
2021-10-14 16:38:47.017703,-48
2021-10-14 16:38:47.017711,-33
2021-10-14 16:38:47.017720,-21
2021-10-14 16:38:47.017728,-16
2021-10-14 16:38:47.017737,4
2021-10-14 16:38:47.017745,170
2021-10-14 16:38:47.017753,541
2021-10-14 16:38:47.017762,747
2021-10-14 16:38:47.017770,202
2021-10-14 16:38:47.017779,-810
2021-10-14 16:38:47.017787,-1111
2021-10-14 16:38:47.017795,-545
2021-10-14 16:38:47.017803,-146
2021-10-14 16:38:47.017812,-103
2021-10-14 16:38:47.017820,0
2021-10-14 16:38:47.017828,76
2021-10-14 16:38:47.017837,38
2021-10-14 16:38:47.017845,48
2021-10-14 16:38:47.017853,88
2021-10-14 16:38:47.017861,84
2021-10-14 16:38:47.017869,86
2021-10-14 16:38:47.017878,105
2021-10-14 16:38:47.017886,98
2021-10-14 16:38:47.243000,93
2021-10-14 16:38:47.243020,122
2021-10-14 16:38:47.243030,132
2021-10-14 16:38:47.243039,122
2021-10-14 16:38:47.243047,125
2021-10-14 16:38:47.243056,141
2021-10-14 16:38:47.243064,158
2021-10-14 16:38:47.243072,175
2021-10-14 16:38:47.243081,197
2021-10-14 16:38:47.243089,202
2021-10-14 16:38:47.243097,185
2021-10-14 16:38:47.243109,185
2021-10-14 16:38:47.243117,206
2021-10-14 16:38:47.243126,206
2021-10-14 16:38:47.243134,202
2021-10-14 16:38:47.243142,202
2021-10-14 16:38:47.243151,165
2021-10-14 16:38:47.243159,108
2021-10-14 16:38:47.243167,93
2021-10-14 16:38:47.243176,91
2021-10-14 16:38:47.243184,55
2021-10-14 16:38:47.243192,28
2021-10-14 16:38:47.243200,21
2021-10-14 16:38:47.243209,-7
2021-10-14 16:38:47.243217,-26
2021-10-14 16:38:47.243225,-19
2021-10-14 16:38:47.243233,-40
2021-10-14 16:38:47.243242,-55
2021-10-14 16:38:47.243250,-40
2021-10-14 16:38:47.243258,-60
2021-10-14 16:38:47.601677,-74
2021-10-14 16:38:47.601698,-31
2021-10-14 16:38:47.601708,-21
2021-10-14 16:38:47.601716,-55
2021-10-14 16:38:47.601725,-38
2021-10-14 16:38:47.601733,4
2021-10-14 16:38:47.601741,7
2021-10-14 16:38:47.601750,-21
2021-10-14 16:38:47.601758,-19
2021-10-14 16:38:47.601766,12
2021-10-14 16:38:47.601774,2
2021-10-14 16:38:47.601783,-9
2021-10-14 16:38:47.601791,12
2021-10-14 16:38:47.601799,24
2021-10-14 16:38:47.601807,4
2021-10-14 16:38:47.601816,4
2021-10-14 16:38:47.601824,19
2021-10-14 16:38:47.601832,7
2021-10-14 16:38:47.601840,-4
2021-10-14 16:38:47.601849,4
2021-10-14 16:38:47.601857,9
2021-10-14 16:38:47.601865,-2
2021-10-14 16:38:47.601874,-28
2021-10-14 16:38:47.601882,-21
2021-10-14 16:38:47.601890,12
2021-10-14 16:38:47.601898,7
2021-10-14 16:38:47.601907,-28
2021-10-14 16:38:47.601915,-45
2021-10-14 16:38:47.601923,-24
2021-10-14 16:38:47.601932,0
2021-10-14 16:38:47.737551,-14
2021-10-14 16:38:47.737570,-43
2021-10-14 16:38:47.737579,-55
2021-10-14 16:38:47.737588,-36
2021-10-14 16:38:47.737596,4
2021-10-14 16:38:47.737604,2
2021-10-14 16:38:47.737613,-38
2021-10-14 16:38:47.737621,-36
2021-10-14 16:38:47.737630,-12
2021-10-14 16:38:47.737638,-16
2021-10-14 16:38:47.737646,-31
2021-10-14 16:38:47.737654,-26
2021-10-14 16:38:47.737662,2
2021-10-14 16:38:47.737671,26
2021-10-14 16:38:47.737679,-12
2021-10-14 16:38:47.737687,-55
2021-10-14 16:38:47.737695,-52
2021-10-14 16:38:47.737704,-38
2021-10-14 16:38:47.737712,-28
2021-10-14 16:38:47.737720,-28
2021-10-14 16:38:47.737728,-31
2021-10-14 16:38:47.737737,-50
2021-10-14 16:38:47.737745,-74
2021-10-14 16:38:47.737753,-79
2021-10-14 16:38:47.737761,-60
2021-10-14 16:38:47.737769,4
2021-10-14 16:38:47.737778,108
2021-10-14 16:38:47.737786,327
2021-10-14 16:38:47.737795,707
2021-10-14 16:38:47.737803,738
2021-10-14 16:38:48.008043,-120
2021-10-14 16:38:48.008065,-1086
2021-10-14 16:38:48.008074,-1000
2021-10-14 16:38:48.008083,-401
2021-10-14 16:38:48.008091,-194
2021-10-14 16:38:48.008100,-86
2021-10-14 16:38:48.008108,120
2021-10-14 16:38:48.008116,141
2021-10-14 16:38:48.008124,74
2021-10-14 16:38:48.008133,127
2021-10-14 16:38:48.008141,165
2021-10-14 16:38:48.008149,141
2021-10-14 16:38:48.008158,137
2021-10-14 16:38:48.008166,139
2021-10-14 16:38:48.008174,129
2021-10-14 16:38:48.008183,144
2021-10-14 16:38:48.008191,163
2021-10-14 16:38:48.008199,168
2021-10-14 16:38:48.008208,189
2021-10-14 16:38:48.008216,211
2021-10-14 16:38:48.008224,199
2021-10-14 16:38:48.008233,189
2021-10-14 16:38:48.008241,202
2021-10-14 16:38:48.008249,223
2021-10-14 16:38:48.008258,238
2021-10-14 16:38:48.008266,226
2021-10-14 16:38:48.008275,226
2021-10-14 16:38:48.008283,271
2021-10-14 16:38:48.008291,288
2021-10-14 16:38:48.008300,233
2021-10-14 16:38:48.188008,185
2021-10-14 16:38:48.188029,149
2021-10-14 16:38:48.188038,113
2021-10-14 16:38:48.188047,91
2021-10-14 16:38:48.188055,64
2021-10-14 16:38:48.188064,40
2021-10-14 16:38:48.188072,24
2021-10-14 16:38:48.188081,-12
2021-10-14 16:38:48.188089,-33
2021-10-14 16:38:48.188097,-50
2021-10-14 16:38:48.188105,-81
2021-10-14 16:38:48.188114,-91
2021-10-14 16:38:48.188122,-101
2021-10-14 16:38:48.188130,-110
2021-10-14 16:38:48.188138,-81
2021-10-14 16:38:48.188147,-55
2021-10-14 16:38:48.188155,-60
2021-10-14 16:38:48.188163,-79
2021-10-14 16:38:48.188171,-91
2021-10-14 16:38:48.188180,-72
2021-10-14 16:38:48.188188,-57
2021-10-14 16:38:48.188196,-79
2021-10-14 16:38:48.188205,-69
2021-10-14 16:38:48.188213,-24
2021-10-14 16:38:48.188221,-9
2021-10-14 16:38:48.188230,-26
2021-10-14 16:38:48.188238,-21
2021-10-14 16:38:48.188246,-4
2021-10-14 16:38:48.188255,-9
2021-10-14 16:38:48.188263,-9
2021-10-14 16:38:48.458011,-7
2021-10-14 16:38:48.458032,-31
2021-10-14 16:38:48.458041,-57
2021-10-14 16:38:48.458050,-57
2021-10-14 16:38:48.458058,-43
2021-10-14 16:38:48.458067,-9
2021-10-14 16:38:48.458075,19
2021-10-14 16:38:48.458083,2
2021-10-14 16:38:48.458099,-21
2021-10-14 16:38:48.458108,-26
2021-10-14 16:38:48.458116,-38
2021-10-14 16:38:48.458125,-67
2021-10-14 16:38:48.458133,-86
2021-10-14 16:38:48.458141,-60
2021-10-14 16:38:48.458149,-28
2021-10-14 16:38:48.458158,-45
2021-10-14 16:38:48.458166,-55
2021-10-14 16:38:48.458175,-24
2021-10-14 16:38:48.458183,-24
2021-10-14 16:38:48.458191,-64
2021-10-14 16:38:48.458199,-55
2021-10-14 16:38:48.458207,-19
2021-10-14 16:38:48.458216,-33
2021-10-14 16:38:48.458224,-60
2021-10-14 16:38:48.458232,-14
2021-10-14 16:38:48.458240,52
2021-10-14 16:38:48.458249,33
2021-10-14 16:38:48.458257,-45
2021-10-14 16:38:48.458265,-74
2021-10-14 16:38:48.458273,-50
2021-10-14 16:38:48.637953,-40
2021-10-14 16:38:48.637972,-57
2021-10-14 16:38:48.637982,-55
2021-10-14 16:38:48.637990,-33
2021-10-14 16:38:48.637999,-28
2021-10-14 16:38:48.638007,-40
2021-10-14 16:38:48.638015,-36
2021-10-14 16:38:48.638024,7
2021-10-14 16:38:48.638032,98
2021-10-14 16:38:48.638040,324
2021-10-14 16:38:48.638049,711
2021-10-14 16:38:48.638057,709
2021-10-14 16:38:48.638065,-221
2021-10-14 16:38:48.638074,-1197
2021-10-14 16:38:48.638082,-1022
2021-10-14 16:38:48.638090,-346
2021-10-14 16:38:48.638099,-134
2021-10-14 16:38:48.638107,-74
2021-10-14 16:38:48.638115,79
2021-10-14 16:38:48.638124,101
2021-10-14 16:38:48.638132,67
2021-10-14 16:38:48.638140,125
2021-10-14 16:38:48.638149,134
2021-10-14 16:38:48.638157,76
2021-10-14 16:38:48.638165,93
2021-10-14 16:38:48.638173,137
2021-10-14 16:38:48.638181,127
2021-10-14 16:38:48.638190,122
2021-10-14 16:38:48.638198,137
2021-10-14 16:38:48.638206,153
2021-10-14 16:38:48.907929,165
2021-10-14 16:38:48.907948,158
2021-10-14 16:38:48.907957,168
2021-10-14 16:38:48.907965,206
2021-10-14 16:38:48.907974,202
2021-10-14 16:38:48.907982,168
2021-10-14 16:38:48.907991,197
2021-10-14 16:38:48.907999,245
2021-10-14 16:38:48.908007,230
2021-10-14 16:38:48.908016,209
2021-10-14 16:38:48.908024,228
2021-10-14 16:38:48.908032,233
2021-10-14 16:38:48.908040,202
2021-10-14 16:38:48.908049,173
2021-10-14 16:38:48.908057,144
2021-10-14 16:38:48.908065,103
2021-10-14 16:38:48.908073,60
2021-10-14 16:38:48.908082,26
2021-10-14 16:38:48.908090,0
2021-10-14 16:38:48.908098,-38
2021-10-14 16:38:48.908107,-55
2021-10-14 16:38:48.908115,-48
2021-10-14 16:38:48.908123,-48
2021-10-14 16:38:48.908131,-52
2021-10-14 16:38:48.908140,-79
2021-10-14 16:38:48.908148,-101
2021-10-14 16:38:48.908156,-57
2021-10-14 16:38:48.908165,-48
2021-10-14 16:38:48.908173,-110
2021-10-14 16:38:48.908181,-101
2021-10-14 16:38:49.088048,-40
2021-10-14 16:38:49.088068,-43
2021-10-14 16:38:49.088078,-50
2021-10-14 16:38:49.088086,-24
2021-10-14 16:38:49.088095,-28
2021-10-14 16:38:49.088103,-50
2021-10-14 16:38:49.088112,-43
2021-10-14 16:38:49.088120,-26
2021-10-14 16:38:49.088128,-36
2021-10-14 16:38:49.088136,-43
2021-10-14 16:38:49.088145,-28
2021-10-14 16:38:49.088153,-12
2021-10-14 16:38:49.088161,-4
2021-10-14 16:38:49.088170,-4
2021-10-14 16:38:49.088178,-24
2021-10-14 16:38:49.088186,-52
2021-10-14 16:38:49.088195,-57
2021-10-14 16:38:49.088203,-43
2021-10-14 16:38:49.088212,-40
2021-10-14 16:38:49.088220,-55
2021-10-14 16:38:49.088228,-57
2021-10-14 16:38:49.088237,-28
2021-10-14 16:38:49.088245,-14
2021-10-14 16:38:49.088253,-45
2021-10-14 16:38:49.088262,-62
2021-10-14 16:38:49.088270,-55
2021-10-14 16:38:49.088279,-55
2021-10-14 16:38:49.088287,-57
2021-10-14 16:38:49.088295,-50
2021-10-14 16:38:49.088304,-43
2021-10-14 16:38:49.312982,-50
2021-10-14 16:38:49.313002,-52
2021-10-14 16:38:49.313011,-31
2021-10-14 16:38:49.313020,-21
2021-10-14 16:38:49.313028,-26
2021-10-14 16:38:49.313036,-24
2021-10-14 16:38:49.313045,-2
2021-10-14 16:38:49.313053,16
2021-10-14 16:38:49.313061,-21
2021-10-14 16:38:49.313070,-88
2021-10-14 16:38:49.313078,-91
2021-10-14 16:38:49.313086,-43
2021-10-14 16:38:49.313095,-24
2021-10-14 16:38:49.313103,-31
2021-10-14 16:38:49.313116,-43
2021-10-14 16:38:49.313125,-52
2021-10-14 16:38:49.313134,-45
2021-10-14 16:38:49.313142,-19
2021-10-14 16:38:49.313150,-12
2021-10-14 16:38:49.313158,-28
2021-10-14 16:38:49.313167,0
2021-10-14 16:38:49.313175,175
2021-10-14 16:38:49.313183,538
2021-10-14 16:38:49.313192,805
2021-10-14 16:38:49.313200,331
2021-10-14 16:38:49.313208,-750
2021-10-14 16:38:49.313216,-1185
2021-10-14 16:38:49.313225,-649
2021-10-14 16:38:49.313233,-182
2021-10-14 16:38:49.313241,-81
2021-10-14 16:38:49.626275,43
2021-10-14 16:38:49.626295,115
2021-10-14 16:38:49.626305,60
2021-10-14 16:38:49.626313,84
2021-10-14 16:38:49.626322,141
2021-10-14 16:38:49.626330,98
2021-10-14 16:38:49.626338,69
2021-10-14 16:38:49.626347,98
2021-10-14 16:38:49.626355,93
2021-10-14 16:38:49.626363,101
2021-10-14 16:38:49.626372,129
2021-10-14 16:38:49.626380,122
2021-10-14 16:38:49.626388,132
2021-10-14 16:38:49.626397,165
2021-10-14 16:38:49.626405,177
2021-10-14 16:38:49.626413,165
2021-10-14 16:38:49.626422,156
2021-10-14 16:38:49.626430,158
2021-10-14 16:38:49.626438,161
2021-10-14 16:38:49.626446,175
2021-10-14 16:38:49.626455,199
2021-10-14 16:38:49.626463,223
2021-10-14 16:38:49.626471,230
2021-10-14 16:38:49.626485,221
2021-10-14 16:38:49.626494,211
2021-10-14 16:38:49.626502,189
2021-10-14 16:38:49.626511,141
2021-10-14 16:38:49.626519,84
2021-10-14 16:38:49.626527,64
2021-10-14 16:38:49.626535,52
2021-10-14 16:38:49.807532,4
2021-10-14 16:38:49.807550,-24
2021-10-14 16:38:49.807559,-21
2021-10-14 16:38:49.807568,-50
2021-10-14 16:38:49.807576,-88
2021-10-14 16:38:49.807584,-79
2021-10-14 16:38:49.807593,-64
2021-10-14 16:38:49.807601,-101
2021-10-14 16:38:49.807609,-141
2021-10-14 16:38:49.807617,-125
2021-10-14 16:38:49.807626,-67
2021-10-14 16:38:49.807634,-60
2021-10-14 16:38:49.807642,-93
2021-10-14 16:38:49.807650,-81
2021-10-14 16:38:49.807658,-60
2021-10-14 16:38:49.807666,-72
2021-10-14 16:38:49.807675,-84
2021-10-14 16:38:49.807683,-72
2021-10-14 16:38:49.807691,-50
2021-10-14 16:38:49.807699,-50
2021-10-14 16:38:49.807708,-64
2021-10-14 16:38:49.807716,-43
2021-10-14 16:38:49.807724,-12
2021-10-14 16:38:49.807732,-21
2021-10-14 16:38:49.807741,-36
2021-10-14 16:38:49.807749,-28
2021-10-14 16:38:49.807757,-33
2021-10-14 16:38:49.807765,-43
2021-10-14 16:38:49.807774,-33
2021-10-14 16:38:49.807782,-26
2021-10-14 16:38:50.032691,-28
2021-10-14 16:38:50.032712,-24
2021-10-14 16:38:50.032722,-26
2021-10-14 16:38:50.032731,-38
2021-10-14 16:38:50.032739,-28
2021-10-14 16:38:50.032748,-21
2021-10-14 16:38:50.032756,-57
2021-10-14 16:38:50.032765,-79
2021-10-14 16:38:50.032773,-50
2021-10-14 16:38:50.032782,-48
2021-10-14 16:38:50.032790,-60
2021-10-14 16:38:50.032798,-33
2021-10-14 16:38:50.032807,-36
2021-10-14 16:38:50.032815,-74
2021-10-14 16:38:50.032824,-52
2021-10-14 16:38:50.032832,-4
2021-10-14 16:38:50.032840,-36
2021-10-14 16:38:50.032849,-88
2021-10-14 16:38:50.032857,-76
2021-10-14 16:38:50.032866,-67
2021-10-14 16:38:50.032874,-81
2021-10-14 16:38:50.032882,-69
2021-10-14 16:38:50.032891,-84
2021-10-14 16:38:50.032899,-110
2021-10-14 16:38:50.032907,-76
2021-10-14 16:38:50.032916,-57
2021-10-14 16:38:50.032924,-79
2021-10-14 16:38:50.032933,-64
2021-10-14 16:38:50.032941,-12
2021-10-14 16:38:50.032949,108
2021-10-14 16:38:50.257626,418
2021-10-14 16:38:50.257646,747
2021-10-14 16:38:50.257655,454
2021-10-14 16:38:50.257664,-606
2021-10-14 16:38:50.257673,-1238
2021-10-14 16:38:50.257681,-793
2021-10-14 16:38:50.257689,-303
2021-10-14 16:38:50.257698,-221
2021-10-14 16:38:50.257706,-64
2021-10-14 16:38:50.257715,96
2021-10-14 16:38:50.257723,62
2021-10-14 16:38:50.257731,31
2021-10-14 16:38:50.257740,79
2021-10-14 16:38:50.257748,98
2021-10-14 16:38:50.257756,93
2021-10-14 16:38:50.257764,96
2021-10-14 16:38:50.257773,86
2021-10-14 16:38:50.257781,93
2021-10-14 16:38:50.257789,122
2021-10-14 16:38:50.257797,127
2021-10-14 16:38:50.257806,132
2021-10-14 16:38:50.257814,153
2021-10-14 16:38:50.257822,156
2021-10-14 16:38:50.257831,156
2021-10-14 16:38:50.257839,180
2021-10-14 16:38:50.257847,204
2021-10-14 16:38:50.257855,221
2021-10-14 16:38:50.257864,230
2021-10-14 16:38:50.257872,230
2021-10-14 16:38:50.257880,238
2021-10-14 16:38:50.483025,252
2021-10-14 16:38:50.483046,238
2021-10-14 16:38:50.483055,182
2021-10-14 16:38:50.483063,182
2021-10-14 16:38:50.483072,202
2021-10-14 16:38:50.483080,146
2021-10-14 16:38:50.483088,74
2021-10-14 16:38:50.483097,45
2021-10-14 16:38:50.483105,24
2021-10-14 16:38:50.483113,0
2021-10-14 16:38:50.483122,-62
2021-10-14 16:38:50.483130,-110
2021-10-14 16:38:50.483138,-91
2021-10-14 16:38:50.483147,-81
2021-10-14 16:38:50.483155,-113
2021-10-14 16:38:50.483163,-125
2021-10-14 16:38:50.483172,-103
2021-10-14 16:38:50.483180,-74
2021-10-14 16:38:50.483188,-91
2021-10-14 16:38:50.483197,-129
2021-10-14 16:38:50.483205,-103
2021-10-14 16:38:50.483213,-57
2021-10-14 16:38:50.483222,-72
2021-10-14 16:38:50.483230,-81
2021-10-14 16:38:50.483238,-55
2021-10-14 16:38:50.483247,-40
2021-10-14 16:38:50.483255,-52
2021-10-14 16:38:50.483263,-74
2021-10-14 16:38:50.483271,-67
2021-10-14 16:38:50.483280,-24
2021-10-14 16:38:50.708006,-9
2021-10-14 16:38:50.708026,-43
2021-10-14 16:38:50.708035,-55
2021-10-14 16:38:50.708044,-38
2021-10-14 16:38:50.708052,-48
2021-10-14 16:38:50.708060,-79
2021-10-14 16:38:50.708069,-84
2021-10-14 16:38:50.708077,-55
2021-10-14 16:38:50.708085,-40
2021-10-14 16:38:50.708094,-43
2021-10-14 16:38:50.708102,-33
2021-10-14 16:38:50.708110,-26
2021-10-14 16:38:50.708118,-45
2021-10-14 16:38:50.708127,-86
2021-10-14 16:38:50.708135,-81
2021-10-14 16:38:50.708143,-36
2021-10-14 16:38:50.708151,-33
2021-10-14 16:38:50.708160,-50
2021-10-14 16:38:50.708168,-28
2021-10-14 16:38:50.708177,-26
2021-10-14 16:38:50.708185,-33
2021-10-14 16:38:50.708193,-16
2021-10-14 16:38:50.708201,-7
2021-10-14 16:38:50.708209,-24
2021-10-14 16:38:50.708218,-43
2021-10-14 16:38:50.708226,-38
2021-10-14 16:38:50.708234,-43
2021-10-14 16:38:50.708242,-57
2021-10-14 16:38:50.708251,-50
2021-10-14 16:38:50.708259,-38
2021-10-14 16:38:50.932525,-38
2021-10-14 16:38:50.932544,-38
2021-10-14 16:38:50.932553,-38
2021-10-14 16:38:50.932561,-52
2021-10-14 16:38:50.932570,-67
2021-10-14 16:38:50.932578,-60
2021-10-14 16:38:50.932587,62
2021-10-14 16:38:50.932595,408
2021-10-14 16:38:50.932603,788
2021-10-14 16:38:50.932612,550
2021-10-14 16:38:50.932620,-512
2021-10-14 16:38:50.932628,-1264
2021-10-14 16:38:50.932637,-882
2021-10-14 16:38:50.932645,-307
2021-10-14 16:38:50.932654,-185
2021-10-14 16:38:50.932662,-88
2021-10-14 16:38:50.932670,55
2021-10-14 16:38:50.932679,52
2021-10-14 16:38:50.932687,36
2021-10-14 16:38:50.932696,88
2021-10-14 16:38:50.932704,93
2021-10-14 16:38:50.932712,60
2021-10-14 16:38:50.932720,74
2021-10-14 16:38:50.932729,98
2021-10-14 16:38:50.932737,88
2021-10-14 16:38:50.932745,96
2021-10-14 16:38:50.932754,115
2021-10-14 16:38:50.932762,120
2021-10-14 16:38:50.932770,125
2021-10-14 16:38:50.932781,144
2021-10-14 16:38:51.158068,161
2021-10-14 16:38:51.158089,182
2021-10-14 16:38:51.158098,197
2021-10-14 16:38:51.158106,182
2021-10-14 16:38:51.158115,158
2021-10-14 16:38:51.158123,185
2021-10-14 16:38:51.158131,214
2021-10-14 16:38:51.158140,189
2021-10-14 16:38:51.158148,182
2021-10-14 16:38:51.158156,204
2021-10-14 16:38:51.158164,182
2021-10-14 16:38:51.158173,117
2021-10-14 16:38:51.158181,74
2021-10-14 16:38:51.158189,57
2021-10-14 16:38:51.158197,24
2021-10-14 16:38:51.158206,-16
2021-10-14 16:38:51.158214,-52
2021-10-14 16:38:51.158222,-84
2021-10-14 16:38:51.158230,-84
2021-10-14 16:38:51.158239,-76
2021-10-14 16:38:51.158247,-93
2021-10-14 16:38:51.158255,-108
2021-10-14 16:38:51.158263,-105
2021-10-14 16:38:51.158271,-103
2021-10-14 16:38:51.158280,-105
2021-10-14 16:38:51.158288,-115
2021-10-14 16:38:51.158296,-125
2021-10-14 16:38:51.158304,-101
2021-10-14 16:38:51.158312,-81
2021-10-14 16:38:51.158321,-79
2021-10-14 16:38:51.473029,-48
2021-10-14 16:38:51.473050,-21
2021-10-14 16:38:51.473059,-40
2021-10-14 16:38:51.473068,-55
2021-10-14 16:38:51.473076,-40
2021-10-14 16:38:51.473084,-33
2021-10-14 16:38:51.473093,-48
2021-10-14 16:38:51.473101,-60
2021-10-14 16:38:51.473109,-40
2021-10-14 16:38:51.473118,-21
2021-10-14 16:38:51.473126,-14
2021-10-14 16:38:51.473134,-12
2021-10-14 16:38:51.473143,-21
2021-10-14 16:38:51.473151,-21
2021-10-14 16:38:51.473159,-16
2021-10-14 16:38:51.473167,-36
2021-10-14 16:38:51.473176,-43
2021-10-14 16:38:51.473184,-26
2021-10-14 16:38:51.473192,-21
2021-10-14 16:38:51.473200,-40
2021-10-14 16:38:51.473208,-45
2021-10-14 16:38:51.473217,-14
2021-10-14 16:38:51.473225,9
2021-10-14 16:38:51.473233,-4
2021-10-14 16:38:51.473241,-16
2021-10-14 16:38:51.473249,2
2021-10-14 16:38:51.473258,-9
2021-10-14 16:38:51.473266,-43
2021-10-14 16:38:51.473274,-36
2021-10-14 16:38:51.473282,-12
2021-10-14 16:38:51.696626,-9
2021-10-14 16:38:51.696644,-7
2021-10-14 16:38:51.696654,-9
2021-10-14 16:38:51.696663,-14
2021-10-14 16:38:51.696671,4
2021-10-14 16:38:51.696679,16
2021-10-14 16:38:51.696688,16
2021-10-14 16:38:51.696696,43
2021-10-14 16:38:51.696704,50
2021-10-14 16:38:51.696712,0
2021-10-14 16:38:51.696721,-36
2021-10-14 16:38:51.696729,-26
2021-10-14 16:38:51.696737,-26
2021-10-14 16:38:51.696745,-45
2021-10-14 16:38:51.696754,-67
2021-10-14 16:38:51.696762,-62
2021-10-14 16:38:51.696770,-31
2021-10-14 16:38:51.696778,-16
2021-10-14 16:38:51.696787,-24
2021-10-14 16:38:51.696795,-33
2021-10-14 16:38:51.696803,-43
2021-10-14 16:38:51.696811,-21
2021-10-14 16:38:51.696820,98
2021-10-14 16:38:51.696828,452
2021-10-14 16:38:51.696836,803
2021-10-14 16:38:51.696845,432
2021-10-14 16:38:51.696853,-687
2021-10-14 16:38:51.696861,-1286
2021-10-14 16:38:51.696869,-759
2021-10-14 16:38:51.696877,-182
2021-10-14 16:38:51.922356,-98
2021-10-14 16:38:51.922374,-38
2021-10-14 16:38:51.922383,55
2021-10-14 16:38:51.922392,43
2021-10-14 16:38:51.922400,43
2021-10-14 16:38:51.922409,79
2021-10-14 16:38:51.922417,81
2021-10-14 16:38:51.922425,69
2021-10-14 16:38:51.922433,76
2021-10-14 16:38:51.922442,101
2021-10-14 16:38:51.922450,113
2021-10-14 16:38:51.922459,105
2021-10-14 16:38:51.922467,108
2021-10-14 16:38:51.922475,125
2021-10-14 16:38:51.922483,127
2021-10-14 16:38:51.922492,120
2021-10-14 16:38:51.922500,120
2021-10-14 16:38:51.922508,139
2021-10-14 16:38:51.922517,187
2021-10-14 16:38:51.922525,226
2021-10-14 16:38:51.922533,204
2021-10-14 16:38:51.922542,173
2021-10-14 16:38:51.922550,199
2021-10-14 16:38:51.922558,228
2021-10-14 16:38:51.922566,206
2021-10-14 16:38:51.922575,175
2021-10-14 16:38:51.922583,156
2021-10-14 16:38:51.922591,153
2021-10-14 16:38:51.922599,144
2021-10-14 16:38:51.922608,103
2021-10-14 16:38:52.103049,48
2021-10-14 16:38:52.103068,9
2021-10-14 16:38:52.103078,-14
2021-10-14 16:38:52.103086,-48
2021-10-14 16:38:52.103095,-67
2021-10-14 16:38:52.103103,-69
2021-10-14 16:38:52.103112,-81
2021-10-14 16:38:52.103120,-91
2021-10-14 16:38:52.103128,-79
2021-10-14 16:38:52.103137,-84
2021-10-14 16:38:52.103145,-96
2021-10-14 16:38:52.103153,-74
2021-10-14 16:38:52.103162,-60
2021-10-14 16:38:52.103170,-79
2021-10-14 16:38:52.103178,-79
2021-10-14 16:38:52.103186,-74
2021-10-14 16:38:52.103195,-88
2021-10-14 16:38:52.103203,-91
2021-10-14 16:38:52.103211,-81
2021-10-14 16:38:52.103219,-67
2021-10-14 16:38:52.103228,-40
2021-10-14 16:38:52.103236,-24
2021-10-14 16:38:52.103244,-38
2021-10-14 16:38:52.103252,-31
2021-10-14 16:38:52.103261,-12
2021-10-14 16:38:52.103269,-21
2021-10-14 16:38:52.103277,-31
2021-10-14 16:38:52.103286,-40
2021-10-14 16:38:52.103294,-52
2021-10-14 16:38:52.103302,-48
2021-10-14 16:38:52.417398,-38
2021-10-14 16:38:52.417417,-19
2021-10-14 16:38:52.417427,-24
2021-10-14 16:38:52.417436,-36
2021-10-14 16:38:52.417444,-21
2021-10-14 16:38:52.417452,-21
2021-10-14 16:38:52.417461,-43
2021-10-14 16:38:52.417469,-38
2021-10-14 16:38:52.417478,-28
2021-10-14 16:38:52.417486,-48
2021-10-14 16:38:52.417494,-48
2021-10-14 16:38:52.417503,-24
2021-10-14 16:38:52.417511,-14
2021-10-14 16:38:52.417519,-14
2021-10-14 16:38:52.417528,-16
2021-10-14 16:38:52.417536,-33
2021-10-14 16:38:52.417544,-40
2021-10-14 16:38:52.417552,-24
2021-10-14 16:38:52.417561,2
2021-10-14 16:38:52.417569,16
2021-10-14 16:38:52.417577,9
2021-10-14 16:38:52.417586,0
2021-10-14 16:38:52.417594,28
2021-10-14 16:38:52.417602,48
2021-10-14 16:38:52.417611,-16
2021-10-14 16:38:52.417619,-62
2021-10-14 16:38:52.417627,-26
2021-10-14 16:38:52.417635,-14
2021-10-14 16:38:52.417644,-43
2021-10-14 16:38:52.417652,-31
2021-10-14 16:38:52.597361,-21
2021-10-14 16:38:52.597380,-52
2021-10-14 16:38:52.597389,-55
2021-10-14 16:38:52.597397,-28
2021-10-14 16:38:52.597406,-28
2021-10-14 16:38:52.597414,-38
2021-10-14 16:38:52.597422,-12
2021-10-14 16:38:52.597430,132
2021-10-14 16:38:52.597439,471
2021-10-14 16:38:52.597447,783
2021-10-14 16:38:52.597455,454
2021-10-14 16:38:52.597463,-579
2021-10-14 16:38:52.597471,-1183
2021-10-14 16:38:52.597480,-767
2021-10-14 16:38:52.597488,-271
2021-10-14 16:38:52.597496,-161
2021-10-14 16:38:52.597504,-31
2021-10-14 16:38:52.597512,93
2021-10-14 16:38:52.597520,76
2021-10-14 16:38:52.597529,79
2021-10-14 16:38:52.597537,110
2021-10-14 16:38:52.597545,57
2021-10-14 16:38:52.597553,24
2021-10-14 16:38:52.597561,93
2021-10-14 16:38:52.597569,127
2021-10-14 16:38:52.597578,96
2021-10-14 16:38:52.597586,113
2021-10-14 16:38:52.597594,149
2021-10-14 16:38:52.597606,146
2021-10-14 16:38:52.597614,144
2021-10-14 16:38:52.822591,151
2021-10-14 16:38:52.822609,149
2021-10-14 16:38:52.822619,139
2021-10-14 16:38:52.822627,146
2021-10-14 16:38:52.822636,182
2021-10-14 16:38:52.822644,223
2021-10-14 16:38:52.822652,242
2021-10-14 16:38:52.822661,245
2021-10-14 16:38:52.822669,230
2021-10-14 16:38:52.822677,199
2021-10-14 16:38:52.822685,185
2021-10-14 16:38:52.822694,173
2021-10-14 16:38:52.822702,149
2021-10-14 16:38:52.822710,141
2021-10-14 16:38:52.822718,115
2021-10-14 16:38:52.822726,48
2021-10-14 16:38:52.822735,2
2021-10-14 16:38:52.822743,-21
2021-10-14 16:38:52.822751,-52
2021-10-14 16:38:52.822760,-72
2021-10-14 16:38:52.822768,-93
2021-10-14 16:38:52.822776,-105
2021-10-14 16:38:52.822784,-86
2021-10-14 16:38:52.822793,-72
2021-10-14 16:38:52.822801,-84
2021-10-14 16:38:52.822809,-93
2021-10-14 16:38:52.822817,-81
2021-10-14 16:38:52.822826,-72
2021-10-14 16:38:52.822834,-79
2021-10-14 16:38:52.822842,-88
2021-10-14 16:38:53.003082,-72
2021-10-14 16:38:53.003103,-36
2021-10-14 16:38:53.003112,-19
2021-10-14 16:38:53.003121,-48
2021-10-14 16:38:53.003129,-69
2021-10-14 16:38:53.003138,-33
2021-10-14 16:38:53.003146,-4
2021-10-14 16:38:53.003154,-12
2021-10-14 16:38:53.003162,-19
2021-10-14 16:38:53.003171,-24
2021-10-14 16:38:53.003179,-28
2021-10-14 16:38:53.003187,-14
2021-10-14 16:38:53.003195,7
2021-10-14 16:38:53.003204,-14
2021-10-14 16:38:53.003212,-55
2021-10-14 16:38:53.003220,-52
2021-10-14 16:38:53.003229,-38
2021-10-14 16:38:53.003237,-38
2021-10-14 16:38:53.003245,-24
2021-10-14 16:38:53.003254,-7
2021-10-14 16:38:53.003262,-24
2021-10-14 16:38:53.003270,-60
2021-10-14 16:38:53.003279,-52
2021-10-14 16:38:53.003287,-9
2021-10-14 16:38:53.003295,-9
2021-10-14 16:38:53.003304,-21
2021-10-14 16:38:53.003312,-16
2021-10-14 16:38:53.003321,-33
2021-10-14 16:38:53.003329,-45
2021-10-14 16:38:53.003337,-43
2021-10-14 16:38:53.318088,-38
2021-10-14 16:38:53.318109,-7
2021-10-14 16:38:53.318119,-4
2021-10-14 16:38:53.318127,-36
2021-10-14 16:38:53.318136,-7
2021-10-14 16:38:53.318144,21
2021-10-14 16:38:53.318153,-16
2021-10-14 16:38:53.318161,-50
2021-10-14 16:38:53.318169,-57
2021-10-14 16:38:53.318178,-67
2021-10-14 16:38:53.318186,-81
2021-10-14 16:38:53.318194,-81
2021-10-14 16:38:53.318202,-64
2021-10-14 16:38:53.318211,-50
2021-10-14 16:38:53.318219,-52
2021-10-14 16:38:53.318227,-69
2021-10-14 16:38:53.318235,-74
2021-10-14 16:38:53.318244,-43
2021-10-14 16:38:53.318252,-7
2021-10-14 16:38:53.318260,113
2021-10-14 16:38:53.318269,478
2021-10-14 16:38:53.318277,822
2021-10-14 16:38:53.318285,420
2021-10-14 16:38:53.318293,-690
2021-10-14 16:38:53.318302,-1243
2021-10-14 16:38:53.318310,-733
2021-10-14 16:38:53.318318,-233
2021-10-14 16:38:53.318326,-149
2021-10-14 16:38:53.318334,-14
2021-10-14 16:38:53.318342,101
2021-10-14 16:38:53.497658,45
2021-10-14 16:38:53.497678,40
2021-10-14 16:38:53.497687,120
2021-10-14 16:38:53.497695,122
2021-10-14 16:38:53.497704,88
2021-10-14 16:38:53.497712,108
2021-10-14 16:38:53.497720,113
2021-10-14 16:38:53.497729,105
2021-10-14 16:38:53.497737,110
2021-10-14 16:38:53.497745,120
2021-10-14 16:38:53.497753,141
2021-10-14 16:38:53.497762,158
2021-10-14 16:38:53.497770,149
2021-10-14 16:38:53.497778,156
2021-10-14 16:38:53.497787,180
2021-10-14 16:38:53.497795,185
2021-10-14 16:38:53.497803,202
2021-10-14 16:38:53.497811,230
2021-10-14 16:38:53.497820,233
2021-10-14 16:38:53.497828,216
2021-10-14 16:38:53.497836,209
2021-10-14 16:38:53.497844,218
2021-10-14 16:38:53.497852,214
2021-10-14 16:38:53.497861,185
2021-10-14 16:38:53.497869,156
2021-10-14 16:38:53.497877,122
2021-10-14 16:38:53.497885,72
2021-10-14 16:38:53.497893,36
2021-10-14 16:38:53.497902,12
2021-10-14 16:38:53.497910,-19
2021-10-14 16:38:53.767288,-40
2021-10-14 16:38:53.767307,-52
2021-10-14 16:38:53.767316,-93
2021-10-14 16:38:53.767325,-127
2021-10-14 16:38:53.767333,-110
2021-10-14 16:38:53.767342,-88
2021-10-14 16:38:53.767350,-86
2021-10-14 16:38:53.767359,-93
2021-10-14 16:38:53.767367,-105
2021-10-14 16:38:53.767376,-108
2021-10-14 16:38:53.767384,-103
2021-10-14 16:38:53.767392,-93
2021-10-14 16:38:53.767401,-76
2021-10-14 16:38:53.767409,-88
2021-10-14 16:38:53.767417,-108
2021-10-14 16:38:53.767426,-86
2021-10-14 16:38:53.767434,-55
2021-10-14 16:38:53.767443,-60
2021-10-14 16:38:53.767451,-55
2021-10-14 16:38:53.767459,-26
2021-10-14 16:38:53.767468,-24
2021-10-14 16:38:53.767476,-24
2021-10-14 16:38:53.767484,-19
2021-10-14 16:38:53.767493,-36
2021-10-14 16:38:53.767501,-43
2021-10-14 16:38:53.767509,-28
2021-10-14 16:38:53.767518,-19
2021-10-14 16:38:53.767526,-33
2021-10-14 16:38:53.767535,-43
2021-10-14 16:38:53.767543,-28
2021-10-14 16:38:53.993059,-12
2021-10-14 16:38:53.993078,-14
2021-10-14 16:38:53.993088,-26
2021-10-14 16:38:53.993096,-28
2021-10-14 16:38:53.993105,-21
2021-10-14 16:38:53.993113,-19
2021-10-14 16:38:53.993122,-26
2021-10-14 16:38:53.993130,-38
2021-10-14 16:38:53.993138,-33
2021-10-14 16:38:53.993147,-9
2021-10-14 16:38:53.993155,-7
2021-10-14 16:38:53.993163,-19
2021-10-14 16:38:53.993172,-21
2021-10-14 16:38:53.993180,-28
2021-10-14 16:38:53.993188,-40
2021-10-14 16:38:53.993197,-52
2021-10-14 16:38:53.993205,-52
2021-10-14 16:38:53.993213,-43
2021-10-14 16:38:53.993221,-33
2021-10-14 16:38:53.993230,-26
2021-10-14 16:38:53.993238,-50
2021-10-14 16:38:53.993246,-72
2021-10-14 16:38:53.993255,-33
2021-10-14 16:38:53.993263,-2
2021-10-14 16:38:53.993271,-33
2021-10-14 16:38:53.993279,-31
2021-10-14 16:38:53.993288,0
2021-10-14 16:38:53.993296,-26
2021-10-14 16:38:53.993304,-62
2021-10-14 16:38:53.993313,-50
2021-10-14 16:38:54.173031,-38
2021-10-14 16:38:54.173051,-45
2021-10-14 16:38:54.173060,-45
2021-10-14 16:38:54.173069,-43
2021-10-14 16:38:54.173077,-43
2021-10-14 16:38:54.173086,-45
2021-10-14 16:38:54.173095,-52
2021-10-14 16:38:54.173103,-52
2021-10-14 16:38:54.173111,-40
2021-10-14 16:38:54.173120,-9
2021-10-14 16:38:54.173128,149
2021-10-14 16:38:54.173137,538
2021-10-14 16:38:54.173145,798
2021-10-14 16:38:54.173153,281
2021-10-14 16:38:54.173162,-795
2021-10-14 16:38:54.173170,-1209
2021-10-14 16:38:54.173179,-658
2021-10-14 16:38:54.173187,-187
2021-10-14 16:38:54.173195,-122
2021-10-14 16:38:54.173204,-24
2021-10-14 16:38:54.173212,69
2021-10-14 16:38:54.173220,50
2021-10-14 16:38:54.173228,50
2021-10-14 16:38:54.173236,76
2021-10-14 16:38:54.173245,74
2021-10-14 16:38:54.173253,69
2021-10-14 16:38:54.173261,76
2021-10-14 16:38:54.173269,91
2021-10-14 16:38:54.173278,108
2021-10-14 16:38:54.173286,113
2021-10-14 16:38:54.398023,113
2021-10-14 16:38:54.398043,127
2021-10-14 16:38:54.398052,132
2021-10-14 16:38:54.398060,141
2021-10-14 16:38:54.398069,165
2021-10-14 16:38:54.398077,158
2021-10-14 16:38:54.398085,151
2021-10-14 16:38:54.398094,187
2021-10-14 16:38:54.398102,202
2021-10-14 16:38:54.398110,187
2021-10-14 16:38:54.398119,216
2021-10-14 16:38:54.398127,235
2021-10-14 16:38:54.398135,197
2021-10-14 16:38:54.398143,165
2021-10-14 16:38:54.398152,168
2021-10-14 16:38:54.398160,149
2021-10-14 16:38:54.398168,98
2021-10-14 16:38:54.398177,40
2021-10-14 16:38:54.398185,19
2021-10-14 16:38:54.398193,12
2021-10-14 16:38:54.398201,-19
2021-10-14 16:38:54.398210,-45
2021-10-14 16:38:54.398218,-62
2021-10-14 16:38:54.398232,-81
2021-10-14 16:38:54.398241,-91
2021-10-14 16:38:54.398249,-81
2021-10-14 16:38:54.398257,-79
2021-10-14 16:38:54.398265,-98
2021-10-14 16:38:54.398274,-103
2021-10-14 16:38:54.398282,-91
2021-10-14 16:38:54.623119,-91
2021-10-14 16:38:54.623139,-86
2021-10-14 16:38:54.623148,-57
2021-10-14 16:38:54.623157,-43
2021-10-14 16:38:54.623165,-48
2021-10-14 16:38:54.623174,-50
2021-10-14 16:38:54.623182,-52
2021-10-14 16:38:54.623190,-55
2021-10-14 16:38:54.623199,-50
2021-10-14 16:38:54.623207,-40
2021-10-14 16:38:54.623215,-28
2021-10-14 16:38:54.623224,-33
2021-10-14 16:38:54.623232,-50
2021-10-14 16:38:54.623240,-40
2021-10-14 16:38:54.623249,-21
2021-10-14 16:38:54.623257,-33
2021-10-14 16:38:54.623266,-50
2021-10-14 16:38:54.623274,-48
2021-10-14 16:38:54.623282,-52
2021-10-14 16:38:54.623290,-69
2021-10-14 16:38:54.623299,-67
2021-10-14 16:38:54.623307,-52
2021-10-14 16:38:54.623315,-55
2021-10-14 16:38:54.623323,-72
2021-10-14 16:38:54.623332,-64
2021-10-14 16:38:54.623340,-40
2021-10-14 16:38:54.623348,-45
2021-10-14 16:38:54.623356,-67
2021-10-14 16:38:54.623364,-69
2021-10-14 16:38:54.623373,-62
2021-10-14 16:38:54.893034,-64
2021-10-14 16:38:54.893053,-74
2021-10-14 16:38:54.893063,-67
2021-10-14 16:38:54.893071,-55
2021-10-14 16:38:54.893080,-57
2021-10-14 16:38:54.893088,-60
2021-10-14 16:38:54.893097,-52
2021-10-14 16:38:54.893105,-57
2021-10-14 16:38:54.893113,-60
2021-10-14 16:38:54.893122,-43
2021-10-14 16:38:54.893130,-50
2021-10-14 16:38:54.893138,-67
2021-10-14 16:38:54.893146,-52
2021-10-14 16:38:54.893155,-31
2021-10-14 16:38:54.893163,-38
2021-10-14 16:38:54.893171,-38
2021-10-14 16:38:54.893179,-12
2021-10-14 16:38:54.893187,-2
2021-10-14 16:38:54.893196,-2
2021-10-14 16:38:54.893204,14
2021-10-14 16:38:54.893212,2
2021-10-14 16:38:54.893220,-48
2021-10-14 16:38:54.893228,-69
2021-10-14 16:38:54.893236,-48
2021-10-14 16:38:54.893245,-40
2021-10-14 16:38:54.893253,-45
2021-10-14 16:38:54.893261,-28
2021-10-14 16:38:54.893269,-7
2021-10-14 16:38:54.893278,-9
2021-10-14 16:38:54.893286,-24
2021-10-14 16:38:55.118111,-24
2021-10-14 16:38:55.118131,-14
2021-10-14 16:38:55.118140,16
2021-10-14 16:38:55.118149,163
2021-10-14 16:38:55.118157,507
2021-10-14 16:38:55.118166,795
2021-10-14 16:38:55.118174,399
2021-10-14 16:38:55.118183,-634
2021-10-14 16:38:55.118191,-1130
2021-10-14 16:38:55.118199,-666
2021-10-14 16:38:55.118208,-218
2021-10-14 16:38:55.118216,-137
2021-10-14 16:38:55.118224,-21
2021-10-14 16:38:55.118232,98
2021-10-14 16:38:55.118241,81
2021-10-14 16:38:55.118249,64
2021-10-14 16:38:55.118258,103
2021-10-14 16:38:55.118266,125
2021-10-14 16:38:55.118274,113
2021-10-14 16:38:55.118283,101
2021-10-14 16:38:55.118291,113
2021-10-14 16:38:55.118299,122
2021-10-14 16:38:55.118308,101
2021-10-14 16:38:55.118316,91
2021-10-14 16:38:55.118324,122
2021-10-14 16:38:55.118333,141
2021-10-14 16:38:55.118341,144
2021-10-14 16:38:55.118349,153
2021-10-14 16:38:55.118357,175
2021-10-14 16:38:55.118366,192
2021-10-14 16:38:55.342664,204
2021-10-14 16:38:55.342684,218
2021-10-14 16:38:55.342693,230
2021-10-14 16:38:55.342702,223
2021-10-14 16:38:55.342710,226
2021-10-14 16:38:55.342719,240
2021-10-14 16:38:55.342727,226
2021-10-14 16:38:55.342735,192
2021-10-14 16:38:55.342744,168
2021-10-14 16:38:55.342752,137
2021-10-14 16:38:55.342760,93
2021-10-14 16:38:55.342769,72
2021-10-14 16:38:55.342777,40
2021-10-14 16:38:55.342785,-24
2021-10-14 16:38:55.342793,-62
2021-10-14 16:38:55.342801,-64
2021-10-14 16:38:55.342810,-69
2021-10-14 16:38:55.342818,-84
2021-10-14 16:38:55.342826,-86
2021-10-14 16:38:55.342834,-81
2021-10-14 16:38:55.342843,-76
2021-10-14 16:38:55.342851,-74
2021-10-14 16:38:55.342859,-86
2021-10-14 16:38:55.342867,-88
2021-10-14 16:38:55.342875,-81
2021-10-14 16:38:55.342883,-88
2021-10-14 16:38:55.342891,-88
2021-10-14 16:38:55.342900,-64
2021-10-14 16:38:55.342908,-55
2021-10-14 16:38:55.342916,-48
2021-10-14 16:38:55.613266,-43
2021-10-14 16:38:55.613286,-38
2021-10-14 16:38:55.613295,-26
2021-10-14 16:38:55.613304,-26
2021-10-14 16:38:55.613312,-31
2021-10-14 16:38:55.613321,-26
2021-10-14 16:38:55.613329,-31
2021-10-14 16:38:55.613337,-38
2021-10-14 16:38:55.613346,-38
2021-10-14 16:38:55.613354,-26
2021-10-14 16:38:55.613363,-28
2021-10-14 16:38:55.613371,-62
2021-10-14 16:38:55.613379,-69
2021-10-14 16:38:55.613387,-50
2021-10-14 16:38:55.613396,-69
2021-10-14 16:38:55.613404,-81
2021-10-14 16:38:55.613412,-64
2021-10-14 16:38:55.613421,-67
2021-10-14 16:38:55.613429,-64
2021-10-14 16:38:55.613437,-50
2021-10-14 16:38:55.613446,-48
2021-10-14 16:38:55.613454,-55
2021-10-14 16:38:55.613462,-69
2021-10-14 16:38:55.613470,-74
2021-10-14 16:38:55.613479,-69
2021-10-14 16:38:55.613487,-76
2021-10-14 16:38:55.613495,-96
2021-10-14 16:38:55.613503,-88
2021-10-14 16:38:55.613512,-50
2021-10-14 16:38:55.613520,-45
2021-10-14 16:38:55.881686,-67
2021-10-14 16:38:55.881705,-52
2021-10-14 16:38:55.881714,-33
2021-10-14 16:38:55.881723,-57
2021-10-14 16:38:55.881732,-81
2021-10-14 16:38:55.881740,-60
2021-10-14 16:38:55.881748,-33
2021-10-14 16:38:55.881757,-45
2021-10-14 16:38:55.881765,-45
2021-10-14 16:38:55.881773,-16
2021-10-14 16:38:55.881781,2
2021-10-14 16:38:55.881789,9
2021-10-14 16:38:55.881798,7
2021-10-14 16:38:55.881806,-24
2021-10-14 16:38:55.881814,-62
2021-10-14 16:38:55.881822,-62
2021-10-14 16:38:55.881831,-40
2021-10-14 16:38:55.881839,-40
2021-10-14 16:38:55.881847,-48
2021-10-14 16:38:55.881855,-43
2021-10-14 16:38:55.881863,-36
2021-10-14 16:38:55.881872,-24
2021-10-14 16:38:55.881880,-16
2021-10-14 16:38:55.881888,-16
2021-10-14 16:38:55.881896,-9
2021-10-14 16:38:55.881905,45
2021-10-14 16:38:55.881913,264
2021-10-14 16:38:55.881921,658
2021-10-14 16:38:55.881929,783
2021-10-14 16:38:55.881937,64
2021-10-14 16:38:56.017750,-976
2021-10-14 16:38:56.017772,-1082
2021-10-14 16:38:56.017781,-444
2021-10-14 16:38:56.017790,-149
2021-10-14 16:38:56.017799,-113
2021-10-14 16:38:56.017807,52
2021-10-14 16:38:56.017815,115
2021-10-14 16:38:56.017824,57
2021-10-14 16:38:56.017832,72
2021-10-14 16:38:56.017840,105
2021-10-14 16:38:56.017848,105
2021-10-14 16:38:56.017857,115
2021-10-14 16:38:56.017865,120
2021-10-14 16:38:56.017874,96
2021-10-14 16:38:56.017882,98
2021-10-14 16:38:56.017890,134
2021-10-14 16:38:56.017899,134
2021-10-14 16:38:56.017907,132
2021-10-14 16:38:56.017915,144
2021-10-14 16:38:56.017924,144
2021-10-14 16:38:56.017932,156
2021-10-14 16:38:56.017940,185
2021-10-14 16:38:56.017949,197
2021-10-14 16:38:56.017957,187
2021-10-14 16:38:56.017965,180
2021-10-14 16:38:56.017973,209
2021-10-14 16:38:56.017982,240
2021-10-14 16:38:56.017990,235
2021-10-14 16:38:56.017999,223
2021-10-14 16:38:56.018007,206
2021-10-14 16:38:56.243101,158
2021-10-14 16:38:56.243122,125
2021-10-14 16:38:56.243131,101
2021-10-14 16:38:56.243140,48
2021-10-14 16:38:56.243149,7
2021-10-14 16:38:56.243157,-12
2021-10-14 16:38:56.243165,-52
2021-10-14 16:38:56.243173,-88
2021-10-14 16:38:56.243182,-84
2021-10-14 16:38:56.243190,-86
2021-10-14 16:38:56.243198,-108
2021-10-14 16:38:56.243207,-98
2021-10-14 16:38:56.243215,-91
2021-10-14 16:38:56.243223,-122
2021-10-14 16:38:56.243231,-129
2021-10-14 16:38:56.243239,-105
2021-10-14 16:38:56.243248,-96
2021-10-14 16:38:56.243256,-105
2021-10-14 16:38:56.243264,-98
2021-10-14 16:38:56.243272,-74
2021-10-14 16:38:56.243280,-72
2021-10-14 16:38:56.243288,-76
2021-10-14 16:38:56.243297,-62
2021-10-14 16:38:56.243305,-52
2021-10-14 16:38:56.243313,-52
2021-10-14 16:38:56.243321,-55
2021-10-14 16:38:56.243330,-55
2021-10-14 16:38:56.243338,-45
2021-10-14 16:38:56.243346,-43
2021-10-14 16:38:56.243354,-57
2021-10-14 16:38:56.557451,-60
2021-10-14 16:38:56.557469,-38
2021-10-14 16:38:56.557479,-45
2021-10-14 16:38:56.557487,-74
2021-10-14 16:38:56.557496,-76
2021-10-14 16:38:56.557504,-76
2021-10-14 16:38:56.557512,-88
2021-10-14 16:38:56.557520,-74
2021-10-14 16:38:56.557529,-64
2021-10-14 16:38:56.557537,-81
2021-10-14 16:38:56.557545,-81
2021-10-14 16:38:56.557554,-64
2021-10-14 16:38:56.557562,-62
2021-10-14 16:38:56.557570,-64
2021-10-14 16:38:56.557579,-62
2021-10-14 16:38:56.557587,-67
2021-10-14 16:38:56.557595,-69
2021-10-14 16:38:56.557607,-60
2021-10-14 16:38:56.557615,-57
2021-10-14 16:38:56.557623,-60
2021-10-14 16:38:56.557632,-55
2021-10-14 16:38:56.557640,-48
2021-10-14 16:38:56.557648,-36
2021-10-14 16:38:56.557656,-16
2021-10-14 16:38:56.557665,-16
2021-10-14 16:38:56.557673,-40
2021-10-14 16:38:56.557681,-43
2021-10-14 16:38:56.557690,-28
2021-10-14 16:38:56.557698,-31
2021-10-14 16:38:56.557706,-28
2021-10-14 16:38:56.692653,-12
2021-10-14 16:38:56.692671,-16
2021-10-14 16:38:56.692680,-26
2021-10-14 16:38:56.692689,-7
2021-10-14 16:38:56.692697,4
2021-10-14 16:38:56.692706,2
2021-10-14 16:38:56.692714,-9
2021-10-14 16:38:56.692723,-21
2021-10-14 16:38:56.692731,9
2021-10-14 16:38:56.692739,43
2021-10-14 16:38:56.692748,-9
2021-10-14 16:38:56.692756,-60
2021-10-14 16:38:56.692764,-31
2021-10-14 16:38:56.692773,-7
2021-10-14 16:38:56.692781,-21
2021-10-14 16:38:56.692789,-33
2021-10-14 16:38:56.692798,-33
2021-10-14 16:38:56.692806,-26
2021-10-14 16:38:56.692814,-14
2021-10-14 16:38:56.692822,-26
2021-10-14 16:38:56.692831,-43
2021-10-14 16:38:56.692839,-16
2021-10-14 16:38:56.692847,31
2021-10-14 16:38:56.692856,134
2021-10-14 16:38:56.692864,454
2021-10-14 16:38:56.692872,815
2021-10-14 16:38:56.692881,555
2021-10-14 16:38:56.692889,-461
2021-10-14 16:38:56.692897,-1142
2021-10-14 16:38:56.692905,-750
2021-10-14 16:38:57.053174,-194
2021-10-14 16:38:57.053195,-101
2021-10-14 16:38:57.053205,-33
2021-10-14 16:38:57.053213,93
2021-10-14 16:38:57.053222,88
2021-10-14 16:38:57.053230,69
2021-10-14 16:38:57.053239,117
2021-10-14 16:38:57.053247,122
2021-10-14 16:38:57.053256,91
2021-10-14 16:38:57.053264,81
2021-10-14 16:38:57.053272,76
2021-10-14 16:38:57.053281,86
2021-10-14 16:38:57.053289,125
2021-10-14 16:38:57.053298,134
2021-10-14 16:38:57.053306,103
2021-10-14 16:38:57.053315,115
2021-10-14 16:38:57.053323,165
2021-10-14 16:38:57.053331,187
2021-10-14 16:38:57.053340,180
2021-10-14 16:38:57.053348,175
2021-10-14 16:38:57.053357,180
2021-10-14 16:38:57.053365,187
2021-10-14 16:38:57.053373,194
2021-10-14 16:38:57.053381,214
2021-10-14 16:38:57.053390,230
2021-10-14 16:38:57.053398,233
2021-10-14 16:38:57.053407,226
2021-10-14 16:38:57.053415,214
2021-10-14 16:38:57.053423,168
2021-10-14 16:38:57.053432,132
2021-10-14 16:38:57.188053,134
2021-10-14 16:38:57.188072,101
2021-10-14 16:38:57.188082,21
2021-10-14 16:38:57.188090,-24
2021-10-14 16:38:57.188099,-26
2021-10-14 16:38:57.188107,-28
2021-10-14 16:38:57.188115,-48
2021-10-14 16:38:57.188124,-69
2021-10-14 16:38:57.188132,-84
2021-10-14 16:38:57.188140,-98
2021-10-14 16:38:57.188148,-115
2021-10-14 16:38:57.188156,-125
2021-10-14 16:38:57.188164,-125
2021-10-14 16:38:57.188173,-127
2021-10-14 16:38:57.188181,-141
2021-10-14 16:38:57.188189,-141
2021-10-14 16:38:57.188197,-101
2021-10-14 16:38:57.188205,-86
2021-10-14 16:38:57.188213,-110
2021-10-14 16:38:57.188222,-98
2021-10-14 16:38:57.188230,-81
2021-10-14 16:38:57.188238,-96
2021-10-14 16:38:57.188246,-91
2021-10-14 16:38:57.188254,-69
2021-10-14 16:38:57.188262,-67
2021-10-14 16:38:57.188271,-69
2021-10-14 16:38:57.188279,-67
2021-10-14 16:38:57.188287,-67
2021-10-14 16:38:57.188295,-67
2021-10-14 16:38:57.188303,-60
2021-10-14 16:38:57.503149,-57
2021-10-14 16:38:57.503170,-60
2021-10-14 16:38:57.503179,-55
2021-10-14 16:38:57.503188,-52
2021-10-14 16:38:57.503196,-62
2021-10-14 16:38:57.503204,-62
2021-10-14 16:38:57.503213,-48
2021-10-14 16:38:57.503221,-40
2021-10-14 16:38:57.503229,-52
2021-10-14 16:38:57.503237,-69
2021-10-14 16:38:57.503245,-67
2021-10-14 16:38:57.503254,-64
2021-10-14 16:38:57.503262,-50
2021-10-14 16:38:57.503270,-45
2021-10-14 16:38:57.503278,-72
2021-10-14 16:38:57.503286,-69
2021-10-14 16:38:57.503295,-40
2021-10-14 16:38:57.503303,-45
2021-10-14 16:38:57.503311,-55
2021-10-14 16:38:57.503319,-45
2021-10-14 16:38:57.503328,-55
2021-10-14 16:38:57.503336,-52
2021-10-14 16:38:57.503344,-28
2021-10-14 16:38:57.503352,-31
2021-10-14 16:38:57.503361,-26
2021-10-14 16:38:57.503369,-12
2021-10-14 16:38:57.503377,-21
2021-10-14 16:38:57.503385,-31
2021-10-14 16:38:57.503393,-26
2021-10-14 16:38:57.503402,-14
2021-10-14 16:38:57.683114,2
2021-10-14 16:38:57.683134,19
2021-10-14 16:38:57.683143,19
2021-10-14 16:38:57.683152,9
2021-10-14 16:38:57.683160,16
2021-10-14 16:38:57.683168,12
2021-10-14 16:38:57.683177,-12
2021-10-14 16:38:57.683185,-16
2021-10-14 16:38:57.683193,-14
2021-10-14 16:38:57.683201,-31
2021-10-14 16:38:57.683210,-14
2021-10-14 16:38:57.683218,12
2021-10-14 16:38:57.683226,-7
2021-10-14 16:38:57.683234,-31
2021-10-14 16:38:57.683242,-12
2021-10-14 16:38:57.683250,12
2021-10-14 16:38:57.683259,-2
2021-10-14 16:38:57.683267,9
2021-10-14 16:38:57.683275,163
2021-10-14 16:38:57.683284,512
2021-10-14 16:38:57.683292,774
2021-10-14 16:38:57.683300,355
2021-10-14 16:38:57.683308,-673
2021-10-14 16:38:57.683316,-1149
2021-10-14 16:38:57.683325,-668
2021-10-14 16:38:57.683333,-221
2021-10-14 16:38:57.683341,-139
2021-10-14 16:38:57.683349,-12
2021-10-14 16:38:57.683357,79
2021-10-14 16:38:57.683366,48
2021-10-14 16:38:57.996371,57
2021-10-14 16:38:57.996390,98
2021-10-14 16:38:57.996399,98
2021-10-14 16:38:57.996408,98
2021-10-14 16:38:57.996416,120
2021-10-14 16:38:57.996425,117
2021-10-14 16:38:57.996433,98
2021-10-14 16:38:57.996441,113
2021-10-14 16:38:57.996449,139
2021-10-14 16:38:57.996458,137
2021-10-14 16:38:57.996466,137
2021-10-14 16:38:57.996474,158
2021-10-14 16:38:57.996482,170
2021-10-14 16:38:57.996491,165
2021-10-14 16:38:57.996499,168
2021-10-14 16:38:57.996507,177
2021-10-14 16:38:57.996515,189
2021-10-14 16:38:57.996524,199
2021-10-14 16:38:57.996532,197
2021-10-14 16:38:57.996540,204
2021-10-14 16:38:57.996548,216
2021-10-14 16:38:57.996556,185
2021-10-14 16:38:57.996565,151
2021-10-14 16:38:57.996573,153
2021-10-14 16:38:57.996581,129
2021-10-14 16:38:57.996589,64
2021-10-14 16:38:57.996597,26
2021-10-14 16:38:57.996606,-2
2021-10-14 16:38:57.996614,-60
2021-10-14 16:38:57.996622,-81
2021-10-14 16:38:58.088186,-57
2021-10-14 16:38:58.088207,-79
2021-10-14 16:38:58.088216,-125
2021-10-14 16:38:58.088224,-129
2021-10-14 16:38:58.088233,-120
2021-10-14 16:38:58.088241,-125
2021-10-14 16:38:58.088249,-125
2021-10-14 16:38:58.088258,-127
2021-10-14 16:38:58.088266,-151
2021-10-14 16:38:58.088274,-156
2021-10-14 16:38:58.088283,-113
2021-10-14 16:38:58.088291,-88
2021-10-14 16:38:58.088299,-113
2021-10-14 16:38:58.088307,-115
2021-10-14 16:38:58.088316,-76
2021-10-14 16:38:58.088324,-62
2021-10-14 16:38:58.088332,-81
2021-10-14 16:38:58.088340,-101
2021-10-14 16:38:58.088348,-105
2021-10-14 16:38:58.088356,-84
2021-10-14 16:38:58.088365,-50
2021-10-14 16:38:58.088373,-45
2021-10-14 16:38:58.088381,-76
2021-10-14 16:38:58.088389,-88
2021-10-14 16:38:58.088397,-62
2021-10-14 16:38:58.088405,-48
2021-10-14 16:38:58.088414,-67
2021-10-14 16:38:58.088422,-84
2021-10-14 16:38:58.088430,-74
2021-10-14 16:38:58.088438,-62
2021-10-14 16:38:58.313162,-67
2021-10-14 16:38:58.313183,-88
2021-10-14 16:38:58.313192,-79
2021-10-14 16:38:58.313201,-24
2021-10-14 16:38:58.313209,-16
2021-10-14 16:38:58.313217,-60
2021-10-14 16:38:58.313225,-79
2021-10-14 16:38:58.313234,-60
2021-10-14 16:38:58.313242,-45
2021-10-14 16:38:58.313250,-48
2021-10-14 16:38:58.313258,-55
2021-10-14 16:38:58.313266,-72
2021-10-14 16:38:58.313275,-76
2021-10-14 16:38:58.313283,-40
2021-10-14 16:38:58.313291,-9
2021-10-14 16:38:58.313299,-26
2021-10-14 16:38:58.313307,-50
2021-10-14 16:38:58.313315,-40
2021-10-14 16:38:58.313324,-40
2021-10-14 16:38:58.313332,-57
2021-10-14 16:38:58.313340,-36
2021-10-14 16:38:58.313348,-12
2021-10-14 16:38:58.313356,-43
2021-10-14 16:38:58.313365,-60
2021-10-14 16:38:58.313373,-33
2021-10-14 16:38:58.313381,-7
2021-10-14 16:38:58.313389,2
2021-10-14 16:38:58.313398,2
2021-10-14 16:38:58.313406,7
2021-10-14 16:38:58.313414,19
2021-10-14 16:38:58.537746,26
2021-10-14 16:38:58.537766,2
2021-10-14 16:38:58.537776,-21
2021-10-14 16:38:58.537784,-21
2021-10-14 16:38:58.537793,-40
2021-10-14 16:38:58.537801,-57
2021-10-14 16:38:58.537810,-28
2021-10-14 16:38:58.537818,-9
2021-10-14 16:38:58.537826,-21
2021-10-14 16:38:58.537835,-19
2021-10-14 16:38:58.537843,-24
2021-10-14 16:38:58.537851,-21
2021-10-14 16:38:58.537860,0
2021-10-14 16:38:58.537868,21
2021-10-14 16:38:58.537876,117
2021-10-14 16:38:58.537885,435
2021-10-14 16:38:58.537893,776
2021-10-14 16:38:58.537902,512
2021-10-14 16:38:58.537910,-473
2021-10-14 16:38:58.537918,-1098
2021-10-14 16:38:58.537926,-697
2021-10-14 16:38:58.537934,-197
2021-10-14 16:38:58.537943,-132
2021-10-14 16:38:58.537951,-33
2021-10-14 16:38:58.537959,115
2021-10-14 16:38:58.537968,88
2021-10-14 16:38:58.537976,38
2021-10-14 16:38:58.537984,55
2021-10-14 16:38:58.537993,69
2021-10-14 16:38:58.538001,91
2021-10-14 16:38:58.762721,98
2021-10-14 16:38:58.762741,93
2021-10-14 16:38:58.762750,120
2021-10-14 16:38:58.762759,127
2021-10-14 16:38:58.762767,96
2021-10-14 16:38:58.762775,91
2021-10-14 16:38:58.762784,120
2021-10-14 16:38:58.762792,127
2021-10-14 16:38:58.762801,115
2021-10-14 16:38:58.762809,139
2021-10-14 16:38:58.762817,165
2021-10-14 16:38:58.762825,158
2021-10-14 16:38:58.762834,161
2021-10-14 16:38:58.762842,189
2021-10-14 16:38:58.762859,202
2021-10-14 16:38:58.762868,192
2021-10-14 16:38:58.762876,175
2021-10-14 16:38:58.762885,149
2021-10-14 16:38:58.762893,134
2021-10-14 16:38:58.762901,141
2021-10-14 16:38:58.762910,117
2021-10-14 16:38:58.762918,60
2021-10-14 16:38:58.762926,24
2021-10-14 16:38:58.762934,-16
2021-10-14 16:38:58.762943,-48
2021-10-14 16:38:58.762951,-52
2021-10-14 16:38:58.762959,-96
2021-10-14 16:38:58.762968,-156
2021-10-14 16:38:58.762976,-156
2021-10-14 16:38:58.762984,-125
2021-10-14 16:38:59.077145,-113
2021-10-14 16:38:59.077166,-125
2021-10-14 16:38:59.077175,-144
2021-10-14 16:38:59.077184,-156
2021-10-14 16:38:59.077192,-134
2021-10-14 16:38:59.077201,-117
2021-10-14 16:38:59.077209,-151
2021-10-14 16:38:59.077218,-153
2021-10-14 16:38:59.077226,-98
2021-10-14 16:38:59.077234,-91
2021-10-14 16:38:59.077242,-117
2021-10-14 16:38:59.077251,-96
2021-10-14 16:38:59.077259,-81
2021-10-14 16:38:59.077267,-86
2021-10-14 16:38:59.077276,-64
2021-10-14 16:38:59.077284,-55
2021-10-14 16:38:59.077292,-84
2021-10-14 16:38:59.077300,-74
2021-10-14 16:38:59.077309,-33
2021-10-14 16:38:59.077317,-38
2021-10-14 16:38:59.077325,-69
2021-10-14 16:38:59.077334,-69
2021-10-14 16:38:59.077342,-45
2021-10-14 16:38:59.077350,-28
2021-10-14 16:38:59.077358,-33
2021-10-14 16:38:59.077367,-57
2021-10-14 16:38:59.077375,-74
2021-10-14 16:38:59.077383,-57
2021-10-14 16:38:59.077392,-45
2021-10-14 16:38:59.077400,-60
2021-10-14 16:38:59.257721,-57
2021-10-14 16:38:59.257741,-43
2021-10-14 16:38:59.257751,-48
2021-10-14 16:38:59.257759,-57
2021-10-14 16:38:59.257768,-50
2021-10-14 16:38:59.257776,-52
2021-10-14 16:38:59.257785,-69
2021-10-14 16:38:59.257793,-48
2021-10-14 16:38:59.257801,-33
2021-10-14 16:38:59.257809,-67
2021-10-14 16:38:59.257818,-91
2021-10-14 16:38:59.257826,-60
2021-10-14 16:38:59.257834,-26
2021-10-14 16:38:59.257842,-38
2021-10-14 16:38:59.257850,-57
2021-10-14 16:38:59.257859,-45
2021-10-14 16:38:59.257867,-43
2021-10-14 16:38:59.257875,-43
2021-10-14 16:38:59.257883,-24
2021-10-14 16:38:59.257891,-26
2021-10-14 16:38:59.257900,-48
2021-10-14 16:38:59.257908,-33
2021-10-14 16:38:59.257916,9
2021-10-14 16:38:59.257924,36
2021-10-14 16:38:59.257933,4
2021-10-14 16:38:59.257941,-38
2021-10-14 16:38:59.257949,-40
2021-10-14 16:38:59.257957,-24
2021-10-14 16:38:59.257965,-36
2021-10-14 16:38:59.257974,-45
2021-10-14 16:38:59.483138,-36
2021-10-14 16:38:59.483159,-33
2021-10-14 16:38:59.483168,-43
2021-10-14 16:38:59.483177,-38
2021-10-14 16:38:59.483185,-28
2021-10-14 16:38:59.483194,-33
2021-10-14 16:38:59.483202,-24
2021-10-14 16:38:59.483211,19
2021-10-14 16:38:59.483219,180
2021-10-14 16:38:59.483227,541
2021-10-14 16:38:59.483236,791
2021-10-14 16:38:59.483244,327
2021-10-14 16:38:59.483252,-704
2021-10-14 16:38:59.483261,-1132
2021-10-14 16:38:59.483269,-608
2021-10-14 16:38:59.483277,-151
2021-10-14 16:38:59.483286,-101
2021-10-14 16:38:59.483294,-7
2021-10-14 16:38:59.483302,93
2021-10-14 16:38:59.483311,62
2021-10-14 16:38:59.483319,67
2021-10-14 16:38:59.483328,108
2021-10-14 16:38:59.483336,88
2021-10-14 16:38:59.483344,67
2021-10-14 16:38:59.483353,86
2021-10-14 16:38:59.483361,101
2021-10-14 16:38:59.483369,98
2021-10-14 16:38:59.483378,91
2021-10-14 16:38:59.483386,101
2021-10-14 16:38:59.483395,137
2021-10-14 16:38:59.708113,146
2021-10-14 16:38:59.708133,134
2021-10-14 16:38:59.708143,139
2021-10-14 16:38:59.708151,144
2021-10-14 16:38:59.708160,151
2021-10-14 16:38:59.708168,173
2021-10-14 16:38:59.708176,182
2021-10-14 16:38:59.708185,173
2021-10-14 16:38:59.708193,182
2021-10-14 16:38:59.708202,182
2021-10-14 16:38:59.708210,149
2021-10-14 16:38:59.708218,137
2021-10-14 16:38:59.708227,134
2021-10-14 16:38:59.708235,101
2021-10-14 16:38:59.708244,60
2021-10-14 16:38:59.708252,31
2021-10-14 16:38:59.708260,4
2021-10-14 16:38:59.708268,-26
2021-10-14 16:38:59.708277,-69
2021-10-14 16:38:59.708285,-98
2021-10-14 16:38:59.708293,-110
2021-10-14 16:38:59.708302,-134
2021-10-14 16:38:59.708310,-153
2021-10-14 16:38:59.708318,-141
2021-10-14 16:38:59.708327,-137
2021-10-14 16:38:59.708335,-141
2021-10-14 16:38:59.708343,-137
2021-10-14 16:38:59.708351,-132
2021-10-14 16:38:59.708360,-134
2021-10-14 16:38:59.708368,-137
2021-10-14 16:38:59.976324,-120
2021-10-14 16:38:59.976342,-105
2021-10-14 16:38:59.976352,-115
2021-10-14 16:38:59.976361,-110
2021-10-14 16:38:59.976369,-91
2021-10-14 16:38:59.976378,-93
2021-10-14 16:38:59.976386,-105
2021-10-14 16:38:59.976394,-96
2021-10-14 16:38:59.976403,-74
2021-10-14 16:38:59.976411,-67
2021-10-14 16:38:59.976420,-74
2021-10-14 16:38:59.976428,-69
2021-10-14 16:38:59.976436,-52
2021-10-14 16:38:59.976445,-55
2021-10-14 16:38:59.976453,-67
2021-10-14 16:38:59.976462,-62
2021-10-14 16:38:59.976470,-55
2021-10-14 16:38:59.976478,-62
2021-10-14 16:38:59.976487,-67
2021-10-14 16:38:59.976495,-60
2021-10-14 16:38:59.976504,-55
2021-10-14 16:38:59.976512,-60
2021-10-14 16:38:59.976520,-55
2021-10-14 16:38:59.976529,-43
2021-10-14 16:38:59.976537,-33
2021-10-14 16:38:59.976545,-28
2021-10-14 16:38:59.976554,-38
2021-10-14 16:38:59.976562,-50
2021-10-14 16:38:59.976571,-52
2021-10-14 16:38:59.976579,-48
2021-10-14 16:39:00.203177,-28
2021-10-14 16:39:00.203199,0
2021-10-14 16:39:00.203208,-12
2021-10-14 16:39:00.203217,-36
2021-10-14 16:39:00.203225,-28
2021-10-14 16:39:00.203234,-33
2021-10-14 16:39:00.203242,-62
2021-10-14 16:39:00.203250,-45
2021-10-14 16:39:00.203258,-14
2021-10-14 16:39:00.203266,-21
2021-10-14 16:39:00.203275,-28
2021-10-14 16:39:00.203283,-19
2021-10-14 16:39:00.203291,-21
2021-10-14 16:39:00.203299,-7
2021-10-14 16:39:00.203308,4
2021-10-14 16:39:00.203316,-7
2021-10-14 16:39:00.203324,0
2021-10-14 16:39:00.203332,-4
2021-10-14 16:39:00.203340,-45
2021-10-14 16:39:00.203348,-62
2021-10-14 16:39:00.203357,-55
2021-10-14 16:39:00.203365,-45
2021-10-14 16:39:00.203373,-26
2021-10-14 16:39:00.203381,-12
2021-10-14 16:39:00.203389,-14
2021-10-14 16:39:00.203398,-21
2021-10-14 16:39:00.203406,-21
2021-10-14 16:39:00.203414,-24
2021-10-14 16:39:00.203422,-9
2021-10-14 16:39:00.203430,16
2021-10-14 16:39:00.428106,52
2021-10-14 16:39:00.428126,242
2021-10-14 16:39:00.428136,642
2021-10-14 16:39:00.428145,786
2021-10-14 16:39:00.428153,74
2021-10-14 16:39:00.428162,-913
2021-10-14 16:39:00.428170,-981
2021-10-14 16:39:00.428179,-418
2021-10-14 16:39:00.428187,-144
2021-10-14 16:39:00.428195,-72
2021-10-14 16:39:00.428204,50
2021-10-14 16:39:00.428212,91
2021-10-14 16:39:00.428221,76
2021-10-14 16:39:00.428229,103
2021-10-14 16:39:00.428237,101
2021-10-14 16:39:00.428245,76
2021-10-14 16:39:00.428254,110
2021-10-14 16:39:00.428262,141
2021-10-14 16:39:00.428270,122
2021-10-14 16:39:00.428278,117
2021-10-14 16:39:00.428287,139
2021-10-14 16:39:00.428295,146
2021-10-14 16:39:00.428303,144
2021-10-14 16:39:00.428312,151
2021-10-14 16:39:00.428320,168
2021-10-14 16:39:00.428328,180
2021-10-14 16:39:00.428336,173
2021-10-14 16:39:00.428345,173
2021-10-14 16:39:00.428353,230
2021-10-14 16:39:00.428361,257
2021-10-14 16:39:00.652730,221
2021-10-14 16:39:00.652749,230
2021-10-14 16:39:00.652759,264
2021-10-14 16:39:00.652767,247
2021-10-14 16:39:00.652776,211
2021-10-14 16:39:00.652784,197
2021-10-14 16:39:00.652793,177
2021-10-14 16:39:00.652801,134
2021-10-14 16:39:00.652810,74
2021-10-14 16:39:00.652818,7
2021-10-14 16:39:00.652826,-12
2021-10-14 16:39:00.652835,19
2021-10-14 16:39:00.652843,-7
2021-10-14 16:39:00.652851,-72
2021-10-14 16:39:00.652860,-88
2021-10-14 16:39:00.652868,-96
2021-10-14 16:39:00.652876,-122
2021-10-14 16:39:00.652885,-125
2021-10-14 16:39:00.652893,-110
2021-10-14 16:39:00.652901,-113
2021-10-14 16:39:00.652910,-110
2021-10-14 16:39:00.652918,-108
2021-10-14 16:39:00.652926,-127
2021-10-14 16:39:00.652935,-117
2021-10-14 16:39:00.652943,-91
2021-10-14 16:39:00.652951,-93
2021-10-14 16:39:00.652959,-91
2021-10-14 16:39:00.652968,-72
2021-10-14 16:39:00.652976,-72
2021-10-14 16:39:00.652984,-69
2021-10-14 16:39:00.923096,-52
2021-10-14 16:39:00.923116,-45
2021-10-14 16:39:00.923125,-50
2021-10-14 16:39:00.923133,-60
2021-10-14 16:39:00.923142,-52
2021-10-14 16:39:00.923150,-38
2021-10-14 16:39:00.923158,-43
2021-10-14 16:39:00.923167,-43
2021-10-14 16:39:00.923175,-24
2021-10-14 16:39:00.923183,-24
2021-10-14 16:39:00.923192,-57
2021-10-14 16:39:00.923200,-62
2021-10-14 16:39:00.923208,-38
2021-10-14 16:39:00.923217,-36
2021-10-14 16:39:00.923225,-50
2021-10-14 16:39:00.923233,-40
2021-10-14 16:39:00.923241,-26
2021-10-14 16:39:00.923249,-33
2021-10-14 16:39:00.923258,-38
2021-10-14 16:39:00.923266,-28
2021-10-14 16:39:00.923274,-36
2021-10-14 16:39:00.923282,-55
2021-10-14 16:39:00.923291,-33
2021-10-14 16:39:00.923299,0
2021-10-14 16:39:00.923307,-9
2021-10-14 16:39:00.923315,-21
2021-10-14 16:39:00.923323,-12
2021-10-14 16:39:00.923332,-12
2021-10-14 16:39:00.923340,-16
2021-10-14 16:39:00.923348,-12
2021-10-14 16:39:01.147805,-7
2021-10-14 16:39:01.147826,7
2021-10-14 16:39:01.147836,14
2021-10-14 16:39:01.147845,12
2021-10-14 16:39:01.147854,38
2021-10-14 16:39:01.147862,48
2021-10-14 16:39:01.147870,16
2021-10-14 16:39:01.147879,-2
2021-10-14 16:39:01.147887,0
2021-10-14 16:39:01.147896,-9
2021-10-14 16:39:01.147904,-14
2021-10-14 16:39:01.147912,-12
2021-10-14 16:39:01.147921,-24
2021-10-14 16:39:01.147929,-38
2021-10-14 16:39:01.147937,-31
2021-10-14 16:39:01.147946,-9
2021-10-14 16:39:01.147954,7
2021-10-14 16:39:01.147963,-2
2021-10-14 16:39:01.147971,9
2021-10-14 16:39:01.147980,132
2021-10-14 16:39:01.147988,454
2021-10-14 16:39:01.147997,800
2021-10-14 16:39:01.148005,565
2021-10-14 16:39:01.148014,-442
2021-10-14 16:39:01.148022,-1156
2021-10-14 16:39:01.148030,-798
2021-10-14 16:39:01.148039,-254
2021-10-14 16:39:01.148047,-151
2021-10-14 16:39:01.148056,-57
2021-10-14 16:39:01.148064,101
2021-10-14 16:39:01.373127,88
2021-10-14 16:39:01.373147,40
2021-10-14 16:39:01.373157,81
2021-10-14 16:39:01.373165,108
2021-10-14 16:39:01.373174,98
2021-10-14 16:39:01.373182,105
2021-10-14 16:39:01.373191,115
2021-10-14 16:39:01.373199,110
2021-10-14 16:39:01.373207,105
2021-10-14 16:39:01.373215,125
2021-10-14 16:39:01.373223,137
2021-10-14 16:39:01.373231,132
2021-10-14 16:39:01.373240,137
2021-10-14 16:39:01.373248,151
2021-10-14 16:39:01.373256,158
2021-10-14 16:39:01.373264,175
2021-10-14 16:39:01.373273,194
2021-10-14 16:39:01.373281,209
2021-10-14 16:39:01.373289,221
2021-10-14 16:39:01.373304,223
2021-10-14 16:39:01.373312,216
2021-10-14 16:39:01.373321,211
2021-10-14 16:39:01.373329,211
2021-10-14 16:39:01.373337,206
2021-10-14 16:39:01.373345,180
2021-10-14 16:39:01.373354,146
2021-10-14 16:39:01.373362,108
2021-10-14 16:39:01.373370,52
2021-10-14 16:39:01.373378,7
2021-10-14 16:39:01.373387,-19
2021-10-14 16:39:01.642513,-38
2021-10-14 16:39:01.642533,-64
2021-10-14 16:39:01.642543,-91
2021-10-14 16:39:01.642551,-101
2021-10-14 16:39:01.642560,-105
2021-10-14 16:39:01.642568,-110
2021-10-14 16:39:01.642577,-115
2021-10-14 16:39:01.642585,-117
2021-10-14 16:39:01.642593,-120
2021-10-14 16:39:01.642602,-125
2021-10-14 16:39:01.642610,-125
2021-10-14 16:39:01.642618,-115
2021-10-14 16:39:01.642627,-117
2021-10-14 16:39:01.642635,-117
2021-10-14 16:39:01.642643,-105
2021-10-14 16:39:01.642652,-101
2021-10-14 16:39:01.642660,-105
2021-10-14 16:39:01.642668,-96
2021-10-14 16:39:01.642677,-84
2021-10-14 16:39:01.642685,-86
2021-10-14 16:39:01.642693,-84
2021-10-14 16:39:01.642702,-79
2021-10-14 16:39:01.642710,-76
2021-10-14 16:39:01.642718,-60
2021-10-14 16:39:01.642727,-52
2021-10-14 16:39:01.642735,-74
2021-10-14 16:39:01.642743,-76
2021-10-14 16:39:01.642751,-57
2021-10-14 16:39:01.642760,-55
2021-10-14 16:39:01.642768,-52
2021-10-14 16:39:01.777705,-50
2021-10-14 16:39:01.777724,-62
2021-10-14 16:39:01.777733,-69
2021-10-14 16:39:01.777742,-74
2021-10-14 16:39:01.777751,-76
2021-10-14 16:39:01.777759,-67
2021-10-14 16:39:01.777767,-62
2021-10-14 16:39:01.777776,-67
2021-10-14 16:39:01.777784,-67
2021-10-14 16:39:01.777792,-62
2021-10-14 16:39:01.777801,-62
2021-10-14 16:39:01.777809,-69
2021-10-14 16:39:01.777818,-76
2021-10-14 16:39:01.777826,-79
2021-10-14 16:39:01.777834,-67
2021-10-14 16:39:01.777842,-50
2021-10-14 16:39:01.777851,-38
2021-10-14 16:39:01.777859,-45
2021-10-14 16:39:01.777867,-52
2021-10-14 16:39:01.777876,-40
2021-10-14 16:39:01.777884,-40
2021-10-14 16:39:01.777892,-50
2021-10-14 16:39:01.777900,-45
2021-10-14 16:39:01.777909,-38
2021-10-14 16:39:01.777917,-33
2021-10-14 16:39:01.777925,-19
2021-10-14 16:39:01.777934,-4
2021-10-14 16:39:01.777942,9
2021-10-14 16:39:01.777951,19
2021-10-14 16:39:01.777959,-2
2021-10-14 16:39:02.046617,-33
2021-10-14 16:39:02.046633,-36
2021-10-14 16:39:02.046638,-26
2021-10-14 16:39:02.046643,-31
2021-10-14 16:39:02.046647,-36
2021-10-14 16:39:02.046652,-26
2021-10-14 16:39:02.046656,-24
2021-10-14 16:39:02.046661,-28
2021-10-14 16:39:02.046665,-21
2021-10-14 16:39:02.046669,-16
2021-10-14 16:39:02.046674,-19
2021-10-14 16:39:02.046678,16
2021-10-14 16:39:02.046682,192
2021-10-14 16:39:02.046687,572
2021-10-14 16:39:02.046691,810
2021-10-14 16:39:02.046696,303
2021-10-14 16:39:02.046700,-731
2021-10-14 16:39:02.046705,-1115
2021-10-14 16:39:02.046709,-569
2021-10-14 16:39:02.046714,-132
2021-10-14 16:39:02.046718,-98
2021-10-14 16:39:02.046723,-2
2021-10-14 16:39:02.046727,98
2021-10-14 16:39:02.046731,72
2021-10-14 16:39:02.046736,72
2021-10-14 16:39:02.046740,103
2021-10-14 16:39:02.046745,88
2021-10-14 16:39:02.046749,86
2021-10-14 16:39:02.046754,110
2021-10-14 16:39:02.046759,113
2021-10-14 16:39:02.228182,103
2021-10-14 16:39:02.228202,115
2021-10-14 16:39:02.228212,122
2021-10-14 16:39:02.228220,122
2021-10-14 16:39:02.228229,129
2021-10-14 16:39:02.228237,141
2021-10-14 16:39:02.228246,153
2021-10-14 16:39:02.228254,161
2021-10-14 16:39:02.228263,161
2021-10-14 16:39:02.228271,165
2021-10-14 16:39:02.228280,175
2021-10-14 16:39:02.228288,180
2021-10-14 16:39:02.228296,185
2021-10-14 16:39:02.228305,189
2021-10-14 16:39:02.228314,189
2021-10-14 16:39:02.228322,182
2021-10-14 16:39:02.228330,168
2021-10-14 16:39:02.228338,141
2021-10-14 16:39:02.228347,110
2021-10-14 16:39:02.228355,86
2021-10-14 16:39:02.228364,52
2021-10-14 16:39:02.228372,7
2021-10-14 16:39:02.228380,-28
2021-10-14 16:39:02.228389,-55
2021-10-14 16:39:02.228397,-76
2021-10-14 16:39:02.228405,-88
2021-10-14 16:39:02.228414,-98
2021-10-14 16:39:02.228422,-110
2021-10-14 16:39:02.228431,-117
2021-10-14 16:39:02.228439,-115
2021-10-14 16:39:02.452790,-113
2021-10-14 16:39:02.452810,-113
2021-10-14 16:39:02.452819,-113
2021-10-14 16:39:02.452828,-113
2021-10-14 16:39:02.452837,-120
2021-10-14 16:39:02.452845,-120
2021-10-14 16:39:02.452853,-120
2021-10-14 16:39:02.452862,-117
2021-10-14 16:39:02.452870,-108
2021-10-14 16:39:02.452879,-103
2021-10-14 16:39:02.452887,-101
2021-10-14 16:39:02.452896,-93
2021-10-14 16:39:02.452904,-88
2021-10-14 16:39:02.452913,-81
2021-10-14 16:39:02.452921,-72
2021-10-14 16:39:02.452929,-69
2021-10-14 16:39:02.452938,-72
2021-10-14 16:39:02.452946,-64
2021-10-14 16:39:02.452954,-60
2021-10-14 16:39:02.452963,-55
2021-10-14 16:39:02.452971,-50
2021-10-14 16:39:02.452979,-52
2021-10-14 16:39:02.452988,-60
2021-10-14 16:39:02.452996,-62
2021-10-14 16:39:02.453004,-64
2021-10-14 16:39:02.453012,-62
2021-10-14 16:39:02.453021,-60
2021-10-14 16:39:02.453029,-60
2021-10-14 16:39:02.453037,-55
2021-10-14 16:39:02.453046,-52
2021-10-14 16:39:02.723125,-52
2021-10-14 16:39:02.723144,-55
2021-10-14 16:39:02.723154,-60
2021-10-14 16:39:02.723162,-62
2021-10-14 16:39:02.723171,-60
2021-10-14 16:39:02.723179,-52
2021-10-14 16:39:02.723188,-40
2021-10-14 16:39:02.723196,-33
2021-10-14 16:39:02.723204,-36
2021-10-14 16:39:02.723212,-50
2021-10-14 16:39:02.723221,-52
2021-10-14 16:39:02.723229,-45
2021-10-14 16:39:02.723237,-43
2021-10-14 16:39:02.723245,-45
2021-10-14 16:39:02.723253,-50
2021-10-14 16:39:02.723261,-48
2021-10-14 16:39:02.723269,-33
2021-10-14 16:39:02.723278,-21
2021-10-14 16:39:02.723286,-12
2021-10-14 16:39:02.723294,2
2021-10-14 16:39:02.723303,0
2021-10-14 16:39:02.723311,-26
2021-10-14 16:39:02.723319,-40
2021-10-14 16:39:02.723327,-40
2021-10-14 16:39:02.723335,-40
2021-10-14 16:39:02.723344,-36
2021-10-14 16:39:02.723352,-38
2021-10-14 16:39:02.723360,-48
2021-10-14 16:39:02.723368,-40
2021-10-14 16:39:02.723376,-28
2021-10-14 16:39:03.037814,-16
2021-10-14 16:39:03.037834,-7
2021-10-14 16:39:03.037844,2
2021-10-14 16:39:03.037853,38
2021-10-14 16:39:03.037861,209
2021-10-14 16:39:03.037870,584
2021-10-14 16:39:03.037878,800
2021-10-14 16:39:03.037887,242
2021-10-14 16:39:03.037895,-788
2021-10-14 16:39:03.037904,-1096
2021-10-14 16:39:03.037912,-555
2021-10-14 16:39:03.037920,-168
2021-10-14 16:39:03.037929,-108
2021-10-14 16:39:03.037937,9
2021-10-14 16:39:03.037946,88
2021-10-14 16:39:03.037954,62
2021-10-14 16:39:03.037963,74
2021-10-14 16:39:03.037971,110
2021-10-14 16:39:03.037979,103
2021-10-14 16:39:03.037988,98
2021-10-14 16:39:03.037996,110
2021-10-14 16:39:03.038005,115
2021-10-14 16:39:03.038013,117
2021-10-14 16:39:03.038021,125
2021-10-14 16:39:03.038030,137
2021-10-14 16:39:03.038038,144
2021-10-14 16:39:03.038047,149
2021-10-14 16:39:03.038055,153
2021-10-14 16:39:03.038064,158
2021-10-14 16:39:03.038072,170
2021-10-14 16:39:03.172805,187
2021-10-14 16:39:03.172826,202
2021-10-14 16:39:03.172835,216
2021-10-14 16:39:03.172844,228
2021-10-14 16:39:03.172852,230
2021-10-14 16:39:03.172861,242
2021-10-14 16:39:03.172869,242
2021-10-14 16:39:03.172877,211
2021-10-14 16:39:03.172885,182
2021-10-14 16:39:03.172894,175
2021-10-14 16:39:03.172902,158
2021-10-14 16:39:03.172910,115
2021-10-14 16:39:03.172919,67
2021-10-14 16:39:03.172927,28
2021-10-14 16:39:03.172935,-12
2021-10-14 16:39:03.172944,-43
2021-10-14 16:39:03.172952,-67
2021-10-14 16:39:03.172960,-86
2021-10-14 16:39:03.172968,-93
2021-10-14 16:39:03.172976,-88
2021-10-14 16:39:03.172985,-98
2021-10-14 16:39:03.172993,-117
2021-10-14 16:39:03.173001,-127
2021-10-14 16:39:03.173009,-127
2021-10-14 16:39:03.173018,-115
2021-10-14 16:39:03.173026,-110
2021-10-14 16:39:03.173034,-120
2021-10-14 16:39:03.173043,-120
2021-10-14 16:39:03.173051,-103
2021-10-14 16:39:03.173059,-96
2021-10-14 16:39:03.398190,-105
2021-10-14 16:39:03.398210,-110
2021-10-14 16:39:03.398220,-98
2021-10-14 16:39:03.398228,-93
2021-10-14 16:39:03.398237,-88
2021-10-14 16:39:03.398245,-81
2021-10-14 16:39:03.398253,-79
2021-10-14 16:39:03.398262,-81
2021-10-14 16:39:03.398270,-81
2021-10-14 16:39:03.398278,-79
2021-10-14 16:39:03.398286,-76
2021-10-14 16:39:03.398295,-72
2021-10-14 16:39:03.398303,-64
2021-10-14 16:39:03.398311,-67
2021-10-14 16:39:03.398320,-76
2021-10-14 16:39:03.398328,-74
2021-10-14 16:39:03.398337,-55
2021-10-14 16:39:03.398345,-52
2021-10-14 16:39:03.398353,-74
2021-10-14 16:39:03.398361,-81
2021-10-14 16:39:03.398368,-62
2021-10-14 16:39:03.398376,-52
2021-10-14 16:39:03.398384,-55
2021-10-14 16:39:03.398392,-50
2021-10-14 16:39:03.398400,-45
2021-10-14 16:39:03.398408,-48
2021-10-14 16:39:03.398416,-45
2021-10-14 16:39:03.398424,-40
2021-10-14 16:39:03.398432,-38
2021-10-14 16:39:03.398441,-31
2021-10-14 16:39:03.623186,-28
2021-10-14 16:39:03.623206,-33
2021-10-14 16:39:03.623216,-33
2021-10-14 16:39:03.623224,-24
2021-10-14 16:39:03.623233,-7
2021-10-14 16:39:03.623241,-12
2021-10-14 16:39:03.623250,-14
2021-10-14 16:39:03.623258,-2
2021-10-14 16:39:03.623267,-14
2021-10-14 16:39:03.623275,-36
2021-10-14 16:39:03.623283,-36
2021-10-14 16:39:03.623292,-36
2021-10-14 16:39:03.623300,-50
2021-10-14 16:39:03.623309,-50
2021-10-14 16:39:03.623317,-40
2021-10-14 16:39:03.623325,-43
2021-10-14 16:39:03.623333,-43
2021-10-14 16:39:03.623342,-26
2021-10-14 16:39:03.623350,-16
2021-10-14 16:39:03.623358,-16
2021-10-14 16:39:03.623367,2
2021-10-14 16:39:03.623375,88
2021-10-14 16:39:03.623383,355
2021-10-14 16:39:03.623392,738
2021-10-14 16:39:03.623400,687
2021-10-14 16:39:03.623408,-209
2021-10-14 16:39:03.623417,-1103
2021-10-14 16:39:03.623425,-954
2021-10-14 16:39:03.623433,-351
2021-10-14 16:39:03.623441,-153
2021-10-14 16:39:03.847756,-84
2021-10-14 16:39:03.847775,60
2021-10-14 16:39:03.847784,81
2021-10-14 16:39:03.847793,50
2021-10-14 16:39:03.847801,84
2021-10-14 16:39:03.847809,98
2021-10-14 16:39:03.847818,79
2021-10-14 16:39:03.847827,86
2021-10-14 16:39:03.847835,103
2021-10-14 16:39:03.847843,108
2021-10-14 16:39:03.847852,108
2021-10-14 16:39:03.847860,103
2021-10-14 16:39:03.847868,103
2021-10-14 16:39:03.847877,122
2021-10-14 16:39:03.847885,132
2021-10-14 16:39:03.847893,129
2021-10-14 16:39:03.847902,149
2021-10-14 16:39:03.847910,170
2021-10-14 16:39:03.847918,180
2021-10-14 16:39:03.847927,194
2021-10-14 16:39:03.847935,211
2021-10-14 16:39:03.847944,223
2021-10-14 16:39:03.847952,240
2021-10-14 16:39:03.847960,245
2021-10-14 16:39:03.847969,226
2021-10-14 16:39:03.847977,199
2021-10-14 16:39:03.847986,180
2021-10-14 16:39:03.847994,151
2021-10-14 16:39:03.848003,110
2021-10-14 16:39:03.848011,76
2021-10-14 16:39:04.161499,55
2021-10-14 16:39:04.161520,21
2021-10-14 16:39:04.161530,-21
2021-10-14 16:39:04.161538,-52
2021-10-14 16:39:04.161547,-72
2021-10-14 16:39:04.161555,-91
2021-10-14 16:39:04.161564,-105
2021-10-14 16:39:04.161572,-108
2021-10-14 16:39:04.161580,-105
2021-10-14 16:39:04.161589,-103
2021-10-14 16:39:04.161597,-108
2021-10-14 16:39:04.161605,-122
2021-10-14 16:39:04.161613,-120
2021-10-14 16:39:04.161622,-103
2021-10-14 16:39:04.161630,-103
2021-10-14 16:39:04.161639,-105
2021-10-14 16:39:04.161647,-96
2021-10-14 16:39:04.161655,-81
2021-10-14 16:39:04.161664,-72
2021-10-14 16:39:04.161672,-62
2021-10-14 16:39:04.161680,-60
2021-10-14 16:39:04.161689,-64
2021-10-14 16:39:04.161697,-67
2021-10-14 16:39:04.161706,-64
2021-10-14 16:39:04.161714,-62
2021-10-14 16:39:04.161722,-55
2021-10-14 16:39:04.161731,-52
2021-10-14 16:39:04.161739,-60
2021-10-14 16:39:04.161747,-62
2021-10-14 16:39:04.161755,-55
2021-10-14 16:39:04.297777,-52
2021-10-14 16:39:04.297796,-60
2021-10-14 16:39:04.297805,-64
2021-10-14 16:39:04.297814,-69
2021-10-14 16:39:04.297822,-74
2021-10-14 16:39:04.297833,-72
2021-10-14 16:39:04.297842,-67
2021-10-14 16:39:04.297850,-72
2021-10-14 16:39:04.297858,-72
2021-10-14 16:39:04.297867,-72
2021-10-14 16:39:04.297875,-74
2021-10-14 16:39:04.297884,-74
2021-10-14 16:39:04.297892,-69
2021-10-14 16:39:04.297900,-60
2021-10-14 16:39:04.297909,-57
2021-10-14 16:39:04.297917,-62
2021-10-14 16:39:04.297925,-62
2021-10-14 16:39:04.297934,-62
2021-10-14 16:39:04.297942,-55
2021-10-14 16:39:04.297950,-55
2021-10-14 16:39:04.297958,-57
2021-10-14 16:39:04.297967,-52
2021-10-14 16:39:04.297975,-40
2021-10-14 16:39:04.297983,-31
2021-10-14 16:39:04.297991,-14
2021-10-14 16:39:04.298000,2
2021-10-14 16:39:04.298008,4
2021-10-14 16:39:04.298016,-4
2021-10-14 16:39:04.298025,-24
2021-10-14 16:39:04.298033,-38
2021-10-14 16:39:04.658273,-36
2021-10-14 16:39:04.658295,-26
2021-10-14 16:39:04.658304,-26
2021-10-14 16:39:04.658313,-36
2021-10-14 16:39:04.658321,-45
2021-10-14 16:39:04.658329,-38
2021-10-14 16:39:04.658337,-24
2021-10-14 16:39:04.658346,-19
2021-10-14 16:39:04.658354,-21
2021-10-14 16:39:04.658362,-14
2021-10-14 16:39:04.658371,45
2021-10-14 16:39:04.658379,290
2021-10-14 16:39:04.658387,697
2021-10-14 16:39:04.658396,755
2021-10-14 16:39:04.658404,-33
2021-10-14 16:39:04.658412,-1022
2021-10-14 16:39:04.658421,-1041
2021-10-14 16:39:04.658429,-394
2021-10-14 16:39:04.658437,-103
2021-10-14 16:39:04.658445,-72
2021-10-14 16:39:04.658454,57
2021-10-14 16:39:04.658462,108
2021-10-14 16:39:04.658470,62
2021-10-14 16:39:04.658478,74
2021-10-14 16:39:04.658487,105
2021-10-14 16:39:04.658495,108
2021-10-14 16:39:04.658503,105
2021-10-14 16:39:04.658511,115
2021-10-14 16:39:04.658520,122
2021-10-14 16:39:04.658528,125
2021-10-14 16:39:04.838368,134
2021-10-14 16:39:04.838392,146
2021-10-14 16:39:04.838402,149
2021-10-14 16:39:04.838411,146
2021-10-14 16:39:04.838419,158
2021-10-14 16:39:04.838428,180
2021-10-14 16:39:04.838436,192
2021-10-14 16:39:04.838444,202
2021-10-14 16:39:04.838453,204
2021-10-14 16:39:04.838461,206
2021-10-14 16:39:04.838469,221
2021-10-14 16:39:04.838478,228
2021-10-14 16:39:04.838486,223
2021-10-14 16:39:04.838494,218
2021-10-14 16:39:04.838502,204
2021-10-14 16:39:04.838510,175
2021-10-14 16:39:04.838519,151
2021-10-14 16:39:04.838527,127
2021-10-14 16:39:04.838535,88
2021-10-14 16:39:04.838543,45
2021-10-14 16:39:04.838552,7
2021-10-14 16:39:04.838560,-33
2021-10-14 16:39:04.838568,-60
2021-10-14 16:39:04.838576,-76
2021-10-14 16:39:04.838585,-86
2021-10-14 16:39:04.838593,-93
2021-10-14 16:39:04.838601,-103
2021-10-14 16:39:04.838609,-113
2021-10-14 16:39:04.838617,-110
2021-10-14 16:39:04.838626,-101
2021-10-14 16:39:05.062964,-101
2021-10-14 16:39:05.062986,-108
2021-10-14 16:39:05.062996,-113
2021-10-14 16:39:05.063005,-113
2021-10-14 16:39:05.063013,-96
2021-10-14 16:39:05.063021,-84
2021-10-14 16:39:05.063030,-69
2021-10-14 16:39:05.063038,-57
2021-10-14 16:39:05.063046,-76
2021-10-14 16:39:05.063054,-98
2021-10-14 16:39:05.063061,-74
2021-10-14 16:39:05.063069,-55
2021-10-14 16:39:05.063076,-67
2021-10-14 16:39:05.063083,-69
2021-10-14 16:39:05.063091,-62
2021-10-14 16:39:05.063098,-67
2021-10-14 16:39:05.063105,-67
2021-10-14 16:39:05.063112,-60
2021-10-14 16:39:05.063120,-57
2021-10-14 16:39:05.063127,-67
2021-10-14 16:39:05.063135,-84
2021-10-14 16:39:05.063142,-84
2021-10-14 16:39:05.063149,-60
2021-10-14 16:39:05.063156,-57
2021-10-14 16:39:05.063164,-69
2021-10-14 16:39:05.063172,-69
2021-10-14 16:39:05.063179,-64
2021-10-14 16:39:05.063186,-64
2021-10-14 16:39:05.063194,-60
2021-10-14 16:39:05.063201,-57
2021-10-14 16:39:05.243339,-57
2021-10-14 16:39:05.243360,-57
2021-10-14 16:39:05.243370,-52
2021-10-14 16:39:05.243379,-40
2021-10-14 16:39:05.243387,-36
2021-10-14 16:39:05.243395,-50
2021-10-14 16:39:05.243404,-67
2021-10-14 16:39:05.243412,-60
2021-10-14 16:39:05.243420,-45
2021-10-14 16:39:05.243429,-43
2021-10-14 16:39:05.243437,-43
2021-10-14 16:39:05.243445,-36
2021-10-14 16:39:05.243454,-31
2021-10-14 16:39:05.243462,-38
2021-10-14 16:39:05.243470,-52
2021-10-14 16:39:05.243479,-45
2021-10-14 16:39:05.243487,-26
2021-10-14 16:39:05.243495,-24
2021-10-14 16:39:05.243504,-33
2021-10-14 16:39:05.243512,-26
2021-10-14 16:39:05.243521,-19
2021-10-14 16:39:05.243529,-40
2021-10-14 16:39:05.243537,-62
2021-10-14 16:39:05.243546,-55
2021-10-14 16:39:05.243554,-48
2021-10-14 16:39:05.243562,-52
2021-10-14 16:39:05.243571,-57
2021-10-14 16:39:05.243580,-50
2021-10-14 16:39:05.243588,-38
2021-10-14 16:39:05.243597,-33
2021-10-14 16:39:05.468307,-36
2021-10-14 16:39:05.468342,-33
2021-10-14 16:39:05.468351,-26
2021-10-14 16:39:05.468360,-12
2021-10-14 16:39:05.468368,84
2021-10-14 16:39:05.468377,377
2021-10-14 16:39:05.468385,731
2021-10-14 16:39:05.468393,598
2021-10-14 16:39:05.468402,-305
2021-10-14 16:39:05.468410,-1106
2021-10-14 16:39:05.468418,-875
2021-10-14 16:39:05.468427,-276
2021-10-14 16:39:05.468435,-110
2021-10-14 16:39:05.468444,-60
2021-10-14 16:39:05.468452,67
2021-10-14 16:39:05.468460,74
2021-10-14 16:39:05.468469,45
2021-10-14 16:39:05.468477,79
2021-10-14 16:39:05.468486,84
2021-10-14 16:39:05.468494,69
2021-10-14 16:39:05.468502,74
2021-10-14 16:39:05.468511,69
2021-10-14 16:39:05.468519,74
2021-10-14 16:39:05.468528,110
2021-10-14 16:39:05.468536,129
2021-10-14 16:39:05.468544,117
2021-10-14 16:39:05.468553,117
2021-10-14 16:39:05.468561,134
2021-10-14 16:39:05.468569,146
2021-10-14 16:39:05.468578,151
2021-10-14 16:39:05.692923,161
2021-10-14 16:39:05.692944,175
2021-10-14 16:39:05.692953,189
2021-10-14 16:39:05.692962,187
2021-10-14 16:39:05.692970,189
2021-10-14 16:39:05.692979,216
2021-10-14 16:39:05.692987,228
2021-10-14 16:39:05.692995,209
2021-10-14 16:39:05.693004,189
2021-10-14 16:39:05.693012,175
2021-10-14 16:39:05.693020,151
2021-10-14 16:39:05.693028,113
2021-10-14 16:39:05.693036,64
2021-10-14 16:39:05.693045,19
2021-10-14 16:39:05.693053,-7
2021-10-14 16:39:05.693061,-33
2021-10-14 16:39:05.693070,-72
2021-10-14 16:39:05.693078,-101
2021-10-14 16:39:05.693086,-103
2021-10-14 16:39:05.693094,-108
2021-10-14 16:39:05.693103,-132
2021-10-14 16:39:05.693111,-137
2021-10-14 16:39:05.693152,-122
2021-10-14 16:39:05.693161,-120
2021-10-14 16:39:05.693190,-134
2021-10-14 16:39:05.693199,-134
2021-10-14 16:39:05.693208,-117
2021-10-14 16:39:05.693216,-117
2021-10-14 16:39:05.693224,-122
2021-10-14 16:39:05.693232,-110
2021-10-14 16:39:05.918303,-91
2021-10-14 16:39:05.918339,-84
2021-10-14 16:39:05.918348,-79
2021-10-14 16:39:05.918357,-79
2021-10-14 16:39:05.918365,-93
2021-10-14 16:39:05.918374,-115
2021-10-14 16:39:05.918382,-117
2021-10-14 16:39:05.918390,-93
2021-10-14 16:39:05.918399,-64
2021-10-14 16:39:05.918407,-64
2021-10-14 16:39:05.918415,-88
2021-10-14 16:39:05.918423,-96
2021-10-14 16:39:05.918431,-79
2021-10-14 16:39:05.918440,-72
2021-10-14 16:39:05.918448,-74
2021-10-14 16:39:05.918457,-69
2021-10-14 16:39:05.918465,-72
2021-10-14 16:39:05.918473,-74
2021-10-14 16:39:05.918481,-64
2021-10-14 16:39:05.918489,-60
2021-10-14 16:39:05.918498,-69
2021-10-14 16:39:05.918506,-60
2021-10-14 16:39:05.918514,-45
2021-10-14 16:39:05.918523,-55
2021-10-14 16:39:05.918531,-60
2021-10-14 16:39:05.918539,-48
2021-10-14 16:39:05.918547,-48
2021-10-14 16:39:05.918555,-50
2021-10-14 16:39:05.918563,-52
2021-10-14 16:39:05.918572,-62
2021-10-14 16:39:06.186985,-62
2021-10-14 16:39:06.187007,-52
2021-10-14 16:39:06.187017,-36
2021-10-14 16:39:06.187026,-24
2021-10-14 16:39:06.187034,-36
2021-10-14 16:39:06.187043,-43
2021-10-14 16:39:06.187051,-28
2021-10-14 16:39:06.187060,-14
2021-10-14 16:39:06.187068,-24
2021-10-14 16:39:06.187077,-57
2021-10-14 16:39:06.187085,-50
2021-10-14 16:39:06.187093,0
2021-10-14 16:39:06.187102,31
2021-10-14 16:39:06.187110,26
2021-10-14 16:39:06.187118,28
2021-10-14 16:39:06.187127,26
2021-10-14 16:39:06.187135,-12
2021-10-14 16:39:06.187143,-31
2021-10-14 16:39:06.187152,-21
2021-10-14 16:39:06.187160,-16
2021-10-14 16:39:06.187168,-16
2021-10-14 16:39:06.187176,-24
2021-10-14 16:39:06.187185,-28
2021-10-14 16:39:06.187193,-12
2021-10-14 16:39:06.187202,-4
2021-10-14 16:39:06.187210,-14
2021-10-14 16:39:06.187218,-9
2021-10-14 16:39:06.187227,4
2021-10-14 16:39:06.187235,28
2021-10-14 16:39:06.187244,168
2021-10-14 16:39:06.413334,500
2021-10-14 16:39:06.413357,752
2021-10-14 16:39:06.413367,324
2021-10-14 16:39:06.413375,-649
2021-10-14 16:39:06.413384,-1031
2021-10-14 16:39:06.413392,-557
2021-10-14 16:39:06.413401,-173
2021-10-14 16:39:06.413409,-98
2021-10-14 16:39:06.413417,36
2021-10-14 16:39:06.413425,113
2021-10-14 16:39:06.413433,64
2021-10-14 16:39:06.413440,69
2021-10-14 16:39:06.413448,110
2021-10-14 16:39:06.413456,105
2021-10-14 16:39:06.413465,103
2021-10-14 16:39:06.413473,117
2021-10-14 16:39:06.413530,125
2021-10-14 16:39:06.413550,127
2021-10-14 16:39:06.413561,125
2021-10-14 16:39:06.413570,127
2021-10-14 16:39:06.413578,141
2021-10-14 16:39:06.413587,146
2021-10-14 16:39:06.413595,144
2021-10-14 16:39:06.413604,156
2021-10-14 16:39:06.413612,182
2021-10-14 16:39:06.413628,206
2021-10-14 16:39:06.413640,206
2021-10-14 16:39:06.413648,202
2021-10-14 16:39:06.413656,218
2021-10-14 16:39:06.413665,233
2021-10-14 16:39:06.638332,221
2021-10-14 16:39:06.638354,209
2021-10-14 16:39:06.638363,202
2021-10-14 16:39:06.638372,185
2021-10-14 16:39:06.638381,163
2021-10-14 16:39:06.638389,139
2021-10-14 16:39:06.638397,113
2021-10-14 16:39:06.638406,81
2021-10-14 16:39:06.638414,40
2021-10-14 16:39:06.638422,-12
2021-10-14 16:39:06.638431,-40
2021-10-14 16:39:06.638439,-31
2021-10-14 16:39:06.638447,-31
2021-10-14 16:39:06.638456,-64
2021-10-14 16:39:06.638464,-91
2021-10-14 16:39:06.638472,-91
2021-10-14 16:39:06.638480,-79
2021-10-14 16:39:06.638489,-67
2021-10-14 16:39:06.638497,-64
2021-10-14 16:39:06.638505,-72
2021-10-14 16:39:06.638514,-81
2021-10-14 16:39:06.638522,-84
2021-10-14 16:39:06.638530,-74
2021-10-14 16:39:06.638538,-60
2021-10-14 16:39:06.638547,-57
2021-10-14 16:39:06.638555,-57
2021-10-14 16:39:06.638564,-55
2021-10-14 16:39:06.638572,-55
2021-10-14 16:39:06.638580,-57
2021-10-14 16:39:06.638588,-52
2021-10-14 16:39:06.862910,-60
2021-10-14 16:39:06.862931,-74
2021-10-14 16:39:06.862941,-79
2021-10-14 16:39:06.862949,-74
2021-10-14 16:39:06.862958,-60
2021-10-14 16:39:06.862966,-45
2021-10-14 16:39:06.862975,-48
2021-10-14 16:39:06.862983,-62
2021-10-14 16:39:06.862991,-72
2021-10-14 16:39:06.863000,-69
2021-10-14 16:39:06.863008,-60
2021-10-14 16:39:06.863016,-60
2021-10-14 16:39:06.863024,-64
2021-10-14 16:39:06.863033,-69
2021-10-14 16:39:06.863041,-76
2021-10-14 16:39:06.863049,-57
2021-10-14 16:39:06.863058,-31
2021-10-14 16:39:06.863066,-40
2021-10-14 16:39:06.863074,-57
2021-10-14 16:39:06.863083,-52
2021-10-14 16:39:06.863091,-48
2021-10-14 16:39:06.863099,-48
2021-10-14 16:39:06.863108,-31
2021-10-14 16:39:06.863116,-16
2021-10-14 16:39:06.863124,-19
2021-10-14 16:39:06.863133,-33
2021-10-14 16:39:06.863141,-38
2021-10-14 16:39:06.863149,-21
2021-10-14 16:39:06.863157,-14
2021-10-14 16:39:06.863166,-16
2021-10-14 16:39:07.132910,-12
2021-10-14 16:39:07.132931,-14
2021-10-14 16:39:07.132941,-24
2021-10-14 16:39:07.132950,-14
2021-10-14 16:39:07.132958,9
2021-10-14 16:39:07.132967,21
2021-10-14 16:39:07.132975,24
2021-10-14 16:39:07.132983,19
2021-10-14 16:39:07.132992,14
2021-10-14 16:39:07.133000,14
2021-10-14 16:39:07.133009,4
2021-10-14 16:39:07.133017,-7
2021-10-14 16:39:07.133025,-12
2021-10-14 16:39:07.133034,-21
2021-10-14 16:39:07.133042,-31
2021-10-14 16:39:07.133051,-26
2021-10-14 16:39:07.133059,-19
2021-10-14 16:39:07.133067,-12
2021-10-14 16:39:07.133076,-4
2021-10-14 16:39:07.133084,-2
2021-10-14 16:39:07.133093,4
2021-10-14 16:39:07.133101,14
2021-10-14 16:39:07.133109,64
2021-10-14 16:39:07.133118,264
2021-10-14 16:39:07.133126,622
2021-10-14 16:39:07.133135,726
2021-10-14 16:39:07.133143,86
2021-10-14 16:39:07.133152,-815
2021-10-14 16:39:07.133160,-913
2021-10-14 16:39:07.133169,-377
2021-10-14 16:39:07.313296,-96
2021-10-14 16:39:07.313316,-52
2021-10-14 16:39:07.313326,64
2021-10-14 16:39:07.313335,115
2021-10-14 16:39:07.313343,74
2021-10-14 16:39:07.313352,74
2021-10-14 16:39:07.313360,84
2021-10-14 16:39:07.313369,76
2021-10-14 16:39:07.313377,96
2021-10-14 16:39:07.313385,110
2021-10-14 16:39:07.313394,101
2021-10-14 16:39:07.313402,101
2021-10-14 16:39:07.313411,98
2021-10-14 16:39:07.313419,98
2021-10-14 16:39:07.313427,115
2021-10-14 16:39:07.313435,120
2021-10-14 16:39:07.313444,117
2021-10-14 16:39:07.313452,127
2021-10-14 16:39:07.313460,132
2021-10-14 16:39:07.313469,137
2021-10-14 16:39:07.313477,158
2021-10-14 16:39:07.313486,165
2021-10-14 16:39:07.313494,165
2021-10-14 16:39:07.313502,175
2021-10-14 16:39:07.313511,180
2021-10-14 16:39:07.313519,168
2021-10-14 16:39:07.313527,158
2021-10-14 16:39:07.313535,149
2021-10-14 16:39:07.313544,134
2021-10-14 16:39:07.313552,113
2021-10-14 16:39:07.582876,79
2021-10-14 16:39:07.582895,45
2021-10-14 16:39:07.582905,19
2021-10-14 16:39:07.582914,-7
2021-10-14 16:39:07.582922,-40
2021-10-14 16:39:07.582930,-72
2021-10-14 16:39:07.582939,-93
2021-10-14 16:39:07.582947,-103
2021-10-14 16:39:07.583000,-110
2021-10-14 16:39:07.583010,-105
2021-10-14 16:39:07.583018,-91
2021-10-14 16:39:07.583027,-103
2021-10-14 16:39:07.583035,-115
2021-10-14 16:39:07.583044,-113
2021-10-14 16:39:07.583052,-125
2021-10-14 16:39:07.583060,-129
2021-10-14 16:39:07.583068,-110
2021-10-14 16:39:07.583077,-96
2021-10-14 16:39:07.583085,-91
2021-10-14 16:39:07.583093,-81
2021-10-14 16:39:07.583102,-76
2021-10-14 16:39:07.583110,-69
2021-10-14 16:39:07.583118,-64
2021-10-14 16:39:07.583127,-72
2021-10-14 16:39:07.583135,-67
2021-10-14 16:39:07.583143,-50
2021-10-14 16:39:07.583152,-50
2021-10-14 16:39:07.583160,-55
2021-10-14 16:39:07.583168,-45
2021-10-14 16:39:07.583176,-38
2021-10-14 16:39:07.762917,-40
2021-10-14 16:39:07.762938,-43
2021-10-14 16:39:07.762948,-48
2021-10-14 16:39:07.762956,-55
2021-10-14 16:39:07.762964,-43
2021-10-14 16:39:07.762973,-38
2021-10-14 16:39:07.762981,-45
2021-10-14 16:39:07.762989,-48
2021-10-14 16:39:07.762998,-50
2021-10-14 16:39:07.763006,-57
2021-10-14 16:39:07.763014,-55
2021-10-14 16:39:07.763022,-52
2021-10-14 16:39:07.763031,-60
2021-10-14 16:39:07.763039,-67
2021-10-14 16:39:07.763047,-55
2021-10-14 16:39:07.763055,-48
2021-10-14 16:39:07.763064,-55
2021-10-14 16:39:07.763072,-57
2021-10-14 16:39:07.763080,-45
2021-10-14 16:39:07.763089,-40
2021-10-14 16:39:07.763097,-50
2021-10-14 16:39:07.763105,-48
2021-10-14 16:39:07.763113,-38
2021-10-14 16:39:07.763122,-28
2021-10-14 16:39:07.763130,-7
2021-10-14 16:39:07.763138,7
2021-10-14 16:39:07.763146,2
2021-10-14 16:39:07.763155,9
2021-10-14 16:39:07.763163,21
2021-10-14 16:39:07.763171,-4
2021-10-14 16:39:08.122910,-28
2021-10-14 16:39:08.122931,-21
2021-10-14 16:39:08.122940,-14
2021-10-14 16:39:08.122949,-19
2021-10-14 16:39:08.122958,-26
2021-10-14 16:39:08.122966,-26
2021-10-14 16:39:08.122974,-16
2021-10-14 16:39:08.122983,-7
2021-10-14 16:39:08.122991,-14
2021-10-14 16:39:08.123000,-31
2021-10-14 16:39:08.123008,-24
2021-10-14 16:39:08.123016,43
2021-10-14 16:39:08.123025,218
2021-10-14 16:39:08.123033,548
2021-10-14 16:39:08.123041,747
2021-10-14 16:39:08.123050,240
2021-10-14 16:39:08.123058,-728
2021-10-14 16:39:08.123067,-1022
2021-10-14 16:39:08.123075,-533
2021-10-14 16:39:08.123083,-197
2021-10-14 16:39:08.123091,-108
2021-10-14 16:39:08.123100,38
2021-10-14 16:39:08.123108,110
2021-10-14 16:39:08.123117,76
2021-10-14 16:39:08.123125,91
2021-10-14 16:39:08.123133,120
2021-10-14 16:39:08.123142,120
2021-10-14 16:39:08.123150,125
2021-10-14 16:39:08.123159,132
2021-10-14 16:39:08.123167,127
2021-10-14 16:39:08.256511,137
2021-10-14 16:39:08.256532,146
2021-10-14 16:39:08.256542,149
2021-10-14 16:39:08.256550,151
2021-10-14 16:39:08.256559,146
2021-10-14 16:39:08.256567,149
2021-10-14 16:39:08.256576,168
2021-10-14 16:39:08.256584,189
2021-10-14 16:39:08.256592,209
2021-10-14 16:39:08.256601,204
2021-10-14 16:39:08.256609,202
2021-10-14 16:39:08.256617,218
2021-10-14 16:39:08.256626,221
2021-10-14 16:39:08.256634,211
2021-10-14 16:39:08.256643,211
2021-10-14 16:39:08.256651,202
2021-10-14 16:39:08.256659,180
2021-10-14 16:39:08.256668,168
2021-10-14 16:39:08.256676,139
2021-10-14 16:39:08.256684,96
2021-10-14 16:39:08.256693,62
2021-10-14 16:39:08.256701,21
2021-10-14 16:39:08.256709,-16
2021-10-14 16:39:08.256717,-40
2021-10-14 16:39:08.256726,-64
2021-10-14 16:39:08.256734,-76
2021-10-14 16:39:08.256742,-81
2021-10-14 16:39:08.256751,-93
2021-10-14 16:39:08.256759,-105
2021-10-14 16:39:08.256767,-108
2021-10-14 16:39:08.483255,-108
2021-10-14 16:39:08.483275,-105
2021-10-14 16:39:08.483285,-105
2021-10-14 16:39:08.483293,-115
2021-10-14 16:39:08.483302,-110
2021-10-14 16:39:08.483310,-103
2021-10-14 16:39:08.483319,-96
2021-10-14 16:39:08.483327,-81
2021-10-14 16:39:08.483336,-74
2021-10-14 16:39:08.483344,-76
