Time,ECG
2021-10-14 15:43:23.052381,-4
2021-10-14 15:43:23.052401,-4
2021-10-14 15:43:23.052409,-9
2021-10-14 15:43:23.052416,0
2021-10-14 15:43:23.052423,9
2021-10-14 15:43:23.052431,26
2021-10-14 15:43:23.052438,158
2021-10-14 15:43:23.052445,502
2021-10-14 15:43:23.052453,786
2021-10-14 15:43:23.052461,418
2021-10-14 15:43:23.052468,-572
2021-10-14 15:43:23.052475,-1123
2021-10-14 15:43:23.052482,-738
2021-10-14 15:43:23.052489,-286
2021-10-14 15:43:23.052497,-168
2021-10-14 15:43:23.052504,-28
2021-10-14 15:43:23.052512,93
2021-10-14 15:43:23.052520,79
2021-10-14 15:43:23.052529,81
2021-10-14 15:43:23.052537,115
2021-10-14 15:43:23.052545,93
2021-10-14 15:43:23.052554,81
2021-10-14 15:43:23.052562,105
2021-10-14 15:43:23.052570,110
2021-10-14 15:43:23.052578,93
2021-10-14 15:43:23.052587,96
2021-10-14 15:43:23.052595,117
2021-10-14 15:43:23.052604,139
2021-10-14 15:43:23.052612,144
2021-10-14 15:43:23.052620,151
2021-10-14 15:43:23.273592,158
2021-10-14 15:43:23.273613,156
2021-10-14 15:43:23.273622,156
2021-10-14 15:43:23.273631,165
2021-10-14 15:43:23.273639,177
2021-10-14 15:43:23.273647,185
2021-10-14 15:43:23.273657,180
2021-10-14 15:43:23.273665,168
2021-10-14 15:43:23.273673,161
2021-10-14 15:43:23.273682,153
2021-10-14 15:43:23.273690,137
2021-10-14 15:43:23.273698,115
2021-10-14 15:43:23.273706,86
2021-10-14 15:43:23.273715,45
2021-10-14 15:43:23.273723,9
2021-10-14 15:43:23.273731,-24
2021-10-14 15:43:23.273739,-40
2021-10-14 15:43:23.273749,-45
2021-10-14 15:43:23.273757,-69
2021-10-14 15:43:23.273765,-98
2021-10-14 15:43:23.273773,-98
2021-10-14 15:43:23.273781,-98
2021-10-14 15:43:23.273790,-105
2021-10-14 15:43:23.273798,-108
2021-10-14 15:43:23.273806,-108
2021-10-14 15:43:23.273814,-113
2021-10-14 15:43:23.273823,-113
2021-10-14 15:43:23.273831,-110
2021-10-14 15:43:23.273839,-96
2021-10-14 15:43:23.273849,-86
2021-10-14 15:43:23.453671,-91
2021-10-14 15:43:23.453703,-88
2021-10-14 15:43:23.453713,-69
2021-10-14 15:43:23.453721,-57
2021-10-14 15:43:23.453730,-64
2021-10-14 15:43:23.453738,-69
2021-10-14 15:43:23.453747,-72
2021-10-14 15:43:23.453755,-67
2021-10-14 15:43:23.453764,-57
2021-10-14 15:43:23.453772,-55
2021-10-14 15:43:23.453781,-52
2021-10-14 15:43:23.453789,-57
2021-10-14 15:43:23.453797,-67
2021-10-14 15:43:23.453809,-57
2021-10-14 15:43:23.453818,-45
2021-10-14 15:43:23.453826,-60
2021-10-14 15:43:23.453834,-64
2021-10-14 15:43:23.453842,-57
2021-10-14 15:43:23.453851,-60
2021-10-14 15:43:23.453859,-45
2021-10-14 15:43:23.453867,-40
2021-10-14 15:43:23.453876,-55
2021-10-14 15:43:23.453884,-55
2021-10-14 15:43:23.453892,-52
2021-10-14 15:43:23.453901,-57
2021-10-14 15:43:23.453909,-52
2021-10-14 15:43:23.453917,-45
2021-10-14 15:43:23.453926,-38
2021-10-14 15:43:23.453934,-33
2021-10-14 15:43:23.453944,-33
2021-10-14 15:43:23.633205,-33
2021-10-14 15:43:23.633225,-24
2021-10-14 15:43:23.633233,-21
2021-10-14 15:43:23.633241,-21
2021-10-14 15:43:23.633249,-7
2021-10-14 15:43:23.633257,-9
2021-10-14 15:43:23.633264,-19
2021-10-14 15:43:23.633272,-16
2021-10-14 15:43:23.633280,-12
2021-10-14 15:43:23.633288,-12
2021-10-14 15:43:23.633295,-7
2021-10-14 15:43:23.633303,-9
2021-10-14 15:43:23.633310,4
2021-10-14 15:43:23.633318,28
2021-10-14 15:43:23.633325,16
2021-10-14 15:43:23.633333,-9
2021-10-14 15:43:23.633341,-24
2021-10-14 15:43:23.633351,-38
2021-10-14 15:43:23.633358,-38
2021-10-14 15:43:23.633366,-19
2021-10-14 15:43:23.633374,-9
2021-10-14 15:43:23.633381,-19
2021-10-14 15:43:23.633389,-26
2021-10-14 15:43:23.633397,-28
2021-10-14 15:43:23.633404,-21
2021-10-14 15:43:23.633412,-2
2021-10-14 15:43:23.633420,14
2021-10-14 15:43:23.633428,69
2021-10-14 15:43:23.633436,300
2021-10-14 15:43:23.633444,675
2021-10-14 15:43:23.903640,723
2021-10-14 15:43:23.903663,0
2021-10-14 15:43:23.903673,-896
2021-10-14 15:43:23.903682,-909
2021-10-14 15:43:23.903691,-360
2021-10-14 15:43:23.903699,-129
2021-10-14 15:43:23.903707,-81
2021-10-14 15:43:23.903720,40
2021-10-14 15:43:23.903729,72
2021-10-14 15:43:23.903737,26
2021-10-14 15:43:23.903746,33
2021-10-14 15:43:23.903754,57
2021-10-14 15:43:23.903763,57
2021-10-14 15:43:23.903771,69
2021-10-14 15:43:23.903779,74
2021-10-14 15:43:23.903788,69
2021-10-14 15:43:23.903796,76
2021-10-14 15:43:23.903804,91
2021-10-14 15:43:23.903812,91
2021-10-14 15:43:23.903821,96
2021-10-14 15:43:23.903829,105
2021-10-14 15:43:23.903837,110
2021-10-14 15:43:23.903846,105
2021-10-14 15:43:23.903854,108
2021-10-14 15:43:23.903863,115
2021-10-14 15:43:23.903871,134
2021-10-14 15:43:23.903879,151
2021-10-14 15:43:23.903888,146
2021-10-14 15:43:23.903896,141
2021-10-14 15:43:23.903905,144
2021-10-14 15:43:24.217253,129
2021-10-14 15:43:24.217273,115
2021-10-14 15:43:24.217282,103
2021-10-14 15:43:24.217291,76
2021-10-14 15:43:24.217299,40
2021-10-14 15:43:24.217308,21
2021-10-14 15:43:24.217316,2
2021-10-14 15:43:24.217325,-28
2021-10-14 15:43:24.217333,-48
2021-10-14 15:43:24.217342,-62
2021-10-14 15:43:24.217350,-84
2021-10-14 15:43:24.217358,-96
2021-10-14 15:43:24.217367,-101
2021-10-14 15:43:24.217375,-103
2021-10-14 15:43:24.217383,-105
2021-10-14 15:43:24.217391,-113
2021-10-14 15:43:24.217400,-122
2021-10-14 15:43:24.217408,-117
2021-10-14 15:43:24.217416,-108
2021-10-14 15:43:24.217424,-96
2021-10-14 15:43:24.217433,-91
2021-10-14 15:43:24.217441,-101
2021-10-14 15:43:24.217449,-93
2021-10-14 15:43:24.217458,-64
2021-10-14 15:43:24.217471,-60
2021-10-14 15:43:24.217480,-67
2021-10-14 15:43:24.217488,-60
2021-10-14 15:43:24.217496,-48
2021-10-14 15:43:24.217505,-38
2021-10-14 15:43:24.217513,-28
2021-10-14 15:43:24.443309,-21
2021-10-14 15:43:24.443330,-28
2021-10-14 15:43:24.443339,-38
2021-10-14 15:43:24.443347,-43
2021-10-14 15:43:24.443354,-36
2021-10-14 15:43:24.443361,-24
2021-10-14 15:43:24.443369,-26
2021-10-14 15:43:24.443377,-38
2021-10-14 15:43:24.443385,-33
2021-10-14 15:43:24.443392,-16
2021-10-14 15:43:24.443400,-9
2021-10-14 15:43:24.443408,-14
2021-10-14 15:43:24.443416,-28
2021-10-14 15:43:24.443424,-33
2021-10-14 15:43:24.443432,-33
2021-10-14 15:43:24.443440,-48
2021-10-14 15:43:24.443447,-48
2021-10-14 15:43:24.443455,-28
2021-10-14 15:43:24.443463,-9
2021-10-14 15:43:24.443470,-4
2021-10-14 15:43:24.443478,-19
2021-10-14 15:43:24.443485,-36
2021-10-14 15:43:24.443495,-28
2021-10-14 15:43:24.443502,-21
2021-10-14 15:43:24.443510,-24
2021-10-14 15:43:24.443517,-21
2021-10-14 15:43:24.443525,-12
2021-10-14 15:43:24.443533,-4
2021-10-14 15:43:24.443541,-2
2021-10-14 15:43:24.443548,-16
2021-10-14 15:43:24.623601,-24
2021-10-14 15:43:24.623622,-7
2021-10-14 15:43:24.623633,0
2021-10-14 15:43:24.623643,-9
2021-10-14 15:43:24.623652,-7
2021-10-14 15:43:24.623661,7
2021-10-14 15:43:24.623670,2
2021-10-14 15:43:24.623679,-21
2021-10-14 15:43:24.623688,-38
2021-10-14 15:43:24.623697,-43
2021-10-14 15:43:24.623706,-33
2021-10-14 15:43:24.623714,-16
2021-10-14 15:43:24.623723,-16
2021-10-14 15:43:24.623732,-28
2021-10-14 15:43:24.623741,-31
2021-10-14 15:43:24.623750,-21
2021-10-14 15:43:24.623758,-14
2021-10-14 15:43:24.623767,-12
2021-10-14 15:43:24.623776,2
2021-10-14 15:43:24.623785,76
2021-10-14 15:43:24.623795,324
2021-10-14 15:43:24.623804,685
2021-10-14 15:43:24.623812,668
2021-10-14 15:43:24.623821,-93
2021-10-14 15:43:24.623834,-940
2021-10-14 15:43:24.623843,-899
2021-10-14 15:43:24.623852,-353
2021-10-14 15:43:24.623861,-127
2021-10-14 15:43:24.623870,-67
2021-10-14 15:43:24.623879,62
2021-10-14 15:43:24.803613,96
2021-10-14 15:43:24.803634,50
2021-10-14 15:43:24.803644,62
2021-10-14 15:43:24.803652,81
2021-10-14 15:43:24.803661,76
2021-10-14 15:43:24.803670,88
2021-10-14 15:43:24.803678,98
2021-10-14 15:43:24.803687,81
2021-10-14 15:43:24.803695,72
2021-10-14 15:43:24.803703,86
2021-10-14 15:43:24.803712,88
2021-10-14 15:43:24.803720,93
2021-10-14 15:43:24.803729,105
2021-10-14 15:43:24.803737,108
2021-10-14 15:43:24.803745,110
2021-10-14 15:43:24.803754,117
2021-10-14 15:43:24.803762,113
2021-10-14 15:43:24.803770,115
2021-10-14 15:43:24.803779,127
2021-10-14 15:43:24.803787,120
2021-10-14 15:43:24.803795,110
2021-10-14 15:43:24.803804,120
2021-10-14 15:43:24.803812,125
2021-10-14 15:43:24.803821,110
2021-10-14 15:43:24.803829,79
2021-10-14 15:43:24.803837,48
2021-10-14 15:43:24.803846,26
2021-10-14 15:43:24.803854,16
2021-10-14 15:43:24.803863,-4
2021-10-14 15:43:24.803871,-31
2021-10-14 15:43:25.073570,-40
2021-10-14 15:43:25.073592,-48
2021-10-14 15:43:25.073601,-62
2021-10-14 15:43:25.073609,-72
2021-10-14 15:43:25.073618,-88
2021-10-14 15:43:25.073626,-113
2021-10-14 15:43:25.073635,-120
2021-10-14 15:43:25.073643,-127
2021-10-14 15:43:25.073651,-129
2021-10-14 15:43:25.073660,-120
2021-10-14 15:43:25.073668,-117
2021-10-14 15:43:25.073676,-120
2021-10-14 15:43:25.073684,-122
2021-10-14 15:43:25.073693,-125
2021-10-14 15:43:25.073701,-110
2021-10-14 15:43:25.073709,-96
2021-10-14 15:43:25.073718,-88
2021-10-14 15:43:25.073726,-84
2021-10-14 15:43:25.073734,-88
2021-10-14 15:43:25.073743,-81
2021-10-14 15:43:25.073751,-64
2021-10-14 15:43:25.073759,-64
2021-10-14 15:43:25.073768,-69
2021-10-14 15:43:25.073776,-60
2021-10-14 15:43:25.073784,-57
2021-10-14 15:43:25.073792,-69
2021-10-14 15:43:25.073801,-69
2021-10-14 15:43:25.073809,-55
2021-10-14 15:43:25.073817,-45
2021-10-14 15:43:25.073826,-50
2021-10-14 15:43:25.253670,-60
2021-10-14 15:43:25.253692,-50
2021-10-14 15:43:25.253702,-28
2021-10-14 15:43:25.253710,-26
2021-10-14 15:43:25.253718,-33
2021-10-14 15:43:25.253727,-36
2021-10-14 15:43:25.253735,-33
2021-10-14 15:43:25.253743,-24
2021-10-14 15:43:25.253752,-16
2021-10-14 15:43:25.253760,-12
2021-10-14 15:43:25.253771,-2
2021-10-14 15:43:25.253779,-9
2021-10-14 15:43:25.253788,-33
2021-10-14 15:43:25.253796,-36
2021-10-14 15:43:25.253804,-19
2021-10-14 15:43:25.253813,-9
2021-10-14 15:43:25.253821,-12
2021-10-14 15:43:25.253829,-16
2021-10-14 15:43:25.253838,-19
2021-10-14 15:43:25.253846,-24
2021-10-14 15:43:25.253854,-33
2021-10-14 15:43:25.253863,-31
2021-10-14 15:43:25.253871,-12
2021-10-14 15:43:25.253879,0
2021-10-14 15:43:25.253888,4
2021-10-14 15:43:25.253896,14
2021-10-14 15:43:25.253904,9
2021-10-14 15:43:25.253913,-19
2021-10-14 15:43:25.253921,-31
2021-10-14 15:43:25.253930,-26
2021-10-14 15:43:25.522619,-24
2021-10-14 15:43:25.522649,-14
2021-10-14 15:43:25.522658,2
2021-10-14 15:43:25.522667,12
2021-10-14 15:43:25.522675,0
2021-10-14 15:43:25.522684,-14
2021-10-14 15:43:25.522692,-7
2021-10-14 15:43:25.522700,2
2021-10-14 15:43:25.522709,9
2021-10-14 15:43:25.522717,72
2021-10-14 15:43:25.522725,278
2021-10-14 15:43:25.522734,601
2021-10-14 15:43:25.522742,663
2021-10-14 15:43:25.522750,26
2021-10-14 15:43:25.522759,-820
2021-10-14 15:43:25.522767,-870
2021-10-14 15:43:25.522775,-363
2021-10-14 15:43:25.522783,-122
2021-10-14 15:43:25.522792,-72
2021-10-14 15:43:25.522800,50
2021-10-14 15:43:25.522808,88
2021-10-14 15:43:25.522816,43
2021-10-14 15:43:25.522825,48
2021-10-14 15:43:25.522833,74
2021-10-14 15:43:25.522841,79
2021-10-14 15:43:25.522852,84
2021-10-14 15:43:25.522861,86
2021-10-14 15:43:25.522869,93
2021-10-14 15:43:25.522877,103
2021-10-14 15:43:25.522885,103
2021-10-14 15:43:25.703649,113
2021-10-14 15:43:25.703679,127
2021-10-14 15:43:25.703689,132
2021-10-14 15:43:25.703697,127
2021-10-14 15:43:25.703706,127
2021-10-14 15:43:25.703714,137
2021-10-14 15:43:25.703722,156
2021-10-14 15:43:25.703731,168
2021-10-14 15:43:25.703739,175
2021-10-14 15:43:25.703747,185
2021-10-14 15:43:25.703755,189
2021-10-14 15:43:25.703764,187
2021-10-14 15:43:25.703772,173
2021-10-14 15:43:25.703780,149
2021-10-14 15:43:25.703788,141
2021-10-14 15:43:25.703797,129
2021-10-14 15:43:25.703805,98
2021-10-14 15:43:25.703813,64
2021-10-14 15:43:25.703822,45
2021-10-14 15:43:25.703830,43
2021-10-14 15:43:25.703838,26
2021-10-14 15:43:25.703846,-16
2021-10-14 15:43:25.703855,-33
2021-10-14 15:43:25.703863,-21
2021-10-14 15:43:25.703871,-28
2021-10-14 15:43:25.703879,-48
2021-10-14 15:43:25.703888,-52
2021-10-14 15:43:25.703896,-52
2021-10-14 15:43:25.703904,-48
2021-10-14 15:43:25.703913,-31
2021-10-14 15:43:25.928712,-31
2021-10-14 15:43:25.928728,-38
2021-10-14 15:43:25.928733,-38
2021-10-14 15:43:25.928738,-50
2021-10-14 15:43:25.928742,-57
2021-10-14 15:43:25.928746,-36
2021-10-14 15:43:25.928750,-21
2021-10-14 15:43:25.928755,-28
2021-10-14 15:43:25.928759,-19
2021-10-14 15:43:25.928763,-9
2021-10-14 15:43:25.928768,-24
2021-10-14 15:43:25.928772,-31
2021-10-14 15:43:25.928793,-19
2021-10-14 15:43:25.928804,-14
2021-10-14 15:43:25.928811,-9
2021-10-14 15:43:25.928818,-12
2021-10-14 15:43:25.928829,-36
2021-10-14 15:43:25.928837,-48
2021-10-14 15:43:25.928844,-26
2021-10-14 15:43:25.928852,-12
2021-10-14 15:43:25.928860,-12
2021-10-14 15:43:25.928868,-14
2021-10-14 15:43:25.928876,-26
2021-10-14 15:43:25.928884,-36
2021-10-14 15:43:25.928891,-26
2021-10-14 15:43:25.928899,-16
2021-10-14 15:43:25.928907,-21
2021-10-14 15:43:25.928915,-19
2021-10-14 15:43:25.928923,-9
2021-10-14 15:43:25.928930,-16
2021-10-14 15:43:26.241902,-26
2021-10-14 15:43:26.241923,-21
2021-10-14 15:43:26.241932,-19
2021-10-14 15:43:26.241941,-26
2021-10-14 15:43:26.241949,-28
2021-10-14 15:43:26.241958,-21
2021-10-14 15:43:26.241966,-2
2021-10-14 15:43:26.241974,14
2021-10-14 15:43:26.241983,2
2021-10-14 15:43:26.241991,-4
2021-10-14 15:43:26.241999,4
2021-10-14 15:43:26.242008,-9
2021-10-14 15:43:26.242016,-38
2021-10-14 15:43:26.242024,-33
2021-10-14 15:43:26.242033,-16
2021-10-14 15:43:26.242041,-14
2021-10-14 15:43:26.242049,-16
2021-10-14 15:43:26.242058,-16
2021-10-14 15:43:26.242066,-14
2021-10-14 15:43:26.242074,-2
2021-10-14 15:43:26.242083,-7
2021-10-14 15:43:26.242091,-16
2021-10-14 15:43:26.242099,16
2021-10-14 15:43:26.242107,151
2021-10-14 15:43:26.242116,478
2021-10-14 15:43:26.242124,808
2021-10-14 15:43:26.242133,500
2021-10-14 15:43:26.242141,-524
2021-10-14 15:43:26.242149,-1130
2021-10-14 15:43:26.242157,-740
2021-10-14 15:43:26.423604,-269
2021-10-14 15:43:26.423625,-156
2021-10-14 15:43:26.423634,-24
2021-10-14 15:43:26.423643,96
2021-10-14 15:43:26.423651,84
2021-10-14 15:43:26.423660,81
2021-10-14 15:43:26.423668,113
2021-10-14 15:43:26.423676,101
2021-10-14 15:43:26.423684,88
2021-10-14 15:43:26.423693,105
2021-10-14 15:43:26.423701,117
2021-10-14 15:43:26.423709,115
2021-10-14 15:43:26.423718,113
2021-10-14 15:43:26.423729,113
2021-10-14 15:43:26.423738,115
2021-10-14 15:43:26.423746,117
2021-10-14 15:43:26.423754,125
2021-10-14 15:43:26.423763,134
2021-10-14 15:43:26.423771,151
2021-10-14 15:43:26.423780,165
2021-10-14 15:43:26.423788,163
2021-10-14 15:43:26.423796,161
2021-10-14 15:43:26.423805,177
2021-10-14 15:43:26.423813,185
2021-10-14 15:43:26.423821,173
2021-10-14 15:43:26.423829,156
2021-10-14 15:43:26.423837,144
2021-10-14 15:43:26.423845,127
2021-10-14 15:43:26.423854,105
2021-10-14 15:43:26.423862,79
2021-10-14 15:43:26.648424,48
2021-10-14 15:43:26.648446,14
2021-10-14 15:43:26.648455,-14
2021-10-14 15:43:26.648464,-31
2021-10-14 15:43:26.648472,-40
2021-10-14 15:43:26.648480,-52
2021-10-14 15:43:26.648489,-69
2021-10-14 15:43:26.648497,-76
2021-10-14 15:43:26.648506,-79
2021-10-14 15:43:26.648514,-79
2021-10-14 15:43:26.648522,-67
2021-10-14 15:43:26.648531,-57
2021-10-14 15:43:26.648539,-67
2021-10-14 15:43:26.648547,-81
2021-10-14 15:43:26.648556,-76
2021-10-14 15:43:26.648564,-64
2021-10-14 15:43:26.648572,-57
2021-10-14 15:43:26.648581,-52
2021-10-14 15:43:26.648589,-52
2021-10-14 15:43:26.648597,-52
2021-10-14 15:43:26.648606,-45
2021-10-14 15:43:26.648614,-40
2021-10-14 15:43:26.648622,-40
2021-10-14 15:43:26.648631,-38
2021-10-14 15:43:26.648639,-40
2021-10-14 15:43:26.648647,-40
2021-10-14 15:43:26.648655,-43
2021-10-14 15:43:26.648663,-45
2021-10-14 15:43:26.648672,-45
2021-10-14 15:43:26.648680,-50
2021-10-14 15:43:26.873245,-60
2021-10-14 15:43:26.873266,-57
2021-10-14 15:43:26.873276,-64
2021-10-14 15:43:26.873284,-84
2021-10-14 15:43:26.873293,-84
2021-10-14 15:43:26.873301,-69
2021-10-14 15:43:26.873309,-72
2021-10-14 15:43:26.873318,-84
2021-10-14 15:43:26.873326,-76
2021-10-14 15:43:26.873334,-67
2021-10-14 15:43:26.873343,-69
2021-10-14 15:43:26.873351,-69
2021-10-14 15:43:26.873359,-69
2021-10-14 15:43:26.873367,-74
2021-10-14 15:43:26.873376,-64
2021-10-14 15:43:26.873384,-64
2021-10-14 15:43:26.873392,-74
2021-10-14 15:43:26.873405,-64
2021-10-14 15:43:26.873413,-43
2021-10-14 15:43:26.873421,-28
2021-10-14 15:43:26.873429,-16
2021-10-14 15:43:26.873438,-7
2021-10-14 15:43:26.873446,-14
2021-10-14 15:43:26.873454,-40
2021-10-14 15:43:26.873462,-60
2021-10-14 15:43:26.873470,-55
2021-10-14 15:43:26.873479,-50
2021-10-14 15:43:26.873487,-64
2021-10-14 15:43:26.873496,-67
2021-10-14 15:43:26.873504,-57
2021-10-14 15:43:27.232662,-55
2021-10-14 15:43:27.232683,-48
2021-10-14 15:43:27.232691,-33
2021-10-14 15:43:27.232699,-21
2021-10-14 15:43:27.232707,7
2021-10-14 15:43:27.232715,163
2021-10-14 15:43:27.232724,529
2021-10-14 15:43:27.232732,769
2021-10-14 15:43:27.232741,276
2021-10-14 15:43:27.232749,-738
2021-10-14 15:43:27.232757,-1123
2021-10-14 15:43:27.232766,-622
2021-10-14 15:43:27.232774,-202
2021-10-14 15:43:27.232783,-127
2021-10-14 15:43:27.232791,-12
2021-10-14 15:43:27.232800,84
2021-10-14 15:43:27.232808,60
2021-10-14 15:43:27.232816,55
2021-10-14 15:43:27.232825,81
2021-10-14 15:43:27.232833,74
2021-10-14 15:43:27.232841,72
2021-10-14 15:43:27.232849,86
2021-10-14 15:43:27.232858,84
2021-10-14 15:43:27.232866,84
2021-10-14 15:43:27.232874,101
2021-10-14 15:43:27.232883,110
2021-10-14 15:43:27.232891,110
2021-10-14 15:43:27.232899,117
2021-10-14 15:43:27.232907,122
2021-10-14 15:43:27.232916,132
2021-10-14 15:43:27.368651,146
2021-10-14 15:43:27.368672,153
2021-10-14 15:43:27.368681,161
2021-10-14 15:43:27.368690,168
2021-10-14 15:43:27.368698,177
2021-10-14 15:43:27.368707,189
2021-10-14 15:43:27.368715,182
2021-10-14 15:43:27.368723,158
2021-10-14 15:43:27.368732,146
2021-10-14 15:43:27.368740,129
2021-10-14 15:43:27.368748,103
2021-10-14 15:43:27.368757,76
2021-10-14 15:43:27.368765,50
2021-10-14 15:43:27.368773,16
2021-10-14 15:43:27.368781,-14
2021-10-14 15:43:27.368790,-31
2021-10-14 15:43:27.368798,-36
2021-10-14 15:43:27.368806,-52
2021-10-14 15:43:27.368815,-62
2021-10-14 15:43:27.368823,-60
2021-10-14 15:43:27.368831,-60
2021-10-14 15:43:27.368839,-62
2021-10-14 15:43:27.368848,-62
2021-10-14 15:43:27.368856,-69
2021-10-14 15:43:27.368864,-72
2021-10-14 15:43:27.368872,-67
2021-10-14 15:43:27.368880,-69
2021-10-14 15:43:27.368889,-69
2021-10-14 15:43:27.368897,-52
2021-10-14 15:43:27.368910,-31
2021-10-14 15:43:27.593275,-28
2021-10-14 15:43:27.593296,-28
2021-10-14 15:43:27.593306,-31
2021-10-14 15:43:27.593314,-43
2021-10-14 15:43:27.593323,-48
2021-10-14 15:43:27.593331,-43
2021-10-14 15:43:27.593340,-38
2021-10-14 15:43:27.593348,-31
2021-10-14 15:43:27.593357,-28
2021-10-14 15:43:27.593365,-38
2021-10-14 15:43:27.593373,-48
2021-10-14 15:43:27.593382,-45
2021-10-14 15:43:27.593390,-36
2021-10-14 15:43:27.593399,-31
2021-10-14 15:43:27.593407,-36
2021-10-14 15:43:27.593415,-55
2021-10-14 15:43:27.593424,-69
2021-10-14 15:43:27.593432,-74
2021-10-14 15:43:27.593441,-79
2021-10-14 15:43:27.593449,-81
2021-10-14 15:43:27.593457,-69
2021-10-14 15:43:27.593465,-60
2021-10-14 15:43:27.593474,-72
2021-10-14 15:43:27.593482,-81
2021-10-14 15:43:27.593491,-74
2021-10-14 15:43:27.593499,-62
2021-10-14 15:43:27.593507,-55
2021-10-14 15:43:27.593515,-55
2021-10-14 15:43:27.593524,-55
2021-10-14 15:43:27.593532,-48
2021-10-14 15:43:27.773624,-43
2021-10-14 15:43:27.773645,-45
2021-10-14 15:43:27.773654,-40
2021-10-14 15:43:27.773662,-33
2021-10-14 15:43:27.773670,-33
2021-10-14 15:43:27.773679,-31
2021-10-14 15:43:27.773687,-24
2021-10-14 15:43:27.773695,-21
2021-10-14 15:43:27.773703,-24
2021-10-14 15:43:27.773712,-28
2021-10-14 15:43:27.773720,-36
2021-10-14 15:43:27.773728,-43
2021-10-14 15:43:27.773737,-43
2021-10-14 15:43:27.773745,-36
2021-10-14 15:43:27.773753,-38
2021-10-14 15:43:27.773761,-55
2021-10-14 15:43:27.773769,-60
2021-10-14 15:43:27.773778,-40
2021-10-14 15:43:27.773786,-16
2021-10-14 15:43:27.773794,4
2021-10-14 15:43:27.773802,108
2021-10-14 15:43:27.773811,416
2021-10-14 15:43:27.773819,762
2021-10-14 15:43:27.773827,550
2021-10-14 15:43:27.773835,-394
2021-10-14 15:43:27.773843,-1091
2021-10-14 15:43:27.773851,-774
2021-10-14 15:43:27.773860,-228
2021-10-14 15:43:27.773868,-117
2021-10-14 15:43:27.773876,-62
2021-10-14 15:43:28.088314,64
2021-10-14 15:43:28.088345,79
2021-10-14 15:43:28.088355,48
2021-10-14 15:43:28.088364,62
2021-10-14 15:43:28.088372,62
2021-10-14 15:43:28.088381,57
2021-10-14 15:43:28.088390,76
2021-10-14 15:43:28.088399,84
2021-10-14 15:43:28.088428,52
2021-10-14 15:43:28.088436,36
2021-10-14 15:43:28.088444,52
2021-10-14 15:43:28.088453,67
2021-10-14 15:43:28.088461,69
2021-10-14 15:43:28.088470,69
2021-10-14 15:43:28.088487,69
2021-10-14 15:43:28.088529,79
2021-10-14 15:43:28.088541,101
2021-10-14 15:43:28.088550,115
2021-10-14 15:43:28.088559,117
2021-10-14 15:43:28.088567,125
2021-10-14 15:43:28.088578,127
2021-10-14 15:43:28.088587,132
2021-10-14 15:43:28.088595,141
2021-10-14 15:43:28.088603,132
2021-10-14 15:43:28.088611,96
2021-10-14 15:43:28.088620,79
2021-10-14 15:43:28.088628,76
2021-10-14 15:43:28.088636,40
2021-10-14 15:43:28.088645,0
2021-10-14 15:43:28.088654,-9
2021-10-14 15:43:28.402328,-12
2021-10-14 15:43:28.402348,-33
2021-10-14 15:43:28.402358,-62
2021-10-14 15:43:28.402366,-81
2021-10-14 15:43:28.402375,-84
2021-10-14 15:43:28.402383,-81
2021-10-14 15:43:28.402391,-86
2021-10-14 15:43:28.402400,-98
2021-10-14 15:43:28.402408,-110
2021-10-14 15:43:28.402416,-110
2021-10-14 15:43:28.402424,-86
2021-10-14 15:43:28.402432,-67
2021-10-14 15:43:28.402441,-69
2021-10-14 15:43:28.402449,-72
2021-10-14 15:43:28.402457,-69
2021-10-14 15:43:28.402465,-76
2021-10-14 15:43:28.402473,-72
2021-10-14 15:43:28.402482,-60
2021-10-14 15:43:28.402490,-50
2021-10-14 15:43:28.402498,-38
2021-10-14 15:43:28.402506,-48
2021-10-14 15:43:28.402514,-57
2021-10-14 15:43:28.402522,-43
2021-10-14 15:43:28.402531,-33
2021-10-14 15:43:28.402539,-36
2021-10-14 15:43:28.402547,-36
2021-10-14 15:43:28.402555,-40
2021-10-14 15:43:28.402563,-52
2021-10-14 15:43:28.402571,-52
2021-10-14 15:43:28.402580,-40
2021-10-14 15:43:28.493350,-38
2021-10-14 15:43:28.493371,-50
2021-10-14 15:43:28.493381,-57
2021-10-14 15:43:28.493389,-55
2021-10-14 15:43:28.493398,-52
2021-10-14 15:43:28.493406,-52
2021-10-14 15:43:28.493415,-57
2021-10-14 15:43:28.493423,-69
2021-10-14 15:43:28.493431,-76
2021-10-14 15:43:28.493440,-79
2021-10-14 15:43:28.493448,-84
2021-10-14 15:43:28.493456,-84
2021-10-14 15:43:28.493464,-76
2021-10-14 15:43:28.493473,-81
2021-10-14 15:43:28.493481,-86
2021-10-14 15:43:28.493489,-93
2021-10-14 15:43:28.493498,-103
2021-10-14 15:43:28.493506,-105
2021-10-14 15:43:28.493514,-96
2021-10-14 15:43:28.493522,-74
2021-10-14 15:43:28.493531,-60
2021-10-14 15:43:28.493539,-62
2021-10-14 15:43:28.493547,-57
2021-10-14 15:43:28.493556,-64
2021-10-14 15:43:28.493564,-96
2021-10-14 15:43:28.493572,-103
2021-10-14 15:43:28.493580,-86
2021-10-14 15:43:28.493588,-81
2021-10-14 15:43:28.493597,-86
2021-10-14 15:43:28.493605,-88
2021-10-14 15:43:28.852710,-86
2021-10-14 15:43:28.852731,-67
2021-10-14 15:43:28.852741,-50
2021-10-14 15:43:28.852749,-57
2021-10-14 15:43:28.852758,-64
2021-10-14 15:43:28.852766,-31
2021-10-14 15:43:28.852774,110
2021-10-14 15:43:28.852783,437
2021-10-14 15:43:28.852791,697
2021-10-14 15:43:28.852799,305
2021-10-14 15:43:28.852808,-627
2021-10-14 15:43:28.852816,-1043
2021-10-14 15:43:28.852824,-630
2021-10-14 15:43:28.852833,-230
2021-10-14 15:43:28.852841,-144
2021-10-14 15:43:28.852849,-43
2021-10-14 15:43:28.852858,31
2021-10-14 15:43:28.852866,14
2021-10-14 15:43:28.852874,16
2021-10-14 15:43:28.852883,31
2021-10-14 15:43:28.852891,26
2021-10-14 15:43:28.852899,33
2021-10-14 15:43:28.852956,43
2021-10-14 15:43:28.852969,38
2021-10-14 15:43:28.852978,43
2021-10-14 15:43:28.852999,60
2021-10-14 15:43:28.853007,72
2021-10-14 15:43:28.853024,74
2021-10-14 15:43:28.853034,76
2021-10-14 15:43:28.853043,96
2021-10-14 15:43:28.988766,105
2021-10-14 15:43:28.988786,101
2021-10-14 15:43:28.988796,117
2021-10-14 15:43:28.988804,139
2021-10-14 15:43:28.988813,134
2021-10-14 15:43:28.988821,125
2021-10-14 15:43:28.988829,139
2021-10-14 15:43:28.988838,149
2021-10-14 15:43:28.988846,137
2021-10-14 15:43:28.988855,122
2021-10-14 15:43:28.988863,110
2021-10-14 15:43:28.988871,93
2021-10-14 15:43:28.988880,64
2021-10-14 15:43:28.988888,40
2021-10-14 15:43:28.988896,19
2021-10-14 15:43:28.988905,-9
2021-10-14 15:43:28.988913,-28
2021-10-14 15:43:28.988921,-50
2021-10-14 15:43:28.988930,-69
2021-10-14 15:43:28.988938,-74
2021-10-14 15:43:28.988946,-91
2021-10-14 15:43:28.988954,-110
2021-10-14 15:43:28.988963,-103
2021-10-14 15:43:28.988971,-96
2021-10-14 15:43:28.988979,-105
2021-10-14 15:43:28.988987,-98
2021-10-14 15:43:28.988996,-84
2021-10-14 15:43:28.989004,-81
2021-10-14 15:43:28.989012,-84
2021-10-14 15:43:28.989020,-79
2021-10-14 15:43:29.168677,-72
2021-10-14 15:43:29.168698,-57
2021-10-14 15:43:29.168707,-38
2021-10-14 15:43:29.168716,-24
2021-10-14 15:43:29.168724,-26
2021-10-14 15:43:29.168732,-36
2021-10-14 15:43:29.168741,-36
2021-10-14 15:43:29.168749,-26
2021-10-14 15:43:29.168757,-24
2021-10-14 15:43:29.168766,-24
2021-10-14 15:43:29.168774,-19
2021-10-14 15:43:29.168782,-26
2021-10-14 15:43:29.168791,-38
2021-10-14 15:43:29.168799,-28
2021-10-14 15:43:29.168808,-24
2021-10-14 15:43:29.168816,-43
2021-10-14 15:43:29.168824,-43
2021-10-14 15:43:29.168833,-31
2021-10-14 15:43:29.168841,-31
2021-10-14 15:43:29.168849,-38
2021-10-14 15:43:29.168858,-40
2021-10-14 15:43:29.168866,-43
2021-10-14 15:43:29.168874,-43
2021-10-14 15:43:29.168882,-43
2021-10-14 15:43:29.168891,-45
2021-10-14 15:43:29.168899,-45
2021-10-14 15:43:29.168907,-45
2021-10-14 15:43:29.168916,-45
2021-10-14 15:43:29.168924,-40
2021-10-14 15:43:29.168932,-50
2021-10-14 15:43:29.393277,-64
2021-10-14 15:43:29.393302,-50
2021-10-14 15:43:29.393312,-33
2021-10-14 15:43:29.393321,-45
2021-10-14 15:43:29.393329,-60
2021-10-14 15:43:29.393337,-50
2021-10-14 15:43:29.393345,-28
2021-10-14 15:43:29.393354,-14
2021-10-14 15:43:29.393362,-19
2021-10-14 15:43:29.393370,-28
2021-10-14 15:43:29.393379,-43
2021-10-14 15:43:29.393387,-62
2021-10-14 15:43:29.393395,-62
2021-10-14 15:43:29.393403,-55
2021-10-14 15:43:29.393412,-55
2021-10-14 15:43:29.393420,-64
2021-10-14 15:43:29.393428,-67
2021-10-14 15:43:29.393436,-57
2021-10-14 15:43:29.393445,-36
2021-10-14 15:43:29.393453,-21
2021-10-14 15:43:29.393461,-38
2021-10-14 15:43:29.393469,-50
2021-10-14 15:43:29.393477,-9
2021-10-14 15:43:29.393485,149
2021-10-14 15:43:29.393494,495
2021-10-14 15:43:29.393502,747
2021-10-14 15:43:29.393510,300
2021-10-14 15:43:29.393518,-687
2021-10-14 15:43:29.393527,-1094
2021-10-14 15:43:29.393535,-654
2021-10-14 15:43:29.618279,-276
2021-10-14 15:43:29.618300,-185
2021-10-14 15:43:29.618310,-43
2021-10-14 15:43:29.618318,36
2021-10-14 15:43:29.618327,-2
2021-10-14 15:43:29.618338,0
2021-10-14 15:43:29.618347,31
2021-10-14 15:43:29.618355,28
2021-10-14 15:43:29.618363,31
2021-10-14 15:43:29.618372,40
2021-10-14 15:43:29.618380,36
2021-10-14 15:43:29.618388,43
2021-10-14 15:43:29.618396,62
2021-10-14 15:43:29.618405,64
2021-10-14 15:43:29.618413,62
2021-10-14 15:43:29.618421,64
2021-10-14 15:43:29.618430,64
2021-10-14 15:43:29.618438,81
2021-10-14 15:43:29.618446,110
2021-10-14 15:43:29.618455,120
2021-10-14 15:43:29.618463,103
2021-10-14 15:43:29.618471,88
2021-10-14 15:43:29.618480,88
2021-10-14 15:43:29.618488,103
2021-10-14 15:43:29.618496,129
2021-10-14 15:43:29.618504,129
2021-10-14 15:43:29.618513,96
2021-10-14 15:43:29.618521,60
2021-10-14 15:43:29.618529,36
2021-10-14 15:43:29.618538,16
2021-10-14 15:43:29.933316,-9
2021-10-14 15:43:29.933337,-36
2021-10-14 15:43:29.933346,-60
2021-10-14 15:43:29.933355,-84
2021-10-14 15:43:29.933363,-98
2021-10-14 15:43:29.933371,-108
2021-10-14 15:43:29.933380,-125
2021-10-14 15:43:29.933388,-132
2021-10-14 15:43:29.933397,-122
2021-10-14 15:43:29.933405,-127
2021-10-14 15:43:29.933413,-137
2021-10-14 15:43:29.933422,-127
2021-10-14 15:43:29.933430,-108
2021-10-14 15:43:29.933438,-96
2021-10-14 15:43:29.933446,-96
2021-10-14 15:43:29.933454,-108
2021-10-14 15:43:29.933463,-103
2021-10-14 15:43:29.933471,-74
2021-10-14 15:43:29.933479,-69
2021-10-14 15:43:29.933487,-88
2021-10-14 15:43:29.933496,-67
2021-10-14 15:43:29.933504,-50
2021-10-14 15:43:29.933512,-62
2021-10-14 15:43:29.933520,-52
2021-10-14 15:43:29.933529,-36
2021-10-14 15:43:29.933537,-50
2021-10-14 15:43:29.933545,-60
2021-10-14 15:43:29.933553,-55
2021-10-14 15:43:29.933562,-67
2021-10-14 15:43:29.933570,-84
2021-10-14 15:43:30.158200,-81
2021-10-14 15:43:30.158221,-88
2021-10-14 15:43:30.158231,-103
2021-10-14 15:43:30.158240,-101
2021-10-14 15:43:30.158248,-96
2021-10-14 15:43:30.158257,-108
2021-10-14 15:43:30.158265,-113
2021-10-14 15:43:30.158274,-96
2021-10-14 15:43:30.158283,-88
2021-10-14 15:43:30.158291,-103
2021-10-14 15:43:30.158299,-108
2021-10-14 15:43:30.158308,-88
2021-10-14 15:43:30.158316,-76
2021-10-14 15:43:30.158325,-91
2021-10-14 15:43:30.158333,-117
2021-10-14 15:43:30.158341,-122
2021-10-14 15:43:30.158350,-105
2021-10-14 15:43:30.158358,-88
2021-10-14 15:43:30.158366,-74
2021-10-14 15:43:30.158375,-72
2021-10-14 15:43:30.158383,-81
2021-10-14 15:43:30.158392,-76
2021-10-14 15:43:30.158400,-50
2021-10-14 15:43:30.158408,-33
2021-10-14 15:43:30.158417,-28
2021-10-14 15:43:30.158425,-36
2021-10-14 15:43:30.158434,-62
2021-10-14 15:43:30.158442,-74
2021-10-14 15:43:30.158450,-52
2021-10-14 15:43:30.158459,-36
2021-10-14 15:43:30.382272,-45
2021-10-14 15:43:30.382292,-60
2021-10-14 15:43:30.382301,-55
2021-10-14 15:43:30.382310,-36
2021-10-14 15:43:30.382318,-31
2021-10-14 15:43:30.382327,-38
2021-10-14 15:43:30.382335,-33
2021-10-14 15:43:30.382343,-12
2021-10-14 15:43:30.382352,91
2021-10-14 15:43:30.382360,391
2021-10-14 15:43:30.382369,690
2021-10-14 15:43:30.382377,454
2021-10-14 15:43:30.382385,-406
2021-10-14 15:43:30.382393,-1007
2021-10-14 15:43:30.382402,-721
2021-10-14 15:43:30.382410,-252
2021-10-14 15:43:30.382418,-137
2021-10-14 15:43:30.382426,-64
2021-10-14 15:43:30.382435,36
2021-10-14 15:43:30.382443,28
2021-10-14 15:43:30.382451,9
2021-10-14 15:43:30.382459,33
2021-10-14 15:43:30.382468,40
2021-10-14 15:43:30.382476,43
2021-10-14 15:43:30.382484,62
2021-10-14 15:43:30.382492,62
2021-10-14 15:43:30.382501,60
2021-10-14 15:43:30.382509,69
2021-10-14 15:43:30.382517,76
2021-10-14 15:43:30.382525,84
2021-10-14 15:43:30.563293,88
2021-10-14 15:43:30.563317,91
2021-10-14 15:43:30.563326,96
2021-10-14 15:43:30.563335,96
2021-10-14 15:43:30.563344,101
2021-10-14 15:43:30.563352,115
2021-10-14 15:43:30.563360,115
2021-10-14 15:43:30.563369,98
2021-10-14 15:43:30.563377,98
2021-10-14 15:43:30.563386,108
2021-10-14 15:43:30.563394,105
2021-10-14 15:43:30.563402,98
2021-10-14 15:43:30.563411,76
2021-10-14 15:43:30.563419,40
2021-10-14 15:43:30.563427,12
2021-10-14 15:43:30.563435,-2
2021-10-14 15:43:30.563444,-19
2021-10-14 15:43:30.563452,-36
2021-10-14 15:43:30.563460,-48
2021-10-14 15:43:30.563468,-48
2021-10-14 15:43:30.563477,-45
2021-10-14 15:43:30.563485,-64
2021-10-14 15:43:30.563493,-81
2021-10-14 15:43:30.563501,-72
2021-10-14 15:43:30.563510,-62
2021-10-14 15:43:30.563518,-76
2021-10-14 15:43:30.563526,-81
2021-10-14 15:43:30.563534,-76
2021-10-14 15:43:30.563543,-60
2021-10-14 15:43:30.563551,-55
2021-10-14 15:43:30.878478,-62
2021-10-14 15:43:30.878500,-55
2021-10-14 15:43:30.878509,-33
2021-10-14 15:43:30.878518,-26
2021-10-14 15:43:30.878526,-31
2021-10-14 15:43:30.878535,-31
2021-10-14 15:43:30.878543,-31
2021-10-14 15:43:30.878551,-33
2021-10-14 15:43:30.878560,-28
2021-10-14 15:43:30.878568,-19
2021-10-14 15:43:30.878622,-14
2021-10-14 15:43:30.878629,-16
2021-10-14 15:43:30.878634,-24
2021-10-14 15:43:30.878638,-21
2021-10-14 15:43:30.878642,-12
2021-10-14 15:43:30.878647,-19
2021-10-14 15:43:30.878651,-33
2021-10-14 15:43:30.878655,-43
2021-10-14 15:43:30.878660,-43
2021-10-14 15:43:30.878664,-33
2021-10-14 15:43:30.878668,-24
2021-10-14 15:43:30.878672,-33
2021-10-14 15:43:30.878677,-48
2021-10-14 15:43:30.878681,-45
2021-10-14 15:43:30.878685,-38
2021-10-14 15:43:30.878690,-40
2021-10-14 15:43:30.878694,-48
2021-10-14 15:43:30.878698,-57
2021-10-14 15:43:30.878703,-52
2021-10-14 15:43:30.878707,-45
2021-10-14 15:43:31.013636,-43
2021-10-14 15:43:31.013657,-36
2021-10-14 15:43:31.013666,-36
2021-10-14 15:43:31.013675,-40
2021-10-14 15:43:31.013683,-36
2021-10-14 15:43:31.013691,-28
2021-10-14 15:43:31.013700,-38
2021-10-14 15:43:31.013708,-48
2021-10-14 15:43:31.013716,-31
2021-10-14 15:43:31.013725,-9
2021-10-14 15:43:31.013733,-7
2021-10-14 15:43:31.013741,-9
2021-10-14 15:43:31.013750,-16
2021-10-14 15:43:31.013758,-38
2021-10-14 15:43:31.013766,-57
2021-10-14 15:43:31.013774,-50
2021-10-14 15:43:31.013783,-43
2021-10-14 15:43:31.013791,-43
2021-10-14 15:43:31.013799,-43
2021-10-14 15:43:31.013807,-38
2021-10-14 15:43:31.013816,-28
2021-10-14 15:43:31.013824,-19
2021-10-14 15:43:31.013832,-21
2021-10-14 15:43:31.013841,-31
2021-10-14 15:43:31.013849,-14
2021-10-14 15:43:31.013857,67
2021-10-14 15:43:31.013866,317
2021-10-14 15:43:31.013874,680
2021-10-14 15:43:31.013882,670
2021-10-14 15:43:31.013890,-93
2021-10-14 15:43:31.283312,-916
2021-10-14 15:43:31.283333,-836
2021-10-14 15:43:31.283342,-315
2021-10-14 15:43:31.283351,-113
2021-10-14 15:43:31.283359,-48
2021-10-14 15:43:31.283368,60
2021-10-14 15:43:31.283376,72
2021-10-14 15:43:31.283385,48
2021-10-14 15:43:31.283393,72
2021-10-14 15:43:31.283402,74
2021-10-14 15:43:31.283410,45
2021-10-14 15:43:31.283418,55
2021-10-14 15:43:31.283427,79
2021-10-14 15:43:31.283435,84
2021-10-14 15:43:31.283443,88
2021-10-14 15:43:31.283451,91
2021-10-14 15:43:31.283460,86
2021-10-14 15:43:31.283468,98
2021-10-14 15:43:31.283476,127
2021-10-14 15:43:31.283484,141
2021-10-14 15:43:31.283493,137
2021-10-14 15:43:31.283501,141
2021-10-14 15:43:31.283509,156
2021-10-14 15:43:31.283518,165
2021-10-14 15:43:31.283526,180
2021-10-14 15:43:31.283535,197
2021-10-14 15:43:31.283543,197
2021-10-14 15:43:31.283551,189
2021-10-14 15:43:31.283560,182
2021-10-14 15:43:31.283568,165
2021-10-14 15:43:31.508691,141
2021-10-14 15:43:31.508713,120
2021-10-14 15:43:31.508722,96
2021-10-14 15:43:31.508731,62
2021-10-14 15:43:31.508739,16
2021-10-14 15:43:31.508747,-2
2021-10-14 15:43:31.508756,0
2021-10-14 15:43:31.508764,-24
2021-10-14 15:43:31.508772,-43
2021-10-14 15:43:31.508781,-33
2021-10-14 15:43:31.508789,-40
2021-10-14 15:43:31.508804,-62
2021-10-14 15:43:31.508812,-60
2021-10-14 15:43:31.508820,-48
2021-10-14 15:43:31.508828,-45
2021-10-14 15:43:31.508837,-52
2021-10-14 15:43:31.508845,-55
2021-10-14 15:43:31.508853,-50
2021-10-14 15:43:31.508861,-60
2021-10-14 15:43:31.508869,-62
2021-10-14 15:43:31.508878,-48
2021-10-14 15:43:31.508886,-50
2021-10-14 15:43:31.508894,-57
2021-10-14 15:43:31.508902,-38
2021-10-14 15:43:31.508911,-21
2021-10-14 15:43:31.508919,-14
2021-10-14 15:43:31.508927,-2
2021-10-14 15:43:31.508935,4
2021-10-14 15:43:31.508944,-9
2021-10-14 15:43:31.508952,-14
2021-10-14 15:43:31.778327,4
2021-10-14 15:43:31.778355,12
2021-10-14 15:43:31.778364,-19
2021-10-14 15:43:31.778373,-50
2021-10-14 15:43:31.778381,-55
2021-10-14 15:43:31.778389,-38
2021-10-14 15:43:31.778398,-24
2021-10-14 15:43:31.778406,-33
2021-10-14 15:43:31.778414,-57
2021-10-14 15:43:31.778422,-60
2021-10-14 15:43:31.778431,-52
2021-10-14 15:43:31.778439,-55
2021-10-14 15:43:31.778447,-62
2021-10-14 15:43:31.778455,-67
2021-10-14 15:43:31.778464,-64
2021-10-14 15:43:31.778472,-62
2021-10-14 15:43:31.778480,-72
2021-10-14 15:43:31.778488,-64
2021-10-14 15:43:31.778497,-52
2021-10-14 15:43:31.778505,-52
2021-10-14 15:43:31.778513,-52
2021-10-14 15:43:31.778521,-57
2021-10-14 15:43:31.778530,-62
2021-10-14 15:43:31.778538,-48
2021-10-14 15:43:31.778546,-28
2021-10-14 15:43:31.778554,-24
2021-10-14 15:43:31.778562,-19
2021-10-14 15:43:31.778571,-9
2021-10-14 15:43:31.778579,7
2021-10-14 15:43:31.778587,2
2021-10-14 15:43:32.047708,-28
2021-10-14 15:43:32.047730,-40
2021-10-14 15:43:32.047739,-36
2021-10-14 15:43:32.047747,-43
2021-10-14 15:43:32.047756,-48
2021-10-14 15:43:32.047764,-45
2021-10-14 15:43:32.047772,-38
2021-10-14 15:43:32.047780,-36
2021-10-14 15:43:32.047788,-36
2021-10-14 15:43:32.047796,-38
2021-10-14 15:43:32.047805,-33
2021-10-14 15:43:32.047813,0
2021-10-14 15:43:32.047821,134
2021-10-14 15:43:32.047830,468
2021-10-14 15:43:32.047838,771
2021-10-14 15:43:32.047846,444
2021-10-14 15:43:32.047854,-550
2021-10-14 15:43:32.047863,-1147
2021-10-14 15:43:32.047871,-771
2021-10-14 15:43:32.047879,-295
2021-10-14 15:43:32.047888,-182
2021-10-14 15:43:32.047896,-67
2021-10-14 15:43:32.047904,57
2021-10-14 15:43:32.047912,50
2021-10-14 15:43:32.047921,31
2021-10-14 15:43:32.047929,45
2021-10-14 15:43:32.047937,43
2021-10-14 15:43:32.047946,40
2021-10-14 15:43:32.047954,60
2021-10-14 15:43:32.047963,69
2021-10-14 15:43:32.183710,62
2021-10-14 15:43:32.183731,69
2021-10-14 15:43:32.183741,72
2021-10-14 15:43:32.183749,72
2021-10-14 15:43:32.183758,96
2021-10-14 15:43:32.183766,122
2021-10-14 15:43:32.183774,120
2021-10-14 15:43:32.183783,117
2021-10-14 15:43:32.183791,129
2021-10-14 15:43:32.183800,137
2021-10-14 15:43:32.183808,149
2021-10-14 15:43:32.183816,165
2021-10-14 15:43:32.183825,158
2021-10-14 15:43:32.183833,144
2021-10-14 15:43:32.183841,149
2021-10-14 15:43:32.183850,144
2021-10-14 15:43:32.183858,108
2021-10-14 15:43:32.183866,72
2021-10-14 15:43:32.183875,48
2021-10-14 15:43:32.183883,19
2021-10-14 15:43:32.183892,-24
2021-10-14 15:43:32.183900,-50
2021-10-14 15:43:32.183908,-52
2021-10-14 15:43:32.183917,-67
2021-10-14 15:43:32.183925,-96
2021-10-14 15:43:32.183933,-117
2021-10-14 15:43:32.183941,-120
2021-10-14 15:43:32.183950,-113
2021-10-14 15:43:32.183958,-101
2021-10-14 15:43:32.183966,-86
2021-10-14 15:43:32.452379,-91
2021-10-14 15:43:32.452401,-101
2021-10-14 15:43:32.452410,-91
2021-10-14 15:43:32.452419,-86
2021-10-14 15:43:32.452427,-91
2021-10-14 15:43:32.452435,-81
2021-10-14 15:43:32.452443,-72
2021-10-14 15:43:32.452452,-84
2021-10-14 15:43:32.452460,-84
2021-10-14 15:43:32.452468,-64
2021-10-14 15:43:32.452476,-50
2021-10-14 15:43:32.452485,-45
2021-10-14 15:43:32.452493,-50
2021-10-14 15:43:32.452501,-60
2021-10-14 15:43:32.452509,-55
2021-10-14 15:43:32.452518,-40
2021-10-14 15:43:32.452526,-36
2021-10-14 15:43:32.452534,-40
2021-10-14 15:43:32.452542,-55
2021-10-14 15:43:32.452550,-69
2021-10-14 15:43:32.452559,-67
2021-10-14 15:43:32.452567,-57
2021-10-14 15:43:32.452575,-60
2021-10-14 15:43:32.452584,-64
2021-10-14 15:43:32.452592,-76
2021-10-14 15:43:32.452600,-84
2021-10-14 15:43:32.452608,-79
2021-10-14 15:43:32.452616,-76
2021-10-14 15:43:32.452624,-81
2021-10-14 15:43:32.452632,-96
2021-10-14 15:43:32.633362,-113
2021-10-14 15:43:32.633384,-108
2021-10-14 15:43:32.633394,-96
2021-10-14 15:43:32.633402,-88
2021-10-14 15:43:32.633411,-76
2021-10-14 15:43:32.633419,-76
2021-10-14 15:43:32.633427,-98
2021-10-14 15:43:32.633435,-103
2021-10-14 15:43:32.633447,-91
2021-10-14 15:43:32.633455,-74
2021-10-14 15:43:32.633463,-62
2021-10-14 15:43:32.633472,-62
2021-10-14 15:43:32.633480,-64
2021-10-14 15:43:32.633488,-55
2021-10-14 15:43:32.633497,-62
2021-10-14 15:43:32.633505,-86
2021-10-14 15:43:32.633513,-84
2021-10-14 15:43:32.633522,-74
2021-10-14 15:43:32.633530,-72
2021-10-14 15:43:32.633538,-62
2021-10-14 15:43:32.633547,-64
2021-10-14 15:43:32.633555,-76
2021-10-14 15:43:32.633563,-67
2021-10-14 15:43:32.633571,-62
2021-10-14 15:43:32.633579,-62
2021-10-14 15:43:32.633588,-40
2021-10-14 15:43:32.633596,19
2021-10-14 15:43:32.633604,206
2021-10-14 15:43:32.633613,591
2021-10-14 15:43:32.633621,764
2021-10-14 15:43:33.083708,144
2021-10-14 15:43:33.083730,-851
2021-10-14 15:43:33.083739,-1065
2021-10-14 15:43:33.083748,-521
2021-10-14 15:43:33.083756,-182
2021-10-14 15:43:33.083764,-127
2021-10-14 15:43:33.083773,-2
2021-10-14 15:43:33.083781,74
2021-10-14 15:43:33.083789,31
2021-10-14 15:43:33.083797,33
2021-10-14 15:43:33.083805,69
2021-10-14 15:43:33.083814,60
2021-10-14 15:43:33.083822,50
2021-10-14 15:43:33.083830,72
2021-10-14 15:43:33.083838,76
2021-10-14 15:43:33.083846,64
2021-10-14 15:43:33.083855,74
2021-10-14 15:43:33.083863,86
2021-10-14 15:43:33.083871,88
2021-10-14 15:43:33.083879,101
2021-10-14 15:43:33.083888,117
2021-10-14 15:43:33.083896,122
2021-10-14 15:43:33.083904,122
2021-10-14 15:43:33.083912,132
2021-10-14 15:43:33.083920,146
2021-10-14 15:43:33.083929,161
2021-10-14 15:43:33.083937,168
2021-10-14 15:43:33.083945,161
2021-10-14 15:43:33.083953,156
2021-10-14 15:43:33.083962,156
2021-10-14 15:43:33.262193,137
2021-10-14 15:43:33.262214,101
2021-10-14 15:43:33.262224,72
2021-10-14 15:43:33.262233,52
2021-10-14 15:43:33.262243,28
2021-10-14 15:43:33.262252,-7
2021-10-14 15:43:33.262260,-40
2021-10-14 15:43:33.262269,-48
2021-10-14 15:43:33.262277,-50
2021-10-14 15:43:33.262286,-72
2021-10-14 15:43:33.262294,-86
2021-10-14 15:43:33.262302,-88
2021-10-14 15:43:33.262311,-91
2021-10-14 15:43:33.262320,-88
2021-10-14 15:43:33.262328,-81
2021-10-14 15:43:33.262337,-86
2021-10-14 15:43:33.262345,-98
2021-10-14 15:43:33.262354,-98
2021-10-14 15:43:33.262362,-88
2021-10-14 15:43:33.262371,-76
2021-10-14 15:43:33.262379,-69
2021-10-14 15:43:33.262387,-60
2021-10-14 15:43:33.262396,-52
2021-10-14 15:43:33.262405,-55
2021-10-14 15:43:33.262413,-57
2021-10-14 15:43:33.262422,-52
2021-10-14 15:43:33.262431,-60
2021-10-14 15:43:33.262439,-62
2021-10-14 15:43:33.262447,-48
2021-10-14 15:43:33.262456,-36
2021-10-14 15:43:33.397740,-33
2021-10-14 15:43:33.397760,-36
2021-10-14 15:43:33.397768,-28
2021-10-14 15:43:33.397775,-36
2021-10-14 15:43:33.397783,-57
2021-10-14 15:43:33.397791,-62
2021-10-14 15:43:33.397799,-50
2021-10-14 15:43:33.397806,-50
2021-10-14 15:43:33.397814,-57
2021-10-14 15:43:33.397821,-62
2021-10-14 15:43:33.397829,-69
2021-10-14 15:43:33.397837,-72
2021-10-14 15:43:33.397845,-62
2021-10-14 15:43:33.397852,-64
2021-10-14 15:43:33.397858,-79
2021-10-14 15:43:33.397864,-91
2021-10-14 15:43:33.397870,-81
2021-10-14 15:43:33.397876,-60
2021-10-14 15:43:33.397884,-55
2021-10-14 15:43:33.397891,-60
2021-10-14 15:43:33.397899,-60
2021-10-14 15:43:33.397906,-64
2021-10-14 15:43:33.397913,-74
2021-10-14 15:43:33.397920,-76
2021-10-14 15:43:33.397927,-69
2021-10-14 15:43:33.397934,-50
2021-10-14 15:43:33.397942,-26
2021-10-14 15:43:33.397949,-24
2021-10-14 15:43:33.397956,-26
2021-10-14 15:43:33.397963,-14
2021-10-14 15:43:33.623737,-12
2021-10-14 15:43:33.623759,-33
2021-10-14 15:43:33.623769,-50
2021-10-14 15:43:33.623777,-62
2021-10-14 15:43:33.623786,-69
2021-10-14 15:43:33.623794,-57
2021-10-14 15:43:33.623802,-36
2021-10-14 15:43:33.623811,-19
2021-10-14 15:43:33.623819,-28
2021-10-14 15:43:33.623827,-43
2021-10-14 15:43:33.623836,-40
2021-10-14 15:43:33.623844,-33
2021-10-14 15:43:33.623852,-24
2021-10-14 15:43:33.623861,55
2021-10-14 15:43:33.623869,329
2021-10-14 15:43:33.623878,673
2021-10-14 15:43:33.623886,565
2021-10-14 15:43:33.623894,-257
2021-10-14 15:43:33.623903,-988
2021-10-14 15:43:33.623911,-791
2021-10-14 15:43:33.623919,-266
2021-10-14 15:43:33.623928,-113
2021-10-14 15:43:33.623936,-48
2021-10-14 15:43:33.623944,72
2021-10-14 15:43:33.623952,79
2021-10-14 15:43:33.623961,52
2021-10-14 15:43:33.623969,76
2021-10-14 15:43:33.623978,79
2021-10-14 15:43:33.623986,64
2021-10-14 15:43:33.623994,72
2021-10-14 15:43:33.848339,86
2021-10-14 15:43:33.848360,88
2021-10-14 15:43:33.848369,88
2021-10-14 15:43:33.848378,88
2021-10-14 15:43:33.848386,96
2021-10-14 15:43:33.848395,115
2021-10-14 15:43:33.848403,137
2021-10-14 15:43:33.848411,144
2021-10-14 15:43:33.848419,141
2021-10-14 15:43:33.848428,144
2021-10-14 15:43:33.848436,146
2021-10-14 15:43:33.848444,161
2021-10-14 15:43:33.848452,180
2021-10-14 15:43:33.848460,177
2021-10-14 15:43:33.848469,161
2021-10-14 15:43:33.848477,158
2021-10-14 15:43:33.848485,156
2021-10-14 15:43:33.848493,139
2021-10-14 15:43:33.848501,117
2021-10-14 15:43:33.848510,96
2021-10-14 15:43:33.848518,67
2021-10-14 15:43:33.848526,31
2021-10-14 15:43:33.848534,12
2021-10-14 15:43:33.848551,0
2021-10-14 15:43:33.848560,-19
2021-10-14 15:43:33.848568,-28
2021-10-14 15:43:33.848576,-33
2021-10-14 15:43:33.848584,-36
2021-10-14 15:43:33.848592,-24
2021-10-14 15:43:33.848601,-14
2021-10-14 15:43:34.028355,-28
2021-10-14 15:43:34.028376,-45
2021-10-14 15:43:34.028385,-45
2021-10-14 15:43:34.028393,-31
2021-10-14 15:43:34.028402,-12
2021-10-14 15:43:34.028410,-7
2021-10-14 15:43:34.028418,-16
2021-10-14 15:43:34.028426,-21
2021-10-14 15:43:34.028435,-16
2021-10-14 15:43:34.028443,-2
2021-10-14 15:43:34.028452,12
2021-10-14 15:43:34.028460,19
2021-10-14 15:43:34.028468,16
2021-10-14 15:43:34.028476,9
2021-10-14 15:43:34.028485,4
2021-10-14 15:43:34.028493,12
2021-10-14 15:43:34.028501,16
2021-10-14 15:43:34.028509,2
2021-10-14 15:43:34.028518,-14
2021-10-14 15:43:34.028526,-21
2021-10-14 15:43:34.028535,-26
2021-10-14 15:43:34.028543,-21
2021-10-14 15:43:34.028551,-9
2021-10-14 15:43:34.028559,-14
2021-10-14 15:43:34.028567,-21
2021-10-14 15:43:34.028576,-24
2021-10-14 15:43:34.028584,-28
2021-10-14 15:43:34.028592,-31
2021-10-14 15:43:34.028600,-31
2021-10-14 15:43:34.028608,-26
2021-10-14 15:43:34.388111,-19
2021-10-14 15:43:34.388132,-26
2021-10-14 15:43:34.388142,-36
2021-10-14 15:43:34.388150,-33
2021-10-14 15:43:34.388159,-36
2021-10-14 15:43:34.388167,-40
2021-10-14 15:43:34.388176,-38
2021-10-14 15:43:34.388184,-43
2021-10-14 15:43:34.388193,-43
2021-10-14 15:43:34.388201,-31
2021-10-14 15:43:34.388209,-31
2021-10-14 15:43:34.388218,-36
2021-10-14 15:43:34.388226,-28
2021-10-14 15:43:34.388234,-21
2021-10-14 15:43:34.388243,-21
2021-10-14 15:43:34.388251,-16
2021-10-14 15:43:34.388259,7
2021-10-14 15:43:34.388267,16
2021-10-14 15:43:34.388276,-9
2021-10-14 15:43:34.388284,-38
2021-10-14 15:43:34.388292,-33
2021-10-14 15:43:34.388301,-14
2021-10-14 15:43:34.388309,-14
2021-10-14 15:43:34.388317,-21
2021-10-14 15:43:34.388325,-12
2021-10-14 15:43:34.388334,-7
2021-10-14 15:43:34.388342,-16
2021-10-14 15:43:34.388350,-12
2021-10-14 15:43:34.388359,7
2021-10-14 15:43:34.388367,12
2021-10-14 15:43:34.613004,36
2021-10-14 15:43:34.613025,202
2021-10-14 15:43:34.613034,562
2021-10-14 15:43:34.613043,788
2021-10-14 15:43:34.613051,322
2021-10-14 15:43:34.613060,-651
2021-10-14 15:43:34.613068,-1034
2021-10-14 15:43:34.613076,-577
2021-10-14 15:43:34.613085,-187
2021-10-14 15:43:34.613093,-115
2021-10-14 15:43:34.613101,-4
2021-10-14 15:43:34.613109,81
2021-10-14 15:43:34.613118,62
2021-10-14 15:43:34.613126,69
2021-10-14 15:43:34.613134,91
2021-10-14 15:43:34.613143,81
2021-10-14 15:43:34.613151,91
2021-10-14 15:43:34.613159,113
2021-10-14 15:43:34.613168,98
2021-10-14 15:43:34.613176,91
2021-10-14 15:43:34.613184,110
2021-10-14 15:43:34.613193,115
2021-10-14 15:43:34.613201,105
2021-10-14 15:43:34.613209,96
2021-10-14 15:43:34.613218,91
2021-10-14 15:43:34.613226,103
2021-10-14 15:43:34.613234,117
2021-10-14 15:43:34.613242,127
2021-10-14 15:43:34.613250,144
2021-10-14 15:43:34.613259,158
2021-10-14 15:43:34.882146,151
2021-10-14 15:43:34.882167,151
2021-10-14 15:43:34.882177,163
2021-10-14 15:43:34.882185,153
2021-10-14 15:43:34.882194,125
2021-10-14 15:43:34.882202,105
2021-10-14 15:43:34.882210,93
2021-10-14 15:43:34.882219,74
2021-10-14 15:43:34.882228,28
2021-10-14 15:43:34.882236,-12
2021-10-14 15:43:34.882244,-33
2021-10-14 15:43:34.882253,-60
2021-10-14 15:43:34.882261,-84
2021-10-14 15:43:34.882269,-81
2021-10-14 15:43:34.882278,-88
2021-10-14 15:43:34.882286,-101
2021-10-14 15:43:34.882294,-98
2021-10-14 15:43:34.882303,-96
2021-10-14 15:43:34.882311,-96
2021-10-14 15:43:34.882319,-91
2021-10-14 15:43:34.882327,-88
2021-10-14 15:43:34.882335,-93
2021-10-14 15:43:34.882344,-93
2021-10-14 15:43:34.882352,-88
2021-10-14 15:43:34.882360,-84
2021-10-14 15:43:34.882368,-64
2021-10-14 15:43:34.882376,-57
2021-10-14 15:43:34.882384,-64
2021-10-14 15:43:34.882393,-62
2021-10-14 15:43:34.882401,-62
2021-10-14 15:43:34.973061,-62
2021-10-14 15:43:34.973081,-50
2021-10-14 15:43:34.973090,-43
2021-10-14 15:43:34.973099,-50
2021-10-14 15:43:34.973108,-48
2021-10-14 15:43:34.973116,-48
2021-10-14 15:43:34.973124,-57
2021-10-14 15:43:34.973132,-55
2021-10-14 15:43:34.973141,-52
2021-10-14 15:43:34.973149,-64
2021-10-14 15:43:34.973158,-84
2021-10-14 15:43:34.973166,-86
2021-10-14 15:43:34.973174,-79
2021-10-14 15:43:34.973182,-84
2021-10-14 15:43:34.973190,-93
2021-10-14 15:43:34.973198,-91
2021-10-14 15:43:34.973207,-101
2021-10-14 15:43:34.973215,-103
2021-10-14 15:43:34.973223,-84
2021-10-14 15:43:34.973231,-81
2021-10-14 15:43:34.973240,-98
2021-10-14 15:43:34.973248,-96
2021-10-14 15:43:34.973256,-93
2021-10-14 15:43:34.973264,-105
2021-10-14 15:43:34.973272,-101
2021-10-14 15:43:34.973280,-84
2021-10-14 15:43:34.973289,-81
2021-10-14 15:43:34.973297,-76
2021-10-14 15:43:34.973305,-60
2021-10-14 15:43:34.973314,-62
2021-10-14 15:43:35.153356,-84
2021-10-14 15:43:35.153377,-96
2021-10-14 15:43:35.153386,-96
2021-10-14 15:43:35.153395,-108
2021-10-14 15:43:35.153403,-117
2021-10-14 15:43:35.153412,-105
2021-10-14 15:43:35.153420,-101
2021-10-14 15:43:35.153428,-96
2021-10-14 15:43:35.153437,-86
2021-10-14 15:43:35.153445,-93
2021-10-14 15:43:35.153453,-103
2021-10-14 15:43:35.153461,-91
2021-10-14 15:43:35.153470,-64
2021-10-14 15:43:35.153478,38
2021-10-14 15:43:35.153486,351
2021-10-14 15:43:35.153495,704
2021-10-14 15:43:35.153503,492
2021-10-14 15:43:35.153511,-461
2021-10-14 15:43:35.153519,-1175
2021-10-14 15:43:35.153528,-877
2021-10-14 15:43:35.153536,-348
2021-10-14 15:43:35.153544,-214
2021-10-14 15:43:35.153553,-115
2021-10-14 15:43:35.153561,24
2021-10-14 15:43:35.153569,26
2021-10-14 15:43:35.153577,7
2021-10-14 15:43:35.153585,36
2021-10-14 15:43:35.153593,33
2021-10-14 15:43:35.153602,24
2021-10-14 15:43:35.153632,50
2021-10-14 15:43:35.468771,67
2021-10-14 15:43:35.468793,60
2021-10-14 15:43:35.468802,60
2021-10-14 15:43:35.468809,62
2021-10-14 15:43:35.468816,62
2021-10-14 15:43:35.468823,67
2021-10-14 15:43:35.468832,81
2021-10-14 15:43:35.468843,93
2021-10-14 15:43:35.468852,96
2021-10-14 15:43:35.468861,96
2021-10-14 15:43:35.468871,115
2021-10-14 15:43:35.468880,141
2021-10-14 15:43:35.468889,149
2021-10-14 15:43:35.468898,141
2021-10-14 15:43:35.468906,127
2021-10-14 15:43:35.468914,115
2021-10-14 15:43:35.468922,108
2021-10-14 15:43:35.468929,96
2021-10-14 15:43:35.468936,67
2021-10-14 15:43:35.468944,33
2021-10-14 15:43:35.468951,9
2021-10-14 15:43:35.468958,-16
2021-10-14 15:43:35.468966,-50
2021-10-14 15:43:35.468973,-69
2021-10-14 15:43:35.468980,-72
2021-10-14 15:43:35.468986,-84
2021-10-14 15:43:35.468993,-103
2021-10-14 15:43:35.468999,-103
2021-10-14 15:43:35.469006,-91
2021-10-14 15:43:35.469014,-96
2021-10-14 15:43:35.738257,-103
2021-10-14 15:43:35.738303,-101
2021-10-14 15:43:35.738315,-98
2021-10-14 15:43:35.738324,-108
2021-10-14 15:43:35.738332,-113
2021-10-14 15:43:35.738341,-110
2021-10-14 15:43:35.738349,-103
2021-10-14 15:43:35.738358,-91
2021-10-14 15:43:35.738366,-88
2021-10-14 15:43:35.738374,-96
2021-10-14 15:43:35.738382,-88
2021-10-14 15:43:35.738391,-76
2021-10-14 15:43:35.738399,-69
2021-10-14 15:43:35.738407,-64
2021-10-14 15:43:35.738415,-72
2021-10-14 15:43:35.738424,-81
2021-10-14 15:43:35.738432,-76
2021-10-14 15:43:35.738440,-69
2021-10-14 15:43:35.738449,-69
2021-10-14 15:43:35.738457,-72
2021-10-14 15:43:35.738465,-76
2021-10-14 15:43:35.738473,-86
2021-10-14 15:43:35.738482,-79
2021-10-14 15:43:35.738490,-72
2021-10-14 15:43:35.738498,-79
2021-10-14 15:43:35.738506,-91
2021-10-14 15:43:35.738514,-91
2021-10-14 15:43:35.738523,-81
2021-10-14 15:43:35.738531,-79
2021-10-14 15:43:35.738539,-79
2021-10-14 15:43:36.008387,-79
2021-10-14 15:43:36.008408,-84
2021-10-14 15:43:36.008418,-93
2021-10-14 15:43:36.008426,-98
2021-10-14 15:43:36.008435,-93
2021-10-14 15:43:36.008443,-84
2021-10-14 15:43:36.008452,-86
2021-10-14 15:43:36.008460,-93
2021-10-14 15:43:36.008468,-93
2021-10-14 15:43:36.008477,-81
2021-10-14 15:43:36.008485,-69
2021-10-14 15:43:36.008493,-62
2021-10-14 15:43:36.008502,-50
2021-10-14 15:43:36.008510,-50
2021-10-14 15:43:36.008518,-79
2021-10-14 15:43:36.008527,-101
2021-10-14 15:43:36.008535,-98
2021-10-14 15:43:36.008544,-96
2021-10-14 15:43:36.008552,-103
2021-10-14 15:43:36.008560,-103
2021-10-14 15:43:36.008569,-98
2021-10-14 15:43:36.008577,-98
2021-10-14 15:43:36.008585,-98
2021-10-14 15:43:36.008593,-86
2021-10-14 15:43:36.008602,-72
2021-10-14 15:43:36.008610,-72
2021-10-14 15:43:36.008618,-38
2021-10-14 15:43:36.008627,146
2021-10-14 15:43:36.008635,529
2021-10-14 15:43:36.008644,755
2021-10-14 15:43:36.098789,238
2021-10-14 15:43:36.098811,-781
2021-10-14 15:43:36.098820,-1144
2021-10-14 15:43:36.098828,-615
2021-10-14 15:43:36.098837,-192
2021-10-14 15:43:36.098845,-141
2021-10-14 15:43:36.098853,-43
2021-10-14 15:43:36.098862,57
2021-10-14 15:43:36.098870,45
2021-10-14 15:43:36.098878,40
2021-10-14 15:43:36.098886,50
2021-10-14 15:43:36.098895,38
2021-10-14 15:43:36.098903,45
2021-10-14 15:43:36.098911,48
2021-10-14 15:43:36.098920,33
2021-10-14 15:43:36.098928,28
2021-10-14 15:43:36.098936,40
2021-10-14 15:43:36.098944,57
2021-10-14 15:43:36.098953,62
2021-10-14 15:43:36.098961,57
2021-10-14 15:43:36.098969,67
2021-10-14 15:43:36.098977,86
2021-10-14 15:43:36.098986,101
2021-10-14 15:43:36.098994,108
2021-10-14 15:43:36.099002,113
2021-10-14 15:43:36.099011,115
2021-10-14 15:43:36.099019,113
2021-10-14 15:43:36.099027,120
2021-10-14 15:43:36.099036,127
2021-10-14 15:43:36.099044,117
2021-10-14 15:43:36.457783,91
2021-10-14 15:43:36.457804,69
2021-10-14 15:43:36.457813,62
2021-10-14 15:43:36.457822,48
2021-10-14 15:43:36.457830,19
2021-10-14 15:43:36.457839,-9
2021-10-14 15:43:36.457847,-43
2021-10-14 15:43:36.457856,-69
2021-10-14 15:43:36.457864,-76
2021-10-14 15:43:36.457872,-84
2021-10-14 15:43:36.457881,-91
2021-10-14 15:43:36.457890,-96
2021-10-14 15:43:36.457898,-108
2021-10-14 15:43:36.457906,-113
2021-10-14 15:43:36.457915,-105
2021-10-14 15:43:36.457923,-101
2021-10-14 15:43:36.457931,-93
2021-10-14 15:43:36.457940,-84
2021-10-14 15:43:36.457948,-79
2021-10-14 15:43:36.457956,-76
2021-10-14 15:43:36.457964,-69
2021-10-14 15:43:36.457973,-60
2021-10-14 15:43:36.457981,-57
2021-10-14 15:43:36.457989,-57
2021-10-14 15:43:36.457997,-55
2021-10-14 15:43:36.458005,-43
2021-10-14 15:43:36.458013,-31
2021-10-14 15:43:36.458022,-36
2021-10-14 15:43:36.458030,-36
2021-10-14 15:43:36.458038,-21
2021-10-14 15:43:36.591998,-16
2021-10-14 15:43:36.592019,-26
2021-10-14 15:43:36.592028,-28
2021-10-14 15:43:36.592037,-24
2021-10-14 15:43:36.592045,-24
2021-10-14 15:43:36.592053,-31
2021-10-14 15:43:36.592062,-38
2021-10-14 15:43:36.592070,-33
2021-10-14 15:43:36.592078,-36
2021-10-14 15:43:36.592087,-43
2021-10-14 15:43:36.592095,-33
2021-10-14 15:43:36.592103,-36
2021-10-14 15:43:36.592112,-57
2021-10-14 15:43:36.592120,-57
2021-10-14 15:43:36.592128,-45
2021-10-14 15:43:36.592137,-50
2021-10-14 15:43:36.592145,-72
2021-10-14 15:43:36.592153,-86
2021-10-14 15:43:36.592161,-79
2021-10-14 15:43:36.592169,-72
2021-10-14 15:43:36.592178,-69
2021-10-14 15:43:36.592186,-69
2021-10-14 15:43:36.592194,-62
2021-10-14 15:43:36.592202,-52
2021-10-14 15:43:36.592210,-48
2021-10-14 15:43:36.592218,-50
2021-10-14 15:43:36.592227,-40
2021-10-14 15:43:36.592235,-14
2021-10-14 15:43:36.592243,-4
2021-10-14 15:43:36.592251,-33
2021-10-14 15:43:36.773775,-60
2021-10-14 15:43:36.773796,-50
2021-10-14 15:43:36.773805,-43
2021-10-14 15:43:36.773814,-57
2021-10-14 15:43:36.773822,-62
2021-10-14 15:43:36.773831,-57
2021-10-14 15:43:36.773839,-55
2021-10-14 15:43:36.773847,-43
2021-10-14 15:43:36.773855,-31
2021-10-14 15:43:36.773863,-36
2021-10-14 15:43:36.773872,-40
2021-10-14 15:43:36.773880,-16
2021-10-14 15:43:36.773888,101
2021-10-14 15:43:36.773896,416
2021-10-14 15:43:36.773905,747
2021-10-14 15:43:36.773913,526
2021-10-14 15:43:36.773921,-399
2021-10-14 15:43:36.773929,-1065
2021-10-14 15:43:36.773938,-745
2021-10-14 15:43:36.773946,-218
2021-10-14 15:43:36.773954,-93
2021-10-14 15:43:36.773963,-19
2021-10-14 15:43:36.773971,81
2021-10-14 15:43:36.773979,67
2021-10-14 15:43:36.773987,57
2021-10-14 15:43:36.773995,91
2021-10-14 15:43:36.774004,86
2021-10-14 15:43:36.774012,76
2021-10-14 15:43:36.774023,96
2021-10-14 15:43:36.774031,103
2021-10-14 15:43:37.178402,98
2021-10-14 15:43:37.178423,113
2021-10-14 15:43:37.178432,127
2021-10-14 15:43:37.178441,125
2021-10-14 15:43:37.178449,120
2021-10-14 15:43:37.178458,122
2021-10-14 15:43:37.178466,134
2021-10-14 15:43:37.178474,151
2021-10-14 15:43:37.178482,163
2021-10-14 15:43:37.178491,165
2021-10-14 15:43:37.178499,170
2021-10-14 15:43:37.178507,182
2021-10-14 15:43:37.178516,189
2021-10-14 15:43:37.178524,187
2021-10-14 15:43:37.178532,180
2021-10-14 15:43:37.178540,163
2021-10-14 15:43:37.178549,144
2021-10-14 15:43:37.178557,127
2021-10-14 15:43:37.178565,108
2021-10-14 15:43:37.178573,81
2021-10-14 15:43:37.178582,48
2021-10-14 15:43:37.178590,21
2021-10-14 15:43:37.178599,0
2021-10-14 15:43:37.178607,-14
2021-10-14 15:43:37.178615,-24
2021-10-14 15:43:37.178623,-31
2021-10-14 15:43:37.178632,-40
2021-10-14 15:43:37.178640,-48
2021-10-14 15:43:37.178648,-57
2021-10-14 15:43:37.178657,-64
2021-10-14 15:43:37.537201,-60
2021-10-14 15:43:37.537224,-43
2021-10-14 15:43:37.537233,-38
2021-10-14 15:43:37.537241,-48
2021-10-14 15:43:37.537249,-45
2021-10-14 15:43:37.537256,-24
2021-10-14 15:43:37.537263,-9
2021-10-14 15:43:37.537271,-9
2021-10-14 15:43:37.537278,-12
2021-10-14 15:43:37.537286,-9
2021-10-14 15:43:37.537294,-7
2021-10-14 15:43:37.537302,-7
2021-10-14 15:43:37.537311,2
2021-10-14 15:43:37.537318,12
2021-10-14 15:43:37.537325,16
2021-10-14 15:43:37.537333,14
2021-10-14 15:43:37.537340,9
2021-10-14 15:43:37.537348,19
2021-10-14 15:43:37.537355,28
2021-10-14 15:43:37.537362,16
2021-10-14 15:43:37.537370,4
2021-10-14 15:43:37.537378,9
2021-10-14 15:43:37.537386,14
2021-10-14 15:43:37.537394,19
2021-10-14 15:43:37.537401,12
2021-10-14 15:43:37.537408,2
2021-10-14 15:43:37.537415,0
2021-10-14 15:43:37.537423,-7
2021-10-14 15:43:37.537430,-7
2021-10-14 15:43:37.537437,4
2021-10-14 15:43:37.628109,-7
2021-10-14 15:43:37.628129,-24
2021-10-14 15:43:37.628139,-31
2021-10-14 15:43:37.628147,-48
2021-10-14 15:43:37.628156,-60
2021-10-14 15:43:37.628164,-50
2021-10-14 15:43:37.628173,-31
2021-10-14 15:43:37.628181,-21
2021-10-14 15:43:37.628189,-19
2021-10-14 15:43:37.628198,-26
2021-10-14 15:43:37.628206,-33
2021-10-14 15:43:37.628214,-19
2021-10-14 15:43:37.628222,14
2021-10-14 15:43:37.628230,12
2021-10-14 15:43:37.628238,-38
2021-10-14 15:43:37.628245,-62
2021-10-14 15:43:37.628253,-48
2021-10-14 15:43:37.628261,-43
2021-10-14 15:43:37.628270,-45
2021-10-14 15:43:37.628278,-24
2021-10-14 15:43:37.628287,-12
2021-10-14 15:43:37.628295,-26
2021-10-14 15:43:37.628303,-33
2021-10-14 15:43:37.628311,-24
2021-10-14 15:43:37.628320,-14
2021-10-14 15:43:37.628328,4
2021-10-14 15:43:37.628336,84
2021-10-14 15:43:37.628344,336
2021-10-14 15:43:37.628353,680
2021-10-14 15:43:37.628361,577
2021-10-14 15:43:37.718394,-281
2021-10-14 15:43:37.718415,-1038
2021-10-14 15:43:37.718424,-848
2021-10-14 15:43:37.718433,-360
2021-10-14 15:43:37.718441,-197
2021-10-14 15:43:37.718449,-81
2021-10-14 15:43:37.718458,52
2021-10-14 15:43:37.718466,48
2021-10-14 15:43:37.718474,14
2021-10-14 15:43:37.718482,45
2021-10-14 15:43:37.718491,67
2021-10-14 15:43:37.718499,57
2021-10-14 15:43:37.718507,62
2021-10-14 15:43:37.718515,74
2021-10-14 15:43:37.718523,69
2021-10-14 15:43:37.718531,69
2021-10-14 15:43:37.718540,79
2021-10-14 15:43:37.718548,88
2021-10-14 15:43:37.718556,110
2021-10-14 15:43:37.718564,120
2021-10-14 15:43:37.718573,103
2021-10-14 15:43:37.718581,103
2021-10-14 15:43:37.718589,132
2021-10-14 15:43:37.718597,151
2021-10-14 15:43:37.718606,153
2021-10-14 15:43:37.718614,146
2021-10-14 15:43:37.718622,139
2021-10-14 15:43:37.718630,151
2021-10-14 15:43:37.718638,153
2021-10-14 15:43:37.718646,137
2021-10-14 15:43:38.123636,113
2021-10-14 15:43:38.123655,93
2021-10-14 15:43:38.123665,64
2021-10-14 15:43:38.123673,38
2021-10-14 15:43:38.123681,12
2021-10-14 15:43:38.123690,-12
2021-10-14 15:43:38.123698,-24
2021-10-14 15:43:38.123706,-43
2021-10-14 15:43:38.123715,-62
2021-10-14 15:43:38.123723,-64
2021-10-14 15:43:38.123731,-64
2021-10-14 15:43:38.123739,-64
2021-10-14 15:43:38.123748,-69
2021-10-14 15:43:38.123756,-74
2021-10-14 15:43:38.123764,-76
2021-10-14 15:43:38.123773,-76
2021-10-14 15:43:38.123781,-69
2021-10-14 15:43:38.123789,-48
2021-10-14 15:43:38.123797,-33
2021-10-14 15:43:38.123806,-38
2021-10-14 15:43:38.123814,-36
2021-10-14 15:43:38.123822,-21
2021-10-14 15:43:38.123830,-12
2021-10-14 15:43:38.123838,-9
2021-10-14 15:43:38.123846,-12
2021-10-14 15:43:38.123855,-9
2021-10-14 15:43:38.123863,-2
2021-10-14 15:43:38.123871,7
2021-10-14 15:43:38.123880,16
2021-10-14 15:43:38.123888,24
2021-10-14 15:43:38.258783,12
2021-10-14 15:43:38.258804,-7
2021-10-14 15:43:38.258813,-12
2021-10-14 15:43:38.258821,-12
2021-10-14 15:43:38.258830,-19
2021-10-14 15:43:38.258847,-16
2021-10-14 15:43:38.258856,-12
2021-10-14 15:43:38.258864,-16
2021-10-14 15:43:38.258873,-19
2021-10-14 15:43:38.258881,-14
2021-10-14 15:43:38.258890,-12
2021-10-14 15:43:38.258898,-12
2021-10-14 15:43:38.258906,-16
2021-10-14 15:43:38.258914,-14
2021-10-14 15:43:38.258923,-12
2021-10-14 15:43:38.258931,-21
2021-10-14 15:43:38.258939,-19
2021-10-14 15:43:38.258947,-9
2021-10-14 15:43:38.258955,-19
2021-10-14 15:43:38.258964,-36
2021-10-14 15:43:38.258972,-36
2021-10-14 15:43:38.258980,-33
2021-10-14 15:43:38.258988,-26
2021-10-14 15:43:38.258997,-7
2021-10-14 15:43:38.259005,-4
2021-10-14 15:43:38.259013,-12
2021-10-14 15:43:38.259021,0
2021-10-14 15:43:38.259030,-4
2021-10-14 15:43:38.259038,-31
2021-10-14 15:43:38.259046,-38
2021-10-14 15:43:38.438541,-24
2021-10-14 15:43:38.438562,-7
2021-10-14 15:43:38.438572,-9
2021-10-14 15:43:38.438580,-9
2021-10-14 15:43:38.438588,-2
2021-10-14 15:43:38.438596,-9
2021-10-14 15:43:38.438605,-24
2021-10-14 15:43:38.438613,-21
2021-10-14 15:43:38.438621,-7
2021-10-14 15:43:38.438629,24
2021-10-14 15:43:38.438638,173
2021-10-14 15:43:38.438646,524
2021-10-14 15:43:38.438655,755
2021-10-14 15:43:38.438663,295
2021-10-14 15:43:38.438671,-668
2021-10-14 15:43:38.438679,-1050
2021-10-14 15:43:38.438687,-577
2021-10-14 15:43:38.438696,-173
2021-10-14 15:43:38.438704,-98
2021-10-14 15:43:38.438712,12
2021-10-14 15:43:38.438720,86
2021-10-14 15:43:38.438729,48
2021-10-14 15:43:38.438737,50
2021-10-14 15:43:38.438745,74
2021-10-14 15:43:38.438753,62
2021-10-14 15:43:38.438761,69
2021-10-14 15:43:38.438769,93
2021-10-14 15:43:38.438777,88
2021-10-14 15:43:38.438786,79
2021-10-14 15:43:38.438794,84
2021-10-14 15:43:38.798201,88
2021-10-14 15:43:38.798223,110
2021-10-14 15:43:38.798233,125
2021-10-14 15:43:38.798241,117
2021-10-14 15:43:38.798250,120
2021-10-14 15:43:38.798258,127
2021-10-14 15:43:38.798266,132
2021-10-14 15:43:38.798274,146
2021-10-14 15:43:38.798283,153
2021-10-14 15:43:38.798292,141
2021-10-14 15:43:38.798300,129
2021-10-14 15:43:38.798309,129
2021-10-14 15:43:38.798317,127
2021-10-14 15:43:38.798326,110
2021-10-14 15:43:38.798334,88
2021-10-14 15:43:38.798343,67
2021-10-14 15:43:38.798351,43
2021-10-14 15:43:38.798359,14
2021-10-14 15:43:38.798367,2
2021-10-14 15:43:38.798376,-12
2021-10-14 15:43:38.798384,-45
2021-10-14 15:43:38.798392,-67
2021-10-14 15:43:38.798401,-60
2021-10-14 15:43:38.798414,-62
2021-10-14 15:43:38.798432,-72
2021-10-14 15:43:38.798443,-62
2021-10-14 15:43:38.798474,-57
2021-10-14 15:43:38.798505,-74
2021-10-14 15:43:38.798515,-72
2021-10-14 15:43:38.798523,-43
2021-10-14 15:43:38.933418,-36
2021-10-14 15:43:38.933439,-48
2021-10-14 15:43:38.933447,-40
2021-10-14 15:43:38.933455,-31
2021-10-14 15:43:38.933463,-24
2021-10-14 15:43:38.933471,-16
2021-10-14 15:43:38.933480,-14
2021-10-14 15:43:38.933488,-7
2021-10-14 15:43:38.933496,-4
2021-10-14 15:43:38.933504,-4
2021-10-14 15:43:38.933512,4
2021-10-14 15:43:38.933520,7
2021-10-14 15:43:38.933528,-12
2021-10-14 15:43:38.933537,-19
2021-10-14 15:43:38.933545,0
2021-10-14 15:43:38.933553,9
2021-10-14 15:43:38.933561,0
2021-10-14 15:43:38.933569,0
2021-10-14 15:43:38.933577,12
2021-10-14 15:43:38.933586,7
2021-10-14 15:43:38.933594,-7
2021-10-14 15:43:38.933602,-2
2021-10-14 15:43:38.933610,9
2021-10-14 15:43:38.933618,12
2021-10-14 15:43:38.933626,2
2021-10-14 15:43:38.933634,2
2021-10-14 15:43:38.933642,7
2021-10-14 15:43:38.933650,4
2021-10-14 15:43:38.933659,-2
2021-10-14 15:43:38.933667,-2
2021-10-14 15:43:39.113404,2
2021-10-14 15:43:39.113425,12
2021-10-14 15:43:39.113434,14
2021-10-14 15:43:39.113443,0
2021-10-14 15:43:39.113451,-14
2021-10-14 15:43:39.113460,-7
2021-10-14 15:43:39.113468,-2
2021-10-14 15:43:39.113476,-2
2021-10-14 15:43:39.113485,2
2021-10-14 15:43:39.113493,2
2021-10-14 15:43:39.113502,7
2021-10-14 15:43:39.113510,21
2021-10-14 15:43:39.113518,19
2021-10-14 15:43:39.113526,-7
2021-10-14 15:43:39.113534,-33
2021-10-14 15:43:39.113543,-57
2021-10-14 15:43:39.113551,-62
2021-10-14 15:43:39.113559,-33
2021-10-14 15:43:39.113568,-14
2021-10-14 15:43:39.113576,-26
2021-10-14 15:43:39.113584,-40
2021-10-14 15:43:39.113592,-38
2021-10-14 15:43:39.113600,-21
2021-10-14 15:43:39.113609,-4
2021-10-14 15:43:39.113617,21
2021-10-14 15:43:39.113625,156
2021-10-14 15:43:39.113633,497
2021-10-14 15:43:39.113641,779
2021-10-14 15:43:39.113650,420
2021-10-14 15:43:39.113658,-536
2021-10-14 15:43:39.338867,-1053
2021-10-14 15:43:39.338896,-661
2021-10-14 15:43:39.338905,-218
2021-10-14 15:43:39.338914,-120
2021-10-14 15:43:39.338922,0
2021-10-14 15:43:39.338931,113
2021-10-14 15:43:39.338939,86
2021-10-14 15:43:39.338948,76
2021-10-14 15:43:39.338956,113
2021-10-14 15:43:39.338964,108
2021-10-14 15:43:39.338973,103
2021-10-14 15:43:39.338981,122
2021-10-14 15:43:39.338989,129
2021-10-14 15:43:39.338997,129
2021-10-14 15:43:39.339006,129
2021-10-14 15:43:39.339014,122
2021-10-14 15:43:39.339023,115
2021-10-14 15:43:39.339031,125
2021-10-14 15:43:39.339039,139
2021-10-14 15:43:39.339047,161
2021-10-14 15:43:39.339055,175
2021-10-14 15:43:39.339064,170
2021-10-14 15:43:39.339072,173
2021-10-14 15:43:39.339080,194
2021-10-14 15:43:39.339088,211
2021-10-14 15:43:39.339097,216
2021-10-14 15:43:39.339105,211
2021-10-14 15:43:39.339114,199
2021-10-14 15:43:39.339122,197
2021-10-14 15:43:39.339130,182
2021-10-14 15:43:39.607816,158
2021-10-14 15:43:39.607837,137
2021-10-14 15:43:39.607846,98
2021-10-14 15:43:39.607855,57
2021-10-14 15:43:39.607864,36
2021-10-14 15:43:39.607872,26
2021-10-14 15:43:39.607880,7
2021-10-14 15:43:39.607889,-24
2021-10-14 15:43:39.607897,-48
2021-10-14 15:43:39.607905,-43
2021-10-14 15:43:39.607914,-28
2021-10-14 15:43:39.607922,-31
2021-10-14 15:43:39.607930,-38
2021-10-14 15:43:39.607938,-40
2021-10-14 15:43:39.607947,-50
2021-10-14 15:43:39.607955,-48
2021-10-14 15:43:39.607963,-24
2021-10-14 15:43:39.607971,-14
2021-10-14 15:43:39.607979,-28
2021-10-14 15:43:39.607987,-31
2021-10-14 15:43:39.607996,-28
2021-10-14 15:43:39.608004,-31
2021-10-14 15:43:39.608012,-19
2021-10-14 15:43:39.608020,-7
2021-10-14 15:43:39.608029,-9
2021-10-14 15:43:39.608037,-9
2021-10-14 15:43:39.608045,7
2021-10-14 15:43:39.608053,12
2021-10-14 15:43:39.608062,-2
2021-10-14 15:43:39.608070,-2
2021-10-14 15:43:39.878446,4
2021-10-14 15:43:39.878467,-2
2021-10-14 15:43:39.878476,-4
2021-10-14 15:43:39.878485,9
2021-10-14 15:43:39.878494,9
2021-10-14 15:43:39.878502,-2
2021-10-14 15:43:39.878510,-7
2021-10-14 15:43:39.878518,-4
2021-10-14 15:43:39.878527,-12
2021-10-14 15:43:39.878535,-26
2021-10-14 15:43:39.878543,-19
2021-10-14 15:43:39.878551,0
2021-10-14 15:43:39.878560,-9
2021-10-14 15:43:39.878568,-26
2021-10-14 15:43:39.878576,-36
2021-10-14 15:43:39.878584,-43
2021-10-14 15:43:39.878592,-40
2021-10-14 15:43:39.878600,-36
2021-10-14 15:43:39.878609,-33
2021-10-14 15:43:39.878617,-21
2021-10-14 15:43:39.878625,0
2021-10-14 15:43:39.878633,7
2021-10-14 15:43:39.878642,-7
2021-10-14 15:43:39.878650,-31
2021-10-14 15:43:39.878658,-52
2021-10-14 15:43:39.878666,-60
2021-10-14 15:43:39.878674,-50
2021-10-14 15:43:39.878683,-43
2021-10-14 15:43:39.878691,-43
2021-10-14 15:43:39.878699,-38
2021-10-14 15:43:40.013780,-33
2021-10-14 15:43:40.013801,-31
2021-10-14 15:43:40.013810,-24
2021-10-14 15:43:40.013819,-14
2021-10-14 15:43:40.013828,0
2021-10-14 15:43:40.013836,76
2021-10-14 15:43:40.013844,348
2021-10-14 15:43:40.013853,745
2021-10-14 15:43:40.013861,682
2021-10-14 15:43:40.013869,-233
2021-10-14 15:43:40.013878,-1115
2021-10-14 15:43:40.013886,-947
2021-10-14 15:43:40.013894,-375
2021-10-14 15:43:40.013903,-194
2021-10-14 15:43:40.013911,-93
2021-10-14 15:43:40.013919,69
2021-10-14 15:43:40.013928,91
2021-10-14 15:43:40.013936,57
2021-10-14 15:43:40.013944,88
2021-10-14 15:43:40.013952,113
2021-10-14 15:43:40.013961,98
2021-10-14 15:43:40.013969,96
2021-10-14 15:43:40.013977,105
2021-10-14 15:43:40.013985,88
2021-10-14 15:43:40.013994,84
2021-10-14 15:43:40.014002,101
2021-10-14 15:43:40.014010,96
2021-10-14 15:43:40.014018,84
2021-10-14 15:43:40.014027,101
2021-10-14 15:43:40.014035,113
2021-10-14 15:43:40.417214,115
2021-10-14 15:43:40.417234,132
2021-10-14 15:43:40.417243,146
2021-10-14 15:43:40.417252,158
2021-10-14 15:43:40.417260,175
2021-10-14 15:43:40.417269,175
2021-10-14 15:43:40.417277,163
2021-10-14 15:43:40.417285,158
2021-10-14 15:43:40.417294,149
2021-10-14 15:43:40.417302,122
2021-10-14 15:43:40.417310,98
2021-10-14 15:43:40.417319,69
2021-10-14 15:43:40.417327,26
2021-10-14 15:43:40.417335,-4
2021-10-14 15:43:40.417343,-16
2021-10-14 15:43:40.417352,-36
2021-10-14 15:43:40.417361,-60
2021-10-14 15:43:40.417369,-69
2021-10-14 15:43:40.417377,-76
2021-10-14 15:43:40.417385,-91
2021-10-14 15:43:40.417394,-98
2021-10-14 15:43:40.417402,-91
2021-10-14 15:43:40.417410,-81
2021-10-14 15:43:40.417419,-81
2021-10-14 15:43:40.417427,-91
2021-10-14 15:43:40.417435,-96
2021-10-14 15:43:40.417443,-84
2021-10-14 15:43:40.417451,-67
2021-10-14 15:43:40.417460,-64
2021-10-14 15:43:40.417468,-72
2021-10-14 15:43:40.508141,-57
2021-10-14 15:43:40.508162,-43
2021-10-14 15:43:40.508171,-38
2021-10-14 15:43:40.508179,-33
2021-10-14 15:43:40.508188,-28
2021-10-14 15:43:40.508196,-24
2021-10-14 15:43:40.508204,-16
2021-10-14 15:43:40.508212,-12
2021-10-14 15:43:40.508221,-19
2021-10-14 15:43:40.508229,-26
2021-10-14 15:43:40.508237,-31
2021-10-14 15:43:40.508246,-33
2021-10-14 15:43:40.508254,-33
2021-10-14 15:43:40.508262,-24
2021-10-14 15:43:40.508270,-24
2021-10-14 15:43:40.508279,-33
2021-10-14 15:43:40.508287,-31
2021-10-14 15:43:40.508295,-28
2021-10-14 15:43:40.508303,-28
2021-10-14 15:43:40.508312,-19
2021-10-14 15:43:40.508320,-16
2021-10-14 15:43:40.508328,-28
2021-10-14 15:43:40.508336,-40
2021-10-14 15:43:40.508344,-33
2021-10-14 15:43:40.508352,-24
2021-10-14 15:43:40.508361,-24
2021-10-14 15:43:40.508369,-26
2021-10-14 15:43:40.508377,-36
2021-10-14 15:43:40.508385,-40
2021-10-14 15:43:40.508393,-28
2021-10-14 15:43:40.777764,-19
2021-10-14 15:43:40.777785,-19
2021-10-14 15:43:40.777795,-28
2021-10-14 15:43:40.777803,-45
2021-10-14 15:43:40.777812,-72
2021-10-14 15:43:40.777820,-96
2021-10-14 15:43:40.777828,-91
2021-10-14 15:43:40.777837,-79
2021-10-14 15:43:40.777845,-76
2021-10-14 15:43:40.777853,-76
2021-10-14 15:43:40.777862,-76
2021-10-14 15:43:40.777870,-81
2021-10-14 15:43:40.777878,-74
2021-10-14 15:43:40.777887,-62
2021-10-14 15:43:40.777895,-52
2021-10-14 15:43:40.777903,-28
2021-10-14 15:43:40.777911,91
2021-10-14 15:43:40.777922,420
2021-10-14 15:43:40.777931,764
2021-10-14 15:43:40.777939,502
2021-10-14 15:43:40.777947,-483
2021-10-14 15:43:40.777955,-1147
2021-10-14 15:43:40.777964,-786
2021-10-14 15:43:40.777972,-252
2021-10-14 15:43:40.777980,-134
2021-10-14 15:43:40.777988,-50
2021-10-14 15:43:40.777997,64
2021-10-14 15:43:40.778005,50
2021-10-14 15:43:40.778013,31
2021-10-14 15:43:40.778031,57
2021-10-14 15:43:40.958415,67
2021-10-14 15:43:40.958443,72
2021-10-14 15:43:40.958452,74
2021-10-14 15:43:40.958461,62
2021-10-14 15:43:40.958469,62
2021-10-14 15:43:40.958478,81
2021-10-14 15:43:40.958486,86
2021-10-14 15:43:40.958494,84
2021-10-14 15:43:40.958503,98
2021-10-14 15:43:40.958511,101
2021-10-14 15:43:40.958519,91
2021-10-14 15:43:40.958528,110
2021-10-14 15:43:40.958536,139
2021-10-14 15:43:40.958544,146
2021-10-14 15:43:40.958553,153
2021-10-14 15:43:40.958561,170
2021-10-14 15:43:40.958569,173
2021-10-14 15:43:40.958577,161
2021-10-14 15:43:40.958586,149
2021-10-14 15:43:40.958594,141
2021-10-14 15:43:40.958602,127
2021-10-14 15:43:40.958610,98
2021-10-14 15:43:40.958619,64
2021-10-14 15:43:40.958627,38
2021-10-14 15:43:40.958635,9
2021-10-14 15:43:40.958644,-9
2021-10-14 15:43:40.958652,-24
2021-10-14 15:43:40.958660,-50
2021-10-14 15:43:40.958669,-64
2021-10-14 15:43:40.958677,-60
2021-10-14 15:43:41.228370,-64
2021-10-14 15:43:41.228401,-81
2021-10-14 15:43:41.228412,-86
2021-10-14 15:43:41.228421,-84
2021-10-14 15:43:41.228430,-72
2021-10-14 15:43:41.228438,-69
2021-10-14 15:43:41.228447,-72
2021-10-14 15:43:41.228455,-67
2021-10-14 15:43:41.228464,-72
2021-10-14 15:43:41.228472,-86
2021-10-14 15:43:41.228481,-81
2021-10-14 15:43:41.228489,-69
2021-10-14 15:43:41.228498,-57
2021-10-14 15:43:41.228506,-40
2021-10-14 15:43:41.228514,-45
2021-10-14 15:43:41.228521,-62
2021-10-14 15:43:41.228529,-57
2021-10-14 15:43:41.228537,-33
2021-10-14 15:43:41.228546,-19
2021-10-14 15:43:41.228553,-24
2021-10-14 15:43:41.228560,-31
2021-10-14 15:43:41.228568,-33
2021-10-14 15:43:41.228576,-31
2021-10-14 15:43:41.228583,-28
2021-10-14 15:43:41.228590,-21
2021-10-14 15:43:41.228598,-19
2021-10-14 15:43:41.228606,-26
2021-10-14 15:43:41.228614,-33
2021-10-14 15:43:41.228622,-31
2021-10-14 15:43:41.228629,-31
2021-10-14 15:43:41.498928,-26
2021-10-14 15:43:41.498955,-9
2021-10-14 15:43:41.498965,-9
2021-10-14 15:43:41.498973,-24
2021-10-14 15:43:41.498982,-28
2021-10-14 15:43:41.498990,-24
2021-10-14 15:43:41.498999,-19
2021-10-14 15:43:41.499007,-21
2021-10-14 15:43:41.499015,-40
2021-10-14 15:43:41.499024,-48
2021-10-14 15:43:41.499032,-40
2021-10-14 15:43:41.499040,-33
2021-10-14 15:43:41.499049,-28
2021-10-14 15:43:41.499057,-33
2021-10-14 15:43:41.499065,-40
2021-10-14 15:43:41.499074,-36
2021-10-14 15:43:41.499082,-21
2021-10-14 15:43:41.499091,-9
2021-10-14 15:43:41.499099,-16
2021-10-14 15:43:41.499107,-45
2021-10-14 15:43:41.499116,-64
2021-10-14 15:43:41.499124,-62
2021-10-14 15:43:41.499133,-57
2021-10-14 15:43:41.499141,-57
2021-10-14 15:43:41.499149,-55
2021-10-14 15:43:41.499158,-57
2021-10-14 15:43:41.499166,-57
2021-10-14 15:43:41.499174,-52
2021-10-14 15:43:41.499183,-40
2021-10-14 15:43:41.499191,-24
2021-10-14 15:43:41.678511,-4
2021-10-14 15:43:41.678532,91
2021-10-14 15:43:41.678542,413
2021-10-14 15:43:41.678551,767
2021-10-14 15:43:41.678559,557
2021-10-14 15:43:41.678568,-377
2021-10-14 15:43:41.678576,-1091
2021-10-14 15:43:41.678584,-805
2021-10-14 15:43:41.678593,-259
2021-10-14 15:43:41.678601,-125
2021-10-14 15:43:41.678609,-62
2021-10-14 15:43:41.678617,52
2021-10-14 15:43:41.678626,55
2021-10-14 15:43:41.678634,31
2021-10-14 15:43:41.678642,40
2021-10-14 15:43:41.678650,36
2021-10-14 15:43:41.678659,38
2021-10-14 15:43:41.678667,57
2021-10-14 15:43:41.678675,64
2021-10-14 15:43:41.678683,67
2021-10-14 15:43:41.678692,79
2021-10-14 15:43:41.678700,76
2021-10-14 15:43:41.678708,76
2021-10-14 15:43:41.678717,101
2021-10-14 15:43:41.678725,120
2021-10-14 15:43:41.678733,110
2021-10-14 15:43:41.678741,108
2021-10-14 15:43:41.678750,122
2021-10-14 15:43:41.678758,134
2021-10-14 15:43:41.678766,151
2021-10-14 15:43:41.858830,175
2021-10-14 15:43:41.858851,185
2021-10-14 15:43:41.858861,170
2021-10-14 15:43:41.858869,156
2021-10-14 15:43:41.858878,153
2021-10-14 15:43:41.858886,144
2021-10-14 15:43:41.858895,125
2021-10-14 15:43:41.858903,103
2021-10-14 15:43:41.858911,67
2021-10-14 15:43:41.858920,33
2021-10-14 15:43:41.858928,14
2021-10-14 15:43:41.858936,-2
2021-10-14 15:43:41.858945,-36
2021-10-14 15:43:41.858953,-55
2021-10-14 15:43:41.858961,-52
2021-10-14 15:43:41.858969,-64
2021-10-14 15:43:41.858977,-72
2021-10-14 15:43:41.858986,-57
2021-10-14 15:43:41.858994,-62
2021-10-14 15:43:41.859002,-76
2021-10-14 15:43:41.859010,-64
2021-10-14 15:43:41.859019,-50
2021-10-14 15:43:41.859027,-48
2021-10-14 15:43:41.859035,-40
2021-10-14 15:43:41.859043,-40
2021-10-14 15:43:41.859052,-43
2021-10-14 15:43:41.859060,-33
2021-10-14 15:43:41.859068,-19
2021-10-14 15:43:41.859076,-14
2021-10-14 15:43:41.859085,-12
2021-10-14 15:43:42.172913,-4
2021-10-14 15:43:42.172956,4
2021-10-14 15:43:42.172968,9
2021-10-14 15:43:42.172976,7
2021-10-14 15:43:42.172982,7
2021-10-14 15:43:42.172990,0
2021-10-14 15:43:42.172996,-9
2021-10-14 15:43:42.173015,2
2021-10-14 15:43:42.173023,7
2021-10-14 15:43:42.173030,-16
2021-10-14 15:43:42.173038,-26
2021-10-14 15:43:42.173047,-26
2021-10-14 15:43:42.173057,-28
2021-10-14 15:43:42.173066,-16
2021-10-14 15:43:42.173075,-7
2021-10-14 15:43:42.173085,-19
2021-10-14 15:43:42.173095,-19
2021-10-14 15:43:42.173104,-9
2021-10-14 15:43:42.173113,-9
2021-10-14 15:43:42.173123,-19
2021-10-14 15:43:42.173132,-28
2021-10-14 15:43:42.173142,-31
2021-10-14 15:43:42.173151,-33
2021-10-14 15:43:42.173161,-45
2021-10-14 15:43:42.173170,-38
2021-10-14 15:43:42.173180,-14
2021-10-14 15:43:42.173189,-4
2021-10-14 15:43:42.173198,-9
2021-10-14 15:43:42.173207,-14
2021-10-14 15:43:42.173217,-14
2021-10-14 15:43:42.353489,-21
2021-10-14 15:43:42.353516,-28
2021-10-14 15:43:42.353526,-38
2021-10-14 15:43:42.353534,-52
2021-10-14 15:43:42.353543,-52
2021-10-14 15:43:42.353551,-50
2021-10-14 15:43:42.353560,-55
2021-10-14 15:43:42.353568,-45
2021-10-14 15:43:42.353577,-33
2021-10-14 15:43:42.353585,-33
2021-10-14 15:43:42.353593,-40
2021-10-14 15:43:42.353602,-40
2021-10-14 15:43:42.353610,-12
2021-10-14 15:43:42.353618,113
2021-10-14 15:43:42.353627,435
2021-10-14 15:43:42.353635,779
2021-10-14 15:43:42.353643,526
2021-10-14 15:43:42.353651,-478
2021-10-14 15:43:42.353660,-1161
2021-10-14 15:43:42.353668,-805
2021-10-14 15:43:42.353676,-288
2021-10-14 15:43:42.353684,-170
2021-10-14 15:43:42.353692,-48
2021-10-14 15:43:42.353701,93
2021-10-14 15:43:42.353709,69
2021-10-14 15:43:42.353717,50
2021-10-14 15:43:42.353725,101
2021-10-14 15:43:42.353734,93
2021-10-14 15:43:42.353742,64
2021-10-14 15:43:42.353750,91
2021-10-14 15:43:42.533499,113
2021-10-14 15:43:42.533520,113
2021-10-14 15:43:42.533529,115
2021-10-14 15:43:42.533538,115
2021-10-14 15:43:42.533546,110
2021-10-14 15:43:42.533554,120
2021-10-14 15:43:42.533562,137
2021-10-14 15:43:42.533571,151
2021-10-14 15:43:42.533579,161
2021-10-14 15:43:42.533587,163
2021-10-14 15:43:42.533596,175
2021-10-14 15:43:42.533604,199
2021-10-14 15:43:42.533612,211
2021-10-14 15:43:42.533620,214
2021-10-14 15:43:42.533628,216
2021-10-14 15:43:42.533637,204
2021-10-14 15:43:42.533645,170
2021-10-14 15:43:42.533653,151
2021-10-14 15:43:42.533661,139
2021-10-14 15:43:42.533670,108
2021-10-14 15:43:42.533678,69
2021-10-14 15:43:42.533686,38
2021-10-14 15:43:42.533694,-2
2021-10-14 15:43:42.533703,-33
2021-10-14 15:43:42.533711,-40
2021-10-14 15:43:42.533718,-60
2021-10-14 15:43:42.533727,-93
2021-10-14 15:43:42.533735,-105
2021-10-14 15:43:42.533743,-91
2021-10-14 15:43:42.533751,-84
2021-10-14 15:43:42.802793,-86
2021-10-14 15:43:42.802822,-84
2021-10-14 15:43:42.802831,-79
2021-10-14 15:43:42.802840,-88
2021-10-14 15:43:42.802848,-96
2021-10-14 15:43:42.802856,-88
2021-10-14 15:43:42.802865,-79
2021-10-14 15:43:42.802873,-62
2021-10-14 15:43:42.802881,-50
2021-10-14 15:43:42.802890,-64
2021-10-14 15:43:42.802898,-64
2021-10-14 15:43:42.802906,-33
2021-10-14 15:43:42.802914,-16
2021-10-14 15:43:42.802923,-21
2021-10-14 15:43:42.802931,-24
2021-10-14 15:43:42.802939,-36
2021-10-14 15:43:42.802948,-36
2021-10-14 15:43:42.802956,-21
2021-10-14 15:43:42.802964,-19
2021-10-14 15:43:42.802973,-24
2021-10-14 15:43:42.802981,-21
2021-10-14 15:43:42.802989,-26
2021-10-14 15:43:42.802997,-31
2021-10-14 15:43:42.803005,-19
2021-10-14 15:43:42.803014,-9
2021-10-14 15:43:42.803022,-16
2021-10-14 15:43:42.803030,-21
2021-10-14 15:43:42.803039,-21
2021-10-14 15:43:42.803047,-26
2021-10-14 15:43:42.803055,-28
2021-10-14 15:43:43.073846,-14
2021-10-14 15:43:43.073868,0
2021-10-14 15:43:43.073878,-9
2021-10-14 15:43:43.073886,-28
2021-10-14 15:43:43.073895,-24
2021-10-14 15:43:43.073903,0
2021-10-14 15:43:43.073912,14
2021-10-14 15:43:43.073920,9
2021-10-14 15:43:43.073929,0
2021-10-14 15:43:43.073937,-19
2021-10-14 15:43:43.073945,-38
2021-10-14 15:43:43.073954,-43
2021-10-14 15:43:43.073962,-45
2021-10-14 15:43:43.073970,-50
2021-10-14 15:43:43.073981,-52
2021-10-14 15:43:43.073990,-60
2021-10-14 15:43:43.073998,-60
2021-10-14 15:43:43.074006,-57
2021-10-14 15:43:43.074015,-57
2021-10-14 15:43:43.074023,-50
2021-10-14 15:43:43.074031,-43
2021-10-14 15:43:43.074040,-24
2021-10-14 15:43:43.074048,122
2021-10-14 15:43:43.074056,502
2021-10-14 15:43:43.074065,805
2021-10-14 15:43:43.074073,375
2021-10-14 15:43:43.074081,-692
2021-10-14 15:43:43.074090,-1197
2021-10-14 15:43:43.074098,-707
2021-10-14 15:43:43.074106,-235
2021-10-14 15:43:43.253838,-161
2021-10-14 15:43:43.253859,-48
2021-10-14 15:43:43.253868,57
2021-10-14 15:43:43.253877,24
2021-10-14 15:43:43.253886,21
2021-10-14 15:43:43.253894,69
2021-10-14 15:43:43.253902,69
2021-10-14 15:43:43.253911,48
2021-10-14 15:43:43.253919,55
2021-10-14 15:43:43.253928,62
2021-10-14 15:43:43.253936,62
2021-10-14 15:43:43.253945,74
2021-10-14 15:43:43.253953,91
2021-10-14 15:43:43.253961,96
2021-10-14 15:43:43.253970,98
2021-10-14 15:43:43.253978,108
2021-10-14 15:43:43.253987,117
2021-10-14 15:43:43.253995,127
2021-10-14 15:43:43.254004,146
2021-10-14 15:43:43.254012,156
2021-10-14 15:43:43.254020,144
2021-10-14 15:43:43.254029,149
2021-10-14 15:43:43.254037,173
2021-10-14 15:43:43.254045,175
2021-10-14 15:43:43.254054,163
2021-10-14 15:43:43.254062,151
2021-10-14 15:43:43.254071,129
2021-10-14 15:43:43.254079,91
2021-10-14 15:43:43.254087,62
2021-10-14 15:43:43.254095,38
2021-10-14 15:43:43.523467,7
2021-10-14 15:43:43.523488,-24
2021-10-14 15:43:43.523498,-36
2021-10-14 15:43:43.523506,-50
2021-10-14 15:43:43.523515,-64
2021-10-14 15:43:43.523523,-64
2021-10-14 15:43:43.523531,-72
2021-10-14 15:43:43.523540,-86
2021-10-14 15:43:43.523548,-91
2021-10-14 15:43:43.523556,-81
2021-10-14 15:43:43.523564,-74
2021-10-14 15:43:43.523573,-74
2021-10-14 15:43:43.523581,-72
2021-10-14 15:43:43.523589,-74
2021-10-14 15:43:43.523598,-79
2021-10-14 15:43:43.523606,-67
2021-10-14 15:43:43.523614,-50
2021-10-14 15:43:43.523622,-43
2021-10-14 15:43:43.523631,-26
2021-10-14 15:43:43.523639,-12
2021-10-14 15:43:43.523647,-21
2021-10-14 15:43:43.523655,-38
2021-10-14 15:43:43.523663,-33
2021-10-14 15:43:43.523672,-12
2021-10-14 15:43:43.523680,-12
2021-10-14 15:43:43.523688,-21
2021-10-14 15:43:43.523696,-16
2021-10-14 15:43:43.523705,-19
2021-10-14 15:43:43.523713,-24
2021-10-14 15:43:43.523721,-19
2021-10-14 15:43:43.792867,-14
2021-10-14 15:43:43.792898,-14
2021-10-14 15:43:43.792907,-9
2021-10-14 15:43:43.792916,-9
2021-10-14 15:43:43.792924,-9
2021-10-14 15:43:43.792933,-4
2021-10-14 15:43:43.792941,-2
2021-10-14 15:43:43.792949,-14
2021-10-14 15:43:43.792958,-26
2021-10-14 15:43:43.792966,-21
2021-10-14 15:43:43.792974,-12
2021-10-14 15:43:43.792983,-19
2021-10-14 15:43:43.792991,-31
2021-10-14 15:43:43.792999,-24
2021-10-14 15:43:43.793007,-14
2021-10-14 15:43:43.793016,-19
2021-10-14 15:43:43.793024,-26
2021-10-14 15:43:43.793032,-31
2021-10-14 15:43:43.793041,-36
2021-10-14 15:43:43.793049,-33
2021-10-14 15:43:43.793057,-28
2021-10-14 15:43:43.793065,-28
2021-10-14 15:43:43.793073,-31
2021-10-14 15:43:43.793082,-38
2021-10-14 15:43:43.793090,-43
2021-10-14 15:43:43.793098,-24
2021-10-14 15:43:43.793106,-12
2021-10-14 15:43:43.793114,-38
2021-10-14 15:43:43.793123,-60
2021-10-14 15:43:43.793131,-55
2021-10-14 15:43:43.973834,-55
2021-10-14 15:43:43.973855,-57
2021-10-14 15:43:43.973864,-50
2021-10-14 15:43:43.973873,-50
2021-10-14 15:43:43.973881,-55
2021-10-14 15:43:43.973890,-52
2021-10-14 15:43:43.973898,-57
2021-10-14 15:43:43.973906,-50
2021-10-14 15:43:43.973915,-26
2021-10-14 15:43:43.973923,14
2021-10-14 15:43:43.973932,189
2021-10-14 15:43:43.973940,579
2021-10-14 15:43:43.973948,800
2021-10-14 15:43:43.973957,266
2021-10-14 15:43:43.973965,-752
2021-10-14 15:43:43.973973,-1106
2021-10-14 15:43:43.973982,-584
2021-10-14 15:43:43.973990,-177
2021-10-14 15:43:43.973998,-132
2021-10-14 15:43:43.974007,-21
2021-10-14 15:43:43.974015,76
2021-10-14 15:43:43.974023,43
2021-10-14 15:43:43.974032,45
2021-10-14 15:43:43.974040,86
2021-10-14 15:43:43.974048,79
2021-10-14 15:43:43.974056,67
2021-10-14 15:43:43.974064,76
2021-10-14 15:43:43.974072,79
2021-10-14 15:43:43.974081,76
2021-10-14 15:43:43.974089,84
2021-10-14 15:43:44.198543,93
2021-10-14 15:43:44.198566,103
2021-10-14 15:43:44.198576,110
2021-10-14 15:43:44.198584,115
2021-10-14 15:43:44.198593,127
2021-10-14 15:43:44.198601,137
2021-10-14 15:43:44.198610,141
2021-10-14 15:43:44.198618,151
2021-10-14 15:43:44.198627,170
2021-10-14 15:43:44.198636,185
2021-10-14 15:43:44.198644,182
2021-10-14 15:43:44.198652,163
2021-10-14 15:43:44.198661,149
2021-10-14 15:43:44.198669,139
2021-10-14 15:43:44.198678,105
2021-10-14 15:43:44.198686,69
2021-10-14 15:43:44.198694,50
2021-10-14 15:43:44.198703,19
2021-10-14 15:43:44.198711,-14
2021-10-14 15:43:44.198719,-28
2021-10-14 15:43:44.198727,-40
2021-10-14 15:43:44.198736,-60
2021-10-14 15:43:44.198744,-76
2021-10-14 15:43:44.198752,-84
2021-10-14 15:43:44.198760,-79
2021-10-14 15:43:44.198769,-74
2021-10-14 15:43:44.198777,-76
2021-10-14 15:43:44.198786,-86
2021-10-14 15:43:44.198794,-96
2021-10-14 15:43:44.198802,-91
2021-10-14 15:43:44.378462,-72
2021-10-14 15:43:44.378482,-62
2021-10-14 15:43:44.378492,-64
2021-10-14 15:43:44.378500,-67
2021-10-14 15:43:44.378509,-67
2021-10-14 15:43:44.378517,-62
2021-10-14 15:43:44.378525,-48
2021-10-14 15:43:44.378534,-36
2021-10-14 15:43:44.378542,-28
2021-10-14 15:43:44.378550,-26
2021-10-14 15:43:44.378558,-24
2021-10-14 15:43:44.378567,-19
2021-10-14 15:43:44.378575,-9
2021-10-14 15:43:44.378583,-4
2021-10-14 15:43:44.378591,-14
2021-10-14 15:43:44.378600,-24
2021-10-14 15:43:44.378608,-24
2021-10-14 15:43:44.378616,-16
2021-10-14 15:43:44.378624,-16
2021-10-14 15:43:44.378632,-21
2021-10-14 15:43:44.378640,-16
2021-10-14 15:43:44.378649,-14
2021-10-14 15:43:44.378657,-21
2021-10-14 15:43:44.378665,-21
2021-10-14 15:43:44.378673,-14
2021-10-14 15:43:44.378681,-12
2021-10-14 15:43:44.378690,-12
2021-10-14 15:43:44.378698,-14
2021-10-14 15:43:44.378706,-12
2021-10-14 15:43:44.378714,-19
2021-10-14 15:43:44.603874,-36
2021-10-14 15:43:44.603896,-36
2021-10-14 15:43:44.603905,-24
2021-10-14 15:43:44.603913,-28
2021-10-14 15:43:44.603922,-50
2021-10-14 15:43:44.603930,-55
2021-10-14 15:43:44.603938,-50
2021-10-14 15:43:44.603946,-50
2021-10-14 15:43:44.603955,-43
2021-10-14 15:43:44.603963,-40
2021-10-14 15:43:44.603972,-45
2021-10-14 15:43:44.603980,-45
2021-10-14 15:43:44.603988,-40
2021-10-14 15:43:44.603996,-31
2021-10-14 15:43:44.604005,-21
2021-10-14 15:43:44.604013,-26
2021-10-14 15:43:44.604021,-21
2021-10-14 15:43:44.604030,0
2021-10-14 15:43:44.604038,-7
2021-10-14 15:43:44.604047,-43
2021-10-14 15:43:44.604055,-62
2021-10-14 15:43:44.604063,-64
2021-10-14 15:43:44.604072,-64
2021-10-14 15:43:44.604080,-55
2021-10-14 15:43:44.604088,-40
2021-10-14 15:43:44.604097,-36
2021-10-14 15:43:44.604105,-40
2021-10-14 15:43:44.604113,-40
2021-10-14 15:43:44.604122,-33
2021-10-14 15:43:44.604130,-12
2021-10-14 15:43:44.917488,33
2021-10-14 15:43:44.917508,158
2021-10-14 15:43:44.917518,480
2021-10-14 15:43:44.917526,776
2021-10-14 15:43:44.917535,435
2021-10-14 15:43:44.917543,-548
2021-10-14 15:43:44.917552,-1108
2021-10-14 15:43:44.917560,-697
2021-10-14 15:43:44.917568,-214
2021-10-14 15:43:44.917576,-132
2021-10-14 15:43:44.917585,-40
2021-10-14 15:43:44.917593,79
2021-10-14 15:43:44.917601,67
2021-10-14 15:43:44.917610,57
2021-10-14 15:43:44.917618,91
2021-10-14 15:43:44.917626,84
2021-10-14 15:43:44.917635,69
2021-10-14 15:43:44.917643,88
2021-10-14 15:43:44.917651,110
2021-10-14 15:43:44.917659,115
2021-10-14 15:43:44.917667,115
2021-10-14 15:43:44.917676,110
2021-10-14 15:43:44.917684,117
2021-10-14 15:43:44.917692,132
2021-10-14 15:43:44.917700,144
2021-10-14 15:43:44.917708,149
2021-10-14 15:43:44.917717,153
2021-10-14 15:43:44.917725,170
2021-10-14 15:43:44.917733,189
2021-10-14 15:43:44.917741,192
2021-10-14 15:43:45.098819,194
2021-10-14 15:43:45.098840,206
2021-10-14 15:43:45.098849,209
2021-10-14 15:43:45.098858,189
2021-10-14 15:43:45.098866,168
2021-10-14 15:43:45.098875,153
2021-10-14 15:43:45.098883,137
2021-10-14 15:43:45.098891,113
2021-10-14 15:43:45.098900,76
2021-10-14 15:43:45.098908,45
2021-10-14 15:43:45.098916,26
2021-10-14 15:43:45.098925,0
2021-10-14 15:43:45.098933,-24
2021-10-14 15:43:45.098941,-31
2021-10-14 15:43:45.098950,-48
2021-10-14 15:43:45.098958,-67
2021-10-14 15:43:45.098966,-60
2021-10-14 15:43:45.098975,-48
2021-10-14 15:43:45.098983,-55
2021-10-14 15:43:45.098991,-64
2021-10-14 15:43:45.098999,-67
2021-10-14 15:43:45.099008,-67
2021-10-14 15:43:45.099016,-50
2021-10-14 15:43:45.099024,-28
2021-10-14 15:43:45.099032,-36
2021-10-14 15:43:45.099041,-60
2021-10-14 15:43:45.099049,-62
2021-10-14 15:43:45.099057,-48
2021-10-14 15:43:45.099066,-33
2021-10-14 15:43:45.099074,-19
2021-10-14 15:43:45.368504,-24
2021-10-14 15:43:45.368525,-28
2021-10-14 15:43:45.368534,-12
2021-10-14 15:43:45.368543,-4
2021-10-14 15:43:45.368551,-21
2021-10-14 15:43:45.368559,-26
2021-10-14 15:43:45.368568,-21
2021-10-14 15:43:45.368576,-31
2021-10-14 15:43:45.368584,-38
2021-10-14 15:43:45.368592,-21
2021-10-14 15:43:45.368600,-19
2021-10-14 15:43:45.368609,-36
2021-10-14 15:43:45.368617,-36
2021-10-14 15:43:45.368625,-31
2021-10-14 15:43:45.368634,-36
2021-10-14 15:43:45.368642,-40
2021-10-14 15:43:45.368650,-33
2021-10-14 15:43:45.368659,-24
2021-10-14 15:43:45.368667,-36
2021-10-14 15:43:45.368675,-48
2021-10-14 15:43:45.368684,-40
2021-10-14 15:43:45.368692,-40
2021-10-14 15:43:45.368700,-48
2021-10-14 15:43:45.368709,-43
2021-10-14 15:43:45.368717,-36
2021-10-14 15:43:45.368725,-36
2021-10-14 15:43:45.368733,-38
2021-10-14 15:43:45.368742,-40
2021-10-14 15:43:45.368751,-38
2021-10-14 15:43:45.368759,-24
2021-10-14 15:43:45.638877,-16
2021-10-14 15:43:45.638897,-24
2021-10-14 15:43:45.638906,-24
2021-10-14 15:43:45.638915,-14
2021-10-14 15:43:45.638924,-2
2021-10-14 15:43:45.638932,16
2021-10-14 15:43:45.638940,19
2021-10-14 15:43:45.638949,-7
2021-10-14 15:43:45.638957,-36
2021-10-14 15:43:45.638966,-50
2021-10-14 15:43:45.638974,-45
2021-10-14 15:43:45.638982,-19
2021-10-14 15:43:45.638991,-16
2021-10-14 15:43:45.638999,-48
2021-10-14 15:43:45.639007,-48
2021-10-14 15:43:45.639015,-21
2021-10-14 15:43:45.639024,-16
2021-10-14 15:43:45.639032,-21
2021-10-14 15:43:45.639040,-14
2021-10-14 15:43:45.639051,14
2021-10-14 15:43:45.639060,163
2021-10-14 15:43:45.639068,531
2021-10-14 15:43:45.639076,805
2021-10-14 15:43:45.639084,360
2021-10-14 15:43:45.639093,-694
2021-10-14 15:43:45.639101,-1185
2021-10-14 15:43:45.639109,-704
2021-10-14 15:43:45.639117,-238
2021-10-14 15:43:45.639126,-144
2021-10-14 15:43:45.639134,-9
2021-10-14 15:43:45.818485,96
2021-10-14 15:43:45.818507,50
2021-10-14 15:43:45.818516,52
2021-10-14 15:43:45.818525,105
2021-10-14 15:43:45.818533,96
2021-10-14 15:43:45.818541,88
2021-10-14 15:43:45.818550,105
2021-10-14 15:43:45.818558,105
2021-10-14 15:43:45.818566,101
2021-10-14 15:43:45.818575,101
2021-10-14 15:43:45.818583,103
2021-10-14 15:43:45.818592,113
2021-10-14 15:43:45.818600,122
2021-10-14 15:43:45.818608,125
2021-10-14 15:43:45.818616,132
2021-10-14 15:43:45.818625,141
2021-10-14 15:43:45.818633,151
2021-10-14 15:43:45.818642,168
2021-10-14 15:43:45.818650,175
2021-10-14 15:43:45.818658,187
2021-10-14 15:43:45.818667,204
2021-10-14 15:43:45.818675,211
2021-10-14 15:43:45.818683,197
2021-10-14 15:43:45.818691,168
2021-10-14 15:43:45.818700,146
2021-10-14 15:43:45.818708,122
2021-10-14 15:43:45.818716,86
2021-10-14 15:43:45.818725,57
2021-10-14 15:43:45.818733,31
2021-10-14 15:43:45.818741,-7
2021-10-14 15:43:45.998894,-36
2021-10-14 15:43:45.998924,-40
2021-10-14 15:43:45.998933,-48
2021-10-14 15:43:45.998941,-67
2021-10-14 15:43:45.998950,-79
2021-10-14 15:43:45.998958,-88
2021-10-14 15:43:45.998966,-93
2021-10-14 15:43:45.998975,-86
2021-10-14 15:43:45.998983,-79
2021-10-14 15:43:45.999001,-76
2021-10-14 15:43:45.999010,-76
2021-10-14 15:43:45.999018,-74
2021-10-14 15:43:45.999026,-74
2021-10-14 15:43:45.999035,-60
2021-10-14 15:43:45.999043,-45
2021-10-14 15:43:45.999052,-50
2021-10-14 15:43:45.999060,-60
2021-10-14 15:43:45.999068,-60
2021-10-14 15:43:45.999077,-48
2021-10-14 15:43:45.999085,-33
2021-10-14 15:43:45.999093,-31
2021-10-14 15:43:45.999102,-36
2021-10-14 15:43:45.999110,-33
2021-10-14 15:43:45.999119,-26
2021-10-14 15:43:45.999127,-19
2021-10-14 15:43:45.999135,-33
2021-10-14 15:43:45.999144,-50
2021-10-14 15:43:45.999152,-43
2021-10-14 15:43:45.999160,-36
2021-10-14 15:43:45.999169,-45
2021-10-14 15:43:46.313295,-55
2021-10-14 15:43:46.313316,-45
2021-10-14 15:43:46.313326,-45
2021-10-14 15:43:46.313334,-67
2021-10-14 15:43:46.313343,-81
2021-10-14 15:43:46.313351,-79
2021-10-14 15:43:46.313359,-79
2021-10-14 15:43:46.313368,-86
2021-10-14 15:43:46.313376,-86
2021-10-14 15:43:46.313384,-86
2021-10-14 15:43:46.313393,-93
2021-10-14 15:43:46.313401,-93
2021-10-14 15:43:46.313409,-88
2021-10-14 15:43:46.313417,-93
2021-10-14 15:43:46.313426,-93
2021-10-14 15:43:46.313434,-81
2021-10-14 15:43:46.313442,-81
2021-10-14 15:43:46.313450,-88
2021-10-14 15:43:46.313459,-81
2021-10-14 15:43:46.313467,-50
2021-10-14 15:43:46.313475,-38
2021-10-14 15:43:46.313483,-45
2021-10-14 15:43:46.313491,-28
2021-10-14 15:43:46.313500,-19
2021-10-14 15:43:46.313508,-52
2021-10-14 15:43:46.313516,-67
2021-10-14 15:43:46.313524,-52
2021-10-14 15:43:46.313533,-62
2021-10-14 15:43:46.313541,-67
2021-10-14 15:43:46.313549,-40
2021-10-14 15:43:46.448596,-40
2021-10-14 15:43:46.448627,-55
2021-10-14 15:43:46.448636,-36
2021-10-14 15:43:46.448644,-24
2021-10-14 15:43:46.448653,-31
2021-10-14 15:43:46.448661,-7
2021-10-14 15:43:46.448669,132
2021-10-14 15:43:46.448678,483
2021-10-14 15:43:46.448686,808
2021-10-14 15:43:46.448694,468
2021-10-14 15:43:46.448703,-560
2021-10-14 15:43:46.448711,-1159
2021-10-14 15:43:46.448719,-750
2021-10-14 15:43:46.448728,-247
2021-10-14 15:43:46.448736,-146
2021-10-14 15:43:46.448744,-45
2021-10-14 15:43:46.448753,69
2021-10-14 15:43:46.448761,55
2021-10-14 15:43:46.448769,40
2021-10-14 15:43:46.448778,74
2021-10-14 15:43:46.448786,79
2021-10-14 15:43:46.448794,69
2021-10-14 15:43:46.448802,79
2021-10-14 15:43:46.448811,88
2021-10-14 15:43:46.448819,96
2021-10-14 15:43:46.448827,105
2021-10-14 15:43:46.448835,108
2021-10-14 15:43:46.448844,103
2021-10-14 15:43:46.448852,110
2021-10-14 15:43:46.448860,127
2021-10-14 15:43:46.718541,146
2021-10-14 15:43:46.718564,146
2021-10-14 15:43:46.718573,146
2021-10-14 15:43:46.718582,161
2021-10-14 15:43:46.718590,161
2021-10-14 15:43:46.718599,149
2021-10-14 15:43:46.718606,170
2021-10-14 15:43:46.718614,194
2021-10-14 15:43:46.718621,168
2021-10-14 15:43:46.718629,139
2021-10-14 15:43:46.718636,139
2021-10-14 15:43:46.718644,125
2021-10-14 15:43:46.718651,55
2021-10-14 15:43:46.718659,-7
2021-10-14 15:43:46.718666,-12
2021-10-14 15:43:46.718673,-31
2021-10-14 15:43:46.718680,-69
2021-10-14 15:43:46.718687,-79
2021-10-14 15:43:46.718693,-74
2021-10-14 15:43:46.718700,-81
2021-10-14 15:43:46.718708,-86
2021-10-14 15:43:46.718716,-91
2021-10-14 15:43:46.718724,-88
2021-10-14 15:43:46.718731,-72
2021-10-14 15:43:46.718738,-69
2021-10-14 15:43:46.718744,-86
2021-10-14 15:43:46.718751,-86
2021-10-14 15:43:46.718758,-74
2021-10-14 15:43:46.718766,-64
2021-10-14 15:43:46.718773,-64
2021-10-14 15:43:46.987582,-64
2021-10-14 15:43:46.987604,-55
2021-10-14 15:43:46.987614,-50
2021-10-14 15:43:46.987622,-57
2021-10-14 15:43:46.987631,-62
2021-10-14 15:43:46.987639,-50
2021-10-14 15:43:46.987668,-36
2021-10-14 15:43:46.987678,-36
2021-10-14 15:43:46.987686,-43
2021-10-14 15:43:46.987694,-52
2021-10-14 15:43:46.987703,-55
2021-10-14 15:43:46.987711,-50
2021-10-14 15:43:46.987727,-62
2021-10-14 15:43:46.987738,-88
2021-10-14 15:43:46.987746,-96
2021-10-14 15:43:46.987754,-84
2021-10-14 15:43:46.987762,-69
2021-10-14 15:43:46.987771,-74
2021-10-14 15:43:46.987779,-81
2021-10-14 15:43:46.987787,-67
2021-10-14 15:43:46.987796,-60
2021-10-14 15:43:46.987804,-74
2021-10-14 15:43:46.987813,-72
2021-10-14 15:43:46.987821,-62
2021-10-14 15:43:46.987829,-50
2021-10-14 15:43:46.987838,-43
2021-10-14 15:43:46.987846,-52
2021-10-14 15:43:46.987854,-60
2021-10-14 15:43:46.987863,-48
2021-10-14 15:43:46.987871,-45
2021-10-14 15:43:47.168890,-50
2021-10-14 15:43:47.168911,-40
2021-10-14 15:43:47.168920,-28
2021-10-14 15:43:47.168929,-26
2021-10-14 15:43:47.168937,-28
2021-10-14 15:43:47.168945,-19
2021-10-14 15:43:47.168954,-7
2021-10-14 15:43:47.168962,-9
2021-10-14 15:43:47.168970,-19
2021-10-14 15:43:47.168979,-4
2021-10-14 15:43:47.168987,16
2021-10-14 15:43:47.168995,7
2021-10-14 15:43:47.169003,-19
2021-10-14 15:43:47.169012,-36
2021-10-14 15:43:47.169020,-43
2021-10-14 15:43:47.169028,-40
2021-10-14 15:43:47.169037,-33
2021-10-14 15:43:47.169045,-40
2021-10-14 15:43:47.169053,-52
2021-10-14 15:43:47.169061,-43
2021-10-14 15:43:47.169069,-28
2021-10-14 15:43:47.169077,-40
2021-10-14 15:43:47.169086,-38
2021-10-14 15:43:47.169094,33
2021-10-14 15:43:47.169102,264
2021-10-14 15:43:47.169111,646
2021-10-14 15:43:47.169119,750
2021-10-14 15:43:47.169127,64
2021-10-14 15:43:47.169136,-913
2021-10-14 15:43:47.169144,-1041
2021-10-14 15:43:47.438554,-437
2021-10-14 15:43:47.438576,-105
2021-10-14 15:43:47.438585,-74
2021-10-14 15:43:47.438594,36
2021-10-14 15:43:47.438603,96
2021-10-14 15:43:47.438611,64
2021-10-14 15:43:47.438620,69
2021-10-14 15:43:47.438628,84
2021-10-14 15:43:47.438636,96
2021-10-14 15:43:47.438645,120
2021-10-14 15:43:47.438653,117
2021-10-14 15:43:47.438661,105
2021-10-14 15:43:47.438670,108
2021-10-14 15:43:47.438678,103
2021-10-14 15:43:47.438687,98
2021-10-14 15:43:47.438695,110
2021-10-14 15:43:47.438703,122
2021-10-14 15:43:47.438712,117
2021-10-14 15:43:47.438720,117
2021-10-14 15:43:47.438728,129
2021-10-14 15:43:47.438737,146
2021-10-14 15:43:47.438745,158
2021-10-14 15:43:47.438753,163
2021-10-14 15:43:47.438762,163
2021-10-14 15:43:47.438770,158
2021-10-14 15:43:47.438778,151
2021-10-14 15:43:47.438786,144
2021-10-14 15:43:47.438795,129
2021-10-14 15:43:47.438803,113
2021-10-14 15:43:47.438812,98
2021-10-14 15:43:47.618937,81
2021-10-14 15:43:47.618957,43
2021-10-14 15:43:47.618966,-4
2021-10-14 15:43:47.618975,-28
2021-10-14 15:43:47.618983,-19
2021-10-14 15:43:47.618992,-31
2021-10-14 15:43:47.619000,-62
2021-10-14 15:43:47.619008,-74
2021-10-14 15:43:47.619017,-74
2021-10-14 15:43:47.619025,-76
2021-10-14 15:43:47.619033,-64
2021-10-14 15:43:47.619042,-60
2021-10-14 15:43:47.619050,-76
2021-10-14 15:43:47.619058,-76
2021-10-14 15:43:47.619066,-60
2021-10-14 15:43:47.619075,-57
2021-10-14 15:43:47.619083,-52
2021-10-14 15:43:47.619091,-45
2021-10-14 15:43:47.619099,-45
2021-10-14 15:43:47.619107,-38
2021-10-14 15:43:47.619116,-28
2021-10-14 15:43:47.619124,-33
2021-10-14 15:43:47.619132,-43
2021-10-14 15:43:47.619141,-45
2021-10-14 15:43:47.619149,-45
2021-10-14 15:43:47.619157,-43
2021-10-14 15:43:47.619165,-48
2021-10-14 15:43:47.619174,-64
2021-10-14 15:43:47.619182,-64
2021-10-14 15:43:47.619190,-57
2021-10-14 15:43:47.888421,-72
2021-10-14 15:43:47.888442,-79
2021-10-14 15:43:47.888451,-67
2021-10-14 15:43:47.888460,-64
2021-10-14 15:43:47.888468,-67
2021-10-14 15:43:47.888476,-72
2021-10-14 15:43:47.888485,-84
2021-10-14 15:43:47.888493,-79
2021-10-14 15:43:47.888501,-67
2021-10-14 15:43:47.888509,-72
2021-10-14 15:43:47.888518,-74
2021-10-14 15:43:47.888526,-67
2021-10-14 15:43:47.888534,-64
2021-10-14 15:43:47.888542,-67
2021-10-14 15:43:47.888550,-74
2021-10-14 15:43:47.888559,-69
2021-10-14 15:43:47.888567,-60
2021-10-14 15:43:47.888575,-48
2021-10-14 15:43:47.888583,-33
2021-10-14 15:43:47.888595,-28
2021-10-14 15:43:47.888604,-40
2021-10-14 15:43:47.888612,-48
2021-10-14 15:43:47.888621,-33
2021-10-14 15:43:47.888629,-19
2021-10-14 15:43:47.888637,-16
2021-10-14 15:43:47.888645,-7
2021-10-14 15:43:47.888654,9
2021-10-14 15:43:47.888662,0
2021-10-14 15:43:47.888670,-36
2021-10-14 15:43:47.888678,-48
2021-10-14 15:43:48.068525,-40
2021-10-14 15:43:48.068546,-40
2021-10-14 15:43:48.068555,-36
2021-10-14 15:43:48.068563,-28
2021-10-14 15:43:48.068572,-38
2021-10-14 15:43:48.068580,-55
2021-10-14 15:43:48.068589,-43
2021-10-14 15:43:48.068597,-16
2021-10-14 15:43:48.068605,-12
2021-10-14 15:43:48.068614,19
2021-10-14 15:43:48.068622,214
2021-10-14 15:43:48.068630,589
2021-10-14 15:43:48.068639,743
2021-10-14 15:43:48.068647,144
2021-10-14 15:43:48.068656,-817
2021-10-14 15:43:48.068664,-1031
2021-10-14 15:43:48.068672,-471
2021-10-14 15:43:48.068681,-108
2021-10-14 15:43:48.068689,-74
2021-10-14 15:43:48.068698,26
2021-10-14 15:43:48.068706,103
2021-10-14 15:43:48.068714,62
2021-10-14 15:43:48.068722,62
2021-10-14 15:43:48.068730,81
2021-10-14 15:43:48.068739,67
2021-10-14 15:43:48.068747,79
2021-10-14 15:43:48.068755,96
2021-10-14 15:43:48.068764,88
2021-10-14 15:43:48.068772,91
2021-10-14 15:43:48.068780,91
2021-10-14 15:43:48.338921,72
2021-10-14 15:43:48.338940,74
2021-10-14 15:43:48.338949,93
2021-10-14 15:43:48.338958,93
2021-10-14 15:43:48.338966,86
2021-10-14 15:43:48.338975,98
2021-10-14 15:43:48.338983,115
2021-10-14 15:43:48.338992,129
2021-10-14 15:43:48.339000,139
2021-10-14 15:43:48.339008,125
2021-10-14 15:43:48.339017,93
2021-10-14 15:43:48.339025,98
2021-10-14 15:43:48.339033,127
2021-10-14 15:43:48.339041,110
2021-10-14 15:43:48.339050,84
2021-10-14 15:43:48.339058,67
2021-10-14 15:43:48.339066,43
2021-10-14 15:43:48.339075,21
2021-10-14 15:43:48.339083,4
2021-10-14 15:43:48.339092,-14
2021-10-14 15:43:48.339100,-31
2021-10-14 15:43:48.339109,-52
2021-10-14 15:43:48.339117,-62
2021-10-14 15:43:48.339125,-50
2021-10-14 15:43:48.339133,-52
2021-10-14 15:43:48.339142,-72
2021-10-14 15:43:48.339150,-72
2021-10-14 15:43:48.339158,-57
2021-10-14 15:43:48.339166,-48
2021-10-14 15:43:48.339174,-43
2021-10-14 15:43:48.653550,-36
2021-10-14 15:43:48.653570,-33
2021-10-14 15:43:48.653578,-43
2021-10-14 15:43:48.653587,-57
2021-10-14 15:43:48.653595,-50
2021-10-14 15:43:48.653610,-31
2021-10-14 15:43:48.653619,-28
2021-10-14 15:43:48.653627,-26
2021-10-14 15:43:48.653635,-26
2021-10-14 15:43:48.653643,-31
2021-10-14 15:43:48.653651,-14
2021-10-14 15:43:48.653659,4
2021-10-14 15:43:48.653668,-4
2021-10-14 15:43:48.653676,-19
2021-10-14 15:43:48.653684,-21
2021-10-14 15:43:48.653691,-31
2021-10-14 15:43:48.653699,-36
2021-10-14 15:43:48.653707,-33
2021-10-14 15:43:48.653714,-38
2021-10-14 15:43:48.653722,-38
2021-10-14 15:43:48.653730,-36
2021-10-14 15:43:48.653737,-45
2021-10-14 15:43:48.653744,-57
2021-10-14 15:43:48.653752,-55
2021-10-14 15:43:48.653760,-43
2021-10-14 15:43:48.653767,-36
2021-10-14 15:43:48.653775,-43
2021-10-14 15:43:48.653783,-45
2021-10-14 15:43:48.653791,-40
2021-10-14 15:43:48.653798,-45
2021-10-14 15:43:48.788919,-48
2021-10-14 15:43:48.788939,-36
2021-10-14 15:43:48.788949,-31
2021-10-14 15:43:48.788957,-40
2021-10-14 15:43:48.788966,-43
2021-10-14 15:43:48.788974,-40
2021-10-14 15:43:48.788982,-28
2021-10-14 15:43:48.788991,-16
2021-10-14 15:43:48.788999,-24
2021-10-14 15:43:48.789007,-19
2021-10-14 15:43:48.789016,-2
2021-10-14 15:43:48.789024,-16
2021-10-14 15:43:48.789032,-50
2021-10-14 15:43:48.789041,-50
2021-10-14 15:43:48.789049,-40
2021-10-14 15:43:48.789057,-50
2021-10-14 15:43:48.789066,-50
2021-10-14 15:43:48.789074,-31
2021-10-14 15:43:48.789082,-19
2021-10-14 15:43:48.789090,-16
2021-10-14 15:43:48.789098,-33
2021-10-14 15:43:48.789106,-36
2021-10-14 15:43:48.789115,-4
2021-10-14 15:43:48.789123,31
2021-10-14 15:43:48.789131,175
2021-10-14 15:43:48.789139,500
2021-10-14 15:43:48.789148,682
2021-10-14 15:43:48.789156,202
2021-10-14 15:43:48.789164,-685
2021-10-14 15:43:48.789173,-954
2021-10-14 15:43:49.057597,-500
2021-10-14 15:43:49.057618,-149
2021-10-14 15:43:49.057627,-60
2021-10-14 15:43:49.057636,33
2021-10-14 15:43:49.057645,76
2021-10-14 15:43:49.057653,48
2021-10-14 15:43:49.057661,48
2021-10-14 15:43:49.057669,55
2021-10-14 15:43:49.057678,43
2021-10-14 15:43:49.057686,52
2021-10-14 15:43:49.057694,67
2021-10-14 15:43:49.057703,64
2021-10-14 15:43:49.057711,76
2021-10-14 15:43:49.057719,88
2021-10-14 15:43:49.057728,81
2021-10-14 15:43:49.057736,74
2021-10-14 15:43:49.057744,76
2021-10-14 15:43:49.057753,81
2021-10-14 15:43:49.057761,98
2021-10-14 15:43:49.057769,120
2021-10-14 15:43:49.057778,132
2021-10-14 15:43:49.057786,129
2021-10-14 15:43:49.057794,137
2021-10-14 15:43:49.057803,158
2021-10-14 15:43:49.057811,173
2021-10-14 15:43:49.057819,156
2021-10-14 15:43:49.057828,98
2021-10-14 15:43:49.057836,74
2021-10-14 15:43:49.057844,93
2021-10-14 15:43:49.057852,74
2021-10-14 15:43:49.283575,24
2021-10-14 15:43:49.283597,14
2021-10-14 15:43:49.283605,14
2021-10-14 15:43:49.283613,-2
2021-10-14 15:43:49.283621,0
2021-10-14 15:43:49.283628,-2
2021-10-14 15:43:49.283636,-48
2021-10-14 15:43:49.283643,-69
2021-10-14 15:43:49.283650,-43
2021-10-14 15:43:49.283657,-33
2021-10-14 15:43:49.283666,-55
2021-10-14 15:43:49.283675,-74
2021-10-14 15:43:49.283685,-67
2021-10-14 15:43:49.283694,-48
2021-10-14 15:43:49.283704,-33
2021-10-14 15:43:49.283713,-28
2021-10-14 15:43:49.283722,-33
2021-10-14 15:43:49.283731,-36
2021-10-14 15:43:49.283740,-28
2021-10-14 15:43:49.283747,-19
2021-10-14 15:43:49.283755,-9
2021-10-14 15:43:49.283762,-9
2021-10-14 15:43:49.283769,4
2021-10-14 15:43:49.283777,26
2021-10-14 15:43:49.283784,21
2021-10-14 15:43:49.283791,26
2021-10-14 15:43:49.283799,43
2021-10-14 15:43:49.283806,36
2021-10-14 15:43:49.283813,36
2021-10-14 15:43:49.283820,55
2021-10-14 15:43:49.508306,43
2021-10-14 15:43:49.508327,14
2021-10-14 15:43:49.508337,16
2021-10-14 15:43:49.508345,28
2021-10-14 15:43:49.508354,36
2021-10-14 15:43:49.508362,36
2021-10-14 15:43:49.508371,31
2021-10-14 15:43:49.508379,16
2021-10-14 15:43:49.508387,19
2021-10-14 15:43:49.508396,14
2021-10-14 15:43:49.508404,-12
2021-10-14 15:43:49.508412,-21
2021-10-14 15:43:49.508421,-14
2021-10-14 15:43:49.508429,-19
2021-10-14 15:43:49.508437,-21
2021-10-14 15:43:49.508445,-14
2021-10-14 15:43:49.508454,-9
2021-10-14 15:43:49.508462,2
2021-10-14 15:43:49.508470,2
2021-10-14 15:43:49.508479,-4
2021-10-14 15:43:49.508487,14
2021-10-14 15:43:49.508495,31
2021-10-14 15:43:49.508504,4
2021-10-14 15:43:49.508512,-28
2021-10-14 15:43:49.508520,-43
2021-10-14 15:43:49.508528,-24
2021-10-14 15:43:49.508536,-2
2021-10-14 15:43:49.508545,-12
2021-10-14 15:43:49.508553,-26
2021-10-14 15:43:49.508561,-19
2021-10-14 15:43:49.733553,-12
2021-10-14 15:43:49.733574,-7
2021-10-14 15:43:49.733583,7
2021-10-14 15:43:49.733592,14
2021-10-14 15:43:49.733600,50
2021-10-14 15:43:49.733609,216
2021-10-14 15:43:49.733618,529
2021-10-14 15:43:49.733626,642
2021-10-14 15:43:49.733635,86
2021-10-14 15:43:49.733644,-694
2021-10-14 15:43:49.733653,-764
2021-10-14 15:43:49.733661,-370
2021-10-14 15:43:49.733669,-182
2021-10-14 15:43:49.733677,-69
2021-10-14 15:43:49.733686,76
2021-10-14 15:43:49.733694,84
2021-10-14 15:43:49.733702,40
2021-10-14 15:43:49.733710,72
2021-10-14 15:43:49.733719,93
2021-10-14 15:43:49.733727,88
2021-10-14 15:43:49.733735,101
2021-10-14 15:43:49.733743,117
2021-10-14 15:43:49.733752,132
2021-10-14 15:43:49.733760,144
2021-10-14 15:43:49.733768,151
2021-10-14 15:43:49.733776,173
2021-10-14 15:43:49.733785,199
2021-10-14 15:43:49.733793,202
2021-10-14 15:43:49.733801,199
2021-10-14 15:43:49.733810,211
2021-10-14 15:43:49.913660,223
2021-10-14 15:43:49.913684,235
2021-10-14 15:43:49.913731,233
2021-10-14 15:43:49.913743,209
2021-10-14 15:43:49.913752,214
2021-10-14 15:43:49.913759,226
2021-10-14 15:43:49.913767,194
2021-10-14 15:43:49.913775,165
2021-10-14 15:43:49.913783,170
2021-10-14 15:43:49.913790,168
2021-10-14 15:43:49.913798,139
2021-10-14 15:43:49.913817,120
2021-10-14 15:43:49.913825,103
2021-10-14 15:43:49.913833,81
2021-10-14 15:43:49.913840,72
2021-10-14 15:43:49.913848,67
2021-10-14 15:43:49.913856,33
2021-10-14 15:43:49.913863,14
2021-10-14 15:43:49.913871,28
2021-10-14 15:43:49.913879,28
2021-10-14 15:43:49.913887,14
2021-10-14 15:43:49.913894,14
2021-10-14 15:43:49.913902,19
2021-10-14 15:43:49.913910,9
2021-10-14 15:43:49.913918,9
2021-10-14 15:43:49.913926,24
2021-10-14 15:43:49.913933,33
2021-10-14 15:43:49.913941,24
2021-10-14 15:43:49.913949,12
2021-10-14 15:43:49.913957,24
2021-10-14 15:43:50.138941,48
2021-10-14 15:43:50.138961,45
2021-10-14 15:43:50.138971,33
2021-10-14 15:43:50.138979,21
2021-10-14 15:43:50.138987,2
2021-10-14 15:43:50.138996,9
2021-10-14 15:43:50.139004,28
2021-10-14 15:43:50.139012,28
2021-10-14 15:43:50.139020,21
2021-10-14 15:43:50.139029,14
2021-10-14 15:43:50.139037,2
2021-10-14 15:43:50.139045,4
2021-10-14 15:43:50.139053,14
2021-10-14 15:43:50.139061,24
2021-10-14 15:43:50.139070,43
2021-10-14 15:43:50.139078,28
2021-10-14 15:43:50.139087,0
2021-10-14 15:43:50.139095,-7
2021-10-14 15:43:50.139103,0
2021-10-14 15:43:50.139112,7
2021-10-14 15:43:50.139120,26
2021-10-14 15:43:50.139128,31
2021-10-14 15:43:50.139137,9
2021-10-14 15:43:50.139145,9
2021-10-14 15:43:50.139153,40
2021-10-14 15:43:50.139161,43
2021-10-14 15:43:50.139170,33
2021-10-14 15:43:50.139178,48
2021-10-14 15:43:50.139186,67
2021-10-14 15:43:50.139194,60
2021-10-14 15:43:50.498560,52
2021-10-14 15:43:50.498589,50
2021-10-14 15:43:50.498599,40
2021-10-14 15:43:50.498607,28
2021-10-14 15:43:50.498616,33
2021-10-14 15:43:50.498625,38
2021-10-14 15:43:50.498633,19
2021-10-14 15:43:50.498641,16
2021-10-14 15:43:50.498650,48
2021-10-14 15:43:50.498658,50
2021-10-14 15:43:50.498666,36
2021-10-14 15:43:50.498675,50
2021-10-14 15:43:50.498683,72
2021-10-14 15:43:50.498692,173
2021-10-14 15:43:50.498700,425
2021-10-14 15:43:50.498708,649
2021-10-14 15:43:50.498717,394
2021-10-14 15:43:50.498725,-351
2021-10-14 15:43:50.498734,-769
2021-10-14 15:43:50.498742,-517
2021-10-14 15:43:50.498750,-223
2021-10-14 15:43:50.498759,-120
2021-10-14 15:43:50.498767,-9
2021-10-14 15:43:50.498776,40
2021-10-14 15:43:50.498784,7
2021-10-14 15:43:50.498793,7
2021-10-14 15:43:50.498801,14
2021-10-14 15:43:50.498809,-4
2021-10-14 15:43:50.498818,-7
2021-10-14 15:43:50.498826,-7
2021-10-14 15:43:50.633541,-28
2021-10-14 15:43:50.633562,-26
2021-10-14 15:43:50.633571,-9
2021-10-14 15:43:50.633579,-21
2021-10-14 15:43:50.633588,-33
2021-10-14 15:43:50.633596,-24
2021-10-14 15:43:50.633604,-26
2021-10-14 15:43:50.633613,-28
2021-10-14 15:43:50.633621,-24
2021-10-14 15:43:50.633630,-38
2021-10-14 15:43:50.633638,-43
2021-10-14 15:43:50.633646,-21
2021-10-14 15:43:50.633655,-9
2021-10-14 15:43:50.633663,-14
2021-10-14 15:43:50.633671,-36
2021-10-14 15:43:50.633680,-57
2021-10-14 15:43:50.633688,-69
2021-10-14 15:43:50.633696,-81
2021-10-14 15:43:50.633704,-91
2021-10-14 15:43:50.633713,-93
2021-10-14 15:43:50.633721,-110
2021-10-14 15:43:50.633729,-144
2021-10-14 15:43:50.633738,-151
2021-10-14 15:43:50.633746,-149
2021-10-14 15:43:50.633754,-163
2021-10-14 15:43:50.633763,-170
2021-10-14 15:43:50.633771,-182
2021-10-14 15:43:50.633779,-214
2021-10-14 15:43:50.633788,-226
2021-10-14 15:43:50.633796,-204
2021-10-14 15:43:50.993362,-187
2021-10-14 15:43:50.993383,-187
2021-10-14 15:43:50.993393,-187
2021-10-14 15:43:50.993401,-182
2021-10-14 15:43:50.993410,-165
2021-10-14 15:43:50.993418,-151
2021-10-14 15:43:50.993426,-153
2021-10-14 15:43:50.993435,-156
2021-10-14 15:43:50.993443,-153
2021-10-14 15:43:50.993451,-144
2021-10-14 15:43:50.993460,-144
2021-10-14 15:43:50.993468,-139
2021-10-14 15:43:50.993476,-129
2021-10-14 15:43:50.993485,-125
2021-10-14 15:43:50.993493,-127
2021-10-14 15:43:50.993501,-132
2021-10-14 15:43:50.993509,-132
2021-10-14 15:43:50.993517,-127
2021-10-14 15:43:50.993526,-120
2021-10-14 15:43:50.993534,-113
2021-10-14 15:43:50.993542,-108
2021-10-14 15:43:50.993550,-108
2021-10-14 15:43:50.993558,-117
2021-10-14 15:43:50.993567,-117
2021-10-14 15:43:50.993575,-105
2021-10-14 15:43:50.993583,-98
2021-10-14 15:43:50.993591,-101
2021-10-14 15:43:50.993599,-91
2021-10-14 15:43:50.993607,-74
2021-10-14 15:43:50.993616,-74
2021-10-14 15:43:51.172224,-74
2021-10-14 15:43:51.172245,-60
2021-10-14 15:43:51.172254,-45
2021-10-14 15:43:51.172263,-36
2021-10-14 15:43:51.172271,-48
2021-10-14 15:43:51.172279,-79
2021-10-14 15:43:51.172288,-88
2021-10-14 15:43:51.172296,-79
2021-10-14 15:43:51.172304,-72
2021-10-14 15:43:51.172313,-67
2021-10-14 15:43:51.172321,-72
2021-10-14 15:43:51.172330,-74
2021-10-14 15:43:51.172338,-67
2021-10-14 15:43:51.172346,-60
2021-10-14 15:43:51.172354,-62
2021-10-14 15:43:51.172363,-50
2021-10-14 15:43:51.172371,4
2021-10-14 15:43:51.172379,187
2021-10-14 15:43:51.172388,505
2021-10-14 15:43:51.172396,603
2021-10-14 15:43:51.172404,-7
2021-10-14 15:43:51.172413,-865
2021-10-14 15:43:51.172421,-933
2021-10-14 15:43:51.172429,-468
2021-10-14 15:43:51.172438,-250
2021-10-14 15:43:51.172446,-153
2021-10-14 15:43:51.172454,-2
2021-10-14 15:43:51.172462,26
2021-10-14 15:43:51.172471,-7
2021-10-14 15:43:51.172479,28
2021-10-14 15:43:51.308584,55
2021-10-14 15:43:51.308605,40
2021-10-14 15:43:51.308615,43
2021-10-14 15:43:51.308624,40
2021-10-14 15:43:51.308632,21
2021-10-14 15:43:51.308641,33
2021-10-14 15:43:51.308650,50
2021-10-14 15:43:51.308658,50
2021-10-14 15:43:51.308667,57
2021-10-14 15:43:51.308675,74
2021-10-14 15:43:51.308683,84
2021-10-14 15:43:51.308692,91
2021-10-14 15:43:51.308700,101
2021-10-14 15:43:51.308709,105
2021-10-14 15:43:51.308717,113
2021-10-14 15:43:51.308725,120
2021-10-14 15:43:51.308734,122
2021-10-14 15:43:51.308742,115
2021-10-14 15:43:51.308751,103
2021-10-14 15:43:51.308759,96
2021-10-14 15:43:51.308767,81
2021-10-14 15:43:51.308775,60
2021-10-14 15:43:51.308784,48
2021-10-14 15:43:51.308792,26
2021-10-14 15:43:51.308801,-16
2021-10-14 15:43:51.308809,-43
2021-10-14 15:43:51.308817,-55
2021-10-14 15:43:51.308825,-74
2021-10-14 15:43:51.308834,-86
2021-10-14 15:43:51.308842,-84
2021-10-14 15:43:51.577963,-81
2021-10-14 15:43:51.577984,-84
2021-10-14 15:43:51.577993,-93
2021-10-14 15:43:51.578002,-96
2021-10-14 15:43:51.578010,-88
2021-10-14 15:43:51.578018,-86
2021-10-14 15:43:51.578027,-88
2021-10-14 15:43:51.578035,-81
2021-10-14 15:43:51.578043,-74
2021-10-14 15:43:51.578052,-76
2021-10-14 15:43:51.578060,-76
2021-10-14 15:43:51.578068,-69
2021-10-14 15:43:51.578077,-62
2021-10-14 15:43:51.578085,-50
2021-10-14 15:43:51.578093,-50
2021-10-14 15:43:51.578101,-60
2021-10-14 15:43:51.578109,-60
2021-10-14 15:43:51.578118,-55
2021-10-14 15:43:51.578126,-55
2021-10-14 15:43:51.578135,-50
2021-10-14 15:43:51.578143,-45
2021-10-14 15:43:51.578151,-50
2021-10-14 15:43:51.578160,-55
2021-10-14 15:43:51.578168,-48
2021-10-14 15:43:51.578176,-45
2021-10-14 15:43:51.578184,-52
2021-10-14 15:43:51.578193,-52
2021-10-14 15:43:51.578201,-45
2021-10-14 15:43:51.578209,-40
2021-10-14 15:43:51.578217,-38
2021-10-14 15:43:51.758967,-31
2021-10-14 15:43:51.758989,-28
2021-10-14 15:43:51.758998,-21
2021-10-14 15:43:51.759007,-2
2021-10-14 15:43:51.759015,-16
2021-10-14 15:43:51.759023,-55
2021-10-14 15:43:51.759032,-72
2021-10-14 15:43:51.759040,-64
2021-10-14 15:43:51.759103,-60
2021-10-14 15:43:51.759113,-67
2021-10-14 15:43:51.759121,-79
2021-10-14 15:43:51.759130,-74
2021-10-14 15:43:51.759138,-62
2021-10-14 15:43:51.759146,-57
2021-10-14 15:43:51.759155,-60
2021-10-14 15:43:51.759163,-62
2021-10-14 15:43:51.759171,-40
2021-10-14 15:43:51.759179,103
2021-10-14 15:43:51.759188,442
2021-10-14 15:43:51.759196,721
2021-10-14 15:43:51.759204,351
2021-10-14 15:43:51.759213,-622
2021-10-14 15:43:51.759221,-1103
2021-10-14 15:43:51.759229,-675
2021-10-14 15:43:51.759237,-242
2021-10-14 15:43:51.759246,-151
2021-10-14 15:43:51.759254,-43
2021-10-14 15:43:51.759262,38
2021-10-14 15:43:51.759271,7
2021-10-14 15:43:51.759279,2
2021-10-14 15:43:52.207892,31
2021-10-14 15:43:52.207915,16
2021-10-14 15:43:52.207924,2
2021-10-14 15:43:52.207932,19
2021-10-14 15:43:52.207941,16
2021-10-14 15:43:52.207949,9
2021-10-14 15:43:52.207957,28
2021-10-14 15:43:52.207966,43
2021-10-14 15:43:52.207974,43
2021-10-14 15:43:52.207982,52
2021-10-14 15:43:52.207991,60
2021-10-14 15:43:52.207999,60
2021-10-14 15:43:52.208007,72
2021-10-14 15:43:52.208016,93
2021-10-14 15:43:52.208024,103
2021-10-14 15:43:52.208032,98
2021-10-14 15:43:52.208040,108
2021-10-14 15:43:52.208048,117
2021-10-14 15:43:52.208057,113
2021-10-14 15:43:52.208065,98
2021-10-14 15:43:52.208073,81
2021-10-14 15:43:52.208081,57
2021-10-14 15:43:52.208090,33
2021-10-14 15:43:52.208098,19
2021-10-14 15:43:52.208106,2
2021-10-14 15:43:52.208114,-16
2021-10-14 15:43:52.208123,-36
2021-10-14 15:43:52.208131,-52
2021-10-14 15:43:52.208139,-67
2021-10-14 15:43:52.208147,-79
2021-10-14 15:43:52.299061,-84
2021-10-14 15:43:52.299081,-86
2021-10-14 15:43:52.299090,-93
2021-10-14 15:43:52.299098,-101
2021-10-14 15:43:52.299105,-101
2021-10-14 15:43:52.299113,-105
2021-10-14 15:43:52.299121,-110
2021-10-14 15:43:52.299129,-101
2021-10-14 15:43:52.299136,-88
2021-10-14 15:43:52.299144,-76
2021-10-14 15:43:52.299151,-64
2021-10-14 15:43:52.299159,-62
2021-10-14 15:43:52.299167,-64
2021-10-14 15:43:52.299174,-52
2021-10-14 15:43:52.299182,-52
2021-10-14 15:43:52.299190,-67
2021-10-14 15:43:52.299197,-62
2021-10-14 15:43:52.299205,-50
2021-10-14 15:43:52.299213,-55
2021-10-14 15:43:52.299220,-60
2021-10-14 15:43:52.299228,-67
2021-10-14 15:43:52.299236,-84
2021-10-14 15:43:52.299243,-69
2021-10-14 15:43:52.299251,-38
2021-10-14 15:43:52.299259,-36
2021-10-14 15:43:52.299266,-38
2021-10-14 15:43:52.299274,-36
2021-10-14 15:43:52.299281,-45
2021-10-14 15:43:52.299289,-43
2021-10-14 15:43:52.299297,-38
2021-10-14 15:43:52.568613,-40
2021-10-14 15:43:52.568635,-33
2021-10-14 15:43:52.568644,-33
2021-10-14 15:43:52.568652,-48
2021-10-14 15:43:52.568661,-38
2021-10-14 15:43:52.568669,-16
2021-10-14 15:43:52.568677,-33
2021-10-14 15:43:52.568685,-57
2021-10-14 15:43:52.568693,-62
2021-10-14 15:43:52.568702,-67
2021-10-14 15:43:52.568710,-69
2021-10-14 15:43:52.568718,-67
2021-10-14 15:43:52.568726,-60
2021-10-14 15:43:52.568735,-52
2021-10-14 15:43:52.568743,-60
2021-10-14 15:43:52.568751,-64
2021-10-14 15:43:52.568759,-55
2021-10-14 15:43:52.568768,-36
2021-10-14 15:43:52.568776,12
2021-10-14 15:43:52.568784,204
2021-10-14 15:43:52.568792,560
2021-10-14 15:43:52.568801,675
2021-10-14 15:43:52.568809,60
2021-10-14 15:43:52.568817,-824
2021-10-14 15:43:52.568825,-930
2021-10-14 15:43:52.568833,-420
2021-10-14 15:43:52.568842,-153
2021-10-14 15:43:52.568850,-108
2021-10-14 15:43:52.568858,4
2021-10-14 15:43:52.568866,55
2021-10-14 15:43:52.748677,26
2021-10-14 15:43:52.748699,38
2021-10-14 15:43:52.748708,55
2021-10-14 15:43:52.748716,43
2021-10-14 15:43:52.748725,50
2021-10-14 15:43:52.748733,72
2021-10-14 15:43:52.748741,67
2021-10-14 15:43:52.748749,48
2021-10-14 15:43:52.748758,36
2021-10-14 15:43:52.748766,40
2021-10-14 15:43:52.748774,52
2021-10-14 15:43:52.748782,64
2021-10-14 15:43:52.748791,72
2021-10-14 15:43:52.748799,79
2021-10-14 15:43:52.748807,76
2021-10-14 15:43:52.748816,74
2021-10-14 15:43:52.748824,81
2021-10-14 15:43:52.748832,91
2021-10-14 15:43:52.748840,93
2021-10-14 15:43:52.748849,88
2021-10-14 15:43:52.748857,76
2021-10-14 15:43:52.748865,64
2021-10-14 15:43:52.748873,50
2021-10-14 15:43:52.748881,33
2021-10-14 15:43:52.748889,16
