Time,ECG
2021-10-14 16:18:32.876481,55
2021-10-14 16:18:32.876501,55
2021-10-14 16:18:32.876510,60
2021-10-14 16:18:32.876519,60
2021-10-14 16:18:32.876527,62
2021-10-14 16:18:32.876536,81
2021-10-14 16:18:32.876545,96
2021-10-14 16:18:32.876553,105
2021-10-14 16:18:32.876561,125
2021-10-14 16:18:32.876570,137
2021-10-14 16:18:32.876579,139
2021-10-14 16:18:32.876587,149
2021-10-14 16:18:32.876595,158
2021-10-14 16:18:32.876604,163
2021-10-14 16:18:32.876612,168
2021-10-14 16:18:32.876620,161
2021-10-14 16:18:32.876629,144
2021-10-14 16:18:32.876638,125
2021-10-14 16:18:32.876646,101
2021-10-14 16:18:32.876654,55
2021-10-14 16:18:32.876662,-2
2021-10-14 16:18:32.876671,-55
2021-10-14 16:18:32.876679,-84
2021-10-14 16:18:32.876687,-98
2021-10-14 16:18:32.876761,-117
2021-10-14 16:18:32.876773,-141
2021-10-14 16:18:32.876783,-153
2021-10-14 16:18:32.876791,-161
2021-10-14 16:18:32.876799,-168
2021-10-14 16:18:32.876808,-165
2021-10-14 16:18:33.035513,-163
2021-10-14 16:18:33.035534,-165
2021-10-14 16:18:33.035543,-161
2021-10-14 16:18:33.035552,-156
2021-10-14 16:18:33.035560,-146
2021-10-14 16:18:33.035568,-129
2021-10-14 16:18:33.035578,-129
2021-10-14 16:18:33.035586,-141
2021-10-14 16:18:33.035594,-141
2021-10-14 16:18:33.035603,-141
2021-10-14 16:18:33.035611,-139
2021-10-14 16:18:33.035619,-127
2021-10-14 16:18:33.035627,-117
2021-10-14 16:18:33.035636,-110
2021-10-14 16:18:33.035644,-120
2021-10-14 16:18:33.035652,-134
2021-10-14 16:18:33.035660,-122
2021-10-14 16:18:33.035669,-108
2021-10-14 16:18:33.035678,-122
2021-10-14 16:18:33.035686,-129
2021-10-14 16:18:33.035694,-122
2021-10-14 16:18:33.035703,-115
2021-10-14 16:18:33.035711,-117
2021-10-14 16:18:33.035719,-105
2021-10-14 16:18:33.035727,-96
2021-10-14 16:18:33.035736,-108
2021-10-14 16:18:33.035744,-113
2021-10-14 16:18:33.035752,-93
2021-10-14 16:18:33.035760,-93
2021-10-14 16:18:33.035770,-98
2021-10-14 16:18:33.260494,-88
2021-10-14 16:18:33.260514,-86
2021-10-14 16:18:33.260523,-98
2021-10-14 16:18:33.260532,-93
2021-10-14 16:18:33.260540,-67
2021-10-14 16:18:33.260548,-67
2021-10-14 16:18:33.260557,-79
2021-10-14 16:18:33.260565,-76
2021-10-14 16:18:33.260573,-79
2021-10-14 16:18:33.260582,-81
2021-10-14 16:18:33.260590,-67
2021-10-14 16:18:33.260598,-52
2021-10-14 16:18:33.260606,-45
2021-10-14 16:18:33.260618,-28
2021-10-14 16:18:33.260627,-21
2021-10-14 16:18:33.260635,-43
2021-10-14 16:18:33.260644,-62
2021-10-14 16:18:33.260652,-62
2021-10-14 16:18:33.260660,-57
2021-10-14 16:18:33.260669,-55
2021-10-14 16:18:33.260677,-55
2021-10-14 16:18:33.260685,-55
2021-10-14 16:18:33.260693,-40
2021-10-14 16:18:33.260702,-28
2021-10-14 16:18:33.260710,-24
2021-10-14 16:18:33.260718,-28
2021-10-14 16:18:33.260726,-24
2021-10-14 16:18:33.260735,21
2021-10-14 16:18:33.260743,177
2021-10-14 16:18:33.260753,545
2021-10-14 16:18:33.441564,808
2021-10-14 16:18:33.441585,286
2021-10-14 16:18:33.441594,-798
2021-10-14 16:18:33.441603,-1185
2021-10-14 16:18:33.441611,-618
2021-10-14 16:18:33.441620,-173
2021-10-14 16:18:33.441628,-103
2021-10-14 16:18:33.441636,24
2021-10-14 16:18:33.441644,125
2021-10-14 16:18:33.441653,96
2021-10-14 16:18:33.441661,103
2021-10-14 16:18:33.441669,139
2021-10-14 16:18:33.441678,127
2021-10-14 16:18:33.441686,120
2021-10-14 16:18:33.441694,137
2021-10-14 16:18:33.441703,144
2021-10-14 16:18:33.441711,146
2021-10-14 16:18:33.441723,168
2021-10-14 16:18:33.441731,187
2021-10-14 16:18:33.441740,189
2021-10-14 16:18:33.441748,189
2021-10-14 16:18:33.441756,197
2021-10-14 16:18:33.441765,214
2021-10-14 16:18:33.441773,240
2021-10-14 16:18:33.441781,264
2021-10-14 16:18:33.441789,276
2021-10-14 16:18:33.441798,283
2021-10-14 16:18:33.441806,295
2021-10-14 16:18:33.441814,312
2021-10-14 16:18:33.441822,317
2021-10-14 16:18:33.711527,303
2021-10-14 16:18:33.711547,278
2021-10-14 16:18:33.711557,252
2021-10-14 16:18:33.711565,226
2021-10-14 16:18:33.711574,199
2021-10-14 16:18:33.711582,158
2021-10-14 16:18:33.711590,108
2021-10-14 16:18:33.711603,76
2021-10-14 16:18:33.711612,55
2021-10-14 16:18:33.711620,33
2021-10-14 16:18:33.711629,16
2021-10-14 16:18:33.711637,0
2021-10-14 16:18:33.711645,-21
2021-10-14 16:18:33.711653,-31
2021-10-14 16:18:33.711662,-21
2021-10-14 16:18:33.711670,-14
2021-10-14 16:18:33.711678,-16
2021-10-14 16:18:33.711687,-9
2021-10-14 16:18:33.711695,2
2021-10-14 16:18:33.711703,16
2021-10-14 16:18:33.711711,16
2021-10-14 16:18:33.711720,12
2021-10-14 16:18:33.711728,26
2021-10-14 16:18:33.711736,48
2021-10-14 16:18:33.711745,48
2021-10-14 16:18:33.711753,43
2021-10-14 16:18:33.711761,48
2021-10-14 16:18:33.711769,55
2021-10-14 16:18:33.711778,62
2021-10-14 16:18:33.711787,67
2021-10-14 16:18:33.980264,52
2021-10-14 16:18:33.980284,38
2021-10-14 16:18:33.980294,40
2021-10-14 16:18:33.980302,48
2021-10-14 16:18:33.980311,36
2021-10-14 16:18:33.980319,16
2021-10-14 16:18:33.980328,9
2021-10-14 16:18:33.980336,9
2021-10-14 16:18:33.980344,7
2021-10-14 16:18:33.980352,4
2021-10-14 16:18:33.980361,9
2021-10-14 16:18:33.980369,12
2021-10-14 16:18:33.980377,12
2021-10-14 16:18:33.980386,7
2021-10-14 16:18:33.980394,4
2021-10-14 16:18:33.980403,4
2021-10-14 16:18:33.980411,2
2021-10-14 16:18:33.980419,2
2021-10-14 16:18:33.980428,7
2021-10-14 16:18:33.980436,16
2021-10-14 16:18:33.980444,14
2021-10-14 16:18:33.980453,9
2021-10-14 16:18:33.980461,14
2021-10-14 16:18:33.980469,16
2021-10-14 16:18:33.980487,14
2021-10-14 16:18:33.980495,19
2021-10-14 16:18:33.980504,28
2021-10-14 16:18:33.980512,38
2021-10-14 16:18:33.980520,38
2021-10-14 16:18:33.980529,40
2021-10-14 16:18:34.116189,67
2021-10-14 16:18:34.116210,79
2021-10-14 16:18:34.116219,48
2021-10-14 16:18:34.116228,14
2021-10-14 16:18:34.116237,14
2021-10-14 16:18:34.116245,19
2021-10-14 16:18:34.116254,19
2021-10-14 16:18:34.116262,24
2021-10-14 16:18:34.116271,26
2021-10-14 16:18:34.116279,26
2021-10-14 16:18:34.116288,19
2021-10-14 16:18:34.116296,14
2021-10-14 16:18:34.116304,26
2021-10-14 16:18:34.116313,38
2021-10-14 16:18:34.116321,69
2021-10-14 16:18:34.116330,247
2021-10-14 16:18:34.116338,630
2021-10-14 16:18:34.116347,817
2021-10-14 16:18:34.116355,202
2021-10-14 16:18:34.116363,-851
2021-10-14 16:18:34.116372,-1103
2021-10-14 16:18:34.116380,-505
2021-10-14 16:18:34.116390,-120
2021-10-14 16:18:34.116399,-76
2021-10-14 16:18:34.116408,48
2021-10-14 16:18:34.116416,129
2021-10-14 16:18:34.116424,93
2021-10-14 16:18:34.116433,98
2021-10-14 16:18:34.116441,129
2021-10-14 16:18:34.116449,125
2021-10-14 16:18:34.430624,127
2021-10-14 16:18:34.430646,139
2021-10-14 16:18:34.430656,134
2021-10-14 16:18:34.430664,127
2021-10-14 16:18:34.430673,127
2021-10-14 16:18:34.430681,129
2021-10-14 16:18:34.430690,129
2021-10-14 16:18:34.430698,127
2021-10-14 16:18:34.430706,139
2021-10-14 16:18:34.430715,156
2021-10-14 16:18:34.430723,161
2021-10-14 16:18:34.430732,173
2021-10-14 16:18:34.430740,185
2021-10-14 16:18:34.430748,189
2021-10-14 16:18:34.430757,197
2021-10-14 16:18:34.430765,199
2021-10-14 16:18:34.430773,185
2021-10-14 16:18:34.430782,173
2021-10-14 16:18:34.430790,161
2021-10-14 16:18:34.430798,137
2021-10-14 16:18:34.430806,103
2021-10-14 16:18:34.430815,69
2021-10-14 16:18:34.430823,38
2021-10-14 16:18:34.430831,12
2021-10-14 16:18:34.430844,-12
2021-10-14 16:18:34.430852,-40
2021-10-14 16:18:34.430860,-74
2021-10-14 16:18:34.430869,-101
2021-10-14 16:18:34.430877,-108
2021-10-14 16:18:34.430885,-91
2021-10-14 16:18:34.611537,-69
2021-10-14 16:18:34.611558,-84
2021-10-14 16:18:34.611567,-113
2021-10-14 16:18:34.611575,-108
2021-10-14 16:18:34.611584,-88
2021-10-14 16:18:34.611592,-86
2021-10-14 16:18:34.611601,-96
2021-10-14 16:18:34.611609,-84
2021-10-14 16:18:34.611617,-72
2021-10-14 16:18:34.611626,-79
2021-10-14 16:18:34.611634,-76
2021-10-14 16:18:34.611643,-55
2021-10-14 16:18:34.611651,-45
2021-10-14 16:18:34.611659,-38
2021-10-14 16:18:34.611668,-36
2021-10-14 16:18:34.611676,-43
2021-10-14 16:18:34.611684,-33
2021-10-14 16:18:34.611693,-19
2021-10-14 16:18:34.611701,-26
2021-10-14 16:18:34.611709,-38
2021-10-14 16:18:34.611718,-50
2021-10-14 16:18:34.611726,-55
2021-10-14 16:18:34.611735,-48
2021-10-14 16:18:34.611743,-52
2021-10-14 16:18:34.611751,-62
2021-10-14 16:18:34.611760,-60
2021-10-14 16:18:34.611768,-60
2021-10-14 16:18:34.611777,-64
2021-10-14 16:18:34.611785,-72
2021-10-14 16:18:34.611793,-86
2021-10-14 16:18:34.880588,-81
2021-10-14 16:18:34.880609,-62
2021-10-14 16:18:34.880619,-67
2021-10-14 16:18:34.880628,-79
2021-10-14 16:18:34.880636,-72
2021-10-14 16:18:34.880644,-69
2021-10-14 16:18:34.880653,-67
2021-10-14 16:18:34.880661,-62
2021-10-14 16:18:34.880670,-72
2021-10-14 16:18:34.880678,-88
2021-10-14 16:18:34.880686,-81
2021-10-14 16:18:34.880695,-72
2021-10-14 16:18:34.880703,-81
2021-10-14 16:18:34.880711,-84
2021-10-14 16:18:34.880720,-79
2021-10-14 16:18:34.880728,-86
2021-10-14 16:18:34.880736,-74
2021-10-14 16:18:34.880744,-43
2021-10-14 16:18:34.880753,-43
2021-10-14 16:18:34.880761,-74
2021-10-14 16:18:34.880770,-96
2021-10-14 16:18:34.880778,-103
2021-10-14 16:18:34.880786,-101
2021-10-14 16:18:34.880795,-93
2021-10-14 16:18:34.880803,-91
2021-10-14 16:18:34.880811,-88
2021-10-14 16:18:34.880819,-86
2021-10-14 16:18:34.880828,-76
2021-10-14 16:18:34.880836,-64
2021-10-14 16:18:34.880844,-55
2021-10-14 16:18:35.061169,-40
2021-10-14 16:18:35.061190,50
2021-10-14 16:18:35.061200,341
2021-10-14 16:18:35.061209,697
2021-10-14 16:18:35.061217,548
2021-10-14 16:18:35.061226,-382
2021-10-14 16:18:35.061234,-1154
2021-10-14 16:18:35.061243,-882
2021-10-14 16:18:35.061252,-329
2021-10-14 16:18:35.061260,-202
2021-10-14 16:18:35.061273,-113
2021-10-14 16:18:35.061282,50
2021-10-14 16:18:35.061290,60
2021-10-14 16:18:35.061299,12
2021-10-14 16:18:35.061307,33
2021-10-14 16:18:35.061315,57
2021-10-14 16:18:35.061324,57
2021-10-14 16:18:35.061332,64
2021-10-14 16:18:35.061341,79
2021-10-14 16:18:35.061349,74
2021-10-14 16:18:35.061357,67
2021-10-14 16:18:35.061366,79
2021-10-14 16:18:35.061374,93
2021-10-14 16:18:35.061382,101
2021-10-14 16:18:35.061391,105
2021-10-14 16:18:35.061399,110
2021-10-14 16:18:35.061408,132
2021-10-14 16:18:35.061416,158
2021-10-14 16:18:35.061424,161
2021-10-14 16:18:35.061433,163
2021-10-14 16:18:35.286473,180
2021-10-14 16:18:35.286492,192
2021-10-14 16:18:35.286502,192
2021-10-14 16:18:35.286510,192
2021-10-14 16:18:35.286519,177
2021-10-14 16:18:35.286527,153
2021-10-14 16:18:35.286536,125
2021-10-14 16:18:35.286544,84
2021-10-14 16:18:35.286552,43
2021-10-14 16:18:35.286561,2
2021-10-14 16:18:35.286569,-38
2021-10-14 16:18:35.286577,-64
2021-10-14 16:18:35.286586,-93
2021-10-14 16:18:35.286594,-120
2021-10-14 16:18:35.286602,-132
2021-10-14 16:18:35.286611,-127
2021-10-14 16:18:35.286619,-129
2021-10-14 16:18:35.286627,-144
2021-10-14 16:18:35.286636,-156
2021-10-14 16:18:35.286644,-156
2021-10-14 16:18:35.286652,-151
2021-10-14 16:18:35.286661,-146
2021-10-14 16:18:35.286669,-134
2021-10-14 16:18:35.286677,-125
2021-10-14 16:18:35.286686,-120
2021-10-14 16:18:35.286699,-110
2021-10-14 16:18:35.286707,-108
2021-10-14 16:18:35.286715,-110
2021-10-14 16:18:35.286724,-103
2021-10-14 16:18:35.286732,-93
2021-10-14 16:18:35.511196,-91
2021-10-14 16:18:35.511217,-81
2021-10-14 16:18:35.511226,-69
2021-10-14 16:18:35.511235,-76
2021-10-14 16:18:35.511243,-84
2021-10-14 16:18:35.511252,-74
2021-10-14 16:18:35.511260,-76
2021-10-14 16:18:35.511268,-84
2021-10-14 16:18:35.511277,-86
2021-10-14 16:18:35.511285,-91
2021-10-14 16:18:35.511293,-96
2021-10-14 16:18:35.511302,-96
2021-10-14 16:18:35.511310,-103
2021-10-14 16:18:35.511318,-98
2021-10-14 16:18:35.511327,-91
2021-10-14 16:18:35.511335,-103
2021-10-14 16:18:35.511343,-113
2021-10-14 16:18:35.511352,-113
2021-10-14 16:18:35.511360,-117
2021-10-14 16:18:35.511368,-115
2021-10-14 16:18:35.511376,-110
2021-10-14 16:18:35.511385,-115
2021-10-14 16:18:35.511393,-110
2021-10-14 16:18:35.511401,-101
2021-10-14 16:18:35.511410,-103
2021-10-14 16:18:35.511418,-103
2021-10-14 16:18:35.511426,-86
2021-10-14 16:18:35.511435,-86
2021-10-14 16:18:35.511443,-86
2021-10-14 16:18:35.511452,-74
2021-10-14 16:18:35.736562,-72
2021-10-14 16:18:35.736583,-88
2021-10-14 16:18:35.736592,-103
2021-10-14 16:18:35.736601,-108
2021-10-14 16:18:35.736609,-108
2021-10-14 16:18:35.736617,-105
2021-10-14 16:18:35.736625,-110
2021-10-14 16:18:35.736634,-108
2021-10-14 16:18:35.736642,-103
2021-10-14 16:18:35.736650,-96
2021-10-14 16:18:35.736659,-88
2021-10-14 16:18:35.736667,-91
2021-10-14 16:18:35.736675,-93
2021-10-14 16:18:35.736684,-50
2021-10-14 16:18:35.736692,132
2021-10-14 16:18:35.736700,521
2021-10-14 16:18:35.736711,750
2021-10-14 16:18:35.736720,165
2021-10-14 16:18:35.736728,-909
2021-10-14 16:18:35.736737,-1212
2021-10-14 16:18:35.736745,-615
2021-10-14 16:18:35.736753,-209
2021-10-14 16:18:35.736762,-170
2021-10-14 16:18:35.736770,-50
2021-10-14 16:18:35.736778,40
2021-10-14 16:18:35.736787,9
2021-10-14 16:18:35.736795,9
2021-10-14 16:18:35.736803,40
2021-10-14 16:18:35.736811,36
2021-10-14 16:18:35.736820,31
2021-10-14 16:18:36.005232,43
2021-10-14 16:18:36.005252,48
2021-10-14 16:18:36.005262,57
2021-10-14 16:18:36.005271,72
2021-10-14 16:18:36.005279,69
2021-10-14 16:18:36.005288,62
2021-10-14 16:18:36.005296,74
2021-10-14 16:18:36.005305,93
2021-10-14 16:18:36.005313,108
2021-10-14 16:18:36.005322,117
2021-10-14 16:18:36.005330,125
2021-10-14 16:18:36.005339,129
2021-10-14 16:18:36.005347,141
2021-10-14 16:18:36.005355,163
2021-10-14 16:18:36.005364,177
2021-10-14 16:18:36.005372,170
2021-10-14 16:18:36.005381,156
2021-10-14 16:18:36.005389,139
2021-10-14 16:18:36.005398,110
2021-10-14 16:18:36.005406,74
2021-10-14 16:18:36.005414,43
2021-10-14 16:18:36.005423,4
2021-10-14 16:18:36.005431,-38
2021-10-14 16:18:36.005440,-52
2021-10-14 16:18:36.005448,-69
2021-10-14 16:18:36.005456,-108
2021-10-14 16:18:36.005465,-132
2021-10-14 16:18:36.005473,-129
2021-10-14 16:18:36.005481,-134
2021-10-14 16:18:36.005489,-129
2021-10-14 16:18:36.276197,-122
2021-10-14 16:18:36.276218,-129
2021-10-14 16:18:36.276228,-139
2021-10-14 16:18:36.276236,-137
2021-10-14 16:18:36.276245,-137
2021-10-14 16:18:36.276253,-141
2021-10-14 16:18:36.276262,-129
2021-10-14 16:18:36.276270,-117
2021-10-14 16:18:36.276278,-117
2021-10-14 16:18:36.276287,-115
2021-10-14 16:18:36.276295,-113
2021-10-14 16:18:36.276303,-105
2021-10-14 16:18:36.276312,-84
2021-10-14 16:18:36.276323,-67
2021-10-14 16:18:36.276331,-69
2021-10-14 16:18:36.276339,-76
2021-10-14 16:18:36.276348,-69
2021-10-14 16:18:36.276356,-57
2021-10-14 16:18:36.276364,-62
2021-10-14 16:18:36.276372,-67
2021-10-14 16:18:36.276381,-67
2021-10-14 16:18:36.276389,-74
2021-10-14 16:18:36.276397,-69
2021-10-14 16:18:36.276405,-52
2021-10-14 16:18:36.276414,-55
2021-10-14 16:18:36.276422,-57
2021-10-14 16:18:36.276431,-50
2021-10-14 16:18:36.276439,-60
2021-10-14 16:18:36.276447,-69
2021-10-14 16:18:36.276456,-72
2021-10-14 16:18:36.501568,-84
2021-10-14 16:18:36.501589,-86
2021-10-14 16:18:36.501598,-76
2021-10-14 16:18:36.501607,-79
2021-10-14 16:18:36.501615,-86
2021-10-14 16:18:36.501624,-84
2021-10-14 16:18:36.501632,-76
2021-10-14 16:18:36.501641,-81
2021-10-14 16:18:36.501649,-91
2021-10-14 16:18:36.501657,-108
2021-10-14 16:18:36.501666,-117
2021-10-14 16:18:36.501675,-103
2021-10-14 16:18:36.501683,-88
2021-10-14 16:18:36.501691,-86
2021-10-14 16:18:36.501700,-72
2021-10-14 16:18:36.501708,-50
2021-10-14 16:18:36.501717,-43
2021-10-14 16:18:36.501725,-43
2021-10-14 16:18:36.501734,-48
2021-10-14 16:18:36.501742,-72
2021-10-14 16:18:36.501750,-88
2021-10-14 16:18:36.501759,-91
2021-10-14 16:18:36.501767,-84
2021-10-14 16:18:36.501775,-76
2021-10-14 16:18:36.501784,-76
2021-10-14 16:18:36.501792,-74
2021-10-14 16:18:36.501801,-69
2021-10-14 16:18:36.501809,-67
2021-10-14 16:18:36.501817,-57
2021-10-14 16:18:36.501826,-45
2021-10-14 16:18:36.726493,-16
2021-10-14 16:18:36.726512,103
2021-10-14 16:18:36.726521,428
2021-10-14 16:18:36.726529,755
2021-10-14 16:18:36.726538,471
2021-10-14 16:18:36.726546,-538
2021-10-14 16:18:36.726554,-1190
2021-10-14 16:18:36.726563,-779
2021-10-14 16:18:36.726571,-233
2021-10-14 16:18:36.726579,-151
2021-10-14 16:18:36.726588,-67
2021-10-14 16:18:36.726596,69
2021-10-14 16:18:36.726605,57
2021-10-14 16:18:36.726613,38
2021-10-14 16:18:36.726621,74
2021-10-14 16:18:36.726629,74
2021-10-14 16:18:36.726638,64
2021-10-14 16:18:36.726649,79
2021-10-14 16:18:36.726658,88
2021-10-14 16:18:36.726666,93
2021-10-14 16:18:36.726674,96
2021-10-14 16:18:36.726683,101
2021-10-14 16:18:36.726691,115
2021-10-14 16:18:36.726700,129
2021-10-14 16:18:36.726708,134
2021-10-14 16:18:36.726716,144
2021-10-14 16:18:36.726725,156
2021-10-14 16:18:36.726733,175
2021-10-14 16:18:36.726741,197
2021-10-14 16:18:36.726750,214
2021-10-14 16:18:36.906060,223
2021-10-14 16:18:36.906078,226
2021-10-14 16:18:36.906088,221
2021-10-14 16:18:36.906096,214
2021-10-14 16:18:36.906105,204
2021-10-14 16:18:36.906113,185
2021-10-14 16:18:36.906122,149
2021-10-14 16:18:36.906130,105
2021-10-14 16:18:36.906138,67
2021-10-14 16:18:36.906147,26
2021-10-14 16:18:36.906155,-9
2021-10-14 16:18:36.906163,-36
2021-10-14 16:18:36.906172,-55
2021-10-14 16:18:36.906180,-79
2021-10-14 16:18:36.906188,-105
2021-10-14 16:18:36.906197,-98
2021-10-14 16:18:36.906205,-81
2021-10-14 16:18:36.906214,-96
2021-10-14 16:18:36.906222,-110
2021-10-14 16:18:36.906230,-103
2021-10-14 16:18:36.906238,-101
2021-10-14 16:18:36.906247,-101
2021-10-14 16:18:36.906255,-88
2021-10-14 16:18:36.906263,-67
2021-10-14 16:18:36.906271,-62
2021-10-14 16:18:36.906280,-64
2021-10-14 16:18:36.906288,-64
2021-10-14 16:18:36.906296,-55
2021-10-14 16:18:36.906304,-45
2021-10-14 16:18:36.906313,-33
2021-10-14 16:18:37.221621,-26
2021-10-14 16:18:37.221642,-19
2021-10-14 16:18:37.221652,-14
2021-10-14 16:18:37.221660,-19
2021-10-14 16:18:37.221668,-19
2021-10-14 16:18:37.221677,-9
2021-10-14 16:18:37.221685,-2
2021-10-14 16:18:37.221694,-14
2021-10-14 16:18:37.221702,-21
2021-10-14 16:18:37.221710,-19
2021-10-14 16:18:37.221719,-21
2021-10-14 16:18:37.221727,-31
2021-10-14 16:18:37.221735,-43
2021-10-14 16:18:37.221744,-48
2021-10-14 16:18:37.221752,-40
2021-10-14 16:18:37.221761,-33
2021-10-14 16:18:37.221769,-33
2021-10-14 16:18:37.221777,-36
2021-10-14 16:18:37.221786,-40
2021-10-14 16:18:37.221794,-43
2021-10-14 16:18:37.221802,-40
2021-10-14 16:18:37.221811,-40
2021-10-14 16:18:37.221819,-50
2021-10-14 16:18:37.221827,-52
2021-10-14 16:18:37.221836,-43
2021-10-14 16:18:37.221844,-43
2021-10-14 16:18:37.221852,-50
2021-10-14 16:18:37.221861,-40
2021-10-14 16:18:37.221869,-24
2021-10-14 16:18:37.221882,-19
2021-10-14 16:18:37.400631,-16
2021-10-14 16:18:37.400651,-9
2021-10-14 16:18:37.400661,-12
2021-10-14 16:18:37.400669,-33
2021-10-14 16:18:37.400678,-48
2021-10-14 16:18:37.400686,-36
2021-10-14 16:18:37.400695,-40
2021-10-14 16:18:37.400703,-60
2021-10-14 16:18:37.400712,-55
2021-10-14 16:18:37.400720,-38
2021-10-14 16:18:37.400728,-45
2021-10-14 16:18:37.400737,-57
2021-10-14 16:18:37.400745,-52
2021-10-14 16:18:37.400753,-38
2021-10-14 16:18:37.400762,-19
2021-10-14 16:18:37.400770,50
2021-10-14 16:18:37.400779,295
2021-10-14 16:18:37.400787,685
2021-10-14 16:18:37.400795,687
2021-10-14 16:18:37.400804,-165
2021-10-14 16:18:37.400812,-1125
2021-10-14 16:18:37.400821,-1046
2021-10-14 16:18:37.400829,-399
2021-10-14 16:18:37.400837,-151
2021-10-14 16:18:37.400845,-105
2021-10-14 16:18:37.400854,38
2021-10-14 16:18:37.400862,88
2021-10-14 16:18:37.400870,57
2021-10-14 16:18:37.400879,88
2021-10-14 16:18:37.400887,110
2021-10-14 16:18:37.581378,91
2021-10-14 16:18:37.581400,96
2021-10-14 16:18:37.581409,113
2021-10-14 16:18:37.581418,110
2021-10-14 16:18:37.581426,108
2021-10-14 16:18:37.581434,120
2021-10-14 16:18:37.581443,125
2021-10-14 16:18:37.581451,129
2021-10-14 16:18:37.581460,141
2021-10-14 16:18:37.581468,161
2021-10-14 16:18:37.581476,180
2021-10-14 16:18:37.581484,189
2021-10-14 16:18:37.581493,192
2021-10-14 16:18:37.581501,202
2021-10-14 16:18:37.581509,211
2021-10-14 16:18:37.581518,214
2021-10-14 16:18:37.581526,218
2021-10-14 16:18:37.581534,218
2021-10-14 16:18:37.581542,204
2021-10-14 16:18:37.581551,182
2021-10-14 16:18:37.581559,153
2021-10-14 16:18:37.581568,120
2021-10-14 16:18:37.581576,81
2021-10-14 16:18:37.581584,40
2021-10-14 16:18:37.581592,4
2021-10-14 16:18:37.581601,-19
2021-10-14 16:18:37.581609,-48
2021-10-14 16:18:37.581617,-79
2021-10-14 16:18:37.581626,-91
2021-10-14 16:18:37.581634,-101
2021-10-14 16:18:37.806489,-101
2021-10-14 16:18:37.806508,-93
2021-10-14 16:18:37.806517,-96
2021-10-14 16:18:37.806526,-110
2021-10-14 16:18:37.806534,-115
2021-10-14 16:18:37.806543,-110
2021-10-14 16:18:37.806551,-96
2021-10-14 16:18:37.806559,-86
2021-10-14 16:18:37.806568,-91
2021-10-14 16:18:37.806576,-93
2021-10-14 16:18:37.806584,-76
2021-10-14 16:18:37.806593,-69
2021-10-14 16:18:37.806601,-64
2021-10-14 16:18:37.806609,-50
2021-10-14 16:18:37.806618,-43
2021-10-14 16:18:37.806626,-52
2021-10-14 16:18:37.806634,-57
2021-10-14 16:18:37.806643,-55
2021-10-14 16:18:37.806651,-57
2021-10-14 16:18:37.806660,-55
2021-10-14 16:18:37.806671,-52
2021-10-14 16:18:37.806679,-52
2021-10-14 16:18:37.806688,-48
2021-10-14 16:18:37.806696,-45
2021-10-14 16:18:37.806705,-50
2021-10-14 16:18:37.806713,-55
2021-10-14 16:18:37.806721,-55
2021-10-14 16:18:37.806730,-55
2021-10-14 16:18:37.806738,-50
2021-10-14 16:18:37.806747,-45
2021-10-14 16:18:38.074876,-45
2021-10-14 16:18:38.074898,-43
2021-10-14 16:18:38.074907,-43
2021-10-14 16:18:38.074916,-48
2021-10-14 16:18:38.074925,-64
2021-10-14 16:18:38.074933,-79
2021-10-14 16:18:38.074941,-69
2021-10-14 16:18:38.074950,-60
2021-10-14 16:18:38.074958,-64
2021-10-14 16:18:38.074966,-76
2021-10-14 16:18:38.074975,-81
2021-10-14 16:18:38.074983,-76
2021-10-14 16:18:38.074992,-67
2021-10-14 16:18:38.075000,-72
2021-10-14 16:18:38.075008,-72
2021-10-14 16:18:38.075016,-67
2021-10-14 16:18:38.075025,-64
2021-10-14 16:18:38.075033,-62
2021-10-14 16:18:38.075042,-52
2021-10-14 16:18:38.075050,-48
2021-10-14 16:18:38.075058,-45
2021-10-14 16:18:38.075067,-33
2021-10-14 16:18:38.075075,-36
2021-10-14 16:18:38.075083,-67
2021-10-14 16:18:38.075091,-79
2021-10-14 16:18:38.075100,-60
2021-10-14 16:18:38.075108,-52
2021-10-14 16:18:38.075117,-57
2021-10-14 16:18:38.075125,-52
2021-10-14 16:18:38.075133,-50
2021-10-14 16:18:38.346156,-57
2021-10-14 16:18:38.346175,-50
2021-10-14 16:18:38.346184,-36
2021-10-14 16:18:38.346193,-40
2021-10-14 16:18:38.346201,-36
2021-10-14 16:18:38.346209,64
2021-10-14 16:18:38.346218,360
2021-10-14 16:18:38.346226,747
2021-10-14 16:18:38.346235,658
2021-10-14 16:18:38.346243,-288
2021-10-14 16:18:38.346252,-1183
2021-10-14 16:18:38.346260,-959
2021-10-14 16:18:38.346268,-303
2021-10-14 16:18:38.346277,-127
2021-10-14 16:18:38.346285,-88
2021-10-14 16:18:38.346293,52
2021-10-14 16:18:38.346301,79
2021-10-14 16:18:38.346310,50
2021-10-14 16:18:38.346318,86
2021-10-14 16:18:38.346326,103
2021-10-14 16:18:38.346334,81
2021-10-14 16:18:38.346343,76
2021-10-14 16:18:38.346351,79
2021-10-14 16:18:38.346359,74
2021-10-14 16:18:38.346368,79
2021-10-14 16:18:38.346376,96
2021-10-14 16:18:38.346384,103
2021-10-14 16:18:38.346392,101
2021-10-14 16:18:38.346401,113
2021-10-14 16:18:38.346409,139
2021-10-14 16:18:38.526513,156
2021-10-14 16:18:38.526532,168
2021-10-14 16:18:38.526541,173
2021-10-14 16:18:38.526550,182
2021-10-14 16:18:38.526558,199
2021-10-14 16:18:38.526567,214
2021-10-14 16:18:38.526575,214
2021-10-14 16:18:38.526584,202
2021-10-14 16:18:38.526592,185
2021-10-14 16:18:38.526600,165
2021-10-14 16:18:38.526609,149
2021-10-14 16:18:38.526617,122
2021-10-14 16:18:38.526626,84
2021-10-14 16:18:38.526634,45
2021-10-14 16:18:38.526642,7
2021-10-14 16:18:38.526651,-36
2021-10-14 16:18:38.526659,-60
2021-10-14 16:18:38.526667,-74
2021-10-14 16:18:38.526676,-88
2021-10-14 16:18:38.526684,-88
2021-10-14 16:18:38.526692,-93
2021-10-14 16:18:38.526701,-110
2021-10-14 16:18:38.526712,-113
2021-10-14 16:18:38.526720,-113
2021-10-14 16:18:38.526729,-108
2021-10-14 16:18:38.526737,-96
2021-10-14 16:18:38.526746,-88
2021-10-14 16:18:38.526754,-91
2021-10-14 16:18:38.526762,-86
2021-10-14 16:18:38.526771,-76
2021-10-14 16:18:38.796503,-69
2021-10-14 16:18:38.796522,-64
2021-10-14 16:18:38.796531,-55
2021-10-14 16:18:38.796540,-45
2021-10-14 16:18:38.796548,-40
2021-10-14 16:18:38.796556,-31
2021-10-14 16:18:38.796565,-24
2021-10-14 16:18:38.796573,-24
2021-10-14 16:18:38.796581,-33
2021-10-14 16:18:38.796590,-33
2021-10-14 16:18:38.796598,-21
2021-10-14 16:18:38.796607,-12
2021-10-14 16:18:38.796615,-21
2021-10-14 16:18:38.796624,-33
2021-10-14 16:18:38.796632,-38
2021-10-14 16:18:38.796640,-36
2021-10-14 16:18:38.796648,-33
2021-10-14 16:18:38.796657,-36
2021-10-14 16:18:38.796665,-38
2021-10-14 16:18:38.796673,-45
2021-10-14 16:18:38.796681,-48
2021-10-14 16:18:38.796689,-38
2021-10-14 16:18:38.796698,-38
2021-10-14 16:18:38.796706,-48
2021-10-14 16:18:38.796714,-48
2021-10-14 16:18:38.796723,-48
2021-10-14 16:18:38.796731,-67
2021-10-14 16:18:38.796739,-74
2021-10-14 16:18:38.796748,-67
2021-10-14 16:18:38.796756,-69
2021-10-14 16:18:38.976600,-74
2021-10-14 16:18:38.976620,-64
2021-10-14 16:18:38.976629,-62
2021-10-14 16:18:38.976638,-62
2021-10-14 16:18:38.976647,-60
2021-10-14 16:18:38.976655,-55
2021-10-14 16:18:38.976663,-55
2021-10-14 16:18:38.976672,-62
2021-10-14 16:18:38.976680,-64
2021-10-14 16:18:38.976688,-55
2021-10-14 16:18:38.976696,-48
2021-10-14 16:18:38.976704,-31
2021-10-14 16:18:38.976713,-12
2021-10-14 16:18:38.976721,-21
2021-10-14 16:18:38.976729,-50
2021-10-14 16:18:38.976737,-67
2021-10-14 16:18:38.976746,-62
2021-10-14 16:18:38.976754,-50
2021-10-14 16:18:38.976762,-48
2021-10-14 16:18:38.976770,-55
2021-10-14 16:18:38.976779,-60
2021-10-14 16:18:38.976787,-60
2021-10-14 16:18:38.976795,-50
2021-10-14 16:18:38.976803,-31
2021-10-14 16:18:38.976812,-19
2021-10-14 16:18:38.976820,-14
2021-10-14 16:18:38.976828,38
2021-10-14 16:18:38.976837,257
2021-10-14 16:18:38.976845,637
2021-10-14 16:18:38.976853,719
2021-10-14 16:18:39.201536,-12
2021-10-14 16:18:39.201556,-1017
2021-10-14 16:18:39.201565,-1094
2021-10-14 16:18:39.201574,-408
2021-10-14 16:18:39.201582,-74
2021-10-14 16:18:39.201590,-76
2021-10-14 16:18:39.201599,28
2021-10-14 16:18:39.201608,86
2021-10-14 16:18:39.201616,45
2021-10-14 16:18:39.201625,69
2021-10-14 16:18:39.201633,113
2021-10-14 16:18:39.201642,98
2021-10-14 16:18:39.201650,91
2021-10-14 16:18:39.201659,101
2021-10-14 16:18:39.201667,103
2021-10-14 16:18:39.201676,103
2021-10-14 16:18:39.201684,108
2021-10-14 16:18:39.201693,113
2021-10-14 16:18:39.201701,125
2021-10-14 16:18:39.201709,134
2021-10-14 16:18:39.201717,144
2021-10-14 16:18:39.201726,158
2021-10-14 16:18:39.201734,170
2021-10-14 16:18:39.201742,185
2021-10-14 16:18:39.201751,202
2021-10-14 16:18:39.201759,218
2021-10-14 16:18:39.201767,221
2021-10-14 16:18:39.201775,218
2021-10-14 16:18:39.201784,214
2021-10-14 16:18:39.201792,202
2021-10-14 16:18:39.470585,185
2021-10-14 16:18:39.470605,161
2021-10-14 16:18:39.470614,132
2021-10-14 16:18:39.470623,93
2021-10-14 16:18:39.470631,38
2021-10-14 16:18:39.470642,-9
2021-10-14 16:18:39.470651,-43
2021-10-14 16:18:39.470659,-72
2021-10-14 16:18:39.470668,-86
2021-10-14 16:18:39.470676,-88
2021-10-14 16:18:39.470684,-98
2021-10-14 16:18:39.470693,-113
2021-10-14 16:18:39.470701,-127
2021-10-14 16:18:39.470710,-129
2021-10-14 16:18:39.470718,-125
2021-10-14 16:18:39.470726,-117
2021-10-14 16:18:39.470735,-108
2021-10-14 16:18:39.470743,-98
2021-10-14 16:18:39.470751,-91
2021-10-14 16:18:39.470759,-84
2021-10-14 16:18:39.470768,-84
2021-10-14 16:18:39.470776,-84
2021-10-14 16:18:39.470784,-67
2021-10-14 16:18:39.470792,-55
2021-10-14 16:18:39.470800,-50
2021-10-14 16:18:39.470809,-33
2021-10-14 16:18:39.470817,-21
2021-10-14 16:18:39.470825,-21
2021-10-14 16:18:39.470833,-28
2021-10-14 16:18:39.470842,-38
2021-10-14 16:18:39.696518,-43
2021-10-14 16:18:39.696537,-40
2021-10-14 16:18:39.696546,-38
2021-10-14 16:18:39.696555,-48
2021-10-14 16:18:39.696563,-57
2021-10-14 16:18:39.696572,-60
2021-10-14 16:18:39.696580,-57
2021-10-14 16:18:39.696589,-52
2021-10-14 16:18:39.696597,-57
2021-10-14 16:18:39.696605,-62
2021-10-14 16:18:39.696614,-67
2021-10-14 16:18:39.696622,-79
2021-10-14 16:18:39.696630,-81
2021-10-14 16:18:39.696638,-67
2021-10-14 16:18:39.696646,-62
2021-10-14 16:18:39.696655,-74
2021-10-14 16:18:39.696663,-72
2021-10-14 16:18:39.696671,-57
2021-10-14 16:18:39.696680,-50
2021-10-14 16:18:39.696688,-48
2021-10-14 16:18:39.696696,-45
2021-10-14 16:18:39.696705,-43
2021-10-14 16:18:39.696713,-48
2021-10-14 16:18:39.696721,-55
2021-10-14 16:18:39.696729,-50
2021-10-14 16:18:39.696738,-38
2021-10-14 16:18:39.696746,-33
2021-10-14 16:18:39.696754,-36
2021-10-14 16:18:39.696762,-36
2021-10-14 16:18:39.696771,-26
2021-10-14 16:18:39.921446,-19
2021-10-14 16:18:39.921464,-19
2021-10-14 16:18:39.921473,-16
2021-10-14 16:18:39.921482,-14
2021-10-14 16:18:39.921490,-12
2021-10-14 16:18:39.921499,0
2021-10-14 16:18:39.921507,7
2021-10-14 16:18:39.921516,-12
2021-10-14 16:18:39.921524,-36
2021-10-14 16:18:39.921532,-40
2021-10-14 16:18:39.921541,-45
2021-10-14 16:18:39.921549,-50
2021-10-14 16:18:39.921558,-40
2021-10-14 16:18:39.921566,-33
2021-10-14 16:18:39.921575,-38
2021-10-14 16:18:39.921583,-38
2021-10-14 16:18:39.921591,-36
2021-10-14 16:18:39.921600,-28
2021-10-14 16:18:39.921608,-7
2021-10-14 16:18:39.921616,48
2021-10-14 16:18:39.921624,228
2021-10-14 16:18:39.921633,586
2021-10-14 16:18:39.921641,767
2021-10-14 16:18:39.921649,185
2021-10-14 16:18:39.921658,-812
2021-10-14 16:18:39.921666,-1050
2021-10-14 16:18:39.921674,-512
2021-10-14 16:18:39.921682,-168
2021-10-14 16:18:39.921691,-101
2021-10-14 16:18:39.921699,50
2021-10-14 16:18:40.235274,137
2021-10-14 16:18:40.235295,98
2021-10-14 16:18:40.235304,105
2021-10-14 16:18:40.235313,139
2021-10-14 16:18:40.235321,129
2021-10-14 16:18:40.235330,127
2021-10-14 16:18:40.235338,146
2021-10-14 16:18:40.235346,158
2021-10-14 16:18:40.235354,156
2021-10-14 16:18:40.235363,151
2021-10-14 16:18:40.235371,153
2021-10-14 16:18:40.235379,173
2021-10-14 16:18:40.235388,187
2021-10-14 16:18:40.235396,199
2021-10-14 16:18:40.235404,211
2021-10-14 16:18:40.235412,221
2021-10-14 16:18:40.235421,233
2021-10-14 16:18:40.235429,250
2021-10-14 16:18:40.235437,264
2021-10-14 16:18:40.235445,276
2021-10-14 16:18:40.235454,288
2021-10-14 16:18:40.235462,286
2021-10-14 16:18:40.235470,281
2021-10-14 16:18:40.235479,271
2021-10-14 16:18:40.235487,252
2021-10-14 16:18:40.235495,226
2021-10-14 16:18:40.235503,192
2021-10-14 16:18:40.235512,146
2021-10-14 16:18:40.235520,110
2021-10-14 16:18:40.235528,86
2021-10-14 16:18:40.549987,57
2021-10-14 16:18:40.550009,28
2021-10-14 16:18:40.550019,9
2021-10-14 16:18:40.550028,4
2021-10-14 16:18:40.550036,4
2021-10-14 16:18:40.550045,4
2021-10-14 16:18:40.550053,-2
2021-10-14 16:18:40.550062,-9
2021-10-14 16:18:40.550070,-4
2021-10-14 16:18:40.550078,-7
2021-10-14 16:18:40.550087,-7
2021-10-14 16:18:40.550095,9
2021-10-14 16:18:40.550103,31
2021-10-14 16:18:40.550112,36
2021-10-14 16:18:40.550120,36
2021-10-14 16:18:40.550128,48
2021-10-14 16:18:40.550136,45
2021-10-14 16:18:40.550145,36
2021-10-14 16:18:40.550153,48
2021-10-14 16:18:40.550161,67
2021-10-14 16:18:40.550169,64
2021-10-14 16:18:40.550178,45
2021-10-14 16:18:40.550186,43
2021-10-14 16:18:40.550194,60
2021-10-14 16:18:40.550203,72
2021-10-14 16:18:40.550211,62
2021-10-14 16:18:40.550219,48
2021-10-14 16:18:40.550227,43
2021-10-14 16:18:40.550235,50
2021-10-14 16:18:40.550244,60
2021-10-14 16:18:40.685534,60
2021-10-14 16:18:40.685551,60
2021-10-14 16:18:40.685561,67
2021-10-14 16:18:40.685569,72
2021-10-14 16:18:40.685578,67
2021-10-14 16:18:40.685586,62
2021-10-14 16:18:40.685594,72
2021-10-14 16:18:40.685603,91
2021-10-14 16:18:40.685611,91
2021-10-14 16:18:40.685620,74
2021-10-14 16:18:40.685628,72
2021-10-14 16:18:40.685636,93
2021-10-14 16:18:40.685645,108
2021-10-14 16:18:40.685653,98
2021-10-14 16:18:40.685661,84
2021-10-14 16:18:40.685670,84
2021-10-14 16:18:40.685678,96
2021-10-14 16:18:40.685686,110
2021-10-14 16:18:40.685695,125
2021-10-14 16:18:40.685703,134
2021-10-14 16:18:40.685711,134
2021-10-14 16:18:40.685719,144
2021-10-14 16:18:40.685728,149
2021-10-14 16:18:40.685736,120
2021-10-14 16:18:40.685744,103
2021-10-14 16:18:40.685753,115
2021-10-14 16:18:40.685761,115
2021-10-14 16:18:40.685769,110
2021-10-14 16:18:40.685777,120
2021-10-14 16:18:40.685786,132
2021-10-14 16:18:40.866547,129
2021-10-14 16:18:40.866566,122
2021-10-14 16:18:40.866575,129
2021-10-14 16:18:40.866584,146
2021-10-14 16:18:40.866593,161
2021-10-14 16:18:40.866601,240
2021-10-14 16:18:40.866609,519
2021-10-14 16:18:40.866618,896
2021-10-14 16:18:40.866626,803
2021-10-14 16:18:40.866635,-120
2021-10-14 16:18:40.866643,-997
2021-10-14 16:18:40.866652,-812
2021-10-14 16:18:40.866660,-204
2021-10-14 16:18:40.866668,-16
2021-10-14 16:18:40.866677,55
2021-10-14 16:18:40.866685,214
2021-10-14 16:18:40.866694,245
2021-10-14 16:18:40.866702,216
2021-10-14 16:18:40.866710,242
2021-10-14 16:18:40.866719,242
2021-10-14 16:18:40.866727,223
2021-10-14 16:18:40.866736,233
2021-10-14 16:18:40.866744,233
2021-10-14 16:18:40.866752,228
2021-10-14 16:18:40.866760,242
2021-10-14 16:18:40.866768,245
2021-10-14 16:18:40.866777,235
2021-10-14 16:18:40.866785,242
2021-10-14 16:18:40.866793,257
2021-10-14 16:18:40.866802,269
2021-10-14 16:18:41.091654,281
2021-10-14 16:18:41.091676,286
2021-10-14 16:18:41.091687,295
2021-10-14 16:18:41.091697,317
2021-10-14 16:18:41.091707,331
2021-10-14 16:18:41.091716,331
2021-10-14 16:18:41.091725,319
2021-10-14 16:18:41.091734,305
2021-10-14 16:18:41.091743,288
2021-10-14 16:18:41.091753,269
2021-10-14 16:18:41.091762,252
2021-10-14 16:18:41.091771,223
2021-10-14 16:18:41.091780,165
2021-10-14 16:18:41.091789,113
2021-10-14 16:18:41.091798,81
2021-10-14 16:18:41.091807,55
2021-10-14 16:18:41.091816,24
2021-10-14 16:18:41.091825,0
2021-10-14 16:18:41.091835,-24
2021-10-14 16:18:41.091844,-40
2021-10-14 16:18:41.091852,-40
2021-10-14 16:18:41.091862,-36
2021-10-14 16:18:41.091871,-38
2021-10-14 16:18:41.091880,-36
2021-10-14 16:18:41.091889,-33
2021-10-14 16:18:41.091898,-33
2021-10-14 16:18:41.091907,-24
2021-10-14 16:18:41.091915,-12
2021-10-14 16:18:41.091924,-16
2021-10-14 16:18:41.091934,-19
2021-10-14 16:18:41.271207,-7
2021-10-14 16:18:41.271227,2
2021-10-14 16:18:41.271237,-2
2021-10-14 16:18:41.271245,-12
2021-10-14 16:18:41.271254,-2
2021-10-14 16:18:41.271262,9
2021-10-14 16:18:41.271270,7
2021-10-14 16:18:41.271279,2
2021-10-14 16:18:41.271287,0
2021-10-14 16:18:41.271296,-12
2021-10-14 16:18:41.271304,-31
2021-10-14 16:18:41.271315,-38
2021-10-14 16:18:41.271324,-40
2021-10-14 16:18:41.271332,-45
2021-10-14 16:18:41.271341,-48
2021-10-14 16:18:41.271349,-52
2021-10-14 16:18:41.271357,-52
2021-10-14 16:18:41.271365,-55
2021-10-14 16:18:41.271374,-60
2021-10-14 16:18:41.271382,-60
2021-10-14 16:18:41.271390,-52
2021-10-14 16:18:41.271399,-45
2021-10-14 16:18:41.271407,-48
2021-10-14 16:18:41.271415,-52
2021-10-14 16:18:41.271424,-52
2021-10-14 16:18:41.271432,-45
2021-10-14 16:18:41.271440,-55
2021-10-14 16:18:41.271449,-72
2021-10-14 16:18:41.271457,-72
2021-10-14 16:18:41.271465,-62
2021-10-14 16:18:41.630603,-57
2021-10-14 16:18:41.630623,-55
2021-10-14 16:18:41.630633,-52
2021-10-14 16:18:41.630641,-50
2021-10-14 16:18:41.630650,-40
2021-10-14 16:18:41.630658,-38
2021-10-14 16:18:41.630666,-31
2021-10-14 16:18:41.630674,-12
2021-10-14 16:18:41.630683,-2
2021-10-14 16:18:41.630691,-14
2021-10-14 16:18:41.630699,-33
2021-10-14 16:18:41.630708,-62
2021-10-14 16:18:41.630716,-72
2021-10-14 16:18:41.630724,-57
2021-10-14 16:18:41.630732,-50
2021-10-14 16:18:41.630741,-45
2021-10-14 16:18:41.630749,-40
2021-10-14 16:18:41.630757,-40
2021-10-14 16:18:41.630766,-43
2021-10-14 16:18:41.630774,-38
2021-10-14 16:18:41.630782,-28
2021-10-14 16:18:41.630791,-21
2021-10-14 16:18:41.630799,9
2021-10-14 16:18:41.630807,153
2021-10-14 16:18:41.630816,507
2021-10-14 16:18:41.630824,786
2021-10-14 16:18:41.630832,351
2021-10-14 16:18:41.630840,-709
2021-10-14 16:18:41.630849,-1197
2021-10-14 16:18:41.630857,-675
2021-10-14 16:18:41.721519,-182
2021-10-14 16:18:41.721537,-117
2021-10-14 16:18:41.721547,-14
2021-10-14 16:18:41.721555,93
2021-10-14 16:18:41.721564,60
2021-10-14 16:18:41.721572,40
2021-10-14 16:18:41.721581,79
2021-10-14 16:18:41.721589,84
2021-10-14 16:18:41.721597,76
2021-10-14 16:18:41.721606,84
2021-10-14 16:18:41.721615,81
2021-10-14 16:18:41.721623,81
2021-10-14 16:18:41.721631,93
2021-10-14 16:18:41.721640,101
2021-10-14 16:18:41.721648,105
2021-10-14 16:18:41.721656,110
2021-10-14 16:18:41.721665,113
2021-10-14 16:18:41.721673,122
2021-10-14 16:18:41.721681,139
2021-10-14 16:18:41.721689,151
2021-10-14 16:18:41.721698,158
2021-10-14 16:18:41.721706,165
2021-10-14 16:18:41.721714,177
2021-10-14 16:18:41.721723,177
2021-10-14 16:18:41.721731,175
2021-10-14 16:18:41.721740,177
2021-10-14 16:18:41.721748,163
2021-10-14 16:18:41.721757,127
2021-10-14 16:18:41.721765,96
2021-10-14 16:18:41.721773,74
2021-10-14 16:18:41.946128,43
2021-10-14 16:18:41.946146,-2
2021-10-14 16:18:41.946156,-45
2021-10-14 16:18:41.946164,-86
2021-10-14 16:18:41.946173,-127
2021-10-14 16:18:41.946181,-144
2021-10-14 16:18:41.946190,-149
2021-10-14 16:18:41.946198,-153
2021-10-14 16:18:41.946206,-153
2021-10-14 16:18:41.946215,-163
2021-10-14 16:18:41.946223,-168
2021-10-14 16:18:41.946231,-161
2021-10-14 16:18:41.946239,-158
2021-10-14 16:18:41.946248,-161
2021-10-14 16:18:41.946256,-153
2021-10-14 16:18:41.946264,-149
2021-10-14 16:18:41.946273,-141
2021-10-14 16:18:41.946281,-125
2021-10-14 16:18:41.946289,-115
2021-10-14 16:18:41.946297,-110
2021-10-14 16:18:41.946306,-108
2021-10-14 16:18:41.946314,-113
2021-10-14 16:18:41.946322,-122
2021-10-14 16:18:41.946330,-108
2021-10-14 16:18:41.946338,-93
2021-10-14 16:18:41.946347,-93
2021-10-14 16:18:41.946355,-93
2021-10-14 16:18:41.946363,-93
2021-10-14 16:18:41.946372,-96
2021-10-14 16:18:41.946380,-98
2021-10-14 16:18:42.305300,-105
2021-10-14 16:18:42.305320,-113
2021-10-14 16:18:42.305329,-117
2021-10-14 16:18:42.305338,-120
2021-10-14 16:18:42.305346,-120
2021-10-14 16:18:42.305354,-115
2021-10-14 16:18:42.305363,-120
2021-10-14 16:18:42.305371,-120
2021-10-14 16:18:42.305379,-120
2021-10-14 16:18:42.305388,-129
2021-10-14 16:18:42.305396,-132
2021-10-14 16:18:42.305404,-120
2021-10-14 16:18:42.305413,-108
2021-10-14 16:18:42.305421,-103
2021-10-14 16:18:42.305429,-101
2021-10-14 16:18:42.305438,-101
2021-10-14 16:18:42.305446,-105
2021-10-14 16:18:42.305454,-103
2021-10-14 16:18:42.305463,-93
2021-10-14 16:18:42.305471,-86
2021-10-14 16:18:42.305479,-96
2021-10-14 16:18:42.305488,-101
2021-10-14 16:18:42.305496,-86
2021-10-14 16:18:42.305504,-76
2021-10-14 16:18:42.305513,-79
2021-10-14 16:18:42.305521,-69
2021-10-14 16:18:42.305529,-72
2021-10-14 16:18:42.305537,-79
2021-10-14 16:18:42.305546,-55
2021-10-14 16:18:42.305554,-36
2021-10-14 16:18:42.530571,-57
2021-10-14 16:18:42.530590,-74
2021-10-14 16:18:42.530600,-76
2021-10-14 16:18:42.530608,-84
2021-10-14 16:18:42.530616,-86
2021-10-14 16:18:42.530625,-81
2021-10-14 16:18:42.530633,-69
2021-10-14 16:18:42.530641,-57
2021-10-14 16:18:42.530653,-52
2021-10-14 16:18:42.530661,-67
2021-10-14 16:18:42.530669,-76
2021-10-14 16:18:42.530678,-57
2021-10-14 16:18:42.530686,14
2021-10-14 16:18:42.530694,226
2021-10-14 16:18:42.530703,596
2021-10-14 16:18:42.530711,694
2021-10-14 16:18:42.530719,-12
2021-10-14 16:18:42.530727,-997
2021-10-14 16:18:42.530735,-1082
2021-10-14 16:18:42.530744,-468
2021-10-14 16:18:42.530752,-175
2021-10-14 16:18:42.530760,-141
2021-10-14 16:18:42.530768,-7
2021-10-14 16:18:42.530777,57
2021-10-14 16:18:42.530785,19
2021-10-14 16:18:42.530793,26
2021-10-14 16:18:42.530801,43
2021-10-14 16:18:42.530809,38
2021-10-14 16:18:42.530817,52
2021-10-14 16:18:42.530825,72
2021-10-14 16:18:42.666215,74
2021-10-14 16:18:42.666234,74
2021-10-14 16:18:42.666244,76
2021-10-14 16:18:42.666253,84
2021-10-14 16:18:42.666261,101
2021-10-14 16:18:42.666270,113
2021-10-14 16:18:42.666278,127
2021-10-14 16:18:42.666286,134
2021-10-14 16:18:42.666295,137
2021-10-14 16:18:42.666303,153
2021-10-14 16:18:42.666311,170
2021-10-14 16:18:42.666320,175
2021-10-14 16:18:42.666328,182
2021-10-14 16:18:42.666336,197
2021-10-14 16:18:42.666345,197
2021-10-14 16:18:42.666353,182
2021-10-14 16:18:42.666361,173
2021-10-14 16:18:42.666370,158
2021-10-14 16:18:42.666378,127
2021-10-14 16:18:42.666386,84
2021-10-14 16:18:42.666394,40
2021-10-14 16:18:42.666403,9
2021-10-14 16:18:42.666411,-33
2021-10-14 16:18:42.666419,-74
2021-10-14 16:18:42.666427,-88
2021-10-14 16:18:42.666435,-103
2021-10-14 16:18:42.666444,-120
2021-10-14 16:18:42.666452,-132
2021-10-14 16:18:42.666460,-134
2021-10-14 16:18:42.666469,-125
2021-10-14 16:18:42.936583,-122
2021-10-14 16:18:42.936602,-122
2021-10-14 16:18:42.936611,-115
2021-10-14 16:18:42.936620,-110
2021-10-14 16:18:42.936629,-108
2021-10-14 16:18:42.936637,-105
2021-10-14 16:18:42.936645,-105
2021-10-14 16:18:42.936653,-101
2021-10-14 16:18:42.936662,-86
2021-10-14 16:18:42.936670,-72
2021-10-14 16:18:42.936679,-76
2021-10-14 16:18:42.936687,-81
2021-10-14 16:18:42.936696,-74
2021-10-14 16:18:42.936704,-72
2021-10-14 16:18:42.936713,-74
2021-10-14 16:18:42.936721,-81
2021-10-14 16:18:42.936729,-96
2021-10-14 16:18:42.936738,-86
2021-10-14 16:18:42.936746,-74
2021-10-14 16:18:42.936754,-88
2021-10-14 16:18:42.936762,-101
2021-10-14 16:18:42.936771,-93
2021-10-14 16:18:42.936779,-88
2021-10-14 16:18:42.936788,-91
2021-10-14 16:18:42.936796,-96
2021-10-14 16:18:42.936804,-98
2021-10-14 16:18:42.936813,-93
2021-10-14 16:18:42.936821,-93
2021-10-14 16:18:42.936829,-91
2021-10-14 16:18:42.936838,-88
2021-10-14 16:18:43.116277,-93
2021-10-14 16:18:43.116298,-88
2021-10-14 16:18:43.116307,-76
2021-10-14 16:18:43.116316,-81
2021-10-14 16:18:43.116324,-93
2021-10-14 16:18:43.116333,-81
2021-10-14 16:18:43.116341,-72
2021-10-14 16:18:43.116349,-86
2021-10-14 16:18:43.116358,-81
2021-10-14 16:18:43.116366,-60
2021-10-14 16:18:43.116374,-45
2021-10-14 16:18:43.116382,-40
2021-10-14 16:18:43.116391,-43
2021-10-14 16:18:43.116399,-43
2021-10-14 16:18:43.116407,-31
2021-10-14 16:18:43.116416,-40
2021-10-14 16:18:43.116424,-67
2021-10-14 16:18:43.116432,-74
2021-10-14 16:18:43.116441,-76
2021-10-14 16:18:43.116449,-79
2021-10-14 16:18:43.116457,-64
2021-10-14 16:18:43.116466,-52
2021-10-14 16:18:43.116474,-60
2021-10-14 16:18:43.116482,-64
2021-10-14 16:18:43.116490,-55
2021-10-14 16:18:43.116498,-38
2021-10-14 16:18:43.116507,-28
2021-10-14 16:18:43.116515,7
2021-10-14 16:18:43.116523,192
2021-10-14 16:18:43.116532,572
2021-10-14 16:18:43.386579,755
2021-10-14 16:18:43.386597,132
2021-10-14 16:18:43.386607,-930
2021-10-14 16:18:43.386615,-1190
2021-10-14 16:18:43.386624,-598
2021-10-14 16:18:43.386632,-214
2021-10-14 16:18:43.386640,-163
2021-10-14 16:18:43.386649,-28
2021-10-14 16:18:43.386657,76
2021-10-14 16:18:43.386665,55
2021-10-14 16:18:43.386674,60
2021-10-14 16:18:43.386682,84
2021-10-14 16:18:43.386690,72
2021-10-14 16:18:43.386698,72
2021-10-14 16:18:43.386706,86
2021-10-14 16:18:43.386715,86
2021-10-14 16:18:43.386723,88
2021-10-14 16:18:43.386731,101
2021-10-14 16:18:43.386739,113
2021-10-14 16:18:43.386748,125
2021-10-14 16:18:43.386756,132
2021-10-14 16:18:43.386764,125
2021-10-14 16:18:43.386773,120
2021-10-14 16:18:43.386781,134
2021-10-14 16:18:43.386789,161
2021-10-14 16:18:43.386797,175
2021-10-14 16:18:43.386806,189
2021-10-14 16:18:43.386814,204
2021-10-14 16:18:43.386822,209
2021-10-14 16:18:43.386830,194
2021-10-14 16:18:43.566600,182
2021-10-14 16:18:43.566619,173
2021-10-14 16:18:43.566629,151
2021-10-14 16:18:43.566638,110
2021-10-14 16:18:43.566646,67
2021-10-14 16:18:43.566654,28
2021-10-14 16:18:43.566663,-2
2021-10-14 16:18:43.566671,-31
2021-10-14 16:18:43.566679,-67
2021-10-14 16:18:43.566688,-105
2021-10-14 16:18:43.566696,-127
2021-10-14 16:18:43.566704,-139
2021-10-14 16:18:43.566713,-137
2021-10-14 16:18:43.566721,-129
2021-10-14 16:18:43.566729,-127
2021-10-14 16:18:43.566738,-132
2021-10-14 16:18:43.566746,-134
2021-10-14 16:18:43.566754,-134
2021-10-14 16:18:43.566762,-125
2021-10-14 16:18:43.566771,-105
2021-10-14 16:18:43.566779,-105
2021-10-14 16:18:43.566787,-120
2021-10-14 16:18:43.566795,-108
2021-10-14 16:18:43.566809,-79
2021-10-14 16:18:43.566818,-69
2021-10-14 16:18:43.566826,-74
2021-10-14 16:18:43.566834,-74
2021-10-14 16:18:43.566843,-67
2021-10-14 16:18:43.566851,-60
2021-10-14 16:18:43.566859,-50
2021-10-14 16:18:43.791202,-38
2021-10-14 16:18:43.791221,-36
2021-10-14 16:18:43.791231,-40
2021-10-14 16:18:43.791240,-50
2021-10-14 16:18:43.791248,-60
2021-10-14 16:18:43.791257,-64
2021-10-14 16:18:43.791265,-72
2021-10-14 16:18:43.791274,-72
2021-10-14 16:18:43.791282,-62
2021-10-14 16:18:43.791290,-72
2021-10-14 16:18:43.791299,-91
2021-10-14 16:18:43.791307,-88
2021-10-14 16:18:43.791315,-84
2021-10-14 16:18:43.791324,-84
2021-10-14 16:18:43.791332,-88
2021-10-14 16:18:43.791340,-88
2021-10-14 16:18:43.791349,-81
2021-10-14 16:18:43.791357,-72
2021-10-14 16:18:43.791365,-67
2021-10-14 16:18:43.791374,-72
2021-10-14 16:18:43.791382,-79
2021-10-14 16:18:43.791390,-84
2021-10-14 16:18:43.791399,-84
2021-10-14 16:18:43.791407,-69
2021-10-14 16:18:43.791415,-48
2021-10-14 16:18:43.791424,-28
2021-10-14 16:18:43.791432,-19
2021-10-14 16:18:43.791440,-16
2021-10-14 16:18:43.791448,-33
2021-10-14 16:18:43.791457,-62
2021-10-14 16:18:44.106690,-67
2021-10-14 16:18:44.106711,-52
2021-10-14 16:18:44.106720,-50
2021-10-14 16:18:44.106729,-62
2021-10-14 16:18:44.106737,-69
2021-10-14 16:18:44.106746,-55
2021-10-14 16:18:44.106754,-36
2021-10-14 16:18:44.106763,-33
2021-10-14 16:18:44.106771,-36
2021-10-14 16:18:44.106780,-28
2021-10-14 16:18:44.106788,-4
2021-10-14 16:18:44.106797,129
2021-10-14 16:18:44.106805,495
2021-10-14 16:18:44.106813,836
2021-10-14 16:18:44.106822,483
2021-10-14 16:18:44.106830,-606
2021-10-14 16:18:44.106838,-1248
2021-10-14 16:18:44.106847,-757
2021-10-14 16:18:44.106855,-153
2021-10-14 16:18:44.106863,-60
2021-10-14 16:18:44.106872,14
2021-10-14 16:18:44.106880,149
2021-10-14 16:18:44.106888,144
2021-10-14 16:18:44.106897,129
2021-10-14 16:18:44.106905,170
2021-10-14 16:18:44.106913,182
2021-10-14 16:18:44.106921,177
2021-10-14 16:18:44.106930,187
2021-10-14 16:18:44.106938,202
2021-10-14 16:18:44.106946,216
2021-10-14 16:18:44.420358,228
2021-10-14 16:18:44.420379,238
2021-10-14 16:18:44.420389,245
2021-10-14 16:18:44.420397,250
2021-10-14 16:18:44.420406,262
2021-10-14 16:18:44.420414,283
2021-10-14 16:18:44.420423,307
2021-10-14 16:18:44.420431,329
2021-10-14 16:18:44.420439,339
2021-10-14 16:18:44.420448,348
2021-10-14 16:18:44.420456,365
2021-10-14 16:18:44.420464,389
2021-10-14 16:18:44.420472,399
2021-10-14 16:18:44.420481,379
2021-10-14 16:18:44.420489,341
2021-10-14 16:18:44.420497,327
2021-10-14 16:18:44.420506,319
2021-10-14 16:18:44.420514,288
2021-10-14 16:18:44.420522,250
2021-10-14 16:18:44.420530,221
2021-10-14 16:18:44.420539,187
2021-10-14 16:18:44.420547,149
2021-10-14 16:18:44.420556,129
2021-10-14 16:18:44.420564,122
2021-10-14 16:18:44.420572,115
2021-10-14 16:18:44.420580,117
2021-10-14 16:18:44.420589,127
2021-10-14 16:18:44.420597,125
2021-10-14 16:18:44.420605,117
2021-10-14 16:18:44.420614,129
2021-10-14 16:18:44.556230,146
2021-10-14 16:18:44.556249,151
2021-10-14 16:18:44.556258,151
2021-10-14 16:18:44.556267,153
2021-10-14 16:18:44.556275,149
2021-10-14 16:18:44.556284,161
2021-10-14 16:18:44.556292,180
2021-10-14 16:18:44.556301,175
2021-10-14 16:18:44.556309,170
2021-10-14 16:18:44.556317,185
2021-10-14 16:18:44.556326,197
2021-10-14 16:18:44.556334,202
2021-10-14 16:18:44.556342,209
2021-10-14 16:18:44.556351,211
2021-10-14 16:18:44.556359,206
2021-10-14 16:18:44.556367,204
2021-10-14 16:18:44.556375,204
2021-10-14 16:18:44.556384,206
2021-10-14 16:18:44.556392,209
2021-10-14 16:18:44.556400,209
2021-10-14 16:18:44.556409,211
2021-10-14 16:18:44.556417,214
2021-10-14 16:18:44.556425,204
2021-10-14 16:18:44.556433,192
2021-10-14 16:18:44.556442,197
2021-10-14 16:18:44.556450,192
2021-10-14 16:18:44.556458,173
2021-10-14 16:18:44.556466,170
2021-10-14 16:18:44.556474,177
2021-10-14 16:18:44.556483,170
2021-10-14 16:18:44.736583,158
2021-10-14 16:18:44.736603,158
2021-10-14 16:18:44.736612,165
2021-10-14 16:18:44.736621,161
2021-10-14 16:18:44.736630,156
2021-10-14 16:18:44.736638,153
2021-10-14 16:18:44.736646,141
2021-10-14 16:18:44.736654,127
2021-10-14 16:18:44.736663,144
2021-10-14 16:18:44.736671,163
2021-10-14 16:18:44.736679,165
2021-10-14 16:18:44.736687,177
2021-10-14 16:18:44.736696,177
2021-10-14 16:18:44.736704,141
2021-10-14 16:18:44.736712,117
2021-10-14 16:18:44.736720,122
2021-10-14 16:18:44.736729,122
2021-10-14 16:18:44.736737,122
2021-10-14 16:18:44.736745,120
2021-10-14 16:18:44.736753,108
2021-10-14 16:18:44.736762,103
2021-10-14 16:18:44.736770,110
2021-10-14 16:18:44.736779,117
2021-10-14 16:18:44.736787,125
2021-10-14 16:18:44.736795,149
2021-10-14 16:18:44.736804,245
2021-10-14 16:18:44.736812,543
2021-10-14 16:18:44.736821,909
2021-10-14 16:18:44.736829,726
2021-10-14 16:18:44.736837,-286
2021-10-14 16:18:45.051680,-1154
2021-10-14 16:18:45.051701,-839
2021-10-14 16:18:45.051710,-103
2021-10-14 16:18:45.051719,57
2021-10-14 16:18:45.051728,60
2021-10-14 16:18:45.051736,218
2021-10-14 16:18:45.051745,238
2021-10-14 16:18:45.051753,180
2021-10-14 16:18:45.051762,206
2021-10-14 16:18:45.051770,209
2021-10-14 16:18:45.051778,182
2021-10-14 16:18:45.051787,192
2021-10-14 16:18:45.051795,197
2021-10-14 16:18:45.051804,189
2021-10-14 16:18:45.051812,194
2021-10-14 16:18:45.051820,197
2021-10-14 16:18:45.051829,194
2021-10-14 16:18:45.051837,202
2021-10-14 16:18:45.051845,214
2021-10-14 16:18:45.051854,221
2021-10-14 16:18:45.051862,228
2021-10-14 16:18:45.051870,240
2021-10-14 16:18:45.051879,254
2021-10-14 16:18:45.051887,264
2021-10-14 16:18:45.051896,266
2021-10-14 16:18:45.051904,274
2021-10-14 16:18:45.051913,274
2021-10-14 16:18:45.051921,266
2021-10-14 16:18:45.051929,262
2021-10-14 16:18:45.051943,245
2021-10-14 16:18:45.186591,202
2021-10-14 16:18:45.186610,170
2021-10-14 16:18:45.186620,149
2021-10-14 16:18:45.186628,105
2021-10-14 16:18:45.186637,52
2021-10-14 16:18:45.186645,19
2021-10-14 16:18:45.186653,2
2021-10-14 16:18:45.186662,-19
2021-10-14 16:18:45.186670,-33
2021-10-14 16:18:45.186679,-38
2021-10-14 16:18:45.186687,-50
2021-10-14 16:18:45.186695,-69
2021-10-14 16:18:45.186704,-64
2021-10-14 16:18:45.186712,-50
2021-10-14 16:18:45.186720,-52
2021-10-14 16:18:45.186728,-62
2021-10-14 16:18:45.186737,-52
2021-10-14 16:18:45.186745,-33
2021-10-14 16:18:45.186753,-36
2021-10-14 16:18:45.186761,-40
2021-10-14 16:18:45.186769,-31
2021-10-14 16:18:45.186778,-19
2021-10-14 16:18:45.186786,-19
2021-10-14 16:18:45.186794,-19
2021-10-14 16:18:45.186802,-19
2021-10-14 16:18:45.186810,-21
2021-10-14 16:18:45.186818,-14
2021-10-14 16:18:45.186827,0
2021-10-14 16:18:45.186835,2
2021-10-14 16:18:45.186843,4
2021-10-14 16:18:45.545651,19
2021-10-14 16:18:45.545671,26
2021-10-14 16:18:45.545680,16
2021-10-14 16:18:45.545689,12
2021-10-14 16:18:45.545697,14
2021-10-14 16:18:45.545705,4
2021-10-14 16:18:45.545714,-4
2021-10-14 16:18:45.545722,4
2021-10-14 16:18:45.545731,14
2021-10-14 16:18:45.545739,12
2021-10-14 16:18:45.545747,7
2021-10-14 16:18:45.545756,0
2021-10-14 16:18:45.545764,-4
2021-10-14 16:18:45.545773,-2
2021-10-14 16:18:45.545781,-9
2021-10-14 16:18:45.545789,-21
2021-10-14 16:18:45.545798,-16
2021-10-14 16:18:45.545806,-9
2021-10-14 16:18:45.545814,-16
2021-10-14 16:18:45.545822,-26
2021-10-14 16:18:45.545831,-28
2021-10-14 16:18:45.545839,-19
2021-10-14 16:18:45.545847,-16
2021-10-14 16:18:45.545855,-19
2021-10-14 16:18:45.545864,-7
2021-10-14 16:18:45.545872,12
2021-10-14 16:18:45.545880,21
2021-10-14 16:18:45.545889,21
2021-10-14 16:18:45.545897,24
2021-10-14 16:18:45.545905,38
2021-10-14 16:18:45.681581,28
2021-10-14 16:18:45.681598,2
2021-10-14 16:18:45.681607,0
2021-10-14 16:18:45.681616,4
2021-10-14 16:18:45.681624,-4
2021-10-14 16:18:45.681633,0
2021-10-14 16:18:45.681641,24
2021-10-14 16:18:45.681649,26
2021-10-14 16:18:45.681658,19
2021-10-14 16:18:45.681666,24
2021-10-14 16:18:45.681674,26
2021-10-14 16:18:45.681683,43
2021-10-14 16:18:45.681691,88
2021-10-14 16:18:45.681700,257
2021-10-14 16:18:45.681708,639
2021-10-14 16:18:45.681716,877
2021-10-14 16:18:45.681724,312
2021-10-14 16:18:45.681732,-776
2021-10-14 16:18:45.681741,-1127
2021-10-14 16:18:45.681749,-553
2021-10-14 16:18:45.681757,-129
2021-10-14 16:18:45.681765,-74
2021-10-14 16:18:45.681774,45
2021-10-14 16:18:45.681782,151
2021-10-14 16:18:45.681790,134
2021-10-14 16:18:45.681799,137
2021-10-14 16:18:45.681807,168
2021-10-14 16:18:45.681815,153
2021-10-14 16:18:45.681823,144
2021-10-14 16:18:45.681832,170
2021-10-14 16:18:45.906573,180
2021-10-14 16:18:45.906591,175
2021-10-14 16:18:45.906601,185
2021-10-14 16:18:45.906610,177
2021-10-14 16:18:45.906618,168
2021-10-14 16:18:45.906627,187
2021-10-14 16:18:45.906635,206
2021-10-14 16:18:45.906644,214
2021-10-14 16:18:45.906652,228
2021-10-14 16:18:45.906660,240
2021-10-14 16:18:45.906669,254
2021-10-14 16:18:45.906677,276
2021-10-14 16:18:45.906686,286
2021-10-14 16:18:45.906694,281
2021-10-14 16:18:45.906702,281
2021-10-14 16:18:45.906711,259
2021-10-14 16:18:45.906719,216
2021-10-14 16:18:45.906727,197
2021-10-14 16:18:45.906736,194
2021-10-14 16:18:45.906744,156
2021-10-14 16:18:45.906752,86
2021-10-14 16:18:45.906761,28
2021-10-14 16:18:45.906769,0
2021-10-14 16:18:45.906778,-28
2021-10-14 16:18:45.906786,-60
2021-10-14 16:18:45.906794,-79
2021-10-14 16:18:45.906802,-91
2021-10-14 16:18:45.906810,-103
2021-10-14 16:18:45.906819,-108
2021-10-14 16:18:45.906827,-105
2021-10-14 16:18:46.131324,-98
2021-10-14 16:18:46.131345,-96
2021-10-14 16:18:46.131354,-96
2021-10-14 16:18:46.131363,-93
2021-10-14 16:18:46.131372,-88
2021-10-14 16:18:46.131380,-79
2021-10-14 16:18:46.131388,-76
2021-10-14 16:18:46.131397,-81
2021-10-14 16:18:46.131405,-79
2021-10-14 16:18:46.131414,-67
2021-10-14 16:18:46.131422,-57
2021-10-14 16:18:46.131430,-50
2021-10-14 16:18:46.131438,-52
2021-10-14 16:18:46.131447,-55
2021-10-14 16:18:46.131455,-55
2021-10-14 16:18:46.131463,-50
2021-10-14 16:18:46.131472,-43
2021-10-14 16:18:46.131480,-45
2021-10-14 16:18:46.131489,-52
2021-10-14 16:18:46.131497,-55
2021-10-14 16:18:46.131505,-60
2021-10-14 16:18:46.131513,-60
2021-10-14 16:18:46.131522,-57
2021-10-14 16:18:46.131530,-57
2021-10-14 16:18:46.131538,-52
2021-10-14 16:18:46.131547,-48
2021-10-14 16:18:46.131555,-60
2021-10-14 16:18:46.131563,-67
2021-10-14 16:18:46.131571,-67
2021-10-14 16:18:46.131580,-67
2021-10-14 16:18:46.444929,-64
2021-10-14 16:18:46.444949,-62
2021-10-14 16:18:46.444958,-64
2021-10-14 16:18:46.444967,-72
2021-10-14 16:18:46.444975,-76
2021-10-14 16:18:46.444984,-72
2021-10-14 16:18:46.444992,-79
2021-10-14 16:18:46.445000,-101
2021-10-14 16:18:46.445009,-101
2021-10-14 16:18:46.445017,-88
2021-10-14 16:18:46.445025,-88
2021-10-14 16:18:46.445034,-98
2021-10-14 16:18:46.445042,-98
2021-10-14 16:18:46.445050,-101
2021-10-14 16:18:46.445059,-110
2021-10-14 16:18:46.445067,-103
2021-10-14 16:18:46.445075,-76
2021-10-14 16:18:46.445083,-62
2021-10-14 16:18:46.445092,-64
2021-10-14 16:18:46.445100,-57
2021-10-14 16:18:46.445108,-57
2021-10-14 16:18:46.445116,-91
2021-10-14 16:18:46.445125,-117
2021-10-14 16:18:46.445133,-108
2021-10-14 16:18:46.445141,-96
2021-10-14 16:18:46.445149,-103
2021-10-14 16:18:46.445158,-115
2021-10-14 16:18:46.445166,-110
2021-10-14 16:18:46.445174,-103
2021-10-14 16:18:46.445182,-105
2021-10-14 16:18:46.671012,-105
2021-10-14 16:18:46.671031,-101
2021-10-14 16:18:46.671040,-79
2021-10-14 16:18:46.671048,7
2021-10-14 16:18:46.671057,269
2021-10-14 16:18:46.671065,630
2021-10-14 16:18:46.671073,550
2021-10-14 16:18:46.671082,-343
2021-10-14 16:18:46.671090,-1163
2021-10-14 16:18:46.671099,-947
2021-10-14 16:18:46.671107,-387
2021-10-14 16:18:46.671115,-223
2021-10-14 16:18:46.671123,-132
2021-10-14 16:18:46.671132,9
2021-10-14 16:18:46.671140,19
2021-10-14 16:18:46.671148,-7
2021-10-14 16:18:46.671157,21
2021-10-14 16:18:46.671165,31
2021-10-14 16:18:46.671173,14
2021-10-14 16:18:46.671181,21
2021-10-14 16:18:46.671190,36
2021-10-14 16:18:46.671198,36
2021-10-14 16:18:46.671206,43
2021-10-14 16:18:46.671214,50
2021-10-14 16:18:46.671223,50
2021-10-14 16:18:46.671231,55
2021-10-14 16:18:46.671239,69
2021-10-14 16:18:46.671247,81
2021-10-14 16:18:46.671264,91
2021-10-14 16:18:46.671273,105
2021-10-14 16:18:46.806613,110
2021-10-14 16:18:46.806631,115
2021-10-14 16:18:46.806641,129
2021-10-14 16:18:46.806649,139
2021-10-14 16:18:46.806658,129
2021-10-14 16:18:46.806666,117
2021-10-14 16:18:46.806674,101
2021-10-14 16:18:46.806683,79
2021-10-14 16:18:46.806691,52
2021-10-14 16:18:46.806700,19
2021-10-14 16:18:46.806708,-9
2021-10-14 16:18:46.806716,-40
2021-10-14 16:18:46.806725,-86
2021-10-14 16:18:46.806733,-122
2021-10-14 16:18:46.806742,-141
2021-10-14 16:18:46.806750,-161
2021-10-14 16:18:46.806758,-173
2021-10-14 16:18:46.806766,-175
2021-10-14 16:18:46.806775,-175
2021-10-14 16:18:46.806783,-177
2021-10-14 16:18:46.806792,-182
2021-10-14 16:18:46.806800,-182
2021-10-14 16:18:46.806808,-177
2021-10-14 16:18:46.806817,-173
2021-10-14 16:18:46.806825,-163
2021-10-14 16:18:46.806833,-151
2021-10-14 16:18:46.806841,-146
2021-10-14 16:18:46.806849,-141
2021-10-14 16:18:46.806858,-141
2021-10-14 16:18:46.806866,-141
2021-10-14 16:18:47.120698,-141
2021-10-14 16:18:47.120719,-144
2021-10-14 16:18:47.120728,-151
2021-10-14 16:18:47.120737,-146
2021-10-14 16:18:47.120745,-137
2021-10-14 16:18:47.120754,-137
2021-10-14 16:18:47.120762,-146
2021-10-14 16:18:47.120771,-149
2021-10-14 16:18:47.120779,-139
2021-10-14 16:18:47.120787,-137
2021-10-14 16:18:47.120796,-139
2021-10-14 16:18:47.120804,-144
2021-10-14 16:18:47.120812,-146
2021-10-14 16:18:47.120821,-144
2021-10-14 16:18:47.120829,-151
2021-10-14 16:18:47.120837,-158
2021-10-14 16:18:47.120846,-153
2021-10-14 16:18:47.120854,-151
2021-10-14 16:18:47.120862,-151
2021-10-14 16:18:47.120871,-151
2021-10-14 16:18:47.120879,-151
2021-10-14 16:18:47.120887,-144
2021-10-14 16:18:47.120896,-144
2021-10-14 16:18:47.120904,-163
2021-10-14 16:18:47.120912,-163
2021-10-14 16:18:47.120921,-144
2021-10-14 16:18:47.120929,-137
2021-10-14 16:18:47.120937,-149
2021-10-14 16:18:47.120945,-146
2021-10-14 16:18:47.120954,-139
2021-10-14 16:18:47.256652,-139
2021-10-14 16:18:47.256671,-132
2021-10-14 16:18:47.256681,-125
2021-10-14 16:18:47.256689,-132
2021-10-14 16:18:47.256698,-141
2021-10-14 16:18:47.256706,-139
2021-10-14 16:18:47.256715,-137
2021-10-14 16:18:47.256723,-125
2021-10-14 16:18:47.256732,-115
2021-10-14 16:18:47.256740,-115
2021-10-14 16:18:47.256748,-120
2021-10-14 16:18:47.256756,-117
2021-10-14 16:18:47.256765,-98
2021-10-14 16:18:47.256773,-84
2021-10-14 16:18:47.256781,-88
2021-10-14 16:18:47.256790,-81
2021-10-14 16:18:47.256798,-76
2021-10-14 16:18:47.256806,-105
2021-10-14 16:18:47.256815,-122
2021-10-14 16:18:47.256823,-113
2021-10-14 16:18:47.256831,-103
2021-10-14 16:18:47.256839,-103
2021-10-14 16:18:47.256848,-108
2021-10-14 16:18:47.256856,-115
2021-10-14 16:18:47.256864,-105
2021-10-14 16:18:47.256873,-91
2021-10-14 16:18:47.256881,-91
2021-10-14 16:18:47.256889,-86
2021-10-14 16:18:47.256898,-67
2021-10-14 16:18:47.256906,0
2021-10-14 16:18:47.481661,226
2021-10-14 16:18:47.481680,615
2021-10-14 16:18:47.481689,699
2021-10-14 16:18:47.481698,-50
2021-10-14 16:18:47.481707,-1026
2021-10-14 16:18:47.481715,-1082
2021-10-14 16:18:47.481723,-529
2021-10-14 16:18:47.481732,-276
2021-10-14 16:18:47.481740,-199
2021-10-14 16:18:47.481748,-45
2021-10-14 16:18:47.481757,4
2021-10-14 16:18:47.481765,-24
2021-10-14 16:18:47.481774,2
2021-10-14 16:18:47.481782,26
2021-10-14 16:18:47.481790,19
2021-10-14 16:18:47.481798,21
2021-10-14 16:18:47.481807,31
2021-10-14 16:18:47.481815,38
2021-10-14 16:18:47.481823,52
2021-10-14 16:18:47.481831,62
2021-10-14 16:18:47.481840,67
2021-10-14 16:18:47.481848,79
2021-10-14 16:18:47.481856,88
2021-10-14 16:18:47.481864,93
2021-10-14 16:18:47.481873,105
2021-10-14 16:18:47.481881,122
2021-10-14 16:18:47.481889,137
2021-10-14 16:18:47.481898,146
2021-10-14 16:18:47.481906,161
2021-10-14 16:18:47.481914,177
2021-10-14 16:18:47.796682,187
2021-10-14 16:18:47.796701,189
2021-10-14 16:18:47.796710,175
2021-10-14 16:18:47.796719,141
2021-10-14 16:18:47.796728,113
2021-10-14 16:18:47.796736,93
2021-10-14 16:18:47.796745,62
2021-10-14 16:18:47.796753,21
2021-10-14 16:18:47.796761,-28
2021-10-14 16:18:47.796770,-79
2021-10-14 16:18:47.796778,-103
2021-10-14 16:18:47.796787,-108
2021-10-14 16:18:47.796795,-125
2021-10-14 16:18:47.796803,-153
2021-10-14 16:18:47.796812,-173
2021-10-14 16:18:47.796820,-161
2021-10-14 16:18:47.796828,-146
2021-10-14 16:18:47.796837,-146
2021-10-14 16:18:47.796845,-144
2021-10-14 16:18:47.796853,-137
2021-10-14 16:18:47.796861,-129
2021-10-14 16:18:47.796870,-127
2021-10-14 16:18:47.796878,-127
2021-10-14 16:18:47.796886,-115
2021-10-14 16:18:47.796895,-101
2021-10-14 16:18:47.796903,-96
2021-10-14 16:18:47.796911,-93
2021-10-14 16:18:47.796919,-91
2021-10-14 16:18:47.796928,-81
2021-10-14 16:18:47.796936,-74
2021-10-14 16:18:47.976561,-76
2021-10-14 16:18:47.976579,-72
2021-10-14 16:18:47.976588,-62
2021-10-14 16:18:47.976597,-67
2021-10-14 16:18:47.976606,-76
2021-10-14 16:18:47.976614,-81
2021-10-14 16:18:47.976623,-91
2021-10-14 16:18:47.976631,-96
2021-10-14 16:18:47.976639,-98
2021-10-14 16:18:47.976648,-108
2021-10-14 16:18:47.976656,-113
2021-10-14 16:18:47.976664,-115
2021-10-14 16:18:47.976673,-110
2021-10-14 16:18:47.976681,-110
2021-10-14 16:18:47.976690,-127
2021-10-14 16:18:47.976698,-139
2021-10-14 16:18:47.976706,-132
2021-10-14 16:18:47.976714,-117
2021-10-14 16:18:47.976723,-115
2021-10-14 16:18:47.976731,-122
2021-10-14 16:18:47.976739,-129
2021-10-14 16:18:47.976748,-127
2021-10-14 16:18:47.976756,-115
2021-10-14 16:18:47.976764,-108
2021-10-14 16:18:47.976772,-105
2021-10-14 16:18:47.976780,-96
2021-10-14 16:18:47.976789,-96
2021-10-14 16:18:47.976796,-98
2021-10-14 16:18:47.976805,-96
2021-10-14 16:18:47.976813,-91
2021-10-14 16:18:48.290749,-86
2021-10-14 16:18:48.290770,-79
2021-10-14 16:18:48.290780,-74
2021-10-14 16:18:48.290788,-79
2021-10-14 16:18:48.290797,-79
2021-10-14 16:18:48.290805,-69
2021-10-14 16:18:48.290813,-60
2021-10-14 16:18:48.290822,-57
2021-10-14 16:18:48.290830,-55
2021-10-14 16:18:48.290838,-48
2021-10-14 16:18:48.290847,-26
2021-10-14 16:18:48.290855,-26
2021-10-14 16:18:48.290863,-62
2021-10-14 16:18:48.290872,-96
2021-10-14 16:18:48.290880,-101
2021-10-14 16:18:48.290888,-96
2021-10-14 16:18:48.290897,-86
2021-10-14 16:18:48.290905,-76
2021-10-14 16:18:48.290913,-76
2021-10-14 16:18:48.290921,-79
2021-10-14 16:18:48.290930,-74
2021-10-14 16:18:48.290938,-57
2021-10-14 16:18:48.290947,-52
2021-10-14 16:18:48.290955,-48
2021-10-14 16:18:48.290963,2
2021-10-14 16:18:48.290971,202
2021-10-14 16:18:48.290980,589
2021-10-14 16:18:48.290988,771
2021-10-14 16:18:48.290996,161
2021-10-14 16:18:48.291004,-870
2021-10-14 16:18:48.470313,-1120
2021-10-14 16:18:48.470332,-550
2021-10-14 16:18:48.470341,-189
2021-10-14 16:18:48.470350,-146
2021-10-14 16:18:48.470359,-4
2021-10-14 16:18:48.470367,88
2021-10-14 16:18:48.470375,48
2021-10-14 16:18:48.470384,43
2021-10-14 16:18:48.470392,79
2021-10-14 16:18:48.470401,76
2021-10-14 16:18:48.470409,69
2021-10-14 16:18:48.470417,84
2021-10-14 16:18:48.470426,86
2021-10-14 16:18:48.470434,76
2021-10-14 16:18:48.470443,79
2021-10-14 16:18:48.470451,91
2021-10-14 16:18:48.470459,91
2021-10-14 16:18:48.470468,88
2021-10-14 16:18:48.470476,98
2021-10-14 16:18:48.470484,110
2021-10-14 16:18:48.470493,120
2021-10-14 16:18:48.470501,132
2021-10-14 16:18:48.470509,156
2021-10-14 16:18:48.470523,173
2021-10-14 16:18:48.470532,177
2021-10-14 16:18:48.470540,185
2021-10-14 16:18:48.470548,185
2021-10-14 16:18:48.470557,165
2021-10-14 16:18:48.470565,151
2021-10-14 16:18:48.470573,139
2021-10-14 16:18:48.786033,110
2021-10-14 16:18:48.786052,69
2021-10-14 16:18:48.786061,43
2021-10-14 16:18:48.786070,4
2021-10-14 16:18:48.786079,-38
2021-10-14 16:18:48.786087,-62
2021-10-14 16:18:48.786095,-84
2021-10-14 16:18:48.786104,-113
2021-10-14 16:18:48.786112,-125
2021-10-14 16:18:48.786121,-125
2021-10-14 16:18:48.786129,-122
2021-10-14 16:18:48.786138,-127
2021-10-14 16:18:48.786146,-146
2021-10-14 16:18:48.786155,-149
2021-10-14 16:18:48.786163,-129
2021-10-14 16:18:48.786172,-129
2021-10-14 16:18:48.786180,-149
2021-10-14 16:18:48.786188,-153
2021-10-14 16:18:48.786196,-146
2021-10-14 16:18:48.786205,-137
2021-10-14 16:18:48.786213,-132
2021-10-14 16:18:48.786221,-132
2021-10-14 16:18:48.786230,-129
2021-10-14 16:18:48.786238,-117
2021-10-14 16:18:48.786246,-108
2021-10-14 16:18:48.786254,-101
2021-10-14 16:18:48.786263,-86
2021-10-14 16:18:48.786271,-72
2021-10-14 16:18:48.786279,-72
2021-10-14 16:18:48.786288,-79
2021-10-14 16:18:48.876607,-79
2021-10-14 16:18:48.876625,-74
2021-10-14 16:18:48.876634,-72
2021-10-14 16:18:48.876643,-76
2021-10-14 16:18:48.876651,-81
2021-10-14 16:18:48.876660,-84
2021-10-14 16:18:48.876668,-81
2021-10-14 16:18:48.876677,-79
2021-10-14 16:18:48.876685,-72
2021-10-14 16:18:48.876694,-64
2021-10-14 16:18:48.876702,-64
2021-10-14 16:18:48.876711,-76
2021-10-14 16:18:48.876719,-81
2021-10-14 16:18:48.876727,-69
2021-10-14 16:18:48.876735,-69
2021-10-14 16:18:48.876744,-76
2021-10-14 16:18:48.876752,-64
2021-10-14 16:18:48.876761,-48
2021-10-14 16:18:48.876769,-57
2021-10-14 16:18:48.876777,-64
2021-10-14 16:18:48.876786,-52
2021-10-14 16:18:48.876794,-48
2021-10-14 16:18:48.876802,-52
2021-10-14 16:18:48.876811,-50
2021-10-14 16:18:48.876819,-55
2021-10-14 16:18:48.876827,-67
2021-10-14 16:18:48.876836,-64
2021-10-14 16:18:48.876844,-52
2021-10-14 16:18:48.876853,-43
2021-10-14 16:18:48.876861,-40
2021-10-14 16:18:49.146362,-45
2021-10-14 16:18:49.146383,-52
2021-10-14 16:18:49.146392,-48
2021-10-14 16:18:49.146401,-36
2021-10-14 16:18:49.146410,-24
2021-10-14 16:18:49.146418,-21
2021-10-14 16:18:49.146427,-14
2021-10-14 16:18:49.146435,-2
2021-10-14 16:18:49.146444,-7
2021-10-14 16:18:49.146452,-28
2021-10-14 16:18:49.146460,-45
2021-10-14 16:18:49.146468,-57
2021-10-14 16:18:49.146476,-62
2021-10-14 16:18:49.146485,-48
2021-10-14 16:18:49.146493,-36
2021-10-14 16:18:49.146502,-38
2021-10-14 16:18:49.146510,-33
2021-10-14 16:18:49.146518,-28
2021-10-14 16:18:49.146526,-28
2021-10-14 16:18:49.146534,-19
2021-10-14 16:18:49.146543,-2
2021-10-14 16:18:49.146551,76
2021-10-14 16:18:49.146559,355
2021-10-14 16:18:49.146568,731
2021-10-14 16:18:49.146576,656
2021-10-14 16:18:49.146584,-214
2021-10-14 16:18:49.146593,-1070
2021-10-14 16:18:49.146601,-899
2021-10-14 16:18:49.146609,-286
2021-10-14 16:18:49.146617,-110
2021-10-14 16:18:49.371065,-74
2021-10-14 16:18:49.371084,72
2021-10-14 16:18:49.371093,103
2021-10-14 16:18:49.371102,57
2021-10-14 16:18:49.371110,72
2021-10-14 16:18:49.371119,86
2021-10-14 16:18:49.371127,86
2021-10-14 16:18:49.371136,98
2021-10-14 16:18:49.371144,103
2021-10-14 16:18:49.371152,101
2021-10-14 16:18:49.371161,98
2021-10-14 16:18:49.371169,113
2021-10-14 16:18:49.371177,132
2021-10-14 16:18:49.371185,139
2021-10-14 16:18:49.371194,139
2021-10-14 16:18:49.371202,149
2021-10-14 16:18:49.371210,156
2021-10-14 16:18:49.371218,165
2021-10-14 16:18:49.371227,185
2021-10-14 16:18:49.371235,199
2021-10-14 16:18:49.371243,211
2021-10-14 16:18:49.371251,230
2021-10-14 16:18:49.371260,238
2021-10-14 16:18:49.371268,230
2021-10-14 16:18:49.371276,226
2021-10-14 16:18:49.371285,204
2021-10-14 16:18:49.371293,175
2021-10-14 16:18:49.371301,149
2021-10-14 16:18:49.371309,108
2021-10-14 16:18:49.371318,57
2021-10-14 16:18:49.551319,7
2021-10-14 16:18:49.551339,-33
2021-10-14 16:18:49.551349,-55
2021-10-14 16:18:49.551358,-81
2021-10-14 16:18:49.551366,-122
2021-10-14 16:18:49.551374,-137
2021-10-14 16:18:49.551382,-127
2021-10-14 16:18:49.551391,-117
2021-10-14 16:18:49.551399,-127
2021-10-14 16:18:49.551408,-151
2021-10-14 16:18:49.551416,-163
2021-10-14 16:18:49.551425,-156
2021-10-14 16:18:49.551433,-139
2021-10-14 16:18:49.551441,-129
2021-10-14 16:18:49.551449,-134
2021-10-14 16:18:49.551458,-137
2021-10-14 16:18:49.551466,-122
2021-10-14 16:18:49.551474,-103
2021-10-14 16:18:49.551483,-98
2021-10-14 16:18:49.551491,-96
2021-10-14 16:18:49.551499,-88
2021-10-14 16:18:49.551507,-81
2021-10-14 16:18:49.551516,-74
2021-10-14 16:18:49.551524,-62
2021-10-14 16:18:49.551532,-62
2021-10-14 16:18:49.551540,-74
2021-10-14 16:18:49.551549,-81
2021-10-14 16:18:49.551557,-79
2021-10-14 16:18:49.551565,-69
2021-10-14 16:18:49.551573,-64
2021-10-14 16:18:49.821703,-67
2021-10-14 16:18:49.821723,-60
2021-10-14 16:18:49.821732,-64
2021-10-14 16:18:49.821741,-86
2021-10-14 16:18:49.821749,-81
2021-10-14 16:18:49.821758,-57
2021-10-14 16:18:49.821766,-55
2021-10-14 16:18:49.821774,-69
2021-10-14 16:18:49.821783,-81
2021-10-14 16:18:49.821791,-91
2021-10-14 16:18:49.821800,-81
2021-10-14 16:18:49.821808,-55
2021-10-14 16:18:49.821816,-52
2021-10-14 16:18:49.821825,-67
2021-10-14 16:18:49.821833,-60
2021-10-14 16:18:49.821841,-55
2021-10-14 16:18:49.821850,-52
2021-10-14 16:18:49.821858,-45
2021-10-14 16:18:49.821866,-38
2021-10-14 16:18:49.821874,-38
2021-10-14 16:18:49.821883,-40
2021-10-14 16:18:49.821891,-40
2021-10-14 16:18:49.821899,-31
2021-10-14 16:18:49.821908,-31
2021-10-14 16:18:49.821916,-36
2021-10-14 16:18:49.821924,-26
2021-10-14 16:18:49.821932,-26
2021-10-14 16:18:49.821941,-40
2021-10-14 16:18:49.821949,-36
2021-10-14 16:18:49.821957,-19
2021-10-14 16:18:50.046390,-19
2021-10-14 16:18:50.046411,-16
2021-10-14 16:18:50.046421,-7
2021-10-14 16:18:50.046429,0
2021-10-14 16:18:50.046438,4
2021-10-14 16:18:50.046446,2
2021-10-14 16:18:50.046455,-7
2021-10-14 16:18:50.046463,-21
2021-10-14 16:18:50.046472,-48
2021-10-14 16:18:50.046480,-64
2021-10-14 16:18:50.046488,-55
2021-10-14 16:18:50.046497,-48
2021-10-14 16:18:50.046505,-40
2021-10-14 16:18:50.046513,-43
2021-10-14 16:18:50.046521,-52
2021-10-14 16:18:50.046530,-45
2021-10-14 16:18:50.046538,-28
2021-10-14 16:18:50.046546,-26
2021-10-14 16:18:50.046554,-26
2021-10-14 16:18:50.046563,24
2021-10-14 16:18:50.046571,228
2021-10-14 16:18:50.046579,606
2021-10-14 16:18:50.046588,774
2021-10-14 16:18:50.046596,177
2021-10-14 16:18:50.046604,-832
2021-10-14 16:18:50.046613,-1072
2021-10-14 16:18:50.046621,-473
2021-10-14 16:18:50.046629,-105
2021-10-14 16:18:50.046637,-98
2021-10-14 16:18:50.046646,0
2021-10-14 16:18:50.271339,81
2021-10-14 16:18:50.271359,48
2021-10-14 16:18:50.271369,57
2021-10-14 16:18:50.271377,91
2021-10-14 16:18:50.271386,84
2021-10-14 16:18:50.271394,86
2021-10-14 16:18:50.271402,96
2021-10-14 16:18:50.271411,88
2021-10-14 16:18:50.271419,88
2021-10-14 16:18:50.271428,108
2021-10-14 16:18:50.271436,115
2021-10-14 16:18:50.271445,113
2021-10-14 16:18:50.271453,122
2021-10-14 16:18:50.271461,134
2021-10-14 16:18:50.271470,161
2021-10-14 16:18:50.271478,163
2021-10-14 16:18:50.271487,105
2021-10-14 16:18:50.271495,113
2021-10-14 16:18:50.271503,197
2021-10-14 16:18:50.271512,218
2021-10-14 16:18:50.271520,194
2021-10-14 16:18:50.271529,197
2021-10-14 16:18:50.271537,185
2021-10-14 16:18:50.271545,153
2021-10-14 16:18:50.271554,132
2021-10-14 16:18:50.271562,101
2021-10-14 16:18:50.271570,64
2021-10-14 16:18:50.271579,36
2021-10-14 16:18:50.271587,-7
2021-10-14 16:18:50.271595,-48
2021-10-14 16:18:50.585362,-74
2021-10-14 16:18:50.585382,-108
2021-10-14 16:18:50.585391,-125
2021-10-14 16:18:50.585400,-137
2021-10-14 16:18:50.585409,-151
2021-10-14 16:18:50.585417,-153
2021-10-14 16:18:50.585425,-156
2021-10-14 16:18:50.585433,-153
2021-10-14 16:18:50.585442,-139
2021-10-14 16:18:50.585450,-141
2021-10-14 16:18:50.585458,-158
2021-10-14 16:18:50.585466,-141
2021-10-14 16:18:50.585475,-137
2021-10-14 16:18:50.585483,-151
2021-10-14 16:18:50.585491,-141
2021-10-14 16:18:50.585499,-134
2021-10-14 16:18:50.585508,-127
2021-10-14 16:18:50.585519,-108
2021-10-14 16:18:50.585527,-98
2021-10-14 16:18:50.585535,-96
2021-10-14 16:18:50.585544,-86
2021-10-14 16:18:50.585552,-81
2021-10-14 16:18:50.585560,-76
2021-10-14 16:18:50.585568,-69
2021-10-14 16:18:50.585576,-64
2021-10-14 16:18:50.585585,-64
2021-10-14 16:18:50.585593,-69
2021-10-14 16:18:50.585602,-60
2021-10-14 16:18:50.585610,-48
2021-10-14 16:18:50.585618,-57
2021-10-14 16:18:50.811687,-64
2021-10-14 16:18:50.811707,-79
2021-10-14 16:18:50.811716,-96
2021-10-14 16:18:50.811725,-86
2021-10-14 16:18:50.811733,-76
2021-10-14 16:18:50.811741,-86
2021-10-14 16:18:50.811750,-93
2021-10-14 16:18:50.811758,-81
2021-10-14 16:18:50.811767,-72
2021-10-14 16:18:50.811775,-79
2021-10-14 16:18:50.811783,-76
2021-10-14 16:18:50.811792,-55
2021-10-14 16:18:50.811800,-64
2021-10-14 16:18:50.811808,-91
2021-10-14 16:18:50.811816,-81
2021-10-14 16:18:50.811825,-45
2021-10-14 16:18:50.811833,-38
2021-10-14 16:18:50.811841,-64
2021-10-14 16:18:50.811849,-69
2021-10-14 16:18:50.811858,-55
2021-10-14 16:18:50.811866,-55
2021-10-14 16:18:50.811874,-50
2021-10-14 16:18:50.811883,-43
2021-10-14 16:18:50.811891,-48
2021-10-14 16:18:50.811899,-45
2021-10-14 16:18:50.811907,-40
2021-10-14 16:18:50.811916,-45
2021-10-14 16:18:50.811924,-43
2021-10-14 16:18:50.811932,-31
2021-10-14 16:18:50.811940,-24
2021-10-14 16:18:50.946298,-21
2021-10-14 16:18:50.946316,-21
2021-10-14 16:18:50.946325,-33
2021-10-14 16:18:50.946334,-45
2021-10-14 16:18:50.946342,-28
2021-10-14 16:18:50.946351,-4
2021-10-14 16:18:50.946359,7
2021-10-14 16:18:50.946368,16
2021-10-14 16:18:50.946376,24
2021-10-14 16:18:50.946384,4
2021-10-14 16:18:50.946393,-38
2021-10-14 16:18:50.946401,-57
2021-10-14 16:18:50.946410,-40
2021-10-14 16:18:50.946418,-28
2021-10-14 16:18:50.946426,-31
2021-10-14 16:18:50.946435,-28
2021-10-14 16:18:50.946443,-26
2021-10-14 16:18:50.946451,-33
2021-10-14 16:18:50.946459,-43
2021-10-14 16:18:50.946468,-31
2021-10-14 16:18:50.946476,-14
2021-10-14 16:18:50.946484,-14
2021-10-14 16:18:50.946492,28
2021-10-14 16:18:50.946501,242
2021-10-14 16:18:50.946509,613
2021-10-14 16:18:50.946517,714
2021-10-14 16:18:50.946526,28
2021-10-14 16:18:50.946534,-911
2021-10-14 16:18:50.946543,-964
2021-10-14 16:18:50.946551,-379
2021-10-14 16:18:51.306158,-115
2021-10-14 16:18:51.306179,-72
2021-10-14 16:18:51.306188,57
2021-10-14 16:18:51.306197,88
2021-10-14 16:18:51.306206,28
2021-10-14 16:18:51.306214,57
2021-10-14 16:18:51.306223,91
2021-10-14 16:18:51.306231,67
2021-10-14 16:18:51.306239,72
2021-10-14 16:18:51.306248,103
2021-10-14 16:18:51.306256,96
2021-10-14 16:18:51.306264,86
2021-10-14 16:18:51.306272,108
2021-10-14 16:18:51.306281,120
2021-10-14 16:18:51.306289,115
2021-10-14 16:18:51.306298,120
2021-10-14 16:18:51.306306,125
2021-10-14 16:18:51.306314,139
2021-10-14 16:18:51.306323,161
2021-10-14 16:18:51.306331,185
2021-10-14 16:18:51.306339,197
2021-10-14 16:18:51.306347,185
2021-10-14 16:18:51.306355,175
2021-10-14 16:18:51.306364,197
2021-10-14 16:18:51.306372,209
2021-10-14 16:18:51.306380,189
2021-10-14 16:18:51.306388,187
2021-10-14 16:18:51.306397,197
2021-10-14 16:18:51.306405,180
2021-10-14 16:18:51.306413,161
2021-10-14 16:18:51.396646,146
2021-10-14 16:18:51.396663,113
2021-10-14 16:18:51.396672,81
2021-10-14 16:18:51.396681,57
2021-10-14 16:18:51.396689,38
2021-10-14 16:18:51.396698,38
2021-10-14 16:18:51.396706,50
2021-10-14 16:18:51.396715,40
2021-10-14 16:18:51.396723,31
2021-10-14 16:18:51.396731,50
2021-10-14 16:18:51.396740,62
2021-10-14 16:18:51.396748,62
2021-10-14 16:18:51.396756,84
2021-10-14 16:18:51.396764,105
2021-10-14 16:18:51.396773,105
2021-10-14 16:18:51.396781,120
2021-10-14 16:18:51.396789,149
2021-10-14 16:18:51.396798,161
2021-10-14 16:18:51.396806,173
2021-10-14 16:18:51.396814,185
2021-10-14 16:18:51.396823,197
2021-10-14 16:18:51.396831,204
2021-10-14 16:18:51.396839,211
2021-10-14 16:18:51.396848,235
2021-10-14 16:18:51.396856,252
2021-10-14 16:18:51.396864,238
2021-10-14 16:18:51.396873,242
2021-10-14 16:18:51.396881,266
2021-10-14 16:18:51.396889,266
2021-10-14 16:18:51.396897,257
2021-10-14 16:18:51.666696,271
2021-10-14 16:18:51.666715,293
2021-10-14 16:18:51.666725,295
2021-10-14 16:18:51.666733,288
2021-10-14 16:18:51.666742,290
2021-10-14 16:18:51.666750,295
2021-10-14 16:18:51.666759,305
2021-10-14 16:18:51.666767,319
2021-10-14 16:18:51.666776,324
2021-10-14 16:18:51.666784,307
2021-10-14 16:18:51.666792,310
2021-10-14 16:18:51.666801,336
2021-10-14 16:18:51.666809,339
2021-10-14 16:18:51.666817,315
2021-10-14 16:18:51.666825,310
2021-10-14 16:18:51.666833,329
2021-10-14 16:18:51.666842,343
2021-10-14 16:18:51.666850,348
2021-10-14 16:18:51.666858,355
2021-10-14 16:18:51.666866,360
2021-10-14 16:18:51.666875,343
2021-10-14 16:18:51.666883,331
2021-10-14 16:18:51.666891,351
2021-10-14 16:18:51.666900,360
2021-10-14 16:18:51.666908,343
2021-10-14 16:18:51.666916,346
2021-10-14 16:18:51.666924,355
2021-10-14 16:18:51.666933,346
2021-10-14 16:18:51.666941,343
2021-10-14 16:18:51.666950,348
2021-10-14 16:18:51.891677,343
2021-10-14 16:18:51.891696,334
2021-10-14 16:18:51.891705,336
2021-10-14 16:18:51.891714,336
2021-10-14 16:18:51.891723,339
2021-10-14 16:18:51.891731,351
2021-10-14 16:18:51.891740,358
2021-10-14 16:18:51.891748,358
2021-10-14 16:18:51.891756,346
2021-10-14 16:18:51.891765,312
2021-10-14 16:18:51.891773,288
2021-10-14 16:18:51.891782,283
2021-10-14 16:18:51.891790,269
2021-10-14 16:18:51.891799,250
2021-10-14 16:18:51.891807,245
2021-10-14 16:18:51.891816,240
2021-10-14 16:18:51.891824,238
2021-10-14 16:18:51.891832,245
2021-10-14 16:18:51.891841,238
2021-10-14 16:18:51.891849,223
2021-10-14 16:18:51.891857,228
2021-10-14 16:18:51.891866,240
2021-10-14 16:18:51.891874,276
2021-10-14 16:18:51.891883,459
2021-10-14 16:18:51.891891,795
2021-10-14 16:18:51.891899,909
2021-10-14 16:18:51.891908,327
2021-10-14 16:18:51.891916,-543
2021-10-14 16:18:51.891924,-685
2021-10-14 16:18:51.891933,-216
2021-10-14 16:18:52.160823,55
2021-10-14 16:18:52.160844,117
2021-10-14 16:18:52.160853,216
2021-10-14 16:18:52.160862,250
2021-10-14 16:18:52.160870,221
2021-10-14 16:18:52.160879,235
2021-10-14 16:18:52.160887,257
2021-10-14 16:18:52.160896,240
2021-10-14 16:18:52.160904,228
2021-10-14 16:18:52.160913,230
2021-10-14 16:18:52.160921,228
2021-10-14 16:18:52.160929,226
2021-10-14 16:18:52.160938,230
2021-10-14 16:18:52.160947,230
2021-10-14 16:18:52.160955,221
2021-10-14 16:18:52.160963,204
2021-10-14 16:18:52.160972,199
2021-10-14 16:18:52.160980,216
2021-10-14 16:18:52.160988,226
2021-10-14 16:18:52.160996,221
2021-10-14 16:18:52.161005,223
2021-10-14 16:18:52.161013,238
2021-10-14 16:18:52.161021,245
2021-10-14 16:18:52.161030,247
2021-10-14 16:18:52.161038,245
2021-10-14 16:18:52.161046,240
2021-10-14 16:18:52.161055,226
2021-10-14 16:18:52.161063,202
2021-10-14 16:18:52.161071,177
2021-10-14 16:18:52.161080,151
2021-10-14 16:18:52.341350,122
2021-10-14 16:18:52.341369,96
2021-10-14 16:18:52.341378,57
2021-10-14 16:18:52.341387,24
2021-10-14 16:18:52.341396,12
2021-10-14 16:18:52.341404,-2
2021-10-14 16:18:52.341413,-26
2021-10-14 16:18:52.341421,-38
2021-10-14 16:18:52.341430,-36
2021-10-14 16:18:52.341438,-36
2021-10-14 16:18:52.341447,-40
2021-10-14 16:18:52.341455,-40
2021-10-14 16:18:52.341463,-45
2021-10-14 16:18:52.341472,-52
2021-10-14 16:18:52.341480,-48
2021-10-14 16:18:52.341488,-38
2021-10-14 16:18:52.341496,-43
2021-10-14 16:18:52.341505,-50
2021-10-14 16:18:52.341513,-43
2021-10-14 16:18:52.341522,-26
2021-10-14 16:18:52.341530,-21
2021-10-14 16:18:52.341538,-28
2021-10-14 16:18:52.341547,-31
2021-10-14 16:18:52.341555,-24
2021-10-14 16:18:52.341563,-9
2021-10-14 16:18:52.341572,-7
2021-10-14 16:18:52.341580,-7
2021-10-14 16:18:52.341589,-7
2021-10-14 16:18:52.341597,-7
2021-10-14 16:18:52.341605,-14
2021-10-14 16:18:52.610379,-26
2021-10-14 16:18:52.610398,-24
2021-10-14 16:18:52.610408,-12
2021-10-14 16:18:52.610417,-9
2021-10-14 16:18:52.610425,-16
2021-10-14 16:18:52.610433,-26
2021-10-14 16:18:52.610442,-45
2021-10-14 16:18:52.610450,-50
2021-10-14 16:18:52.610458,-38
2021-10-14 16:18:52.610467,-31
2021-10-14 16:18:52.610475,-38
2021-10-14 16:18:52.610483,-48
2021-10-14 16:18:52.610491,-43
2021-10-14 16:18:52.610500,-26
2021-10-14 16:18:52.610508,-28
2021-10-14 16:18:52.610516,-52
2021-10-14 16:18:52.610525,-55
2021-10-14 16:18:52.610533,-38
2021-10-14 16:18:52.610541,-36
2021-10-14 16:18:52.610549,-40
2021-10-14 16:18:52.610557,-40
2021-10-14 16:18:52.610566,-31
2021-10-14 16:18:52.610574,-21
2021-10-14 16:18:52.610582,-24
2021-10-14 16:18:52.610590,-31
2021-10-14 16:18:52.610598,-28
2021-10-14 16:18:52.610606,-21
2021-10-14 16:18:52.610615,-9
2021-10-14 16:18:52.610623,7
2021-10-14 16:18:52.610631,0
2021-10-14 16:18:52.836319,-4
2021-10-14 16:18:52.836338,19
2021-10-14 16:18:52.836347,21
2021-10-14 16:18:52.836356,-9
2021-10-14 16:18:52.836364,-36
2021-10-14 16:18:52.836373,-45
2021-10-14 16:18:52.836381,-40
2021-10-14 16:18:52.836389,-28
2021-10-14 16:18:52.836398,-28
2021-10-14 16:18:52.836406,-31
2021-10-14 16:18:52.836414,-26
2021-10-14 16:18:52.836422,-38
2021-10-14 16:18:52.836431,-55
2021-10-14 16:18:52.836439,-33
2021-10-14 16:18:52.836451,-14
2021-10-14 16:18:52.836459,19
2021-10-14 16:18:52.836467,199
2021-10-14 16:18:52.836475,569
2021-10-14 16:18:52.836484,743
2021-10-14 16:18:52.836492,175
2021-10-14 16:18:52.836501,-786
2021-10-14 16:18:52.836509,-1017
2021-10-14 16:18:52.836517,-509
2021-10-14 16:18:52.836526,-192
2021-10-14 16:18:52.836534,-137
2021-10-14 16:18:52.836542,-9
2021-10-14 16:18:52.836550,55
2021-10-14 16:18:52.836559,21
2021-10-14 16:18:52.836567,43
2021-10-14 16:18:52.836576,74
2021-10-14 16:18:53.061463,57
2021-10-14 16:18:53.061485,60
2021-10-14 16:18:53.061495,84
2021-10-14 16:18:53.061504,81
2021-10-14 16:18:53.061512,74
2021-10-14 16:18:53.061521,69
2021-10-14 16:18:53.061529,69
2021-10-14 16:18:53.061538,79
2021-10-14 16:18:53.061546,84
2021-10-14 16:18:53.061554,81
2021-10-14 16:18:53.061563,79
2021-10-14 16:18:53.061571,91
2021-10-14 16:18:53.061579,101
2021-10-14 16:18:53.061588,101
2021-10-14 16:18:53.061596,98
2021-10-14 16:18:53.061604,110
2021-10-14 16:18:53.061613,117
2021-10-14 16:18:53.061621,101
2021-10-14 16:18:53.061629,86
2021-10-14 16:18:53.061638,79
2021-10-14 16:18:53.061646,57
2021-10-14 16:18:53.061655,21
2021-10-14 16:18:53.061663,-7
2021-10-14 16:18:53.061671,-33
2021-10-14 16:18:53.061680,-74
2021-10-14 16:18:53.061688,-108
2021-10-14 16:18:53.061696,-127
2021-10-14 16:18:53.061705,-149
2021-10-14 16:18:53.061713,-170
2021-10-14 16:18:53.061721,-187
2021-10-14 16:18:53.420780,-187
2021-10-14 16:18:53.420801,-177
2021-10-14 16:18:53.420810,-182
2021-10-14 16:18:53.420819,-189
2021-10-14 16:18:53.420827,-185
2021-10-14 16:18:53.420836,-182
2021-10-14 16:18:53.420844,-182
2021-10-14 16:18:53.420852,-168
2021-10-14 16:18:53.420861,-156
2021-10-14 16:18:53.420869,-163
2021-10-14 16:18:53.420878,-177
2021-10-14 16:18:53.420886,-168
2021-10-14 16:18:53.420895,-146
2021-10-14 16:18:53.420903,-137
2021-10-14 16:18:53.420911,-139
2021-10-14 16:18:53.420919,-144
2021-10-14 16:18:53.420928,-144
2021-10-14 16:18:53.420936,-132
2021-10-14 16:18:53.420944,-122
2021-10-14 16:18:53.420952,-129
2021-10-14 16:18:53.420961,-129
2021-10-14 16:18:53.420969,-115
2021-10-14 16:18:53.420978,-115
2021-10-14 16:18:53.420986,-129
2021-10-14 16:18:53.420994,-137
2021-10-14 16:18:53.421002,-125
2021-10-14 16:18:53.421011,-120
2021-10-14 16:18:53.421019,-132
2021-10-14 16:18:53.421027,-132
2021-10-14 16:18:53.421035,-122
2021-10-14 16:18:53.511694,-125
2021-10-14 16:18:53.511713,-134
2021-10-14 16:18:53.511722,-134
2021-10-14 16:18:53.511731,-134
2021-10-14 16:18:53.511739,-129
2021-10-14 16:18:53.511748,-113
2021-10-14 16:18:53.511756,-103
2021-10-14 16:18:53.511765,-110
2021-10-14 16:18:53.511773,-125
2021-10-14 16:18:53.511781,-129
2021-10-14 16:18:53.511790,-117
2021-10-14 16:18:53.511798,-110
2021-10-14 16:18:53.511806,-117
2021-10-14 16:18:53.511814,-120
2021-10-14 16:18:53.511822,-115
2021-10-14 16:18:53.511831,-120
2021-10-14 16:18:53.511839,-120
2021-10-14 16:18:53.511847,-110
2021-10-14 16:18:53.511855,-101
2021-10-14 16:18:53.511864,-98
2021-10-14 16:18:53.511872,-105
2021-10-14 16:18:53.511880,-110
2021-10-14 16:18:53.511888,-86
2021-10-14 16:18:53.511896,-74
2021-10-14 16:18:53.511904,-101
2021-10-14 16:18:53.511912,-125
2021-10-14 16:18:53.511921,-125
2021-10-14 16:18:53.511929,-122
2021-10-14 16:18:53.511937,-129
2021-10-14 16:18:53.511945,-129
2021-10-14 16:18:53.781724,-120
2021-10-14 16:18:53.781744,-113
2021-10-14 16:18:53.781754,-117
2021-10-14 16:18:53.781762,-113
2021-10-14 16:18:53.781771,-96
2021-10-14 16:18:53.781779,-86
2021-10-14 16:18:53.781787,-36
2021-10-14 16:18:53.781796,187
2021-10-14 16:18:53.781804,545
2021-10-14 16:18:53.781812,589
2021-10-14 16:18:53.781821,-115
2021-10-14 16:18:53.781829,-1022
2021-10-14 16:18:53.781838,-1048
2021-10-14 16:18:53.781846,-444
2021-10-14 16:18:53.781854,-180
2021-10-14 16:18:53.781862,-168
2021-10-14 16:18:53.781871,-55
2021-10-14 16:18:53.781879,0
2021-10-14 16:18:53.781888,-33
2021-10-14 16:18:53.781896,-24
2021-10-14 16:18:53.781904,-7
2021-10-14 16:18:53.781913,-4
2021-10-14 16:18:53.781921,14
2021-10-14 16:18:53.781929,26
2021-10-14 16:18:53.781938,24
2021-10-14 16:18:53.781946,16
2021-10-14 16:18:53.781954,16
2021-10-14 16:18:53.781963,26
2021-10-14 16:18:53.781971,36
2021-10-14 16:18:53.781979,45
2021-10-14 16:18:53.961352,48
2021-10-14 16:18:53.961371,57
2021-10-14 16:18:53.961381,72
2021-10-14 16:18:53.961389,81
2021-10-14 16:18:53.961397,101
2021-10-14 16:18:53.961406,110
2021-10-14 16:18:53.961414,93
2021-10-14 16:18:53.961423,88
2021-10-14 16:18:53.961431,98
2021-10-14 16:18:53.961440,91
2021-10-14 16:18:53.961448,69
2021-10-14 16:18:53.961456,52
2021-10-14 16:18:53.961465,38
2021-10-14 16:18:53.961473,2
2021-10-14 16:18:53.961481,-55
2021-10-14 16:18:53.961490,-93
2021-10-14 16:18:53.961498,-101
2021-10-14 16:18:53.961506,-129
2021-10-14 16:18:53.961515,-177
2021-10-14 16:18:53.961523,-194
2021-10-14 16:18:53.961531,-192
2021-10-14 16:18:53.961540,-199
2021-10-14 16:18:53.961548,-216
2021-10-14 16:18:53.961556,-216
2021-10-14 16:18:53.961565,-197
2021-10-14 16:18:53.961573,-192
2021-10-14 16:18:53.961581,-202
2021-10-14 16:18:53.961589,-197
2021-10-14 16:18:53.961598,-182
2021-10-14 16:18:53.961606,-180
2021-10-14 16:18:54.186817,-180
2021-10-14 16:18:54.186838,-170
2021-10-14 16:18:54.186847,-161
2021-10-14 16:18:54.186856,-151
2021-10-14 16:18:54.186864,-144
2021-10-14 16:18:54.186873,-137
2021-10-14 16:18:54.186881,-137
2021-10-14 16:18:54.186889,-137
2021-10-14 16:18:54.186898,-127
2021-10-14 16:18:54.186906,-120
2021-10-14 16:18:54.186914,-127
2021-10-14 16:18:54.186922,-127
2021-10-14 16:18:54.186931,-115
2021-10-14 16:18:54.186939,-115
2021-10-14 16:18:54.186947,-120
2021-10-14 16:18:54.186956,-122
2021-10-14 16:18:54.186964,-120
2021-10-14 16:18:54.186972,-115
2021-10-14 16:18:54.186981,-120
2021-10-14 16:18:54.186989,-125
2021-10-14 16:18:54.186997,-110
2021-10-14 16:18:54.187006,-96
2021-10-14 16:18:54.187014,-101
2021-10-14 16:18:54.187022,-103
2021-10-14 16:18:54.187030,-101
2021-10-14 16:18:54.187039,-93
2021-10-14 16:18:54.187047,-84
2021-10-14 16:18:54.187055,-88
2021-10-14 16:18:54.187064,-96
2021-10-14 16:18:54.187072,-84
2021-10-14 16:18:54.456750,-74
2021-10-14 16:18:54.456770,-81
2021-10-14 16:18:54.456779,-86
2021-10-14 16:18:54.456788,-84
2021-10-14 16:18:54.456796,-88
2021-10-14 16:18:54.456805,-79
2021-10-14 16:18:54.456813,-69
2021-10-14 16:18:54.456822,-67
2021-10-14 16:18:54.456830,-57
2021-10-14 16:18:54.456838,-43
2021-10-14 16:18:54.456847,-38
2021-10-14 16:18:54.456855,-55
2021-10-14 16:18:54.456863,-84
2021-10-14 16:18:54.456872,-88
2021-10-14 16:18:54.456880,-81
2021-10-14 16:18:54.456888,-91
2021-10-14 16:18:54.456897,-84
2021-10-14 16:18:54.456905,-64
2021-10-14 16:18:54.456913,-76
2021-10-14 16:18:54.456922,-79
2021-10-14 16:18:54.456930,-55
2021-10-14 16:18:54.456938,-52
2021-10-14 16:18:54.456947,-74
2021-10-14 16:18:54.456955,-64
2021-10-14 16:18:54.456963,16
2021-10-14 16:18:54.456972,242
2021-10-14 16:18:54.456980,586
2021-10-14 16:18:54.456989,610
2021-10-14 16:18:54.456997,-110
2021-10-14 16:18:54.457005,-978
2021-10-14 16:18:54.679985,-964
2021-10-14 16:18:54.680003,-387
2021-10-14 16:18:54.680013,-125
2021-10-14 16:18:54.680021,-88
2021-10-14 16:18:54.680030,4
2021-10-14 16:18:54.680039,36
2021-10-14 16:18:54.680047,4
2021-10-14 16:18:54.680055,24
2021-10-14 16:18:54.680064,43
2021-10-14 16:18:54.680072,28
2021-10-14 16:18:54.680081,28
2021-10-14 16:18:54.680089,38
2021-10-14 16:18:54.680098,38
2021-10-14 16:18:54.680106,48
2021-10-14 16:18:54.680115,62
2021-10-14 16:18:54.680123,64
2021-10-14 16:18:54.680131,62
2021-10-14 16:18:54.680139,62
2021-10-14 16:18:54.680148,69
2021-10-14 16:18:54.680156,84
2021-10-14 16:18:54.680164,96
2021-10-14 16:18:54.680173,108
2021-10-14 16:18:54.680181,117
2021-10-14 16:18:54.680189,122
2021-10-14 16:18:54.680198,132
2021-10-14 16:18:54.680206,141
2021-10-14 16:18:54.680214,141
2021-10-14 16:18:54.680222,127
2021-10-14 16:18:54.680231,108
2021-10-14 16:18:54.680239,96
2021-10-14 16:18:54.906730,81
2021-10-14 16:18:54.906749,55
2021-10-14 16:18:54.906758,31
2021-10-14 16:18:54.906767,7
2021-10-14 16:18:54.906775,-26
2021-10-14 16:18:54.906784,-64
2021-10-14 16:18:54.906792,-88
2021-10-14 16:18:54.906801,-108
2021-10-14 16:18:54.906809,-125
2021-10-14 16:18:54.906817,-129
2021-10-14 16:18:54.906825,-132
2021-10-14 16:18:54.906834,-139
2021-10-14 16:18:54.906842,-137
2021-10-14 16:18:54.906850,-132
2021-10-14 16:18:54.906858,-141
2021-10-14 16:18:54.906867,-146
2021-10-14 16:18:54.906875,-132
2021-10-14 16:18:54.906883,-127
2021-10-14 16:18:54.906891,-129
2021-10-14 16:18:54.906900,-122
2021-10-14 16:18:54.906908,-113
2021-10-14 16:18:54.906916,-108
2021-10-14 16:18:54.906924,-103
2021-10-14 16:18:54.906933,-98
2021-10-14 16:18:54.906941,-101
2021-10-14 16:18:54.906949,-93
2021-10-14 16:18:54.906957,-81
2021-10-14 16:18:54.906966,-76
2021-10-14 16:18:54.906974,-81
2021-10-14 16:18:54.906982,-84
2021-10-14 16:18:55.086826,-76
2021-10-14 16:18:55.086849,-62
2021-10-14 16:18:55.086859,-72
2021-10-14 16:18:55.086867,-98
2021-10-14 16:18:55.086876,-113
2021-10-14 16:18:55.086884,-103
2021-10-14 16:18:55.086893,-93
2021-10-14 16:18:55.086901,-91
2021-10-14 16:18:55.086909,-96
2021-10-14 16:18:55.086918,-98
2021-10-14 16:18:55.086926,-96
2021-10-14 16:18:55.086934,-91
2021-10-14 16:18:55.086943,-81
2021-10-14 16:18:55.086951,-69
2021-10-14 16:18:55.086959,-69
2021-10-14 16:18:55.086968,-76
2021-10-14 16:18:55.086976,-79
2021-10-14 16:18:55.086984,-64
2021-10-14 16:18:55.086993,-55
2021-10-14 16:18:55.087001,-60
2021-10-14 16:18:55.087010,-74
2021-10-14 16:18:55.087018,-67
2021-10-14 16:18:55.087026,-52
2021-10-14 16:18:55.087035,-40
2021-10-14 16:18:55.087043,-24
2021-10-14 16:18:55.087051,-7
2021-10-14 16:18:55.087060,-12
2021-10-14 16:18:55.087068,-40
2021-10-14 16:18:55.087076,-55
2021-10-14 16:18:55.087085,-52
2021-10-14 16:18:55.491402,-50
2021-10-14 16:18:55.491422,-52
2021-10-14 16:18:55.491431,-57
2021-10-14 16:18:55.491440,-67
2021-10-14 16:18:55.491448,-62
2021-10-14 16:18:55.491457,-52
2021-10-14 16:18:55.491465,-48
2021-10-14 16:18:55.491473,-36
2021-10-14 16:18:55.491481,-21
2021-10-14 16:18:55.491490,7
2021-10-14 16:18:55.491498,175
2021-10-14 16:18:55.491506,521
2021-10-14 16:18:55.491515,658
2021-10-14 16:18:55.491523,76
2021-10-14 16:18:55.491531,-832
2021-10-14 16:18:55.491540,-1005
2021-10-14 16:18:55.491548,-500
2021-10-14 16:18:55.491556,-180
2021-10-14 16:18:55.491564,-103
2021-10-14 16:18:55.491576,9
2021-10-14 16:18:55.491584,62
2021-10-14 16:18:55.491593,28
2021-10-14 16:18:55.491601,36
2021-10-14 16:18:55.491609,55
2021-10-14 16:18:55.491617,52
2021-10-14 16:18:55.491626,67
2021-10-14 16:18:55.491634,81
2021-10-14 16:18:55.491642,84
2021-10-14 16:18:55.491651,101
2021-10-14 16:18:55.491659,115
2021-10-14 16:18:55.626102,115
2021-10-14 16:18:55.626121,115
2021-10-14 16:18:55.626130,117
2021-10-14 16:18:55.626139,127
2021-10-14 16:18:55.626147,146
2021-10-14 16:18:55.626156,163
2021-10-14 16:18:55.626164,165
2021-10-14 16:18:55.626173,170
2021-10-14 16:18:55.626181,175
2021-10-14 16:18:55.626189,177
2021-10-14 16:18:55.626198,182
2021-10-14 16:18:55.626206,177
2021-10-14 16:18:55.626215,168
2021-10-14 16:18:55.626223,158
2021-10-14 16:18:55.626231,132
2021-10-14 16:18:55.626240,103
2021-10-14 16:18:55.626248,84
2021-10-14 16:18:55.626257,60
2021-10-14 16:18:55.626265,19
2021-10-14 16:18:55.626273,-14
2021-10-14 16:18:55.626282,-36
2021-10-14 16:18:55.626290,-57
2021-10-14 16:18:55.626298,-79
2021-10-14 16:18:55.626307,-86
2021-10-14 16:18:55.626315,-84
2021-10-14 16:18:55.626323,-88
2021-10-14 16:18:55.626332,-105
2021-10-14 16:18:55.626340,-110
2021-10-14 16:18:55.626348,-96
2021-10-14 16:18:55.626357,-88
2021-10-14 16:18:55.851235,-84
2021-10-14 16:18:55.851254,-79
2021-10-14 16:18:55.851263,-84
2021-10-14 16:18:55.851272,-84
2021-10-14 16:18:55.851280,-72
2021-10-14 16:18:55.851288,-57
2021-10-14 16:18:55.851297,-55
2021-10-14 16:18:55.851305,-64
2021-10-14 16:18:55.851313,-72
2021-10-14 16:18:55.851322,-64
2021-10-14 16:18:55.851330,-57
2021-10-14 16:18:55.851338,-64
2021-10-14 16:18:55.851347,-67
2021-10-14 16:18:55.851355,-64
2021-10-14 16:18:55.851363,-79
2021-10-14 16:18:55.851371,-96
2021-10-14 16:18:55.851379,-101
2021-10-14 16:18:55.851388,-96
2021-10-14 16:18:55.851396,-93
2021-10-14 16:18:55.851404,-93
2021-10-14 16:18:55.851412,-96
2021-10-14 16:18:55.851421,-101
2021-10-14 16:18:55.851429,-96
2021-10-14 16:18:55.851437,-84
2021-10-14 16:18:55.851445,-84
2021-10-14 16:18:55.851453,-86
2021-10-14 16:18:55.851462,-79
2021-10-14 16:18:55.851470,-74
2021-10-14 16:18:55.851478,-72
2021-10-14 16:18:55.851487,-62
2021-10-14 16:18:56.031291,-50
2021-10-14 16:18:56.031309,-45
2021-10-14 16:18:56.031318,-48
2021-10-14 16:18:56.031327,-38
2021-10-14 16:18:56.031336,-38
2021-10-14 16:18:56.031344,-60
2021-10-14 16:18:56.031352,-72
2021-10-14 16:18:56.031361,-69
2021-10-14 16:18:56.031369,-69
2021-10-14 16:18:56.031377,-64
2021-10-14 16:18:56.031385,-62
2021-10-14 16:18:56.031394,-62
2021-10-14 16:18:56.031402,-57
2021-10-14 16:18:56.031410,-64
2021-10-14 16:18:56.031418,-74
2021-10-14 16:18:56.031426,-76
2021-10-14 16:18:56.031435,-50
2021-10-14 16:18:56.031443,48
2021-10-14 16:18:56.031451,319
2021-10-14 16:18:56.031459,670
2021-10-14 16:18:56.031468,521
2021-10-14 16:18:56.031476,-432
2021-10-14 16:18:56.031484,-1178
2021-10-14 16:18:56.031493,-851
2021-10-14 16:18:56.031501,-310
2021-10-14 16:18:56.031509,-197
2021-10-14 16:18:56.031517,-91
2021-10-14 16:18:56.031526,55
2021-10-14 16:18:56.031534,45
2021-10-14 16:18:56.031542,26
2021-10-14 16:18:56.256807,64
2021-10-14 16:18:56.256827,74
2021-10-14 16:18:56.256837,69
2021-10-14 16:18:56.256845,81
2021-10-14 16:18:56.256854,91
2021-10-14 16:18:56.256862,93
2021-10-14 16:18:56.256871,91
2021-10-14 16:18:56.256879,103
2021-10-14 16:18:56.256887,113
2021-10-14 16:18:56.256896,105
2021-10-14 16:18:56.256904,110
2021-10-14 16:18:56.256912,129
2021-10-14 16:18:56.256921,137
2021-10-14 16:18:56.256929,144
2021-10-14 16:18:56.256937,165
2021-10-14 16:18:56.256946,182
2021-10-14 16:18:56.256954,189
2021-10-14 16:18:56.256962,194
2021-10-14 16:18:56.256971,192
2021-10-14 16:18:56.256979,185
2021-10-14 16:18:56.256987,165
2021-10-14 16:18:56.256996,139
2021-10-14 16:18:56.257004,117
2021-10-14 16:18:56.257012,96
2021-10-14 16:18:56.257021,62
2021-10-14 16:18:56.257029,19
2021-10-14 16:18:56.257037,-16
2021-10-14 16:18:56.257045,-38
2021-10-14 16:18:56.257053,-60
2021-10-14 16:18:56.257062,-93
2021-10-14 16:18:56.526792,-108
2021-10-14 16:18:56.526811,-101
2021-10-14 16:18:56.526821,-101
2021-10-14 16:18:56.526829,-108
2021-10-14 16:18:56.526838,-101
2021-10-14 16:18:56.526846,-98
2021-10-14 16:18:56.526855,-105
2021-10-14 16:18:56.526863,-93
2021-10-14 16:18:56.526872,-81
2021-10-14 16:18:56.526880,-91
2021-10-14 16:18:56.526888,-86
2021-10-14 16:18:56.526897,-76
2021-10-14 16:18:56.526905,-76
2021-10-14 16:18:56.526913,-69
2021-10-14 16:18:56.526921,-55
2021-10-14 16:18:56.526930,-55
2021-10-14 16:18:56.526938,-55
2021-10-14 16:18:56.526947,-48
2021-10-14 16:18:56.526955,-40
2021-10-14 16:18:56.526963,-33
2021-10-14 16:18:56.526972,-48
2021-10-14 16:18:56.526980,-74
2021-10-14 16:18:56.526988,-72
2021-10-14 16:18:56.526996,-62
2021-10-14 16:18:56.527005,-67
2021-10-14 16:18:56.527013,-60
2021-10-14 16:18:56.527021,-50
2021-10-14 16:18:56.527029,-52
2021-10-14 16:18:56.527038,-55
2021-10-14 16:18:56.527046,-52
2021-10-14 16:18:56.750022,-50
2021-10-14 16:18:56.750041,-52
2021-10-14 16:18:56.750050,-55
2021-10-14 16:18:56.750059,-57
2021-10-14 16:18:56.750067,-62
2021-10-14 16:18:56.750076,-67
2021-10-14 16:18:56.750084,-57
2021-10-14 16:18:56.750092,-40
2021-10-14 16:18:56.750101,-43
2021-10-14 16:18:56.750109,-50
2021-10-14 16:18:56.750118,-43
2021-10-14 16:18:56.750126,-45
2021-10-14 16:18:56.750135,-62
2021-10-14 16:18:56.750143,-76
2021-10-14 16:18:56.750151,-72
2021-10-14 16:18:56.750160,-67
2021-10-14 16:18:56.750168,-74
2021-10-14 16:18:56.750176,-76
2021-10-14 16:18:56.750185,-67
2021-10-14 16:18:56.750193,-64
2021-10-14 16:18:56.750201,-62
2021-10-14 16:18:56.750210,-52
2021-10-14 16:18:56.750218,-45
2021-10-14 16:18:56.750226,-21
2021-10-14 16:18:56.750234,110
2021-10-14 16:18:56.750243,468
2021-10-14 16:18:56.750251,764
2021-10-14 16:18:56.750259,336
2021-10-14 16:18:56.750268,-711
2021-10-14 16:18:56.750276,-1168
2021-10-14 16:18:57.066154,-649
2021-10-14 16:18:57.066173,-192
2021-10-14 16:18:57.066183,-144
2021-10-14 16:18:57.066191,-45
2021-10-14 16:18:57.066200,64
2021-10-14 16:18:57.066208,38
2021-10-14 16:18:57.066216,33
2021-10-14 16:18:57.066225,74
2021-10-14 16:18:57.066233,76
2021-10-14 16:18:57.066241,64
2021-10-14 16:18:57.066250,72
2021-10-14 16:18:57.066258,76
2021-10-14 16:18:57.066266,81
2021-10-14 16:18:57.066275,96
2021-10-14 16:18:57.066283,103
2021-10-14 16:18:57.066291,105
2021-10-14 16:18:57.066300,115
2021-10-14 16:18:57.066308,127
2021-10-14 16:18:57.066316,139
2021-10-14 16:18:57.066324,151
2021-10-14 16:18:57.066333,173
2021-10-14 16:18:57.066341,189
2021-10-14 16:18:57.066349,199
2021-10-14 16:18:57.066358,211
2021-10-14 16:18:57.066366,214
2021-10-14 16:18:57.066374,209
2021-10-14 16:18:57.066382,197
2021-10-14 16:18:57.066391,170
2021-10-14 16:18:57.066399,137
2021-10-14 16:18:57.066407,110
2021-10-14 16:18:57.246439,84
2021-10-14 16:18:57.246459,48
2021-10-14 16:18:57.246468,9
2021-10-14 16:18:57.246477,-21
2021-10-14 16:18:57.246486,-45
2021-10-14 16:18:57.246494,-64
2021-10-14 16:18:57.246502,-79
2021-10-14 16:18:57.246510,-84
2021-10-14 16:18:57.246519,-91
2021-10-14 16:18:57.246527,-108
2021-10-14 16:18:57.246536,-108
2021-10-14 16:18:57.246544,-96
2021-10-14 16:18:57.246552,-101
2021-10-14 16:18:57.246560,-98
2021-10-14 16:18:57.246569,-91
2021-10-14 16:18:57.246577,-86
2021-10-14 16:18:57.246585,-79
2021-10-14 16:18:57.246593,-60
2021-10-14 16:18:57.246602,-45
2021-10-14 16:18:57.246610,-48
2021-10-14 16:18:57.246618,-55
2021-10-14 16:18:57.246627,-50
2021-10-14 16:18:57.246635,-33
2021-10-14 16:18:57.246643,-26
2021-10-14 16:18:57.246651,-26
2021-10-14 16:18:57.246660,-16
2021-10-14 16:18:57.246668,-14
2021-10-14 16:18:57.246676,-24
2021-10-14 16:18:57.246685,-31
2021-10-14 16:18:57.246693,-28
2021-10-14 16:18:57.426421,-26
2021-10-14 16:18:57.426439,-28
2021-10-14 16:18:57.426449,-28
2021-10-14 16:18:57.426457,-26
2021-10-14 16:18:57.426466,-31
2021-10-14 16:18:57.426474,-36
2021-10-14 16:18:57.426482,-36
2021-10-14 16:18:57.426491,-24
2021-10-14 16:18:57.426499,-19
2021-10-14 16:18:57.426507,-24
2021-10-14 16:18:57.426516,-24
2021-10-14 16:18:57.426524,-14
2021-10-14 16:18:57.426532,-9
2021-10-14 16:18:57.426540,-14
2021-10-14 16:18:57.426549,-24
2021-10-14 16:18:57.426557,-31
2021-10-14 16:18:57.426565,-28
2021-10-14 16:18:57.426574,-16
2021-10-14 16:18:57.426582,-4
2021-10-14 16:18:57.426590,2
2021-10-14 16:18:57.426599,9
2021-10-14 16:18:57.426607,9
2021-10-14 16:18:57.426615,-12
2021-10-14 16:18:57.426623,-38
2021-10-14 16:18:57.426632,-45
2021-10-14 16:18:57.426640,-43
2021-10-14 16:18:57.426648,-45
2021-10-14 16:18:57.426656,-40
2021-10-14 16:18:57.426664,-38
2021-10-14 16:18:57.426673,-38
2021-10-14 16:18:57.696775,-57
2021-10-14 16:18:57.696794,-76
2021-10-14 16:18:57.696803,-69
2021-10-14 16:18:57.696812,-60
2021-10-14 16:18:57.696821,-50
2021-10-14 16:18:57.696829,76
2021-10-14 16:18:57.696837,442
2021-10-14 16:18:57.696846,764
2021-10-14 16:18:57.696854,404
2021-10-14 16:18:57.696863,-622
2021-10-14 16:18:57.696871,-1171
2021-10-14 16:18:57.696879,-709
2021-10-14 16:18:57.696888,-206
2021-10-14 16:18:57.696896,-144
2021-10-14 16:18:57.696904,-74
2021-10-14 16:18:57.696912,36
2021-10-14 16:18:57.696921,16
2021-10-14 16:18:57.696929,4
2021-10-14 16:18:57.696938,52
2021-10-14 16:18:57.696946,62
2021-10-14 16:18:57.696954,52
2021-10-14 16:18:57.696962,62
2021-10-14 16:18:57.696971,67
2021-10-14 16:18:57.696979,69
2021-10-14 16:18:57.696987,81
2021-10-14 16:18:57.696996,96
2021-10-14 16:18:57.697004,103
2021-10-14 16:18:57.697013,108
2021-10-14 16:18:57.697021,120
2021-10-14 16:18:57.697029,137
2021-10-14 16:18:57.921383,151
2021-10-14 16:18:57.921403,158
2021-10-14 16:18:57.921412,165
2021-10-14 16:18:57.921420,182
2021-10-14 16:18:57.921429,202
2021-10-14 16:18:57.921437,214
2021-10-14 16:18:57.921445,211
2021-10-14 16:18:57.921454,189
2021-10-14 16:18:57.921462,168
2021-10-14 16:18:57.921470,151
2021-10-14 16:18:57.921479,127
2021-10-14 16:18:57.921487,98
2021-10-14 16:18:57.921496,69
2021-10-14 16:18:57.921504,31
2021-10-14 16:18:57.921512,-7
2021-10-14 16:18:57.921521,-33
2021-10-14 16:18:57.921529,-55
2021-10-14 16:18:57.921537,-76
2021-10-14 16:18:57.921545,-93
2021-10-14 16:18:57.921554,-103
2021-10-14 16:18:57.921562,-105
2021-10-14 16:18:57.921570,-96
2021-10-14 16:18:57.921579,-91
2021-10-14 16:18:57.921587,-96
2021-10-14 16:18:57.921595,-101
2021-10-14 16:18:57.921603,-98
2021-10-14 16:18:57.921612,-91
2021-10-14 16:18:57.921620,-76
2021-10-14 16:18:57.921628,-62
2021-10-14 16:18:57.921637,-57
2021-10-14 16:18:58.146453,-62
2021-10-14 16:18:58.146472,-52
2021-10-14 16:18:58.146481,-38
2021-10-14 16:18:58.146490,-40
2021-10-14 16:18:58.146499,-48
2021-10-14 16:18:58.146507,-40
2021-10-14 16:18:58.146515,-36
2021-10-14 16:18:58.146524,-40
2021-10-14 16:18:58.146532,-45
2021-10-14 16:18:58.146540,-43
2021-10-14 16:18:58.146549,-43
2021-10-14 16:18:58.146557,-40
2021-10-14 16:18:58.146565,-48
2021-10-14 16:18:58.146574,-60
2021-10-14 16:18:58.146582,-52
2021-10-14 16:18:58.146590,-40
2021-10-14 16:18:58.146598,-38
2021-10-14 16:18:58.146607,-48
2021-10-14 16:18:58.146615,-62
2021-10-14 16:18:58.146623,-60
2021-10-14 16:18:58.146632,-45
2021-10-14 16:18:58.146640,-43
2021-10-14 16:18:58.146649,-48
2021-10-14 16:18:58.146658,-40
2021-10-14 16:18:58.146667,-36
2021-10-14 16:18:58.146675,-33
2021-10-14 16:18:58.146683,-31
2021-10-14 16:18:58.146691,-21
2021-10-14 16:18:58.146700,-12
2021-10-14 16:18:58.146708,-7
2021-10-14 16:18:58.326806,7
2021-10-14 16:18:58.326826,7
2021-10-14 16:18:58.326835,-21
2021-10-14 16:18:58.326844,-38
2021-10-14 16:18:58.326853,-33
2021-10-14 16:18:58.326864,-36
2021-10-14 16:18:58.326872,-43
2021-10-14 16:18:58.326881,-38
2021-10-14 16:18:58.326889,-38
2021-10-14 16:18:58.326897,-38
2021-10-14 16:18:58.326906,-36
2021-10-14 16:18:58.326914,-43
2021-10-14 16:18:58.326922,-45
2021-10-14 16:18:58.326931,-31
2021-10-14 16:18:58.326939,33
2021-10-14 16:18:58.326947,262
2021-10-14 16:18:58.326956,658
2021-10-14 16:18:58.326964,723
2021-10-14 16:18:58.326972,-72
2021-10-14 16:18:58.326980,-1058
2021-10-14 16:18:58.326989,-1060
2021-10-14 16:18:58.326997,-456
2021-10-14 16:18:58.327005,-209
2021-10-14 16:18:58.327013,-163
2021-10-14 16:18:58.327022,-9
2021-10-14 16:18:58.327030,57
2021-10-14 16:18:58.327038,26
2021-10-14 16:18:58.327046,45
2021-10-14 16:18:58.327055,67
2021-10-14 16:18:58.327063,45
2021-10-14 16:18:58.596424,60
2021-10-14 16:18:58.596443,96
2021-10-14 16:18:58.596452,91
2021-10-14 16:18:58.596461,79
2021-10-14 16:18:58.596469,91
2021-10-14 16:18:58.596478,93
2021-10-14 16:18:58.596486,91
2021-10-14 16:18:58.596494,117
2021-10-14 16:18:58.596503,132
2021-10-14 16:18:58.596511,125
2021-10-14 16:18:58.596519,129
2021-10-14 16:18:58.596528,146
2021-10-14 16:18:58.596536,158
2021-10-14 16:18:58.596544,168
2021-10-14 16:18:58.596552,177
2021-10-14 16:18:58.596561,185
2021-10-14 16:18:58.596569,182
2021-10-14 16:18:58.596577,177
2021-10-14 16:18:58.596585,163
2021-10-14 16:18:58.596594,132
2021-10-14 16:18:58.596602,96
2021-10-14 16:18:58.596615,62
2021-10-14 16:18:58.596623,21
2021-10-14 16:18:58.596632,-24
2021-10-14 16:18:58.596640,-64
2021-10-14 16:18:58.596648,-93
2021-10-14 16:18:58.596657,-108
2021-10-14 16:18:58.596665,-110
2021-10-14 16:18:58.596673,-125
2021-10-14 16:18:58.596681,-137
2021-10-14 16:18:58.821044,-134
2021-10-14 16:18:58.821062,-127
2021-10-14 16:18:58.821072,-129
2021-10-14 16:18:58.821080,-149
2021-10-14 16:18:58.821089,-149
2021-10-14 16:18:58.821097,-129
2021-10-14 16:18:58.821106,-120
2021-10-14 16:18:58.821114,-120
2021-10-14 16:18:58.821122,-105
2021-10-14 16:18:58.821131,-96
2021-10-14 16:18:58.821139,-98
2021-10-14 16:18:58.821147,-86
2021-10-14 16:18:58.821156,-57
2021-10-14 16:18:58.821164,-69
2021-10-14 16:18:58.821173,-88
2021-10-14 16:18:58.821181,-72
2021-10-14 16:18:58.821189,-57
2021-10-14 16:18:58.821197,-62
2021-10-14 16:18:58.821206,-62
2021-10-14 16:18:58.821214,-60
2021-10-14 16:18:58.821222,-45
2021-10-14 16:18:58.821231,-45
2021-10-14 16:18:58.821239,-67
2021-10-14 16:18:58.821247,-67
2021-10-14 16:18:58.821255,-52
2021-10-14 16:18:58.821264,-55
2021-10-14 16:18:58.821272,-57
2021-10-14 16:18:58.821280,-60
2021-10-14 16:18:58.821288,-60
2021-10-14 16:18:58.821297,-45
2021-10-14 16:18:59.091700,-31
2021-10-14 16:18:59.091715,-33
2021-10-14 16:18:59.091720,-50
2021-10-14 16:18:59.091725,-62
2021-10-14 16:18:59.091729,-57
2021-10-14 16:18:59.091734,-45
2021-10-14 16:18:59.091738,-38
2021-10-14 16:18:59.091742,-24
2021-10-14 16:18:59.091747,-19
2021-10-14 16:18:59.091751,-24
2021-10-14 16:18:59.091755,-24
2021-10-14 16:18:59.091760,-28
2021-10-14 16:18:59.091764,-48
2021-10-14 16:18:59.091768,-48
2021-10-14 16:18:59.091773,-21
2021-10-14 16:18:59.091777,-19
2021-10-14 16:18:59.091781,-33
2021-10-14 16:18:59.091786,-14
2021-10-14 16:18:59.091790,-12
2021-10-14 16:18:59.091794,-40
2021-10-14 16:18:59.091799,-60
2021-10-14 16:18:59.091803,-67
2021-10-14 16:18:59.091818,-69
2021-10-14 16:18:59.091824,-55
2021-10-14 16:18:59.091829,-45
2021-10-14 16:18:59.091833,-55
2021-10-14 16:18:59.091838,-60
2021-10-14 16:18:59.091842,-45
2021-10-14 16:18:59.091846,-31
2021-10-14 16:18:59.091851,-38
2021-10-14 16:18:59.316481,-36
2021-10-14 16:18:59.316501,24
2021-10-14 16:18:59.316511,226
2021-10-14 16:18:59.316519,608
2021-10-14 16:18:59.316528,776
2021-10-14 16:18:59.316536,120
2021-10-14 16:18:59.316544,-918
2021-10-14 16:18:59.316553,-1115
2021-10-14 16:18:59.316561,-545
2021-10-14 16:18:59.316570,-206
2021-10-14 16:18:59.316578,-125
2021-10-14 16:18:59.316586,14
2021-10-14 16:18:59.316595,64
2021-10-14 16:18:59.316603,31
2021-10-14 16:18:59.316611,45
2021-10-14 16:18:59.316620,62
2021-10-14 16:18:59.316628,60
2021-10-14 16:18:59.316636,64
2021-10-14 16:18:59.316644,64
2021-10-14 16:18:59.316653,74
2021-10-14 16:18:59.316661,86
2021-10-14 16:18:59.316670,84
2021-10-14 16:18:59.316678,96
2021-10-14 16:18:59.316686,113
2021-10-14 16:18:59.316695,115
2021-10-14 16:18:59.316703,120
2021-10-14 16:18:59.316711,137
2021-10-14 16:18:59.316720,149
2021-10-14 16:18:59.316728,163
2021-10-14 16:18:59.316736,182
2021-10-14 16:18:59.496835,187
2021-10-14 16:18:59.496855,187
2021-10-14 16:18:59.496865,197
2021-10-14 16:18:59.496874,214
2021-10-14 16:18:59.496882,206
2021-10-14 16:18:59.496890,177
2021-10-14 16:18:59.496899,153
2021-10-14 16:18:59.496907,132
2021-10-14 16:18:59.496916,91
2021-10-14 16:18:59.496924,31
2021-10-14 16:18:59.496933,-7
2021-10-14 16:18:59.496942,-12
2021-10-14 16:18:59.496950,-28
2021-10-14 16:18:59.496958,-72
2021-10-14 16:18:59.496967,-88
2021-10-14 16:18:59.496975,-81
2021-10-14 16:18:59.496984,-101
2021-10-14 16:18:59.496992,-115
2021-10-14 16:18:59.497001,-110
2021-10-14 16:18:59.497009,-110
2021-10-14 16:18:59.497018,-110
2021-10-14 16:18:59.497026,-105
2021-10-14 16:18:59.497034,-120
2021-10-14 16:18:59.497043,-141
2021-10-14 16:18:59.497051,-129
2021-10-14 16:18:59.497060,-103
2021-10-14 16:18:59.497068,-91
2021-10-14 16:18:59.497076,-84
2021-10-14 16:18:59.497085,-69
2021-10-14 16:18:59.497093,-55
2021-10-14 16:18:59.721787,-50
2021-10-14 16:18:59.721806,-50
2021-10-14 16:18:59.721815,-48
2021-10-14 16:18:59.721824,-38
2021-10-14 16:18:59.721832,-36
2021-10-14 16:18:59.721841,-31
2021-10-14 16:18:59.721849,-24
2021-10-14 16:18:59.721857,-28
2021-10-14 16:18:59.721866,-43
2021-10-14 16:18:59.721874,-36
2021-10-14 16:18:59.721882,-31
2021-10-14 16:18:59.721890,-40
2021-10-14 16:18:59.721899,-43
2021-10-14 16:18:59.721907,-33
2021-10-14 16:18:59.721916,-38
2021-10-14 16:18:59.721924,-50
2021-10-14 16:18:59.721932,-45
2021-10-14 16:18:59.721941,-36
2021-10-14 16:18:59.721949,-38
2021-10-14 16:18:59.721957,-36
2021-10-14 16:18:59.721966,-24
2021-10-14 16:18:59.721974,-28
2021-10-14 16:18:59.721982,-31
2021-10-14 16:18:59.721990,-21
2021-10-14 16:18:59.721999,-21
2021-10-14 16:18:59.722007,-21
2021-10-14 16:18:59.722015,-19
2021-10-14 16:18:59.722024,-24
2021-10-14 16:18:59.722032,-24
2021-10-14 16:18:59.722040,-12
2021-10-14 16:18:59.991434,-2
2021-10-14 16:18:59.991454,-4
2021-10-14 16:18:59.991463,-9
2021-10-14 16:18:59.991472,-9
2021-10-14 16:18:59.991480,-9
2021-10-14 16:18:59.991489,-9
2021-10-14 16:18:59.991497,-9
2021-10-14 16:18:59.991505,-4
2021-10-14 16:18:59.991514,-7
2021-10-14 16:18:59.991522,-21
2021-10-14 16:18:59.991530,-21
2021-10-14 16:18:59.991539,0
2021-10-14 16:18:59.991547,2
2021-10-14 16:18:59.991555,-4
2021-10-14 16:18:59.991564,-2
2021-10-14 16:18:59.991572,-28
2021-10-14 16:18:59.991580,-55
2021-10-14 16:18:59.991589,-55
2021-10-14 16:18:59.991597,-50
2021-10-14 16:18:59.991605,-45
2021-10-14 16:18:59.991613,-45
2021-10-14 16:18:59.991622,-50
2021-10-14 16:18:59.991630,-38
2021-10-14 16:18:59.991638,-31
2021-10-14 16:18:59.991646,-43
2021-10-14 16:18:59.991655,-33
2021-10-14 16:18:59.991663,0
2021-10-14 16:18:59.991672,91
2021-10-14 16:18:59.991680,377
2021-10-14 16:18:59.991688,747
2021-10-14 16:19:00.171918,642
2021-10-14 16:19:00.171940,-257
2021-10-14 16:19:00.171950,-1096
2021-10-14 16:19:00.171958,-880
2021-10-14 16:19:00.171967,-262
2021-10-14 16:19:00.171976,-105
2021-10-14 16:19:00.171984,-76
2021-10-14 16:19:00.171992,52
2021-10-14 16:19:00.172001,62
2021-10-14 16:19:00.172009,33
2021-10-14 16:19:00.172018,88
2021-10-14 16:19:00.172026,101
2021-10-14 16:19:00.172035,69
2021-10-14 16:19:00.172043,79
2021-10-14 16:19:00.172051,108
2021-10-14 16:19:00.172060,113
2021-10-14 16:19:00.172068,115
2021-10-14 16:19:00.172076,113
2021-10-14 16:19:00.172085,120
2021-10-14 16:19:00.172093,137
2021-10-14 16:19:00.172101,149
2021-10-14 16:19:00.172109,151
2021-10-14 16:19:00.172118,153
2021-10-14 16:19:00.172126,161
2021-10-14 16:19:00.172134,180
2021-10-14 16:19:00.172143,202
2021-10-14 16:19:00.172151,214
2021-10-14 16:19:00.172159,216
2021-10-14 16:19:00.172168,228
2021-10-14 16:19:00.172176,242
2021-10-14 16:19:00.485915,230
2021-10-14 16:19:00.485936,211
2021-10-14 16:19:00.485946,197
2021-10-14 16:19:00.485955,163
2021-10-14 16:19:00.485963,120
2021-10-14 16:19:00.485972,72
2021-10-14 16:19:00.485980,21
2021-10-14 16:19:00.485989,-7
2021-10-14 16:19:00.485997,-28
2021-10-14 16:19:00.486005,-55
2021-10-14 16:19:00.486014,-74
2021-10-14 16:19:00.486022,-86
2021-10-14 16:19:00.486031,-86
2021-10-14 16:19:00.486039,-76
2021-10-14 16:19:00.486048,-76
2021-10-14 16:19:00.486056,-84
2021-10-14 16:19:00.486064,-81
2021-10-14 16:19:00.486073,-76
2021-10-14 16:19:00.486081,-72
2021-10-14 16:19:00.486089,-67
2021-10-14 16:19:00.486098,-62
2021-10-14 16:19:00.486106,-50
2021-10-14 16:19:00.486114,-48
2021-10-14 16:19:00.486123,-55
2021-10-14 16:19:00.486131,-52
2021-10-14 16:19:00.486139,-43
2021-10-14 16:19:00.486148,-36
2021-10-14 16:19:00.486156,-26
2021-10-14 16:19:00.486164,-12
2021-10-14 16:19:00.486172,-2
2021-10-14 16:19:00.621851,-9
2021-10-14 16:19:00.621872,-19
2021-10-14 16:19:00.621881,-14
2021-10-14 16:19:00.621890,-7
2021-10-14 16:19:00.621898,-7
2021-10-14 16:19:00.621906,-9
2021-10-14 16:19:00.621915,-12
2021-10-14 16:19:00.621923,-21
2021-10-14 16:19:00.621931,-19
2021-10-14 16:19:00.621940,-16
2021-10-14 16:19:00.621948,-31
2021-10-14 16:19:00.621956,-45
2021-10-14 16:19:00.621965,-26
2021-10-14 16:19:00.621973,-4
2021-10-14 16:19:00.621981,-12
2021-10-14 16:19:00.621989,-36
2021-10-14 16:19:00.621998,-50
2021-10-14 16:19:00.622006,-45
2021-10-14 16:19:00.622014,-38
2021-10-14 16:19:00.622023,-48
2021-10-14 16:19:00.622031,-52
2021-10-14 16:19:00.622039,-50
2021-10-14 16:19:00.622047,-45
2021-10-14 16:19:00.622055,-40
2021-10-14 16:19:00.622064,-40
2021-10-14 16:19:00.622072,-45
2021-10-14 16:19:00.622080,-40
2021-10-14 16:19:00.622088,-43
2021-10-14 16:19:00.622097,-57
2021-10-14 16:19:00.622105,-50
2021-10-14 16:19:00.890487,-36
2021-10-14 16:19:00.890507,-40
2021-10-14 16:19:00.890516,-38
2021-10-14 16:19:00.890525,-14
2021-10-14 16:19:00.890533,-2
2021-10-14 16:19:00.890542,-12
2021-10-14 16:19:00.890551,-24
2021-10-14 16:19:00.890559,-36
2021-10-14 16:19:00.890567,-45
2021-10-14 16:19:00.890576,-60
2021-10-14 16:19:00.890584,-69
2021-10-14 16:19:00.890593,-62
2021-10-14 16:19:00.890601,-48
2021-10-14 16:19:00.890609,-48
2021-10-14 16:19:00.890618,-40
2021-10-14 16:19:00.890626,-26
2021-10-14 16:19:00.890635,-24
2021-10-14 16:19:00.890643,-24
2021-10-14 16:19:00.890652,-14
2021-10-14 16:19:00.890660,31
2021-10-14 16:19:00.890668,189
2021-10-14 16:19:00.890677,541
2021-10-14 16:19:00.890685,812
2021-10-14 16:19:00.890694,377
2021-10-14 16:19:00.890702,-682
2021-10-14 16:19:00.890711,-1161
2021-10-14 16:19:00.890719,-651
2021-10-14 16:19:00.890727,-202
2021-10-14 16:19:00.890735,-139
2021-10-14 16:19:00.890744,-14
2021-10-14 16:19:01.160918,101
2021-10-14 16:19:01.160939,74
2021-10-14 16:19:01.160948,60
2021-10-14 16:19:01.160957,84
2021-10-14 16:19:01.160966,91
2021-10-14 16:19:01.160974,101
2021-10-14 16:19:01.160983,103
2021-10-14 16:19:01.160991,96
2021-10-14 16:19:01.160999,101
2021-10-14 16:19:01.161008,110
2021-10-14 16:19:01.161016,105
2021-10-14 16:19:01.161024,101
2021-10-14 16:19:01.161033,113
2021-10-14 16:19:01.161041,129
2021-10-14 16:19:01.161050,134
2021-10-14 16:19:01.161058,141
2021-10-14 16:19:01.161066,163
2021-10-14 16:19:01.161075,187
2021-10-14 16:19:01.161083,206
2021-10-14 16:19:01.161092,221
2021-10-14 16:19:01.161100,226
2021-10-14 16:19:01.161109,216
2021-10-14 16:19:01.161117,211
2021-10-14 16:19:01.161126,214
2021-10-14 16:19:01.161134,202
2021-10-14 16:19:01.161143,165
2021-10-14 16:19:01.161151,120
2021-10-14 16:19:01.161160,84
2021-10-14 16:19:01.161168,48
2021-10-14 16:19:01.161176,12
2021-10-14 16:19:01.341872,-16
2021-10-14 16:19:01.341893,-48
2021-10-14 16:19:01.341903,-84
2021-10-14 16:19:01.341912,-101
2021-10-14 16:19:01.341921,-101
2021-10-14 16:19:01.341929,-105
2021-10-14 16:19:01.341937,-108
2021-10-14 16:19:01.341946,-105
2021-10-14 16:19:01.341954,-113
2021-10-14 16:19:01.341962,-115
2021-10-14 16:19:01.341971,-105
2021-10-14 16:19:01.341980,-96
2021-10-14 16:19:01.341988,-98
2021-10-14 16:19:01.341996,-103
2021-10-14 16:19:01.342005,-98
2021-10-14 16:19:01.342013,-91
2021-10-14 16:19:01.342022,-79
2021-10-14 16:19:01.342030,-62
2021-10-14 16:19:01.342039,-50
2021-10-14 16:19:01.342047,-50
2021-10-14 16:19:01.342056,-60
2021-10-14 16:19:01.342064,-62
2021-10-14 16:19:01.342073,-50
2021-10-14 16:19:01.342081,-48
2021-10-14 16:19:01.342089,-45
2021-10-14 16:19:01.342098,-43
2021-10-14 16:19:01.342107,-50
2021-10-14 16:19:01.342115,-50
2021-10-14 16:19:01.342124,-43
2021-10-14 16:19:01.342132,-43
2021-10-14 16:19:01.566941,-60
2021-10-14 16:19:01.566961,-79
2021-10-14 16:19:01.566970,-74
2021-10-14 16:19:01.566979,-69
2021-10-14 16:19:01.566987,-76
2021-10-14 16:19:01.566996,-79
2021-10-14 16:19:01.567004,-76
2021-10-14 16:19:01.567012,-76
2021-10-14 16:19:01.567067,-81
2021-10-14 16:19:01.567077,-84
2021-10-14 16:19:01.567086,-74
2021-10-14 16:19:01.567094,-67
2021-10-14 16:19:01.567103,-67
2021-10-14 16:19:01.567111,-74
2021-10-14 16:19:01.567120,-86
2021-10-14 16:19:01.567128,-79
2021-10-14 16:19:01.567137,-67
2021-10-14 16:19:01.567145,-72
2021-10-14 16:19:01.567153,-74
2021-10-14 16:19:01.567162,-74
2021-10-14 16:19:01.567170,-76
2021-10-14 16:19:01.567179,-69
2021-10-14 16:19:01.567188,-62
2021-10-14 16:19:01.567196,-60
2021-10-14 16:19:01.567204,-48
2021-10-14 16:19:01.567213,-38
2021-10-14 16:19:01.567221,-40
2021-10-14 16:19:01.567229,-43
2021-10-14 16:19:01.567238,-40
2021-10-14 16:19:01.567246,-28
2021-10-14 16:19:01.791490,-7
2021-10-14 16:19:01.791510,2
2021-10-14 16:19:01.791520,0
2021-10-14 16:19:01.791529,-2
2021-10-14 16:19:01.791537,-12
2021-10-14 16:19:01.791546,-38
2021-10-14 16:19:01.791554,-48
2021-10-14 16:19:01.791563,-36
2021-10-14 16:19:01.791571,-38
2021-10-14 16:19:01.791580,-45
2021-10-14 16:19:01.791588,-36
2021-10-14 16:19:01.791597,-24
2021-10-14 16:19:01.791605,-43
2021-10-14 16:19:01.791614,-52
2021-10-14 16:19:01.791622,-36
2021-10-14 16:19:01.791631,-16
2021-10-14 16:19:01.791639,19
2021-10-14 16:19:01.791648,156
2021-10-14 16:19:01.791656,495
2021-10-14 16:19:01.791665,812
2021-10-14 16:19:01.791673,488
2021-10-14 16:19:01.791682,-536
2021-10-14 16:19:01.791690,-1154
2021-10-14 16:19:01.791699,-704
2021-10-14 16:19:01.791707,-158
2021-10-14 16:19:01.791715,-96
2021-10-14 16:19:01.791724,-26
2021-10-14 16:19:01.791732,105
2021-10-14 16:19:01.791741,93
2021-10-14 16:19:01.791749,76
2021-10-14 16:19:02.016450,115
2021-10-14 16:19:02.016470,110
2021-10-14 16:19:02.016479,86
2021-10-14 16:19:02.016488,98
2021-10-14 16:19:02.016497,122
2021-10-14 16:19:02.016505,129
2021-10-14 16:19:02.016513,120
2021-10-14 16:19:02.016522,110
2021-10-14 16:19:02.016530,110
2021-10-14 16:19:02.016538,117
2021-10-14 16:19:02.016547,134
2021-10-14 16:19:02.016555,149
2021-10-14 16:19:02.016564,158
2021-10-14 16:19:02.016572,168
2021-10-14 16:19:02.016580,185
2021-10-14 16:19:02.016589,199
2021-10-14 16:19:02.016597,211
2021-10-14 16:19:02.016606,223
2021-10-14 16:19:02.016614,228
2021-10-14 16:19:02.016622,221
2021-10-14 16:19:02.016631,206
2021-10-14 16:19:02.016639,182
2021-10-14 16:19:02.016648,146
2021-10-14 16:19:02.016656,110
2021-10-14 16:19:02.016664,96
2021-10-14 16:19:02.016673,67
2021-10-14 16:19:02.016681,16
2021-10-14 16:19:02.016690,-24
2021-10-14 16:19:02.016698,-50
2021-10-14 16:19:02.016707,-74
2021-10-14 16:19:02.286939,-91
2021-10-14 16:19:02.286960,-96
2021-10-14 16:19:02.286970,-96
2021-10-14 16:19:02.286979,-98
2021-10-14 16:19:02.286987,-98
2021-10-14 16:19:02.286996,-108
2021-10-14 16:19:02.287004,-125
2021-10-14 16:19:02.287012,-125
2021-10-14 16:19:02.287021,-122
2021-10-14 16:19:02.287029,-134
2021-10-14 16:19:02.287037,-134
2021-10-14 16:19:02.287046,-115
2021-10-14 16:19:02.287054,-108
2021-10-14 16:19:02.287063,-108
2021-10-14 16:19:02.287071,-93
2021-10-14 16:19:02.287080,-79
2021-10-14 16:19:02.287088,-76
2021-10-14 16:19:02.287097,-69
2021-10-14 16:19:02.287105,-62
2021-10-14 16:19:02.287113,-57
2021-10-14 16:19:02.287122,-45
2021-10-14 16:19:02.287130,-36
2021-10-14 16:19:02.287138,-43
2021-10-14 16:19:02.287147,-36
2021-10-14 16:19:02.287155,-19
2021-10-14 16:19:02.287163,-21
2021-10-14 16:19:02.287172,-28
2021-10-14 16:19:02.287180,-24
2021-10-14 16:19:02.287189,-24
2021-10-14 16:19:02.287197,-26
2021-10-14 16:19:02.511478,-12
