Time,ECG
2021-10-14 16:08:29.447094,-67
2021-10-14 16:08:29.447114,-52
2021-10-14 16:08:29.447124,-60
2021-10-14 16:08:29.447133,-57
2021-10-14 16:08:29.447141,-40
2021-10-14 16:08:29.447150,-60
2021-10-14 16:08:29.447158,-91
2021-10-14 16:08:29.447167,-62
2021-10-14 16:08:29.447175,-28
2021-10-14 16:08:29.447184,-55
2021-10-14 16:08:29.447192,-81
2021-10-14 16:08:29.447201,-74
2021-10-14 16:08:29.447209,-60
2021-10-14 16:08:29.447217,-45
2021-10-14 16:08:29.447225,-48
2021-10-14 16:08:29.447234,-57
2021-10-14 16:08:29.447242,-60
2021-10-14 16:08:29.447251,-57
2021-10-14 16:08:29.447259,-55
2021-10-14 16:08:29.447268,-60
2021-10-14 16:08:29.447276,-64
2021-10-14 16:08:29.447284,-57
2021-10-14 16:08:29.447293,-43
2021-10-14 16:08:29.447301,-28
2021-10-14 16:08:29.447309,-31
2021-10-14 16:08:29.447318,-33
2021-10-14 16:08:29.447326,-4
2021-10-14 16:08:29.447335,16
2021-10-14 16:08:29.447343,-21
2021-10-14 16:08:29.447351,-64
2021-10-14 16:08:29.533294,-55
2021-10-14 16:08:29.533313,-36
2021-10-14 16:08:29.533322,-21
2021-10-14 16:08:29.533331,-21
2021-10-14 16:08:29.533339,-55
2021-10-14 16:08:29.533348,-64
2021-10-14 16:08:29.533357,-31
2021-10-14 16:08:29.533365,-21
2021-10-14 16:08:29.533374,-33
2021-10-14 16:08:29.533382,-14
2021-10-14 16:08:29.533391,50
2021-10-14 16:08:29.533399,264
2021-10-14 16:08:29.533408,637
2021-10-14 16:08:29.533416,654
2021-10-14 16:08:29.533425,-165
2021-10-14 16:08:29.533433,-1103
2021-10-14 16:08:29.533441,-1062
2021-10-14 16:08:29.533450,-488
2021-10-14 16:08:29.533459,-264
2021-10-14 16:08:29.533467,-168
2021-10-14 16:08:29.533476,16
2021-10-14 16:08:29.533484,43
2021-10-14 16:08:29.533493,-19
2021-10-14 16:08:29.533501,16
2021-10-14 16:08:29.533510,60
2021-10-14 16:08:29.533518,55
2021-10-14 16:08:29.533526,64
2021-10-14 16:08:29.533535,84
2021-10-14 16:08:29.533543,86
2021-10-14 16:08:29.533553,67
2021-10-14 16:08:29.758233,50
2021-10-14 16:08:29.758253,74
2021-10-14 16:08:29.758263,115
2021-10-14 16:08:29.758272,122
2021-10-14 16:08:29.758280,117
2021-10-14 16:08:29.758288,134
2021-10-14 16:08:29.758297,156
2021-10-14 16:08:29.758305,146
2021-10-14 16:08:29.758313,139
2021-10-14 16:08:29.758322,177
2021-10-14 16:08:29.758330,206
2021-10-14 16:08:29.758338,202
2021-10-14 16:08:29.758347,189
2021-10-14 16:08:29.758358,189
2021-10-14 16:08:29.758367,161
2021-10-14 16:08:29.758375,93
2021-10-14 16:08:29.758383,55
2021-10-14 16:08:29.758392,43
2021-10-14 16:08:29.758400,-9
2021-10-14 16:08:29.758409,-67
2021-10-14 16:08:29.758417,-91
2021-10-14 16:08:29.758425,-122
2021-10-14 16:08:29.758434,-146
2021-10-14 16:08:29.758442,-139
2021-10-14 16:08:29.758450,-149
2021-10-14 16:08:29.758459,-163
2021-10-14 16:08:29.758467,-149
2021-10-14 16:08:29.758475,-153
2021-10-14 16:08:29.758483,-165
2021-10-14 16:08:29.758501,-149
2021-10-14 16:08:30.027852,-132
2021-10-14 16:08:30.027871,-129
2021-10-14 16:08:30.027880,-144
2021-10-14 16:08:30.027889,-161
2021-10-14 16:08:30.027897,-134
2021-10-14 16:08:30.027905,-91
2021-10-14 16:08:30.027914,-101
2021-10-14 16:08:30.027922,-105
2021-10-14 16:08:30.027930,-96
2021-10-14 16:08:30.027938,-103
2021-10-14 16:08:30.027947,-108
2021-10-14 16:08:30.027955,-93
2021-10-14 16:08:30.027963,-84
2021-10-14 16:08:30.027971,-79
2021-10-14 16:08:30.027980,-79
2021-10-14 16:08:30.027988,-91
2021-10-14 16:08:30.027996,-96
2021-10-14 16:08:30.028008,-84
2021-10-14 16:08:30.028016,-81
2021-10-14 16:08:30.028024,-86
2021-10-14 16:08:30.028033,-88
2021-10-14 16:08:30.028041,-91
2021-10-14 16:08:30.028049,-84
2021-10-14 16:08:30.028057,-74
2021-10-14 16:08:30.028066,-91
2021-10-14 16:08:30.028074,-108
2021-10-14 16:08:30.028082,-98
2021-10-14 16:08:30.028090,-79
2021-10-14 16:08:30.028099,-72
2021-10-14 16:08:30.028107,-88
2021-10-14 16:08:30.296545,-105
2021-10-14 16:08:30.296566,-84
2021-10-14 16:08:30.296576,-45
2021-10-14 16:08:30.296585,-24
2021-10-14 16:08:30.296593,-26
2021-10-14 16:08:30.296602,-33
2021-10-14 16:08:30.296610,-33
2021-10-14 16:08:30.296623,-55
2021-10-14 16:08:30.296632,-98
2021-10-14 16:08:30.296640,-115
2021-10-14 16:08:30.296649,-93
2021-10-14 16:08:30.296657,-40
2021-10-14 16:08:30.296666,-21
2021-10-14 16:08:30.296674,-74
2021-10-14 16:08:30.296683,-98
2021-10-14 16:08:30.296691,-62
2021-10-14 16:08:30.296699,-48
2021-10-14 16:08:30.296708,-67
2021-10-14 16:08:30.296716,-50
2021-10-14 16:08:30.296725,48
2021-10-14 16:08:30.296733,319
2021-10-14 16:08:30.296741,709
2021-10-14 16:08:30.296750,630
2021-10-14 16:08:30.296758,-327
2021-10-14 16:08:30.296767,-1228
2021-10-14 16:08:30.296775,-1019
2021-10-14 16:08:30.296783,-391
2021-10-14 16:08:30.296792,-209
2021-10-14 16:08:30.296800,-153
2021-10-14 16:08:30.296809,0
2021-10-14 16:08:30.478200,45
2021-10-14 16:08:30.478220,21
2021-10-14 16:08:30.478230,40
2021-10-14 16:08:30.478238,55
2021-10-14 16:08:30.478247,57
2021-10-14 16:08:30.478255,62
2021-10-14 16:08:30.478263,69
2021-10-14 16:08:30.478272,74
2021-10-14 16:08:30.478280,57
2021-10-14 16:08:30.478288,50
2021-10-14 16:08:30.478297,86
2021-10-14 16:08:30.478305,117
2021-10-14 16:08:30.478313,113
2021-10-14 16:08:30.478321,115
2021-10-14 16:08:30.478330,134
2021-10-14 16:08:30.478338,151
2021-10-14 16:08:30.478346,161
2021-10-14 16:08:30.478355,177
2021-10-14 16:08:30.478363,202
2021-10-14 16:08:30.478371,199
2021-10-14 16:08:30.478380,187
2021-10-14 16:08:30.478388,180
2021-10-14 16:08:30.478396,158
2021-10-14 16:08:30.478404,137
2021-10-14 16:08:30.478416,115
2021-10-14 16:08:30.478425,74
2021-10-14 16:08:30.478433,36
2021-10-14 16:08:30.478441,4
2021-10-14 16:08:30.478450,-40
2021-10-14 16:08:30.478458,-79
2021-10-14 16:08:30.702941,-88
2021-10-14 16:08:30.702963,-105
2021-10-14 16:08:30.702973,-139
2021-10-14 16:08:30.702982,-170
2021-10-14 16:08:30.702991,-194
2021-10-14 16:08:30.702999,-168
2021-10-14 16:08:30.703008,-113
2021-10-14 16:08:30.703017,-127
2021-10-14 16:08:30.703025,-161
2021-10-14 16:08:30.703034,-144
2021-10-14 16:08:30.703043,-120
2021-10-14 16:08:30.703051,-110
2021-10-14 16:08:30.703060,-120
2021-10-14 16:08:30.703068,-141
2021-10-14 16:08:30.703077,-132
2021-10-14 16:08:30.703086,-105
2021-10-14 16:08:30.703095,-84
2021-10-14 16:08:30.703103,-57
2021-10-14 16:08:30.703112,-55
2021-10-14 16:08:30.703121,-69
2021-10-14 16:08:30.703129,-60
2021-10-14 16:08:30.703138,-48
2021-10-14 16:08:30.703148,-43
2021-10-14 16:08:30.703157,-43
2021-10-14 16:08:30.703165,-64
2021-10-14 16:08:30.703174,-91
2021-10-14 16:08:30.703182,-96
2021-10-14 16:08:30.703191,-76
2021-10-14 16:08:30.703200,-45
2021-10-14 16:08:30.703208,-43
2021-10-14 16:08:30.928295,-57
2021-10-14 16:08:30.928317,-55
2021-10-14 16:08:30.928326,-55
2021-10-14 16:08:30.928335,-64
2021-10-14 16:08:30.928344,-62
2021-10-14 16:08:30.928352,-52
2021-10-14 16:08:30.928361,-45
2021-10-14 16:08:30.928369,-55
2021-10-14 16:08:30.928378,-72
2021-10-14 16:08:30.928386,-62
2021-10-14 16:08:30.928395,-48
2021-10-14 16:08:30.928403,-48
2021-10-14 16:08:30.928412,-43
2021-10-14 16:08:30.928420,-40
2021-10-14 16:08:30.928428,-48
2021-10-14 16:08:30.928437,-48
2021-10-14 16:08:30.928445,-36
2021-10-14 16:08:30.928454,-36
2021-10-14 16:08:30.928462,-45
2021-10-14 16:08:30.928471,-28
2021-10-14 16:08:30.928479,-2
2021-10-14 16:08:30.928487,-21
2021-10-14 16:08:30.928496,-21
2021-10-14 16:08:30.928504,14
2021-10-14 16:08:30.928516,-7
2021-10-14 16:08:30.928524,-67
2021-10-14 16:08:30.928532,-69
2021-10-14 16:08:30.928541,-48
2021-10-14 16:08:30.928549,-48
2021-10-14 16:08:30.928557,-55
2021-10-14 16:08:31.197702,-55
2021-10-14 16:08:31.197724,-55
2021-10-14 16:08:31.197734,-50
2021-10-14 16:08:31.197743,-40
2021-10-14 16:08:31.197752,-43
2021-10-14 16:08:31.197760,-69
2021-10-14 16:08:31.197769,-14
2021-10-14 16:08:31.197777,281
2021-10-14 16:08:31.197785,716
2021-10-14 16:08:31.197794,740
2021-10-14 16:08:31.197802,-110
2021-10-14 16:08:31.197810,-1132
2021-10-14 16:08:31.197819,-1113
2021-10-14 16:08:31.197827,-435
2021-10-14 16:08:31.197835,-165
2021-10-14 16:08:31.197844,-156
2021-10-14 16:08:31.197852,-12
2021-10-14 16:08:31.197861,79
2021-10-14 16:08:31.197869,48
2021-10-14 16:08:31.197877,43
2021-10-14 16:08:31.197886,74
2021-10-14 16:08:31.197894,88
2021-10-14 16:08:31.197902,93
2021-10-14 16:08:31.197911,88
2021-10-14 16:08:31.197919,74
2021-10-14 16:08:31.197927,79
2021-10-14 16:08:31.197935,110
2021-10-14 16:08:31.197944,120
2021-10-14 16:08:31.197952,108
2021-10-14 16:08:31.197960,117
2021-10-14 16:08:31.377951,149
2021-10-14 16:08:31.377973,173
2021-10-14 16:08:31.377982,175
2021-10-14 16:08:31.377990,173
2021-10-14 16:08:31.377999,189
2021-10-14 16:08:31.378007,214
2021-10-14 16:08:31.378016,214
2021-10-14 16:08:31.378024,206
2021-10-14 16:08:31.378032,226
2021-10-14 16:08:31.378041,240
2021-10-14 16:08:31.378049,202
2021-10-14 16:08:31.378057,146
2021-10-14 16:08:31.378066,129
2021-10-14 16:08:31.378074,110
2021-10-14 16:08:31.378083,52
2021-10-14 16:08:31.378091,-4
2021-10-14 16:08:31.378100,-36
2021-10-14 16:08:31.378108,-57
2021-10-14 16:08:31.378116,-72
2021-10-14 16:08:31.378124,-76
2021-10-14 16:08:31.378133,-81
2021-10-14 16:08:31.378141,-98
2021-10-14 16:08:31.378149,-122
2021-10-14 16:08:31.378158,-110
2021-10-14 16:08:31.378166,-88
2021-10-14 16:08:31.378175,-96
2021-10-14 16:08:31.378183,-98
2021-10-14 16:08:31.378191,-81
2021-10-14 16:08:31.378200,-69
2021-10-14 16:08:31.378208,-67
2021-10-14 16:08:31.603344,-52
2021-10-14 16:08:31.603366,-33
2021-10-14 16:08:31.603375,-33
2021-10-14 16:08:31.603383,-36
2021-10-14 16:08:31.603392,-33
2021-10-14 16:08:31.603400,-50
2021-10-14 16:08:31.603409,-43
2021-10-14 16:08:31.603417,-7
2021-10-14 16:08:31.603425,-9
2021-10-14 16:08:31.603434,-28
2021-10-14 16:08:31.603446,-16
2021-10-14 16:08:31.603454,-12
2021-10-14 16:08:31.603462,-33
2021-10-14 16:08:31.603471,-36
2021-10-14 16:08:31.603479,-24
2021-10-14 16:08:31.603487,-36
2021-10-14 16:08:31.603495,-60
2021-10-14 16:08:31.603504,-62
2021-10-14 16:08:31.603512,-33
2021-10-14 16:08:31.603520,-7
2021-10-14 16:08:31.603529,-24
2021-10-14 16:08:31.603537,-45
2021-10-14 16:08:31.603546,-40
2021-10-14 16:08:31.603554,-21
2021-10-14 16:08:31.603562,-14
2021-10-14 16:08:31.603570,-31
2021-10-14 16:08:31.603579,-43
2021-10-14 16:08:31.603587,-40
2021-10-14 16:08:31.603595,-31
2021-10-14 16:08:31.603603,-9
2021-10-14 16:08:31.873320,-2
2021-10-14 16:08:31.873342,-24
2021-10-14 16:08:31.873351,-31
2021-10-14 16:08:31.873360,-26
2021-10-14 16:08:31.873369,-36
2021-10-14 16:08:31.873377,-52
2021-10-14 16:08:31.873385,-48
2021-10-14 16:08:31.873394,-24
2021-10-14 16:08:31.873402,-31
2021-10-14 16:08:31.873411,-50
2021-10-14 16:08:31.873419,-28
2021-10-14 16:08:31.873427,-9
2021-10-14 16:08:31.873436,-21
2021-10-14 16:08:31.873444,-4
2021-10-14 16:08:31.873453,4
2021-10-14 16:08:31.873461,-33
2021-10-14 16:08:31.873470,-55
2021-10-14 16:08:31.873478,-55
2021-10-14 16:08:31.873486,-55
2021-10-14 16:08:31.873495,-43
2021-10-14 16:08:31.873503,-43
2021-10-14 16:08:31.873512,-52
2021-10-14 16:08:31.873520,-36
2021-10-14 16:08:31.873529,-16
2021-10-14 16:08:31.873537,-28
2021-10-14 16:08:31.873550,-40
2021-10-14 16:08:31.873558,-16
2021-10-14 16:08:31.873567,36
2021-10-14 16:08:31.873575,194
2021-10-14 16:08:31.873584,557
2021-10-14 16:08:32.097901,810
2021-10-14 16:08:32.097922,317
2021-10-14 16:08:32.097932,-735
2021-10-14 16:08:32.097940,-1149
2021-10-14 16:08:32.097949,-632
2021-10-14 16:08:32.097958,-197
2021-10-14 16:08:32.097966,-127
2021-10-14 16:08:32.097974,12
2021-10-14 16:08:32.097983,125
2021-10-14 16:08:32.097991,76
2021-10-14 16:08:32.098000,74
2021-10-14 16:08:32.098008,120
2021-10-14 16:08:32.098017,108
2021-10-14 16:08:32.098025,105
2021-10-14 16:08:32.098034,120
2021-10-14 16:08:32.098042,115
2021-10-14 16:08:32.098050,120
2021-10-14 16:08:32.098058,132
2021-10-14 16:08:32.098067,125
2021-10-14 16:08:32.098075,141
2021-10-14 16:08:32.098083,165
2021-10-14 16:08:32.098091,149
2021-10-14 16:08:32.098100,149
2021-10-14 16:08:32.098108,194
2021-10-14 16:08:32.098117,216
2021-10-14 16:08:32.098125,214
2021-10-14 16:08:32.098133,233
2021-10-14 16:08:32.098142,247
2021-10-14 16:08:32.098150,242
2021-10-14 16:08:32.098158,250
2021-10-14 16:08:32.457467,252
2021-10-14 16:08:32.457487,221
2021-10-14 16:08:32.457497,199
2021-10-14 16:08:32.457506,192
2021-10-14 16:08:32.457514,151
2021-10-14 16:08:32.457523,98
2021-10-14 16:08:32.457531,50
2021-10-14 16:08:32.457539,7
2021-10-14 16:08:32.457548,-24
2021-10-14 16:08:32.457556,-55
2021-10-14 16:08:32.457565,-91
2021-10-14 16:08:32.457573,-98
2021-10-14 16:08:32.457581,-79
2021-10-14 16:08:32.457589,-93
2021-10-14 16:08:32.457598,-125
2021-10-14 16:08:32.457606,-122
2021-10-14 16:08:32.457618,-101
2021-10-14 16:08:32.457626,-88
2021-10-14 16:08:32.457634,-84
2021-10-14 16:08:32.457643,-84
2021-10-14 16:08:32.457651,-81
2021-10-14 16:08:32.457659,-72
2021-10-14 16:08:32.457668,-55
2021-10-14 16:08:32.457676,-48
2021-10-14 16:08:32.457684,-52
2021-10-14 16:08:32.457693,-45
2021-10-14 16:08:32.457701,-36
2021-10-14 16:08:32.457710,-36
2021-10-14 16:08:32.457718,-16
2021-10-14 16:08:32.457726,0
2021-10-14 16:08:32.548352,-12
2021-10-14 16:08:32.548374,-16
2021-10-14 16:08:32.548383,2
2021-10-14 16:08:32.548391,9
2021-10-14 16:08:32.548400,-9
2021-10-14 16:08:32.548408,-21
2021-10-14 16:08:32.548417,-9
2021-10-14 16:08:32.548425,-12
2021-10-14 16:08:32.548433,-21
2021-10-14 16:08:32.548441,-9
2021-10-14 16:08:32.548450,-4
2021-10-14 16:08:32.548458,-21
2021-10-14 16:08:32.548467,-26
2021-10-14 16:08:32.548476,-21
2021-10-14 16:08:32.548484,-21
2021-10-14 16:08:32.548492,-28
2021-10-14 16:08:32.548501,-33
2021-10-14 16:08:32.548509,-33
2021-10-14 16:08:32.548517,-43
2021-10-14 16:08:32.548526,-52
2021-10-14 16:08:32.548534,-52
2021-10-14 16:08:32.548542,-40
2021-10-14 16:08:32.548550,-36
2021-10-14 16:08:32.548559,-50
2021-10-14 16:08:32.548567,-50
2021-10-14 16:08:32.548575,-38
2021-10-14 16:08:32.548584,-52
2021-10-14 16:08:32.548592,-62
2021-10-14 16:08:32.548600,-45
2021-10-14 16:08:32.548609,-28
2021-10-14 16:08:32.862684,-7
2021-10-14 16:08:32.862704,0
2021-10-14 16:08:32.862714,-40
2021-10-14 16:08:32.862722,-76
2021-10-14 16:08:32.862730,-55
2021-10-14 16:08:32.862739,-43
2021-10-14 16:08:32.862747,-69
2021-10-14 16:08:32.862755,-67
2021-10-14 16:08:32.862764,-43
2021-10-14 16:08:32.862772,-57
2021-10-14 16:08:32.862780,-72
2021-10-14 16:08:32.862789,-60
2021-10-14 16:08:32.862797,-52
2021-10-14 16:08:32.862808,-43
2021-10-14 16:08:32.862816,-2
2021-10-14 16:08:32.862825,144
2021-10-14 16:08:32.862833,492
2021-10-14 16:08:32.862842,771
2021-10-14 16:08:32.862850,319
2021-10-14 16:08:32.862858,-745
2021-10-14 16:08:32.862867,-1212
2021-10-14 16:08:32.862875,-716
2021-10-14 16:08:32.862883,-257
2021-10-14 16:08:32.862891,-156
2021-10-14 16:08:32.862900,-9
2021-10-14 16:08:32.862908,103
2021-10-14 16:08:32.862916,69
2021-10-14 16:08:32.862925,62
2021-10-14 16:08:32.862933,110
2021-10-14 16:08:32.862942,120
2021-10-14 16:08:32.998267,120
2021-10-14 16:08:32.998287,129
2021-10-14 16:08:32.998297,134
2021-10-14 16:08:32.998306,149
2021-10-14 16:08:32.998314,158
2021-10-14 16:08:32.998323,132
2021-10-14 16:08:32.998331,134
2021-10-14 16:08:32.998340,168
2021-10-14 16:08:32.998348,173
2021-10-14 16:08:32.998357,173
2021-10-14 16:08:32.998365,194
2021-10-14 16:08:32.998374,209
2021-10-14 16:08:32.998382,218
2021-10-14 16:08:32.998390,242
2021-10-14 16:08:32.998398,257
2021-10-14 16:08:32.998407,250
2021-10-14 16:08:32.998415,242
2021-10-14 16:08:32.998423,235
2021-10-14 16:08:32.998431,221
2021-10-14 16:08:32.998440,194
2021-10-14 16:08:32.998448,163
2021-10-14 16:08:32.998456,129
2021-10-14 16:08:32.998465,91
2021-10-14 16:08:32.998473,36
2021-10-14 16:08:32.998481,-14
2021-10-14 16:08:32.998490,-33
2021-10-14 16:08:32.998498,-60
2021-10-14 16:08:32.998506,-84
2021-10-14 16:08:32.998514,-81
2021-10-14 16:08:32.998523,-105
2021-10-14 16:08:33.222851,-137
2021-10-14 16:08:33.222870,-122
2021-10-14 16:08:33.222879,-110
2021-10-14 16:08:33.222888,-125
2021-10-14 16:08:33.222896,-120
2021-10-14 16:08:33.222905,-113
2021-10-14 16:08:33.222913,-127
2021-10-14 16:08:33.222922,-120
2021-10-14 16:08:33.222930,-91
2021-10-14 16:08:33.222938,-84
2021-10-14 16:08:33.222947,-98
2021-10-14 16:08:33.222955,-98
2021-10-14 16:08:33.222963,-86
2021-10-14 16:08:33.222972,-72
2021-10-14 16:08:33.222980,-60
2021-10-14 16:08:33.222988,-67
2021-10-14 16:08:33.222997,-76
2021-10-14 16:08:33.223008,-57
2021-10-14 16:08:33.223016,-38
2021-10-14 16:08:33.223024,-48
2021-10-14 16:08:33.223033,-60
2021-10-14 16:08:33.223041,-57
2021-10-14 16:08:33.223049,-52
2021-10-14 16:08:33.223057,-50
2021-10-14 16:08:33.223066,-48
2021-10-14 16:08:33.223074,-55
2021-10-14 16:08:33.223082,-57
2021-10-14 16:08:33.223091,-45
2021-10-14 16:08:33.223099,-48
2021-10-14 16:08:33.223107,-57
2021-10-14 16:08:33.448234,-57
2021-10-14 16:08:33.448252,-64
2021-10-14 16:08:33.448262,-72
2021-10-14 16:08:33.448270,-60
2021-10-14 16:08:33.448279,-67
2021-10-14 16:08:33.448287,-88
2021-10-14 16:08:33.448296,-74
2021-10-14 16:08:33.448304,-57
2021-10-14 16:08:33.448313,-60
2021-10-14 16:08:33.448321,-60
2021-10-14 16:08:33.448329,-64
2021-10-14 16:08:33.448338,-79
2021-10-14 16:08:33.448346,-72
2021-10-14 16:08:33.448354,-48
2021-10-14 16:08:33.448363,-52
2021-10-14 16:08:33.448371,-72
2021-10-14 16:08:33.448380,-64
2021-10-14 16:08:33.448388,-43
2021-10-14 16:08:33.448396,-21
2021-10-14 16:08:33.448405,-9
2021-10-14 16:08:33.448413,0
2021-10-14 16:08:33.448421,-21
2021-10-14 16:08:33.448430,-69
2021-10-14 16:08:33.448438,-74
2021-10-14 16:08:33.448447,-45
2021-10-14 16:08:33.448455,-48
2021-10-14 16:08:33.448463,-60
2021-10-14 16:08:33.448472,-50
2021-10-14 16:08:33.448480,-36
2021-10-14 16:08:33.448488,-33
2021-10-14 16:08:33.718340,-38
2021-10-14 16:08:33.718361,-33
2021-10-14 16:08:33.718370,-19
2021-10-14 16:08:33.718379,-4
2021-10-14 16:08:33.718387,76
2021-10-14 16:08:33.718396,396
2021-10-14 16:08:33.718404,803
2021-10-14 16:08:33.718412,656
2021-10-14 16:08:33.718421,-315
2021-10-14 16:08:33.718429,-1187
2021-10-14 16:08:33.718438,-981
2021-10-14 16:08:33.718446,-336
2021-10-14 16:08:33.718454,-141
2021-10-14 16:08:33.718463,-93
2021-10-14 16:08:33.718471,55
2021-10-14 16:08:33.718479,76
2021-10-14 16:08:33.718488,55
2021-10-14 16:08:33.718496,91
2021-10-14 16:08:33.718504,79
2021-10-14 16:08:33.718512,55
2021-10-14 16:08:33.718521,86
2021-10-14 16:08:33.718529,98
2021-10-14 16:08:33.718537,86
2021-10-14 16:08:33.718545,101
2021-10-14 16:08:33.718553,115
2021-10-14 16:08:33.718562,115
2021-10-14 16:08:33.718570,134
2021-10-14 16:08:33.718578,163
2021-10-14 16:08:33.718586,165
2021-10-14 16:08:33.718599,175
2021-10-14 16:08:33.942962,192
2021-10-14 16:08:33.942984,194
2021-10-14 16:08:33.942994,199
2021-10-14 16:08:33.943003,221
2021-10-14 16:08:33.943011,240
2021-10-14 16:08:33.943019,242
2021-10-14 16:08:33.943028,240
2021-10-14 16:08:33.943036,230
2021-10-14 16:08:33.943044,194
2021-10-14 16:08:33.943052,163
2021-10-14 16:08:33.943061,146
2021-10-14 16:08:33.943069,101
2021-10-14 16:08:33.943078,48
2021-10-14 16:08:33.943086,12
2021-10-14 16:08:33.943094,-28
2021-10-14 16:08:33.943102,-67
2021-10-14 16:08:33.943111,-91
2021-10-14 16:08:33.943119,-91
2021-10-14 16:08:33.943127,-79
2021-10-14 16:08:33.943136,-98
2021-10-14 16:08:33.943144,-144
2021-10-14 16:08:33.943152,-144
2021-10-14 16:08:33.943160,-120
2021-10-14 16:08:33.943169,-110
2021-10-14 16:08:33.943177,-105
2021-10-14 16:08:33.943185,-101
2021-10-14 16:08:33.943193,-101
2021-10-14 16:08:33.943201,-91
2021-10-14 16:08:33.943209,-81
2021-10-14 16:08:33.943218,-91
2021-10-14 16:08:34.168231,-74
2021-10-14 16:08:34.168250,-45
2021-10-14 16:08:34.168259,-50
2021-10-14 16:08:34.168268,-64
2021-10-14 16:08:34.168276,-48
2021-10-14 16:08:34.168284,-40
2021-10-14 16:08:34.168293,-48
2021-10-14 16:08:34.168301,-45
2021-10-14 16:08:34.168309,-55
2021-10-14 16:08:34.168318,-64
2021-10-14 16:08:34.168326,-40
2021-10-14 16:08:34.168334,-36
2021-10-14 16:08:34.168342,-64
2021-10-14 16:08:34.168351,-86
2021-10-14 16:08:34.168359,-86
2021-10-14 16:08:34.168367,-86
2021-10-14 16:08:34.168375,-93
2021-10-14 16:08:34.168383,-88
2021-10-14 16:08:34.168391,-74
2021-10-14 16:08:34.168400,-86
2021-10-14 16:08:34.168408,-108
2021-10-14 16:08:34.168416,-91
2021-10-14 16:08:34.168424,-81
2021-10-14 16:08:34.168433,-91
2021-10-14 16:08:34.168441,-72
2021-10-14 16:08:34.168449,-55
2021-10-14 16:08:34.168457,-62
2021-10-14 16:08:34.168466,-74
2021-10-14 16:08:34.168474,-74
2021-10-14 16:08:34.168482,-64
2021-10-14 16:08:34.481504,-74
2021-10-14 16:08:34.481524,-72
2021-10-14 16:08:34.481534,-38
2021-10-14 16:08:34.481544,-28
2021-10-14 16:08:34.481553,-50
2021-10-14 16:08:34.481562,-40
2021-10-14 16:08:34.481571,-21
2021-10-14 16:08:34.481580,-40
2021-10-14 16:08:34.481589,-55
2021-10-14 16:08:34.481599,-36
2021-10-14 16:08:34.481607,-24
2021-10-14 16:08:34.481616,-19
2021-10-14 16:08:34.481625,-21
2021-10-14 16:08:34.481634,-9
2021-10-14 16:08:34.481643,16
2021-10-14 16:08:34.481652,12
2021-10-14 16:08:34.481661,-19
2021-10-14 16:08:34.481670,-36
2021-10-14 16:08:34.481679,-40
2021-10-14 16:08:34.481688,-33
2021-10-14 16:08:34.481702,-24
2021-10-14 16:08:34.481711,-19
2021-10-14 16:08:34.481720,-21
2021-10-14 16:08:34.481729,-21
2021-10-14 16:08:34.481737,-16
2021-10-14 16:08:34.481746,-16
2021-10-14 16:08:34.481755,-14
2021-10-14 16:08:34.481763,-2
2021-10-14 16:08:34.481771,55
2021-10-14 16:08:34.481780,307
2021-10-14 16:08:34.618416,719
2021-10-14 16:08:34.618438,800
2021-10-14 16:08:34.618448,50
2021-10-14 16:08:34.618456,-973
2021-10-14 16:08:34.618465,-1050
2021-10-14 16:08:34.618473,-401
2021-10-14 16:08:34.618481,-110
2021-10-14 16:08:34.618490,-93
2021-10-14 16:08:34.618498,45
2021-10-14 16:08:34.618506,110
2021-10-14 16:08:34.618515,74
2021-10-14 16:08:34.618523,101
2021-10-14 16:08:34.618531,115
2021-10-14 16:08:34.618540,93
2021-10-14 16:08:34.618548,110
2021-10-14 16:08:34.618556,141
2021-10-14 16:08:34.618565,132
2021-10-14 16:08:34.618573,117
2021-10-14 16:08:34.618581,139
2021-10-14 16:08:34.618589,149
2021-10-14 16:08:34.618598,139
2021-10-14 16:08:34.618606,146
2021-10-14 16:08:34.618614,170
2021-10-14 16:08:34.618622,180
2021-10-14 16:08:34.618631,180
2021-10-14 16:08:34.618639,209
2021-10-14 16:08:34.618647,233
2021-10-14 16:08:34.618656,223
2021-10-14 16:08:34.618664,238
2021-10-14 16:08:34.618672,269
2021-10-14 16:08:34.843323,259
2021-10-14 16:08:34.843344,228
2021-10-14 16:08:34.843353,216
2021-10-14 16:08:34.843361,214
2021-10-14 16:08:34.843370,187
2021-10-14 16:08:34.843378,139
2021-10-14 16:08:34.843386,86
2021-10-14 16:08:34.843395,43
2021-10-14 16:08:34.843403,24
2021-10-14 16:08:34.843412,-7
2021-10-14 16:08:34.843420,-50
2021-10-14 16:08:34.843428,-72
2021-10-14 16:08:34.843437,-81
2021-10-14 16:08:34.843445,-96
2021-10-14 16:08:34.843454,-108
2021-10-14 16:08:34.843462,-113
2021-10-14 16:08:34.843471,-101
2021-10-14 16:08:34.843479,-74
2021-10-14 16:08:34.843487,-74
2021-10-14 16:08:34.843496,-84
2021-10-14 16:08:34.843504,-72
2021-10-14 16:08:34.843512,-76
2021-10-14 16:08:34.843521,-103
2021-10-14 16:08:34.843529,-86
2021-10-14 16:08:34.843537,-45
2021-10-14 16:08:34.843546,-33
2021-10-14 16:08:34.843554,-45
2021-10-14 16:08:34.843562,-52
2021-10-14 16:08:34.843571,-48
2021-10-14 16:08:34.843579,-40
2021-10-14 16:08:35.068316,-55
2021-10-14 16:08:35.068337,-67
2021-10-14 16:08:35.068346,-43
2021-10-14 16:08:35.068355,-33
2021-10-14 16:08:35.068363,-60
2021-10-14 16:08:35.068372,-67
2021-10-14 16:08:35.068380,-45
2021-10-14 16:08:35.068388,-40
2021-10-14 16:08:35.068397,-50
2021-10-14 16:08:35.068405,-50
2021-10-14 16:08:35.068413,-57
2021-10-14 16:08:35.068422,-64
2021-10-14 16:08:35.068430,-50
2021-10-14 16:08:35.068438,-45
2021-10-14 16:08:35.068447,-62
2021-10-14 16:08:35.068455,-55
2021-10-14 16:08:35.068463,-31
2021-10-14 16:08:35.068471,-40
2021-10-14 16:08:35.068479,-43
2021-10-14 16:08:35.068488,-14
2021-10-14 16:08:35.068496,-21
2021-10-14 16:08:35.068504,-48
2021-10-14 16:08:35.068517,-31
2021-10-14 16:08:35.068526,-12
2021-10-14 16:08:35.068534,-43
2021-10-14 16:08:35.068542,-67
2021-10-14 16:08:35.068550,-33
2021-10-14 16:08:35.068559,-4
2021-10-14 16:08:35.068567,-26
2021-10-14 16:08:35.068575,-38
2021-10-14 16:08:35.292889,-14
2021-10-14 16:08:35.292908,-4
2021-10-14 16:08:35.292918,-2
2021-10-14 16:08:35.292926,14
2021-10-14 16:08:35.292935,-9
2021-10-14 16:08:35.292943,-48
2021-10-14 16:08:35.292952,-36
2021-10-14 16:08:35.292960,-31
2021-10-14 16:08:35.292969,-52
2021-10-14 16:08:35.292977,-48
2021-10-14 16:08:35.292985,-33
2021-10-14 16:08:35.292993,-38
2021-10-14 16:08:35.293002,-28
2021-10-14 16:08:35.293010,-16
2021-10-14 16:08:35.293018,-12
2021-10-14 16:08:35.293027,-4
2021-10-14 16:08:35.293035,-2
2021-10-14 16:08:35.293043,64
2021-10-14 16:08:35.293052,327
2021-10-14 16:08:35.293060,726
2021-10-14 16:08:35.293069,735
2021-10-14 16:08:35.293077,-103
2021-10-14 16:08:35.293085,-1055
2021-10-14 16:08:35.293093,-1019
2021-10-14 16:08:35.293102,-411
2021-10-14 16:08:35.293110,-146
2021-10-14 16:08:35.293118,-64
2021-10-14 16:08:35.293127,88
2021-10-14 16:08:35.293135,127
2021-10-14 16:08:35.293143,93
2021-10-14 16:08:35.563372,122
2021-10-14 16:08:35.563393,151
2021-10-14 16:08:35.563402,144
2021-10-14 16:08:35.563411,141
2021-10-14 16:08:35.563419,144
2021-10-14 16:08:35.563428,144
2021-10-14 16:08:35.563436,156
2021-10-14 16:08:35.563444,175
2021-10-14 16:08:35.563453,187
2021-10-14 16:08:35.563461,185
2021-10-14 16:08:35.563469,189
2021-10-14 16:08:35.563478,209
2021-10-14 16:08:35.563486,209
2021-10-14 16:08:35.563494,211
2021-10-14 16:08:35.563503,240
2021-10-14 16:08:35.563511,266
2021-10-14 16:08:35.563520,281
2021-10-14 16:08:35.563528,298
2021-10-14 16:08:35.563536,322
2021-10-14 16:08:35.563544,341
2021-10-14 16:08:35.563553,324
2021-10-14 16:08:35.563561,283
2021-10-14 16:08:35.563569,271
2021-10-14 16:08:35.563578,252
2021-10-14 16:08:35.563586,185
2021-10-14 16:08:35.563594,127
2021-10-14 16:08:35.563603,105
2021-10-14 16:08:35.563611,76
2021-10-14 16:08:35.563620,57
2021-10-14 16:08:35.563628,50
2021-10-14 16:08:35.787929,21
2021-10-14 16:08:35.787949,-9
2021-10-14 16:08:35.787958,-12
2021-10-14 16:08:35.787967,-2
2021-10-14 16:08:35.787975,-7
2021-10-14 16:08:35.787984,-16
2021-10-14 16:08:35.787992,2
2021-10-14 16:08:35.788000,19
2021-10-14 16:08:35.788009,0
2021-10-14 16:08:35.788017,-2
2021-10-14 16:08:35.788026,43
2021-10-14 16:08:35.788034,62
2021-10-14 16:08:35.788043,52
2021-10-14 16:08:35.788051,57
2021-10-14 16:08:35.788059,72
2021-10-14 16:08:35.788068,69
2021-10-14 16:08:35.788076,76
2021-10-14 16:08:35.788084,96
2021-10-14 16:08:35.788092,103
2021-10-14 16:08:35.788101,115
2021-10-14 16:08:35.788109,129
2021-10-14 16:08:35.788117,117
2021-10-14 16:08:35.788125,101
2021-10-14 16:08:35.788134,103
2021-10-14 16:08:35.788142,115
2021-10-14 16:08:35.788150,120
2021-10-14 16:08:35.788158,117
2021-10-14 16:08:35.788167,134
2021-10-14 16:08:35.788175,149
2021-10-14 16:08:35.788183,132
2021-10-14 16:08:36.102639,127
2021-10-14 16:08:36.102659,149
2021-10-14 16:08:36.102668,156
2021-10-14 16:08:36.102677,161
2021-10-14 16:08:36.102685,165
2021-10-14 16:08:36.102697,144
2021-10-14 16:08:36.102705,127
2021-10-14 16:08:36.102714,141
2021-10-14 16:08:36.102722,163
2021-10-14 16:08:36.102731,170
2021-10-14 16:08:36.102758,156
2021-10-14 16:08:36.102768,146
2021-10-14 16:08:36.102777,168
2021-10-14 16:08:36.102785,175
2021-10-14 16:08:36.102794,156
2021-10-14 16:08:36.102802,153
2021-10-14 16:08:36.102810,153
2021-10-14 16:08:36.102819,149
2021-10-14 16:08:36.102827,165
2021-10-14 16:08:36.102835,180
2021-10-14 16:08:36.102844,163
2021-10-14 16:08:36.102852,168
2021-10-14 16:08:36.102860,209
2021-10-14 16:08:36.102868,230
2021-10-14 16:08:36.102877,226
2021-10-14 16:08:36.102885,206
2021-10-14 16:08:36.102894,177
2021-10-14 16:08:36.102902,161
2021-10-14 16:08:36.102910,161
2021-10-14 16:08:36.102918,151
2021-10-14 16:08:36.237896,146
2021-10-14 16:08:36.237915,161
2021-10-14 16:08:36.237924,168
2021-10-14 16:08:36.237933,161
2021-10-14 16:08:36.237941,158
2021-10-14 16:08:36.237949,149
2021-10-14 16:08:36.237958,146
2021-10-14 16:08:36.237966,158
2021-10-14 16:08:36.237974,197
2021-10-14 16:08:36.237983,355
2021-10-14 16:08:36.237991,743
2021-10-14 16:08:36.237999,1010
2021-10-14 16:08:36.238008,488
2021-10-14 16:08:36.238016,-620
2021-10-14 16:08:36.238024,-1053
2021-10-14 16:08:36.238032,-476
2021-10-14 16:08:36.238041,-12
2021-10-14 16:08:36.238049,2
2021-10-14 16:08:36.238057,110
2021-10-14 16:08:36.238066,235
2021-10-14 16:08:36.238074,187
2021-10-14 16:08:36.238082,163
2021-10-14 16:08:36.238090,211
2021-10-14 16:08:36.238099,216
2021-10-14 16:08:36.238107,204
2021-10-14 16:08:36.238115,202
2021-10-14 16:08:36.238124,197
2021-10-14 16:08:36.238132,218
2021-10-14 16:08:36.238140,221
2021-10-14 16:08:36.238148,194
2021-10-14 16:08:36.551682,214
2021-10-14 16:08:36.551702,257
2021-10-14 16:08:36.551711,247
2021-10-14 16:08:36.551720,223
2021-10-14 16:08:36.551728,245
2021-10-14 16:08:36.551736,281
2021-10-14 16:08:36.551745,293
2021-10-14 16:08:36.551753,278
2021-10-14 16:08:36.551762,274
2021-10-14 16:08:36.551770,290
2021-10-14 16:08:36.551778,295
2021-10-14 16:08:36.551787,271
2021-10-14 16:08:36.551795,247
2021-10-14 16:08:36.551803,223
2021-10-14 16:08:36.551812,189
2021-10-14 16:08:36.551820,149
2021-10-14 16:08:36.551828,108
2021-10-14 16:08:36.551836,60
2021-10-14 16:08:36.551844,19
2021-10-14 16:08:36.551853,-19
2021-10-14 16:08:36.551861,-57
2021-10-14 16:08:36.551869,-64
2021-10-14 16:08:36.551878,-55
2021-10-14 16:08:36.551886,-76
2021-10-14 16:08:36.551894,-96
2021-10-14 16:08:36.551902,-84
2021-10-14 16:08:36.551910,-81
2021-10-14 16:08:36.551918,-93
2021-10-14 16:08:36.551927,-91
2021-10-14 16:08:36.551935,-101
2021-10-14 16:08:36.733328,-122
2021-10-14 16:08:36.733348,-103
2021-10-14 16:08:36.733357,-69
2021-10-14 16:08:36.733366,-84
2021-10-14 16:08:36.733374,-108
2021-10-14 16:08:36.733382,-86
2021-10-14 16:08:36.733391,-64
2021-10-14 16:08:36.733399,-60
2021-10-14 16:08:36.733407,-64
2021-10-14 16:08:36.733415,-93
2021-10-14 16:08:36.733424,-110
2021-10-14 16:08:36.733432,-105
2021-10-14 16:08:36.733441,-108
2021-10-14 16:08:36.733449,-103
2021-10-14 16:08:36.733457,-91
2021-10-14 16:08:36.733465,-98
2021-10-14 16:08:36.733473,-113
2021-10-14 16:08:36.733482,-110
2021-10-14 16:08:36.733490,-93
2021-10-14 16:08:36.733498,-91
2021-10-14 16:08:36.733507,-105
2021-10-14 16:08:36.733515,-117
2021-10-14 16:08:36.733523,-117
2021-10-14 16:08:36.733531,-105
2021-10-14 16:08:36.733540,-103
2021-10-14 16:08:36.733548,-105
2021-10-14 16:08:36.733556,-98
2021-10-14 16:08:36.733565,-93
2021-10-14 16:08:36.733573,-93
2021-10-14 16:08:36.733581,-88
2021-10-14 16:08:36.913346,-81
2021-10-14 16:08:36.913368,-81
2021-10-14 16:08:36.913378,-86
2021-10-14 16:08:36.913387,-88
2021-10-14 16:08:36.913395,-84
2021-10-14 16:08:36.913404,-79
2021-10-14 16:08:36.913412,-79
2021-10-14 16:08:36.913420,-76
2021-10-14 16:08:36.913429,-69
2021-10-14 16:08:36.913437,-69
2021-10-14 16:08:36.913445,-79
2021-10-14 16:08:36.913454,-76
2021-10-14 16:08:36.913462,-60
2021-10-14 16:08:36.913471,-57
2021-10-14 16:08:36.913479,-93
2021-10-14 16:08:36.913487,-98
2021-10-14 16:08:36.913496,-55
2021-10-14 16:08:36.913504,-36
2021-10-14 16:08:36.913512,-40
2021-10-14 16:08:36.913521,-36
2021-10-14 16:08:36.913529,-48
2021-10-14 16:08:36.913537,-72
2021-10-14 16:08:36.913546,-79
2021-10-14 16:08:36.913554,-91
2021-10-14 16:08:36.913562,-98
2021-10-14 16:08:36.913571,-79
2021-10-14 16:08:36.913579,-60
2021-10-14 16:08:36.913587,-69
2021-10-14 16:08:36.913596,-86
2021-10-14 16:08:36.913604,-76
2021-10-14 16:08:37.137965,-55
2021-10-14 16:08:37.137985,-50
2021-10-14 16:08:37.137995,-43
2021-10-14 16:08:37.138003,21
2021-10-14 16:08:37.138012,278
2021-10-14 16:08:37.138020,678
2021-10-14 16:08:37.138029,707
2021-10-14 16:08:37.138037,-103
2021-10-14 16:08:37.138045,-1089
2021-10-14 16:08:37.138054,-1060
2021-10-14 16:08:37.138062,-391
2021-10-14 16:08:37.138070,-149
2021-10-14 16:08:37.138079,-139
2021-10-14 16:08:37.138087,2
2021-10-14 16:08:37.138095,45
2021-10-14 16:08:37.138104,-14
2021-10-14 16:08:37.138112,-9
2021-10-14 16:08:37.138120,19
2021-10-14 16:08:37.138128,28
2021-10-14 16:08:37.138136,38
2021-10-14 16:08:37.138144,40
2021-10-14 16:08:37.138153,33
2021-10-14 16:08:37.138161,38
2021-10-14 16:08:37.138169,60
2021-10-14 16:08:37.138177,57
2021-10-14 16:08:37.138186,45
2021-10-14 16:08:37.138194,62
2021-10-14 16:08:37.138202,91
2021-10-14 16:08:37.138210,96
2021-10-14 16:08:37.138218,101
2021-10-14 16:08:37.363337,125
2021-10-14 16:08:37.363356,156
2021-10-14 16:08:37.363366,170
2021-10-14 16:08:37.363374,163
2021-10-14 16:08:37.363383,165
2021-10-14 16:08:37.363391,173
2021-10-14 16:08:37.363399,153
2021-10-14 16:08:37.363408,134
2021-10-14 16:08:37.363416,125
2021-10-14 16:08:37.363424,88
2021-10-14 16:08:37.363433,48
2021-10-14 16:08:37.363441,24
2021-10-14 16:08:37.363449,-14
2021-10-14 16:08:37.363458,-62
2021-10-14 16:08:37.363466,-79
2021-10-14 16:08:37.363474,-74
2021-10-14 16:08:37.363483,-91
2021-10-14 16:08:37.363491,-115
2021-10-14 16:08:37.363499,-127
2021-10-14 16:08:37.363508,-153
2021-10-14 16:08:37.363516,-170
2021-10-14 16:08:37.363524,-163
2021-10-14 16:08:37.363533,-158
2021-10-14 16:08:37.363541,-163
2021-10-14 16:08:37.363549,-161
2021-10-14 16:08:37.363557,-161
2021-10-14 16:08:37.363565,-163
2021-10-14 16:08:37.363574,-156
2021-10-14 16:08:37.363582,-132
2021-10-14 16:08:37.363590,-122
2021-10-14 16:08:37.633391,-127
2021-10-14 16:08:37.633412,-115
2021-10-14 16:08:37.633421,-101
2021-10-14 16:08:37.633430,-113
2021-10-14 16:08:37.633439,-120
2021-10-14 16:08:37.633447,-105
2021-10-14 16:08:37.633455,-98
2021-10-14 16:08:37.633464,-105
2021-10-14 16:08:37.633472,-110
2021-10-14 16:08:37.633480,-117
2021-10-14 16:08:37.633489,-120
2021-10-14 16:08:37.633497,-122
2021-10-14 16:08:37.633506,-122
2021-10-14 16:08:37.633514,-115
2021-10-14 16:08:37.633522,-105
2021-10-14 16:08:37.633531,-103
2021-10-14 16:08:37.633539,-113
2021-10-14 16:08:37.633547,-113
2021-10-14 16:08:37.633556,-101
2021-10-14 16:08:37.633564,-88
2021-10-14 16:08:37.633572,-96
2021-10-14 16:08:37.633581,-105
2021-10-14 16:08:37.633589,-110
2021-10-14 16:08:37.633597,-117
2021-10-14 16:08:37.633605,-117
2021-10-14 16:08:37.633614,-110
2021-10-14 16:08:37.633622,-96
2021-10-14 16:08:37.633630,-76
2021-10-14 16:08:37.633639,-79
2021-10-14 16:08:37.633647,-88
2021-10-14 16:08:37.857985,-84
2021-10-14 16:08:37.858005,-74
2021-10-14 16:08:37.858015,-81
2021-10-14 16:08:37.858023,-88
2021-10-14 16:08:37.858031,-76
2021-10-14 16:08:37.858040,-62
2021-10-14 16:08:37.858048,-57
2021-10-14 16:08:37.858056,-62
2021-10-14 16:08:37.858065,-69
2021-10-14 16:08:37.858073,-62
2021-10-14 16:08:37.858082,-50
2021-10-14 16:08:37.858093,-40
2021-10-14 16:08:37.858101,-33
2021-10-14 16:08:37.858109,-26
2021-10-14 16:08:37.858118,-26
2021-10-14 16:08:37.858126,-36
2021-10-14 16:08:37.858134,-55
2021-10-14 16:08:37.858143,-72
2021-10-14 16:08:37.858151,-69
2021-10-14 16:08:37.858159,-57
2021-10-14 16:08:37.858167,-57
2021-10-14 16:08:37.858176,-60
2021-10-14 16:08:37.858184,-62
2021-10-14 16:08:37.858192,-60
2021-10-14 16:08:37.858201,-55
2021-10-14 16:08:37.858209,-50
2021-10-14 16:08:37.858217,-43
2021-10-14 16:08:37.858225,-21
2021-10-14 16:08:37.858234,50
2021-10-14 16:08:37.858242,281
2021-10-14 16:08:38.083304,644
2021-10-14 16:08:38.083323,666
2021-10-14 16:08:38.083333,-103
2021-10-14 16:08:38.083342,-1007
2021-10-14 16:08:38.083350,-985
2021-10-14 16:08:38.083358,-428
2021-10-14 16:08:38.083367,-182
2021-10-14 16:08:38.083375,-113
2021-10-14 16:08:38.083384,14
2021-10-14 16:08:38.083392,55
2021-10-14 16:08:38.083400,38
2021-10-14 16:08:38.083409,62
2021-10-14 16:08:38.083417,81
2021-10-14 16:08:38.083425,76
2021-10-14 16:08:38.083433,76
2021-10-14 16:08:38.083442,74
2021-10-14 16:08:38.083450,72
2021-10-14 16:08:38.083458,96
2021-10-14 16:08:38.083467,115
2021-10-14 16:08:38.083475,108
2021-10-14 16:08:38.083483,117
2021-10-14 16:08:38.083492,137
2021-10-14 16:08:38.083500,144
2021-10-14 16:08:38.083509,149
2021-10-14 16:08:38.083517,158
2021-10-14 16:08:38.083525,168
2021-10-14 16:08:38.083533,187
2021-10-14 16:08:38.083542,197
2021-10-14 16:08:38.083550,192
2021-10-14 16:08:38.083558,199
2021-10-14 16:08:38.307974,209
2021-10-14 16:08:38.307994,204
2021-10-14 16:08:38.308003,182
2021-10-14 16:08:38.308011,156
2021-10-14 16:08:38.308020,134
2021-10-14 16:08:38.308028,110
2021-10-14 16:08:38.308037,57
2021-10-14 16:08:38.308045,-2
2021-10-14 16:08:38.308054,-48
2021-10-14 16:08:38.308062,-79
2021-10-14 16:08:38.308071,-101
2021-10-14 16:08:38.308079,-113
2021-10-14 16:08:38.308088,-127
2021-10-14 16:08:38.308096,-149
2021-10-14 16:08:38.308104,-156
2021-10-14 16:08:38.308113,-156
2021-10-14 16:08:38.308121,-153
2021-10-14 16:08:38.308129,-149
2021-10-14 16:08:38.308138,-151
2021-10-14 16:08:38.308146,-149
2021-10-14 16:08:38.308155,-146
2021-10-14 16:08:38.308163,-146
2021-10-14 16:08:38.308171,-134
2021-10-14 16:08:38.308180,-127
2021-10-14 16:08:38.308188,-134
2021-10-14 16:08:38.308197,-132
2021-10-14 16:08:38.308205,-115
2021-10-14 16:08:38.308214,-110
2021-10-14 16:08:38.308222,-108
2021-10-14 16:08:38.308230,-105
2021-10-14 16:08:38.577080,-108
2021-10-14 16:08:38.577101,-105
2021-10-14 16:08:38.577111,-93
2021-10-14 16:08:38.577119,-91
2021-10-14 16:08:38.577128,-91
2021-10-14 16:08:38.577137,-93
2021-10-14 16:08:38.577145,-105
2021-10-14 16:08:38.577154,-105
2021-10-14 16:08:38.577162,-91
2021-10-14 16:08:38.577171,-91
2021-10-14 16:08:38.577179,-96
2021-10-14 16:08:38.577188,-101
2021-10-14 16:08:38.577196,-103
2021-10-14 16:08:38.577205,-101
2021-10-14 16:08:38.577213,-93
2021-10-14 16:08:38.577221,-93
2021-10-14 16:08:38.577230,-91
2021-10-14 16:08:38.577238,-84
2021-10-14 16:08:38.577246,-86
2021-10-14 16:08:38.577255,-84
2021-10-14 16:08:38.577263,-69
2021-10-14 16:08:38.577271,-60
2021-10-14 16:08:38.577280,-57
2021-10-14 16:08:38.577288,-62
2021-10-14 16:08:38.577296,-72
2021-10-14 16:08:38.577305,-67
2021-10-14 16:08:38.577313,-50
2021-10-14 16:08:38.577321,-43
2021-10-14 16:08:38.577329,-43
2021-10-14 16:08:38.577338,-43
2021-10-14 16:08:38.758286,-31
2021-10-14 16:08:38.758305,-26
2021-10-14 16:08:38.758314,-57
2021-10-14 16:08:38.758323,-91
2021-10-14 16:08:38.758331,-88
2021-10-14 16:08:38.758340,-81
2021-10-14 16:08:38.758348,-86
2021-10-14 16:08:38.758356,-84
2021-10-14 16:08:38.758365,-84
2021-10-14 16:08:38.758373,-81
2021-10-14 16:08:38.758381,-76
2021-10-14 16:08:38.758390,-81
2021-10-14 16:08:38.758398,-79
2021-10-14 16:08:38.758406,-57
2021-10-14 16:08:38.758415,-19
2021-10-14 16:08:38.758423,134
2021-10-14 16:08:38.758431,500
2021-10-14 16:08:38.758440,755
2021-10-14 16:08:38.758448,262
2021-10-14 16:08:38.758456,-788
2021-10-14 16:08:38.758465,-1180
2021-10-14 16:08:38.758473,-654
2021-10-14 16:08:38.758481,-233
2021-10-14 16:08:38.758489,-168
2021-10-14 16:08:38.758498,-40
2021-10-14 16:08:38.758506,72
2021-10-14 16:08:38.758514,52
2021-10-14 16:08:38.758522,52
2021-10-14 16:08:38.758531,81
2021-10-14 16:08:38.758539,74
2021-10-14 16:08:38.982956,67
2021-10-14 16:08:38.982976,81
2021-10-14 16:08:38.982985,86
2021-10-14 16:08:38.982994,81
2021-10-14 16:08:38.983002,79
2021-10-14 16:08:38.983011,81
2021-10-14 16:08:38.983019,93
2021-10-14 16:08:38.983027,113
2021-10-14 16:08:38.983043,120
2021-10-14 16:08:38.983052,122
2021-10-14 16:08:38.983060,132
2021-10-14 16:08:38.983069,151
2021-10-14 16:08:38.983077,177
2021-10-14 16:08:38.983085,189
2021-10-14 16:08:38.983094,185
2021-10-14 16:08:38.983102,189
2021-10-14 16:08:38.983110,192
2021-10-14 16:08:38.983119,182
2021-10-14 16:08:38.983127,177
2021-10-14 16:08:38.983135,163
2021-10-14 16:08:38.983143,129
2021-10-14 16:08:38.983152,88
2021-10-14 16:08:38.983160,52
2021-10-14 16:08:38.983169,19
2021-10-14 16:08:38.983177,-19
2021-10-14 16:08:38.983186,-50
2021-10-14 16:08:38.983194,-72
2021-10-14 16:08:38.983202,-96
2021-10-14 16:08:38.983211,-122
2021-10-14 16:08:38.983219,-129
2021-10-14 16:08:39.207933,-125
2021-10-14 16:08:39.207952,-122
2021-10-14 16:08:39.207961,-134
2021-10-14 16:08:39.207970,-149
2021-10-14 16:08:39.207978,-149
2021-10-14 16:08:39.207987,-141
2021-10-14 16:08:39.207995,-134
2021-10-14 16:08:39.208003,-134
2021-10-14 16:08:39.208011,-144
2021-10-14 16:08:39.208020,-156
2021-10-14 16:08:39.208028,-156
2021-10-14 16:08:39.208036,-151
2021-10-14 16:08:39.208044,-141
2021-10-14 16:08:39.208053,-125
2021-10-14 16:08:39.208061,-120
2021-10-14 16:08:39.208069,-127
2021-10-14 16:08:39.208077,-125
2021-10-14 16:08:39.208085,-110
2021-10-14 16:08:39.208094,-101
2021-10-14 16:08:39.208102,-93
2021-10-14 16:08:39.208110,-93
2021-10-14 16:08:39.208118,-103
2021-10-14 16:08:39.208126,-113
2021-10-14 16:08:39.208135,-105
2021-10-14 16:08:39.208143,-98
2021-10-14 16:08:39.208151,-93
2021-10-14 16:08:39.208159,-96
2021-10-14 16:08:39.208168,-98
2021-10-14 16:08:39.208176,-91
2021-10-14 16:08:39.208184,-86
2021-10-14 16:08:39.523008,-88
2021-10-14 16:08:39.523029,-81
2021-10-14 16:08:39.523038,-79
2021-10-14 16:08:39.523047,-93
2021-10-14 16:08:39.523055,-96
2021-10-14 16:08:39.523064,-93
2021-10-14 16:08:39.523073,-93
2021-10-14 16:08:39.523081,-86
2021-10-14 16:08:39.523089,-81
2021-10-14 16:08:39.523209,-93
2021-10-14 16:08:39.523222,-98
2021-10-14 16:08:39.523231,-81
2021-10-14 16:08:39.523240,-72
2021-10-14 16:08:39.523247,-72
2021-10-14 16:08:39.523254,-69
2021-10-14 16:08:39.523261,-69
2021-10-14 16:08:39.523269,-62
2021-10-14 16:08:39.523276,-43
2021-10-14 16:08:39.523283,-24
2021-10-14 16:08:39.523290,-16
2021-10-14 16:08:39.523297,-24
2021-10-14 16:08:39.523304,-50
2021-10-14 16:08:39.523311,-64
2021-10-14 16:08:39.523318,-60
2021-10-14 16:08:39.523325,-52
2021-10-14 16:08:39.523332,-52
2021-10-14 16:08:39.523339,-52
2021-10-14 16:08:39.523346,-55
2021-10-14 16:08:39.523354,-40
2021-10-14 16:08:39.523361,-31
2021-10-14 16:08:39.703121,-43
2021-10-14 16:08:39.703145,-50
2021-10-14 16:08:39.703155,-36
2021-10-14 16:08:39.703164,24
2021-10-14 16:08:39.703172,264
2021-10-14 16:08:39.703181,663
2021-10-14 16:08:39.703189,719
2021-10-14 16:08:39.703197,-60
2021-10-14 16:08:39.703206,-1038
2021-10-14 16:08:39.703214,-1046
2021-10-14 16:08:39.703222,-401
2021-10-14 16:08:39.703231,-129
2021-10-14 16:08:39.703239,-105
2021-10-14 16:08:39.703247,24
2021-10-14 16:08:39.703256,67
2021-10-14 16:08:39.703264,19
2021-10-14 16:08:39.703272,45
2021-10-14 16:08:39.703281,84
2021-10-14 16:08:39.703289,69
2021-10-14 16:08:39.703297,67
2021-10-14 16:08:39.703306,76
2021-10-14 16:08:39.703314,67
2021-10-14 16:08:39.703322,69
2021-10-14 16:08:39.703331,84
2021-10-14 16:08:39.703339,93
2021-10-14 16:08:39.703347,105
2021-10-14 16:08:39.703355,120
2021-10-14 16:08:39.703364,129
2021-10-14 16:08:39.703372,141
2021-10-14 16:08:39.703380,158
2021-10-14 16:08:39.928340,168
2021-10-14 16:08:39.928359,180
2021-10-14 16:08:39.928369,199
2021-10-14 16:08:39.928377,206
2021-10-14 16:08:39.928386,202
2021-10-14 16:08:39.928394,197
2021-10-14 16:08:39.928403,197
2021-10-14 16:08:39.928411,180
2021-10-14 16:08:39.928419,144
2021-10-14 16:08:39.928427,105
2021-10-14 16:08:39.928436,74
2021-10-14 16:08:39.928444,40
2021-10-14 16:08:39.928452,-7
2021-10-14 16:08:39.928461,-52
2021-10-14 16:08:39.928469,-84
2021-10-14 16:08:39.928478,-108
2021-10-14 16:08:39.928486,-115
2021-10-14 16:08:39.928494,-117
2021-10-14 16:08:39.928502,-125
2021-10-14 16:08:39.928511,-132
2021-10-14 16:08:39.928519,-134
2021-10-14 16:08:39.928527,-139
2021-10-14 16:08:39.928536,-141
2021-10-14 16:08:39.928544,-139
2021-10-14 16:08:39.928552,-141
2021-10-14 16:08:39.928561,-144
2021-10-14 16:08:39.928569,-144
2021-10-14 16:08:39.928577,-141
2021-10-14 16:08:39.928585,-125
2021-10-14 16:08:39.928594,-110
2021-10-14 16:08:40.153022,-101
2021-10-14 16:08:40.153043,-98
2021-10-14 16:08:40.153052,-101
2021-10-14 16:08:40.153061,-98
2021-10-14 16:08:40.153069,-88
2021-10-14 16:08:40.153078,-86
2021-10-14 16:08:40.153086,-86
2021-10-14 16:08:40.153094,-84
2021-10-14 16:08:40.153103,-88
2021-10-14 16:08:40.153111,-88
2021-10-14 16:08:40.153120,-79
2021-10-14 16:08:40.153128,-79
2021-10-14 16:08:40.153136,-88
2021-10-14 16:08:40.153145,-84
2021-10-14 16:08:40.153153,-76
2021-10-14 16:08:40.153161,-76
2021-10-14 16:08:40.153169,-79
2021-10-14 16:08:40.153178,-76
2021-10-14 16:08:40.153186,-69
2021-10-14 16:08:40.153194,-69
2021-10-14 16:08:40.153202,-76
2021-10-14 16:08:40.153211,-76
2021-10-14 16:08:40.153219,-72
2021-10-14 16:08:40.153233,-72
2021-10-14 16:08:40.153241,-74
2021-10-14 16:08:40.153249,-74
2021-10-14 16:08:40.153258,-72
2021-10-14 16:08:40.153266,-74
2021-10-14 16:08:40.153274,-69
2021-10-14 16:08:40.153283,-60
2021-10-14 16:08:40.378007,-62
2021-10-14 16:08:40.378027,-64
2021-10-14 16:08:40.378037,-57
2021-10-14 16:08:40.378046,-50
2021-10-14 16:08:40.378054,-45
2021-10-14 16:08:40.378062,-48
2021-10-14 16:08:40.378071,-52
2021-10-14 16:08:40.378079,-52
2021-10-14 16:08:40.378088,-48
2021-10-14 16:08:40.378096,-43
2021-10-14 16:08:40.378104,-24
2021-10-14 16:08:40.378112,-7
2021-10-14 16:08:40.378121,-14
2021-10-14 16:08:40.378129,-26
2021-10-14 16:08:40.378137,-33
2021-10-14 16:08:40.378146,-43
2021-10-14 16:08:40.378154,-52
2021-10-14 16:08:40.378162,-62
2021-10-14 16:08:40.378170,-62
2021-10-14 16:08:40.378179,-55
2021-10-14 16:08:40.378187,-50
2021-10-14 16:08:40.378195,-45
2021-10-14 16:08:40.378204,-38
2021-10-14 16:08:40.378212,-36
2021-10-14 16:08:40.378220,-28
2021-10-14 16:08:40.378228,-12
2021-10-14 16:08:40.378237,0
2021-10-14 16:08:40.378245,62
2021-10-14 16:08:40.378253,327
2021-10-14 16:08:40.378261,719
2021-10-14 16:08:40.692724,714
2021-10-14 16:08:40.692747,-88
2021-10-14 16:08:40.692756,-1019
2021-10-14 16:08:40.692765,-957
2021-10-14 16:08:40.692774,-303
2021-10-14 16:08:40.692782,-79
2021-10-14 16:08:40.692791,-91
2021-10-14 16:08:40.692799,43
2021-10-14 16:08:40.692808,98
2021-10-14 16:08:40.692816,60
2021-10-14 16:08:40.692824,74
2021-10-14 16:08:40.692833,98
2021-10-14 16:08:40.692841,84
2021-10-14 16:08:40.692849,81
2021-10-14 16:08:40.692858,96
2021-10-14 16:08:40.692866,96
2021-10-14 16:08:40.692875,93
2021-10-14 16:08:40.692883,105
2021-10-14 16:08:40.692891,122
2021-10-14 16:08:40.692900,132
2021-10-14 16:08:40.692908,139
2021-10-14 16:08:40.692916,149
2021-10-14 16:08:40.692924,161
2021-10-14 16:08:40.692933,170
2021-10-14 16:08:40.692941,180
2021-10-14 16:08:40.692949,192
2021-10-14 16:08:40.692958,204
2021-10-14 16:08:40.692966,216
2021-10-14 16:08:40.692974,221
2021-10-14 16:08:40.692982,221
2021-10-14 16:08:40.828376,226
2021-10-14 16:08:40.828396,221
2021-10-14 16:08:40.828406,187
2021-10-14 16:08:40.828414,146
2021-10-14 16:08:40.828422,117
2021-10-14 16:08:40.828431,84
2021-10-14 16:08:40.828439,43
2021-10-14 16:08:40.828447,-2
2021-10-14 16:08:40.828456,-31
2021-10-14 16:08:40.828464,-45
2021-10-14 16:08:40.828472,-72
2021-10-14 16:08:40.828480,-93
2021-10-14 16:08:40.828489,-93
2021-10-14 16:08:40.828497,-91
2021-10-14 16:08:40.828505,-93
2021-10-14 16:08:40.828513,-88
2021-10-14 16:08:40.828521,-81
2021-10-14 16:08:40.828529,-81
2021-10-14 16:08:40.828537,-86
2021-10-14 16:08:40.828546,-88
2021-10-14 16:08:40.828554,-79
2021-10-14 16:08:40.828562,-62
2021-10-14 16:08:40.828570,-64
2021-10-14 16:08:40.828578,-67
2021-10-14 16:08:40.828586,-60
2021-10-14 16:08:40.828594,-50
2021-10-14 16:08:40.828602,-43
2021-10-14 16:08:40.828610,-43
2021-10-14 16:08:40.828619,-43
2021-10-14 16:08:40.828627,-31
2021-10-14 16:08:41.052974,-21
2021-10-14 16:08:41.052993,-24
2021-10-14 16:08:41.053002,-21
2021-10-14 16:08:41.053011,-19
2021-10-14 16:08:41.053019,-24
2021-10-14 16:08:41.053027,-16
2021-10-14 16:08:41.053036,-9
2021-10-14 16:08:41.053044,-14
2021-10-14 16:08:41.053052,-16
2021-10-14 16:08:41.053061,-12
2021-10-14 16:08:41.053069,-14
2021-10-14 16:08:41.053077,-14
2021-10-14 16:08:41.053085,-2
2021-10-14 16:08:41.053094,9
2021-10-14 16:08:41.053102,-4
2021-10-14 16:08:41.053110,-12
2021-10-14 16:08:41.053118,4
2021-10-14 16:08:41.053127,14
2021-10-14 16:08:41.053135,7
2021-10-14 16:08:41.053143,9
2021-10-14 16:08:41.053152,16
2021-10-14 16:08:41.053160,16
2021-10-14 16:08:41.053168,14
2021-10-14 16:08:41.053176,21
2021-10-14 16:08:41.053185,36
2021-10-14 16:08:41.053193,36
2021-10-14 16:08:41.053201,21
2021-10-14 16:08:41.053210,26
2021-10-14 16:08:41.053218,43
2021-10-14 16:08:41.053226,38
2021-10-14 16:08:41.322963,28
2021-10-14 16:08:41.322982,43
2021-10-14 16:08:41.322991,50
2021-10-14 16:08:41.323000,36
2021-10-14 16:08:41.323009,36
2021-10-14 16:08:41.323017,55
2021-10-14 16:08:41.323025,67
2021-10-14 16:08:41.323034,76
2021-10-14 16:08:41.323042,69
2021-10-14 16:08:41.323050,33
2021-10-14 16:08:41.323059,14
2021-10-14 16:08:41.323067,24
2021-10-14 16:08:41.323076,31
2021-10-14 16:08:41.323084,28
2021-10-14 16:08:41.323093,31
2021-10-14 16:08:41.323101,33
2021-10-14 16:08:41.323110,38
2021-10-14 16:08:41.323118,55
2021-10-14 16:08:41.323126,64
2021-10-14 16:08:41.323135,72
2021-10-14 16:08:41.323143,101
2021-10-14 16:08:41.323151,168
2021-10-14 16:08:41.323160,377
2021-10-14 16:08:41.323168,740
2021-10-14 16:08:41.323177,731
2021-10-14 16:08:41.323185,-101
2021-10-14 16:08:41.323194,-985
2021-10-14 16:08:41.323202,-889
2021-10-14 16:08:41.323210,-310
2021-10-14 16:08:41.323219,-81
2021-10-14 16:08:41.548019,0
2021-10-14 16:08:41.548039,144
2021-10-14 16:08:41.548048,170
2021-10-14 16:08:41.548057,139
2021-10-14 16:08:41.548066,165
2021-10-14 16:08:41.548074,180
2021-10-14 16:08:41.548083,165
2021-10-14 16:08:41.548091,173
2021-10-14 16:08:41.548099,182
2021-10-14 16:08:41.548108,175
2021-10-14 16:08:41.548116,173
2021-10-14 16:08:41.548124,180
2021-10-14 16:08:41.548132,182
2021-10-14 16:08:41.548141,187
2021-10-14 16:08:41.548149,194
2021-10-14 16:08:41.548158,194
2021-10-14 16:08:41.548166,199
2021-10-14 16:08:41.548174,223
2021-10-14 16:08:41.548183,245
2021-10-14 16:08:41.548191,259
2021-10-14 16:08:41.548199,271
2021-10-14 16:08:41.548207,276
2021-10-14 16:08:41.548216,278
2021-10-14 16:08:41.548224,271
2021-10-14 16:08:41.548232,257
2021-10-14 16:08:41.548240,240
2021-10-14 16:08:41.548249,218
2021-10-14 16:08:41.548257,187
2021-10-14 16:08:41.548265,144
2021-10-14 16:08:41.548276,93
2021-10-14 16:08:41.817432,57
2021-10-14 16:08:41.817454,36
2021-10-14 16:08:41.817463,4
2021-10-14 16:08:41.817472,-31
2021-10-14 16:08:41.817481,-38
2021-10-14 16:08:41.817489,-38
2021-10-14 16:08:41.817497,-55
2021-10-14 16:08:41.817506,-74
2021-10-14 16:08:41.817514,-79
2021-10-14 16:08:41.817522,-88
2021-10-14 16:08:41.817531,-93
2021-10-14 16:08:41.817539,-86
2021-10-14 16:08:41.817548,-76
2021-10-14 16:08:41.817556,-76
2021-10-14 16:08:41.817565,-79
2021-10-14 16:08:41.817573,-84
2021-10-14 16:08:41.817581,-93
2021-10-14 16:08:41.817589,-103
2021-10-14 16:08:41.817598,-96
2021-10-14 16:08:41.817606,-96
2021-10-14 16:08:41.817614,-105
2021-10-14 16:08:41.817622,-96
2021-10-14 16:08:41.817631,-86
2021-10-14 16:08:41.817639,-86
2021-10-14 16:08:41.817647,-76
2021-10-14 16:08:41.817655,-76
2021-10-14 16:08:41.817664,-86
2021-10-14 16:08:41.817672,-88
2021-10-14 16:08:41.817680,-93
2021-10-14 16:08:41.817688,-91
2021-10-14 16:08:41.998350,-74
2021-10-14 16:08:41.998369,-81
2021-10-14 16:08:41.998379,-96
2021-10-14 16:08:41.998388,-72
2021-10-14 16:08:41.998396,-50
2021-10-14 16:08:41.998405,-60
2021-10-14 16:08:41.998413,-76
2021-10-14 16:08:41.998422,-79
2021-10-14 16:08:41.998430,-72
2021-10-14 16:08:41.998438,-67
2021-10-14 16:08:41.998447,-74
2021-10-14 16:08:41.998455,-72
2021-10-14 16:08:41.998464,-55
2021-10-14 16:08:41.998472,-57
2021-10-14 16:08:41.998480,-57
2021-10-14 16:08:41.998488,-45
2021-10-14 16:08:41.998496,-50
2021-10-14 16:08:41.998505,-62
2021-10-14 16:08:41.998513,-57
2021-10-14 16:08:41.998521,-52
2021-10-14 16:08:41.998529,-48
2021-10-14 16:08:41.998538,-43
2021-10-14 16:08:41.998546,-40
2021-10-14 16:08:41.998554,-38
2021-10-14 16:08:41.998563,-28
2021-10-14 16:08:41.998571,-14
2021-10-14 16:08:41.998579,-7
2021-10-14 16:08:41.998587,-4
2021-10-14 16:08:41.998595,2
2021-10-14 16:08:41.998604,-4
2021-10-14 16:08:42.222978,-31
2021-10-14 16:08:42.222997,-43
2021-10-14 16:08:42.223007,-38
2021-10-14 16:08:42.223015,-38
2021-10-14 16:08:42.223024,-38
2021-10-14 16:08:42.223032,-28
2021-10-14 16:08:42.223040,-38
2021-10-14 16:08:42.223049,-57
2021-10-14 16:08:42.223057,-45
2021-10-14 16:08:42.223065,-24
2021-10-14 16:08:42.223074,-21
2021-10-14 16:08:42.223082,-16
2021-10-14 16:08:42.223090,45
2021-10-14 16:08:42.223099,315
2021-10-14 16:08:42.223107,697
2021-10-14 16:08:42.223115,632
2021-10-14 16:08:42.223123,-209
2021-10-14 16:08:42.223132,-1036
2021-10-14 16:08:42.223140,-904
2021-10-14 16:08:42.223148,-336
2021-10-14 16:08:42.223156,-146
2021-10-14 16:08:42.223165,-96
2021-10-14 16:08:42.223173,31
2021-10-14 16:08:42.223181,64
2021-10-14 16:08:42.223189,38
2021-10-14 16:08:42.223198,50
2021-10-14 16:08:42.223206,60
2021-10-14 16:08:42.223214,60
2021-10-14 16:08:42.223222,76
2021-10-14 16:08:42.223231,86
2021-10-14 16:08:42.448358,84
2021-10-14 16:08:42.448377,96
2021-10-14 16:08:42.448387,101
2021-10-14 16:08:42.448395,84
2021-10-14 16:08:42.448404,86
2021-10-14 16:08:42.448412,110
2021-10-14 16:08:42.448421,122
2021-10-14 16:08:42.448429,134
2021-10-14 16:08:42.448437,158
2021-10-14 16:08:42.448446,163
2021-10-14 16:08:42.448454,158
2021-10-14 16:08:42.448462,173
2021-10-14 16:08:42.448471,187
2021-10-14 16:08:42.448479,185
2021-10-14 16:08:42.448487,187
2021-10-14 16:08:42.448496,194
2021-10-14 16:08:42.448504,175
2021-10-14 16:08:42.448512,139
2021-10-14 16:08:42.448521,113
2021-10-14 16:08:42.448529,81
2021-10-14 16:08:42.448537,33
2021-10-14 16:08:42.448546,-12
2021-10-14 16:08:42.448554,-26
2021-10-14 16:08:42.448562,-40
2021-10-14 16:08:42.448570,-72
2021-10-14 16:08:42.448579,-93
2021-10-14 16:08:42.448587,-98
2021-10-14 16:08:42.448595,-101
2021-10-14 16:08:42.448603,-105
2021-10-14 16:08:42.448612,-117
2021-10-14 16:08:42.851660,-125
2021-10-14 16:08:42.851682,-125
2021-10-14 16:08:42.851692,-134
2021-10-14 16:08:42.851700,-141
2021-10-14 16:08:42.851709,-139
2021-10-14 16:08:42.851756,-141
2021-10-14 16:08:42.851767,-144
2021-10-14 16:08:42.851776,-129
2021-10-14 16:08:42.851783,-113
2021-10-14 16:08:42.851791,-103
2021-10-14 16:08:42.851799,-98
2021-10-14 16:08:42.851806,-105
2021-10-14 16:08:42.851814,-110
2021-10-14 16:08:42.851822,-96
2021-10-14 16:08:42.851830,-86
2021-10-14 16:08:42.851837,-93
2021-10-14 16:08:42.851845,-88
2021-10-14 16:08:42.851853,-84
2021-10-14 16:08:42.851860,-98
2021-10-14 16:08:42.851868,-110
2021-10-14 16:08:42.851876,-105
2021-10-14 16:08:42.851883,-105
2021-10-14 16:08:42.851891,-101
2021-10-14 16:08:42.851899,-86
2021-10-14 16:08:42.851906,-81
2021-10-14 16:08:42.851914,-93
2021-10-14 16:08:42.851922,-101
2021-10-14 16:08:42.851929,-86
2021-10-14 16:08:42.851937,-74
2021-10-14 16:08:42.851945,-79
2021-10-14 16:08:42.942370,-84
2021-10-14 16:08:42.942389,-74
2021-10-14 16:08:42.942398,-67
2021-10-14 16:08:42.942406,-86
2021-10-14 16:08:42.942415,-101
2021-10-14 16:08:42.942423,-76
2021-10-14 16:08:42.942432,-60
2021-10-14 16:08:42.942440,-72
2021-10-14 16:08:42.942449,-64
2021-10-14 16:08:42.942457,-48
2021-10-14 16:08:42.942465,-64
2021-10-14 16:08:42.942474,-79
2021-10-14 16:08:42.942482,-64
2021-10-14 16:08:42.942490,-50
2021-10-14 16:08:42.942499,-50
2021-10-14 16:08:42.942507,-57
2021-10-14 16:08:42.942515,-62
2021-10-14 16:08:42.942524,-52
2021-10-14 16:08:42.942532,-31
2021-10-14 16:08:42.942540,-26
2021-10-14 16:08:42.942548,-26
2021-10-14 16:08:42.942557,-7
2021-10-14 16:08:42.942565,7
2021-10-14 16:08:42.942573,-2
2021-10-14 16:08:42.942581,-14
2021-10-14 16:08:42.942590,-14
2021-10-14 16:08:42.942598,-9
2021-10-14 16:08:42.942606,-19
2021-10-14 16:08:42.942615,-36
2021-10-14 16:08:42.942623,-40
2021-10-14 16:08:43.168455,-33
2021-10-14 16:08:43.168476,-31
2021-10-14 16:08:43.168486,-28
2021-10-14 16:08:43.168494,-16
2021-10-14 16:08:43.168502,-7
2021-10-14 16:08:43.168511,26
2021-10-14 16:08:43.168519,209
2021-10-14 16:08:43.168528,593
2021-10-14 16:08:43.168536,791
2021-10-14 16:08:43.168544,211
2021-10-14 16:08:43.168552,-856
2021-10-14 16:08:43.168561,-1192
2021-10-14 16:08:43.168569,-581
2021-10-14 16:08:43.168577,-144
2021-10-14 16:08:43.168586,-129
2021-10-14 16:08:43.168594,-28
2021-10-14 16:08:43.168602,74
2021-10-14 16:08:43.168610,40
2021-10-14 16:08:43.168619,40
2021-10-14 16:08:43.168627,79
2021-10-14 16:08:43.168635,69
2021-10-14 16:08:43.168643,62
2021-10-14 16:08:43.168651,86
2021-10-14 16:08:43.168660,86
2021-10-14 16:08:43.168668,74
2021-10-14 16:08:43.168676,93
2021-10-14 16:08:43.168685,115
2021-10-14 16:08:43.168693,105
2021-10-14 16:08:43.168705,105
2021-10-14 16:08:43.168713,125
2021-10-14 16:08:43.437388,146
2021-10-14 16:08:43.437408,163
2021-10-14 16:08:43.437417,175
2021-10-14 16:08:43.437426,187
2021-10-14 16:08:43.437434,202
2021-10-14 16:08:43.437443,226
2021-10-14 16:08:43.437451,235
2021-10-14 16:08:43.437459,226
2021-10-14 16:08:43.437468,211
2021-10-14 16:08:43.437476,194
2021-10-14 16:08:43.437484,173
2021-10-14 16:08:43.437493,146
2021-10-14 16:08:43.437501,120
2021-10-14 16:08:43.437509,76
2021-10-14 16:08:43.437518,19
2021-10-14 16:08:43.437526,-26
2021-10-14 16:08:43.437534,-48
2021-10-14 16:08:43.437543,-60
2021-10-14 16:08:43.437551,-79
2021-10-14 16:08:43.437559,-101
2021-10-14 16:08:43.437567,-117
2021-10-14 16:08:43.437576,-132
2021-10-14 16:08:43.437584,-132
2021-10-14 16:08:43.437592,-117
2021-10-14 16:08:43.437601,-113
2021-10-14 16:08:43.437609,-125
2021-10-14 16:08:43.437617,-127
2021-10-14 16:08:43.437625,-122
2021-10-14 16:08:43.437633,-115
2021-10-14 16:08:43.437642,-113
2021-10-14 16:08:43.618499,-113
2021-10-14 16:08:43.618521,-108
2021-10-14 16:08:43.618530,-103
2021-10-14 16:08:43.618539,-98
2021-10-14 16:08:43.618547,-88
2021-10-14 16:08:43.618556,-72
2021-10-14 16:08:43.618564,-57
2021-10-14 16:08:43.618572,-60
2021-10-14 16:08:43.618581,-72
2021-10-14 16:08:43.618589,-74
2021-10-14 16:08:43.618597,-74
2021-10-14 16:08:43.618606,-72
2021-10-14 16:08:43.618614,-60
2021-10-14 16:08:43.618623,-57
2021-10-14 16:08:43.618631,-79
2021-10-14 16:08:43.618639,-91
2021-10-14 16:08:43.618648,-72
2021-10-14 16:08:43.618656,-55
2021-10-14 16:08:43.618664,-64
2021-10-14 16:08:43.618672,-76
2021-10-14 16:08:43.618681,-64
2021-10-14 16:08:43.618689,-50
2021-10-14 16:08:43.618697,-55
2021-10-14 16:08:43.618706,-60
2021-10-14 16:08:43.618714,-52
2021-10-14 16:08:43.618722,-52
2021-10-14 16:08:43.618731,-50
2021-10-14 16:08:43.618739,-40
2021-10-14 16:08:43.618747,-48
2021-10-14 16:08:43.618755,-62
2021-10-14 16:08:43.887837,-55
2021-10-14 16:08:43.887857,-57
2021-10-14 16:08:43.887866,-62
2021-10-14 16:08:43.887875,-52
2021-10-14 16:08:43.887883,-38
2021-10-14 16:08:43.887891,-36
2021-10-14 16:08:43.887900,-45
2021-10-14 16:08:43.887908,-50
2021-10-14 16:08:43.887916,-38
2021-10-14 16:08:43.887925,-33
2021-10-14 16:08:43.887933,-43
2021-10-14 16:08:43.887941,-36
2021-10-14 16:08:43.887949,-28
2021-10-14 16:08:43.887958,-36
2021-10-14 16:08:43.887966,-33
2021-10-14 16:08:43.887975,-12
2021-10-14 16:08:43.887983,-2
2021-10-14 16:08:43.887991,-9
2021-10-14 16:08:43.887999,-28
2021-10-14 16:08:43.888007,-50
2021-10-14 16:08:43.888016,-60
2021-10-14 16:08:43.888024,-50
2021-10-14 16:08:43.888032,-36
2021-10-14 16:08:43.888040,-33
2021-10-14 16:08:43.888049,-36
2021-10-14 16:08:43.888057,-38
2021-10-14 16:08:43.888065,-24
2021-10-14 16:08:43.888074,-4
2021-10-14 16:08:43.888082,0
2021-10-14 16:08:43.888090,4
2021-10-14 16:08:44.068011,60
2021-10-14 16:08:44.068030,259
2021-10-14 16:08:44.068039,627
2021-10-14 16:08:44.068047,731
2021-10-14 16:08:44.068056,45
2021-10-14 16:08:44.068064,-909
2021-10-14 16:08:44.068073,-1029
2021-10-14 16:08:44.068081,-485
2021-10-14 16:08:44.068089,-182
2021-10-14 16:08:44.068098,-110
2021-10-14 16:08:44.068106,33
2021-10-14 16:08:44.068114,108
2021-10-14 16:08:44.068123,79
2021-10-14 16:08:44.068131,86
2021-10-14 16:08:44.068139,101
2021-10-14 16:08:44.068148,88
2021-10-14 16:08:44.068156,98
2021-10-14 16:08:44.068165,120
2021-10-14 16:08:44.068173,117
2021-10-14 16:08:44.068181,110
2021-10-14 16:08:44.068189,120
2021-10-14 16:08:44.068198,129
2021-10-14 16:08:44.068206,139
2021-10-14 16:08:44.068214,153
2021-10-14 16:08:44.068222,168
2021-10-14 16:08:44.068231,170
2021-10-14 16:08:44.068239,177
2021-10-14 16:08:44.068247,197
2021-10-14 16:08:44.068255,221
2021-10-14 16:08:44.068264,228
2021-10-14 16:08:44.293437,233
2021-10-14 16:08:44.293457,240
2021-10-14 16:08:44.293467,242
2021-10-14 16:08:44.293475,238
2021-10-14 16:08:44.293484,216
2021-10-14 16:08:44.293492,177
2021-10-14 16:08:44.293500,144
2021-10-14 16:08:44.293508,113
2021-10-14 16:08:44.293517,67
2021-10-14 16:08:44.293525,21
2021-10-14 16:08:44.293533,-9
2021-10-14 16:08:44.293541,-43
2021-10-14 16:08:44.293550,-86
2021-10-14 16:08:44.293558,-110
2021-10-14 16:08:44.293566,-122
2021-10-14 16:08:44.293574,-137
2021-10-14 16:08:44.293583,-144
2021-10-14 16:08:44.293591,-137
2021-10-14 16:08:44.293599,-134
2021-10-14 16:08:44.293607,-144
2021-10-14 16:08:44.293616,-151
2021-10-14 16:08:44.293624,-151
2021-10-14 16:08:44.293632,-151
2021-10-14 16:08:44.293640,-141
2021-10-14 16:08:44.293649,-127
2021-10-14 16:08:44.293657,-115
2021-10-14 16:08:44.293665,-113
2021-10-14 16:08:44.293673,-108
2021-10-14 16:08:44.293681,-93
2021-10-14 16:08:44.293690,-91
2021-10-14 16:08:44.518350,-98
2021-10-14 16:08:44.518369,-84
2021-10-14 16:08:44.518379,-67
2021-10-14 16:08:44.518388,-64
2021-10-14 16:08:44.518396,-74
2021-10-14 16:08:44.518404,-81
2021-10-14 16:08:44.518413,-84
2021-10-14 16:08:44.518421,-79
2021-10-14 16:08:44.518430,-79
2021-10-14 16:08:44.518438,-81
2021-10-14 16:08:44.518446,-81
2021-10-14 16:08:44.518454,-84
2021-10-14 16:08:44.518463,-81
2021-10-14 16:08:44.518471,-69
2021-10-14 16:08:44.518479,-67
2021-10-14 16:08:44.518488,-72
2021-10-14 16:08:44.518496,-74
2021-10-14 16:08:44.518504,-74
2021-10-14 16:08:44.518512,-76
2021-10-14 16:08:44.518521,-74
2021-10-14 16:08:44.518529,-69
2021-10-14 16:08:44.518537,-62
2021-10-14 16:08:44.518546,-55
2021-10-14 16:08:44.518554,-57
2021-10-14 16:08:44.518562,-57
2021-10-14 16:08:44.518570,-50
2021-10-14 16:08:44.518579,-48
2021-10-14 16:08:44.518587,-45
2021-10-14 16:08:44.518595,-38
2021-10-14 16:08:44.518603,-36
2021-10-14 16:08:44.877165,-43
2021-10-14 16:08:44.877187,-40
2021-10-14 16:08:44.877196,-31
2021-10-14 16:08:44.877205,-28
2021-10-14 16:08:44.877214,-28
2021-10-14 16:08:44.877222,-16
2021-10-14 16:08:44.877231,-2
2021-10-14 16:08:44.877239,-2
2021-10-14 16:08:44.877247,-2
2021-10-14 16:08:44.877256,-14
2021-10-14 16:08:44.877264,-48
2021-10-14 16:08:44.877272,-62
2021-10-14 16:08:44.877281,-64
2021-10-14 16:08:44.877289,-76
2021-10-14 16:08:44.877297,-74
2021-10-14 16:08:44.877306,-62
2021-10-14 16:08:44.877314,-55
2021-10-14 16:08:44.877323,-48
2021-10-14 16:08:44.877331,-50
2021-10-14 16:08:44.877339,-52
2021-10-14 16:08:44.877347,-45
2021-10-14 16:08:44.877356,-36
2021-10-14 16:08:44.877364,9
2021-10-14 16:08:44.877373,199
2021-10-14 16:08:44.877381,581
2021-10-14 16:08:44.877389,779
2021-10-14 16:08:44.877398,209
2021-10-14 16:08:44.877406,-827
2021-10-14 16:08:44.877414,-1139
2021-10-14 16:08:44.877423,-574
2021-10-14 16:08:44.968004,-163
2021-10-14 16:08:44.968023,-115
2021-10-14 16:08:44.968032,2
2021-10-14 16:08:44.968040,91
2021-10-14 16:08:44.968049,45
2021-10-14 16:08:44.968057,48
2021-10-14 16:08:44.968065,93
2021-10-14 16:08:44.968074,91
2021-10-14 16:08:44.968082,84
2021-10-14 16:08:44.968090,103
2021-10-14 16:08:44.968099,108
2021-10-14 16:08:44.968107,108
2021-10-14 16:08:44.968115,120
2021-10-14 16:08:44.968124,115
2021-10-14 16:08:44.968132,103
2021-10-14 16:08:44.968140,101
2021-10-14 16:08:44.968149,115
2021-10-14 16:08:44.968157,141
2021-10-14 16:08:44.968165,153
2021-10-14 16:08:44.968174,149
2021-10-14 16:08:44.968182,163
2021-10-14 16:08:44.968190,185
2021-10-14 16:08:44.968198,187
2021-10-14 16:08:44.968209,187
2021-10-14 16:08:44.968218,206
2021-10-14 16:08:44.968226,211
2021-10-14 16:08:44.968234,182
2021-10-14 16:08:44.968243,158
2021-10-14 16:08:44.968251,141
2021-10-14 16:08:44.968259,115
2021-10-14 16:08:45.282833,81
2021-10-14 16:08:45.282853,45
2021-10-14 16:08:45.282862,-2
2021-10-14 16:08:45.282871,-45
2021-10-14 16:08:45.282879,-57
2021-10-14 16:08:45.282888,-62
2021-10-14 16:08:45.282896,-79
2021-10-14 16:08:45.282904,-98
2021-10-14 16:08:45.282913,-120
2021-10-14 16:08:45.282921,-127
2021-10-14 16:08:45.282929,-101
2021-10-14 16:08:45.282938,-88
2021-10-14 16:08:45.282946,-110
2021-10-14 16:08:45.282955,-132
2021-10-14 16:08:45.282963,-137
2021-10-14 16:08:45.282971,-137
2021-10-14 16:08:45.282980,-125
2021-10-14 16:08:45.282988,-117
2021-10-14 16:08:45.282996,-110
2021-10-14 16:08:45.283005,-93
2021-10-14 16:08:45.283013,-86
2021-10-14 16:08:45.283021,-86
2021-10-14 16:08:45.283029,-79
2021-10-14 16:08:45.283038,-79
2021-10-14 16:08:45.283046,-81
2021-10-14 16:08:45.283054,-86
2021-10-14 16:08:45.283063,-86
2021-10-14 16:08:45.283071,-86
2021-10-14 16:08:45.283079,-69
2021-10-14 16:08:45.283087,-60
2021-10-14 16:08:45.463028,-69
2021-10-14 16:08:45.463048,-88
2021-10-14 16:08:45.463058,-93
2021-10-14 16:08:45.463066,-74
2021-10-14 16:08:45.463075,-52
2021-10-14 16:08:45.463083,-52
2021-10-14 16:08:45.463091,-67
2021-10-14 16:08:45.463100,-64
2021-10-14 16:08:45.463108,-50
2021-10-14 16:08:45.463116,-43
2021-10-14 16:08:45.463125,-48
2021-10-14 16:08:45.463133,-52
2021-10-14 16:08:45.463141,-45
2021-10-14 16:08:45.463150,-36
2021-10-14 16:08:45.463158,-36
2021-10-14 16:08:45.463166,-38
2021-10-14 16:08:45.463175,-43
2021-10-14 16:08:45.463183,-43
2021-10-14 16:08:45.463191,-28
2021-10-14 16:08:45.463199,-16
2021-10-14 16:08:45.463208,-19
2021-10-14 16:08:45.463216,-19
2021-10-14 16:08:45.463224,-16
2021-10-14 16:08:45.463233,-24
2021-10-14 16:08:45.463241,-28
2021-10-14 16:08:45.463249,-19
2021-10-14 16:08:45.463258,-16
2021-10-14 16:08:45.463266,-21
2021-10-14 16:08:45.463274,-12
2021-10-14 16:08:45.463282,4
2021-10-14 16:08:45.688485,7
2021-10-14 16:08:45.688505,0
2021-10-14 16:08:45.688515,2
2021-10-14 16:08:45.688524,12
2021-10-14 16:08:45.688532,21
2021-10-14 16:08:45.688540,28
2021-10-14 16:08:45.688549,26
2021-10-14 16:08:45.688557,4
2021-10-14 16:08:45.688566,-21
2021-10-14 16:08:45.688574,-31
2021-10-14 16:08:45.688582,-24
2021-10-14 16:08:45.688591,-19
2021-10-14 16:08:45.688599,-21
2021-10-14 16:08:45.688607,-19
2021-10-14 16:08:45.688616,-16
2021-10-14 16:08:45.688624,-21
2021-10-14 16:08:45.688633,-24
2021-10-14 16:08:45.688641,-14
2021-10-14 16:08:45.688649,-7
2021-10-14 16:08:45.688657,14
2021-10-14 16:08:45.688666,139
2021-10-14 16:08:45.688674,466
2021-10-14 16:08:45.688682,786
2021-10-14 16:08:45.688691,541
2021-10-14 16:08:45.688699,-418
2021-10-14 16:08:45.688707,-1125
2021-10-14 16:08:45.688715,-779
2021-10-14 16:08:45.688724,-192
2021-10-14 16:08:45.688732,-101
2021-10-14 16:08:45.688740,-67
2021-10-14 16:08:45.913438,76
2021-10-14 16:08:45.913458,86
2021-10-14 16:08:45.913467,45
2021-10-14 16:08:45.913476,74
2021-10-14 16:08:45.913484,91
2021-10-14 16:08:45.913492,81
2021-10-14 16:08:45.913501,86
2021-10-14 16:08:45.913509,91
2021-10-14 16:08:45.913517,91
2021-10-14 16:08:45.913525,101
2021-10-14 16:08:45.913533,105
2021-10-14 16:08:45.913542,115
2021-10-14 16:08:45.913550,129
2021-10-14 16:08:45.913558,137
2021-10-14 16:08:45.913566,139
2021-10-14 16:08:45.913575,151
2021-10-14 16:08:45.913583,168
2021-10-14 16:08:45.913591,187
2021-10-14 16:08:45.913599,192
2021-10-14 16:08:45.913608,192
2021-10-14 16:08:45.913616,206
2021-10-14 16:08:45.913624,226
2021-10-14 16:08:45.913632,223
2021-10-14 16:08:45.913641,218
2021-10-14 16:08:45.913649,204
2021-10-14 16:08:45.913657,173
2021-10-14 16:08:45.913665,139
2021-10-14 16:08:45.913673,110
2021-10-14 16:08:45.913681,72
2021-10-14 16:08:45.913690,24
2021-10-14 16:08:46.182412,-16
2021-10-14 16:08:46.182431,-45
2021-10-14 16:08:46.182440,-69
2021-10-14 16:08:46.182449,-101
2021-10-14 16:08:46.182457,-122
2021-10-14 16:08:46.182466,-132
2021-10-14 16:08:46.182474,-144
2021-10-14 16:08:46.182483,-146
2021-10-14 16:08:46.182491,-137
2021-10-14 16:08:46.182499,-137
2021-10-14 16:08:46.182507,-134
2021-10-14 16:08:46.182516,-134
2021-10-14 16:08:46.182524,-137
2021-10-14 16:08:46.182533,-129
2021-10-14 16:08:46.182541,-125
2021-10-14 16:08:46.182549,-125
2021-10-14 16:08:46.182557,-115
2021-10-14 16:08:46.182566,-101
2021-10-14 16:08:46.182574,-98
2021-10-14 16:08:46.182582,-91
2021-10-14 16:08:46.182590,-79
2021-10-14 16:08:46.182598,-64
2021-10-14 16:08:46.182607,-62
2021-10-14 16:08:46.182615,-67
2021-10-14 16:08:46.182623,-62
2021-10-14 16:08:46.182631,-60
2021-10-14 16:08:46.182639,-64
2021-10-14 16:08:46.182648,-72
2021-10-14 16:08:46.182656,-67
2021-10-14 16:08:46.182664,-62
2021-10-14 16:08:46.408052,-72
2021-10-14 16:08:46.408071,-74
2021-10-14 16:08:46.408080,-64
2021-10-14 16:08:46.408089,-67
2021-10-14 16:08:46.408097,-74
2021-10-14 16:08:46.408106,-88
2021-10-14 16:08:46.408114,-86
2021-10-14 16:08:46.408123,-67
2021-10-14 16:08:46.408131,-57
2021-10-14 16:08:46.408139,-64
2021-10-14 16:08:46.408148,-72
2021-10-14 16:08:46.408156,-74
2021-10-14 16:08:46.408164,-74
2021-10-14 16:08:46.408173,-81
2021-10-14 16:08:46.408181,-88
2021-10-14 16:08:46.408189,-69
2021-10-14 16:08:46.408198,-50
2021-10-14 16:08:46.408206,-48
2021-10-14 16:08:46.408214,-45
2021-10-14 16:08:46.408223,-33
2021-10-14 16:08:46.408231,-26
2021-10-14 16:08:46.408239,-33
2021-10-14 16:08:46.408248,-36
2021-10-14 16:08:46.408256,-26
2021-10-14 16:08:46.408264,-16
2021-10-14 16:08:46.408272,-19
2021-10-14 16:08:46.408281,-19
2021-10-14 16:08:46.408289,-12
2021-10-14 16:08:46.408297,-2
2021-10-14 16:08:46.408306,12
2021-10-14 16:08:46.588499,28
2021-10-14 16:08:46.588519,38
2021-10-14 16:08:46.588529,21
2021-10-14 16:08:46.588538,-7
2021-10-14 16:08:46.588546,-21
2021-10-14 16:08:46.588555,-9
2021-10-14 16:08:46.588563,-4
2021-10-14 16:08:46.588571,-16
2021-10-14 16:08:46.588579,-19
2021-10-14 16:08:46.588588,-7
2021-10-14 16:08:46.588603,-12
2021-10-14 16:08:46.588612,-26
2021-10-14 16:08:46.588620,-24
2021-10-14 16:08:46.588629,0
2021-10-14 16:08:46.588637,24
2021-10-14 16:08:46.588645,57
2021-10-14 16:08:46.588654,209
2021-10-14 16:08:46.588662,553
2021-10-14 16:08:46.588670,762
2021-10-14 16:08:46.588678,233
2021-10-14 16:08:46.588687,-781
2021-10-14 16:08:46.588695,-1113
2021-10-14 16:08:46.588703,-596
2021-10-14 16:08:46.588712,-206
2021-10-14 16:08:46.588720,-122
2021-10-14 16:08:46.588728,31
2021-10-14 16:08:46.588737,127
2021-10-14 16:08:46.588745,96
2021-10-14 16:08:46.588753,98
2021-10-14 16:08:46.588761,132
2021-10-14 16:08:46.902155,134
2021-10-14 16:08:46.902176,132
2021-10-14 16:08:46.902185,132
2021-10-14 16:08:46.902194,127
2021-10-14 16:08:46.902203,120
2021-10-14 16:08:46.902211,125
2021-10-14 16:08:46.902219,132
2021-10-14 16:08:46.902228,134
2021-10-14 16:08:46.902236,137
2021-10-14 16:08:46.902245,132
2021-10-14 16:08:46.902253,137
2021-10-14 16:08:46.902261,165
2021-10-14 16:08:46.902270,192
2021-10-14 16:08:46.902278,199
2021-10-14 16:08:46.902287,209
2021-10-14 16:08:46.902295,221
2021-10-14 16:08:46.902303,228
2021-10-14 16:08:46.902312,235
2021-10-14 16:08:46.902320,240
2021-10-14 16:08:46.902328,221
2021-10-14 16:08:46.902336,197
2021-10-14 16:08:46.902345,161
2021-10-14 16:08:46.902353,110
2021-10-14 16:08:46.902361,79
2021-10-14 16:08:46.902370,57
2021-10-14 16:08:46.902378,19
2021-10-14 16:08:46.902386,-33
2021-10-14 16:08:46.902395,-72
2021-10-14 16:08:46.902403,-96
2021-10-14 16:08:46.902411,-120
2021-10-14 16:08:47.083513,-132
2021-10-14 16:08:47.083534,-132
2021-10-14 16:08:47.083543,-132
2021-10-14 16:08:47.083552,-139
2021-10-14 16:08:47.083560,-139
2021-10-14 16:08:47.083569,-137
2021-10-14 16:08:47.083577,-139
2021-10-14 16:08:47.083586,-139
2021-10-14 16:08:47.083594,-127
2021-10-14 16:08:47.083602,-117
2021-10-14 16:08:47.083611,-120
2021-10-14 16:08:47.083619,-113
2021-10-14 16:08:47.083627,-93
2021-10-14 16:08:47.083636,-84
2021-10-14 16:08:47.083644,-86
2021-10-14 16:08:47.083652,-86
2021-10-14 16:08:47.083660,-84
2021-10-14 16:08:47.083672,-79
2021-10-14 16:08:47.083680,-72
2021-10-14 16:08:47.083688,-62
2021-10-14 16:08:47.083696,-64
2021-10-14 16:08:47.083705,-72
2021-10-14 16:08:47.083713,-69
2021-10-14 16:08:47.083721,-57
2021-10-14 16:08:47.083730,-57
2021-10-14 16:08:47.083738,-64
2021-10-14 16:08:47.083746,-62
2021-10-14 16:08:47.083754,-67
2021-10-14 16:08:47.083763,-69
2021-10-14 16:08:47.083771,-55
2021-10-14 16:08:47.353080,-50
2021-10-14 16:08:47.353100,-57
2021-10-14 16:08:47.353109,-52
2021-10-14 16:08:47.353118,-45
2021-10-14 16:08:47.353127,-50
2021-10-14 16:08:47.353135,-52
2021-10-14 16:08:47.353144,-45
2021-10-14 16:08:47.353152,-45
2021-10-14 16:08:47.353160,-60
2021-10-14 16:08:47.353169,-69
2021-10-14 16:08:47.353177,-79
2021-10-14 16:08:47.353185,-86
2021-10-14 16:08:47.353194,-74
2021-10-14 16:08:47.353202,-62
2021-10-14 16:08:47.353210,-64
2021-10-14 16:08:47.353219,-62
2021-10-14 16:08:47.353227,-52
2021-10-14 16:08:47.353235,-50
2021-10-14 16:08:47.353244,-52
2021-10-14 16:08:47.353252,-45
2021-10-14 16:08:47.353260,-38
2021-10-14 16:08:47.353269,-31
2021-10-14 16:08:47.353277,-21
2021-10-14 16:08:47.353285,-2
2021-10-14 16:08:47.353294,-2
2021-10-14 16:08:47.353302,-26
2021-10-14 16:08:47.353310,-48
2021-10-14 16:08:47.353319,-50
2021-10-14 16:08:47.353327,-45
2021-10-14 16:08:47.353335,-40
2021-10-14 16:08:47.533738,-28
2021-10-14 16:08:47.533760,-19
2021-10-14 16:08:47.533769,-24
2021-10-14 16:08:47.533778,-28
2021-10-14 16:08:47.533787,-19
2021-10-14 16:08:47.533795,-14
2021-10-14 16:08:47.533804,0
2021-10-14 16:08:47.533812,62
2021-10-14 16:08:47.533821,274
2021-10-14 16:08:47.533829,668
2021-10-14 16:08:47.533838,798
2021-10-14 16:08:47.533846,101
2021-10-14 16:08:47.533855,-930
2021-10-14 16:08:47.533863,-1089
2021-10-14 16:08:47.533872,-473
2021-10-14 16:08:47.533880,-132
2021-10-14 16:08:47.533889,-103
2021-10-14 16:08:47.533897,28
2021-10-14 16:08:47.533906,113
2021-10-14 16:08:47.533914,67
2021-10-14 16:08:47.533923,64
2021-10-14 16:08:47.533931,96
2021-10-14 16:08:47.533940,88
2021-10-14 16:08:47.533948,84
2021-10-14 16:08:47.533956,98
2021-10-14 16:08:47.533965,110
2021-10-14 16:08:47.533973,115
2021-10-14 16:08:47.533982,117
2021-10-14 16:08:47.533990,129
2021-10-14 16:08:47.533998,141
2021-10-14 16:08:47.892954,151
2021-10-14 16:08:47.892976,168
2021-10-14 16:08:47.892986,182
2021-10-14 16:08:47.892994,187
2021-10-14 16:08:47.893003,194
2021-10-14 16:08:47.893011,206
2021-10-14 16:08:47.893019,209
2021-10-14 16:08:47.893027,211
2021-10-14 16:08:47.893036,226
2021-10-14 16:08:47.893044,235
2021-10-14 16:08:47.893052,230
2021-10-14 16:08:47.893060,221
2021-10-14 16:08:47.893068,189
2021-10-14 16:08:47.893077,151
2021-10-14 16:08:47.893085,120
2021-10-14 16:08:47.893093,72
2021-10-14 16:08:47.893101,14
2021-10-14 16:08:47.893109,-24
2021-10-14 16:08:47.893118,-52
2021-10-14 16:08:47.893126,-79
2021-10-14 16:08:47.893134,-93
2021-10-14 16:08:47.893142,-117
2021-10-14 16:08:47.893150,-137
2021-10-14 16:08:47.893159,-144
2021-10-14 16:08:47.893167,-158
2021-10-14 16:08:47.893175,-170
2021-10-14 16:08:47.893183,-156
2021-10-14 16:08:47.893191,-139
2021-10-14 16:08:47.893199,-137
2021-10-14 16:08:47.893208,-132
2021-10-14 16:08:48.027483,-120
2021-10-14 16:08:48.027503,-113
2021-10-14 16:08:48.027512,-127
2021-10-14 16:08:48.027520,-137
2021-10-14 16:08:48.027529,-115
2021-10-14 16:08:48.027537,-105
2021-10-14 16:08:48.027545,-122
2021-10-14 16:08:48.027553,-120
2021-10-14 16:08:48.027562,-110
2021-10-14 16:08:48.027570,-101
2021-10-14 16:08:48.027578,-84
2021-10-14 16:08:48.027586,-67
2021-10-14 16:08:48.027595,-52
2021-10-14 16:08:48.027603,-40
2021-10-14 16:08:48.027611,-45
2021-10-14 16:08:48.027619,-50
2021-10-14 16:08:48.027627,-43
2021-10-14 16:08:48.027636,-57
2021-10-14 16:08:48.027644,-67
2021-10-14 16:08:48.027652,-52
2021-10-14 16:08:48.027661,-52
2021-10-14 16:08:48.027669,-62
2021-10-14 16:08:48.027677,-64
2021-10-14 16:08:48.027685,-74
2021-10-14 16:08:48.027694,-67
2021-10-14 16:08:48.027702,-36
2021-10-14 16:08:48.027710,-26
2021-10-14 16:08:48.027718,-40
2021-10-14 16:08:48.027727,-40
2021-10-14 16:08:48.027735,-38
2021-10-14 16:08:48.252484,-52
2021-10-14 16:08:48.252504,-50
2021-10-14 16:08:48.252513,-33
2021-10-14 16:08:48.252522,-31
2021-10-14 16:08:48.252530,-33
2021-10-14 16:08:48.252539,-43
2021-10-14 16:08:48.252547,-57
2021-10-14 16:08:48.252555,-50
2021-10-14 16:08:48.252564,-36
2021-10-14 16:08:48.252572,-36
2021-10-14 16:08:48.252580,-38
2021-10-14 16:08:48.252588,-40
2021-10-14 16:08:48.252597,-43
2021-10-14 16:08:48.252605,-48
2021-10-14 16:08:48.252613,-48
2021-10-14 16:08:48.252621,-36
2021-10-14 16:08:48.252630,-24
2021-10-14 16:08:48.252638,-12
2021-10-14 16:08:48.252646,0
2021-10-14 16:08:48.252654,7
2021-10-14 16:08:48.252663,9
2021-10-14 16:08:48.252671,-7
2021-10-14 16:08:48.252680,-38
2021-10-14 16:08:48.252688,-60
2021-10-14 16:08:48.252696,-52
2021-10-14 16:08:48.252704,-36
2021-10-14 16:08:48.252713,-31
2021-10-14 16:08:48.252721,-38
2021-10-14 16:08:48.252729,-43
2021-10-14 16:08:48.252737,-33
2021-10-14 16:08:48.433461,-14
2021-10-14 16:08:48.433481,-9
2021-10-14 16:08:48.433490,-9
2021-10-14 16:08:48.433499,14
2021-10-14 16:08:48.433507,101
2021-10-14 16:08:48.433516,372
2021-10-14 16:08:48.433524,743
2021-10-14 16:08:48.433533,668
2021-10-14 16:08:48.433541,-192
2021-10-14 16:08:48.433549,-1055
2021-10-14 16:08:48.433558,-899
2021-10-14 16:08:48.433566,-269
2021-10-14 16:08:48.433574,-76
2021-10-14 16:08:48.433583,-48
2021-10-14 16:08:48.433591,86
2021-10-14 16:08:48.433599,108
2021-10-14 16:08:48.433608,55
2021-10-14 16:08:48.433616,79
2021-10-14 16:08:48.433625,105
2021-10-14 16:08:48.433633,98
2021-10-14 16:08:48.433641,101
2021-10-14 16:08:48.433649,101
2021-10-14 16:08:48.433658,101
2021-10-14 16:08:48.433666,113
2021-10-14 16:08:48.433674,125
2021-10-14 16:08:48.433683,134
2021-10-14 16:08:48.433691,151
2021-10-14 16:08:48.433699,156
2021-10-14 16:08:48.433708,156
2021-10-14 16:08:48.433716,165
2021-10-14 16:08:48.702893,177
2021-10-14 16:08:48.702914,194
2021-10-14 16:08:48.702923,218
2021-10-14 16:08:48.702932,226
2021-10-14 16:08:48.702941,218
2021-10-14 16:08:48.702949,228
2021-10-14 16:08:48.702957,235
2021-10-14 16:08:48.702966,221
2021-10-14 16:08:48.702974,209
2021-10-14 16:08:48.702982,197
2021-10-14 16:08:48.702990,151
2021-10-14 16:08:48.702998,101
2021-10-14 16:08:48.703007,76
2021-10-14 16:08:48.703015,43
2021-10-14 16:08:48.703024,-12
2021-10-14 16:08:48.703032,-57
2021-10-14 16:08:48.703040,-84
2021-10-14 16:08:48.703049,-98
2021-10-14 16:08:48.703057,-105
2021-10-14 16:08:48.703065,-115
2021-10-14 16:08:48.703073,-122
2021-10-14 16:08:48.703082,-129
2021-10-14 16:08:48.703090,-129
2021-10-14 16:08:48.703098,-127
2021-10-14 16:08:48.703107,-127
2021-10-14 16:08:48.703115,-125
2021-10-14 16:08:48.703123,-129
2021-10-14 16:08:48.703132,-144
2021-10-14 16:08:48.703140,-139
2021-10-14 16:08:48.703148,-120
2021-10-14 16:08:49.017160,-113
2021-10-14 16:08:49.017180,-103
2021-10-14 16:08:49.017189,-86
2021-10-14 16:08:49.017198,-84
2021-10-14 16:08:49.017206,-86
2021-10-14 16:08:49.017215,-81
2021-10-14 16:08:49.017223,-79
2021-10-14 16:08:49.017231,-69
2021-10-14 16:08:49.017239,-57
2021-10-14 16:08:49.017248,-72
2021-10-14 16:08:49.017256,-69
2021-10-14 16:08:49.017264,-43
2021-10-14 16:08:49.017273,-48
2021-10-14 16:08:49.017281,-67
2021-10-14 16:08:49.017289,-64
2021-10-14 16:08:49.017298,-55
2021-10-14 16:08:49.017306,-50
2021-10-14 16:08:49.017315,-45
2021-10-14 16:08:49.017323,-38
2021-10-14 16:08:49.017331,-33
2021-10-14 16:08:49.017339,-40
2021-10-14 16:08:49.017348,-45
2021-10-14 16:08:49.017356,-36
2021-10-14 16:08:49.017364,-33
2021-10-14 16:08:49.017372,-40
2021-10-14 16:08:49.017381,-33
2021-10-14 16:08:49.017389,-36
2021-10-14 16:08:49.017398,-45
2021-10-14 16:08:49.017406,-31
2021-10-14 16:08:49.017414,-19
2021-10-14 16:08:49.197826,-19
2021-10-14 16:08:49.197845,-21
2021-10-14 16:08:49.197854,-33
2021-10-14 16:08:49.197862,-43
2021-10-14 16:08:49.197871,-24
2021-10-14 16:08:49.197879,-9
2021-10-14 16:08:49.197887,-16
2021-10-14 16:08:49.197895,-26
2021-10-14 16:08:49.197904,-24
2021-10-14 16:08:49.197912,-19
2021-10-14 16:08:49.197921,-12
2021-10-14 16:08:49.197929,0
2021-10-14 16:08:49.197937,9
2021-10-14 16:08:49.197945,19
2021-10-14 16:08:49.197953,26
2021-10-14 16:08:49.197962,19
2021-10-14 16:08:49.197970,4
2021-10-14 16:08:49.197978,-14
2021-10-14 16:08:49.197987,-24
2021-10-14 16:08:49.197995,-21
2021-10-14 16:08:49.198003,-26
2021-10-14 16:08:49.198011,-31
2021-10-14 16:08:49.198020,-21
2021-10-14 16:08:49.198028,-16
2021-10-14 16:08:49.198036,-16
2021-10-14 16:08:49.198044,-14
2021-10-14 16:08:49.198053,-19
2021-10-14 16:08:49.198061,-9
2021-10-14 16:08:49.198069,19
2021-10-14 16:08:49.198078,120
2021-10-14 16:08:49.378440,401
2021-10-14 16:08:49.378458,731
2021-10-14 16:08:49.378468,548
2021-10-14 16:08:49.378476,-389
2021-10-14 16:08:49.378485,-1132
2021-10-14 16:08:49.378493,-865
2021-10-14 16:08:49.378502,-327
2021-10-14 16:08:49.378510,-170
2021-10-14 16:08:49.378518,-67
2021-10-14 16:08:49.378527,81
2021-10-14 16:08:49.378535,96
2021-10-14 16:08:49.378544,74
2021-10-14 16:08:49.378552,103
2021-10-14 16:08:49.378560,113
2021-10-14 16:08:49.378572,98
2021-10-14 16:08:49.378580,103
2021-10-14 16:08:49.378588,113
2021-10-14 16:08:49.378597,117
2021-10-14 16:08:49.378605,132
2021-10-14 16:08:49.378613,146
2021-10-14 16:08:49.378621,141
2021-10-14 16:08:49.378630,137
2021-10-14 16:08:49.378638,151
2021-10-14 16:08:49.378646,170
2021-10-14 16:08:49.378655,185
2021-10-14 16:08:49.378663,197
2021-10-14 16:08:49.378671,216
2021-10-14 16:08:49.378679,235
2021-10-14 16:08:49.378687,245
2021-10-14 16:08:49.378696,252
2021-10-14 16:08:49.603608,254
2021-10-14 16:08:49.603629,242
2021-10-14 16:08:49.603638,238
2021-10-14 16:08:49.603646,230
2021-10-14 16:08:49.603655,202
2021-10-14 16:08:49.603663,163
2021-10-14 16:08:49.603672,117
2021-10-14 16:08:49.603680,67
2021-10-14 16:08:49.603688,21
2021-10-14 16:08:49.603696,-21
2021-10-14 16:08:49.603705,-64
2021-10-14 16:08:49.603713,-86
2021-10-14 16:08:49.603721,-103
2021-10-14 16:08:49.603730,-132
2021-10-14 16:08:49.603738,-149
2021-10-14 16:08:49.603746,-149
2021-10-14 16:08:49.603754,-144
2021-10-14 16:08:49.603763,-139
2021-10-14 16:08:49.603771,-139
2021-10-14 16:08:49.603779,-137
2021-10-14 16:08:49.603787,-132
2021-10-14 16:08:49.603796,-125
2021-10-14 16:08:49.603804,-113
2021-10-14 16:08:49.603812,-105
2021-10-14 16:08:49.603820,-103
2021-10-14 16:08:49.603829,-96
2021-10-14 16:08:49.603837,-86
2021-10-14 16:08:49.603845,-84
2021-10-14 16:08:49.603853,-84
2021-10-14 16:08:49.603861,-64
2021-10-14 16:08:49.828497,-52
2021-10-14 16:08:49.828517,-60
2021-10-14 16:08:49.828527,-72
2021-10-14 16:08:49.828535,-74
2021-10-14 16:08:49.828543,-62
2021-10-14 16:08:49.828552,-55
2021-10-14 16:08:49.828560,-67
2021-10-14 16:08:49.828569,-81
2021-10-14 16:08:49.828577,-88
2021-10-14 16:08:49.828585,-88
2021-10-14 16:08:49.828594,-86
2021-10-14 16:08:49.828602,-84
2021-10-14 16:08:49.828611,-88
2021-10-14 16:08:49.828619,-93
2021-10-14 16:08:49.828627,-98
2021-10-14 16:08:49.828635,-93
2021-10-14 16:08:49.828643,-79
2021-10-14 16:08:49.828652,-72
2021-10-14 16:08:49.828660,-74
2021-10-14 16:08:49.828668,-74
2021-10-14 16:08:49.828676,-69
2021-10-14 16:08:49.828685,-64
2021-10-14 16:08:49.828693,-60
2021-10-14 16:08:49.828701,-57
2021-10-14 16:08:49.828709,-52
2021-10-14 16:08:49.828717,-48
2021-10-14 16:08:49.828726,-52
2021-10-14 16:08:49.828734,-57
2021-10-14 16:08:49.828742,-48
2021-10-14 16:08:49.828750,-31
2021-10-14 16:08:50.098474,-26
2021-10-14 16:08:50.098494,-24
2021-10-14 16:08:50.098503,-12
2021-10-14 16:08:50.098512,-7
2021-10-14 16:08:50.098520,-12
2021-10-14 16:08:50.098529,-16
2021-10-14 16:08:50.098537,-45
2021-10-14 16:08:50.098545,-67
2021-10-14 16:08:50.098553,-57
2021-10-14 16:08:50.098562,-48
2021-10-14 16:08:50.098570,-52
2021-10-14 16:08:50.098578,-64
2021-10-14 16:08:50.098586,-67
2021-10-14 16:08:50.098595,-45
2021-10-14 16:08:50.098603,-33
2021-10-14 16:08:50.098611,-45
2021-10-14 16:08:50.098620,-40
2021-10-14 16:08:50.098628,-16
2021-10-14 16:08:50.098636,26
2021-10-14 16:08:50.098644,182
2021-10-14 16:08:50.098653,538
2021-10-14 16:08:50.098661,781
2021-10-14 16:08:50.098669,300
2021-10-14 16:08:50.098677,-738
2021-10-14 16:08:50.098686,-1161
2021-10-14 16:08:50.098694,-656
2021-10-14 16:08:50.098702,-218
2021-10-14 16:08:50.098710,-141
2021-10-14 16:08:50.098719,0
2021-10-14 16:08:50.098727,113
2021-10-14 16:08:50.322496,76
2021-10-14 16:08:50.322515,69
2021-10-14 16:08:50.322524,110
2021-10-14 16:08:50.322533,110
2021-10-14 16:08:50.322542,101
2021-10-14 16:08:50.322550,101
2021-10-14 16:08:50.322558,96
2021-10-14 16:08:50.322567,108
2021-10-14 16:08:50.322575,127
2021-10-14 16:08:50.322583,129
2021-10-14 16:08:50.322592,125
2021-10-14 16:08:50.322600,125
2021-10-14 16:08:50.322608,129
2021-10-14 16:08:50.322616,139
2021-10-14 16:08:50.322625,149
2021-10-14 16:08:50.322633,156
2021-10-14 16:08:50.322641,163
2021-10-14 16:08:50.322650,175
2021-10-14 16:08:50.322658,187
2021-10-14 16:08:50.322666,199
2021-10-14 16:08:50.322674,206
2021-10-14 16:08:50.322683,199
2021-10-14 16:08:50.322691,185
2021-10-14 16:08:50.322699,168
2021-10-14 16:08:50.322707,139
2021-10-14 16:08:50.322716,108
2021-10-14 16:08:50.322724,79
2021-10-14 16:08:50.322732,33
2021-10-14 16:08:50.322741,-14
2021-10-14 16:08:50.322749,-45
2021-10-14 16:08:50.548140,-67
2021-10-14 16:08:50.548160,-101
2021-10-14 16:08:50.548169,-117
2021-10-14 16:08:50.548177,-122
2021-10-14 16:08:50.548186,-134
2021-10-14 16:08:50.548194,-141
2021-10-14 16:08:50.548202,-139
2021-10-14 16:08:50.548210,-146
2021-10-14 16:08:50.548218,-153
2021-10-14 16:08:50.548226,-158
2021-10-14 16:08:50.548234,-158
2021-10-14 16:08:50.548242,-153
2021-10-14 16:08:50.548249,-149
2021-10-14 16:08:50.548257,-149
2021-10-14 16:08:50.548265,-144
2021-10-14 16:08:50.548273,-141
2021-10-14 16:08:50.548281,-132
2021-10-14 16:08:50.548289,-110
2021-10-14 16:08:50.548297,-93
2021-10-14 16:08:50.548305,-93
2021-10-14 16:08:50.548313,-96
2021-10-14 16:08:50.548321,-88
2021-10-14 16:08:50.548329,-74
2021-10-14 16:08:50.548337,-72
2021-10-14 16:08:50.548345,-74
2021-10-14 16:08:50.548353,-74
2021-10-14 16:08:50.548362,-72
2021-10-14 16:08:50.548370,-72
2021-10-14 16:08:50.548378,-67
2021-10-14 16:08:50.548385,-60
2021-10-14 16:08:50.817939,-64
2021-10-14 16:08:50.817960,-74
2021-10-14 16:08:50.817970,-69
2021-10-14 16:08:50.817979,-67
2021-10-14 16:08:50.817987,-67
2021-10-14 16:08:50.817995,-64
2021-10-14 16:08:50.818004,-69
2021-10-14 16:08:50.818012,-60
2021-10-14 16:08:50.818020,-50
2021-10-14 16:08:50.818029,-62
2021-10-14 16:08:50.818037,-72
2021-10-14 16:08:50.818045,-64
2021-10-14 16:08:50.818054,-55
2021-10-14 16:08:50.818062,-52
2021-10-14 16:08:50.818070,-55
2021-10-14 16:08:50.818079,-62
2021-10-14 16:08:50.818087,-62
2021-10-14 16:08:50.818095,-48
2021-10-14 16:08:50.818104,-38
2021-10-14 16:08:50.818112,-48
2021-10-14 16:08:50.818120,-62
2021-10-14 16:08:50.818128,-67
2021-10-14 16:08:50.818137,-62
2021-10-14 16:08:50.818145,-48
2021-10-14 16:08:50.818154,-43
2021-10-14 16:08:50.818162,-38
2021-10-14 16:08:50.818170,-26
2021-10-14 16:08:50.818179,-16
2021-10-14 16:08:50.818187,-2
2021-10-14 16:08:50.818195,4
2021-10-14 16:08:51.176593,-14
2021-10-14 16:08:51.176613,-33
2021-10-14 16:08:51.176622,-40
2021-10-14 16:08:51.176631,-50
2021-10-14 16:08:51.176640,-45
2021-10-14 16:08:51.176648,-28
2021-10-14 16:08:51.176657,-33
2021-10-14 16:08:51.176665,-48
2021-10-14 16:08:51.176673,-43
2021-10-14 16:08:51.176682,-31
2021-10-14 16:08:51.176690,-24
2021-10-14 16:08:51.176699,-14
2021-10-14 16:08:51.176707,12
2021-10-14 16:08:51.176716,168
2021-10-14 16:08:51.176724,543
2021-10-14 16:08:51.176733,822
2021-10-14 16:08:51.176741,413
2021-10-14 16:08:51.176750,-620
2021-10-14 16:08:51.176758,-1159
2021-10-14 16:08:51.176766,-651
2021-10-14 16:08:51.176775,-125
2021-10-14 16:08:51.176783,-88
2021-10-14 16:08:51.176791,-19
2021-10-14 16:08:51.176800,108
2021-10-14 16:08:51.176808,86
2021-10-14 16:08:51.176816,60
2021-10-14 16:08:51.176830,93
2021-10-14 16:08:51.176838,103
2021-10-14 16:08:51.176847,101
2021-10-14 16:08:51.176855,113
2021-10-14 16:08:51.267409,120
2021-10-14 16:08:51.267426,115
2021-10-14 16:08:51.267436,115
2021-10-14 16:08:51.267444,117
2021-10-14 16:08:51.267453,122
2021-10-14 16:08:51.267461,141
2021-10-14 16:08:51.267469,153
2021-10-14 16:08:51.267478,156
2021-10-14 16:08:51.267486,180
2021-10-14 16:08:51.267495,211
2021-10-14 16:08:51.267503,214
2021-10-14 16:08:51.267511,199
2021-10-14 16:08:51.267520,204
2021-10-14 16:08:51.267528,221
2021-10-14 16:08:51.267536,230
2021-10-14 16:08:51.267545,238
2021-10-14 16:08:51.267553,228
2021-10-14 16:08:51.267561,199
2021-10-14 16:08:51.267569,173
2021-10-14 16:08:51.267577,139
2021-10-14 16:08:51.267586,93
2021-10-14 16:08:51.267594,52
2021-10-14 16:08:51.267602,16
2021-10-14 16:08:51.267610,-16
2021-10-14 16:08:51.267619,-33
2021-10-14 16:08:51.267627,-48
2021-10-14 16:08:51.267636,-84
2021-10-14 16:08:51.267644,-108
2021-10-14 16:08:51.267652,-110
2021-10-14 16:08:51.267660,-122
2021-10-14 16:08:51.448475,-132
2021-10-14 16:08:51.448494,-127
2021-10-14 16:08:51.448503,-129
2021-10-14 16:08:51.448512,-137
2021-10-14 16:08:51.448520,-132
2021-10-14 16:08:51.448528,-125
2021-10-14 16:08:51.448537,-122
2021-10-14 16:08:51.448545,-117
2021-10-14 16:08:51.448553,-108
2021-10-14 16:08:51.448562,-91
2021-10-14 16:08:51.448570,-84
2021-10-14 16:08:51.448578,-84
2021-10-14 16:08:51.448587,-79
2021-10-14 16:08:51.448595,-76
2021-10-14 16:08:51.448603,-79
2021-10-14 16:08:51.448612,-84
2021-10-14 16:08:51.448620,-86
2021-10-14 16:08:51.448628,-69
2021-10-14 16:08:51.448636,-48
2021-10-14 16:08:51.448645,-55
2021-10-14 16:08:51.448653,-67
2021-10-14 16:08:51.448661,-57
2021-10-14 16:08:51.448670,-48
2021-10-14 16:08:51.448678,-55
2021-10-14 16:08:51.448686,-57
2021-10-14 16:08:51.448695,-45
2021-10-14 16:08:51.448703,-33
2021-10-14 16:08:51.448711,-36
2021-10-14 16:08:51.448719,-40
2021-10-14 16:08:51.448728,-38
2021-10-14 16:08:51.762970,-31
2021-10-14 16:08:51.762991,-33
2021-10-14 16:08:51.763000,-31
2021-10-14 16:08:51.763009,-26
2021-10-14 16:08:51.763018,-26
2021-10-14 16:08:51.763026,-24
2021-10-14 16:08:51.763035,-26
2021-10-14 16:08:51.763043,-31
2021-10-14 16:08:51.763051,-24
2021-10-14 16:08:51.763060,-14
2021-10-14 16:08:51.763068,-9
2021-10-14 16:08:51.763077,-12
2021-10-14 16:08:51.763085,-19
2021-10-14 16:08:51.763094,-14
2021-10-14 16:08:51.763102,-2
2021-10-14 16:08:51.763110,-9
2021-10-14 16:08:51.763119,-19
2021-10-14 16:08:51.763127,-14
2021-10-14 16:08:51.763136,-9
2021-10-14 16:08:51.763144,0
2021-10-14 16:08:51.763153,7
2021-10-14 16:08:51.763161,4
2021-10-14 16:08:51.763170,14
2021-10-14 16:08:51.763178,36
2021-10-14 16:08:51.763186,36
2021-10-14 16:08:51.763195,33
2021-10-14 16:08:51.763203,43
2021-10-14 16:08:51.763212,26
2021-10-14 16:08:51.763220,4
2021-10-14 16:08:51.763228,2
2021-10-14 16:08:51.898127,-2
2021-10-14 16:08:51.898146,-12
2021-10-14 16:08:51.898156,-19
2021-10-14 16:08:51.898165,-19
2021-10-14 16:08:51.898173,-16
2021-10-14 16:08:51.898181,-4
2021-10-14 16:08:51.898189,7
2021-10-14 16:08:51.898198,12
2021-10-14 16:08:51.898206,19
2021-10-14 16:08:51.898214,48
2021-10-14 16:08:51.898222,187
2021-10-14 16:08:51.898231,529
2021-10-14 16:08:51.898239,800
2021-10-14 16:08:51.898247,401
2021-10-14 16:08:51.898256,-591
2021-10-14 16:08:51.898264,-1077
2021-10-14 16:08:51.898272,-642
2021-10-14 16:08:51.898280,-197
2021-10-14 16:08:51.898289,-105
2021-10-14 16:08:51.898300,0
2021-10-14 16:08:51.898309,101
2021-10-14 16:08:51.898317,91
2021-10-14 16:08:51.898325,91
2021-10-14 16:08:51.898334,108
2021-10-14 16:08:51.898342,105
2021-10-14 16:08:51.898350,113
2021-10-14 16:08:51.898358,127
2021-10-14 16:08:51.898366,132
2021-10-14 16:08:51.898375,137
2021-10-14 16:08:51.898383,139
2021-10-14 16:08:52.123133,144
2021-10-14 16:08:52.123153,156
2021-10-14 16:08:52.123162,168
2021-10-14 16:08:52.123171,182
2021-10-14 16:08:52.123179,182
2021-10-14 16:08:52.123188,175
2021-10-14 16:08:52.123196,187
2021-10-14 16:08:52.123205,214
2021-10-14 16:08:52.123213,240
2021-10-14 16:08:52.123221,247
2021-10-14 16:08:52.123230,245
2021-10-14 16:08:52.123238,245
2021-10-14 16:08:52.123247,245
2021-10-14 16:08:52.123255,240
2021-10-14 16:08:52.123263,221
2021-10-14 16:08:52.123271,194
2021-10-14 16:08:52.123280,165
2021-10-14 16:08:52.123288,137
2021-10-14 16:08:52.123296,96
2021-10-14 16:08:52.123305,38
2021-10-14 16:08:52.123313,-12
2021-10-14 16:08:52.123321,-38
2021-10-14 16:08:52.123330,-60
2021-10-14 16:08:52.123338,-84
2021-10-14 16:08:52.123346,-98
2021-10-14 16:08:52.123355,-105
2021-10-14 16:08:52.123363,-108
2021-10-14 16:08:52.123371,-110
2021-10-14 16:08:52.123379,-122
2021-10-14 16:08:52.123388,-122
2021-10-14 16:08:52.392933,-108
2021-10-14 16:08:52.392953,-101
2021-10-14 16:08:52.392963,-105
2021-10-14 16:08:52.392971,-108
2021-10-14 16:08:52.392980,-108
2021-10-14 16:08:52.392988,-91
2021-10-14 16:08:52.392997,-79
2021-10-14 16:08:52.393006,-93
2021-10-14 16:08:52.393014,-101
2021-10-14 16:08:52.393023,-88
2021-10-14 16:08:52.393031,-91
2021-10-14 16:08:52.393039,-91
2021-10-14 16:08:52.393048,-67
2021-10-14 16:08:52.393056,-52
2021-10-14 16:08:52.393065,-60
2021-10-14 16:08:52.393073,-67
2021-10-14 16:08:52.393081,-62
2021-10-14 16:08:52.393090,-52
2021-10-14 16:08:52.393098,-50
2021-10-14 16:08:52.393106,-52
2021-10-14 16:08:52.393115,-55
2021-10-14 16:08:52.393123,-60
2021-10-14 16:08:52.393131,-55
2021-10-14 16:08:52.393140,-55
2021-10-14 16:08:52.393148,-67
2021-10-14 16:08:52.393156,-62
2021-10-14 16:08:52.393165,-48
2021-10-14 16:08:52.393173,-50
2021-10-14 16:08:52.393181,-50
2021-10-14 16:08:52.393190,-40
2021-10-14 16:08:52.618610,-40
2021-10-14 16:08:52.618631,-38
2021-10-14 16:08:52.618640,-36
2021-10-14 16:08:52.618649,-48
2021-10-14 16:08:52.618657,-48
2021-10-14 16:08:52.618666,-33
2021-10-14 16:08:52.618674,-36
2021-10-14 16:08:52.618682,-43
2021-10-14 16:08:52.618690,-31
2021-10-14 16:08:52.618699,-31
2021-10-14 16:08:52.618707,-38
2021-10-14 16:08:52.618716,-28
2021-10-14 16:08:52.618724,-21
2021-10-14 16:08:52.618732,-24
2021-10-14 16:08:52.618740,-21
2021-10-14 16:08:52.618749,-21
2021-10-14 16:08:52.618757,-12
2021-10-14 16:08:52.618765,12
2021-10-14 16:08:52.618774,24
2021-10-14 16:08:52.618782,16
2021-10-14 16:08:52.618790,-4
2021-10-14 16:08:52.618798,-26
2021-10-14 16:08:52.618806,-33
2021-10-14 16:08:52.618815,-26
2021-10-14 16:08:52.618823,-19
2021-10-14 16:08:52.618831,-19
2021-10-14 16:08:52.618840,-24
2021-10-14 16:08:52.618848,-28
2021-10-14 16:08:52.618856,-28
2021-10-14 16:08:52.618864,-21
2021-10-14 16:08:52.888578,-14
2021-10-14 16:08:52.888599,-2
2021-10-14 16:08:52.888609,33
2021-10-14 16:08:52.888617,165
2021-10-14 16:08:52.888626,495
2021-10-14 16:08:52.888634,795
2021-10-14 16:08:52.888643,459
2021-10-14 16:08:52.888651,-550
2021-10-14 16:08:52.888659,-1144
2021-10-14 16:08:52.888668,-738
2021-10-14 16:08:52.888676,-226
2021-10-14 16:08:52.888684,-117
2021-10-14 16:08:52.888693,-28
2021-10-14 16:08:52.888701,79
2021-10-14 16:08:52.888710,67
2021-10-14 16:08:52.888718,43
2021-10-14 16:08:52.888726,76
2021-10-14 16:08:52.888735,96
2021-10-14 16:08:52.888743,86
2021-10-14 16:08:52.888751,93
2021-10-14 16:08:52.888760,93
2021-10-14 16:08:52.888768,84
2021-10-14 16:08:52.888777,96
2021-10-14 16:08:52.888785,122
2021-10-14 16:08:52.888793,127
2021-10-14 16:08:52.888802,125
2021-10-14 16:08:52.888810,137
2021-10-14 16:08:52.888819,149
2021-10-14 16:08:52.888827,149
2021-10-14 16:08:52.888835,161
2021-10-14 16:08:53.111814,187
2021-10-14 16:08:53.111835,204
2021-10-14 16:08:53.111844,199
2021-10-14 16:08:53.111853,199
2021-10-14 16:08:53.111861,218
2021-10-14 16:08:53.111870,226
2021-10-14 16:08:53.111878,211
2021-10-14 16:08:53.111887,189
2021-10-14 16:08:53.111895,163
2021-10-14 16:08:53.111904,125
2021-10-14 16:08:53.111912,91
2021-10-14 16:08:53.111920,60
2021-10-14 16:08:53.111929,19
2021-10-14 16:08:53.111937,-28
2021-10-14 16:08:53.111945,-67
2021-10-14 16:08:53.111954,-91
2021-10-14 16:08:53.111962,-105
2021-10-14 16:08:53.111970,-113
2021-10-14 16:08:53.111979,-122
2021-10-14 16:08:53.111987,-134
2021-10-14 16:08:53.111995,-141
2021-10-14 16:08:53.112004,-141
2021-10-14 16:08:53.112012,-141
2021-10-14 16:08:53.112020,-129
2021-10-14 16:08:53.112029,-117
2021-10-14 16:08:53.112037,-110
2021-10-14 16:08:53.112045,-113
2021-10-14 16:08:53.112054,-117
2021-10-14 16:08:53.112062,-110
2021-10-14 16:08:53.112070,-101
2021-10-14 16:08:53.293162,-101
2021-10-14 16:08:53.293182,-98
2021-10-14 16:08:53.293191,-91
2021-10-14 16:08:53.293200,-84
2021-10-14 16:08:53.293208,-72
2021-10-14 16:08:53.293217,-57
2021-10-14 16:08:53.293225,-48
2021-10-14 16:08:53.293233,-55
2021-10-14 16:08:53.293242,-74
2021-10-14 16:08:53.293250,-69
2021-10-14 16:08:53.293258,-52
2021-10-14 16:08:53.293267,-50
2021-10-14 16:08:53.293275,-60
2021-10-14 16:08:53.293283,-69
2021-10-14 16:08:53.293292,-72
2021-10-14 16:08:53.293300,-74
2021-10-14 16:08:53.293308,-81
2021-10-14 16:08:53.293317,-86
2021-10-14 16:08:53.293325,-84
2021-10-14 16:08:53.293333,-88
2021-10-14 16:08:53.293342,-91
2021-10-14 16:08:53.293350,-88
2021-10-14 16:08:53.293358,-81
2021-10-14 16:08:53.293367,-67
2021-10-14 16:08:53.293375,-55
2021-10-14 16:08:53.293383,-48
2021-10-14 16:08:53.293392,-43
2021-10-14 16:08:53.293400,-40
2021-10-14 16:08:53.293408,-36
2021-10-14 16:08:53.293417,-40
2021-10-14 16:08:53.562944,-52
2021-10-14 16:08:53.562964,-55
2021-10-14 16:08:53.562974,-60
2021-10-14 16:08:53.562982,-74
2021-10-14 16:08:53.562991,-72
2021-10-14 16:08:53.562999,-60
2021-10-14 16:08:53.563008,-60
2021-10-14 16:08:53.563016,-48
2021-10-14 16:08:53.563024,-24
2021-10-14 16:08:53.563033,-21
2021-10-14 16:08:53.563041,-21
2021-10-14 16:08:53.563049,-7
2021-10-14 16:08:53.563058,-7
2021-10-14 16:08:53.563066,-21
2021-10-14 16:08:53.563075,-16
2021-10-14 16:08:53.563083,-4
2021-10-14 16:08:53.563091,12
2021-10-14 16:08:53.563100,26
2021-10-14 16:08:53.563108,7
2021-10-14 16:08:53.563116,-21
2021-10-14 16:08:53.563124,-28
2021-10-14 16:08:53.563132,-33
2021-10-14 16:08:53.563141,-48
2021-10-14 16:08:53.563149,-43
2021-10-14 16:08:53.563157,-31
2021-10-14 16:08:53.563165,-36
2021-10-14 16:08:53.563174,-38
2021-10-14 16:08:53.563182,-21
2021-10-14 16:08:53.563190,-16
2021-10-14 16:08:53.563199,-28
2021-10-14 16:08:53.743188,-24
2021-10-14 16:08:53.743209,28
2021-10-14 16:08:53.743218,206
2021-10-14 16:08:53.743227,584
2021-10-14 16:08:53.743235,812
2021-10-14 16:08:53.743244,310
2021-10-14 16:08:53.743252,-731
2021-10-14 16:08:53.743261,-1137
2021-10-14 16:08:53.743269,-574
2021-10-14 16:08:53.743278,-117
2021-10-14 16:08:53.743286,-101
2021-10-14 16:08:53.743294,-14
2021-10-14 16:08:53.743303,93
2021-10-14 16:08:53.743311,62
2021-10-14 16:08:53.743319,50
2021-10-14 16:08:53.743328,86
2021-10-14 16:08:53.743336,88
2021-10-14 16:08:53.743344,84
2021-10-14 16:08:53.743353,98
2021-10-14 16:08:53.743361,108
2021-10-14 16:08:53.743369,117
2021-10-14 16:08:53.743377,125
2021-10-14 16:08:53.743386,127
2021-10-14 16:08:53.743394,117
2021-10-14 16:08:53.743402,110
2021-10-14 16:08:53.743410,125
2021-10-14 16:08:53.743419,149
2021-10-14 16:08:53.743427,161
2021-10-14 16:08:53.743435,170
2021-10-14 16:08:53.743443,185
2021-10-14 16:08:53.968574,197
2021-10-14 16:08:53.968594,204
2021-10-14 16:08:53.968604,216
2021-10-14 16:08:53.968612,218
2021-10-14 16:08:53.968621,209
2021-10-14 16:08:53.968629,194
2021-10-14 16:08:53.968637,165
2021-10-14 16:08:53.968646,139
2021-10-14 16:08:53.968654,115
2021-10-14 16:08:53.968663,76
2021-10-14 16:08:53.968671,24
2021-10-14 16:08:53.968679,-24
2021-10-14 16:08:53.968688,-57
2021-10-14 16:08:53.968696,-84
2021-10-14 16:08:53.968704,-101
2021-10-14 16:08:53.968713,-115
2021-10-14 16:08:53.968721,-134
2021-10-14 16:08:53.968730,-141
2021-10-14 16:08:53.968738,-132
2021-10-14 16:08:53.968746,-127
2021-10-14 16:08:53.968754,-132
2021-10-14 16:08:53.968763,-132
2021-10-14 16:08:53.968771,-127
2021-10-14 16:08:53.968780,-115
2021-10-14 16:08:53.968788,-103
2021-10-14 16:08:53.968796,-96
2021-10-14 16:08:53.968804,-96
2021-10-14 16:08:53.968812,-101
2021-10-14 16:08:53.968821,-98
2021-10-14 16:08:53.968829,-84
2021-10-14 16:08:54.238168,-64
2021-10-14 16:08:54.238187,-52
2021-10-14 16:08:54.238196,-45
2021-10-14 16:08:54.238205,-45
2021-10-14 16:08:54.238213,-48
2021-10-14 16:08:54.238222,-45
2021-10-14 16:08:54.238230,-43
2021-10-14 16:08:54.238238,-48
2021-10-14 16:08:54.238246,-52
2021-10-14 16:08:54.238254,-50
2021-10-14 16:08:54.238263,-52
2021-10-14 16:08:54.238271,-52
2021-10-14 16:08:54.238279,-40
2021-10-14 16:08:54.238288,-38
2021-10-14 16:08:54.238296,-38
2021-10-14 16:08:54.238304,-40
2021-10-14 16:08:54.238312,-48
2021-10-14 16:08:54.238320,-45
2021-10-14 16:08:54.238329,-40
2021-10-14 16:08:54.238337,-33
2021-10-14 16:08:54.238352,-24
2021-10-14 16:08:54.238361,-31
2021-10-14 16:08:54.238369,-38
2021-10-14 16:08:54.238377,-19
2021-10-14 16:08:54.238386,-7
2021-10-14 16:08:54.238394,-14
2021-10-14 16:08:54.238402,-14
2021-10-14 16:08:54.238410,-12
2021-10-14 16:08:54.238419,-19
2021-10-14 16:08:54.238427,-28
2021-10-14 16:08:54.418127,-24
2021-10-14 16:08:54.418146,-19
2021-10-14 16:08:54.418156,-24
2021-10-14 16:08:54.418164,-28
2021-10-14 16:08:54.418173,-24
2021-10-14 16:08:54.418181,-24
2021-10-14 16:08:54.418189,-21
2021-10-14 16:08:54.418198,-9
2021-10-14 16:08:54.418206,-2
2021-10-14 16:08:54.418214,-9
2021-10-14 16:08:54.418223,-14
2021-10-14 16:08:54.418231,-16
2021-10-14 16:08:54.418239,-14
2021-10-14 16:08:54.418247,-2
2021-10-14 16:08:54.418256,7
2021-10-14 16:08:54.418264,14
2021-10-14 16:08:54.418272,16
2021-10-14 16:08:54.418281,12
2021-10-14 16:08:54.418289,14
2021-10-14 16:08:54.418297,26
2021-10-14 16:08:54.418305,19
2021-10-14 16:08:54.418314,0
2021-10-14 16:08:54.418322,-4
2021-10-14 16:08:54.418330,-2
2021-10-14 16:08:54.418339,-7
2021-10-14 16:08:54.418347,-7
2021-10-14 16:08:54.418355,-4
2021-10-14 16:08:54.418363,-7
2021-10-14 16:08:54.418372,2
2021-10-14 16:08:54.418380,19
2021-10-14 16:08:54.733624,26
2021-10-14 16:08:54.733646,28
2021-10-14 16:08:54.733656,50
2021-10-14 16:08:54.733664,163
2021-10-14 16:08:54.733673,471
2021-10-14 16:08:54.733681,776
2021-10-14 16:08:54.733690,476
2021-10-14 16:08:54.733698,-495
2021-10-14 16:08:54.733706,-1096
2021-10-14 16:08:54.733715,-738
2021-10-14 16:08:54.733723,-257
2021-10-14 16:08:54.733731,-132
2021-10-14 16:08:54.733740,-9
2021-10-14 16:08:54.733748,103
2021-10-14 16:08:54.733757,86
2021-10-14 16:08:54.733765,79
2021-10-14 16:08:54.733773,120
2021-10-14 16:08:54.733782,122
2021-10-14 16:08:54.733790,117
2021-10-14 16:08:54.733798,129
2021-10-14 16:08:54.733807,127
2021-10-14 16:08:54.733815,129
2021-10-14 16:08:54.733823,137
2021-10-14 16:08:54.733832,139
2021-10-14 16:08:54.733840,151
2021-10-14 16:08:54.733848,168
2021-10-14 16:08:54.733856,173
2021-10-14 16:08:54.733865,173
2021-10-14 16:08:54.733873,185
2021-10-14 16:08:54.733881,202
2021-10-14 16:08:54.913541,216
2021-10-14 16:08:54.913561,233
2021-10-14 16:08:54.913571,240
2021-10-14 16:08:54.913580,230
2021-10-14 16:08:54.913588,211
2021-10-14 16:08:54.913607,206
2021-10-14 16:08:54.913615,204
2021-10-14 16:08:54.913624,175
2021-10-14 16:08:54.913632,137
2021-10-14 16:08:54.913641,108
2021-10-14 16:08:54.913649,79
2021-10-14 16:08:54.913657,31
2021-10-14 16:08:54.913666,-9
2021-10-14 16:08:54.913674,-28
2021-10-14 16:08:54.913682,-55
2021-10-14 16:08:54.913691,-101
2021-10-14 16:08:54.913699,-122
2021-10-14 16:08:54.913708,-125
2021-10-14 16:08:54.913716,-132
2021-10-14 16:08:54.913724,-141
2021-10-14 16:08:54.913733,-141
2021-10-14 16:08:54.913741,-137
2021-10-14 16:08:54.913749,-137
2021-10-14 16:08:54.913757,-129
2021-10-14 16:08:54.913766,-117
2021-10-14 16:08:54.913774,-115
2021-10-14 16:08:54.913782,-117
2021-10-14 16:08:54.913790,-115
2021-10-14 16:08:54.913799,-98
2021-10-14 16:08:54.913807,-76
2021-10-14 16:08:55.227224,-67
2021-10-14 16:08:55.227244,-69
2021-10-14 16:08:55.227254,-69
2021-10-14 16:08:55.227262,-62
2021-10-14 16:08:55.227271,-52
2021-10-14 16:08:55.227279,-45
2021-10-14 16:08:55.227288,-45
2021-10-14 16:08:55.227296,-50
2021-10-14 16:08:55.227305,-57
2021-10-14 16:08:55.227313,-62
2021-10-14 16:08:55.227321,-60
2021-10-14 16:08:55.227329,-50
2021-10-14 16:08:55.227338,-50
2021-10-14 16:08:55.227346,-60
2021-10-14 16:08:55.227354,-60
2021-10-14 16:08:55.227362,-50
2021-10-14 16:08:55.227370,-62
2021-10-14 16:08:55.227379,-74
2021-10-14 16:08:55.227387,-64
2021-10-14 16:08:55.227395,-55
2021-10-14 16:08:55.227403,-55
2021-10-14 16:08:55.227412,-60
2021-10-14 16:08:55.227420,-60
2021-10-14 16:08:55.227429,-52
2021-10-14 16:08:55.227437,-48
2021-10-14 16:08:55.227445,-48
2021-10-14 16:08:55.227454,-45
2021-10-14 16:08:55.227462,-36
2021-10-14 16:08:55.227470,-26
2021-10-14 16:08:55.227478,-31
2021-10-14 16:08:55.407557,-33
2021-10-14 16:08:55.407577,-26
2021-10-14 16:08:55.407587,-31
2021-10-14 16:08:55.407595,-38
2021-10-14 16:08:55.407604,-31
2021-10-14 16:08:55.407612,-14
2021-10-14 16:08:55.407620,-19
2021-10-14 16:08:55.407628,-33
2021-10-14 16:08:55.407637,-26
2021-10-14 16:08:55.407645,-21
2021-10-14 16:08:55.407653,-31
2021-10-14 16:08:55.407662,-26
2021-10-14 16:08:55.407670,-19
2021-10-14 16:08:55.407678,-26
2021-10-14 16:08:55.407686,-21
2021-10-14 16:08:55.407695,-21
2021-10-14 16:08:55.407703,-38
2021-10-14 16:08:55.407711,-48
2021-10-14 16:08:55.407720,-50
2021-10-14 16:08:55.407728,-60
2021-10-14 16:08:55.407736,-62
2021-10-14 16:08:55.407744,-55
2021-10-14 16:08:55.407753,-50
2021-10-14 16:08:55.407761,-57
2021-10-14 16:08:55.407769,-67
2021-10-14 16:08:55.407777,-55
2021-10-14 16:08:55.407786,-38
2021-10-14 16:08:55.407794,-16
2021-10-14 16:08:55.407802,45
2021-10-14 16:08:55.407810,240
2021-10-14 16:08:55.588682,618
2021-10-14 16:08:55.588703,800
2021-10-14 16:08:55.588712,189
2021-10-14 16:08:55.588718,-846
2021-10-14 16:08:55.588722,-1096
2021-10-14 16:08:55.588727,-514
2021-10-14 16:08:55.588731,-132
2021-10-14 16:08:55.588736,-76
2021-10-14 16:08:55.588740,28
2021-10-14 16:08:55.588744,79
2021-10-14 16:08:55.588749,52
2021-10-14 16:08:55.588753,76
2021-10-14 16:08:55.588757,96
2021-10-14 16:08:55.588762,84
2021-10-14 16:08:55.588766,88
2021-10-14 16:08:55.588771,98
2021-10-14 16:08:55.588775,105
2021-10-14 16:08:55.588779,101
2021-10-14 16:08:55.588784,79
2021-10-14 16:08:55.588788,91
2021-10-14 16:08:55.588792,127
2021-10-14 16:08:55.588797,132
2021-10-14 16:08:55.588801,129
2021-10-14 16:08:55.588805,137
2021-10-14 16:08:55.588810,127
2021-10-14 16:08:55.588814,127
2021-10-14 16:08:55.588818,153
2021-10-14 16:08:55.588823,165
2021-10-14 16:08:55.588827,168
2021-10-14 16:08:55.588831,182
2021-10-14 16:08:55.813234,177
2021-10-14 16:08:55.813254,153
2021-10-14 16:08:55.813263,149
2021-10-14 16:08:55.813272,139
2021-10-14 16:08:55.813281,93
2021-10-14 16:08:55.813289,52
2021-10-14 16:08:55.813297,24
2021-10-14 16:08:55.813306,-9
2021-10-14 16:08:55.813314,-43
2021-10-14 16:08:55.813323,-69
2021-10-14 16:08:55.813331,-96
2021-10-14 16:08:55.813340,-120
2021-10-14 16:08:55.813348,-132
2021-10-14 16:08:55.813356,-141
2021-10-14 16:08:55.813365,-149
2021-10-14 16:08:55.813373,-153
2021-10-14 16:08:55.813382,-165
2021-10-14 16:08:55.813390,-170
2021-10-14 16:08:55.813398,-158
2021-10-14 16:08:55.813407,-141
2021-10-14 16:08:55.813415,-137
2021-10-14 16:08:55.813423,-144
2021-10-14 16:08:55.813432,-141
2021-10-14 16:08:55.813440,-125
2021-10-14 16:08:55.813448,-105
2021-10-14 16:08:55.813457,-101
2021-10-14 16:08:55.813465,-86
2021-10-14 16:08:55.813473,-72
2021-10-14 16:08:55.813482,-79
2021-10-14 16:08:55.813490,-84
2021-10-14 16:08:56.083658,-69
2021-10-14 16:08:56.083678,-55
2021-10-14 16:08:56.083688,-43
2021-10-14 16:08:56.083697,-33
2021-10-14 16:08:56.083705,-38
2021-10-14 16:08:56.083714,-50
2021-10-14 16:08:56.083722,-50
2021-10-14 16:08:56.083730,-43
2021-10-14 16:08:56.083738,-33
2021-10-14 16:08:56.083747,-28
2021-10-14 16:08:56.083755,-36
2021-10-14 16:08:56.083764,-48
2021-10-14 16:08:56.083772,-50
2021-10-14 16:08:56.083780,-31
2021-10-14 16:08:56.083788,-16
2021-10-14 16:08:56.083796,-28
2021-10-14 16:08:56.083805,-38
2021-10-14 16:08:56.083813,-36
2021-10-14 16:08:56.083821,-36
2021-10-14 16:08:56.083829,-21
2021-10-14 16:08:56.083837,-2
2021-10-14 16:08:56.083846,-7
2021-10-14 16:08:56.083854,-14
2021-10-14 16:08:56.083862,-14
2021-10-14 16:08:56.083871,-24
2021-10-14 16:08:56.083879,-24
2021-10-14 16:08:56.083887,-12
2021-10-14 16:08:56.083895,-21
2021-10-14 16:08:56.083904,-38
2021-10-14 16:08:56.083912,-28
2021-10-14 16:08:56.263180,0
2021-10-14 16:08:56.263199,2
2021-10-14 16:08:56.263209,-16
2021-10-14 16:08:56.263217,-26
2021-10-14 16:08:56.263226,-19
2021-10-14 16:08:56.263234,-12
2021-10-14 16:08:56.263242,-9
2021-10-14 16:08:56.263251,4
2021-10-14 16:08:56.263259,12
2021-10-14 16:08:56.263268,7
2021-10-14 16:08:56.263276,9
2021-10-14 16:08:56.263284,12
2021-10-14 16:08:56.263292,0
2021-10-14 16:08:56.263301,-24
2021-10-14 16:08:56.263309,-40
2021-10-14 16:08:56.263317,-36
2021-10-14 16:08:56.263326,-24
2021-10-14 16:08:56.263334,-19
2021-10-14 16:08:56.263342,-19
2021-10-14 16:08:56.263351,-12
2021-10-14 16:08:56.263359,-12
2021-10-14 16:08:56.263367,-21
2021-10-14 16:08:56.263376,-24
2021-10-14 16:08:56.263384,2
2021-10-14 16:08:56.263393,117
2021-10-14 16:08:56.263401,444
2021-10-14 16:08:56.263409,791
2021-10-14 16:08:56.263418,584
2021-10-14 16:08:56.263426,-363
2021-10-14 16:08:56.263434,-1127
2021-10-14 16:08:56.533519,-834
2021-10-14 16:08:56.533538,-211
2021-10-14 16:08:56.533548,-72
2021-10-14 16:08:56.533557,-48
2021-10-14 16:08:56.533565,81
2021-10-14 16:08:56.533574,88
2021-10-14 16:08:56.533582,43
2021-10-14 16:08:56.533591,74
2021-10-14 16:08:56.533599,96
2021-10-14 16:08:56.533607,76
2021-10-14 16:08:56.533616,79
2021-10-14 16:08:56.533624,91
2021-10-14 16:08:56.533632,96
2021-10-14 16:08:56.533641,113
2021-10-14 16:08:56.533649,120
2021-10-14 16:08:56.533657,120
2021-10-14 16:08:56.533666,127
2021-10-14 16:08:56.533674,127
2021-10-14 16:08:56.533682,132
2021-10-14 16:08:56.533690,156
2021-10-14 16:08:56.533698,175
2021-10-14 16:08:56.533707,168
2021-10-14 16:08:56.533715,165
2021-10-14 16:08:56.533723,187
2021-10-14 16:08:56.533731,209
2021-10-14 16:08:56.533740,206
2021-10-14 16:08:56.533748,182
2021-10-14 16:08:56.533756,161
2021-10-14 16:08:56.533765,161
2021-10-14 16:08:56.533773,144
2021-10-14 16:08:56.758636,105
2021-10-14 16:08:56.758656,67
2021-10-14 16:08:56.758666,19
2021-10-14 16:08:56.758675,-21
2021-10-14 16:08:56.758683,-31
2021-10-14 16:08:56.758691,-52
2021-10-14 16:08:56.758700,-96
2021-10-14 16:08:56.758708,-110
2021-10-14 16:08:56.758716,-113
2021-10-14 16:08:56.758724,-137
2021-10-14 16:08:56.758733,-139
2021-10-14 16:08:56.758741,-115
2021-10-14 16:08:56.758750,-105
2021-10-14 16:08:56.758758,-110
2021-10-14 16:08:56.758766,-134
2021-10-14 16:08:56.758774,-156
2021-10-14 16:08:56.758783,-137
2021-10-14 16:08:56.758791,-110
2021-10-14 16:08:56.758799,-108
2021-10-14 16:08:56.758807,-103
2021-10-14 16:08:56.758816,-86
2021-10-14 16:08:56.758824,-76
2021-10-14 16:08:56.758832,-74
2021-10-14 16:08:56.758840,-74
2021-10-14 16:08:56.758848,-62
2021-10-14 16:08:56.758857,-48
2021-10-14 16:08:56.758865,-55
2021-10-14 16:08:56.758873,-67
2021-10-14 16:08:56.758881,-50
2021-10-14 16:08:56.758890,-33
2021-10-14 16:08:56.983180,-45
2021-10-14 16:08:56.983199,-48
2021-10-14 16:08:56.983208,-43
2021-10-14 16:08:56.983217,-48
2021-10-14 16:08:56.983225,-57
2021-10-14 16:08:56.983234,-50
2021-10-14 16:08:56.983242,-36
2021-10-14 16:08:56.983250,-48
2021-10-14 16:08:56.983259,-60
2021-10-14 16:08:56.983267,-50
2021-10-14 16:08:56.983275,-55
2021-10-14 16:08:56.983284,-60
2021-10-14 16:08:56.983292,-50
2021-10-14 16:08:56.983300,-50
2021-10-14 16:08:56.983308,-52
2021-10-14 16:08:56.983317,-45
2021-10-14 16:08:56.983325,-50
2021-10-14 16:08:56.983333,-57
2021-10-14 16:08:56.983341,-45
2021-10-14 16:08:56.983350,-33
2021-10-14 16:08:56.983358,-48
2021-10-14 16:08:56.983367,-64
2021-10-14 16:08:56.983375,-48
2021-10-14 16:08:56.983383,-12
2021-10-14 16:08:56.983391,-7
2021-10-14 16:08:56.983399,-21
2021-10-14 16:08:56.983408,-24
2021-10-14 16:08:56.983416,-21
2021-10-14 16:08:56.983424,-19
2021-10-14 16:08:56.983433,-14
2021-10-14 16:08:57.251864,-12
2021-10-14 16:08:57.251885,-14
2021-10-14 16:08:57.251894,-9
2021-10-14 16:08:57.251903,-14
2021-10-14 16:08:57.251911,-24
2021-10-14 16:08:57.251919,-4
2021-10-14 16:08:57.251928,9
2021-10-14 16:08:57.251936,-19
2021-10-14 16:08:57.251944,-43
2021-10-14 16:08:57.251952,-36
2021-10-14 16:08:57.251960,-33
2021-10-14 16:08:57.251969,-40
2021-10-14 16:08:57.251977,-48
2021-10-14 16:08:57.251985,-45
2021-10-14 16:08:57.251993,-33
2021-10-14 16:08:57.252002,-36
2021-10-14 16:08:57.252010,-48
2021-10-14 16:08:57.252018,-38
2021-10-14 16:08:57.252026,-24
2021-10-14 16:08:57.252034,2
2021-10-14 16:08:57.252043,134
2021-10-14 16:08:57.252051,485
2021-10-14 16:08:57.252059,767
2021-10-14 16:08:57.252067,382
2021-10-14 16:08:57.252076,-620
2021-10-14 16:08:57.252084,-1159
2021-10-14 16:08:57.252092,-697
2021-10-14 16:08:57.252100,-163
2021-10-14 16:08:57.252109,-84
2021-10-14 16:08:57.252117,-24
2021-10-14 16:08:57.433554,86
2021-10-14 16:08:57.433573,76
2021-10-14 16:08:57.433582,48
2021-10-14 16:08:57.433591,69
2021-10-14 16:08:57.433600,72
2021-10-14 16:08:57.433608,52
2021-10-14 16:08:57.433617,48
2021-10-14 16:08:57.433625,64
2021-10-14 16:08:57.433633,76
2021-10-14 16:08:57.433642,72
2021-10-14 16:08:57.433650,69
2021-10-14 16:08:57.433659,84
2021-10-14 16:08:57.433667,103
2021-10-14 16:08:57.433675,103
2021-10-14 16:08:57.433684,93
2021-10-14 16:08:57.433692,105
2021-10-14 16:08:57.433700,129
2021-10-14 16:08:57.433709,132
2021-10-14 16:08:57.433717,134
2021-10-14 16:08:57.433725,151
2021-10-14 16:08:57.433734,170
2021-10-14 16:08:57.433742,168
2021-10-14 16:08:57.433750,153
2021-10-14 16:08:57.433759,137
2021-10-14 16:08:57.433767,117
2021-10-14 16:08:57.433775,88
2021-10-14 16:08:57.433784,60
2021-10-14 16:08:57.433792,33
2021-10-14 16:08:57.433801,2
2021-10-14 16:08:57.433809,-38
2021-10-14 16:08:57.658334,-69
2021-10-14 16:08:57.658355,-88
2021-10-14 16:08:57.658365,-117
2021-10-14 16:08:57.658373,-144
2021-10-14 16:08:57.658382,-151
2021-10-14 16:08:57.658390,-153
2021-10-14 16:08:57.658399,-163
2021-10-14 16:08:57.658407,-180
2021-10-14 16:08:57.658416,-175
2021-10-14 16:08:57.658424,-156
2021-10-14 16:08:57.658433,-153
2021-10-14 16:08:57.658441,-161
2021-10-14 16:08:57.658449,-156
2021-10-14 16:08:57.658458,-144
2021-10-14 16:08:57.658466,-132
2021-10-14 16:08:57.658474,-125
2021-10-14 16:08:57.658483,-127
2021-10-14 16:08:57.658491,-122
2021-10-14 16:08:57.658499,-103
2021-10-14 16:08:57.658508,-91
2021-10-14 16:08:57.658516,-88
2021-10-14 16:08:57.658524,-84
2021-10-14 16:08:57.658532,-76
2021-10-14 16:08:57.658541,-74
2021-10-14 16:08:57.658549,-67
2021-10-14 16:08:57.658557,-62
2021-10-14 16:08:57.658566,-62
2021-10-14 16:08:57.658574,-60
2021-10-14 16:08:57.658582,-62
2021-10-14 16:08:57.658590,-69
2021-10-14 16:08:57.883564,-62
2021-10-14 16:08:57.883584,-43
2021-10-14 16:08:57.883593,-38
2021-10-14 16:08:57.883602,-43
2021-10-14 16:08:57.883610,-48
2021-10-14 16:08:57.883618,-60
2021-10-14 16:08:57.883627,-57
2021-10-14 16:08:57.883635,-38
2021-10-14 16:08:57.883643,-52
2021-10-14 16:08:57.883652,-86
2021-10-14 16:08:57.883660,-86
2021-10-14 16:08:57.883668,-62
2021-10-14 16:08:57.883677,-57
2021-10-14 16:08:57.883685,-67
2021-10-14 16:08:57.883693,-57
2021-10-14 16:08:57.883701,-43
2021-10-14 16:08:57.883710,-48
2021-10-14 16:08:57.883718,-57
2021-10-14 16:08:57.883726,-57
2021-10-14 16:08:57.883735,-48
2021-10-14 16:08:57.883743,-45
2021-10-14 16:08:57.883751,-50
2021-10-14 16:08:57.883759,-43
2021-10-14 16:08:57.883767,-21
2021-10-14 16:08:57.883776,-2
2021-10-14 16:08:57.883784,-9
2021-10-14 16:08:57.883792,-21
2021-10-14 16:08:57.883800,2
2021-10-14 16:08:57.883809,33
2021-10-14 16:08:57.883817,40
2021-10-14 16:08:58.108246,28
2021-10-14 16:08:58.108266,19
2021-10-14 16:08:58.108275,-2
2021-10-14 16:08:58.108284,-16
2021-10-14 16:08:58.108292,-9
2021-10-14 16:08:58.108301,-9
2021-10-14 16:08:58.108309,-14
2021-10-14 16:08:58.108318,-4
2021-10-14 16:08:58.108372,-4
2021-10-14 16:08:58.108382,-21
2021-10-14 16:08:58.108391,-21
2021-10-14 16:08:58.108400,-12
2021-10-14 16:08:58.108408,-9
2021-10-14 16:08:58.108417,9
2021-10-14 16:08:58.108425,40
2021-10-14 16:08:58.108434,165
2021-10-14 16:08:58.108442,502
2021-10-14 16:08:58.108451,779
2021-10-14 16:08:58.108459,375
2021-10-14 16:08:58.108467,-610
2021-10-14 16:08:58.108476,-1060
2021-10-14 16:08:58.108484,-632
2021-10-14 16:08:58.108492,-223
2021-10-14 16:08:58.108501,-115
2021-10-14 16:08:58.108509,26
2021-10-14 16:08:58.108518,125
2021-10-14 16:08:58.108526,105
2021-10-14 16:08:58.108535,105
2021-10-14 16:08:58.108543,120
2021-10-14 16:08:58.108551,115
2021-10-14 16:08:58.423250,127
2021-10-14 16:08:58.423270,146
2021-10-14 16:08:58.423279,144
2021-10-14 16:08:58.423288,134
2021-10-14 16:08:58.423296,137
2021-10-14 16:08:58.423305,139
2021-10-14 16:08:58.423313,151
2021-10-14 16:08:58.423321,168
2021-10-14 16:08:58.423330,161
2021-10-14 16:08:58.423338,163
2021-10-14 16:08:58.423347,194
2021-10-14 16:08:58.423355,221
2021-10-14 16:08:58.423363,221
2021-10-14 16:08:58.423372,218
2021-10-14 16:08:58.423380,211
2021-10-14 16:08:58.423388,199
2021-10-14 16:08:58.423397,204
2021-10-14 16:08:58.423405,209
2021-10-14 16:08:58.423413,197
2021-10-14 16:08:58.423421,182
2021-10-14 16:08:58.423430,153
2021-10-14 16:08:58.423438,110
2021-10-14 16:08:58.423447,81
2021-10-14 16:08:58.423455,69
2021-10-14 16:08:58.423463,40
2021-10-14 16:08:58.423472,-14
2021-10-14 16:08:58.423480,-67
2021-10-14 16:08:58.423488,-84
2021-10-14 16:08:58.423496,-86
2021-10-14 16:08:58.423505,-98
2021-10-14 16:08:58.603645,-96
2021-10-14 16:08:58.603664,-86
2021-10-14 16:08:58.603674,-96
2021-10-14 16:08:58.603682,-110
2021-10-14 16:08:58.603691,-103
2021-10-14 16:08:58.603699,-91
2021-10-14 16:08:58.603708,-88
2021-10-14 16:08:58.603716,-84
2021-10-14 16:08:58.603724,-79
2021-10-14 16:08:58.603733,-81
2021-10-14 16:08:58.603741,-74
2021-10-14 16:08:58.603749,-69
2021-10-14 16:08:58.603758,-64
2021-10-14 16:08:58.603766,-43
2021-10-14 16:08:58.603774,-31
2021-10-14 16:08:58.603783,-48
2021-10-14 16:08:58.603791,-60
2021-10-14 16:08:58.603799,-45
2021-10-14 16:08:58.603807,-38
2021-10-14 16:08:58.603816,-60
2021-10-14 16:08:58.603824,-79
2021-10-14 16:08:58.603832,-60
2021-10-14 16:08:58.603841,-28
2021-10-14 16:08:58.603849,-26
2021-10-14 16:08:58.603857,-38
2021-10-14 16:08:58.603865,-26
2021-10-14 16:08:58.603874,-26
2021-10-14 16:08:58.603882,-45
2021-10-14 16:08:58.603890,-48
2021-10-14 16:08:58.603898,-33
2021-10-14 16:08:58.918223,-38
2021-10-14 16:08:58.918243,-36
2021-10-14 16:08:58.918252,-14
2021-10-14 16:08:58.918261,-19
2021-10-14 16:08:58.918269,-33
2021-10-14 16:08:58.918278,-21
2021-10-14 16:08:58.918286,-12
2021-10-14 16:08:58.918295,-36
2021-10-14 16:08:58.918303,-38
2021-10-14 16:08:58.918311,-9
2021-10-14 16:08:58.918320,4
2021-10-14 16:08:58.918328,-2
2021-10-14 16:08:58.918337,7
2021-10-14 16:08:58.918345,2
2021-10-14 16:08:58.918354,-26
2021-10-14 16:08:58.918362,-38
2021-10-14 16:08:58.918371,-36
2021-10-14 16:08:58.918379,-43
2021-10-14 16:08:58.918388,-40
2021-10-14 16:08:58.918396,-40
2021-10-14 16:08:58.918404,-48
2021-10-14 16:08:58.918413,-52
2021-10-14 16:08:58.918421,-52
2021-10-14 16:08:58.918429,-43
2021-10-14 16:08:58.918438,-24
2021-10-14 16:08:58.918446,-19
2021-10-14 16:08:58.918454,24
2021-10-14 16:08:58.918463,254
2021-10-14 16:08:58.918471,639
2021-10-14 16:08:58.918480,714
2021-10-14 16:08:59.098579,-19
