Time,ECG
2021-10-14 14:49:51.856890,-176
2021-10-14 14:49:51.856910,-166
2021-10-14 14:49:51.856919,-169
2021-10-14 14:49:51.856927,-166
2021-10-14 14:49:51.856936,-149
2021-10-14 14:49:51.856945,-142
2021-10-14 14:49:51.856953,-157
2021-10-14 14:49:51.856962,-174
2021-10-14 14:49:51.856970,-171
2021-10-14 14:49:51.856979,-157
2021-10-14 14:49:51.856987,-157
2021-10-14 14:49:51.856996,-161
2021-10-14 14:49:51.857004,-154
2021-10-14 14:49:51.857012,-147
2021-10-14 14:49:51.857021,-144
2021-10-14 14:49:51.857029,-152
2021-10-14 14:49:51.857038,-157
2021-10-14 14:49:51.857046,-142
2021-10-14 14:49:51.857054,-132
2021-10-14 14:49:51.857063,-137
2021-10-14 14:49:51.857071,-132
2021-10-14 14:49:51.857080,-127
2021-10-14 14:49:51.857088,-137
2021-10-14 14:49:51.857097,-132
2021-10-14 14:49:51.857105,-98
2021-10-14 14:49:51.857114,-73
2021-10-14 14:49:51.857122,-80
2021-10-14 14:49:51.857131,-88
2021-10-14 14:49:51.857139,-80
2021-10-14 14:49:51.857147,-83
2021-10-14 14:49:51.928538,-90
2021-10-14 14:49:51.928558,-78
2021-10-14 14:49:51.928568,-49
2021-10-14 14:49:51.928577,-24
2021-10-14 14:49:51.928585,-12
2021-10-14 14:49:51.928594,2
2021-10-14 14:49:51.928603,4
2021-10-14 14:49:51.928612,-12
2021-10-14 14:49:51.928620,-39
2021-10-14 14:49:51.928629,-66
2021-10-14 14:49:51.928637,-71
2021-10-14 14:49:51.928645,-53
2021-10-14 14:49:51.928654,-49
2021-10-14 14:49:51.928662,-44
2021-10-14 14:49:51.928670,-44
2021-10-14 14:49:51.928679,-61
2021-10-14 14:49:51.928687,-53
2021-10-14 14:49:51.928696,51
2021-10-14 14:49:51.928705,316
2021-10-14 14:49:51.928713,694
2021-10-14 14:49:51.928722,858
2021-10-14 14:49:51.928730,331
2021-10-14 14:49:51.928739,-426
2021-10-14 14:49:51.928747,-358
2021-10-14 14:49:51.928755,78
2021-10-14 14:49:51.928764,17
2021-10-14 14:49:51.928772,-85
2021-10-14 14:49:51.928780,29
2021-10-14 14:49:51.928789,39
2021-10-14 14:49:51.928800,-2
2021-10-14 14:49:52.109473,41
2021-10-14 14:49:52.109493,73
2021-10-14 14:49:52.109503,63
2021-10-14 14:49:52.109511,73
2021-10-14 14:49:52.109520,85
2021-10-14 14:49:52.109528,98
2021-10-14 14:49:52.109537,125
2021-10-14 14:49:52.109545,154
2021-10-14 14:49:52.109554,176
2021-10-14 14:49:52.109562,193
2021-10-14 14:49:52.109571,211
2021-10-14 14:49:52.109580,223
2021-10-14 14:49:52.109588,240
2021-10-14 14:49:52.109601,269
2021-10-14 14:49:52.109609,294
2021-10-14 14:49:52.109618,304
2021-10-14 14:49:52.109626,311
2021-10-14 14:49:52.109635,316
2021-10-14 14:49:52.109643,306
2021-10-14 14:49:52.109651,269
2021-10-14 14:49:52.109660,186
2021-10-14 14:49:52.109669,88
2021-10-14 14:49:52.109677,7
2021-10-14 14:49:52.109686,-71
2021-10-14 14:49:52.109694,-147
2021-10-14 14:49:52.109703,-201
2021-10-14 14:49:52.109711,-242
2021-10-14 14:49:52.109719,-264
2021-10-14 14:49:52.109728,-257
2021-10-14 14:49:52.109738,-245
2021-10-14 14:49:52.334618,-240
2021-10-14 14:49:52.334640,-235
2021-10-14 14:49:52.334650,-223
2021-10-14 14:49:52.334659,-208
2021-10-14 14:49:52.334667,-203
2021-10-14 14:49:52.334676,-196
2021-10-14 14:49:52.334684,-179
2021-10-14 14:49:52.334693,-176
2021-10-14 14:49:52.334702,-181
2021-10-14 14:49:52.334710,-171
2021-10-14 14:49:52.334719,-149
2021-10-14 14:49:52.334728,-139
2021-10-14 14:49:52.334736,-142
2021-10-14 14:49:52.334745,-144
2021-10-14 14:49:52.334753,-142
2021-10-14 14:49:52.334761,-142
2021-10-14 14:49:52.334769,-144
2021-10-14 14:49:52.334779,-139
2021-10-14 14:49:52.334787,-130
2021-10-14 14:49:52.334794,-127
2021-10-14 14:49:52.334802,-134
2021-10-14 14:49:52.334810,-142
2021-10-14 14:49:52.334819,-132
2021-10-14 14:49:52.334828,-115
2021-10-14 14:49:52.334836,-120
2021-10-14 14:49:52.334845,-125
2021-10-14 14:49:52.334854,-105
2021-10-14 14:49:52.334862,-83
2021-10-14 14:49:52.334871,-76
2021-10-14 14:49:52.334879,-88
2021-10-14 14:49:52.559994,-103
2021-10-14 14:49:52.560015,-90
2021-10-14 14:49:52.560023,-61
2021-10-14 14:49:52.560030,-31
2021-10-14 14:49:52.560037,-24
2021-10-14 14:49:52.560044,-19
2021-10-14 14:49:52.560051,-14
2021-10-14 14:49:52.560063,-29
2021-10-14 14:49:52.560070,-63
2021-10-14 14:49:52.560078,-80
2021-10-14 14:49:52.560085,-71
2021-10-14 14:49:52.560093,-51
2021-10-14 14:49:52.560100,-46
2021-10-14 14:49:52.560108,-61
2021-10-14 14:49:52.560115,-80
2021-10-14 14:49:52.560122,-78
2021-10-14 14:49:52.560130,-46
2021-10-14 14:49:52.560138,44
2021-10-14 14:49:52.560145,294
2021-10-14 14:49:52.560153,664
2021-10-14 14:49:52.560160,780
2021-10-14 14:49:52.560168,235
2021-10-14 14:49:52.560176,-446
2021-10-14 14:49:52.560184,-328
2021-10-14 14:49:52.560192,83
2021-10-14 14:49:52.560200,12
2021-10-14 14:49:52.560208,-80
2021-10-14 14:49:52.560215,34
2021-10-14 14:49:52.560224,49
2021-10-14 14:49:52.560233,14
2021-10-14 14:49:52.784672,51
2021-10-14 14:49:52.784715,68
2021-10-14 14:49:52.784725,63
2021-10-14 14:49:52.784733,93
2021-10-14 14:49:52.784740,122
2021-10-14 14:49:52.784747,130
2021-10-14 14:49:52.784755,137
2021-10-14 14:49:52.784763,161
2021-10-14 14:49:52.784770,193
2021-10-14 14:49:52.784777,218
2021-10-14 14:49:52.784785,240
2021-10-14 14:49:52.784792,267
2021-10-14 14:49:52.784800,299
2021-10-14 14:49:52.784808,333
2021-10-14 14:49:52.784816,355
2021-10-14 14:49:52.784823,360
2021-10-14 14:49:52.784830,360
2021-10-14 14:49:52.784838,360
2021-10-14 14:49:52.784846,341
2021-10-14 14:49:52.784853,299
2021-10-14 14:49:52.784861,228
2021-10-14 14:49:52.784868,130
2021-10-14 14:49:52.784875,22
2021-10-14 14:49:52.784884,-66
2021-10-14 14:49:52.784896,-127
2021-10-14 14:49:52.784903,-169
2021-10-14 14:49:52.784911,-203
2021-10-14 14:49:52.784919,-220
2021-10-14 14:49:52.784927,-213
2021-10-14 14:49:52.784934,-203
2021-10-14 14:49:53.009956,-206
2021-10-14 14:49:53.009977,-201
2021-10-14 14:49:53.009987,-196
2021-10-14 14:49:53.009996,-188
2021-10-14 14:49:53.010004,-164
2021-10-14 14:49:53.010013,-152
2021-10-14 14:49:53.010021,-161
2021-10-14 14:49:53.010030,-157
2021-10-14 14:49:53.010038,-127
2021-10-14 14:49:53.010046,-107
2021-10-14 14:49:53.010055,-107
2021-10-14 14:49:53.010063,-110
2021-10-14 14:49:53.010071,-105
2021-10-14 14:49:53.010080,-95
2021-10-14 14:49:53.010089,-85
2021-10-14 14:49:53.010097,-76
2021-10-14 14:49:53.010105,-73
2021-10-14 14:49:53.010114,-78
2021-10-14 14:49:53.010122,-93
2021-10-14 14:49:53.010131,-95
2021-10-14 14:49:53.010139,-80
2021-10-14 14:49:53.010147,-78
2021-10-14 14:49:53.010158,-95
2021-10-14 14:49:53.010166,-110
2021-10-14 14:49:53.010174,-90
2021-10-14 14:49:53.010183,-68
2021-10-14 14:49:53.010191,-76
2021-10-14 14:49:53.010199,-88
2021-10-14 14:49:53.010208,-78
2021-10-14 14:49:53.010216,-68
2021-10-14 14:49:53.234527,-80
2021-10-14 14:49:53.234553,-80
2021-10-14 14:49:53.234563,-49
2021-10-14 14:49:53.234572,-9
2021-10-14 14:49:53.234580,7
2021-10-14 14:49:53.234589,0
2021-10-14 14:49:53.234597,-9
2021-10-14 14:49:53.234606,-12
2021-10-14 14:49:53.234614,-22
2021-10-14 14:49:53.234622,-36
2021-10-14 14:49:53.234631,-39
2021-10-14 14:49:53.234639,-36
2021-10-14 14:49:53.234648,-29
2021-10-14 14:49:53.234656,-22
2021-10-14 14:49:53.234665,-24
2021-10-14 14:49:53.234673,-29
2021-10-14 14:49:53.234681,-14
2021-10-14 14:49:53.234690,49
2021-10-14 14:49:53.234698,264
2021-10-14 14:49:53.234706,660
2021-10-14 14:49:53.234715,937
2021-10-14 14:49:53.234723,564
2021-10-14 14:49:53.234731,-233
2021-10-14 14:49:53.234740,-382
2021-10-14 14:49:53.234752,41
2021-10-14 14:49:53.234761,88
2021-10-14 14:49:53.234769,-63
2021-10-14 14:49:53.234777,12
2021-10-14 14:49:53.234786,61
2021-10-14 14:49:53.234794,9
2021-10-14 14:49:53.459536,34
2021-10-14 14:49:53.459558,85
2021-10-14 14:49:53.459568,80
2021-10-14 14:49:53.459577,78
2021-10-14 14:49:53.459586,103
2021-10-14 14:49:53.459594,122
2021-10-14 14:49:53.459603,137
2021-10-14 14:49:53.459612,152
2021-10-14 14:49:53.459621,179
2021-10-14 14:49:53.459629,206
2021-10-14 14:49:53.459638,223
2021-10-14 14:49:53.459647,242
2021-10-14 14:49:53.459655,279
2021-10-14 14:49:53.459664,316
2021-10-14 14:49:53.459673,331
2021-10-14 14:49:53.459681,338
2021-10-14 14:49:53.459690,350
2021-10-14 14:49:53.459699,363
2021-10-14 14:49:53.459707,363
2021-10-14 14:49:53.459716,338
2021-10-14 14:49:53.459724,269
2021-10-14 14:49:53.459732,171
2021-10-14 14:49:53.459740,73
2021-10-14 14:49:53.459748,-22
2021-10-14 14:49:53.459755,-98
2021-10-14 14:49:53.459763,-142
2021-10-14 14:49:53.459770,-174
2021-10-14 14:49:53.459778,-208
2021-10-14 14:49:53.459786,-223
2021-10-14 14:49:53.459793,-211
2021-10-14 14:49:53.684962,-198
2021-10-14 14:49:53.684984,-196
2021-10-14 14:49:53.684993,-201
2021-10-14 14:49:53.685002,-201
2021-10-14 14:49:53.685010,-186
2021-10-14 14:49:53.685019,-171
2021-10-14 14:49:53.685027,-159
2021-10-14 14:49:53.685035,-142
2021-10-14 14:49:53.685044,-137
2021-10-14 14:49:53.685052,-144
2021-10-14 14:49:53.685060,-142
2021-10-14 14:49:53.685069,-125
2021-10-14 14:49:53.685077,-120
2021-10-14 14:49:53.685085,-115
2021-10-14 14:49:53.685094,-110
2021-10-14 14:49:53.685102,-107
2021-10-14 14:49:53.685111,-103
2021-10-14 14:49:53.685119,-93
2021-10-14 14:49:53.685128,-85
2021-10-14 14:49:53.685136,-88
2021-10-14 14:49:53.685144,-90
2021-10-14 14:49:53.685153,-93
2021-10-14 14:49:53.685161,-98
2021-10-14 14:49:53.685169,-85
2021-10-14 14:49:53.685178,-68
2021-10-14 14:49:53.685186,-73
2021-10-14 14:49:53.685194,-78
2021-10-14 14:49:53.685202,-71
2021-10-14 14:49:53.685211,-73
2021-10-14 14:49:53.685219,-76
2021-10-14 14:49:53.998579,-63
2021-10-14 14:49:53.998600,-56
2021-10-14 14:49:53.998610,-66
2021-10-14 14:49:53.998619,-68
2021-10-14 14:49:53.998627,-66
2021-10-14 14:49:53.998636,-78
2021-10-14 14:49:53.998644,-73
2021-10-14 14:49:53.998653,-36
2021-10-14 14:49:53.998661,-14
2021-10-14 14:49:53.998670,-26
2021-10-14 14:49:53.998684,-26
2021-10-14 14:49:53.998693,-4
2021-10-14 14:49:53.998701,-2
2021-10-14 14:49:53.998709,-26
2021-10-14 14:49:53.998718,-31
2021-10-14 14:49:53.998726,-26
2021-10-14 14:49:53.998735,-19
2021-10-14 14:49:53.998743,-14
2021-10-14 14:49:53.998751,-14
2021-10-14 14:49:53.998760,-17
2021-10-14 14:49:53.998768,-19
2021-10-14 14:49:53.998777,17
2021-10-14 14:49:53.998785,188
2021-10-14 14:49:53.998794,549
2021-10-14 14:49:53.998802,902
2021-10-14 14:49:53.998810,740
2021-10-14 14:49:53.998819,-39
2021-10-14 14:49:53.998827,-449
2021-10-14 14:49:53.998836,-61
2021-10-14 14:49:53.998844,137
2021-10-14 14:49:54.179634,-39
2021-10-14 14:49:54.179660,-12
2021-10-14 14:49:54.179669,66
2021-10-14 14:49:54.179678,7
2021-10-14 14:49:54.179686,2
2021-10-14 14:49:54.179695,56
2021-10-14 14:49:54.179703,58
2021-10-14 14:49:54.179712,56
2021-10-14 14:49:54.179720,71
2021-10-14 14:49:54.179728,73
2021-10-14 14:49:54.179737,85
2021-10-14 14:49:54.179745,110
2021-10-14 14:49:54.179753,137
2021-10-14 14:49:54.179762,152
2021-10-14 14:49:54.179770,164
2021-10-14 14:49:54.179779,193
2021-10-14 14:49:54.179787,242
2021-10-14 14:49:54.179795,282
2021-10-14 14:49:54.179804,309
2021-10-14 14:49:54.179812,333
2021-10-14 14:49:54.179820,350
2021-10-14 14:49:54.179829,350
2021-10-14 14:49:54.179837,343
2021-10-14 14:49:54.179845,328
2021-10-14 14:49:54.179854,289
2021-10-14 14:49:54.179866,213
2021-10-14 14:49:54.179875,120
2021-10-14 14:49:54.179883,26
2021-10-14 14:49:54.179892,-66
2021-10-14 14:49:54.179900,-139
2021-10-14 14:49:54.404989,-184
2021-10-14 14:49:54.405010,-203
2021-10-14 14:49:54.405020,-211
2021-10-14 14:49:54.405029,-208
2021-10-14 14:49:54.405037,-203
2021-10-14 14:49:54.405046,-206
2021-10-14 14:49:54.405054,-201
2021-10-14 14:49:54.405063,-193
2021-10-14 14:49:54.405071,-188
2021-10-14 14:49:54.405080,-184
2021-10-14 14:49:54.405088,-179
2021-10-14 14:49:54.405097,-166
2021-10-14 14:49:54.405105,-152
2021-10-14 14:49:54.405113,-149
2021-10-14 14:49:54.405122,-149
2021-10-14 14:49:54.405130,-142
2021-10-14 14:49:54.405139,-130
2021-10-14 14:49:54.405147,-120
2021-10-14 14:49:54.405155,-122
2021-10-14 14:49:54.405164,-125
2021-10-14 14:49:54.405172,-117
2021-10-14 14:49:54.405180,-110
2021-10-14 14:49:54.405189,-115
2021-10-14 14:49:54.405198,-110
2021-10-14 14:49:54.405207,-103
2021-10-14 14:49:54.405215,-107
2021-10-14 14:49:54.405223,-110
2021-10-14 14:49:54.405232,-105
2021-10-14 14:49:54.405240,-95
2021-10-14 14:49:54.405248,-80
2021-10-14 14:49:54.629937,-83
2021-10-14 14:49:54.629959,-90
2021-10-14 14:49:54.629969,-90
2021-10-14 14:49:54.629977,-90
2021-10-14 14:49:54.629986,-85
2021-10-14 14:49:54.629994,-83
2021-10-14 14:49:54.630003,-85
2021-10-14 14:49:54.630011,-85
2021-10-14 14:49:54.630020,-78
2021-10-14 14:49:54.630028,-63
2021-10-14 14:49:54.630037,-49
2021-10-14 14:49:54.630045,-46
2021-10-14 14:49:54.630053,-51
2021-10-14 14:49:54.630062,-68
2021-10-14 14:49:54.630070,-90
2021-10-14 14:49:54.630078,-93
2021-10-14 14:49:54.630090,-76
2021-10-14 14:49:54.630098,-66
2021-10-14 14:49:54.630107,-76
2021-10-14 14:49:54.630115,-76
2021-10-14 14:49:54.630123,-68
2021-10-14 14:49:54.630132,-71
2021-10-14 14:49:54.630140,-53
2021-10-14 14:49:54.630148,44
2021-10-14 14:49:54.630157,287
2021-10-14 14:49:54.630165,647
2021-10-14 14:49:54.630173,826
2021-10-14 14:49:54.630182,345
2021-10-14 14:49:54.630190,-419
2021-10-14 14:49:54.630199,-412
2021-10-14 14:49:54.899961,49
2021-10-14 14:49:54.899982,41
2021-10-14 14:49:54.899991,-88
2021-10-14 14:49:54.900000,7
2021-10-14 14:49:54.900008,19
2021-10-14 14:49:54.900017,-44
2021-10-14 14:49:54.900026,-14
2021-10-14 14:49:54.900034,12
2021-10-14 14:49:54.900043,2
2021-10-14 14:49:54.900051,12
2021-10-14 14:49:54.900061,41
2021-10-14 14:49:54.900069,61
2021-10-14 14:49:54.900078,63
2021-10-14 14:49:54.900086,85
2021-10-14 14:49:54.900095,134
2021-10-14 14:49:54.900103,159
2021-10-14 14:49:54.900112,176
2021-10-14 14:49:54.900120,206
2021-10-14 14:49:54.900129,247
2021-10-14 14:49:54.900137,296
2021-10-14 14:49:54.900145,333
2021-10-14 14:49:54.900154,348
2021-10-14 14:49:54.900162,358
2021-10-14 14:49:54.900171,358
2021-10-14 14:49:54.900179,343
2021-10-14 14:49:54.900188,316
2021-10-14 14:49:54.900196,257
2021-10-14 14:49:54.900205,159
2021-10-14 14:49:54.900213,51
2021-10-14 14:49:54.900221,-39
2021-10-14 14:49:55.079581,-107
2021-10-14 14:49:55.079601,-159
2021-10-14 14:49:55.079610,-196
2021-10-14 14:49:55.079618,-220
2021-10-14 14:49:55.079625,-228
2021-10-14 14:49:55.079633,-230
2021-10-14 14:49:55.079641,-230
2021-10-14 14:49:55.079649,-215
2021-10-14 14:49:55.079657,-191
2021-10-14 14:49:55.079665,-193
2021-10-14 14:49:55.079672,-208
2021-10-14 14:49:55.079680,-201
2021-10-14 14:49:55.079688,-179
2021-10-14 14:49:55.079700,-169
2021-10-14 14:49:55.079708,-171
2021-10-14 14:49:55.079716,-176
2021-10-14 14:49:55.079724,-181
2021-10-14 14:49:55.079731,-181
2021-10-14 14:49:55.079739,-171
2021-10-14 14:49:55.079747,-154
2021-10-14 14:49:55.079754,-147
2021-10-14 14:49:55.079762,-149
2021-10-14 14:49:55.079770,-142
2021-10-14 14:49:55.079777,-137
2021-10-14 14:49:55.079785,-137
2021-10-14 14:49:55.079793,-132
2021-10-14 14:49:55.079801,-122
2021-10-14 14:49:55.079808,-115
2021-10-14 14:49:55.079816,-110
2021-10-14 14:49:55.079824,-107
2021-10-14 14:49:55.438954,-107
2021-10-14 14:49:55.438976,-107
2021-10-14 14:49:55.438985,-105
2021-10-14 14:49:55.438994,-103
2021-10-14 14:49:55.439003,-93
2021-10-14 14:49:55.439011,-68
2021-10-14 14:49:55.439019,-36
2021-10-14 14:49:55.439028,-36
2021-10-14 14:49:55.439037,-53
2021-10-14 14:49:55.439045,-56
2021-10-14 14:49:55.439053,-73
2021-10-14 14:49:55.439062,-98
2021-10-14 14:49:55.439070,-83
2021-10-14 14:49:55.439078,-68
2021-10-14 14:49:55.439087,-73
2021-10-14 14:49:55.439095,-76
2021-10-14 14:49:55.439104,-66
2021-10-14 14:49:55.439112,-58
2021-10-14 14:49:55.439121,-46
2021-10-14 14:49:55.439129,-24
2021-10-14 14:49:55.439138,56
2021-10-14 14:49:55.439146,306
2021-10-14 14:49:55.439155,687
2021-10-14 14:49:55.439163,809
2021-10-14 14:49:55.439171,269
2021-10-14 14:49:55.439180,-426
2021-10-14 14:49:55.439188,-328
2021-10-14 14:49:55.439197,100
2021-10-14 14:49:55.439205,46
2021-10-14 14:49:55.439213,-58
2021-10-14 14:49:55.529964,49
2021-10-14 14:49:55.529986,56
2021-10-14 14:49:55.529994,12
2021-10-14 14:49:55.530002,49
2021-10-14 14:49:55.530010,73
2021-10-14 14:49:55.530017,73
2021-10-14 14:49:55.530025,95
2021-10-14 14:49:55.530033,120
2021-10-14 14:49:55.530040,132
2021-10-14 14:49:55.530048,139
2021-10-14 14:49:55.530055,152
2021-10-14 14:49:55.530063,186
2021-10-14 14:49:55.530071,220
2021-10-14 14:49:55.530078,250
2021-10-14 14:49:55.530086,284
2021-10-14 14:49:55.530093,309
2021-10-14 14:49:55.530101,328
2021-10-14 14:49:55.530113,363
2021-10-14 14:49:55.530120,387
2021-10-14 14:49:55.530128,395
2021-10-14 14:49:55.530135,377
2021-10-14 14:49:55.530143,338
2021-10-14 14:49:55.530151,289
2021-10-14 14:49:55.530158,230
2021-10-14 14:49:55.530166,144
2021-10-14 14:49:55.530173,41
2021-10-14 14:49:55.530181,-49
2021-10-14 14:49:55.530189,-117
2021-10-14 14:49:55.530196,-164
2021-10-14 14:49:55.530204,-196
2021-10-14 14:49:55.845049,-206
2021-10-14 14:49:55.845071,-201
2021-10-14 14:49:55.845079,-203
2021-10-14 14:49:55.845086,-213
2021-10-14 14:49:55.845093,-206
2021-10-14 14:49:55.845101,-181
2021-10-14 14:49:55.845108,-169
2021-10-14 14:49:55.845115,-166
2021-10-14 14:49:55.845122,-169
2021-10-14 14:49:55.845129,-161
2021-10-14 14:49:55.845136,-139
2021-10-14 14:49:55.845142,-130
2021-10-14 14:49:55.845149,-137
2021-10-14 14:49:55.845156,-130
2021-10-14 14:49:55.845164,-115
2021-10-14 14:49:55.845171,-112
2021-10-14 14:49:55.845178,-107
2021-10-14 14:49:55.845185,-103
2021-10-14 14:49:55.845192,-98
2021-10-14 14:49:55.845200,-90
2021-10-14 14:49:55.845208,-88
2021-10-14 14:49:55.845215,-90
2021-10-14 14:49:55.845222,-90
2021-10-14 14:49:55.845229,-78
2021-10-14 14:49:55.845237,-71
2021-10-14 14:49:55.845245,-71
2021-10-14 14:49:55.845253,-68
2021-10-14 14:49:55.845261,-71
2021-10-14 14:49:55.845268,-76
2021-10-14 14:49:55.845275,-61
2021-10-14 14:49:56.068233,-26
2021-10-14 14:49:56.068254,2
2021-10-14 14:49:56.068264,7
2021-10-14 14:49:56.068272,-2
2021-10-14 14:49:56.068281,-9
2021-10-14 14:49:56.068290,-22
2021-10-14 14:49:56.068298,-34
2021-10-14 14:49:56.068306,-34
2021-10-14 14:49:56.068315,-34
2021-10-14 14:49:56.068324,-34
2021-10-14 14:49:56.068332,-26
2021-10-14 14:49:56.068340,-17
2021-10-14 14:49:56.068349,-19
2021-10-14 14:49:56.068357,-24
2021-10-14 14:49:56.068366,-9
2021-10-14 14:49:56.068374,93
2021-10-14 14:49:56.068383,390
2021-10-14 14:49:56.068391,804
2021-10-14 14:49:56.068400,915
2021-10-14 14:49:56.068408,316
2021-10-14 14:49:56.068417,-382
2021-10-14 14:49:56.068425,-245
2021-10-14 14:49:56.068433,130
2021-10-14 14:49:56.068442,24
2021-10-14 14:49:56.068450,-56
2021-10-14 14:49:56.068459,51
2021-10-14 14:49:56.068468,36
2021-10-14 14:49:56.068476,-9
2021-10-14 14:49:56.068484,34
2021-10-14 14:49:56.068496,61
2021-10-14 14:49:56.293958,53
2021-10-14 14:49:56.293980,73
2021-10-14 14:49:56.293990,98
2021-10-14 14:49:56.293998,110
2021-10-14 14:49:56.294007,130
2021-10-14 14:49:56.294016,159
2021-10-14 14:49:56.294024,181
2021-10-14 14:49:56.294032,191
2021-10-14 14:49:56.294040,215
2021-10-14 14:49:56.294049,250
2021-10-14 14:49:56.294057,287
2021-10-14 14:49:56.294065,311
2021-10-14 14:49:56.294074,321
2021-10-14 14:49:56.294082,328
2021-10-14 14:49:56.294090,336
2021-10-14 14:49:56.294099,328
2021-10-14 14:49:56.294107,299
2021-10-14 14:49:56.294116,260
2021-10-14 14:49:56.294124,198
2021-10-14 14:49:56.294132,103
2021-10-14 14:49:56.294141,7
2021-10-14 14:49:56.294149,-63
2021-10-14 14:49:56.294158,-130
2021-10-14 14:49:56.294166,-174
2021-10-14 14:49:56.294175,-191
2021-10-14 14:49:56.294183,-201
2021-10-14 14:49:56.294192,-211
2021-10-14 14:49:56.294200,-208
2021-10-14 14:49:56.294208,-196
2021-10-14 14:49:56.294217,-184
2021-10-14 14:49:56.474978,-171
2021-10-14 14:49:56.474998,-159
2021-10-14 14:49:56.475006,-154
2021-10-14 14:49:56.475013,-154
2021-10-14 14:49:56.475019,-139
2021-10-14 14:49:56.475026,-122
2021-10-14 14:49:56.475032,-127
2021-10-14 14:49:56.475039,-130
2021-10-14 14:49:56.475046,-120
2021-10-14 14:49:56.475052,-110
2021-10-14 14:49:56.475059,-103
2021-10-14 14:49:56.475066,-103
2021-10-14 14:49:56.475072,-112
2021-10-14 14:49:56.475079,-122
2021-10-14 14:49:56.475086,-117
2021-10-14 14:49:56.475092,-105
2021-10-14 14:49:56.475099,-98
2021-10-14 14:49:56.475105,-95
2021-10-14 14:49:56.475112,-103
2021-10-14 14:49:56.475118,-105
2021-10-14 14:49:56.475125,-100
2021-10-14 14:49:56.475132,-105
2021-10-14 14:49:56.475138,-105
2021-10-14 14:49:56.475145,-78
2021-10-14 14:49:56.475152,-39
2021-10-14 14:49:56.475158,-24
2021-10-14 14:49:56.475165,-29
2021-10-14 14:49:56.475172,-26
2021-10-14 14:49:56.475178,-36
2021-10-14 14:49:56.475185,-58
2021-10-14 14:49:56.699604,-71
2021-10-14 14:49:56.699625,-83
2021-10-14 14:49:56.699635,-98
2021-10-14 14:49:56.699644,-90
2021-10-14 14:49:56.699652,-71
2021-10-14 14:49:56.699661,-68
2021-10-14 14:49:56.699670,-78
2021-10-14 14:49:56.699678,-78
2021-10-14 14:49:56.699686,-26
2021-10-14 14:49:56.699695,174
2021-10-14 14:49:56.699703,552
2021-10-14 14:49:56.699712,861
2021-10-14 14:49:56.699720,596
2021-10-14 14:49:56.699729,-211
2021-10-14 14:49:56.699737,-512
2021-10-14 14:49:56.699745,-68
2021-10-14 14:49:56.699754,85
2021-10-14 14:49:56.699762,-90
2021-10-14 14:49:56.699771,-46
2021-10-14 14:49:56.699779,22
2021-10-14 14:49:56.699791,-22
2021-10-14 14:49:56.699799,-9
2021-10-14 14:49:56.699808,31
2021-10-14 14:49:56.699816,31
2021-10-14 14:49:56.699825,39
2021-10-14 14:49:56.699833,68
2021-10-14 14:49:56.699842,85
2021-10-14 14:49:56.699850,98
2021-10-14 14:49:56.699858,130
2021-10-14 14:49:56.699867,161
2021-10-14 14:49:56.924954,188
2021-10-14 14:49:56.924975,223
2021-10-14 14:49:56.924984,257
2021-10-14 14:49:56.924993,282
2021-10-14 14:49:56.925002,311
2021-10-14 14:49:56.925010,338
2021-10-14 14:49:56.925019,341
2021-10-14 14:49:56.925028,348
2021-10-14 14:49:56.925036,368
2021-10-14 14:49:56.925044,358
2021-10-14 14:49:56.925053,309
2021-10-14 14:49:56.925061,238
2021-10-14 14:49:56.925069,144
2021-10-14 14:49:56.925078,44
2021-10-14 14:49:56.925086,-39
2021-10-14 14:49:56.925094,-115
2021-10-14 14:49:56.925103,-179
2021-10-14 14:49:56.925111,-208
2021-10-14 14:49:56.925119,-223
2021-10-14 14:49:56.925127,-235
2021-10-14 14:49:56.925136,-238
2021-10-14 14:49:56.925144,-238
2021-10-14 14:49:56.925152,-240
2021-10-14 14:49:56.925161,-230
2021-10-14 14:49:56.925169,-213
2021-10-14 14:49:56.925177,-206
2021-10-14 14:49:56.925186,-198
2021-10-14 14:49:56.925194,-184
2021-10-14 14:49:56.925202,-176
2021-10-14 14:49:56.925211,-169
2021-10-14 14:49:57.149644,-149
2021-10-14 14:49:57.149666,-147
2021-10-14 14:49:57.149676,-152
2021-10-14 14:49:57.149684,-147
2021-10-14 14:49:57.149693,-152
2021-10-14 14:49:57.149701,-159
2021-10-14 14:49:57.149709,-157
2021-10-14 14:49:57.149718,-154
2021-10-14 14:49:57.149726,-161
2021-10-14 14:49:57.149735,-157
2021-10-14 14:49:57.149743,-154
2021-10-14 14:49:57.149751,-164
2021-10-14 14:49:57.149760,-164
2021-10-14 14:49:57.149768,-142
2021-10-14 14:49:57.149776,-110
2021-10-14 14:49:57.149785,-90
2021-10-14 14:49:57.149793,-83
2021-10-14 14:49:57.149801,-73
2021-10-14 14:49:57.149810,-80
2021-10-14 14:49:57.149818,-107
2021-10-14 14:49:57.149826,-120
2021-10-14 14:49:57.149835,-117
2021-10-14 14:49:57.149843,-110
2021-10-14 14:49:57.149851,-105
2021-10-14 14:49:57.149859,-110
2021-10-14 14:49:57.149868,-107
2021-10-14 14:49:57.149876,-90
2021-10-14 14:49:57.149884,-85
2021-10-14 14:49:57.149893,-66
2021-10-14 14:49:57.149901,66
2021-10-14 14:49:57.419634,365
2021-10-14 14:49:57.419655,704
2021-10-14 14:49:57.419664,689
2021-10-14 14:49:57.419672,2
2021-10-14 14:49:57.419679,-615
2021-10-14 14:49:57.419688,-314
2021-10-14 14:49:57.419696,93
2021-10-14 14:49:57.419704,-31
2021-10-14 14:49:57.419712,-80
2021-10-14 14:49:57.419720,24
2021-10-14 14:49:57.419728,-7
2021-10-14 14:49:57.419736,-31
2021-10-14 14:49:57.419744,22
2021-10-14 14:49:57.419752,46
2021-10-14 14:49:57.419760,49
2021-10-14 14:49:57.419768,68
2021-10-14 14:49:57.419775,85
2021-10-14 14:49:57.419783,107
2021-10-14 14:49:57.419791,132
2021-10-14 14:49:57.419799,161
2021-10-14 14:49:57.419806,193
2021-10-14 14:49:57.419814,218
2021-10-14 14:49:57.419826,247
2021-10-14 14:49:57.419835,296
2021-10-14 14:49:57.419842,331
2021-10-14 14:49:57.419850,348
2021-10-14 14:49:57.419858,368
2021-10-14 14:49:57.419866,377
2021-10-14 14:49:57.419873,387
2021-10-14 14:49:57.419881,402
2021-10-14 14:49:57.645045,372
2021-10-14 14:49:57.645177,296
2021-10-14 14:49:57.645188,198
2021-10-14 14:49:57.645195,85
2021-10-14 14:49:57.645202,-17
2021-10-14 14:49:57.645209,-93
2021-10-14 14:49:57.645216,-154
2021-10-14 14:49:57.645223,-196
2021-10-14 14:49:57.645230,-218
2021-10-14 14:49:57.645238,-228
2021-10-14 14:49:57.645246,-223
2021-10-14 14:49:57.645254,-213
2021-10-14 14:49:57.645263,-213
2021-10-14 14:49:57.645271,-228
2021-10-14 14:49:57.645279,-235
2021-10-14 14:49:57.645288,-223
2021-10-14 14:49:57.645296,-213
2021-10-14 14:49:57.645304,-206
2021-10-14 14:49:57.645313,-193
2021-10-14 14:49:57.645321,-181
2021-10-14 14:49:57.645329,-176
2021-10-14 14:49:57.645337,-169
2021-10-14 14:49:57.645346,-159
2021-10-14 14:49:57.645354,-154
2021-10-14 14:49:57.645362,-152
2021-10-14 14:49:57.645370,-134
2021-10-14 14:49:57.645379,-120
2021-10-14 14:49:57.645387,-137
2021-10-14 14:49:57.645395,-154
2021-10-14 14:49:57.645403,-147
2021-10-14 14:49:57.869590,-132
2021-10-14 14:49:57.869611,-110
2021-10-14 14:49:57.869621,-88
2021-10-14 14:49:57.869629,-83
2021-10-14 14:49:57.869638,-73
2021-10-14 14:49:57.869646,-71
2021-10-14 14:49:57.869654,-85
2021-10-14 14:49:57.869663,-103
2021-10-14 14:49:57.869671,-120
2021-10-14 14:49:57.869679,-127
2021-10-14 14:49:57.869688,-110
2021-10-14 14:49:57.869696,-90
2021-10-14 14:49:57.869704,-88
2021-10-14 14:49:57.869713,-90
2021-10-14 14:49:57.869721,-100
2021-10-14 14:49:57.869729,-95
2021-10-14 14:49:57.869737,2
2021-10-14 14:49:57.869746,262
2021-10-14 14:49:57.869754,637
2021-10-14 14:49:57.869763,809
2021-10-14 14:49:57.869771,328
2021-10-14 14:49:57.869779,-429
2021-10-14 14:49:57.869788,-417
2021-10-14 14:49:57.869796,46
2021-10-14 14:49:57.869804,39
2021-10-14 14:49:57.869813,-88
2021-10-14 14:49:57.869821,0
2021-10-14 14:49:57.869829,19
2021-10-14 14:49:57.869837,-19
2021-10-14 14:49:57.869846,19
2021-10-14 14:49:58.138661,51
2021-10-14 14:49:58.138683,39
2021-10-14 14:49:58.138692,53
2021-10-14 14:49:58.138701,83
2021-10-14 14:49:58.138709,105
2021-10-14 14:49:58.138718,134
2021-10-14 14:49:58.138726,161
2021-10-14 14:49:58.138735,181
2021-10-14 14:49:58.138743,208
2021-10-14 14:49:58.138752,238
2021-10-14 14:49:58.138760,267
2021-10-14 14:49:58.138769,311
2021-10-14 14:49:58.138777,355
2021-10-14 14:49:58.138786,370
2021-10-14 14:49:58.138794,370
2021-10-14 14:49:58.138803,380
2021-10-14 14:49:58.138811,385
2021-10-14 14:49:58.138820,365
2021-10-14 14:49:58.138828,304
2021-10-14 14:49:58.138836,201
2021-10-14 14:49:58.138845,98
2021-10-14 14:49:58.138853,12
2021-10-14 14:49:58.138862,-61
2021-10-14 14:49:58.138870,-115
2021-10-14 14:49:58.138879,-152
2021-10-14 14:49:58.138887,-176
2021-10-14 14:49:58.138896,-188
2021-10-14 14:49:58.138904,-193
2021-10-14 14:49:58.138913,-191
2021-10-14 14:49:58.138921,-181
2021-10-14 14:49:58.319977,-169
2021-10-14 14:49:58.319999,-157
2021-10-14 14:49:58.320009,-147
2021-10-14 14:49:58.320018,-147
2021-10-14 14:49:58.320026,-139
2021-10-14 14:49:58.320038,-112
2021-10-14 14:49:58.320047,-103
2021-10-14 14:49:58.320055,-120
2021-10-14 14:49:58.320064,-125
2021-10-14 14:49:58.320072,-117
2021-10-14 14:49:58.320081,-112
2021-10-14 14:49:58.320089,-100
2021-10-14 14:49:58.320098,-100
2021-10-14 14:49:58.320107,-112
2021-10-14 14:49:58.320115,-112
2021-10-14 14:49:58.320124,-112
2021-10-14 14:49:58.320132,-115
2021-10-14 14:49:58.320141,-115
2021-10-14 14:49:58.320149,-127
2021-10-14 14:49:58.320157,-130
2021-10-14 14:49:58.320166,-100
2021-10-14 14:49:58.320174,-63
2021-10-14 14:49:58.320183,-46
2021-10-14 14:49:58.320191,-53
2021-10-14 14:49:58.320200,-71
2021-10-14 14:49:58.320208,-83
2021-10-14 14:49:58.320217,-88
2021-10-14 14:49:58.320225,-90
2021-10-14 14:49:58.320233,-93
2021-10-14 14:49:58.320242,-88
2021-10-14 14:49:58.634638,-80
2021-10-14 14:49:58.634658,-78
2021-10-14 14:49:58.634668,-78
2021-10-14 14:49:58.634677,-83
2021-10-14 14:49:58.634685,-83
2021-10-14 14:49:58.634694,-34
2021-10-14 14:49:58.634702,164
2021-10-14 14:49:58.634710,561
2021-10-14 14:49:58.634719,895
2021-10-14 14:49:58.634727,586
2021-10-14 14:49:58.634735,-257
2021-10-14 14:49:58.634744,-488
2021-10-14 14:49:58.634752,-29
2021-10-14 14:49:58.634760,51
2021-10-14 14:49:58.634769,-125
2021-10-14 14:49:58.634777,-39
2021-10-14 14:49:58.634786,24
2021-10-14 14:49:58.634794,-39
2021-10-14 14:49:58.634802,-24
2021-10-14 14:49:58.634811,24
2021-10-14 14:49:58.634824,26
2021-10-14 14:49:58.634854,41
2021-10-14 14:49:58.634867,83
2021-10-14 14:49:58.634876,98
2021-10-14 14:49:58.634884,95
2021-10-14 14:49:58.634892,117
2021-10-14 14:49:58.634899,157
2021-10-14 14:49:58.634907,186
2021-10-14 14:49:58.634915,213
2021-10-14 14:49:58.634924,252
2021-10-14 14:49:58.769962,294
2021-10-14 14:49:58.769981,328
2021-10-14 14:49:58.769991,355
2021-10-14 14:49:58.770000,372
2021-10-14 14:49:58.770008,385
2021-10-14 14:49:58.770016,385
2021-10-14 14:49:58.770025,370
2021-10-14 14:49:58.770033,333
2021-10-14 14:49:58.770041,262
2021-10-14 14:49:58.770050,157
2021-10-14 14:49:58.770058,49
2021-10-14 14:49:58.770067,-34
2021-10-14 14:49:58.770075,-95
2021-10-14 14:49:58.770083,-142
2021-10-14 14:49:58.770091,-181
2021-10-14 14:49:58.770100,-193
2021-10-14 14:49:58.770108,-179
2021-10-14 14:49:58.770116,-179
2021-10-14 14:49:58.770125,-186
2021-10-14 14:49:58.770133,-169
2021-10-14 14:49:58.770142,-152
2021-10-14 14:49:58.770150,-157
2021-10-14 14:49:58.770158,-161
2021-10-14 14:49:58.770167,-147
2021-10-14 14:49:58.770175,-130
2021-10-14 14:49:58.770183,-125
2021-10-14 14:49:58.770191,-120
2021-10-14 14:49:58.770200,-107
2021-10-14 14:49:58.770208,-105
2021-10-14 14:49:58.770216,-107
2021-10-14 14:49:59.040009,-100
2021-10-14 14:49:59.040030,-88
2021-10-14 14:49:59.040039,-85
2021-10-14 14:49:59.040048,-88
2021-10-14 14:49:59.040057,-83
2021-10-14 14:49:59.040065,-83
2021-10-14 14:49:59.040074,-98
2021-10-14 14:49:59.040082,-105
2021-10-14 14:49:59.040091,-98
2021-10-14 14:49:59.040099,-100
2021-10-14 14:49:59.040107,-117
2021-10-14 14:49:59.040116,-132
2021-10-14 14:49:59.040124,-125
2021-10-14 14:49:59.040133,-88
2021-10-14 14:49:59.040141,-61
2021-10-14 14:49:59.040150,-66
2021-10-14 14:49:59.040158,-73
2021-10-14 14:49:59.040166,-78
2021-10-14 14:49:59.040175,-90
2021-10-14 14:49:59.040183,-93
2021-10-14 14:49:59.040191,-95
2021-10-14 14:49:59.040200,-103
2021-10-14 14:49:59.040208,-105
2021-10-14 14:49:59.040217,-93
2021-10-14 14:49:59.040225,-80
2021-10-14 14:49:59.040233,-80
2021-10-14 14:49:59.040242,-88
2021-10-14 14:49:59.040250,-73
2021-10-14 14:49:59.040258,53
2021-10-14 14:49:59.040267,372
2021-10-14 14:49:59.219589,770
2021-10-14 14:49:59.219611,817
2021-10-14 14:49:59.219621,134
2021-10-14 14:49:59.219630,-547
2021-10-14 14:49:59.219639,-321
2021-10-14 14:49:59.219647,68
2021-10-14 14:49:59.219656,-56
2021-10-14 14:49:59.219664,-120
2021-10-14 14:49:59.219673,-9
2021-10-14 14:49:59.219681,-22
2021-10-14 14:49:59.219690,-51
2021-10-14 14:49:59.219698,-9
2021-10-14 14:49:59.219706,9
2021-10-14 14:49:59.219715,9
2021-10-14 14:49:59.219723,29
2021-10-14 14:49:59.219731,49
2021-10-14 14:49:59.219740,58
2021-10-14 14:49:59.219748,83
2021-10-14 14:49:59.219756,120
2021-10-14 14:49:59.219765,147
2021-10-14 14:49:59.219773,179
2021-10-14 14:49:59.219781,215
2021-10-14 14:49:59.219790,250
2021-10-14 14:49:59.219798,282
2021-10-14 14:49:59.219807,326
2021-10-14 14:49:59.219815,358
2021-10-14 14:49:59.219823,363
2021-10-14 14:49:59.219831,363
2021-10-14 14:49:59.219840,368
2021-10-14 14:49:59.219848,350
2021-10-14 14:49:59.534645,299
2021-10-14 14:49:59.534666,223
2021-10-14 14:49:59.534676,130
2021-10-14 14:49:59.534684,17
2021-10-14 14:49:59.534693,-80
2021-10-14 14:49:59.534701,-137
2021-10-14 14:49:59.534710,-166
2021-10-14 14:49:59.534718,-191
2021-10-14 14:49:59.534726,-213
2021-10-14 14:49:59.534735,-223
2021-10-14 14:49:59.534743,-215
2021-10-14 14:49:59.534752,-208
2021-10-14 14:49:59.534760,-213
2021-10-14 14:49:59.534769,-211
2021-10-14 14:49:59.534777,-198
2021-10-14 14:49:59.534785,-186
2021-10-14 14:49:59.534794,-179
2021-10-14 14:49:59.534802,-176
2021-10-14 14:49:59.534810,-166
2021-10-14 14:49:59.534828,-149
2021-10-14 14:49:59.534852,-139
2021-10-14 14:49:59.534862,-137
2021-10-14 14:49:59.534871,-130
2021-10-14 14:49:59.534880,-122
2021-10-14 14:49:59.534888,-122
2021-10-14 14:49:59.534897,-120
2021-10-14 14:49:59.534905,-115
2021-10-14 14:49:59.534914,-117
2021-10-14 14:49:59.534922,-117
2021-10-14 14:49:59.534931,-103
2021-10-14 14:49:59.715000,-85
2021-10-14 14:49:59.715021,-90
2021-10-14 14:49:59.715031,-112
2021-10-14 14:49:59.715039,-112
2021-10-14 14:49:59.715048,-110
2021-10-14 14:49:59.715056,-115
2021-10-14 14:49:59.715065,-127
2021-10-14 14:49:59.715074,-142
2021-10-14 14:49:59.715082,-157
2021-10-14 14:49:59.715091,-147
2021-10-14 14:49:59.715100,-107
2021-10-14 14:49:59.715108,-78
2021-10-14 14:49:59.715117,-88
2021-10-14 14:49:59.715125,-100
2021-10-14 14:49:59.715134,-110
2021-10-14 14:49:59.715142,-137
2021-10-14 14:49:59.715151,-139
2021-10-14 14:49:59.715159,-115
2021-10-14 14:49:59.715168,-105
2021-10-14 14:49:59.715176,-115
2021-10-14 14:49:59.715185,-117
2021-10-14 14:49:59.715193,-112
2021-10-14 14:49:59.715201,-112
2021-10-14 14:49:59.715210,-107
2021-10-14 14:49:59.715218,-46
2021-10-14 14:49:59.715226,176
2021-10-14 14:49:59.715235,556
2021-10-14 14:49:59.715243,824
2021-10-14 14:49:59.715252,468
2021-10-14 14:49:59.715260,-365
2021-10-14 14:49:59.939859,-544
2021-10-14 14:49:59.939880,-36
2021-10-14 14:49:59.939889,58
2021-10-14 14:49:59.939898,-130
2021-10-14 14:49:59.939907,-51
2021-10-14 14:49:59.939915,14
2021-10-14 14:49:59.939924,-39
2021-10-14 14:49:59.939932,-17
2021-10-14 14:49:59.939940,26
2021-10-14 14:49:59.939949,26
2021-10-14 14:49:59.939957,44
2021-10-14 14:49:59.939966,73
2021-10-14 14:49:59.939974,83
2021-10-14 14:49:59.939983,98
2021-10-14 14:49:59.939991,120
2021-10-14 14:49:59.940000,147
2021-10-14 14:49:59.940008,174
2021-10-14 14:49:59.940017,203
2021-10-14 14:49:59.940025,238
2021-10-14 14:49:59.940033,277
2021-10-14 14:49:59.940042,314
2021-10-14 14:49:59.940050,353
2021-10-14 14:49:59.940059,385
2021-10-14 14:49:59.940067,399
2021-10-14 14:49:59.940075,399
2021-10-14 14:49:59.940084,392
2021-10-14 14:49:59.940092,360
2021-10-14 14:49:59.940101,291
2021-10-14 14:49:59.940109,198
2021-10-14 14:49:59.940117,90
2021-10-14 14:50:00.208683,-9
2021-10-14 14:50:00.208705,-85
2021-10-14 14:50:00.208714,-142
2021-10-14 14:50:00.208723,-181
2021-10-14 14:50:00.208732,-198
2021-10-14 14:50:00.208740,-196
2021-10-14 14:50:00.208748,-188
2021-10-14 14:50:00.208757,-188
2021-10-14 14:50:00.208765,-193
2021-10-14 14:50:00.208774,-184
2021-10-14 14:50:00.208782,-169
2021-10-14 14:50:00.208794,-169
2021-10-14 14:50:00.208803,-184
2021-10-14 14:50:00.208811,-186
2021-10-14 14:50:00.208819,-166
2021-10-14 14:50:00.208828,-152
2021-10-14 14:50:00.208837,-137
2021-10-14 14:50:00.208845,-120
2021-10-14 14:50:00.208854,-117
2021-10-14 14:50:00.208862,-125
2021-10-14 14:50:00.208871,-125
2021-10-14 14:50:00.208879,-115
2021-10-14 14:50:00.208888,-110
2021-10-14 14:50:00.208896,-110
2021-10-14 14:50:00.208904,-107
2021-10-14 14:50:00.208913,-115
2021-10-14 14:50:00.208921,-120
2021-10-14 14:50:00.208930,-115
2021-10-14 14:50:00.208938,-103
2021-10-14 14:50:00.208947,-93
2021-10-14 14:50:00.524647,-98
2021-10-14 14:50:00.524669,-103
2021-10-14 14:50:00.524679,-103
2021-10-14 14:50:00.524687,-115
2021-10-14 14:50:00.524696,-132
2021-10-14 14:50:00.524704,-132
2021-10-14 14:50:00.524713,-112
2021-10-14 14:50:00.524721,-83
2021-10-14 14:50:00.524730,-58
2021-10-14 14:50:00.524738,-58
2021-10-14 14:50:00.524746,-61
2021-10-14 14:50:00.524755,-66
2021-10-14 14:50:00.524763,-93
2021-10-14 14:50:00.524772,-107
2021-10-14 14:50:00.524780,-95
2021-10-14 14:50:00.524789,-95
2021-10-14 14:50:00.524797,-95
2021-10-14 14:50:00.524805,-80
2021-10-14 14:50:00.524814,-76
2021-10-14 14:50:00.524822,-83
2021-10-14 14:50:00.524830,-80
2021-10-14 14:50:00.524839,-36
2021-10-14 14:50:00.524847,161
2021-10-14 14:50:00.524856,564
2021-10-14 14:50:00.524864,907
2021-10-14 14:50:00.524872,628
2021-10-14 14:50:00.524881,-218
2021-10-14 14:50:00.524889,-502
2021-10-14 14:50:00.524898,-49
2021-10-14 14:50:00.524906,73
2021-10-14 14:50:00.614610,-103
2021-10-14 14:50:00.614632,-39
2021-10-14 14:50:00.614641,24
2021-10-14 14:50:00.614650,-31
2021-10-14 14:50:00.614659,-17
2021-10-14 14:50:00.614668,39
2021-10-14 14:50:00.614676,41
2021-10-14 14:50:00.614685,44
2021-10-14 14:50:00.614693,68
2021-10-14 14:50:00.614702,88
2021-10-14 14:50:00.614710,112
2021-10-14 14:50:00.614719,137
2021-10-14 14:50:00.614727,152
2021-10-14 14:50:00.614736,176
2021-10-14 14:50:00.614744,220
2021-10-14 14:50:00.614753,264
2021-10-14 14:50:00.614761,301
2021-10-14 14:50:00.614770,333
2021-10-14 14:50:00.614778,358
2021-10-14 14:50:00.614787,380
2021-10-14 14:50:00.614795,397
2021-10-14 14:50:00.614803,402
2021-10-14 14:50:00.614812,390
2021-10-14 14:50:00.614820,355
2021-10-14 14:50:00.614828,296
2021-10-14 14:50:00.614836,206
2021-10-14 14:50:00.614845,110
2021-10-14 14:50:00.614853,24
2021-10-14 14:50:00.614861,-56
2021-10-14 14:50:00.614870,-117
2021-10-14 14:50:00.884354,-142
2021-10-14 14:50:00.884375,-154
2021-10-14 14:50:00.884384,-166
2021-10-14 14:50:00.884393,-176
2021-10-14 14:50:00.884402,-181
2021-10-14 14:50:00.884411,-188
2021-10-14 14:50:00.884419,-176
2021-10-14 14:50:00.884428,-157
2021-10-14 14:50:00.884436,-154
2021-10-14 14:50:00.884445,-152
2021-10-14 14:50:00.884453,-144
2021-10-14 14:50:00.884462,-142
2021-10-14 14:50:00.884470,-130
2021-10-14 14:50:00.884479,-107
2021-10-14 14:50:00.884487,-100
2021-10-14 14:50:00.884496,-103
2021-10-14 14:50:00.884504,-100
2021-10-14 14:50:00.884513,-98
2021-10-14 14:50:00.884521,-95
2021-10-14 14:50:00.884530,-90
2021-10-14 14:50:00.884538,-90
2021-10-14 14:50:00.884547,-98
2021-10-14 14:50:00.884555,-103
2021-10-14 14:50:00.884564,-105
2021-10-14 14:50:00.884572,-110
2021-10-14 14:50:00.884580,-115
2021-10-14 14:50:00.884589,-115
2021-10-14 14:50:00.884597,-117
2021-10-14 14:50:00.884605,-120
2021-10-14 14:50:00.884614,-110
2021-10-14 14:50:01.064663,-103
2021-10-14 14:50:01.064685,-95
2021-10-14 14:50:01.064695,-88
2021-10-14 14:50:01.064703,-95
2021-10-14 14:50:01.064712,-115
2021-10-14 14:50:01.064720,-112
2021-10-14 14:50:01.064729,-90
2021-10-14 14:50:01.064737,-83
2021-10-14 14:50:01.064745,-83
2021-10-14 14:50:01.064754,-78
2021-10-14 14:50:01.064762,-83
2021-10-14 14:50:01.064771,-88
2021-10-14 14:50:01.064779,-78
2021-10-14 14:50:01.064788,-58
2021-10-14 14:50:01.064796,-22
2021-10-14 14:50:01.064804,0
2021-10-14 14:50:01.064813,-9
2021-10-14 14:50:01.064821,-17
2021-10-14 14:50:01.064829,-9
2021-10-14 14:50:01.064838,-14
2021-10-14 14:50:01.064846,-36
2021-10-14 14:50:01.064854,-49
2021-10-14 14:50:01.064863,-46
2021-10-14 14:50:01.064871,-49
2021-10-14 14:50:01.064880,-49
2021-10-14 14:50:01.064888,-29
2021-10-14 14:50:01.064896,-31
2021-10-14 14:50:01.064905,-44
2021-10-14 14:50:01.064913,58
2021-10-14 14:50:01.064922,372
2021-10-14 14:50:01.334675,792
2021-10-14 14:50:01.334696,937
2021-10-14 14:50:01.334706,348
2021-10-14 14:50:01.334715,-434
2021-10-14 14:50:01.334723,-353
2021-10-14 14:50:01.334732,73
2021-10-14 14:50:01.334740,7
2021-10-14 14:50:01.334749,-85
2021-10-14 14:50:01.334766,22
2021-10-14 14:50:01.334775,12
2021-10-14 14:50:01.334784,-36
2021-10-14 14:50:01.334792,7
2021-10-14 14:50:01.334801,44
2021-10-14 14:50:01.334826,44
2021-10-14 14:50:01.334834,51
2021-10-14 14:50:01.334842,63
2021-10-14 14:50:01.334849,83
2021-10-14 14:50:01.334856,115
2021-10-14 14:50:01.334864,139
2021-10-14 14:50:01.334871,161
2021-10-14 14:50:01.334878,186
2021-10-14 14:50:01.334886,211
2021-10-14 14:50:01.334893,245
2021-10-14 14:50:01.334901,289
2021-10-14 14:50:01.334909,328
2021-10-14 14:50:01.334916,353
2021-10-14 14:50:01.334924,372
2021-10-14 14:50:01.334931,380
2021-10-14 14:50:01.334938,382
2021-10-14 14:50:01.334945,377
2021-10-14 14:50:01.560062,350
2021-10-14 14:50:01.560083,294
2021-10-14 14:50:01.560092,206
2021-10-14 14:50:01.560101,105
2021-10-14 14:50:01.560110,24
2021-10-14 14:50:01.560118,-49
2021-10-14 14:50:01.560127,-117
2021-10-14 14:50:01.560136,-157
2021-10-14 14:50:01.560144,-184
2021-10-14 14:50:01.560153,-211
2021-10-14 14:50:01.560161,-220
2021-10-14 14:50:01.560170,-213
2021-10-14 14:50:01.560179,-206
2021-10-14 14:50:01.560187,-203
2021-10-14 14:50:01.560196,-213
2021-10-14 14:50:01.560204,-220
2021-10-14 14:50:01.560213,-198
2021-10-14 14:50:01.560221,-181
2021-10-14 14:50:01.560230,-184
2021-10-14 14:50:01.560238,-179
2021-10-14 14:50:01.560247,-166
2021-10-14 14:50:01.560255,-159
2021-10-14 14:50:01.560264,-149
2021-10-14 14:50:01.560273,-137
2021-10-14 14:50:01.560281,-130
2021-10-14 14:50:01.560289,-120
2021-10-14 14:50:01.560298,-115
2021-10-14 14:50:01.560306,-125
2021-10-14 14:50:01.560315,-134
2021-10-14 14:50:01.560324,-137
2021-10-14 14:50:01.784653,-137
2021-10-14 14:50:01.784674,-139
2021-10-14 14:50:01.784683,-144
2021-10-14 14:50:01.784692,-147
2021-10-14 14:50:01.784701,-137
2021-10-14 14:50:01.784710,-127
2021-10-14 14:50:01.784718,-130
2021-10-14 14:50:01.784726,-134
2021-10-14 14:50:01.784735,-130
2021-10-14 14:50:01.784743,-120
2021-10-14 14:50:01.784752,-110
2021-10-14 14:50:01.784760,-105
2021-10-14 14:50:01.784769,-105
2021-10-14 14:50:01.784777,-100
2021-10-14 14:50:01.784785,-103
2021-10-14 14:50:01.784809,-107
2021-10-14 14:50:01.784832,-100
2021-10-14 14:50:01.784841,-85
2021-10-14 14:50:01.784849,-83
2021-10-14 14:50:01.784857,-80
2021-10-14 14:50:01.784865,-76
2021-10-14 14:50:01.784873,-83
2021-10-14 14:50:01.784881,-85
2021-10-14 14:50:01.784889,-61
2021-10-14 14:50:01.784897,-17
2021-10-14 14:50:01.784906,9
2021-10-14 14:50:01.784914,2
2021-10-14 14:50:01.784923,-14
2021-10-14 14:50:01.784931,-17
2021-10-14 14:50:01.784939,-17
2021-10-14 14:50:02.010016,-29
2021-10-14 14:50:02.010043,-34
2021-10-14 14:50:02.010053,-31
2021-10-14 14:50:02.010061,-41
2021-10-14 14:50:02.010070,-41
2021-10-14 14:50:02.010079,-31
2021-10-14 14:50:02.010087,-36
2021-10-14 14:50:02.010096,-17
2021-10-14 14:50:02.010104,137
2021-10-14 14:50:02.010113,483
2021-10-14 14:50:02.010121,848
2021-10-14 14:50:02.010130,738
2021-10-14 14:50:02.010138,-46
2021-10-14 14:50:02.010146,-549
2021-10-14 14:50:02.010155,-169
2021-10-14 14:50:02.010163,103
2021-10-14 14:50:02.010172,-68
2021-10-14 14:50:02.010180,-51
2021-10-14 14:50:02.010189,49
2021-10-14 14:50:02.010197,2
2021-10-14 14:50:02.010205,-14
2021-10-14 14:50:02.010214,26
2021-10-14 14:50:02.010222,36
2021-10-14 14:50:02.010231,49
2021-10-14 14:50:02.010239,68
2021-10-14 14:50:02.010247,76
2021-10-14 14:50:02.010256,88
2021-10-14 14:50:02.010264,103
2021-10-14 14:50:02.010273,120
2021-10-14 14:50:02.010281,147
2021-10-14 14:50:02.278412,171
2021-10-14 14:50:02.278444,186
2021-10-14 14:50:02.278453,215
2021-10-14 14:50:02.278462,264
2021-10-14 14:50:02.278470,291
2021-10-14 14:50:02.278479,284
2021-10-14 14:50:02.278487,287
2021-10-14 14:50:02.278496,304
2021-10-14 14:50:02.278504,306
2021-10-14 14:50:02.278512,284
2021-10-14 14:50:02.278520,257
2021-10-14 14:50:02.278529,208
2021-10-14 14:50:02.278537,110
2021-10-14 14:50:02.278546,0
2021-10-14 14:50:02.278555,-85
2021-10-14 14:50:02.278563,-147
2021-10-14 14:50:02.278572,-198
2021-10-14 14:50:02.278580,-233
2021-10-14 14:50:02.278588,-242
2021-10-14 14:50:02.278597,-245
2021-10-14 14:50:02.278605,-247
2021-10-14 14:50:02.278613,-242
2021-10-14 14:50:02.278622,-233
2021-10-14 14:50:02.278630,-230
2021-10-14 14:50:02.278639,-228
2021-10-14 14:50:02.278647,-218
2021-10-14 14:50:02.278656,-198
2021-10-14 14:50:02.278664,-179
2021-10-14 14:50:02.278681,-166
2021-10-14 14:50:02.278693,-161
2021-10-14 14:50:02.459995,-152
2021-10-14 14:50:02.460016,-132
2021-10-14 14:50:02.460025,-127
2021-10-14 14:50:02.460034,-125
2021-10-14 14:50:02.460042,-115
2021-10-14 14:50:02.460051,-107
2021-10-14 14:50:02.460059,-115
2021-10-14 14:50:02.460067,-125
2021-10-14 14:50:02.460076,-134
2021-10-14 14:50:02.460084,-127
2021-10-14 14:50:02.460093,-115
2021-10-14 14:50:02.460101,-120
2021-10-14 14:50:02.460110,-137
2021-10-14 14:50:02.460118,-137
2021-10-14 14:50:02.460126,-122
2021-10-14 14:50:02.460135,-110
2021-10-14 14:50:02.460143,-110
2021-10-14 14:50:02.460151,-107
2021-10-14 14:50:02.460160,-93
2021-10-14 14:50:02.460168,-95
2021-10-14 14:50:02.460176,-110
2021-10-14 14:50:02.460185,-100
2021-10-14 14:50:02.460193,-61
2021-10-14 14:50:02.460210,-22
2021-10-14 14:50:02.460219,-17
2021-10-14 14:50:02.460227,-24
2021-10-14 14:50:02.460235,-19
2021-10-14 14:50:02.460244,-22
2021-10-14 14:50:02.460252,-41
2021-10-14 14:50:02.460260,-49
2021-10-14 14:50:02.730019,-46
2021-10-14 14:50:02.730040,-44
2021-10-14 14:50:02.730049,-34
2021-10-14 14:50:02.730058,-22
2021-10-14 14:50:02.730067,-31
2021-10-14 14:50:02.730075,-44
2021-10-14 14:50:02.730083,-12
2021-10-14 14:50:02.730092,132
2021-10-14 14:50:02.730100,451
2021-10-14 14:50:02.730109,802
2021-10-14 14:50:02.730117,728
2021-10-14 14:50:02.730126,2
2021-10-14 14:50:02.730134,-534
2021-10-14 14:50:02.730143,-218
2021-10-14 14:50:02.730152,71
2021-10-14 14:50:02.730160,-63
2021-10-14 14:50:02.730169,-58
2021-10-14 14:50:02.730177,34
2021-10-14 14:50:02.730185,-9
2021-10-14 14:50:02.730194,-22
2021-10-14 14:50:02.730202,24
2021-10-14 14:50:02.730210,26
2021-10-14 14:50:02.730219,14
2021-10-14 14:50:02.730227,39
2021-10-14 14:50:02.730235,76
2021-10-14 14:50:02.730244,93
2021-10-14 14:50:02.730252,103
2021-10-14 14:50:02.730260,127
2021-10-14 14:50:02.730269,161
2021-10-14 14:50:02.730277,184
2021-10-14 14:50:02.909976,213
2021-10-14 14:50:02.909996,260
2021-10-14 14:50:02.910006,296
2021-10-14 14:50:02.910015,321
2021-10-14 14:50:02.910023,336
2021-10-14 14:50:02.910032,353
2021-10-14 14:50:02.910041,380
2021-10-14 14:50:02.910049,395
2021-10-14 14:50:02.910057,375
2021-10-14 14:50:02.910066,323
2021-10-14 14:50:02.910074,255
2021-10-14 14:50:02.910082,161
2021-10-14 14:50:02.910091,51
2021-10-14 14:50:02.910099,-36
2021-10-14 14:50:02.910108,-98
2021-10-14 14:50:02.910116,-149
2021-10-14 14:50:02.910125,-188
2021-10-14 14:50:02.910133,-211
2021-10-14 14:50:02.910142,-215
2021-10-14 14:50:02.910150,-206
2021-10-14 14:50:02.910159,-191
2021-10-14 14:50:02.910167,-191
2021-10-14 14:50:02.910176,-188
2021-10-14 14:50:02.910184,-171
2021-10-14 14:50:02.910192,-161
2021-10-14 14:50:02.910201,-154
2021-10-14 14:50:02.910209,-137
2021-10-14 14:50:02.910218,-115
2021-10-14 14:50:02.910226,-107
2021-10-14 14:50:02.910235,-100
2021-10-14 14:50:03.134682,-83
2021-10-14 14:50:03.134703,-73
2021-10-14 14:50:03.134713,-71
2021-10-14 14:50:03.134721,-76
2021-10-14 14:50:03.134730,-78
2021-10-14 14:50:03.134739,-66
2021-10-14 14:50:03.134747,-63
2021-10-14 14:50:03.134755,-73
2021-10-14 14:50:03.134764,-71
2021-10-14 14:50:03.134772,-71
2021-10-14 14:50:03.134781,-78
2021-10-14 14:50:03.134789,-80
2021-10-14 14:50:03.134798,-78
2021-10-14 14:50:03.134806,-78
2021-10-14 14:50:03.134815,-88
2021-10-14 14:50:03.134823,-93
2021-10-14 14:50:03.134831,-71
2021-10-14 14:50:03.134840,-34
2021-10-14 14:50:03.134848,-24
2021-10-14 14:50:03.134857,-31
2021-10-14 14:50:03.134865,-39
2021-10-14 14:50:03.134874,-61
2021-10-14 14:50:03.134882,-76
2021-10-14 14:50:03.134891,-66
2021-10-14 14:50:03.134899,-51
2021-10-14 14:50:03.134908,-41
2021-10-14 14:50:03.134916,-39
2021-10-14 14:50:03.134924,-49
2021-10-14 14:50:03.134933,-49
2021-10-14 14:50:03.134941,-44
2021-10-14 14:50:03.404944,7
2021-10-14 14:50:03.404963,206
2021-10-14 14:50:03.404973,581
2021-10-14 14:50:03.404982,917
2021-10-14 14:50:03.404990,699
2021-10-14 14:50:03.404999,-115
2021-10-14 14:50:03.405007,-473
2021-10-14 14:50:03.405015,-58
2021-10-14 14:50:03.405024,105
2021-10-14 14:50:03.405032,-80
2021-10-14 14:50:03.405040,-44
2021-10-14 14:50:03.405049,39
2021-10-14 14:50:03.405057,-4
2021-10-14 14:50:03.405066,0
2021-10-14 14:50:03.405074,36
2021-10-14 14:50:03.405082,29
2021-10-14 14:50:03.405090,26
2021-10-14 14:50:03.405099,51
2021-10-14 14:50:03.405107,63
2021-10-14 14:50:03.405115,73
2021-10-14 14:50:03.405123,95
2021-10-14 14:50:03.405132,112
2021-10-14 14:50:03.405140,139
2021-10-14 14:50:03.405148,176
2021-10-14 14:50:03.405156,211
2021-10-14 14:50:03.405165,247
2021-10-14 14:50:03.405173,289
2021-10-14 14:50:03.405181,311
2021-10-14 14:50:03.405189,326
2021-10-14 14:50:03.405198,348
2021-10-14 14:50:03.629703,360
2021-10-14 14:50:03.629724,358
2021-10-14 14:50:03.629734,341
2021-10-14 14:50:03.629742,284
2021-10-14 14:50:03.629751,203
2021-10-14 14:50:03.629759,120
2021-10-14 14:50:03.629768,31
2021-10-14 14:50:03.629776,-58
2021-10-14 14:50:03.629785,-130
2021-10-14 14:50:03.629793,-161
2021-10-14 14:50:03.629802,-171
2021-10-14 14:50:03.629810,-184
2021-10-14 14:50:03.629818,-191
2021-10-14 14:50:03.629827,-188
2021-10-14 14:50:03.629835,-196
2021-10-14 14:50:03.629844,-201
2021-10-14 14:50:03.629852,-191
2021-10-14 14:50:03.629861,-179
2021-10-14 14:50:03.629869,-169
2021-10-14 14:50:03.629878,-157
2021-10-14 14:50:03.629886,-157
2021-10-14 14:50:03.629894,-161
2021-10-14 14:50:03.629903,-154
2021-10-14 14:50:03.629911,-137
2021-10-14 14:50:03.629920,-125
2021-10-14 14:50:03.629928,-122
2021-10-14 14:50:03.629936,-117
2021-10-14 14:50:03.629945,-105
2021-10-14 14:50:03.629953,-93
2021-10-14 14:50:03.629962,-95
2021-10-14 14:50:03.854673,-90
2021-10-14 14:50:03.854693,-83
2021-10-14 14:50:03.854703,-95
2021-10-14 14:50:03.854712,-100
2021-10-14 14:50:03.854720,-78
2021-10-14 14:50:03.854729,-68
2021-10-14 14:50:03.854737,-85
2021-10-14 14:50:03.854746,-98
2021-10-14 14:50:03.854754,-93
2021-10-14 14:50:03.854763,-83
2021-10-14 14:50:03.854771,-51
2021-10-14 14:50:03.854780,-24
2021-10-14 14:50:03.854788,-26
2021-10-14 14:50:03.854797,-26
2021-10-14 14:50:03.854805,-24
2021-10-14 14:50:03.854813,-51
2021-10-14 14:50:03.854822,-76
2021-10-14 14:50:03.854830,-61
2021-10-14 14:50:03.854839,-46
2021-10-14 14:50:03.854847,-56
2021-10-14 14:50:03.854855,-66
2021-10-14 14:50:03.854864,-53
2021-10-14 14:50:03.854872,-49
2021-10-14 14:50:03.854881,-53
2021-10-14 14:50:03.854889,-36
2021-10-14 14:50:03.854898,80
2021-10-14 14:50:03.854906,395
2021-10-14 14:50:03.854914,819
2021-10-14 14:50:03.854923,895
2021-10-14 14:50:03.854939,225
2021-10-14 14:50:04.125057,-468
2021-10-14 14:50:04.125078,-277
2021-10-14 14:50:04.125088,85
2021-10-14 14:50:04.125097,-29
2021-10-14 14:50:04.125105,-68
2021-10-14 14:50:04.125114,41
2021-10-14 14:50:04.125122,4
2021-10-14 14:50:04.125131,-29
2021-10-14 14:50:04.125139,17
2021-10-14 14:50:04.125147,22
2021-10-14 14:50:04.125156,14
2021-10-14 14:50:04.125164,44
2021-10-14 14:50:04.125173,56
2021-10-14 14:50:04.125181,53
2021-10-14 14:50:04.125190,78
2021-10-14 14:50:04.125198,103
2021-10-14 14:50:04.125206,112
2021-10-14 14:50:04.125215,144
2021-10-14 14:50:04.125223,184
2021-10-14 14:50:04.125231,208
2021-10-14 14:50:04.125240,240
2021-10-14 14:50:04.125248,269
2021-10-14 14:50:04.125257,282
2021-10-14 14:50:04.125265,299
2021-10-14 14:50:04.125273,316
2021-10-14 14:50:04.125282,316
2021-10-14 14:50:04.125290,299
2021-10-14 14:50:04.125298,250
2021-10-14 14:50:04.125307,186
2021-10-14 14:50:04.125315,107
2021-10-14 14:50:04.348326,14
2021-10-14 14:50:04.348347,-68
2021-10-14 14:50:04.348356,-125
2021-10-14 14:50:04.348365,-171
2021-10-14 14:50:04.348374,-208
2021-10-14 14:50:04.348382,-230
2021-10-14 14:50:04.348390,-233
2021-10-14 14:50:04.348399,-228
2021-10-14 14:50:04.348407,-235
2021-10-14 14:50:04.348416,-235
2021-10-14 14:50:04.348424,-220
2021-10-14 14:50:04.348433,-213
2021-10-14 14:50:04.348441,-206
2021-10-14 14:50:04.348449,-186
2021-10-14 14:50:04.348457,-174
2021-10-14 14:50:04.348466,-174
2021-10-14 14:50:04.348474,-159
2021-10-14 14:50:04.348482,-152
2021-10-14 14:50:04.348491,-169
2021-10-14 14:50:04.348499,-157
2021-10-14 14:50:04.348507,-127
2021-10-14 14:50:04.348516,-127
2021-10-14 14:50:04.348524,-130
2021-10-14 14:50:04.348532,-127
2021-10-14 14:50:04.348541,-130
2021-10-14 14:50:04.348549,-125
2021-10-14 14:50:04.348557,-117
2021-10-14 14:50:04.348565,-120
2021-10-14 14:50:04.348574,-122
2021-10-14 14:50:04.348582,-122
2021-10-14 14:50:04.530058,-125
2021-10-14 14:50:04.530078,-127
2021-10-14 14:50:04.530087,-122
2021-10-14 14:50:04.530095,-105
2021-10-14 14:50:04.530103,-80
2021-10-14 14:50:04.530110,-66
2021-10-14 14:50:04.530118,-66
2021-10-14 14:50:04.530126,-58
2021-10-14 14:50:04.530133,-58
2021-10-14 14:50:04.530141,-78
2021-10-14 14:50:04.530149,-93
2021-10-14 14:50:04.530157,-93
2021-10-14 14:50:04.530164,-93
2021-10-14 14:50:04.530172,-88
2021-10-14 14:50:04.530180,-80
2021-10-14 14:50:04.530187,-80
2021-10-14 14:50:04.530195,-83
2021-10-14 14:50:04.530203,-80
2021-10-14 14:50:04.530211,-61
2021-10-14 14:50:04.530218,36
2021-10-14 14:50:04.530226,316
2021-10-14 14:50:04.530234,706
2021-10-14 14:50:04.530242,802
2021-10-14 14:50:04.530249,211
2021-10-14 14:50:04.530257,-493
2021-10-14 14:50:04.530265,-370
2021-10-14 14:50:04.530272,39
2021-10-14 14:50:04.530280,-17
2021-10-14 14:50:04.530288,-100
2021-10-14 14:50:04.530295,7
2021-10-14 14:50:04.799494,12
2021-10-14 14:50:04.799515,-22
2021-10-14 14:50:04.799525,14
2021-10-14 14:50:04.799533,26
2021-10-14 14:50:04.799542,9
2021-10-14 14:50:04.799550,26
2021-10-14 14:50:04.799559,53
2021-10-14 14:50:04.799567,66
2021-10-14 14:50:04.799576,88
2021-10-14 14:50:04.799584,115
2021-10-14 14:50:04.799593,142
2021-10-14 14:50:04.799601,169
2021-10-14 14:50:04.799610,198
2021-10-14 14:50:04.799618,235
2021-10-14 14:50:04.799627,267
2021-10-14 14:50:04.799635,287
2021-10-14 14:50:04.799644,311
2021-10-14 14:50:04.799652,336
2021-10-14 14:50:04.799661,341
2021-10-14 14:50:04.799669,333
2021-10-14 14:50:04.799678,318
2021-10-14 14:50:04.799686,287
2021-10-14 14:50:04.799695,228
2021-10-14 14:50:04.799703,137
2021-10-14 14:50:04.799711,46
2021-10-14 14:50:04.799720,-29
2021-10-14 14:50:04.799728,-95
2021-10-14 14:50:04.799737,-164
2021-10-14 14:50:04.799745,-206
2021-10-14 14:50:04.799754,-211
2021-10-14 14:50:04.979709,-211
2021-10-14 14:50:04.979730,-220
2021-10-14 14:50:04.979740,-225
2021-10-14 14:50:04.979749,-223
2021-10-14 14:50:04.979758,-220
2021-10-14 14:50:04.979766,-203
2021-10-14 14:50:04.979775,-181
2021-10-14 14:50:04.979783,-169
2021-10-14 14:50:04.979792,-157
2021-10-14 14:50:04.979800,-147
2021-10-14 14:50:04.979809,-142
2021-10-14 14:50:04.979817,-134
2021-10-14 14:50:04.979825,-117
2021-10-14 14:50:04.979834,-107
2021-10-14 14:50:04.979844,-107
2021-10-14 14:50:04.979852,-105
2021-10-14 14:50:04.979860,-100
2021-10-14 14:50:04.979869,-105
2021-10-14 14:50:04.979877,-100
2021-10-14 14:50:04.979885,-83
2021-10-14 14:50:04.979894,-80
2021-10-14 14:50:04.979902,-90
2021-10-14 14:50:04.979911,-85
2021-10-14 14:50:04.979919,-78
2021-10-14 14:50:04.979927,-80
2021-10-14 14:50:04.979935,-80
2021-10-14 14:50:04.979944,-76
2021-10-14 14:50:04.979952,-73
2021-10-14 14:50:04.979961,-49
2021-10-14 14:50:04.979969,-22
2021-10-14 14:50:05.249727,-22
2021-10-14 14:50:05.249748,-22
2021-10-14 14:50:05.249758,-22
2021-10-14 14:50:05.249767,-53
2021-10-14 14:50:05.249775,-73
2021-10-14 14:50:05.249784,-63
2021-10-14 14:50:05.249792,-56
2021-10-14 14:50:05.249801,-56
2021-10-14 14:50:05.249809,-63
2021-10-14 14:50:05.249818,-73
2021-10-14 14:50:05.249826,-66
2021-10-14 14:50:05.249835,-53
2021-10-14 14:50:05.249843,-51
2021-10-14 14:50:05.249852,36
2021-10-14 14:50:05.249861,341
2021-10-14 14:50:05.249869,767
2021-10-14 14:50:05.249877,893
2021-10-14 14:50:05.249886,296
2021-10-14 14:50:05.249894,-419
2021-10-14 14:50:05.249903,-299
2021-10-14 14:50:05.249911,83
2021-10-14 14:50:05.249919,-4
2021-10-14 14:50:05.249928,-73
2021-10-14 14:50:05.249936,44
2021-10-14 14:50:05.249945,41
2021-10-14 14:50:05.249953,7
2021-10-14 14:50:05.249962,49
2021-10-14 14:50:05.249970,63
2021-10-14 14:50:05.249979,58
2021-10-14 14:50:05.249987,85
2021-10-14 14:50:05.520155,110
2021-10-14 14:50:05.520177,120
2021-10-14 14:50:05.520186,127
2021-10-14 14:50:05.520195,144
2021-10-14 14:50:05.520203,169
2021-10-14 14:50:05.520212,196
2021-10-14 14:50:05.520220,228
2021-10-14 14:50:05.520228,262
2021-10-14 14:50:05.520237,277
2021-10-14 14:50:05.520245,291
2021-10-14 14:50:05.520253,321
2021-10-14 14:50:05.520262,345
2021-10-14 14:50:05.520270,348
2021-10-14 14:50:05.520278,336
2021-10-14 14:50:05.520287,314
2021-10-14 14:50:05.520295,284
2021-10-14 14:50:05.520303,245
2021-10-14 14:50:05.520311,179
2021-10-14 14:50:05.520319,95
2021-10-14 14:50:05.520328,17
2021-10-14 14:50:05.520336,-46
2021-10-14 14:50:05.520344,-98
2021-10-14 14:50:05.520352,-132
2021-10-14 14:50:05.520361,-154
2021-10-14 14:50:05.520369,-161
2021-10-14 14:50:05.520377,-164
2021-10-14 14:50:05.520386,-169
2021-10-14 14:50:05.520394,-164
2021-10-14 14:50:05.520410,-154
2021-10-14 14:50:05.520419,-152
2021-10-14 14:50:05.699739,-147
2021-10-14 14:50:05.699761,-134
2021-10-14 14:50:05.699770,-134
2021-10-14 14:50:05.699779,-142
2021-10-14 14:50:05.699788,-142
2021-10-14 14:50:05.699796,-134
2021-10-14 14:50:05.699804,-132
2021-10-14 14:50:05.699813,-139
2021-10-14 14:50:05.699821,-139
2021-10-14 14:50:05.699829,-137
2021-10-14 14:50:05.699838,-134
2021-10-14 14:50:05.699847,-130
2021-10-14 14:50:05.699855,-122
2021-10-14 14:50:05.699863,-122
2021-10-14 14:50:05.699872,-134
2021-10-14 14:50:05.699880,-142
2021-10-14 14:50:05.699888,-130
2021-10-14 14:50:05.699897,-132
2021-10-14 14:50:05.699905,-132
2021-10-14 14:50:05.699914,-120
2021-10-14 14:50:05.699922,-127
2021-10-14 14:50:05.699930,-142
2021-10-14 14:50:05.699938,-125
2021-10-14 14:50:05.699947,-90
2021-10-14 14:50:05.699955,-61
2021-10-14 14:50:05.699963,-56
2021-10-14 14:50:05.699972,-56
2021-10-14 14:50:05.699980,-44
2021-10-14 14:50:05.699988,-56
2021-10-14 14:50:05.699996,-85
2021-10-14 14:50:05.925022,-88
2021-10-14 14:50:05.925042,-71
2021-10-14 14:50:05.925052,-71
2021-10-14 14:50:05.925061,-76
2021-10-14 14:50:05.925070,-61
2021-10-14 14:50:05.925078,-58
2021-10-14 14:50:05.925087,-78
2021-10-14 14:50:05.925095,-76
2021-10-14 14:50:05.925104,22
2021-10-14 14:50:05.925112,291
2021-10-14 14:50:05.925121,691
2021-10-14 14:50:05.925129,863
2021-10-14 14:50:05.925138,331
2021-10-14 14:50:05.925146,-444
2021-10-14 14:50:05.925155,-399
2021-10-14 14:50:05.925163,41
2021-10-14 14:50:05.925172,0
2021-10-14 14:50:05.925180,-107
2021-10-14 14:50:05.925189,-2
2021-10-14 14:50:05.925197,4
2021-10-14 14:50:05.925206,-44
2021-10-14 14:50:05.925214,-2
2021-10-14 14:50:05.925222,31
2021-10-14 14:50:05.925231,24
2021-10-14 14:50:05.925239,34
2021-10-14 14:50:05.925248,66
2021-10-14 14:50:05.925256,88
2021-10-14 14:50:05.925265,103
2021-10-14 14:50:05.925273,127
2021-10-14 14:50:05.925282,152
2021-10-14 14:50:06.149721,174
2021-10-14 14:50:06.149742,203
2021-10-14 14:50:06.149752,235
2021-10-14 14:50:06.149761,267
2021-10-14 14:50:06.149769,296
2021-10-14 14:50:06.149778,318
2021-10-14 14:50:06.149786,323
2021-10-14 14:50:06.149795,321
2021-10-14 14:50:06.149803,314
2021-10-14 14:50:06.149811,294
2021-10-14 14:50:06.149820,272
2021-10-14 14:50:06.149828,238
2021-10-14 14:50:06.149837,174
2021-10-14 14:50:06.149845,93
2021-10-14 14:50:06.149853,19
2021-10-14 14:50:06.149862,-41
2021-10-14 14:50:06.149870,-95
2021-10-14 14:50:06.149879,-142
2021-10-14 14:50:06.149887,-171
2021-10-14 14:50:06.149896,-191
2021-10-14 14:50:06.149904,-198
2021-10-14 14:50:06.149913,-186
2021-10-14 14:50:06.149921,-171
2021-10-14 14:50:06.149929,-174
2021-10-14 14:50:06.149938,-174
2021-10-14 14:50:06.149946,-157
2021-10-14 14:50:06.149954,-142
2021-10-14 14:50:06.149962,-137
2021-10-14 14:50:06.149971,-134
2021-10-14 14:50:06.149979,-134
2021-10-14 14:50:06.463628,-134
2021-10-14 14:50:06.463649,-130
2021-10-14 14:50:06.463659,-130
2021-10-14 14:50:06.463668,-130
2021-10-14 14:50:06.463676,-130
2021-10-14 14:50:06.463685,-132
2021-10-14 14:50:06.463693,-130
2021-10-14 14:50:06.463702,-122
2021-10-14 14:50:06.463710,-132
2021-10-14 14:50:06.463719,-147
2021-10-14 14:50:06.463727,-149
2021-10-14 14:50:06.463736,-127
2021-10-14 14:50:06.463744,-88
2021-10-14 14:50:06.463753,-71
2021-10-14 14:50:06.463761,-76
2021-10-14 14:50:06.463770,-80
2021-10-14 14:50:06.463778,-95
2021-10-14 14:50:06.463787,-112
2021-10-14 14:50:06.463795,-115
2021-10-14 14:50:06.463803,-107
2021-10-14 14:50:06.463812,-105
2021-10-14 14:50:06.463821,-107
2021-10-14 14:50:06.463829,-95
2021-10-14 14:50:06.463837,-80
2021-10-14 14:50:06.463846,-85
2021-10-14 14:50:06.463854,-83
2021-10-14 14:50:06.463863,-9
2021-10-14 14:50:06.463871,220
2021-10-14 14:50:06.463880,608
2021-10-14 14:50:06.463888,848
2021-10-14 14:50:06.600086,426
2021-10-14 14:50:06.600107,-370
2021-10-14 14:50:06.600117,-446
2021-10-14 14:50:06.600126,22
2021-10-14 14:50:06.600134,51
2021-10-14 14:50:06.600143,-105
2021-10-14 14:50:06.600151,-22
2021-10-14 14:50:06.600160,26
2021-10-14 14:50:06.600168,-12
2021-10-14 14:50:06.600177,7
2021-10-14 14:50:06.600185,29
2021-10-14 14:50:06.600194,24
2021-10-14 14:50:06.600202,39
2021-10-14 14:50:06.600211,66
2021-10-14 14:50:06.600219,78
2021-10-14 14:50:06.600228,88
2021-10-14 14:50:06.600236,110
2021-10-14 14:50:06.600244,134
2021-10-14 14:50:06.600253,161
2021-10-14 14:50:06.600261,203
2021-10-14 14:50:06.600269,240
2021-10-14 14:50:06.600278,260
2021-10-14 14:50:06.600286,282
2021-10-14 14:50:06.600295,309
2021-10-14 14:50:06.600303,321
2021-10-14 14:50:06.600311,309
2021-10-14 14:50:06.600320,287
2021-10-14 14:50:06.600328,274
2021-10-14 14:50:06.600336,262
2021-10-14 14:50:06.600345,218
2021-10-14 14:50:06.824709,144
2021-10-14 14:50:06.824730,76
2021-10-14 14:50:06.824739,12
2021-10-14 14:50:06.824748,-53
2021-10-14 14:50:06.824757,-105
2021-10-14 14:50:06.824766,-132
2021-10-14 14:50:06.824774,-152
2021-10-14 14:50:06.824783,-164
2021-10-14 14:50:06.824791,-171
2021-10-14 14:50:06.824800,-174
2021-10-14 14:50:06.824808,-169
2021-10-14 14:50:06.824816,-144
2021-10-14 14:50:06.824825,-130
2021-10-14 14:50:06.824834,-127
2021-10-14 14:50:06.824842,-130
2021-10-14 14:50:06.824850,-130
2021-10-14 14:50:06.824859,-127
2021-10-14 14:50:06.824867,-122
2021-10-14 14:50:06.824876,-117
2021-10-14 14:50:06.824884,-110
2021-10-14 14:50:06.824892,-115
2021-10-14 14:50:06.824901,-130
2021-10-14 14:50:06.824909,-125
2021-10-14 14:50:06.824917,-115
2021-10-14 14:50:06.824926,-120
2021-10-14 14:50:06.824934,-122
2021-10-14 14:50:06.824943,-122
2021-10-14 14:50:06.824951,-125
2021-10-14 14:50:06.824960,-125
2021-10-14 14:50:06.824968,-127
2021-10-14 14:50:07.094822,-130
2021-10-14 14:50:07.094844,-115
2021-10-14 14:50:07.094853,-78
2021-10-14 14:50:07.094861,-61
2021-10-14 14:50:07.094869,-63
2021-10-14 14:50:07.094877,-56
2021-10-14 14:50:07.094884,-51
2021-10-14 14:50:07.094892,-66
2021-10-14 14:50:07.094900,-95
2021-10-14 14:50:07.094907,-115
2021-10-14 14:50:07.094915,-115
2021-10-14 14:50:07.094923,-100
2021-10-14 14:50:07.094930,-90
2021-10-14 14:50:07.094964,-83
2021-10-14 14:50:07.094975,-85
2021-10-14 14:50:07.094983,-93
2021-10-14 14:50:07.094991,-93
2021-10-14 14:50:07.094999,-29
2021-10-14 14:50:07.095007,208
2021-10-14 14:50:07.095015,606
2021-10-14 14:50:07.095022,856
2021-10-14 14:50:07.095030,473
2021-10-14 14:50:07.095038,-341
2021-10-14 14:50:07.095045,-488
2021-10-14 14:50:07.095054,-19
2021-10-14 14:50:07.095062,46
2021-10-14 14:50:07.095070,-115
2021-10-14 14:50:07.095077,-36
2021-10-14 14:50:07.095085,22
2021-10-14 14:50:07.095093,-19
2021-10-14 14:50:07.320113,-9
2021-10-14 14:50:07.320134,12
2021-10-14 14:50:07.320144,4
2021-10-14 14:50:07.320153,17
2021-10-14 14:50:07.320161,49
2021-10-14 14:50:07.320170,71
2021-10-14 14:50:07.320178,93
2021-10-14 14:50:07.320187,112
2021-10-14 14:50:07.320196,120
2021-10-14 14:50:07.320204,132
2021-10-14 14:50:07.320213,169
2021-10-14 14:50:07.320222,208
2021-10-14 14:50:07.320230,228
2021-10-14 14:50:07.320239,245
2021-10-14 14:50:07.320247,255
2021-10-14 14:50:07.320256,260
2021-10-14 14:50:07.320264,277
2021-10-14 14:50:07.320272,277
2021-10-14 14:50:07.320281,250
2021-10-14 14:50:07.320289,228
2021-10-14 14:50:07.320298,201
2021-10-14 14:50:07.320306,154
2021-10-14 14:50:07.320314,88
2021-10-14 14:50:07.320331,14
2021-10-14 14:50:07.320340,-49
2021-10-14 14:50:07.320348,-85
2021-10-14 14:50:07.320357,-122
2021-10-14 14:50:07.320365,-161
2021-10-14 14:50:07.320374,-174
2021-10-14 14:50:07.320382,-166
2021-10-14 14:50:07.679735,-159
2021-10-14 14:50:07.679756,-152
2021-10-14 14:50:07.679766,-149
2021-10-14 14:50:07.679775,-154
2021-10-14 14:50:07.679783,-144
2021-10-14 14:50:07.679792,-122
2021-10-14 14:50:07.679800,-115
2021-10-14 14:50:07.679809,-127
2021-10-14 14:50:07.679818,-134
2021-10-14 14:50:07.679826,-130
2021-10-14 14:50:07.679835,-122
2021-10-14 14:50:07.679843,-120
2021-10-14 14:50:07.679852,-132
2021-10-14 14:50:07.679860,-142
2021-10-14 14:50:07.679869,-144
2021-10-14 14:50:07.679877,-134
2021-10-14 14:50:07.679885,-139
2021-10-14 14:50:07.679893,-149
2021-10-14 14:50:07.679902,-147
2021-10-14 14:50:07.679910,-159
2021-10-14 14:50:07.679919,-176
2021-10-14 14:50:07.679927,-161
2021-10-14 14:50:07.679935,-130
2021-10-14 14:50:07.679944,-95
2021-10-14 14:50:07.679952,-80
2021-10-14 14:50:07.679961,-93
2021-10-14 14:50:07.679969,-105
2021-10-14 14:50:07.679977,-127
2021-10-14 14:50:07.679986,-144
2021-10-14 14:50:07.679994,-122
2021-10-14 14:50:07.770140,-103
2021-10-14 14:50:07.770160,-107
2021-10-14 14:50:07.770170,-117
2021-10-14 14:50:07.770179,-107
2021-10-14 14:50:07.770195,-90
2021-10-14 14:50:07.770266,-90
2021-10-14 14:50:07.770304,-93
2021-10-14 14:50:07.770318,-14
2021-10-14 14:50:07.770327,233
2021-10-14 14:50:07.770335,601
2021-10-14 14:50:07.770343,745
2021-10-14 14:50:07.770350,225
2021-10-14 14:50:07.770359,-534
2021-10-14 14:50:07.770367,-473
2021-10-14 14:50:07.770375,14
2021-10-14 14:50:07.770384,0
2021-10-14 14:50:07.770392,-112
2021-10-14 14:50:07.770400,-4
2021-10-14 14:50:07.770408,2
2021-10-14 14:50:07.770417,-51
2021-10-14 14:50:07.770425,0
2021-10-14 14:50:07.770433,31
2021-10-14 14:50:07.770442,7
2021-10-14 14:50:07.770450,24
2021-10-14 14:50:07.770458,63
2021-10-14 14:50:07.770466,71
2021-10-14 14:50:07.770475,83
2021-10-14 14:50:07.770483,120
2021-10-14 14:50:07.770491,147
2021-10-14 14:50:07.770500,159
2021-10-14 14:50:08.040111,179
2021-10-14 14:50:08.040132,206
2021-10-14 14:50:08.040142,230
2021-10-14 14:50:08.040151,247
2021-10-14 14:50:08.040159,260
2021-10-14 14:50:08.040168,269
2021-10-14 14:50:08.040176,267
2021-10-14 14:50:08.040185,264
2021-10-14 14:50:08.040193,255
2021-10-14 14:50:08.040202,220
2021-10-14 14:50:08.040210,179
2021-10-14 14:50:08.040219,125
2021-10-14 14:50:08.040227,41
2021-10-14 14:50:08.040235,-24
2021-10-14 14:50:08.040244,-68
2021-10-14 14:50:08.040252,-120
2021-10-14 14:50:08.040261,-149
2021-10-14 14:50:08.040269,-154
2021-10-14 14:50:08.040278,-169
2021-10-14 14:50:08.040286,-181
2021-10-14 14:50:08.040294,-166
2021-10-14 14:50:08.040303,-147
2021-10-14 14:50:08.040311,-137
2021-10-14 14:50:08.040320,-127
2021-10-14 14:50:08.040328,-112
2021-10-14 14:50:08.040337,-105
2021-10-14 14:50:08.040345,-103
2021-10-14 14:50:08.040353,-98
2021-10-14 14:50:08.040362,-90
2021-10-14 14:50:08.040370,-95
2021-10-14 14:50:08.310129,-100
2021-10-14 14:50:08.310150,-85
2021-10-14 14:50:08.310160,-71
2021-10-14 14:50:08.310169,-73
2021-10-14 14:50:08.310177,-83
2021-10-14 14:50:08.310186,-93
2021-10-14 14:50:08.310194,-100
2021-10-14 14:50:08.310203,-100
2021-10-14 14:50:08.310211,-103
2021-10-14 14:50:08.310220,-100
2021-10-14 14:50:08.310228,-68
2021-10-14 14:50:08.310236,-46
2021-10-14 14:50:08.310245,-61
2021-10-14 14:50:08.310253,-80
2021-10-14 14:50:08.310262,-83
2021-10-14 14:50:08.310270,-98
2021-10-14 14:50:08.310278,-120
2021-10-14 14:50:08.310286,-132
2021-10-14 14:50:08.310295,-117
2021-10-14 14:50:08.310303,-100
2021-10-14 14:50:08.310311,-105
2021-10-14 14:50:08.310319,-110
2021-10-14 14:50:08.310328,-98
2021-10-14 14:50:08.310336,-93
2021-10-14 14:50:08.310344,-88
2021-10-14 14:50:08.310352,0
2021-10-14 14:50:08.310361,252
2021-10-14 14:50:08.310369,620
2021-10-14 14:50:08.310378,758
2021-10-14 14:50:08.310386,215
2021-10-14 14:50:08.488780,-502
2021-10-14 14:50:08.488800,-382
2021-10-14 14:50:08.488810,63
2021-10-14 14:50:08.488819,-4
2021-10-14 14:50:08.488827,-110
2021-10-14 14:50:08.488836,2
2021-10-14 14:50:08.488844,14
2021-10-14 14:50:08.488853,-22
2021-10-14 14:50:08.488861,24
2021-10-14 14:50:08.488870,44
2021-10-14 14:50:08.488879,29
2021-10-14 14:50:08.488887,44
2021-10-14 14:50:08.488896,71
2021-10-14 14:50:08.488904,83
2021-10-14 14:50:08.488913,110
2021-10-14 14:50:08.488921,137
2021-10-14 14:50:08.488929,157
2021-10-14 14:50:08.488938,179
2021-10-14 14:50:08.488946,215
2021-10-14 14:50:08.488955,247
2021-10-14 14:50:08.488963,262
2021-10-14 14:50:08.488972,277
2021-10-14 14:50:08.488981,287
2021-10-14 14:50:08.488989,282
2021-10-14 14:50:08.488998,279
2021-10-14 14:50:08.489006,279
2021-10-14 14:50:08.489014,267
2021-10-14 14:50:08.489023,235
2021-10-14 14:50:08.489031,193
2021-10-14 14:50:08.489039,144
2021-10-14 14:50:08.715122,83
2021-10-14 14:50:08.715144,24
2021-10-14 14:50:08.715154,-26
2021-10-14 14:50:08.715162,-73
2021-10-14 14:50:08.715171,-115
2021-10-14 14:50:08.715179,-130
2021-10-14 14:50:08.715188,-127
2021-10-14 14:50:08.715196,-127
2021-10-14 14:50:08.715205,-120
2021-10-14 14:50:08.715213,-117
2021-10-14 14:50:08.715221,-120
2021-10-14 14:50:08.715230,-103
2021-10-14 14:50:08.715238,-85
2021-10-14 14:50:08.715246,-85
2021-10-14 14:50:08.715255,-83
2021-10-14 14:50:08.715263,-83
2021-10-14 14:50:08.715271,-83
2021-10-14 14:50:08.715280,-88
2021-10-14 14:50:08.715288,-98
2021-10-14 14:50:08.715296,-95
2021-10-14 14:50:08.715305,-78
2021-10-14 14:50:08.715313,-78
2021-10-14 14:50:08.715322,-95
2021-10-14 14:50:08.715330,-95
2021-10-14 14:50:08.715338,-80
2021-10-14 14:50:08.715347,-73
2021-10-14 14:50:08.715355,-73
2021-10-14 14:50:08.715363,-76
2021-10-14 14:50:08.715372,-88
2021-10-14 14:50:08.715380,-95
2021-10-14 14:50:08.939752,-80
2021-10-14 14:50:08.939778,-49
2021-10-14 14:50:08.939787,-26
2021-10-14 14:50:08.939795,-39
2021-10-14 14:50:08.939804,-61
2021-10-14 14:50:08.939812,-71
2021-10-14 14:50:08.939821,-93
2021-10-14 14:50:08.939829,-110
2021-10-14 14:50:08.939838,-105
2021-10-14 14:50:08.939846,-98
2021-10-14 14:50:08.939855,-98
2021-10-14 14:50:08.939863,-95
2021-10-14 14:50:08.939872,-88
2021-10-14 14:50:08.939880,-85
2021-10-14 14:50:08.939888,-98
2021-10-14 14:50:08.939897,-78
2021-10-14 14:50:08.939905,80
2021-10-14 14:50:08.939914,441
2021-10-14 14:50:08.939922,809
2021-10-14 14:50:08.939931,709
2021-10-14 14:50:08.939939,-41
2021-10-14 14:50:08.939947,-537
2021-10-14 14:50:08.939956,-191
2021-10-14 14:50:08.939964,80
2021-10-14 14:50:08.939972,-71
2021-10-14 14:50:08.939981,-66
2021-10-14 14:50:08.939989,22
2021-10-14 14:50:08.939998,-22
2021-10-14 14:50:08.940006,-26
2021-10-14 14:50:08.940015,29
2021-10-14 14:50:09.164792,41
2021-10-14 14:50:09.164815,49
2021-10-14 14:50:09.164824,66
2021-10-14 14:50:09.164832,63
2021-10-14 14:50:09.164840,80
2021-10-14 14:50:09.164848,120
2021-10-14 14:50:09.164856,144
2021-10-14 14:50:09.164865,152
2021-10-14 14:50:09.164873,169
2021-10-14 14:50:09.164881,184
2021-10-14 14:50:09.164889,206
2021-10-14 14:50:09.164897,230
2021-10-14 14:50:09.164905,245
2021-10-14 14:50:09.164914,260
2021-10-14 14:50:09.164920,255
2021-10-14 14:50:09.164928,238
2021-10-14 14:50:09.164937,235
2021-10-14 14:50:09.164945,228
2021-10-14 14:50:09.164953,196
2021-10-14 14:50:09.164961,157
2021-10-14 14:50:09.164969,105
2021-10-14 14:50:09.164977,44
2021-10-14 14:50:09.164986,-4
2021-10-14 14:50:09.164994,-56
2021-10-14 14:50:09.165002,-107
2021-10-14 14:50:09.165010,-132
2021-10-14 14:50:09.165018,-139
2021-10-14 14:50:09.165027,-147
2021-10-14 14:50:09.165035,-142
2021-10-14 14:50:09.165043,-130
2021-10-14 14:50:09.524145,-117
2021-10-14 14:50:09.524166,-105
2021-10-14 14:50:09.524175,-103
2021-10-14 14:50:09.524184,-98
2021-10-14 14:50:09.524193,-93
2021-10-14 14:50:09.524201,-98
2021-10-14 14:50:09.524209,-100
2021-10-14 14:50:09.524218,-105
2021-10-14 14:50:09.524226,-117
2021-10-14 14:50:09.524234,-115
2021-10-14 14:50:09.524243,-95
2021-10-14 14:50:09.524251,-88
2021-10-14 14:50:09.524259,-98
2021-10-14 14:50:09.524267,-115
2021-10-14 14:50:09.524276,-122
2021-10-14 14:50:09.524284,-110
2021-10-14 14:50:09.524292,-95
2021-10-14 14:50:09.524306,-90
2021-10-14 14:50:09.524315,-90
2021-10-14 14:50:09.524323,-100
2021-10-14 14:50:09.524332,-105
2021-10-14 14:50:09.524340,-100
2021-10-14 14:50:09.524348,-76
2021-10-14 14:50:09.524357,-44
2021-10-14 14:50:09.524365,-29
2021-10-14 14:50:09.524373,-29
2021-10-14 14:50:09.524381,-36
2021-10-14 14:50:09.524389,-58
2021-10-14 14:50:09.524398,-76
2021-10-14 14:50:09.524406,-73
2021-10-14 14:50:09.615120,-76
2021-10-14 14:50:09.615141,-83
2021-10-14 14:50:09.615151,-90
2021-10-14 14:50:09.615160,-95
2021-10-14 14:50:09.615169,-93
2021-10-14 14:50:09.615177,-85
2021-10-14 14:50:09.615185,-83
2021-10-14 14:50:09.615194,-49
2021-10-14 14:50:09.615202,139
2021-10-14 14:50:09.615211,510
2021-10-14 14:50:09.615219,804
2021-10-14 14:50:09.615228,532
2021-10-14 14:50:09.615237,-277
2021-10-14 14:50:09.615245,-561
2021-10-14 14:50:09.615254,-88
2021-10-14 14:50:09.615262,73
2021-10-14 14:50:09.615271,-110
2021-10-14 14:50:09.615279,-51
2021-10-14 14:50:09.615287,29
2021-10-14 14:50:09.615296,-26
2021-10-14 14:50:09.615304,-24
2021-10-14 14:50:09.615313,26
2021-10-14 14:50:09.615321,26
2021-10-14 14:50:09.615330,29
2021-10-14 14:50:09.615338,56
2021-10-14 14:50:09.615346,71
2021-10-14 14:50:09.615355,80
2021-10-14 14:50:09.615363,98
2021-10-14 14:50:09.615372,112
2021-10-14 14:50:09.615380,137
2021-10-14 14:50:09.884590,166
2021-10-14 14:50:09.884616,184
2021-10-14 14:50:09.884626,198
2021-10-14 14:50:09.884635,215
2021-10-14 14:50:09.884643,230
2021-10-14 14:50:09.884652,228
2021-10-14 14:50:09.884660,215
2021-10-14 14:50:09.884669,208
2021-10-14 14:50:09.884677,201
2021-10-14 14:50:09.884685,174
2021-10-14 14:50:09.884694,147
2021-10-14 14:50:09.884702,112
2021-10-14 14:50:09.884710,49
2021-10-14 14:50:09.884719,-9
2021-10-14 14:50:09.884727,-53
2021-10-14 14:50:09.884736,-100
2021-10-14 14:50:09.884744,-144
2021-10-14 14:50:09.884752,-164
2021-10-14 14:50:09.884761,-161
2021-10-14 14:50:09.884769,-159
2021-10-14 14:50:09.884777,-161
2021-10-14 14:50:09.884786,-161
2021-10-14 14:50:09.884794,-147
2021-10-14 14:50:09.884802,-132
2021-10-14 14:50:09.884810,-132
2021-10-14 14:50:09.884819,-127
2021-10-14 14:50:09.884827,-115
2021-10-14 14:50:09.884835,-110
2021-10-14 14:50:09.884843,-107
2021-10-14 14:50:09.884852,-105
2021-10-14 14:50:10.110097,-105
2021-10-14 14:50:10.110118,-95
2021-10-14 14:50:10.110141,-90
2021-10-14 14:50:10.110154,-98
2021-10-14 14:50:10.110173,-100
2021-10-14 14:50:10.110184,-100
2021-10-14 14:50:10.110197,-107
2021-10-14 14:50:10.110206,-112
2021-10-14 14:50:10.110214,-107
2021-10-14 14:50:10.110801,-110
2021-10-14 14:50:10.110845,-107
2021-10-14 14:50:10.110852,-105
2021-10-14 14:50:10.110857,-115
2021-10-14 14:50:10.110862,-120
2021-10-14 14:50:10.110867,-95
2021-10-14 14:50:10.110872,-66
2021-10-14 14:50:10.110876,-49
2021-10-14 14:50:10.110881,-56
2021-10-14 14:50:10.110886,-73
2021-10-14 14:50:10.110891,-88
2021-10-14 14:50:10.110895,-107
2021-10-14 14:50:10.110900,-117
2021-10-14 14:50:10.110904,-105
2021-10-14 14:50:10.110909,-103
2021-10-14 14:50:10.110913,-107
2021-10-14 14:50:10.110917,-98
2021-10-14 14:50:10.110922,-88
2021-10-14 14:50:10.110927,-93
2021-10-14 14:50:10.110932,-90
2021-10-14 14:50:10.110936,-29
2021-10-14 14:50:10.334812,169
2021-10-14 14:50:10.334834,517
2021-10-14 14:50:10.334843,765
2021-10-14 14:50:10.334852,414
2021-10-14 14:50:10.334861,-372
2021-10-14 14:50:10.334869,-542
2021-10-14 14:50:10.334878,-68
2021-10-14 14:50:10.334886,46
2021-10-14 14:50:10.334895,-107
2021-10-14 14:50:10.334903,-46
2021-10-14 14:50:10.334912,2
2021-10-14 14:50:10.334920,-46
2021-10-14 14:50:10.334929,-24
2021-10-14 14:50:10.334937,14
2021-10-14 14:50:10.334946,7
2021-10-14 14:50:10.334954,17
2021-10-14 14:50:10.334963,36
2021-10-14 14:50:10.334971,49
2021-10-14 14:50:10.334980,73
2021-10-14 14:50:10.334988,103
2021-10-14 14:50:10.334996,127
2021-10-14 14:50:10.335005,147
2021-10-14 14:50:10.335013,166
2021-10-14 14:50:10.335021,191
2021-10-14 14:50:10.335030,215
2021-10-14 14:50:10.335038,233
2021-10-14 14:50:10.335047,245
2021-10-14 14:50:10.335055,245
2021-10-14 14:50:10.335064,228
2021-10-14 14:50:10.335072,215
2021-10-14 14:50:10.558785,208
2021-10-14 14:50:10.558810,196
2021-10-14 14:50:10.558819,171
2021-10-14 14:50:10.558828,127
2021-10-14 14:50:10.558836,68
2021-10-14 14:50:10.558845,9
2021-10-14 14:50:10.558853,-34
2021-10-14 14:50:10.558861,-76
2021-10-14 14:50:10.558870,-115
2021-10-14 14:50:10.558878,-139
2021-10-14 14:50:10.558886,-149
2021-10-14 14:50:10.558895,-154
2021-10-14 14:50:10.558903,-147
2021-10-14 14:50:10.558911,-137
2021-10-14 14:50:10.558920,-127
2021-10-14 14:50:10.558928,-127
2021-10-14 14:50:10.558936,-130
2021-10-14 14:50:10.558945,-125
2021-10-14 14:50:10.558953,-112
2021-10-14 14:50:10.558962,-98
2021-10-14 14:50:10.558970,-83
2021-10-14 14:50:10.558978,-85
2021-10-14 14:50:10.558987,-98
2021-10-14 14:50:10.558995,-95
2021-10-14 14:50:10.559004,-83
2021-10-14 14:50:10.559012,-78
2021-10-14 14:50:10.559020,-83
2021-10-14 14:50:10.559028,-85
2021-10-14 14:50:10.559037,-88
2021-10-14 14:50:10.559045,-83
2021-10-14 14:50:10.830165,-83
2021-10-14 14:50:10.830186,-90
2021-10-14 14:50:10.830195,-88
2021-10-14 14:50:10.830203,-71
2021-10-14 14:50:10.830211,-53
2021-10-14 14:50:10.830219,-44
2021-10-14 14:50:10.830227,-34
2021-10-14 14:50:10.830235,-26
2021-10-14 14:50:10.830243,-49
2021-10-14 14:50:10.830251,-93
2021-10-14 14:50:10.830260,-112
2021-10-14 14:50:10.830268,-117
2021-10-14 14:50:10.830276,-122
2021-10-14 14:50:10.830284,-117
2021-10-14 14:50:10.830292,-112
2021-10-14 14:50:10.830300,-112
2021-10-14 14:50:10.830308,-112
2021-10-14 14:50:10.830316,-105
2021-10-14 14:50:10.830324,-46
2021-10-14 14:50:10.830332,152
2021-10-14 14:50:10.830340,500
2021-10-14 14:50:10.830348,721
2021-10-14 14:50:10.830357,355
2021-10-14 14:50:10.830365,-377
2021-10-14 14:50:10.830373,-476
2021-10-14 14:50:10.830381,-24
2021-10-14 14:50:10.830389,34
2021-10-14 14:50:10.830397,-110
2021-10-14 14:50:10.830405,-29
2021-10-14 14:50:10.830413,19
2021-10-14 14:50:11.055149,-17
2021-10-14 14:50:11.055170,17
2021-10-14 14:50:11.055180,41
2021-10-14 14:50:11.055188,29
2021-10-14 14:50:11.055197,53
2021-10-14 14:50:11.055205,85
2021-10-14 14:50:11.055214,95
2021-10-14 14:50:11.055222,107
2021-10-14 14:50:11.055231,130
2021-10-14 14:50:11.055239,144
2021-10-14 14:50:11.055247,169
2021-10-14 14:50:11.055255,203
2021-10-14 14:50:11.055264,230
2021-10-14 14:50:11.055272,250
2021-10-14 14:50:11.055281,260
2021-10-14 14:50:11.055289,272
2021-10-14 14:50:11.055298,277
2021-10-14 14:50:11.055306,260
2021-10-14 14:50:11.055314,240
2021-10-14 14:50:11.055323,223
2021-10-14 14:50:11.055331,193
2021-10-14 14:50:11.055340,152
2021-10-14 14:50:11.055348,107
2021-10-14 14:50:11.055357,53
2021-10-14 14:50:11.055365,-4
2021-10-14 14:50:11.055374,-51
2021-10-14 14:50:11.055382,-90
2021-10-14 14:50:11.055390,-132
2021-10-14 14:50:11.055399,-149
2021-10-14 14:50:11.055407,-144
2021-10-14 14:50:11.234824,-134
2021-10-14 14:50:11.234846,-127
2021-10-14 14:50:11.234856,-117
2021-10-14 14:50:11.234866,-112
2021-10-14 14:50:11.234875,-105
2021-10-14 14:50:11.234884,-95
2021-10-14 14:50:11.234894,-73
2021-10-14 14:50:11.234903,-58
2021-10-14 14:50:11.234912,-66
2021-10-14 14:50:11.234921,-76
2021-10-14 14:50:11.234931,-66
2021-10-14 14:50:11.234939,-58
2021-10-14 14:50:11.234948,-58
2021-10-14 14:50:11.234956,-56
2021-10-14 14:50:11.234964,-66
2021-10-14 14:50:11.234972,-80
2021-10-14 14:50:11.234981,-80
2021-10-14 14:50:11.234989,-85
2021-10-14 14:50:11.234997,-95
2021-10-14 14:50:11.235006,-105
2021-10-14 14:50:11.235014,-120
2021-10-14 14:50:11.235022,-117
2021-10-14 14:50:11.235030,-98
2021-10-14 14:50:11.235038,-78
2021-10-14 14:50:11.235047,-61
2021-10-14 14:50:11.235055,-58
2021-10-14 14:50:11.235063,-63
2021-10-14 14:50:11.235071,-78
2021-10-14 14:50:11.235079,-98
2021-10-14 14:50:11.235088,-103
2021-10-14 14:50:11.459819,-98
2021-10-14 14:50:11.459840,-98
2021-10-14 14:50:11.459848,-103
2021-10-14 14:50:11.459855,-100
2021-10-14 14:50:11.459863,-93
2021-10-14 14:50:11.459870,-90
2021-10-14 14:50:11.459877,-90
2021-10-14 14:50:11.459885,-76
2021-10-14 14:50:11.459892,58
2021-10-14 14:50:11.459900,392
2021-10-14 14:50:11.459908,738
2021-10-14 14:50:11.459915,635
2021-10-14 14:50:11.459922,-83
2021-10-14 14:50:11.459930,-542
2021-10-14 14:50:11.459937,-186
2021-10-14 14:50:11.459945,71
2021-10-14 14:50:11.459953,-80
2021-10-14 14:50:11.459961,-61
2021-10-14 14:50:11.459970,36
2021-10-14 14:50:11.459978,0
2021-10-14 14:50:11.459987,-14
2021-10-14 14:50:11.459995,29
2021-10-14 14:50:11.460004,41
2021-10-14 14:50:11.460012,44
2021-10-14 14:50:11.460020,53
2021-10-14 14:50:11.460028,68
2021-10-14 14:50:11.460037,95
2021-10-14 14:50:11.460045,125
2021-10-14 14:50:11.460053,142
2021-10-14 14:50:11.460062,164
2021-10-14 14:50:11.685163,193
2021-10-14 14:50:11.685185,215
2021-10-14 14:50:11.685194,233
2021-10-14 14:50:11.685203,250
2021-10-14 14:50:11.685212,267
2021-10-14 14:50:11.685220,282
2021-10-14 14:50:11.685229,274
2021-10-14 14:50:11.685237,247
2021-10-14 14:50:11.685245,235
2021-10-14 14:50:11.685254,223
2021-10-14 14:50:11.685262,191
2021-10-14 14:50:11.685271,147
2021-10-14 14:50:11.685279,88
2021-10-14 14:50:11.685287,22
2021-10-14 14:50:11.685298,-24
2021-10-14 14:50:11.685307,-61
2021-10-14 14:50:11.685316,-98
2021-10-14 14:50:11.685324,-127
2021-10-14 14:50:11.685332,-139
2021-10-14 14:50:11.685341,-142
2021-10-14 14:50:11.685349,-130
2021-10-14 14:50:11.685357,-117
2021-10-14 14:50:11.685366,-120
2021-10-14 14:50:11.685374,-120
2021-10-14 14:50:11.685383,-107
2021-10-14 14:50:11.685391,-105
2021-10-14 14:50:11.685400,-110
2021-10-14 14:50:11.685408,-107
2021-10-14 14:50:11.685416,-98
2021-10-14 14:50:11.685425,-90
2021-10-14 14:50:11.910214,-93
2021-10-14 14:50:11.910243,-90
2021-10-14 14:50:11.910252,-85
2021-10-14 14:50:11.910261,-93
2021-10-14 14:50:11.910269,-100
2021-10-14 14:50:11.910277,-93
2021-10-14 14:50:11.910286,-88
2021-10-14 14:50:11.910294,-90
2021-10-14 14:50:11.910302,-88
2021-10-14 14:50:11.910310,-93
2021-10-14 14:50:11.910319,-100
2021-10-14 14:50:11.910327,-105
2021-10-14 14:50:11.910335,-105
2021-10-14 14:50:11.910344,-85
2021-10-14 14:50:11.910352,-51
2021-10-14 14:50:11.910360,-46
2021-10-14 14:50:11.910368,-49
2021-10-14 14:50:11.910376,-56
2021-10-14 14:50:11.910385,-83
2021-10-14 14:50:11.910393,-105
2021-10-14 14:50:11.910402,-112
2021-10-14 14:50:11.910410,-110
2021-10-14 14:50:11.910418,-103
2021-10-14 14:50:11.910426,-98
2021-10-14 14:50:11.910435,-98
2021-10-14 14:50:11.910443,-98
2021-10-14 14:50:11.910451,-100
2021-10-14 14:50:11.910459,-103
2021-10-14 14:50:11.910468,-44
2021-10-14 14:50:11.910476,184
2021-10-14 14:50:12.134829,571
2021-10-14 14:50:12.134850,792
2021-10-14 14:50:12.134860,368
2021-10-14 14:50:12.134869,-402
2021-10-14 14:50:12.134877,-463
2021-10-14 14:50:12.134886,-31
2021-10-14 14:50:12.134894,-22
2021-10-14 14:50:12.134903,-144
2021-10-14 14:50:12.134936,-46
2021-10-14 14:50:12.134945,-22
2021-10-14 14:50:12.134954,-73
2021-10-14 14:50:12.134962,-56
2021-10-14 14:50:12.134971,-29
2021-10-14 14:50:12.134979,-14
2021-10-14 14:50:12.134988,22
2021-10-14 14:50:12.134996,46
2021-10-14 14:50:12.135005,49
2021-10-14 14:50:12.135013,63
2021-10-14 14:50:12.135022,98
2021-10-14 14:50:12.135030,125
2021-10-14 14:50:12.135039,142
2021-10-14 14:50:12.135047,164
2021-10-14 14:50:12.135056,191
2021-10-14 14:50:12.135064,208
2021-10-14 14:50:12.135073,223
2021-10-14 14:50:12.135081,245
2021-10-14 14:50:12.135090,247
2021-10-14 14:50:12.135098,233
2021-10-14 14:50:12.135107,208
2021-10-14 14:50:12.135115,166
2021-10-14 14:50:12.360238,139
2021-10-14 14:50:12.360260,122
2021-10-14 14:50:12.360269,76
2021-10-14 14:50:12.360277,2
2021-10-14 14:50:12.360285,-58
2021-10-14 14:50:12.360293,-110
2021-10-14 14:50:12.360302,-152
2021-10-14 14:50:12.360310,-181
2021-10-14 14:50:12.360317,-193
2021-10-14 14:50:12.360324,-198
2021-10-14 14:50:12.360332,-208
2021-10-14 14:50:12.360340,-206
2021-10-14 14:50:12.360348,-171
2021-10-14 14:50:12.360356,-157
2021-10-14 14:50:12.360365,-161
2021-10-14 14:50:12.360373,-152
2021-10-14 14:50:12.360381,-132
2021-10-14 14:50:12.360389,-127
2021-10-14 14:50:12.360397,-130
2021-10-14 14:50:12.360406,-127
2021-10-14 14:50:12.360413,-122
2021-10-14 14:50:12.360421,-122
2021-10-14 14:50:12.360428,-130
2021-10-14 14:50:12.360435,-130
2021-10-14 14:50:12.360443,-120
2021-10-14 14:50:12.360452,-112
2021-10-14 14:50:12.360460,-112
2021-10-14 14:50:12.360468,-130
2021-10-14 14:50:12.360476,-122
2021-10-14 14:50:12.360484,-95
2021-10-14 14:50:12.674122,-103
2021-10-14 14:50:12.674143,-137
2021-10-14 14:50:12.674152,-147
2021-10-14 14:50:12.674161,-137
2021-10-14 14:50:12.674169,-122
2021-10-14 14:50:12.674178,-98
2021-10-14 14:50:12.674186,-80
2021-10-14 14:50:12.674195,-90
2021-10-14 14:50:12.674203,-112
2021-10-14 14:50:12.674211,-139
2021-10-14 14:50:12.674220,-159
2021-10-14 14:50:12.674228,-154
2021-10-14 14:50:12.674237,-139
2021-10-14 14:50:12.674245,-137
2021-10-14 14:50:12.674253,-137
2021-10-14 14:50:12.674262,-130
2021-10-14 14:50:12.674270,-127
2021-10-14 14:50:12.674278,-132
2021-10-14 14:50:12.674287,-105
2021-10-14 14:50:12.674295,24
2021-10-14 14:50:12.674304,316
2021-10-14 14:50:12.674312,642
2021-10-14 14:50:12.674320,588
2021-10-14 14:50:12.674329,-85
2021-10-14 14:50:12.674337,-593
2021-10-14 14:50:12.674345,-260
2021-10-14 14:50:12.674354,71
2021-10-14 14:50:12.674362,-73
2021-10-14 14:50:12.674370,-103
2021-10-14 14:50:12.674378,9
2021-10-14 14:50:12.899610,-7
2021-10-14 14:50:12.899632,-24
2021-10-14 14:50:12.899641,22
2021-10-14 14:50:12.899650,19
2021-10-14 14:50:12.899659,0
2021-10-14 14:50:12.899667,26
2021-10-14 14:50:12.899676,58
2021-10-14 14:50:12.899684,71
2021-10-14 14:50:12.899693,95
2021-10-14 14:50:12.899701,122
2021-10-14 14:50:12.899709,144
2021-10-14 14:50:12.899718,166
2021-10-14 14:50:12.899726,191
2021-10-14 14:50:12.899734,218
2021-10-14 14:50:12.899743,235
2021-10-14 14:50:12.899751,245
2021-10-14 14:50:12.899759,257
2021-10-14 14:50:12.899768,257
2021-10-14 14:50:12.899776,238
2021-10-14 14:50:12.899785,218
2021-10-14 14:50:12.899793,201
2021-10-14 14:50:12.899801,174
2021-10-14 14:50:12.899810,139
2021-10-14 14:50:12.899818,88
2021-10-14 14:50:12.899826,24
2021-10-14 14:50:12.899835,-39
2021-10-14 14:50:12.899843,-95
2021-10-14 14:50:12.899851,-122
2021-10-14 14:50:12.899859,-137
2021-10-14 14:50:12.899868,-154
2021-10-14 14:50:13.125185,-152
2021-10-14 14:50:13.125206,-144
2021-10-14 14:50:13.125216,-147
2021-10-14 14:50:13.125224,-137
2021-10-14 14:50:13.125233,-125
2021-10-14 14:50:13.125242,-117
2021-10-14 14:50:13.125250,-98
2021-10-14 14:50:13.125258,-78
2021-10-14 14:50:13.125267,-85
2021-10-14 14:50:13.125275,-93
2021-10-14 14:50:13.125284,-80
2021-10-14 14:50:13.125292,-68
2021-10-14 14:50:13.125301,-71
2021-10-14 14:50:13.125309,-76
2021-10-14 14:50:13.125317,-88
2021-10-14 14:50:13.125326,-95
2021-10-14 14:50:13.125334,-85
2021-10-14 14:50:13.125343,-76
2021-10-14 14:50:13.125351,-78
2021-10-14 14:50:13.125360,-83
2021-10-14 14:50:13.125368,-80
2021-10-14 14:50:13.125376,-85
2021-10-14 14:50:13.125385,-83
2021-10-14 14:50:13.125393,-63
2021-10-14 14:50:13.125401,-41
2021-10-14 14:50:13.125410,-31
2021-10-14 14:50:13.125418,-29
2021-10-14 14:50:13.125427,-26
2021-10-14 14:50:13.125435,-39
2021-10-14 14:50:13.125444,-71
2021-10-14 14:50:13.304802,-88
2021-10-14 14:50:13.304823,-80
2021-10-14 14:50:13.304833,-83
2021-10-14 14:50:13.304841,-90
2021-10-14 14:50:13.304850,-85
2021-10-14 14:50:13.304858,-76
2021-10-14 14:50:13.304867,-66
2021-10-14 14:50:13.304875,-63
2021-10-14 14:50:13.304883,-53
2021-10-14 14:50:13.304892,63
2021-10-14 14:50:13.304900,375
2021-10-14 14:50:13.304909,716
2021-10-14 14:50:13.304917,615
2021-10-14 14:50:13.304926,-78
2021-10-14 14:50:13.304934,-510
2021-10-14 14:50:13.304942,-166
2021-10-14 14:50:13.304951,68
2021-10-14 14:50:13.304959,-83
2021-10-14 14:50:13.304967,-76
2021-10-14 14:50:13.304976,0
2021-10-14 14:50:13.304984,-41
2021-10-14 14:50:13.304992,-24
2021-10-14 14:50:13.305001,34
2021-10-14 14:50:13.305009,34
2021-10-14 14:50:13.305017,36
2021-10-14 14:50:13.305025,66
2021-10-14 14:50:13.305034,78
2021-10-14 14:50:13.305042,93
2021-10-14 14:50:13.305053,125
2021-10-14 14:50:13.305062,154
2021-10-14 14:50:13.619577,174
2021-10-14 14:50:13.619598,196
2021-10-14 14:50:13.619608,218
2021-10-14 14:50:13.619617,242
2021-10-14 14:50:13.619625,277
2021-10-14 14:50:13.619634,289
2021-10-14 14:50:13.619642,277
2021-10-14 14:50:13.619651,272
2021-10-14 14:50:13.619659,262
2021-10-14 14:50:13.619667,238
2021-10-14 14:50:13.619676,215
2021-10-14 14:50:13.619684,184
2021-10-14 14:50:13.619692,127
2021-10-14 14:50:13.619701,58
2021-10-14 14:50:13.619709,12
2021-10-14 14:50:13.619718,-31
2021-10-14 14:50:13.619726,-76
2021-10-14 14:50:13.619734,-95
2021-10-14 14:50:13.619743,-115
2021-10-14 14:50:13.619751,-139
2021-10-14 14:50:13.619759,-137
2021-10-14 14:50:13.619768,-117
2021-10-14 14:50:13.619776,-105
2021-10-14 14:50:13.619785,-103
2021-10-14 14:50:13.619793,-95
2021-10-14 14:50:13.619801,-83
2021-10-14 14:50:13.619810,-71
2021-10-14 14:50:13.619818,-66
2021-10-14 14:50:13.619826,-53
2021-10-14 14:50:13.619835,-36
2021-10-14 14:50:13.844590,-36
2021-10-14 14:50:13.844610,-44
2021-10-14 14:50:13.844620,-46
2021-10-14 14:50:13.844628,-41
2021-10-14 14:50:13.844637,-39
2021-10-14 14:50:13.844645,-41
2021-10-14 14:50:13.844654,-53
2021-10-14 14:50:13.844662,-63
2021-10-14 14:50:13.844670,-63
2021-10-14 14:50:13.844679,-63
2021-10-14 14:50:13.844687,-68
2021-10-14 14:50:13.844695,-66
2021-10-14 14:50:13.844704,-63
2021-10-14 14:50:13.844712,-66
2021-10-14 14:50:13.844720,-80
2021-10-14 14:50:13.844729,-88
2021-10-14 14:50:13.844737,-53
2021-10-14 14:50:13.844745,-24
2021-10-14 14:50:13.844754,-39
2021-10-14 14:50:13.844762,-46
2021-10-14 14:50:13.844770,-49
2021-10-14 14:50:13.844779,-73
2021-10-14 14:50:13.844787,-95
2021-10-14 14:50:13.844795,-95
2021-10-14 14:50:13.844804,-90
2021-10-14 14:50:13.844812,-90
2021-10-14 14:50:13.844820,-88
2021-10-14 14:50:13.844829,-76
2021-10-14 14:50:13.844837,-71
2021-10-14 14:50:13.844845,-78
2021-10-14 14:50:14.024816,-49
2021-10-14 14:50:14.024837,100
2021-10-14 14:50:14.024847,434
2021-10-14 14:50:14.024856,787
2021-10-14 14:50:14.024864,687
2021-10-14 14:50:14.024873,-46
2021-10-14 14:50:14.024881,-500
2021-10-14 14:50:14.024890,-144
2021-10-14 14:50:14.024898,85
2021-10-14 14:50:14.024907,-90
2021-10-14 14:50:14.024915,-78
2021-10-14 14:50:14.024924,19
2021-10-14 14:50:14.024932,-14
2021-10-14 14:50:14.024941,-24
2021-10-14 14:50:14.024949,12
2021-10-14 14:50:14.024958,17
2021-10-14 14:50:14.024966,19
2021-10-14 14:50:14.024975,44
2021-10-14 14:50:14.024983,61
2021-10-14 14:50:14.024992,76
2021-10-14 14:50:14.025000,103
2021-10-14 14:50:14.025008,125
2021-10-14 14:50:14.025017,137
2021-10-14 14:50:14.025025,164
2021-10-14 14:50:14.025034,201
2021-10-14 14:50:14.025042,223
2021-10-14 14:50:14.025050,242
2021-10-14 14:50:14.025059,260
2021-10-14 14:50:14.025067,262
2021-10-14 14:50:14.025076,255
2021-10-14 14:50:14.249209,250
2021-10-14 14:50:14.249230,240
2021-10-14 14:50:14.249240,215
2021-10-14 14:50:14.249248,188
2021-10-14 14:50:14.249257,144
2021-10-14 14:50:14.249265,80
2021-10-14 14:50:14.249274,14
2021-10-14 14:50:14.249282,-31
2021-10-14 14:50:14.249291,-63
2021-10-14 14:50:14.249299,-100
2021-10-14 14:50:14.249307,-139
2021-10-14 14:50:14.249316,-157
2021-10-14 14:50:14.249324,-144
2021-10-14 14:50:14.249332,-132
2021-10-14 14:50:14.249341,-127
2021-10-14 14:50:14.249349,-132
2021-10-14 14:50:14.249357,-137
2021-10-14 14:50:14.249366,-122
2021-10-14 14:50:14.249374,-100
2021-10-14 14:50:14.249386,-98
2021-10-14 14:50:14.249395,-110
2021-10-14 14:50:14.249403,-120
2021-10-14 14:50:14.249411,-120
2021-10-14 14:50:14.249420,-110
2021-10-14 14:50:14.249428,-98
2021-10-14 14:50:14.249436,-95
2021-10-14 14:50:14.249445,-103
2021-10-14 14:50:14.249453,-100
2021-10-14 14:50:14.249461,-95
2021-10-14 14:50:14.249470,-98
2021-10-14 14:50:14.474622,-93
2021-10-14 14:50:14.474643,-88
2021-10-14 14:50:14.474653,-90
2021-10-14 14:50:14.474661,-93
2021-10-14 14:50:14.474670,-95
2021-10-14 14:50:14.474678,-105
2021-10-14 14:50:14.474686,-110
2021-10-14 14:50:14.474695,-105
2021-10-14 14:50:14.474703,-95
2021-10-14 14:50:14.474711,-105
2021-10-14 14:50:14.474719,-100
2021-10-14 14:50:14.474728,-58
2021-10-14 14:50:14.474736,-41
2021-10-14 14:50:14.474745,-63
2021-10-14 14:50:14.474753,-80
2021-10-14 14:50:14.474761,-95
2021-10-14 14:50:14.474769,-115
2021-10-14 14:50:14.474777,-122
2021-10-14 14:50:14.474786,-112
2021-10-14 14:50:14.474794,-105
2021-10-14 14:50:14.474802,-105
2021-10-14 14:50:14.474811,-110
2021-10-14 14:50:14.474819,-115
2021-10-14 14:50:14.474827,-110
2021-10-14 14:50:14.474835,-68
2021-10-14 14:50:14.474844,98
2021-10-14 14:50:14.474852,434
2021-10-14 14:50:14.474860,758
2021-10-14 14:50:14.474868,633
2021-10-14 14:50:14.474877,-90
2021-10-14 14:50:14.743869,-534
2021-10-14 14:50:14.743890,-176
2021-10-14 14:50:14.743899,61
2021-10-14 14:50:14.743908,-103
2021-10-14 14:50:14.743916,-78
2021-10-14 14:50:14.743924,17
2021-10-14 14:50:14.743933,-26
2021-10-14 14:50:14.743941,-34
2021-10-14 14:50:14.743950,12
2021-10-14 14:50:14.743958,12
2021-10-14 14:50:14.743966,17
2021-10-14 14:50:14.743975,53
2021-10-14 14:50:14.743983,73
2021-10-14 14:50:14.743991,78
2021-10-14 14:50:14.744000,90
2021-10-14 14:50:14.744008,117
2021-10-14 14:50:14.744016,147
2021-10-14 14:50:14.744024,169
2021-10-14 14:50:14.744033,196
2021-10-14 14:50:14.744041,218
2021-10-14 14:50:14.744049,213
2021-10-14 14:50:14.744058,218
2021-10-14 14:50:14.744066,250
2021-10-14 14:50:14.744074,255
2021-10-14 14:50:14.744082,235
2021-10-14 14:50:14.744091,223
2021-10-14 14:50:14.744099,206
2021-10-14 14:50:14.744107,157
2021-10-14 14:50:14.744116,95
2021-10-14 14:50:14.744124,49
2021-10-14 14:50:14.925060,-2
2021-10-14 14:50:14.925080,-58
2021-10-14 14:50:14.925089,-105
2021-10-14 14:50:14.925098,-149
2021-10-14 14:50:14.925107,-186
2021-10-14 14:50:14.925115,-191
2021-10-14 14:50:14.925123,-174
2021-10-14 14:50:14.925132,-171
2021-10-14 14:50:14.925140,-186
2021-10-14 14:50:14.925148,-176
2021-10-14 14:50:14.925157,-159
2021-10-14 14:50:14.925165,-147
2021-10-14 14:50:14.925173,-122
2021-10-14 14:50:14.925182,-120
2021-10-14 14:50:14.925190,-137
2021-10-14 14:50:14.925198,-137
2021-10-14 14:50:14.925207,-122
2021-10-14 14:50:14.925215,-112
2021-10-14 14:50:14.925224,-105
2021-10-14 14:50:14.925232,-110
2021-10-14 14:50:14.925240,-127
2021-10-14 14:50:14.925248,-132
2021-10-14 14:50:14.925257,-130
2021-10-14 14:50:14.925265,-134
2021-10-14 14:50:14.925273,-137
2021-10-14 14:50:14.925282,-130
2021-10-14 14:50:14.925290,-127
2021-10-14 14:50:14.925298,-132
2021-10-14 14:50:14.925306,-134
2021-10-14 14:50:14.925315,-137
2021-10-14 14:50:15.195037,-144
2021-10-14 14:50:15.195060,-144
2021-10-14 14:50:15.195069,-120
2021-10-14 14:50:15.195078,-93
2021-10-14 14:50:15.195087,-85
2021-10-14 14:50:15.195095,-88
2021-10-14 14:50:15.195104,-103
2021-10-14 14:50:15.195112,-125
2021-10-14 14:50:15.195121,-134
2021-10-14 14:50:15.195130,-130
2021-10-14 14:50:15.195138,-127
2021-10-14 14:50:15.195167,-125
2021-10-14 14:50:15.195176,-122
2021-10-14 14:50:15.195185,-122
2021-10-14 14:50:15.195193,-125
2021-10-14 14:50:15.195201,-122
2021-10-14 14:50:15.195210,-83
2021-10-14 14:50:15.195218,53
2021-10-14 14:50:15.195227,350
2021-10-14 14:50:15.195235,657
2021-10-14 14:50:15.195244,552
2021-10-14 14:50:15.195252,-147
2021-10-14 14:50:15.195261,-601
2021-10-14 14:50:15.195269,-228
2021-10-14 14:50:15.195278,63
2021-10-14 14:50:15.195286,-93
2021-10-14 14:50:15.195295,-95
2021-10-14 14:50:15.195303,9
2021-10-14 14:50:15.195311,-17
2021-10-14 14:50:15.195320,-29
2021-10-14 14:50:15.375226,9
2021-10-14 14:50:15.375247,19
2021-10-14 14:50:15.375257,14
2021-10-14 14:50:15.375265,34
2021-10-14 14:50:15.375274,58
2021-10-14 14:50:15.375283,80
2021-10-14 14:50:15.375291,105
2021-10-14 14:50:15.375300,122
2021-10-14 14:50:15.375308,147
2021-10-14 14:50:15.375316,191
2021-10-14 14:50:15.375325,223
2021-10-14 14:50:15.375333,235
2021-10-14 14:50:15.375342,250
2021-10-14 14:50:15.375350,264
2021-10-14 14:50:15.375359,264
2021-10-14 14:50:15.375367,267
2021-10-14 14:50:15.375375,260
2021-10-14 14:50:15.375384,240
2021-10-14 14:50:15.375392,228
2021-10-14 14:50:15.375401,193
2021-10-14 14:50:15.375409,127
2021-10-14 14:50:15.375418,56
2021-10-14 14:50:15.375427,4
2021-10-14 14:50:15.375435,-44
2021-10-14 14:50:15.375443,-103
2021-10-14 14:50:15.375452,-144
2021-10-14 14:50:15.375460,-161
2021-10-14 14:50:15.375469,-171
2021-10-14 14:50:15.375477,-169
2021-10-14 14:50:15.375485,-159
2021-10-14 14:50:15.600261,-149
2021-10-14 14:50:15.600283,-137
2021-10-14 14:50:15.600292,-132
2021-10-14 14:50:15.600301,-130
2021-10-14 14:50:15.600309,-107
2021-10-14 14:50:15.600318,-90
2021-10-14 14:50:15.600326,-93
2021-10-14 14:50:15.600334,-93
2021-10-14 14:50:15.600343,-83
2021-10-14 14:50:15.600351,-76
2021-10-14 14:50:15.600359,-73
2021-10-14 14:50:15.600368,-80
2021-10-14 14:50:15.600376,-85
2021-10-14 14:50:15.600385,-76
2021-10-14 14:50:15.600393,-83
2021-10-14 14:50:15.600401,-100
2021-10-14 14:50:15.600410,-95
2021-10-14 14:50:15.600418,-85
2021-10-14 14:50:15.600426,-93
2021-10-14 14:50:15.600435,-100
2021-10-14 14:50:15.600444,-100
2021-10-14 14:50:15.600452,-80
2021-10-14 14:50:15.600461,-58
2021-10-14 14:50:15.600469,-58
2021-10-14 14:50:15.600478,-61
2021-10-14 14:50:15.600486,-49
2021-10-14 14:50:15.600494,-58
2021-10-14 14:50:15.600503,-95
2021-10-14 14:50:15.600511,-107
2021-10-14 14:50:15.600519,-93
2021-10-14 14:50:15.824847,-90
2021-10-14 14:50:15.824868,-98
2021-10-14 14:50:15.824878,-88
2021-10-14 14:50:15.824886,-68
2021-10-14 14:50:15.824895,-71
2021-10-14 14:50:15.824903,-73
2021-10-14 14:50:15.824912,-26
2021-10-14 14:50:15.824920,154
2021-10-14 14:50:15.824929,490
2021-10-14 14:50:15.824937,738
2021-10-14 14:50:15.824946,441
2021-10-14 14:50:15.824954,-274
2021-10-14 14:50:15.824962,-446
2021-10-14 14:50:15.824971,-29
2021-10-14 14:50:15.824979,51
2021-10-14 14:50:15.824988,-103
2021-10-14 14:50:15.824996,-29
2021-10-14 14:50:15.825004,19
2021-10-14 14:50:15.825013,-24
2021-10-14 14:50:15.825021,14
2021-10-14 14:50:15.825029,58
2021-10-14 14:50:15.825038,44
2021-10-14 14:50:15.825046,56
2021-10-14 14:50:15.825054,93
2021-10-14 14:50:15.825062,103
2021-10-14 14:50:15.825071,117
2021-10-14 14:50:15.825079,157
2021-10-14 14:50:15.825087,184
2021-10-14 14:50:15.825095,198
2021-10-14 14:50:15.825104,218
2021-10-14 14:50:16.049858,240
2021-10-14 14:50:16.049885,262
2021-10-14 14:50:16.049895,287
2021-10-14 14:50:16.049903,301
2021-10-14 14:50:16.049912,291
2021-10-14 14:50:16.049920,269
2021-10-14 14:50:16.049929,267
2021-10-14 14:50:16.049937,267
2021-10-14 14:50:16.049946,235
2021-10-14 14:50:16.049954,188
2021-10-14 14:50:16.049963,134
2021-10-14 14:50:16.049971,63
2021-10-14 14:50:16.049980,-7
2021-10-14 14:50:16.049988,-51
2021-10-14 14:50:16.049997,-78
2021-10-14 14:50:16.050005,-105
2021-10-14 14:50:16.050014,-122
2021-10-14 14:50:16.050022,-139
2021-10-14 14:50:16.050031,-139
2021-10-14 14:50:16.050039,-112
2021-10-14 14:50:16.050048,-98
2021-10-14 14:50:16.050056,-95
2021-10-14 14:50:16.050065,-83
2021-10-14 14:50:16.050073,-71
2021-10-14 14:50:16.050082,-66
2021-10-14 14:50:16.050090,-58
2021-10-14 14:50:16.050099,-53
2021-10-14 14:50:16.050107,-51
2021-10-14 14:50:16.050116,-49
2021-10-14 14:50:16.050124,-46
2021-10-14 14:50:16.320244,-44
2021-10-14 14:50:16.320265,-41
2021-10-14 14:50:16.320275,-61
2021-10-14 14:50:16.320283,-83
2021-10-14 14:50:16.320292,-76
2021-10-14 14:50:16.320300,-71
2021-10-14 14:50:16.320308,-83
2021-10-14 14:50:16.320317,-83
2021-10-14 14:50:16.320325,-80
2021-10-14 14:50:16.320333,-100
2021-10-14 14:50:16.320342,-112
2021-10-14 14:50:16.320350,-88
2021-10-14 14:50:16.320358,-56
2021-10-14 14:50:16.320367,-51
2021-10-14 14:50:16.320375,-66
2021-10-14 14:50:16.320384,-83
2021-10-14 14:50:16.320392,-100
2021-10-14 14:50:16.320400,-107
2021-10-14 14:50:16.320408,-110
2021-10-14 14:50:16.320417,-105
2021-10-14 14:50:16.320425,-93
2021-10-14 14:50:16.320433,-93
2021-10-14 14:50:16.320442,-100
2021-10-14 14:50:16.320450,-90
2021-10-14 14:50:16.320458,-80
2021-10-14 14:50:16.320467,-73
2021-10-14 14:50:16.320475,0
2021-10-14 14:50:16.320484,235
2021-10-14 14:50:16.320492,603
2021-10-14 14:50:16.320500,794
2021-10-14 14:50:16.544845,341
2021-10-14 14:50:16.544865,-382
2021-10-14 14:50:16.544875,-372
2021-10-14 14:50:16.544884,49
2021-10-14 14:50:16.544892,17
2021-10-14 14:50:16.544901,-100
2021-10-14 14:50:16.544910,2
2021-10-14 14:50:16.544918,24
2021-10-14 14:50:16.544926,-22
2021-10-14 14:50:16.544935,2
2021-10-14 14:50:16.544943,34
2021-10-14 14:50:16.544951,41
2021-10-14 14:50:16.544959,56
2021-10-14 14:50:16.544968,76
2021-10-14 14:50:16.544976,83
2021-10-14 14:50:16.544984,93
2021-10-14 14:50:16.544992,127
2021-10-14 14:50:16.545001,157
2021-10-14 14:50:16.545009,171
2021-10-14 14:50:16.545017,198
2021-10-14 14:50:16.545025,238
2021-10-14 14:50:16.545034,262
2021-10-14 14:50:16.545042,279
2021-10-14 14:50:16.545051,296
2021-10-14 14:50:16.545059,296
2021-10-14 14:50:16.545067,282
2021-10-14 14:50:16.545075,262
2021-10-14 14:50:16.545084,240
2021-10-14 14:50:16.545092,223
2021-10-14 14:50:16.545101,191
2021-10-14 14:50:16.858899,125
2021-10-14 14:50:16.858920,56
2021-10-14 14:50:16.858929,-4
2021-10-14 14:50:16.858938,-58
2021-10-14 14:50:16.858947,-95
2021-10-14 14:50:16.858955,-120
2021-10-14 14:50:16.858964,-134
2021-10-14 14:50:16.858972,-147
2021-10-14 14:50:16.858981,-154
2021-10-14 14:50:16.858989,-144
2021-10-14 14:50:16.858998,-132
2021-10-14 14:50:16.859006,-130
2021-10-14 14:50:16.859014,-115
2021-10-14 14:50:16.859023,-105
2021-10-14 14:50:16.859031,-112
2021-10-14 14:50:16.859040,-110
2021-10-14 14:50:16.859048,-98
2021-10-14 14:50:16.859057,-95
2021-10-14 14:50:16.859065,-90
2021-10-14 14:50:16.859073,-85
2021-10-14 14:50:16.859082,-103
2021-10-14 14:50:16.859090,-117
2021-10-14 14:50:16.859098,-107
2021-10-14 14:50:16.859107,-98
2021-10-14 14:50:16.859115,-105
2021-10-14 14:50:16.859124,-117
2021-10-14 14:50:16.859132,-120
2021-10-14 14:50:16.859140,-117
2021-10-14 14:50:16.859148,-117
2021-10-14 14:50:16.859157,-125
2021-10-14 14:50:16.995396,-117
2021-10-14 14:50:16.995416,-90
2021-10-14 14:50:16.995426,-63
2021-10-14 14:50:16.995435,-63
2021-10-14 14:50:16.995443,-71
2021-10-14 14:50:16.995452,-76
2021-10-14 14:50:16.995460,-95
2021-10-14 14:50:16.995469,-117
2021-10-14 14:50:16.995477,-125
2021-10-14 14:50:16.995485,-120
2021-10-14 14:50:16.995494,-115
2021-10-14 14:50:16.995502,-107
2021-10-14 14:50:16.995510,-103
2021-10-14 14:50:16.995519,-110
2021-10-14 14:50:16.995528,-120
2021-10-14 14:50:16.995537,-100
2021-10-14 14:50:16.995545,-9
2021-10-14 14:50:16.995553,238
2021-10-14 14:50:16.995562,598
2021-10-14 14:50:16.995570,716
2021-10-14 14:50:16.995579,171
2021-10-14 14:50:16.995587,-520
2021-10-14 14:50:16.995596,-402
2021-10-14 14:50:16.995604,22
2021-10-14 14:50:16.995612,-36
2021-10-14 14:50:16.995621,-127
2021-10-14 14:50:16.995629,-19
2021-10-14 14:50:16.995635,-19
2021-10-14 14:50:16.995641,-51
2021-10-14 14:50:16.995647,0
2021-10-14 14:50:17.264860,22
2021-10-14 14:50:17.264880,12
2021-10-14 14:50:17.264890,36
2021-10-14 14:50:17.264898,61
2021-10-14 14:50:17.264907,71
2021-10-14 14:50:17.264918,98
2021-10-14 14:50:17.264927,127
2021-10-14 14:50:17.264935,147
2021-10-14 14:50:17.264943,174
2021-10-14 14:50:17.264952,203
2021-10-14 14:50:17.264961,220
2021-10-14 14:50:17.264969,223
2021-10-14 14:50:17.264977,240
2021-10-14 14:50:17.264986,264
2021-10-14 14:50:17.264994,264
2021-10-14 14:50:17.265003,247
2021-10-14 14:50:17.265012,242
2021-10-14 14:50:17.265020,233
2021-10-14 14:50:17.265028,184
2021-10-14 14:50:17.265037,115
2021-10-14 14:50:17.265045,63
2021-10-14 14:50:17.265053,12
2021-10-14 14:50:17.265062,-51
2021-10-14 14:50:17.265070,-107
2021-10-14 14:50:17.265079,-149
2021-10-14 14:50:17.265087,-188
2021-10-14 14:50:17.265096,-228
2021-10-14 14:50:17.265104,-233
2021-10-14 14:50:17.265112,-211
2021-10-14 14:50:17.265121,-188
2021-10-14 14:50:17.445164,-181
2021-10-14 14:50:17.445184,-181
2021-10-14 14:50:17.445193,-171
2021-10-14 14:50:17.445202,-142
2021-10-14 14:50:17.445211,-115
2021-10-14 14:50:17.445219,-115
2021-10-14 14:50:17.445228,-137
2021-10-14 14:50:17.445236,-144
2021-10-14 14:50:17.445245,-130
2021-10-14 14:50:17.445253,-117
2021-10-14 14:50:17.445261,-117
2021-10-14 14:50:17.445270,-134
2021-10-14 14:50:17.445278,-144
2021-10-14 14:50:17.445287,-139
2021-10-14 14:50:17.445295,-139
2021-10-14 14:50:17.445304,-134
2021-10-14 14:50:17.445312,-120
2021-10-14 14:50:17.445320,-137
2021-10-14 14:50:17.445329,-166
2021-10-14 14:50:17.445337,-154
2021-10-14 14:50:17.445346,-120
2021-10-14 14:50:17.445354,-100
2021-10-14 14:50:17.445363,-95
2021-10-14 14:50:17.445371,-95
2021-10-14 14:50:17.445379,-103
2021-10-14 14:50:17.445388,-122
2021-10-14 14:50:17.445396,-137
2021-10-14 14:50:17.445405,-149
2021-10-14 14:50:17.445413,-152
2021-10-14 14:50:17.445422,-137
2021-10-14 14:50:17.670203,-125
2021-10-14 14:50:17.670227,-132
2021-10-14 14:50:17.670236,-134
2021-10-14 14:50:17.670245,-115
2021-10-14 14:50:17.670253,-88
2021-10-14 14:50:17.670261,-46
2021-10-14 14:50:17.670270,132
2021-10-14 14:50:17.670278,471
2021-10-14 14:50:17.670287,667
2021-10-14 14:50:17.670295,294
2021-10-14 14:50:17.670303,-426
2021-10-14 14:50:17.670311,-537
2021-10-14 14:50:17.670320,-78
2021-10-14 14:50:17.670328,14
2021-10-14 14:50:17.670336,-130
2021-10-14 14:50:17.670345,-61
2021-10-14 14:50:17.670353,-4
2021-10-14 14:50:17.670361,-41
2021-10-14 14:50:17.670369,-12
2021-10-14 14:50:17.670378,26
2021-10-14 14:50:17.670386,17
2021-10-14 14:50:17.670394,29
2021-10-14 14:50:17.670402,68
2021-10-14 14:50:17.670411,85
2021-10-14 14:50:17.670419,107
2021-10-14 14:50:17.670427,144
2021-10-14 14:50:17.670435,166
2021-10-14 14:50:17.670443,181
2021-10-14 14:50:17.670451,215
2021-10-14 14:50:17.670460,252
2021-10-14 14:50:18.030202,272
2021-10-14 14:50:18.030222,284
2021-10-14 14:50:18.030232,284
2021-10-14 14:50:18.030240,284
2021-10-14 14:50:18.030249,279
2021-10-14 14:50:18.030258,257
2021-10-14 14:50:18.030266,233
2021-10-14 14:50:18.030274,211
2021-10-14 14:50:18.030283,161
2021-10-14 14:50:18.030291,88
2021-10-14 14:50:18.030300,12
2021-10-14 14:50:18.030308,-58
2021-10-14 14:50:18.030317,-105
2021-10-14 14:50:18.030325,-130
2021-10-14 14:50:18.030333,-164
2021-10-14 14:50:18.030342,-181
2021-10-14 14:50:18.030350,-181
2021-10-14 14:50:18.030358,-188
2021-10-14 14:50:18.030367,-181
2021-10-14 14:50:18.030375,-149
2021-10-14 14:50:18.030383,-132
2021-10-14 14:50:18.030392,-132
2021-10-14 14:50:18.030400,-125
2021-10-14 14:50:18.030408,-100
2021-10-14 14:50:18.030417,-80
2021-10-14 14:50:18.030425,-78
2021-10-14 14:50:18.030433,-76
2021-10-14 14:50:18.030442,-73
2021-10-14 14:50:18.030450,-71
2021-10-14 14:50:18.030458,-63
2021-10-14 14:50:18.120154,-63
2021-10-14 14:50:18.120173,-66
2021-10-14 14:50:18.120182,-58
2021-10-14 14:50:18.120190,-49
2021-10-14 14:50:18.120199,-44
2021-10-14 14:50:18.120207,-46
2021-10-14 14:50:18.120216,-51
2021-10-14 14:50:18.120224,-51
2021-10-14 14:50:18.120232,-34
2021-10-14 14:50:18.120241,-12
2021-10-14 14:50:18.120249,-2
2021-10-14 14:50:18.120258,-2
2021-10-14 14:50:18.120266,-7
2021-10-14 14:50:18.120274,-24
2021-10-14 14:50:18.120282,-44
2021-10-14 14:50:18.120291,-53
2021-10-14 14:50:18.120299,-63
2021-10-14 14:50:18.120307,-68
2021-10-14 14:50:18.120315,-61
2021-10-14 14:50:18.120324,-68
2021-10-14 14:50:18.120332,-88
2021-10-14 14:50:18.120340,-88
2021-10-14 14:50:18.120349,-68
2021-10-14 14:50:18.120357,2
2021-10-14 14:50:18.120365,215
2021-10-14 14:50:18.120373,547
2021-10-14 14:50:18.120382,706
2021-10-14 14:50:18.120390,294
2021-10-14 14:50:18.120398,-382
2021-10-14 14:50:18.120407,-385
2021-10-14 14:50:18.389810,36
2021-10-14 14:50:18.389830,31
2021-10-14 14:50:18.389839,-98
2021-10-14 14:50:18.389848,-17
2021-10-14 14:50:18.389856,9
2021-10-14 14:50:18.389865,-24
2021-10-14 14:50:18.389873,-2
2021-10-14 14:50:18.389881,14
2021-10-14 14:50:18.389889,9
2021-10-14 14:50:18.389898,24
2021-10-14 14:50:18.389906,41
2021-10-14 14:50:18.389915,63
2021-10-14 14:50:18.389923,90
2021-10-14 14:50:18.389931,117
2021-10-14 14:50:18.389940,139
2021-10-14 14:50:18.389948,164
2021-10-14 14:50:18.389956,193
2021-10-14 14:50:18.389965,235
2021-10-14 14:50:18.389973,264
2021-10-14 14:50:18.389981,284
2021-10-14 14:50:18.389990,296
2021-10-14 14:50:18.389998,291
2021-10-14 14:50:18.390006,279
2021-10-14 14:50:18.390015,272
2021-10-14 14:50:18.390023,250
2021-10-14 14:50:18.390031,220
2021-10-14 14:50:18.390039,174
2021-10-14 14:50:18.390048,100
2021-10-14 14:50:18.390056,26
2021-10-14 14:50:18.390064,-29
2021-10-14 14:50:18.615246,-78
2021-10-14 14:50:18.615267,-103
2021-10-14 14:50:18.615276,-115
2021-10-14 14:50:18.615285,-137
2021-10-14 14:50:18.615294,-149
2021-10-14 14:50:18.615302,-134
2021-10-14 14:50:18.615311,-112
2021-10-14 14:50:18.615319,-107
2021-10-14 14:50:18.615328,-115
2021-10-14 14:50:18.615336,-105
2021-10-14 14:50:18.615345,-83
2021-10-14 14:50:18.615354,-71
2021-10-14 14:50:18.615363,-56
2021-10-14 14:50:18.615371,-49
2021-10-14 14:50:18.615380,-61
2021-10-14 14:50:18.615388,-68
2021-10-14 14:50:18.615397,-61
2021-10-14 14:50:18.615406,-56
2021-10-14 14:50:18.615414,-58
2021-10-14 14:50:18.615422,-61
2021-10-14 14:50:18.615431,-68
2021-10-14 14:50:18.615439,-71
2021-10-14 14:50:18.615448,-71
2021-10-14 14:50:18.615457,-83
2021-10-14 14:50:18.615465,-90
2021-10-14 14:50:18.615474,-80
2021-10-14 14:50:18.615482,-71
2021-10-14 14:50:18.615490,-80
2021-10-14 14:50:18.615499,-83
2021-10-14 14:50:18.615507,-51
2021-10-14 14:50:18.928944,-12
2021-10-14 14:50:18.928965,-4
2021-10-14 14:50:18.928975,-17
2021-10-14 14:50:18.928984,-22
2021-10-14 14:50:18.928992,-39
2021-10-14 14:50:18.929001,-61
2021-10-14 14:50:18.929009,-58
2021-10-14 14:50:18.929018,-51
2021-10-14 14:50:18.929027,-68
2021-10-14 14:50:18.929035,-85
2021-10-14 14:50:18.929043,-80
2021-10-14 14:50:18.929052,-78
2021-10-14 14:50:18.929060,-93
2021-10-14 14:50:18.929069,-90
2021-10-14 14:50:18.929077,-14
2021-10-14 14:50:18.929086,238
2021-10-14 14:50:18.929094,630
2021-10-14 14:50:18.929102,802
2021-10-14 14:50:18.929111,299
2021-10-14 14:50:18.929119,-409
2021-10-14 14:50:18.929128,-353
2021-10-14 14:50:18.929136,39
2021-10-14 14:50:18.929145,-9
2021-10-14 14:50:18.929153,-100
2021-10-14 14:50:18.929162,-7
2021-10-14 14:50:18.929170,-4
2021-10-14 14:50:18.929179,-41
2021-10-14 14:50:18.929187,-4
2021-10-14 14:50:18.929195,17
2021-10-14 14:50:18.929204,17
2021-10-14 14:50:19.065043,44
2021-10-14 14:50:19.065073,76
2021-10-14 14:50:19.065082,85
2021-10-14 14:50:19.065091,105
2021-10-14 14:50:19.065099,139
2021-10-14 14:50:19.065108,166
2021-10-14 14:50:19.065116,186
2021-10-14 14:50:19.065125,198
2021-10-14 14:50:19.065133,223
2021-10-14 14:50:19.065141,264
2021-10-14 14:50:19.065150,291
2021-10-14 14:50:19.065158,299
2021-10-14 14:50:19.065166,296
2021-10-14 14:50:19.065175,289
2021-10-14 14:50:19.065183,282
2021-10-14 14:50:19.065192,269
2021-10-14 14:50:19.065200,240
2021-10-14 14:50:19.065208,184
2021-10-14 14:50:19.065217,115
2021-10-14 14:50:19.065225,53
2021-10-14 14:50:19.065233,-2
2021-10-14 14:50:19.065241,-49
2021-10-14 14:50:19.065250,-78
2021-10-14 14:50:19.065258,-100
2021-10-14 14:50:19.065266,-120
2021-10-14 14:50:19.065274,-125
2021-10-14 14:50:19.065283,-127
2021-10-14 14:50:19.065291,-127
2021-10-14 14:50:19.065299,-112
2021-10-14 14:50:19.065307,-98
2021-10-14 14:50:19.290304,-98
2021-10-14 14:50:19.290332,-93
2021-10-14 14:50:19.290342,-71
2021-10-14 14:50:19.290351,-56
2021-10-14 14:50:19.290359,-61
2021-10-14 14:50:19.290368,-63
2021-10-14 14:50:19.290376,-71
2021-10-14 14:50:19.290385,-71
2021-10-14 14:50:19.290393,-56
2021-10-14 14:50:19.290401,-53
2021-10-14 14:50:19.290410,-61
2021-10-14 14:50:19.290418,-66
2021-10-14 14:50:19.290427,-68
2021-10-14 14:50:19.290435,-73
2021-10-14 14:50:19.290443,-71
2021-10-14 14:50:19.290452,-68
2021-10-14 14:50:19.290460,-71
2021-10-14 14:50:19.290468,-66
2021-10-14 14:50:19.290477,-68
2021-10-14 14:50:19.290485,-73
2021-10-14 14:50:19.290493,-76
2021-10-14 14:50:19.290502,-71
2021-10-14 14:50:19.290510,-63
2021-10-14 14:50:19.290518,-68
2021-10-14 14:50:19.290527,-85
2021-10-14 14:50:19.290535,-88
2021-10-14 14:50:19.290543,-56
2021-10-14 14:50:19.290552,-22
2021-10-14 14:50:19.290560,-22
2021-10-14 14:50:19.290568,-39
2021-10-14 14:50:19.515300,-51
2021-10-14 14:50:19.515321,-68
2021-10-14 14:50:19.515330,-85
2021-10-14 14:50:19.515339,-90
2021-10-14 14:50:19.515347,-80
2021-10-14 14:50:19.515356,-80
2021-10-14 14:50:19.515364,-93
2021-10-14 14:50:19.515373,-80
2021-10-14 14:50:19.515381,-63
2021-10-14 14:50:19.515389,-73
2021-10-14 14:50:19.515398,-51
2021-10-14 14:50:19.515406,112
2021-10-14 14:50:19.515415,453
2021-10-14 14:50:19.515423,785
2021-10-14 14:50:19.515431,645
2021-10-14 14:50:19.515440,-105
2021-10-14 14:50:19.515448,-527
2021-10-14 14:50:19.515457,-147
2021-10-14 14:50:19.515465,78
2021-10-14 14:50:19.515473,-76
2021-10-14 14:50:19.515482,-39
2021-10-14 14:50:19.515490,46
2021-10-14 14:50:19.515499,0
2021-10-14 14:50:19.515507,-2
2021-10-14 14:50:19.515515,44
2021-10-14 14:50:19.515524,51
2021-10-14 14:50:19.515532,58
2021-10-14 14:50:19.515540,83
2021-10-14 14:50:19.515549,98
2021-10-14 14:50:19.515557,107
2021-10-14 14:50:19.739928,130
2021-10-14 14:50:19.739950,152
2021-10-14 14:50:19.739959,179
2021-10-14 14:50:19.739968,208
2021-10-14 14:50:19.739976,223
2021-10-14 14:50:19.739985,242
2021-10-14 14:50:19.739994,267
2021-10-14 14:50:19.740002,282
2021-10-14 14:50:19.740010,291
2021-10-14 14:50:19.740019,301
2021-10-14 14:50:19.740028,296
2021-10-14 14:50:19.740036,262
2021-10-14 14:50:19.740045,230
2021-10-14 14:50:19.740053,206
2021-10-14 14:50:19.740062,157
2021-10-14 14:50:19.740070,83
2021-10-14 14:50:19.740079,4
2021-10-14 14:50:19.740088,-63
2021-10-14 14:50:19.740096,-107
2021-10-14 14:50:19.740105,-130
2021-10-14 14:50:19.740113,-147
2021-10-14 14:50:19.740122,-171
2021-10-14 14:50:19.740131,-184
2021-10-14 14:50:19.740139,-174
2021-10-14 14:50:19.740148,-169
2021-10-14 14:50:19.740156,-174
2021-10-14 14:50:19.740165,-169
2021-10-14 14:50:19.740173,-161
2021-10-14 14:50:19.740182,-139
2021-10-14 14:50:19.740190,-110
2021-10-14 14:50:19.964871,-112
2021-10-14 14:50:19.964891,-120
2021-10-14 14:50:19.964901,-115
2021-10-14 14:50:19.964910,-122
2021-10-14 14:50:19.964919,-130
2021-10-14 14:50:19.964927,-130
2021-10-14 14:50:19.964936,-130
2021-10-14 14:50:19.964944,-125
2021-10-14 14:50:19.964953,-122
2021-10-14 14:50:19.964961,-134
2021-10-14 14:50:19.964970,-147
2021-10-14 14:50:19.964978,-147
2021-10-14 14:50:19.964987,-137
2021-10-14 14:50:19.964995,-125
2021-10-14 14:50:19.965003,-120
2021-10-14 14:50:19.965012,-127
2021-10-14 14:50:19.965020,-122
2021-10-14 14:50:19.965029,-117
2021-10-14 14:50:19.965037,-127
2021-10-14 14:50:19.965046,-120
2021-10-14 14:50:19.965054,-115
2021-10-14 14:50:19.965063,-137
2021-10-14 14:50:19.965071,-147
2021-10-14 14:50:19.965079,-125
2021-10-14 14:50:19.965088,-88
2021-10-14 14:50:19.965096,-58
2021-10-14 14:50:19.965105,-56
2021-10-14 14:50:19.965113,-63
2021-10-14 14:50:19.965121,-71
2021-10-14 14:50:19.965130,-88
2021-10-14 14:50:20.234986,-103
2021-10-14 14:50:20.235007,-88
2021-10-14 14:50:20.235016,-71
2021-10-14 14:50:20.235024,-83
2021-10-14 14:50:20.235032,-95
2021-10-14 14:50:20.235039,-80
2021-10-14 14:50:20.235047,-73
2021-10-14 14:50:20.235055,-76
2021-10-14 14:50:20.235064,0
2021-10-14 14:50:20.235072,250
2021-10-14 14:50:20.235080,603
2021-10-14 14:50:20.235088,718
2021-10-14 14:50:20.235096,188
2021-10-14 14:50:20.235104,-507
2021-10-14 14:50:20.235112,-404
2021-10-14 14:50:20.235119,46
2021-10-14 14:50:20.235127,17
2021-10-14 14:50:20.235135,-78
2021-10-14 14:50:20.235142,22
2021-10-14 14:50:20.235149,26
2021-10-14 14:50:20.235157,-9
2021-10-14 14:50:20.235165,36
2021-10-14 14:50:20.235172,76
2021-10-14 14:50:20.235180,68
2021-10-14 14:50:20.235188,78
2021-10-14 14:50:20.235196,112
2021-10-14 14:50:20.235203,134
2021-10-14 14:50:20.235211,147
2021-10-14 14:50:20.235218,171
2021-10-14 14:50:20.235226,198
2021-10-14 14:50:20.504685,220
2021-10-14 14:50:20.504708,242
2021-10-14 14:50:20.504717,260
2021-10-14 14:50:20.504726,287
2021-10-14 14:50:20.504735,314
2021-10-14 14:50:20.504743,323
2021-10-14 14:50:20.504752,316
2021-10-14 14:50:20.504760,304
2021-10-14 14:50:20.504819,291
2021-10-14 14:50:20.504829,272
2021-10-14 14:50:20.504837,233
2021-10-14 14:50:20.504846,176
2021-10-14 14:50:20.504854,117
2021-10-14 14:50:20.504862,36
2021-10-14 14:50:20.504871,-49
2021-10-14 14:50:20.504879,-100
2021-10-14 14:50:20.504888,-130
2021-10-14 14:50:20.504896,-166
2021-10-14 14:50:20.504905,-184
2021-10-14 14:50:20.504913,-186
2021-10-14 14:50:20.504922,-198
2021-10-14 14:50:20.504930,-191
2021-10-14 14:50:20.504938,-166
2021-10-14 14:50:20.504947,-159
2021-10-14 14:50:20.504955,-157
2021-10-14 14:50:20.504964,-139
2021-10-14 14:50:20.504973,-132
2021-10-14 14:50:20.504981,-125
2021-10-14 14:50:20.504990,-110
2021-10-14 14:50:20.504998,-103
2021-10-14 14:50:20.685310,-95
2021-10-14 14:50:20.685331,-88
2021-10-14 14:50:20.685340,-103
2021-10-14 14:50:20.685349,-112
2021-10-14 14:50:20.685358,-98
2021-10-14 14:50:20.685366,-95
2021-10-14 14:50:20.685374,-112
2021-10-14 14:50:20.685383,-120
2021-10-14 14:50:20.685391,-130
2021-10-14 14:50:20.685400,-147
2021-10-14 14:50:20.685408,-157
2021-10-14 14:50:20.685416,-152
2021-10-14 14:50:20.685425,-142
2021-10-14 14:50:20.685433,-142
2021-10-14 14:50:20.685441,-152
2021-10-14 14:50:20.685450,-147
2021-10-14 14:50:20.685458,-107
2021-10-14 14:50:20.685467,-73
2021-10-14 14:50:20.685475,-71
2021-10-14 14:50:20.685483,-85
2021-10-14 14:50:20.685492,-88
2021-10-14 14:50:20.685500,-95
2021-10-14 14:50:20.685508,-117
2021-10-14 14:50:20.685517,-122
2021-10-14 14:50:20.685525,-107
2021-10-14 14:50:20.685533,-88
2021-10-14 14:50:20.685542,-85
2021-10-14 14:50:20.685550,-93
2021-10-14 14:50:20.685558,-88
2021-10-14 14:50:20.685567,-78
2021-10-14 14:50:20.998571,-51
2021-10-14 14:50:20.998591,44
2021-10-14 14:50:20.998601,287
2021-10-14 14:50:20.998610,571
2021-10-14 14:50:20.998618,556
2021-10-14 14:50:20.998627,22
2021-10-14 14:50:20.998635,-493
2021-10-14 14:50:20.998644,-309
2021-10-14 14:50:20.998652,34
2021-10-14 14:50:20.998660,-39
2021-10-14 14:50:20.998669,-98
2021-10-14 14:50:20.998677,-4
2021-10-14 14:50:20.998685,-9
2021-10-14 14:50:20.998694,-36
2021-10-14 14:50:20.998702,4
2021-10-14 14:50:20.998711,34
2021-10-14 14:50:20.998719,31
2021-10-14 14:50:20.998727,46
2021-10-14 14:50:20.998736,68
2021-10-14 14:50:20.998744,83
2021-10-14 14:50:20.998752,110
2021-10-14 14:50:20.998761,137
2021-10-14 14:50:20.998769,149
2021-10-14 14:50:20.998777,184
2021-10-14 14:50:20.998786,233
2021-10-14 14:50:20.998794,252
2021-10-14 14:50:20.998802,264
2021-10-14 14:50:20.998811,294
2021-10-14 14:50:20.998819,311
2021-10-14 14:50:20.998827,309
2021-10-14 14:50:21.179919,294
2021-10-14 14:50:21.179942,274
2021-10-14 14:50:21.179952,252
2021-10-14 14:50:21.179960,223
2021-10-14 14:50:21.179969,154
2021-10-14 14:50:21.179977,68
2021-10-14 14:50:21.179986,-12
2021-10-14 14:50:21.179994,-78
