Time,ECG
2021-10-14 14:29:46.194093,326
2021-10-14 14:29:46.194111,333
2021-10-14 14:29:46.194121,338
2021-10-14 14:29:46.194130,328
2021-10-14 14:29:46.194138,299
2021-10-14 14:29:46.194147,255
2021-10-14 14:29:46.194156,186
2021-10-14 14:29:46.194164,95
2021-10-14 14:29:46.194172,-2
2021-10-14 14:29:46.194181,-88
2021-10-14 14:29:46.194190,-152
2021-10-14 14:29:46.194198,-196
2021-10-14 14:29:46.194206,-211
2021-10-14 14:29:46.194215,-211
2021-10-14 14:29:46.194223,-230
2021-10-14 14:29:46.194231,-245
2021-10-14 14:29:46.194240,-228
2021-10-14 14:29:46.194248,-206
2021-10-14 14:29:46.194257,-198
2021-10-14 14:29:46.194265,-186
2021-10-14 14:29:46.194273,-179
2021-10-14 14:29:46.194282,-181
2021-10-14 14:29:46.194290,-184
2021-10-14 14:29:46.194299,-176
2021-10-14 14:29:46.194307,-164
2021-10-14 14:29:46.194315,-157
2021-10-14 14:29:46.197160,-157
2021-10-14 14:29:46.197193,-152
2021-10-14 14:29:46.197203,-144
2021-10-14 14:29:46.197212,-137
2021-10-14 14:29:46.197348,-130
2021-10-14 14:29:46.197359,-132
2021-10-14 14:29:46.197368,-137
2021-10-14 14:29:46.197377,-132
2021-10-14 14:29:46.197385,-122
2021-10-14 14:29:46.197394,-120
2021-10-14 14:29:46.197403,-120
2021-10-14 14:29:46.197411,-120
2021-10-14 14:29:46.197420,-125
2021-10-14 14:29:46.197428,-130
2021-10-14 14:29:46.197437,-122
2021-10-14 14:29:46.197445,-112
2021-10-14 14:29:46.197453,-112
2021-10-14 14:29:46.197462,-122
2021-10-14 14:29:46.197470,-125
2021-10-14 14:29:46.197479,-120
2021-10-14 14:29:46.197487,-112
2021-10-14 14:29:46.197496,-110
2021-10-14 14:29:46.197505,-115
2021-10-14 14:29:46.197513,-105
2021-10-14 14:29:46.197522,-68
2021-10-14 14:29:46.197530,-36
2021-10-14 14:29:46.197539,-29
2021-10-14 14:29:46.197547,-26
2021-10-14 14:29:46.197555,-24
2021-10-14 14:29:46.197564,-41
2021-10-14 14:29:46.197572,-66
2021-10-14 14:29:46.197580,-73
2021-10-14 14:29:46.197589,-61
2021-10-14 14:29:46.197601,-46
2021-10-14 14:29:46.318358,-41
2021-10-14 14:29:46.318378,-46
2021-10-14 14:29:46.318387,-46
2021-10-14 14:29:46.318395,-36
2021-10-14 14:29:46.318404,29
2021-10-14 14:29:46.318413,252
2021-10-14 14:29:46.318421,623
2021-10-14 14:29:46.318430,871
2021-10-14 14:29:46.318438,552
2021-10-14 14:29:46.318447,-245
2021-10-14 14:29:46.318455,-488
2021-10-14 14:29:46.318464,-17
2021-10-14 14:29:46.318472,110
2021-10-14 14:29:46.318484,-90
2021-10-14 14:29:46.318493,-49
2021-10-14 14:29:46.318502,9
2021-10-14 14:29:46.318510,-44
2021-10-14 14:29:46.318518,-22
2021-10-14 14:29:46.318527,26
2021-10-14 14:29:46.318535,22
2021-10-14 14:29:46.318544,22
2021-10-14 14:29:46.318552,53
2021-10-14 14:29:46.318561,80
2021-10-14 14:29:46.318569,100
2021-10-14 14:29:46.318578,127
2021-10-14 14:29:46.318587,157
2021-10-14 14:29:46.318596,184
2021-10-14 14:29:46.318604,208
2021-10-14 14:29:46.318613,225
2021-10-14 14:29:46.318631,250
2021-10-14 14:29:46.587390,287
2021-10-14 14:29:46.587411,311
2021-10-14 14:29:46.587421,321
2021-10-14 14:29:46.587430,331
2021-10-14 14:29:46.587438,333
2021-10-14 14:29:46.587447,309
2021-10-14 14:29:46.587455,262
2021-10-14 14:29:46.587464,198
2021-10-14 14:29:46.587472,117
2021-10-14 14:29:46.587481,31
2021-10-14 14:29:46.587489,-44
2021-10-14 14:29:46.587498,-112
2021-10-14 14:29:46.587506,-174
2021-10-14 14:29:46.587515,-208
2021-10-14 14:29:46.587524,-211
2021-10-14 14:29:46.587532,-213
2021-10-14 14:29:46.587541,-223
2021-10-14 14:29:46.587552,-223
2021-10-14 14:29:46.587561,-215
2021-10-14 14:29:46.587569,-201
2021-10-14 14:29:46.587577,-188
2021-10-14 14:29:46.587586,-179
2021-10-14 14:29:46.587595,-169
2021-10-14 14:29:46.587603,-157
2021-10-14 14:29:46.587611,-139
2021-10-14 14:29:46.587620,-120
2021-10-14 14:29:46.587628,-112
2021-10-14 14:29:46.587637,-120
2021-10-14 14:29:46.587645,-112
2021-10-14 14:29:46.587654,-103
2021-10-14 14:29:46.768735,-100
2021-10-14 14:29:46.768755,-98
2021-10-14 14:29:46.768764,-93
2021-10-14 14:29:46.768773,-90
2021-10-14 14:29:46.768781,-88
2021-10-14 14:29:46.768790,-95
2021-10-14 14:29:46.768798,-100
2021-10-14 14:29:46.768811,-88
2021-10-14 14:29:46.768819,-80
2021-10-14 14:29:46.768828,-85
2021-10-14 14:29:46.768836,-88
2021-10-14 14:29:46.768844,-85
2021-10-14 14:29:46.768853,-85
2021-10-14 14:29:46.768861,-78
2021-10-14 14:29:46.768870,-73
2021-10-14 14:29:46.768878,-76
2021-10-14 14:29:46.768887,-68
2021-10-14 14:29:46.768895,-63
2021-10-14 14:29:46.768903,-78
2021-10-14 14:29:46.768912,-93
2021-10-14 14:29:46.768920,-76
2021-10-14 14:29:46.768928,-36
2021-10-14 14:29:46.768937,-2
2021-10-14 14:29:46.768945,2
2021-10-14 14:29:46.768953,-4
2021-10-14 14:29:46.768962,0
2021-10-14 14:29:46.768970,-9
2021-10-14 14:29:46.768978,-34
2021-10-14 14:29:46.768987,-44
2021-10-14 14:29:46.768996,-26
2021-10-14 14:29:46.993337,-12
2021-10-14 14:29:46.993358,-19
2021-10-14 14:29:46.993368,-24
2021-10-14 14:29:46.993376,-24
2021-10-14 14:29:46.993385,-39
2021-10-14 14:29:46.993393,-24
2021-10-14 14:29:46.993401,139
2021-10-14 14:29:46.993410,488
2021-10-14 14:29:46.993418,844
2021-10-14 14:29:46.993426,792
2021-10-14 14:29:46.993435,100
2021-10-14 14:29:46.993443,-451
2021-10-14 14:29:46.993451,-169
2021-10-14 14:29:46.993459,122
2021-10-14 14:29:46.993468,-36
2021-10-14 14:29:46.993476,-71
2021-10-14 14:29:46.993484,22
2021-10-14 14:29:46.993492,-7
2021-10-14 14:29:46.993500,-17
2021-10-14 14:29:46.993509,31
2021-10-14 14:29:46.993517,24
2021-10-14 14:29:46.993525,4
2021-10-14 14:29:46.993533,31
2021-10-14 14:29:46.993542,56
2021-10-14 14:29:46.993555,66
2021-10-14 14:29:46.993564,95
2021-10-14 14:29:46.993572,134
2021-10-14 14:29:46.993580,154
2021-10-14 14:29:46.993589,174
2021-10-14 14:29:46.993597,211
2021-10-14 14:29:47.263519,247
2021-10-14 14:29:47.263540,272
2021-10-14 14:29:47.263549,291
2021-10-14 14:29:47.263557,309
2021-10-14 14:29:47.263564,309
2021-10-14 14:29:47.263572,301
2021-10-14 14:29:47.263580,299
2021-10-14 14:29:47.263587,287
2021-10-14 14:29:47.263595,242
2021-10-14 14:29:47.263603,157
2021-10-14 14:29:47.263610,58
2021-10-14 14:29:47.263618,-17
2021-10-14 14:29:47.263626,-76
2021-10-14 14:29:47.263634,-130
2021-10-14 14:29:47.263641,-171
2021-10-14 14:29:47.263649,-188
2021-10-14 14:29:47.263657,-196
2021-10-14 14:29:47.263664,-191
2021-10-14 14:29:47.263673,-179
2021-10-14 14:29:47.263680,-171
2021-10-14 14:29:47.263688,-171
2021-10-14 14:29:47.263696,-164
2021-10-14 14:29:47.263712,-154
2021-10-14 14:29:47.263720,-147
2021-10-14 14:29:47.263728,-134
2021-10-14 14:29:47.263735,-125
2021-10-14 14:29:47.263743,-120
2021-10-14 14:29:47.263751,-115
2021-10-14 14:29:47.263759,-110
2021-10-14 14:29:47.263766,-110
2021-10-14 14:29:47.502756,-105
2021-10-14 14:29:47.502778,-95
2021-10-14 14:29:47.502791,-88
2021-10-14 14:29:47.502803,-105
2021-10-14 14:29:47.502815,-117
2021-10-14 14:29:47.502824,-105
2021-10-14 14:29:47.502831,-95
2021-10-14 14:29:47.502838,-100
2021-10-14 14:29:47.502845,-98
2021-10-14 14:29:47.502853,-93
2021-10-14 14:29:47.502860,-95
2021-10-14 14:29:47.502867,-105
2021-10-14 14:29:47.502874,-100
2021-10-14 14:29:47.502881,-85
2021-10-14 14:29:47.502888,-93
2021-10-14 14:29:47.502895,-105
2021-10-14 14:29:47.502916,-98
2021-10-14 14:29:47.502928,-85
2021-10-14 14:29:47.502935,-83
2021-10-14 14:29:47.502945,-80
2021-10-14 14:29:47.502952,-73
2021-10-14 14:29:47.502959,-73
2021-10-14 14:29:47.502966,-80
2021-10-14 14:29:47.502974,-85
2021-10-14 14:29:47.502987,-73
2021-10-14 14:29:47.502995,-46
2021-10-14 14:29:47.503002,-17
2021-10-14 14:29:47.503010,-2
2021-10-14 14:29:47.503018,-9
2021-10-14 14:29:47.503025,-19
2021-10-14 14:29:47.713767,-26
2021-10-14 14:29:47.713787,-36
2021-10-14 14:29:47.713796,-46
2021-10-14 14:29:47.713805,-51
2021-10-14 14:29:47.713813,-44
2021-10-14 14:29:47.713822,-31
2021-10-14 14:29:47.713830,-29
2021-10-14 14:29:47.713839,-34
2021-10-14 14:29:47.713847,-36
2021-10-14 14:29:47.713855,-14
2021-10-14 14:29:47.713863,149
2021-10-14 14:29:47.713871,505
2021-10-14 14:29:47.713907,844
2021-10-14 14:29:47.713918,748
2021-10-14 14:29:47.713926,36
2021-10-14 14:29:47.713934,-483
2021-10-14 14:29:47.713942,-174
2021-10-14 14:29:47.713951,115
2021-10-14 14:29:47.713959,-36
2021-10-14 14:29:47.713968,-68
2021-10-14 14:29:47.713976,17
2021-10-14 14:29:47.713984,-29
2021-10-14 14:29:47.713993,-46
2021-10-14 14:29:47.714001,12
2021-10-14 14:29:47.714009,31
2021-10-14 14:29:47.714018,29
2021-10-14 14:29:47.714026,46
2021-10-14 14:29:47.714034,58
2021-10-14 14:29:47.714043,73
2021-10-14 14:29:47.714051,103
2021-10-14 14:29:47.938776,134
2021-10-14 14:29:47.938796,161
2021-10-14 14:29:47.938806,181
2021-10-14 14:29:47.938814,203
2021-10-14 14:29:47.938823,240
2021-10-14 14:29:47.938831,274
2021-10-14 14:29:47.938840,291
2021-10-14 14:29:47.938848,299
2021-10-14 14:29:47.938857,301
2021-10-14 14:29:47.938865,296
2021-10-14 14:29:47.938874,296
2021-10-14 14:29:47.938882,279
2021-10-14 14:29:47.938890,240
2021-10-14 14:29:47.938898,171
2021-10-14 14:29:47.938907,78
2021-10-14 14:29:47.938915,-7
2021-10-14 14:29:47.938959,-83
2021-10-14 14:29:47.938970,-147
2021-10-14 14:29:47.938979,-186
2021-10-14 14:29:47.938987,-208
2021-10-14 14:29:47.938996,-233
2021-10-14 14:29:47.939004,-238
2021-10-14 14:29:47.939013,-220
2021-10-14 14:29:47.939021,-203
2021-10-14 14:29:47.939029,-193
2021-10-14 14:29:47.939038,-188
2021-10-14 14:29:47.939046,-188
2021-10-14 14:29:47.939054,-176
2021-10-14 14:29:47.939063,-159
2021-10-14 14:29:47.939071,-157
2021-10-14 14:29:48.164180,-166
2021-10-14 14:29:48.164235,-157
2021-10-14 14:29:48.164271,-139
2021-10-14 14:29:48.164289,-134
2021-10-14 14:29:48.164308,-134
2021-10-14 14:29:48.164325,-127
2021-10-14 14:29:48.164343,-125
2021-10-14 14:29:48.164359,-137
2021-10-14 14:29:48.164377,-144
2021-10-14 14:29:48.164397,-134
2021-10-14 14:29:48.164429,-125
2021-10-14 14:29:48.164446,-125
2021-10-14 14:29:48.164459,-122
2021-10-14 14:29:48.164476,-127
2021-10-14 14:29:48.164493,-132
2021-10-14 14:29:48.164507,-125
2021-10-14 14:29:48.164520,-117
2021-10-14 14:29:48.164547,-112
2021-10-14 14:29:48.164564,-107
2021-10-14 14:29:48.164581,-100
2021-10-14 14:29:48.164599,-98
2021-10-14 14:29:48.164615,-105
2021-10-14 14:29:48.164632,-98
2021-10-14 14:29:48.164650,-78
2021-10-14 14:29:48.164668,-80
2021-10-14 14:29:48.164687,-98
2021-10-14 14:29:48.164705,-100
2021-10-14 14:29:48.164722,-71
2021-10-14 14:29:48.164739,-29
2021-10-14 14:29:48.164759,-4
2021-10-14 14:29:48.388706,-12
2021-10-14 14:29:48.388726,-29
2021-10-14 14:29:48.388735,-41
2021-10-14 14:29:48.388744,-58
2021-10-14 14:29:48.388753,-63
2021-10-14 14:29:48.388762,-49
2021-10-14 14:29:48.388770,-49
2021-10-14 14:29:48.388779,-63
2021-10-14 14:29:48.388787,-61
2021-10-14 14:29:48.388796,-58
2021-10-14 14:29:48.388804,-58
2021-10-14 14:29:48.388812,-26
2021-10-14 14:29:48.388821,112
2021-10-14 14:29:48.388829,434
2021-10-14 14:29:48.388837,792
2021-10-14 14:29:48.388846,760
2021-10-14 14:29:48.388854,58
2021-10-14 14:29:48.388862,-561
2021-10-14 14:29:48.388871,-274
2021-10-14 14:29:48.388879,117
2021-10-14 14:29:48.388888,-24
2021-10-14 14:29:48.388896,-105
2021-10-14 14:29:48.388905,-14
2021-10-14 14:29:48.388913,-34
2021-10-14 14:29:48.388922,-58
2021-10-14 14:29:48.388937,-12
2021-10-14 14:29:48.388946,4
2021-10-14 14:29:48.388954,4
2021-10-14 14:29:48.388962,34
2021-10-14 14:29:48.388971,61
2021-10-14 14:29:48.702412,73
2021-10-14 14:29:48.702433,95
2021-10-14 14:29:48.702442,125
2021-10-14 14:29:48.702451,149
2021-10-14 14:29:48.702459,176
2021-10-14 14:29:48.702468,208
2021-10-14 14:29:48.702476,238
2021-10-14 14:29:48.702485,267
2021-10-14 14:29:48.702493,296
2021-10-14 14:29:48.702502,316
2021-10-14 14:29:48.702510,326
2021-10-14 14:29:48.702519,323
2021-10-14 14:29:48.702527,311
2021-10-14 14:29:48.702536,291
2021-10-14 14:29:48.702544,245
2021-10-14 14:29:48.702552,164
2021-10-14 14:29:48.702561,76
2021-10-14 14:29:48.702570,-7
2021-10-14 14:29:48.702578,-83
2021-10-14 14:29:48.702587,-142
2021-10-14 14:29:48.702596,-184
2021-10-14 14:29:48.702604,-208
2021-10-14 14:29:48.702612,-211
2021-10-14 14:29:48.702621,-211
2021-10-14 14:29:48.702629,-211
2021-10-14 14:29:48.702637,-201
2021-10-14 14:29:48.702646,-188
2021-10-14 14:29:48.702654,-174
2021-10-14 14:29:48.702663,-164
2021-10-14 14:29:48.702671,-157
2021-10-14 14:29:48.838836,-147
2021-10-14 14:29:48.838855,-132
2021-10-14 14:29:48.838864,-122
2021-10-14 14:29:48.838873,-117
2021-10-14 14:29:48.838881,-115
2021-10-14 14:29:48.838890,-115
2021-10-14 14:29:48.838898,-115
2021-10-14 14:29:48.838907,-100
2021-10-14 14:29:48.838915,-88
2021-10-14 14:29:48.838923,-93
2021-10-14 14:29:48.838932,-98
2021-10-14 14:29:48.838940,-98
2021-10-14 14:29:48.838949,-100
2021-10-14 14:29:48.838957,-93
2021-10-14 14:29:48.838966,-85
2021-10-14 14:29:48.838974,-93
2021-10-14 14:29:48.838985,-88
2021-10-14 14:29:48.838994,-68
2021-10-14 14:29:48.839002,-56
2021-10-14 14:29:48.839011,-58
2021-10-14 14:29:48.839019,-51
2021-10-14 14:29:48.839028,-36
2021-10-14 14:29:48.839036,-31
2021-10-14 14:29:48.839044,-34
2021-10-14 14:29:48.839052,-39
2021-10-14 14:29:48.839061,-46
2021-10-14 14:29:48.839069,-44
2021-10-14 14:29:48.839078,-19
2021-10-14 14:29:48.839086,7
2021-10-14 14:29:48.839094,12
2021-10-14 14:29:49.108896,7
2021-10-14 14:29:49.108919,9
2021-10-14 14:29:49.108929,2
2021-10-14 14:29:49.108939,-24
2021-10-14 14:29:49.108949,-39
2021-10-14 14:29:49.108958,-26
2021-10-14 14:29:49.108967,-12
2021-10-14 14:29:49.108976,-19
2021-10-14 14:29:49.108985,-34
2021-10-14 14:29:49.108994,-41
2021-10-14 14:29:49.109003,-46
2021-10-14 14:29:49.109012,-12
2021-10-14 14:29:49.109022,149
2021-10-14 14:29:49.109031,488
2021-10-14 14:29:49.109040,861
2021-10-14 14:29:49.109050,831
2021-10-14 14:29:49.109059,130
2021-10-14 14:29:49.109069,-444
2021-10-14 14:29:49.109078,-147
2021-10-14 14:29:49.109087,164
2021-10-14 14:29:49.109096,0
2021-10-14 14:29:49.109105,-36
2021-10-14 14:29:49.109114,61
2021-10-14 14:29:49.109123,34
2021-10-14 14:29:49.109132,22
2021-10-14 14:29:49.109141,68
2021-10-14 14:29:49.109150,71
2021-10-14 14:29:49.109159,63
2021-10-14 14:29:49.109168,88
2021-10-14 14:29:49.109177,110
2021-10-14 14:29:49.333977,125
2021-10-14 14:29:49.333998,149
2021-10-14 14:29:49.334008,171
2021-10-14 14:29:49.334016,184
2021-10-14 14:29:49.334025,208
2021-10-14 14:29:49.334034,247
2021-10-14 14:29:49.334042,282
2021-10-14 14:29:49.334051,311
2021-10-14 14:29:49.334059,333
2021-10-14 14:29:49.334068,338
2021-10-14 14:29:49.334076,341
2021-10-14 14:29:49.334085,350
2021-10-14 14:29:49.334093,345
2021-10-14 14:29:49.334105,316
2021-10-14 14:29:49.334113,262
2021-10-14 14:29:49.334122,174
2021-10-14 14:29:49.334130,76
2021-10-14 14:29:49.334139,4
2021-10-14 14:29:49.334147,-56
2021-10-14 14:29:49.334156,-117
2021-10-14 14:29:49.334165,-154
2021-10-14 14:29:49.334174,-174
2021-10-14 14:29:49.334182,-176
2021-10-14 14:29:49.334191,-171
2021-10-14 14:29:49.334199,-164
2021-10-14 14:29:49.334207,-159
2021-10-14 14:29:49.334216,-159
2021-10-14 14:29:49.334224,-157
2021-10-14 14:29:49.334233,-139
2021-10-14 14:29:49.334241,-120
2021-10-14 14:29:49.558420,-112
2021-10-14 14:29:49.558441,-110
2021-10-14 14:29:49.558451,-112
2021-10-14 14:29:49.558459,-115
2021-10-14 14:29:49.558468,-105
2021-10-14 14:29:49.558476,-93
2021-10-14 14:29:49.558485,-90
2021-10-14 14:29:49.558493,-88
2021-10-14 14:29:49.558502,-93
2021-10-14 14:29:49.558510,-100
2021-10-14 14:29:49.558518,-98
2021-10-14 14:29:49.558527,-95
2021-10-14 14:29:49.558535,-93
2021-10-14 14:29:49.558543,-88
2021-10-14 14:29:49.558552,-98
2021-10-14 14:29:49.558560,-112
2021-10-14 14:29:49.558568,-100
2021-10-14 14:29:49.558577,-85
2021-10-14 14:29:49.558585,-95
2021-10-14 14:29:49.558593,-95
2021-10-14 14:29:49.558601,-83
2021-10-14 14:29:49.558610,-78
2021-10-14 14:29:49.558618,-76
2021-10-14 14:29:49.558626,-63
2021-10-14 14:29:49.558635,-53
2021-10-14 14:29:49.558643,-51
2021-10-14 14:29:49.558651,-51
2021-10-14 14:29:49.558659,-58
2021-10-14 14:29:49.558668,-68
2021-10-14 14:29:49.558676,-56
2021-10-14 14:29:49.828809,-14
2021-10-14 14:29:49.828832,22
2021-10-14 14:29:49.828841,17
2021-10-14 14:29:49.828850,0
2021-10-14 14:29:49.828858,4
2021-10-14 14:29:49.828867,-2
2021-10-14 14:29:49.828875,-17
2021-10-14 14:29:49.828884,-24
2021-10-14 14:29:49.828892,-29
2021-10-14 14:29:49.828900,-36
2021-10-14 14:29:49.828909,-29
2021-10-14 14:29:49.828932,-12
2021-10-14 14:29:49.829023,-9
2021-10-14 14:29:49.829031,-26
2021-10-14 14:29:49.829038,0
2021-10-14 14:29:49.829045,196
2021-10-14 14:29:49.829052,569
2021-10-14 14:29:49.829063,880
2021-10-14 14:29:49.829071,689
2021-10-14 14:29:49.829078,-61
2021-10-14 14:29:49.829085,-449
2021-10-14 14:29:49.829093,-78
2021-10-14 14:29:49.829101,120
2021-10-14 14:29:49.829109,-46
2021-10-14 14:29:49.829117,-29
2021-10-14 14:29:49.829126,46
2021-10-14 14:29:49.829134,-2
2021-10-14 14:29:49.829143,-2
2021-10-14 14:29:49.829151,44
2021-10-14 14:29:49.829159,36
2021-10-14 14:29:50.008851,31
2021-10-14 14:29:50.008872,61
2021-10-14 14:29:50.008881,80
2021-10-14 14:29:50.008889,95
2021-10-14 14:29:50.008897,120
2021-10-14 14:29:50.008904,147
2021-10-14 14:29:50.008911,174
2021-10-14 14:29:50.008918,196
2021-10-14 14:29:50.008926,211
2021-10-14 14:29:50.008933,228
2021-10-14 14:29:50.008941,257
2021-10-14 14:29:50.008949,284
2021-10-14 14:29:50.008956,296
2021-10-14 14:29:50.008963,299
2021-10-14 14:29:50.008971,287
2021-10-14 14:29:50.008978,269
2021-10-14 14:29:50.008986,242
2021-10-14 14:29:50.008994,191
2021-10-14 14:29:50.009002,120
2021-10-14 14:29:50.009009,34
2021-10-14 14:29:50.009017,-41
2021-10-14 14:29:50.009026,-105
2021-10-14 14:29:50.009034,-157
2021-10-14 14:29:50.009042,-186
2021-10-14 14:29:50.009050,-201
2021-10-14 14:29:50.009058,-211
2021-10-14 14:29:50.009067,-213
2021-10-14 14:29:50.009075,-206
2021-10-14 14:29:50.009084,-196
2021-10-14 14:29:50.009092,-184
2021-10-14 14:29:50.233344,-176
2021-10-14 14:29:50.233365,-171
2021-10-14 14:29:50.233374,-161
2021-10-14 14:29:50.233383,-149
2021-10-14 14:29:50.233391,-134
2021-10-14 14:29:50.233400,-127
2021-10-14 14:29:50.233408,-127
2021-10-14 14:29:50.233417,-132
2021-10-14 14:29:50.233425,-130
2021-10-14 14:29:50.233434,-127
2021-10-14 14:29:50.233442,-120
2021-10-14 14:29:50.233450,-115
2021-10-14 14:29:50.233459,-122
2021-10-14 14:29:50.233467,-127
2021-10-14 14:29:50.233476,-117
2021-10-14 14:29:50.233484,-107
2021-10-14 14:29:50.233493,-112
2021-10-14 14:29:50.233501,-125
2021-10-14 14:29:50.233510,-132
2021-10-14 14:29:50.233518,-117
2021-10-14 14:29:50.233526,-105
2021-10-14 14:29:50.233535,-105
2021-10-14 14:29:50.233543,-105
2021-10-14 14:29:50.233552,-103
2021-10-14 14:29:50.233560,-107
2021-10-14 14:29:50.233568,-105
2021-10-14 14:29:50.233577,-90
2021-10-14 14:29:50.233585,-71
2021-10-14 14:29:50.233594,-71
2021-10-14 14:29:50.233605,-76
2021-10-14 14:29:50.458730,-78
2021-10-14 14:29:50.458751,-88
2021-10-14 14:29:50.458760,-88
2021-10-14 14:29:50.458768,-53
2021-10-14 14:29:50.458777,-9
2021-10-14 14:29:50.458786,-7
2021-10-14 14:29:50.458794,-31
2021-10-14 14:29:50.458802,-34
2021-10-14 14:29:50.458810,-31
2021-10-14 14:29:50.458819,-51
2021-10-14 14:29:50.458827,-53
2021-10-14 14:29:50.458835,-53
2021-10-14 14:29:50.458844,-66
2021-10-14 14:29:50.458852,-66
2021-10-14 14:29:50.458861,-66
2021-10-14 14:29:50.458869,-78
2021-10-14 14:29:50.458877,-71
2021-10-14 14:29:50.458886,-17
2021-10-14 14:29:50.458894,191
2021-10-14 14:29:50.458903,569
2021-10-14 14:29:50.458911,853
2021-10-14 14:29:50.458919,576
2021-10-14 14:29:50.458928,-228
2021-10-14 14:29:50.458936,-554
2021-10-14 14:29:50.458944,-103
2021-10-14 14:29:50.458953,90
2021-10-14 14:29:50.458961,-83
2021-10-14 14:29:50.458969,-56
2021-10-14 14:29:50.458977,12
2021-10-14 14:29:50.458986,-31
2021-10-14 14:29:50.727394,-29
2021-10-14 14:29:50.727414,9
2021-10-14 14:29:50.727424,12
2021-10-14 14:29:50.727432,24
2021-10-14 14:29:50.727441,49
2021-10-14 14:29:50.727449,53
2021-10-14 14:29:50.727458,68
2021-10-14 14:29:50.727466,107
2021-10-14 14:29:50.727475,139
2021-10-14 14:29:50.727484,159
2021-10-14 14:29:50.727492,184
2021-10-14 14:29:50.727501,206
2021-10-14 14:29:50.727509,238
2021-10-14 14:29:50.727518,287
2021-10-14 14:29:50.727526,316
2021-10-14 14:29:50.727535,316
2021-10-14 14:29:50.727543,321
2021-10-14 14:29:50.727551,323
2021-10-14 14:29:50.727560,311
2021-10-14 14:29:50.727568,279
2021-10-14 14:29:50.727577,223
2021-10-14 14:29:50.727586,137
2021-10-14 14:29:50.727594,46
2021-10-14 14:29:50.727603,-31
2021-10-14 14:29:50.727611,-105
2021-10-14 14:29:50.727619,-154
2021-10-14 14:29:50.727628,-186
2021-10-14 14:29:50.727636,-213
2021-10-14 14:29:50.727645,-225
2021-10-14 14:29:50.727653,-218
2021-10-14 14:29:50.908676,-203
2021-10-14 14:29:50.908696,-201
2021-10-14 14:29:50.908705,-198
2021-10-14 14:29:50.908714,-184
2021-10-14 14:29:50.908721,-174
2021-10-14 14:29:50.908729,-179
2021-10-14 14:29:50.908737,-169
2021-10-14 14:29:50.908757,-144
2021-10-14 14:29:50.908780,-134
2021-10-14 14:29:50.908814,-144
2021-10-14 14:29:50.908827,-144
2021-10-14 14:29:50.908836,-139
2021-10-14 14:29:50.908844,-130
2021-10-14 14:29:50.908853,-120
2021-10-14 14:29:50.908861,-117
2021-10-14 14:29:50.908870,-120
2021-10-14 14:29:50.908878,-117
2021-10-14 14:29:50.908887,-110
2021-10-14 14:29:50.908895,-115
2021-10-14 14:29:50.908904,-134
2021-10-14 14:29:50.908915,-139
2021-10-14 14:29:50.908924,-127
2021-10-14 14:29:50.908932,-127
2021-10-14 14:29:50.908940,-134
2021-10-14 14:29:50.908948,-125
2021-10-14 14:29:50.908957,-110
2021-10-14 14:29:50.908965,-112
2021-10-14 14:29:50.908974,-112
2021-10-14 14:29:50.908982,-103
2021-10-14 14:29:50.908990,-95
2021-10-14 14:29:51.133399,-93
2021-10-14 14:29:51.133419,-85
2021-10-14 14:29:51.133428,-83
2021-10-14 14:29:51.133437,-95
2021-10-14 14:29:51.133446,-107
2021-10-14 14:29:51.133454,-93
2021-10-14 14:29:51.133462,-56
2021-10-14 14:29:51.133471,-17
2021-10-14 14:29:51.133479,-9
2021-10-14 14:29:51.133487,-26
2021-10-14 14:29:51.133496,-39
2021-10-14 14:29:51.133504,-41
2021-10-14 14:29:51.133513,-51
2021-10-14 14:29:51.133521,-56
2021-10-14 14:29:51.133529,-46
2021-10-14 14:29:51.133538,-39
2021-10-14 14:29:51.133546,-36
2021-10-14 14:29:51.133554,-29
2021-10-14 14:29:51.133563,-26
2021-10-14 14:29:51.133571,-22
2021-10-14 14:29:51.133579,24
2021-10-14 14:29:51.133588,211
2021-10-14 14:29:51.133596,574
2021-10-14 14:29:51.133604,890
2021-10-14 14:29:51.133613,689
2021-10-14 14:29:51.133621,-100
2021-10-14 14:29:51.133629,-498
2021-10-14 14:29:51.133637,-80
2021-10-14 14:29:51.133646,139
2021-10-14 14:29:51.133654,-41
2021-10-14 14:29:51.403821,-19
2021-10-14 14:29:51.403844,66
2021-10-14 14:29:51.403855,0
2021-10-14 14:29:51.403864,-12
2021-10-14 14:29:51.403873,41
2021-10-14 14:29:51.403882,44
2021-10-14 14:29:51.403891,44
2021-10-14 14:29:51.403900,78
2021-10-14 14:29:51.403908,93
2021-10-14 14:29:51.403917,90
2021-10-14 14:29:51.403926,115
2021-10-14 14:29:51.403935,154
2021-10-14 14:29:51.403944,188
2021-10-14 14:29:51.403952,220
2021-10-14 14:29:51.403961,250
2021-10-14 14:29:51.403970,274
2021-10-14 14:29:51.403979,301
2021-10-14 14:29:51.403987,333
2021-10-14 14:29:51.403996,350
2021-10-14 14:29:51.404005,360
2021-10-14 14:29:51.404014,358
2021-10-14 14:29:51.404023,333
2021-10-14 14:29:51.404031,299
2021-10-14 14:29:51.404039,252
2021-10-14 14:29:51.404047,166
2021-10-14 14:29:51.404056,63
2021-10-14 14:29:51.404065,-19
2021-10-14 14:29:51.404074,-90
2021-10-14 14:29:51.404083,-154
2021-10-14 14:29:51.404092,-186
2021-10-14 14:29:51.628644,-196
2021-10-14 14:29:51.628658,-201
2021-10-14 14:29:51.628664,-203
2021-10-14 14:29:51.628668,-201
2021-10-14 14:29:51.628673,-188
2021-10-14 14:29:51.628677,-171
2021-10-14 14:29:51.628681,-161
2021-10-14 14:29:51.628685,-154
2021-10-14 14:29:51.628690,-154
2021-10-14 14:29:51.628694,-154
2021-10-14 14:29:51.628698,-137
2021-10-14 14:29:51.628702,-120
2021-10-14 14:29:51.628707,-110
2021-10-14 14:29:51.628711,-107
2021-10-14 14:29:51.628715,-112
2021-10-14 14:29:51.628719,-115
2021-10-14 14:29:51.628724,-98
2021-10-14 14:29:51.628728,-88
2021-10-14 14:29:51.628732,-93
2021-10-14 14:29:51.628737,-88
2021-10-14 14:29:51.628741,-85
2021-10-14 14:29:51.628745,-88
2021-10-14 14:29:51.628752,-83
2021-10-14 14:29:51.628756,-76
2021-10-14 14:29:51.628760,-78
2021-10-14 14:29:51.628765,-76
2021-10-14 14:29:51.628769,-76
2021-10-14 14:29:51.628773,-73
2021-10-14 14:29:51.628778,-68
2021-10-14 14:29:51.628782,-68
2021-10-14 14:29:51.856166,-68
2021-10-14 14:29:51.856186,-68
2021-10-14 14:29:51.856196,-66
2021-10-14 14:29:51.856205,-66
2021-10-14 14:29:51.856213,-61
2021-10-14 14:29:51.856222,-51
2021-10-14 14:29:51.856231,-51
2021-10-14 14:29:51.856239,-68
2021-10-14 14:29:51.856248,-85
2021-10-14 14:29:51.856256,-63
2021-10-14 14:29:51.856265,-9
2021-10-14 14:29:51.856273,19
2021-10-14 14:29:51.856282,12
2021-10-14 14:29:51.856290,-2
2021-10-14 14:29:51.856299,-14
2021-10-14 14:29:51.856307,-26
2021-10-14 14:29:51.856316,-39
2021-10-14 14:29:51.856324,-36
2021-10-14 14:29:51.856332,-26
2021-10-14 14:29:51.856341,-26
2021-10-14 14:29:51.856349,-26
2021-10-14 14:29:51.856358,-24
2021-10-14 14:29:51.856366,-24
2021-10-14 14:29:51.856374,-9
2021-10-14 14:29:51.856383,90
2021-10-14 14:29:51.856391,350
2021-10-14 14:29:51.856399,731
2021-10-14 14:29:51.856408,929
2021-10-14 14:29:51.856416,495
2021-10-14 14:29:51.856425,-277
2021-10-14 14:29:52.079633,-358
2021-10-14 14:29:52.079656,56
2021-10-14 14:29:52.079666,51
2021-10-14 14:29:52.079675,-100
2021-10-14 14:29:52.079683,-22
2021-10-14 14:29:52.079692,9
2021-10-14 14:29:52.079701,-39
2021-10-14 14:29:52.079709,-22
2021-10-14 14:29:52.079717,7
2021-10-14 14:29:52.079726,4
2021-10-14 14:29:52.079734,19
2021-10-14 14:29:52.079743,49
2021-10-14 14:29:52.079751,58
2021-10-14 14:29:52.079759,68
2021-10-14 14:29:52.079767,100
2021-10-14 14:29:52.079774,127
2021-10-14 14:29:52.079783,149
2021-10-14 14:29:52.079791,184
2021-10-14 14:29:52.079799,215
2021-10-14 14:29:52.079808,242
2021-10-14 14:29:52.079816,272
2021-10-14 14:29:52.079824,299
2021-10-14 14:29:52.079833,314
2021-10-14 14:29:52.079841,314
2021-10-14 14:29:52.079849,306
2021-10-14 14:29:52.079857,291
2021-10-14 14:29:52.079866,264
2021-10-14 14:29:52.079874,208
2021-10-14 14:29:52.079883,127
2021-10-14 14:29:52.079891,44
2021-10-14 14:29:52.395437,-34
2021-10-14 14:29:52.395459,-90
2021-10-14 14:29:52.395469,-132
2021-10-14 14:29:52.395478,-171
2021-10-14 14:29:52.395487,-196
2021-10-14 14:29:52.395496,-198
2021-10-14 14:29:52.395504,-203
2021-10-14 14:29:52.395512,-201
2021-10-14 14:29:52.395521,-186
2021-10-14 14:29:52.395529,-181
2021-10-14 14:29:52.395538,-176
2021-10-14 14:29:52.395546,-161
2021-10-14 14:29:52.395555,-157
2021-10-14 14:29:52.395564,-149
2021-10-14 14:29:52.395573,-142
2021-10-14 14:29:52.395586,-137
2021-10-14 14:29:52.395595,-125
2021-10-14 14:29:52.395603,-117
2021-10-14 14:29:52.395612,-117
2021-10-14 14:29:52.395621,-110
2021-10-14 14:29:52.395629,-105
2021-10-14 14:29:52.395638,-110
2021-10-14 14:29:52.395646,-110
2021-10-14 14:29:52.395655,-105
2021-10-14 14:29:52.395664,-98
2021-10-14 14:29:52.395672,-85
2021-10-14 14:29:52.395681,-88
2021-10-14 14:29:52.395689,-95
2021-10-14 14:29:52.395698,-88
2021-10-14 14:29:52.395706,-83
2021-10-14 14:29:52.529534,-88
2021-10-14 14:29:52.529556,-83
2021-10-14 14:29:52.529566,-73
2021-10-14 14:29:52.529579,-73
2021-10-14 14:29:52.529588,-73
2021-10-14 14:29:52.529604,-73
2021-10-14 14:29:52.529612,-85
2021-10-14 14:29:52.529621,-93
2021-10-14 14:29:52.529630,-85
2021-10-14 14:29:52.529638,-73
2021-10-14 14:29:52.529647,-78
2021-10-14 14:29:52.529655,-95
2021-10-14 14:29:52.529664,-105
2021-10-14 14:29:52.529672,-88
2021-10-14 14:29:52.529680,-49
2021-10-14 14:29:52.529689,-14
2021-10-14 14:29:52.529697,-14
2021-10-14 14:29:52.529706,-29
2021-10-14 14:29:52.529714,-36
2021-10-14 14:29:52.529723,-36
2021-10-14 14:29:52.529731,-51
2021-10-14 14:29:52.529740,-58
2021-10-14 14:29:52.529748,-56
2021-10-14 14:29:52.529757,-61
2021-10-14 14:29:52.529765,-61
2021-10-14 14:29:52.529774,-53
2021-10-14 14:29:52.529782,-51
2021-10-14 14:29:52.529791,-51
2021-10-14 14:29:52.529799,-12
2021-10-14 14:29:52.529807,164
2021-10-14 14:29:52.842114,517
2021-10-14 14:29:52.842129,844
2021-10-14 14:29:52.842134,694
2021-10-14 14:29:52.842139,-68
2021-10-14 14:29:52.842143,-544
2021-10-14 14:29:52.842148,-176
2021-10-14 14:29:52.842152,83
2021-10-14 14:29:52.842157,-95
2021-10-14 14:29:52.842161,-103
2021-10-14 14:29:52.842165,-14
2021-10-14 14:29:52.842170,-66
2021-10-14 14:29:52.842174,-73
2021-10-14 14:29:52.842178,-9
2021-10-14 14:29:52.842183,2
2021-10-14 14:29:52.842187,-4
2021-10-14 14:29:52.842191,26
2021-10-14 14:29:52.842196,49
2021-10-14 14:29:52.842200,58
2021-10-14 14:29:52.842204,90
2021-10-14 14:29:52.842209,125
2021-10-14 14:29:52.842213,144
2021-10-14 14:29:52.842218,174
2021-10-14 14:29:52.842222,211
2021-10-14 14:29:52.842226,242
2021-10-14 14:29:52.842231,274
2021-10-14 14:29:52.842235,306
2021-10-14 14:29:52.842239,318
2021-10-14 14:29:52.842244,318
2021-10-14 14:29:52.842248,321
2021-10-14 14:29:52.842252,323
2021-10-14 14:29:52.978796,304
2021-10-14 14:29:52.978816,252
2021-10-14 14:29:52.978826,179
2021-10-14 14:29:52.978835,85
2021-10-14 14:29:52.978843,-9
2021-10-14 14:29:52.978852,-78
2021-10-14 14:29:52.978860,-127
2021-10-14 14:29:52.978868,-171
2021-10-14 14:29:52.978877,-203
2021-10-14 14:29:52.978885,-208
2021-10-14 14:29:52.978894,-198
2021-10-14 14:29:52.978902,-211
2021-10-14 14:29:52.978910,-235
2021-10-14 14:29:52.978919,-220
2021-10-14 14:29:52.978927,-191
2021-10-14 14:29:52.978935,-196
2021-10-14 14:29:52.978943,-211
2021-10-14 14:29:52.978952,-191
2021-10-14 14:29:52.978960,-166
2021-10-14 14:29:52.978968,-161
2021-10-14 14:29:52.978977,-159
2021-10-14 14:29:52.978985,-152
2021-10-14 14:29:52.978993,-147
2021-10-14 14:29:52.979001,-127
2021-10-14 14:29:52.979009,-120
2021-10-14 14:29:52.979018,-127
2021-10-14 14:29:52.979026,-132
2021-10-14 14:29:52.979034,-130
2021-10-14 14:29:52.979043,-127
2021-10-14 14:29:52.979051,-117
2021-10-14 14:29:53.293881,-112
2021-10-14 14:29:53.293897,-115
2021-10-14 14:29:53.293902,-122
2021-10-14 14:29:53.293907,-130
2021-10-14 14:29:53.293912,-125
2021-10-14 14:29:53.293916,-107
2021-10-14 14:29:53.293920,-107
2021-10-14 14:29:53.293925,-115
2021-10-14 14:29:53.293929,-112
2021-10-14 14:29:53.293933,-112
2021-10-14 14:29:53.293938,-112
2021-10-14 14:29:53.293942,-103
2021-10-14 14:29:53.293946,-103
2021-10-14 14:29:53.293951,-110
2021-10-14 14:29:53.293955,-120
2021-10-14 14:29:53.293959,-125
2021-10-14 14:29:53.293964,-105
2021-10-14 14:29:53.293968,-63
2021-10-14 14:29:53.293972,-31
2021-10-14 14:29:53.293977,-31
2021-10-14 14:29:53.293981,-41
2021-10-14 14:29:53.293985,-46
2021-10-14 14:29:53.293990,-53
2021-10-14 14:29:53.293994,-63
2021-10-14 14:29:53.293998,-63
2021-10-14 14:29:53.294003,-53
2021-10-14 14:29:53.294007,-49
2021-10-14 14:29:53.294012,-53
2021-10-14 14:29:53.294016,-53
2021-10-14 14:29:53.294021,-46
2021-10-14 14:29:53.517804,-19
2021-10-14 14:29:53.517829,83
2021-10-14 14:29:53.517839,345
2021-10-14 14:29:53.517847,718
2021-10-14 14:29:53.517856,861
2021-10-14 14:29:53.517864,343
2021-10-14 14:29:53.517872,-426
2021-10-14 14:29:53.517880,-402
2021-10-14 14:29:53.517889,56
2021-10-14 14:29:53.517897,19
2021-10-14 14:29:53.517905,-125
2021-10-14 14:29:53.517914,-14
2021-10-14 14:29:53.517922,14
2021-10-14 14:29:53.517931,-34
2021-10-14 14:29:53.517939,0
2021-10-14 14:29:53.517947,24
2021-10-14 14:29:53.517956,12
2021-10-14 14:29:53.517964,22
2021-10-14 14:29:53.517972,46
2021-10-14 14:29:53.517980,63
2021-10-14 14:29:53.517989,83
2021-10-14 14:29:53.517997,107
2021-10-14 14:29:53.518005,142
2021-10-14 14:29:53.518014,174
2021-10-14 14:29:53.518022,206
2021-10-14 14:29:53.518030,242
2021-10-14 14:29:53.518039,272
2021-10-14 14:29:53.518047,296
2021-10-14 14:29:53.518055,323
2021-10-14 14:29:53.518064,345
2021-10-14 14:29:53.699177,350
2021-10-14 14:29:53.699202,336
2021-10-14 14:29:53.699211,314
2021-10-14 14:29:53.699218,277
2021-10-14 14:29:53.699227,213
2021-10-14 14:29:53.699234,132
2021-10-14 14:29:53.699241,39
2021-10-14 14:29:53.699249,-49
2021-10-14 14:29:53.699256,-115
2021-10-14 14:29:53.699263,-152
2021-10-14 14:29:53.699271,-171
2021-10-14 14:29:53.699278,-181
2021-10-14 14:29:53.699286,-191
2021-10-14 14:29:53.699294,-198
2021-10-14 14:29:53.699301,-201
2021-10-14 14:29:53.699309,-193
2021-10-14 14:29:53.699317,-188
2021-10-14 14:29:53.699325,-181
2021-10-14 14:29:53.699333,-166
2021-10-14 14:29:53.699341,-157
2021-10-14 14:29:53.699350,-152
2021-10-14 14:29:53.699359,-144
2021-10-14 14:29:53.699369,-132
2021-10-14 14:29:53.699378,-120
2021-10-14 14:29:53.699386,-107
2021-10-14 14:29:53.699394,-103
2021-10-14 14:29:53.699403,-105
2021-10-14 14:29:53.699410,-103
2021-10-14 14:29:53.699419,-93
2021-10-14 14:29:53.699427,-88
2021-10-14 14:29:53.924732,-88
2021-10-14 14:29:53.924791,-83
2021-10-14 14:29:53.924827,-78
2021-10-14 14:29:53.924850,-80
2021-10-14 14:29:53.924873,-83
2021-10-14 14:29:53.924895,-76
2021-10-14 14:29:53.924913,-76
2021-10-14 14:29:53.924930,-83
2021-10-14 14:29:53.924948,-83
2021-10-14 14:29:53.924963,-73
2021-10-14 14:29:53.924982,-68
2021-10-14 14:29:53.925001,-63
2021-10-14 14:29:53.925020,-58
2021-10-14 14:29:53.925040,-66
2021-10-14 14:29:53.925060,-66
2021-10-14 14:29:53.925078,-58
2021-10-14 14:29:53.925108,-58
2021-10-14 14:29:53.925124,-68
2021-10-14 14:29:53.925137,-73
2021-10-14 14:29:53.925153,-44
2021-10-14 14:29:53.925168,2
2021-10-14 14:29:53.925183,12
2021-10-14 14:29:53.925198,-4
2021-10-14 14:29:53.925214,-19
2021-10-14 14:29:53.925228,-24
2021-10-14 14:29:53.925243,-41
2021-10-14 14:29:53.925255,-51
2021-10-14 14:29:53.925266,-44
2021-10-14 14:29:53.925278,-34
2021-10-14 14:29:53.925291,-34
2021-10-14 14:29:54.149866,-34
2021-10-14 14:29:54.149929,-26
2021-10-14 14:29:54.149953,-24
2021-10-14 14:29:54.149978,0
2021-10-14 14:29:54.150001,132
2021-10-14 14:29:54.150025,436
2021-10-14 14:29:54.150048,799
2021-10-14 14:29:54.150075,846
2021-10-14 14:29:54.150098,245
2021-10-14 14:29:54.150140,-412
2021-10-14 14:29:54.150162,-255
2021-10-14 14:29:54.150188,98
2021-10-14 14:29:54.150214,-31
2021-10-14 14:29:54.150238,-115
2021-10-14 14:29:54.150262,2
2021-10-14 14:29:54.150285,-4
2021-10-14 14:29:54.150306,-41
2021-10-14 14:29:54.150329,2
2021-10-14 14:29:54.150352,22
2021-10-14 14:29:54.150376,17
2021-10-14 14:29:54.150408,39
2021-10-14 14:29:54.150441,53
2021-10-14 14:29:54.150454,68
2021-10-14 14:29:54.150462,95
2021-10-14 14:29:54.150471,120
2021-10-14 14:29:54.150479,142
2021-10-14 14:29:54.150490,171
2021-10-14 14:29:54.150506,206
2021-10-14 14:29:54.150516,238
2021-10-14 14:29:54.150534,269
2021-10-14 14:29:54.375822,291
2021-10-14 14:29:54.375844,314
2021-10-14 14:29:54.375852,328
2021-10-14 14:29:54.375859,323
2021-10-14 14:29:54.375867,311
2021-10-14 14:29:54.375874,284
2021-10-14 14:29:54.375881,240
2021-10-14 14:29:54.375889,184
2021-10-14 14:29:54.375895,115
2021-10-14 14:29:54.375903,34
2021-10-14 14:29:54.375910,-39
2021-10-14 14:29:54.375921,-107
2021-10-14 14:29:54.375928,-161
2021-10-14 14:29:54.375941,-179
2021-10-14 14:29:54.375950,-184
2021-10-14 14:29:54.375956,-193
2021-10-14 14:29:54.375965,-188
2021-10-14 14:29:54.375973,-179
2021-10-14 14:29:54.375980,-171
2021-10-14 14:29:54.375986,-159
2021-10-14 14:29:54.376025,-149
2021-10-14 14:29:54.376031,-147
2021-10-14 14:29:54.376039,-147
2021-10-14 14:29:54.376046,-142
2021-10-14 14:29:54.376053,-132
2021-10-14 14:29:54.376060,-127
2021-10-14 14:29:54.376067,-125
2021-10-14 14:29:54.376074,-130
2021-10-14 14:29:54.376082,-142
2021-10-14 14:29:54.376090,-137
2021-10-14 14:29:54.598840,-125
2021-10-14 14:29:54.598860,-125
2021-10-14 14:29:54.598869,-132
2021-10-14 14:29:54.598878,-127
2021-10-14 14:29:54.598886,-122
2021-10-14 14:29:54.598895,-125
2021-10-14 14:29:54.598903,-125
2021-10-14 14:29:54.598912,-122
2021-10-14 14:29:54.598920,-125
2021-10-14 14:29:54.598928,-120
2021-10-14 14:29:54.598937,-112
2021-10-14 14:29:54.598945,-112
2021-10-14 14:29:54.598954,-110
2021-10-14 14:29:54.598962,-100
2021-10-14 14:29:54.598971,-98
2021-10-14 14:29:54.598979,-100
2021-10-14 14:29:54.598988,-95
2021-10-14 14:29:54.598996,-98
2021-10-14 14:29:54.599004,-98
2021-10-14 14:29:54.599013,-85
2021-10-14 14:29:54.599021,-76
2021-10-14 14:29:54.599029,-76
2021-10-14 14:29:54.599037,-88
2021-10-14 14:29:54.599046,-100
2021-10-14 14:29:54.599054,-90
2021-10-14 14:29:54.599062,-53
2021-10-14 14:29:54.599071,-17
2021-10-14 14:29:54.599079,-9
2021-10-14 14:29:54.599087,-19
2021-10-14 14:29:54.599095,-24
2021-10-14 14:29:54.957586,-34
2021-10-14 14:29:54.957608,-49
2021-10-14 14:29:54.957617,-53
2021-10-14 14:29:54.957626,-56
2021-10-14 14:29:54.957634,-61
2021-10-14 14:29:54.957643,-56
2021-10-14 14:29:54.957651,-44
2021-10-14 14:29:54.957660,-46
2021-10-14 14:29:54.957668,-51
2021-10-14 14:29:54.957677,24
2021-10-14 14:29:54.957685,269
2021-10-14 14:29:54.957694,642
2021-10-14 14:29:54.957702,856
2021-10-14 14:29:54.957711,456
2021-10-14 14:29:54.957719,-358
2021-10-14 14:29:54.957727,-515
2021-10-14 14:29:54.957736,-36
2021-10-14 14:29:54.957745,46
2021-10-14 14:29:54.957753,-117
2021-10-14 14:29:54.957762,-39
2021-10-14 14:29:54.957770,12
2021-10-14 14:29:54.957779,-46
2021-10-14 14:29:54.957787,-22
2021-10-14 14:29:54.957796,26
2021-10-14 14:29:54.957804,29
2021-10-14 14:29:54.957813,36
2021-10-14 14:29:54.957821,61
2021-10-14 14:29:54.957830,71
2021-10-14 14:29:54.957838,83
2021-10-14 14:29:54.957847,110
2021-10-14 14:29:55.138179,139
2021-10-14 14:29:55.138195,169
2021-10-14 14:29:55.138200,198
2021-10-14 14:29:55.138204,220
2021-10-14 14:29:55.138209,235
2021-10-14 14:29:55.138213,267
2021-10-14 14:29:55.138218,301
2021-10-14 14:29:55.138222,318
2021-10-14 14:29:55.138226,323
2021-10-14 14:29:55.138230,314
2021-10-14 14:29:55.138235,291
2021-10-14 14:29:55.138239,264
2021-10-14 14:29:55.138244,218
2021-10-14 14:29:55.138248,139
2021-10-14 14:29:55.138252,49
2021-10-14 14:29:55.138257,-44
2021-10-14 14:29:55.138261,-112
2021-10-14 14:29:55.138265,-159
2021-10-14 14:29:55.138270,-196
2021-10-14 14:29:55.138274,-208
2021-10-14 14:29:55.138279,-213
2021-10-14 14:29:55.138283,-230
2021-10-14 14:29:55.138287,-223
2021-10-14 14:29:55.138292,-198
2021-10-14 14:29:55.138296,-188
2021-10-14 14:29:55.138300,-188
2021-10-14 14:29:55.138305,-179
2021-10-14 14:29:55.138309,-176
2021-10-14 14:29:55.138313,-174
2021-10-14 14:29:55.138318,-154
2021-10-14 14:29:55.363512,-142
2021-10-14 14:29:55.363533,-142
2021-10-14 14:29:55.363543,-144
2021-10-14 14:29:55.363551,-137
2021-10-14 14:29:55.363560,-127
2021-10-14 14:29:55.363569,-127
2021-10-14 14:29:55.363577,-127
2021-10-14 14:29:55.363586,-117
2021-10-14 14:29:55.363594,-115
2021-10-14 14:29:55.363603,-125
2021-10-14 14:29:55.363611,-122
2021-10-14 14:29:55.363619,-112
2021-10-14 14:29:55.363628,-110
2021-10-14 14:29:55.363636,-110
2021-10-14 14:29:55.363644,-112
2021-10-14 14:29:55.363653,-117
2021-10-14 14:29:55.363661,-112
2021-10-14 14:29:55.363670,-107
2021-10-14 14:29:55.363678,-105
2021-10-14 14:29:55.363686,-95
2021-10-14 14:29:55.363694,-98
2021-10-14 14:29:55.363703,-105
2021-10-14 14:29:55.363711,-103
2021-10-14 14:29:55.363720,-98
2021-10-14 14:29:55.363728,-95
2021-10-14 14:29:55.363736,-83
2021-10-14 14:29:55.363745,-71
2021-10-14 14:29:55.363753,-73
2021-10-14 14:29:55.363761,-88
2021-10-14 14:29:55.363770,-90
2021-10-14 14:29:55.543857,-63
2021-10-14 14:29:55.543878,-24
2021-10-14 14:29:55.543888,-9
2021-10-14 14:29:55.543897,-19
2021-10-14 14:29:55.543966,-19
2021-10-14 14:29:55.543983,-22
2021-10-14 14:29:55.543991,-46
2021-10-14 14:29:55.543999,-58
2021-10-14 14:29:55.544009,-49
2021-10-14 14:29:55.544016,-53
2021-10-14 14:29:55.544023,-58
2021-10-14 14:29:55.544030,-51
2021-10-14 14:29:55.544038,-56
2021-10-14 14:29:55.544046,-66
2021-10-14 14:29:55.544052,-41
2021-10-14 14:29:55.544059,95
2021-10-14 14:29:55.544066,417
2021-10-14 14:29:55.544073,777
2021-10-14 14:29:55.544080,780
2021-10-14 14:29:55.544087,105
2021-10-14 14:29:55.544095,-556
2021-10-14 14:29:55.544103,-311
2021-10-14 14:29:55.544111,98
2021-10-14 14:29:55.544118,-26
2021-10-14 14:29:55.544126,-105
2021-10-14 14:29:55.544133,7
2021-10-14 14:29:55.544141,-9
2021-10-14 14:29:55.544148,-44
2021-10-14 14:29:55.544155,14
2021-10-14 14:29:55.544162,41
2021-10-14 14:29:55.815306,39
2021-10-14 14:29:55.815326,61
2021-10-14 14:29:55.815336,78
2021-10-14 14:29:55.815344,80
2021-10-14 14:29:55.815353,107
2021-10-14 14:29:55.815362,144
2021-10-14 14:29:55.815370,164
2021-10-14 14:29:55.815379,184
2021-10-14 14:29:55.815387,218
2021-10-14 14:29:55.815395,255
2021-10-14 14:29:55.815404,291
2021-10-14 14:29:55.815413,328
2021-10-14 14:29:55.815421,343
2021-10-14 14:29:55.815430,333
2021-10-14 14:29:55.815438,333
2021-10-14 14:29:55.815447,338
2021-10-14 14:29:55.815455,316
2021-10-14 14:29:55.815464,269
2021-10-14 14:29:55.815472,198
2021-10-14 14:29:55.815481,107
2021-10-14 14:29:55.815489,24
2021-10-14 14:29:55.815498,-41
2021-10-14 14:29:55.815506,-100
2021-10-14 14:29:55.815515,-149
2021-10-14 14:29:55.815523,-171
2021-10-14 14:29:55.815532,-176
2021-10-14 14:29:55.815540,-181
2021-10-14 14:29:55.815549,-186
2021-10-14 14:29:55.815557,-181
2021-10-14 14:29:55.815566,-174
2021-10-14 14:29:56.038544,-164
2021-10-14 14:29:56.038571,-147
2021-10-14 14:29:56.038581,-132
2021-10-14 14:29:56.038590,-130
2021-10-14 14:29:56.038598,-132
2021-10-14 14:29:56.038606,-132
2021-10-14 14:29:56.038615,-127
2021-10-14 14:29:56.038623,-117
2021-10-14 14:29:56.038632,-107
2021-10-14 14:29:56.038640,-107
2021-10-14 14:29:56.038649,-105
2021-10-14 14:29:56.038657,-103
2021-10-14 14:29:56.038670,-103
2021-10-14 14:29:56.038678,-103
2021-10-14 14:29:56.038687,-107
2021-10-14 14:29:56.038696,-117
2021-10-14 14:29:56.038704,-115
2021-10-14 14:29:56.038713,-107
2021-10-14 14:29:56.038721,-107
2021-10-14 14:29:56.038729,-103
2021-10-14 14:29:56.038738,-100
2021-10-14 14:29:56.038746,-100
2021-10-14 14:29:56.038754,-90
2021-10-14 14:29:56.038763,-80
2021-10-14 14:29:56.038771,-83
2021-10-14 14:29:56.038780,-76
2021-10-14 14:29:56.038788,-63
2021-10-14 14:29:56.038797,-61
2021-10-14 14:29:56.038805,-61
2021-10-14 14:29:56.038813,-53
2021-10-14 14:29:56.219293,-51
2021-10-14 14:29:56.219340,-53
2021-10-14 14:29:56.219349,-51
2021-10-14 14:29:56.219358,-51
2021-10-14 14:29:56.219366,-58
2021-10-14 14:29:56.219374,-49
2021-10-14 14:29:56.219382,-12
2021-10-14 14:29:56.219390,17
2021-10-14 14:29:56.219398,26
2021-10-14 14:29:56.219405,22
2021-10-14 14:29:56.219412,9
2021-10-14 14:29:56.219419,-4
2021-10-14 14:29:56.219426,-22
2021-10-14 14:29:56.219434,-26
2021-10-14 14:29:56.219442,-17
2021-10-14 14:29:56.219449,-17
2021-10-14 14:29:56.219457,-26
2021-10-14 14:29:56.219465,-36
2021-10-14 14:29:56.219473,-39
2021-10-14 14:29:56.219481,-34
2021-10-14 14:29:56.219490,12
2021-10-14 14:29:56.219498,191
2021-10-14 14:29:56.219507,539
2021-10-14 14:29:56.219515,871
2021-10-14 14:29:56.219524,731
2021-10-14 14:29:56.219532,-14
2021-10-14 14:29:56.219541,-463
2021-10-14 14:29:56.219549,-112
2021-10-14 14:29:56.219556,112
2021-10-14 14:29:56.219564,-56
2021-10-14 14:29:56.532859,-56
2021-10-14 14:29:56.532880,29
2021-10-14 14:29:56.532889,-4
2021-10-14 14:29:56.532898,-2
2021-10-14 14:29:56.532907,41
2021-10-14 14:29:56.532916,29
2021-10-14 14:29:56.532925,31
2021-10-14 14:29:56.532933,71
2021-10-14 14:29:56.532942,85
2021-10-14 14:29:56.532950,85
2021-10-14 14:29:56.532958,105
2021-10-14 14:29:56.532967,127
2021-10-14 14:29:56.532975,154
2021-10-14 14:29:56.532984,188
2021-10-14 14:29:56.532992,223
2021-10-14 14:29:56.533001,247
2021-10-14 14:29:56.533009,274
2021-10-14 14:29:56.533017,299
2021-10-14 14:29:56.533026,316
2021-10-14 14:29:56.533034,316
2021-10-14 14:29:56.533043,301
2021-10-14 14:29:56.533051,289
2021-10-14 14:29:56.533059,269
2021-10-14 14:29:56.533068,223
2021-10-14 14:29:56.533076,159
2021-10-14 14:29:56.533085,88
2021-10-14 14:29:56.533093,19
2021-10-14 14:29:56.533101,-51
2021-10-14 14:29:56.533110,-115
2021-10-14 14:29:56.533118,-157
2021-10-14 14:29:56.668445,-166
2021-10-14 14:29:56.668466,-166
2021-10-14 14:29:56.668476,-171
2021-10-14 14:29:56.668484,-184
2021-10-14 14:29:56.668492,-188
2021-10-14 14:29:56.668500,-176
2021-10-14 14:29:56.668508,-159
2021-10-14 14:29:56.668516,-147
2021-10-14 14:29:56.668524,-139
2021-10-14 14:29:56.668533,-132
2021-10-14 14:29:56.668541,-127
2021-10-14 14:29:56.668549,-125
2021-10-14 14:29:56.668556,-115
2021-10-14 14:29:56.668564,-103
2021-10-14 14:29:56.668572,-100
2021-10-14 14:29:56.668580,-110
2021-10-14 14:29:56.668588,-110
2021-10-14 14:29:56.668596,-103
2021-10-14 14:29:56.668604,-98
2021-10-14 14:29:56.668612,-95
2021-10-14 14:29:56.668620,-95
2021-10-14 14:29:56.668628,-103
2021-10-14 14:29:56.668636,-107
2021-10-14 14:29:56.668647,-100
2021-10-14 14:29:56.668656,-90
2021-10-14 14:29:56.668663,-88
2021-10-14 14:29:56.668671,-85
2021-10-14 14:29:56.668679,-90
2021-10-14 14:29:56.668688,-88
2021-10-14 14:29:56.668696,-76
2021-10-14 14:29:57.027504,-68
2021-10-14 14:29:57.027525,-66
2021-10-14 14:29:57.027534,-66
2021-10-14 14:29:57.027543,-76
2021-10-14 14:29:57.027552,-80
2021-10-14 14:29:57.027560,-76
2021-10-14 14:29:57.027568,-66
2021-10-14 14:29:57.027577,-63
2021-10-14 14:29:57.027585,-66
2021-10-14 14:29:57.027593,-73
2021-10-14 14:29:57.027602,-78
2021-10-14 14:29:57.027610,-73
2021-10-14 14:29:57.027618,-76
2021-10-14 14:29:57.027627,-68
2021-10-14 14:29:57.027635,-36
2021-10-14 14:29:57.027643,-12
2021-10-14 14:29:57.027652,-9
2021-10-14 14:29:57.027660,-14
2021-10-14 14:29:57.027668,-24
2021-10-14 14:29:57.027677,-39
2021-10-14 14:29:57.027685,-53
2021-10-14 14:29:57.027694,-61
2021-10-14 14:29:57.027702,-61
2021-10-14 14:29:57.027710,-58
2021-10-14 14:29:57.027718,-68
2021-10-14 14:29:57.027727,-83
2021-10-14 14:29:57.027735,-90
2021-10-14 14:29:57.027743,-85
2021-10-14 14:29:57.027752,7
2021-10-14 14:29:57.027760,284
2021-10-14 14:29:57.163370,662
2021-10-14 14:29:57.163389,834
2021-10-14 14:29:57.163398,375
2021-10-14 14:29:57.163407,-404
2021-10-14 14:29:57.163415,-461
2021-10-14 14:29:57.163424,7
2021-10-14 14:29:57.163432,29
2021-10-14 14:29:57.163440,-122
2021-10-14 14:29:57.163449,-39
2021-10-14 14:29:57.163457,-2
2021-10-14 14:29:57.163465,-39
2021-10-14 14:29:57.163474,-4
2021-10-14 14:29:57.163482,29
2021-10-14 14:29:57.163490,24
2021-10-14 14:29:57.163499,36
2021-10-14 14:29:57.163507,61
2021-10-14 14:29:57.163515,76
2021-10-14 14:29:57.163524,98
2021-10-14 14:29:57.163532,134
2021-10-14 14:29:57.163540,157
2021-10-14 14:29:57.163549,169
2021-10-14 14:29:57.163557,191
2021-10-14 14:29:57.163565,228
2021-10-14 14:29:57.163574,272
2021-10-14 14:29:57.163582,304
2021-10-14 14:29:57.163590,316
2021-10-14 14:29:57.163598,318
2021-10-14 14:29:57.163607,323
2021-10-14 14:29:57.163615,328
2021-10-14 14:29:57.163623,323
2021-10-14 14:29:57.390126,291
2021-10-14 14:29:57.390150,240
2021-10-14 14:29:57.390160,161
2021-10-14 14:29:57.390168,71
2021-10-14 14:29:57.390177,-2
2021-10-14 14:29:57.390185,-61
2021-10-14 14:29:57.390194,-117
2021-10-14 14:29:57.390202,-159
2021-10-14 14:29:57.390210,-188
2021-10-14 14:29:57.390218,-203
2021-10-14 14:29:57.390226,-203
2021-10-14 14:29:57.390235,-191
2021-10-14 14:29:57.390243,-179
2021-10-14 14:29:57.390251,-179
2021-10-14 14:29:57.390259,-188
2021-10-14 14:29:57.390267,-179
2021-10-14 14:29:57.390275,-157
2021-10-14 14:29:57.390283,-152
2021-10-14 14:29:57.390292,-157
2021-10-14 14:29:57.390299,-147
2021-10-14 14:29:57.390307,-137
2021-10-14 14:29:57.390314,-130
2021-10-14 14:29:57.390322,-132
2021-10-14 14:29:57.390330,-130
2021-10-14 14:29:57.390337,-120
2021-10-14 14:29:57.390345,-115
2021-10-14 14:29:57.390352,-120
2021-10-14 14:29:57.390359,-117
2021-10-14 14:29:57.390366,-110
2021-10-14 14:29:57.390372,-110
2021-10-14 14:29:57.614002,-122
2021-10-14 14:29:57.614025,-134
2021-10-14 14:29:57.614034,-134
2021-10-14 14:29:57.614043,-130
2021-10-14 14:29:57.614052,-120
2021-10-14 14:29:57.614060,-112
2021-10-14 14:29:57.614069,-112
2021-10-14 14:29:57.614078,-120
2021-10-14 14:29:57.614086,-120
2021-10-14 14:29:57.614095,-110
2021-10-14 14:29:57.614103,-105
2021-10-14 14:29:57.614112,-103
2021-10-14 14:29:57.614121,-100
2021-10-14 14:29:57.614129,-103
2021-10-14 14:29:57.614138,-100
2021-10-14 14:29:57.614146,-93
2021-10-14 14:29:57.614155,-85
2021-10-14 14:29:57.614164,-85
2021-10-14 14:29:57.614173,-98
2021-10-14 14:29:57.614181,-103
2021-10-14 14:29:57.614190,-73
2021-10-14 14:29:57.614198,-34
2021-10-14 14:29:57.614207,-26
2021-10-14 14:29:57.614215,-34
2021-10-14 14:29:57.614223,-39
2021-10-14 14:29:57.614232,-51
2021-10-14 14:29:57.614240,-71
2021-10-14 14:29:57.614248,-80
2021-10-14 14:29:57.614257,-76
2021-10-14 14:29:57.614266,-71
2021-10-14 14:29:57.883479,-76
2021-10-14 14:29:57.883499,-73
2021-10-14 14:29:57.883509,-71
2021-10-14 14:29:57.883517,-71
2021-10-14 14:29:57.883526,-12
2021-10-14 14:29:57.883534,196
2021-10-14 14:29:57.883543,544
2021-10-14 14:29:57.883551,819
2021-10-14 14:29:57.883560,606
2021-10-14 14:29:57.883568,-171
2021-10-14 14:29:57.883577,-556
2021-10-14 14:29:57.883585,-120
2021-10-14 14:29:57.883593,98
2021-10-14 14:29:57.883602,-95
2021-10-14 14:29:57.883610,-63
2021-10-14 14:29:57.883619,29
2021-10-14 14:29:57.883627,-19
2021-10-14 14:29:57.883636,-12
2021-10-14 14:29:57.883644,44
2021-10-14 14:29:57.883652,46
2021-10-14 14:29:57.883661,44
2021-10-14 14:29:57.883669,66
2021-10-14 14:29:57.883677,93
2021-10-14 14:29:57.883686,117
2021-10-14 14:29:57.883694,137
2021-10-14 14:29:57.883702,159
2021-10-14 14:29:57.883711,193
2021-10-14 14:29:57.883719,228
2021-10-14 14:29:57.883728,255
2021-10-14 14:29:57.883736,284
2021-10-14 14:29:58.063465,318
2021-10-14 14:29:58.063486,350
2021-10-14 14:29:58.063495,368
2021-10-14 14:29:58.063504,370
2021-10-14 14:29:58.063512,365
2021-10-14 14:29:58.063521,353
2021-10-14 14:29:58.063529,314
2021-10-14 14:29:58.063537,267
2021-10-14 14:29:58.063546,201
2021-10-14 14:29:58.063554,110
2021-10-14 14:29:58.063563,22
2021-10-14 14:29:58.063571,-53
2021-10-14 14:29:58.063579,-122
2021-10-14 14:29:58.063588,-164
2021-10-14 14:29:58.063596,-179
2021-10-14 14:29:58.063604,-181
2021-10-14 14:29:58.063613,-181
2021-10-14 14:29:58.063621,-196
2021-10-14 14:29:58.063629,-198
2021-10-14 14:29:58.063637,-179
2021-10-14 14:29:58.063646,-159
2021-10-14 14:29:58.063654,-157
2021-10-14 14:29:58.063663,-154
2021-10-14 14:29:58.063671,-144
2021-10-14 14:29:58.063679,-134
2021-10-14 14:29:58.063687,-125
2021-10-14 14:29:58.063696,-115
2021-10-14 14:29:58.063704,-105
2021-10-14 14:29:58.063713,-103
2021-10-14 14:29:58.063727,-100
2021-10-14 14:29:58.289001,-93
2021-10-14 14:29:58.289023,-88
2021-10-14 14:29:58.289033,-90
2021-10-14 14:29:58.289041,-88
2021-10-14 14:29:58.289049,-88
2021-10-14 14:29:58.289057,-95
2021-10-14 14:29:58.289065,-93
2021-10-14 14:29:58.289072,-88
2021-10-14 14:29:58.289080,-88
2021-10-14 14:29:58.289089,-85
2021-10-14 14:29:58.289097,-88
2021-10-14 14:29:58.289105,-93
2021-10-14 14:29:58.289158,-85
2021-10-14 14:29:58.289167,-73
2021-10-14 14:29:58.289176,-76
2021-10-14 14:29:58.289184,-76
2021-10-14 14:29:58.289193,-66
2021-10-14 14:29:58.289201,-61
2021-10-14 14:29:58.289209,-58
2021-10-14 14:29:58.289218,-51
2021-10-14 14:29:58.289226,-46
2021-10-14 14:29:58.289235,-46
2021-10-14 14:29:58.289243,-44
2021-10-14 14:29:58.289251,-41
2021-10-14 14:29:58.289259,-46
2021-10-14 14:29:58.289268,-61
2021-10-14 14:29:58.289276,-66
2021-10-14 14:29:58.289284,-46
2021-10-14 14:29:58.289292,-14
2021-10-14 14:29:58.289301,7
2021-10-14 14:29:58.513468,12
2021-10-14 14:29:58.513488,2
2021-10-14 14:29:58.513497,-22
2021-10-14 14:29:58.513506,-44
2021-10-14 14:29:58.513515,-61
2021-10-14 14:29:58.513523,-68
2021-10-14 14:29:58.513531,-61
2021-10-14 14:29:58.513540,-53
2021-10-14 14:29:58.513548,-51
2021-10-14 14:29:58.513556,-58
2021-10-14 14:29:58.513565,-66
2021-10-14 14:29:58.513574,-46
2021-10-14 14:29:58.513582,78
2021-10-14 14:29:58.513590,392
2021-10-14 14:29:58.513599,772
2021-10-14 14:29:58.513607,814
2021-10-14 14:29:58.513615,188
2021-10-14 14:29:58.513624,-463
2021-10-14 14:29:58.513632,-274
2021-10-14 14:29:58.513641,98
2021-10-14 14:29:58.513649,-24
2021-10-14 14:29:58.513657,-100
2021-10-14 14:29:58.513665,14
2021-10-14 14:29:58.513674,7
2021-10-14 14:29:58.513682,-22
2021-10-14 14:29:58.513690,29
2021-10-14 14:29:58.513698,44
2021-10-14 14:29:58.513707,22
2021-10-14 14:29:58.513715,41
2021-10-14 14:29:58.513723,78
2021-10-14 14:29:58.783880,95
2021-10-14 14:29:58.783901,115
2021-10-14 14:29:58.783911,142
2021-10-14 14:29:58.783920,157
2021-10-14 14:29:58.783928,174
2021-10-14 14:29:58.783936,211
2021-10-14 14:29:58.783945,250
2021-10-14 14:29:58.783953,279
2021-10-14 14:29:58.783961,304
2021-10-14 14:29:58.783969,311
2021-10-14 14:29:58.783978,311
2021-10-14 14:29:58.783986,318
2021-10-14 14:29:58.783994,316
2021-10-14 14:29:58.784002,296
2021-10-14 14:29:58.784011,262
2021-10-14 14:29:58.784019,208
2021-10-14 14:29:58.784027,132
2021-10-14 14:29:58.784036,53
2021-10-14 14:29:58.784044,-12
2021-10-14 14:29:58.784052,-68
2021-10-14 14:29:58.784060,-117
2021-10-14 14:29:58.784069,-149
2021-10-14 14:29:58.784077,-161
2021-10-14 14:29:58.784085,-164
2021-10-14 14:29:58.784094,-166
2021-10-14 14:29:58.784102,-164
2021-10-14 14:29:58.784111,-159
2021-10-14 14:29:58.784119,-152
2021-10-14 14:29:58.784127,-139
2021-10-14 14:29:58.784135,-134
2021-10-14 14:29:59.052530,-127
2021-10-14 14:29:59.052552,-112
2021-10-14 14:29:59.052561,-105
2021-10-14 14:29:59.052570,-110
2021-10-14 14:29:59.052578,-103
2021-10-14 14:29:59.052587,-95
2021-10-14 14:29:59.052595,-90
2021-10-14 14:29:59.052603,-85
2021-10-14 14:29:59.052611,-90
2021-10-14 14:29:59.052619,-105
2021-10-14 14:29:59.052627,-103
2021-10-14 14:29:59.052636,-88
2021-10-14 14:29:59.052644,-88
2021-10-14 14:29:59.052651,-93
2021-10-14 14:29:59.052659,-95
2021-10-14 14:29:59.052667,-103
2021-10-14 14:29:59.052676,-107
2021-10-14 14:29:59.052684,-107
2021-10-14 14:29:59.052692,-110
2021-10-14 14:29:59.052700,-105
2021-10-14 14:29:59.052708,-100
2021-10-14 14:29:59.052716,-98
2021-10-14 14:29:59.052725,-90
2021-10-14 14:29:59.052733,-88
2021-10-14 14:29:59.052741,-85
2021-10-14 14:29:59.052748,-76
2021-10-14 14:29:59.052756,-73
2021-10-14 14:29:59.052764,-83
2021-10-14 14:29:59.052771,-76
2021-10-14 14:29:59.052779,-66
2021-10-14 14:29:59.233501,-66
2021-10-14 14:29:59.233521,-76
2021-10-14 14:29:59.233530,-78
2021-10-14 14:29:59.233539,-78
2021-10-14 14:29:59.233547,-83
2021-10-14 14:29:59.233556,-93
2021-10-14 14:29:59.233564,-80
2021-10-14 14:29:59.233572,-51
2021-10-14 14:29:59.233580,-34
2021-10-14 14:29:59.233589,-34
2021-10-14 14:29:59.233597,-44
2021-10-14 14:29:59.233606,-53
2021-10-14 14:29:59.233614,-68
2021-10-14 14:29:59.233622,-85
2021-10-14 14:29:59.233631,-95
2021-10-14 14:29:59.233639,-88
2021-10-14 14:29:59.233647,-76
2021-10-14 14:29:59.233656,-78
2021-10-14 14:29:59.233664,-78
2021-10-14 14:29:59.233672,-76
2021-10-14 14:29:59.233681,-71
2021-10-14 14:29:59.233689,2
2021-10-14 14:29:59.233697,240
2021-10-14 14:29:59.233706,610
2021-10-14 14:29:59.233714,853
2021-10-14 14:29:59.233722,547
2021-10-14 14:29:59.233731,-223
2021-10-14 14:29:59.233739,-468
2021-10-14 14:29:59.233748,-41
2021-10-14 14:29:59.233756,85
2021-10-14 14:29:59.458896,-73
2021-10-14 14:29:59.458917,-26
2021-10-14 14:29:59.458926,24
2021-10-14 14:29:59.458935,-29
2021-10-14 14:29:59.458944,-19
2021-10-14 14:29:59.458952,29
2021-10-14 14:29:59.458961,36
2021-10-14 14:29:59.458969,41
2021-10-14 14:29:59.458977,58
2021-10-14 14:29:59.458986,76
2021-10-14 14:29:59.458994,98
2021-10-14 14:29:59.459003,125
2021-10-14 14:29:59.459011,139
2021-10-14 14:29:59.459019,154
2021-10-14 14:29:59.459028,184
2021-10-14 14:29:59.459036,218
2021-10-14 14:29:59.459045,245
2021-10-14 14:29:59.459053,272
2021-10-14 14:29:59.459062,301
2021-10-14 14:29:59.459070,316
2021-10-14 14:29:59.459079,314
2021-10-14 14:29:59.459087,314
2021-10-14 14:29:59.459096,306
2021-10-14 14:29:59.459104,272
2021-10-14 14:29:59.459113,215
2021-10-14 14:29:59.459121,154
2021-10-14 14:29:59.459130,80
2021-10-14 14:29:59.459138,4
2021-10-14 14:29:59.459146,-56
2021-10-14 14:29:59.459155,-105
2021-10-14 14:29:59.683869,-149
2021-10-14 14:29:59.683890,-179
2021-10-14 14:29:59.683899,-193
2021-10-14 14:29:59.683908,-193
2021-10-14 14:29:59.683916,-188
2021-10-14 14:29:59.683925,-191
2021-10-14 14:29:59.683934,-196
2021-10-14 14:29:59.683942,-191
2021-10-14 14:29:59.683950,-179
2021-10-14 14:29:59.683959,-166
2021-10-14 14:29:59.683967,-154
2021-10-14 14:29:59.683976,-147
2021-10-14 14:29:59.683984,-152
2021-10-14 14:29:59.683992,-149
2021-10-14 14:29:59.684001,-132
2021-10-14 14:29:59.684009,-127
2021-10-14 14:29:59.684018,-132
2021-10-14 14:29:59.684026,-127
2021-10-14 14:29:59.684034,-122
2021-10-14 14:29:59.684043,-122
2021-10-14 14:29:59.684051,-115
2021-10-14 14:29:59.684059,-110
2021-10-14 14:29:59.684068,-107
2021-10-14 14:29:59.684076,-107
2021-10-14 14:29:59.684084,-107
2021-10-14 14:29:59.684093,-107
2021-10-14 14:29:59.684101,-103
2021-10-14 14:29:59.684109,-100
2021-10-14 14:29:59.684120,-100
2021-10-14 14:29:59.684129,-100
2021-10-14 14:29:59.908528,-90
2021-10-14 14:29:59.908550,-83
2021-10-14 14:29:59.908560,-88
2021-10-14 14:29:59.908569,-88
2021-10-14 14:29:59.908578,-73
2021-10-14 14:29:59.908587,-76
2021-10-14 14:29:59.908596,-93
2021-10-14 14:29:59.908605,-98
2021-10-14 14:29:59.908613,-105
2021-10-14 14:29:59.908622,-107
2021-10-14 14:29:59.908631,-98
2021-10-14 14:29:59.908639,-100
2021-10-14 14:29:59.908648,-117
2021-10-14 14:29:59.908657,-120
2021-10-14 14:29:59.908666,-112
2021-10-14 14:29:59.908675,-100
2021-10-14 14:29:59.908684,-71
2021-10-14 14:29:59.908692,-53
2021-10-14 14:29:59.908701,-61
2021-10-14 14:29:59.908710,-66
2021-10-14 14:29:59.908718,-76
2021-10-14 14:29:59.908727,-93
2021-10-14 14:29:59.908735,-98
2021-10-14 14:29:59.908744,-88
2021-10-14 14:29:59.908752,-80
2021-10-14 14:29:59.908761,-80
2021-10-14 14:29:59.908769,-78
2021-10-14 14:29:59.908778,-73
2021-10-14 14:29:59.908787,-76
2021-10-14 14:29:59.908795,-56
2021-10-14 14:30:00.133673,110
2021-10-14 14:30:00.133708,466
2021-10-14 14:30:00.133720,794
2021-10-14 14:30:00.133729,674
2021-10-14 14:30:00.133736,-76
2021-10-14 14:30:00.133744,-601
2021-10-14 14:30:00.133751,-233
2021-10-14 14:30:00.133759,95
2021-10-14 14:30:00.133767,-73
2021-10-14 14:30:00.133774,-103
2021-10-14 14:30:00.133781,-4
2021-10-14 14:30:00.133789,-44
2021-10-14 14:30:00.133796,-53
2021-10-14 14:30:00.133803,7
2021-10-14 14:30:00.133811,22
2021-10-14 14:30:00.133819,19
2021-10-14 14:30:00.133827,41
2021-10-14 14:30:00.133834,63
2021-10-14 14:30:00.133842,95
2021-10-14 14:30:00.133849,125
2021-10-14 14:30:00.133857,139
2021-10-14 14:30:00.133865,166
2021-10-14 14:30:00.133873,203
2021-10-14 14:30:00.133880,235
2021-10-14 14:30:00.133888,269
2021-10-14 14:30:00.133896,306
2021-10-14 14:30:00.133904,333
2021-10-14 14:30:00.133912,348
2021-10-14 14:30:00.133919,355
2021-10-14 14:30:00.133928,363
2021-10-14 14:30:00.403937,358
2021-10-14 14:30:00.403959,331
2021-10-14 14:30:00.403969,287
2021-10-14 14:30:00.403978,213
2021-10-14 14:30:00.403988,117
2021-10-14 14:30:00.403997,29
2021-10-14 14:30:00.404006,-41
2021-10-14 14:30:00.404014,-107
2021-10-14 14:30:00.404023,-154
2021-10-14 14:30:00.404031,-179
2021-10-14 14:30:00.404040,-206
2021-10-14 14:30:00.404049,-220
2021-10-14 14:30:00.404058,-206
2021-10-14 14:30:00.404066,-193
2021-10-14 14:30:00.404075,-193
2021-10-14 14:30:00.404084,-186
2021-10-14 14:30:00.404093,-179
2021-10-14 14:30:00.404102,-171
2021-10-14 14:30:00.404110,-152
2021-10-14 14:30:00.404119,-137
2021-10-14 14:30:00.404128,-132
2021-10-14 14:30:00.404136,-122
2021-10-14 14:30:00.404145,-112
2021-10-14 14:30:00.404153,-115
2021-10-14 14:30:00.404162,-112
2021-10-14 14:30:00.404171,-100
2021-10-14 14:30:00.404180,-88
2021-10-14 14:30:00.404188,-85
2021-10-14 14:30:00.404197,-88
2021-10-14 14:30:00.404205,-90
2021-10-14 14:30:00.674727,-90
2021-10-14 14:30:00.674770,-83
2021-10-14 14:30:00.674780,-76
2021-10-14 14:30:00.674788,-80
2021-10-14 14:30:00.674797,-93
2021-10-14 14:30:00.674806,-98
2021-10-14 14:30:00.674815,-90
2021-10-14 14:30:00.674823,-80
2021-10-14 14:30:00.674832,-80
2021-10-14 14:30:00.674841,-88
2021-10-14 14:30:00.674849,-90
2021-10-14 14:30:00.674858,-76
2021-10-14 14:30:00.674867,-71
2021-10-14 14:30:00.674875,-80
2021-10-14 14:30:00.674884,-90
2021-10-14 14:30:00.674893,-103
2021-10-14 14:30:00.674902,-107
2021-10-14 14:30:00.674910,-93
2021-10-14 14:30:00.674919,-76
2021-10-14 14:30:00.674927,-78
2021-10-14 14:30:00.674936,-95
2021-10-14 14:30:00.674944,-107
2021-10-14 14:30:00.674967,-95
2021-10-14 14:30:00.674976,-56
2021-10-14 14:30:00.674985,-26
2021-10-14 14:30:00.674993,-22
2021-10-14 14:30:00.675002,-34
2021-10-14 14:30:00.675010,-49
2021-10-14 14:30:00.675019,-63
2021-10-14 14:30:00.675027,-73
2021-10-14 14:30:00.853892,-68
2021-10-14 14:30:00.853912,-56
2021-10-14 14:30:00.853922,-53
2021-10-14 14:30:00.853931,-53
2021-10-14 14:30:00.853939,-49
2021-10-14 14:30:00.853948,-41
2021-10-14 14:30:00.853956,-24
2021-10-14 14:30:00.853965,71
2021-10-14 14:30:00.853973,326
2021-10-14 14:30:00.853982,699
2021-10-14 14:30:00.853990,900
2021-10-14 14:30:00.853999,458
2021-10-14 14:30:00.854007,-326
2021-10-14 14:30:00.854015,-377
2021-10-14 14:30:00.854024,73
2021-10-14 14:30:00.854033,61
2021-10-14 14:30:00.854041,-95
2021-10-14 14:30:00.854049,2
2021-10-14 14:30:00.854058,44
2021-10-14 14:30:00.854066,0
2021-10-14 14:30:00.854075,24
2021-10-14 14:30:00.854083,49
2021-10-14 14:30:00.854091,46
2021-10-14 14:30:00.854100,66
2021-10-14 14:30:00.854108,88
2021-10-14 14:30:00.854117,107
2021-10-14 14:30:00.854125,130
2021-10-14 14:30:00.854133,152
2021-10-14 14:30:00.854141,179
2021-10-14 14:30:00.854150,211
2021-10-14 14:30:01.167209,240
2021-10-14 14:30:01.167230,277
2021-10-14 14:30:01.167240,316
2021-10-14 14:30:01.167248,343
2021-10-14 14:30:01.167257,363
2021-10-14 14:30:01.167265,377
2021-10-14 14:30:01.167274,382
2021-10-14 14:30:01.167282,375
2021-10-14 14:30:01.167291,345
2021-10-14 14:30:01.167299,294
2021-10-14 14:30:01.167308,225
2021-10-14 14:30:01.167316,149
2021-10-14 14:30:01.167325,68
2021-10-14 14:30:01.167333,-14
2021-10-14 14:30:01.167342,-90
2021-10-14 14:30:01.167350,-137
2021-10-14 14:30:01.167359,-157
2021-10-14 14:30:01.167367,-181
2021-10-14 14:30:01.167376,-196
2021-10-14 14:30:01.167384,-193
2021-10-14 14:30:01.167392,-188
2021-10-14 14:30:01.167401,-186
2021-10-14 14:30:01.167409,-174
2021-10-14 14:30:01.167418,-152
2021-10-14 14:30:01.167426,-132
2021-10-14 14:30:01.167434,-139
2021-10-14 14:30:01.167443,-149
2021-10-14 14:30:01.167451,-130
2021-10-14 14:30:01.167460,-107
2021-10-14 14:30:01.167468,-107
2021-10-14 14:30:01.303909,-103
2021-10-14 14:30:01.303930,-88
2021-10-14 14:30:01.303939,-93
2021-10-14 14:30:01.303948,-98
2021-10-14 14:30:01.303957,-80
2021-10-14 14:30:01.303965,-68
2021-10-14 14:30:01.303974,-80
2021-10-14 14:30:01.303982,-90
2021-10-14 14:30:01.303991,-88
2021-10-14 14:30:01.303999,-85
2021-10-14 14:30:01.304008,-88
2021-10-14 14:30:01.304017,-85
2021-10-14 14:30:01.304025,-83
2021-10-14 14:30:01.304033,-90
2021-10-14 14:30:01.304042,-95
2021-10-14 14:30:01.304050,-88
2021-10-14 14:30:01.304059,-80
2021-10-14 14:30:01.304067,-78
2021-10-14 14:30:01.304076,-71
2021-10-14 14:30:01.304084,-63
2021-10-14 14:30:01.304092,-71
2021-10-14 14:30:01.304101,-80
2021-10-14 14:30:01.304109,-80
2021-10-14 14:30:01.304118,-66
2021-10-14 14:30:01.304126,-63
2021-10-14 14:30:01.304134,-78
2021-10-14 14:30:01.304143,-78
2021-10-14 14:30:01.304152,-66
2021-10-14 14:30:01.304160,-78
2021-10-14 14:30:01.304168,-103
2021-10-14 14:30:01.528893,-98
2021-10-14 14:30:01.528914,-63
2021-10-14 14:30:01.528923,-24
2021-10-14 14:30:01.528932,-17
2021-10-14 14:30:01.528940,-24
2021-10-14 14:30:01.528949,-29
2021-10-14 14:30:01.528957,-49
2021-10-14 14:30:01.528966,-73
2021-10-14 14:30:01.528974,-85
2021-10-14 14:30:01.528983,-76
2021-10-14 14:30:01.528991,-63
2021-10-14 14:30:01.529000,-61
2021-10-14 14:30:01.529008,-66
2021-10-14 14:30:01.529016,-73
2021-10-14 14:30:01.529025,-78
2021-10-14 14:30:01.529033,-61
2021-10-14 14:30:01.529042,68
2021-10-14 14:30:01.529050,397
2021-10-14 14:30:01.529059,760
2021-10-14 14:30:01.529067,765
2021-10-14 14:30:01.529075,137
2021-10-14 14:30:01.529084,-483
2021-10-14 14:30:01.529092,-291
2021-10-14 14:30:01.529104,66
2021-10-14 14:30:01.529112,-36
2021-10-14 14:30:01.529121,-103
2021-10-14 14:30:01.529129,-9
2021-10-14 14:30:01.529137,-22
2021-10-14 14:30:01.529146,-41
2021-10-14 14:30:01.529154,7
2021-10-14 14:30:01.753454,26
2021-10-14 14:30:01.753473,24
2021-10-14 14:30:01.753483,49
2021-10-14 14:30:01.753492,76
2021-10-14 14:30:01.753501,95
2021-10-14 14:30:01.753509,112
2021-10-14 14:30:01.753518,127
2021-10-14 14:30:01.753526,152
2021-10-14 14:30:01.753535,184
2021-10-14 14:30:01.753544,213
2021-10-14 14:30:01.753552,247
2021-10-14 14:30:01.753561,277
2021-10-14 14:30:01.753570,291
2021-10-14 14:30:01.753578,306
2021-10-14 14:30:01.753587,323
2021-10-14 14:30:01.753595,333
2021-10-14 14:30:01.753604,333
2021-10-14 14:30:01.753613,311
2021-10-14 14:30:01.753621,267
2021-10-14 14:30:01.753630,211
2021-10-14 14:30:01.753638,134
2021-10-14 14:30:01.753647,51
2021-10-14 14:30:01.753655,-17
2021-10-14 14:30:01.753663,-90
2021-10-14 14:30:01.753672,-154
2021-10-14 14:30:01.753680,-176
2021-10-14 14:30:01.753689,-181
2021-10-14 14:30:01.753697,-191
2021-10-14 14:30:01.753705,-191
2021-10-14 14:30:01.753714,-186
2021-10-14 14:30:01.978882,-186
2021-10-14 14:30:01.978902,-174
2021-10-14 14:30:01.978911,-157
2021-10-14 14:30:01.978920,-149
2021-10-14 14:30:01.978928,-154
2021-10-14 14:30:01.978937,-154
2021-10-14 14:30:01.978946,-137
2021-10-14 14:30:01.978954,-120
2021-10-14 14:30:01.978962,-120
2021-10-14 14:30:01.978971,-125
2021-10-14 14:30:01.978979,-125
2021-10-14 14:30:01.978988,-130
2021-10-14 14:30:01.978996,-132
2021-10-14 14:30:01.979004,-122
2021-10-14 14:30:01.979013,-115
2021-10-14 14:30:01.979021,-115
2021-10-14 14:30:01.979029,-107
2021-10-14 14:30:01.979038,-105
2021-10-14 14:30:01.979046,-115
2021-10-14 14:30:01.979055,-117
2021-10-14 14:30:01.979063,-105
2021-10-14 14:30:01.979071,-112
2021-10-14 14:30:01.979080,-130
2021-10-14 14:30:01.979088,-127
2021-10-14 14:30:01.979097,-112
2021-10-14 14:30:01.979105,-115
2021-10-14 14:30:01.979113,-125
2021-10-14 14:30:01.979122,-122
2021-10-14 14:30:01.979130,-120
2021-10-14 14:30:01.979139,-127
2021-10-14 14:30:02.203899,-125
2021-10-14 14:30:02.203919,-112
2021-10-14 14:30:02.203928,-105
2021-10-14 14:30:02.203937,-105
2021-10-14 14:30:02.203946,-115
2021-10-14 14:30:02.203954,-127
2021-10-14 14:30:02.203963,-130
2021-10-14 14:30:02.203971,-139
2021-10-14 14:30:02.203980,-139
2021-10-14 14:30:02.203988,-115
2021-10-14 14:30:02.203996,-83
2021-10-14 14:30:02.204005,-68
2021-10-14 14:30:02.204013,-68
2021-10-14 14:30:02.204021,-68
2021-10-14 14:30:02.204030,-76
2021-10-14 14:30:02.204038,-95
2021-10-14 14:30:02.204046,-107
2021-10-14 14:30:02.204055,-98
2021-10-14 14:30:02.204063,-93
2021-10-14 14:30:02.204071,-93
2021-10-14 14:30:02.204080,-78
2021-10-14 14:30:02.204088,-73
2021-10-14 14:30:02.204097,-83
2021-10-14 14:30:02.204105,-58
2021-10-14 14:30:02.204113,76
2021-10-14 14:30:02.204121,380
2021-10-14 14:30:02.204130,740
2021-10-14 14:30:02.204138,804
2021-10-14 14:30:02.204146,203
2021-10-14 14:30:02.204155,-515
2021-10-14 14:30:02.428520,-372
2021-10-14 14:30:02.428541,83
2021-10-14 14:30:02.428551,14
2021-10-14 14:30:02.428560,-105
2021-10-14 14:30:02.428569,-12
2021-10-14 14:30:02.428577,0
2021-10-14 14:30:02.428586,-24
2021-10-14 14:30:02.428594,22
2021-10-14 14:30:02.428603,46
2021-10-14 14:30:02.428611,36
2021-10-14 14:30:02.428620,49
2021-10-14 14:30:02.428628,78
2021-10-14 14:30:02.428637,103
2021-10-14 14:30:02.428645,127
2021-10-14 14:30:02.428654,154
2021-10-14 14:30:02.428662,176
2021-10-14 14:30:02.428671,208
2021-10-14 14:30:02.428679,245
2021-10-14 14:30:02.428688,279
2021-10-14 14:30:02.428696,309
2021-10-14 14:30:02.428705,341
2021-10-14 14:30:02.428713,375
2021-10-14 14:30:02.428722,390
2021-10-14 14:30:02.428730,390
2021-10-14 14:30:02.428738,395
2021-10-14 14:30:02.428747,382
2021-10-14 14:30:02.428756,326
2021-10-14 14:30:02.428764,233
2021-10-14 14:30:02.428772,139
2021-10-14 14:30:02.428781,53
2021-10-14 14:30:02.698899,-39
2021-10-14 14:30:02.698919,-115
2021-10-14 14:30:02.698928,-166
2021-10-14 14:30:02.698937,-206
2021-10-14 14:30:02.698945,-215
2021-10-14 14:30:02.698954,-203
2021-10-14 14:30:02.698962,-198
2021-10-14 14:30:02.698971,-198
2021-10-14 14:30:02.698979,-198
2021-10-14 14:30:02.698988,-203
2021-10-14 14:30:02.698996,-188
2021-10-14 14:30:02.699005,-164
2021-10-14 14:30:02.699013,-149
2021-10-14 14:30:02.699022,-139
2021-10-14 14:30:02.699030,-134
2021-10-14 14:30:02.699039,-132
2021-10-14 14:30:02.699047,-122
2021-10-14 14:30:02.699055,-103
2021-10-14 14:30:02.699064,-88
2021-10-14 14:30:02.699072,-95
2021-10-14 14:30:02.699081,-98
2021-10-14 14:30:02.699089,-88
2021-10-14 14:30:02.699097,-85
2021-10-14 14:30:02.699105,-90
2021-10-14 14:30:02.699114,-85
2021-10-14 14:30:02.699122,-83
2021-10-14 14:30:02.699131,-85
2021-10-14 14:30:02.699139,-83
2021-10-14 14:30:02.699147,-73
2021-10-14 14:30:02.699155,-68
2021-10-14 14:30:02.923871,-68
2021-10-14 14:30:02.923890,-68
2021-10-14 14:30:02.923900,-68
2021-10-14 14:30:02.923909,-68
2021-10-14 14:30:02.923917,-63
2021-10-14 14:30:02.923926,-56
2021-10-14 14:30:02.923935,-56
2021-10-14 14:30:02.923943,-56
2021-10-14 14:30:02.923952,-68
2021-10-14 14:30:02.923960,-78
2021-10-14 14:30:02.923969,-68
2021-10-14 14:30:02.923977,-58
2021-10-14 14:30:02.923986,-68
2021-10-14 14:30:02.923994,-83
2021-10-14 14:30:02.924003,-83
2021-10-14 14:30:02.924011,-56
2021-10-14 14:30:02.924020,-24
2021-10-14 14:30:02.924028,-26
2021-10-14 14:30:02.924036,-31
2021-10-14 14:30:02.924045,-26
2021-10-14 14:30:02.924053,-39
2021-10-14 14:30:02.924061,-63
2021-10-14 14:30:02.924070,-66
2021-10-14 14:30:02.924078,-51
2021-10-14 14:30:02.924086,-46
2021-10-14 14:30:02.924094,-51
2021-10-14 14:30:02.924103,-46
2021-10-14 14:30:02.924111,-44
2021-10-14 14:30:02.924120,-44
2021-10-14 14:30:02.924128,9
2021-10-14 14:30:03.192178,211
2021-10-14 14:30:03.192199,576
2021-10-14 14:30:03.192208,883
2021-10-14 14:30:03.192217,674
2021-10-14 14:30:03.192226,-112
2021-10-14 14:30:03.192234,-485
2021-10-14 14:30:03.192243,-80
2021-10-14 14:30:03.192251,88
2021-10-14 14:30:03.192260,-105
2021-10-14 14:30:03.192268,-68
2021-10-14 14:30:03.192276,19
2021-10-14 14:30:03.192285,-24
2021-10-14 14:30:03.192293,-14
2021-10-14 14:30:03.192301,24
2021-10-14 14:30:03.192310,12
2021-10-14 14:30:03.192318,17
2021-10-14 14:30:03.192326,58
2021-10-14 14:30:03.192335,90
2021-10-14 14:30:03.192343,105
2021-10-14 14:30:03.192352,125
2021-10-14 14:30:03.192360,152
2021-10-14 14:30:03.192368,181
2021-10-14 14:30:03.192377,211
2021-10-14 14:30:03.192385,250
2021-10-14 14:30:03.192393,282
2021-10-14 14:30:03.192401,306
2021-10-14 14:30:03.192410,336
2021-10-14 14:30:03.192418,365
2021-10-14 14:30:03.192426,372
2021-10-14 14:30:03.192434,368
2021-10-14 14:30:03.373887,353
2021-10-14 14:30:03.373907,326
2021-10-14 14:30:03.373916,274
2021-10-14 14:30:03.373925,193
2021-10-14 14:30:03.373933,103
2021-10-14 14:30:03.373942,24
2021-10-14 14:30:03.373950,-61
2021-10-14 14:30:03.373959,-130
2021-10-14 14:30:03.373967,-161
2021-10-14 14:30:03.373976,-176
2021-10-14 14:30:03.373984,-188
2021-10-14 14:30:03.373992,-188
2021-10-14 14:30:03.374001,-188
2021-10-14 14:30:03.374009,-196
2021-10-14 14:30:03.374017,-186
2021-10-14 14:30:03.374026,-166
2021-10-14 14:30:03.374034,-161
2021-10-14 14:30:03.374043,-157
2021-10-14 14:30:03.374052,-139
2021-10-14 14:30:03.374060,-127
2021-10-14 14:30:03.374068,-122
2021-10-14 14:30:03.374077,-115
2021-10-14 14:30:03.374085,-105
2021-10-14 14:30:03.374093,-103
2021-10-14 14:30:03.374102,-103
2021-10-14 14:30:03.374111,-95
2021-10-14 14:30:03.374119,-88
2021-10-14 14:30:03.374127,-90
2021-10-14 14:30:03.374136,-90
2021-10-14 14:30:03.374144,-83
2021-10-14 14:30:03.598863,-80
2021-10-14 14:30:03.598885,-83
2021-10-14 14:30:03.598895,-80
2021-10-14 14:30:03.598904,-76
2021-10-14 14:30:03.598912,-76
2021-10-14 14:30:03.598921,-78
2021-10-14 14:30:03.598929,-83
2021-10-14 14:30:03.598938,-85
2021-10-14 14:30:03.598946,-93
2021-10-14 14:30:03.598954,-110
2021-10-14 14:30:03.598963,-115
2021-10-14 14:30:03.598971,-105
2021-10-14 14:30:03.598980,-105
2021-10-14 14:30:03.598988,-107
2021-10-14 14:30:03.598997,-98
2021-10-14 14:30:03.599005,-90
2021-10-14 14:30:03.599013,-95
2021-10-14 14:30:03.599040,-103
2021-10-14 14:30:03.599049,-98
2021-10-14 14:30:03.599058,-90
2021-10-14 14:30:03.599066,-98
2021-10-14 14:30:03.599074,-105
2021-10-14 14:30:03.599082,-88
2021-10-14 14:30:03.599091,-53
2021-10-14 14:30:03.599099,-36
2021-10-14 14:30:03.599107,-41
2021-10-14 14:30:03.599115,-46
2021-10-14 14:30:03.599124,-53
2021-10-14 14:30:03.599132,-71
2021-10-14 14:30:03.599140,-80
2021-10-14 14:30:03.823900,-80
2021-10-14 14:30:03.823921,-76
2021-10-14 14:30:03.823931,-66
2021-10-14 14:30:03.823940,-56
2021-10-14 14:30:03.823948,-63
2021-10-14 14:30:03.823957,-78
2021-10-14 14:30:03.823965,-66
2021-10-14 14:30:03.823973,36
2021-10-14 14:30:03.823982,306
2021-10-14 14:30:03.823990,679
2021-10-14 14:30:03.823999,836
2021-10-14 14:30:03.824007,370
2021-10-14 14:30:03.824016,-385
2021-10-14 14:30:03.824024,-424
2021-10-14 14:30:03.824033,12
2021-10-14 14:30:03.824041,19
2021-10-14 14:30:03.824049,-115
2021-10-14 14:30:03.824058,-22
2021-10-14 14:30:03.824066,12
2021-10-14 14:30:03.824075,-31
2021-10-14 14:30:03.824083,0
2021-10-14 14:30:03.824092,36
2021-10-14 14:30:03.824100,26
2021-10-14 14:30:03.824108,39
2021-10-14 14:30:03.824117,71
2021-10-14 14:30:03.824125,90
2021-10-14 14:30:03.824133,110
2021-10-14 14:30:03.824142,134
2021-10-14 14:30:03.824150,161
2021-10-14 14:30:03.824158,191
2021-10-14 14:30:04.048576,225
2021-10-14 14:30:04.048597,260
2021-10-14 14:30:04.048606,291
2021-10-14 14:30:04.048615,316
2021-10-14 14:30:04.048623,331
2021-10-14 14:30:04.048632,336
2021-10-14 14:30:04.048640,348
2021-10-14 14:30:04.048649,355
2021-10-14 14:30:04.048657,343
2021-10-14 14:30:04.048665,304
2021-10-14 14:30:04.048674,238
2021-10-14 14:30:04.048682,152
2021-10-14 14:30:04.048691,66
2021-10-14 14:30:04.048699,-14
2021-10-14 14:30:04.048707,-95
2021-10-14 14:30:04.048716,-171
2021-10-14 14:30:04.048724,-211
2021-10-14 14:30:04.048733,-220
2021-10-14 14:30:04.048741,-215
2021-10-14 14:30:04.048749,-211
2021-10-14 14:30:04.048758,-211
2021-10-14 14:30:04.048766,-211
2021-10-14 14:30:04.048774,-201
2021-10-14 14:30:04.048783,-191
2021-10-14 14:30:04.048791,-179
2021-10-14 14:30:04.048799,-166
2021-10-14 14:30:04.048807,-157
2021-10-14 14:30:04.048816,-154
2021-10-14 14:30:04.048824,-149
2021-10-14 14:30:04.048832,-137
2021-10-14 14:30:04.273553,-117
2021-10-14 14:30:04.273573,-110
2021-10-14 14:30:04.273582,-112
2021-10-14 14:30:04.273591,-117
2021-10-14 14:30:04.273599,-117
2021-10-14 14:30:04.273633,-112
2021-10-14 14:30:04.273651,-112
2021-10-14 14:30:04.273661,-115
2021-10-14 14:30:04.273668,-115
2021-10-14 14:30:04.273675,-120
2021-10-14 14:30:04.273682,-125
2021-10-14 14:30:04.273689,-115
2021-10-14 14:30:04.273696,-105
2021-10-14 14:30:04.273703,-105
2021-10-14 14:30:04.273710,-105
2021-10-14 14:30:04.273717,-110
2021-10-14 14:30:04.273724,-110
2021-10-14 14:30:04.273731,-107
2021-10-14 14:30:04.273738,-107
2021-10-14 14:30:04.273745,-95
2021-10-14 14:30:04.273752,-90
2021-10-14 14:30:04.273760,-95
2021-10-14 14:30:04.273767,-88
2021-10-14 14:30:04.273774,-78
2021-10-14 14:30:04.273781,-80
2021-10-14 14:30:04.273788,-83
2021-10-14 14:30:04.273795,-90
2021-10-14 14:30:04.273802,-103
2021-10-14 14:30:04.273809,-80
2021-10-14 14:30:04.273816,-39
2021-10-14 14:30:04.543980,-24
2021-10-14 14:30:04.544000,-31
2021-10-14 14:30:04.544010,-56
2021-10-14 14:30:04.544018,-88
2021-10-14 14:30:04.544027,-98
2021-10-14 14:30:04.544036,-83
2021-10-14 14:30:04.544044,-80
2021-10-14 14:30:04.544053,-90
2021-10-14 14:30:04.544061,-85
2021-10-14 14:30:04.544069,-83
2021-10-14 14:30:04.544078,-90
2021-10-14 14:30:04.544086,-88
2021-10-14 14:30:04.544095,-44
2021-10-14 14:30:04.544103,130
2021-10-14 14:30:04.544112,471
2021-10-14 14:30:04.544120,785
2021-10-14 14:30:04.544128,652
2021-10-14 14:30:04.544137,-93
2021-10-14 14:30:04.544145,-593
2021-10-14 14:30:04.544153,-225
2021-10-14 14:30:04.544162,76
2021-10-14 14:30:04.544170,-98
2021-10-14 14:30:04.544179,-105
2021-10-14 14:30:04.544187,12
2021-10-14 14:30:04.544195,-17
2021-10-14 14:30:04.544204,-31
2021-10-14 14:30:04.544212,19
2021-10-14 14:30:04.544220,26
2021-10-14 14:30:04.544229,34
2021-10-14 14:30:04.544237,71
2021-10-14 14:30:04.768862,93
2021-10-14 14:30:04.768881,110
2021-10-14 14:30:04.768891,134
2021-10-14 14:30:04.768900,159
2021-10-14 14:30:04.768908,188
2021-10-14 14:30:04.768917,223
2021-10-14 14:30:04.768925,255
2021-10-14 14:30:04.768934,291
2021-10-14 14:30:04.768942,326
2021-10-14 14:30:04.768951,348
2021-10-14 14:30:04.768959,370
2021-10-14 14:30:04.768967,382
2021-10-14 14:30:04.768976,382
2021-10-14 14:30:04.768984,372
2021-10-14 14:30:04.768992,343
2021-10-14 14:30:04.769001,284
2021-10-14 14:30:04.769009,208
2021-10-14 14:30:04.769018,117
2021-10-14 14:30:04.769026,17
2021-10-14 14:30:04.769034,-63
2021-10-14 14:30:04.769042,-127
2021-10-14 14:30:04.769051,-176
2021-10-14 14:30:04.769059,-193
2021-10-14 14:30:04.769067,-186
2021-10-14 14:30:04.769076,-188
2021-10-14 14:30:04.769084,-193
2021-10-14 14:30:04.769092,-191
2021-10-14 14:30:04.769101,-186
2021-10-14 14:30:04.769109,-176
2021-10-14 14:30:04.769117,-164
2021-10-14 14:30:04.993553,-147
2021-10-14 14:30:04.993573,-134
2021-10-14 14:30:04.993583,-132
2021-10-14 14:30:04.993591,-122
2021-10-14 14:30:04.993600,-105
2021-10-14 14:30:04.993608,-98
2021-10-14 14:30:04.993617,-100
2021-10-14 14:30:04.993625,-103
2021-10-14 14:30:04.993634,-103
2021-10-14 14:30:04.993642,-100
2021-10-14 14:30:04.993651,-90
2021-10-14 14:30:04.993659,-83
2021-10-14 14:30:04.993668,-85
2021-10-14 14:30:04.993676,-90
2021-10-14 14:30:04.993684,-95
2021-10-14 14:30:04.993693,-90
2021-10-14 14:30:04.993701,-85
2021-10-14 14:30:04.993710,-85
2021-10-14 14:30:04.993718,-85
2021-10-14 14:30:04.993727,-80
2021-10-14 14:30:04.993735,-83
2021-10-14 14:30:04.993743,-85
2021-10-14 14:30:04.993752,-71
2021-10-14 14:30:04.993760,-61
2021-10-14 14:30:04.993768,-63
2021-10-14 14:30:04.993777,-71
2021-10-14 14:30:04.993785,-80
2021-10-14 14:30:04.993794,-83
2021-10-14 14:30:04.993802,-76
2021-10-14 14:30:04.993811,-78
2021-10-14 14:30:05.262106,-63
2021-10-14 14:30:05.262125,-24
2021-10-14 14:30:05.262135,0
2021-10-14 14:30:05.262143,-12
2021-10-14 14:30:05.262152,-19
2021-10-14 14:30:05.262160,-12
2021-10-14 14:30:05.262169,-34
2021-10-14 14:30:05.262177,-73
2021-10-14 14:30:05.262186,-73
2021-10-14 14:30:05.262194,-58
2021-10-14 14:30:05.262203,-63
2021-10-14 14:30:05.262211,-71
2021-10-14 14:30:05.262220,-71
2021-10-14 14:30:05.262228,-76
2021-10-14 14:30:05.262236,-76
2021-10-14 14:30:05.262245,-9
2021-10-14 14:30:05.262253,201
2021-10-14 14:30:05.262262,571
2021-10-14 14:30:05.262270,871
2021-10-14 14:30:05.262279,633
2021-10-14 14:30:05.262287,-157
2021-10-14 14:30:05.262295,-485
2021-10-14 14:30:05.262304,-66
2021-10-14 14:30:05.262312,90
2021-10-14 14:30:05.262321,-95
2021-10-14 14:30:05.262329,-51
2021-10-14 14:30:05.262338,31
2021-10-14 14:30:05.262346,-14
2021-10-14 14:30:05.262354,-7
2021-10-14 14:30:05.262362,39
2021-10-14 14:30:05.443952,39
2021-10-14 14:30:05.443971,46
2021-10-14 14:30:05.443981,83
2021-10-14 14:30:05.443989,107
2021-10-14 14:30:05.443998,120
2021-10-14 14:30:05.444006,147
2021-10-14 14:30:05.444015,164
2021-10-14 14:30:05.444023,184
2021-10-14 14:30:05.444031,220
2021-10-14 14:30:05.444040,257
2021-10-14 14:30:05.444048,289
2021-10-14 14:30:05.444057,318
2021-10-14 14:30:05.444065,331
2021-10-14 14:30:05.444073,341
2021-10-14 14:30:05.444082,353
2021-10-14 14:30:05.444090,353
2021-10-14 14:30:05.444098,343
2021-10-14 14:30:05.444106,318
2021-10-14 14:30:05.444115,260
2021-10-14 14:30:05.444123,174
2021-10-14 14:30:05.444132,85
2021-10-14 14:30:05.444140,2
2021-10-14 14:30:05.444148,-66
2021-10-14 14:30:05.444156,-115
2021-10-14 14:30:05.444165,-147
2021-10-14 14:30:05.444173,-164
2021-10-14 14:30:05.444181,-176
2021-10-14 14:30:05.444189,-181
2021-10-14 14:30:05.444198,-171
2021-10-14 14:30:05.444206,-161
2021-10-14 14:30:05.668578,-164
2021-10-14 14:30:05.668598,-169
2021-10-14 14:30:05.668607,-164
2021-10-14 14:30:05.668616,-154
2021-10-14 14:30:05.668624,-147
2021-10-14 14:30:05.668633,-144
2021-10-14 14:30:05.668641,-142
2021-10-14 14:30:05.668650,-127
2021-10-14 14:30:05.668658,-117
2021-10-14 14:30:05.668667,-115
2021-10-14 14:30:05.668675,-107
2021-10-14 14:30:05.668684,-117
2021-10-14 14:30:05.668692,-120
2021-10-14 14:30:05.668701,-103
2021-10-14 14:30:05.668709,-95
2021-10-14 14:30:05.668717,-100
2021-10-14 14:30:05.668726,-98
2021-10-14 14:30:05.668734,-95
2021-10-14 14:30:05.668743,-98
2021-10-14 14:30:05.668751,-93
2021-10-14 14:30:05.668759,-88
2021-10-14 14:30:05.668767,-85
2021-10-14 14:30:05.668776,-83
2021-10-14 14:30:05.668784,-80
2021-10-14 14:30:05.668793,-76
2021-10-14 14:30:05.668801,-63
2021-10-14 14:30:05.668809,-66
2021-10-14 14:30:05.668818,-76
2021-10-14 14:30:05.668826,-76
2021-10-14 14:30:05.668835,-71
2021-10-14 14:30:05.893956,-63
2021-10-14 14:30:05.893977,-58
2021-10-14 14:30:05.893987,-71
2021-10-14 14:30:05.893996,-76
2021-10-14 14:30:05.894004,-58
2021-10-14 14:30:05.894013,-26
2021-10-14 14:30:05.894021,0
2021-10-14 14:30:05.894030,7
2021-10-14 14:30:05.894038,-2
2021-10-14 14:30:05.894047,-19
2021-10-14 14:30:05.894055,-41
2021-10-14 14:30:05.894064,-61
2021-10-14 14:30:05.894072,-63
2021-10-14 14:30:05.894080,-51
2021-10-14 14:30:05.894092,-44
2021-10-14 14:30:05.894101,-46
2021-10-14 14:30:05.894109,-49
2021-10-14 14:30:05.894118,-51
2021-10-14 14:30:05.894126,-49
2021-10-14 14:30:05.894135,14
2021-10-14 14:30:05.894143,247
2021-10-14 14:30:05.894152,618
2021-10-14 14:30:05.894160,851
2021-10-14 14:30:05.894169,522
2021-10-14 14:30:05.894177,-235
2021-10-14 14:30:05.894186,-439
2021-10-14 14:30:05.894194,-14
2021-10-14 14:30:05.894203,80
2021-10-14 14:30:05.894211,-93
2021-10-14 14:30:05.894220,-46
2021-10-14 14:30:06.163533,19
2021-10-14 14:30:06.163553,-14
2021-10-14 14:30:06.163563,0
2021-10-14 14:30:06.163571,29
2021-10-14 14:30:06.163580,22
2021-10-14 14:30:06.163588,26
2021-10-14 14:30:06.163597,49
2021-10-14 14:30:06.163605,63
2021-10-14 14:30:06.163613,83
2021-10-14 14:30:06.163622,100
2021-10-14 14:30:06.163630,115
2021-10-14 14:30:06.163639,142
2021-10-14 14:30:06.163647,176
2021-10-14 14:30:06.163655,213
2021-10-14 14:30:06.163664,247
2021-10-14 14:30:06.163672,272
2021-10-14 14:30:06.163681,287
2021-10-14 14:30:06.163689,306
2021-10-14 14:30:06.163697,326
2021-10-14 14:30:06.163706,326
2021-10-14 14:30:06.163714,311
2021-10-14 14:30:06.163722,284
2021-10-14 14:30:06.163730,230
2021-10-14 14:30:06.163739,159
2021-10-14 14:30:06.163747,83
2021-10-14 14:30:06.163755,4
2021-10-14 14:30:06.163764,-66
2021-10-14 14:30:06.163772,-130
2021-10-14 14:30:06.163781,-164
2021-10-14 14:30:06.163789,-171
2021-10-14 14:30:06.388914,-184
2021-10-14 14:30:06.388934,-201
2021-10-14 14:30:06.388943,-196
2021-10-14 14:30:06.388952,-188
2021-10-14 14:30:06.388961,-188
2021-10-14 14:30:06.388969,-176
2021-10-14 14:30:06.388977,-157
2021-10-14 14:30:06.388986,-147
2021-10-14 14:30:06.388994,-154
2021-10-14 14:30:06.389003,-159
2021-10-14 14:30:06.389011,-147
2021-10-14 14:30:06.389019,-127
2021-10-14 14:30:06.389028,-120
2021-10-14 14:30:06.389036,-120
2021-10-14 14:30:06.389044,-127
2021-10-14 14:30:06.389053,-134
2021-10-14 14:30:06.389061,-130
2021-10-14 14:30:06.389070,-120
2021-10-14 14:30:06.389078,-117
2021-10-14 14:30:06.389086,-120
2021-10-14 14:30:06.389095,-122
2021-10-14 14:30:06.389103,-125
2021-10-14 14:30:06.389111,-122
2021-10-14 14:30:06.389120,-115
2021-10-14 14:30:06.389128,-103
2021-10-14 14:30:06.389137,-95
2021-10-14 14:30:06.389145,-98
2021-10-14 14:30:06.389153,-100
2021-10-14 14:30:06.389161,-93
2021-10-14 14:30:06.389170,-85
2021-10-14 14:30:06.614136,-80
2021-10-14 14:30:06.614155,-78
2021-10-14 14:30:06.614165,-83
2021-10-14 14:30:06.614174,-100
2021-10-14 14:30:06.614182,-105
2021-10-14 14:30:06.614191,-73
2021-10-14 14:30:06.614199,-29
2021-10-14 14:30:06.614207,-12
2021-10-14 14:30:06.614216,-26
2021-10-14 14:30:06.614224,-36
2021-10-14 14:30:06.614232,-41
2021-10-14 14:30:06.614239,-68
2021-10-14 14:30:06.614246,-88
2021-10-14 14:30:06.614252,-73
2021-10-14 14:30:06.614258,-76
2021-10-14 14:30:06.614266,-98
2021-10-14 14:30:06.614273,-90
2021-10-14 14:30:06.614280,-80
2021-10-14 14:30:06.614288,-85
2021-10-14 14:30:06.614295,-76
2021-10-14 14:30:06.614303,4
2021-10-14 14:30:06.614310,230
2021-10-14 14:30:06.614317,586
2021-10-14 14:30:06.614325,814
2021-10-14 14:30:06.614331,468
2021-10-14 14:30:06.614338,-338
2021-10-14 14:30:06.614346,-556
2021-10-14 14:30:06.614353,-76
2021-10-14 14:30:06.614361,51
2021-10-14 14:30:06.614369,-120
2021-10-14 14:30:06.883564,-51
2021-10-14 14:30:06.883584,14
2021-10-14 14:30:06.883594,-41
2021-10-14 14:30:06.883602,-29
2021-10-14 14:30:06.883611,12
2021-10-14 14:30:06.883619,4
2021-10-14 14:30:06.883628,19
2021-10-14 14:30:06.883637,49
2021-10-14 14:30:06.883645,53
2021-10-14 14:30:06.883654,68
2021-10-14 14:30:06.883662,107
2021-10-14 14:30:06.883670,137
2021-10-14 14:30:06.883679,157
2021-10-14 14:30:06.883687,188
2021-10-14 14:30:06.883696,220
2021-10-14 14:30:06.883704,247
2021-10-14 14:30:06.883713,289
2021-10-14 14:30:06.883721,326
2021-10-14 14:30:06.883729,336
2021-10-14 14:30:06.883738,336
2021-10-14 14:30:06.883746,333
2021-10-14 14:30:06.883755,314
2021-10-14 14:30:06.883763,282
2021-10-14 14:30:06.883771,242
2021-10-14 14:30:06.883780,164
2021-10-14 14:30:06.883788,61
2021-10-14 14:30:06.883796,-24
2021-10-14 14:30:06.883805,-95
2021-10-14 14:30:06.883813,-154
2021-10-14 14:30:06.883821,-186
2021-10-14 14:30:07.063612,-198
2021-10-14 14:30:07.063633,-206
2021-10-14 14:30:07.063642,-203
2021-10-14 14:30:07.063651,-198
2021-10-14 14:30:07.063660,-196
2021-10-14 14:30:07.063669,-191
2021-10-14 14:30:07.063677,-184
2021-10-14 14:30:07.063686,-174
2021-10-14 14:30:07.063695,-166
2021-10-14 14:30:07.063703,-166
2021-10-14 14:30:07.063712,-157
2021-10-14 14:30:07.063721,-139
2021-10-14 14:30:07.063729,-132
2021-10-14 14:30:07.063738,-142
2021-10-14 14:30:07.063746,-142
2021-10-14 14:30:07.063755,-127
2021-10-14 14:30:07.063763,-117
2021-10-14 14:30:07.063772,-125
2021-10-14 14:30:07.063780,-152
2021-10-14 14:30:07.063789,-164
2021-10-14 14:30:07.063797,-152
2021-10-14 14:30:07.063806,-137
2021-10-14 14:30:07.063814,-127
2021-10-14 14:30:07.063823,-125
2021-10-14 14:30:07.063831,-132
2021-10-14 14:30:07.063840,-132
2021-10-14 14:30:07.063848,-120
2021-10-14 14:30:07.063857,-115
2021-10-14 14:30:07.063865,-107
2021-10-14 14:30:07.063873,-100
2021-10-14 14:30:07.332483,-100
2021-10-14 14:30:07.332503,-105
2021-10-14 14:30:07.332513,-103
2021-10-14 14:30:07.332522,-80
2021-10-14 14:30:07.332530,-46
2021-10-14 14:30:07.332539,-31
2021-10-14 14:30:07.332547,-36
2021-10-14 14:30:07.332556,-34
2021-10-14 14:30:07.332565,-46
2021-10-14 14:30:07.332573,-78
2021-10-14 14:30:07.332581,-88
2021-10-14 14:30:07.332590,-73
2021-10-14 14:30:07.332599,-76
2021-10-14 14:30:07.332607,-80
2021-10-14 14:30:07.332615,-71
2021-10-14 14:30:07.332624,-56
2021-10-14 14:30:07.332632,-46
2021-10-14 14:30:07.332641,-46
2021-10-14 14:30:07.332649,4
2021-10-14 14:30:07.332657,215
2021-10-14 14:30:07.332665,596
2021-10-14 14:30:07.332674,893
2021-10-14 14:30:07.332682,633
2021-10-14 14:30:07.332691,-174
2021-10-14 14:30:07.332699,-495
2021-10-14 14:30:07.332707,-44
2021-10-14 14:30:07.332716,120
2021-10-14 14:30:07.332724,-71
2021-10-14 14:30:07.332733,-31
2021-10-14 14:30:07.332741,39
2021-10-14 14:30:07.513528,-14
2021-10-14 14:30:07.513547,-7
2021-10-14 14:30:07.513557,29
2021-10-14 14:30:07.513565,24
2021-10-14 14:30:07.513574,41
2021-10-14 14:30:07.513582,61
2021-10-14 14:30:07.513590,63
2021-10-14 14:30:07.513599,88
2021-10-14 14:30:07.513607,122
2021-10-14 14:30:07.513615,152
2021-10-14 14:30:07.513624,176
2021-10-14 14:30:07.513632,196
2021-10-14 14:30:07.513641,225
2021-10-14 14:30:07.513649,264
2021-10-14 14:30:07.513658,289
2021-10-14 14:30:07.513666,309
2021-10-14 14:30:07.513675,331
2021-10-14 14:30:07.513683,338
2021-10-14 14:30:07.513691,333
2021-10-14 14:30:07.513699,318
2021-10-14 14:30:07.513708,282
2021-10-14 14:30:07.513716,223
2021-10-14 14:30:07.513725,147
2021-10-14 14:30:07.513733,44
2021-10-14 14:30:07.513741,-51
2021-10-14 14:30:07.513749,-105
2021-10-14 14:30:07.513758,-147
2021-10-14 14:30:07.513766,-186
2021-10-14 14:30:07.513774,-211
2021-10-14 14:30:07.513783,-211
2021-10-14 14:30:07.738885,-206
2021-10-14 14:30:07.738905,-201
2021-10-14 14:30:07.738915,-193
2021-10-14 14:30:07.738924,-186
2021-10-14 14:30:07.738932,-181
2021-10-14 14:30:07.738941,-171
2021-10-14 14:30:07.738949,-154
2021-10-14 14:30:07.738958,-147
2021-10-14 14:30:07.738966,-142
2021-10-14 14:30:07.738975,-127
2021-10-14 14:30:07.738983,-120
2021-10-14 14:30:07.738992,-127
2021-10-14 14:30:07.739000,-127
2021-10-14 14:30:07.739009,-120
2021-10-14 14:30:07.739017,-120
2021-10-14 14:30:07.739025,-117
2021-10-14 14:30:07.739034,-105
2021-10-14 14:30:07.739042,-105
2021-10-14 14:30:07.739050,-110
2021-10-14 14:30:07.739058,-100
2021-10-14 14:30:07.739067,-98
2021-10-14 14:30:07.739075,-103
2021-10-14 14:30:07.739083,-98
2021-10-14 14:30:07.739092,-83
2021-10-14 14:30:07.739100,-76
2021-10-14 14:30:07.739108,-73
2021-10-14 14:30:07.739117,-80
2021-10-14 14:30:07.739125,-93
2021-10-14 14:30:07.739133,-93
2021-10-14 14:30:07.739142,-61
2021-10-14 14:30:07.963523,-19
2021-10-14 14:30:07.963542,2
2021-10-14 14:30:07.963552,2
2021-10-14 14:30:07.963560,-9
2021-10-14 14:30:07.963569,-39
2021-10-14 14:30:07.963578,-63
2021-10-14 14:30:07.963586,-58
2021-10-14 14:30:07.963595,-44
2021-10-14 14:30:07.963604,-46
2021-10-14 14:30:07.963612,-56
2021-10-14 14:30:07.963621,-63
2021-10-14 14:30:07.963630,-61
2021-10-14 14:30:07.963638,-51
2021-10-14 14:30:07.963647,-41
2021-10-14 14:30:07.963655,4
2021-10-14 14:30:07.963664,198
2021-10-14 14:30:07.963672,566
2021-10-14 14:30:07.963681,875
2021-10-14 14:30:07.963689,633
2021-10-14 14:30:07.963698,-149
2021-10-14 14:30:07.963706,-466
2021-10-14 14:30:07.963715,-61
2021-10-14 14:30:07.963723,80
2021-10-14 14:30:07.963732,-80
2021-10-14 14:30:07.963740,-29
2021-10-14 14:30:07.963748,36
2021-10-14 14:30:07.963757,-14
2021-10-14 14:30:07.963765,-14
2021-10-14 14:30:07.963774,17
2021-10-14 14:30:07.963782,9
2021-10-14 14:30:08.278457,9
2021-10-14 14:30:08.278476,34
2021-10-14 14:30:08.278486,46
2021-10-14 14:30:08.278494,51
2021-10-14 14:30:08.278503,73
2021-10-14 14:30:08.278511,100
2021-10-14 14:30:08.278520,117
2021-10-14 14:30:08.278529,142
2021-10-14 14:30:08.278537,174
2021-10-14 14:30:08.278546,184
2021-10-14 14:30:08.278554,203
2021-10-14 14:30:08.278563,240
2021-10-14 14:30:08.278571,255
2021-10-14 14:30:08.278580,252
2021-10-14 14:30:08.278588,252
2021-10-14 14:30:08.278596,240
2021-10-14 14:30:08.278605,203
2021-10-14 14:30:08.278614,134
2021-10-14 14:30:08.278622,53
2021-10-14 14:30:08.278630,-17
2021-10-14 14:30:08.278639,-95
2021-10-14 14:30:08.278647,-176
2021-10-14 14:30:08.278656,-220
2021-10-14 14:30:08.278664,-235
2021-10-14 14:30:08.278672,-255
2021-10-14 14:30:08.278681,-264
2021-10-14 14:30:08.278689,-257
2021-10-14 14:30:08.278698,-257
2021-10-14 14:30:08.278706,-252
2021-10-14 14:30:08.278715,-235
2021-10-14 14:30:08.458937,-218
2021-10-14 14:30:08.458957,-213
2021-10-14 14:30:08.458966,-208
2021-10-14 14:30:08.458975,-198
2021-10-14 14:30:08.458983,-191
2021-10-14 14:30:08.458992,-191
2021-10-14 14:30:08.459000,-186
2021-10-14 14:30:08.459009,-176
2021-10-14 14:30:08.459018,-176
2021-10-14 14:30:08.459026,-181
2021-10-14 14:30:08.459035,-171
2021-10-14 14:30:08.459043,-164
2021-10-14 14:30:08.459052,-161
2021-10-14 14:30:08.459060,-161
2021-10-14 14:30:08.459069,-174
2021-10-14 14:30:08.459077,-179
2021-10-14 14:30:08.459085,-166
2021-10-14 14:30:08.459094,-164
2021-10-14 14:30:08.459102,-169
2021-10-14 14:30:08.459114,-171
2021-10-14 14:30:08.459122,-176
2021-10-14 14:30:08.459131,-186
2021-10-14 14:30:08.459139,-193
2021-10-14 14:30:08.459147,-186
2021-10-14 14:30:08.459156,-161
2021-10-14 14:30:08.459164,-127
2021-10-14 14:30:08.459172,-110
2021-10-14 14:30:08.459181,-110
2021-10-14 14:30:08.459189,-112
2021-10-14 14:30:08.459198,-122
2021-10-14 14:30:08.683972,-132
2021-10-14 14:30:08.683993,-139
2021-10-14 14:30:08.684002,-142
2021-10-14 14:30:08.684011,-147
2021-10-14 14:30:08.684019,-159
2021-10-14 14:30:08.684028,-159
2021-10-14 14:30:08.684036,-144
2021-10-14 14:30:08.684045,-144
2021-10-14 14:30:08.684054,-157
2021-10-14 14:30:08.684062,-107
2021-10-14 14:30:08.684071,110
2021-10-14 14:30:08.684079,495
2021-10-14 14:30:08.684088,790
2021-10-14 14:30:08.684096,510
2021-10-14 14:30:08.684105,-304
2021-10-14 14:30:08.684113,-606
2021-10-14 14:30:08.684122,-147
2021-10-14 14:30:08.684130,22
2021-10-14 14:30:08.684139,-161
2021-10-14 14:30:08.684147,-120
2021-10-14 14:30:08.684156,-44
2021-10-14 14:30:08.684164,-98
2021-10-14 14:30:08.684172,-93
2021-10-14 14:30:08.684181,-41
2021-10-14 14:30:08.684189,-34
2021-10-14 14:30:08.684197,-26
2021-10-14 14:30:08.684206,4
2021-10-14 14:30:08.684214,26
2021-10-14 14:30:08.684222,44
2021-10-14 14:30:08.684230,80
2021-10-14 14:30:08.908541,112
2021-10-14 14:30:08.908560,125
2021-10-14 14:30:08.908570,142
2021-10-14 14:30:08.908579,176
2021-10-14 14:30:08.908587,220
2021-10-14 14:30:08.908596,252
2021-10-14 14:30:08.908604,264
2021-10-14 14:30:08.908613,260
2021-10-14 14:30:08.908621,252
2021-10-14 14:30:08.908630,252
2021-10-14 14:30:08.908638,240
2021-10-14 14:30:08.908647,196
2021-10-14 14:30:08.908655,127
2021-10-14 14:30:08.908664,36
2021-10-14 14:30:08.908672,-63
2021-10-14 14:30:08.908680,-144
2021-10-14 14:30:08.908689,-198
2021-10-14 14:30:08.908697,-250
2021-10-14 14:30:08.908706,-291
2021-10-14 14:30:08.908714,-309
2021-10-14 14:30:08.908723,-311
2021-10-14 14:30:08.908731,-314
2021-10-14 14:30:08.908739,-306
2021-10-14 14:30:08.908748,-296
2021-10-14 14:30:08.908756,-291
2021-10-14 14:30:08.908764,-282
2021-10-14 14:30:08.908773,-277
2021-10-14 14:30:08.908781,-272
2021-10-14 14:30:08.908790,-262
2021-10-14 14:30:08.908798,-250
2021-10-14 14:30:09.133551,-235
2021-10-14 14:30:09.133570,-215
2021-10-14 14:30:09.133579,-203
2021-10-14 14:30:09.133588,-208
2021-10-14 14:30:09.133596,-213
2021-10-14 14:30:09.133605,-218
2021-10-14 14:30:09.133613,-223
2021-10-14 14:30:09.133622,-223
2021-10-14 14:30:09.133630,-218
2021-10-14 14:30:09.133638,-213
2021-10-14 14:30:09.133647,-215
2021-10-14 14:30:09.133655,-228
2021-10-14 14:30:09.133663,-235
2021-10-14 14:30:09.133672,-223
2021-10-14 14:30:09.133680,-215
2021-10-14 14:30:09.133688,-218
2021-10-14 14:30:09.133697,-213
2021-10-14 14:30:09.133705,-179
2021-10-14 14:30:09.133713,-142
2021-10-14 14:30:09.133722,-134
2021-10-14 14:30:09.133730,-115
2021-10-14 14:30:09.133738,-103
2021-10-14 14:30:09.133747,-130
2021-10-14 14:30:09.133755,-152
2021-10-14 14:30:09.133763,-152
2021-10-14 14:30:09.133772,-154
2021-10-14 14:30:09.133780,-149
2021-10-14 14:30:09.133788,-134
2021-10-14 14:30:09.133796,-122
2021-10-14 14:30:09.133805,-125
2021-10-14 14:30:09.447289,-127
2021-10-14 14:30:09.447314,-107
2021-10-14 14:30:09.447323,4
2021-10-14 14:30:09.447332,291
2021-10-14 14:30:09.447341,672
2021-10-14 14:30:09.447349,797
2021-10-14 14:30:09.447358,247
2021-10-14 14:30:09.447366,-522
2021-10-14 14:30:09.447375,-449
2021-10-14 14:30:09.447383,39
2021-10-14 14:30:09.447392,-7
2021-10-14 14:30:09.447400,-154
2021-10-14 14:30:09.447409,-49
2021-10-14 14:30:09.447417,-19
2021-10-14 14:30:09.447426,-66
2021-10-14 14:30:09.447435,-26
2021-10-14 14:30:09.447443,19
2021-10-14 14:30:09.447452,26
2021-10-14 14:30:09.447460,49
2021-10-14 14:30:09.447469,78
2021-10-14 14:30:09.447477,93
2021-10-14 14:30:09.447486,112
2021-10-14 14:30:09.447494,147
2021-10-14 14:30:09.447503,174
2021-10-14 14:30:09.447511,201
2021-10-14 14:30:09.447520,247
2021-10-14 14:30:09.447528,291
2021-10-14 14:30:09.447537,318
2021-10-14 14:30:09.447545,345
2021-10-14 14:30:09.447554,370
2021-10-14 14:30:09.583939,380
2021-10-14 14:30:09.583959,385
2021-10-14 14:30:09.583969,385
2021-10-14 14:30:09.583978,358
2021-10-14 14:30:09.583987,294
2021-10-14 14:30:09.583995,198
2021-10-14 14:30:09.584004,90
2021-10-14 14:30:09.584013,-4
2021-10-14 14:30:09.584022,-90
2021-10-14 14:30:09.584031,-154
2021-10-14 14:30:09.584039,-193
2021-10-14 14:30:09.584048,-223
2021-10-14 14:30:09.584057,-245
2021-10-14 14:30:09.584065,-247
2021-10-14 14:30:09.584074,-240
2021-10-14 14:30:09.584083,-233
2021-10-14 14:30:09.584091,-233
2021-10-14 14:30:09.584100,-230
2021-10-14 14:30:09.584109,-218
2021-10-14 14:30:09.584117,-206
2021-10-14 14:30:09.584126,-201
2021-10-14 14:30:09.584135,-191
2021-10-14 14:30:09.584143,-181
2021-10-14 14:30:09.584152,-166
2021-10-14 14:30:09.584161,-154
2021-10-14 14:30:09.584170,-144
2021-10-14 14:30:09.584178,-137
2021-10-14 14:30:09.584187,-134
2021-10-14 14:30:09.584196,-125
2021-10-14 14:30:09.584205,-112
2021-10-14 14:30:09.808923,-115
2021-10-14 14:30:09.808942,-122
2021-10-14 14:30:09.808952,-117
2021-10-14 14:30:09.808960,-112
2021-10-14 14:30:09.808969,-117
2021-10-14 14:30:09.808977,-122
2021-10-14 14:30:09.808986,-125
2021-10-14 14:30:09.808994,-122
2021-10-14 14:30:09.809002,-110
2021-10-14 14:30:09.809011,-90
2021-10-14 14:30:09.809019,-63
2021-10-14 14:30:09.809028,-46
2021-10-14 14:30:09.809036,-46
2021-10-14 14:30:09.809044,-49
2021-10-14 14:30:09.809052,-53
2021-10-14 14:30:09.809061,-66
2021-10-14 14:30:09.809069,-78
2021-10-14 14:30:09.809077,-68
2021-10-14 14:30:09.809086,-58
2021-10-14 14:30:09.809094,-56
2021-10-14 14:30:09.809102,-51
2021-10-14 14:30:09.809111,-51
2021-10-14 14:30:09.809119,-46
2021-10-14 14:30:09.809127,-22
2021-10-14 14:30:09.809135,73
2021-10-14 14:30:09.809144,341
2021-10-14 14:30:09.809152,740
2021-10-14 14:30:09.809161,929
2021-10-14 14:30:09.809169,444
2021-10-14 14:30:09.809177,-318
2021-10-14 14:30:10.078611,-311
2021-10-14 14:30:10.078631,112
2021-10-14 14:30:10.078641,58
2021-10-14 14:30:10.078650,-93
2021-10-14 14:30:10.078658,-2
2021-10-14 14:30:10.078666,26
2021-10-14 14:30:10.078675,-7
2021-10-14 14:30:10.078683,31
2021-10-14 14:30:10.078691,61
2021-10-14 14:30:10.078700,51
2021-10-14 14:30:10.078708,63
2021-10-14 14:30:10.078716,105
2021-10-14 14:30:10.078725,132
2021-10-14 14:30:10.078733,149
2021-10-14 14:30:10.078742,171
2021-10-14 14:30:10.078750,201
2021-10-14 14:30:10.078758,240
2021-10-14 14:30:10.078766,279
2021-10-14 14:30:10.078775,314
2021-10-14 14:30:10.078783,355
2021-10-14 14:30:10.078792,385
2021-10-14 14:30:10.078800,395
2021-10-14 14:30:10.078809,399
2021-10-14 14:30:10.078817,390
2021-10-14 14:30:10.078825,377
2021-10-14 14:30:10.078833,353
2021-10-14 14:30:10.078842,294
2021-10-14 14:30:10.078850,208
2021-10-14 14:30:10.078859,122
2021-10-14 14:30:10.078867,31
2021-10-14 14:30:10.303933,-49
2021-10-14 14:30:10.303952,-105
2021-10-14 14:30:10.303961,-142
2021-10-14 14:30:10.303970,-174
2021-10-14 14:30:10.303979,-186
2021-10-14 14:30:10.303987,-174
2021-10-14 14:30:10.303996,-166
2021-10-14 14:30:10.304004,-169
2021-10-14 14:30:10.304012,-174
2021-10-14 14:30:10.304021,-176
2021-10-14 14:30:10.304029,-174
2021-10-14 14:30:10.304038,-152
2021-10-14 14:30:10.304046,-134
2021-10-14 14:30:10.304054,-137
2021-10-14 14:30:10.304062,-149
2021-10-14 14:30:10.304071,-147
2021-10-14 14:30:10.304079,-130
2021-10-14 14:30:10.304087,-115
2021-10-14 14:30:10.304096,-115
2021-10-14 14:30:10.304104,-112
2021-10-14 14:30:10.304112,-115
2021-10-14 14:30:10.304120,-117
2021-10-14 14:30:10.304129,-103
2021-10-14 14:30:10.304137,-93
2021-10-14 14:30:10.304145,-100
2021-10-14 14:30:10.304154,-107
2021-10-14 14:30:10.304162,-105
2021-10-14 14:30:10.304170,-100
2021-10-14 14:30:10.304178,-95
2021-10-14 14:30:10.304187,-98
2021-10-14 14:30:10.618011,-93
2021-10-14 14:30:10.618031,-88
2021-10-14 14:30:10.618040,-83
2021-10-14 14:30:10.618049,-83
2021-10-14 14:30:10.618057,-90
2021-10-14 14:30:10.618066,-100
2021-10-14 14:30:10.618074,-78
2021-10-14 14:30:10.618082,-34
2021-10-14 14:30:10.618091,-29
2021-10-14 14:30:10.618099,-44
2021-10-14 14:30:10.618108,-36
2021-10-14 14:30:10.618116,-36
2021-10-14 14:30:10.618124,-51
2021-10-14 14:30:10.618133,-68
2021-10-14 14:30:10.618141,-76
2021-10-14 14:30:10.618150,-68
2021-10-14 14:30:10.618158,-61
2021-10-14 14:30:10.618166,-56
2021-10-14 14:30:10.618175,-53
2021-10-14 14:30:10.618183,-56
2021-10-14 14:30:10.618191,-49
2021-10-14 14:30:10.618200,51
2021-10-14 14:30:10.618208,331
2021-10-14 14:30:10.618216,731
2021-10-14 14:30:10.618225,929
2021-10-14 14:30:10.618233,473
2021-10-14 14:30:10.618242,-299
2021-10-14 14:30:10.618250,-343
2021-10-14 14:30:10.618258,71
2021-10-14 14:30:10.618267,36
2021-10-14 14:30:10.753542,-105
2021-10-14 14:30:10.753560,-4
2021-10-14 14:30:10.753570,26
2021-10-14 14:30:10.753578,-22
2021-10-14 14:30:10.753587,17
2021-10-14 14:30:10.753595,58
2021-10-14 14:30:10.753604,49
2021-10-14 14:30:10.753612,58
2021-10-14 14:30:10.753621,85
2021-10-14 14:30:10.753629,98
2021-10-14 14:30:10.753638,117
2021-10-14 14:30:10.753646,149
2021-10-14 14:30:10.753654,169
2021-10-14 14:30:10.753663,188
2021-10-14 14:30:10.753671,230
2021-10-14 14:30:10.753680,272
2021-10-14 14:30:10.753688,299
2021-10-14 14:30:10.753696,321
2021-10-14 14:30:10.753705,341
2021-10-14 14:30:10.753713,353
2021-10-14 14:30:10.753721,353
2021-10-14 14:30:10.753730,348
2021-10-14 14:30:10.753738,331
2021-10-14 14:30:10.753747,301
2021-10-14 14:30:10.753755,233
2021-10-14 14:30:10.753763,130
2021-10-14 14:30:10.753772,39
2021-10-14 14:30:10.753780,-26
2021-10-14 14:30:10.753788,-83
2021-10-14 14:30:10.753797,-132
2021-10-14 14:30:11.023945,-169
2021-10-14 14:30:11.023964,-176
2021-10-14 14:30:11.023973,-171
2021-10-14 14:30:11.023982,-179
2021-10-14 14:30:11.023990,-179
2021-10-14 14:30:11.023999,-174
2021-10-14 14:30:11.024007,-179
2021-10-14 14:30:11.024015,-171
2021-10-14 14:30:11.024024,-159
2021-10-14 14:30:11.024033,-164
2021-10-14 14:30:11.024041,-171
2021-10-14 14:30:11.024050,-166
2021-10-14 14:30:11.024058,-171
2021-10-14 14:30:11.024066,-181
2021-10-14 14:30:11.024075,-171
2021-10-14 14:30:11.024083,-164
2021-10-14 14:30:11.024092,-161
2021-10-14 14:30:11.024100,-157
2021-10-14 14:30:11.024109,-157
2021-10-14 14:30:11.024117,-161
2021-10-14 14:30:11.024126,-166
2021-10-14 14:30:11.024134,-166
2021-10-14 14:30:11.024142,-147
2021-10-14 14:30:11.024151,-125
2021-10-14 14:30:11.024159,-127
2021-10-14 14:30:11.024167,-134
2021-10-14 14:30:11.024176,-134
2021-10-14 14:30:11.024184,-130
2021-10-14 14:30:11.024192,-122
2021-10-14 14:30:11.024201,-110
2021-10-14 14:30:11.203953,-107
2021-10-14 14:30:11.203972,-107
2021-10-14 14:30:11.203982,-107
2021-10-14 14:30:11.203990,-103
2021-10-14 14:30:11.203999,-103
2021-10-14 14:30:11.204007,-122
2021-10-14 14:30:11.204016,-132
2021-10-14 14:30:11.204024,-120
2021-10-14 14:30:11.204032,-110
2021-10-14 14:30:11.204041,-120
2021-10-14 14:30:11.204049,-117
2021-10-14 14:30:11.204057,-93
2021-10-14 14:30:11.204066,-68
2021-10-14 14:30:11.204074,-53
2021-10-14 14:30:11.204083,-41
2021-10-14 14:30:11.204091,-31
2021-10-14 14:30:11.204099,-46
2021-10-14 14:30:11.204108,-78
2021-10-14 14:30:11.204116,-90
2021-10-14 14:30:11.204124,-83
2021-10-14 14:30:11.204133,-76
2021-10-14 14:30:11.204141,-66
2021-10-14 14:30:11.204150,-49
2021-10-14 14:30:11.204158,-51
2021-10-14 14:30:11.204166,-63
2021-10-14 14:30:11.204175,-26
2021-10-14 14:30:11.204183,144
2021-10-14 14:30:11.204191,478
2021-10-14 14:30:11.204200,826
2021-10-14 14:30:11.204208,777
2021-10-14 14:30:11.607151,63
2021-10-14 14:30:11.607171,-525
2021-10-14 14:30:11.607180,-211
2021-10-14 14:30:11.607189,147
2021-10-14 14:30:11.607198,-17
2021-10-14 14:30:11.607291,-76
2021-10-14 14:30:11.607301,29
2021-10-14 14:30:11.607309,12
2021-10-14 14:30:11.607318,-9
2021-10-14 14:30:11.607326,39
2021-10-14 14:30:11.607335,49
2021-10-14 14:30:11.607343,44
2021-10-14 14:30:11.607352,68
2021-10-14 14:30:11.607360,90
2021-10-14 14:30:11.607368,100
2021-10-14 14:30:11.607377,120
2021-10-14 14:30:11.607385,152
2021-10-14 14:30:11.607394,171
2021-10-14 14:30:11.607402,203
2021-10-14 14:30:11.607410,252
2021-10-14 14:30:11.607419,289
2021-10-14 14:30:11.607427,318
2021-10-14 14:30:11.607435,350
2021-10-14 14:30:11.607444,372
2021-10-14 14:30:11.607452,380
2021-10-14 14:30:11.607460,387
2021-10-14 14:30:11.607469,387
2021-10-14 14:30:11.607477,365
2021-10-14 14:30:11.607485,311
2021-10-14 14:30:11.607494,228
2021-10-14 14:30:11.698336,137
2021-10-14 14:30:11.698355,41
2021-10-14 14:30:11.698365,-49
2021-10-14 14:30:11.698374,-115
2021-10-14 14:30:11.698382,-166
2021-10-14 14:30:11.698391,-203
2021-10-14 14:30:11.698399,-213
2021-10-14 14:30:11.698408,-220
2021-10-14 14:30:11.698416,-233
2021-10-14 14:30:11.698424,-235
2021-10-14 14:30:11.698433,-238
2021-10-14 14:30:11.698441,-245
2021-10-14 14:30:11.698449,-233
2021-10-14 14:30:11.698457,-208
2021-10-14 14:30:11.698466,-203
2021-10-14 14:30:11.698474,-218
2021-10-14 14:30:11.698482,-213
2021-10-14 14:30:11.698491,-184
2021-10-14 14:30:11.698499,-166
2021-10-14 14:30:11.698507,-164
2021-10-14 14:30:11.698515,-164
2021-10-14 14:30:11.698524,-164
2021-10-14 14:30:11.698532,-157
2021-10-14 14:30:11.698541,-149
2021-10-14 14:30:11.698549,-144
2021-10-14 14:30:11.698557,-139
2021-10-14 14:30:11.698566,-139
2021-10-14 14:30:11.698574,-154
2021-10-14 14:30:11.698583,-157
2021-10-14 14:30:11.698591,-139
2021-10-14 14:30:11.924007,-134
2021-10-14 14:30:11.924026,-132
2021-10-14 14:30:11.924036,-127
2021-10-14 14:30:11.924044,-130
2021-10-14 14:30:11.924053,-139
2021-10-14 14:30:11.924061,-127
2021-10-14 14:30:11.924070,-107
2021-10-14 14:30:11.924078,-103
2021-10-14 14:30:11.924087,-107
2021-10-14 14:30:11.924095,-112
2021-10-14 14:30:11.924103,-110
2021-10-14 14:30:11.924112,-105
2021-10-14 14:30:11.924120,-105
2021-10-14 14:30:11.924128,-98
2021-10-14 14:30:11.924136,-95
2021-10-14 14:30:11.924144,-98
2021-10-14 14:30:11.924153,-66
2021-10-14 14:30:11.924161,-26
2021-10-14 14:30:11.924169,-29
2021-10-14 14:30:11.924178,-29
2021-10-14 14:30:11.924186,-22
2021-10-14 14:30:11.924194,-44
2021-10-14 14:30:11.924202,-66
2021-10-14 14:30:11.924211,-63
2021-10-14 14:30:11.924219,-49
2021-10-14 14:30:11.924227,-34
2021-10-14 14:30:11.924235,-29
2021-10-14 14:30:11.924244,-31
2021-10-14 14:30:11.924252,-34
2021-10-14 14:30:11.924260,-17
2021-10-14 14:30:12.148624,61
2021-10-14 14:30:12.148643,279
2021-10-14 14:30:12.148652,650
2021-10-14 14:30:12.148661,929
2021-10-14 14:30:12.148669,628
2021-10-14 14:30:12.148678,-191
2021-10-14 14:30:12.148686,-446
2021-10-14 14:30:12.148694,22
2021-10-14 14:30:12.148703,137
2021-10-14 14:30:12.148711,-58
2021-10-14 14:30:12.148719,7
2021-10-14 14:30:12.148728,85
2021-10-14 14:30:12.148736,31
2021-10-14 14:30:12.148744,41
2021-10-14 14:30:12.148753,83
2021-10-14 14:30:12.148761,80
2021-10-14 14:30:12.148769,80
2021-10-14 14:30:12.148778,98
2021-10-14 14:30:12.148786,112
2021-10-14 14:30:12.148795,130
2021-10-14 14:30:12.148803,149
2021-10-14 14:30:12.148811,176
2021-10-14 14:30:12.148820,213
2021-10-14 14:30:12.148828,250
2021-10-14 14:30:12.148836,289
2021-10-14 14:30:12.148845,326
2021-10-14 14:30:12.148853,350
2021-10-14 14:30:12.148861,370
2021-10-14 14:30:12.148870,397
2021-10-14 14:30:12.148878,414
2021-10-14 14:30:12.374044,412
2021-10-14 14:30:12.374064,387
2021-10-14 14:30:12.374074,341
2021-10-14 14:30:12.374082,264
2021-10-14 14:30:12.374091,164
2021-10-14 14:30:12.374099,63
2021-10-14 14:30:12.374108,-14
2021-10-14 14:30:12.374124,-88
2021-10-14 14:30:12.374133,-164
2021-10-14 14:30:12.374142,-203
2021-10-14 14:30:12.374150,-206
2021-10-14 14:30:12.374158,-208
2021-10-14 14:30:12.374167,-211
2021-10-14 14:30:12.374175,-208
2021-10-14 14:30:12.374183,-215
2021-10-14 14:30:12.374192,-215
2021-10-14 14:30:12.374200,-198
2021-10-14 14:30:12.374209,-179
2021-10-14 14:30:12.374217,-169
2021-10-14 14:30:12.374225,-164
2021-10-14 14:30:12.374234,-154
2021-10-14 14:30:12.374242,-139
2021-10-14 14:30:12.374250,-134
2021-10-14 14:30:12.374258,-132
2021-10-14 14:30:12.374267,-117
2021-10-14 14:30:12.374275,-105
2021-10-14 14:30:12.374283,-103
2021-10-14 14:30:12.374292,-98
2021-10-14 14:30:12.374300,-90
2021-10-14 14:30:12.374308,-88
2021-10-14 14:30:12.598630,-88
2021-10-14 14:30:12.598650,-85
2021-10-14 14:30:12.598660,-83
2021-10-14 14:30:12.598668,-78
2021-10-14 14:30:12.598677,-73
2021-10-14 14:30:12.598685,-76
2021-10-14 14:30:12.598694,-73
2021-10-14 14:30:12.598702,-71
2021-10-14 14:30:12.598711,-73
2021-10-14 14:30:12.598719,-73
2021-10-14 14:30:12.598727,-66
2021-10-14 14:30:12.598736,-61
2021-10-14 14:30:12.598744,-63
2021-10-14 14:30:12.598752,-66
2021-10-14 14:30:12.598761,-63
2021-10-14 14:30:12.598769,-51
2021-10-14 14:30:12.598777,-44
2021-10-14 14:30:12.598786,-51
2021-10-14 14:30:12.598794,-58
2021-10-14 14:30:12.598802,-46
2021-10-14 14:30:12.598811,-12
2021-10-14 14:30:12.598819,12
2021-10-14 14:30:12.598827,4
2021-10-14 14:30:12.598835,-12
2021-10-14 14:30:12.598844,-19
2021-10-14 14:30:12.598852,-24
2021-10-14 14:30:12.598861,-34
2021-10-14 14:30:12.598869,-36
2021-10-14 14:30:12.598877,-26
2021-10-14 14:30:12.598886,-14
2021-10-14 14:30:12.824258,-14
2021-10-14 14:30:12.824279,-19
2021-10-14 14:30:12.824287,-22
2021-10-14 14:30:12.824293,-9
2021-10-14 14:30:12.824300,83
2021-10-14 14:30:12.824307,353
2021-10-14 14:30:12.824314,743
2021-10-14 14:30:12.824321,944
2021-10-14 14:30:12.824329,515
2021-10-14 14:30:12.824336,-260
2021-10-14 14:30:12.824342,-343
2021-10-14 14:30:12.824350,83
2021-10-14 14:30:12.824358,80
2021-10-14 14:30:12.824366,-63
2021-10-14 14:30:12.824374,24
2021-10-14 14:30:12.824382,58
2021-10-14 14:30:12.824390,14
2021-10-14 14:30:12.824397,41
2021-10-14 14:30:12.824405,71
2021-10-14 14:30:12.824413,68
2021-10-14 14:30:12.824421,80
2021-10-14 14:30:12.824428,103
2021-10-14 14:30:12.824436,115
2021-10-14 14:30:12.824444,132
2021-10-14 14:30:12.824452,154
2021-10-14 14:30:12.824459,171
2021-10-14 14:30:12.824467,188
2021-10-14 14:30:12.824475,213
2021-10-14 14:30:12.824483,245
2021-10-14 14:30:12.824490,282
2021-10-14 14:30:13.094057,321
2021-10-14 14:30:13.094078,353
2021-10-14 14:30:13.094087,363
2021-10-14 14:30:13.094096,363
2021-10-14 14:30:13.094105,368
2021-10-14 14:30:13.094113,358
2021-10-14 14:30:13.094122,306
2021-10-14 14:30:13.094130,230
2021-10-14 14:30:13.094139,149
2021-10-14 14:30:13.094147,63
2021-10-14 14:30:13.094156,-24
2021-10-14 14:30:13.094164,-103
2021-10-14 14:30:13.094173,-164
2021-10-14 14:30:13.094181,-193
2021-10-14 14:30:13.094189,-196
2021-10-14 14:30:13.094198,-198
2021-10-14 14:30:13.094207,-198
2021-10-14 14:30:13.094215,-191
2021-10-14 14:30:13.094223,-186
2021-10-14 14:30:13.094232,-184
2021-10-14 14:30:13.094240,-181
2021-10-14 14:30:13.094248,-164
2021-10-14 14:30:13.094257,-142
2021-10-14 14:30:13.094265,-134
2021-10-14 14:30:13.094274,-139
2021-10-14 14:30:13.094282,-125
2021-10-14 14:30:13.094290,-105
2021-10-14 14:30:13.094298,-100
2021-10-14 14:30:13.094307,-107
2021-10-14 14:30:13.094315,-110
2021-10-14 14:30:13.273624,-107
2021-10-14 14:30:13.273643,-103
2021-10-14 14:30:13.273653,-107
2021-10-14 14:30:13.273661,-107
2021-10-14 14:30:13.273670,-98
2021-10-14 14:30:13.273678,-100
2021-10-14 14:30:13.273687,-105
2021-10-14 14:30:13.273695,-90
2021-10-14 14:30:13.273703,-88
2021-10-14 14:30:13.273712,-95
2021-10-14 14:30:13.273720,-95
2021-10-14 14:30:13.273729,-93
2021-10-14 14:30:13.273737,-88
2021-10-14 14:30:13.273746,-76
2021-10-14 14:30:13.273754,-71
2021-10-14 14:30:13.273763,-78
2021-10-14 14:30:13.273771,-80
2021-10-14 14:30:13.273779,-80
2021-10-14 14:30:13.273788,-83
2021-10-14 14:30:13.273796,-76
2021-10-14 14:30:13.273805,-66
2021-10-14 14:30:13.273813,-61
2021-10-14 14:30:13.273821,-63
2021-10-14 14:30:13.273830,-63
2021-10-14 14:30:13.273838,-51
2021-10-14 14:30:13.273846,-44
2021-10-14 14:30:13.273855,-53
2021-10-14 14:30:13.273863,-58
2021-10-14 14:30:13.273871,-49
2021-10-14 14:30:13.273879,-31
2021-10-14 14:30:13.587670,-7
2021-10-14 14:30:13.587690,12
2021-10-14 14:30:13.587699,17
2021-10-14 14:30:13.587708,9
2021-10-14 14:30:13.587717,-12
2021-10-14 14:30:13.587725,-39
2021-10-14 14:30:13.587733,-49
2021-10-14 14:30:13.587742,-44
2021-10-14 14:30:13.587750,-31
2021-10-14 14:30:13.587758,-26
2021-10-14 14:30:13.587766,-36
2021-10-14 14:30:13.587775,-49
2021-10-14 14:30:13.587783,-44
2021-10-14 14:30:13.587791,12
2021-10-14 14:30:13.587800,211
2021-10-14 14:30:13.587808,566
2021-10-14 14:30:13.587817,868
2021-10-14 14:30:13.587825,669
2021-10-14 14:30:13.587833,-112
2021-10-14 14:30:13.587842,-520
2021-10-14 14:30:13.587850,-117
2021-10-14 14:30:13.587858,95
2021-10-14 14:30:13.587866,-88
2021-10-14 14:30:13.587875,-61
2021-10-14 14:30:13.587883,34
2021-10-14 14:30:13.587891,-19
2021-10-14 14:30:13.587900,-26
2021-10-14 14:30:13.587908,29
2021-10-14 14:30:13.587916,41
2021-10-14 14:30:13.587924,44
2021-10-14 14:30:13.723956,73
2021-10-14 14:30:13.723974,95
2021-10-14 14:30:13.723984,105
2021-10-14 14:30:13.723992,115
2021-10-14 14:30:13.724001,122
2021-10-14 14:30:13.724009,142
2021-10-14 14:30:13.724018,186
2021-10-14 14:30:13.724026,230
2021-10-14 14:30:13.724034,255
2021-10-14 14:30:13.724043,274
2021-10-14 14:30:13.724051,309
2021-10-14 14:30:13.724059,341
2021-10-14 14:30:13.724068,353
2021-10-14 14:30:13.724076,363
2021-10-14 14:30:13.724084,365
2021-10-14 14:30:13.724093,331
2021-10-14 14:30:13.724101,272
2021-10-14 14:30:13.724109,201
2021-10-14 14:30:13.724118,115
2021-10-14 14:30:13.724126,24
2021-10-14 14:30:13.724135,-58
2021-10-14 14:30:13.724143,-132
2021-10-14 14:30:13.724151,-186
2021-10-14 14:30:13.724159,-203
2021-10-14 14:30:13.724168,-198
2021-10-14 14:30:13.724176,-198
2021-10-14 14:30:13.724184,-206
2021-10-14 14:30:13.724193,-206
2021-10-14 14:30:13.724201,-196
2021-10-14 14:30:13.724209,-191
2021-10-14 14:30:13.993601,-184
2021-10-14 14:30:13.993619,-169
2021-10-14 14:30:13.993629,-166
2021-10-14 14:30:13.993637,-174
2021-10-14 14:30:13.993646,-166
2021-10-14 14:30:13.993654,-157
2021-10-14 14:30:13.993662,-144
2021-10-14 14:30:13.993671,-137
2021-10-14 14:30:13.993679,-144
2021-10-14 14:30:13.993687,-152
2021-10-14 14:30:13.993696,-142
2021-10-14 14:30:13.993704,-127
2021-10-14 14:30:13.993712,-117
2021-10-14 14:30:13.993721,-117
2021-10-14 14:30:13.993729,-127
2021-10-14 14:30:13.993737,-130
2021-10-14 14:30:13.993745,-115
2021-10-14 14:30:13.993754,-103
2021-10-14 14:30:13.993762,-112
2021-10-14 14:30:13.993770,-117
2021-10-14 14:30:13.993779,-110
2021-10-14 14:30:13.993787,-105
2021-10-14 14:30:13.993795,-103
2021-10-14 14:30:13.993804,-95
2021-10-14 14:30:13.993812,-93
2021-10-14 14:30:13.993820,-95
2021-10-14 14:30:13.993829,-88
2021-10-14 14:30:13.993837,-80
2021-10-14 14:30:13.993845,-73
2021-10-14 14:30:13.993854,-71
2021-10-14 14:30:14.263681,-71
2021-10-14 14:30:14.263701,-71
2021-10-14 14:30:14.263710,-83
2021-10-14 14:30:14.263719,-100
2021-10-14 14:30:14.263728,-93
2021-10-14 14:30:14.263736,-56
2021-10-14 14:30:14.263744,-29
2021-10-14 14:30:14.263752,-29
2021-10-14 14:30:14.263761,-44
2021-10-14 14:30:14.263769,-61
2021-10-14 14:30:14.263777,-71
2021-10-14 14:30:14.263786,-83
2021-10-14 14:30:14.263794,-95
2021-10-14 14:30:14.263802,-100
2021-10-14 14:30:14.263811,-105
2021-10-14 14:30:14.263819,-112
2021-10-14 14:30:14.263827,-115
2021-10-14 14:30:14.263836,-115
2021-10-14 14:30:14.263844,-105
2021-10-14 14:30:14.263852,-51
2021-10-14 14:30:14.263860,125
2021-10-14 14:30:14.263869,466
2021-10-14 14:30:14.263877,797
2021-10-14 14:30:14.263885,664
2021-10-14 14:30:14.263893,-107
2021-10-14 14:30:14.263902,-601
2021-10-14 14:30:14.263910,-206
2021-10-14 14:30:14.263918,90
2021-10-14 14:30:14.263926,-80
2021-10-14 14:30:14.263935,-85
2021-10-14 14:30:14.444065,17
2021-10-14 14:30:14.444085,-17
2021-10-14 14:30:14.444095,-24
2021-10-14 14:30:14.444103,31
2021-10-14 14:30:14.444112,39
2021-10-14 14:30:14.444120,39
2021-10-14 14:30:14.444129,71
2021-10-14 14:30:14.444137,90
2021-10-14 14:30:14.444146,103
2021-10-14 14:30:14.444154,122
2021-10-14 14:30:14.444162,147
2021-10-14 14:30:14.444170,181
2021-10-14 14:30:14.444179,218
2021-10-14 14:30:14.444187,245
2021-10-14 14:30:14.444196,269
2021-10-14 14:30:14.444204,309
2021-10-14 14:30:14.444212,355
2021-10-14 14:30:14.444221,385
2021-10-14 14:30:14.444229,392
2021-10-14 14:30:14.444237,387
2021-10-14 14:30:14.444246,375
2021-10-14 14:30:14.444254,345
2021-10-14 14:30:14.444263,301
2021-10-14 14:30:14.444271,228
2021-10-14 14:30:14.444279,127
2021-10-14 14:30:14.444287,29
2021-10-14 14:30:14.444296,-51
2021-10-14 14:30:14.444304,-120
2021-10-14 14:30:14.444312,-164
2021-10-14 14:30:14.444321,-191
2021-10-14 14:30:14.714041,-203
2021-10-14 14:30:14.714060,-201
2021-10-14 14:30:14.714070,-196
2021-10-14 14:30:14.714078,-196
2021-10-14 14:30:14.714087,-188
2021-10-14 14:30:14.714095,-171
2021-10-14 14:30:14.714103,-166
2021-10-14 14:30:14.714112,-171
2021-10-14 14:30:14.714166,-159
2021-10-14 14:30:14.714176,-139
2021-10-14 14:30:14.714184,-134
2021-10-14 14:30:14.714193,-144
2021-10-14 14:30:14.714201,-144
2021-10-14 14:30:14.714210,-130
2021-10-14 14:30:14.714218,-117
2021-10-14 14:30:14.714226,-120
2021-10-14 14:30:14.714235,-132
2021-10-14 14:30:14.714243,-137
2021-10-14 14:30:14.714251,-130
2021-10-14 14:30:14.714259,-125
2021-10-14 14:30:14.714268,-122
2021-10-14 14:30:14.714276,-117
2021-10-14 14:30:14.714284,-115
2021-10-14 14:30:14.714292,-115
2021-10-14 14:30:14.714301,-115
2021-10-14 14:30:14.714309,-105
2021-10-14 14:30:14.714317,-93
2021-10-14 14:30:14.714326,-88
2021-10-14 14:30:14.714334,-83
2021-10-14 14:30:14.714342,-76
2021-10-14 14:30:14.893984,-73
2021-10-14 14:30:14.894003,-71
2021-10-14 14:30:14.894012,-66
2021-10-14 14:30:14.894021,-68
2021-10-14 14:30:14.894030,-71
2021-10-14 14:30:14.894038,-73
2021-10-14 14:30:14.894046,-71
2021-10-14 14:30:14.894055,-36
2021-10-14 14:30:14.894063,7
2021-10-14 14:30:14.894071,7
2021-10-14 14:30:14.894080,-4
2021-10-14 14:30:14.894088,-7
2021-10-14 14:30:14.894097,-29
2021-10-14 14:30:14.894105,-56
2021-10-14 14:30:14.894113,-53
2021-10-14 14:30:14.894122,-44
2021-10-14 14:30:14.894130,-41
2021-10-14 14:30:14.894138,-44
2021-10-14 14:30:14.894146,-61
2021-10-14 14:30:14.894155,-73
2021-10-14 14:30:14.894163,-51
2021-10-14 14:30:14.894171,58
2021-10-14 14:30:14.894180,338
2021-10-14 14:30:14.894188,738
2021-10-14 14:30:14.894196,905
2021-10-14 14:30:14.894204,399
2021-10-14 14:30:14.894213,-363
2021-10-14 14:30:14.894221,-350
2021-10-14 14:30:14.894229,66
2021-10-14 14:30:14.894238,14
2021-10-14 14:30:15.118622,-110
2021-10-14 14:30:15.118640,2
2021-10-14 14:30:15.118650,26
2021-10-14 14:30:15.118659,-19
2021-10-14 14:30:15.118667,12
2021-10-14 14:30:15.118676,31
2021-10-14 14:30:15.118684,24
2021-10-14 14:30:15.118692,49
2021-10-14 14:30:15.118701,80
2021-10-14 14:30:15.118709,93
2021-10-14 14:30:15.118718,107
2021-10-14 14:30:15.118726,125
2021-10-14 14:30:15.118735,144
2021-10-14 14:30:15.118743,181
2021-10-14 14:30:15.118752,213
2021-10-14 14:30:15.118760,233
2021-10-14 14:30:15.118768,269
2021-10-14 14:30:15.118777,306
2021-10-14 14:30:15.118785,328
2021-10-14 14:30:15.118794,350
2021-10-14 14:30:15.118802,360
2021-10-14 14:30:15.118810,345
2021-10-14 14:30:15.118819,318
2021-10-14 14:30:15.118827,284
2021-10-14 14:30:15.118835,228
2021-10-14 14:30:15.118844,147
2021-10-14 14:30:15.118852,53
2021-10-14 14:30:15.118861,-34
2021-10-14 14:30:15.118869,-100
2021-10-14 14:30:15.118878,-147
2021-10-14 14:30:15.389042,-169
2021-10-14 14:30:15.389062,-179
2021-10-14 14:30:15.389072,-191
2021-10-14 14:30:15.389080,-193
2021-10-14 14:30:15.389089,-191
