Time,ECG
2021-10-14 14:24:44.795762,-100
2021-10-14 14:24:44.795782,-110
2021-10-14 14:24:44.795791,-105
2021-10-14 14:24:44.795800,-112
2021-10-14 14:24:44.795808,-125
2021-10-14 14:24:44.795817,-61
2021-10-14 14:24:44.795826,174
2021-10-14 14:24:44.795834,542
2021-10-14 14:24:44.795842,758
2021-10-14 14:24:44.795851,390
2021-10-14 14:24:44.795860,-301
2021-10-14 14:24:44.795868,-360
2021-10-14 14:24:44.795876,17
2021-10-14 14:24:44.795885,0
2021-10-14 14:24:44.795893,-137
2021-10-14 14:24:44.795901,-53
2021-10-14 14:24:44.795910,-24
2021-10-14 14:24:44.795919,-66
2021-10-14 14:24:44.795927,-41
2021-10-14 14:24:44.795935,-9
2021-10-14 14:24:44.795944,-12
2021-10-14 14:24:44.795952,-7
2021-10-14 14:24:44.795960,9
2021-10-14 14:24:44.795969,31
2021-10-14 14:24:44.795977,46
2021-10-14 14:24:44.795986,58
2021-10-14 14:24:44.795995,95
2021-10-14 14:24:44.796003,132
2021-10-14 14:24:44.796012,157
2021-10-14 14:24:44.796020,196
2021-10-14 14:24:44.796098,220
2021-10-14 14:24:44.796108,228
2021-10-14 14:24:44.796117,257
2021-10-14 14:24:44.796125,260
2021-10-14 14:24:44.796134,220
2021-10-14 14:24:44.796142,223
2021-10-14 14:24:44.796151,233
2021-10-14 14:24:44.796159,169
2021-10-14 14:24:44.796168,93
2021-10-14 14:24:44.796176,36
2021-10-14 14:24:44.796184,-46
2021-10-14 14:24:44.796192,-127
2021-10-14 14:24:44.796201,-174
2021-10-14 14:24:44.796209,-179
2021-10-14 14:24:44.796217,-174
2021-10-14 14:24:44.796226,-213
2021-10-14 14:24:44.796234,-245
2021-10-14 14:24:44.796243,-211
2021-10-14 14:24:44.796251,-191
2021-10-14 14:24:44.796259,-208
2021-10-14 14:24:44.796267,-208
2021-10-14 14:24:44.796276,-181
2021-10-14 14:24:44.796284,-181
2021-10-14 14:24:44.796292,-198
2021-10-14 14:24:44.796301,-191
2021-10-14 14:24:44.796309,-184
2021-10-14 14:24:44.796317,-196
2021-10-14 14:24:44.796325,-206
2021-10-14 14:24:44.796333,-208
2021-10-14 14:24:44.796343,-215
2021-10-14 14:24:45.039572,-208
2021-10-14 14:24:45.039593,-196
2021-10-14 14:24:45.039603,-223
2021-10-14 14:24:45.039612,-247
2021-10-14 14:24:45.039620,-223
2021-10-14 14:24:45.039629,-203
2021-10-14 14:24:45.039638,-213
2021-10-14 14:24:45.039646,-193
2021-10-14 14:24:45.039655,-184
2021-10-14 14:24:45.039663,-230
2021-10-14 14:24:45.039672,-230
2021-10-14 14:24:45.039681,-188
2021-10-14 14:24:45.039689,-188
2021-10-14 14:24:45.039701,-188
2021-10-14 14:24:45.039710,-169
2021-10-14 14:24:45.039719,-181
2021-10-14 14:24:45.039727,-188
2021-10-14 14:24:45.039736,-154
2021-10-14 14:24:45.039744,-112
2021-10-14 14:24:45.039753,-90
2021-10-14 14:24:45.039761,-100
2021-10-14 14:24:45.039770,-127
2021-10-14 14:24:45.039778,-139
2021-10-14 14:24:45.039787,-137
2021-10-14 14:24:45.039795,-142
2021-10-14 14:24:45.039804,-149
2021-10-14 14:24:45.039812,-149
2021-10-14 14:24:45.039821,-142
2021-10-14 14:24:45.039829,-152
2021-10-14 14:24:45.039850,-171
2021-10-14 14:24:45.264868,-152
2021-10-14 14:24:45.264890,-107
2021-10-14 14:24:45.264899,7
2021-10-14 14:24:45.264906,296
2021-10-14 14:24:45.264913,650
2021-10-14 14:24:45.264920,662
2021-10-14 14:24:45.264928,68
2021-10-14 14:24:45.264935,-444
2021-10-14 14:24:45.264942,-201
2021-10-14 14:24:45.264949,58
2021-10-14 14:24:45.264956,-93
2021-10-14 14:24:45.264964,-125
2021-10-14 14:24:45.264971,-31
2021-10-14 14:24:45.264978,-46
2021-10-14 14:24:45.264985,-58
2021-10-14 14:24:45.264992,-24
2021-10-14 14:24:45.264999,-14
2021-10-14 14:24:45.265010,-19
2021-10-14 14:24:45.265018,19
2021-10-14 14:24:45.265024,66
2021-10-14 14:24:45.265031,63
2021-10-14 14:24:45.265038,58
2021-10-14 14:24:45.265045,100
2021-10-14 14:24:45.265052,154
2021-10-14 14:24:45.265060,188
2021-10-14 14:24:45.265068,211
2021-10-14 14:24:45.265074,230
2021-10-14 14:24:45.265082,247
2021-10-14 14:24:45.265089,272
2021-10-14 14:24:45.265097,289
2021-10-14 14:24:45.489733,279
2021-10-14 14:24:45.489753,262
2021-10-14 14:24:45.489763,262
2021-10-14 14:24:45.489772,255
2021-10-14 14:24:45.489781,218
2021-10-14 14:24:45.489789,149
2021-10-14 14:24:45.489798,63
2021-10-14 14:24:45.489811,-12
2021-10-14 14:24:45.489820,-61
2021-10-14 14:24:45.489828,-110
2021-10-14 14:24:45.489837,-154
2021-10-14 14:24:45.489845,-171
2021-10-14 14:24:45.489854,-171
2021-10-14 14:24:45.489863,-176
2021-10-14 14:24:45.489871,-176
2021-10-14 14:24:45.489879,-164
2021-10-14 14:24:45.489888,-152
2021-10-14 14:24:45.489896,-139
2021-10-14 14:24:45.489905,-125
2021-10-14 14:24:45.489913,-142
2021-10-14 14:24:45.489922,-149
2021-10-14 14:24:45.489930,-115
2021-10-14 14:24:45.489938,-103
2021-10-14 14:24:45.489946,-112
2021-10-14 14:24:45.489955,-107
2021-10-14 14:24:45.489963,-90
2021-10-14 14:24:45.489970,-93
2021-10-14 14:24:45.489978,-112
2021-10-14 14:24:45.489986,-105
2021-10-14 14:24:45.489994,-88
2021-10-14 14:24:45.757946,-107
2021-10-14 14:24:45.757968,-115
2021-10-14 14:24:45.757977,-105
2021-10-14 14:24:45.757986,-127
2021-10-14 14:24:45.757995,-142
2021-10-14 14:24:45.758003,-122
2021-10-14 14:24:45.758012,-115
2021-10-14 14:24:45.758020,-132
2021-10-14 14:24:45.758029,-139
2021-10-14 14:24:45.758037,-130
2021-10-14 14:24:45.758046,-127
2021-10-14 14:24:45.758054,-147
2021-10-14 14:24:45.758062,-159
2021-10-14 14:24:45.758071,-154
2021-10-14 14:24:45.758079,-152
2021-10-14 14:24:45.758088,-122
2021-10-14 14:24:45.758096,-78
2021-10-14 14:24:45.758104,-68
2021-10-14 14:24:45.758113,-78
2021-10-14 14:24:45.758121,-80
2021-10-14 14:24:45.758129,-88
2021-10-14 14:24:45.758138,-107
2021-10-14 14:24:45.758146,-105
2021-10-14 14:24:45.758154,-93
2021-10-14 14:24:45.758168,-100
2021-10-14 14:24:45.758176,-100
2021-10-14 14:24:45.758185,-93
2021-10-14 14:24:45.758194,-88
2021-10-14 14:24:45.758202,-68
2021-10-14 14:24:45.758210,-2
2021-10-14 14:24:46.029172,193
2021-10-14 14:24:46.029192,559
2021-10-14 14:24:46.029201,826
2021-10-14 14:24:46.029210,493
2021-10-14 14:24:46.029219,-238
2021-10-14 14:24:46.029227,-365
2021-10-14 14:24:46.029236,26
2021-10-14 14:24:46.029244,39
2021-10-14 14:24:46.029253,-120
2021-10-14 14:24:46.029261,-46
2021-10-14 14:24:46.029270,9
2021-10-14 14:24:46.029278,-31
2021-10-14 14:24:46.029286,-31
2021-10-14 14:24:46.029295,-14
2021-10-14 14:24:46.029304,-7
2021-10-14 14:24:46.029313,26
2021-10-14 14:24:46.029321,66
2021-10-14 14:24:46.029330,71
2021-10-14 14:24:46.029338,80
2021-10-14 14:24:46.029347,115
2021-10-14 14:24:46.029355,132
2021-10-14 14:24:46.029364,144
2021-10-14 14:24:46.029374,169
2021-10-14 14:24:46.029383,193
2021-10-14 14:24:46.029391,235
2021-10-14 14:24:46.029399,269
2021-10-14 14:24:46.029408,269
2021-10-14 14:24:46.029416,269
2021-10-14 14:24:46.029424,267
2021-10-14 14:24:46.029433,247
2021-10-14 14:24:46.164246,242
2021-10-14 14:24:46.164268,225
2021-10-14 14:24:46.164276,174
2021-10-14 14:24:46.164284,103
2021-10-14 14:24:46.164291,22
2021-10-14 14:24:46.164298,-41
2021-10-14 14:24:46.164306,-98
2021-10-14 14:24:46.164314,-171
2021-10-14 14:24:46.164321,-220
2021-10-14 14:24:46.164327,-223
2021-10-14 14:24:46.164334,-218
2021-10-14 14:24:46.164342,-220
2021-10-14 14:24:46.164349,-208
2021-10-14 14:24:46.164355,-188
2021-10-14 14:24:46.164362,-191
2021-10-14 14:24:46.164368,-198
2021-10-14 14:24:46.164375,-186
2021-10-14 14:24:46.164382,-174
2021-10-14 14:24:46.164389,-179
2021-10-14 14:24:46.164396,-179
2021-10-14 14:24:46.164403,-171
2021-10-14 14:24:46.164411,-179
2021-10-14 14:24:46.164418,-196
2021-10-14 14:24:46.164426,-188
2021-10-14 14:24:46.164438,-181
2021-10-14 14:24:46.164446,-206
2021-10-14 14:24:46.164453,-228
2021-10-14 14:24:46.164461,-213
2021-10-14 14:24:46.164468,-193
2021-10-14 14:24:46.164476,-215
2021-10-14 14:24:46.434591,-233
2021-10-14 14:24:46.434612,-208
2021-10-14 14:24:46.434622,-198
2021-10-14 14:24:46.434630,-225
2021-10-14 14:24:46.434639,-233
2021-10-14 14:24:46.434647,-215
2021-10-14 14:24:46.434656,-193
2021-10-14 14:24:46.434664,-184
2021-10-14 14:24:46.434673,-203
2021-10-14 14:24:46.434681,-230
2021-10-14 14:24:46.434689,-228
2021-10-14 14:24:46.434698,-201
2021-10-14 14:24:46.434706,-174
2021-10-14 14:24:46.434715,-142
2021-10-14 14:24:46.434723,-115
2021-10-14 14:24:46.434731,-117
2021-10-14 14:24:46.434740,-144
2021-10-14 14:24:46.434748,-154
2021-10-14 14:24:46.434756,-157
2021-10-14 14:24:46.434765,-159
2021-10-14 14:24:46.434773,-142
2021-10-14 14:24:46.434781,-139
2021-10-14 14:24:46.434789,-142
2021-10-14 14:24:46.434797,-112
2021-10-14 14:24:46.434805,-112
2021-10-14 14:24:46.434813,-134
2021-10-14 14:24:46.434821,-56
2021-10-14 14:24:46.434830,191
2021-10-14 14:24:46.434838,527
2021-10-14 14:24:46.434846,718
2021-10-14 14:24:46.614470,372
2021-10-14 14:24:46.614496,-296
2021-10-14 14:24:46.614504,-343
2021-10-14 14:24:46.614512,58
2021-10-14 14:24:46.614519,53
2021-10-14 14:24:46.614527,-100
2021-10-14 14:24:46.614534,-22
2021-10-14 14:24:46.614541,31
2021-10-14 14:24:46.614548,-2
2021-10-14 14:24:46.614555,19
2021-10-14 14:24:46.614562,49
2021-10-14 14:24:46.614569,53
2021-10-14 14:24:46.614576,83
2021-10-14 14:24:46.614582,103
2021-10-14 14:24:46.614588,93
2021-10-14 14:24:46.614595,112
2021-10-14 14:24:46.614602,154
2021-10-14 14:24:46.614609,186
2021-10-14 14:24:46.614617,225
2021-10-14 14:24:46.614623,264
2021-10-14 14:24:46.614631,294
2021-10-14 14:24:46.614637,316
2021-10-14 14:24:46.614644,326
2021-10-14 14:24:46.614653,336
2021-10-14 14:24:46.614660,350
2021-10-14 14:24:46.614670,343
2021-10-14 14:24:46.614677,326
2021-10-14 14:24:46.614684,321
2021-10-14 14:24:46.614720,311
2021-10-14 14:24:46.614727,252
2021-10-14 14:24:46.974223,171
2021-10-14 14:24:46.974242,125
2021-10-14 14:24:46.974252,71
2021-10-14 14:24:46.974261,-24
2021-10-14 14:24:46.974269,-56
2021-10-14 14:24:46.974278,-12
2021-10-14 14:24:46.974286,-22
2021-10-14 14:24:46.974294,-53
2021-10-14 14:24:46.974303,-36
2021-10-14 14:24:46.974311,-26
2021-10-14 14:24:46.974325,-46
2021-10-14 14:24:46.974333,-22
2021-10-14 14:24:46.974342,12
2021-10-14 14:24:46.974350,-4
2021-10-14 14:24:46.974359,-12
2021-10-14 14:24:46.974367,7
2021-10-14 14:24:46.974376,22
2021-10-14 14:24:46.974384,29
2021-10-14 14:24:46.974392,26
2021-10-14 14:24:46.974401,36
2021-10-14 14:24:46.974410,49
2021-10-14 14:24:46.974418,49
2021-10-14 14:24:46.974427,56
2021-10-14 14:24:46.974435,61
2021-10-14 14:24:46.974444,66
2021-10-14 14:24:46.974452,71
2021-10-14 14:24:46.974460,85
2021-10-14 14:24:46.974468,100
2021-10-14 14:24:46.974477,90
2021-10-14 14:24:46.974485,93
2021-10-14 14:24:47.109678,125
2021-10-14 14:24:47.109702,154
2021-10-14 14:24:47.109711,159
2021-10-14 14:24:47.109720,157
2021-10-14 14:24:47.109728,184
2021-10-14 14:24:47.109737,228
2021-10-14 14:24:47.109745,260
2021-10-14 14:24:47.109754,294
2021-10-14 14:24:47.109762,353
2021-10-14 14:24:47.109770,392
2021-10-14 14:24:47.109779,419
2021-10-14 14:24:47.109787,461
2021-10-14 14:24:47.109795,483
2021-10-14 14:24:47.109803,473
2021-10-14 14:24:47.109812,480
2021-10-14 14:24:47.109820,525
2021-10-14 14:24:47.109828,574
2021-10-14 14:24:47.109837,603
2021-10-14 14:24:47.109845,633
2021-10-14 14:24:47.109853,660
2021-10-14 14:24:47.109862,674
2021-10-14 14:24:47.109870,699
2021-10-14 14:24:47.109878,809
2021-10-14 14:24:47.109886,1059
2021-10-14 14:24:47.109895,1413
2021-10-14 14:24:47.109908,1639
2021-10-14 14:24:47.109916,1302
2021-10-14 14:24:47.109924,660
2021-10-14 14:24:47.109933,645
2021-10-14 14:24:47.109941,1030
2021-10-14 14:24:47.468594,1005
2021-10-14 14:24:47.468615,866
2021-10-14 14:24:47.468624,952
2021-10-14 14:24:47.468633,998
2021-10-14 14:24:47.468641,964
2021-10-14 14:24:47.468649,978
2021-10-14 14:24:47.468658,1015
2021-10-14 14:24:47.468666,1018
2021-10-14 14:24:47.468674,1008
2021-10-14 14:24:47.468682,996
2021-10-14 14:24:47.468691,993
2021-10-14 14:24:47.468699,998
2021-10-14 14:24:47.468707,996
2021-10-14 14:24:47.468716,998
2021-10-14 14:24:47.468724,969
2021-10-14 14:24:47.468732,942
2021-10-14 14:24:47.468740,969
2021-10-14 14:24:47.468749,986
2021-10-14 14:24:47.468757,954
2021-10-14 14:24:47.468765,929
2021-10-14 14:24:47.468773,917
2021-10-14 14:24:47.468782,885
2021-10-14 14:24:47.468790,856
2021-10-14 14:24:47.468798,836
2021-10-14 14:24:47.468806,790
2021-10-14 14:24:47.468815,706
2021-10-14 14:24:47.468823,615
2021-10-14 14:24:47.468831,532
2021-10-14 14:24:47.468840,461
2021-10-14 14:24:47.468848,390
2021-10-14 14:24:47.604257,301
2021-10-14 14:24:47.604279,220
2021-10-14 14:24:47.604289,179
2021-10-14 14:24:47.604297,147
2021-10-14 14:24:47.604306,115
2021-10-14 14:24:47.604314,88
2021-10-14 14:24:47.604323,53
2021-10-14 14:24:47.604331,19
2021-10-14 14:24:47.604340,-12
2021-10-14 14:24:47.604348,-49
2021-10-14 14:24:47.604357,-61
2021-10-14 14:24:47.604365,-56
2021-10-14 14:24:47.604373,-88
2021-10-14 14:24:47.604382,-125
2021-10-14 14:24:47.604390,-120
2021-10-14 14:24:47.604399,-125
2021-10-14 14:24:47.604411,-152
2021-10-14 14:24:47.604420,-161
2021-10-14 14:24:47.604428,-169
2021-10-14 14:24:47.604437,-198
2021-10-14 14:24:47.604445,-220
2021-10-14 14:24:47.604454,-218
2021-10-14 14:24:47.604462,-203
2021-10-14 14:24:47.604470,-215
2021-10-14 14:24:47.604479,-252
2021-10-14 14:24:47.604487,-257
2021-10-14 14:24:47.604495,-242
2021-10-14 14:24:47.604504,-262
2021-10-14 14:24:47.604512,-274
2021-10-14 14:24:47.604520,-252
2021-10-14 14:24:47.828553,-260
2021-10-14 14:24:47.828573,-284
2021-10-14 14:24:47.828583,-255
2021-10-14 14:24:47.828591,-193
2021-10-14 14:24:47.828599,-181
2021-10-14 14:24:47.828608,-186
2021-10-14 14:24:47.828616,-179
2021-10-14 14:24:47.828625,-196
2021-10-14 14:24:47.828633,-230
2021-10-14 14:24:47.828642,-242
2021-10-14 14:24:47.828650,-228
2021-10-14 14:24:47.828659,-220
2021-10-14 14:24:47.828667,-230
2021-10-14 14:24:47.828676,-230
2021-10-14 14:24:47.828684,-218
2021-10-14 14:24:47.828693,-223
2021-10-14 14:24:47.828701,-223
2021-10-14 14:24:47.828710,-142
2021-10-14 14:24:47.828719,71
2021-10-14 14:24:47.828727,380
2021-10-14 14:24:47.828736,552
2021-10-14 14:24:47.828744,191
2021-10-14 14:24:47.828753,-422
2021-10-14 14:24:47.828761,-444
2021-10-14 14:24:47.828770,-88
2021-10-14 14:24:47.828778,-93
2021-10-14 14:24:47.828786,-208
2021-10-14 14:24:47.828795,-134
2021-10-14 14:24:47.828803,-90
2021-10-14 14:24:47.828811,-103
2021-10-14 14:24:48.054665,-83
2021-10-14 14:24:48.054687,-61
2021-10-14 14:24:48.054697,-53
2021-10-14 14:24:48.054706,-36
2021-10-14 14:24:48.054714,-19
2021-10-14 14:24:48.054723,-9
2021-10-14 14:24:48.054731,14
2021-10-14 14:24:48.054740,51
2021-10-14 14:24:48.054748,68
2021-10-14 14:24:48.054757,76
2021-10-14 14:24:48.054765,100
2021-10-14 14:24:48.054774,134
2021-10-14 14:24:48.054782,154
2021-10-14 14:24:48.054794,179
2021-10-14 14:24:48.054803,201
2021-10-14 14:24:48.054812,193
2021-10-14 14:24:48.054820,179
2021-10-14 14:24:48.054829,184
2021-10-14 14:24:48.054837,171
2021-10-14 14:24:48.054846,132
2021-10-14 14:24:48.054854,90
2021-10-14 14:24:48.054863,22
2021-10-14 14:24:48.054871,-61
2021-10-14 14:24:48.054880,-132
2021-10-14 14:24:48.054888,-184
2021-10-14 14:24:48.054897,-218
2021-10-14 14:24:48.054905,-247
2021-10-14 14:24:48.054914,-260
2021-10-14 14:24:48.054923,-262
2021-10-14 14:24:48.054931,-279
2021-10-14 14:24:48.234278,-289
2021-10-14 14:24:48.234299,-282
2021-10-14 14:24:48.234309,-287
2021-10-14 14:24:48.234318,-287
2021-10-14 14:24:48.234326,-269
2021-10-14 14:24:48.234335,-272
2021-10-14 14:24:48.234343,-277
2021-10-14 14:24:48.234352,-269
2021-10-14 14:24:48.234360,-269
2021-10-14 14:24:48.234369,-274
2021-10-14 14:24:48.234377,-274
2021-10-14 14:24:48.234385,-284
2021-10-14 14:24:48.234394,-301
2021-10-14 14:24:48.234402,-323
2021-10-14 14:24:48.234410,-348
2021-10-14 14:24:48.234419,-363
2021-10-14 14:24:48.234427,-363
2021-10-14 14:24:48.234435,-382
2021-10-14 14:24:48.234444,-414
2021-10-14 14:24:48.234452,-424
2021-10-14 14:24:48.234461,-417
2021-10-14 14:24:48.234469,-409
2021-10-14 14:24:48.234477,-417
2021-10-14 14:24:48.234485,-426
2021-10-14 14:24:48.234494,-417
2021-10-14 14:24:48.234502,-412
2021-10-14 14:24:48.234510,-404
2021-10-14 14:24:48.234519,-363
2021-10-14 14:24:48.234527,-328
2021-10-14 14:24:48.234535,-328
2021-10-14 14:24:48.459251,-323
2021-10-14 14:24:48.459272,-333
2021-10-14 14:24:48.459281,-360
2021-10-14 14:24:48.459290,-370
2021-10-14 14:24:48.459299,-365
2021-10-14 14:24:48.459307,-360
2021-10-14 14:24:48.459316,-348
2021-10-14 14:24:48.459325,-341
2021-10-14 14:24:48.459333,-348
2021-10-14 14:24:48.459341,-353
2021-10-14 14:24:48.459350,-341
2021-10-14 14:24:48.459359,-267
2021-10-14 14:24:48.459367,-31
2021-10-14 14:24:48.459376,316
2021-10-14 14:24:48.459384,429
2021-10-14 14:24:48.459392,-39
2021-10-14 14:24:48.459401,-647
2021-10-14 14:24:48.459412,-561
2021-10-14 14:24:48.459421,-188
2021-10-14 14:24:48.459429,-230
2021-10-14 14:24:48.459438,-341
2021-10-14 14:24:48.459446,-267
2021-10-14 14:24:48.459455,-247
2021-10-14 14:24:48.459463,-269
2021-10-14 14:24:48.459472,-225
2021-10-14 14:24:48.459480,-198
2021-10-14 14:24:48.459489,-211
2021-10-14 14:24:48.459497,-203
2021-10-14 14:24:48.459506,-166
2021-10-14 14:24:48.459514,-130
2021-10-14 14:24:48.729228,-107
2021-10-14 14:24:48.729249,-93
2021-10-14 14:24:48.729259,-76
2021-10-14 14:24:48.729267,-51
2021-10-14 14:24:48.729276,-22
2021-10-14 14:24:48.729285,4
2021-10-14 14:24:48.729293,26
2021-10-14 14:24:48.729302,36
2021-10-14 14:24:48.729310,46
2021-10-14 14:24:48.729319,49
2021-10-14 14:24:48.729327,44
2021-10-14 14:24:48.729336,46
2021-10-14 14:24:48.729344,41
2021-10-14 14:24:48.729353,12
2021-10-14 14:24:48.729362,-31
2021-10-14 14:24:48.729370,-93
2021-10-14 14:24:48.729379,-149
2021-10-14 14:24:48.729387,-198
2021-10-14 14:24:48.729396,-260
2021-10-14 14:24:48.729404,-314
2021-10-14 14:24:48.729413,-326
2021-10-14 14:24:48.729421,-323
2021-10-14 14:24:48.729430,-328
2021-10-14 14:24:48.729438,-328
2021-10-14 14:24:48.729447,-314
2021-10-14 14:24:48.729455,-309
2021-10-14 14:24:48.729464,-306
2021-10-14 14:24:48.729472,-289
2021-10-14 14:24:48.729481,-282
2021-10-14 14:24:48.729489,-294
2021-10-14 14:24:48.954661,-282
2021-10-14 14:24:48.954682,-257
2021-10-14 14:24:48.954690,-264
2021-10-14 14:24:48.954698,-277
2021-10-14 14:24:48.954706,-264
2021-10-14 14:24:48.954713,-250
2021-10-14 14:24:48.954720,-247
2021-10-14 14:24:48.954728,-250
2021-10-14 14:24:48.954735,-250
2021-10-14 14:24:48.954742,-242
2021-10-14 14:24:48.954750,-220
2021-10-14 14:24:48.954759,-218
2021-10-14 14:24:48.954767,-235
2021-10-14 14:24:48.954776,-235
2021-10-14 14:24:48.954784,-225
2021-10-14 14:24:48.954793,-213
2021-10-14 14:24:48.954802,-213
2021-10-14 14:24:48.954811,-228
2021-10-14 14:24:48.954819,-215
2021-10-14 14:24:48.954828,-171
2021-10-14 14:24:48.954836,-137
2021-10-14 14:24:48.954844,-130
2021-10-14 14:24:48.954851,-107
2021-10-14 14:24:48.954859,-90
2021-10-14 14:24:48.954866,-115
2021-10-14 14:24:48.954876,-134
2021-10-14 14:24:48.954882,-127
2021-10-14 14:24:48.954889,-125
2021-10-14 14:24:48.954896,-122
2021-10-14 14:24:48.954907,-110
2021-10-14 14:24:49.179720,-103
2021-10-14 14:24:49.179742,-105
2021-10-14 14:24:49.179752,-120
2021-10-14 14:24:49.179761,-122
2021-10-14 14:24:49.179769,-46
2021-10-14 14:24:49.179778,166
2021-10-14 14:24:49.179786,480
2021-10-14 14:24:49.179795,694
2021-10-14 14:24:49.179803,417
2021-10-14 14:24:49.179811,-225
2021-10-14 14:24:49.179820,-358
2021-10-14 14:24:49.179829,12
2021-10-14 14:24:49.179837,49
2021-10-14 14:24:49.179846,-112
2021-10-14 14:24:49.179854,-58
2021-10-14 14:24:49.179863,-12
2021-10-14 14:24:49.179871,-46
2021-10-14 14:24:49.179880,-7
2021-10-14 14:24:49.179888,36
2021-10-14 14:24:49.179896,26
2021-10-14 14:24:49.179905,36
2021-10-14 14:24:49.179913,66
2021-10-14 14:24:49.179922,93
2021-10-14 14:24:49.179930,127
2021-10-14 14:24:49.179939,152
2021-10-14 14:24:49.179947,161
2021-10-14 14:24:49.179955,188
2021-10-14 14:24:49.179964,228
2021-10-14 14:24:49.179972,267
2021-10-14 14:24:49.179980,294
2021-10-14 14:24:49.404347,306
2021-10-14 14:24:49.404370,306
2021-10-14 14:24:49.404379,301
2021-10-14 14:24:49.404388,316
2021-10-14 14:24:49.404397,323
2021-10-14 14:24:49.404405,291
2021-10-14 14:24:49.404414,245
2021-10-14 14:24:49.404422,198
2021-10-14 14:24:49.404430,134
2021-10-14 14:24:49.404439,58
2021-10-14 14:24:49.404447,2
2021-10-14 14:24:49.404456,-34
2021-10-14 14:24:49.404464,-71
2021-10-14 14:24:49.404472,-107
2021-10-14 14:24:49.404481,-120
2021-10-14 14:24:49.404489,-112
2021-10-14 14:24:49.404497,-110
2021-10-14 14:24:49.404506,-100
2021-10-14 14:24:49.404514,-95
2021-10-14 14:24:49.404522,-103
2021-10-14 14:24:49.404531,-88
2021-10-14 14:24:49.404539,-58
2021-10-14 14:24:49.404548,-49
2021-10-14 14:24:49.404556,-68
2021-10-14 14:24:49.404564,-88
2021-10-14 14:24:49.404573,-83
2021-10-14 14:24:49.404581,-73
2021-10-14 14:24:49.404589,-88
2021-10-14 14:24:49.404598,-95
2021-10-14 14:24:49.404606,-73
2021-10-14 14:24:49.674346,-66
2021-10-14 14:24:49.674369,-78
2021-10-14 14:24:49.674378,-80
2021-10-14 14:24:49.674387,-68
2021-10-14 14:24:49.674395,-71
2021-10-14 14:24:49.674404,-71
2021-10-14 14:24:49.674413,-56
2021-10-14 14:24:49.674421,-66
2021-10-14 14:24:49.674429,-103
2021-10-14 14:24:49.674438,-105
2021-10-14 14:24:49.674446,-76
2021-10-14 14:24:49.674455,-56
2021-10-14 14:24:49.674463,-76
2021-10-14 14:24:49.674472,-90
2021-10-14 14:24:49.674480,-49
2021-10-14 14:24:49.674489,17
2021-10-14 14:24:49.674497,34
2021-10-14 14:24:49.674505,7
2021-10-14 14:24:49.674514,-19
2021-10-14 14:24:49.674522,-56
2021-10-14 14:24:49.674534,-78
2021-10-14 14:24:49.674542,-66
2021-10-14 14:24:49.674551,-44
2021-10-14 14:24:49.674559,-36
2021-10-14 14:24:49.674568,-46
2021-10-14 14:24:49.674576,-36
2021-10-14 14:24:49.674585,-24
2021-10-14 14:24:49.674593,-29
2021-10-14 14:24:49.674602,0
2021-10-14 14:24:49.674610,142
2021-10-14 14:24:49.898514,431
2021-10-14 14:24:49.898541,743
2021-10-14 14:24:49.898550,706
2021-10-14 14:24:49.898559,107
2021-10-14 14:24:49.898568,-323
2021-10-14 14:24:49.898577,-34
2021-10-14 14:24:49.898585,176
2021-10-14 14:24:49.898594,-7
2021-10-14 14:24:49.898602,-26
2021-10-14 14:24:49.898611,66
2021-10-14 14:24:49.898619,36
2021-10-14 14:24:49.898628,22
2021-10-14 14:24:49.898636,63
2021-10-14 14:24:49.898644,71
2021-10-14 14:24:49.898653,83
2021-10-14 14:24:49.898661,117
2021-10-14 14:24:49.898670,132
2021-10-14 14:24:49.898678,127
2021-10-14 14:24:49.898686,130
2021-10-14 14:24:49.898695,169
2021-10-14 14:24:49.898703,213
2021-10-14 14:24:49.898711,220
2021-10-14 14:24:49.898720,233
2021-10-14 14:24:49.898729,262
2021-10-14 14:24:49.898737,274
2021-10-14 14:24:49.898745,296
2021-10-14 14:24:49.898754,321
2021-10-14 14:24:49.898762,316
2021-10-14 14:24:49.898771,309
2021-10-14 14:24:49.898779,301
2021-10-14 14:24:50.124841,284
2021-10-14 14:24:50.124861,247
2021-10-14 14:24:50.124869,174
2021-10-14 14:24:50.124878,105
2021-10-14 14:24:50.124886,61
2021-10-14 14:24:50.124893,-9
2021-10-14 14:24:50.124900,-83
2021-10-14 14:24:50.124909,-100
2021-10-14 14:24:50.124917,-107
2021-10-14 14:24:50.124925,-130
2021-10-14 14:24:50.124933,-139
2021-10-14 14:24:50.124941,-139
2021-10-14 14:24:50.124950,-127
2021-10-14 14:24:50.124958,-115
2021-10-14 14:24:50.124967,-125
2021-10-14 14:24:50.124975,-127
2021-10-14 14:24:50.124984,-103
2021-10-14 14:24:50.124992,-95
2021-10-14 14:24:50.125001,-110
2021-10-14 14:24:50.125009,-112
2021-10-14 14:24:50.125018,-105
2021-10-14 14:24:50.125026,-103
2021-10-14 14:24:50.125034,-112
2021-10-14 14:24:50.125043,-139
2021-10-14 14:24:50.125051,-144
2021-10-14 14:24:50.125059,-122
2021-10-14 14:24:50.125068,-120
2021-10-14 14:24:50.125076,-127
2021-10-14 14:24:50.125084,-132
2021-10-14 14:24:50.125092,-137
2021-10-14 14:24:50.304798,-112
2021-10-14 14:24:50.304819,-85
2021-10-14 14:24:50.304829,-103
2021-10-14 14:24:50.304838,-130
2021-10-14 14:24:50.304846,-127
2021-10-14 14:24:50.304854,-103
2021-10-14 14:24:50.304863,-100
2021-10-14 14:24:50.304872,-117
2021-10-14 14:24:50.304880,-115
2021-10-14 14:24:50.304889,-73
2021-10-14 14:24:50.304897,-31
2021-10-14 14:24:50.304905,-19
2021-10-14 14:24:50.304914,-24
2021-10-14 14:24:50.304922,-29
2021-10-14 14:24:50.304931,-44
2021-10-14 14:24:50.304939,-66
2021-10-14 14:24:50.304948,-78
2021-10-14 14:24:50.304956,-68
2021-10-14 14:24:50.304964,-58
2021-10-14 14:24:50.304973,-49
2021-10-14 14:24:50.304981,-29
2021-10-14 14:24:50.304989,-29
2021-10-14 14:24:50.305001,-58
2021-10-14 14:24:50.305009,-49
2021-10-14 14:24:50.305018,95
2021-10-14 14:24:50.305026,397
2021-10-14 14:24:50.305034,714
2021-10-14 14:24:50.305043,660
2021-10-14 14:24:50.305051,61
2021-10-14 14:24:50.305060,-336
2021-10-14 14:24:50.619667,-58
2021-10-14 14:24:50.619688,125
2021-10-14 14:24:50.619698,-44
2021-10-14 14:24:50.619707,-63
2021-10-14 14:24:50.619715,-9
2021-10-14 14:24:50.619724,-46
2021-10-14 14:24:50.619733,-14
2021-10-14 14:24:50.619741,36
2021-10-14 14:24:50.619750,14
2021-10-14 14:24:50.619758,19
2021-10-14 14:24:50.619767,66
2021-10-14 14:24:50.619775,85
2021-10-14 14:24:50.619784,85
2021-10-14 14:24:50.619792,110
2021-10-14 14:24:50.619800,147
2021-10-14 14:24:50.619809,159
2021-10-14 14:24:50.619817,166
2021-10-14 14:24:50.619826,193
2021-10-14 14:24:50.619834,228
2021-10-14 14:24:50.619842,255
2021-10-14 14:24:50.619851,282
2021-10-14 14:24:50.619859,296
2021-10-14 14:24:50.619868,291
2021-10-14 14:24:50.619876,289
2021-10-14 14:24:50.619885,291
2021-10-14 14:24:50.619894,267
2021-10-14 14:24:50.619902,215
2021-10-14 14:24:50.619911,142
2021-10-14 14:24:50.619919,53
2021-10-14 14:24:50.619928,-17
2021-10-14 14:24:50.799251,-61
2021-10-14 14:24:50.799271,-95
2021-10-14 14:24:50.799280,-130
2021-10-14 14:24:50.799289,-152
2021-10-14 14:24:50.799298,-152
2021-10-14 14:24:50.799306,-139
2021-10-14 14:24:50.799315,-130
2021-10-14 14:24:50.799323,-120
2021-10-14 14:24:50.799332,-122
2021-10-14 14:24:50.799340,-137
2021-10-14 14:24:50.799349,-127
2021-10-14 14:24:50.799357,-107
2021-10-14 14:24:50.799366,-100
2021-10-14 14:24:50.799374,-105
2021-10-14 14:24:50.799383,-110
2021-10-14 14:24:50.799391,-105
2021-10-14 14:24:50.799399,-98
2021-10-14 14:24:50.799407,-125
2021-10-14 14:24:50.799416,-147
2021-10-14 14:24:50.799424,-120
2021-10-14 14:24:50.799433,-110
2021-10-14 14:24:50.799441,-144
2021-10-14 14:24:50.799449,-149
2021-10-14 14:24:50.799458,-120
2021-10-14 14:24:50.799466,-120
2021-10-14 14:24:50.799475,-130
2021-10-14 14:24:50.799483,-127
2021-10-14 14:24:50.799492,-122
2021-10-14 14:24:50.799500,-103
2021-10-14 14:24:50.799508,-83
2021-10-14 14:24:51.113765,-83
2021-10-14 14:24:51.113787,-78
2021-10-14 14:24:51.113797,-83
2021-10-14 14:24:51.113806,-95
2021-10-14 14:24:51.113815,-90
2021-10-14 14:24:51.113823,-73
2021-10-14 14:24:51.113832,-39
2021-10-14 14:24:51.113840,-9
2021-10-14 14:24:51.113849,-19
2021-10-14 14:24:51.113858,-36
2021-10-14 14:24:51.113866,-34
2021-10-14 14:24:51.113875,-44
2021-10-14 14:24:51.113883,-61
2021-10-14 14:24:51.113891,-61
2021-10-14 14:24:51.113900,-63
2021-10-14 14:24:51.113908,-68
2021-10-14 14:24:51.113917,-58
2021-10-14 14:24:51.113925,-49
2021-10-14 14:24:51.113933,-53
2021-10-14 14:24:51.113942,-58
2021-10-14 14:24:51.113950,4
2021-10-14 14:24:51.113958,223
2021-10-14 14:24:51.113967,561
2021-10-14 14:24:51.113975,770
2021-10-14 14:24:51.113983,441
2021-10-14 14:24:51.113992,-213
2021-10-14 14:24:51.114000,-284
2021-10-14 14:24:51.114009,85
2021-10-14 14:24:51.114017,80
2021-10-14 14:24:51.114025,-66
2021-10-14 14:24:51.249813,9
2021-10-14 14:24:51.249835,44
2021-10-14 14:24:51.249843,0
2021-10-14 14:24:51.249851,19
2021-10-14 14:24:51.249859,51
2021-10-14 14:24:51.249869,51
2021-10-14 14:24:51.249877,58
2021-10-14 14:24:51.249885,71
2021-10-14 14:24:51.249892,83
2021-10-14 14:24:51.249900,105
2021-10-14 14:24:51.249907,130
2021-10-14 14:24:51.249923,147
2021-10-14 14:24:51.249931,181
2021-10-14 14:24:51.249939,228
2021-10-14 14:24:51.249946,245
2021-10-14 14:24:51.249954,233
2021-10-14 14:24:51.249961,245
2021-10-14 14:24:51.249969,294
2021-10-14 14:24:51.249977,306
2021-10-14 14:24:51.249985,284
2021-10-14 14:24:51.249992,274
2021-10-14 14:24:51.250000,264
2021-10-14 14:24:51.250008,233
2021-10-14 14:24:51.250015,176
2021-10-14 14:24:51.250023,107
2021-10-14 14:24:51.250030,46
2021-10-14 14:24:51.250038,-17
2021-10-14 14:24:51.250046,-85
2021-10-14 14:24:51.250053,-100
2021-10-14 14:24:51.250061,-103
2021-10-14 14:24:51.474431,-142
2021-10-14 14:24:51.474454,-149
2021-10-14 14:24:51.474463,-110
2021-10-14 14:24:51.474472,-98
2021-10-14 14:24:51.474481,-103
2021-10-14 14:24:51.474489,-78
2021-10-14 14:24:51.474498,-56
2021-10-14 14:24:51.474506,-63
2021-10-14 14:24:51.474515,-61
2021-10-14 14:24:51.474523,-29
2021-10-14 14:24:51.474532,-4
2021-10-14 14:24:51.474540,-4
2021-10-14 14:24:51.474548,4
2021-10-14 14:24:51.474557,0
2021-10-14 14:24:51.474565,-12
2021-10-14 14:24:51.474574,9
2021-10-14 14:24:51.474582,7
2021-10-14 14:24:51.474591,-39
2021-10-14 14:24:51.474599,-41
2021-10-14 14:24:51.474607,-2
2021-10-14 14:24:51.474616,4
2021-10-14 14:24:51.474624,-7
2021-10-14 14:24:51.474633,9
2021-10-14 14:24:51.474641,22
2021-10-14 14:24:51.474649,2
2021-10-14 14:24:51.474658,-7
2021-10-14 14:24:51.474666,2
2021-10-14 14:24:51.474674,17
2021-10-14 14:24:51.474682,19
2021-10-14 14:24:51.474690,17
2021-10-14 14:24:51.743788,14
2021-10-14 14:24:51.743810,9
2021-10-14 14:24:51.743820,14
2021-10-14 14:24:51.743828,14
2021-10-14 14:24:51.743837,0
2021-10-14 14:24:51.743845,-12
2021-10-14 14:24:51.743854,-9
2021-10-14 14:24:51.743863,29
2021-10-14 14:24:51.743871,68
2021-10-14 14:24:51.743880,44
2021-10-14 14:24:51.743888,0
2021-10-14 14:24:51.743896,2
2021-10-14 14:24:51.743905,2
2021-10-14 14:24:51.743913,-31
2021-10-14 14:24:51.743921,-39
2021-10-14 14:24:51.743930,-7
2021-10-14 14:24:51.743938,0
2021-10-14 14:24:51.743947,-17
2021-10-14 14:24:51.743955,-24
2021-10-14 14:24:51.743963,-22
2021-10-14 14:24:51.743972,-9
2021-10-14 14:24:51.743980,85
2021-10-14 14:24:51.743988,341
2021-10-14 14:24:51.743997,684
2021-10-14 14:24:51.744005,765
2021-10-14 14:24:51.744013,252
2021-10-14 14:24:51.744022,-314
2021-10-14 14:24:51.744030,-171
2021-10-14 14:24:51.744038,134
2021-10-14 14:24:51.744047,12
2021-10-14 14:24:51.968565,-68
2021-10-14 14:24:51.968587,31
2021-10-14 14:24:51.968596,9
2021-10-14 14:24:51.968605,-36
2021-10-14 14:24:51.968614,4
2021-10-14 14:24:51.968623,31
2021-10-14 14:24:51.968631,22
2021-10-14 14:24:51.968639,39
2021-10-14 14:24:51.968648,68
2021-10-14 14:24:51.968656,78
2021-10-14 14:24:51.968665,90
2021-10-14 14:24:51.968673,120
2021-10-14 14:24:51.968681,139
2021-10-14 14:24:51.968690,147
2021-10-14 14:24:51.968698,174
2021-10-14 14:24:51.968707,208
2021-10-14 14:24:51.968715,240
2021-10-14 14:24:51.968724,264
2021-10-14 14:24:51.968732,233
2021-10-14 14:24:51.968740,179
2021-10-14 14:24:51.968749,188
2021-10-14 14:24:51.968757,203
2021-10-14 14:24:51.968765,157
2021-10-14 14:24:51.968774,103
2021-10-14 14:24:51.968782,53
2021-10-14 14:24:51.968791,-24
2021-10-14 14:24:51.968799,-107
2021-10-14 14:24:51.968808,-181
2021-10-14 14:24:51.968816,-242
2021-10-14 14:24:51.968825,-287
2021-10-14 14:24:52.149896,-316
2021-10-14 14:24:52.149923,-333
2021-10-14 14:24:52.149933,-350
2021-10-14 14:24:52.149941,-358
2021-10-14 14:24:52.149950,-358
2021-10-14 14:24:52.149958,-372
2021-10-14 14:24:52.149966,-382
2021-10-14 14:24:52.149974,-363
2021-10-14 14:24:52.149983,-343
2021-10-14 14:24:52.149991,-358
2021-10-14 14:24:52.150000,-380
2021-10-14 14:24:52.150008,-368
2021-10-14 14:24:52.150016,-336
2021-10-14 14:24:52.150024,-323
2021-10-14 14:24:52.150033,-341
2021-10-14 14:24:52.150041,-370
2021-10-14 14:24:52.150049,-382
2021-10-14 14:24:52.150058,-375
2021-10-14 14:24:52.150066,-370
2021-10-14 14:24:52.150074,-370
2021-10-14 14:24:52.150082,-372
2021-10-14 14:24:52.150091,-375
2021-10-14 14:24:52.150099,-375
2021-10-14 14:24:52.150107,-377
2021-10-14 14:24:52.150116,-368
2021-10-14 14:24:52.150124,-345
2021-10-14 14:24:52.150132,-343
2021-10-14 14:24:52.150148,-353
2021-10-14 14:24:52.150156,-338
2021-10-14 14:24:52.150165,-309
2021-10-14 14:24:52.374802,-304
2021-10-14 14:24:52.374822,-318
2021-10-14 14:24:52.374831,-316
2021-10-14 14:24:52.374840,-301
2021-10-14 14:24:52.374848,-309
2021-10-14 14:24:52.374857,-321
2021-10-14 14:24:52.374865,-304
2021-10-14 14:24:52.374873,-255
2021-10-14 14:24:52.374882,-211
2021-10-14 14:24:52.374890,-218
2021-10-14 14:24:52.374899,-235
2021-10-14 14:24:52.374908,-223
2021-10-14 14:24:52.374916,-225
2021-10-14 14:24:52.374924,-245
2021-10-14 14:24:52.374933,-240
2021-10-14 14:24:52.374941,-230
2021-10-14 14:24:52.374949,-233
2021-10-14 14:24:52.374958,-228
2021-10-14 14:24:52.374967,-218
2021-10-14 14:24:52.374975,-215
2021-10-14 14:24:52.374984,-208
2021-10-14 14:24:52.374992,-127
2021-10-14 14:24:52.375000,125
2021-10-14 14:24:52.375009,466
2021-10-14 14:24:52.375017,625
2021-10-14 14:24:52.375025,257
2021-10-14 14:24:52.375034,-399
2021-10-14 14:24:52.375042,-458
2021-10-14 14:24:52.375051,-66
2021-10-14 14:24:52.375059,-68
2021-10-14 14:24:52.644392,-215
2021-10-14 14:24:52.644415,-125
2021-10-14 14:24:52.644425,-85
2021-10-14 14:24:52.644434,-144
2021-10-14 14:24:52.644442,-127
2021-10-14 14:24:52.644450,-83
2021-10-14 14:24:52.644459,-73
2021-10-14 14:24:52.644467,-56
2021-10-14 14:24:52.644476,-24
2021-10-14 14:24:52.644484,-7
2021-10-14 14:24:52.644493,12
2021-10-14 14:24:52.644501,41
2021-10-14 14:24:52.644510,83
2021-10-14 14:24:52.644518,125
2021-10-14 14:24:52.644526,132
2021-10-14 14:24:52.644535,132
2021-10-14 14:24:52.644543,164
2021-10-14 14:24:52.644551,215
2021-10-14 14:24:52.644560,240
2021-10-14 14:24:52.644568,235
2021-10-14 14:24:52.644577,245
2021-10-14 14:24:52.644585,255
2021-10-14 14:24:52.644594,208
2021-10-14 14:24:52.644602,157
2021-10-14 14:24:52.644610,130
2021-10-14 14:24:52.644618,63
2021-10-14 14:24:52.644627,-46
2021-10-14 14:24:52.644635,-130
2021-10-14 14:24:52.644644,-166
2021-10-14 14:24:52.644652,-198
2021-10-14 14:24:52.869735,-240
2021-10-14 14:24:52.869758,-274
2021-10-14 14:24:52.869767,-284
2021-10-14 14:24:52.869776,-269
2021-10-14 14:24:52.869785,-242
2021-10-14 14:24:52.869793,-233
2021-10-14 14:24:52.869802,-230
2021-10-14 14:24:52.869811,-228
2021-10-14 14:24:52.869819,-225
2021-10-14 14:24:52.869828,-218
2021-10-14 14:24:52.869836,-203
2021-10-14 14:24:52.869844,-184
2021-10-14 14:24:52.869853,-166
2021-10-14 14:24:52.869861,-161
2021-10-14 14:24:52.869870,-171
2021-10-14 14:24:52.869878,-169
2021-10-14 14:24:52.869886,-157
2021-10-14 14:24:52.869895,-159
2021-10-14 14:24:52.869903,-147
2021-10-14 14:24:52.869911,-120
2021-10-14 14:24:52.869920,-120
2021-10-14 14:24:52.869928,-115
2021-10-14 14:24:52.869936,-112
2021-10-14 14:24:52.869945,-137
2021-10-14 14:24:52.869953,-144
2021-10-14 14:24:52.869961,-125
2021-10-14 14:24:52.869970,-110
2021-10-14 14:24:52.869978,-107
2021-10-14 14:24:52.869986,-95
2021-10-14 14:24:52.869995,-88
2021-10-14 14:24:53.094657,-83
2021-10-14 14:24:53.094678,-63
2021-10-14 14:24:53.094687,-61
2021-10-14 14:24:53.094696,-78
2021-10-14 14:24:53.094704,-76
2021-10-14 14:24:53.094712,-61
2021-10-14 14:24:53.094721,-71
2021-10-14 14:24:53.094729,-100
2021-10-14 14:24:53.094738,-112
2021-10-14 14:24:53.094746,-78
2021-10-14 14:24:53.094754,-24
2021-10-14 14:24:53.094772,14
2021-10-14 14:24:53.094780,14
2021-10-14 14:24:53.094789,0
2021-10-14 14:24:53.094797,-17
2021-10-14 14:24:53.094805,-34
2021-10-14 14:24:53.094814,-36
2021-10-14 14:24:53.094822,-26
2021-10-14 14:24:53.094830,-19
2021-10-14 14:24:53.094839,-29
2021-10-14 14:24:53.094847,-22
2021-10-14 14:24:53.094856,-9
2021-10-14 14:24:53.094864,-17
2021-10-14 14:24:53.094873,12
2021-10-14 14:24:53.094881,127
2021-10-14 14:24:53.094889,355
2021-10-14 14:24:53.094898,682
2021-10-14 14:24:53.094906,824
2021-10-14 14:24:53.094915,360
2021-10-14 14:24:53.094923,-264
2021-10-14 14:24:53.319304,-181
2021-10-14 14:24:53.319325,154
2021-10-14 14:24:53.319334,61
2021-10-14 14:24:53.319342,-34
2021-10-14 14:24:53.319351,56
2021-10-14 14:24:53.319359,56
2021-10-14 14:24:53.319368,14
2021-10-14 14:24:53.319376,39
2021-10-14 14:24:53.319384,58
2021-10-14 14:24:53.319393,63
2021-10-14 14:24:53.319401,93
2021-10-14 14:24:53.319410,134
2021-10-14 14:24:53.319418,144
2021-10-14 14:24:53.319426,122
2021-10-14 14:24:53.319435,139
2021-10-14 14:24:53.319443,191
2021-10-14 14:24:53.319452,211
2021-10-14 14:24:53.319461,228
2021-10-14 14:24:53.319470,272
2021-10-14 14:24:53.319478,311
2021-10-14 14:24:53.319487,326
2021-10-14 14:24:53.319495,341
2021-10-14 14:24:53.319503,358
2021-10-14 14:24:53.319512,348
2021-10-14 14:24:53.319521,309
2021-10-14 14:24:53.319529,282
2021-10-14 14:24:53.319537,267
2021-10-14 14:24:53.319545,203
2021-10-14 14:24:53.319554,112
2021-10-14 14:24:53.319562,53
2021-10-14 14:24:53.544400,-2
2021-10-14 14:24:53.544422,-68
2021-10-14 14:24:53.544431,-105
2021-10-14 14:24:53.544440,-112
2021-10-14 14:24:53.544448,-112
2021-10-14 14:24:53.544457,-120
2021-10-14 14:24:53.544465,-132
2021-10-14 14:24:53.544474,-132
2021-10-14 14:24:53.544482,-120
2021-10-14 14:24:53.544491,-110
2021-10-14 14:24:53.544499,-95
2021-10-14 14:24:53.544508,-90
2021-10-14 14:24:53.544516,-107
2021-10-14 14:24:53.544524,-100
2021-10-14 14:24:53.544533,-58
2021-10-14 14:24:53.544541,-53
2021-10-14 14:24:53.544550,-73
2021-10-14 14:24:53.544558,-61
2021-10-14 14:24:53.544567,-53
2021-10-14 14:24:53.544575,-56
2021-10-14 14:24:53.544584,-53
2021-10-14 14:24:53.544592,-56
2021-10-14 14:24:53.544601,-53
2021-10-14 14:24:53.544609,-41
2021-10-14 14:24:53.544617,-39
2021-10-14 14:24:53.544626,-39
2021-10-14 14:24:53.544634,-36
2021-10-14 14:24:53.544642,-41
2021-10-14 14:24:53.544651,-49
2021-10-14 14:24:53.544659,-49
2021-10-14 14:24:53.769775,-34
2021-10-14 14:24:53.769801,-26
2021-10-14 14:24:53.769811,-49
2021-10-14 14:24:53.769819,-71
2021-10-14 14:24:53.769828,-58
2021-10-14 14:24:53.769836,-56
2021-10-14 14:24:53.769845,-66
2021-10-14 14:24:53.769853,-51
2021-10-14 14:24:53.769862,-39
2021-10-14 14:24:53.769870,-61
2021-10-14 14:24:53.769878,-83
2021-10-14 14:24:53.769887,-85
2021-10-14 14:24:53.769895,-85
2021-10-14 14:24:53.769903,-88
2021-10-14 14:24:53.769912,-71
2021-10-14 14:24:53.769920,-24
2021-10-14 14:24:53.769928,9
2021-10-14 14:24:53.769937,12
2021-10-14 14:24:53.769945,4
2021-10-14 14:24:53.769953,-12
2021-10-14 14:24:53.769962,-36
2021-10-14 14:24:53.769970,-44
2021-10-14 14:24:53.769978,-31
2021-10-14 14:24:53.769987,-29
2021-10-14 14:24:53.769995,-34
2021-10-14 14:24:53.770003,-14
2021-10-14 14:24:53.770012,-4
2021-10-14 14:24:53.770020,-29
2021-10-14 14:24:53.770028,-34
2021-10-14 14:24:53.770037,73
2021-10-14 14:24:54.038484,350
2021-10-14 14:24:54.038506,711
2021-10-14 14:24:54.038515,817
2021-10-14 14:24:54.038524,287
2021-10-14 14:24:54.038533,-368
2021-10-14 14:24:54.038541,-240
2021-10-14 14:24:54.038615,107
2021-10-14 14:24:54.038625,-14
2021-10-14 14:24:54.038634,-100
2021-10-14 14:24:54.038655,-12
2021-10-14 14:24:54.038664,-71
2021-10-14 14:24:54.038672,-134
2021-10-14 14:24:54.038681,-110
2021-10-14 14:24:54.038700,-112
2021-10-14 14:24:54.038710,-147
2021-10-14 14:24:54.038718,-161
2021-10-14 14:24:54.038726,-169
2021-10-14 14:24:54.038734,-181
2021-10-14 14:24:54.038743,-186
2021-10-14 14:24:54.038751,-169
2021-10-14 14:24:54.038759,-144
2021-10-14 14:24:54.038768,-137
2021-10-14 14:24:54.038776,-127
2021-10-14 14:24:54.038785,-103
2021-10-14 14:24:54.038793,-93
2021-10-14 14:24:54.038802,-100
2021-10-14 14:24:54.038810,-110
2021-10-14 14:24:54.038818,-130
2021-10-14 14:24:54.038827,-159
2021-10-14 14:24:54.038835,-179
2021-10-14 14:24:54.219749,-196
2021-10-14 14:24:54.219778,-240
2021-10-14 14:24:54.219788,-309
2021-10-14 14:24:54.219797,-397
2021-10-14 14:24:54.219805,-485
2021-10-14 14:24:54.219814,-556
2021-10-14 14:24:54.219822,-618
2021-10-14 14:24:54.219830,-667
2021-10-14 14:24:54.219842,-662
2021-10-14 14:24:54.219850,-633
2021-10-14 14:24:54.219859,-633
2021-10-14 14:24:54.219867,-642
2021-10-14 14:24:54.219875,-610
2021-10-14 14:24:54.219884,-581
2021-10-14 14:24:54.219892,-591
2021-10-14 14:24:54.219901,-598
2021-10-14 14:24:54.219909,-583
2021-10-14 14:24:54.219917,-579
2021-10-14 14:24:54.219926,-574
2021-10-14 14:24:54.219934,-549
2021-10-14 14:24:54.219943,-532
2021-10-14 14:24:54.219951,-529
2021-10-14 14:24:54.219959,-512
2021-10-14 14:24:54.219968,-483
2021-10-14 14:24:54.219976,-463
2021-10-14 14:24:54.219984,-449
2021-10-14 14:24:54.219993,-444
2021-10-14 14:24:54.220002,-449
2021-10-14 14:24:54.220010,-419
2021-10-14 14:24:54.220018,-385
2021-10-14 14:24:54.579408,-387
2021-10-14 14:24:54.579431,-385
2021-10-14 14:24:54.579441,-377
2021-10-14 14:24:54.579450,-392
2021-10-14 14:24:54.579458,-395
2021-10-14 14:24:54.579467,-380
2021-10-14 14:24:54.579475,-372
2021-10-14 14:24:54.579484,-372
2021-10-14 14:24:54.579492,-385
2021-10-14 14:24:54.579501,-392
2021-10-14 14:24:54.579509,-375
2021-10-14 14:24:54.579518,-360
2021-10-14 14:24:54.579526,-370
2021-10-14 14:24:54.579535,-370
2021-10-14 14:24:54.579543,-353
2021-10-14 14:24:54.579552,-314
2021-10-14 14:24:54.579560,-282
2021-10-14 14:24:54.579569,-282
2021-10-14 14:24:54.579577,-277
2021-10-14 14:24:54.579586,-267
2021-10-14 14:24:54.579594,-279
2021-10-14 14:24:54.579602,-289
2021-10-14 14:24:54.579611,-274
2021-10-14 14:24:54.579619,-260
2021-10-14 14:24:54.579628,-262
2021-10-14 14:24:54.579636,-262
2021-10-14 14:24:54.579645,-264
2021-10-14 14:24:54.579653,-269
2021-10-14 14:24:54.579661,-257
2021-10-14 14:24:54.579670,-201
2021-10-14 14:24:54.714590,-19
2021-10-14 14:24:54.714615,326
2021-10-14 14:24:54.714625,623
2021-10-14 14:24:54.714634,407
2021-10-14 14:24:54.714643,-306
2021-10-14 14:24:54.714651,-569
2021-10-14 14:24:54.714660,-161
2021-10-14 14:24:54.714668,-44
2021-10-14 14:24:54.714677,-245
2021-10-14 14:24:54.714685,-213
2021-10-14 14:24:54.714693,-137
2021-10-14 14:24:54.714702,-176
2021-10-14 14:24:54.714710,-166
2021-10-14 14:24:54.714719,-134
2021-10-14 14:24:54.714727,-144
2021-10-14 14:24:54.714736,-142
2021-10-14 14:24:54.714744,-117
2021-10-14 14:24:54.714753,-100
2021-10-14 14:24:54.714762,-78
2021-10-14 14:24:54.714770,-46
2021-10-14 14:24:54.714779,-22
2021-10-14 14:24:54.714787,-2
2021-10-14 14:24:54.714825,41
2021-10-14 14:24:54.714834,93
2021-10-14 14:24:54.714842,122
2021-10-14 14:24:54.714851,137
2021-10-14 14:24:54.714859,166
2021-10-14 14:24:54.714868,201
2021-10-14 14:24:54.714876,218
2021-10-14 14:24:54.714885,213
2021-10-14 14:24:54.939793,188
2021-10-14 14:24:54.939815,147
2021-10-14 14:24:54.939825,88
2021-10-14 14:24:54.939834,9
2021-10-14 14:24:54.939843,-73
2021-10-14 14:24:54.939852,-149
2021-10-14 14:24:54.939860,-211
2021-10-14 14:24:54.939869,-269
2021-10-14 14:24:54.939877,-309
2021-10-14 14:24:54.939885,-316
2021-10-14 14:24:54.939894,-301
2021-10-14 14:24:54.939902,-291
2021-10-14 14:24:54.939911,-289
2021-10-14 14:24:54.939919,-289
2021-10-14 14:24:54.939928,-282
2021-10-14 14:24:54.939936,-260
2021-10-14 14:24:54.939945,-245
2021-10-14 14:24:54.939953,-235
2021-10-14 14:24:54.939961,-225
2021-10-14 14:24:54.939970,-211
2021-10-14 14:24:54.939978,-203
2021-10-14 14:24:54.939987,-198
2021-10-14 14:24:54.939995,-188
2021-10-14 14:24:54.940004,-169
2021-10-14 14:24:54.940012,-164
2021-10-14 14:24:54.940020,-166
2021-10-14 14:24:54.940029,-161
2021-10-14 14:24:54.940037,-157
2021-10-14 14:24:54.940046,-149
2021-10-14 14:24:54.940054,-142
2021-10-14 14:24:55.164304,-137
2021-10-14 14:24:55.164325,-132
2021-10-14 14:24:55.164334,-127
2021-10-14 14:24:55.164343,-125
2021-10-14 14:24:55.164351,-115
2021-10-14 14:24:55.164360,-107
2021-10-14 14:24:55.164369,-115
2021-10-14 14:24:55.164377,-115
2021-10-14 14:24:55.164386,-107
2021-10-14 14:24:55.164394,-110
2021-10-14 14:24:55.164403,-110
2021-10-14 14:24:55.164411,-103
2021-10-14 14:24:55.164420,-112
2021-10-14 14:24:55.164428,-130
2021-10-14 14:24:55.164437,-112
2021-10-14 14:24:55.164445,-83
2021-10-14 14:24:55.164454,-53
2021-10-14 14:24:55.164462,-19
2021-10-14 14:24:55.164471,-29
2021-10-14 14:24:55.164479,-83
2021-10-14 14:24:55.164488,-80
2021-10-14 14:24:55.164496,-66
2021-10-14 14:24:55.164504,-112
2021-10-14 14:24:55.164513,-132
2021-10-14 14:24:55.164521,-95
2021-10-14 14:24:55.164530,-85
2021-10-14 14:24:55.164538,-93
2021-10-14 14:24:55.164547,-88
2021-10-14 14:24:55.164555,-68
2021-10-14 14:24:55.164564,-2
2021-10-14 14:24:55.389737,188
2021-10-14 14:24:55.389759,537
2021-10-14 14:24:55.389768,836
2021-10-14 14:24:55.389777,583
2021-10-14 14:24:55.389785,-174
2021-10-14 14:24:55.389794,-424
2021-10-14 14:24:55.389803,-4
2021-10-14 14:24:55.389811,85
2021-10-14 14:24:55.389819,-105
2021-10-14 14:24:55.389828,-56
2021-10-14 14:24:55.389837,0
2021-10-14 14:24:55.389845,-56
2021-10-14 14:24:55.389854,-41
2021-10-14 14:24:55.389862,4
2021-10-14 14:24:55.389871,-2
2021-10-14 14:24:55.389879,2
2021-10-14 14:24:55.389888,31
2021-10-14 14:24:55.389896,34
2021-10-14 14:24:55.389904,46
2021-10-14 14:24:55.389913,90
2021-10-14 14:24:55.389921,122
2021-10-14 14:24:55.389930,139
2021-10-14 14:24:55.389938,174
2021-10-14 14:24:55.389950,213
2021-10-14 14:24:55.389959,240
2021-10-14 14:24:55.389967,257
2021-10-14 14:24:55.389976,282
2021-10-14 14:24:55.389984,309
2021-10-14 14:24:55.389993,323
2021-10-14 14:24:55.390001,321
2021-10-14 14:24:55.614589,299
2021-10-14 14:24:55.614615,257
2021-10-14 14:24:55.614625,193
2021-10-14 14:24:55.614634,103
2021-10-14 14:24:55.614643,12
2021-10-14 14:24:55.614651,-61
2021-10-14 14:24:55.614660,-142
2021-10-14 14:24:55.614669,-206
2021-10-14 14:24:55.614677,-228
2021-10-14 14:24:55.614686,-230
2021-10-14 14:24:55.614695,-245
2021-10-14 14:24:55.614703,-255
2021-10-14 14:24:55.614712,-252
2021-10-14 14:24:55.614720,-242
2021-10-14 14:24:55.614729,-235
2021-10-14 14:24:55.614738,-213
2021-10-14 14:24:55.614747,-196
2021-10-14 14:24:55.614756,-196
2021-10-14 14:24:55.614764,-188
2021-10-14 14:24:55.614773,-166
2021-10-14 14:24:55.614781,-161
2021-10-14 14:24:55.614820,-171
2021-10-14 14:24:55.614828,-161
2021-10-14 14:24:55.614837,-147
2021-10-14 14:24:55.614845,-149
2021-10-14 14:24:55.614855,-166
2021-10-14 14:24:55.614863,-171
2021-10-14 14:24:55.614872,-161
2021-10-14 14:24:55.614881,-159
2021-10-14 14:24:55.614890,-174
2021-10-14 14:24:55.839372,-174
2021-10-14 14:24:55.839395,-164
2021-10-14 14:24:55.839406,-157
2021-10-14 14:24:55.839416,-154
2021-10-14 14:24:55.839425,-164
2021-10-14 14:24:55.839435,-171
2021-10-14 14:24:55.839444,-154
2021-10-14 14:24:55.839453,-134
2021-10-14 14:24:55.839462,-137
2021-10-14 14:24:55.839471,-144
2021-10-14 14:24:55.839480,-147
2021-10-14 14:24:55.839489,-139
2021-10-14 14:24:55.839498,-127
2021-10-14 14:24:55.839508,-130
2021-10-14 14:24:55.839517,-147
2021-10-14 14:24:55.839526,-137
2021-10-14 14:24:55.839535,-95
2021-10-14 14:24:55.839544,-56
2021-10-14 14:24:55.839555,-39
2021-10-14 14:24:55.839565,-39
2021-10-14 14:24:55.839574,-46
2021-10-14 14:24:55.839583,-68
2021-10-14 14:24:55.839592,-83
2021-10-14 14:24:55.839601,-71
2021-10-14 14:24:55.839610,-51
2021-10-14 14:24:55.839620,-44
2021-10-14 14:24:55.839629,-49
2021-10-14 14:24:55.839638,-56
2021-10-14 14:24:55.839647,-66
2021-10-14 14:24:55.839656,-46
2021-10-14 14:24:56.153421,61
2021-10-14 14:24:56.153442,333
2021-10-14 14:24:56.153451,687
2021-10-14 14:24:56.153460,763
2021-10-14 14:24:56.153468,213
2021-10-14 14:24:56.153477,-422
2021-10-14 14:24:56.153485,-262
2021-10-14 14:24:56.153494,132
2021-10-14 14:24:56.153502,31
2021-10-14 14:24:56.153511,-83
2021-10-14 14:24:56.153519,7
2021-10-14 14:24:56.153527,19
2021-10-14 14:24:56.153536,-4
2021-10-14 14:24:56.153544,26
2021-10-14 14:24:56.153553,34
2021-10-14 14:24:56.153561,26
2021-10-14 14:24:56.153569,51
2021-10-14 14:24:56.153578,78
2021-10-14 14:24:56.153586,83
2021-10-14 14:24:56.153594,103
2021-10-14 14:24:56.153603,139
2021-10-14 14:24:56.153611,164
2021-10-14 14:24:56.153619,181
2021-10-14 14:24:56.153628,225
2021-10-14 14:24:56.153636,274
2021-10-14 14:24:56.153644,299
2021-10-14 14:24:56.153653,321
2021-10-14 14:24:56.153661,341
2021-10-14 14:24:56.153670,348
2021-10-14 14:24:56.153678,348
2021-10-14 14:24:56.334793,336
2021-10-14 14:24:56.334813,291
2021-10-14 14:24:56.334822,233
2021-10-14 14:24:56.334831,159
2021-10-14 14:24:56.334840,66
2021-10-14 14:24:56.334848,-19
2021-10-14 14:24:56.334857,-93
2021-10-14 14:24:56.334866,-157
2021-10-14 14:24:56.334875,-203
2021-10-14 14:24:56.334883,-240
2021-10-14 14:24:56.334892,-252
2021-10-14 14:24:56.334900,-242
2021-10-14 14:24:56.334908,-238
2021-10-14 14:24:56.334917,-240
2021-10-14 14:24:56.334925,-235
2021-10-14 14:24:56.334933,-228
2021-10-14 14:24:56.334942,-208
2021-10-14 14:24:56.334950,-188
2021-10-14 14:24:56.334959,-176
2021-10-14 14:24:56.334967,-166
2021-10-14 14:24:56.334976,-159
2021-10-14 14:24:56.334984,-154
2021-10-14 14:24:56.334993,-147
2021-10-14 14:24:56.335001,-149
2021-10-14 14:24:56.335009,-142
2021-10-14 14:24:56.335018,-122
2021-10-14 14:24:56.335026,-117
2021-10-14 14:24:56.335034,-130
2021-10-14 14:24:56.335042,-125
2021-10-14 14:24:56.335051,-115
2021-10-14 14:24:56.559353,-120
2021-10-14 14:24:56.559375,-127
2021-10-14 14:24:56.559384,-130
2021-10-14 14:24:56.559393,-130
2021-10-14 14:24:56.559402,-125
2021-10-14 14:24:56.559410,-122
2021-10-14 14:24:56.559419,-120
2021-10-14 14:24:56.559427,-115
2021-10-14 14:24:56.559436,-117
2021-10-14 14:24:56.559444,-115
2021-10-14 14:24:56.559453,-115
2021-10-14 14:24:56.559461,-122
2021-10-14 14:24:56.559470,-115
2021-10-14 14:24:56.559478,-78
2021-10-14 14:24:56.559486,-53
2021-10-14 14:24:56.559495,-53
2021-10-14 14:24:56.559503,-49
2021-10-14 14:24:56.559511,-46
2021-10-14 14:24:56.559520,-66
2021-10-14 14:24:56.559528,-85
2021-10-14 14:24:56.559537,-93
2021-10-14 14:24:56.559545,-93
2021-10-14 14:24:56.559553,-80
2021-10-14 14:24:56.559562,-58
2021-10-14 14:24:56.559570,-51
2021-10-14 14:24:56.559578,-71
2021-10-14 14:24:56.559587,-85
2021-10-14 14:24:56.559595,-51
2021-10-14 14:24:56.559604,80
2021-10-14 14:24:56.559612,385
2021-10-14 14:24:56.784783,726
2021-10-14 14:24:56.784803,682
2021-10-14 14:24:56.784812,9
2021-10-14 14:24:56.784819,-515
2021-10-14 14:24:56.784827,-196
2021-10-14 14:24:56.784835,120
2021-10-14 14:24:56.784843,-46
2021-10-14 14:24:56.784851,-90
2021-10-14 14:24:56.784858,7
2021-10-14 14:24:56.784866,-26
2021-10-14 14:24:56.784874,-44
2021-10-14 14:24:56.784882,4
2021-10-14 14:24:56.784889,12
2021-10-14 14:24:56.784897,4
2021-10-14 14:24:56.784904,17
2021-10-14 14:24:56.784912,44
2021-10-14 14:24:56.784920,73
2021-10-14 14:24:56.784927,93
2021-10-14 14:24:56.784935,107
2021-10-14 14:24:56.784943,130
2021-10-14 14:24:56.784950,159
2021-10-14 14:24:56.784958,193
2021-10-14 14:24:56.784965,223
2021-10-14 14:24:56.784973,252
2021-10-14 14:24:56.784981,284
2021-10-14 14:24:56.784988,301
2021-10-14 14:24:56.784996,309
2021-10-14 14:24:56.785004,309
2021-10-14 14:24:56.785012,294
2021-10-14 14:24:56.785022,257
2021-10-14 14:24:57.054411,206
2021-10-14 14:24:57.054432,132
2021-10-14 14:24:57.054441,41
2021-10-14 14:24:57.054450,-51
2021-10-14 14:24:57.054459,-137
2021-10-14 14:24:57.054467,-201
2021-10-14 14:24:57.054476,-252
2021-10-14 14:24:57.054484,-291
2021-10-14 14:24:57.054493,-299
2021-10-14 14:24:57.054501,-291
2021-10-14 14:24:57.054509,-282
2021-10-14 14:24:57.054518,-269
2021-10-14 14:24:57.054526,-267
2021-10-14 14:24:57.054535,-264
2021-10-14 14:24:57.054543,-252
2021-10-14 14:24:57.054552,-235
2021-10-14 14:24:57.054560,-215
2021-10-14 14:24:57.054569,-201
2021-10-14 14:24:57.054577,-203
2021-10-14 14:24:57.054586,-206
2021-10-14 14:24:57.054594,-196
2021-10-14 14:24:57.054602,-191
2021-10-14 14:24:57.054611,-186
2021-10-14 14:24:57.054619,-179
2021-10-14 14:24:57.054628,-174
2021-10-14 14:24:57.054636,-181
2021-10-14 14:24:57.054645,-184
2021-10-14 14:24:57.054653,-169
2021-10-14 14:24:57.054661,-159
2021-10-14 14:24:57.054670,-164
2021-10-14 14:24:57.234342,-161
2021-10-14 14:24:57.234405,-149
2021-10-14 14:24:57.234415,-142
2021-10-14 14:24:57.234423,-137
2021-10-14 14:24:57.234432,-127
2021-10-14 14:24:57.234441,-130
2021-10-14 14:24:57.234449,-137
2021-10-14 14:24:57.234458,-139
2021-10-14 14:24:57.234466,-149
2021-10-14 14:24:57.234475,-159
2021-10-14 14:24:57.234483,-142
2021-10-14 14:24:57.234492,-105
2021-10-14 14:24:57.234500,-80
2021-10-14 14:24:57.234509,-76
2021-10-14 14:24:57.234517,-78
2021-10-14 14:24:57.234526,-85
2021-10-14 14:24:57.234535,-100
2021-10-14 14:24:57.234543,-117
2021-10-14 14:24:57.234551,-125
2021-10-14 14:24:57.234560,-120
2021-10-14 14:24:57.234568,-105
2021-10-14 14:24:57.234577,-100
2021-10-14 14:24:57.234585,-98
2021-10-14 14:24:57.234593,-100
2021-10-14 14:24:57.234602,-93
2021-10-14 14:24:57.234610,-44
2021-10-14 14:24:57.234618,125
2021-10-14 14:24:57.234627,458
2021-10-14 14:24:57.234635,760
2021-10-14 14:24:57.234643,556
2021-10-14 14:24:57.459371,-211
2021-10-14 14:24:57.459396,-571
2021-10-14 14:24:57.459406,-122
2021-10-14 14:24:57.459415,112
2021-10-14 14:24:57.459424,-68
2021-10-14 14:24:57.459432,-53
2021-10-14 14:24:57.459441,29
2021-10-14 14:24:57.459449,-17
2021-10-14 14:24:57.459458,-17
2021-10-14 14:24:57.459466,26
2021-10-14 14:24:57.459475,22
2021-10-14 14:24:57.459483,14
2021-10-14 14:24:57.459491,39
2021-10-14 14:24:57.459500,71
2021-10-14 14:24:57.459508,90
2021-10-14 14:24:57.459517,117
2021-10-14 14:24:57.459525,147
2021-10-14 14:24:57.459533,166
2021-10-14 14:24:57.459541,193
2021-10-14 14:24:57.459550,233
2021-10-14 14:24:57.459558,262
2021-10-14 14:24:57.459567,289
2021-10-14 14:24:57.459575,314
2021-10-14 14:24:57.459583,321
2021-10-14 14:24:57.459591,321
2021-10-14 14:24:57.459600,316
2021-10-14 14:24:57.459608,291
2021-10-14 14:24:57.459617,257
2021-10-14 14:24:57.459625,201
2021-10-14 14:24:57.459633,105
2021-10-14 14:24:57.684320,12
2021-10-14 14:24:57.684340,-61
2021-10-14 14:24:57.684349,-137
2021-10-14 14:24:57.684357,-208
2021-10-14 14:24:57.684365,-250
2021-10-14 14:24:57.684373,-274
2021-10-14 14:24:57.684381,-279
2021-10-14 14:24:57.684388,-274
2021-10-14 14:24:57.684396,-272
2021-10-14 14:24:57.684404,-264
2021-10-14 14:24:57.684411,-257
2021-10-14 14:24:57.684419,-255
2021-10-14 14:24:57.684427,-247
2021-10-14 14:24:57.684435,-233
2021-10-14 14:24:57.684443,-223
2021-10-14 14:24:57.684451,-213
2021-10-14 14:24:57.684458,-208
2021-10-14 14:24:57.684466,-213
2021-10-14 14:24:57.684474,-211
2021-10-14 14:24:57.684482,-188
2021-10-14 14:24:57.684490,-184
2021-10-14 14:24:57.684497,-201
2021-10-14 14:24:57.684514,-201
2021-10-14 14:24:57.684521,-184
2021-10-14 14:24:57.684528,-176
2021-10-14 14:24:57.684536,-176
2021-10-14 14:24:57.684543,-176
2021-10-14 14:24:57.684550,-174
2021-10-14 14:24:57.684557,-171
2021-10-14 14:24:57.684564,-164
2021-10-14 14:24:57.909831,-154
2021-10-14 14:24:57.909854,-149
2021-10-14 14:24:57.909863,-147
2021-10-14 14:24:57.909872,-154
2021-10-14 14:24:57.909881,-166
2021-10-14 14:24:57.909890,-159
2021-10-14 14:24:57.909898,-115
2021-10-14 14:24:57.909907,-76
2021-10-14 14:24:57.909915,-68
2021-10-14 14:24:57.909924,-71
2021-10-14 14:24:57.909932,-71
2021-10-14 14:24:57.909941,-98
2021-10-14 14:24:57.909949,-120
2021-10-14 14:24:57.909958,-110
2021-10-14 14:24:57.909966,-103
2021-10-14 14:24:57.909975,-110
2021-10-14 14:24:57.909983,-110
2021-10-14 14:24:57.909992,-103
2021-10-14 14:24:57.910000,-93
2021-10-14 14:24:57.910008,-85
2021-10-14 14:24:57.910017,-61
2021-10-14 14:24:57.910025,56
2021-10-14 14:24:57.910033,348
2021-10-14 14:24:57.910042,696
2021-10-14 14:24:57.910050,689
2021-10-14 14:24:57.910058,39
2021-10-14 14:24:57.910067,-542
2021-10-14 14:24:57.910075,-267
2021-10-14 14:24:57.910083,107
2021-10-14 14:24:57.910092,-14
2021-10-14 14:24:58.223452,-61
2021-10-14 14:24:58.223474,51
2021-10-14 14:24:58.223484,24
2021-10-14 14:24:58.223492,-14
2021-10-14 14:24:58.223501,29
2021-10-14 14:24:58.223510,56
2021-10-14 14:24:58.223518,63
2021-10-14 14:24:58.223526,90
2021-10-14 14:24:58.223535,112
2021-10-14 14:24:58.223543,125
2021-10-14 14:24:58.223552,147
2021-10-14 14:24:58.223560,179
2021-10-14 14:24:58.223568,213
2021-10-14 14:24:58.223577,247
2021-10-14 14:24:58.223585,274
2021-10-14 14:24:58.223594,299
2021-10-14 14:24:58.223602,326
2021-10-14 14:24:58.223611,341
2021-10-14 14:24:58.223620,350
2021-10-14 14:24:58.223628,368
2021-10-14 14:24:58.223637,368
2021-10-14 14:24:58.223645,345
2021-10-14 14:24:58.223653,311
2021-10-14 14:24:58.223662,252
2021-10-14 14:24:58.223670,159
2021-10-14 14:24:58.223708,56
2021-10-14 14:24:58.223719,-36
2021-10-14 14:24:58.223736,-112
2021-10-14 14:24:58.223745,-171
2021-10-14 14:24:58.223753,-211
2021-10-14 14:24:58.404467,-230
2021-10-14 14:24:58.404490,-238
2021-10-14 14:24:58.404500,-245
2021-10-14 14:24:58.404509,-250
2021-10-14 14:24:58.404519,-240
2021-10-14 14:24:58.404528,-218
2021-10-14 14:24:58.404536,-198
2021-10-14 14:24:58.404545,-191
2021-10-14 14:24:58.404553,-191
2021-10-14 14:24:58.404561,-186
2021-10-14 14:24:58.404570,-169
2021-10-14 14:24:58.404578,-157
2021-10-14 14:24:58.404587,-152
2021-10-14 14:24:58.404595,-147
2021-10-14 14:24:58.404604,-152
2021-10-14 14:24:58.404612,-159
2021-10-14 14:24:58.404621,-149
2021-10-14 14:24:58.404629,-142
2021-10-14 14:24:58.404638,-147
2021-10-14 14:24:58.404646,-152
2021-10-14 14:24:58.404654,-149
2021-10-14 14:24:58.404663,-147
2021-10-14 14:24:58.404671,-144
2021-10-14 14:24:58.404679,-137
2021-10-14 14:24:58.404688,-130
2021-10-14 14:24:58.404696,-127
2021-10-14 14:24:58.404704,-130
2021-10-14 14:24:58.404713,-134
2021-10-14 14:24:58.404787,-127
2021-10-14 14:24:58.404796,-95
2021-10-14 14:24:58.629377,-58
2021-10-14 14:24:58.629398,-39
2021-10-14 14:24:58.629408,-41
2021-10-14 14:24:58.629416,-44
2021-10-14 14:24:58.629425,-51
2021-10-14 14:24:58.629434,-68
2021-10-14 14:24:58.629442,-73
2021-10-14 14:24:58.629451,-68
2021-10-14 14:24:58.629459,-73
2021-10-14 14:24:58.629467,-78
2021-10-14 14:24:58.629476,-66
2021-10-14 14:24:58.629484,-51
2021-10-14 14:24:58.629493,-56
2021-10-14 14:24:58.629501,-56
2021-10-14 14:24:58.629509,7
2021-10-14 14:24:58.629518,225
2021-10-14 14:24:58.629526,588
2021-10-14 14:24:58.629534,831
2021-10-14 14:24:58.629542,488
2021-10-14 14:24:58.629551,-289
2021-10-14 14:24:58.629559,-458
2021-10-14 14:24:58.629567,12
2021-10-14 14:24:58.629576,105
2021-10-14 14:24:58.629584,-68
2021-10-14 14:24:58.629592,4
2021-10-14 14:24:58.629601,66
2021-10-14 14:24:58.629609,12
2021-10-14 14:24:58.629617,31
2021-10-14 14:24:58.629626,68
2021-10-14 14:24:58.629634,56
2021-10-14 14:24:58.854751,68
2021-10-14 14:24:58.854772,98
2021-10-14 14:24:58.854782,112
2021-10-14 14:24:58.854791,127
2021-10-14 14:24:58.854799,159
2021-10-14 14:24:58.854808,196
2021-10-14 14:24:58.854816,223
2021-10-14 14:24:58.854825,245
2021-10-14 14:24:58.854833,277
2021-10-14 14:24:58.854842,311
2021-10-14 14:24:58.854850,336
2021-10-14 14:24:58.854858,355
2021-10-14 14:24:58.854867,360
2021-10-14 14:24:58.854875,353
2021-10-14 14:24:58.854884,345
2021-10-14 14:24:58.854892,331
2021-10-14 14:24:58.854901,296
2021-10-14 14:24:58.854909,230
2021-10-14 14:24:58.854918,137
2021-10-14 14:24:58.854926,53
2021-10-14 14:24:58.854935,-17
2021-10-14 14:24:58.854943,-83
2021-10-14 14:24:58.854951,-139
2021-10-14 14:24:58.854960,-176
2021-10-14 14:24:58.854968,-196
2021-10-14 14:24:58.854977,-206
2021-10-14 14:24:58.854985,-213
2021-10-14 14:24:58.854993,-208
2021-10-14 14:24:58.855002,-196
2021-10-14 14:24:58.855010,-184
2021-10-14 14:24:59.124406,-174
2021-10-14 14:24:59.124428,-166
2021-10-14 14:24:59.124437,-157
2021-10-14 14:24:59.124446,-147
2021-10-14 14:24:59.124454,-139
2021-10-14 14:24:59.124463,-139
2021-10-14 14:24:59.124471,-144
2021-10-14 14:24:59.124480,-147
2021-10-14 14:24:59.124488,-137
2021-10-14 14:24:59.124496,-130
2021-10-14 14:24:59.124505,-132
2021-10-14 14:24:59.124514,-137
2021-10-14 14:24:59.124522,-144
2021-10-14 14:24:59.124531,-142
2021-10-14 14:24:59.124539,-134
2021-10-14 14:24:59.124547,-130
2021-10-14 14:24:59.124556,-130
2021-10-14 14:24:59.124564,-125
2021-10-14 14:24:59.124573,-125
2021-10-14 14:24:59.124581,-122
2021-10-14 14:24:59.124589,-122
2021-10-14 14:24:59.124597,-122
2021-10-14 14:24:59.124606,-115
2021-10-14 14:24:59.124614,-80
2021-10-14 14:24:59.124622,-46
2021-10-14 14:24:59.124631,-51
2021-10-14 14:24:59.124639,-53
2021-10-14 14:24:59.124648,-51
2021-10-14 14:24:59.124656,-71
2021-10-14 14:24:59.124665,-85
2021-10-14 14:24:59.304856,-78
2021-10-14 14:24:59.304878,-66
2021-10-14 14:24:59.304887,-66
2021-10-14 14:24:59.304896,-76
2021-10-14 14:24:59.304905,-80
2021-10-14 14:24:59.304913,-95
2021-10-14 14:24:59.304921,-110
2021-10-14 14:24:59.304930,-68
2021-10-14 14:24:59.304938,83
2021-10-14 14:24:59.304946,399
2021-10-14 14:24:59.304955,760
2021-10-14 14:24:59.304963,738
2021-10-14 14:24:59.304971,44
2021-10-14 14:24:59.304979,-529
2021-10-14 14:24:59.304987,-230
2021-10-14 14:24:59.304995,107
2021-10-14 14:24:59.305003,-51
2021-10-14 14:24:59.305012,-93
2021-10-14 14:24:59.305020,19
2021-10-14 14:24:59.305028,0
2021-10-14 14:24:59.305037,-19
2021-10-14 14:24:59.305045,34
2021-10-14 14:24:59.305053,51
2021-10-14 14:24:59.305062,51
2021-10-14 14:24:59.305070,78
2021-10-14 14:24:59.305078,105
2021-10-14 14:24:59.305086,115
2021-10-14 14:24:59.305094,130
2021-10-14 14:24:59.305103,154
2021-10-14 14:24:59.305111,184
2021-10-14 14:24:59.574893,215
2021-10-14 14:24:59.574914,255
2021-10-14 14:24:59.574923,284
2021-10-14 14:24:59.574932,311
2021-10-14 14:24:59.574940,328
2021-10-14 14:24:59.574949,328
2021-10-14 14:24:59.574957,333
2021-10-14 14:24:59.574966,338
2021-10-14 14:24:59.574974,328
2021-10-14 14:24:59.574983,299
2021-10-14 14:24:59.574991,240
2021-10-14 14:24:59.574999,159
2021-10-14 14:24:59.575008,78
2021-10-14 14:24:59.575016,0
2021-10-14 14:24:59.575025,-73
2021-10-14 14:24:59.575033,-134
2021-10-14 14:24:59.575041,-166
2021-10-14 14:24:59.575050,-186
2021-10-14 14:24:59.575058,-211
2021-10-14 14:24:59.575066,-218
2021-10-14 14:24:59.575075,-206
2021-10-14 14:24:59.575083,-201
2021-10-14 14:24:59.575091,-206
2021-10-14 14:24:59.575100,-198
2021-10-14 14:24:59.575108,-181
2021-10-14 14:24:59.575116,-176
2021-10-14 14:24:59.575125,-181
2021-10-14 14:24:59.575133,-176
2021-10-14 14:24:59.575141,-171
2021-10-14 14:24:59.575150,-174
2021-10-14 14:24:59.754750,-176
2021-10-14 14:24:59.754770,-164
2021-10-14 14:24:59.754780,-157
2021-10-14 14:24:59.754789,-169
2021-10-14 14:24:59.754797,-186
2021-10-14 14:24:59.754806,-181
2021-10-14 14:24:59.754814,-169
2021-10-14 14:24:59.754823,-161
2021-10-14 14:24:59.754831,-157
2021-10-14 14:24:59.754840,-152
2021-10-14 14:24:59.754848,-159
2021-10-14 14:24:59.754857,-171
2021-10-14 14:24:59.754865,-169
2021-10-14 14:24:59.754874,-164
2021-10-14 14:24:59.754882,-157
2021-10-14 14:24:59.754891,-134
2021-10-14 14:24:59.754899,-107
2021-10-14 14:24:59.754908,-93
2021-10-14 14:24:59.754916,-83
2021-10-14 14:24:59.754925,-90
2021-10-14 14:24:59.754933,-112
2021-10-14 14:24:59.754942,-130
2021-10-14 14:24:59.754950,-122
2021-10-14 14:24:59.754958,-112
2021-10-14 14:24:59.754967,-105
2021-10-14 14:24:59.754975,-95
2021-10-14 14:24:59.754983,-90
2021-10-14 14:24:59.754991,-100
2021-10-14 14:24:59.755000,-98
2021-10-14 14:24:59.755008,-61
2021-10-14 14:25:00.024880,51
2021-10-14 14:25:00.024903,323
2021-10-14 14:25:00.024913,687
2021-10-14 14:25:00.024922,787
2021-10-14 14:25:00.024930,225
2021-10-14 14:25:00.024939,-449
2021-10-14 14:25:00.024947,-282
2021-10-14 14:25:00.024956,147
2021-10-14 14:25:00.024964,49
2021-10-14 14:25:00.024973,-63
2021-10-14 14:25:00.024981,46
2021-10-14 14:25:00.024990,56
2021-10-14 14:25:00.024998,22
2021-10-14 14:25:00.025007,66
2021-10-14 14:25:00.025016,93
2021-10-14 14:25:00.025024,88
2021-10-14 14:25:00.025033,110
2021-10-14 14:25:00.025041,142
2021-10-14 14:25:00.025050,166
2021-10-14 14:25:00.025058,188
2021-10-14 14:25:00.025067,206
2021-10-14 14:25:00.025075,225
2021-10-14 14:25:00.025084,262
2021-10-14 14:25:00.025093,299
2021-10-14 14:25:00.025101,333
2021-10-14 14:25:00.025110,365
2021-10-14 14:25:00.025118,382
2021-10-14 14:25:00.025127,392
2021-10-14 14:25:00.025135,402
2021-10-14 14:25:00.025144,399
2021-10-14 14:25:00.338148,385
2021-10-14 14:25:00.338171,358
2021-10-14 14:25:00.338182,306
2021-10-14 14:25:00.338192,215
2021-10-14 14:25:00.338201,125
2021-10-14 14:25:00.338211,49
2021-10-14 14:25:00.338220,-19
2021-10-14 14:25:00.338230,-83
2021-10-14 14:25:00.338239,-134
2021-10-14 14:25:00.338248,-164
2021-10-14 14:25:00.338257,-169
2021-10-14 14:25:00.338266,-169
2021-10-14 14:25:00.338275,-169
2021-10-14 14:25:00.338284,-159
2021-10-14 14:25:00.338294,-157
2021-10-14 14:25:00.338303,-164
2021-10-14 14:25:00.338312,-169
2021-10-14 14:25:00.338321,-161
2021-10-14 14:25:00.338330,-147
2021-10-14 14:25:00.338339,-137
2021-10-14 14:25:00.338348,-142
2021-10-14 14:25:00.338358,-147
2021-10-14 14:25:00.338367,-139
2021-10-14 14:25:00.338379,-139
2021-10-14 14:25:00.338388,-144
2021-10-14 14:25:00.338397,-142
2021-10-14 14:25:00.338407,-142
2021-10-14 14:25:00.338416,-142
2021-10-14 14:25:00.338425,-137
2021-10-14 14:25:00.338434,-137
2021-10-14 14:25:00.519790,-137
2021-10-14 14:25:00.519810,-137
2021-10-14 14:25:00.519820,-149
2021-10-14 14:25:00.519829,-157
2021-10-14 14:25:00.519837,-152
2021-10-14 14:25:00.519846,-130
2021-10-14 14:25:00.519854,-95
2021-10-14 14:25:00.519863,-76
2021-10-14 14:25:00.519871,-83
2021-10-14 14:25:00.519879,-93
2021-10-14 14:25:00.519888,-105
2021-10-14 14:25:00.519896,-115
2021-10-14 14:25:00.519905,-117
2021-10-14 14:25:00.519913,-115
2021-10-14 14:25:00.519922,-110
2021-10-14 14:25:00.519930,-105
2021-10-14 14:25:00.519939,-98
2021-10-14 14:25:00.519947,-93
2021-10-14 14:25:00.519956,-88
2021-10-14 14:25:00.519964,-78
2021-10-14 14:25:00.519973,-7
2021-10-14 14:25:00.519981,230
2021-10-14 14:25:00.519990,606
2021-10-14 14:25:00.519998,826
2021-10-14 14:25:00.520006,422
2021-10-14 14:25:00.520015,-338
2021-10-14 14:25:00.520023,-399
2021-10-14 14:25:00.520031,58
2021-10-14 14:25:00.520040,66
2021-10-14 14:25:00.520048,-95
2021-10-14 14:25:00.699761,-2
2021-10-14 14:25:00.699782,36
2021-10-14 14:25:00.699792,-12
2021-10-14 14:25:00.699801,19
2021-10-14 14:25:00.699809,66
2021-10-14 14:25:00.699818,63
2021-10-14 14:25:00.699827,78
2021-10-14 14:25:00.699835,103
2021-10-14 14:25:00.699844,117
2021-10-14 14:25:00.699852,139
2021-10-14 14:25:00.699861,171
2021-10-14 14:25:00.699869,201
2021-10-14 14:25:00.699878,228
2021-10-14 14:25:00.699886,252
2021-10-14 14:25:00.699895,279
2021-10-14 14:25:00.699903,314
2021-10-14 14:25:00.699912,341
2021-10-14 14:25:00.699920,353
2021-10-14 14:25:00.699928,358
2021-10-14 14:25:00.699937,350
2021-10-14 14:25:00.699945,336
2021-10-14 14:25:00.699953,299
2021-10-14 14:25:00.699962,247
2021-10-14 14:25:00.699970,186
2021-10-14 14:25:00.699978,103
2021-10-14 14:25:00.699987,12
2021-10-14 14:25:00.699995,-56
2021-10-14 14:25:00.700003,-110
2021-10-14 14:25:00.700011,-152
2021-10-14 14:25:00.700020,-169
2021-10-14 14:25:00.969426,-176
2021-10-14 14:25:00.969449,-176
2021-10-14 14:25:00.969459,-174
2021-10-14 14:25:00.969467,-166
2021-10-14 14:25:00.969476,-154
2021-10-14 14:25:00.969485,-139
2021-10-14 14:25:00.969493,-139
2021-10-14 14:25:00.969502,-139
2021-10-14 14:25:00.969510,-127
2021-10-14 14:25:00.969519,-125
2021-10-14 14:25:00.969527,-130
2021-10-14 14:25:00.969536,-125
2021-10-14 14:25:00.969544,-127
2021-10-14 14:25:00.969552,-137
2021-10-14 14:25:00.969561,-137
2021-10-14 14:25:00.969570,-132
2021-10-14 14:25:00.969578,-132
2021-10-14 14:25:00.969586,-132
2021-10-14 14:25:00.969595,-139
2021-10-14 14:25:00.969603,-147
2021-10-14 14:25:00.969612,-142
2021-10-14 14:25:00.969620,-142
2021-10-14 14:25:00.969629,-147
2021-10-14 14:25:00.969637,-142
2021-10-14 14:25:00.969645,-137
2021-10-14 14:25:00.969654,-144
2021-10-14 14:25:00.969665,-144
2021-10-14 14:25:00.969674,-130
2021-10-14 14:25:00.969682,-88
2021-10-14 14:25:00.969691,-53
2021-10-14 14:25:01.150128,-56
2021-10-14 14:25:01.150151,-63
2021-10-14 14:25:01.150161,-68
2021-10-14 14:25:01.150169,-88
2021-10-14 14:25:01.150178,-100
2021-10-14 14:25:01.150186,-98
2021-10-14 14:25:01.150195,-98
2021-10-14 14:25:01.150203,-93
2021-10-14 14:25:01.150212,-83
2021-10-14 14:25:01.150220,-80
2021-10-14 14:25:01.150229,-85
2021-10-14 14:25:01.150237,-83
2021-10-14 14:25:01.150246,-26
2021-10-14 14:25:01.150254,174
2021-10-14 14:25:01.150263,527
2021-10-14 14:25:01.150271,821
2021-10-14 14:25:01.150279,606
2021-10-14 14:25:01.150295,-169
2021-10-14 14:25:01.150304,-495
2021-10-14 14:25:01.150313,-56
2021-10-14 14:25:01.150321,115
2021-10-14 14:25:01.150329,-78
2021-10-14 14:25:01.150338,-36
2021-10-14 14:25:01.150346,49
2021-10-14 14:25:01.150355,0
2021-10-14 14:25:01.150363,9
2021-10-14 14:25:01.150372,51
2021-10-14 14:25:01.150380,34
2021-10-14 14:25:01.150389,36
2021-10-14 14:25:01.150397,76
2021-10-14 14:25:01.374527,103
2021-10-14 14:25:01.374549,134
2021-10-14 14:25:01.374559,176
2021-10-14 14:25:01.374569,193
2021-10-14 14:25:01.374577,206
2021-10-14 14:25:01.374586,235
2021-10-14 14:25:01.374594,264
2021-10-14 14:25:01.374603,296
2021-10-14 14:25:01.374611,326
2021-10-14 14:25:01.374620,338
2021-10-14 14:25:01.374628,343
2021-10-14 14:25:01.374637,345
2021-10-14 14:25:01.374645,336
2021-10-14 14:25:01.374653,318
2021-10-14 14:25:01.374662,282
2021-10-14 14:25:01.374670,230
2021-10-14 14:25:01.374678,159
2021-10-14 14:25:01.374687,73
2021-10-14 14:25:01.374695,-2
2021-10-14 14:25:01.374704,-63
2021-10-14 14:25:01.374712,-112
2021-10-14 14:25:01.374721,-139
2021-10-14 14:25:01.374729,-154
2021-10-14 14:25:01.374738,-166
2021-10-14 14:25:01.374746,-171
2021-10-14 14:25:01.374755,-159
2021-10-14 14:25:01.374763,-144
2021-10-14 14:25:01.374772,-139
2021-10-14 14:25:01.374827,-134
2021-10-14 14:25:01.374843,-125
2021-10-14 14:25:01.599629,-117
2021-10-14 14:25:01.599836,-105
2021-10-14 14:25:01.599851,-95
2021-10-14 14:25:01.599858,-98
2021-10-14 14:25:01.599867,-110
2021-10-14 14:25:01.599874,-110
2021-10-14 14:25:01.599881,-100
2021-10-14 14:25:01.599888,-93
2021-10-14 14:25:01.599896,-103
2021-10-14 14:25:01.599904,-120
2021-10-14 14:25:01.599953,-132
2021-10-14 14:25:01.599965,-130
2021-10-14 14:25:01.599971,-122
2021-10-14 14:25:01.599975,-127
2021-10-14 14:25:01.599980,-137
2021-10-14 14:25:01.599984,-152
2021-10-14 14:25:01.599989,-157
2021-10-14 14:25:01.599993,-149
2021-10-14 14:25:01.599998,-142
2021-10-14 14:25:01.600002,-149
2021-10-14 14:25:01.600007,-154
2021-10-14 14:25:01.600011,-144
2021-10-14 14:25:01.600016,-107
2021-10-14 14:25:01.600020,-71
2021-10-14 14:25:01.600024,-66
2021-10-14 14:25:01.600029,-73
2021-10-14 14:25:01.600033,-83
2021-10-14 14:25:01.600038,-107
2021-10-14 14:25:01.600042,-122
2021-10-14 14:25:01.600046,-105
2021-10-14 14:25:01.869908,-88
2021-10-14 14:25:01.869931,-98
2021-10-14 14:25:01.869941,-115
2021-10-14 14:25:01.869949,-125
2021-10-14 14:25:01.869958,-127
2021-10-14 14:25:01.869967,-115
2021-10-14 14:25:01.869975,-51
2021-10-14 14:25:01.869985,152
2021-10-14 14:25:01.869993,500
2021-10-14 14:25:01.870002,767
2021-10-14 14:25:01.870010,510
2021-10-14 14:25:01.870019,-242
2021-10-14 14:25:01.870027,-505
2021-10-14 14:25:01.870036,-63
2021-10-14 14:25:01.870045,78
2021-10-14 14:25:01.870053,-103
2021-10-14 14:25:01.870061,-56
2021-10-14 14:25:01.870070,17
2021-10-14 14:25:01.870078,-34
2021-10-14 14:25:01.870086,-19
2021-10-14 14:25:01.870095,29
2021-10-14 14:25:01.870103,17
2021-10-14 14:25:01.870112,22
2021-10-14 14:25:01.870120,66
2021-10-14 14:25:01.870128,93
2021-10-14 14:25:01.870137,107
2021-10-14 14:25:01.870145,132
2021-10-14 14:25:01.870154,157
2021-10-14 14:25:01.870162,186
2021-10-14 14:25:01.870171,218
2021-10-14 14:25:02.183968,247
2021-10-14 14:25:02.183989,274
2021-10-14 14:25:02.183999,289
2021-10-14 14:25:02.184008,291
2021-10-14 14:25:02.184016,299
2021-10-14 14:25:02.184025,309
2021-10-14 14:25:02.184033,304
2021-10-14 14:25:02.184042,287
2021-10-14 14:25:02.184050,255
2021-10-14 14:25:02.184059,193
2021-10-14 14:25:02.184067,117
2021-10-14 14:25:02.184075,44
2021-10-14 14:25:02.184084,-24
2021-10-14 14:25:02.184092,-88
2021-10-14 14:25:02.184101,-144
2021-10-14 14:25:02.184109,-186
2021-10-14 14:25:02.184118,-193
2021-10-14 14:25:02.184126,-188
2021-10-14 14:25:02.184134,-188
2021-10-14 14:25:02.184143,-191
2021-10-14 14:25:02.184151,-193
2021-10-14 14:25:02.184159,-184
2021-10-14 14:25:02.184167,-166
2021-10-14 14:25:02.184176,-149
2021-10-14 14:25:02.184184,-139
2021-10-14 14:25:02.184192,-137
2021-10-14 14:25:02.184201,-137
2021-10-14 14:25:02.184209,-132
2021-10-14 14:25:02.184218,-125
2021-10-14 14:25:02.184226,-117
2021-10-14 14:25:02.363461,-115
2021-10-14 14:25:02.363481,-117
2021-10-14 14:25:02.363491,-130
2021-10-14 14:25:02.363500,-137
2021-10-14 14:25:02.363509,-132
2021-10-14 14:25:02.363517,-122
2021-10-14 14:25:02.363526,-125
2021-10-14 14:25:02.363534,-144
2021-10-14 14:25:02.363543,-166
2021-10-14 14:25:02.363551,-166
2021-10-14 14:25:02.363560,-154
2021-10-14 14:25:02.363568,-157
2021-10-14 14:25:02.363577,-149
2021-10-14 14:25:02.363585,-132
2021-10-14 14:25:02.363594,-127
2021-10-14 14:25:02.363602,-134
2021-10-14 14:25:02.363610,-139
2021-10-14 14:25:02.363621,-120
2021-10-14 14:25:02.363630,-80
2021-10-14 14:25:02.363638,-58
2021-10-14 14:25:02.363647,-73
2021-10-14 14:25:02.363656,-90
2021-10-14 14:25:02.363664,-98
2021-10-14 14:25:02.363672,-105
2021-10-14 14:25:02.363681,-110
2021-10-14 14:25:02.363689,-115
2021-10-14 14:25:02.363698,-117
2021-10-14 14:25:02.363706,-110
2021-10-14 14:25:02.363714,-100
2021-10-14 14:25:02.363723,-93
2021-10-14 14:25:02.544548,-90
2021-10-14 14:25:02.544572,-78
2021-10-14 14:25:02.544581,24
2021-10-14 14:25:02.544590,314
2021-10-14 14:25:02.544599,696
2021-10-14 14:25:02.544608,807
2021-10-14 14:25:02.544616,247
2021-10-14 14:25:02.544625,-468
2021-10-14 14:25:02.544633,-358
2021-10-14 14:25:02.544642,68
2021-10-14 14:25:02.544651,-2
2021-10-14 14:25:02.544659,-105
2021-10-14 14:25:02.544668,0
2021-10-14 14:25:02.544676,0
2021-10-14 14:25:02.544685,-44
2021-10-14 14:25:02.544693,-2
2021-10-14 14:25:02.544702,31
2021-10-14 14:25:02.544710,31
2021-10-14 14:25:02.544719,49
2021-10-14 14:25:02.544727,76
2021-10-14 14:25:02.544736,98
2021-10-14 14:25:02.544744,127
2021-10-14 14:25:02.544753,149
2021-10-14 14:25:02.544761,164
2021-10-14 14:25:02.544769,188
2021-10-14 14:25:02.544778,220
2021-10-14 14:25:02.544786,252
2021-10-14 14:25:02.544794,277
2021-10-14 14:25:02.544803,299
2021-10-14 14:25:02.544811,316
2021-10-14 14:25:02.769930,318
2021-10-14 14:25:02.769953,318
2021-10-14 14:25:02.769963,316
2021-10-14 14:25:02.769972,296
2021-10-14 14:25:02.769980,257
2021-10-14 14:25:02.769989,196
2021-10-14 14:25:02.769997,107
2021-10-14 14:25:02.770006,19
2021-10-14 14:25:02.770014,-49
2021-10-14 14:25:02.770023,-112
2021-10-14 14:25:02.770031,-154
2021-10-14 14:25:02.770040,-171
2021-10-14 14:25:02.770048,-196
2021-10-14 14:25:02.770056,-223
2021-10-14 14:25:02.770065,-225
2021-10-14 14:25:02.770073,-206
2021-10-14 14:25:02.770082,-196
2021-10-14 14:25:02.770090,-191
2021-10-14 14:25:02.770099,-176
2021-10-14 14:25:02.770107,-161
2021-10-14 14:25:02.770115,-152
2021-10-14 14:25:02.770124,-142
2021-10-14 14:25:02.770132,-134
2021-10-14 14:25:02.770140,-134
2021-10-14 14:25:02.770148,-137
2021-10-14 14:25:02.770157,-144
2021-10-14 14:25:02.770165,-157
2021-10-14 14:25:02.770173,-161
2021-10-14 14:25:02.770181,-154
2021-10-14 14:25:02.770190,-152
2021-10-14 14:25:02.994548,-154
2021-10-14 14:25:02.994571,-157
2021-10-14 14:25:02.994581,-159
2021-10-14 14:25:02.994589,-164
2021-10-14 14:25:02.994598,-164
2021-10-14 14:25:02.994606,-164
2021-10-14 14:25:02.994615,-171
2021-10-14 14:25:02.994623,-164
2021-10-14 14:25:02.994632,-149
2021-10-14 14:25:02.994640,-161
2021-10-14 14:25:02.994649,-179
2021-10-14 14:25:02.994658,-176
2021-10-14 14:25:02.994666,-164
2021-10-14 14:25:02.994675,-125
2021-10-14 14:25:02.994684,-88
2021-10-14 14:25:02.994693,-88
2021-10-14 14:25:02.994702,-90
2021-10-14 14:25:02.994710,-98
2021-10-14 14:25:02.994719,-120
2021-10-14 14:25:02.994727,-125
2021-10-14 14:25:02.994736,-110
2021-10-14 14:25:02.994744,-100
2021-10-14 14:25:02.994752,-95
2021-10-14 14:25:02.994761,-95
2021-10-14 14:25:02.994769,-93
2021-10-14 14:25:02.994778,-90
2021-10-14 14:25:02.994786,-80
2021-10-14 14:25:02.994795,-17
2021-10-14 14:25:02.994803,206
2021-10-14 14:25:02.994812,576
2021-10-14 14:25:03.219859,804
2021-10-14 14:25:03.219880,412
2021-10-14 14:25:03.219890,-380
2021-10-14 14:25:03.219899,-483
2021-10-14 14:25:03.219907,19
2021-10-14 14:25:03.219916,61
2021-10-14 14:25:03.219924,-125
2021-10-14 14:25:03.219933,-29
2021-10-14 14:25:03.219941,31
2021-10-14 14:25:03.219950,-26
2021-10-14 14:25:03.219958,-7
2021-10-14 14:25:03.219967,31
2021-10-14 14:25:03.219975,34
2021-10-14 14:25:03.219984,56
2021-10-14 14:25:03.219992,88
2021-10-14 14:25:03.220000,105
2021-10-14 14:25:03.220009,122
2021-10-14 14:25:03.220017,147
2021-10-14 14:25:03.220026,176
2021-10-14 14:25:03.220034,196
2021-10-14 14:25:03.220042,218
2021-10-14 14:25:03.220051,257
2021-10-14 14:25:03.220059,296
2021-10-14 14:25:03.220068,311
2021-10-14 14:25:03.220076,323
2021-10-14 14:25:03.220085,343
2021-10-14 14:25:03.220093,350
2021-10-14 14:25:03.220101,338
2021-10-14 14:25:03.220110,316
2021-10-14 14:25:03.220118,272
2021-10-14 14:25:03.444584,198
2021-10-14 14:25:03.444606,120
2021-10-14 14:25:03.444616,36
2021-10-14 14:25:03.444625,-49
2021-10-14 14:25:03.444633,-122
2021-10-14 14:25:03.444642,-169
2021-10-14 14:25:03.444650,-186
2021-10-14 14:25:03.444658,-193
2021-10-14 14:25:03.444667,-201
2021-10-14 14:25:03.444675,-206
2021-10-14 14:25:03.444684,-203
2021-10-14 14:25:03.444692,-193
2021-10-14 14:25:03.444701,-176
2021-10-14 14:25:03.444709,-164
2021-10-14 14:25:03.444717,-157
2021-10-14 14:25:03.444726,-152
2021-10-14 14:25:03.444734,-147
2021-10-14 14:25:03.444743,-142
2021-10-14 14:25:03.444751,-139
2021-10-14 14:25:03.444759,-137
2021-10-14 14:25:03.444768,-130
2021-10-14 14:25:03.444776,-120
2021-10-14 14:25:03.444785,-125
2021-10-14 14:25:03.444793,-137
2021-10-14 14:25:03.444801,-139
2021-10-14 14:25:03.444809,-137
2021-10-14 14:25:03.444818,-139
2021-10-14 14:25:03.444826,-147
2021-10-14 14:25:03.444835,-147
2021-10-14 14:25:03.444843,-139
2021-10-14 14:25:03.759816,-137
2021-10-14 14:25:03.759837,-144
2021-10-14 14:25:03.759847,-152
2021-10-14 14:25:03.759856,-159
2021-10-14 14:25:03.759864,-169
2021-10-14 14:25:03.759873,-171
2021-10-14 14:25:03.759881,-161
2021-10-14 14:25:03.759890,-132
2021-10-14 14:25:03.759898,-95
2021-10-14 14:25:03.759906,-85
2021-10-14 14:25:03.759915,-90
2021-10-14 14:25:03.759923,-90
2021-10-14 14:25:03.759932,-103
2021-10-14 14:25:03.759940,-117
2021-10-14 14:25:03.759948,-112
2021-10-14 14:25:03.759957,-107
2021-10-14 14:25:03.759965,-110
2021-10-14 14:25:03.759974,-105
2021-10-14 14:25:03.759982,-95
2021-10-14 14:25:03.759991,-88
2021-10-14 14:25:03.759999,-85
2021-10-14 14:25:03.760007,-71
2021-10-14 14:25:03.760016,49
2021-10-14 14:25:03.760024,350
2021-10-14 14:25:03.760032,726
2021-10-14 14:25:03.760041,782
2021-10-14 14:25:03.760049,154
2021-10-14 14:25:03.760057,-502
2021-10-14 14:25:03.760066,-274
2021-10-14 14:25:03.760074,122
2021-10-14 14:25:03.939975,-17
2021-10-14 14:25:03.939996,-100
2021-10-14 14:25:03.940005,19
2021-10-14 14:25:03.940014,2
2021-10-14 14:25:03.940023,-41
2021-10-14 14:25:03.940031,12
2021-10-14 14:25:03.940039,49
2021-10-14 14:25:03.940048,49
2021-10-14 14:25:03.940056,66
2021-10-14 14:25:03.940065,88
2021-10-14 14:25:03.940074,107
2021-10-14 14:25:03.940082,134
2021-10-14 14:25:03.940091,159
2021-10-14 14:25:03.940099,191
2021-10-14 14:25:03.940107,220
2021-10-14 14:25:03.940116,245
2021-10-14 14:25:03.940124,274
2021-10-14 14:25:03.940132,309
2021-10-14 14:25:03.940141,336
2021-10-14 14:25:03.940149,350
2021-10-14 14:25:03.940157,343
2021-10-14 14:25:03.940165,326
2021-10-14 14:25:03.940174,316
2021-10-14 14:25:03.940182,299
2021-10-14 14:25:03.940190,250
2021-10-14 14:25:03.940199,174
2021-10-14 14:25:03.940207,78
2021-10-14 14:25:03.940215,-9
2021-10-14 14:25:03.940224,-73
2021-10-14 14:25:03.940232,-120
2021-10-14 14:25:04.209822,-157
2021-10-14 14:25:04.209843,-174
2021-10-14 14:25:04.209853,-184
2021-10-14 14:25:04.209862,-186
2021-10-14 14:25:04.209870,-184
2021-10-14 14:25:04.209879,-179
2021-10-14 14:25:04.209888,-174
2021-10-14 14:25:04.209896,-171
2021-10-14 14:25:04.209905,-184
2021-10-14 14:25:04.209913,-186
2021-10-14 14:25:04.209922,-166
2021-10-14 14:25:04.209930,-154
2021-10-14 14:25:04.209939,-154
2021-10-14 14:25:04.209947,-157
2021-10-14 14:25:04.209955,-161
2021-10-14 14:25:04.209964,-166
2021-10-14 14:25:04.209972,-169
2021-10-14 14:25:04.209981,-169
2021-10-14 14:25:04.209989,-169
2021-10-14 14:25:04.209998,-179
2021-10-14 14:25:04.210006,-181
2021-10-14 14:25:04.210015,-166
2021-10-14 14:25:04.210023,-154
2021-10-14 14:25:04.210031,-154
2021-10-14 14:25:04.210040,-152
2021-10-14 14:25:04.210048,-147
2021-10-14 14:25:04.210057,-147
2021-10-14 14:25:04.210065,-142
2021-10-14 14:25:04.210073,-139
2021-10-14 14:25:04.210082,-132
2021-10-14 14:25:04.478608,-122
2021-10-14 14:25:04.478630,-134
2021-10-14 14:25:04.478639,-159
2021-10-14 14:25:04.478648,-157
2021-10-14 14:25:04.478657,-122
2021-10-14 14:25:04.478665,-83
2021-10-14 14:25:04.478674,-56
2021-10-14 14:25:04.478683,-51
2021-10-14 14:25:04.478691,-66
2021-10-14 14:25:04.478700,-85
2021-10-14 14:25:04.478708,-93
2021-10-14 14:25:04.478717,-98
2021-10-14 14:25:04.478725,-93
2021-10-14 14:25:04.478734,-93
2021-10-14 14:25:04.478742,-100
2021-10-14 14:25:04.478750,-95
2021-10-14 14:25:04.478759,-83
2021-10-14 14:25:04.478767,-78
2021-10-14 14:25:04.478776,-56
2021-10-14 14:25:04.478784,73
2021-10-14 14:25:04.478793,387
2021-10-14 14:25:04.478801,760
2021-10-14 14:25:04.478810,785
2021-10-14 14:25:04.478818,137
2021-10-14 14:25:04.478827,-480
2021-10-14 14:25:04.478835,-233
2021-10-14 14:25:04.478844,122
2021-10-14 14:25:04.478852,-31
2021-10-14 14:25:04.478899,-98
2021-10-14 14:25:04.478908,24
2021-10-14 14:25:04.659463,14
2021-10-14 14:25:04.659483,-12
2021-10-14 14:25:04.659493,39
2021-10-14 14:25:04.659502,63
2021-10-14 14:25:04.659510,61
2021-10-14 14:25:04.659519,83
2021-10-14 14:25:04.659527,103
2021-10-14 14:25:04.659536,120
2021-10-14 14:25:04.659544,149
2021-10-14 14:25:04.659553,171
2021-10-14 14:25:04.659561,188
2021-10-14 14:25:04.659570,218
2021-10-14 14:25:04.659578,245
2021-10-14 14:25:04.659587,269
2021-10-14 14:25:04.659603,299
2021-10-14 14:25:04.659611,321
2021-10-14 14:25:04.659620,333
2021-10-14 14:25:04.659629,336
2021-10-14 14:25:04.659637,323
2021-10-14 14:25:04.659646,306
2021-10-14 14:25:04.659654,287
2021-10-14 14:25:04.659663,240
2021-10-14 14:25:04.659671,166
2021-10-14 14:25:04.659680,88
2021-10-14 14:25:04.659688,17
2021-10-14 14:25:04.659697,-51
2021-10-14 14:25:04.659705,-110
2021-10-14 14:25:04.659714,-147
2021-10-14 14:25:04.659722,-166
2021-10-14 14:25:04.659730,-179
2021-10-14 14:25:04.839967,-184
2021-10-14 14:25:04.839990,-184
2021-10-14 14:25:04.839999,-176
2021-10-14 14:25:04.840008,-166
2021-10-14 14:25:04.840017,-154
2021-10-14 14:25:04.840026,-152
2021-10-14 14:25:04.840034,-166
2021-10-14 14:25:04.840043,-179
2021-10-14 14:25:04.840051,-181
2021-10-14 14:25:04.840060,-179
2021-10-14 14:25:04.840068,-169
2021-10-14 14:25:04.840076,-166
2021-10-14 14:25:04.840085,-171
2021-10-14 14:25:04.840093,-169
2021-10-14 14:25:04.840102,-164
2021-10-14 14:25:04.840110,-164
2021-10-14 14:25:04.840119,-164
2021-10-14 14:25:04.840127,-166
2021-10-14 14:25:04.840135,-166
2021-10-14 14:25:04.840144,-159
2021-10-14 14:25:04.840152,-154
2021-10-14 14:25:04.840160,-149
2021-10-14 14:25:04.840169,-147
2021-10-14 14:25:04.840177,-144
2021-10-14 14:25:04.840186,-142
2021-10-14 14:25:04.840194,-137
2021-10-14 14:25:04.840203,-127
2021-10-14 14:25:04.840211,-122
2021-10-14 14:25:04.840219,-120
2021-10-14 14:25:04.840228,-117
2021-10-14 14:25:05.154300,-107
2021-10-14 14:25:05.154321,-98
2021-10-14 14:25:05.154331,-93
2021-10-14 14:25:05.154340,-103
2021-10-14 14:25:05.154348,-112
2021-10-14 14:25:05.154357,-107
2021-10-14 14:25:05.154365,-73
2021-10-14 14:25:05.154374,-29
2021-10-14 14:25:05.154382,-19
2021-10-14 14:25:05.154391,-31
2021-10-14 14:25:05.154399,-41
2021-10-14 14:25:05.154408,-58
2021-10-14 14:25:05.154416,-73
2021-10-14 14:25:05.154425,-73
2021-10-14 14:25:05.154433,-73
2021-10-14 14:25:05.154441,-73
2021-10-14 14:25:05.154452,-68
2021-10-14 14:25:05.154460,-63
2021-10-14 14:25:05.154469,-58
2021-10-14 14:25:05.154485,-46
2021-10-14 14:25:05.154494,17
2021-10-14 14:25:05.154502,235
2021-10-14 14:25:05.154511,606
2021-10-14 14:25:05.154520,868
2021-10-14 14:25:05.154528,559
2021-10-14 14:25:05.154536,-211
2021-10-14 14:25:05.154545,-399
2021-10-14 14:25:05.154553,44
2021-10-14 14:25:05.154562,110
2021-10-14 14:25:05.154570,-73
2021-10-14 14:25:05.289963,4
2021-10-14 14:25:05.289985,71
2021-10-14 14:25:05.289995,12
2021-10-14 14:25:05.290004,22
2021-10-14 14:25:05.290012,66
2021-10-14 14:25:05.290021,66
2021-10-14 14:25:05.290029,78
2021-10-14 14:25:05.290038,110
2021-10-14 14:25:05.290046,134
2021-10-14 14:25:05.290055,147
2021-10-14 14:25:05.290064,161
2021-10-14 14:25:05.290072,186
2021-10-14 14:25:05.290080,211
2021-10-14 14:25:05.290089,230
2021-10-14 14:25:05.290097,245
2021-10-14 14:25:05.290105,267
2021-10-14 14:25:05.290114,289
2021-10-14 14:25:05.290122,294
2021-10-14 14:25:05.290131,304
2021-10-14 14:25:05.290139,321
2021-10-14 14:25:05.290148,318
2021-10-14 14:25:05.290156,291
2021-10-14 14:25:05.290164,262
2021-10-14 14:25:05.290173,220
2021-10-14 14:25:05.290181,144
2021-10-14 14:25:05.290190,56
2021-10-14 14:25:05.290198,-12
2021-10-14 14:25:05.290206,-78
2021-10-14 14:25:05.290215,-139
2021-10-14 14:25:05.290223,-179
2021-10-14 14:25:05.515708,-193
2021-10-14 14:25:05.515730,-203
2021-10-14 14:25:05.515740,-218
2021-10-14 14:25:05.515749,-230
2021-10-14 14:25:05.515769,-223
2021-10-14 14:25:05.515780,-203
2021-10-14 14:25:05.515812,-188
2021-10-14 14:25:05.515839,-181
2021-10-14 14:25:05.515848,-174
2021-10-14 14:25:05.515856,-176
2021-10-14 14:25:05.515865,-181
2021-10-14 14:25:05.515873,-169
2021-10-14 14:25:05.515882,-161
2021-10-14 14:25:05.515890,-159
2021-10-14 14:25:05.515898,-157
2021-10-14 14:25:05.515906,-161
2021-10-14 14:25:05.515915,-161
2021-10-14 14:25:05.515923,-154
2021-10-14 14:25:05.515932,-157
2021-10-14 14:25:05.515940,-161
2021-10-14 14:25:05.515949,-159
2021-10-14 14:25:05.515957,-161
2021-10-14 14:25:05.515965,-159
2021-10-14 14:25:05.515974,-144
2021-10-14 14:25:05.515982,-134
2021-10-14 14:25:05.515990,-137
2021-10-14 14:25:05.515999,-134
2021-10-14 14:25:05.516007,-130
2021-10-14 14:25:05.516016,-122
2021-10-14 14:25:05.516024,-115
2021-10-14 14:25:05.784987,-110
2021-10-14 14:25:05.785008,-105
2021-10-14 14:25:05.785018,-107
2021-10-14 14:25:05.785027,-112
2021-10-14 14:25:05.785035,-110
2021-10-14 14:25:05.785044,-105
2021-10-14 14:25:05.785052,-107
2021-10-14 14:25:05.785061,-85
2021-10-14 14:25:05.785069,-49
2021-10-14 14:25:05.785077,-29
2021-10-14 14:25:05.785086,-26
2021-10-14 14:25:05.785094,-29
2021-10-14 14:25:05.785103,-41
2021-10-14 14:25:05.785111,-51
2021-10-14 14:25:05.785120,-66
2021-10-14 14:25:05.785128,-71
2021-10-14 14:25:05.785136,-56
2021-10-14 14:25:05.785145,-41
2021-10-14 14:25:05.785153,-41
2021-10-14 14:25:05.785162,-46
2021-10-14 14:25:05.785170,-66
2021-10-14 14:25:05.785179,-51
2021-10-14 14:25:05.785187,100
2021-10-14 14:25:05.785196,417
2021-10-14 14:25:05.785204,758
2021-10-14 14:25:05.785213,760
2021-10-14 14:25:05.785221,100
2021-10-14 14:25:05.785230,-525
2021-10-14 14:25:05.785238,-245
2021-10-14 14:25:05.785247,154
2021-10-14 14:25:06.053902,9
2021-10-14 14:25:06.053925,-63
2021-10-14 14:25:06.053935,46
2021-10-14 14:25:06.053944,29
2021-10-14 14:25:06.053952,4
2021-10-14 14:25:06.053961,61
2021-10-14 14:25:06.053969,76
2021-10-14 14:25:06.053978,66
2021-10-14 14:25:06.053987,88
2021-10-14 14:25:06.053995,110
2021-10-14 14:25:06.054004,125
2021-10-14 14:25:06.054012,154
2021-10-14 14:25:06.054021,186
2021-10-14 14:25:06.054030,206
2021-10-14 14:25:06.054039,223
2021-10-14 14:25:06.054047,252
2021-10-14 14:25:06.054056,289
2021-10-14 14:25:06.054064,318
2021-10-14 14:25:06.054073,343
2021-10-14 14:25:06.054081,350
2021-10-14 14:25:06.054089,341
2021-10-14 14:25:06.054098,326
2021-10-14 14:25:06.054106,309
2021-10-14 14:25:06.054115,284
2021-10-14 14:25:06.054123,245
2021-10-14 14:25:06.054132,164
2021-10-14 14:25:06.054140,61
2021-10-14 14:25:06.054148,-26
2021-10-14 14:25:06.054157,-95
2021-10-14 14:25:06.054166,-154
2021-10-14 14:25:06.279359,-191
2021-10-14 14:25:06.279381,-218
2021-10-14 14:25:06.279391,-233
2021-10-14 14:25:06.279399,-230
2021-10-14 14:25:06.279408,-223
2021-10-14 14:25:06.279417,-218
2021-10-14 14:25:06.279425,-206
2021-10-14 14:25:06.279434,-198
2021-10-14 14:25:06.279442,-193
2021-10-14 14:25:06.279451,-181
2021-10-14 14:25:06.279459,-169
2021-10-14 14:25:06.279467,-159
2021-10-14 14:25:06.279476,-152
2021-10-14 14:25:06.279484,-152
2021-10-14 14:25:06.279493,-154
2021-10-14 14:25:06.279501,-147
2021-10-14 14:25:06.279510,-139
2021-10-14 14:25:06.279518,-139
2021-10-14 14:25:06.279527,-139
2021-10-14 14:25:06.279535,-139
2021-10-14 14:25:06.279544,-139
2021-10-14 14:25:06.279552,-139
2021-10-14 14:25:06.279560,-134
2021-10-14 14:25:06.279569,-127
2021-10-14 14:25:06.279577,-139
2021-10-14 14:25:06.279585,-159
2021-10-14 14:25:06.279594,-157
2021-10-14 14:25:06.279602,-139
2021-10-14 14:25:06.279611,-134
2021-10-14 14:25:06.279619,-127
2021-10-14 14:25:06.503589,-122
2021-10-14 14:25:06.503611,-122
2021-10-14 14:25:06.503621,-117
2021-10-14 14:25:06.503629,-112
2021-10-14 14:25:06.503638,-112
2021-10-14 14:25:06.503646,-115
2021-10-14 14:25:06.503655,-115
2021-10-14 14:25:06.503663,-100
2021-10-14 14:25:06.503671,-63
2021-10-14 14:25:06.503680,-39
2021-10-14 14:25:06.503688,-44
2021-10-14 14:25:06.503696,-51
2021-10-14 14:25:06.503705,-66
2021-10-14 14:25:06.503713,-90
2021-10-14 14:25:06.503721,-98
2021-10-14 14:25:06.503730,-88
2021-10-14 14:25:06.503738,-80
2021-10-14 14:25:06.503746,-76
2021-10-14 14:25:06.503755,-73
2021-10-14 14:25:06.503763,-71
2021-10-14 14:25:06.503771,-66
2021-10-14 14:25:06.503779,-29
2021-10-14 14:25:06.503788,122
2021-10-14 14:25:06.503796,449
2021-10-14 14:25:06.503805,785
2021-10-14 14:25:06.503813,696
2021-10-14 14:25:06.503821,-26
2021-10-14 14:25:06.503830,-517
2021-10-14 14:25:06.503838,-144
2021-10-14 14:25:06.503846,144
2021-10-14 14:25:06.684464,-49
2021-10-14 14:25:06.684485,-63
2021-10-14 14:25:06.684495,46
2021-10-14 14:25:06.684504,7
2021-10-14 14:25:06.684513,-2
2021-10-14 14:25:06.684521,44
2021-10-14 14:25:06.684530,44
2021-10-14 14:25:06.684539,49
2021-10-14 14:25:06.684547,88
2021-10-14 14:25:06.684555,107
2021-10-14 14:25:06.684564,125
2021-10-14 14:25:06.684572,147
2021-10-14 14:25:06.684581,161
2021-10-14 14:25:06.684589,188
2021-10-14 14:25:06.684598,230
2021-10-14 14:25:06.684606,260
2021-10-14 14:25:06.684615,282
2021-10-14 14:25:06.684623,299
2021-10-14 14:25:06.684632,311
2021-10-14 14:25:06.684640,328
2021-10-14 14:25:06.684648,333
2021-10-14 14:25:06.684657,314
2021-10-14 14:25:06.684665,287
2021-10-14 14:25:06.684674,252
2021-10-14 14:25:06.684682,198
2021-10-14 14:25:06.684690,132
2021-10-14 14:25:06.684699,53
2021-10-14 14:25:06.684707,-34
2021-10-14 14:25:06.684716,-103
2021-10-14 14:25:06.684724,-152
2021-10-14 14:25:07.000118,-206
2021-10-14 14:25:07.000143,-242
2021-10-14 14:25:07.000153,-238
2021-10-14 14:25:07.000162,-228
2021-10-14 14:25:07.000170,-225
2021-10-14 14:25:07.000179,-228
2021-10-14 14:25:07.000187,-223
2021-10-14 14:25:07.000196,-198
2021-10-14 14:25:07.000204,-181
2021-10-14 14:25:07.000221,-174
2021-10-14 14:25:07.000230,-164
2021-10-14 14:25:07.000238,-161
2021-10-14 14:25:07.000247,-161
2021-10-14 14:25:07.000255,-142
2021-10-14 14:25:07.000264,-137
2021-10-14 14:25:07.000271,-149
2021-10-14 14:25:07.000279,-142
2021-10-14 14:25:07.000288,-127
2021-10-14 14:25:07.000296,-125
2021-10-14 14:25:07.000305,-127
2021-10-14 14:25:07.000313,-120
2021-10-14 14:25:07.000321,-107
2021-10-14 14:25:07.000329,-107
2021-10-14 14:25:07.000337,-117
2021-10-14 14:25:07.000346,-110
2021-10-14 14:25:07.000354,-100
2021-10-14 14:25:07.000362,-107
2021-10-14 14:25:07.000371,-98
2021-10-14 14:25:07.000379,-78
2021-10-14 14:25:07.000387,-85
2021-10-14 14:25:07.134938,-93
2021-10-14 14:25:07.134960,-78
2021-10-14 14:25:07.134970,-78
2021-10-14 14:25:07.134979,-98
2021-10-14 14:25:07.134988,-100
2021-10-14 14:25:07.134996,-78
2021-10-14 14:25:07.135005,-39
2021-10-14 14:25:07.135013,2
2021-10-14 14:25:07.135022,9
2021-10-14 14:25:07.135030,-9
2021-10-14 14:25:07.135039,-24
2021-10-14 14:25:07.135047,-41
2021-10-14 14:25:07.135056,-51
2021-10-14 14:25:07.135064,-49
2021-10-14 14:25:07.135073,-44
2021-10-14 14:25:07.135081,-34
2021-10-14 14:25:07.135090,-31
2021-10-14 14:25:07.135098,-39
2021-10-14 14:25:07.135106,-26
2021-10-14 14:25:07.135138,4
2021-10-14 14:25:07.135147,71
2021-10-14 14:25:07.135156,289
2021-10-14 14:25:07.135165,642
2021-10-14 14:25:07.135174,799
2021-10-14 14:25:07.135183,358
2021-10-14 14:25:07.135191,-338
2021-10-14 14:25:07.135200,-341
2021-10-14 14:25:07.135208,95
2021-10-14 14:25:07.135217,83
2021-10-14 14:25:07.135225,-53
2021-10-14 14:25:07.404524,51
2021-10-14 14:25:07.404546,85
2021-10-14 14:25:07.404556,17
2021-10-14 14:25:07.404565,34
2021-10-14 14:25:07.404574,61
2021-10-14 14:25:07.404582,46
2021-10-14 14:25:07.404591,58
2021-10-14 14:25:07.404599,93
2021-10-14 14:25:07.404608,112
2021-10-14 14:25:07.404616,112
2021-10-14 14:25:07.404625,125
2021-10-14 14:25:07.404633,157
2021-10-14 14:25:07.404641,176
2021-10-14 14:25:07.404650,191
2021-10-14 14:25:07.404658,233
2021-10-14 14:25:07.404667,260
2021-10-14 14:25:07.404675,260
2021-10-14 14:25:07.404684,279
2021-10-14 14:25:07.404692,301
2021-10-14 14:25:07.404701,294
2021-10-14 14:25:07.404709,262
2021-10-14 14:25:07.404718,242
2021-10-14 14:25:07.404726,220
2021-10-14 14:25:07.404735,152
2021-10-14 14:25:07.404743,66
2021-10-14 14:25:07.404752,4
2021-10-14 14:25:07.404760,-63
2021-10-14 14:25:07.404769,-132
2021-10-14 14:25:07.404777,-164
2021-10-14 14:25:07.404786,-171
2021-10-14 14:25:07.629514,-181
2021-10-14 14:25:07.629535,-186
2021-10-14 14:25:07.629544,-188
2021-10-14 14:25:07.629553,-203
2021-10-14 14:25:07.629561,-203
2021-10-14 14:25:07.629570,-191
2021-10-14 14:25:07.629578,-186
2021-10-14 14:25:07.629587,-166
2021-10-14 14:25:07.629595,-144
2021-10-14 14:25:07.629604,-152
2021-10-14 14:25:07.629612,-159
2021-10-14 14:25:07.629621,-137
2021-10-14 14:25:07.629629,-127
2021-10-14 14:25:07.629638,-132
2021-10-14 14:25:07.629646,-139
2021-10-14 14:25:07.629655,-139
2021-10-14 14:25:07.629663,-139
2021-10-14 14:25:07.629672,-142
2021-10-14 14:25:07.629680,-134
2021-10-14 14:25:07.629688,-127
2021-10-14 14:25:07.629697,-130
2021-10-14 14:25:07.629705,-134
2021-10-14 14:25:07.629714,-125
2021-10-14 14:25:07.629722,-117
2021-10-14 14:25:07.629730,-115
2021-10-14 14:25:07.629739,-103
2021-10-14 14:25:07.629747,-103
2021-10-14 14:25:07.629755,-107
2021-10-14 14:25:07.629764,-93
2021-10-14 14:25:07.629772,-103
2021-10-14 14:25:07.944600,-122
2021-10-14 14:25:07.944626,-95
2021-10-14 14:25:07.944635,-46
2021-10-14 14:25:07.944644,-24
2021-10-14 14:25:07.944653,-29
2021-10-14 14:25:07.944662,-29
2021-10-14 14:25:07.944671,-39
2021-10-14 14:25:07.944679,-76
2021-10-14 14:25:07.944688,-105
2021-10-14 14:25:07.944697,-98
2021-10-14 14:25:07.944705,-80
2021-10-14 14:25:07.944714,-90
2021-10-14 14:25:07.944722,-107
2021-10-14 14:25:07.944731,-107
2021-10-14 14:25:07.944739,-105
2021-10-14 14:25:07.944748,-100
2021-10-14 14:25:07.944756,-36
2021-10-14 14:25:07.944765,201
2021-10-14 14:25:07.944773,581
2021-10-14 14:25:07.944782,777
2021-10-14 14:25:07.944790,355
2021-10-14 14:25:07.944799,-444
2021-10-14 14:25:07.944807,-549
2021-10-14 14:25:07.944845,-19
2021-10-14 14:25:07.944854,85
2021-10-14 14:25:07.944862,-88
2021-10-14 14:25:07.944871,-22
2021-10-14 14:25:07.944879,36
2021-10-14 14:25:07.944888,-9
2021-10-14 14:25:07.944896,14
2021-10-14 14:25:08.079467,58
2021-10-14 14:25:08.079488,63
2021-10-14 14:25:08.079498,76
2021-10-14 14:25:08.079507,98
2021-10-14 14:25:08.079515,112
2021-10-14 14:25:08.079524,142
2021-10-14 14:25:08.079532,186
2021-10-14 14:25:08.079541,206
2021-10-14 14:25:08.079549,201
2021-10-14 14:25:08.079558,218
2021-10-14 14:25:08.079566,262
2021-10-14 14:25:08.079575,296
2021-10-14 14:25:08.079583,311
2021-10-14 14:25:08.079592,318
2021-10-14 14:25:08.079600,323
2021-10-14 14:25:08.079609,316
2021-10-14 14:25:08.079617,306
2021-10-14 14:25:08.079626,299
2021-10-14 14:25:08.079634,262
2021-10-14 14:25:08.079643,186
2021-10-14 14:25:08.079651,88
2021-10-14 14:25:08.079660,-4
2021-10-14 14:25:08.079668,-88
2021-10-14 14:25:08.079676,-147
2021-10-14 14:25:08.079685,-186
2021-10-14 14:25:08.079693,-228
2021-10-14 14:25:08.079701,-257
2021-10-14 14:25:08.079710,-255
2021-10-14 14:25:08.079718,-233
2021-10-14 14:25:08.079726,-228
2021-10-14 14:25:08.350151,-235
2021-10-14 14:25:08.350172,-218
2021-10-14 14:25:08.350182,-188
2021-10-14 14:25:08.350191,-196
2021-10-14 14:25:08.350200,-211
2021-10-14 14:25:08.350208,-186
2021-10-14 14:25:08.350217,-169
2021-10-14 14:25:08.350225,-186
2021-10-14 14:25:08.350233,-186
2021-10-14 14:25:08.350242,-166
2021-10-14 14:25:08.350250,-157
2021-10-14 14:25:08.350259,-169
2021-10-14 14:25:08.350267,-188
2021-10-14 14:25:08.350276,-176
2021-10-14 14:25:08.350284,-166
2021-10-14 14:25:08.350292,-188
2021-10-14 14:25:08.350301,-188
2021-10-14 14:25:08.350309,-169
2021-10-14 14:25:08.350317,-179
2021-10-14 14:25:08.350325,-193
2021-10-14 14:25:08.350334,-181
2021-10-14 14:25:08.350342,-169
2021-10-14 14:25:08.350350,-174
2021-10-14 14:25:08.350359,-174
2021-10-14 14:25:08.350367,-161
2021-10-14 14:25:08.350375,-122
2021-10-14 14:25:08.350383,-73
2021-10-14 14:25:08.350392,-61
2021-10-14 14:25:08.350400,-85
2021-10-14 14:25:08.350408,-107
2021-10-14 14:25:08.618175,-105
2021-10-14 14:25:08.618196,-112
2021-10-14 14:25:08.618205,-137
2021-10-14 14:25:08.618213,-125
2021-10-14 14:25:08.618221,-95
2021-10-14 14:25:08.618228,-105
2021-10-14 14:25:08.618236,-120
2021-10-14 14:25:08.618243,-105
2021-10-14 14:25:08.618251,-88
2021-10-14 14:25:08.618259,-44
2021-10-14 14:25:08.618266,149
2021-10-14 14:25:08.618274,476
2021-10-14 14:25:08.618282,701
2021-10-14 14:25:08.618290,478
2021-10-14 14:25:08.618297,-269
2021-10-14 14:25:08.618305,-652
2021-10-14 14:25:08.618313,-176
2021-10-14 14:25:08.618321,107
2021-10-14 14:25:08.618328,-90
2021-10-14 14:25:08.618336,-71
2021-10-14 14:25:08.618344,29
2021-10-14 14:25:08.618351,-26
2021-10-14 14:25:08.618359,-19
2021-10-14 14:25:08.618367,39
2021-10-14 14:25:08.618374,24
2021-10-14 14:25:08.618382,31
2021-10-14 14:25:08.618390,78
2021-10-14 14:25:08.618397,95
2021-10-14 14:25:08.618405,103
2021-10-14 14:25:08.618412,134
2021-10-14 14:25:08.754914,171
2021-10-14 14:25:08.754934,203
2021-10-14 14:25:08.754944,225
2021-10-14 14:25:08.754952,255
2021-10-14 14:25:08.754961,294
2021-10-14 14:25:08.754969,321
2021-10-14 14:25:08.754978,331
2021-10-14 14:25:08.754986,345
2021-10-14 14:25:08.754994,350
2021-10-14 14:25:08.755003,333
2021-10-14 14:25:08.755011,321
2021-10-14 14:25:08.755020,284
2021-10-14 14:25:08.755028,169
2021-10-14 14:25:08.755037,51
2021-10-14 14:25:08.755045,-17
2021-10-14 14:25:08.755053,-107
2021-10-14 14:25:08.755062,-220
2021-10-14 14:25:08.755070,-279
2021-10-14 14:25:08.755078,-287
2021-10-14 14:25:08.755087,-294
2021-10-14 14:25:08.755096,-311
2021-10-14 14:25:08.755104,-309
2021-10-14 14:25:08.755112,-299
2021-10-14 14:25:08.755121,-299
2021-10-14 14:25:08.755129,-306
2021-10-14 14:25:08.755137,-296
2021-10-14 14:25:08.755146,-274
2021-10-14 14:25:08.755154,-269
2021-10-14 14:25:08.755162,-269
2021-10-14 14:25:08.755171,-255
2021-10-14 14:25:08.980004,-240
2021-10-14 14:25:08.980026,-233
2021-10-14 14:25:08.980036,-230
2021-10-14 14:25:08.980045,-225
2021-10-14 14:25:08.980054,-218
2021-10-14 14:25:08.980062,-223
2021-10-14 14:25:08.980071,-242
2021-10-14 14:25:08.980080,-247
2021-10-14 14:25:08.980088,-230
2021-10-14 14:25:08.980097,-228
2021-10-14 14:25:08.980105,-242
2021-10-14 14:25:08.980114,-242
2021-10-14 14:25:08.980122,-230
2021-10-14 14:25:08.980131,-233
2021-10-14 14:25:08.980140,-242
2021-10-14 14:25:08.980148,-240
2021-10-14 14:25:08.980157,-218
2021-10-14 14:25:08.980165,-181
2021-10-14 14:25:08.980174,-159
2021-10-14 14:25:08.980182,-152
2021-10-14 14:25:08.980191,-144
2021-10-14 14:25:08.980211,-157
2021-10-14 14:25:08.980220,-186
2021-10-14 14:25:08.980229,-191
2021-10-14 14:25:08.980238,-174
2021-10-14 14:25:08.980246,-169
2021-10-14 14:25:08.980255,-174
2021-10-14 14:25:08.980263,-169
2021-10-14 14:25:08.980272,-164
2021-10-14 14:25:08.980280,-164
2021-10-14 14:25:09.204585,-137
2021-10-14 14:25:09.204607,-44
2021-10-14 14:25:09.204617,174
2021-10-14 14:25:09.204626,498
2021-10-14 14:25:09.204635,662
2021-10-14 14:25:09.204643,235
2021-10-14 14:25:09.204652,-515
2021-10-14 14:25:09.204661,-549
2021-10-14 14:25:09.204669,-34
2021-10-14 14:25:09.204677,-9
2021-10-14 14:25:09.204686,-191
2021-10-14 14:25:09.204694,-90
2021-10-14 14:25:09.204703,-29
2021-10-14 14:25:09.204711,-85
2021-10-14 14:25:09.204720,-66
2021-10-14 14:25:09.204728,-24
2021-10-14 14:25:09.204737,-14
2021-10-14 14:25:09.204745,4
2021-10-14 14:25:09.204754,31
2021-10-14 14:25:09.204762,44
2021-10-14 14:25:09.204771,53
2021-10-14 14:25:09.204779,78
2021-10-14 14:25:09.204787,110
2021-10-14 14:25:09.204796,142
2021-10-14 14:25:09.204804,181
2021-10-14 14:25:09.204812,220
2021-10-14 14:25:09.204821,252
2021-10-14 14:25:09.204829,269
2021-10-14 14:25:09.204838,289
2021-10-14 14:25:09.204846,304
2021-10-14 14:25:09.475004,289
2021-10-14 14:25:09.475026,255
2021-10-14 14:25:09.475036,218
2021-10-14 14:25:09.475045,157
2021-10-14 14:25:09.475054,68
2021-10-14 14:25:09.475062,-22
2021-10-14 14:25:09.475070,-103
2021-10-14 14:25:09.475079,-176
2021-10-14 14:25:09.475087,-247
2021-10-14 14:25:09.475096,-316
2021-10-14 14:25:09.475104,-343
2021-10-14 14:25:09.475113,-328
2021-10-14 14:25:09.475121,-323
2021-10-14 14:25:09.475129,-341
2021-10-14 14:25:09.475138,-341
2021-10-14 14:25:09.475146,-326
2021-10-14 14:25:09.475155,-318
2021-10-14 14:25:09.475163,-311
2021-10-14 14:25:09.475171,-294
2021-10-14 14:25:09.475180,-272
2021-10-14 14:25:09.475188,-277
2021-10-14 14:25:09.475196,-291
2021-10-14 14:25:09.475205,-272
2021-10-14 14:25:09.475213,-252
2021-10-14 14:25:09.475221,-255
2021-10-14 14:25:09.475230,-247
2021-10-14 14:25:09.475238,-235
2021-10-14 14:25:09.475247,-225
2021-10-14 14:25:09.475255,-220
2021-10-14 14:25:09.475263,-223
2021-10-14 14:25:09.744059,-230
2021-10-14 14:25:09.744082,-223
2021-10-14 14:25:09.744091,-215
2021-10-14 14:25:09.744100,-218
2021-10-14 14:25:09.744109,-218
2021-10-14 14:25:09.744117,-201
2021-10-14 14:25:09.744126,-181
2021-10-14 14:25:09.744134,-188
2021-10-14 14:25:09.744143,-206
2021-10-14 14:25:09.744151,-203
2021-10-14 14:25:09.744160,-174
2021-10-14 14:25:09.744168,-130
2021-10-14 14:25:09.744177,-110
2021-10-14 14:25:09.744185,-120
2021-10-14 14:25:09.744194,-142
2021-10-14 14:25:09.744202,-154
2021-10-14 14:25:09.744211,-154
2021-10-14 14:25:09.744219,-154
2021-10-14 14:25:09.744228,-147
2021-10-14 14:25:09.744236,-130
2021-10-14 14:25:09.744245,-139
2021-10-14 14:25:09.744253,-154
2021-10-14 14:25:09.744261,-137
2021-10-14 14:25:09.744270,-130
2021-10-14 14:25:09.744278,-110
2021-10-14 14:25:09.744286,46
2021-10-14 14:25:09.744295,368
2021-10-14 14:25:09.744303,687
2021-10-14 14:25:09.744312,596
2021-10-14 14:25:09.744320,-112
2021-10-14 14:25:09.924524,-591
2021-10-14 14:25:09.924550,-201
2021-10-14 14:25:09.924560,95
2021-10-14 14:25:09.924568,-100
2021-10-14 14:25:09.924600,-122
2021-10-14 14:25:09.924613,-4
2021-10-14 14:25:09.924621,-39
2021-10-14 14:25:09.924629,-76
2021-10-14 14:25:09.924638,-34
2021-10-14 14:25:09.924646,-7
2021-10-14 14:25:09.924655,7
2021-10-14 14:25:09.924664,34
2021-10-14 14:25:09.924672,61
2021-10-14 14:25:09.924681,76
2021-10-14 14:25:09.924689,98
2021-10-14 14:25:09.924697,125
2021-10-14 14:25:09.924722,164
2021-10-14 14:25:09.924731,211
2021-10-14 14:25:09.924740,240
2021-10-14 14:25:09.924748,260
2021-10-14 14:25:09.924756,296
2021-10-14 14:25:09.924771,328
2021-10-14 14:25:09.924791,333
2021-10-14 14:25:09.924799,333
2021-10-14 14:25:09.924808,336
2021-10-14 14:25:09.924816,311
2021-10-14 14:25:09.924825,269
2021-10-14 14:25:09.924833,213
2021-10-14 14:25:09.924841,117
2021-10-14 14:25:09.924848,14
2021-10-14 14:25:10.150064,-53
2021-10-14 14:25:10.150095,-115
2021-10-14 14:25:10.150105,-169
2021-10-14 14:25:10.150113,-196
2021-10-14 14:25:10.150122,-203
2021-10-14 14:25:10.150228,-211
2021-10-14 14:25:10.150237,-215
2021-10-14 14:25:10.150246,-218
2021-10-14 14:25:10.150254,-213
2021-10-14 14:25:10.150263,-208
2021-10-14 14:25:10.150271,-201
2021-10-14 14:25:10.150279,-188
2021-10-14 14:25:10.150288,-186
2021-10-14 14:25:10.150296,-191
2021-10-14 14:25:10.150304,-176
2021-10-14 14:25:10.150313,-166
2021-10-14 14:25:10.150321,-171
2021-10-14 14:25:10.150329,-169
2021-10-14 14:25:10.150338,-161
2021-10-14 14:25:10.150346,-164
2021-10-14 14:25:10.150354,-164
2021-10-14 14:25:10.150362,-161
2021-10-14 14:25:10.150372,-161
2021-10-14 14:25:10.150380,-166
2021-10-14 14:25:10.150389,-164
2021-10-14 14:25:10.150397,-154
2021-10-14 14:25:10.150405,-157
2021-10-14 14:25:10.150413,-169
2021-10-14 14:25:10.150422,-169
2021-10-14 14:25:10.150430,-161
2021-10-14 14:25:10.375021,-154
2021-10-14 14:25:10.375044,-149
2021-10-14 14:25:10.375053,-147
2021-10-14 14:25:10.375062,-142
2021-10-14 14:25:10.375071,-137
2021-10-14 14:25:10.375079,-144
2021-10-14 14:25:10.375087,-152
2021-10-14 14:25:10.375096,-122
2021-10-14 14:25:10.375104,-76
2021-10-14 14:25:10.375112,-56
2021-10-14 14:25:10.375120,-68
2021-10-14 14:25:10.375129,-93
2021-10-14 14:25:10.375137,-122
2021-10-14 14:25:10.375145,-130
2021-10-14 14:25:10.375153,-122
2021-10-14 14:25:10.375162,-120
2021-10-14 14:25:10.375170,-112
2021-10-14 14:25:10.375178,-107
2021-10-14 14:25:10.375186,-107
2021-10-14 14:25:10.375195,-105
2021-10-14 14:25:10.375203,-100
2021-10-14 14:25:10.375211,-56
2021-10-14 14:25:10.375219,110
2021-10-14 14:25:10.375228,436
2021-10-14 14:25:10.375236,748
2021-10-14 14:25:10.375244,620
2021-10-14 14:25:10.375252,-107
2021-10-14 14:25:10.375261,-552
2021-10-14 14:25:10.375269,-149
2021-10-14 14:25:10.375277,117
2021-10-14 14:25:10.688565,-76
2021-10-14 14:25:10.688586,-73
2021-10-14 14:25:10.688595,39
2021-10-14 14:25:10.688605,0
2021-10-14 14:25:10.688613,-7
2021-10-14 14:25:10.688621,41
2021-10-14 14:25:10.688630,41
2021-10-14 14:25:10.688638,46
2021-10-14 14:25:10.688646,80
2021-10-14 14:25:10.688655,103
2021-10-14 14:25:10.688663,115
2021-10-14 14:25:10.688671,142
2021-10-14 14:25:10.688680,169
2021-10-14 14:25:10.688688,196
2021-10-14 14:25:10.688696,233
2021-10-14 14:25:10.688704,272
2021-10-14 14:25:10.688713,299
2021-10-14 14:25:10.688721,323
2021-10-14 14:25:10.688729,348
2021-10-14 14:25:10.688737,365
2021-10-14 14:25:10.688746,368
2021-10-14 14:25:10.688754,358
2021-10-14 14:25:10.688762,341
2021-10-14 14:25:10.688770,304
2021-10-14 14:25:10.688779,242
2021-10-14 14:25:10.688787,169
2021-10-14 14:25:10.688795,85
2021-10-14 14:25:10.688803,-4
2021-10-14 14:25:10.688811,-76
2021-10-14 14:25:10.688819,-120
2021-10-14 14:25:10.870552,-154
2021-10-14 14:25:10.870573,-181
2021-10-14 14:25:10.870582,-191
2021-10-14 14:25:10.870591,-188
2021-10-14 14:25:10.870600,-188
2021-10-14 14:25:10.870608,-186
2021-10-14 14:25:10.870617,-171
2021-10-14 14:25:10.870625,-166
2021-10-14 14:25:10.870633,-169
2021-10-14 14:25:10.870642,-166
2021-10-14 14:25:10.870650,-164
2021-10-14 14:25:10.870659,-169
2021-10-14 14:25:10.870667,-164
2021-10-14 14:25:10.870675,-152
2021-10-14 14:25:10.870684,-147
2021-10-14 14:25:10.870692,-147
2021-10-14 14:25:10.870701,-159
2021-10-14 14:25:10.870709,-181
2021-10-14 14:25:10.870717,-179
2021-10-14 14:25:10.870726,-164
2021-10-14 14:25:10.870734,-161
2021-10-14 14:25:10.870742,-164
2021-10-14 14:25:10.870751,-164
2021-10-14 14:25:10.870759,-164
2021-10-14 14:25:10.870820,-147
2021-10-14 14:25:10.870828,-134
2021-10-14 14:25:10.870836,-144
2021-10-14 14:25:10.870844,-147
2021-10-14 14:25:10.870852,-142
2021-10-14 14:25:10.870861,-134
2021-10-14 14:25:11.050098,-117
2021-10-14 14:25:11.050121,-103
2021-10-14 14:25:11.050130,-110
2021-10-14 14:25:11.050139,-130
2021-10-14 14:25:11.050147,-139
2021-10-14 14:25:11.050156,-137
2021-10-14 14:25:11.050165,-125
2021-10-14 14:25:11.050194,-83
2021-10-14 14:25:11.050220,-39
2021-10-14 14:25:11.050230,-34
2021-10-14 14:25:11.050238,-53
2021-10-14 14:25:11.050246,-56
2021-10-14 14:25:11.050253,-49
2021-10-14 14:25:11.050260,-66
2021-10-14 14:25:11.050267,-83
2021-10-14 14:25:11.050274,-76
2021-10-14 14:25:11.050281,-73
2021-10-14 14:25:11.050288,-73
2021-10-14 14:25:11.050296,-63
2021-10-14 14:25:11.050303,-51
2021-10-14 14:25:11.050311,-34
2021-10-14 14:25:11.050319,31
2021-10-14 14:25:11.050327,252
2021-10-14 14:25:11.050335,615
2021-10-14 14:25:11.050343,814
2021-10-14 14:25:11.050350,392
2021-10-14 14:25:11.050358,-368
2021-10-14 14:25:11.050365,-412
2021-10-14 14:25:11.050372,76
2021-10-14 14:25:11.050379,103
2021-10-14 14:25:11.319583,-58
2021-10-14 14:25:11.319605,36
2021-10-14 14:25:11.319615,80
2021-10-14 14:25:11.319624,14
2021-10-14 14:25:11.319633,31
2021-10-14 14:25:11.319642,68
2021-10-14 14:25:11.319650,58
2021-10-14 14:25:11.319659,78
2021-10-14 14:25:11.319668,107
2021-10-14 14:25:11.319676,107
2021-10-14 14:25:11.319685,130
2021-10-14 14:25:11.319693,174
2021-10-14 14:25:11.319702,201
2021-10-14 14:25:11.319710,228
2021-10-14 14:25:11.319718,260
2021-10-14 14:25:11.319727,289
2021-10-14 14:25:11.319735,323
2021-10-14 14:25:11.319743,355
2021-10-14 14:25:11.319752,375
2021-10-14 14:25:11.319760,385
2021-10-14 14:25:11.319769,377
2021-10-14 14:25:11.319777,353
2021-10-14 14:25:11.319785,316
2021-10-14 14:25:11.319794,274
2021-10-14 14:25:11.319802,218
2021-10-14 14:25:11.319810,132
2021-10-14 14:25:11.319819,36
2021-10-14 14:25:11.319827,-34
2021-10-14 14:25:11.319835,-88
2021-10-14 14:25:11.319844,-132
2021-10-14 14:25:11.544679,-157
2021-10-14 14:25:11.544701,-169
2021-10-14 14:25:11.544711,-184
2021-10-14 14:25:11.544719,-193
2021-10-14 14:25:11.544728,-188
2021-10-14 14:25:11.544736,-176
2021-10-14 14:25:11.544745,-161
2021-10-14 14:25:11.544753,-161
2021-10-14 14:25:11.544762,-179
2021-10-14 14:25:11.544770,-184
2021-10-14 14:25:11.544779,-166
2021-10-14 14:25:11.544787,-161
2021-10-14 14:25:11.544796,-161
2021-10-14 14:25:11.544804,-161
2021-10-14 14:25:11.544813,-171
2021-10-14 14:25:11.544821,-179
2021-10-14 14:25:11.544830,-166
2021-10-14 14:25:11.544868,-166
2021-10-14 14:25:11.544876,-174
2021-10-14 14:25:11.544885,-166
2021-10-14 14:25:11.544893,-159
2021-10-14 14:25:11.544902,-166
2021-10-14 14:25:11.544910,-169
2021-10-14 14:25:11.544918,-159
2021-10-14 14:25:11.544927,-152
2021-10-14 14:25:11.544935,-157
2021-10-14 14:25:11.544943,-159
2021-10-14 14:25:11.544952,-149
2021-10-14 14:25:11.544960,-137
2021-10-14 14:25:11.544969,-125
2021-10-14 14:25:11.769670,-122
2021-10-14 14:25:11.769692,-125
2021-10-14 14:25:11.769701,-122
2021-10-14 14:25:11.769710,-112
2021-10-14 14:25:11.769719,-103
2021-10-14 14:25:11.769727,-103
2021-10-14 14:25:11.769736,-110
2021-10-14 14:25:11.769744,-122
2021-10-14 14:25:11.769752,-112
2021-10-14 14:25:11.769761,-68
2021-10-14 14:25:11.769769,-39
2021-10-14 14:25:11.769778,-41
2021-10-14 14:25:11.769786,-46
2021-10-14 14:25:11.769794,-66
2021-10-14 14:25:11.769803,-95
2021-10-14 14:25:11.769811,-100
2021-10-14 14:25:11.769820,-88
2021-10-14 14:25:11.769828,-80
2021-10-14 14:25:11.769837,-78
2021-10-14 14:25:11.769845,-73
2021-10-14 14:25:11.769854,-73
2021-10-14 14:25:11.769862,-68
2021-10-14 14:25:11.769871,-34
2021-10-14 14:25:11.769879,93
2021-10-14 14:25:11.769888,380
2021-10-14 14:25:11.769896,728
2021-10-14 14:25:11.769906,755
2021-10-14 14:25:11.769915,112
2021-10-14 14:25:11.769923,-534
2021-10-14 14:25:11.769932,-279
2021-10-14 14:25:11.995047,125
2021-10-14 14:25:11.995070,-19
2021-10-14 14:25:11.995080,-98
2021-10-14 14:25:11.995088,29
2021-10-14 14:25:11.995097,22
2021-10-14 14:25:11.995105,-9
2021-10-14 14:25:11.995114,34
2021-10-14 14:25:11.995122,44
2021-10-14 14:25:11.995131,44
2021-10-14 14:25:11.995139,76
2021-10-14 14:25:11.995148,100
2021-10-14 14:25:11.995156,105
2021-10-14 14:25:11.995164,120
2021-10-14 14:25:11.995174,144
2021-10-14 14:25:11.995183,171
2021-10-14 14:25:11.995191,208
2021-10-14 14:25:11.995200,242
2021-10-14 14:25:11.995208,277
2021-10-14 14:25:11.995217,304
2021-10-14 14:25:11.995225,318
2021-10-14 14:25:11.995234,336
2021-10-14 14:25:11.995242,343
2021-10-14 14:25:11.995251,341
2021-10-14 14:25:11.995259,333
2021-10-14 14:25:11.995267,309
2021-10-14 14:25:11.995276,257
2021-10-14 14:25:11.995284,181
2021-10-14 14:25:11.995293,88
2021-10-14 14:25:11.995301,0
2021-10-14 14:25:11.995310,-73
2021-10-14 14:25:12.219990,-134
2021-10-14 14:25:12.220013,-184
2021-10-14 14:25:12.220022,-213
2021-10-14 14:25:12.220031,-228
2021-10-14 14:25:12.220040,-238
2021-10-14 14:25:12.220048,-245
2021-10-14 14:25:12.220056,-247
2021-10-14 14:25:12.220065,-233
2021-10-14 14:25:12.220073,-215
2021-10-14 14:25:12.220082,-213
2021-10-14 14:25:12.220090,-208
2021-10-14 14:25:12.220099,-198
2021-10-14 14:25:12.220107,-208
2021-10-14 14:25:12.220116,-218
2021-10-14 14:25:12.220124,-203
2021-10-14 14:25:12.220133,-186
2021-10-14 14:25:12.220142,-184
2021-10-14 14:25:12.220150,-181
2021-10-14 14:25:12.220158,-184
2021-10-14 14:25:12.220167,-186
2021-10-14 14:25:12.220175,-179
2021-10-14 14:25:12.220184,-179
2021-10-14 14:25:12.220193,-179
2021-10-14 14:25:12.220202,-174
2021-10-14 14:25:12.220210,-174
2021-10-14 14:25:12.220218,-174
2021-10-14 14:25:12.220227,-154
2021-10-14 14:25:12.220235,-142
2021-10-14 14:25:12.220243,-144
2021-10-14 14:25:12.220252,-149
2021-10-14 14:25:12.444673,-142
2021-10-14 14:25:12.444695,-127
2021-10-14 14:25:12.444704,-127
2021-10-14 14:25:12.444713,-137
2021-10-14 14:25:12.444721,-147
2021-10-14 14:25:12.444730,-147
2021-10-14 14:25:12.444738,-149
2021-10-14 14:25:12.444747,-147
2021-10-14 14:25:12.444756,-142
2021-10-14 14:25:12.444764,-107
2021-10-14 14:25:12.444773,-66
2021-10-14 14:25:12.444781,-66
2021-10-14 14:25:12.444789,-85
2021-10-14 14:25:12.444798,-88
2021-10-14 14:25:12.444806,-100
2021-10-14 14:25:12.444815,-125
2021-10-14 14:25:12.444823,-125
2021-10-14 14:25:12.444832,-110
2021-10-14 14:25:12.444840,-105
2021-10-14 14:25:12.444849,-105
2021-10-14 14:25:12.444857,-103
2021-10-14 14:25:12.444865,-90
2021-10-14 14:25:12.444874,-71
2021-10-14 14:25:12.444918,12
2021-10-14 14:25:12.444926,257
2021-10-14 14:25:12.444934,610
2021-10-14 14:25:12.444943,750
2021-10-14 14:25:12.444951,277
2021-10-14 14:25:12.444959,-458
2021-10-14 14:25:12.444968,-439
2021-10-14 14:25:12.758245,58
2021-10-14 14:25:12.758266,66
2021-10-14 14:25:12.758276,-93
2021-10-14 14:25:12.758284,0
2021-10-14 14:25:12.758293,41
2021-10-14 14:25:12.758301,-9
2021-10-14 14:25:12.758310,19
2021-10-14 14:25:12.758318,56
2021-10-14 14:25:12.758327,56
2021-10-14 14:25:12.758335,78
2021-10-14 14:25:12.758343,105
2021-10-14 14:25:12.758352,110
2021-10-14 14:25:12.758360,134
2021-10-14 14:25:12.758368,174
2021-10-14 14:25:12.758377,196
2021-10-14 14:25:12.758385,223
2021-10-14 14:25:12.758393,262
2021-10-14 14:25:12.758402,294
2021-10-14 14:25:12.758410,311
2021-10-14 14:25:12.758419,331
2021-10-14 14:25:12.758427,348
2021-10-14 14:25:12.758436,350
2021-10-14 14:25:12.758444,345
2021-10-14 14:25:12.758452,336
2021-10-14 14:25:12.758460,314
2021-10-14 14:25:12.758469,260
2021-10-14 14:25:12.758477,179
2021-10-14 14:25:12.758486,76
2021-10-14 14:25:12.758495,-22
2021-10-14 14:25:12.758503,-95
2021-10-14 14:25:12.894915,-147
2021-10-14 14:25:12.894936,-179
2021-10-14 14:25:12.894946,-206
2021-10-14 14:25:12.894954,-228
2021-10-14 14:25:12.894963,-238
2021-10-14 14:25:12.894971,-235
2021-10-14 14:25:12.894979,-230
2021-10-14 14:25:12.894987,-220
2021-10-14 14:25:12.894996,-208
2021-10-14 14:25:12.895004,-211
2021-10-14 14:25:12.895012,-220
2021-10-14 14:25:12.895021,-203
2021-10-14 14:25:12.895029,-181
2021-10-14 14:25:12.895037,-174
2021-10-14 14:25:12.895046,-171
2021-10-14 14:25:12.895054,-176
2021-10-14 14:25:12.895063,-171
2021-10-14 14:25:12.895071,-152
2021-10-14 14:25:12.895079,-147
2021-10-14 14:25:12.895087,-159
2021-10-14 14:25:12.895096,-166
2021-10-14 14:25:12.895104,-166
2021-10-14 14:25:12.895112,-166
2021-10-14 14:25:12.895128,-157
2021-10-14 14:25:12.895137,-144
2021-10-14 14:25:12.895145,-139
2021-10-14 14:25:12.895154,-142
2021-10-14 14:25:12.895162,-144
2021-10-14 14:25:12.895170,-139
2021-10-14 14:25:12.895179,-130
2021-10-14 14:25:13.254957,-117
2021-10-14 14:25:13.254979,-110
2021-10-14 14:25:13.254988,-110
2021-10-14 14:25:13.254997,-132
2021-10-14 14:25:13.255006,-147
2021-10-14 14:25:13.255014,-127
2021-10-14 14:25:13.255023,-85
2021-10-14 14:25:13.255031,-51
2021-10-14 14:25:13.255040,-44
2021-10-14 14:25:13.255048,-58
2021-10-14 14:25:13.255057,-66
2021-10-14 14:25:13.255065,-78
2021-10-14 14:25:13.255074,-93
2021-10-14 14:25:13.255082,-90
2021-10-14 14:25:13.255090,-76
2021-10-14 14:25:13.255099,-73
2021-10-14 14:25:13.255107,-73
2021-10-14 14:25:13.255115,-63
2021-10-14 14:25:13.255124,-58
2021-10-14 14:25:13.255132,-58
2021-10-14 14:25:13.255141,-24
2021-10-14 14:25:13.255149,117
2021-10-14 14:25:13.255157,422
2021-10-14 14:25:13.255166,763
2021-10-14 14:25:13.255174,704
2021-10-14 14:25:13.255182,9
2021-10-14 14:25:13.255191,-493
2021-10-14 14:25:13.255199,-137
2021-10-14 14:25:13.255207,164
2021-10-14 14:25:13.255215,-19
2021-10-14 14:25:13.390167,-46
2021-10-14 14:25:13.390190,68
2021-10-14 14:25:13.390200,36
2021-10-14 14:25:13.390208,12
2021-10-14 14:25:13.390217,58
2021-10-14 14:25:13.390226,78
2021-10-14 14:25:13.390234,85
2021-10-14 14:25:13.390242,110
2021-10-14 14:25:13.390331,122
2021-10-14 14:25:13.390341,127
2021-10-14 14:25:13.390350,154
2021-10-14 14:25:13.390358,191
2021-10-14 14:25:13.390367,218
2021-10-14 14:25:13.390375,242
2021-10-14 14:25:13.390383,267
2021-10-14 14:25:13.390392,282
2021-10-14 14:25:13.390400,306
2021-10-14 14:25:13.390409,336
2021-10-14 14:25:13.390417,338
2021-10-14 14:25:13.390426,328
2021-10-14 14:25:13.390434,316
2021-10-14 14:25:13.390442,291
2021-10-14 14:25:13.390451,252
2021-10-14 14:25:13.390459,191
2021-10-14 14:25:13.390467,103
2021-10-14 14:25:13.390475,12
2021-10-14 14:25:13.390484,-76
2021-10-14 14:25:13.390492,-144
2021-10-14 14:25:13.390501,-188
2021-10-14 14:25:13.390509,-218
2021-10-14 14:25:13.614629,-233
2021-10-14 14:25:13.614661,-233
2021-10-14 14:25:13.614672,-233
2021-10-14 14:25:13.614681,-230
2021-10-14 14:25:13.614689,-213
2021-10-14 14:25:13.614697,-201
2021-10-14 14:25:13.614706,-193
2021-10-14 14:25:13.614714,-184
2021-10-14 14:25:13.614723,-181
2021-10-14 14:25:13.614731,-176
2021-10-14 14:25:13.614739,-157
2021-10-14 14:25:13.614747,-142
2021-10-14 14:25:13.614756,-139
2021-10-14 14:25:13.614764,-142
2021-10-14 14:25:13.614772,-147
2021-10-14 14:25:13.614781,-142
2021-10-14 14:25:13.614789,-132
2021-10-14 14:25:13.614797,-130
2021-10-14 14:25:13.614805,-127
2021-10-14 14:25:13.614814,-122
2021-10-14 14:25:13.614822,-125
2021-10-14 14:25:13.614927,-127
2021-10-14 14:25:13.614937,-120
2021-10-14 14:25:13.614944,-110
2021-10-14 14:25:13.614951,-105
2021-10-14 14:25:13.614958,-110
2021-10-14 14:25:13.614965,-110
2021-10-14 14:25:13.614971,-103
2021-10-14 14:25:13.614979,-93
2021-10-14 14:25:13.614985,-88
2021-10-14 14:25:13.839665,-83
2021-10-14 14:25:13.839712,-80
2021-10-14 14:25:13.839722,-80
2021-10-14 14:25:13.839731,-76
2021-10-14 14:25:13.839739,-71
2021-10-14 14:25:13.839748,-76
2021-10-14 14:25:13.839756,-85
2021-10-14 14:25:13.839765,-76
2021-10-14 14:25:13.839773,-34
2021-10-14 14:25:13.839782,2
2021-10-14 14:25:13.839791,0
2021-10-14 14:25:13.839799,-7
2021-10-14 14:25:13.839808,-19
2021-10-14 14:25:13.839816,-41
2021-10-14 14:25:13.839825,-56
2021-10-14 14:25:13.839833,-51
2021-10-14 14:25:13.839842,-41
2021-10-14 14:25:13.839850,-34
2021-10-14 14:25:13.839858,-31
2021-10-14 14:25:13.839867,-36
