Time,ECG
2021-10-14 15:14:58.864227,382
2021-10-14 15:14:58.864248,360
2021-10-14 15:14:58.864257,304
2021-10-14 15:14:58.864265,201
2021-10-14 15:14:58.864273,93
2021-10-14 15:14:58.864283,19
2021-10-14 15:14:58.864291,-53
2021-10-14 15:14:58.864299,-122
2021-10-14 15:14:58.864308,-159
2021-10-14 15:14:58.864317,-193
2021-10-14 15:14:58.864325,-220
2021-10-14 15:14:58.864334,-218
2021-10-14 15:14:58.864342,-203
2021-10-14 15:14:58.864350,-188
2021-10-14 15:14:58.864359,-184
2021-10-14 15:14:58.864367,-198
2021-10-14 15:14:58.864376,-193
2021-10-14 15:14:58.864385,-161
2021-10-14 15:14:58.864393,-149
2021-10-14 15:14:58.864402,-142
2021-10-14 15:14:58.864410,-139
2021-10-14 15:14:58.864418,-164
2021-10-14 15:14:58.864427,-174
2021-10-14 15:14:58.864435,-144
2021-10-14 15:14:58.864443,-122
2021-10-14 15:14:58.864452,-122
2021-10-14 15:14:58.864461,-120
2021-10-14 15:14:58.864469,-115
2021-10-14 15:14:58.864477,-122
2021-10-14 15:14:58.864486,-122
2021-10-14 15:14:58.954830,-110
2021-10-14 15:14:58.954851,-112
2021-10-14 15:14:58.954860,-127
2021-10-14 15:14:58.954869,-122
2021-10-14 15:14:58.954878,-103
2021-10-14 15:14:58.954886,-85
2021-10-14 15:14:58.954897,-83
2021-10-14 15:14:58.954906,-98
2021-10-14 15:14:58.954914,-105
2021-10-14 15:14:58.954923,-95
2021-10-14 15:14:58.954931,-88
2021-10-14 15:14:58.954940,-80
2021-10-14 15:14:58.954948,-76
2021-10-14 15:14:58.954957,-88
2021-10-14 15:14:58.954965,-100
2021-10-14 15:14:58.954974,-83
2021-10-14 15:14:58.954982,-36
2021-10-14 15:14:58.954991,-4
2021-10-14 15:14:58.955000,-2
2021-10-14 15:14:58.955008,-19
2021-10-14 15:14:58.955017,-51
2021-10-14 15:14:58.955025,-73
2021-10-14 15:14:58.955034,-76
2021-10-14 15:14:58.955042,-83
2021-10-14 15:14:58.955051,-85
2021-10-14 15:14:58.955059,-71
2021-10-14 15:14:58.955067,-80
2021-10-14 15:14:58.955076,-100
2021-10-14 15:14:58.955084,-83
2021-10-14 15:14:58.955094,-56
2021-10-14 15:14:59.179852,-17
2021-10-14 15:14:59.179873,125
2021-10-14 15:14:59.179882,397
2021-10-14 15:14:59.179891,593
2021-10-14 15:14:59.179899,291
2021-10-14 15:14:59.179908,-397
2021-10-14 15:14:59.179916,-544
2021-10-14 15:14:59.179925,-68
2021-10-14 15:14:59.179933,58
2021-10-14 15:14:59.179942,-110
2021-10-14 15:14:59.179951,-49
2021-10-14 15:14:59.179959,22
2021-10-14 15:14:59.179968,-24
2021-10-14 15:14:59.179980,-19
2021-10-14 15:14:59.179989,24
2021-10-14 15:14:59.179998,36
2021-10-14 15:14:59.180006,56
2021-10-14 15:14:59.180015,93
2021-10-14 15:14:59.180023,110
2021-10-14 15:14:59.180032,122
2021-10-14 15:14:59.180040,142
2021-10-14 15:14:59.180049,161
2021-10-14 15:14:59.180057,198
2021-10-14 15:14:59.180066,247
2021-10-14 15:14:59.180074,282
2021-10-14 15:14:59.180082,301
2021-10-14 15:14:59.180091,331
2021-10-14 15:14:59.180099,363
2021-10-14 15:14:59.180111,370
2021-10-14 15:14:59.180121,360
2021-10-14 15:14:59.449463,370
2021-10-14 15:14:59.449484,355
2021-10-14 15:14:59.449493,296
2021-10-14 15:14:59.449502,245
2021-10-14 15:14:59.449510,186
2021-10-14 15:14:59.449519,83
2021-10-14 15:14:59.449527,-26
2021-10-14 15:14:59.449536,-115
2021-10-14 15:14:59.449544,-181
2021-10-14 15:14:59.449553,-235
2021-10-14 15:14:59.449561,-260
2021-10-14 15:14:59.449570,-252
2021-10-14 15:14:59.449578,-269
2021-10-14 15:14:59.449587,-299
2021-10-14 15:14:59.449595,-299
2021-10-14 15:14:59.449604,-287
2021-10-14 15:14:59.449612,-262
2021-10-14 15:14:59.449624,-245
2021-10-14 15:14:59.449633,-250
2021-10-14 15:14:59.449641,-240
2021-10-14 15:14:59.449650,-215
2021-10-14 15:14:59.449658,-215
2021-10-14 15:14:59.449666,-220
2021-10-14 15:14:59.449675,-198
2021-10-14 15:14:59.449683,-171
2021-10-14 15:14:59.449691,-176
2021-10-14 15:14:59.449700,-196
2021-10-14 15:14:59.449708,-203
2021-10-14 15:14:59.449717,-193
2021-10-14 15:14:59.449725,-181
2021-10-14 15:14:59.719218,-188
2021-10-14 15:14:59.719240,-208
2021-10-14 15:14:59.719250,-211
2021-10-14 15:14:59.719259,-203
2021-10-14 15:14:59.719267,-201
2021-10-14 15:14:59.719276,-201
2021-10-14 15:14:59.719285,-203
2021-10-14 15:14:59.719298,-203
2021-10-14 15:14:59.719306,-198
2021-10-14 15:14:59.719315,-196
2021-10-14 15:14:59.719323,-198
2021-10-14 15:14:59.719332,-201
2021-10-14 15:14:59.719340,-193
2021-10-14 15:14:59.719349,-152
2021-10-14 15:14:59.719357,-122
2021-10-14 15:14:59.719366,-137
2021-10-14 15:14:59.719374,-132
2021-10-14 15:14:59.719382,-130
2021-10-14 15:14:59.719391,-164
2021-10-14 15:14:59.719399,-184
2021-10-14 15:14:59.719408,-159
2021-10-14 15:14:59.719416,-144
2021-10-14 15:14:59.719425,-164
2021-10-14 15:14:59.719433,-166
2021-10-14 15:14:59.719442,-134
2021-10-14 15:14:59.719450,-125
2021-10-14 15:14:59.719459,-132
2021-10-14 15:14:59.719467,-107
2021-10-14 15:14:59.719475,-39
2021-10-14 15:14:59.719485,142
2021-10-14 15:14:59.854829,429
2021-10-14 15:14:59.854850,532
2021-10-14 15:14:59.854859,88
2021-10-14 15:14:59.854868,-532
2021-10-14 15:14:59.854877,-468
2021-10-14 15:14:59.854885,-2
2021-10-14 15:14:59.854894,51
2021-10-14 15:14:59.854902,-49
2021-10-14 15:14:59.854911,19
2021-10-14 15:14:59.854919,39
2021-10-14 15:14:59.854927,4
2021-10-14 15:14:59.854936,44
2021-10-14 15:14:59.854944,78
2021-10-14 15:14:59.854953,76
2021-10-14 15:14:59.854961,98
2021-10-14 15:14:59.854970,137
2021-10-14 15:14:59.854978,149
2021-10-14 15:14:59.854986,149
2021-10-14 15:14:59.854995,176
2021-10-14 15:14:59.855003,218
2021-10-14 15:14:59.855012,238
2021-10-14 15:14:59.855020,250
2021-10-14 15:14:59.855029,301
2021-10-14 15:14:59.855037,355
2021-10-14 15:14:59.855050,370
2021-10-14 15:14:59.855059,382
2021-10-14 15:14:59.855067,397
2021-10-14 15:14:59.855076,404
2021-10-14 15:14:59.855084,404
2021-10-14 15:14:59.855093,375
2021-10-14 15:15:00.213121,323
2021-10-14 15:15:00.213143,260
2021-10-14 15:15:00.213153,154
2021-10-14 15:15:00.213161,36
2021-10-14 15:15:00.213170,-56
2021-10-14 15:15:00.213178,-122
2021-10-14 15:15:00.213187,-169
2021-10-14 15:15:00.213195,-201
2021-10-14 15:15:00.213204,-228
2021-10-14 15:15:00.213212,-238
2021-10-14 15:15:00.213221,-230
2021-10-14 15:15:00.213230,-225
2021-10-14 15:15:00.213238,-233
2021-10-14 15:15:00.213246,-223
2021-10-14 15:15:00.213255,-198
2021-10-14 15:15:00.213263,-184
2021-10-14 15:15:00.213272,-181
2021-10-14 15:15:00.213280,-176
2021-10-14 15:15:00.213289,-161
2021-10-14 15:15:00.213297,-147
2021-10-14 15:15:00.213306,-154
2021-10-14 15:15:00.213314,-157
2021-10-14 15:15:00.213325,-134
2021-10-14 15:15:00.213334,-117
2021-10-14 15:15:00.213342,-125
2021-10-14 15:15:00.213350,-127
2021-10-14 15:15:00.213359,-107
2021-10-14 15:15:00.213367,-95
2021-10-14 15:15:00.213376,-105
2021-10-14 15:15:00.213384,-127
2021-10-14 15:15:00.304794,-132
2021-10-14 15:15:00.304815,-112
2021-10-14 15:15:00.304825,-100
2021-10-14 15:15:00.304834,-103
2021-10-14 15:15:00.304842,-107
2021-10-14 15:15:00.304851,-105
2021-10-14 15:15:00.304860,-85
2021-10-14 15:15:00.304868,-71
2021-10-14 15:15:00.304877,-76
2021-10-14 15:15:00.304885,-88
2021-10-14 15:15:00.304894,-103
2021-10-14 15:15:00.304902,-103
2021-10-14 15:15:00.304911,-58
2021-10-14 15:15:00.304920,-4
2021-10-14 15:15:00.304928,2
2021-10-14 15:15:00.304937,-14
2021-10-14 15:15:00.304945,-34
2021-10-14 15:15:00.304954,-61
2021-10-14 15:15:00.304962,-68
2021-10-14 15:15:00.304971,-49
2021-10-14 15:15:00.304979,-44
2021-10-14 15:15:00.304988,-51
2021-10-14 15:15:00.304996,-44
2021-10-14 15:15:00.305004,-36
2021-10-14 15:15:00.305018,-49
2021-10-14 15:15:00.305026,-49
2021-10-14 15:15:00.305035,-2
2021-10-14 15:15:00.305043,90
2021-10-14 15:15:00.305052,284
2021-10-14 15:15:00.305061,552
2021-10-14 15:15:00.574445,559
2021-10-14 15:15:00.574467,31
2021-10-14 15:15:00.574477,-476
2021-10-14 15:15:00.574486,-262
2021-10-14 15:15:00.574494,117
2021-10-14 15:15:00.574503,53
2021-10-14 15:15:00.574512,-29
2021-10-14 15:15:00.574520,53
2021-10-14 15:15:00.574529,61
2021-10-14 15:15:00.574538,22
2021-10-14 15:15:00.574546,49
2021-10-14 15:15:00.574555,100
2021-10-14 15:15:00.574563,117
2021-10-14 15:15:00.574572,117
2021-10-14 15:15:00.574581,137
2021-10-14 15:15:00.574589,161
2021-10-14 15:15:00.574598,184
2021-10-14 15:15:00.574606,206
2021-10-14 15:15:00.574615,225
2021-10-14 15:15:00.574624,257
2021-10-14 15:15:00.574632,299
2021-10-14 15:15:00.574641,321
2021-10-14 15:15:00.574649,341
2021-10-14 15:15:00.574658,372
2021-10-14 15:15:00.574666,395
2021-10-14 15:15:00.574675,397
2021-10-14 15:15:00.574683,375
2021-10-14 15:15:00.574692,353
2021-10-14 15:15:00.574701,363
2021-10-14 15:15:00.574709,353
2021-10-14 15:15:00.799487,269
2021-10-14 15:15:00.799508,169
2021-10-14 15:15:00.799518,88
2021-10-14 15:15:00.799527,4
2021-10-14 15:15:00.799535,-66
2021-10-14 15:15:00.799544,-105
2021-10-14 15:15:00.799552,-132
2021-10-14 15:15:00.799561,-161
2021-10-14 15:15:00.799569,-179
2021-10-14 15:15:00.799578,-179
2021-10-14 15:15:00.799586,-171
2021-10-14 15:15:00.799595,-161
2021-10-14 15:15:00.799603,-147
2021-10-14 15:15:00.799611,-142
2021-10-14 15:15:00.799620,-147
2021-10-14 15:15:00.799628,-137
2021-10-14 15:15:00.799637,-120
2021-10-14 15:15:00.799645,-110
2021-10-14 15:15:00.799653,-95
2021-10-14 15:15:00.799662,-78
2021-10-14 15:15:00.799670,-83
2021-10-14 15:15:00.799679,-98
2021-10-14 15:15:00.799687,-83
2021-10-14 15:15:00.799695,-63
2021-10-14 15:15:00.799704,-68
2021-10-14 15:15:00.799712,-73
2021-10-14 15:15:00.799721,-78
2021-10-14 15:15:00.799729,-90
2021-10-14 15:15:00.799737,-85
2021-10-14 15:15:00.799746,-66
2021-10-14 15:15:01.024838,-49
2021-10-14 15:15:01.024860,-46
2021-10-14 15:15:01.024870,-56
2021-10-14 15:15:01.024878,-53
2021-10-14 15:15:01.024887,-41
2021-10-14 15:15:01.024895,-46
2021-10-14 15:15:01.024904,-41
2021-10-14 15:15:01.024912,-39
2021-10-14 15:15:01.024921,-49
2021-10-14 15:15:01.024929,-46
2021-10-14 15:15:01.024942,-39
2021-10-14 15:15:01.024950,-46
2021-10-14 15:15:01.024959,-44
2021-10-14 15:15:01.024968,-31
2021-10-14 15:15:01.024976,-19
2021-10-14 15:15:01.024985,4
2021-10-14 15:15:01.024994,41
2021-10-14 15:15:01.025003,51
2021-10-14 15:15:01.025011,14
2021-10-14 15:15:01.025020,-9
2021-10-14 15:15:01.025028,-7
2021-10-14 15:15:01.025037,-14
2021-10-14 15:15:01.025045,-7
2021-10-14 15:15:01.025053,2
2021-10-14 15:15:01.025062,-7
2021-10-14 15:15:01.025070,0
2021-10-14 15:15:01.025079,7
2021-10-14 15:15:01.025088,-7
2021-10-14 15:15:01.025096,19
2021-10-14 15:15:01.025105,115
2021-10-14 15:15:01.249445,306
2021-10-14 15:15:01.249466,593
2021-10-14 15:15:01.249476,684
2021-10-14 15:15:01.249485,208
2021-10-14 15:15:01.249494,-404
2021-10-14 15:15:01.249503,-289
2021-10-14 15:15:01.249511,137
2021-10-14 15:15:01.249520,88
2021-10-14 15:15:01.249528,-39
2021-10-14 15:15:01.249537,56
2021-10-14 15:15:01.249545,83
2021-10-14 15:15:01.249554,53
2021-10-14 15:15:01.249563,85
2021-10-14 15:15:01.249571,90
2021-10-14 15:15:01.249580,71
2021-10-14 15:15:01.249588,90
2021-10-14 15:15:01.249597,120
2021-10-14 15:15:01.249605,144
2021-10-14 15:15:01.249614,181
2021-10-14 15:15:01.249623,208
2021-10-14 15:15:01.249631,196
2021-10-14 15:15:01.249640,188
2021-10-14 15:15:01.249648,233
2021-10-14 15:15:01.249657,284
2021-10-14 15:15:01.249665,309
2021-10-14 15:15:01.249677,328
2021-10-14 15:15:01.249686,360
2021-10-14 15:15:01.249694,372
2021-10-14 15:15:01.249703,365
2021-10-14 15:15:01.249711,368
2021-10-14 15:15:01.519243,365
2021-10-14 15:15:01.519265,328
2021-10-14 15:15:01.519275,257
2021-10-14 15:15:01.519283,169
2021-10-14 15:15:01.519292,80
2021-10-14 15:15:01.519301,4
2021-10-14 15:15:01.519309,-68
2021-10-14 15:15:01.519318,-137
2021-10-14 15:15:01.519326,-169
2021-10-14 15:15:01.519335,-176
2021-10-14 15:15:01.519344,-181
2021-10-14 15:15:01.519352,-188
2021-10-14 15:15:01.519361,-203
2021-10-14 15:15:01.519369,-213
2021-10-14 15:15:01.519378,-208
2021-10-14 15:15:01.519387,-193
2021-10-14 15:15:01.519395,-176
2021-10-14 15:15:01.519404,-164
2021-10-14 15:15:01.519412,-157
2021-10-14 15:15:01.519420,-147
2021-10-14 15:15:01.519429,-130
2021-10-14 15:15:01.519437,-115
2021-10-14 15:15:01.519446,-107
2021-10-14 15:15:01.519455,-122
2021-10-14 15:15:01.519463,-137
2021-10-14 15:15:01.519471,-117
2021-10-14 15:15:01.519480,-100
2021-10-14 15:15:01.519489,-105
2021-10-14 15:15:01.519497,-103
2021-10-14 15:15:01.519506,-95
2021-10-14 15:15:01.744458,-90
2021-10-14 15:15:01.744479,-80
2021-10-14 15:15:01.744489,-83
2021-10-14 15:15:01.744497,-100
2021-10-14 15:15:01.744506,-100
2021-10-14 15:15:01.744514,-103
2021-10-14 15:15:01.744522,-115
2021-10-14 15:15:01.744531,-105
2021-10-14 15:15:01.744539,-90
2021-10-14 15:15:01.744547,-100
2021-10-14 15:15:01.744556,-100
2021-10-14 15:15:01.744564,-88
2021-10-14 15:15:01.744573,-90
2021-10-14 15:15:01.744581,-95
2021-10-14 15:15:01.744589,-88
2021-10-14 15:15:01.744597,-105
2021-10-14 15:15:01.744609,-122
2021-10-14 15:15:01.744617,-100
2021-10-14 15:15:01.744626,-61
2021-10-14 15:15:01.744634,-29
2021-10-14 15:15:01.744642,-9
2021-10-14 15:15:01.744651,-9
2021-10-14 15:15:01.744659,-29
2021-10-14 15:15:01.744667,-66
2021-10-14 15:15:01.744675,-73
2021-10-14 15:15:01.744683,-53
2021-10-14 15:15:01.744692,-49
2021-10-14 15:15:01.744700,-49
2021-10-14 15:15:01.744709,-41
2021-10-14 15:15:01.744717,-44
2021-10-14 15:15:01.924493,-51
2021-10-14 15:15:01.924513,-46
2021-10-14 15:15:01.924521,-19
2021-10-14 15:15:01.924528,66
2021-10-14 15:15:01.924535,284
2021-10-14 15:15:01.924542,561
2021-10-14 15:15:01.924549,552
2021-10-14 15:15:01.924556,-17
2021-10-14 15:15:01.924562,-537
2021-10-14 15:15:01.924569,-262
2021-10-14 15:15:01.924576,122
2021-10-14 15:15:01.924583,7
2021-10-14 15:15:01.924589,-53
2021-10-14 15:15:01.924596,68
2021-10-14 15:15:01.924603,68
2021-10-14 15:15:01.924610,41
2021-10-14 15:15:01.924616,68
2021-10-14 15:15:01.924623,53
2021-10-14 15:15:01.924630,58
2021-10-14 15:15:01.924637,117
2021-10-14 15:15:01.924644,127
2021-10-14 15:15:01.924650,105
2021-10-14 15:15:01.924657,127
2021-10-14 15:15:01.924664,161
2021-10-14 15:15:01.924671,186
2021-10-14 15:15:01.924678,225
2021-10-14 15:15:01.924685,267
2021-10-14 15:15:01.924691,279
2021-10-14 15:15:01.924698,301
2021-10-14 15:15:01.924705,353
2021-10-14 15:15:02.194339,380
2021-10-14 15:15:02.194362,365
2021-10-14 15:15:02.194371,368
2021-10-14 15:15:02.194380,380
2021-10-14 15:15:02.194389,350
2021-10-14 15:15:02.194397,279
2021-10-14 15:15:02.194406,211
2021-10-14 15:15:02.194415,127
2021-10-14 15:15:02.194424,24
2021-10-14 15:15:02.194432,-76
2021-10-14 15:15:02.194441,-142
2021-10-14 15:15:02.194450,-179
2021-10-14 15:15:02.194459,-225
2021-10-14 15:15:02.194472,-272
2021-10-14 15:15:02.194481,-284
2021-10-14 15:15:02.194490,-294
2021-10-14 15:15:02.194498,-299
2021-10-14 15:15:02.194507,-267
2021-10-14 15:15:02.194516,-240
2021-10-14 15:15:02.194524,-255
2021-10-14 15:15:02.194533,-255
2021-10-14 15:15:02.194542,-225
2021-10-14 15:15:02.194551,-208
2021-10-14 15:15:02.194560,-203
2021-10-14 15:15:02.194569,-191
2021-10-14 15:15:02.194577,-193
2021-10-14 15:15:02.194586,-220
2021-10-14 15:15:02.194595,-240
2021-10-14 15:15:02.194603,-272
2021-10-14 15:15:02.194612,-294
2021-10-14 15:15:02.463975,-238
2021-10-14 15:15:02.463997,-213
2021-10-14 15:15:02.464007,-218
2021-10-14 15:15:02.464015,-130
2021-10-14 15:15:02.464024,-80
2021-10-14 15:15:02.464033,-154
2021-10-14 15:15:02.464041,-184
2021-10-14 15:15:02.464050,-149
2021-10-14 15:15:02.464059,-161
2021-10-14 15:15:02.464067,-198
2021-10-14 15:15:02.464076,-201
2021-10-14 15:15:02.464084,-193
2021-10-14 15:15:02.464092,-179
2021-10-14 15:15:02.464101,-130
2021-10-14 15:15:02.464109,-117
2021-10-14 15:15:02.464118,-157
2021-10-14 15:15:02.464126,-179
2021-10-14 15:15:02.464135,-159
2021-10-14 15:15:02.464143,-127
2021-10-14 15:15:02.464152,-110
2021-10-14 15:15:02.464160,-90
2021-10-14 15:15:02.464168,-95
2021-10-14 15:15:02.464177,-137
2021-10-14 15:15:02.464185,-161
2021-10-14 15:15:02.464194,-176
2021-10-14 15:15:02.464202,-198
2021-10-14 15:15:02.464211,-186
2021-10-14 15:15:02.464220,-152
2021-10-14 15:15:02.464228,-149
2021-10-14 15:15:02.464237,-157
2021-10-14 15:15:02.689823,-134
2021-10-14 15:15:02.689844,-120
2021-10-14 15:15:02.689854,-112
2021-10-14 15:15:02.689863,-46
2021-10-14 15:15:02.689871,154
2021-10-14 15:15:02.689880,424
2021-10-14 15:15:02.689889,444
2021-10-14 15:15:02.689897,-73
2021-10-14 15:15:02.689906,-588
2021-10-14 15:15:02.689915,-363
2021-10-14 15:15:02.689924,24
2021-10-14 15:15:02.689932,-46
2021-10-14 15:15:02.689941,-105
2021-10-14 15:15:02.689949,4
2021-10-14 15:15:02.689958,2
2021-10-14 15:15:02.689966,-34
2021-10-14 15:15:02.689975,9
2021-10-14 15:15:02.689988,41
2021-10-14 15:15:02.689997,9
2021-10-14 15:15:02.690005,-9
2021-10-14 15:15:02.690014,12
2021-10-14 15:15:02.690023,29
2021-10-14 15:15:02.690031,46
2021-10-14 15:15:02.690040,66
2021-10-14 15:15:02.690048,85
2021-10-14 15:15:02.690057,120
2021-10-14 15:15:02.690065,137
2021-10-14 15:15:02.690074,144
2021-10-14 15:15:02.690082,184
2021-10-14 15:15:02.690091,240
2021-10-14 15:15:02.870799,279
2021-10-14 15:15:02.870821,296
2021-10-14 15:15:02.870831,274
2021-10-14 15:15:02.870840,247
2021-10-14 15:15:02.870849,242
2021-10-14 15:15:02.870857,223
2021-10-14 15:15:02.870866,152
2021-10-14 15:15:02.870875,34
2021-10-14 15:15:02.870883,-78
2021-10-14 15:15:02.870892,-154
2021-10-14 15:15:02.870901,-213
2021-10-14 15:15:02.870909,-260
2021-10-14 15:15:02.870918,-282
2021-10-14 15:15:02.870926,-289
2021-10-14 15:15:02.870935,-306
2021-10-14 15:15:02.870944,-326
2021-10-14 15:15:02.870952,-323
2021-10-14 15:15:02.870961,-304
2021-10-14 15:15:02.870969,-294
2021-10-14 15:15:02.870978,-316
2021-10-14 15:15:02.870987,-328
2021-10-14 15:15:02.870995,-291
2021-10-14 15:15:02.871004,-257
2021-10-14 15:15:02.871012,-255
2021-10-14 15:15:02.871021,-250
2021-10-14 15:15:02.871029,-240
2021-10-14 15:15:02.871038,-240
2021-10-14 15:15:02.871046,-233
2021-10-14 15:15:02.871055,-206
2021-10-14 15:15:02.871063,-193
2021-10-14 15:15:03.094876,-218
2021-10-14 15:15:03.094898,-242
2021-10-14 15:15:03.094907,-225
2021-10-14 15:15:03.094916,-208
2021-10-14 15:15:03.094924,-211
2021-10-14 15:15:03.094933,-223
2021-10-14 15:15:03.094942,-242
2021-10-14 15:15:03.094951,-240
2021-10-14 15:15:03.094959,-211
2021-10-14 15:15:03.094968,-201
2021-10-14 15:15:03.094976,-211
2021-10-14 15:15:03.094985,-203
2021-10-14 15:15:03.094993,-186
2021-10-14 15:15:03.095002,-206
2021-10-14 15:15:03.095011,-223
2021-10-14 15:15:03.095020,-186
2021-10-14 15:15:03.095028,-144
2021-10-14 15:15:03.095037,-137
2021-10-14 15:15:03.095045,-144
2021-10-14 15:15:03.095054,-147
2021-10-14 15:15:03.095062,-152
2021-10-14 15:15:03.095071,-154
2021-10-14 15:15:03.095079,-152
2021-10-14 15:15:03.095088,-142
2021-10-14 15:15:03.095097,-144
2021-10-14 15:15:03.095106,-166
2021-10-14 15:15:03.095114,-164
2021-10-14 15:15:03.095123,-152
2021-10-14 15:15:03.095131,-154
2021-10-14 15:15:03.095145,-149
2021-10-14 15:15:03.319479,-139
2021-10-14 15:15:03.319509,-80
2021-10-14 15:15:03.319519,154
2021-10-14 15:15:03.319528,424
2021-10-14 15:15:03.319537,341
2021-10-14 15:15:03.319546,-174
2021-10-14 15:15:03.319554,-527
2021-10-14 15:15:03.319563,-274
2021-10-14 15:15:03.319571,9
2021-10-14 15:15:03.319580,-56
2021-10-14 15:15:03.319589,-83
2021-10-14 15:15:03.319597,-4
2021-10-14 15:15:03.319605,-14
2021-10-14 15:15:03.319614,-44
2021-10-14 15:15:03.319622,-26
2021-10-14 15:15:03.319631,-2
2021-10-14 15:15:03.319640,26
2021-10-14 15:15:03.319648,53
2021-10-14 15:15:03.319656,53
2021-10-14 15:15:03.319665,53
2021-10-14 15:15:03.319674,88
2021-10-14 15:15:03.319682,127
2021-10-14 15:15:03.319690,130
2021-10-14 15:15:03.319699,137
2021-10-14 15:15:03.319707,184
2021-10-14 15:15:03.319716,228
2021-10-14 15:15:03.319724,238
2021-10-14 15:15:03.319733,255
2021-10-14 15:15:03.319741,291
2021-10-14 15:15:03.319750,304
2021-10-14 15:15:03.544547,294
2021-10-14 15:15:03.544568,282
2021-10-14 15:15:03.544578,252
2021-10-14 15:15:03.544586,211
2021-10-14 15:15:03.544595,144
2021-10-14 15:15:03.544604,39
2021-10-14 15:15:03.544612,-56
2021-10-14 15:15:03.544621,-125
2021-10-14 15:15:03.544629,-196
2021-10-14 15:15:03.544638,-257
2021-10-14 15:15:03.544647,-267
2021-10-14 15:15:03.544655,-264
2021-10-14 15:15:03.544664,-277
2021-10-14 15:15:03.544672,-264
2021-10-14 15:15:03.544681,-252
2021-10-14 15:15:03.544689,-269
2021-10-14 15:15:03.544698,-264
2021-10-14 15:15:03.544707,-233
2021-10-14 15:15:03.544715,-215
2021-10-14 15:15:03.544723,-213
2021-10-14 15:15:03.544732,-208
2021-10-14 15:15:03.544741,-198
2021-10-14 15:15:03.544749,-171
2021-10-14 15:15:03.544758,-154
2021-10-14 15:15:03.544766,-164
2021-10-14 15:15:03.544774,-164
2021-10-14 15:15:03.544783,-149
2021-10-14 15:15:03.544791,-152
2021-10-14 15:15:03.544800,-149
2021-10-14 15:15:03.544809,-130
2021-10-14 15:15:03.814504,-137
2021-10-14 15:15:03.814525,-159
2021-10-14 15:15:03.814535,-169
2021-10-14 15:15:03.814544,-169
2021-10-14 15:15:03.814552,-169
2021-10-14 15:15:03.814561,-171
2021-10-14 15:15:03.814569,-161
2021-10-14 15:15:03.814578,-154
2021-10-14 15:15:03.814587,-154
2021-10-14 15:15:03.814595,-149
2021-10-14 15:15:03.814604,-134
2021-10-14 15:15:03.814612,-115
2021-10-14 15:15:03.814621,-95
2021-10-14 15:15:03.814629,-93
2021-10-14 15:15:03.814639,-112
2021-10-14 15:15:03.814647,-134
2021-10-14 15:15:03.814656,-157
2021-10-14 15:15:03.814664,-149
2021-10-14 15:15:03.814672,-112
2021-10-14 15:15:03.814681,-105
2021-10-14 15:15:03.814695,-120
2021-10-14 15:15:03.814704,-117
2021-10-14 15:15:03.814712,-117
2021-10-14 15:15:03.814721,-112
2021-10-14 15:15:03.814729,-78
2021-10-14 15:15:03.814737,19
2021-10-14 15:15:03.814746,198
2021-10-14 15:15:03.814754,267
2021-10-14 15:15:03.814763,19
2021-10-14 15:15:03.814771,-377
2021-10-14 15:15:04.039267,-441
2021-10-14 15:15:04.039288,-120
2021-10-14 15:15:04.039298,46
2021-10-14 15:15:04.039307,-17
2021-10-14 15:15:04.039315,-7
2021-10-14 15:15:04.039324,36
2021-10-14 15:15:04.039333,26
2021-10-14 15:15:04.039341,24
2021-10-14 15:15:04.039350,41
2021-10-14 15:15:04.039359,49
2021-10-14 15:15:04.039367,66
2021-10-14 15:15:04.039376,83
2021-10-14 15:15:04.039384,90
2021-10-14 15:15:04.039393,88
2021-10-14 15:15:04.039401,103
2021-10-14 15:15:04.039410,154
2021-10-14 15:15:04.039418,171
2021-10-14 15:15:04.039427,152
2021-10-14 15:15:04.039435,188
2021-10-14 15:15:04.039443,250
2021-10-14 15:15:04.039452,264
2021-10-14 15:15:04.039460,252
2021-10-14 15:15:04.039469,257
2021-10-14 15:15:04.039477,289
2021-10-14 15:15:04.039486,301
2021-10-14 15:15:04.039494,255
2021-10-14 15:15:04.039502,206
2021-10-14 15:15:04.039511,157
2021-10-14 15:15:04.039519,68
2021-10-14 15:15:04.039527,-19
2021-10-14 15:15:04.353550,-80
2021-10-14 15:15:04.353571,-152
2021-10-14 15:15:04.353581,-208
2021-10-14 15:15:04.353590,-215
2021-10-14 15:15:04.353598,-211
2021-10-14 15:15:04.353607,-220
2021-10-14 15:15:04.353615,-235
2021-10-14 15:15:04.353624,-242
2021-10-14 15:15:04.353632,-235
2021-10-14 15:15:04.353641,-228
2021-10-14 15:15:04.353649,-215
2021-10-14 15:15:04.353658,-191
2021-10-14 15:15:04.353666,-176
2021-10-14 15:15:04.353675,-176
2021-10-14 15:15:04.353683,-164
2021-10-14 15:15:04.353692,-154
2021-10-14 15:15:04.353700,-147
2021-10-14 15:15:04.353709,-122
2021-10-14 15:15:04.353717,-103
2021-10-14 15:15:04.353726,-93
2021-10-14 15:15:04.353734,-83
2021-10-14 15:15:04.353742,-88
2021-10-14 15:15:04.353751,-100
2021-10-14 15:15:04.353759,-88
2021-10-14 15:15:04.353767,-63
2021-10-14 15:15:04.353776,-56
2021-10-14 15:15:04.353784,-71
2021-10-14 15:15:04.353793,-76
2021-10-14 15:15:04.353801,-61
2021-10-14 15:15:04.353809,-63
2021-10-14 15:15:04.489492,-85
2021-10-14 15:15:04.489512,-66
2021-10-14 15:15:04.489522,-22
2021-10-14 15:15:04.489531,-12
2021-10-14 15:15:04.489539,-12
2021-10-14 15:15:04.489548,-7
2021-10-14 15:15:04.489556,-9
2021-10-14 15:15:04.489565,-26
2021-10-14 15:15:04.489573,-46
2021-10-14 15:15:04.489581,-58
2021-10-14 15:15:04.489590,-51
2021-10-14 15:15:04.489598,-41
2021-10-14 15:15:04.489607,-39
2021-10-14 15:15:04.489615,-34
2021-10-14 15:15:04.489623,-39
2021-10-14 15:15:04.489631,-26
2021-10-14 15:15:04.489640,24
2021-10-14 15:15:04.489648,115
2021-10-14 15:15:04.489657,277
2021-10-14 15:15:04.489665,358
2021-10-14 15:15:04.489673,90
2021-10-14 15:15:04.489682,-358
2021-10-14 15:15:04.489693,-422
2021-10-14 15:15:04.489702,-61
2021-10-14 15:15:04.489711,117
2021-10-14 15:15:04.489719,41
2021-10-14 15:15:04.489727,53
2021-10-14 15:15:04.489736,85
2021-10-14 15:15:04.489744,78
2021-10-14 15:15:04.489752,115
2021-10-14 15:15:04.714505,139
2021-10-14 15:15:04.714527,127
2021-10-14 15:15:04.714537,137
2021-10-14 15:15:04.714546,154
2021-10-14 15:15:04.714555,164
2021-10-14 15:15:04.714563,184
2021-10-14 15:15:04.714572,208
2021-10-14 15:15:04.714580,223
2021-10-14 15:15:04.714589,235
2021-10-14 15:15:04.714597,262
2021-10-14 15:15:04.714606,282
2021-10-14 15:15:04.714614,289
2021-10-14 15:15:04.714623,314
2021-10-14 15:15:04.714631,343
2021-10-14 15:15:04.714640,341
2021-10-14 15:15:04.714649,321
2021-10-14 15:15:04.714657,321
2021-10-14 15:15:04.714665,309
2021-10-14 15:15:04.714674,267
2021-10-14 15:15:04.714682,213
2021-10-14 15:15:04.714691,137
2021-10-14 15:15:04.714699,41
2021-10-14 15:15:04.714708,-34
2021-10-14 15:15:04.714716,-83
2021-10-14 15:15:04.714725,-137
2021-10-14 15:15:04.714733,-179
2021-10-14 15:15:04.714742,-188
2021-10-14 15:15:04.714750,-179
2021-10-14 15:15:04.714758,-179
2021-10-14 15:15:04.714767,-184
2021-10-14 15:15:04.939911,-166
2021-10-14 15:15:04.939932,-154
2021-10-14 15:15:04.939942,-154
2021-10-14 15:15:04.939951,-144
2021-10-14 15:15:04.939959,-130
2021-10-14 15:15:04.939968,-115
2021-10-14 15:15:04.939977,-103
2021-10-14 15:15:04.939985,-103
2021-10-14 15:15:04.939993,-105
2021-10-14 15:15:04.940002,-98
2021-10-14 15:15:04.940010,-95
2021-10-14 15:15:04.940019,-95
2021-10-14 15:15:04.940027,-100
2021-10-14 15:15:04.940036,-115
2021-10-14 15:15:04.940044,-120
2021-10-14 15:15:04.940052,-110
2021-10-14 15:15:04.940061,-107
2021-10-14 15:15:04.940069,-110
2021-10-14 15:15:04.940078,-105
2021-10-14 15:15:04.940086,-105
2021-10-14 15:15:04.940094,-107
2021-10-14 15:15:04.940103,-98
2021-10-14 15:15:04.940111,-88
2021-10-14 15:15:04.940120,-88
2021-10-14 15:15:04.940128,-88
2021-10-14 15:15:04.940136,-76
2021-10-14 15:15:04.940145,-49
2021-10-14 15:15:04.940153,-34
2021-10-14 15:15:04.940162,-26
2021-10-14 15:15:04.940170,-17
2021-10-14 15:15:05.164559,-29
2021-10-14 15:15:05.164582,-49
2021-10-14 15:15:05.164594,-51
2021-10-14 15:15:05.164603,-53
2021-10-14 15:15:05.164612,-53
2021-10-14 15:15:05.164621,-51
2021-10-14 15:15:05.164629,-56
2021-10-14 15:15:05.164638,-61
2021-10-14 15:15:05.164646,-53
2021-10-14 15:15:05.164655,-34
2021-10-14 15:15:05.164664,22
2021-10-14 15:15:05.164672,149
2021-10-14 15:15:05.164681,333
2021-10-14 15:15:05.164689,372
2021-10-14 15:15:05.164698,68
2021-10-14 15:15:05.164706,-402
2021-10-14 15:15:05.164715,-478
2021-10-14 15:15:05.164724,-98
2021-10-14 15:15:05.164732,73
2021-10-14 15:15:05.164740,-26
2021-10-14 15:15:05.164749,4
2021-10-14 15:15:05.164757,68
2021-10-14 15:15:05.164766,49
2021-10-14 15:15:05.164774,61
2021-10-14 15:15:05.164783,95
2021-10-14 15:15:05.164791,95
2021-10-14 15:15:05.164800,105
2021-10-14 15:15:05.164808,127
2021-10-14 15:15:05.164817,147
2021-10-14 15:15:05.164825,166
2021-10-14 15:15:05.434924,188
2021-10-14 15:15:05.434945,213
2021-10-14 15:15:05.434955,238
2021-10-14 15:15:05.434964,260
2021-10-14 15:15:05.434973,296
2021-10-14 15:15:05.434984,323
2021-10-14 15:15:05.434993,331
2021-10-14 15:15:05.435002,348
2021-10-14 15:15:05.435010,365
2021-10-14 15:15:05.435019,360
2021-10-14 15:15:05.435027,345
2021-10-14 15:15:05.435036,326
2021-10-14 15:15:05.435044,289
2021-10-14 15:15:05.435053,240
2021-10-14 15:15:05.435061,174
2021-10-14 15:15:05.435069,93
2021-10-14 15:15:05.435078,12
2021-10-14 15:15:05.435086,-58
2021-10-14 15:15:05.435095,-105
2021-10-14 15:15:05.435103,-132
2021-10-14 15:15:05.435112,-157
2021-10-14 15:15:05.435120,-179
2021-10-14 15:15:05.435129,-176
2021-10-14 15:15:05.435137,-166
2021-10-14 15:15:05.435145,-166
2021-10-14 15:15:05.435154,-159
2021-10-14 15:15:05.435162,-152
2021-10-14 15:15:05.435171,-154
2021-10-14 15:15:05.435179,-147
2021-10-14 15:15:05.435188,-130
2021-10-14 15:15:05.658914,-117
2021-10-14 15:15:05.658933,-110
2021-10-14 15:15:05.658942,-115
2021-10-14 15:15:05.658951,-115
2021-10-14 15:15:05.658959,-110
2021-10-14 15:15:05.658968,-120
2021-10-14 15:15:05.658976,-127
2021-10-14 15:15:05.658984,-117
2021-10-14 15:15:05.658993,-110
2021-10-14 15:15:05.659001,-115
2021-10-14 15:15:05.659010,-115
2021-10-14 15:15:05.659018,-110
2021-10-14 15:15:05.659027,-100
2021-10-14 15:15:05.659035,-95
2021-10-14 15:15:05.659043,-105
2021-10-14 15:15:05.659052,-105
2021-10-14 15:15:05.659060,-98
2021-10-14 15:15:05.659068,-100
2021-10-14 15:15:05.659077,-103
2021-10-14 15:15:05.659085,-105
2021-10-14 15:15:05.659094,-98
2021-10-14 15:15:05.659102,-95
2021-10-14 15:15:05.659111,-107
2021-10-14 15:15:05.659119,-117
2021-10-14 15:15:05.659127,-105
2021-10-14 15:15:05.659136,-73
2021-10-14 15:15:05.659144,-39
2021-10-14 15:15:05.659152,-24
2021-10-14 15:15:05.659161,-24
2021-10-14 15:15:05.659169,-29
2021-10-14 15:15:05.839510,-44
2021-10-14 15:15:05.839531,-56
2021-10-14 15:15:05.839541,-56
2021-10-14 15:15:05.839550,-49
2021-10-14 15:15:05.839558,-49
2021-10-14 15:15:05.839567,-58
2021-10-14 15:15:05.839575,-53
2021-10-14 15:15:05.839584,-46
2021-10-14 15:15:05.839592,-34
2021-10-14 15:15:05.839600,2
2021-10-14 15:15:05.839609,95
2021-10-14 15:15:05.839618,309
2021-10-14 15:15:05.839626,498
2021-10-14 15:15:05.839635,341
2021-10-14 15:15:05.839643,-176
2021-10-14 15:15:05.839652,-483
2021-10-14 15:15:05.839660,-179
2021-10-14 15:15:05.839669,122
2021-10-14 15:15:05.839677,44
2021-10-14 15:15:05.839686,17
2021-10-14 15:15:05.839694,85
2021-10-14 15:15:05.839703,61
2021-10-14 15:15:05.839711,44
2021-10-14 15:15:05.839720,85
2021-10-14 15:15:05.839728,107
2021-10-14 15:15:05.839736,117
2021-10-14 15:15:05.839745,144
2021-10-14 15:15:05.839753,157
2021-10-14 15:15:05.839762,159
2021-10-14 15:15:05.839770,198
2021-10-14 15:15:06.064914,233
2021-10-14 15:15:06.064936,240
2021-10-14 15:15:06.064946,255
2021-10-14 15:15:06.064955,274
2021-10-14 15:15:06.064963,289
2021-10-14 15:15:06.064972,304
2021-10-14 15:15:06.064981,321
2021-10-14 15:15:06.064989,338
2021-10-14 15:15:06.064997,341
2021-10-14 15:15:06.065006,318
2021-10-14 15:15:06.065014,299
2021-10-14 15:15:06.065022,284
2021-10-14 15:15:06.065031,242
2021-10-14 15:15:06.065039,186
2021-10-14 15:15:06.065048,120
2021-10-14 15:15:06.065057,36
2021-10-14 15:15:06.065065,-24
2021-10-14 15:15:06.065074,-63
2021-10-14 15:15:06.065082,-112
2021-10-14 15:15:06.065090,-157
2021-10-14 15:15:06.065099,-184
2021-10-14 15:15:06.065107,-201
2021-10-14 15:15:06.065116,-206
2021-10-14 15:15:06.065124,-193
2021-10-14 15:15:06.065133,-179
2021-10-14 15:15:06.065141,-171
2021-10-14 15:15:06.065149,-171
2021-10-14 15:15:06.065158,-179
2021-10-14 15:15:06.065166,-176
2021-10-14 15:15:06.065175,-144
2021-10-14 15:15:06.378196,-130
2021-10-14 15:15:06.378221,-144
2021-10-14 15:15:06.378230,-137
2021-10-14 15:15:06.378239,-127
2021-10-14 15:15:06.378247,-144
2021-10-14 15:15:06.378256,-149
2021-10-14 15:15:06.378264,-132
2021-10-14 15:15:06.378273,-125
2021-10-14 15:15:06.378281,-132
2021-10-14 15:15:06.378289,-132
2021-10-14 15:15:06.378298,-125
2021-10-14 15:15:06.378307,-122
2021-10-14 15:15:06.378315,-125
2021-10-14 15:15:06.378323,-117
2021-10-14 15:15:06.378331,-105
2021-10-14 15:15:06.378340,-107
2021-10-14 15:15:06.378348,-120
2021-10-14 15:15:06.378356,-105
2021-10-14 15:15:06.378365,-76
2021-10-14 15:15:06.378373,-80
2021-10-14 15:15:06.378382,-93
2021-10-14 15:15:06.378390,-80
2021-10-14 15:15:06.378398,-73
2021-10-14 15:15:06.378407,-88
2021-10-14 15:15:06.378415,-100
2021-10-14 15:15:06.378423,-83
2021-10-14 15:15:06.378432,-51
2021-10-14 15:15:06.378440,-31
2021-10-14 15:15:06.378448,-19
2021-10-14 15:15:06.378457,-12
2021-10-14 15:15:06.559519,-9
2021-10-14 15:15:06.559540,-29
2021-10-14 15:15:06.559549,-56
2021-10-14 15:15:06.559558,-61
2021-10-14 15:15:06.559567,-41
2021-10-14 15:15:06.559575,-34
2021-10-14 15:15:06.559584,-41
2021-10-14 15:15:06.559593,-44
2021-10-14 15:15:06.559601,-49
2021-10-14 15:15:06.559610,-53
2021-10-14 15:15:06.559618,-19
2021-10-14 15:15:06.559626,100
2021-10-14 15:15:06.559635,331
2021-10-14 15:15:06.559644,554
2021-10-14 15:15:06.559652,471
2021-10-14 15:15:06.559660,-76
2021-10-14 15:15:06.559669,-515
2021-10-14 15:15:06.559677,-235
2021-10-14 15:15:06.559686,127
2021-10-14 15:15:06.559694,44
2021-10-14 15:15:06.559703,-24
2021-10-14 15:15:06.559711,63
2021-10-14 15:15:06.559719,76
2021-10-14 15:15:06.559728,51
2021-10-14 15:15:06.559736,71
2021-10-14 15:15:06.559744,93
2021-10-14 15:15:06.559753,112
2021-10-14 15:15:06.559761,120
2021-10-14 15:15:06.559770,130
2021-10-14 15:15:06.559778,154
2021-10-14 15:15:06.784915,186
2021-10-14 15:15:06.784937,203
2021-10-14 15:15:06.784946,201
2021-10-14 15:15:06.784955,211
2021-10-14 15:15:06.784964,257
2021-10-14 15:15:06.784972,296
2021-10-14 15:15:06.784981,309
2021-10-14 15:15:06.784989,323
2021-10-14 15:15:06.784998,341
2021-10-14 15:15:06.785006,333
2021-10-14 15:15:06.785015,316
2021-10-14 15:15:06.785023,309
2021-10-14 15:15:06.785032,289
2021-10-14 15:15:06.785040,255
2021-10-14 15:15:06.785049,198
2021-10-14 15:15:06.785057,125
2021-10-14 15:15:06.785065,56
2021-10-14 15:15:06.785074,-19
2021-10-14 15:15:06.785082,-100
2021-10-14 15:15:06.785091,-149
2021-10-14 15:15:06.785099,-171
2021-10-14 15:15:06.785108,-198
2021-10-14 15:15:06.785116,-220
2021-10-14 15:15:06.785125,-213
2021-10-14 15:15:06.785159,-196
2021-10-14 15:15:06.785173,-201
2021-10-14 15:15:06.785181,-213
2021-10-14 15:15:06.785202,-193
2021-10-14 15:15:06.785211,-171
2021-10-14 15:15:06.785234,-176
2021-10-14 15:15:07.009516,-181
2021-10-14 15:15:07.009536,-174
2021-10-14 15:15:07.009546,-154
2021-10-14 15:15:07.009555,-147
2021-10-14 15:15:07.009563,-161
2021-10-14 15:15:07.009572,-161
2021-10-14 15:15:07.009581,-137
2021-10-14 15:15:07.009589,-134
2021-10-14 15:15:07.009597,-154
2021-10-14 15:15:07.009606,-157
2021-10-14 15:15:07.009614,-144
2021-10-14 15:15:07.009622,-139
2021-10-14 15:15:07.009631,-147
2021-10-14 15:15:07.009639,-164
2021-10-14 15:15:07.009648,-159
2021-10-14 15:15:07.009656,-132
2021-10-14 15:15:07.009664,-125
2021-10-14 15:15:07.009673,-134
2021-10-14 15:15:07.009681,-134
2021-10-14 15:15:07.009690,-122
2021-10-14 15:15:07.009698,-117
2021-10-14 15:15:07.009707,-120
2021-10-14 15:15:07.009716,-112
2021-10-14 15:15:07.009724,-103
2021-10-14 15:15:07.009733,-98
2021-10-14 15:15:07.009741,-105
2021-10-14 15:15:07.009750,-107
2021-10-14 15:15:07.009758,-90
2021-10-14 15:15:07.009767,-49
2021-10-14 15:15:07.009775,-17
2021-10-14 15:15:07.234879,-19
2021-10-14 15:15:07.234900,-34
2021-10-14 15:15:07.234909,-51
2021-10-14 15:15:07.234918,-66
2021-10-14 15:15:07.234927,-68
2021-10-14 15:15:07.234936,-71
2021-10-14 15:15:07.234944,-73
2021-10-14 15:15:07.234953,-71
2021-10-14 15:15:07.234961,-76
2021-10-14 15:15:07.234970,-85
2021-10-14 15:15:07.234978,-78
2021-10-14 15:15:07.234990,-63
2021-10-14 15:15:07.234999,4
2021-10-14 15:15:07.235007,240
2021-10-14 15:15:07.235016,554
2021-10-14 15:15:07.235024,583
2021-10-14 15:15:07.235033,66
2021-10-14 15:15:07.235042,-505
2021-10-14 15:15:07.235050,-338
2021-10-14 15:15:07.235059,83
2021-10-14 15:15:07.235067,26
2021-10-14 15:15:07.235076,-66
2021-10-14 15:15:07.235084,49
2021-10-14 15:15:07.235092,63
2021-10-14 15:15:07.235101,19
2021-10-14 15:15:07.235109,53
2021-10-14 15:15:07.235118,78
2021-10-14 15:15:07.235126,68
2021-10-14 15:15:07.235135,88
2021-10-14 15:15:07.235143,120
2021-10-14 15:15:07.504872,139
2021-10-14 15:15:07.504891,161
2021-10-14 15:15:07.504901,181
2021-10-14 15:15:07.504910,193
2021-10-14 15:15:07.504919,215
2021-10-14 15:15:07.504927,235
2021-10-14 15:15:07.504935,250
2021-10-14 15:15:07.504944,282
2021-10-14 15:15:07.504952,311
2021-10-14 15:15:07.504961,316
2021-10-14 15:15:07.504969,306
2021-10-14 15:15:07.504978,296
2021-10-14 15:15:07.504986,284
2021-10-14 15:15:07.504995,269
2021-10-14 15:15:07.505003,240
2021-10-14 15:15:07.505012,188
2021-10-14 15:15:07.505020,112
2021-10-14 15:15:07.505029,26
2021-10-14 15:15:07.505037,-51
2021-10-14 15:15:07.505045,-117
2021-10-14 15:15:07.505054,-169
2021-10-14 15:15:07.505062,-211
2021-10-14 15:15:07.505070,-235
2021-10-14 15:15:07.505079,-242
2021-10-14 15:15:07.505087,-240
2021-10-14 15:15:07.505096,-230
2021-10-14 15:15:07.505104,-218
2021-10-14 15:15:07.505112,-213
2021-10-14 15:15:07.505121,-208
2021-10-14 15:15:07.505129,-193
2021-10-14 15:15:07.728803,-179
2021-10-14 15:15:07.728822,-169
2021-10-14 15:15:07.728832,-159
2021-10-14 15:15:07.728841,-152
2021-10-14 15:15:07.728850,-152
2021-10-14 15:15:07.728858,-152
2021-10-14 15:15:07.728866,-147
2021-10-14 15:15:07.728875,-139
2021-10-14 15:15:07.728883,-142
2021-10-14 15:15:07.728892,-149
2021-10-14 15:15:07.728900,-152
2021-10-14 15:15:07.728908,-149
2021-10-14 15:15:07.728917,-149
2021-10-14 15:15:07.728925,-152
2021-10-14 15:15:07.728933,-159
2021-10-14 15:15:07.728942,-164
2021-10-14 15:15:07.728950,-159
2021-10-14 15:15:07.728958,-154
2021-10-14 15:15:07.728967,-152
2021-10-14 15:15:07.728975,-149
2021-10-14 15:15:07.728984,-137
2021-10-14 15:15:07.728992,-134
2021-10-14 15:15:07.729000,-139
2021-10-14 15:15:07.729009,-130
2021-10-14 15:15:07.729017,-112
2021-10-14 15:15:07.729025,-112
2021-10-14 15:15:07.729033,-120
2021-10-14 15:15:07.729042,-112
2021-10-14 15:15:07.729050,-73
2021-10-14 15:15:07.729058,-29
2021-10-14 15:15:07.998898,-19
2021-10-14 15:15:07.998919,-34
2021-10-14 15:15:07.998929,-39
2021-10-14 15:15:07.998938,-51
2021-10-14 15:15:07.998946,-76
2021-10-14 15:15:07.998955,-76
2021-10-14 15:15:07.998963,-66
2021-10-14 15:15:07.998972,-68
2021-10-14 15:15:07.998980,-68
2021-10-14 15:15:07.998989,-68
2021-10-14 15:15:07.998997,-68
2021-10-14 15:15:07.999006,-46
2021-10-14 15:15:07.999014,7
2021-10-14 15:15:07.999022,164
2021-10-14 15:15:07.999031,471
2021-10-14 15:15:07.999039,677
2021-10-14 15:15:07.999048,390
2021-10-14 15:15:07.999056,-267
2021-10-14 15:15:07.999065,-439
2021-10-14 15:15:07.999073,-2
2021-10-14 15:15:07.999081,137
2021-10-14 15:15:07.999090,-39
2021-10-14 15:15:07.999098,2
2021-10-14 15:15:07.999107,85
2021-10-14 15:15:07.999115,51
2021-10-14 15:15:07.999124,53
2021-10-14 15:15:07.999132,90
2021-10-14 15:15:07.999140,93
2021-10-14 15:15:07.999149,100
2021-10-14 15:15:07.999157,134
2021-10-14 15:15:08.179825,159
2021-10-14 15:15:08.179846,176
2021-10-14 15:15:08.179856,193
2021-10-14 15:15:08.179865,206
2021-10-14 15:15:08.179873,223
2021-10-14 15:15:08.179882,257
2021-10-14 15:15:08.179890,284
2021-10-14 15:15:08.179899,306
2021-10-14 15:15:08.179907,321
2021-10-14 15:15:08.179916,323
2021-10-14 15:15:08.179924,323
2021-10-14 15:15:08.179932,321
2021-10-14 15:15:08.179941,311
2021-10-14 15:15:08.179949,296
2021-10-14 15:15:08.179958,267
2021-10-14 15:15:08.179966,215
2021-10-14 15:15:08.179975,154
2021-10-14 15:15:08.179983,83
2021-10-14 15:15:08.179992,9
2021-10-14 15:15:08.180001,-61
2021-10-14 15:15:08.180009,-137
2021-10-14 15:15:08.180018,-188
2021-10-14 15:15:08.180026,-201
2021-10-14 15:15:08.180035,-206
2021-10-14 15:15:08.180043,-215
2021-10-14 15:15:08.180051,-211
2021-10-14 15:15:08.180060,-203
2021-10-14 15:15:08.180068,-193
2021-10-14 15:15:08.180076,-181
2021-10-14 15:15:08.180085,-169
2021-10-14 15:15:08.673089,-157
2021-10-14 15:15:08.673111,-144
2021-10-14 15:15:08.673120,-139
2021-10-14 15:15:08.673129,-142
2021-10-14 15:15:08.673138,-134
2021-10-14 15:15:08.673146,-122
2021-10-14 15:15:08.673155,-115
2021-10-14 15:15:08.673168,-115
2021-10-14 15:15:08.673180,-125
2021-10-14 15:15:08.673189,-134
2021-10-14 15:15:08.673197,-130
2021-10-14 15:15:08.673241,-127
2021-10-14 15:15:08.673260,-132
2021-10-14 15:15:08.673270,-132
2021-10-14 15:15:08.673279,-137
2021-10-14 15:15:08.673288,-142
2021-10-14 15:15:08.673297,-132
2021-10-14 15:15:08.673306,-117
2021-10-14 15:15:08.673314,-117
2021-10-14 15:15:08.673323,-120
2021-10-14 15:15:08.673332,-120
2021-10-14 15:15:08.673340,-112
2021-10-14 15:15:08.673349,-105
2021-10-14 15:15:08.673358,-95
2021-10-14 15:15:08.673366,-85
2021-10-14 15:15:08.673375,-83
2021-10-14 15:15:08.673383,-88
2021-10-14 15:15:08.673392,-95
2021-10-14 15:15:08.673400,-90
2021-10-14 15:15:08.673408,-63
2021-10-14 15:15:08.808294,-26
2021-10-14 15:15:08.808312,-7
2021-10-14 15:15:08.808322,-7
2021-10-14 15:15:08.808331,-12
2021-10-14 15:15:08.808339,-26
2021-10-14 15:15:08.808348,-41
2021-10-14 15:15:08.808357,-46
2021-10-14 15:15:08.808365,-46
2021-10-14 15:15:08.808374,-44
2021-10-14 15:15:08.808382,-39
2021-10-14 15:15:08.808391,-36
2021-10-14 15:15:08.808400,-39
2021-10-14 15:15:08.808408,-36
2021-10-14 15:15:08.808417,-9
2021-10-14 15:15:08.808425,88
2021-10-14 15:15:08.808434,345
2021-10-14 15:15:08.808442,650
2021-10-14 15:15:08.808451,623
2021-10-14 15:15:08.808459,22
2021-10-14 15:15:08.808467,-512
2021-10-14 15:15:08.808476,-247
2021-10-14 15:15:08.808484,139
2021-10-14 15:15:08.808493,36
2021-10-14 15:15:08.808501,-31
2021-10-14 15:15:08.808509,73
2021-10-14 15:15:08.808518,63
2021-10-14 15:15:08.808526,14
2021-10-14 15:15:08.808535,46
2021-10-14 15:15:08.808543,73
2021-10-14 15:15:08.808551,78
2021-10-14 15:15:08.988933,90
2021-10-14 15:15:08.988954,103
2021-10-14 15:15:08.988964,110
2021-10-14 15:15:08.988972,127
2021-10-14 15:15:08.988981,152
2021-10-14 15:15:08.988990,171
2021-10-14 15:15:08.988998,191
2021-10-14 15:15:08.989007,215
2021-10-14 15:15:08.989016,242
2021-10-14 15:15:08.989024,267
2021-10-14 15:15:08.989032,287
2021-10-14 15:15:08.989041,304
2021-10-14 15:15:08.989049,304
2021-10-14 15:15:08.989058,287
2021-10-14 15:15:08.989066,274
2021-10-14 15:15:08.989075,255
2021-10-14 15:15:08.989083,218
2021-10-14 15:15:08.989092,169
2021-10-14 15:15:08.989100,95
2021-10-14 15:15:08.989108,4
2021-10-14 15:15:08.989117,-66
2021-10-14 15:15:08.989125,-117
2021-10-14 15:15:08.989134,-161
2021-10-14 15:15:08.989142,-193
2021-10-14 15:15:08.989151,-215
2021-10-14 15:15:08.989159,-230
2021-10-14 15:15:08.989168,-225
2021-10-14 15:15:08.989176,-218
2021-10-14 15:15:08.989185,-206
2021-10-14 15:15:08.989193,-196
2021-10-14 15:15:09.079935,-193
2021-10-14 15:15:09.079956,-186
2021-10-14 15:15:09.079964,-171
2021-10-14 15:15:09.079972,-164
2021-10-14 15:15:09.079980,-157
2021-10-14 15:15:09.079988,-147
2021-10-14 15:15:09.079996,-149
2021-10-14 15:15:09.080003,-157
2021-10-14 15:15:09.080011,-149
2021-10-14 15:15:09.080019,-142
2021-10-14 15:15:09.080027,-139
2021-10-14 15:15:09.080035,-142
2021-10-14 15:15:09.080043,-149
2021-10-14 15:15:09.080050,-152
2021-10-14 15:15:09.080058,-144
2021-10-14 15:15:09.080066,-139
2021-10-14 15:15:09.080074,-137
2021-10-14 15:15:09.080082,-137
2021-10-14 15:15:09.080090,-142
2021-10-14 15:15:09.080097,-134
2021-10-14 15:15:09.080108,-125
2021-10-14 15:15:09.080116,-117
2021-10-14 15:15:09.080123,-112
2021-10-14 15:15:09.080131,-110
2021-10-14 15:15:09.080139,-107
2021-10-14 15:15:09.080146,-103
2021-10-14 15:15:09.080154,-98
2021-10-14 15:15:09.080162,-95
2021-10-14 15:15:09.080170,-88
2021-10-14 15:15:09.080178,-93
2021-10-14 15:15:09.394940,-105
2021-10-14 15:15:09.394962,-105
2021-10-14 15:15:09.394971,-90
2021-10-14 15:15:09.394980,-56
2021-10-14 15:15:09.394989,-26
2021-10-14 15:15:09.394997,-34
2021-10-14 15:15:09.395006,-51
2021-10-14 15:15:09.395014,-56
2021-10-14 15:15:09.395023,-68
2021-10-14 15:15:09.395031,-80
2021-10-14 15:15:09.395040,-76
2021-10-14 15:15:09.395048,-71
2021-10-14 15:15:09.395057,-71
2021-10-14 15:15:09.395065,-66
2021-10-14 15:15:09.395074,-63
2021-10-14 15:15:09.395082,-61
2021-10-14 15:15:09.395091,-31
2021-10-14 15:15:09.395099,76
2021-10-14 15:15:09.395108,338
2021-10-14 15:15:09.395117,637
2021-10-14 15:15:09.395125,601
2021-10-14 15:15:09.395133,0
2021-10-14 15:15:09.395142,-534
2021-10-14 15:15:09.395151,-264
2021-10-14 15:15:09.395159,127
2021-10-14 15:15:09.395168,22
2021-10-14 15:15:09.395176,-56
2021-10-14 15:15:09.395184,41
2021-10-14 15:15:09.395192,39
2021-10-14 15:15:09.395201,9
2021-10-14 15:15:09.529559,51
2021-10-14 15:15:09.529580,76
2021-10-14 15:15:09.529590,71
2021-10-14 15:15:09.529599,83
2021-10-14 15:15:09.529607,98
2021-10-14 15:15:09.529616,105
2021-10-14 15:15:09.529624,130
2021-10-14 15:15:09.529633,164
2021-10-14 15:15:09.529641,186
2021-10-14 15:15:09.529650,206
2021-10-14 15:15:09.529658,230
2021-10-14 15:15:09.529667,255
2021-10-14 15:15:09.529675,284
2021-10-14 15:15:09.529683,306
2021-10-14 15:15:09.529692,316
2021-10-14 15:15:09.529700,321
2021-10-14 15:15:09.529708,314
2021-10-14 15:15:09.529717,296
2021-10-14 15:15:09.529725,282
2021-10-14 15:15:09.529733,257
2021-10-14 15:15:09.529742,201
2021-10-14 15:15:09.529750,117
2021-10-14 15:15:09.529759,22
2021-10-14 15:15:09.529770,-53
2021-10-14 15:15:09.529779,-100
2021-10-14 15:15:09.529787,-147
2021-10-14 15:15:09.529796,-186
2021-10-14 15:15:09.529804,-206
2021-10-14 15:15:09.529813,-208
2021-10-14 15:15:09.529821,-203
2021-10-14 15:15:09.798959,-196
2021-10-14 15:15:09.798979,-186
2021-10-14 15:15:09.798989,-174
2021-10-14 15:15:09.798998,-171
2021-10-14 15:15:09.799006,-169
2021-10-14 15:15:09.799015,-154
2021-10-14 15:15:09.799023,-147
2021-10-14 15:15:09.799032,-154
2021-10-14 15:15:09.799040,-157
2021-10-14 15:15:09.799048,-152
2021-10-14 15:15:09.799057,-152
2021-10-14 15:15:09.799065,-149
2021-10-14 15:15:09.799074,-137
2021-10-14 15:15:09.799082,-132
2021-10-14 15:15:09.799090,-137
2021-10-14 15:15:09.799099,-139
2021-10-14 15:15:09.799107,-132
2021-10-14 15:15:09.799116,-127
2021-10-14 15:15:09.799124,-127
2021-10-14 15:15:09.799133,-125
2021-10-14 15:15:09.799141,-115
2021-10-14 15:15:09.799149,-115
2021-10-14 15:15:09.799158,-122
2021-10-14 15:15:09.799166,-120
2021-10-14 15:15:09.799175,-115
2021-10-14 15:15:09.799183,-107
2021-10-14 15:15:09.799192,-103
2021-10-14 15:15:09.799200,-103
2021-10-14 15:15:09.799208,-100
2021-10-14 15:15:09.799217,-90
2021-10-14 15:15:10.024955,-83
2021-10-14 15:15:10.024974,-78
2021-10-14 15:15:10.024984,-73
2021-10-14 15:15:10.024993,-88
2021-10-14 15:15:10.025002,-105
2021-10-14 15:15:10.025010,-98
2021-10-14 15:15:10.025019,-66
2021-10-14 15:15:10.025027,-29
2021-10-14 15:15:10.025035,-7
2021-10-14 15:15:10.025044,-14
2021-10-14 15:15:10.025052,-24
2021-10-14 15:15:10.025061,-31
2021-10-14 15:15:10.025069,-46
2021-10-14 15:15:10.025078,-51
2021-10-14 15:15:10.025086,-46
2021-10-14 15:15:10.025094,-49
2021-10-14 15:15:10.025103,-46
2021-10-14 15:15:10.025111,-36
2021-10-14 15:15:10.025120,-31
2021-10-14 15:15:10.025128,-34
2021-10-14 15:15:10.025136,-12
2021-10-14 15:15:10.025145,100
2021-10-14 15:15:10.025153,382
2021-10-14 15:15:10.025162,689
2021-10-14 15:15:10.025170,620
2021-10-14 15:15:10.025179,-36
2021-10-14 15:15:10.025187,-532
2021-10-14 15:15:10.025196,-196
2021-10-14 15:15:10.025204,149
2021-10-14 15:15:10.025213,0
2021-10-14 15:15:10.249612,-49
2021-10-14 15:15:10.249634,56
2021-10-14 15:15:10.249643,31
2021-10-14 15:15:10.249651,4
2021-10-14 15:15:10.249658,49
2021-10-14 15:15:10.249665,58
2021-10-14 15:15:10.249673,51
2021-10-14 15:15:10.249680,76
2021-10-14 15:15:10.249688,90
2021-10-14 15:15:10.249694,90
2021-10-14 15:15:10.249701,120
2021-10-14 15:15:10.249708,157
2021-10-14 15:15:10.249714,174
2021-10-14 15:15:10.249721,186
2021-10-14 15:15:10.249728,201
2021-10-14 15:15:10.249736,225
2021-10-14 15:15:10.249743,257
2021-10-14 15:15:10.249750,287
2021-10-14 15:15:10.249757,304
2021-10-14 15:15:10.249764,309
2021-10-14 15:15:10.249771,301
2021-10-14 15:15:10.249778,289
2021-10-14 15:15:10.249785,272
2021-10-14 15:15:10.249793,242
2021-10-14 15:15:10.249801,191
2021-10-14 15:15:10.249809,112
2021-10-14 15:15:10.249817,24
2021-10-14 15:15:10.249825,-56
2021-10-14 15:15:10.249834,-120
2021-10-14 15:15:10.249842,-164
2021-10-14 15:15:10.563623,-186
2021-10-14 15:15:10.563644,-203
2021-10-14 15:15:10.563654,-215
2021-10-14 15:15:10.563662,-215
2021-10-14 15:15:10.563671,-203
2021-10-14 15:15:10.563680,-191
2021-10-14 15:15:10.563688,-176
2021-10-14 15:15:10.563697,-169
2021-10-14 15:15:10.563705,-164
2021-10-14 15:15:10.563714,-154
2021-10-14 15:15:10.563722,-137
2021-10-14 15:15:10.563731,-130
2021-10-14 15:15:10.563739,-125
2021-10-14 15:15:10.563748,-125
2021-10-14 15:15:10.563756,-132
2021-10-14 15:15:10.563765,-130
2021-10-14 15:15:10.563773,-115
2021-10-14 15:15:10.563781,-105
2021-10-14 15:15:10.563790,-110
2021-10-14 15:15:10.563798,-115
2021-10-14 15:15:10.563806,-115
2021-10-14 15:15:10.563815,-117
2021-10-14 15:15:10.563823,-115
2021-10-14 15:15:10.563831,-103
2021-10-14 15:15:10.563840,-93
2021-10-14 15:15:10.563848,-93
2021-10-14 15:15:10.563856,-95
2021-10-14 15:15:10.563865,-98
2021-10-14 15:15:10.563873,-95
2021-10-14 15:15:10.563882,-90
2021-10-14 15:15:10.699579,-95
2021-10-14 15:15:10.699600,-93
2021-10-14 15:15:10.699609,-80
2021-10-14 15:15:10.699618,-76
2021-10-14 15:15:10.699626,-73
2021-10-14 15:15:10.699635,-68
2021-10-14 15:15:10.699643,-68
2021-10-14 15:15:10.699652,-73
2021-10-14 15:15:10.699660,-71
2021-10-14 15:15:10.699669,-63
2021-10-14 15:15:10.699677,-68
2021-10-14 15:15:10.699686,-80
2021-10-14 15:15:10.699694,-73
2021-10-14 15:15:10.699703,-36
2021-10-14 15:15:10.699711,0
2021-10-14 15:15:10.699720,7
2021-10-14 15:15:10.699729,-2
2021-10-14 15:15:10.699737,-14
2021-10-14 15:15:10.699745,-39
2021-10-14 15:15:10.699754,-58
2021-10-14 15:15:10.699762,-58
2021-10-14 15:15:10.699771,-49
2021-10-14 15:15:10.699779,-39
2021-10-14 15:15:10.699788,-29
2021-10-14 15:15:10.699796,-26
2021-10-14 15:15:10.699805,-31
2021-10-14 15:15:10.699813,-22
2021-10-14 15:15:10.699821,49
2021-10-14 15:15:10.699830,267
2021-10-14 15:15:10.699838,613
2021-10-14 15:15:10.924594,785
2021-10-14 15:15:10.924621,333
2021-10-14 15:15:10.924630,-434
2021-10-14 15:15:10.924639,-458
2021-10-14 15:15:10.924648,51
2021-10-14 15:15:10.924656,83
2021-10-14 15:15:10.924665,-90
2021-10-14 15:15:10.924673,-14
2021-10-14 15:15:10.924681,24
2021-10-14 15:15:10.924690,-26
2021-10-14 15:15:10.924698,9
2021-10-14 15:15:10.924707,53
2021-10-14 15:15:10.924716,34
2021-10-14 15:15:10.924724,41
2021-10-14 15:15:10.924732,80
2021-10-14 15:15:10.924741,98
2021-10-14 15:15:10.924749,112
2021-10-14 15:15:10.924758,149
2021-10-14 15:15:10.924766,174
2021-10-14 15:15:10.924775,191
2021-10-14 15:15:10.924783,223
2021-10-14 15:15:10.924791,262
2021-10-14 15:15:10.924799,291
2021-10-14 15:15:10.924808,316
2021-10-14 15:15:10.924816,336
2021-10-14 15:15:10.924825,348
2021-10-14 15:15:10.924833,345
2021-10-14 15:15:10.924841,341
2021-10-14 15:15:10.924850,333
2021-10-14 15:15:10.924861,309
2021-10-14 15:15:11.194965,262
2021-10-14 15:15:11.194985,191
2021-10-14 15:15:11.194994,105
2021-10-14 15:15:11.195003,19
2021-10-14 15:15:11.195012,-53
2021-10-14 15:15:11.195021,-115
2021-10-14 15:15:11.195029,-159
2021-10-14 15:15:11.195038,-184
2021-10-14 15:15:11.195046,-198
2021-10-14 15:15:11.195055,-206
2021-10-14 15:15:11.195063,-196
2021-10-14 15:15:11.195072,-188
2021-10-14 15:15:11.195080,-184
2021-10-14 15:15:11.195089,-171
2021-10-14 15:15:11.195097,-161
2021-10-14 15:15:11.195106,-152
2021-10-14 15:15:11.195114,-137
2021-10-14 15:15:11.195122,-134
2021-10-14 15:15:11.195131,-134
2021-10-14 15:15:11.195139,-125
2021-10-14 15:15:11.195148,-117
2021-10-14 15:15:11.195156,-117
2021-10-14 15:15:11.195164,-122
2021-10-14 15:15:11.195173,-120
2021-10-14 15:15:11.195181,-125
2021-10-14 15:15:11.195190,-142
2021-10-14 15:15:11.195198,-144
2021-10-14 15:15:11.195206,-132
2021-10-14 15:15:11.195215,-130
2021-10-14 15:15:11.195223,-130
2021-10-14 15:15:11.374962,-122
2021-10-14 15:15:11.374983,-117
2021-10-14 15:15:11.374993,-120
2021-10-14 15:15:11.375001,-117
2021-10-14 15:15:11.375010,-110
2021-10-14 15:15:11.375018,-103
2021-10-14 15:15:11.375027,-100
2021-10-14 15:15:11.375035,-105
2021-10-14 15:15:11.375044,-110
2021-10-14 15:15:11.375052,-103
2021-10-14 15:15:11.375061,-98
2021-10-14 15:15:11.375069,-100
2021-10-14 15:15:11.375078,-90
2021-10-14 15:15:11.375086,-80
2021-10-14 15:15:11.375095,-83
2021-10-14 15:15:11.375103,-88
2021-10-14 15:15:11.375111,-71
2021-10-14 15:15:11.375120,-34
2021-10-14 15:15:11.375128,-4
2021-10-14 15:15:11.375137,-14
2021-10-14 15:15:11.375145,-39
2021-10-14 15:15:11.375153,-56
2021-10-14 15:15:11.375162,-58
2021-10-14 15:15:11.375170,-63
2021-10-14 15:15:11.375179,-61
2021-10-14 15:15:11.375187,-49
2021-10-14 15:15:11.375195,-44
2021-10-14 15:15:11.375204,-51
2021-10-14 15:15:11.375212,-53
2021-10-14 15:15:11.375221,-51
2021-10-14 15:15:11.644590,-31
2021-10-14 15:15:11.644612,100
2021-10-14 15:15:11.644621,431
2021-10-14 15:15:11.644630,772
2021-10-14 15:15:11.644638,608
2021-10-14 15:15:11.644647,-201
2021-10-14 15:15:11.644655,-647
2021-10-14 15:15:11.644664,-186
2021-10-14 15:15:11.644672,115
2021-10-14 15:15:11.644681,-68
2021-10-14 15:15:11.644689,-78
2021-10-14 15:15:11.644698,14
2021-10-14 15:15:11.644706,-24
2021-10-14 15:15:11.644714,-24
2021-10-14 15:15:11.644723,34
2021-10-14 15:15:11.644731,44
2021-10-14 15:15:11.644739,51
2021-10-14 15:15:11.644748,83
2021-10-14 15:15:11.644756,95
2021-10-14 15:15:11.644764,107
2021-10-14 15:15:11.644773,137
2021-10-14 15:15:11.644781,166
2021-10-14 15:15:11.644789,198
2021-10-14 15:15:11.644798,238
2021-10-14 15:15:11.644806,274
2021-10-14 15:15:11.644815,311
2021-10-14 15:15:11.644823,343
2021-10-14 15:15:11.644832,368
2021-10-14 15:15:11.644840,390
2021-10-14 15:15:11.644848,399
2021-10-14 15:15:11.869974,380
2021-10-14 15:15:11.869995,355
2021-10-14 15:15:11.870005,341
2021-10-14 15:15:11.870014,291
2021-10-14 15:15:11.870022,201
2021-10-14 15:15:11.870031,112
2021-10-14 15:15:11.870039,26
2021-10-14 15:15:11.870048,-56
2021-10-14 15:15:11.870057,-125
2021-10-14 15:15:11.870065,-179
2021-10-14 15:15:11.870074,-220
2021-10-14 15:15:11.870082,-228
2021-10-14 15:15:11.870091,-220
2021-10-14 15:15:11.870099,-215
2021-10-14 15:15:11.870107,-211
2021-10-14 15:15:11.870116,-225
2021-10-14 15:15:11.870124,-225
2021-10-14 15:15:11.870133,-191
2021-10-14 15:15:11.870141,-164
2021-10-14 15:15:11.870150,-157
2021-10-14 15:15:11.870158,-157
2021-10-14 15:15:11.870167,-154
2021-10-14 15:15:11.870175,-142
2021-10-14 15:15:11.870183,-127
2021-10-14 15:15:11.870192,-120
2021-10-14 15:15:11.870200,-112
2021-10-14 15:15:11.870209,-115
2021-10-14 15:15:11.870217,-112
2021-10-14 15:15:11.870225,-103
2021-10-14 15:15:11.870234,-103
2021-10-14 15:15:12.139601,-103
2021-10-14 15:15:12.139622,-98
2021-10-14 15:15:12.139631,-105
2021-10-14 15:15:12.139640,-107
2021-10-14 15:15:12.139649,-98
2021-10-14 15:15:12.139658,-98
2021-10-14 15:15:12.139666,-93
2021-10-14 15:15:12.139675,-78
2021-10-14 15:15:12.139683,-93
2021-10-14 15:15:12.139692,-112
2021-10-14 15:15:12.139700,-98
2021-10-14 15:15:12.139709,-71
2021-10-14 15:15:12.139717,-46
2021-10-14 15:15:12.139726,-22
2021-10-14 15:15:12.139735,-19
2021-10-14 15:15:12.139743,-34
2021-10-14 15:15:12.139752,-51
2021-10-14 15:15:12.139760,-71
2021-10-14 15:15:12.139769,-76
2021-10-14 15:15:12.139778,-63
2021-10-14 15:15:12.139786,-63
2021-10-14 15:15:12.139795,-73
2021-10-14 15:15:12.139803,-66
2021-10-14 15:15:12.139812,-51
2021-10-14 15:15:12.139820,-51
2021-10-14 15:15:12.139829,-56
2021-10-14 15:15:12.139838,-29
2021-10-14 15:15:12.139846,105
2021-10-14 15:15:12.139855,441
2021-10-14 15:15:12.139863,767
2021-10-14 15:15:12.320017,552
2021-10-14 15:15:12.320039,-238
2021-10-14 15:15:12.320048,-591
2021-10-14 15:15:12.320056,-127
2021-10-14 15:15:12.320063,139
2021-10-14 15:15:12.320070,-24
2021-10-14 15:15:12.320076,-24
2021-10-14 15:15:12.320084,41
2021-10-14 15:15:12.320092,-9
2021-10-14 15:15:12.320099,-7
2021-10-14 15:15:12.320107,53
2021-10-14 15:15:12.320114,71
2021-10-14 15:15:12.320122,76
2021-10-14 15:15:12.320130,90
2021-10-14 15:15:12.320138,98
2021-10-14 15:15:12.320145,112
2021-10-14 15:15:12.320152,152
2021-10-14 15:15:12.320160,186
2021-10-14 15:15:12.320168,215
2021-10-14 15:15:12.320175,250
2021-10-14 15:15:12.320183,277
2021-10-14 15:15:12.320191,311
2021-10-14 15:15:12.320199,358
2021-10-14 15:15:12.320207,380
2021-10-14 15:15:12.320215,382
2021-10-14 15:15:12.320223,397
2021-10-14 15:15:12.320232,402
2021-10-14 15:15:12.320240,382
2021-10-14 15:15:12.320253,358
2021-10-14 15:15:12.320261,316
2021-10-14 15:15:12.678826,230
2021-10-14 15:15:12.678847,130
2021-10-14 15:15:12.678856,44
2021-10-14 15:15:12.678864,-41
2021-10-14 15:15:12.678872,-103
2021-10-14 15:15:12.678879,-139
2021-10-14 15:15:12.678887,-171
2021-10-14 15:15:12.678895,-184
2021-10-14 15:15:12.678902,-179
2021-10-14 15:15:12.678911,-184
2021-10-14 15:15:12.678918,-176
2021-10-14 15:15:12.678927,-152
2021-10-14 15:15:12.678935,-147
2021-10-14 15:15:12.678943,-152
2021-10-14 15:15:12.678951,-144
2021-10-14 15:15:12.678959,-132
2021-10-14 15:15:12.678968,-120
2021-10-14 15:15:12.678975,-110
2021-10-14 15:15:12.678983,-110
2021-10-14 15:15:12.678990,-105
2021-10-14 15:15:12.678997,-98
2021-10-14 15:15:12.679005,-100
2021-10-14 15:15:12.679013,-93
2021-10-14 15:15:12.679021,-80
2021-10-14 15:15:12.679029,-80
2021-10-14 15:15:12.679037,-85
2021-10-14 15:15:12.679045,-90
2021-10-14 15:15:12.679053,-98
2021-10-14 15:15:12.679064,-90
2021-10-14 15:15:12.679072,-73
2021-10-14 15:15:12.769541,-76
2021-10-14 15:15:12.769561,-80
2021-10-14 15:15:12.769571,-63
2021-10-14 15:15:12.769579,-66
2021-10-14 15:15:12.769588,-76
2021-10-14 15:15:12.769596,-66
2021-10-14 15:15:12.769605,-63
2021-10-14 15:15:12.769614,-71
2021-10-14 15:15:12.769622,-78
2021-10-14 15:15:12.769630,-49
2021-10-14 15:15:12.769639,7
2021-10-14 15:15:12.769647,14
2021-10-14 15:15:12.769656,-26
2021-10-14 15:15:12.769664,-41
2021-10-14 15:15:12.769673,-41
2021-10-14 15:15:12.769681,-63
2021-10-14 15:15:12.769689,-76
2021-10-14 15:15:12.769698,-61
2021-10-14 15:15:12.769706,-56
2021-10-14 15:15:12.769714,-56
2021-10-14 15:15:12.769723,-58
2021-10-14 15:15:12.769731,-61
2021-10-14 15:15:12.769740,-46
2021-10-14 15:15:12.769748,-36
2021-10-14 15:15:12.769757,17
2021-10-14 15:15:12.769765,260
2021-10-14 15:15:12.769773,647
2021-10-14 15:15:12.769782,790
2021-10-14 15:15:12.769790,255
2021-10-14 15:15:12.769798,-485
2021-10-14 15:15:12.994966,-399
2021-10-14 15:15:12.994987,105
2021-10-14 15:15:12.994997,76
2021-10-14 15:15:12.995006,-76
2021-10-14 15:15:12.995015,34
2021-10-14 15:15:12.995023,63
2021-10-14 15:15:12.995032,-2
2021-10-14 15:15:12.995040,26
2021-10-14 15:15:12.995049,63
2021-10-14 15:15:12.995057,49
2021-10-14 15:15:12.995065,63
2021-10-14 15:15:12.995074,90
2021-10-14 15:15:12.995082,93
2021-10-14 15:15:12.995091,100
2021-10-14 15:15:12.995099,137
2021-10-14 15:15:12.995107,179
2021-10-14 15:15:12.995116,206
2021-10-14 15:15:12.995124,220
2021-10-14 15:15:12.995133,250
2021-10-14 15:15:12.995141,296
2021-10-14 15:15:12.995149,328
2021-10-14 15:15:12.995158,343
2021-10-14 15:15:12.995166,353
2021-10-14 15:15:12.995175,353
2021-10-14 15:15:12.995183,348
2021-10-14 15:15:12.995191,336
2021-10-14 15:15:12.995200,299
2021-10-14 15:15:12.995208,240
2021-10-14 15:15:12.995217,147
2021-10-14 15:15:12.995225,44
2021-10-14 15:15:13.309400,-34
2021-10-14 15:15:13.309421,-103
2021-10-14 15:15:13.309431,-154
2021-10-14 15:15:13.309439,-176
2021-10-14 15:15:13.309448,-201
2021-10-14 15:15:13.309456,-230
2021-10-14 15:15:13.309465,-228
2021-10-14 15:15:13.309473,-211
2021-10-14 15:15:13.309482,-206
2021-10-14 15:15:13.309490,-196
2021-10-14 15:15:13.309499,-184
2021-10-14 15:15:13.309507,-184
2021-10-14 15:15:13.309516,-174
2021-10-14 15:15:13.309524,-157
2021-10-14 15:15:13.309532,-139
2021-10-14 15:15:13.309541,-130
2021-10-14 15:15:13.309549,-127
2021-10-14 15:15:13.309558,-134
2021-10-14 15:15:13.309566,-142
2021-10-14 15:15:13.309574,-137
2021-10-14 15:15:13.309583,-127
2021-10-14 15:15:13.309591,-122
2021-10-14 15:15:13.309599,-117
2021-10-14 15:15:13.309608,-117
2021-10-14 15:15:13.309616,-125
2021-10-14 15:15:13.309624,-122
2021-10-14 15:15:13.309632,-115
2021-10-14 15:15:13.309641,-117
2021-10-14 15:15:13.309649,-117
2021-10-14 15:15:13.309658,-117
2021-10-14 15:15:13.444691,-115
2021-10-14 15:15:13.444713,-103
2021-10-14 15:15:13.444723,-93
2021-10-14 15:15:13.444731,-90
2021-10-14 15:15:13.444740,-100
2021-10-14 15:15:13.444749,-110
2021-10-14 15:15:13.444757,-95
2021-10-14 15:15:13.444766,-73
2021-10-14 15:15:13.444775,-88
2021-10-14 15:15:13.444783,-110
2021-10-14 15:15:13.444792,-100
2021-10-14 15:15:13.444800,-71
2021-10-14 15:15:13.444809,-34
2021-10-14 15:15:13.444818,-4
2021-10-14 15:15:13.444826,7
2021-10-14 15:15:13.444835,0
2021-10-14 15:15:13.444843,-34
2021-10-14 15:15:13.444852,-53
2021-10-14 15:15:13.444860,-56
2021-10-14 15:15:13.444869,-56
2021-10-14 15:15:13.444878,-51
2021-10-14 15:15:13.444886,-41
2021-10-14 15:15:13.444895,-39
2021-10-14 15:15:13.444903,-39
2021-10-14 15:15:13.444911,-46
2021-10-14 15:15:13.444920,-46
2021-10-14 15:15:13.444928,29
2021-10-14 15:15:13.444937,257
2021-10-14 15:15:13.444945,613
2021-10-14 15:15:13.444954,821
2021-10-14 15:15:13.759453,412
2021-10-14 15:15:13.759475,-372
2021-10-14 15:15:13.759485,-451
2021-10-14 15:15:13.759493,41
2021-10-14 15:15:13.759502,85
2021-10-14 15:15:13.759510,-80
2021-10-14 15:15:13.759519,9
2021-10-14 15:15:13.759527,66
2021-10-14 15:15:13.759536,2
2021-10-14 15:15:13.759544,17
2021-10-14 15:15:13.759553,66
2021-10-14 15:15:13.759561,53
2021-10-14 15:15:13.759570,49
2021-10-14 15:15:13.759578,90
2021-10-14 15:15:13.759587,110
2021-10-14 15:15:13.759595,107
2021-10-14 15:15:13.759604,130
2021-10-14 15:15:13.759612,164
2021-10-14 15:15:13.759621,188
2021-10-14 15:15:13.759629,225
2021-10-14 15:15:13.759638,264
2021-10-14 15:15:13.759647,291
2021-10-14 15:15:13.759655,316
2021-10-14 15:15:13.759664,338
2021-10-14 15:15:13.759672,343
2021-10-14 15:15:13.759680,348
2021-10-14 15:15:13.759689,348
2021-10-14 15:15:13.759697,338
2021-10-14 15:15:13.759706,311
2021-10-14 15:15:13.759714,252
2021-10-14 15:15:13.984648,171
2021-10-14 15:15:13.984683,83
2021-10-14 15:15:13.984693,-22
2021-10-14 15:15:13.984702,-115
2021-10-14 15:15:13.984710,-157
2021-10-14 15:15:13.984719,-184
2021-10-14 15:15:13.984727,-206
2021-10-14 15:15:13.984736,-213
2021-10-14 15:15:13.984745,-220
2021-10-14 15:15:13.984753,-223
2021-10-14 15:15:13.984762,-211
2021-10-14 15:15:13.984770,-206
2021-10-14 15:15:13.984779,-201
2021-10-14 15:15:13.984787,-188
2021-10-14 15:15:13.984796,-181
2021-10-14 15:15:13.984804,-176
2021-10-14 15:15:13.984813,-166
2021-10-14 15:15:13.984821,-149
2021-10-14 15:15:13.984830,-139
2021-10-14 15:15:13.984838,-137
2021-10-14 15:15:13.984846,-125
2021-10-14 15:15:13.984855,-117
2021-10-14 15:15:13.984863,-122
2021-10-14 15:15:13.984872,-115
2021-10-14 15:15:13.984880,-103
2021-10-14 15:15:13.984888,-110
2021-10-14 15:15:13.984897,-110
2021-10-14 15:15:13.984905,-105
2021-10-14 15:15:13.984913,-125
2021-10-14 15:15:13.984922,-132
2021-10-14 15:15:14.210016,-110
2021-10-14 15:15:14.210037,-103
2021-10-14 15:15:14.210047,-115
2021-10-14 15:15:14.210055,-115
2021-10-14 15:15:14.210064,-110
2021-10-14 15:15:14.210072,-98
2021-10-14 15:15:14.210081,-78
2021-10-14 15:15:14.210089,-83
2021-10-14 15:15:14.210098,-98
2021-10-14 15:15:14.210106,-78
2021-10-14 15:15:14.210114,-68
2021-10-14 15:15:14.210123,-93
2021-10-14 15:15:14.210131,-83
2021-10-14 15:15:14.210140,-56
2021-10-14 15:15:14.210148,-66
2021-10-14 15:15:14.210156,-78
2021-10-14 15:15:14.210165,-61
2021-10-14 15:15:14.210173,-58
2021-10-14 15:15:14.210182,-68
2021-10-14 15:15:14.210190,-63
2021-10-14 15:15:14.210199,-39
2021-10-14 15:15:14.210207,2
2021-10-14 15:15:14.210216,26
2021-10-14 15:15:14.210224,14
2021-10-14 15:15:14.210232,-12
2021-10-14 15:15:14.210241,-34
2021-10-14 15:15:14.210249,-41
2021-10-14 15:15:14.210257,-44
2021-10-14 15:15:14.210266,-41
2021-10-14 15:15:14.210274,-34
2021-10-14 15:15:14.434991,-46
2021-10-14 15:15:14.435012,-73
2021-10-14 15:15:14.435021,-66
2021-10-14 15:15:14.435030,-39
2021-10-14 15:15:14.435038,-7
2021-10-14 15:15:14.435047,154
2021-10-14 15:15:14.435055,507
2021-10-14 15:15:14.435093,814
2021-10-14 15:15:14.435103,591
2021-10-14 15:15:14.435111,-188
2021-10-14 15:15:14.435139,-520
2021-10-14 15:15:14.435149,-66
2021-10-14 15:15:14.435157,125
2021-10-14 15:15:14.435165,-78
2021-10-14 15:15:14.435174,-39
2021-10-14 15:15:14.435182,46
2021-10-14 15:15:14.435190,-9
2021-10-14 15:15:14.435199,9
2021-10-14 15:15:14.435207,58
2021-10-14 15:15:14.435215,39
2021-10-14 15:15:14.435224,36
2021-10-14 15:15:14.435232,68
2021-10-14 15:15:14.435240,76
2021-10-14 15:15:14.435252,85
2021-10-14 15:15:14.435260,110
2021-10-14 15:15:14.435269,144
2021-10-14 15:15:14.435277,179
2021-10-14 15:15:14.435285,206
2021-10-14 15:15:14.435294,240
2021-10-14 15:15:14.435302,277
2021-10-14 15:15:14.658306,301
2021-10-14 15:15:14.658328,328
2021-10-14 15:15:14.658337,343
2021-10-14 15:15:14.658346,345
2021-10-14 15:15:14.658355,348
2021-10-14 15:15:14.658363,341
2021-10-14 15:15:14.658372,311
2021-10-14 15:15:14.658380,279
2021-10-14 15:15:14.658389,223
2021-10-14 15:15:14.658397,122
2021-10-14 15:15:14.658406,19
2021-10-14 15:15:14.658414,-58
2021-10-14 15:15:14.658423,-120
2021-10-14 15:15:14.658431,-169
2021-10-14 15:15:14.658440,-201
2021-10-14 15:15:14.658448,-218
2021-10-14 15:15:14.658456,-220
2021-10-14 15:15:14.658465,-213
2021-10-14 15:15:14.658473,-206
2021-10-14 15:15:14.658482,-208
2021-10-14 15:15:14.658490,-203
2021-10-14 15:15:14.658499,-191
2021-10-14 15:15:14.658507,-179
2021-10-14 15:15:14.658515,-159
2021-10-14 15:15:14.658524,-142
2021-10-14 15:15:14.658532,-139
2021-10-14 15:15:14.658541,-134
2021-10-14 15:15:14.658549,-125
2021-10-14 15:15:14.658558,-127
2021-10-14 15:15:14.658566,-120
2021-10-14 15:15:14.839977,-105
2021-10-14 15:15:14.839998,-103
2021-10-14 15:15:14.840007,-105
2021-10-14 15:15:14.840016,-103
2021-10-14 15:15:14.840025,-107
2021-10-14 15:15:14.840033,-125
2021-10-14 15:15:14.840042,-132
2021-10-14 15:15:14.840050,-127
2021-10-14 15:15:14.840059,-122
2021-10-14 15:15:14.840068,-127
2021-10-14 15:15:14.840076,-127
2021-10-14 15:15:14.840085,-127
2021-10-14 15:15:14.840094,-130
2021-10-14 15:15:14.840102,-110
2021-10-14 15:15:14.840111,-95
2021-10-14 15:15:14.840119,-100
2021-10-14 15:15:14.840128,-100
2021-10-14 15:15:14.840136,-98
2021-10-14 15:15:14.840145,-95
2021-10-14 15:15:14.840153,-85
2021-10-14 15:15:14.840162,-85
2021-10-14 15:15:14.840170,-85
2021-10-14 15:15:14.840179,-76
2021-10-14 15:15:14.840187,-73
2021-10-14 15:15:14.840195,-68
2021-10-14 15:15:14.840204,-56
2021-10-14 15:15:14.840213,-49
2021-10-14 15:15:14.840221,-46
2021-10-14 15:15:14.840230,-46
2021-10-14 15:15:14.840238,-49
2021-10-14 15:15:15.110012,-46
2021-10-14 15:15:15.110033,-34
2021-10-14 15:15:15.110043,-24
2021-10-14 15:15:15.110051,-31
2021-10-14 15:15:15.110060,-44
2021-10-14 15:15:15.110068,-49
2021-10-14 15:15:15.110077,-51
2021-10-14 15:15:15.110085,-49
2021-10-14 15:15:15.110093,-34
2021-10-14 15:15:15.110102,-2
2021-10-14 15:15:15.110110,26
2021-10-14 15:15:15.110118,24
2021-10-14 15:15:15.110127,4
2021-10-14 15:15:15.110135,0
2021-10-14 15:15:15.110144,-9
2021-10-14 15:15:15.110152,-41
2021-10-14 15:15:15.110160,-36
2021-10-14 15:15:15.110169,-14
2021-10-14 15:15:15.110177,-22
2021-10-14 15:15:15.110186,-34
2021-10-14 15:15:15.110194,-31
2021-10-14 15:15:15.110202,-31
2021-10-14 15:15:15.110211,2
2021-10-14 15:15:15.110219,127
2021-10-14 15:15:15.110227,419
2021-10-14 15:15:15.110236,775
2021-10-14 15:15:15.110244,748
2021-10-14 15:15:15.110252,51
2021-10-14 15:15:15.110261,-517
2021-10-14 15:15:15.110269,-218
2021-10-14 15:15:15.334027,125
2021-10-14 15:15:15.334048,-22
2021-10-14 15:15:15.334057,-68
2021-10-14 15:15:15.334066,39
2021-10-14 15:15:15.334075,12
2021-10-14 15:15:15.334083,-12
2021-10-14 15:15:15.334092,39
2021-10-14 15:15:15.334100,56
2021-10-14 15:15:15.334109,53
2021-10-14 15:15:15.334117,68
2021-10-14 15:15:15.334126,68
2021-10-14 15:15:15.334134,61
2021-10-14 15:15:15.334142,100
2021-10-14 15:15:15.334151,154
2021-10-14 15:15:15.334159,169
2021-10-14 15:15:15.334168,186
2021-10-14 15:15:15.334176,228
2021-10-14 15:15:15.334185,257
2021-10-14 15:15:15.334193,282
2021-10-14 15:15:15.334202,311
2021-10-14 15:15:15.334210,341
2021-10-14 15:15:15.334218,358
2021-10-14 15:15:15.334227,355
2021-10-14 15:15:15.334235,338
2021-10-14 15:15:15.334243,331
2021-10-14 15:15:15.334252,323
2021-10-14 15:15:15.334260,277
2021-10-14 15:15:15.334269,191
2021-10-14 15:15:15.334277,103
2021-10-14 15:15:15.334285,19
2021-10-14 15:15:15.604419,-49
2021-10-14 15:15:15.604440,-95
2021-10-14 15:15:15.604450,-134
2021-10-14 15:15:15.604458,-176
2021-10-14 15:15:15.604467,-203
2021-10-14 15:15:15.604476,-208
2021-10-14 15:15:15.604484,-193
2021-10-14 15:15:15.604493,-179
2021-10-14 15:15:15.604501,-176
2021-10-14 15:15:15.604510,-179
2021-10-14 15:15:15.604519,-171
2021-10-14 15:15:15.604527,-159
2021-10-14 15:15:15.604536,-147
2021-10-14 15:15:15.604544,-139
2021-10-14 15:15:15.604552,-134
2021-10-14 15:15:15.604561,-132
2021-10-14 15:15:15.604569,-134
2021-10-14 15:15:15.604577,-117
2021-10-14 15:15:15.604586,-98
2021-10-14 15:15:15.604594,-103
2021-10-14 15:15:15.604603,-115
2021-10-14 15:15:15.604611,-112
2021-10-14 15:15:15.604619,-103
2021-10-14 15:15:15.604628,-90
2021-10-14 15:15:15.604636,-93
2021-10-14 15:15:15.604645,-103
2021-10-14 15:15:15.604653,-105
2021-10-14 15:15:15.604662,-103
2021-10-14 15:15:15.604670,-88
2021-10-14 15:15:15.604678,-76
2021-10-14 15:15:15.874423,-78
2021-10-14 15:15:15.874444,-73
2021-10-14 15:15:15.874453,-68
2021-10-14 15:15:15.874462,-85
2021-10-14 15:15:15.874470,-85
2021-10-14 15:15:15.874479,-63
2021-10-14 15:15:15.874487,-53
2021-10-14 15:15:15.874496,-58
2021-10-14 15:15:15.874504,-68
2021-10-14 15:15:15.874513,-71
2021-10-14 15:15:15.874521,-58
2021-10-14 15:15:15.874529,-61
2021-10-14 15:15:15.874537,-71
2021-10-14 15:15:15.874546,-71
2021-10-14 15:15:15.874554,-83
2021-10-14 15:15:15.874563,-98
2021-10-14 15:15:15.874571,-98
2021-10-14 15:15:15.874579,-93
2021-10-14 15:15:15.874588,-93
2021-10-14 15:15:15.874596,-98
2021-10-14 15:15:15.874604,-103
2021-10-14 15:15:15.874613,-112
2021-10-14 15:15:15.874621,-115
2021-10-14 15:15:15.874629,-95
2021-10-14 15:15:15.874637,-83
2021-10-14 15:15:15.874646,-90
2021-10-14 15:15:15.874654,-88
2021-10-14 15:15:15.874663,-83
2021-10-14 15:15:15.874671,-80
2021-10-14 15:15:15.874679,-73
2021-10-14 15:15:16.054115,-83
2021-10-14 15:15:16.054136,-85
2021-10-14 15:15:16.054145,-53
2021-10-14 15:15:16.054154,-26
2021-10-14 15:15:16.054163,-9
2021-10-14 15:15:16.054172,7
2021-10-14 15:15:16.054180,0
2021-10-14 15:15:16.054188,-26
2021-10-14 15:15:16.054197,-31
2021-10-14 15:15:16.054205,-36
2021-10-14 15:15:16.054214,-56
2021-10-14 15:15:16.054222,-56
2021-10-14 15:15:16.054231,-44
2021-10-14 15:15:16.054239,-29
2021-10-14 15:15:16.054248,-26
2021-10-14 15:15:16.054256,-41
2021-10-14 15:15:16.054265,-24
2021-10-14 15:15:16.054273,73
2021-10-14 15:15:16.054282,311
2021-10-14 15:15:16.054291,674
2021-10-14 15:15:16.054299,826
2021-10-14 15:15:16.054307,311
2021-10-14 15:15:16.054316,-417
2021-10-14 15:15:16.054324,-355
2021-10-14 15:15:16.054333,98
2021-10-14 15:15:16.054341,78
2021-10-14 15:15:16.054350,-49
2021-10-14 15:15:16.054358,36
2021-10-14 15:15:16.054367,58
2021-10-14 15:15:16.054375,17
2021-10-14 15:15:16.235022,46
2021-10-14 15:15:16.235043,85
2021-10-14 15:15:16.235084,78
2021-10-14 15:15:16.235093,83
2021-10-14 15:15:16.235114,117
2021-10-14 15:15:16.235122,142
2021-10-14 15:15:16.235142,152
2021-10-14 15:15:16.235165,161
2021-10-14 15:15:16.235175,188
2021-10-14 15:15:16.235184,225
2021-10-14 15:15:16.235193,250
2021-10-14 15:15:16.235201,284
2021-10-14 15:15:16.235210,323
2021-10-14 15:15:16.235218,333
2021-10-14 15:15:16.235227,350
2021-10-14 15:15:16.235235,387
2021-10-14 15:15:16.235244,387
2021-10-14 15:15:16.235252,368
2021-10-14 15:15:16.235260,372
2021-10-14 15:15:16.235269,363
2021-10-14 15:15:16.235277,299
2021-10-14 15:15:16.235286,211
2021-10-14 15:15:16.235294,130
2021-10-14 15:15:16.235303,53
2021-10-14 15:15:16.235311,-34
2021-10-14 15:15:16.235320,-112
2021-10-14 15:15:16.235328,-152
2021-10-14 15:15:16.235337,-169
2021-10-14 15:15:16.235345,-184
2021-10-14 15:15:16.235353,-191
2021-10-14 15:15:16.459669,-176
2021-10-14 15:15:16.459690,-169
2021-10-14 15:15:16.459699,-188
2021-10-14 15:15:16.459708,-184
2021-10-14 15:15:16.459717,-149
2021-10-14 15:15:16.459725,-139
2021-10-14 15:15:16.459734,-154
2021-10-14 15:15:16.459742,-154
2021-10-14 15:15:16.459751,-132
2021-10-14 15:15:16.459759,-112
2021-10-14 15:15:16.459768,-105
2021-10-14 15:15:16.459776,-122
2021-10-14 15:15:16.459785,-134
2021-10-14 15:15:16.459793,-112
2021-10-14 15:15:16.459802,-105
2021-10-14 15:15:16.459810,-137
2021-10-14 15:15:16.459819,-137
2021-10-14 15:15:16.459830,-115
2021-10-14 15:15:16.459839,-134
2021-10-14 15:15:16.459847,-149
2021-10-14 15:15:16.459856,-130
2021-10-14 15:15:16.459864,-127
2021-10-14 15:15:16.459872,-139
2021-10-14 15:15:16.459881,-134
2021-10-14 15:15:16.459889,-122
2021-10-14 15:15:16.459898,-125
2021-10-14 15:15:16.459906,-120
2021-10-14 15:15:16.459914,-107
2021-10-14 15:15:16.459923,-110
2021-10-14 15:15:16.459931,-115
2021-10-14 15:15:16.728325,-103
2021-10-14 15:15:16.728347,-100
2021-10-14 15:15:16.728356,-105
2021-10-14 15:15:16.728365,-93
2021-10-14 15:15:16.728373,-76
2021-10-14 15:15:16.728382,-76
2021-10-14 15:15:16.728390,-98
2021-10-14 15:15:16.728398,-100
2021-10-14 15:15:16.728407,-78
2021-10-14 15:15:16.728415,-73
2021-10-14 15:15:16.728424,-76
2021-10-14 15:15:16.728432,-76
2021-10-14 15:15:16.728440,-78
2021-10-14 15:15:16.728449,-73
2021-10-14 15:15:16.728457,-56
2021-10-14 15:15:16.728465,-44
2021-10-14 15:15:16.728474,-49
2021-10-14 15:15:16.728482,-61
2021-10-14 15:15:16.728491,-61
2021-10-14 15:15:16.728499,-53
2021-10-14 15:15:16.728507,-51
2021-10-14 15:15:16.728516,-49
2021-10-14 15:15:16.728524,-31
2021-10-14 15:15:16.728532,-4
2021-10-14 15:15:16.728541,12
2021-10-14 15:15:16.728549,26
2021-10-14 15:15:16.728557,19
2021-10-14 15:15:16.728566,-7
2021-10-14 15:15:16.728574,-29
2021-10-14 15:15:16.728583,-44
2021-10-14 15:15:16.910020,-49
2021-10-14 15:15:16.910041,-29
2021-10-14 15:15:16.910051,-19
2021-10-14 15:15:16.910060,-22
2021-10-14 15:15:16.910068,-24
2021-10-14 15:15:16.910077,-26
2021-10-14 15:15:16.910086,-9
2021-10-14 15:15:16.910095,85
2021-10-14 15:15:16.910103,341
2021-10-14 15:15:16.910112,691
2021-10-14 15:15:16.910121,797
2021-10-14 15:15:16.910129,269
2021-10-14 15:15:16.910138,-431
2021-10-14 15:15:16.910146,-336
2021-10-14 15:15:16.910155,120
2021-10-14 15:15:16.910164,68
2021-10-14 15:15:16.910172,-56
2021-10-14 15:15:16.910181,44
2021-10-14 15:15:16.910189,56
2021-10-14 15:15:16.910198,17
2021-10-14 15:15:16.910207,71
2021-10-14 15:15:16.910215,107
2021-10-14 15:15:16.910224,90
2021-10-14 15:15:16.910232,90
2021-10-14 15:15:16.910241,127
2021-10-14 15:15:16.910249,154
2021-10-14 15:15:16.910258,166
2021-10-14 15:15:16.910266,181
2021-10-14 15:15:16.910275,203
2021-10-14 15:15:16.910283,230
2021-10-14 15:15:17.135084,272
2021-10-14 15:15:17.135117,314
2021-10-14 15:15:17.135144,348
2021-10-14 15:15:17.135163,365
2021-10-14 15:15:17.135173,368
2021-10-14 15:15:17.135182,375
2021-10-14 15:15:17.135190,390
2021-10-14 15:15:17.135199,402
2021-10-14 15:15:17.135208,390
2021-10-14 15:15:17.135216,350
2021-10-14 15:15:17.135225,304
2021-10-14 15:15:17.135233,238
2021-10-14 15:15:17.135242,152
2021-10-14 15:15:17.135250,56
2021-10-14 15:15:17.135259,-31
2021-10-14 15:15:17.135268,-95
2021-10-14 15:15:17.135277,-139
2021-10-14 15:15:17.135285,-179
2021-10-14 15:15:17.135294,-206
2021-10-14 15:15:17.135302,-201
2021-10-14 15:15:17.135311,-193
2021-10-14 15:15:17.135319,-208
2021-10-14 15:15:17.135328,-211
2021-10-14 15:15:17.135336,-188
2021-10-14 15:15:17.135345,-174
2021-10-14 15:15:17.135353,-174
2021-10-14 15:15:17.135362,-176
2021-10-14 15:15:17.135370,-171
2021-10-14 15:15:17.135379,-159
2021-10-14 15:15:17.135387,-154
2021-10-14 15:15:17.359702,-149
2021-10-14 15:15:17.359723,-137
2021-10-14 15:15:17.359732,-134
2021-10-14 15:15:17.359741,-152
2021-10-14 15:15:17.359749,-166
2021-10-14 15:15:17.359758,-157
2021-10-14 15:15:17.359766,-147
2021-10-14 15:15:17.359775,-149
2021-10-14 15:15:17.359783,-149
2021-10-14 15:15:17.359792,-154
2021-10-14 15:15:17.359800,-154
2021-10-14 15:15:17.359808,-137
2021-10-14 15:15:17.359817,-130
2021-10-14 15:15:17.359825,-134
2021-10-14 15:15:17.359834,-132
2021-10-14 15:15:17.359842,-132
2021-10-14 15:15:17.359850,-132
2021-10-14 15:15:17.359859,-120
2021-10-14 15:15:17.359867,-105
2021-10-14 15:15:17.359876,-98
2021-10-14 15:15:17.359884,-103
2021-10-14 15:15:17.359892,-105
2021-10-14 15:15:17.359901,-90
2021-10-14 15:15:17.359909,-80
2021-10-14 15:15:17.359918,-80
2021-10-14 15:15:17.359926,-73
2021-10-14 15:15:17.359934,-66
2021-10-14 15:15:17.359943,-73
2021-10-14 15:15:17.359951,-76
2021-10-14 15:15:17.359960,-58
2021-10-14 15:15:17.674700,-46
2021-10-14 15:15:17.674721,-61
2021-10-14 15:15:17.674730,-73
2021-10-14 15:15:17.674739,-68
2021-10-14 15:15:17.674747,-63
2021-10-14 15:15:17.674756,-49
2021-10-14 15:15:17.674764,-34
2021-10-14 15:15:17.674773,-39
2021-10-14 15:15:17.674781,-49
2021-10-14 15:15:17.674790,-51
2021-10-14 15:15:17.674798,-51
2021-10-14 15:15:17.674807,-24
2021-10-14 15:15:17.674815,26
2021-10-14 15:15:17.674824,44
2021-10-14 15:15:17.674832,24
2021-10-14 15:15:17.674840,-2
2021-10-14 15:15:17.674849,-12
2021-10-14 15:15:17.674858,-17
2021-10-14 15:15:17.674867,-17
2021-10-14 15:15:17.674875,-14
2021-10-14 15:15:17.674883,-22
2021-10-14 15:15:17.674892,-22
2021-10-14 15:15:17.674900,-4
2021-10-14 15:15:17.674909,0
2021-10-14 15:15:17.674917,-2
2021-10-14 15:15:17.674925,44
2021-10-14 15:15:17.674934,208
2021-10-14 15:15:17.674943,520
2021-10-14 15:15:17.674951,804
2021-10-14 15:15:17.674959,593
2021-10-14 15:15:17.854683,-164
2021-10-14 15:15:17.854703,-483
2021-10-14 15:15:17.854714,-34
2021-10-14 15:15:17.854722,159
2021-10-14 15:15:17.854731,-39
2021-10-14 15:15:17.854739,-9
2021-10-14 15:15:17.854748,95
2021-10-14 15:15:17.854757,56
2021-10-14 15:15:17.854765,34
2021-10-14 15:15:17.854773,66
2021-10-14 15:15:17.854782,73
2021-10-14 15:15:17.854790,76
2021-10-14 15:15:17.854799,105
2021-10-14 15:15:17.854807,122
2021-10-14 15:15:17.854816,125
2021-10-14 15:15:17.854824,149
2021-10-14 15:15:17.854832,184
2021-10-14 15:15:17.854841,206
2021-10-14 15:15:17.854849,230
2021-10-14 15:15:17.854858,264
2021-10-14 15:15:17.854866,296
2021-10-14 15:15:17.854875,311
2021-10-14 15:15:17.854883,333
2021-10-14 15:15:17.854891,355
2021-10-14 15:15:17.854900,360
2021-10-14 15:15:17.854908,355
2021-10-14 15:15:17.854916,353
2021-10-14 15:15:17.854925,336
2021-10-14 15:15:17.854933,287
2021-10-14 15:15:17.854941,223
2021-10-14 15:15:18.080164,154
2021-10-14 15:15:18.080185,58
2021-10-14 15:15:18.080194,-53
2021-10-14 15:15:18.080203,-130
2021-10-14 15:15:18.080212,-166
2021-10-14 15:15:18.080221,-188
2021-10-14 15:15:18.080229,-211
2021-10-14 15:15:18.080238,-223
2021-10-14 15:15:18.080246,-233
2021-10-14 15:15:18.080255,-230
2021-10-14 15:15:18.080263,-220
2021-10-14 15:15:18.080272,-208
2021-10-14 15:15:18.080280,-196
2021-10-14 15:15:18.080289,-191
2021-10-14 15:15:18.080297,-196
2021-10-14 15:15:18.080306,-191
2021-10-14 15:15:18.080315,-176
2021-10-14 15:15:18.080323,-159
2021-10-14 15:15:18.080332,-147
2021-10-14 15:15:18.080340,-149
2021-10-14 15:15:18.080349,-149
2021-10-14 15:15:18.080357,-132
2021-10-14 15:15:18.080366,-120
2021-10-14 15:15:18.080374,-117
2021-10-14 15:15:18.080383,-125
2021-10-14 15:15:18.080391,-127
2021-10-14 15:15:18.080400,-122
2021-10-14 15:15:18.080408,-120
2021-10-14 15:15:18.080417,-122
2021-10-14 15:15:18.080425,-120
2021-10-14 15:15:18.305058,-112
2021-10-14 15:15:18.305079,-105
2021-10-14 15:15:18.305088,-107
2021-10-14 15:15:18.305097,-120
2021-10-14 15:15:18.305106,-117
2021-10-14 15:15:18.305114,-103
2021-10-14 15:15:18.305123,-105
2021-10-14 15:15:18.305131,-115
2021-10-14 15:15:18.305140,-105
2021-10-14 15:15:18.305148,-98
2021-10-14 15:15:18.305156,-93
2021-10-14 15:15:18.305165,-85
2021-10-14 15:15:18.305173,-90
2021-10-14 15:15:18.305182,-105
2021-10-14 15:15:18.305190,-107
2021-10-14 15:15:18.305198,-107
2021-10-14 15:15:18.305207,-100
2021-10-14 15:15:18.305215,-88
2021-10-14 15:15:18.305224,-85
2021-10-14 15:15:18.305232,-88
2021-10-14 15:15:18.305240,-88
2021-10-14 15:15:18.305249,-76
2021-10-14 15:15:18.305257,-61
2021-10-14 15:15:18.305265,-63
2021-10-14 15:15:18.305274,-80
2021-10-14 15:15:18.305282,-76
2021-10-14 15:15:18.305291,-36
2021-10-14 15:15:18.305300,12
2021-10-14 15:15:18.305308,36
2021-10-14 15:15:18.305316,29
2021-10-14 15:15:18.529677,-4
2021-10-14 15:15:18.529697,-41
2021-10-14 15:15:18.529707,-51
2021-10-14 15:15:18.529716,-44
2021-10-14 15:15:18.529724,-34
2021-10-14 15:15:18.529733,-31
2021-10-14 15:15:18.529741,-49
2021-10-14 15:15:18.529749,-56
2021-10-14 15:15:18.529758,-41
2021-10-14 15:15:18.529766,-31
2021-10-14 15:15:18.529775,17
2021-10-14 15:15:18.529783,198
2021-10-14 15:15:18.529791,517
2021-10-14 15:15:18.529800,745
2021-10-14 15:15:18.529808,451
2021-10-14 15:15:18.529817,-291
2021-10-14 15:15:18.529825,-502
2021-10-14 15:15:18.529833,-19
2021-10-14 15:15:18.529842,144
2021-10-14 15:15:18.529850,-39
2021-10-14 15:15:18.529858,-7
2021-10-14 15:15:18.529867,66
2021-10-14 15:15:18.529875,39
2021-10-14 15:15:18.529883,53
2021-10-14 15:15:18.529892,85
2021-10-14 15:15:18.529900,85
2021-10-14 15:15:18.529909,95
2021-10-14 15:15:18.529917,122
2021-10-14 15:15:18.529926,142
2021-10-14 15:15:18.529934,166
2021-10-14 15:15:18.798351,196
2021-10-14 15:15:18.798372,211
2021-10-14 15:15:18.798381,230
2021-10-14 15:15:18.798390,272
2021-10-14 15:15:18.798398,304
2021-10-14 15:15:18.798407,321
2021-10-14 15:15:18.798415,338
2021-10-14 15:15:18.798423,363
2021-10-14 15:15:18.798432,382
2021-10-14 15:15:18.798440,385
2021-10-14 15:15:18.798449,375
2021-10-14 15:15:18.798456,360
2021-10-14 15:15:18.798464,345
2021-10-14 15:15:18.798471,316
2021-10-14 15:15:18.798484,235
2021-10-14 15:15:18.798492,139
2021-10-14 15:15:18.798499,63
2021-10-14 15:15:18.798506,-24
2021-10-14 15:15:18.798513,-107
2021-10-14 15:15:18.798520,-154
2021-10-14 15:15:18.798528,-196
2021-10-14 15:15:18.798535,-238
2021-10-14 15:15:18.798543,-240
2021-10-14 15:15:18.798551,-225
2021-10-14 15:15:18.798559,-220
2021-10-14 15:15:18.798567,-215
2021-10-14 15:15:18.798574,-208
2021-10-14 15:15:18.798582,-193
2021-10-14 15:15:18.798589,-181
2021-10-14 15:15:18.798596,-176
2021-10-14 15:15:18.980079,-169
2021-10-14 15:15:18.980100,-154
2021-10-14 15:15:18.980109,-149
2021-10-14 15:15:18.980118,-152
2021-10-14 15:15:18.980127,-147
2021-10-14 15:15:18.980135,-142
2021-10-14 15:15:18.980144,-142
2021-10-14 15:15:18.980152,-132
2021-10-14 15:15:18.980161,-130
2021-10-14 15:15:18.980169,-139
2021-10-14 15:15:18.980178,-149
2021-10-14 15:15:18.980186,-152
2021-10-14 15:15:18.980195,-152
2021-10-14 15:15:18.980203,-147
2021-10-14 15:15:18.980212,-134
2021-10-14 15:15:18.980220,-125
2021-10-14 15:15:18.980228,-130
2021-10-14 15:15:18.980237,-134
2021-10-14 15:15:18.980245,-127
2021-10-14 15:15:18.980254,-110
2021-10-14 15:15:18.980262,-103
2021-10-14 15:15:18.980270,-105
2021-10-14 15:15:18.980279,-105
2021-10-14 15:15:18.980287,-103
2021-10-14 15:15:18.980295,-95
2021-10-14 15:15:18.980304,-85
2021-10-14 15:15:18.980312,-78
2021-10-14 15:15:18.980320,-76
2021-10-14 15:15:18.980329,-76
2021-10-14 15:15:18.980337,-68
2021-10-14 15:15:19.204713,-58
2021-10-14 15:15:19.204734,-53
2021-10-14 15:15:19.204743,-51
2021-10-14 15:15:19.204752,-61
2021-10-14 15:15:19.204761,-73
2021-10-14 15:15:19.204769,-78
2021-10-14 15:15:19.204778,-73
2021-10-14 15:15:19.204786,-49
2021-10-14 15:15:19.204795,-12
2021-10-14 15:15:19.204803,7
2021-10-14 15:15:19.204812,4
2021-10-14 15:15:19.204820,2
2021-10-14 15:15:19.204829,-12
2021-10-14 15:15:19.204837,-36
2021-10-14 15:15:19.204846,-46
2021-10-14 15:15:19.204854,-44
2021-10-14 15:15:19.204862,-44
2021-10-14 15:15:19.204871,-46
2021-10-14 15:15:19.204879,-39
2021-10-14 15:15:19.204888,-29
2021-10-14 15:15:19.204896,-34
2021-10-14 15:15:19.204905,-26
2021-10-14 15:15:19.204914,61
2021-10-14 15:15:19.204922,306
2021-10-14 15:15:19.204931,645
2021-10-14 15:15:19.204939,745
2021-10-14 15:15:19.204948,215
2021-10-14 15:15:19.204956,-480
2021-10-14 15:15:19.204964,-377
2021-10-14 15:15:19.204973,98
2021-10-14 15:15:19.475055,71
2021-10-14 15:15:19.475076,-53
2021-10-14 15:15:19.475086,44
2021-10-14 15:15:19.475095,51
2021-10-14 15:15:19.475103,2
2021-10-14 15:15:19.475112,51
2021-10-14 15:15:19.475121,88
2021-10-14 15:15:19.475129,78
2021-10-14 15:15:19.475137,95
2021-10-14 15:15:19.475146,117
2021-10-14 15:15:19.475154,130
2021-10-14 15:15:19.475163,154
2021-10-14 15:15:19.475171,174
2021-10-14 15:15:19.475180,191
2021-10-14 15:15:19.475188,215
2021-10-14 15:15:19.475196,240
2021-10-14 15:15:19.475205,272
2021-10-14 15:15:19.475214,314
2021-10-14 15:15:19.475222,353
2021-10-14 15:15:19.475230,375
2021-10-14 15:15:19.475239,385
2021-10-14 15:15:19.475247,382
2021-10-14 15:15:19.475256,380
2021-10-14 15:15:19.475264,377
2021-10-14 15:15:19.475272,355
2021-10-14 15:15:19.475281,306
2021-10-14 15:15:19.475289,225
2021-10-14 15:15:19.475298,142
2021-10-14 15:15:19.475306,68
2021-10-14 15:15:19.475314,-4
2021-10-14 15:15:19.699727,-76
2021-10-14 15:15:19.699748,-127
2021-10-14 15:15:19.699758,-164
2021-10-14 15:15:19.699766,-188
2021-10-14 15:15:19.699775,-193
2021-10-14 15:15:19.699783,-188
2021-10-14 15:15:19.699792,-179
2021-10-14 15:15:19.699801,-179
2021-10-14 15:15:19.699809,-186
2021-10-14 15:15:19.699817,-181
2021-10-14 15:15:19.699826,-157
2021-10-14 15:15:19.699834,-147
2021-10-14 15:15:19.699842,-159
2021-10-14 15:15:19.699851,-164
2021-10-14 15:15:19.699859,-159
2021-10-14 15:15:19.699868,-164
2021-10-14 15:15:19.699876,-176
2021-10-14 15:15:19.699885,-169
2021-10-14 15:15:19.699893,-149
2021-10-14 15:15:19.699901,-149
2021-10-14 15:15:19.699910,-166
2021-10-14 15:15:19.699918,-164
2021-10-14 15:15:19.699926,-147
2021-10-14 15:15:19.699935,-144
2021-10-14 15:15:19.699943,-154
2021-10-14 15:15:19.699952,-147
2021-10-14 15:15:19.699960,-139
2021-10-14 15:15:19.699968,-147
2021-10-14 15:15:19.699977,-144
2021-10-14 15:15:19.699985,-134
2021-10-14 15:15:19.925115,-137
2021-10-14 15:15:19.925136,-144
2021-10-14 15:15:19.925146,-147
2021-10-14 15:15:19.925154,-134
2021-10-14 15:15:19.925163,-117
2021-10-14 15:15:19.925171,-115
2021-10-14 15:15:19.925180,-120
2021-10-14 15:15:19.925188,-125
2021-10-14 15:15:19.925197,-132
2021-10-14 15:15:19.925205,-122
2021-10-14 15:15:19.925214,-100
2021-10-14 15:15:19.925222,-90
2021-10-14 15:15:19.925230,-98
2021-10-14 15:15:19.925239,-115
2021-10-14 15:15:19.925247,-122
2021-10-14 15:15:19.925255,-88
2021-10-14 15:15:19.925264,-36
2021-10-14 15:15:19.925272,-19
2021-10-14 15:15:19.925280,-29
2021-10-14 15:15:19.925289,-46
2021-10-14 15:15:19.925297,-66
2021-10-14 15:15:19.925306,-78
2021-10-14 15:15:19.925314,-78
2021-10-14 15:15:19.925322,-73
2021-10-14 15:15:19.925331,-71
2021-10-14 15:15:19.925339,-68
2021-10-14 15:15:19.925348,-53
2021-10-14 15:15:19.925356,-46
2021-10-14 15:15:19.925364,-56
2021-10-14 15:15:19.925372,-46
2021-10-14 15:15:20.195088,85
2021-10-14 15:15:20.195109,402
2021-10-14 15:15:20.195119,740
2021-10-14 15:15:20.195127,642
2021-10-14 15:15:20.195136,-115
2021-10-14 15:15:20.195145,-660
2021-10-14 15:15:20.195153,-255
2021-10-14 15:15:20.195161,144
2021-10-14 15:15:20.195170,-4
2021-10-14 15:15:20.195178,-49
2021-10-14 15:15:20.195187,68
2021-10-14 15:15:20.195195,49
2021-10-14 15:15:20.195204,17
2021-10-14 15:15:20.195212,53
2021-10-14 15:15:20.195220,76
2021-10-14 15:15:20.195229,85
2021-10-14 15:15:20.195237,100
2021-10-14 15:15:20.195246,112
2021-10-14 15:15:20.195254,142
2021-10-14 15:15:20.195262,181
2021-10-14 15:15:20.195271,188
2021-10-14 15:15:20.195279,193
2021-10-14 15:15:20.195288,238
2021-10-14 15:15:20.195296,291
2021-10-14 15:15:20.195305,316
2021-10-14 15:15:20.195313,338
2021-10-14 15:15:20.195321,375
2021-10-14 15:15:20.195330,399
2021-10-14 15:15:20.195338,407
2021-10-14 15:15:20.195347,409
2021-10-14 15:15:20.374707,404
2021-10-14 15:15:20.374728,377
2021-10-14 15:15:20.374737,336
2021-10-14 15:15:20.374746,282
2021-10-14 15:15:20.374754,188
2021-10-14 15:15:20.374763,78
2021-10-14 15:15:20.374771,-12
2021-10-14 15:15:20.374780,-98
2021-10-14 15:15:20.374788,-179
2021-10-14 15:15:20.374797,-220
2021-10-14 15:15:20.374805,-225
2021-10-14 15:15:20.374814,-233
2021-10-14 15:15:20.374822,-257
2021-10-14 15:15:20.374831,-257
2021-10-14 15:15:20.374839,-235
2021-10-14 15:15:20.374848,-228
2021-10-14 15:15:20.374856,-215
2021-10-14 15:15:20.374865,-201
2021-10-14 15:15:20.374873,-203
2021-10-14 15:15:20.374882,-196
2021-10-14 15:15:20.374890,-179
2021-10-14 15:15:20.374899,-179
2021-10-14 15:15:20.374907,-181
2021-10-14 15:15:20.374915,-171
2021-10-14 15:15:20.374924,-176
2021-10-14 15:15:20.374932,-188
2021-10-14 15:15:20.374941,-164
2021-10-14 15:15:20.374949,-147
2021-10-14 15:15:20.374958,-161
2021-10-14 15:15:20.374966,-169
2021-10-14 15:15:20.644739,-159
2021-10-14 15:15:20.644760,-166
2021-10-14 15:15:20.644770,-188
2021-10-14 15:15:20.644778,-179
2021-10-14 15:15:20.644787,-159
2021-10-14 15:15:20.644796,-176
2021-10-14 15:15:20.644804,-188
2021-10-14 15:15:20.644812,-159
2021-10-14 15:15:20.644821,-144
2021-10-14 15:15:20.644829,-149
2021-10-14 15:15:20.644837,-147
2021-10-14 15:15:20.644846,-159
2021-10-14 15:15:20.644854,-166
2021-10-14 15:15:20.644863,-130
2021-10-14 15:15:20.644871,-85
2021-10-14 15:15:20.644879,-66
2021-10-14 15:15:20.644887,-58
2021-10-14 15:15:20.644896,-71
2021-10-14 15:15:20.644904,-95
2021-10-14 15:15:20.644912,-105
2021-10-14 15:15:20.644921,-105
2021-10-14 15:15:20.644929,-100
2021-10-14 15:15:20.644938,-85
2021-10-14 15:15:20.644946,-83
2021-10-14 15:15:20.644955,-95
2021-10-14 15:15:20.644963,-90
2021-10-14 15:15:20.644971,-76
2021-10-14 15:15:20.644980,-68
2021-10-14 15:15:20.644988,-4
2021-10-14 15:15:20.644996,240
2021-10-14 15:15:20.868786,623
2021-10-14 15:15:20.868805,738
2021-10-14 15:15:20.868814,152
2021-10-14 15:15:20.868823,-569
2021-10-14 15:15:20.868832,-402
2021-10-14 15:15:20.868841,98
2021-10-14 15:15:20.868849,56
2021-10-14 15:15:20.868858,-53
2021-10-14 15:15:20.868866,56
2021-10-14 15:15:20.868874,66
2021-10-14 15:15:20.868883,12
2021-10-14 15:15:20.868891,44
2021-10-14 15:15:20.868900,76
2021-10-14 15:15:20.868908,63
2021-10-14 15:15:20.868917,73
2021-10-14 15:15:20.868925,103
2021-10-14 15:15:20.868933,110
2021-10-14 15:15:20.868942,130
2021-10-14 15:15:20.868950,174
2021-10-14 15:15:20.868959,206
2021-10-14 15:15:20.868967,230
2021-10-14 15:15:20.868976,264
2021-10-14 15:15:20.868984,299
2021-10-14 15:15:20.868993,338
2021-10-14 15:15:20.869001,385
2021-10-14 15:15:20.869010,414
2021-10-14 15:15:20.869018,412
2021-10-14 15:15:20.869026,409
2021-10-14 15:15:20.869034,412
2021-10-14 15:15:20.869043,397
2021-10-14 15:15:21.049692,358
2021-10-14 15:15:21.049712,294
2021-10-14 15:15:21.049722,203
2021-10-14 15:15:21.049731,90
2021-10-14 15:15:21.049740,-17
2021-10-14 15:15:21.049748,-93
2021-10-14 15:15:21.049757,-142
2021-10-14 15:15:21.049765,-176
2021-10-14 15:15:21.049774,-203
2021-10-14 15:15:21.049782,-223
2021-10-14 15:15:21.049791,-230
2021-10-14 15:15:21.049800,-218
2021-10-14 15:15:21.049808,-206
2021-10-14 15:15:21.049817,-193
2021-10-14 15:15:21.049825,-176
2021-10-14 15:15:21.049834,-166
2021-10-14 15:15:21.049843,-161
2021-10-14 15:15:21.049851,-152
2021-10-14 15:15:21.049860,-130
2021-10-14 15:15:21.049869,-117
2021-10-14 15:15:21.049877,-122
2021-10-14 15:15:21.049886,-127
2021-10-14 15:15:21.049894,-117
2021-10-14 15:15:21.049903,-103
2021-10-14 15:15:21.049911,-103
2021-10-14 15:15:21.049919,-100
2021-10-14 15:15:21.049928,-90
2021-10-14 15:15:21.049936,-93
2021-10-14 15:15:21.049945,-98
2021-10-14 15:15:21.049953,-105
2021-10-14 15:15:21.320112,-103
2021-10-14 15:15:21.320133,-93
2021-10-14 15:15:21.320143,-98
2021-10-14 15:15:21.320152,-103
2021-10-14 15:15:21.320160,-93
2021-10-14 15:15:21.320168,-98
2021-10-14 15:15:21.320177,-100
2021-10-14 15:15:21.320185,-98
2021-10-14 15:15:21.320194,-110
2021-10-14 15:15:21.320203,-122
2021-10-14 15:15:21.320212,-105
2021-10-14 15:15:21.320220,-63
2021-10-14 15:15:21.320229,-44
2021-10-14 15:15:21.320237,-56
2021-10-14 15:15:21.320246,-71
2021-10-14 15:15:21.320254,-90
2021-10-14 15:15:21.320263,-103
2021-10-14 15:15:21.320271,-112
2021-10-14 15:15:21.320311,-142
2021-10-14 15:15:21.320341,-152
2021-10-14 15:15:21.320351,-144
2021-10-14 15:15:21.320359,-154
2021-10-14 15:15:21.320366,-157
2021-10-14 15:15:21.320374,-144
2021-10-14 15:15:21.320381,-142
2021-10-14 15:15:21.320389,-100
2021-10-14 15:15:21.320398,88
2021-10-14 15:15:21.320406,451
2021-10-14 15:15:21.320414,711
2021-10-14 15:15:21.320423,350
2021-10-14 15:15:21.589479,-451
2021-10-14 15:15:21.589499,-591
2021-10-14 15:15:21.589509,-78
2021-10-14 15:15:21.589518,12
2021-10-14 15:15:21.589526,-171
2021-10-14 15:15:21.589535,-90
2021-10-14 15:15:21.589543,-22
2021-10-14 15:15:21.589552,-66
2021-10-14 15:15:21.589560,-56
2021-10-14 15:15:21.589569,-19
2021-10-14 15:15:21.589577,-9
2021-10-14 15:15:21.589586,-4
2021-10-14 15:15:21.589594,24
2021-10-14 15:15:21.589602,63
2021-10-14 15:15:21.589611,71
2021-10-14 15:15:21.589619,76
2021-10-14 15:15:21.589627,122
2021-10-14 15:15:21.589636,166
2021-10-14 15:15:21.589644,186
2021-10-14 15:15:21.589652,218
2021-10-14 15:15:21.589661,267
2021-10-14 15:15:21.589669,301
2021-10-14 15:15:21.589678,318
2021-10-14 15:15:21.589686,345
2021-10-14 15:15:21.589694,365
2021-10-14 15:15:21.589702,365
2021-10-14 15:15:21.589711,355
2021-10-14 15:15:21.589719,321
2021-10-14 15:15:21.589727,262
2021-10-14 15:15:21.589736,186
2021-10-14 15:15:21.769666,93
2021-10-14 15:15:21.769686,-12
2021-10-14 15:15:21.769696,-105
2021-10-14 15:15:21.769705,-157
2021-10-14 15:15:21.769713,-186
2021-10-14 15:15:21.769721,-215
2021-10-14 15:15:21.769730,-228
2021-10-14 15:15:21.769738,-235
2021-10-14 15:15:21.769747,-233
2021-10-14 15:15:21.769755,-220
2021-10-14 15:15:21.769764,-218
2021-10-14 15:15:21.769772,-208
2021-10-14 15:15:21.769780,-184
2021-10-14 15:15:21.769789,-179
2021-10-14 15:15:21.769797,-184
2021-10-14 15:15:21.769805,-171
2021-10-14 15:15:21.769813,-154
2021-10-14 15:15:21.769822,-142
2021-10-14 15:15:21.769830,-137
2021-10-14 15:15:21.769838,-144
2021-10-14 15:15:21.769847,-149
2021-10-14 15:15:21.769855,-137
2021-10-14 15:15:21.769863,-120
2021-10-14 15:15:21.769872,-125
2021-10-14 15:15:21.769880,-144
2021-10-14 15:15:21.769888,-142
2021-10-14 15:15:21.769897,-137
2021-10-14 15:15:21.769905,-139
2021-10-14 15:15:21.769913,-132
2021-10-14 15:15:21.769922,-125
2021-10-14 15:15:22.040044,-125
2021-10-14 15:15:22.040065,-122
2021-10-14 15:15:22.040074,-115
2021-10-14 15:15:22.040083,-115
2021-10-14 15:15:22.040092,-125
2021-10-14 15:15:22.040100,-127
2021-10-14 15:15:22.040109,-122
2021-10-14 15:15:22.040117,-112
2021-10-14 15:15:22.040126,-76
2021-10-14 15:15:22.040135,-49
2021-10-14 15:15:22.040143,-51
2021-10-14 15:15:22.040152,-53
2021-10-14 15:15:22.040161,-68
2021-10-14 15:15:22.040169,-95
2021-10-14 15:15:22.040178,-103
2021-10-14 15:15:22.040187,-93
2021-10-14 15:15:22.040195,-88
2021-10-14 15:15:22.040204,-78
2021-10-14 15:15:22.040213,-71
2021-10-14 15:15:22.040221,-78
2021-10-14 15:15:22.040229,-78
2021-10-14 15:15:22.040238,-68
2021-10-14 15:15:22.040247,-19
2021-10-14 15:15:22.040255,184
2021-10-14 15:15:22.040263,559
2021-10-14 15:15:22.040272,814
2021-10-14 15:15:22.040281,451
2021-10-14 15:15:22.040289,-338
2021-10-14 15:15:22.040298,-495
2021-10-14 15:15:22.040306,-7
2021-10-14 15:15:22.220076,93
2021-10-14 15:15:22.220097,-85
2021-10-14 15:15:22.220106,-26
2021-10-14 15:15:22.220115,26
2021-10-14 15:15:22.220124,-19
2021-10-14 15:15:22.220133,2
2021-10-14 15:15:22.220141,29
2021-10-14 15:15:22.220149,12
2021-10-14 15:15:22.220158,29
2021-10-14 15:15:22.220167,71
2021-10-14 15:15:22.220175,90
2021-10-14 15:15:22.220183,103
2021-10-14 15:15:22.220192,125
2021-10-14 15:15:22.220200,147
2021-10-14 15:15:22.220209,176
2021-10-14 15:15:22.220217,208
2021-10-14 15:15:22.220226,242
2021-10-14 15:15:22.220235,284
2021-10-14 15:15:22.220243,316
2021-10-14 15:15:22.220251,336
2021-10-14 15:15:22.220260,353
2021-10-14 15:15:22.220268,372
2021-10-14 15:15:22.220276,372
2021-10-14 15:15:22.220285,350
2021-10-14 15:15:22.220293,318
2021-10-14 15:15:22.220301,264
2021-10-14 15:15:22.220310,176
2021-10-14 15:15:22.220318,73
2021-10-14 15:15:22.220327,-22
2021-10-14 15:15:22.220335,-98
2021-10-14 15:15:22.489690,-164
2021-10-14 15:15:22.489709,-211
2021-10-14 15:15:22.489718,-230
2021-10-14 15:15:22.489727,-235
2021-10-14 15:15:22.489735,-233
2021-10-14 15:15:22.489744,-233
2021-10-14 15:15:22.489752,-235
2021-10-14 15:15:22.489760,-228
2021-10-14 15:15:22.489769,-225
2021-10-14 15:15:22.489777,-220
2021-10-14 15:15:22.489785,-208
2021-10-14 15:15:22.489794,-201
2021-10-14 15:15:22.489802,-191
2021-10-14 15:15:22.489810,-171
2021-10-14 15:15:22.489819,-161
2021-10-14 15:15:22.489827,-159
2021-10-14 15:15:22.489836,-152
2021-10-14 15:15:22.489844,-149
2021-10-14 15:15:22.489852,-144
2021-10-14 15:15:22.489861,-137
2021-10-14 15:15:22.489869,-130
2021-10-14 15:15:22.489877,-122
2021-10-14 15:15:22.489885,-125
2021-10-14 15:15:22.489894,-127
2021-10-14 15:15:22.489902,-125
2021-10-14 15:15:22.489910,-117
2021-10-14 15:15:22.489919,-115
2021-10-14 15:15:22.489927,-115
2021-10-14 15:15:22.489935,-110
2021-10-14 15:15:22.489944,-103
2021-10-14 15:15:22.714681,-100
2021-10-14 15:15:22.714701,-95
2021-10-14 15:15:22.714711,-90
2021-10-14 15:15:22.714719,-88
2021-10-14 15:15:22.714728,-90
2021-10-14 15:15:22.714736,-100
2021-10-14 15:15:22.714745,-103
2021-10-14 15:15:22.714753,-88
2021-10-14 15:15:22.714762,-49
2021-10-14 15:15:22.714770,-19
2021-10-14 15:15:22.714779,-29
2021-10-14 15:15:22.714787,-39
2021-10-14 15:15:22.714796,-39
2021-10-14 15:15:22.714804,-51
2021-10-14 15:15:22.714813,-68
2021-10-14 15:15:22.714821,-58
2021-10-14 15:15:22.714829,-51
2021-10-14 15:15:22.714838,-71
2021-10-14 15:15:22.714846,-76
2021-10-14 15:15:22.714855,-51
2021-10-14 15:15:22.714863,-44
2021-10-14 15:15:22.714872,-49
2021-10-14 15:15:22.714880,-2
2021-10-14 15:15:22.714889,154
2021-10-14 15:15:22.714897,478
2021-10-14 15:15:22.714906,802
2021-10-14 15:15:22.714914,635
2021-10-14 15:15:22.714922,-127
2021-10-14 15:15:22.714931,-534
2021-10-14 15:15:22.714939,-112
2021-10-14 15:15:22.938453,144
2021-10-14 15:15:22.938474,-36
2021-10-14 15:15:22.938483,-26
2021-10-14 15:15:22.938492,73
2021-10-14 15:15:22.938500,36
2021-10-14 15:15:22.938509,24
2021-10-14 15:15:22.938517,71
2021-10-14 15:15:22.938526,76
2021-10-14 15:15:22.938534,66
2021-10-14 15:15:22.938543,83
2021-10-14 15:15:22.938551,100
2021-10-14 15:15:22.938559,110
2021-10-14 15:15:22.938567,127
2021-10-14 15:15:22.938576,147
2021-10-14 15:15:22.938584,179
2021-10-14 15:15:22.938592,206
2021-10-14 15:15:22.938601,213
2021-10-14 15:15:22.938609,242
2021-10-14 15:15:22.938617,301
2021-10-14 15:15:22.938626,338
2021-10-14 15:15:22.938634,341
2021-10-14 15:15:22.938643,341
2021-10-14 15:15:22.938651,348
2021-10-14 15:15:22.938659,353
2021-10-14 15:15:22.938668,333
2021-10-14 15:15:22.938676,277
2021-10-14 15:15:22.938684,193
2021-10-14 15:15:22.938693,105
2021-10-14 15:15:22.938702,22
2021-10-14 15:15:22.938710,-61
2021-10-14 15:15:23.165131,-130
2021-10-14 15:15:23.165152,-174
2021-10-14 15:15:23.165161,-206
2021-10-14 15:15:23.165170,-220
2021-10-14 15:15:23.165179,-208
2021-10-14 15:15:23.165187,-191
2021-10-14 15:15:23.165196,-198
2021-10-14 15:15:23.165205,-201
2021-10-14 15:15:23.165213,-186
2021-10-14 15:15:23.165222,-166
2021-10-14 15:15:23.165230,-152
2021-10-14 15:15:23.165239,-149
2021-10-14 15:15:23.165247,-139
2021-10-14 15:15:23.165256,-122
2021-10-14 15:15:23.165264,-122
2021-10-14 15:15:23.165273,-134
2021-10-14 15:15:23.165281,-130
2021-10-14 15:15:23.165290,-115
2021-10-14 15:15:23.165298,-107
2021-10-14 15:15:23.165307,-90
2021-10-14 15:15:23.165315,-93
2021-10-14 15:15:23.165324,-103
2021-10-14 15:15:23.165333,-85
2021-10-14 15:15:23.165342,-76
2021-10-14 15:15:23.165350,-83
2021-10-14 15:15:23.165359,-83
2021-10-14 15:15:23.165367,-80
2021-10-14 15:15:23.165375,-73
2021-10-14 15:15:23.165384,-63
2021-10-14 15:15:23.165393,-71
2021-10-14 15:15:23.390128,-71
2021-10-14 15:15:23.390148,-53
2021-10-14 15:15:23.390158,-46
2021-10-14 15:15:23.390167,-58
2021-10-14 15:15:23.390175,-63
2021-10-14 15:15:23.390184,-46
2021-10-14 15:15:23.390192,-34
2021-10-14 15:15:23.390201,-41
2021-10-14 15:15:23.390209,-61
2021-10-14 15:15:23.390218,-63
2021-10-14 15:15:23.390226,-53
2021-10-14 15:15:23.390234,-63
2021-10-14 15:15:23.390243,-80
2021-10-14 15:15:23.390251,-61
2021-10-14 15:15:23.390260,-17
2021-10-14 15:15:23.390268,2
2021-10-14 15:15:23.390277,-9
2021-10-14 15:15:23.390285,-36
2021-10-14 15:15:23.390294,-49
2021-10-14 15:15:23.390302,-41
2021-10-14 15:15:23.390311,-44
2021-10-14 15:15:23.390320,-63
2021-10-14 15:15:23.390328,-66
2021-10-14 15:15:23.390336,-34
2021-10-14 15:15:23.390345,-14
2021-10-14 15:15:23.390353,-41
2021-10-14 15:15:23.390361,-56
2021-10-14 15:15:23.390370,-29
2021-10-14 15:15:23.390378,56
2021-10-14 15:15:23.390386,269
2021-10-14 15:15:23.614752,610
2021-10-14 15:15:23.614773,814
2021-10-14 15:15:23.614782,436
2021-10-14 15:15:23.614791,-306
2021-10-14 15:15:23.614800,-397
2021-10-14 15:15:23.614808,63
2021-10-14 15:15:23.614817,110
2021-10-14 15:15:23.614825,-56
2021-10-14 15:15:23.614834,17
2021-10-14 15:15:23.614842,66
2021-10-14 15:15:23.614851,24
2021-10-14 15:15:23.614859,49
2021-10-14 15:15:23.614867,80
2021-10-14 15:15:23.614876,80
2021-10-14 15:15:23.614884,100
2021-10-14 15:15:23.614893,112
2021-10-14 15:15:23.614901,110
2021-10-14 15:15:23.614910,134
2021-10-14 15:15:23.614918,171
2021-10-14 15:15:23.614926,186
2021-10-14 15:15:23.614935,196
2021-10-14 15:15:23.614943,223
2021-10-14 15:15:23.614952,264
2021-10-14 15:15:23.614960,304
2021-10-14 15:15:23.614968,321
2021-10-14 15:15:23.614977,345
2021-10-14 15:15:23.614985,370
2021-10-14 15:15:23.614993,372
2021-10-14 15:15:23.615002,368
2021-10-14 15:15:23.615010,353
2021-10-14 15:15:23.839736,326
2021-10-14 15:15:23.839757,282
2021-10-14 15:15:23.839766,206
2021-10-14 15:15:23.839775,103
2021-10-14 15:15:23.839783,9
2021-10-14 15:15:23.839792,-53
2021-10-14 15:15:23.839800,-117
2021-10-14 15:15:23.839809,-184
2021-10-14 15:15:23.839817,-206
2021-10-14 15:15:23.839826,-201
2021-10-14 15:15:23.839834,-211
2021-10-14 15:15:23.839842,-211
2021-10-14 15:15:23.839851,-201
2021-10-14 15:15:23.839859,-201
2021-10-14 15:15:23.839867,-201
2021-10-14 15:15:23.839876,-196
2021-10-14 15:15:23.839884,-193
2021-10-14 15:15:23.839892,-179
2021-10-14 15:15:23.839900,-154
2021-10-14 15:15:23.839909,-157
2021-10-14 15:15:23.839917,-169
2021-10-14 15:15:23.839925,-159
2021-10-14 15:15:23.839934,-147
2021-10-14 15:15:23.839942,-142
2021-10-14 15:15:23.839950,-139
2021-10-14 15:15:23.839959,-132
2021-10-14 15:15:23.839967,-127
2021-10-14 15:15:23.839975,-130
2021-10-14 15:15:23.839984,-122
2021-10-14 15:15:23.839992,-110
2021-10-14 15:15:24.065116,-110
2021-10-14 15:15:24.065137,-105
2021-10-14 15:15:24.065147,-93
2021-10-14 15:15:24.065155,-88
2021-10-14 15:15:24.065164,-83
2021-10-14 15:15:24.065173,-76
2021-10-14 15:15:24.065181,-83
2021-10-14 15:15:24.065190,-85
2021-10-14 15:15:24.065198,-71
2021-10-14 15:15:24.065207,-63
2021-10-14 15:15:24.065216,-63
2021-10-14 15:15:24.065224,-58
2021-10-14 15:15:24.065233,-58
2021-10-14 15:15:24.065241,-58
2021-10-14 15:15:24.065250,-46
2021-10-14 15:15:24.065258,-36
2021-10-14 15:15:24.065267,-39
2021-10-14 15:15:24.065276,-34
2021-10-14 15:15:24.065284,-29
2021-10-14 15:15:24.065293,-31
2021-10-14 15:15:24.065301,-39
2021-10-14 15:15:24.065310,-24
2021-10-14 15:15:24.065320,14
2021-10-14 15:15:24.065328,41
2021-10-14 15:15:24.065337,49
2021-10-14 15:15:24.065345,49
2021-10-14 15:15:24.065354,41
2021-10-14 15:15:24.065362,24
2021-10-14 15:15:24.065371,14
2021-10-14 15:15:24.065379,17
2021-10-14 15:15:24.289769,24
2021-10-14 15:15:24.289790,26
2021-10-14 15:15:24.289799,26
2021-10-14 15:15:24.289808,29
2021-10-14 15:15:24.289817,31
2021-10-14 15:15:24.289829,36
2021-10-14 15:15:24.289838,83
2021-10-14 15:15:24.289846,242
2021-10-14 15:15:24.289855,539
2021-10-14 15:15:24.289863,814
2021-10-14 15:15:24.289872,640
2021-10-14 15:15:24.289880,-66
2021-10-14 15:15:24.289888,-385
2021-10-14 15:15:24.289897,31
2021-10-14 15:15:24.289905,213
2021-10-14 15:15:24.289914,19
2021-10-14 15:15:24.289922,39
2021-10-14 15:15:24.289930,120
2021-10-14 15:15:24.289939,76
2021-10-14 15:15:24.289947,83
2021-10-14 15:15:24.289955,122
2021-10-14 15:15:24.289963,103
2021-10-14 15:15:24.289972,93
2021-10-14 15:15:24.289980,112
2021-10-14 15:15:24.289988,127
2021-10-14 15:15:24.289997,142
2021-10-14 15:15:24.290005,164
2021-10-14 15:15:24.290014,186
2021-10-14 15:15:24.290022,208
2021-10-14 15:15:24.290030,242
2021-10-14 15:15:24.559777,279
2021-10-14 15:15:24.559799,311
2021-10-14 15:15:24.559808,338
2021-10-14 15:15:24.559817,365
2021-10-14 15:15:24.559826,380
2021-10-14 15:15:24.559834,382
2021-10-14 15:15:24.559843,387
2021-10-14 15:15:24.559851,385
2021-10-14 15:15:24.559859,360
2021-10-14 15:15:24.559868,318
2021-10-14 15:15:24.559876,252
2021-10-14 15:15:24.559884,157
2021-10-14 15:15:24.559893,73
2021-10-14 15:15:24.559901,7
2021-10-14 15:15:24.559910,-58
2021-10-14 15:15:24.559918,-110
2021-10-14 15:15:24.559927,-137
2021-10-14 15:15:24.559935,-149
2021-10-14 15:15:24.559944,-149
2021-10-14 15:15:24.559952,-147
2021-10-14 15:15:24.559960,-139
2021-10-14 15:15:24.559969,-127
2021-10-14 15:15:24.559977,-117
2021-10-14 15:15:24.559985,-103
2021-10-14 15:15:24.559994,-88
2021-10-14 15:15:24.560002,-76
2021-10-14 15:15:24.560011,-76
2021-10-14 15:15:24.560019,-80
2021-10-14 15:15:24.560028,-76
2021-10-14 15:15:24.560036,-66
2021-10-14 15:15:24.740155,-61
2021-10-14 15:15:24.740175,-58
2021-10-14 15:15:24.740185,-53
2021-10-14 15:15:24.740194,-56
2021-10-14 15:15:24.740202,-66
2021-10-14 15:15:24.740211,-71
2021-10-14 15:15:24.740219,-68
2021-10-14 15:15:24.740228,-68
2021-10-14 15:15:24.740236,-66
2021-10-14 15:15:24.740245,-68
2021-10-14 15:15:24.740253,-71
2021-10-14 15:15:24.740261,-61
2021-10-14 15:15:24.740270,-53
2021-10-14 15:15:24.740278,-56
2021-10-14 15:15:24.740287,-53
2021-10-14 15:15:24.740296,-53
2021-10-14 15:15:24.740304,-66
2021-10-14 15:15:24.740313,-61
2021-10-14 15:15:24.740321,-51
2021-10-14 15:15:24.740329,-49
2021-10-14 15:15:24.740338,-44
2021-10-14 15:15:24.740346,-39
2021-10-14 15:15:24.740355,-44
2021-10-14 15:15:24.740363,-39
2021-10-14 15:15:24.740371,-24
2021-10-14 15:15:24.740380,-24
2021-10-14 15:15:24.740388,-49
2021-10-14 15:15:24.740396,-58
2021-10-14 15:15:24.740405,-53
2021-10-14 15:15:24.740413,-58
2021-10-14 15:15:25.098442,-58
2021-10-14 15:15:25.098463,-31
2021-10-14 15:15:25.098473,9
2021-10-14 15:15:25.098481,24
2021-10-14 15:15:25.098490,14
2021-10-14 15:15:25.098499,9
2021-10-14 15:15:25.098507,-2
2021-10-14 15:15:25.098516,-17
2021-10-14 15:15:25.098524,-26
2021-10-14 15:15:25.098533,-39
2021-10-14 15:15:25.098542,-44
2021-10-14 15:15:25.098550,-36
2021-10-14 15:15:25.098559,-41
2021-10-14 15:15:25.098567,-41
2021-10-14 15:15:25.098575,-31
2021-10-14 15:15:25.098584,-26
2021-10-14 15:15:25.098592,31
2021-10-14 15:15:25.098601,250
2021-10-14 15:15:25.098609,596
2021-10-14 15:15:25.098618,750
2021-10-14 15:15:25.098626,252
2021-10-14 15:15:25.098634,-476
2021-10-14 15:15:25.098643,-387
2021-10-14 15:15:25.098651,98
2021-10-14 15:15:25.098660,68
2021-10-14 15:15:25.098668,-63
2021-10-14 15:15:25.098677,31
2021-10-14 15:15:25.098685,41
2021-10-14 15:15:25.098693,-2
2021-10-14 15:15:25.098702,41
2021-10-14 15:15:25.279529,68
2021-10-14 15:15:25.279550,56
2021-10-14 15:15:25.279560,76
2021-10-14 15:15:25.279569,103
2021-10-14 15:15:25.279577,105
2021-10-14 15:15:25.279586,125
2021-10-14 15:15:25.279595,166
2021-10-14 15:15:25.279604,198
2021-10-14 15:15:25.279613,211
2021-10-14 15:15:25.279621,230
2021-10-14 15:15:25.279630,272
2021-10-14 15:15:25.279639,311
2021-10-14 15:15:25.279648,345
2021-10-14 15:15:25.279656,372
2021-10-14 15:15:25.279665,385
2021-10-14 15:15:25.279674,380
2021-10-14 15:15:25.279683,380
2021-10-14 15:15:25.279691,375
2021-10-14 15:15:25.279700,350
2021-10-14 15:15:25.279709,294
2021-10-14 15:15:25.279717,201
2021-10-14 15:15:25.279726,93
2021-10-14 15:15:25.279735,9
2021-10-14 15:15:25.279744,-56
2021-10-14 15:15:25.279752,-127
2021-10-14 15:15:25.279761,-179
2021-10-14 15:15:25.279770,-203
2021-10-14 15:15:25.279779,-213
2021-10-14 15:15:25.279787,-215
2021-10-14 15:15:25.279796,-213
2021-10-14 15:15:25.549816,-213
2021-10-14 15:15:25.549837,-203
2021-10-14 15:15:25.549846,-191
2021-10-14 15:15:25.549855,-201
2021-10-14 15:15:25.549864,-206
2021-10-14 15:15:25.549872,-179
2021-10-14 15:15:25.549880,-161
2021-10-14 15:15:25.549889,-166
2021-10-14 15:15:25.549897,-176
2021-10-14 15:15:25.549906,-169
2021-10-14 15:15:25.549914,-149
2021-10-14 15:15:25.549923,-144
2021-10-14 15:15:25.549931,-144
2021-10-14 15:15:25.549940,-142
2021-10-14 15:15:25.549948,-142
2021-10-14 15:15:25.549957,-137
2021-10-14 15:15:25.549965,-144
2021-10-14 15:15:25.549974,-157
2021-10-14 15:15:25.549982,-152
2021-10-14 15:15:25.549990,-147
2021-10-14 15:15:25.549999,-149
2021-10-14 15:15:25.550007,-142
2021-10-14 15:15:25.550016,-130
2021-10-14 15:15:25.550024,-125
2021-10-14 15:15:25.550033,-125
2021-10-14 15:15:25.550041,-125
2021-10-14 15:15:25.550049,-125
2021-10-14 15:15:25.550058,-115
2021-10-14 15:15:25.550066,-107
2021-10-14 15:15:25.550075,-107
2021-10-14 15:15:25.729862,-112
2021-10-14 15:15:25.729894,-115
2021-10-14 15:15:25.729904,-103
2021-10-14 15:15:25.729912,-71
2021-10-14 15:15:25.729920,-44
2021-10-14 15:15:25.729927,-46
2021-10-14 15:15:25.729935,-63
2021-10-14 15:15:25.729943,-85
2021-10-14 15:15:25.729951,-107
2021-10-14 15:15:25.729958,-120
2021-10-14 15:15:25.729966,-112
2021-10-14 15:15:25.729974,-103
2021-10-14 15:15:25.729981,-105
2021-10-14 15:15:25.729989,-112
2021-10-14 15:15:25.729996,-117
2021-10-14 15:15:25.730004,-127
2021-10-14 15:15:25.730012,-122
2021-10-14 15:15:25.730020,-71
2021-10-14 15:15:25.730027,105
2021-10-14 15:15:25.730035,436
2021-10-14 15:15:25.730043,662
2021-10-14 15:15:25.730050,306
2021-10-14 15:15:25.730058,-449
2021-10-14 15:15:25.730065,-561
2021-10-14 15:15:25.730073,-63
2021-10-14 15:15:25.730081,22
2021-10-14 15:15:25.730089,-149
2021-10-14 15:15:25.730096,-73
2021-10-14 15:15:25.730104,-14
2021-10-14 15:15:25.730112,-63
2021-10-14 15:15:25.910137,-36
2021-10-14 15:15:25.910157,2
2021-10-14 15:15:25.910166,-2
2021-10-14 15:15:25.910175,12
2021-10-14 15:15:25.910184,46
2021-10-14 15:15:25.910192,71
2021-10-14 15:15:25.910201,90
2021-10-14 15:15:25.910209,110
2021-10-14 15:15:25.910217,120
2021-10-14 15:15:25.910226,149
2021-10-14 15:15:25.910234,193
2021-10-14 15:15:25.910243,230
2021-10-14 15:15:25.910251,260
2021-10-14 15:15:25.910260,296
2021-10-14 15:15:25.910268,328
2021-10-14 15:15:25.910276,345
2021-10-14 15:15:25.910285,358
2021-10-14 15:15:25.910293,363
2021-10-14 15:15:25.910301,336
2021-10-14 15:15:25.910310,304
2021-10-14 15:15:25.910318,260
2021-10-14 15:15:25.910327,159
2021-10-14 15:15:25.910335,49
2021-10-14 15:15:25.910344,-36
2021-10-14 15:15:25.910352,-110
2021-10-14 15:15:25.910360,-169
2021-10-14 15:15:25.910369,-211
2021-10-14 15:15:25.910377,-235
2021-10-14 15:15:25.910385,-238
2021-10-14 15:15:25.910394,-233
2021-10-14 15:15:26.179933,-230
2021-10-14 15:15:26.179964,-225
2021-10-14 15:15:26.179974,-211
2021-10-14 15:15:26.179982,-196
2021-10-14 15:15:26.179991,-186
2021-10-14 15:15:26.180000,-176
2021-10-14 15:15:26.180008,-164
2021-10-14 15:15:26.180017,-152
2021-10-14 15:15:26.180025,-157
2021-10-14 15:15:26.180034,-169
2021-10-14 15:15:26.180042,-161
2021-10-14 15:15:26.180051,-152
2021-10-14 15:15:26.180059,-154
2021-10-14 15:15:26.180068,-149
2021-10-14 15:15:26.180076,-139
2021-10-14 15:15:26.180085,-142
2021-10-14 15:15:26.180093,-144
2021-10-14 15:15:26.180101,-144
2021-10-14 15:15:26.180110,-142
2021-10-14 15:15:26.180118,-125
2021-10-14 15:15:26.180126,-98
2021-10-14 15:15:26.180135,-93
2021-10-14 15:15:26.180143,-103
2021-10-14 15:15:26.180152,-103
2021-10-14 15:15:26.180160,-83
2021-10-14 15:15:26.180168,-71
2021-10-14 15:15:26.180177,-76
2021-10-14 15:15:26.180185,-83
2021-10-14 15:15:26.180194,-90
2021-10-14 15:15:26.180202,-80
2021-10-14 15:15:26.405142,-41
2021-10-14 15:15:26.405163,2
2021-10-14 15:15:26.405172,31
2021-10-14 15:15:26.405181,41
2021-10-14 15:15:26.405190,22
2021-10-14 15:15:26.405198,-7
2021-10-14 15:15:26.405207,-22
2021-10-14 15:15:26.405215,-14
2021-10-14 15:15:26.405224,-12
2021-10-14 15:15:26.405232,-17
2021-10-14 15:15:26.405241,-24
2021-10-14 15:15:26.405249,-26
2021-10-14 15:15:26.405258,-17
2021-10-14 15:15:26.405266,-26
2021-10-14 15:15:26.405275,-66
2021-10-14 15:15:26.405283,-46
2021-10-14 15:15:26.405292,125
2021-10-14 15:15:26.405300,453
2021-10-14 15:15:26.405309,767
2021-10-14 15:15:26.405317,601
2021-10-14 15:15:26.405326,-152
2021-10-14 15:15:26.405334,-515
2021-10-14 15:15:26.405343,-95
2021-10-14 15:15:26.405351,105
2021-10-14 15:15:26.405360,-83
2021-10-14 15:15:26.405368,-49
2021-10-14 15:15:26.405376,41
2021-10-14 15:15:26.405385,-7
2021-10-14 15:15:26.405393,-14
2021-10-14 15:15:26.405401,36
2021-10-14 15:15:26.585163,53
2021-10-14 15:15:26.585184,66
2021-10-14 15:15:26.585194,95
2021-10-14 15:15:26.585203,110
2021-10-14 15:15:26.585211,115
2021-10-14 15:15:26.585220,134
2021-10-14 15:15:26.585228,176
2021-10-14 15:15:26.585236,218
2021-10-14 15:15:26.585244,247
2021-10-14 15:15:26.585252,279
2021-10-14 15:15:26.585261,314
2021-10-14 15:15:26.585269,355
2021-10-14 15:15:26.585277,392
2021-10-14 15:15:26.585286,399
2021-10-14 15:15:26.585294,385
2021-10-14 15:15:26.585302,387
2021-10-14 15:15:26.585310,385
2021-10-14 15:15:26.585318,355
2021-10-14 15:15:26.585327,309
2021-10-14 15:15:26.585335,223
2021-10-14 15:15:26.585343,105
2021-10-14 15:15:26.585352,9
2021-10-14 15:15:26.585360,-63
2021-10-14 15:15:26.585368,-132
2021-10-14 15:15:26.585377,-161
2021-10-14 15:15:26.585385,-159
2021-10-14 15:15:26.585393,-171
2021-10-14 15:15:26.585401,-184
2021-10-14 15:15:26.585410,-191
2021-10-14 15:15:26.585418,-196
2021-10-14 15:15:26.854802,-179
2021-10-14 15:15:26.854823,-154
2021-10-14 15:15:26.854833,-144
2021-10-14 15:15:26.854841,-149
2021-10-14 15:15:26.854850,-142
2021-10-14 15:15:26.854858,-122
2021-10-14 15:15:26.854867,-110
2021-10-14 15:15:26.854875,-103
2021-10-14 15:15:26.854883,-98
2021-10-14 15:15:26.854892,-107
2021-10-14 15:15:26.854900,-115
2021-10-14 15:15:26.854908,-103
2021-10-14 15:15:26.854917,-95
2021-10-14 15:15:26.854925,-90
2021-10-14 15:15:26.854934,-90
2021-10-14 15:15:26.854942,-93
2021-10-14 15:15:26.854950,-88
2021-10-14 15:15:26.854959,-78
2021-10-14 15:15:26.854968,-88
2021-10-14 15:15:26.854976,-105
2021-10-14 15:15:26.854984,-105
2021-10-14 15:15:26.854993,-98
2021-10-14 15:15:26.855001,-103
2021-10-14 15:15:26.855009,-103
2021-10-14 15:15:26.855017,-88
2021-10-14 15:15:26.855026,-68
2021-10-14 15:15:26.855034,-63
2021-10-14 15:15:26.855043,-76
2021-10-14 15:15:26.855051,-73
2021-10-14 15:15:26.855059,-66
2021-10-14 15:15:27.123795,-68
2021-10-14 15:15:27.123815,-46
2021-10-14 15:15:27.123825,-2
2021-10-14 15:15:27.123834,19
2021-10-14 15:15:27.123843,14
2021-10-14 15:15:27.123851,2
2021-10-14 15:15:27.123859,-4
2021-10-14 15:15:27.123868,-14
2021-10-14 15:15:27.123876,-22
2021-10-14 15:15:27.123885,-26
2021-10-14 15:15:27.123893,-29
2021-10-14 15:15:27.123902,-22
2021-10-14 15:15:27.123910,-9
2021-10-14 15:15:27.123919,-22
2021-10-14 15:15:27.123927,-49
2021-10-14 15:15:27.123935,-34
2021-10-14 15:15:27.123944,73
2021-10-14 15:15:27.123952,336
2021-10-14 15:15:27.123961,706
2021-10-14 15:15:27.123969,809
2021-10-14 15:15:27.123978,211
2021-10-14 15:15:27.123986,-495
2021-10-14 15:15:27.123994,-323
2021-10-14 15:15:27.124003,112
2021-10-14 15:15:27.124011,22
2021-10-14 15:15:27.124020,-85
2021-10-14 15:15:27.124028,19
2021-10-14 15:15:27.124036,26
2021-10-14 15:15:27.124045,-17
2021-10-14 15:15:27.124053,19
2021-10-14 15:15:27.305171,49
2021-10-14 15:15:27.305192,53
2021-10-14 15:15:27.305202,68
2021-10-14 15:15:27.305211,88
2021-10-14 15:15:27.305219,105
2021-10-14 15:15:27.305228,130
2021-10-14 15:15:27.305236,159
2021-10-14 15:15:27.305244,181
2021-10-14 15:15:27.305253,196
2021-10-14 15:15:27.305261,228
2021-10-14 15:15:27.305269,277
2021-10-14 15:15:27.305278,309
2021-10-14 15:15:27.305286,331
2021-10-14 15:15:27.305294,355
2021-10-14 15:15:27.305302,365
2021-10-14 15:15:27.305311,365
2021-10-14 15:15:27.305319,370
2021-10-14 15:15:27.305327,353
2021-10-14 15:15:27.305336,306
2021-10-14 15:15:27.305344,238
2021-10-14 15:15:27.305352,147
2021-10-14 15:15:27.305361,46
2021-10-14 15:15:27.305369,-44
2021-10-14 15:15:27.305377,-112
2021-10-14 15:15:27.305385,-159
2021-10-14 15:15:27.305393,-223
2021-10-14 15:15:27.305402,-262
2021-10-14 15:15:27.305410,-238
2021-10-14 15:15:27.305418,-223
2021-10-14 15:15:27.305427,-238
2021-10-14 15:15:27.530304,-225
2021-10-14 15:15:27.530325,-206
2021-10-14 15:15:27.530334,-201
2021-10-14 15:15:27.530343,-191
2021-10-14 15:15:27.530351,-179
2021-10-14 15:15:27.530360,-176
2021-10-14 15:15:27.530368,-174
2021-10-14 15:15:27.530377,-171
2021-10-14 15:15:27.530432,-166
2021-10-14 15:15:27.530441,-161
2021-10-14 15:15:27.530450,-159
2021-10-14 15:15:27.530458,-154
2021-10-14 15:15:27.530466,-139
2021-10-14 15:15:27.530475,-149
2021-10-14 15:15:27.530483,-161
2021-10-14 15:15:27.530492,-147
2021-10-14 15:15:27.530500,-137
2021-10-14 15:15:27.530508,-142
2021-10-14 15:15:27.530517,-139
2021-10-14 15:15:27.530525,-137
2021-10-14 15:15:27.530533,-144
2021-10-14 15:15:27.530542,-149
2021-10-14 15:15:27.530550,-137
2021-10-14 15:15:27.530559,-132
2021-10-14 15:15:27.530567,-134
2021-10-14 15:15:27.530575,-132
2021-10-14 15:15:27.530584,-117
2021-10-14 15:15:27.530592,-117
2021-10-14 15:15:27.530600,-125
2021-10-14 15:15:27.530609,-112
2021-10-14 15:15:27.755257,-110
2021-10-14 15:15:27.755278,-122
2021-10-14 15:15:27.755288,-115
2021-10-14 15:15:27.755296,-88
2021-10-14 15:15:27.755305,-58
2021-10-14 15:15:27.755313,-39
2021-10-14 15:15:27.755322,-34
2021-10-14 15:15:27.755330,-49
2021-10-14 15:15:27.755339,-71
2021-10-14 15:15:27.755347,-83
2021-10-14 15:15:27.755356,-88
2021-10-14 15:15:27.755364,-83
2021-10-14 15:15:27.755372,-80
2021-10-14 15:15:27.755381,-90
2021-10-14 15:15:27.755389,-85
2021-10-14 15:15:27.755397,-76
2021-10-14 15:15:27.755406,-80
2021-10-14 15:15:27.755414,-78
2021-10-14 15:15:27.755422,-17
2021-10-14 15:15:27.755431,176
2021-10-14 15:15:27.755439,507
2021-10-14 15:15:27.755448,721
2021-10-14 15:15:27.755456,375
2021-10-14 15:15:27.755465,-360
2021-10-14 15:15:27.755473,-493
2021-10-14 15:15:27.755482,-19
2021-10-14 15:15:27.755490,73
2021-10-14 15:15:27.755499,-98
2021-10-14 15:15:27.755507,-44
2021-10-14 15:15:27.755515,9
2021-10-14 15:15:27.980261,-46
2021-10-14 15:15:27.980283,-46
2021-10-14 15:15:27.980292,0
2021-10-14 15:15:27.980301,12
2021-10-14 15:15:27.980310,17
2021-10-14 15:15:27.980318,29
2021-10-14 15:15:27.980326,39
2021-10-14 15:15:27.980335,66
2021-10-14 15:15:27.980343,100
2021-10-14 15:15:27.980352,117
2021-10-14 15:15:27.980360,139
2021-10-14 15:15:27.980369,171
2021-10-14 15:15:27.980377,206
2021-10-14 15:15:27.980386,245
2021-10-14 15:15:27.980394,291
2021-10-14 15:15:27.980402,323
2021-10-14 15:15:27.980411,336
2021-10-14 15:15:27.980420,338
2021-10-14 15:15:27.980428,350
2021-10-14 15:15:27.980437,345
2021-10-14 15:15:27.980445,309
2021-10-14 15:15:27.980453,242
2021-10-14 15:15:27.980462,159
2021-10-14 15:15:27.980470,63
2021-10-14 15:15:27.980479,-29
2021-10-14 15:15:27.980487,-120
2021-10-14 15:15:27.980496,-196
2021-10-14 15:15:27.980504,-235
2021-10-14 15:15:27.980513,-250
2021-10-14 15:15:27.980521,-257
2021-10-14 15:15:28.204817,-255
