Time,ECG
2021-10-14 15:20:00.835911,-196
2021-10-14 15:20:00.835931,-196
2021-10-14 15:20:00.835941,-184
2021-10-14 15:20:00.835950,-169
2021-10-14 15:20:00.835958,-159
2021-10-14 15:20:00.835967,-152
2021-10-14 15:20:00.835976,-149
2021-10-14 15:20:00.835984,-139
2021-10-14 15:20:00.835993,-125
2021-10-14 15:20:00.836001,-134
2021-10-14 15:20:00.836010,-137
2021-10-14 15:20:00.836018,-117
2021-10-14 15:20:00.836027,-120
2021-10-14 15:20:00.836035,-134
2021-10-14 15:20:00.836044,-127
2021-10-14 15:20:00.836052,-115
2021-10-14 15:20:00.836060,-125
2021-10-14 15:20:00.836069,-132
2021-10-14 15:20:00.836078,-122
2021-10-14 15:20:00.836086,-105
2021-10-14 15:20:00.836094,-107
2021-10-14 15:20:00.836103,-112
2021-10-14 15:20:00.836111,-105
2021-10-14 15:20:00.836120,-95
2021-10-14 15:20:00.836128,-95
2021-10-14 15:20:00.836137,-85
2021-10-14 15:20:00.836146,-73
2021-10-14 15:20:00.836154,-66
2021-10-14 15:20:00.836163,-61
2021-10-14 15:20:00.836171,-58
2021-10-14 15:20:00.952484,-63
2021-10-14 15:20:00.952506,-73
2021-10-14 15:20:00.952515,-83
2021-10-14 15:20:00.952524,-66
2021-10-14 15:20:00.952533,-29
2021-10-14 15:20:00.952541,-9
2021-10-14 15:20:00.952551,-9
2021-10-14 15:20:00.952559,4
2021-10-14 15:20:00.952568,7
2021-10-14 15:20:00.952576,-24
2021-10-14 15:20:00.952585,-46
2021-10-14 15:20:00.952594,-46
2021-10-14 15:20:00.952602,-49
2021-10-14 15:20:00.952610,-44
2021-10-14 15:20:00.952619,-24
2021-10-14 15:20:00.952627,-24
2021-10-14 15:20:00.952636,-46
2021-10-14 15:20:00.952645,-51
2021-10-14 15:20:00.952654,-12
2021-10-14 15:20:00.952662,125
2021-10-14 15:20:00.952671,458
2021-10-14 15:20:00.952679,831
2021-10-14 15:20:00.952688,750
2021-10-14 15:20:00.952696,-9
2021-10-14 15:20:00.952705,-549
2021-10-14 15:20:00.952713,-188
2021-10-14 15:20:00.952721,125
2021-10-14 15:20:00.952730,-46
2021-10-14 15:20:00.952738,-61
2021-10-14 15:20:00.952748,46
2021-10-14 15:20:01.133422,14
2021-10-14 15:20:01.133444,-2
2021-10-14 15:20:01.133454,36
2021-10-14 15:20:01.133463,49
2021-10-14 15:20:01.133471,56
2021-10-14 15:20:01.133480,56
2021-10-14 15:20:01.133488,53
2021-10-14 15:20:01.133497,93
2021-10-14 15:20:01.133505,137
2021-10-14 15:20:01.133513,147
2021-10-14 15:20:01.133522,171
2021-10-14 15:20:01.133530,206
2021-10-14 15:20:01.133539,233
2021-10-14 15:20:01.133551,272
2021-10-14 15:20:01.133559,326
2021-10-14 15:20:01.133568,368
2021-10-14 15:20:01.133576,397
2021-10-14 15:20:01.133585,422
2021-10-14 15:20:01.133593,439
2021-10-14 15:20:01.133601,431
2021-10-14 15:20:01.133610,409
2021-10-14 15:20:01.133618,350
2021-10-14 15:20:01.133626,233
2021-10-14 15:20:01.133634,105
2021-10-14 15:20:01.133643,-2
2021-10-14 15:20:01.133651,-93
2021-10-14 15:20:01.133659,-161
2021-10-14 15:20:01.133667,-213
2021-10-14 15:20:01.133676,-245
2021-10-14 15:20:01.133686,-242
2021-10-14 15:20:01.358441,-228
2021-10-14 15:20:01.358462,-225
2021-10-14 15:20:01.358471,-235
2021-10-14 15:20:01.358480,-238
2021-10-14 15:20:01.358489,-235
2021-10-14 15:20:01.358497,-228
2021-10-14 15:20:01.358506,-206
2021-10-14 15:20:01.358514,-188
2021-10-14 15:20:01.358523,-186
2021-10-14 15:20:01.358531,-181
2021-10-14 15:20:01.358540,-169
2021-10-14 15:20:01.358549,-154
2021-10-14 15:20:01.358557,-152
2021-10-14 15:20:01.358566,-147
2021-10-14 15:20:01.358574,-127
2021-10-14 15:20:01.358583,-120
2021-10-14 15:20:01.358591,-127
2021-10-14 15:20:01.358604,-110
2021-10-14 15:20:01.358613,-93
2021-10-14 15:20:01.358622,-98
2021-10-14 15:20:01.358630,-95
2021-10-14 15:20:01.358639,-93
2021-10-14 15:20:01.358647,-105
2021-10-14 15:20:01.358656,-105
2021-10-14 15:20:01.358664,-85
2021-10-14 15:20:01.358672,-83
2021-10-14 15:20:01.358681,-105
2021-10-14 15:20:01.358689,-105
2021-10-14 15:20:01.358697,-85
2021-10-14 15:20:01.358706,-78
2021-10-14 15:20:01.628835,-73
2021-10-14 15:20:01.628858,-66
2021-10-14 15:20:01.628867,-71
2021-10-14 15:20:01.628876,-83
2021-10-14 15:20:01.628884,-80
2021-10-14 15:20:01.628892,-68
2021-10-14 15:20:01.628900,-63
2021-10-14 15:20:01.628913,-63
2021-10-14 15:20:01.628922,-61
2021-10-14 15:20:01.628930,-66
2021-10-14 15:20:01.628937,-63
2021-10-14 15:20:01.628946,-61
2021-10-14 15:20:01.628954,-71
2021-10-14 15:20:01.628962,-71
2021-10-14 15:20:01.628970,-63
2021-10-14 15:20:01.628978,-76
2021-10-14 15:20:01.628987,-78
2021-10-14 15:20:01.628995,-66
2021-10-14 15:20:01.629004,-71
2021-10-14 15:20:01.629012,-78
2021-10-14 15:20:01.629021,-58
2021-10-14 15:20:01.629029,-34
2021-10-14 15:20:01.629038,-22
2021-10-14 15:20:01.629046,-26
2021-10-14 15:20:01.629055,-36
2021-10-14 15:20:01.629063,-36
2021-10-14 15:20:01.629072,-41
2021-10-14 15:20:01.629080,-56
2021-10-14 15:20:01.629088,-66
2021-10-14 15:20:01.629098,-63
2021-10-14 15:20:01.853825,-51
2021-10-14 15:20:01.853848,-46
2021-10-14 15:20:01.853857,-44
2021-10-14 15:20:01.853866,-44
2021-10-14 15:20:01.853875,-34
2021-10-14 15:20:01.853883,41
2021-10-14 15:20:01.853892,304
2021-10-14 15:20:01.853900,733
2021-10-14 15:20:01.853909,969
2021-10-14 15:20:01.853917,483
2021-10-14 15:20:01.853926,-336
2021-10-14 15:20:01.853934,-372
2021-10-14 15:20:01.853943,80
2021-10-14 15:20:01.853951,58
2021-10-14 15:20:01.853960,-100
2021-10-14 15:20:01.853968,-4
2021-10-14 15:20:01.853977,31
2021-10-14 15:20:01.853985,-12
2021-10-14 15:20:01.853993,19
2021-10-14 15:20:01.854002,58
2021-10-14 15:20:01.854010,61
2021-10-14 15:20:01.854019,78
2021-10-14 15:20:01.854027,98
2021-10-14 15:20:01.854035,107
2021-10-14 15:20:01.854048,134
2021-10-14 15:20:01.854056,161
2021-10-14 15:20:01.854065,174
2021-10-14 15:20:01.854073,203
2021-10-14 15:20:01.854082,247
2021-10-14 15:20:01.854090,287
2021-10-14 15:20:02.168449,326
2021-10-14 15:20:02.168471,365
2021-10-14 15:20:02.168480,397
2021-10-14 15:20:02.168489,426
2021-10-14 15:20:02.168498,451
2021-10-14 15:20:02.168508,458
2021-10-14 15:20:02.168516,453
2021-10-14 15:20:02.168525,417
2021-10-14 15:20:02.168533,338
2021-10-14 15:20:02.168542,230
2021-10-14 15:20:02.168551,117
2021-10-14 15:20:02.168559,9
2021-10-14 15:20:02.168568,-85
2021-10-14 15:20:02.168576,-169
2021-10-14 15:20:02.168585,-220
2021-10-14 15:20:02.168594,-238
2021-10-14 15:20:02.168602,-240
2021-10-14 15:20:02.168611,-255
2021-10-14 15:20:02.168619,-262
2021-10-14 15:20:02.168628,-257
2021-10-14 15:20:02.168636,-255
2021-10-14 15:20:02.168645,-250
2021-10-14 15:20:02.168655,-235
2021-10-14 15:20:02.168664,-228
2021-10-14 15:20:02.168672,-230
2021-10-14 15:20:02.168681,-228
2021-10-14 15:20:02.168689,-220
2021-10-14 15:20:02.168698,-218
2021-10-14 15:20:02.168706,-218
2021-10-14 15:20:02.168715,-213
2021-10-14 15:20:02.303465,-208
2021-10-14 15:20:02.303487,-206
2021-10-14 15:20:02.303496,-208
2021-10-14 15:20:02.303505,-208
2021-10-14 15:20:02.303514,-201
2021-10-14 15:20:02.303522,-196
2021-10-14 15:20:02.303531,-201
2021-10-14 15:20:02.303539,-208
2021-10-14 15:20:02.303548,-203
2021-10-14 15:20:02.303556,-206
2021-10-14 15:20:02.303565,-206
2021-10-14 15:20:02.303573,-198
2021-10-14 15:20:02.303582,-198
2021-10-14 15:20:02.303590,-201
2021-10-14 15:20:02.303599,-196
2021-10-14 15:20:02.303607,-203
2021-10-14 15:20:02.303616,-215
2021-10-14 15:20:02.303624,-211
2021-10-14 15:20:02.303633,-201
2021-10-14 15:20:02.303641,-196
2021-10-14 15:20:02.303650,-196
2021-10-14 15:20:02.303658,-201
2021-10-14 15:20:02.303667,-206
2021-10-14 15:20:02.303675,-206
2021-10-14 15:20:02.303688,-208
2021-10-14 15:20:02.303697,-211
2021-10-14 15:20:02.303706,-206
2021-10-14 15:20:02.303714,-201
2021-10-14 15:20:02.303722,-198
2021-10-14 15:20:02.303731,-193
2021-10-14 15:20:02.528813,-191
2021-10-14 15:20:02.528835,-188
2021-10-14 15:20:02.528844,-176
2021-10-14 15:20:02.528853,-169
2021-10-14 15:20:02.528862,-161
2021-10-14 15:20:02.528871,-159
2021-10-14 15:20:02.528879,-159
2021-10-14 15:20:02.528888,-149
2021-10-14 15:20:02.528896,-139
2021-10-14 15:20:02.528905,-142
2021-10-14 15:20:02.528913,-144
2021-10-14 15:20:02.528922,-147
2021-10-14 15:20:02.528930,-147
2021-10-14 15:20:02.528939,-120
2021-10-14 15:20:02.528947,-80
2021-10-14 15:20:02.528956,-68
2021-10-14 15:20:02.528964,-66
2021-10-14 15:20:02.528973,-61
2021-10-14 15:20:02.528981,-66
2021-10-14 15:20:02.528989,-83
2021-10-14 15:20:02.528998,-100
2021-10-14 15:20:02.529006,-95
2021-10-14 15:20:02.529015,-73
2021-10-14 15:20:02.529023,-61
2021-10-14 15:20:02.529032,-73
2021-10-14 15:20:02.529040,-78
2021-10-14 15:20:02.529049,-71
2021-10-14 15:20:02.529057,-49
2021-10-14 15:20:02.529066,78
2021-10-14 15:20:02.529074,409
2021-10-14 15:20:02.753472,817
2021-10-14 15:20:02.753493,824
2021-10-14 15:20:02.753503,98
2021-10-14 15:20:02.753512,-522
2021-10-14 15:20:02.753521,-220
2021-10-14 15:20:02.753529,115
2021-10-14 15:20:02.753538,-53
2021-10-14 15:20:02.753547,-85
2021-10-14 15:20:02.753556,24
2021-10-14 15:20:02.753564,-9
2021-10-14 15:20:02.753573,-29
2021-10-14 15:20:02.753581,17
2021-10-14 15:20:02.753590,24
2021-10-14 15:20:02.753598,31
2021-10-14 15:20:02.753607,61
2021-10-14 15:20:02.753616,73
2021-10-14 15:20:02.753624,90
2021-10-14 15:20:02.753633,122
2021-10-14 15:20:02.753641,152
2021-10-14 15:20:02.753650,181
2021-10-14 15:20:02.753658,215
2021-10-14 15:20:02.753667,245
2021-10-14 15:20:02.753675,284
2021-10-14 15:20:02.753684,338
2021-10-14 15:20:02.753692,377
2021-10-14 15:20:02.753701,407
2021-10-14 15:20:02.753709,431
2021-10-14 15:20:02.753718,451
2021-10-14 15:20:02.753726,456
2021-10-14 15:20:02.753734,444
2021-10-14 15:20:03.022494,404
2021-10-14 15:20:03.022515,326
2021-10-14 15:20:03.022525,213
2021-10-14 15:20:03.022534,88
2021-10-14 15:20:03.022543,-34
2021-10-14 15:20:03.022551,-130
2021-10-14 15:20:03.022560,-184
2021-10-14 15:20:03.022568,-223
2021-10-14 15:20:03.022577,-252
2021-10-14 15:20:03.022586,-260
2021-10-14 15:20:03.022598,-262
2021-10-14 15:20:03.022607,-264
2021-10-14 15:20:03.022616,-257
2021-10-14 15:20:03.022624,-245
2021-10-14 15:20:03.022633,-235
2021-10-14 15:20:03.022642,-228
2021-10-14 15:20:03.022650,-215
2021-10-14 15:20:03.022659,-201
2021-10-14 15:20:03.022667,-191
2021-10-14 15:20:03.022676,-184
2021-10-14 15:20:03.022684,-176
2021-10-14 15:20:03.022693,-176
2021-10-14 15:20:03.022701,-171
2021-10-14 15:20:03.022710,-161
2021-10-14 15:20:03.022718,-152
2021-10-14 15:20:03.022727,-149
2021-10-14 15:20:03.022735,-152
2021-10-14 15:20:03.022744,-152
2021-10-14 15:20:03.022752,-157
2021-10-14 15:20:03.022761,-171
2021-10-14 15:20:03.248481,-184
2021-10-14 15:20:03.248502,-184
2021-10-14 15:20:03.248512,-179
2021-10-14 15:20:03.248521,-184
2021-10-14 15:20:03.248529,-193
2021-10-14 15:20:03.248538,-193
2021-10-14 15:20:03.248547,-188
2021-10-14 15:20:03.248555,-184
2021-10-14 15:20:03.248564,-179
2021-10-14 15:20:03.248572,-184
2021-10-14 15:20:03.248581,-188
2021-10-14 15:20:03.248589,-176
2021-10-14 15:20:03.248598,-169
2021-10-14 15:20:03.248606,-166
2021-10-14 15:20:03.248615,-159
2021-10-14 15:20:03.248623,-154
2021-10-14 15:20:03.248632,-152
2021-10-14 15:20:03.248640,-144
2021-10-14 15:20:03.248649,-137
2021-10-14 15:20:03.248657,-134
2021-10-14 15:20:03.248666,-130
2021-10-14 15:20:03.248675,-127
2021-10-14 15:20:03.248683,-125
2021-10-14 15:20:03.248692,-117
2021-10-14 15:20:03.248700,-112
2021-10-14 15:20:03.248712,-112
2021-10-14 15:20:03.248721,-100
2021-10-14 15:20:03.248729,-76
2021-10-14 15:20:03.248738,-51
2021-10-14 15:20:03.248746,-39
2021-10-14 15:20:03.473822,-39
2021-10-14 15:20:03.473843,-44
2021-10-14 15:20:03.473853,-56
2021-10-14 15:20:03.473861,-78
2021-10-14 15:20:03.473870,-85
2021-10-14 15:20:03.473879,-71
2021-10-14 15:20:03.473887,-68
2021-10-14 15:20:03.473896,-73
2021-10-14 15:20:03.473904,-85
2021-10-14 15:20:03.473912,-98
2021-10-14 15:20:03.473921,-88
2021-10-14 15:20:03.473929,-22
2021-10-14 15:20:03.473938,198
2021-10-14 15:20:03.473946,598
2021-10-14 15:20:03.473955,839
2021-10-14 15:20:03.473964,407
2021-10-14 15:20:03.473972,-360
2021-10-14 15:20:03.473980,-407
2021-10-14 15:20:03.473989,36
2021-10-14 15:20:03.473997,39
2021-10-14 15:20:03.474005,-103
2021-10-14 15:20:03.474014,-14
2021-10-14 15:20:03.474022,17
2021-10-14 15:20:03.474030,-22
2021-10-14 15:20:03.474039,17
2021-10-14 15:20:03.474047,49
2021-10-14 15:20:03.474055,36
2021-10-14 15:20:03.474064,49
2021-10-14 15:20:03.474072,80
2021-10-14 15:20:03.474080,103
2021-10-14 15:20:03.744053,122
2021-10-14 15:20:03.744079,152
2021-10-14 15:20:03.744090,174
2021-10-14 15:20:03.744099,193
2021-10-14 15:20:03.744108,230
2021-10-14 15:20:03.744117,267
2021-10-14 15:20:03.744126,296
2021-10-14 15:20:03.744134,333
2021-10-14 15:20:03.744143,368
2021-10-14 15:20:03.744151,385
2021-10-14 15:20:03.744159,404
2021-10-14 15:20:03.744168,422
2021-10-14 15:20:03.744176,417
2021-10-14 15:20:03.744185,387
2021-10-14 15:20:03.744194,321
2021-10-14 15:20:03.744202,211
2021-10-14 15:20:03.744213,90
2021-10-14 15:20:03.744222,-9
2021-10-14 15:20:03.744233,-98
2021-10-14 15:20:03.744265,-169
2021-10-14 15:20:03.744294,-213
2021-10-14 15:20:03.744303,-233
2021-10-14 15:20:03.744311,-240
2021-10-14 15:20:03.744320,-240
2021-10-14 15:20:03.744328,-233
2021-10-14 15:20:03.744336,-223
2021-10-14 15:20:03.744345,-218
2021-10-14 15:20:03.744353,-215
2021-10-14 15:20:03.744361,-208
2021-10-14 15:20:03.744370,-203
2021-10-14 15:20:03.968442,-196
2021-10-14 15:20:03.968463,-186
2021-10-14 15:20:03.968473,-176
2021-10-14 15:20:03.968482,-166
2021-10-14 15:20:03.968491,-159
2021-10-14 15:20:03.968499,-152
2021-10-14 15:20:03.968508,-147
2021-10-14 15:20:03.968517,-149
2021-10-14 15:20:03.968525,-149
2021-10-14 15:20:03.968534,-137
2021-10-14 15:20:03.968542,-130
2021-10-14 15:20:03.968551,-132
2021-10-14 15:20:03.968559,-134
2021-10-14 15:20:03.968568,-137
2021-10-14 15:20:03.968577,-139
2021-10-14 15:20:03.968585,-142
2021-10-14 15:20:03.968594,-134
2021-10-14 15:20:03.968602,-127
2021-10-14 15:20:03.968611,-127
2021-10-14 15:20:03.968619,-134
2021-10-14 15:20:03.968628,-137
2021-10-14 15:20:03.968637,-130
2021-10-14 15:20:03.968645,-117
2021-10-14 15:20:03.968654,-112
2021-10-14 15:20:03.968662,-107
2021-10-14 15:20:03.968670,-105
2021-10-14 15:20:03.968679,-103
2021-10-14 15:20:03.968687,-95
2021-10-14 15:20:03.968696,-90
2021-10-14 15:20:03.968704,-80
2021-10-14 15:20:04.148485,-78
2021-10-14 15:20:04.148506,-78
2021-10-14 15:20:04.148516,-73
2021-10-14 15:20:04.148525,-68
2021-10-14 15:20:04.148533,-61
2021-10-14 15:20:04.148542,-56
2021-10-14 15:20:04.148550,-56
2021-10-14 15:20:04.148559,-58
2021-10-14 15:20:04.148567,-56
2021-10-14 15:20:04.148575,-53
2021-10-14 15:20:04.148584,-53
2021-10-14 15:20:04.148592,-66
2021-10-14 15:20:04.148600,-80
2021-10-14 15:20:04.148613,-73
2021-10-14 15:20:04.148622,-44
2021-10-14 15:20:04.148630,-14
2021-10-14 15:20:04.148639,-2
2021-10-14 15:20:04.148647,-7
2021-10-14 15:20:04.148656,-14
2021-10-14 15:20:04.148664,-24
2021-10-14 15:20:04.148672,-34
2021-10-14 15:20:04.148681,-41
2021-10-14 15:20:04.148690,-34
2021-10-14 15:20:04.148698,-22
2021-10-14 15:20:04.148706,-22
2021-10-14 15:20:04.148715,-24
2021-10-14 15:20:04.148723,-24
2021-10-14 15:20:04.148731,-24
2021-10-14 15:20:04.148740,24
2021-10-14 15:20:04.148748,225
2021-10-14 15:20:04.373837,628
2021-10-14 15:20:04.373857,988
2021-10-14 15:20:04.373866,748
2021-10-14 15:20:04.373875,-63
2021-10-14 15:20:04.373884,-370
2021-10-14 15:20:04.373892,29
2021-10-14 15:20:04.373901,122
2021-10-14 15:20:04.373909,-66
2021-10-14 15:20:04.373918,-7
2021-10-14 15:20:04.373926,58
2021-10-14 15:20:04.373935,4
2021-10-14 15:20:04.373943,14
2021-10-14 15:20:04.373952,53
2021-10-14 15:20:04.373960,49
2021-10-14 15:20:04.373969,63
2021-10-14 15:20:04.373978,85
2021-10-14 15:20:04.373986,90
2021-10-14 15:20:04.373995,105
2021-10-14 15:20:04.374003,134
2021-10-14 15:20:04.374012,157
2021-10-14 15:20:04.374020,181
2021-10-14 15:20:04.374028,218
2021-10-14 15:20:04.374037,257
2021-10-14 15:20:04.374046,296
2021-10-14 15:20:04.374054,333
2021-10-14 15:20:04.374062,372
2021-10-14 15:20:04.374071,407
2021-10-14 15:20:04.374079,429
2021-10-14 15:20:04.374088,444
2021-10-14 15:20:04.374096,449
2021-10-14 15:20:04.598461,424
2021-10-14 15:20:04.598481,372
2021-10-14 15:20:04.598491,296
2021-10-14 15:20:04.598500,188
2021-10-14 15:20:04.598508,71
2021-10-14 15:20:04.598517,-29
2021-10-14 15:20:04.598526,-117
2021-10-14 15:20:04.598534,-174
2021-10-14 15:20:04.598542,-203
2021-10-14 15:20:04.598551,-218
2021-10-14 15:20:04.598559,-225
2021-10-14 15:20:04.598568,-228
2021-10-14 15:20:04.598576,-235
2021-10-14 15:20:04.598585,-235
2021-10-14 15:20:04.598593,-230
2021-10-14 15:20:04.598601,-228
2021-10-14 15:20:04.598610,-220
2021-10-14 15:20:04.598621,-211
2021-10-14 15:20:04.598630,-211
2021-10-14 15:20:04.598638,-206
2021-10-14 15:20:04.598647,-191
2021-10-14 15:20:04.598655,-184
2021-10-14 15:20:04.598664,-179
2021-10-14 15:20:04.598672,-171
2021-10-14 15:20:04.598681,-159
2021-10-14 15:20:04.598689,-152
2021-10-14 15:20:04.598698,-149
2021-10-14 15:20:04.598706,-144
2021-10-14 15:20:04.598715,-137
2021-10-14 15:20:04.598723,-132
2021-10-14 15:20:04.823845,-130
2021-10-14 15:20:04.823866,-125
2021-10-14 15:20:04.823875,-120
2021-10-14 15:20:04.823884,-117
2021-10-14 15:20:04.823893,-122
2021-10-14 15:20:04.823902,-127
2021-10-14 15:20:04.823910,-120
2021-10-14 15:20:04.823919,-110
2021-10-14 15:20:04.823927,-103
2021-10-14 15:20:04.823935,-100
2021-10-14 15:20:04.823944,-105
2021-10-14 15:20:04.823953,-110
2021-10-14 15:20:04.823961,-100
2021-10-14 15:20:04.823970,-90
2021-10-14 15:20:04.823978,-88
2021-10-14 15:20:04.823986,-85
2021-10-14 15:20:04.823995,-83
2021-10-14 15:20:04.824003,-78
2021-10-14 15:20:04.824012,-71
2021-10-14 15:20:04.824020,-71
2021-10-14 15:20:04.824029,-76
2021-10-14 15:20:04.824037,-78
2021-10-14 15:20:04.824045,-71
2021-10-14 15:20:04.824054,-66
2021-10-14 15:20:04.824062,-58
2021-10-14 15:20:04.824071,-51
2021-10-14 15:20:04.824079,-51
2021-10-14 15:20:04.824098,-51
2021-10-14 15:20:04.824107,-53
2021-10-14 15:20:04.824114,-58
2021-10-14 15:20:05.093118,-56
2021-10-14 15:20:05.093139,-34
2021-10-14 15:20:05.093148,0
2021-10-14 15:20:05.093157,14
2021-10-14 15:20:05.093166,7
2021-10-14 15:20:05.093174,0
2021-10-14 15:20:05.093183,-4
2021-10-14 15:20:05.093191,-14
2021-10-14 15:20:05.093200,-26
2021-10-14 15:20:05.093209,-29
2021-10-14 15:20:05.093217,-26
2021-10-14 15:20:05.093226,-26
2021-10-14 15:20:05.093234,-22
2021-10-14 15:20:05.093243,-19
2021-10-14 15:20:05.093251,-22
2021-10-14 15:20:05.093260,-4
2021-10-14 15:20:05.093268,115
2021-10-14 15:20:05.093276,446
2021-10-14 15:20:05.093285,880
2021-10-14 15:20:05.093293,934
2021-10-14 15:20:05.093302,240
2021-10-14 15:20:05.093311,-414
2021-10-14 15:20:05.093319,-179
2021-10-14 15:20:05.093328,139
2021-10-14 15:20:05.093337,-26
2021-10-14 15:20:05.093345,-76
2021-10-14 15:20:05.093354,39
2021-10-14 15:20:05.093362,4
2021-10-14 15:20:05.093371,-24
2021-10-14 15:20:05.093384,31
2021-10-14 15:20:05.318489,53
2021-10-14 15:20:05.318510,51
2021-10-14 15:20:05.318520,71
2021-10-14 15:20:05.318529,80
2021-10-14 15:20:05.318537,90
2021-10-14 15:20:05.318546,125
2021-10-14 15:20:05.318554,159
2021-10-14 15:20:05.318563,184
2021-10-14 15:20:05.318571,208
2021-10-14 15:20:05.318580,230
2021-10-14 15:20:05.318588,257
2021-10-14 15:20:05.318597,299
2021-10-14 15:20:05.318605,345
2021-10-14 15:20:05.318613,382
2021-10-14 15:20:05.318622,407
2021-10-14 15:20:05.318630,417
2021-10-14 15:20:05.318639,424
2021-10-14 15:20:05.318647,422
2021-10-14 15:20:05.318656,390
2021-10-14 15:20:05.318664,326
2021-10-14 15:20:05.318673,228
2021-10-14 15:20:05.318681,103
2021-10-14 15:20:05.318690,-12
2021-10-14 15:20:05.318699,-103
2021-10-14 15:20:05.318707,-176
2021-10-14 15:20:05.318716,-225
2021-10-14 15:20:05.318724,-247
2021-10-14 15:20:05.318732,-260
2021-10-14 15:20:05.318741,-264
2021-10-14 15:20:05.318750,-260
2021-10-14 15:20:05.544014,-260
2021-10-14 15:20:05.544036,-260
2021-10-14 15:20:05.544045,-255
2021-10-14 15:20:05.544054,-240
2021-10-14 15:20:05.544063,-230
2021-10-14 15:20:05.544073,-220
2021-10-14 15:20:05.544082,-211
2021-10-14 15:20:05.544091,-201
2021-10-14 15:20:05.544100,-201
2021-10-14 15:20:05.544109,-198
2021-10-14 15:20:05.544118,-186
2021-10-14 15:20:05.544126,-171
2021-10-14 15:20:05.544135,-161
2021-10-14 15:20:05.544143,-164
2021-10-14 15:20:05.544152,-169
2021-10-14 15:20:05.544161,-166
2021-10-14 15:20:05.544169,-159
2021-10-14 15:20:05.544178,-149
2021-10-14 15:20:05.544186,-142
2021-10-14 15:20:05.544195,-139
2021-10-14 15:20:05.544204,-142
2021-10-14 15:20:05.544212,-139
2021-10-14 15:20:05.544220,-134
2021-10-14 15:20:05.544228,-127
2021-10-14 15:20:05.544236,-117
2021-10-14 15:20:05.544243,-120
2021-10-14 15:20:05.544251,-125
2021-10-14 15:20:05.544259,-117
2021-10-14 15:20:05.544268,-115
2021-10-14 15:20:05.544276,-127
2021-10-14 15:20:05.768898,-130
2021-10-14 15:20:05.768919,-115
2021-10-14 15:20:05.768929,-105
2021-10-14 15:20:05.768937,-112
2021-10-14 15:20:05.768946,-112
2021-10-14 15:20:05.768955,-98
2021-10-14 15:20:05.768963,-85
2021-10-14 15:20:05.768972,-95
2021-10-14 15:20:05.768980,-115
2021-10-14 15:20:05.768989,-107
2021-10-14 15:20:05.768997,-71
2021-10-14 15:20:05.769006,-36
2021-10-14 15:20:05.769015,-26
2021-10-14 15:20:05.769023,-34
2021-10-14 15:20:05.769032,-49
2021-10-14 15:20:05.769040,-56
2021-10-14 15:20:05.769050,-56
2021-10-14 15:20:05.769058,-58
2021-10-14 15:20:05.769067,-56
2021-10-14 15:20:05.769075,-46
2021-10-14 15:20:05.769089,-41
2021-10-14 15:20:05.769098,-44
2021-10-14 15:20:05.769106,-39
2021-10-14 15:20:05.769115,-29
2021-10-14 15:20:05.769123,7
2021-10-14 15:20:05.769135,159
2021-10-14 15:20:05.769144,505
2021-10-14 15:20:05.769153,841
2021-10-14 15:20:05.769162,642
2021-10-14 15:20:05.769170,-161
2021-10-14 15:20:05.993484,-542
2021-10-14 15:20:05.993507,-90
2021-10-14 15:20:05.993517,142
2021-10-14 15:20:05.993526,-44
2021-10-14 15:20:05.993534,-17
2021-10-14 15:20:05.993543,76
2021-10-14 15:20:05.993552,22
2021-10-14 15:20:05.993560,14
2021-10-14 15:20:05.993569,66
2021-10-14 15:20:05.993578,68
2021-10-14 15:20:05.993586,73
2021-10-14 15:20:05.993595,107
2021-10-14 15:20:05.993603,125
2021-10-14 15:20:05.993612,127
2021-10-14 15:20:05.993620,152
2021-10-14 15:20:05.993629,181
2021-10-14 15:20:05.993637,208
2021-10-14 15:20:05.993646,242
2021-10-14 15:20:05.993654,282
2021-10-14 15:20:05.993663,316
2021-10-14 15:20:05.993671,355
2021-10-14 15:20:05.993680,399
2021-10-14 15:20:05.993688,439
2021-10-14 15:20:05.993696,463
2021-10-14 15:20:05.993705,473
2021-10-14 15:20:05.993713,468
2021-10-14 15:20:05.993721,453
2021-10-14 15:20:05.993730,407
2021-10-14 15:20:05.993738,316
2021-10-14 15:20:05.993747,196
2021-10-14 15:20:06.218516,71
2021-10-14 15:20:06.218537,-36
2021-10-14 15:20:06.218547,-117
2021-10-14 15:20:06.218556,-176
2021-10-14 15:20:06.218564,-220
2021-10-14 15:20:06.218573,-260
2021-10-14 15:20:06.218582,-274
2021-10-14 15:20:06.218590,-264
2021-10-14 15:20:06.218599,-255
2021-10-14 15:20:06.218607,-252
2021-10-14 15:20:06.218616,-240
2021-10-14 15:20:06.218624,-230
2021-10-14 15:20:06.218633,-230
2021-10-14 15:20:06.218641,-223
2021-10-14 15:20:06.218650,-203
2021-10-14 15:20:06.218658,-193
2021-10-14 15:20:06.218667,-193
2021-10-14 15:20:06.218675,-184
2021-10-14 15:20:06.218684,-169
2021-10-14 15:20:06.218692,-161
2021-10-14 15:20:06.218700,-159
2021-10-14 15:20:06.218709,-157
2021-10-14 15:20:06.218717,-152
2021-10-14 15:20:06.218726,-152
2021-10-14 15:20:06.218734,-159
2021-10-14 15:20:06.218743,-157
2021-10-14 15:20:06.218752,-149
2021-10-14 15:20:06.218760,-147
2021-10-14 15:20:06.218768,-142
2021-10-14 15:20:06.218777,-137
2021-10-14 15:20:06.488513,-137
2021-10-14 15:20:06.488534,-134
2021-10-14 15:20:06.488541,-137
2021-10-14 15:20:06.488548,-142
2021-10-14 15:20:06.488554,-137
2021-10-14 15:20:06.488561,-132
2021-10-14 15:20:06.488567,-139
2021-10-14 15:20:06.488574,-134
2021-10-14 15:20:06.488581,-125
2021-10-14 15:20:06.488589,-125
2021-10-14 15:20:06.488595,-132
2021-10-14 15:20:06.488602,-139
2021-10-14 15:20:06.488609,-132
2021-10-14 15:20:06.488615,-90
2021-10-14 15:20:06.488622,-53
2021-10-14 15:20:06.488628,-46
2021-10-14 15:20:06.488635,-46
2021-10-14 15:20:06.488642,-49
2021-10-14 15:20:06.488648,-63
2021-10-14 15:20:06.488655,-73
2021-10-14 15:20:06.488661,-71
2021-10-14 15:20:06.488668,-61
2021-10-14 15:20:06.488679,-58
2021-10-14 15:20:06.488686,-58
2021-10-14 15:20:06.488693,-53
2021-10-14 15:20:06.488699,-46
2021-10-14 15:20:06.488706,-41
2021-10-14 15:20:06.488712,-9
2021-10-14 15:20:06.488719,149
2021-10-14 15:20:06.488726,517
2021-10-14 15:20:06.713897,898
2021-10-14 15:20:06.713918,755
2021-10-14 15:20:06.713927,-12
2021-10-14 15:20:06.713936,-417
2021-10-14 15:20:06.713944,-56
2021-10-14 15:20:06.713952,107
2021-10-14 15:20:06.713960,-76
2021-10-14 15:20:06.713969,-41
2021-10-14 15:20:06.713977,39
2021-10-14 15:20:06.713985,-12
2021-10-14 15:20:06.713993,-14
2021-10-14 15:20:06.714001,26
2021-10-14 15:20:06.714009,34
2021-10-14 15:20:06.714016,51
2021-10-14 15:20:06.714024,78
2021-10-14 15:20:06.714032,90
2021-10-14 15:20:06.714040,100
2021-10-14 15:20:06.714048,122
2021-10-14 15:20:06.714056,152
2021-10-14 15:20:06.714064,184
2021-10-14 15:20:06.714072,211
2021-10-14 15:20:06.714080,242
2021-10-14 15:20:06.714088,279
2021-10-14 15:20:06.714096,321
2021-10-14 15:20:06.714104,363
2021-10-14 15:20:06.714112,397
2021-10-14 15:20:06.714120,419
2021-10-14 15:20:06.714128,431
2021-10-14 15:20:06.714136,431
2021-10-14 15:20:06.714145,412
2021-10-14 15:20:06.938240,368
2021-10-14 15:20:06.938261,287
2021-10-14 15:20:06.938271,176
2021-10-14 15:20:06.938280,56
2021-10-14 15:20:06.938289,-46
2021-10-14 15:20:06.938298,-127
2021-10-14 15:20:06.938306,-179
2021-10-14 15:20:06.938315,-211
2021-10-14 15:20:06.938323,-220
2021-10-14 15:20:06.938332,-225
2021-10-14 15:20:06.938341,-223
2021-10-14 15:20:06.938349,-213
2021-10-14 15:20:06.938358,-203
2021-10-14 15:20:06.938366,-198
2021-10-14 15:20:06.938375,-188
2021-10-14 15:20:06.938383,-181
2021-10-14 15:20:06.938392,-179
2021-10-14 15:20:06.938400,-171
2021-10-14 15:20:06.938409,-157
2021-10-14 15:20:06.938417,-147
2021-10-14 15:20:06.938425,-139
2021-10-14 15:20:06.938434,-134
2021-10-14 15:20:06.938442,-132
2021-10-14 15:20:06.938451,-122
2021-10-14 15:20:06.938459,-112
2021-10-14 15:20:06.938468,-105
2021-10-14 15:20:06.938476,-103
2021-10-14 15:20:06.938485,-105
2021-10-14 15:20:06.938493,-105
2021-10-14 15:20:06.938502,-103
2021-10-14 15:20:07.207170,-103
2021-10-14 15:20:07.207191,-100
2021-10-14 15:20:07.207202,-105
2021-10-14 15:20:07.207210,-117
2021-10-14 15:20:07.207219,-127
2021-10-14 15:20:07.207228,-122
2021-10-14 15:20:07.207236,-115
2021-10-14 15:20:07.207245,-117
2021-10-14 15:20:07.207253,-132
2021-10-14 15:20:07.207262,-142
2021-10-14 15:20:07.207271,-139
2021-10-14 15:20:07.207279,-127
2021-10-14 15:20:07.207288,-122
2021-10-14 15:20:07.207297,-127
2021-10-14 15:20:07.207305,-139
2021-10-14 15:20:07.207314,-139
2021-10-14 15:20:07.207322,-115
2021-10-14 15:20:07.207330,-90
2021-10-14 15:20:07.207339,-80
2021-10-14 15:20:07.207348,-76
2021-10-14 15:20:07.207356,-78
2021-10-14 15:20:07.207364,-95
2021-10-14 15:20:07.207373,-105
2021-10-14 15:20:07.207381,-103
2021-10-14 15:20:07.207390,-95
2021-10-14 15:20:07.207398,-85
2021-10-14 15:20:07.207407,-80
2021-10-14 15:20:07.207415,-80
2021-10-14 15:20:07.207424,-80
2021-10-14 15:20:07.207432,-76
2021-10-14 15:20:07.388890,-46
2021-10-14 15:20:07.388910,85
2021-10-14 15:20:07.388920,419
2021-10-14 15:20:07.388929,839
2021-10-14 15:20:07.388938,848
2021-10-14 15:20:07.388950,130
2021-10-14 15:20:07.388958,-466
2021-10-14 15:20:07.388967,-179
2021-10-14 15:20:07.388976,117
2021-10-14 15:20:07.388984,-61
2021-10-14 15:20:07.388993,-100
2021-10-14 15:20:07.389002,9
2021-10-14 15:20:07.389010,-14
2021-10-14 15:20:07.389019,-34
2021-10-14 15:20:07.389027,9
2021-10-14 15:20:07.389036,14
2021-10-14 15:20:07.389044,17
2021-10-14 15:20:07.389053,51
2021-10-14 15:20:07.389061,76
2021-10-14 15:20:07.389070,90
2021-10-14 15:20:07.389078,112
2021-10-14 15:20:07.389087,137
2021-10-14 15:20:07.389095,164
2021-10-14 15:20:07.389103,201
2021-10-14 15:20:07.389112,242
2021-10-14 15:20:07.389120,282
2021-10-14 15:20:07.389129,321
2021-10-14 15:20:07.389137,350
2021-10-14 15:20:07.389146,380
2021-10-14 15:20:07.389155,409
2021-10-14 15:20:07.613925,426
2021-10-14 15:20:07.613947,426
2021-10-14 15:20:07.613956,409
2021-10-14 15:20:07.613965,370
2021-10-14 15:20:07.613973,301
2021-10-14 15:20:07.613981,198
2021-10-14 15:20:07.613989,85
2021-10-14 15:20:07.613997,-17
2021-10-14 15:20:07.614005,-105
2021-10-14 15:20:07.614014,-166
2021-10-14 15:20:07.614022,-196
2021-10-14 15:20:07.614030,-213
2021-10-14 15:20:07.614038,-233
2021-10-14 15:20:07.614046,-245
2021-10-14 15:20:07.614054,-245
2021-10-14 15:20:07.614062,-233
2021-10-14 15:20:07.614070,-218
2021-10-14 15:20:07.614078,-206
2021-10-14 15:20:07.614087,-193
2021-10-14 15:20:07.614095,-181
2021-10-14 15:20:07.614103,-176
2021-10-14 15:20:07.614111,-174
2021-10-14 15:20:07.614119,-169
2021-10-14 15:20:07.614127,-169
2021-10-14 15:20:07.614135,-161
2021-10-14 15:20:07.614143,-149
2021-10-14 15:20:07.614151,-147
2021-10-14 15:20:07.614160,-142
2021-10-14 15:20:07.614168,-134
2021-10-14 15:20:07.614176,-127
2021-10-14 15:20:07.838515,-127
2021-10-14 15:20:07.838536,-125
2021-10-14 15:20:07.838546,-120
2021-10-14 15:20:07.838555,-115
2021-10-14 15:20:07.838563,-115
2021-10-14 15:20:07.838572,-112
2021-10-14 15:20:07.838580,-112
2021-10-14 15:20:07.838589,-117
2021-10-14 15:20:07.838597,-115
2021-10-14 15:20:07.838606,-103
2021-10-14 15:20:07.838614,-95
2021-10-14 15:20:07.838623,-95
2021-10-14 15:20:07.838631,-100
2021-10-14 15:20:07.838640,-112
2021-10-14 15:20:07.838648,-117
2021-10-14 15:20:07.838656,-93
2021-10-14 15:20:07.838665,-61
2021-10-14 15:20:07.838673,-53
2021-10-14 15:20:07.838682,-61
2021-10-14 15:20:07.838690,-63
2021-10-14 15:20:07.838698,-73
2021-10-14 15:20:07.838707,-95
2021-10-14 15:20:07.838715,-103
2021-10-14 15:20:07.838724,-88
2021-10-14 15:20:07.838732,-88
2021-10-14 15:20:07.838740,-93
2021-10-14 15:20:07.838749,-83
2021-10-14 15:20:07.838757,-80
2021-10-14 15:20:07.838765,-88
2021-10-14 15:20:07.838774,-73
2021-10-14 15:20:08.063527,22
2021-10-14 15:20:08.063549,309
2021-10-14 15:20:08.063558,721
2021-10-14 15:20:08.063567,802
2021-10-14 15:20:08.063576,147
2021-10-14 15:20:08.063585,-542
2021-10-14 15:20:08.063594,-323
2021-10-14 15:20:08.063603,90
2021-10-14 15:20:08.063611,-17
2021-10-14 15:20:08.063620,-95
2021-10-14 15:20:08.063628,14
2021-10-14 15:20:08.063637,4
2021-10-14 15:20:08.063645,-34
2021-10-14 15:20:08.063654,4
2021-10-14 15:20:08.063662,26
2021-10-14 15:20:08.063671,29
2021-10-14 15:20:08.063679,56
2021-10-14 15:20:08.063688,76
2021-10-14 15:20:08.063696,83
2021-10-14 15:20:08.063705,112
2021-10-14 15:20:08.063713,149
2021-10-14 15:20:08.063722,171
2021-10-14 15:20:08.063730,201
2021-10-14 15:20:08.063739,235
2021-10-14 15:20:08.063747,272
2021-10-14 15:20:08.063756,311
2021-10-14 15:20:08.063764,353
2021-10-14 15:20:08.063773,392
2021-10-14 15:20:08.063781,407
2021-10-14 15:20:08.063790,404
2021-10-14 15:20:08.332928,409
2021-10-14 15:20:08.332951,402
2021-10-14 15:20:08.332961,355
2021-10-14 15:20:08.332970,274
2021-10-14 15:20:08.332979,174
2021-10-14 15:20:08.332987,41
2021-10-14 15:20:08.332996,-83
2021-10-14 15:20:08.333004,-157
2021-10-14 15:20:08.333013,-203
2021-10-14 15:20:08.333021,-250
2021-10-14 15:20:08.333030,-269
2021-10-14 15:20:08.333038,-272
2021-10-14 15:20:08.333047,-277
2021-10-14 15:20:08.333055,-269
2021-10-14 15:20:08.333064,-255
2021-10-14 15:20:08.333072,-250
2021-10-14 15:20:08.333081,-240
2021-10-14 15:20:08.333089,-228
2021-10-14 15:20:08.333098,-225
2021-10-14 15:20:08.333106,-220
2021-10-14 15:20:08.333114,-201
2021-10-14 15:20:08.333123,-184
2021-10-14 15:20:08.333132,-176
2021-10-14 15:20:08.333140,-166
2021-10-14 15:20:08.333148,-154
2021-10-14 15:20:08.333157,-147
2021-10-14 15:20:08.333165,-142
2021-10-14 15:20:08.333173,-134
2021-10-14 15:20:08.333182,-125
2021-10-14 15:20:08.333190,-125
2021-10-14 15:20:08.647956,-127
2021-10-14 15:20:08.647977,-120
2021-10-14 15:20:08.647986,-112
2021-10-14 15:20:08.647994,-115
2021-10-14 15:20:08.648003,-115
2021-10-14 15:20:08.648011,-117
2021-10-14 15:20:08.648019,-125
2021-10-14 15:20:08.648028,-122
2021-10-14 15:20:08.648036,-107
2021-10-14 15:20:08.648044,-78
2021-10-14 15:20:08.648052,-53
2021-10-14 15:20:08.648060,-56
2021-10-14 15:20:08.648068,-58
2021-10-14 15:20:08.648076,-53
2021-10-14 15:20:08.648084,-71
2021-10-14 15:20:08.648092,-90
2021-10-14 15:20:08.648100,-90
2021-10-14 15:20:08.648108,-78
2021-10-14 15:20:08.648117,-73
2021-10-14 15:20:08.648125,-71
2021-10-14 15:20:08.648133,-76
2021-10-14 15:20:08.648141,-83
2021-10-14 15:20:08.648149,-83
2021-10-14 15:20:08.648157,-68
2021-10-14 15:20:08.648165,2
2021-10-14 15:20:08.648173,255
2021-10-14 15:20:08.648181,655
2021-10-14 15:20:08.648190,760
2021-10-14 15:20:08.648198,157
2021-10-14 15:20:08.648206,-512
2021-10-14 15:20:08.738858,-321
2021-10-14 15:20:08.738878,100
2021-10-14 15:20:08.738887,9
2021-10-14 15:20:08.738896,-80
2021-10-14 15:20:08.738905,14
2021-10-14 15:20:08.738913,4
2021-10-14 15:20:08.738922,-24
2021-10-14 15:20:08.738930,24
2021-10-14 15:20:08.738938,46
2021-10-14 15:20:08.738947,29
2021-10-14 15:20:08.738955,39
2021-10-14 15:20:08.738964,61
2021-10-14 15:20:08.738972,78
2021-10-14 15:20:08.738980,98
2021-10-14 15:20:08.738989,125
2021-10-14 15:20:08.738997,144
2021-10-14 15:20:08.739005,169
2021-10-14 15:20:08.739014,203
2021-10-14 15:20:08.739022,250
2021-10-14 15:20:08.739030,294
2021-10-14 15:20:08.739039,326
2021-10-14 15:20:08.739047,353
2021-10-14 15:20:08.739056,380
2021-10-14 15:20:08.739064,392
2021-10-14 15:20:08.739072,390
2021-10-14 15:20:08.739080,377
2021-10-14 15:20:08.739089,338
2021-10-14 15:20:08.739097,252
2021-10-14 15:20:08.739105,130
2021-10-14 15:20:08.739114,17
2021-10-14 15:20:09.008943,-73
2021-10-14 15:20:09.008966,-152
2021-10-14 15:20:09.008976,-213
2021-10-14 15:20:09.008985,-255
2021-10-14 15:20:09.008994,-269
2021-10-14 15:20:09.009003,-262
2021-10-14 15:20:09.009012,-255
2021-10-14 15:20:09.009020,-250
2021-10-14 15:20:09.009029,-245
2021-10-14 15:20:09.009038,-240
2021-10-14 15:20:09.009046,-233
2021-10-14 15:20:09.009055,-220
2021-10-14 15:20:09.009064,-206
2021-10-14 15:20:09.009073,-193
2021-10-14 15:20:09.009081,-184
2021-10-14 15:20:09.009090,-174
2021-10-14 15:20:09.009098,-161
2021-10-14 15:20:09.009107,-152
2021-10-14 15:20:09.009116,-144
2021-10-14 15:20:09.009125,-134
2021-10-14 15:20:09.009133,-127
2021-10-14 15:20:09.009142,-127
2021-10-14 15:20:09.009150,-125
2021-10-14 15:20:09.009159,-115
2021-10-14 15:20:09.009168,-115
2021-10-14 15:20:09.009176,-117
2021-10-14 15:20:09.009184,-115
2021-10-14 15:20:09.009193,-115
2021-10-14 15:20:09.009202,-110
2021-10-14 15:20:09.009210,-100
2021-10-14 15:20:09.277250,-93
2021-10-14 15:20:09.277272,-98
2021-10-14 15:20:09.277281,-110
2021-10-14 15:20:09.277290,-117
2021-10-14 15:20:09.277299,-100
2021-10-14 15:20:09.277308,-63
2021-10-14 15:20:09.277316,-26
2021-10-14 15:20:09.277325,-19
2021-10-14 15:20:09.277334,-29
2021-10-14 15:20:09.277342,-44
2021-10-14 15:20:09.277351,-66
2021-10-14 15:20:09.277365,-78
2021-10-14 15:20:09.277374,-76
2021-10-14 15:20:09.277383,-66
2021-10-14 15:20:09.277391,-68
2021-10-14 15:20:09.277400,-76
2021-10-14 15:20:09.277409,-66
2021-10-14 15:20:09.277417,-61
2021-10-14 15:20:09.277426,-66
2021-10-14 15:20:09.277433,-46
2021-10-14 15:20:09.277441,44
2021-10-14 15:20:09.277449,321
2021-10-14 15:20:09.277457,758
2021-10-14 15:20:09.277465,917
2021-10-14 15:20:09.277474,336
2021-10-14 15:20:09.277482,-377
2021-10-14 15:20:09.277490,-264
2021-10-14 15:20:09.277498,103
2021-10-14 15:20:09.277531,-2
2021-10-14 15:20:09.277540,-85
2021-10-14 15:20:09.547959,24
2021-10-14 15:20:09.547981,24
2021-10-14 15:20:09.547991,-12
2021-10-14 15:20:09.547999,24
2021-10-14 15:20:09.548008,46
2021-10-14 15:20:09.548017,49
2021-10-14 15:20:09.548025,73
2021-10-14 15:20:09.548034,98
2021-10-14 15:20:09.548042,100
2021-10-14 15:20:09.548051,115
2021-10-14 15:20:09.548059,149
2021-10-14 15:20:09.548068,181
2021-10-14 15:20:09.548076,203
2021-10-14 15:20:09.548085,225
2021-10-14 15:20:09.548094,250
2021-10-14 15:20:09.548102,287
2021-10-14 15:20:09.548110,328
2021-10-14 15:20:09.548119,358
2021-10-14 15:20:09.548128,372
2021-10-14 15:20:09.548136,385
2021-10-14 15:20:09.548145,382
2021-10-14 15:20:09.548153,363
2021-10-14 15:20:09.548162,328
2021-10-14 15:20:09.548170,255
2021-10-14 15:20:09.548179,144
2021-10-14 15:20:09.548187,34
2021-10-14 15:20:09.548196,-61
2021-10-14 15:20:09.548204,-139
2021-10-14 15:20:09.548213,-201
2021-10-14 15:20:09.548221,-235
2021-10-14 15:20:09.683523,-245
2021-10-14 15:20:09.683545,-247
2021-10-14 15:20:09.683554,-250
2021-10-14 15:20:09.683563,-245
2021-10-14 15:20:09.683571,-233
2021-10-14 15:20:09.683580,-220
2021-10-14 15:20:09.683588,-211
2021-10-14 15:20:09.683597,-203
2021-10-14 15:20:09.683606,-196
2021-10-14 15:20:09.683614,-186
2021-10-14 15:20:09.683623,-174
2021-10-14 15:20:09.683631,-161
2021-10-14 15:20:09.683640,-152
2021-10-14 15:20:09.683648,-147
2021-10-14 15:20:09.683657,-147
2021-10-14 15:20:09.683665,-152
2021-10-14 15:20:09.683673,-157
2021-10-14 15:20:09.683682,-147
2021-10-14 15:20:09.683691,-139
2021-10-14 15:20:09.683699,-147
2021-10-14 15:20:09.683708,-149
2021-10-14 15:20:09.683716,-139
2021-10-14 15:20:09.683724,-132
2021-10-14 15:20:09.683733,-125
2021-10-14 15:20:09.683741,-122
2021-10-14 15:20:09.683750,-122
2021-10-14 15:20:09.683758,-117
2021-10-14 15:20:09.683767,-110
2021-10-14 15:20:09.683775,-105
2021-10-14 15:20:09.683784,-100
2021-10-14 15:20:09.908875,-98
2021-10-14 15:20:09.908895,-112
2021-10-14 15:20:09.908904,-125
2021-10-14 15:20:09.908912,-107
2021-10-14 15:20:09.908920,-68
2021-10-14 15:20:09.908928,-34
2021-10-14 15:20:09.908937,-34
2021-10-14 15:20:09.908944,-44
2021-10-14 15:20:09.908952,-46
2021-10-14 15:20:09.908960,-56
2021-10-14 15:20:09.908968,-71
2021-10-14 15:20:09.908976,-68
2021-10-14 15:20:09.908985,-63
2021-10-14 15:20:09.908991,-63
2021-10-14 15:20:09.908999,-58
2021-10-14 15:20:09.909007,-56
2021-10-14 15:20:09.909015,-56
2021-10-14 15:20:09.909023,-53
2021-10-14 15:20:09.909031,-29
2021-10-14 15:20:09.909040,107
2021-10-14 15:20:09.909048,458
2021-10-14 15:20:09.909056,890
2021-10-14 15:20:09.909064,883
2021-10-14 15:20:09.909072,134
2021-10-14 15:20:09.909080,-461
2021-10-14 15:20:09.909088,-157
2021-10-14 15:20:09.909095,139
2021-10-14 15:20:09.909103,-36
2021-10-14 15:20:09.909112,-63
2021-10-14 15:20:09.909119,46
2021-10-14 15:20:10.178940,14
2021-10-14 15:20:10.178961,2
2021-10-14 15:20:10.178970,49
2021-10-14 15:20:10.178977,49
2021-10-14 15:20:10.178985,46
2021-10-14 15:20:10.178993,73
2021-10-14 15:20:10.179001,85
2021-10-14 15:20:10.179008,98
2021-10-14 15:20:10.179016,130
2021-10-14 15:20:10.179023,157
2021-10-14 15:20:10.179031,181
2021-10-14 15:20:10.179039,213
2021-10-14 15:20:10.179047,245
2021-10-14 15:20:10.179054,274
2021-10-14 15:20:10.179062,311
2021-10-14 15:20:10.179070,345
2021-10-14 15:20:10.179077,372
2021-10-14 15:20:10.179085,395
2021-10-14 15:20:10.179093,407
2021-10-14 15:20:10.179101,407
2021-10-14 15:20:10.179108,380
2021-10-14 15:20:10.179116,316
2021-10-14 15:20:10.179124,220
2021-10-14 15:20:10.179132,110
2021-10-14 15:20:10.179139,-2
2021-10-14 15:20:10.179147,-95
2021-10-14 15:20:10.179155,-164
2021-10-14 15:20:10.179163,-215
2021-10-14 15:20:10.179170,-250
2021-10-14 15:20:10.179178,-262
2021-10-14 15:20:10.358525,-264
2021-10-14 15:20:10.358545,-262
2021-10-14 15:20:10.358555,-255
2021-10-14 15:20:10.358563,-240
2021-10-14 15:20:10.358572,-233
2021-10-14 15:20:10.358580,-233
2021-10-14 15:20:10.358589,-220
2021-10-14 15:20:10.358597,-203
2021-10-14 15:20:10.358610,-193
2021-10-14 15:20:10.358619,-186
2021-10-14 15:20:10.358628,-179
2021-10-14 15:20:10.358636,-179
2021-10-14 15:20:10.358644,-174
2021-10-14 15:20:10.358653,-159
2021-10-14 15:20:10.358661,-154
2021-10-14 15:20:10.358669,-157
2021-10-14 15:20:10.358678,-157
2021-10-14 15:20:10.358686,-159
2021-10-14 15:20:10.358695,-152
2021-10-14 15:20:10.358703,-137
2021-10-14 15:20:10.358712,-139
2021-10-14 15:20:10.358720,-142
2021-10-14 15:20:10.358728,-134
2021-10-14 15:20:10.358737,-127
2021-10-14 15:20:10.358745,-125
2021-10-14 15:20:10.358753,-117
2021-10-14 15:20:10.358762,-112
2021-10-14 15:20:10.358770,-105
2021-10-14 15:20:10.358778,-105
2021-10-14 15:20:10.358786,-110
2021-10-14 15:20:10.673938,-100
2021-10-14 15:20:10.673958,-88
2021-10-14 15:20:10.673968,-85
2021-10-14 15:20:10.673977,-85
2021-10-14 15:20:10.673986,-95
2021-10-14 15:20:10.673994,-107
2021-10-14 15:20:10.674002,-103
2021-10-14 15:20:10.674011,-78
2021-10-14 15:20:10.674019,-46
2021-10-14 15:20:10.674028,-29
2021-10-14 15:20:10.674036,-39
2021-10-14 15:20:10.674044,-49
2021-10-14 15:20:10.674053,-51
2021-10-14 15:20:10.674061,-61
2021-10-14 15:20:10.674070,-76
2021-10-14 15:20:10.674078,-73
2021-10-14 15:20:10.674086,-63
2021-10-14 15:20:10.674095,-61
2021-10-14 15:20:10.674103,-53
2021-10-14 15:20:10.674112,-44
2021-10-14 15:20:10.674120,-41
2021-10-14 15:20:10.674128,-39
2021-10-14 15:20:10.674137,39
2021-10-14 15:20:10.674145,299
2021-10-14 15:20:10.674154,709
2021-10-14 15:20:10.674162,905
2021-10-14 15:20:10.674170,385
2021-10-14 15:20:10.674179,-439
2021-10-14 15:20:10.674187,-431
2021-10-14 15:20:10.674195,63
2021-10-14 15:20:10.809045,53
2021-10-14 15:20:10.809066,-90
2021-10-14 15:20:10.809075,12
2021-10-14 15:20:10.809082,34
2021-10-14 15:20:10.809090,-19
2021-10-14 15:20:10.809098,26
2021-10-14 15:20:10.809106,68
2021-10-14 15:20:10.809114,61
2021-10-14 15:20:10.809122,78
2021-10-14 15:20:10.809130,98
2021-10-14 15:20:10.809138,105
2021-10-14 15:20:10.809145,134
2021-10-14 15:20:10.809153,166
2021-10-14 15:20:10.809161,186
2021-10-14 15:20:10.809169,215
2021-10-14 15:20:10.809177,247
2021-10-14 15:20:10.809184,279
2021-10-14 15:20:10.809192,318
2021-10-14 15:20:10.809200,355
2021-10-14 15:20:10.809208,382
2021-10-14 15:20:10.809216,402
2021-10-14 15:20:10.809224,409
2021-10-14 15:20:10.809233,409
2021-10-14 15:20:10.809242,404
2021-10-14 15:20:10.809249,375
2021-10-14 15:20:10.809257,309
2021-10-14 15:20:10.809265,198
2021-10-14 15:20:10.809273,66
2021-10-14 15:20:10.809282,-49
2021-10-14 15:20:10.809290,-132
2021-10-14 15:20:11.123580,-193
2021-10-14 15:20:11.123608,-233
2021-10-14 15:20:11.123617,-262
2021-10-14 15:20:11.123626,-291
2021-10-14 15:20:11.123634,-294
2021-10-14 15:20:11.123643,-274
2021-10-14 15:20:11.123651,-262
2021-10-14 15:20:11.123660,-255
2021-10-14 15:20:11.123668,-250
2021-10-14 15:20:11.123676,-250
2021-10-14 15:20:11.123685,-240
2021-10-14 15:20:11.123693,-228
2021-10-14 15:20:11.123701,-220
2021-10-14 15:20:11.123710,-206
2021-10-14 15:20:11.123718,-196
2021-10-14 15:20:11.123727,-193
2021-10-14 15:20:11.123735,-179
2021-10-14 15:20:11.123743,-164
2021-10-14 15:20:11.123752,-154
2021-10-14 15:20:11.123760,-147
2021-10-14 15:20:11.123769,-144
2021-10-14 15:20:11.123777,-147
2021-10-14 15:20:11.123785,-139
2021-10-14 15:20:11.123794,-130
2021-10-14 15:20:11.123802,-125
2021-10-14 15:20:11.123810,-122
2021-10-14 15:20:11.123819,-125
2021-10-14 15:20:11.123827,-130
2021-10-14 15:20:11.123836,-122
2021-10-14 15:20:11.123844,-110
2021-10-14 15:20:11.392562,-103
2021-10-14 15:20:11.392587,-103
2021-10-14 15:20:11.392597,-105
2021-10-14 15:20:11.392605,-117
2021-10-14 15:20:11.392614,-115
2021-10-14 15:20:11.392622,-103
2021-10-14 15:20:11.392630,-98
2021-10-14 15:20:11.392639,-98
2021-10-14 15:20:11.392647,-100
2021-10-14 15:20:11.392655,-100
2021-10-14 15:20:11.392664,-100
2021-10-14 15:20:11.392672,-107
2021-10-14 15:20:11.392680,-103
2021-10-14 15:20:11.392689,-73
2021-10-14 15:20:11.392697,-49
2021-10-14 15:20:11.392705,-41
2021-10-14 15:20:11.392714,-36
2021-10-14 15:20:11.392722,-36
2021-10-14 15:20:11.392730,-46
2021-10-14 15:20:11.392739,-63
2021-10-14 15:20:11.392747,-73
2021-10-14 15:20:11.392756,-71
2021-10-14 15:20:11.392764,-61
2021-10-14 15:20:11.392772,-56
2021-10-14 15:20:11.392780,-53
2021-10-14 15:20:11.392788,-51
2021-10-14 15:20:11.392797,-49
2021-10-14 15:20:11.392805,-22
2021-10-14 15:20:11.392813,117
2021-10-14 15:20:11.392822,466
2021-10-14 15:20:11.528929,848
2021-10-14 15:20:11.528949,731
2021-10-14 15:20:11.528958,-34
2021-10-14 15:20:11.528967,-476
2021-10-14 15:20:11.528975,-85
2021-10-14 15:20:11.528983,147
2021-10-14 15:20:11.528991,-39
2021-10-14 15:20:11.529000,-29
2021-10-14 15:20:11.529008,58
2021-10-14 15:20:11.529016,14
2021-10-14 15:20:11.529025,12
2021-10-14 15:20:11.529033,63
2021-10-14 15:20:11.529041,68
2021-10-14 15:20:11.529049,66
2021-10-14 15:20:11.529056,83
2021-10-14 15:20:11.529065,95
2021-10-14 15:20:11.529073,105
2021-10-14 15:20:11.529081,130
2021-10-14 15:20:11.529089,149
2021-10-14 15:20:11.529097,164
2021-10-14 15:20:11.529105,188
2021-10-14 15:20:11.529114,225
2021-10-14 15:20:11.529123,262
2021-10-14 15:20:11.529134,294
2021-10-14 15:20:11.529143,323
2021-10-14 15:20:11.529151,345
2021-10-14 15:20:11.529160,360
2021-10-14 15:20:11.529169,370
2021-10-14 15:20:11.529178,372
2021-10-14 15:20:11.529186,358
2021-10-14 15:20:11.754044,316
2021-10-14 15:20:11.754072,238
2021-10-14 15:20:11.754082,132
2021-10-14 15:20:11.754091,24
2021-10-14 15:20:11.754099,-63
2021-10-14 15:20:11.754108,-130
2021-10-14 15:20:11.754116,-191
2021-10-14 15:20:11.754125,-240
2021-10-14 15:20:11.754133,-264
2021-10-14 15:20:11.754142,-267
2021-10-14 15:20:11.754150,-260
2021-10-14 15:20:11.754159,-252
2021-10-14 15:20:11.754167,-250
2021-10-14 15:20:11.754176,-247
2021-10-14 15:20:11.754184,-233
2021-10-14 15:20:11.754193,-218
2021-10-14 15:20:11.754201,-208
2021-10-14 15:20:11.754210,-203
2021-10-14 15:20:11.754218,-198
2021-10-14 15:20:11.754226,-186
2021-10-14 15:20:11.754235,-171
2021-10-14 15:20:11.754243,-161
2021-10-14 15:20:11.754251,-149
2021-10-14 15:20:11.754260,-139
2021-10-14 15:20:11.754268,-134
2021-10-14 15:20:11.754277,-132
2021-10-14 15:20:11.754285,-122
2021-10-14 15:20:11.754293,-117
2021-10-14 15:20:11.754302,-117
2021-10-14 15:20:11.754310,-112
2021-10-14 15:20:11.978971,-107
2021-10-14 15:20:11.978991,-103
2021-10-14 15:20:11.979000,-100
2021-10-14 15:20:11.979009,-95
2021-10-14 15:20:11.979018,-90
2021-10-14 15:20:11.979026,-90
2021-10-14 15:20:11.979035,-98
2021-10-14 15:20:11.979043,-93
2021-10-14 15:20:11.979052,-85
2021-10-14 15:20:11.979060,-85
2021-10-14 15:20:11.979069,-83
2021-10-14 15:20:11.979077,-78
2021-10-14 15:20:11.979086,-80
2021-10-14 15:20:11.979094,-76
2021-10-14 15:20:11.979103,-68
2021-10-14 15:20:11.979111,-66
2021-10-14 15:20:11.979120,-61
2021-10-14 15:20:11.979128,-53
2021-10-14 15:20:11.979137,-51
2021-10-14 15:20:11.979145,-53
2021-10-14 15:20:11.979154,-58
2021-10-14 15:20:11.979162,-53
2021-10-14 15:20:11.979170,-49
2021-10-14 15:20:11.979179,-56
2021-10-14 15:20:11.979187,-63
2021-10-14 15:20:11.979196,-51
2021-10-14 15:20:11.979204,-14
2021-10-14 15:20:11.979213,19
2021-10-14 15:20:11.979221,26
2021-10-14 15:20:11.979230,22
2021-10-14 15:20:12.203493,19
2021-10-14 15:20:12.203512,14
2021-10-14 15:20:12.203521,2
2021-10-14 15:20:12.203529,-12
2021-10-14 15:20:12.203538,-12
2021-10-14 15:20:12.203546,-12
2021-10-14 15:20:12.203555,-14
2021-10-14 15:20:12.203563,-4
2021-10-14 15:20:12.203572,0
2021-10-14 15:20:12.203580,-2
2021-10-14 15:20:12.203589,19
2021-10-14 15:20:12.203597,137
2021-10-14 15:20:12.203606,461
2021-10-14 15:20:12.203614,880
2021-10-14 15:20:12.203623,871
2021-10-14 15:20:12.203631,144
2021-10-14 15:20:12.203639,-424
2021-10-14 15:20:12.203648,-147
2021-10-14 15:20:12.203656,107
2021-10-14 15:20:12.203665,-71
2021-10-14 15:20:12.203673,-95
2021-10-14 15:20:12.203681,2
2021-10-14 15:20:12.203690,-36
2021-10-14 15:20:12.203698,-53
2021-10-14 15:20:12.203706,-2
2021-10-14 15:20:12.203715,12
2021-10-14 15:20:12.203723,12
2021-10-14 15:20:12.203732,34
2021-10-14 15:20:12.203740,53
2021-10-14 15:20:12.203748,71
2021-10-14 15:20:12.428852,100
2021-10-14 15:20:12.428871,132
2021-10-14 15:20:12.428881,152
2021-10-14 15:20:12.428889,171
2021-10-14 15:20:12.428898,201
2021-10-14 15:20:12.428906,233
2021-10-14 15:20:12.428915,269
2021-10-14 15:20:12.428923,309
2021-10-14 15:20:12.428932,336
2021-10-14 15:20:12.428940,353
2021-10-14 15:20:12.428949,360
2021-10-14 15:20:12.428957,360
2021-10-14 15:20:12.428966,355
2021-10-14 15:20:12.428974,328
2021-10-14 15:20:12.428983,269
2021-10-14 15:20:12.428991,179
2021-10-14 15:20:12.428999,71
2021-10-14 15:20:12.429008,-19
2021-10-14 15:20:12.429016,-90
2021-10-14 15:20:12.429025,-147
2021-10-14 15:20:12.429033,-186
2021-10-14 15:20:12.429042,-206
2021-10-14 15:20:12.429050,-215
2021-10-14 15:20:12.429059,-215
2021-10-14 15:20:12.429067,-213
2021-10-14 15:20:12.429076,-208
2021-10-14 15:20:12.429084,-198
2021-10-14 15:20:12.429092,-188
2021-10-14 15:20:12.429101,-181
2021-10-14 15:20:12.429109,-174
2021-10-14 15:20:12.653924,-159
2021-10-14 15:20:12.653944,-144
2021-10-14 15:20:12.653954,-137
2021-10-14 15:20:12.653963,-142
2021-10-14 15:20:12.653971,-144
2021-10-14 15:20:12.653980,-134
2021-10-14 15:20:12.653988,-122
2021-10-14 15:20:12.653996,-117
2021-10-14 15:20:12.654005,-117
2021-10-14 15:20:12.654013,-120
2021-10-14 15:20:12.654022,-122
2021-10-14 15:20:12.654030,-112
2021-10-14 15:20:12.654038,-103
2021-10-14 15:20:12.654046,-100
2021-10-14 15:20:12.654055,-103
2021-10-14 15:20:12.654063,-103
2021-10-14 15:20:12.654071,-103
2021-10-14 15:20:12.654080,-98
2021-10-14 15:20:12.654088,-93
2021-10-14 15:20:12.654096,-100
2021-10-14 15:20:12.654105,-110
2021-10-14 15:20:12.654113,-105
2021-10-14 15:20:12.654121,-98
2021-10-14 15:20:12.654130,-93
2021-10-14 15:20:12.654138,-85
2021-10-14 15:20:12.654146,-80
2021-10-14 15:20:12.654154,-88
2021-10-14 15:20:12.654163,-90
2021-10-14 15:20:12.654171,-78
2021-10-14 15:20:12.654179,-71
2021-10-14 15:20:12.923511,-66
2021-10-14 15:20:12.923530,-61
2021-10-14 15:20:12.923540,-68
2021-10-14 15:20:12.923548,-80
2021-10-14 15:20:12.923557,-76
2021-10-14 15:20:12.923565,-58
2021-10-14 15:20:12.923574,-53
2021-10-14 15:20:12.923582,-56
2021-10-14 15:20:12.923590,-61
2021-10-14 15:20:12.923599,-71
2021-10-14 15:20:12.923607,-68
2021-10-14 15:20:12.923615,-53
2021-10-14 15:20:12.923624,-51
2021-10-14 15:20:12.923632,-53
2021-10-14 15:20:12.923641,-63
2021-10-14 15:20:12.923649,-76
2021-10-14 15:20:12.923657,-83
2021-10-14 15:20:12.923666,-73
2021-10-14 15:20:12.923674,-46
2021-10-14 15:20:12.923682,-19
2021-10-14 15:20:12.923691,-7
2021-10-14 15:20:12.923699,-7
2021-10-14 15:20:12.923707,-9
2021-10-14 15:20:12.923715,-19
2021-10-14 15:20:12.923724,-34
2021-10-14 15:20:12.923732,-36
2021-10-14 15:20:12.923741,-29
2021-10-14 15:20:12.923749,-31
2021-10-14 15:20:12.923757,-39
2021-10-14 15:20:12.923768,-34
2021-10-14 15:20:13.148591,-24
2021-10-14 15:20:13.148621,-17
2021-10-14 15:20:13.148630,17
2021-10-14 15:20:13.148639,161
2021-10-14 15:20:13.148647,500
2021-10-14 15:20:13.148656,871
2021-10-14 15:20:13.148664,772
2021-10-14 15:20:13.148673,9
2021-10-14 15:20:13.148681,-480
2021-10-14 15:20:13.148690,-107
2021-10-14 15:20:13.148698,159
2021-10-14 15:20:13.148707,-17
2021-10-14 15:20:13.148715,-17
2021-10-14 15:20:13.148723,78
2021-10-14 15:20:13.148732,24
2021-10-14 15:20:13.148740,9
2021-10-14 15:20:13.148748,66
2021-10-14 15:20:13.148757,78
2021-10-14 15:20:13.148765,80
2021-10-14 15:20:13.148773,105
2021-10-14 15:20:13.148782,117
2021-10-14 15:20:13.148790,134
2021-10-14 15:20:13.148798,166
2021-10-14 15:20:13.148807,179
2021-10-14 15:20:13.148815,181
2021-10-14 15:20:13.148824,206
2021-10-14 15:20:13.148832,247
2021-10-14 15:20:13.148840,279
2021-10-14 15:20:13.148849,318
2021-10-14 15:20:13.148857,355
2021-10-14 15:20:13.417315,368
2021-10-14 15:20:13.417336,380
2021-10-14 15:20:13.417345,399
2021-10-14 15:20:13.417354,399
2021-10-14 15:20:13.417363,380
2021-10-14 15:20:13.417371,355
2021-10-14 15:20:13.417379,304
2021-10-14 15:20:13.417388,208
2021-10-14 15:20:13.417396,88
2021-10-14 15:20:13.417405,-17
2021-10-14 15:20:13.417413,-95
2021-10-14 15:20:13.417421,-149
2021-10-14 15:20:13.417430,-186
2021-10-14 15:20:13.417438,-223
2021-10-14 15:20:13.417447,-240
2021-10-14 15:20:13.417455,-235
2021-10-14 15:20:13.417463,-230
2021-10-14 15:20:13.417472,-225
2021-10-14 15:20:13.417480,-215
2021-10-14 15:20:13.417489,-206
2021-10-14 15:20:13.417497,-201
2021-10-14 15:20:13.417505,-193
2021-10-14 15:20:13.417514,-176
2021-10-14 15:20:13.417522,-164
2021-10-14 15:20:13.417531,-157
2021-10-14 15:20:13.417539,-147
2021-10-14 15:20:13.417547,-137
2021-10-14 15:20:13.417556,-127
2021-10-14 15:20:13.417564,-117
2021-10-14 15:20:13.417573,-115
2021-10-14 15:20:13.598550,-110
2021-10-14 15:20:13.598570,-110
2021-10-14 15:20:13.598579,-117
2021-10-14 15:20:13.598587,-115
2021-10-14 15:20:13.598595,-105
2021-10-14 15:20:13.598603,-105
2021-10-14 15:20:13.598611,-120
2021-10-14 15:20:13.598619,-134
2021-10-14 15:20:13.598627,-134
2021-10-14 15:20:13.598635,-137
2021-10-14 15:20:13.598643,-137
2021-10-14 15:20:13.598651,-130
2021-10-14 15:20:13.598659,-137
2021-10-14 15:20:13.598667,-154
2021-10-14 15:20:13.598676,-152
2021-10-14 15:20:13.598684,-144
2021-10-14 15:20:13.598692,-144
2021-10-14 15:20:13.598700,-142
2021-10-14 15:20:13.598708,-137
2021-10-14 15:20:13.598716,-134
2021-10-14 15:20:13.598724,-125
2021-10-14 15:20:13.598733,-115
2021-10-14 15:20:13.598741,-115
2021-10-14 15:20:13.598749,-117
2021-10-14 15:20:13.598757,-127
2021-10-14 15:20:13.598765,-132
2021-10-14 15:20:13.598773,-110
2021-10-14 15:20:13.598781,-78
2021-10-14 15:20:13.598789,-51
2021-10-14 15:20:13.598797,-44
2021-10-14 15:20:13.868948,-58
2021-10-14 15:20:13.868975,-76
2021-10-14 15:20:13.868984,-83
2021-10-14 15:20:13.868993,-100
2021-10-14 15:20:13.869002,-105
2021-10-14 15:20:13.869010,-95
2021-10-14 15:20:13.869019,-100
2021-10-14 15:20:13.869027,-107
2021-10-14 15:20:13.869036,-95
2021-10-14 15:20:13.869044,-90
2021-10-14 15:20:13.869053,-83
2021-10-14 15:20:13.869061,-44
2021-10-14 15:20:13.869070,122
2021-10-14 15:20:13.869078,490
2021-10-14 15:20:13.869087,797
2021-10-14 15:20:13.869095,502
2021-10-14 15:20:13.869104,-296
2021-10-14 15:20:13.869112,-544
2021-10-14 15:20:13.869121,-76
2021-10-14 15:20:13.869129,73
2021-10-14 15:20:13.869137,-93
2021-10-14 15:20:13.869146,-26
2021-10-14 15:20:13.869154,41
2021-10-14 15:20:13.869163,-12
2021-10-14 15:20:13.869171,4
2021-10-14 15:20:13.869179,51
2021-10-14 15:20:13.869188,46
2021-10-14 15:20:13.869196,56
2021-10-14 15:20:13.869205,90
2021-10-14 15:20:13.869213,107
2021-10-14 15:20:14.093959,125
2021-10-14 15:20:14.093982,157
2021-10-14 15:20:14.093991,186
2021-10-14 15:20:14.094000,206
2021-10-14 15:20:14.094009,235
2021-10-14 15:20:14.094018,272
2021-10-14 15:20:14.094027,306
2021-10-14 15:20:14.094035,341
2021-10-14 15:20:14.094044,372
2021-10-14 15:20:14.094053,395
2021-10-14 15:20:14.094061,409
2021-10-14 15:20:14.094070,414
2021-10-14 15:20:14.094078,409
2021-10-14 15:20:14.094087,397
2021-10-14 15:20:14.094096,355
2021-10-14 15:20:14.094104,267
2021-10-14 15:20:14.094113,149
2021-10-14 15:20:14.094121,34
2021-10-14 15:20:14.094130,-56
2021-10-14 15:20:14.094138,-127
2021-10-14 15:20:14.094147,-184
2021-10-14 15:20:14.094155,-218
2021-10-14 15:20:14.094164,-225
2021-10-14 15:20:14.094172,-223
2021-10-14 15:20:14.094181,-220
2021-10-14 15:20:14.094189,-213
2021-10-14 15:20:14.094197,-211
2021-10-14 15:20:14.094206,-206
2021-10-14 15:20:14.094214,-193
2021-10-14 15:20:14.094223,-181
2021-10-14 15:20:14.318585,-166
2021-10-14 15:20:14.318605,-154
2021-10-14 15:20:14.318615,-154
2021-10-14 15:20:14.318624,-147
2021-10-14 15:20:14.318632,-130
2021-10-14 15:20:14.318641,-130
2021-10-14 15:20:14.318649,-134
2021-10-14 15:20:14.318658,-122
2021-10-14 15:20:14.318666,-115
2021-10-14 15:20:14.318674,-127
2021-10-14 15:20:14.318683,-139
2021-10-14 15:20:14.318691,-137
2021-10-14 15:20:14.318700,-127
2021-10-14 15:20:14.318708,-125
2021-10-14 15:20:14.318717,-120
2021-10-14 15:20:14.318725,-122
2021-10-14 15:20:14.318734,-142
2021-10-14 15:20:14.318742,-152
2021-10-14 15:20:14.318750,-142
2021-10-14 15:20:14.318759,-130
2021-10-14 15:20:14.318767,-132
2021-10-14 15:20:14.318775,-134
2021-10-14 15:20:14.318784,-132
2021-10-14 15:20:14.318792,-127
2021-10-14 15:20:14.318800,-122
2021-10-14 15:20:14.318809,-117
2021-10-14 15:20:14.318817,-110
2021-10-14 15:20:14.318826,-105
2021-10-14 15:20:14.318834,-100
2021-10-14 15:20:14.318842,-95
2021-10-14 15:20:14.498972,-88
2021-10-14 15:20:14.499035,-78
2021-10-14 15:20:14.499046,-76
2021-10-14 15:20:14.499055,-90
2021-10-14 15:20:14.499063,-103
2021-10-14 15:20:14.499081,-83
2021-10-14 15:20:14.499091,-41
2021-10-14 15:20:14.499100,-14
2021-10-14 15:20:14.499108,-9
2021-10-14 15:20:14.499116,-17
2021-10-14 15:20:14.499125,-31
2021-10-14 15:20:14.499133,-41
2021-10-14 15:20:14.499141,-41
2021-10-14 15:20:14.499150,-44
2021-10-14 15:20:14.499158,-36
2021-10-14 15:20:14.499166,-36
2021-10-14 15:20:14.499175,-49
2021-10-14 15:20:14.499183,-41
2021-10-14 15:20:14.499191,-31
2021-10-14 15:20:14.499199,-29
2021-10-14 15:20:14.499208,12
2021-10-14 15:20:14.499216,179
2021-10-14 15:20:14.499224,522
2021-10-14 15:20:14.499232,866
2021-10-14 15:20:14.499241,731
2021-10-14 15:20:14.499249,-24
2021-10-14 15:20:14.499257,-480
2021-10-14 15:20:14.499265,-117
2021-10-14 15:20:14.499279,130
2021-10-14 15:20:14.499288,-22
2021-10-14 15:20:14.813596,-12
2021-10-14 15:20:14.813617,78
2021-10-14 15:20:14.813626,39
2021-10-14 15:20:14.813635,24
2021-10-14 15:20:14.813644,61
2021-10-14 15:20:14.813652,66
2021-10-14 15:20:14.813661,78
2021-10-14 15:20:14.813669,107
2021-10-14 15:20:14.813678,120
2021-10-14 15:20:14.813686,122
2021-10-14 15:20:14.813694,147
2021-10-14 15:20:14.813703,169
2021-10-14 15:20:14.813711,181
2021-10-14 15:20:14.813720,211
2021-10-14 15:20:14.813728,247
2021-10-14 15:20:14.813737,272
2021-10-14 15:20:14.813745,306
2021-10-14 15:20:14.813754,345
2021-10-14 15:20:14.813762,372
2021-10-14 15:20:14.813770,387
2021-10-14 15:20:14.813779,395
2021-10-14 15:20:14.813787,395
2021-10-14 15:20:14.813795,385
2021-10-14 15:20:14.813804,353
2021-10-14 15:20:14.813812,284
2021-10-14 15:20:14.813821,186
2021-10-14 15:20:14.813829,73
2021-10-14 15:20:14.813837,-19
2021-10-14 15:20:14.813846,-80
2021-10-14 15:20:14.813854,-130
2021-10-14 15:20:14.993983,-166
2021-10-14 15:20:14.994004,-181
2021-10-14 15:20:14.994013,-188
2021-10-14 15:20:14.994022,-188
2021-10-14 15:20:14.994030,-184
2021-10-14 15:20:14.994039,-176
2021-10-14 15:20:14.994047,-166
2021-10-14 15:20:14.994056,-159
2021-10-14 15:20:14.994064,-159
2021-10-14 15:20:14.994073,-157
2021-10-14 15:20:14.994081,-147
2021-10-14 15:20:14.994090,-137
2021-10-14 15:20:14.994098,-130
2021-10-14 15:20:14.994107,-125
2021-10-14 15:20:14.994115,-130
2021-10-14 15:20:14.994124,-134
2021-10-14 15:20:14.994132,-127
2021-10-14 15:20:14.994141,-120
2021-10-14 15:20:14.994149,-117
2021-10-14 15:20:14.994158,-117
2021-10-14 15:20:14.994166,-130
2021-10-14 15:20:14.994174,-139
2021-10-14 15:20:14.994183,-132
2021-10-14 15:20:14.994191,-134
2021-10-14 15:20:14.994200,-147
2021-10-14 15:20:14.994208,-137
2021-10-14 15:20:14.994216,-127
2021-10-14 15:20:14.994225,-134
2021-10-14 15:20:14.994233,-137
2021-10-14 15:20:14.994241,-127
2021-10-14 15:20:15.308326,-115
2021-10-14 15:20:15.308356,-112
2021-10-14 15:20:15.308366,-110
2021-10-14 15:20:15.308375,-103
2021-10-14 15:20:15.308383,-100
2021-10-14 15:20:15.308392,-103
2021-10-14 15:20:15.308400,-98
2021-10-14 15:20:15.308408,-95
2021-10-14 15:20:15.308417,-103
2021-10-14 15:20:15.308425,-107
2021-10-14 15:20:15.308433,-98
2021-10-14 15:20:15.308441,-68
2021-10-14 15:20:15.308450,-36
2021-10-14 15:20:15.308458,-29
2021-10-14 15:20:15.308466,-29
2021-10-14 15:20:15.308474,-26
2021-10-14 15:20:15.308483,-46
2021-10-14 15:20:15.308491,-90
2021-10-14 15:20:15.308499,-115
2021-10-14 15:20:15.308507,-100
2021-10-14 15:20:15.308516,-78
2021-10-14 15:20:15.308524,-71
2021-10-14 15:20:15.308532,-66
2021-10-14 15:20:15.308541,-53
2021-10-14 15:20:15.308549,-56
2021-10-14 15:20:15.308557,-49
2021-10-14 15:20:15.308565,58
2021-10-14 15:20:15.308573,355
2021-10-14 15:20:15.308582,731
2021-10-14 15:20:15.308590,807
2021-10-14 15:20:15.487261,218
2021-10-14 15:20:15.487281,-512
2021-10-14 15:20:15.487291,-397
2021-10-14 15:20:15.487299,76
2021-10-14 15:20:15.487308,46
2021-10-14 15:20:15.487316,-56
2021-10-14 15:20:15.487325,51
2021-10-14 15:20:15.487333,56
2021-10-14 15:20:15.487342,9
2021-10-14 15:20:15.487350,53
2021-10-14 15:20:15.487359,88
2021-10-14 15:20:15.487367,88
2021-10-14 15:20:15.487375,112
2021-10-14 15:20:15.487384,144
2021-10-14 15:20:15.487392,152
2021-10-14 15:20:15.487400,159
2021-10-14 15:20:15.487409,188
2021-10-14 15:20:15.487417,225
2021-10-14 15:20:15.487425,250
2021-10-14 15:20:15.487434,272
2021-10-14 15:20:15.487442,314
2021-10-14 15:20:15.487451,353
2021-10-14 15:20:15.487459,385
2021-10-14 15:20:15.487467,422
2021-10-14 15:20:15.487475,439
2021-10-14 15:20:15.487483,441
2021-10-14 15:20:15.487492,446
2021-10-14 15:20:15.487500,446
2021-10-14 15:20:15.487508,422
2021-10-14 15:20:15.487516,360
2021-10-14 15:20:15.668612,269
2021-10-14 15:20:15.668631,159
2021-10-14 15:20:15.668641,44
2021-10-14 15:20:15.668650,-51
2021-10-14 15:20:15.668658,-117
2021-10-14 15:20:15.668667,-166
2021-10-14 15:20:15.668675,-196
2021-10-14 15:20:15.668684,-203
2021-10-14 15:20:15.668692,-198
2021-10-14 15:20:15.668701,-196
2021-10-14 15:20:15.668709,-196
2021-10-14 15:20:15.668718,-196
2021-10-14 15:20:15.668727,-196
2021-10-14 15:20:15.668735,-191
2021-10-14 15:20:15.668744,-171
2021-10-14 15:20:15.668752,-149
2021-10-14 15:20:15.668761,-134
2021-10-14 15:20:15.668769,-125
2021-10-14 15:20:15.668778,-127
2021-10-14 15:20:15.668786,-130
2021-10-14 15:20:15.668795,-130
2021-10-14 15:20:15.668803,-125
2021-10-14 15:20:15.668812,-127
2021-10-14 15:20:15.668820,-137
2021-10-14 15:20:15.668828,-137
2021-10-14 15:20:15.668837,-122
2021-10-14 15:20:15.668845,-117
2021-10-14 15:20:15.668854,-117
2021-10-14 15:20:15.668862,-115
2021-10-14 15:20:15.668871,-117
2021-10-14 15:20:15.894007,-122
2021-10-14 15:20:15.894028,-115
2021-10-14 15:20:15.894037,-107
2021-10-14 15:20:15.894046,-103
2021-10-14 15:20:15.894054,-100
2021-10-14 15:20:15.894062,-107
2021-10-14 15:20:15.894071,-130
2021-10-14 15:20:15.894079,-137
2021-10-14 15:20:15.894087,-120
2021-10-14 15:20:15.894095,-110
2021-10-14 15:20:15.894104,-120
2021-10-14 15:20:15.894112,-132
2021-10-14 15:20:15.894120,-127
2021-10-14 15:20:15.894129,-85
2021-10-14 15:20:15.894137,-49
2021-10-14 15:20:15.894145,-46
2021-10-14 15:20:15.894154,-49
2021-10-14 15:20:15.894162,-51
2021-10-14 15:20:15.894170,-66
2021-10-14 15:20:15.894179,-76
2021-10-14 15:20:15.894187,-73
2021-10-14 15:20:15.894195,-71
2021-10-14 15:20:15.894204,-66
2021-10-14 15:20:15.894212,-68
2021-10-14 15:20:15.894220,-76
2021-10-14 15:20:15.894228,-78
2021-10-14 15:20:15.894237,-68
2021-10-14 15:20:15.894245,-31
2021-10-14 15:20:15.894253,100
2021-10-14 15:20:15.894261,417
2021-10-14 15:20:16.163663,799
2021-10-14 15:20:16.163683,772
2021-10-14 15:20:16.163692,51
2021-10-14 15:20:16.163701,-532
2021-10-14 15:20:16.163709,-218
2021-10-14 15:20:16.163718,115
2021-10-14 15:20:16.163726,-31
2021-10-14 15:20:16.163734,-46
2021-10-14 15:20:16.163742,63
2021-10-14 15:20:16.163750,19
2021-10-14 15:20:16.163759,-12
2021-10-14 15:20:16.163767,39
2021-10-14 15:20:16.163775,58
2021-10-14 15:20:16.163783,56
2021-10-14 15:20:16.163791,76
2021-10-14 15:20:16.163799,98
2021-10-14 15:20:16.163807,117
2021-10-14 15:20:16.163815,142
2021-10-14 15:20:16.163824,171
2021-10-14 15:20:16.163832,203
2021-10-14 15:20:16.163840,238
2021-10-14 15:20:16.163848,267
2021-10-14 15:20:16.163857,289
2021-10-14 15:20:16.163865,321
2021-10-14 15:20:16.163873,355
2021-10-14 15:20:16.163882,375
2021-10-14 15:20:16.163890,385
2021-10-14 15:20:16.163898,392
2021-10-14 15:20:16.163906,385
2021-10-14 15:20:16.163914,370
2021-10-14 15:20:16.344035,345
2021-10-14 15:20:16.344057,284
2021-10-14 15:20:16.344067,176
2021-10-14 15:20:16.344075,56
2021-10-14 15:20:16.344084,-44
2021-10-14 15:20:16.344092,-115
2021-10-14 15:20:16.344101,-166
2021-10-14 15:20:16.344109,-201
2021-10-14 15:20:16.344118,-220
2021-10-14 15:20:16.344126,-225
2021-10-14 15:20:16.344135,-228
2021-10-14 15:20:16.344143,-218
2021-10-14 15:20:16.344152,-203
2021-10-14 15:20:16.344160,-196
2021-10-14 15:20:16.344168,-188
2021-10-14 15:20:16.344177,-179
2021-10-14 15:20:16.344185,-171
2021-10-14 15:20:16.344194,-169
2021-10-14 15:20:16.344202,-161
2021-10-14 15:20:16.344211,-147
2021-10-14 15:20:16.344219,-127
2021-10-14 15:20:16.344228,-125
2021-10-14 15:20:16.344236,-134
2021-10-14 15:20:16.344247,-134
2021-10-14 15:20:16.344256,-115
2021-10-14 15:20:16.344264,-100
2021-10-14 15:20:16.344273,-107
2021-10-14 15:20:16.344281,-117
2021-10-14 15:20:16.344289,-110
2021-10-14 15:20:16.344298,-100
2021-10-14 15:20:16.614013,-98
2021-10-14 15:20:16.614033,-93
2021-10-14 15:20:16.614043,-93
2021-10-14 15:20:16.614052,-103
2021-10-14 15:20:16.614061,-100
2021-10-14 15:20:16.614069,-88
2021-10-14 15:20:16.614078,-83
2021-10-14 15:20:16.614086,-80
2021-10-14 15:20:16.614095,-76
2021-10-14 15:20:16.614104,-83
2021-10-14 15:20:16.614112,-88
2021-10-14 15:20:16.614120,-78
2021-10-14 15:20:16.614129,-71
2021-10-14 15:20:16.614137,-63
2021-10-14 15:20:16.614146,-61
2021-10-14 15:20:16.614154,-71
2021-10-14 15:20:16.614163,-76
2021-10-14 15:20:16.614171,-49
2021-10-14 15:20:16.614179,-4
2021-10-14 15:20:16.614188,14
2021-10-14 15:20:16.614196,9
2021-10-14 15:20:16.614205,-4
2021-10-14 15:20:16.614213,-17
2021-10-14 15:20:16.614222,-29
2021-10-14 15:20:16.614230,-39
2021-10-14 15:20:16.614239,-39
2021-10-14 15:20:16.614247,-39
2021-10-14 15:20:16.614255,-51
2021-10-14 15:20:16.614264,-61
2021-10-14 15:20:16.614272,-63
2021-10-14 15:20:16.838647,-68
2021-10-14 15:20:16.838668,-61
2021-10-14 15:20:16.838678,9
2021-10-14 15:20:16.838686,240
2021-10-14 15:20:16.838695,633
2021-10-14 15:20:16.838703,917
2021-10-14 15:20:16.838712,574
2021-10-14 15:20:16.838720,-233
2021-10-14 15:20:16.838729,-429
2021-10-14 15:20:16.838737,-12
2021-10-14 15:20:16.838745,36
2021-10-14 15:20:16.838754,-125
2021-10-14 15:20:16.838762,-49
2021-10-14 15:20:16.838771,2
2021-10-14 15:20:16.838779,-56
2021-10-14 15:20:16.838787,-36
2021-10-14 15:20:16.838795,14
2021-10-14 15:20:16.838804,17
2021-10-14 15:20:16.838812,29
2021-10-14 15:20:16.838820,58
2021-10-14 15:20:16.838829,71
2021-10-14 15:20:16.838837,80
2021-10-14 15:20:16.838845,107
2021-10-14 15:20:16.838853,139
2021-10-14 15:20:16.838862,174
2021-10-14 15:20:16.838870,208
2021-10-14 15:20:16.838878,238
2021-10-14 15:20:16.838886,264
2021-10-14 15:20:16.838895,299
2021-10-14 15:20:16.838903,336
2021-10-14 15:20:17.063785,358
2021-10-14 15:20:17.063816,363
2021-10-14 15:20:17.063826,365
2021-10-14 15:20:17.063835,363
2021-10-14 15:20:17.063843,350
2021-10-14 15:20:17.063852,311
2021-10-14 15:20:17.063860,233
2021-10-14 15:20:17.063868,125
2021-10-14 15:20:17.063876,22
2021-10-14 15:20:17.063884,-63
2021-10-14 15:20:17.063893,-130
2021-10-14 15:20:17.063901,-176
2021-10-14 15:20:17.063910,-203
2021-10-14 15:20:17.063918,-223
2021-10-14 15:20:17.063927,-250
2021-10-14 15:20:17.063935,-264
2021-10-14 15:20:17.063944,-262
2021-10-14 15:20:17.063952,-257
2021-10-14 15:20:17.063961,-250
2021-10-14 15:20:17.063969,-235
2021-10-14 15:20:17.063978,-220
2021-10-14 15:20:17.063986,-208
2021-10-14 15:20:17.063994,-196
2021-10-14 15:20:17.064003,-186
2021-10-14 15:20:17.064011,-179
2021-10-14 15:20:17.064020,-169
2021-10-14 15:20:17.064028,-159
2021-10-14 15:20:17.064037,-154
2021-10-14 15:20:17.064045,-144
2021-10-14 15:20:17.064054,-132
2021-10-14 15:20:17.289017,-130
2021-10-14 15:20:17.289038,-125
2021-10-14 15:20:17.289047,-125
2021-10-14 15:20:17.289056,-130
2021-10-14 15:20:17.289064,-120
2021-10-14 15:20:17.289073,-107
2021-10-14 15:20:17.289082,-120
2021-10-14 15:20:17.289090,-137
2021-10-14 15:20:17.289099,-139
2021-10-14 15:20:17.289107,-134
2021-10-14 15:20:17.289116,-137
2021-10-14 15:20:17.289124,-125
2021-10-14 15:20:17.289133,-115
2021-10-14 15:20:17.289142,-120
2021-10-14 15:20:17.289150,-110
2021-10-14 15:20:17.289159,-98
2021-10-14 15:20:17.289168,-105
2021-10-14 15:20:17.289176,-117
2021-10-14 15:20:17.289185,-117
2021-10-14 15:20:17.289193,-110
2021-10-14 15:20:17.289202,-90
2021-10-14 15:20:17.289210,-58
2021-10-14 15:20:17.289219,-26
2021-10-14 15:20:17.289227,-7
2021-10-14 15:20:17.289236,-17
2021-10-14 15:20:17.289244,-39
2021-10-14 15:20:17.289253,-51
2021-10-14 15:20:17.289261,-53
2021-10-14 15:20:17.289269,-51
2021-10-14 15:20:17.289278,-46
2021-10-14 15:20:17.602308,-49
2021-10-14 15:20:17.602329,-46
2021-10-14 15:20:17.602338,-44
2021-10-14 15:20:17.602347,-44
2021-10-14 15:20:17.602355,-49
2021-10-14 15:20:17.602364,-12
2021-10-14 15:20:17.602372,188
2021-10-14 15:20:17.602381,571
2021-10-14 15:20:17.602389,856
2021-10-14 15:20:17.602397,539
2021-10-14 15:20:17.602406,-269
2021-10-14 15:20:17.602415,-493
2021-10-14 15:20:17.602423,-36
2021-10-14 15:20:17.602431,58
2021-10-14 15:20:17.602440,-130
2021-10-14 15:20:17.602448,-76
2021-10-14 15:20:17.602457,-9
2021-10-14 15:20:17.602465,-46
2021-10-14 15:20:17.602474,-24
2021-10-14 15:20:17.602482,14
2021-10-14 15:20:17.602491,19
2021-10-14 15:20:17.602499,36
2021-10-14 15:20:17.602507,71
2021-10-14 15:20:17.602516,90
2021-10-14 15:20:17.602524,98
2021-10-14 15:20:17.602533,112
2021-10-14 15:20:17.602541,144
2021-10-14 15:20:17.602549,176
2021-10-14 15:20:17.602558,208
2021-10-14 15:20:17.602567,245
2021-10-14 15:20:17.739005,284
2021-10-14 15:20:17.739025,318
2021-10-14 15:20:17.739034,353
2021-10-14 15:20:17.739043,380
2021-10-14 15:20:17.739051,399
2021-10-14 15:20:17.739060,395
2021-10-14 15:20:17.739069,370
2021-10-14 15:20:17.739077,348
2021-10-14 15:20:17.739086,318
2021-10-14 15:20:17.739094,240
2021-10-14 15:20:17.739103,125
2021-10-14 15:20:17.739111,14
2021-10-14 15:20:17.739120,-73
2021-10-14 15:20:17.739128,-139
2021-10-14 15:20:17.739136,-184
2021-10-14 15:20:17.739145,-220
2021-10-14 15:20:17.739153,-255
2021-10-14 15:20:17.739162,-269
2021-10-14 15:20:17.739170,-257
2021-10-14 15:20:17.739179,-245
2021-10-14 15:20:17.739187,-235
2021-10-14 15:20:17.739196,-223
2021-10-14 15:20:17.739204,-213
2021-10-14 15:20:17.739212,-215
2021-10-14 15:20:17.739220,-201
2021-10-14 15:20:17.739229,-171
2021-10-14 15:20:17.739237,-164
2021-10-14 15:20:17.739246,-164
2021-10-14 15:20:17.739254,-147
2021-10-14 15:20:17.739262,-137
2021-10-14 15:20:18.008665,-139
2021-10-14 15:20:18.008686,-134
2021-10-14 15:20:18.008696,-112
2021-10-14 15:20:18.008704,-110
2021-10-14 15:20:18.008713,-130
2021-10-14 15:20:18.008722,-134
2021-10-14 15:20:18.008730,-125
2021-10-14 15:20:18.008738,-115
2021-10-14 15:20:18.008747,-115
2021-10-14 15:20:18.008755,-122
2021-10-14 15:20:18.008763,-130
2021-10-14 15:20:18.008772,-132
2021-10-14 15:20:18.008780,-120
2021-10-14 15:20:18.008789,-107
2021-10-14 15:20:18.008797,-100
2021-10-14 15:20:18.008806,-95
2021-10-14 15:20:18.008814,-93
2021-10-14 15:20:18.008823,-100
2021-10-14 15:20:18.008831,-103
2021-10-14 15:20:18.008839,-95
2021-10-14 15:20:18.008848,-88
2021-10-14 15:20:18.008856,-98
2021-10-14 15:20:18.008864,-95
2021-10-14 15:20:18.008873,-56
2021-10-14 15:20:18.008881,-9
2021-10-14 15:20:18.008890,0
2021-10-14 15:20:18.008898,-7
2021-10-14 15:20:18.008906,-14
2021-10-14 15:20:18.008915,-22
2021-10-14 15:20:18.008923,-34
2021-10-14 15:20:18.189017,-41
2021-10-14 15:20:18.189037,-31
2021-10-14 15:20:18.189047,-22
2021-10-14 15:20:18.189056,-29
2021-10-14 15:20:18.189064,-39
2021-10-14 15:20:18.189073,-39
2021-10-14 15:20:18.189081,-34
2021-10-14 15:20:18.189090,-17
2021-10-14 15:20:18.189098,88
2021-10-14 15:20:18.189107,390
2021-10-14 15:20:18.189115,817
2021-10-14 15:20:18.189124,907
2021-10-14 15:20:18.189132,262
2021-10-14 15:20:18.189141,-387
2021-10-14 15:20:18.189149,-188
2021-10-14 15:20:18.189158,122
2021-10-14 15:20:18.189166,-44
2021-10-14 15:20:18.189175,-115
2021-10-14 15:20:18.189183,2
2021-10-14 15:20:18.189192,-2
2021-10-14 15:20:18.189200,-34
2021-10-14 15:20:18.189208,-4
2021-10-14 15:20:18.189217,7
2021-10-14 15:20:18.189225,9
2021-10-14 15:20:18.189234,41
2021-10-14 15:20:18.189242,66
2021-10-14 15:20:18.189251,76
2021-10-14 15:20:18.189259,90
2021-10-14 15:20:18.189267,112
2021-10-14 15:20:18.189276,132
2021-10-14 15:20:18.503672,157
2021-10-14 15:20:18.503692,196
2021-10-14 15:20:18.503702,238
2021-10-14 15:20:18.503711,262
2021-10-14 15:20:18.503719,284
2021-10-14 15:20:18.503728,321
2021-10-14 15:20:18.503736,345
2021-10-14 15:20:18.503745,355
2021-10-14 15:20:18.503753,353
2021-10-14 15:20:18.503762,333
2021-10-14 15:20:18.503770,296
2021-10-14 15:20:18.503778,245
2021-10-14 15:20:18.503787,154
2021-10-14 15:20:18.503795,46
2021-10-14 15:20:18.503804,-41
2021-10-14 15:20:18.503812,-110
2021-10-14 15:20:18.503821,-166
2021-10-14 15:20:18.503835,-196
2021-10-14 15:20:18.503844,-211
2021-10-14 15:20:18.503852,-215
2021-10-14 15:20:18.503861,-215
2021-10-14 15:20:18.503869,-215
2021-10-14 15:20:18.503878,-208
2021-10-14 15:20:18.503886,-191
2021-10-14 15:20:18.503895,-174
2021-10-14 15:20:18.503903,-164
2021-10-14 15:20:18.503911,-157
2021-10-14 15:20:18.503920,-152
2021-10-14 15:20:18.503928,-139
2021-10-14 15:20:18.503937,-127
2021-10-14 15:20:18.683654,-120
2021-10-14 15:20:18.683675,-110
2021-10-14 15:20:18.683685,-107
2021-10-14 15:20:18.683694,-107
2021-10-14 15:20:18.683702,-100
2021-10-14 15:20:18.683710,-95
2021-10-14 15:20:18.683717,-98
2021-10-14 15:20:18.683724,-95
2021-10-14 15:20:18.683732,-98
2021-10-14 15:20:18.683739,-112
2021-10-14 15:20:18.683746,-100
2021-10-14 15:20:18.683753,-80
2021-10-14 15:20:18.683759,-85
2021-10-14 15:20:18.683766,-85
2021-10-14 15:20:18.683772,-78
2021-10-14 15:20:18.683779,-80
2021-10-14 15:20:18.683786,-80
2021-10-14 15:20:18.683793,-71
2021-10-14 15:20:18.683800,-73
2021-10-14 15:20:18.683808,-83
2021-10-14 15:20:18.683845,-80
2021-10-14 15:20:18.683855,-78
2021-10-14 15:20:18.683862,-83
2021-10-14 15:20:18.683869,-76
2021-10-14 15:20:18.683878,-66
2021-10-14 15:20:18.683885,-61
2021-10-14 15:20:18.683892,-63
2021-10-14 15:20:18.683898,-76
2021-10-14 15:20:18.683905,-85
2021-10-14 15:20:18.683913,-53
2021-10-14 15:20:18.909019,-9
2021-10-14 15:20:18.909040,-4
2021-10-14 15:20:18.909049,-14
2021-10-14 15:20:18.909058,-12
2021-10-14 15:20:18.909066,-22
2021-10-14 15:20:18.909075,-41
2021-10-14 15:20:18.909083,-41
2021-10-14 15:20:18.909092,-39
2021-10-14 15:20:18.909100,-49
2021-10-14 15:20:18.909109,-51
2021-10-14 15:20:18.909117,-36
2021-10-14 15:20:18.909125,-36
2021-10-14 15:20:18.909133,-44
2021-10-14 15:20:18.909142,-24
2021-10-14 15:20:18.909150,98
2021-10-14 15:20:18.909159,422
2021-10-14 15:20:18.909167,831
2021-10-14 15:20:18.909175,861
2021-10-14 15:20:18.909184,166
2021-10-14 15:20:18.909192,-466
2021-10-14 15:20:18.909200,-220
2021-10-14 15:20:18.909208,95
2021-10-14 15:20:18.909217,-68
2021-10-14 15:20:18.909225,-110
2021-10-14 15:20:18.909233,-2
2021-10-14 15:20:18.909241,-34
2021-10-14 15:20:18.909250,-58
2021-10-14 15:20:18.909258,-7
2021-10-14 15:20:18.909266,4
2021-10-14 15:20:18.909275,7
2021-10-14 15:20:19.178495,36
2021-10-14 15:20:19.178517,56
2021-10-14 15:20:19.178526,68
2021-10-14 15:20:19.178535,93
2021-10-14 15:20:19.178544,117
2021-10-14 15:20:19.178552,147
2021-10-14 15:20:19.178561,171
2021-10-14 15:20:19.178569,188
2021-10-14 15:20:19.178577,218
2021-10-14 15:20:19.178586,260
2021-10-14 15:20:19.178594,294
2021-10-14 15:20:19.178603,314
2021-10-14 15:20:19.178611,328
2021-10-14 15:20:19.178620,333
2021-10-14 15:20:19.178629,333
2021-10-14 15:20:19.178637,323
2021-10-14 15:20:19.178645,296
2021-10-14 15:20:19.178654,240
2021-10-14 15:20:19.178662,157
2021-10-14 15:20:19.178671,58
2021-10-14 15:20:19.178679,-31
2021-10-14 15:20:19.178688,-115
2021-10-14 15:20:19.178696,-179
2021-10-14 15:20:19.178705,-208
2021-10-14 15:20:19.178713,-225
2021-10-14 15:20:19.178722,-242
2021-10-14 15:20:19.178730,-242
2021-10-14 15:20:19.178739,-225
2021-10-14 15:20:19.178747,-218
2021-10-14 15:20:19.178756,-215
2021-10-14 15:20:19.403049,-203
2021-10-14 15:20:19.403069,-193
2021-10-14 15:20:19.403079,-184
2021-10-14 15:20:19.403088,-176
2021-10-14 15:20:19.403096,-174
2021-10-14 15:20:19.403105,-176
2021-10-14 15:20:19.403113,-171
2021-10-14 15:20:19.403122,-164
2021-10-14 15:20:19.403130,-157
2021-10-14 15:20:19.403139,-152
2021-10-14 15:20:19.403147,-147
2021-10-14 15:20:19.403156,-142
2021-10-14 15:20:19.403164,-142
2021-10-14 15:20:19.403172,-147
2021-10-14 15:20:19.403181,-142
2021-10-14 15:20:19.403189,-132
2021-10-14 15:20:19.403198,-130
2021-10-14 15:20:19.403206,-127
2021-10-14 15:20:19.403215,-125
2021-10-14 15:20:19.403223,-122
2021-10-14 15:20:19.403231,-120
2021-10-14 15:20:19.403240,-122
2021-10-14 15:20:19.403248,-120
2021-10-14 15:20:19.403257,-107
2021-10-14 15:20:19.403265,-105
2021-10-14 15:20:19.403274,-103
2021-10-14 15:20:19.403282,-90
2021-10-14 15:20:19.403291,-88
2021-10-14 15:20:19.403299,-85
2021-10-14 15:20:19.403307,-76
2021-10-14 15:20:19.627771,-71
2021-10-14 15:20:19.627793,-78
2021-10-14 15:20:19.627802,-88
2021-10-14 15:20:19.627811,-80
2021-10-14 15:20:19.627820,-51
2021-10-14 15:20:19.627828,-17
2021-10-14 15:20:19.627837,-7
2021-10-14 15:20:19.627846,-7
2021-10-14 15:20:19.627854,-7
2021-10-14 15:20:19.627863,-14
2021-10-14 15:20:19.627872,-24
2021-10-14 15:20:19.627880,-39
2021-10-14 15:20:19.627889,-44
2021-10-14 15:20:19.627897,-34
2021-10-14 15:20:19.627906,-29
2021-10-14 15:20:19.627915,-36
2021-10-14 15:20:19.627923,-41
2021-10-14 15:20:19.627932,-44
2021-10-14 15:20:19.627940,-24
2021-10-14 15:20:19.627949,78
2021-10-14 15:20:19.627957,358
2021-10-14 15:20:19.627966,760
2021-10-14 15:20:19.627974,890
2021-10-14 15:20:19.627983,301
2021-10-14 15:20:19.627991,-414
2021-10-14 15:20:19.627999,-272
2021-10-14 15:20:19.628008,117
2021-10-14 15:20:19.628017,2
2021-10-14 15:20:19.628026,-88
2021-10-14 15:20:19.628034,24
2021-10-14 15:20:19.854046,14
2021-10-14 15:20:19.854067,-26
2021-10-14 15:20:19.854076,22
2021-10-14 15:20:19.854085,56
2021-10-14 15:20:19.854094,61
2021-10-14 15:20:19.854102,76
2021-10-14 15:20:19.854110,83
2021-10-14 15:20:19.854119,98
2021-10-14 15:20:19.854127,132
2021-10-14 15:20:19.854135,157
2021-10-14 15:20:19.854144,166
2021-10-14 15:20:19.854152,181
2021-10-14 15:20:19.854161,203
2021-10-14 15:20:19.854169,228
2021-10-14 15:20:19.854177,267
2021-10-14 15:20:19.854186,306
2021-10-14 15:20:19.854194,323
2021-10-14 15:20:19.854202,341
2021-10-14 15:20:19.854211,368
2021-10-14 15:20:19.854219,380
2021-10-14 15:20:19.854227,382
2021-10-14 15:20:19.854236,368
2021-10-14 15:20:19.854244,287
2021-10-14 15:20:19.854253,164
2021-10-14 15:20:19.854261,76
2021-10-14 15:20:19.854269,4
2021-10-14 15:20:19.854278,-83
2021-10-14 15:20:19.854286,-149
2021-10-14 15:20:19.854294,-164
2021-10-14 15:20:19.854303,-166
2021-10-14 15:20:20.033713,-179
2021-10-14 15:20:20.033734,-176
2021-10-14 15:20:20.033742,-171
2021-10-14 15:20:20.033748,-176
2021-10-14 15:20:20.033756,-166
2021-10-14 15:20:20.033762,-144
2021-10-14 15:20:20.033770,-139
2021-10-14 15:20:20.033777,-125
2021-10-14 15:20:20.033785,-95
2021-10-14 15:20:20.033824,-105
2021-10-14 15:20:20.033834,-142
2021-10-14 15:20:20.033842,-120
2021-10-14 15:20:20.033859,-68
2021-10-14 15:20:20.033867,-76
2021-10-14 15:20:20.033873,-110
2021-10-14 15:20:20.033881,-107
2021-10-14 15:20:20.033888,-83
2021-10-14 15:20:20.033897,-76
2021-10-14 15:20:20.033907,-80
2021-10-14 15:20:20.033916,-80
2021-10-14 15:20:20.033923,-83
2021-10-14 15:20:20.033931,-78
2021-10-14 15:20:20.033938,-63
2021-10-14 15:20:20.033945,-68
2021-10-14 15:20:20.033953,-66
2021-10-14 15:20:20.033959,-44
2021-10-14 15:20:20.033966,-61
2021-10-14 15:20:20.033973,-100
2021-10-14 15:20:20.033980,-88
2021-10-14 15:20:20.033988,-58
2021-10-14 15:20:20.303691,-63
2021-10-14 15:20:20.303712,-68
2021-10-14 15:20:20.303722,-56
2021-10-14 15:20:20.303731,-61
2021-10-14 15:20:20.303739,-78
2021-10-14 15:20:20.303748,-71
2021-10-14 15:20:20.303756,-46
2021-10-14 15:20:20.303765,-51
2021-10-14 15:20:20.303773,-76
2021-10-14 15:20:20.303782,-78
2021-10-14 15:20:20.303790,-49
2021-10-14 15:20:20.303798,-12
2021-10-14 15:20:20.303807,-4
2021-10-14 15:20:20.303816,-4
2021-10-14 15:20:20.303824,-2
2021-10-14 15:20:20.303833,-22
2021-10-14 15:20:20.303841,-56
2021-10-14 15:20:20.303850,-51
2021-10-14 15:20:20.303858,-29
2021-10-14 15:20:20.303867,-36
2021-10-14 15:20:20.303875,-53
2021-10-14 15:20:20.303883,-53
2021-10-14 15:20:20.303892,-49
2021-10-14 15:20:20.303900,-56
2021-10-14 15:20:20.303909,-31
2021-10-14 15:20:20.303917,76
2021-10-14 15:20:20.303925,333
2021-10-14 15:20:20.303934,726
2021-10-14 15:20:20.303942,880
2021-10-14 15:20:20.303951,328
2021-10-14 15:20:20.573088,-392
2021-10-14 15:20:20.573109,-291
2021-10-14 15:20:20.573118,80
2021-10-14 15:20:20.573127,-34
2021-10-14 15:20:20.573135,-122
2021-10-14 15:20:20.573143,2
2021-10-14 15:20:20.573152,2
2021-10-14 15:20:20.573160,-39
2021-10-14 15:20:20.573169,2
2021-10-14 15:20:20.573177,17
2021-10-14 15:20:20.573185,0
2021-10-14 15:20:20.573194,24
2021-10-14 15:20:20.573202,63
2021-10-14 15:20:20.573210,78
2021-10-14 15:20:20.573219,95
2021-10-14 15:20:20.573227,115
2021-10-14 15:20:20.573235,130
2021-10-14 15:20:20.573243,164
2021-10-14 15:20:20.573252,213
2021-10-14 15:20:20.573260,250
2021-10-14 15:20:20.573269,267
2021-10-14 15:20:20.573277,279
2021-10-14 15:20:20.573285,309
2021-10-14 15:20:20.573294,341
2021-10-14 15:20:20.573302,350
2021-10-14 15:20:20.573310,343
2021-10-14 15:20:20.573318,333
2021-10-14 15:20:20.573327,309
2021-10-14 15:20:20.573335,272
2021-10-14 15:20:20.573343,203
2021-10-14 15:20:20.753700,105
2021-10-14 15:20:20.753721,7
2021-10-14 15:20:20.753731,-80
2021-10-14 15:20:20.753740,-144
2021-10-14 15:20:20.753748,-169
2021-10-14 15:20:20.753757,-181
2021-10-14 15:20:20.753765,-191
2021-10-14 15:20:20.753774,-201
2021-10-14 15:20:20.753782,-208
2021-10-14 15:20:20.753791,-203
2021-10-14 15:20:20.753799,-176
2021-10-14 15:20:20.753807,-164
2021-10-14 15:20:20.753816,-169
2021-10-14 15:20:20.753824,-161
2021-10-14 15:20:20.753839,-159
2021-10-14 15:20:20.753847,-164
2021-10-14 15:20:20.753856,-149
2021-10-14 15:20:20.753865,-130
2021-10-14 15:20:20.753873,-122
2021-10-14 15:20:20.753882,-127
2021-10-14 15:20:20.753890,-139
2021-10-14 15:20:20.753898,-142
2021-10-14 15:20:20.753907,-134
2021-10-14 15:20:20.753915,-134
2021-10-14 15:20:20.753924,-130
2021-10-14 15:20:20.753932,-115
2021-10-14 15:20:20.753940,-115
2021-10-14 15:20:20.753948,-127
2021-10-14 15:20:20.753957,-125
2021-10-14 15:20:20.753965,-107
2021-10-14 15:20:21.024047,-105
2021-10-14 15:20:21.024067,-115
2021-10-14 15:20:21.024077,-120
2021-10-14 15:20:21.024086,-115
2021-10-14 15:20:21.024095,-103
2021-10-14 15:20:21.024103,-90
2021-10-14 15:20:21.024112,-98
2021-10-14 15:20:21.024120,-110
2021-10-14 15:20:21.024128,-105
2021-10-14 15:20:21.024137,-95
2021-10-14 15:20:21.024145,-90
2021-10-14 15:20:21.024154,-85
2021-10-14 15:20:21.024162,-83
2021-10-14 15:20:21.024171,-93
2021-10-14 15:20:21.024179,-105
2021-10-14 15:20:21.024188,-100
2021-10-14 15:20:21.024196,-68
2021-10-14 15:20:21.024205,-22
2021-10-14 15:20:21.024214,-4
2021-10-14 15:20:21.024222,-14
2021-10-14 15:20:21.024230,-22
2021-10-14 15:20:21.024239,-29
2021-10-14 15:20:21.024247,-44
2021-10-14 15:20:21.024256,-53
2021-10-14 15:20:21.024264,-49
2021-10-14 15:20:21.024273,-46
2021-10-14 15:20:21.024281,-49
2021-10-14 15:20:21.024290,-46
2021-10-14 15:20:21.024298,-46
2021-10-14 15:20:21.024307,-56
2021-10-14 15:20:21.203698,-46
2021-10-14 15:20:21.203719,66
2021-10-14 15:20:21.203728,360
2021-10-14 15:20:21.203737,753
2021-10-14 15:20:21.203745,844
2021-10-14 15:20:21.203754,213
2021-10-14 15:20:21.203763,-488
2021-10-14 15:20:21.203771,-296
2021-10-14 15:20:21.203780,107
2021-10-14 15:20:21.203788,-12
2021-10-14 15:20:21.203797,-98
2021-10-14 15:20:21.203806,9
2021-10-14 15:20:21.203814,-9
2021-10-14 15:20:21.203823,-41
2021-10-14 15:20:21.203831,12
2021-10-14 15:20:21.203839,36
2021-10-14 15:20:21.203848,36
2021-10-14 15:20:21.203856,63
2021-10-14 15:20:21.203865,78
2021-10-14 15:20:21.203873,85
2021-10-14 15:20:21.203882,115
2021-10-14 15:20:21.203891,147
2021-10-14 15:20:21.203899,171
2021-10-14 15:20:21.203907,201
2021-10-14 15:20:21.203916,235
2021-10-14 15:20:21.203924,264
2021-10-14 15:20:21.203933,279
2021-10-14 15:20:21.203941,291
2021-10-14 15:20:21.203950,323
2021-10-14 15:20:21.203958,350
2021-10-14 15:20:21.563077,355
2021-10-14 15:20:21.563098,360
2021-10-14 15:20:21.563107,360
2021-10-14 15:20:21.563116,328
2021-10-14 15:20:21.563124,267
2021-10-14 15:20:21.563132,176
2021-10-14 15:20:21.563140,68
2021-10-14 15:20:21.563148,-31
2021-10-14 15:20:21.563157,-110
2021-10-14 15:20:21.563165,-169
2021-10-14 15:20:21.563173,-211
2021-10-14 15:20:21.563181,-247
2021-10-14 15:20:21.563189,-267
2021-10-14 15:20:21.563197,-257
2021-10-14 15:20:21.563205,-242
2021-10-14 15:20:21.563213,-235
2021-10-14 15:20:21.563222,-220
2021-10-14 15:20:21.563230,-213
2021-10-14 15:20:21.563238,-206
2021-10-14 15:20:21.563246,-188
2021-10-14 15:20:21.563254,-171
2021-10-14 15:20:21.563262,-164
2021-10-14 15:20:21.563270,-159
2021-10-14 15:20:21.563278,-157
2021-10-14 15:20:21.563286,-152
2021-10-14 15:20:21.563295,-142
2021-10-14 15:20:21.563303,-137
2021-10-14 15:20:21.563311,-134
2021-10-14 15:20:21.563319,-139
2021-10-14 15:20:21.563327,-132
2021-10-14 15:20:21.788408,-115
2021-10-14 15:20:21.788432,-110
2021-10-14 15:20:21.788442,-115
2021-10-14 15:20:21.788450,-115
2021-10-14 15:20:21.788457,-110
2021-10-14 15:20:21.788464,-107
2021-10-14 15:20:21.788470,-107
2021-10-14 15:20:21.788477,-105
2021-10-14 15:20:21.788484,-107
2021-10-14 15:20:21.788491,-115
2021-10-14 15:20:21.788498,-120
2021-10-14 15:20:21.788506,-112
2021-10-14 15:20:21.788513,-103
2021-10-14 15:20:21.788521,-100
2021-10-14 15:20:21.788528,-100
2021-10-14 15:20:21.788536,-93
2021-10-14 15:20:21.788543,-93
2021-10-14 15:20:21.788551,-107
2021-10-14 15:20:21.788557,-107
2021-10-14 15:20:21.788565,-83
2021-10-14 15:20:21.788572,-49
2021-10-14 15:20:21.788580,-24
2021-10-14 15:20:21.788587,-19
2021-10-14 15:20:21.788594,-24
2021-10-14 15:20:21.788602,-34
2021-10-14 15:20:21.788609,-51
2021-10-14 15:20:21.788617,-71
2021-10-14 15:20:21.788624,-71
2021-10-14 15:20:21.788632,-61
2021-10-14 15:20:21.788639,-61
2021-10-14 15:20:21.968135,-63
2021-10-14 15:20:21.968155,-68
2021-10-14 15:20:21.968165,-78
2021-10-14 15:20:21.968174,-85
2021-10-14 15:20:21.968182,-53
2021-10-14 15:20:21.968191,139
2021-10-14 15:20:21.968199,520
2021-10-14 15:20:21.968208,794
2021-10-14 15:20:21.968216,473
2021-10-14 15:20:21.968225,-316
2021-10-14 15:20:21.968233,-507
2021-10-14 15:20:21.968241,-34
2021-10-14 15:20:21.968250,63
2021-10-14 15:20:21.968258,-115
2021-10-14 15:20:21.968267,-49
2021-10-14 15:20:21.968275,2
2021-10-14 15:20:21.968283,-56
2021-10-14 15:20:21.968292,-26
2021-10-14 15:20:21.968300,24
2021-10-14 15:20:21.968309,24
2021-10-14 15:20:21.968317,36
2021-10-14 15:20:21.968325,66
2021-10-14 15:20:21.968334,73
2021-10-14 15:20:21.968342,83
2021-10-14 15:20:21.968350,122
2021-10-14 15:20:21.968359,157
2021-10-14 15:20:21.968367,184
2021-10-14 15:20:21.968375,208
2021-10-14 15:20:21.968384,233
2021-10-14 15:20:21.968392,262
2021-10-14 15:20:22.329103,301
2021-10-14 15:20:22.329123,336
2021-10-14 15:20:22.329133,355
2021-10-14 15:20:22.329142,355
2021-10-14 15:20:22.329150,348
2021-10-14 15:20:22.329159,348
2021-10-14 15:20:22.329167,336
2021-10-14 15:20:22.329176,291
2021-10-14 15:20:22.329184,213
2021-10-14 15:20:22.329192,105
2021-10-14 15:20:22.329201,0
2021-10-14 15:20:22.329209,-76
2021-10-14 15:20:22.329218,-139
2021-10-14 15:20:22.329226,-193
2021-10-14 15:20:22.329234,-223
2021-10-14 15:20:22.329243,-233
2021-10-14 15:20:22.329252,-240
2021-10-14 15:20:22.329260,-235
2021-10-14 15:20:22.329268,-220
2021-10-14 15:20:22.329277,-206
2021-10-14 15:20:22.329285,-196
2021-10-14 15:20:22.329293,-191
2021-10-14 15:20:22.329302,-181
2021-10-14 15:20:22.329310,-164
2021-10-14 15:20:22.329318,-152
2021-10-14 15:20:22.329327,-139
2021-10-14 15:20:22.329335,-134
2021-10-14 15:20:22.329343,-134
2021-10-14 15:20:22.329352,-125
2021-10-14 15:20:22.329360,-112
2021-10-14 15:20:22.418710,-107
2021-10-14 15:20:22.418731,-105
2021-10-14 15:20:22.418740,-103
2021-10-14 15:20:22.418749,-103
2021-10-14 15:20:22.418757,-98
2021-10-14 15:20:22.418765,-93
2021-10-14 15:20:22.418774,-90
2021-10-14 15:20:22.418782,-88
2021-10-14 15:20:22.418791,-85
2021-10-14 15:20:22.418799,-93
2021-10-14 15:20:22.418807,-100
2021-10-14 15:20:22.418816,-90
2021-10-14 15:20:22.418824,-85
2021-10-14 15:20:22.418833,-83
2021-10-14 15:20:22.418841,-76
2021-10-14 15:20:22.418850,-76
2021-10-14 15:20:22.418858,-83
2021-10-14 15:20:22.418866,-73
2021-10-14 15:20:22.418875,-63
2021-10-14 15:20:22.418883,-66
2021-10-14 15:20:22.418891,-71
2021-10-14 15:20:22.418903,-73
2021-10-14 15:20:22.418912,-63
2021-10-14 15:20:22.418920,-61
2021-10-14 15:20:22.418928,-68
2021-10-14 15:20:22.418937,-58
2021-10-14 15:20:22.418945,-24
2021-10-14 15:20:22.418953,0
2021-10-14 15:20:22.418962,4
2021-10-14 15:20:22.418970,2
2021-10-14 15:20:22.688474,0
2021-10-14 15:20:22.688495,-17
2021-10-14 15:20:22.688505,-44
2021-10-14 15:20:22.688514,-51
2021-10-14 15:20:22.688522,-39
2021-10-14 15:20:22.688531,-34
2021-10-14 15:20:22.688539,-31
2021-10-14 15:20:22.688548,-36
2021-10-14 15:20:22.688556,-51
2021-10-14 15:20:22.688564,-58
2021-10-14 15:20:22.688573,-14
2021-10-14 15:20:22.688581,166
2021-10-14 15:20:22.688589,537
2021-10-14 15:20:22.688598,875
2021-10-14 15:20:22.688606,650
2021-10-14 15:20:22.688615,-142
2021-10-14 15:20:22.688623,-446
2021-10-14 15:20:22.688632,-31
2021-10-14 15:20:22.688640,80
2021-10-14 15:20:22.688648,-112
2021-10-14 15:20:22.688656,-66
2021-10-14 15:20:22.688665,2
2021-10-14 15:20:22.688673,-41
2021-10-14 15:20:22.688681,-22
2021-10-14 15:20:22.688690,24
2021-10-14 15:20:22.688698,22
2021-10-14 15:20:22.688706,29
2021-10-14 15:20:22.688714,61
2021-10-14 15:20:22.688723,80
2021-10-14 15:20:22.688731,93
2021-10-14 15:20:22.914152,122
2021-10-14 15:20:22.914173,152
2021-10-14 15:20:22.914183,174
2021-10-14 15:20:22.914192,198
2021-10-14 15:20:22.914200,233
2021-10-14 15:20:22.914209,272
2021-10-14 15:20:22.914217,306
2021-10-14 15:20:22.914226,326
2021-10-14 15:20:22.914234,341
2021-10-14 15:20:22.914243,355
2021-10-14 15:20:22.914251,368
2021-10-14 15:20:22.914260,360
2021-10-14 15:20:22.914268,341
2021-10-14 15:20:22.914276,296
2021-10-14 15:20:22.914285,223
2021-10-14 15:20:22.914293,122
2021-10-14 15:20:22.914302,17
2021-10-14 15:20:22.914310,-63
2021-10-14 15:20:22.914319,-115
2021-10-14 15:20:22.914327,-164
2021-10-14 15:20:22.914336,-206
2021-10-14 15:20:22.914344,-220
2021-10-14 15:20:22.914353,-215
2021-10-14 15:20:22.914361,-213
2021-10-14 15:20:22.914369,-211
2021-10-14 15:20:22.914378,-203
2021-10-14 15:20:22.914386,-193
2021-10-14 15:20:22.914394,-181
2021-10-14 15:20:22.914403,-166
2021-10-14 15:20:22.914411,-157
2021-10-14 15:20:23.094090,-149
2021-10-14 15:20:23.094112,-142
2021-10-14 15:20:23.094121,-139
2021-10-14 15:20:23.094130,-134
2021-10-14 15:20:23.094139,-122
2021-10-14 15:20:23.094147,-110
2021-10-14 15:20:23.094156,-110
2021-10-14 15:20:23.094164,-110
2021-10-14 15:20:23.094173,-105
2021-10-14 15:20:23.094181,-103
2021-10-14 15:20:23.094190,-100
2021-10-14 15:20:23.094198,-93
2021-10-14 15:20:23.094207,-93
2021-10-14 15:20:23.094215,-98
2021-10-14 15:20:23.094224,-98
2021-10-14 15:20:23.094232,-95
2021-10-14 15:20:23.094241,-93
2021-10-14 15:20:23.094249,-85
2021-10-14 15:20:23.094257,-88
2021-10-14 15:20:23.094266,-93
2021-10-14 15:20:23.094274,-88
2021-10-14 15:20:23.094283,-88
2021-10-14 15:20:23.094291,-90
2021-10-14 15:20:23.094300,-93
2021-10-14 15:20:23.094308,-98
2021-10-14 15:20:23.094317,-93
2021-10-14 15:20:23.094325,-80
2021-10-14 15:20:23.094334,-80
2021-10-14 15:20:23.094342,-78
2021-10-14 15:20:23.094351,-66
2021-10-14 15:20:23.274087,-63
2021-10-14 15:20:23.274108,-66
2021-10-14 15:20:23.274117,-63
2021-10-14 15:20:23.274126,-71
2021-10-14 15:20:23.274135,-63
2021-10-14 15:20:23.274143,-29
2021-10-14 15:20:23.274152,-7
2021-10-14 15:20:23.274160,-14
2021-10-14 15:20:23.274169,-17
2021-10-14 15:20:23.274177,-17
2021-10-14 15:20:23.274186,-26
2021-10-14 15:20:23.274194,-49
2021-10-14 15:20:23.274202,-63
2021-10-14 15:20:23.274211,-56
2021-10-14 15:20:23.274219,-49
2021-10-14 15:20:23.274228,-56
2021-10-14 15:20:23.274236,-61
2021-10-14 15:20:23.274244,-61
2021-10-14 15:20:23.274253,-66
2021-10-14 15:20:23.274268,-34
2021-10-14 15:20:23.274276,122
2021-10-14 15:20:23.274285,458
2021-10-14 15:20:23.274293,809
2021-10-14 15:20:23.274302,677
2021-10-14 15:20:23.274310,-95
2021-10-14 15:20:23.274318,-527
2021-10-14 15:20:23.274327,-122
2021-10-14 15:20:23.274335,107
2021-10-14 15:20:23.274344,-80
2021-10-14 15:20:23.274352,-68
2021-10-14 15:20:23.543495,24
2021-10-14 15:20:23.543517,-14
2021-10-14 15:20:23.543527,-17
2021-10-14 15:20:23.543536,26
2021-10-14 15:20:23.543544,22
2021-10-14 15:20:23.543552,24
2021-10-14 15:20:23.543561,61
2021-10-14 15:20:23.543569,88
2021-10-14 15:20:23.543578,100
2021-10-14 15:20:23.543586,122
2021-10-14 15:20:23.543594,147
2021-10-14 15:20:23.543603,169
2021-10-14 15:20:23.543611,196
2021-10-14 15:20:23.543619,233
2021-10-14 15:20:23.543628,264
2021-10-14 15:20:23.543636,291
2021-10-14 15:20:23.543645,318
2021-10-14 15:20:23.543653,348
2021-10-14 15:20:23.543661,365
2021-10-14 15:20:23.543670,372
2021-10-14 15:20:23.543678,372
2021-10-14 15:20:23.543686,355
2021-10-14 15:20:23.543695,318
2021-10-14 15:20:23.543703,262
2021-10-14 15:20:23.543712,174
2021-10-14 15:20:23.543720,71
2021-10-14 15:20:23.543728,-22
2021-10-14 15:20:23.543737,-100
2021-10-14 15:20:23.543745,-161
2021-10-14 15:20:23.543754,-196
2021-10-14 15:20:23.767482,-211
2021-10-14 15:20:23.767504,-220
2021-10-14 15:20:23.767514,-220
2021-10-14 15:20:23.767523,-211
2021-10-14 15:20:23.767532,-213
2021-10-14 15:20:23.767540,-211
2021-10-14 15:20:23.767549,-188
2021-10-14 15:20:23.767557,-164
2021-10-14 15:20:23.767566,-154
2021-10-14 15:20:23.767574,-157
2021-10-14 15:20:23.767582,-159
2021-10-14 15:20:23.767589,-149
2021-10-14 15:20:23.767597,-137
2021-10-14 15:20:23.767638,-132
2021-10-14 15:20:23.767651,-127
2021-10-14 15:20:23.767660,-125
2021-10-14 15:20:23.767669,-122
2021-10-14 15:20:23.767678,-117
2021-10-14 15:20:23.767686,-112
2021-10-14 15:20:23.767694,-110
2021-10-14 15:20:23.767703,-110
2021-10-14 15:20:23.767711,-112
2021-10-14 15:20:23.767719,-115
2021-10-14 15:20:23.767728,-105
2021-10-14 15:20:23.767736,-95
2021-10-14 15:20:23.767744,-95
2021-10-14 15:20:23.767753,-110
2021-10-14 15:20:23.767761,-125
2021-10-14 15:20:23.767770,-120
2021-10-14 15:20:23.767778,-110
2021-10-14 15:20:23.948743,-103
2021-10-14 15:20:23.948763,-95
2021-10-14 15:20:23.948773,-85
2021-10-14 15:20:23.948782,-85
2021-10-14 15:20:23.948790,-103
2021-10-14 15:20:23.948799,-100
2021-10-14 15:20:23.948807,-80
2021-10-14 15:20:23.948815,-73
2021-10-14 15:20:23.948824,-88
2021-10-14 15:20:23.948832,-103
2021-10-14 15:20:23.948841,-105
2021-10-14 15:20:23.948849,-73
2021-10-14 15:20:23.948857,-31
2021-10-14 15:20:23.948866,-26
2021-10-14 15:20:23.948874,-31
2021-10-14 15:20:23.948883,-24
2021-10-14 15:20:23.948944,-34
2021-10-14 15:20:23.948967,-56
2021-10-14 15:20:23.948974,-68
2021-10-14 15:20:23.948981,-61
2021-10-14 15:20:23.948987,-63
2021-10-14 15:20:23.948994,-76
2021-10-14 15:20:23.949001,-68
2021-10-14 15:20:23.949008,-63
2021-10-14 15:20:23.949016,-71
2021-10-14 15:20:23.949023,-46
2021-10-14 15:20:23.949032,63
2021-10-14 15:20:23.949040,328
2021-10-14 15:20:23.949048,684
2021-10-14 15:20:23.949056,740
2021-10-14 15:20:24.218740,112
2021-10-14 15:20:24.218761,-542
2021-10-14 15:20:24.218771,-311
2021-10-14 15:20:24.218779,107
2021-10-14 15:20:24.218788,-7
2021-10-14 15:20:24.218796,-93
2021-10-14 15:20:24.218805,29
2021-10-14 15:20:24.218813,24
2021-10-14 15:20:24.218822,-12
2021-10-14 15:20:24.218830,39
2021-10-14 15:20:24.218838,56
2021-10-14 15:20:24.218847,49
2021-10-14 15:20:24.218855,78
2021-10-14 15:20:24.218863,112
2021-10-14 15:20:24.218871,125
2021-10-14 15:20:24.218880,137
2021-10-14 15:20:24.218888,166
2021-10-14 15:20:24.218897,208
2021-10-14 15:20:24.218905,242
2021-10-14 15:20:24.218914,257
2021-10-14 15:20:24.218922,277
2021-10-14 15:20:24.218930,314
2021-10-14 15:20:24.218939,355
2021-10-14 15:20:24.218947,387
2021-10-14 15:20:24.218955,409
2021-10-14 15:20:24.218964,426
2021-10-14 15:20:24.218972,417
2021-10-14 15:20:24.218980,382
2021-10-14 15:20:24.218988,355
2021-10-14 15:20:24.218997,314
2021-10-14 15:20:24.443727,218
2021-10-14 15:20:24.443748,105
2021-10-14 15:20:24.443758,4
2021-10-14 15:20:24.443766,-88
2021-10-14 15:20:24.443775,-149
2021-10-14 15:20:24.443784,-176
2021-10-14 15:20:24.443792,-186
2021-10-14 15:20:24.443800,-198
2021-10-14 15:20:24.443809,-213
2021-10-14 15:20:24.443817,-225
2021-10-14 15:20:24.443826,-215
2021-10-14 15:20:24.443834,-196
2021-10-14 15:20:24.443843,-179
2021-10-14 15:20:24.443851,-171
2021-10-14 15:20:24.443860,-174
2021-10-14 15:20:24.443868,-161
2021-10-14 15:20:24.443876,-144
2021-10-14 15:20:24.443885,-142
2021-10-14 15:20:24.443893,-137
2021-10-14 15:20:24.443902,-122
2021-10-14 15:20:24.443910,-112
2021-10-14 15:20:24.443919,-117
2021-10-14 15:20:24.443927,-115
2021-10-14 15:20:24.443935,-98
2021-10-14 15:20:24.443944,-90
2021-10-14 15:20:24.443952,-103
2021-10-14 15:20:24.443961,-100
2021-10-14 15:20:24.443969,-85
2021-10-14 15:20:24.443977,-88
2021-10-14 15:20:24.443986,-88
2021-10-14 15:20:24.714148,-68
2021-10-14 15:20:24.714169,-63
2021-10-14 15:20:24.714179,-90
2021-10-14 15:20:24.714188,-100
2021-10-14 15:20:24.714196,-85
2021-10-14 15:20:24.714205,-80
2021-10-14 15:20:24.714214,-78
2021-10-14 15:20:24.714222,-76
2021-10-14 15:20:24.714231,-85
2021-10-14 15:20:24.714239,-88
2021-10-14 15:20:24.714247,-76
2021-10-14 15:20:24.714256,-68
2021-10-14 15:20:24.714264,-68
2021-10-14 15:20:24.714272,-73
2021-10-14 15:20:24.714281,-80
2021-10-14 15:20:24.714289,-90
2021-10-14 15:20:24.714298,-83
2021-10-14 15:20:24.714306,-46
2021-10-14 15:20:24.714315,-7
2021-10-14 15:20:24.714323,-7
2021-10-14 15:20:24.714331,-19
2021-10-14 15:20:24.714340,-22
2021-10-14 15:20:24.714348,-24
2021-10-14 15:20:24.714356,-39
2021-10-14 15:20:24.714365,-51
2021-10-14 15:20:24.714373,-53
2021-10-14 15:20:24.714381,-61
2021-10-14 15:20:24.714390,-61
2021-10-14 15:20:24.714398,-53
2021-10-14 15:20:24.714406,-53
2021-10-14 15:20:24.894092,-53
2021-10-14 15:20:24.894113,-17
2021-10-14 15:20:24.894123,122
2021-10-14 15:20:24.894132,434
2021-10-14 15:20:24.894140,807
2021-10-14 15:20:24.894149,767
2021-10-14 15:20:24.894157,44
2021-10-14 15:20:24.894166,-478
2021-10-14 15:20:24.894175,-147
2021-10-14 15:20:24.894183,110
2021-10-14 15:20:24.894192,-76
2021-10-14 15:20:24.894200,-78
2021-10-14 15:20:24.894209,24
2021-10-14 15:20:24.894217,-26
2021-10-14 15:20:24.894226,-41
2021-10-14 15:20:24.894234,19
2021-10-14 15:20:24.894243,36
2021-10-14 15:20:24.894251,34
2021-10-14 15:20:24.894259,51
2021-10-14 15:20:24.894268,73
2021-10-14 15:20:24.894276,98
2021-10-14 15:20:24.894285,112
2021-10-14 15:20:24.894293,137
2021-10-14 15:20:24.894302,174
2021-10-14 15:20:24.894310,201
2021-10-14 15:20:24.894319,230
2021-10-14 15:20:24.894327,272
2021-10-14 15:20:24.894336,301
2021-10-14 15:20:24.894344,331
2021-10-14 15:20:24.894353,365
2021-10-14 15:20:25.118734,385
2021-10-14 15:20:25.118756,377
2021-10-14 15:20:25.118766,368
2021-10-14 15:20:25.118775,360
2021-10-14 15:20:25.118783,336
2021-10-14 15:20:25.118792,269
2021-10-14 15:20:25.118800,159
2021-10-14 15:20:25.118809,46
2021-10-14 15:20:25.118817,-41
2021-10-14 15:20:25.118825,-110
2021-10-14 15:20:25.118834,-166
2021-10-14 15:20:25.118842,-198
2021-10-14 15:20:25.118851,-213
2021-10-14 15:20:25.118859,-218
2021-10-14 15:20:25.118869,-218
2021-10-14 15:20:25.118877,-218
2021-10-14 15:20:25.118886,-215
2021-10-14 15:20:25.118894,-201
2021-10-14 15:20:25.118903,-181
2021-10-14 15:20:25.118911,-174
2021-10-14 15:20:25.118919,-179
2021-10-14 15:20:25.118928,-164
2021-10-14 15:20:25.118936,-134
2021-10-14 15:20:25.118945,-132
2021-10-14 15:20:25.118953,-139
2021-10-14 15:20:25.118961,-127
2021-10-14 15:20:25.118970,-117
2021-10-14 15:20:25.118978,-120
2021-10-14 15:20:25.118987,-107
2021-10-14 15:20:25.118995,-93
2021-10-14 15:20:25.344112,-100
2021-10-14 15:20:25.344133,-105
2021-10-14 15:20:25.344142,-98
2021-10-14 15:20:25.344151,-95
2021-10-14 15:20:25.344160,-98
2021-10-14 15:20:25.344168,-105
2021-10-14 15:20:25.344177,-107
2021-10-14 15:20:25.344185,-90
2021-10-14 15:20:25.344194,-83
2021-10-14 15:20:25.344202,-90
2021-10-14 15:20:25.344211,-103
2021-10-14 15:20:25.344219,-112
2021-10-14 15:20:25.344228,-115
2021-10-14 15:20:25.344236,-120
2021-10-14 15:20:25.344245,-120
2021-10-14 15:20:25.344253,-105
2021-10-14 15:20:25.344261,-98
2021-10-14 15:20:25.344270,-95
2021-10-14 15:20:25.344278,-90
2021-10-14 15:20:25.344286,-88
2021-10-14 15:20:25.344295,-90
2021-10-14 15:20:25.344303,-88
2021-10-14 15:20:25.344311,-103
2021-10-14 15:20:25.344320,-103
2021-10-14 15:20:25.344328,-58
2021-10-14 15:20:25.344336,-19
2021-10-14 15:20:25.344344,-12
2021-10-14 15:20:25.344353,-22
2021-10-14 15:20:25.344361,-41
2021-10-14 15:20:25.344369,-63
2021-10-14 15:20:25.569158,-73
2021-10-14 15:20:25.569179,-76
2021-10-14 15:20:25.569188,-66
2021-10-14 15:20:25.569197,-58
2021-10-14 15:20:25.569205,-76
2021-10-14 15:20:25.569214,-90
2021-10-14 15:20:25.569222,-80
2021-10-14 15:20:25.569231,-66
2021-10-14 15:20:25.569239,-14
2021-10-14 15:20:25.569248,188
2021-10-14 15:20:25.569256,569
2021-10-14 15:20:25.569265,871
2021-10-14 15:20:25.569273,571
2021-10-14 15:20:25.569281,-225
2021-10-14 15:20:25.569290,-434
2021-10-14 15:20:25.569298,7
2021-10-14 15:20:25.569306,71
2021-10-14 15:20:25.569315,-120
2021-10-14 15:20:25.569323,-46
2021-10-14 15:20:25.569332,19
2021-10-14 15:20:25.569340,-31
2021-10-14 15:20:25.569348,-14
2021-10-14 15:20:25.569357,31
2021-10-14 15:20:25.569365,31
2021-10-14 15:20:25.569373,39
2021-10-14 15:20:25.569382,76
2021-10-14 15:20:25.569390,105
2021-10-14 15:20:25.569398,110
2021-10-14 15:20:25.569407,125
2021-10-14 15:20:25.569415,154
2021-10-14 15:20:25.837428,186
2021-10-14 15:20:25.837449,225
2021-10-14 15:20:25.837458,262
2021-10-14 15:20:25.837467,277
2021-10-14 15:20:25.837475,304
2021-10-14 15:20:25.837484,343
2021-10-14 15:20:25.837492,360
2021-10-14 15:20:25.837501,368
2021-10-14 15:20:25.837509,380
2021-10-14 15:20:25.837517,377
2021-10-14 15:20:25.837526,350
2021-10-14 15:20:25.837534,294
2021-10-14 15:20:25.837543,208
2021-10-14 15:20:25.837551,120
2021-10-14 15:20:25.837559,34
2021-10-14 15:20:25.837568,-68
2021-10-14 15:20:25.837576,-157
2021-10-14 15:20:25.837584,-196
2021-10-14 15:20:25.837593,-223
2021-10-14 15:20:25.837601,-242
2021-10-14 15:20:25.837609,-240
2021-10-14 15:20:25.837618,-235
2021-10-14 15:20:25.837626,-233
2021-10-14 15:20:25.837634,-213
2021-10-14 15:20:25.837643,-191
2021-10-14 15:20:25.837651,-186
2021-10-14 15:20:25.837659,-186
2021-10-14 15:20:25.837668,-176
2021-10-14 15:20:25.837676,-169
2021-10-14 15:20:25.837684,-159
2021-10-14 15:20:26.154120,-142
2021-10-14 15:20:26.154141,-125
2021-10-14 15:20:26.154150,-122
2021-10-14 15:20:26.154159,-137
2021-10-14 15:20:26.154167,-139
2021-10-14 15:20:26.154176,-130
2021-10-14 15:20:26.154185,-120
2021-10-14 15:20:26.154193,-107
2021-10-14 15:20:26.154201,-110
2021-10-14 15:20:26.154209,-132
2021-10-14 15:20:26.154218,-130
2021-10-14 15:20:26.154226,-100
2021-10-14 15:20:26.154234,-95
2021-10-14 15:20:26.154243,-110
2021-10-14 15:20:26.154251,-107
2021-10-14 15:20:26.154260,-100
2021-10-14 15:20:26.154268,-103
2021-10-14 15:20:26.154276,-100
2021-10-14 15:20:26.154284,-98
2021-10-14 15:20:26.154293,-95
2021-10-14 15:20:26.154301,-88
2021-10-14 15:20:26.154309,-78
2021-10-14 15:20:26.154317,-61
2021-10-14 15:20:26.154326,-58
2021-10-14 15:20:26.154334,-61
2021-10-14 15:20:26.154342,-53
2021-10-14 15:20:26.154351,-51
2021-10-14 15:20:26.154359,-73
2021-10-14 15:20:26.154367,-83
2021-10-14 15:20:26.154376,-44
2021-10-14 15:20:26.289086,7
2021-10-14 15:20:26.289106,34
2021-10-14 15:20:26.289116,22
2021-10-14 15:20:26.289124,2
2021-10-14 15:20:26.289133,-12
2021-10-14 15:20:26.289144,-46
2021-10-14 15:20:26.289153,-83
2021-10-14 15:20:26.289161,-78
2021-10-14 15:20:26.289170,-71
2021-10-14 15:20:26.289178,-66
2021-10-14 15:20:26.289186,-51
2021-10-14 15:20:26.289195,-51
2021-10-14 15:20:26.289203,-51
2021-10-14 15:20:26.289212,-51
2021-10-14 15:20:26.289220,7
2021-10-14 15:20:26.289228,247
2021-10-14 15:20:26.289237,635
2021-10-14 15:20:26.289245,858
2021-10-14 15:20:26.289254,439
2021-10-14 15:20:26.289262,-336
2021-10-14 15:20:26.289270,-397
2021-10-14 15:20:26.289279,46
2021-10-14 15:20:26.289287,49
2021-10-14 15:20:26.289295,-103
2021-10-14 15:20:26.289304,-22
2021-10-14 15:20:26.289312,7
2021-10-14 15:20:26.289320,-31
2021-10-14 15:20:26.289329,12
2021-10-14 15:20:26.289337,41
2021-10-14 15:20:26.289345,24
2021-10-14 15:20:26.514087,46
2021-10-14 15:20:26.514106,85
2021-10-14 15:20:26.514116,93
2021-10-14 15:20:26.514125,88
2021-10-14 15:20:26.514133,120
2021-10-14 15:20:26.514142,166
2021-10-14 15:20:26.514150,181
2021-10-14 15:20:26.514159,203
2021-10-14 15:20:26.514167,250
2021-10-14 15:20:26.514175,282
2021-10-14 15:20:26.514184,301
2021-10-14 15:20:26.514192,348
2021-10-14 15:20:26.514201,387
2021-10-14 15:20:26.514209,370
2021-10-14 15:20:26.514217,355
2021-10-14 15:20:26.514226,382
2021-10-14 15:20:26.514234,380
2021-10-14 15:20:26.514243,311
2021-10-14 15:20:26.514251,230
2021-10-14 15:20:26.514260,152
2021-10-14 15:20:26.514268,31
2021-10-14 15:20:26.514276,-83
2021-10-14 15:20:26.514285,-130
2021-10-14 15:20:26.514294,-147
2021-10-14 15:20:26.514302,-176
2021-10-14 15:20:26.514310,-198
2021-10-14 15:20:26.514319,-201
2021-10-14 15:20:26.514327,-191
2021-10-14 15:20:26.514335,-176
2021-10-14 15:20:26.514344,-159
2021-10-14 15:20:26.739054,-159
2021-10-14 15:20:26.739073,-171
2021-10-14 15:20:26.739082,-171
2021-10-14 15:20:26.739091,-152
2021-10-14 15:20:26.739100,-132
2021-10-14 15:20:26.739108,-132
2021-10-14 15:20:26.739117,-137
2021-10-14 15:20:26.739125,-130
2021-10-14 15:20:26.739134,-127
2021-10-14 15:20:26.739142,-130
2021-10-14 15:20:26.739150,-120
2021-10-14 15:20:26.739159,-107
2021-10-14 15:20:26.739167,-110
2021-10-14 15:20:26.739175,-125
2021-10-14 15:20:26.739184,-125
2021-10-14 15:20:26.739192,-115
2021-10-14 15:20:26.739200,-98
2021-10-14 15:20:26.739209,-83
2021-10-14 15:20:26.739217,-83
2021-10-14 15:20:26.739225,-88
2021-10-14 15:20:26.739234,-76
2021-10-14 15:20:26.739242,-68
2021-10-14 15:20:26.739250,-78
2021-10-14 15:20:26.739258,-76
2021-10-14 15:20:26.739267,-61
2021-10-14 15:20:26.739275,-51
2021-10-14 15:20:26.739283,-46
2021-10-14 15:20:26.739292,-51
2021-10-14 15:20:26.739300,-61
2021-10-14 15:20:26.739308,-76
2021-10-14 15:20:26.963632,-93
2021-10-14 15:20:26.963652,-103
2021-10-14 15:20:26.963661,-107
2021-10-14 15:20:26.963670,-103
2021-10-14 15:20:26.963679,-78
2021-10-14 15:20:26.963687,-46
2021-10-14 15:20:26.963696,-26
2021-10-14 15:20:26.963704,-31
2021-10-14 15:20:26.963713,-51
2021-10-14 15:20:26.963722,-66
2021-10-14 15:20:26.963730,-71
2021-10-14 15:20:26.963738,-83
2021-10-14 15:20:26.963747,-85
2021-10-14 15:20:26.963755,-80
2021-10-14 15:20:26.963763,-85
2021-10-14 15:20:26.963772,-95
2021-10-14 15:20:26.963780,-95
2021-10-14 15:20:26.963789,-93
2021-10-14 15:20:26.963797,-68
2021-10-14 15:20:26.963805,83
2021-10-14 15:20:26.963814,431
2021-10-14 15:20:26.963822,785
2021-10-14 15:20:26.963830,669
2021-10-14 15:20:26.963839,-93
2021-10-14 15:20:26.963847,-579
2021-10-14 15:20:26.963855,-179
2021-10-14 15:20:26.963863,125
2021-10-14 15:20:26.963872,-53
2021-10-14 15:20:26.963880,-66
2021-10-14 15:20:26.963888,39
2021-10-14 15:20:27.189138,0
2021-10-14 15:20:27.189160,-12
2021-10-14 15:20:27.189169,44
2021-10-14 15:20:27.189178,58
2021-10-14 15:20:27.189186,61
2021-10-14 15:20:27.189195,83
2021-10-14 15:20:27.189203,105
2021-10-14 15:20:27.189212,127
2021-10-14 15:20:27.189220,157
2021-10-14 15:20:27.189229,181
2021-10-14 15:20:27.189237,213
2021-10-14 15:20:27.189245,235
2021-10-14 15:20:27.189254,252
2021-10-14 15:20:27.189262,291
2021-10-14 15:20:27.189271,333
2021-10-14 15:20:27.189279,358
2021-10-14 15:20:27.189288,385
2021-10-14 15:20:27.189296,407
2021-10-14 15:20:27.189304,412
2021-10-14 15:20:27.189313,412
2021-10-14 15:20:27.189321,397
2021-10-14 15:20:27.189329,348
2021-10-14 15:20:27.189338,272
2021-10-14 15:20:27.189346,166
2021-10-14 15:20:27.189354,51
2021-10-14 15:20:27.189363,-49
2021-10-14 15:20:27.189371,-130
2021-10-14 15:20:27.189380,-188
2021-10-14 15:20:27.189388,-220
2021-10-14 15:20:27.189397,-242
2021-10-14 15:20:27.503784,-250
2021-10-14 15:20:27.503805,-238
2021-10-14 15:20:27.503815,-230
2021-10-14 15:20:27.503824,-240
2021-10-14 15:20:27.503832,-252
2021-10-14 15:20:27.503841,-247
2021-10-14 15:20:27.503849,-230
2021-10-14 15:20:27.503857,-215
2021-10-14 15:20:27.503866,-213
2021-10-14 15:20:27.503874,-208
2021-10-14 15:20:27.503883,-198
2021-10-14 15:20:27.503891,-188
2021-10-14 15:20:27.503899,-179
2021-10-14 15:20:27.503908,-171
2021-10-14 15:20:27.503916,-169
2021-10-14 15:20:27.503924,-164
2021-10-14 15:20:27.503933,-161
2021-10-14 15:20:27.503941,-166
2021-10-14 15:20:27.503950,-161
2021-10-14 15:20:27.503958,-152
2021-10-14 15:20:27.503966,-152
2021-10-14 15:20:27.503975,-152
2021-10-14 15:20:27.503983,-147
2021-10-14 15:20:27.503991,-149
2021-10-14 15:20:27.503999,-147
2021-10-14 15:20:27.504008,-134
2021-10-14 15:20:27.504016,-132
2021-10-14 15:20:27.504024,-137
2021-10-14 15:20:27.504033,-137
2021-10-14 15:20:27.504041,-127
2021-10-14 15:20:27.683931,-120
2021-10-14 15:20:27.683953,-127
2021-10-14 15:20:27.683963,-142
2021-10-14 15:20:27.683972,-139
2021-10-14 15:20:27.683981,-112
2021-10-14 15:20:27.683989,-73
2021-10-14 15:20:27.683998,-51
2021-10-14 15:20:27.684006,-53
2021-10-14 15:20:27.684015,-61
2021-10-14 15:20:27.684023,-80
2021-10-14 15:20:27.684032,-105
2021-10-14 15:20:27.684040,-105
2021-10-14 15:20:27.684049,-95
2021-10-14 15:20:27.684057,-93
2021-10-14 15:20:27.684066,-98
2021-10-14 15:20:27.684074,-105
2021-10-14 15:20:27.684082,-107
2021-10-14 15:20:27.684091,-103
2021-10-14 15:20:27.684099,-80
2021-10-14 15:20:27.684108,22
2021-10-14 15:20:27.684116,326
2021-10-14 15:20:27.684125,699
2021-10-14 15:20:27.684133,662
2021-10-14 15:20:27.684213,-51
2021-10-14 15:20:27.684227,-630
2021-10-14 15:20:27.684334,-309
2021-10-14 15:20:27.684343,66
2021-10-14 15:20:27.684350,-78
2021-10-14 15:20:27.684357,-122
2021-10-14 15:20:27.684363,-4
2021-10-14 15:20:27.952827,-31
2021-10-14 15:20:27.952848,-61
2021-10-14 15:20:27.952858,-12
2021-10-14 15:20:27.952866,-9
2021-10-14 15:20:27.952875,-22
2021-10-14 15:20:27.952883,14
2021-10-14 15:20:27.952892,46
2021-10-14 15:20:27.952900,63
2021-10-14 15:20:27.952908,93
2021-10-14 15:20:27.952916,107
2021-10-14 15:20:27.952925,122
2021-10-14 15:20:27.952933,166
2021-10-14 15:20:27.952942,211
2021-10-14 15:20:27.952950,245
2021-10-14 15:20:27.952959,272
2021-10-14 15:20:27.952967,296
2021-10-14 15:20:27.952975,328
2021-10-14 15:20:27.952983,358
2021-10-14 15:20:27.952992,372
2021-10-14 15:20:27.953000,368
2021-10-14 15:20:27.953008,345
2021-10-14 15:20:27.953017,301
2021-10-14 15:20:27.953025,223
2021-10-14 15:20:27.953033,115
2021-10-14 15:20:27.953042,7
2021-10-14 15:20:27.953050,-85
2021-10-14 15:20:27.953058,-164
2021-10-14 15:20:27.953066,-220
2021-10-14 15:20:27.953075,-235
2021-10-14 15:20:27.953083,-240
2021-10-14 15:20:28.179163,-262
2021-10-14 15:20:28.179184,-269
2021-10-14 15:20:28.179193,-257
2021-10-14 15:20:28.179202,-247
2021-10-14 15:20:28.179211,-240
2021-10-14 15:20:28.179219,-220
2021-10-14 15:20:28.179228,-203
2021-10-14 15:20:28.179236,-198
2021-10-14 15:20:28.179245,-201
2021-10-14 15:20:28.179253,-193
2021-10-14 15:20:28.179262,-176
2021-10-14 15:20:28.179270,-161
2021-10-14 15:20:28.179278,-154
2021-10-14 15:20:28.179287,-149
2021-10-14 15:20:28.179295,-149
2021-10-14 15:20:28.179304,-147
2021-10-14 15:20:28.179312,-134
2021-10-14 15:20:28.179321,-122
2021-10-14 15:20:28.179329,-117
2021-10-14 15:20:28.179337,-117
2021-10-14 15:20:28.179346,-132
2021-10-14 15:20:28.179354,-139
2021-10-14 15:20:28.179363,-122
2021-10-14 15:20:28.179371,-110
2021-10-14 15:20:28.179379,-103
2021-10-14 15:20:28.179388,-98
2021-10-14 15:20:28.179396,-100
2021-10-14 15:20:28.179405,-100
2021-10-14 15:20:28.179413,-88
2021-10-14 15:20:28.179421,-80
2021-10-14 15:20:28.403786,-78
2021-10-14 15:20:28.403807,-73
2021-10-14 15:20:28.403816,-71
2021-10-14 15:20:28.403825,-73
2021-10-14 15:20:28.403833,-83
2021-10-14 15:20:28.403842,-88
2021-10-14 15:20:28.403850,-68
2021-10-14 15:20:28.403859,-34
2021-10-14 15:20:28.403867,-19
2021-10-14 15:20:28.403876,-19
2021-10-14 15:20:28.403884,-14
2021-10-14 15:20:28.403893,-12
2021-10-14 15:20:28.403901,-26
2021-10-14 15:20:28.403910,-44
2021-10-14 15:20:28.403918,-56
2021-10-14 15:20:28.403926,-56
2021-10-14 15:20:28.403935,-49
2021-10-14 15:20:28.403943,-39
2021-10-14 15:20:28.403952,-36
2021-10-14 15:20:28.403960,-49
2021-10-14 15:20:28.403968,-58
2021-10-14 15:20:28.403977,-4
2021-10-14 15:20:28.403985,176
2021-10-14 15:20:28.403993,549
2021-10-14 15:20:28.404002,915
2021-10-14 15:20:28.404010,726
2021-10-14 15:20:28.404019,-88
2021-10-14 15:20:28.404027,-461
2021-10-14 15:20:28.404035,-46
2021-10-14 15:20:28.404044,105
2021-10-14 15:20:28.584160,-98
2021-10-14 15:20:28.584180,-56
2021-10-14 15:20:28.584190,26
2021-10-14 15:20:28.584199,-22
2021-10-14 15:20:28.584207,-17
2021-10-14 15:20:28.584216,34
2021-10-14 15:20:28.584224,36
2021-10-14 15:20:28.584232,41
2021-10-14 15:20:28.584241,68
2021-10-14 15:20:28.584249,85
2021-10-14 15:20:28.584258,105
2021-10-14 15:20:28.584266,142
2021-10-14 15:20:28.584275,161
2021-10-14 15:20:28.584283,174
2021-10-14 15:20:28.584291,208
2021-10-14 15:20:28.584300,252
2021-10-14 15:20:28.584308,279
2021-10-14 15:20:28.584317,314
2021-10-14 15:20:28.584325,350
2021-10-14 15:20:28.584334,370
2021-10-14 15:20:28.584343,385
2021-10-14 15:20:28.584351,399
2021-10-14 15:20:28.584360,395
2021-10-14 15:20:28.584368,368
2021-10-14 15:20:28.584376,323
2021-10-14 15:20:28.584385,245
2021-10-14 15:20:28.584393,134
2021-10-14 15:20:28.584401,34
2021-10-14 15:20:28.584410,-44
2021-10-14 15:20:28.584418,-107
2021-10-14 15:20:28.809178,-161
2021-10-14 15:20:28.809199,-193
2021-10-14 15:20:28.809208,-198
2021-10-14 15:20:28.809217,-193
2021-10-14 15:20:28.809225,-196
2021-10-14 15:20:28.809234,-191
2021-10-14 15:20:28.809242,-186
2021-10-14 15:20:28.809250,-188
2021-10-14 15:20:28.809259,-188
2021-10-14 15:20:28.809267,-176
2021-10-14 15:20:28.809275,-161
2021-10-14 15:20:28.809284,-154
2021-10-14 15:20:28.809292,-157
2021-10-14 15:20:28.809300,-147
2021-10-14 15:20:28.809309,-134
2021-10-14 15:20:28.809317,-130
2021-10-14 15:20:28.809326,-120
2021-10-14 15:20:28.809334,-110
2021-10-14 15:20:28.809342,-115
2021-10-14 15:20:28.809351,-125
2021-10-14 15:20:28.809359,-127
2021-10-14 15:20:28.809368,-125
2021-10-14 15:20:28.809376,-117
2021-10-14 15:20:28.809384,-112
2021-10-14 15:20:28.809392,-115
2021-10-14 15:20:28.809401,-105
2021-10-14 15:20:28.809409,-95
2021-10-14 15:20:28.809417,-95
2021-10-14 15:20:28.809425,-95
2021-10-14 15:20:28.809433,-85
2021-10-14 15:20:29.033818,-83
2021-10-14 15:20:29.033839,-83
2021-10-14 15:20:29.033849,-76
2021-10-14 15:20:29.033858,-63
2021-10-14 15:20:29.033867,-58
2021-10-14 15:20:29.033875,-71
2021-10-14 15:20:29.033884,-78
2021-10-14 15:20:29.033892,-66
2021-10-14 15:20:29.033901,-49
2021-10-14 15:20:29.033909,-49
2021-10-14 15:20:29.033918,-56
2021-10-14 15:20:29.033926,-61
2021-10-14 15:20:29.033935,-61
2021-10-14 15:20:29.033943,-61
2021-10-14 15:20:29.033952,-61
2021-10-14 15:20:29.033960,-46
2021-10-14 15:20:29.033969,-9
2021-10-14 15:20:29.033977,17
2021-10-14 15:20:29.033986,19
2021-10-14 15:20:29.033994,19
2021-10-14 15:20:29.034003,12
2021-10-14 15:20:29.034012,0
2021-10-14 15:20:29.034020,-12
2021-10-14 15:20:29.034028,-14
2021-10-14 15:20:29.034037,-9
2021-10-14 15:20:29.034045,-7
2021-10-14 15:20:29.034053,-12
2021-10-14 15:20:29.034062,-17
2021-10-14 15:20:29.034070,-14
2021-10-14 15:20:29.034079,-12
2021-10-14 15:20:29.348788,24
2021-10-14 15:20:29.348809,201
2021-10-14 15:20:29.348819,559
2021-10-14 15:20:29.348828,902
2021-10-14 15:20:29.348837,718
2021-10-14 15:20:29.348845,-83
2021-10-14 15:20:29.348854,-471
2021-10-14 15:20:29.348898,-51
2021-10-14 15:20:29.348907,132
2021-10-14 15:20:29.348928,-63
2021-10-14 15:20:29.348936,-39
2021-10-14 15:20:29.348954,34
2021-10-14 15:20:29.348963,-14
2021-10-14 15:20:29.348971,-12
2021-10-14 15:20:29.348980,31
2021-10-14 15:20:29.348988,39
2021-10-14 15:20:29.348996,49
2021-10-14 15:20:29.349005,73
2021-10-14 15:20:29.349013,88
2021-10-14 15:20:29.349021,103
2021-10-14 15:20:29.349030,137
2021-10-14 15:20:29.349038,164
2021-10-14 15:20:29.349047,186
2021-10-14 15:20:29.349055,215
2021-10-14 15:20:29.349063,252
2021-10-14 15:20:29.349072,284
2021-10-14 15:20:29.349080,301
2021-10-14 15:20:29.349088,323
2021-10-14 15:20:29.349097,358
2021-10-14 15:20:29.349105,375
2021-10-14 15:20:29.528823,377
2021-10-14 15:20:29.528844,380
2021-10-14 15:20:29.528853,368
2021-10-14 15:20:29.528861,326
2021-10-14 15:20:29.528870,252
2021-10-14 15:20:29.528878,154
2021-10-14 15:20:29.528886,53
2021-10-14 15:20:29.528894,-26
2021-10-14 15:20:29.528960,-95
2021-10-14 15:20:29.528969,-157
2021-10-14 15:20:29.528977,-193
2021-10-14 15:20:29.528985,-201
2021-10-14 15:20:29.528993,-201
2021-10-14 15:20:29.529001,-198
2021-10-14 15:20:29.529009,-201
2021-10-14 15:20:29.529017,-206
2021-10-14 15:20:29.529025,-198
2021-10-14 15:20:29.529034,-176
2021-10-14 15:20:29.529042,-159
2021-10-14 15:20:29.529050,-147
2021-10-14 15:20:29.529058,-134
2021-10-14 15:20:29.529066,-137
2021-10-14 15:20:29.529074,-142
2021-10-14 15:20:29.529082,-132
2021-10-14 15:20:29.529089,-117
2021-10-14 15:20:29.529097,-112
2021-10-14 15:20:29.529105,-107
2021-10-14 15:20:29.529113,-105
2021-10-14 15:20:29.529121,-103
2021-10-14 15:20:29.529129,-98
2021-10-14 15:20:29.754191,-90
2021-10-14 15:20:29.754213,-83
2021-10-14 15:20:29.754222,-83
2021-10-14 15:20:29.754231,-90
2021-10-14 15:20:29.754239,-88
2021-10-14 15:20:29.754248,-76
2021-10-14 15:20:29.754256,-71
2021-10-14 15:20:29.754264,-76
2021-10-14 15:20:29.754273,-78
2021-10-14 15:20:29.754281,-85
2021-10-14 15:20:29.754289,-83
2021-10-14 15:20:29.754298,-71
2021-10-14 15:20:29.754306,-58
2021-10-14 15:20:29.754314,-58
2021-10-14 15:20:29.754323,-61
2021-10-14 15:20:29.754331,-66
2021-10-14 15:20:29.754339,-68
2021-10-14 15:20:29.754348,-66
2021-10-14 15:20:29.754356,-63
2021-10-14 15:20:29.754364,-53
2021-10-14 15:20:29.754373,-49
2021-10-14 15:20:29.754381,-53
2021-10-14 15:20:29.754390,-49
2021-10-14 15:20:29.754398,-36
2021-10-14 15:20:29.754406,-31
2021-10-14 15:20:29.754415,-31
2021-10-14 15:20:29.754423,-31
2021-10-14 15:20:29.754431,-41
2021-10-14 15:20:29.754440,-44
2021-10-14 15:20:29.754448,-22
2021-10-14 15:20:30.023028,19
2021-10-14 15:20:30.023049,26
2021-10-14 15:20:30.023058,2
2021-10-14 15:20:30.023067,-2
2021-10-14 15:20:30.023076,-2
2021-10-14 15:20:30.023084,-19
2021-10-14 15:20:30.023093,-34
2021-10-14 15:20:30.023101,-36
2021-10-14 15:20:30.023110,-44
2021-10-14 15:20:30.023118,-58
2021-10-14 15:20:30.023127,-56
2021-10-14 15:20:30.023135,-44
2021-10-14 15:20:30.023143,-49
2021-10-14 15:20:30.023152,-51
2021-10-14 15:20:30.023160,22
2021-10-14 15:20:30.023169,262
2021-10-14 15:20:30.023177,655
2021-10-14 15:20:30.023186,888
2021-10-14 15:20:30.023194,441
2021-10-14 15:20:30.023203,-353
2021-10-14 15:20:30.023211,-390
2021-10-14 15:20:30.023220,63
2021-10-14 15:20:30.023228,51
2021-10-14 15:20:30.023236,-93
2021-10-14 15:20:30.023245,4
2021-10-14 15:20:30.023253,39
2021-10-14 15:20:30.023262,-14
2021-10-14 15:20:30.023270,12
2021-10-14 15:20:30.023278,53
