Time,ECG
2021-10-14 14:44:50.354831,-186
2021-10-14 14:44:50.354850,-169
2021-10-14 14:44:50.354859,-169
2021-10-14 14:44:50.354868,-166
2021-10-14 14:44:50.354877,-142
2021-10-14 14:44:50.354886,-137
2021-10-14 14:44:50.354895,-154
2021-10-14 14:44:50.354903,-137
2021-10-14 14:44:50.354911,-115
2021-10-14 14:44:50.354920,-147
2021-10-14 14:44:50.354929,-166
2021-10-14 14:44:50.354938,-137
2021-10-14 14:44:50.354946,-120
2021-10-14 14:44:50.354955,-137
2021-10-14 14:44:50.354963,-152
2021-10-14 14:44:50.354971,-147
2021-10-14 14:44:50.354980,-157
2021-10-14 14:44:50.354989,-169
2021-10-14 14:44:50.354997,-157
2021-10-14 14:44:50.355005,-149
2021-10-14 14:44:50.355014,-169
2021-10-14 14:44:50.355022,-193
2021-10-14 14:44:50.355031,-179
2021-10-14 14:44:50.355039,-142
2021-10-14 14:44:50.355047,-107
2021-10-14 14:44:50.355056,-103
2021-10-14 14:44:50.355065,-105
2021-10-14 14:44:50.355073,-85
2021-10-14 14:44:50.355082,-105
2021-10-14 14:44:50.355112,-152
2021-10-14 14:44:50.425855,-134
2021-10-14 14:44:50.425877,-115
2021-10-14 14:44:50.425887,-154
2021-10-14 14:44:50.425896,-166
2021-10-14 14:44:50.425904,-130
2021-10-14 14:44:50.425913,-100
2021-10-14 14:44:50.425923,-105
2021-10-14 14:44:50.425931,-130
2021-10-14 14:44:50.425940,-85
2021-10-14 14:44:50.425948,112
2021-10-14 14:44:50.425957,456
2021-10-14 14:44:50.425965,721
2021-10-14 14:44:50.425974,446
2021-10-14 14:44:50.425982,-377
2021-10-14 14:44:50.425990,-679
2021-10-14 14:44:50.425999,-161
2021-10-14 14:44:50.426007,49
2021-10-14 14:44:50.426017,-130
2021-10-14 14:44:50.426025,-68
2021-10-14 14:44:50.426034,14
2021-10-14 14:44:50.426042,-39
2021-10-14 14:44:50.426050,-24
2021-10-14 14:44:50.426059,14
2021-10-14 14:44:50.426067,2
2021-10-14 14:44:50.426076,12
2021-10-14 14:44:50.426084,39
2021-10-14 14:44:50.426092,46
2021-10-14 14:44:50.426101,71
2021-10-14 14:44:50.426110,112
2021-10-14 14:44:50.426128,132
2021-10-14 14:44:50.650827,157
2021-10-14 14:44:50.650848,206
2021-10-14 14:44:50.650858,240
2021-10-14 14:44:50.650865,267
2021-10-14 14:44:50.650874,309
2021-10-14 14:44:50.650882,326
2021-10-14 14:44:50.650891,301
2021-10-14 14:44:50.650900,301
2021-10-14 14:44:50.650909,304
2021-10-14 14:44:50.650917,274
2021-10-14 14:44:50.650926,242
2021-10-14 14:44:50.650934,206
2021-10-14 14:44:50.650943,120
2021-10-14 14:44:50.650956,22
2021-10-14 14:44:50.650964,-36
2021-10-14 14:44:50.650973,-103
2021-10-14 14:44:50.650981,-169
2021-10-14 14:44:50.650990,-181
2021-10-14 14:44:50.650999,-184
2021-10-14 14:44:50.651007,-225
2021-10-14 14:44:50.651016,-250
2021-10-14 14:44:50.651025,-215
2021-10-14 14:44:50.651033,-188
2021-10-14 14:44:50.651042,-193
2021-10-14 14:44:50.651051,-176
2021-10-14 14:44:50.651059,-152
2021-10-14 14:44:50.651068,-149
2021-10-14 14:44:50.651076,-144
2021-10-14 14:44:50.651085,-125
2021-10-14 14:44:50.651095,-112
2021-10-14 14:44:50.830423,-117
2021-10-14 14:44:50.830444,-115
2021-10-14 14:44:50.830453,-110
2021-10-14 14:44:50.830462,-107
2021-10-14 14:44:50.830470,-103
2021-10-14 14:44:50.830478,-105
2021-10-14 14:44:50.830487,-117
2021-10-14 14:44:50.830495,-120
2021-10-14 14:44:50.830503,-110
2021-10-14 14:44:50.830511,-105
2021-10-14 14:44:50.830520,-105
2021-10-14 14:44:50.830528,-98
2021-10-14 14:44:50.830536,-112
2021-10-14 14:44:50.830544,-137
2021-10-14 14:44:50.830552,-130
2021-10-14 14:44:50.830561,-100
2021-10-14 14:44:50.830569,-76
2021-10-14 14:44:50.830580,-71
2021-10-14 14:44:50.830588,-73
2021-10-14 14:44:50.830596,-76
2021-10-14 14:44:50.830604,-95
2021-10-14 14:44:50.830613,-112
2021-10-14 14:44:50.830621,-105
2021-10-14 14:44:50.830629,-98
2021-10-14 14:44:50.830637,-100
2021-10-14 14:44:50.830646,-88
2021-10-14 14:44:50.830654,-66
2021-10-14 14:44:50.830662,-76
2021-10-14 14:44:50.830670,-90
2021-10-14 14:44:50.830679,-58
2021-10-14 14:44:51.099494,53
2021-10-14 14:44:51.099516,331
2021-10-14 14:44:51.099526,701
2021-10-14 14:44:51.099535,765
2021-10-14 14:44:51.099544,132
2021-10-14 14:44:51.099552,-561
2021-10-14 14:44:51.099561,-345
2021-10-14 14:44:51.099575,107
2021-10-14 14:44:51.099583,7
2021-10-14 14:44:51.099592,-78
2021-10-14 14:44:51.099601,51
2021-10-14 14:44:51.099609,53
2021-10-14 14:44:51.099617,17
2021-10-14 14:44:51.099626,68
2021-10-14 14:44:51.099634,95
2021-10-14 14:44:51.099643,90
2021-10-14 14:44:51.099651,125
2021-10-14 14:44:51.099659,152
2021-10-14 14:44:51.099668,149
2021-10-14 14:44:51.099676,179
2021-10-14 14:44:51.099685,223
2021-10-14 14:44:51.099693,242
2021-10-14 14:44:51.099702,264
2021-10-14 14:44:51.099710,299
2021-10-14 14:44:51.099719,326
2021-10-14 14:44:51.099727,348
2021-10-14 14:44:51.099735,365
2021-10-14 14:44:51.099744,380
2021-10-14 14:44:51.099752,382
2021-10-14 14:44:51.099762,360
2021-10-14 14:44:51.280797,341
2021-10-14 14:44:51.280819,318
2021-10-14 14:44:51.280828,269
2021-10-14 14:44:51.280838,201
2021-10-14 14:44:51.280846,127
2021-10-14 14:44:51.280854,46
2021-10-14 14:44:51.280863,-29
2021-10-14 14:44:51.280871,-83
2021-10-14 14:44:51.280880,-115
2021-10-14 14:44:51.280888,-137
2021-10-14 14:44:51.280897,-152
2021-10-14 14:44:51.280905,-157
2021-10-14 14:44:51.280914,-147
2021-10-14 14:44:51.280922,-142
2021-10-14 14:44:51.280931,-139
2021-10-14 14:44:51.280939,-125
2021-10-14 14:44:51.280948,-120
2021-10-14 14:44:51.280956,-127
2021-10-14 14:44:51.280965,-110
2021-10-14 14:44:51.280973,-83
2021-10-14 14:44:51.280982,-80
2021-10-14 14:44:51.280990,-83
2021-10-14 14:44:51.280998,-78
2021-10-14 14:44:51.281007,-83
2021-10-14 14:44:51.281020,-85
2021-10-14 14:44:51.281029,-78
2021-10-14 14:44:51.281037,-76
2021-10-14 14:44:51.281046,-78
2021-10-14 14:44:51.281054,-76
2021-10-14 14:44:51.281062,-71
2021-10-14 14:44:51.505547,-71
2021-10-14 14:44:51.505569,-66
2021-10-14 14:44:51.505578,-66
2021-10-14 14:44:51.505587,-93
2021-10-14 14:44:51.505595,-107
2021-10-14 14:44:51.505604,-80
2021-10-14 14:44:51.505612,-71
2021-10-14 14:44:51.505621,-98
2021-10-14 14:44:51.505630,-103
2021-10-14 14:44:51.505638,-68
2021-10-14 14:44:51.505647,-39
2021-10-14 14:44:51.505655,-26
2021-10-14 14:44:51.505663,-22
2021-10-14 14:44:51.505672,-49
2021-10-14 14:44:51.505681,-78
2021-10-14 14:44:51.505689,-80
2021-10-14 14:44:51.505698,-73
2021-10-14 14:44:51.505706,-66
2021-10-14 14:44:51.505715,-56
2021-10-14 14:44:51.505723,-46
2021-10-14 14:44:51.505732,-49
2021-10-14 14:44:51.505770,-46
2021-10-14 14:44:51.505781,-24
2021-10-14 14:44:51.505789,2
2021-10-14 14:44:51.505798,122
2021-10-14 14:44:51.505806,466
2021-10-14 14:44:51.505814,821
2021-10-14 14:44:51.505823,674
2021-10-14 14:44:51.505831,-90
2021-10-14 14:44:51.505840,-552
2021-10-14 14:44:51.775457,-164
2021-10-14 14:44:51.775479,125
2021-10-14 14:44:51.775489,-19
2021-10-14 14:44:51.775497,-9
2021-10-14 14:44:51.775506,56
2021-10-14 14:44:51.775514,-7
2021-10-14 14:44:51.775523,14
2021-10-14 14:44:51.775531,88
2021-10-14 14:44:51.775540,88
2021-10-14 14:44:51.775548,78
2021-10-14 14:44:51.775556,103
2021-10-14 14:44:51.775565,134
2021-10-14 14:44:51.775573,169
2021-10-14 14:44:51.775582,184
2021-10-14 14:44:51.775590,164
2021-10-14 14:44:51.775598,193
2021-10-14 14:44:51.775607,255
2021-10-14 14:44:51.775615,274
2021-10-14 14:44:51.775624,289
2021-10-14 14:44:51.775632,321
2021-10-14 14:44:51.775640,343
2021-10-14 14:44:51.775649,336
2021-10-14 14:44:51.775657,306
2021-10-14 14:44:51.775665,304
2021-10-14 14:44:51.775678,323
2021-10-14 14:44:51.775687,289
2021-10-14 14:44:51.775695,193
2021-10-14 14:44:51.775703,127
2021-10-14 14:44:51.775712,73
2021-10-14 14:44:51.775720,-4
2021-10-14 14:44:52.044858,-61
2021-10-14 14:44:52.044881,-90
2021-10-14 14:44:52.044892,-120
2021-10-14 14:44:52.044902,-139
2021-10-14 14:44:52.044911,-159
2021-10-14 14:44:52.044920,-171
2021-10-14 14:44:52.044929,-166
2021-10-14 14:44:52.044938,-147
2021-10-14 14:44:52.044948,-139
2021-10-14 14:44:52.044957,-139
2021-10-14 14:44:52.044966,-127
2021-10-14 14:44:52.044975,-105
2021-10-14 14:44:52.044984,-83
2021-10-14 14:44:52.044993,-76
2021-10-14 14:44:52.045003,-98
2021-10-14 14:44:52.045012,-125
2021-10-14 14:44:52.045021,-122
2021-10-14 14:44:52.045030,-112
2021-10-14 14:44:52.045039,-103
2021-10-14 14:44:52.045048,-95
2021-10-14 14:44:52.045057,-103
2021-10-14 14:44:52.045066,-110
2021-10-14 14:44:52.045075,-95
2021-10-14 14:44:52.045084,-88
2021-10-14 14:44:52.045093,-95
2021-10-14 14:44:52.045102,-93
2021-10-14 14:44:52.045111,-85
2021-10-14 14:44:52.045121,-100
2021-10-14 14:44:52.045130,-112
2021-10-14 14:44:52.045139,-103
2021-10-14 14:44:52.225858,-107
2021-10-14 14:44:52.225879,-122
2021-10-14 14:44:52.225889,-127
2021-10-14 14:44:52.225898,-125
2021-10-14 14:44:52.225906,-132
2021-10-14 14:44:52.225915,-120
2021-10-14 14:44:52.225923,-76
2021-10-14 14:44:52.225932,-44
2021-10-14 14:44:52.225940,-56
2021-10-14 14:44:52.225949,-73
2021-10-14 14:44:52.225957,-73
2021-10-14 14:44:52.225966,-83
2021-10-14 14:44:52.225974,-90
2021-10-14 14:44:52.225983,-90
2021-10-14 14:44:52.225991,-93
2021-10-14 14:44:52.226000,-93
2021-10-14 14:44:52.226008,-83
2021-10-14 14:44:52.226016,-76
2021-10-14 14:44:52.226025,-73
2021-10-14 14:44:52.226033,-76
2021-10-14 14:44:52.226041,-17
2021-10-14 14:44:52.226050,213
2021-10-14 14:44:52.226058,579
2021-10-14 14:44:52.226067,794
2021-10-14 14:44:52.226075,409
2021-10-14 14:44:52.226083,-417
2021-10-14 14:44:52.226092,-593
2021-10-14 14:44:52.226100,-73
2021-10-14 14:44:52.226108,58
2021-10-14 14:44:52.226117,-105
2021-10-14 14:44:52.497924,-26
2021-10-14 14:44:52.497945,44
2021-10-14 14:44:52.497955,-4
2021-10-14 14:44:52.497963,4
2021-10-14 14:44:52.497972,44
2021-10-14 14:44:52.497981,46
2021-10-14 14:44:52.497989,56
2021-10-14 14:44:52.497998,83
2021-10-14 14:44:52.498006,100
2021-10-14 14:44:52.498015,130
2021-10-14 14:44:52.498032,154
2021-10-14 14:44:52.498041,171
2021-10-14 14:44:52.498050,203
2021-10-14 14:44:52.498058,238
2021-10-14 14:44:52.498067,262
2021-10-14 14:44:52.498075,277
2021-10-14 14:44:52.498084,296
2021-10-14 14:44:52.498092,316
2021-10-14 14:44:52.498101,318
2021-10-14 14:44:52.498109,314
2021-10-14 14:44:52.498118,306
2021-10-14 14:44:52.498126,294
2021-10-14 14:44:52.498135,274
2021-10-14 14:44:52.498143,223
2021-10-14 14:44:52.498152,132
2021-10-14 14:44:52.498160,49
2021-10-14 14:44:52.498169,-9
2021-10-14 14:44:52.498177,-76
2021-10-14 14:44:52.498186,-142
2021-10-14 14:44:52.498194,-166
2021-10-14 14:44:52.720586,-166
2021-10-14 14:44:52.720610,-176
2021-10-14 14:44:52.720620,-188
2021-10-14 14:44:52.720629,-176
2021-10-14 14:44:52.720637,-157
2021-10-14 14:44:52.720646,-157
2021-10-14 14:44:52.720655,-166
2021-10-14 14:44:52.720663,-171
2021-10-14 14:44:52.720672,-169
2021-10-14 14:44:52.720680,-149
2021-10-14 14:44:52.720689,-134
2021-10-14 14:44:52.720697,-132
2021-10-14 14:44:52.720706,-130
2021-10-14 14:44:52.720714,-122
2021-10-14 14:44:52.720723,-120
2021-10-14 14:44:52.720731,-120
2021-10-14 14:44:52.720740,-137
2021-10-14 14:44:52.720748,-154
2021-10-14 14:44:52.720757,-144
2021-10-14 14:44:52.720765,-142
2021-10-14 14:44:52.720774,-161
2021-10-14 14:44:52.720782,-166
2021-10-14 14:44:52.720791,-149
2021-10-14 14:44:52.720799,-134
2021-10-14 14:44:52.720807,-125
2021-10-14 14:44:52.720819,-134
2021-10-14 14:44:52.720828,-152
2021-10-14 14:44:52.720836,-149
2021-10-14 14:44:52.720845,-139
2021-10-14 14:44:52.720853,-149
2021-10-14 14:44:52.900861,-161
2021-10-14 14:44:52.900882,-139
2021-10-14 14:44:52.900892,-85
2021-10-14 14:44:52.900901,-58
2021-10-14 14:44:52.900909,-73
2021-10-14 14:44:52.900918,-78
2021-10-14 14:44:52.900926,-85
2021-10-14 14:44:52.900935,-112
2021-10-14 14:44:52.900943,-117
2021-10-14 14:44:52.900952,-100
2021-10-14 14:44:52.900960,-100
2021-10-14 14:44:52.900968,-107
2021-10-14 14:44:52.900977,-100
2021-10-14 14:44:52.900985,-85
2021-10-14 14:44:52.900993,-78
2021-10-14 14:44:52.901002,-39
2021-10-14 14:44:52.901011,90
2021-10-14 14:44:52.901019,350
2021-10-14 14:44:52.901028,657
2021-10-14 14:44:52.901036,635
2021-10-14 14:44:52.901044,-56
2021-10-14 14:44:52.901053,-662
2021-10-14 14:44:52.901061,-321
2021-10-14 14:44:52.901069,110
2021-10-14 14:44:52.901078,-2
2021-10-14 14:44:52.901086,-46
2021-10-14 14:44:52.901095,51
2021-10-14 14:44:52.901103,26
2021-10-14 14:44:52.901112,17
2021-10-14 14:44:52.901120,76
2021-10-14 14:44:53.259130,93
2021-10-14 14:44:53.259152,98
2021-10-14 14:44:53.259161,127
2021-10-14 14:44:53.259170,149
2021-10-14 14:44:53.259178,164
2021-10-14 14:44:53.259187,184
2021-10-14 14:44:53.259195,201
2021-10-14 14:44:53.259204,225
2021-10-14 14:44:53.259212,252
2021-10-14 14:44:53.259221,274
2021-10-14 14:44:53.259229,304
2021-10-14 14:44:53.259238,331
2021-10-14 14:44:53.259246,360
2021-10-14 14:44:53.259254,390
2021-10-14 14:44:53.259263,377
2021-10-14 14:44:53.259271,331
2021-10-14 14:44:53.259283,311
2021-10-14 14:44:53.259292,304
2021-10-14 14:44:53.259300,255
2021-10-14 14:44:53.259309,179
2021-10-14 14:44:53.259317,103
2021-10-14 14:44:53.259326,29
2021-10-14 14:44:53.259334,-34
2021-10-14 14:44:53.259342,-83
2021-10-14 14:44:53.259351,-122
2021-10-14 14:44:53.259359,-154
2021-10-14 14:44:53.259368,-161
2021-10-14 14:44:53.259376,-164
2021-10-14 14:44:53.259384,-174
2021-10-14 14:44:53.259392,-157
2021-10-14 14:44:53.350524,-125
2021-10-14 14:44:53.350546,-103
2021-10-14 14:44:53.350556,-100
2021-10-14 14:44:53.350564,-112
2021-10-14 14:44:53.350573,-115
2021-10-14 14:44:53.350581,-115
2021-10-14 14:44:53.350589,-112
2021-10-14 14:44:53.350598,-98
2021-10-14 14:44:53.350606,-88
2021-10-14 14:44:53.350614,-107
2021-10-14 14:44:53.350623,-134
2021-10-14 14:44:53.350631,-122
2021-10-14 14:44:53.350639,-120
2021-10-14 14:44:53.350648,-149
2021-10-14 14:44:53.350656,-139
2021-10-14 14:44:53.350665,-125
2021-10-14 14:44:53.350673,-142
2021-10-14 14:44:53.350682,-134
2021-10-14 14:44:53.350690,-117
2021-10-14 14:44:53.350698,-125
2021-10-14 14:44:53.350707,-117
2021-10-14 14:44:53.350715,-110
2021-10-14 14:44:53.350724,-139
2021-10-14 14:44:53.350732,-142
2021-10-14 14:44:53.350741,-71
2021-10-14 14:44:53.350749,-39
2021-10-14 14:44:53.350757,-73
2021-10-14 14:44:53.350765,-76
2021-10-14 14:44:53.350774,-61
2021-10-14 14:44:53.350782,-80
2021-10-14 14:44:53.576630,-88
2021-10-14 14:44:53.576652,-66
2021-10-14 14:44:53.576662,-68
2021-10-14 14:44:53.576671,-93
2021-10-14 14:44:53.576679,-90
2021-10-14 14:44:53.576688,-68
2021-10-14 14:44:53.576696,-53
2021-10-14 14:44:53.576705,-56
2021-10-14 14:44:53.576714,-17
2021-10-14 14:44:53.576722,176
2021-10-14 14:44:53.576731,537
2021-10-14 14:44:53.576739,819
2021-10-14 14:44:53.576748,534
2021-10-14 14:44:53.576761,-282
2021-10-14 14:44:53.576770,-559
2021-10-14 14:44:53.576778,-80
2021-10-14 14:44:53.576787,80
2021-10-14 14:44:53.576795,-83
2021-10-14 14:44:53.576804,0
2021-10-14 14:44:53.576812,71
2021-10-14 14:44:53.576820,4
2021-10-14 14:44:53.576829,36
2021-10-14 14:44:53.576837,93
2021-10-14 14:44:53.576846,58
2021-10-14 14:44:53.576854,66
2021-10-14 14:44:53.576862,130
2021-10-14 14:44:53.576871,147
2021-10-14 14:44:53.576879,144
2021-10-14 14:44:53.576887,188
2021-10-14 14:44:53.576895,247
2021-10-14 14:44:53.889910,272
2021-10-14 14:44:53.889933,252
2021-10-14 14:44:53.889943,267
2021-10-14 14:44:53.889952,328
2021-10-14 14:44:53.889961,355
2021-10-14 14:44:53.889970,360
2021-10-14 14:44:53.889978,368
2021-10-14 14:44:53.889987,360
2021-10-14 14:44:53.889996,338
2021-10-14 14:44:53.890004,289
2021-10-14 14:44:53.890013,242
2021-10-14 14:44:53.890021,201
2021-10-14 14:44:53.890030,122
2021-10-14 14:44:53.890038,29
2021-10-14 14:44:53.890047,-39
2021-10-14 14:44:53.890055,-85
2021-10-14 14:44:53.890063,-144
2021-10-14 14:44:53.890072,-184
2021-10-14 14:44:53.890080,-176
2021-10-14 14:44:53.890088,-174
2021-10-14 14:44:53.890097,-176
2021-10-14 14:44:53.890105,-169
2021-10-14 14:44:53.890114,-161
2021-10-14 14:44:53.890122,-139
2021-10-14 14:44:53.890130,-125
2021-10-14 14:44:53.890139,-142
2021-10-14 14:44:53.890147,-154
2021-10-14 14:44:53.890155,-134
2021-10-14 14:44:53.890164,-105
2021-10-14 14:44:53.890172,-105
2021-10-14 14:44:54.070822,-117
2021-10-14 14:44:54.070845,-105
2021-10-14 14:44:54.070854,-95
2021-10-14 14:44:54.070863,-127
2021-10-14 14:44:54.070872,-159
2021-10-14 14:44:54.070880,-132
2021-10-14 14:44:54.070889,-110
2021-10-14 14:44:54.070897,-130
2021-10-14 14:44:54.070905,-144
2021-10-14 14:44:54.070914,-134
2021-10-14 14:44:54.070926,-115
2021-10-14 14:44:54.070934,-112
2021-10-14 14:44:54.070943,-117
2021-10-14 14:44:54.070951,-117
2021-10-14 14:44:54.070960,-117
2021-10-14 14:44:54.070968,-125
2021-10-14 14:44:54.070977,-142
2021-10-14 14:44:54.070988,-139
2021-10-14 14:44:54.070997,-95
2021-10-14 14:44:54.071005,-56
2021-10-14 14:44:54.071014,-58
2021-10-14 14:44:54.071022,-66
2021-10-14 14:44:54.071030,-58
2021-10-14 14:44:54.071039,-63
2021-10-14 14:44:54.071047,-78
2021-10-14 14:44:54.071056,-83
2021-10-14 14:44:54.071064,-85
2021-10-14 14:44:54.071072,-93
2021-10-14 14:44:54.071081,-78
2021-10-14 14:44:54.071089,-51
2021-10-14 14:44:54.340938,-51
2021-10-14 14:44:54.340957,-66
2021-10-14 14:44:54.340967,-29
2021-10-14 14:44:54.340975,161
2021-10-14 14:44:54.340984,515
2021-10-14 14:44:54.340992,807
2021-10-14 14:44:54.341001,601
2021-10-14 14:44:54.341009,-169
2021-10-14 14:44:54.341018,-564
2021-10-14 14:44:54.341026,-149
2021-10-14 14:44:54.341035,100
2021-10-14 14:44:54.341043,-56
2021-10-14 14:44:54.341051,-36
2021-10-14 14:44:54.341060,51
2021-10-14 14:44:54.341068,12
2021-10-14 14:44:54.341077,2
2021-10-14 14:44:54.341085,41
2021-10-14 14:44:54.341093,46
2021-10-14 14:44:54.341102,56
2021-10-14 14:44:54.341110,71
2021-10-14 14:44:54.341118,78
2021-10-14 14:44:54.341127,105
2021-10-14 14:44:54.341135,157
2021-10-14 14:44:54.341143,196
2021-10-14 14:44:54.341152,206
2021-10-14 14:44:54.341160,215
2021-10-14 14:44:54.341168,255
2021-10-14 14:44:54.341177,289
2021-10-14 14:44:54.341185,301
2021-10-14 14:44:54.341194,328
2021-10-14 14:44:54.520556,353
2021-10-14 14:44:54.520578,333
2021-10-14 14:44:54.520588,316
2021-10-14 14:44:54.520596,328
2021-10-14 14:44:54.520605,277
2021-10-14 14:44:54.520613,176
2021-10-14 14:44:54.520622,130
2021-10-14 14:44:54.520630,80
2021-10-14 14:44:54.520638,-12
2021-10-14 14:44:54.520646,-71
2021-10-14 14:44:54.520653,-103
2021-10-14 14:44:54.520660,-152
2021-10-14 14:44:54.520669,-184
2021-10-14 14:44:54.520677,-203
2021-10-14 14:44:54.520684,-213
2021-10-14 14:44:54.520692,-193
2021-10-14 14:44:54.520700,-166
2021-10-14 14:44:54.520708,-169
2021-10-14 14:44:54.520720,-176
2021-10-14 14:44:54.520727,-154
2021-10-14 14:44:54.520736,-159
2021-10-14 14:44:54.520776,-203
2021-10-14 14:44:54.520783,-191
2021-10-14 14:44:54.520791,-147
2021-10-14 14:44:54.520799,-171
2021-10-14 14:44:54.520807,-198
2021-10-14 14:44:54.520815,-166
2021-10-14 14:44:54.520823,-142
2021-10-14 14:44:54.520831,-157
2021-10-14 14:44:54.520845,-176
2021-10-14 14:44:54.745507,-169
2021-10-14 14:44:54.745528,-157
2021-10-14 14:44:54.745539,-157
2021-10-14 14:44:54.745549,-164
2021-10-14 14:44:54.745558,-159
2021-10-14 14:44:54.745567,-154
2021-10-14 14:44:54.745577,-154
2021-10-14 14:44:54.745586,-159
2021-10-14 14:44:54.745595,-164
2021-10-14 14:44:54.745604,-157
2021-10-14 14:44:54.745613,-127
2021-10-14 14:44:54.745623,-100
2021-10-14 14:44:54.745631,-98
2021-10-14 14:44:54.745640,-90
2021-10-14 14:44:54.745648,-73
2021-10-14 14:44:54.745656,-80
2021-10-14 14:44:54.745665,-103
2021-10-14 14:44:54.745673,-120
2021-10-14 14:44:54.745681,-115
2021-10-14 14:44:54.745690,-98
2021-10-14 14:44:54.745698,-107
2021-10-14 14:44:54.745706,-117
2021-10-14 14:44:54.745714,-98
2021-10-14 14:44:54.745723,-103
2021-10-14 14:44:54.745731,-132
2021-10-14 14:44:54.745739,-85
2021-10-14 14:44:54.745748,103
2021-10-14 14:44:54.745757,429
2021-10-14 14:44:54.745766,721
2021-10-14 14:44:54.745775,542
2021-10-14 14:44:54.970877,-250
2021-10-14 14:44:54.970899,-672
2021-10-14 14:44:54.970908,-201
2021-10-14 14:44:54.970917,88
2021-10-14 14:44:54.970926,-90
2021-10-14 14:44:54.970934,-49
2021-10-14 14:44:54.970943,51
2021-10-14 14:44:54.970951,-24
2021-10-14 14:44:54.970960,-4
2021-10-14 14:44:54.970968,88
2021-10-14 14:44:54.970977,66
2021-10-14 14:44:54.970985,31
2021-10-14 14:44:54.970993,93
2021-10-14 14:44:54.971002,134
2021-10-14 14:44:54.971010,107
2021-10-14 14:44:54.971019,132
2021-10-14 14:44:54.971027,208
2021-10-14 14:44:54.971035,225
2021-10-14 14:44:54.971044,233
2021-10-14 14:44:54.971052,287
2021-10-14 14:44:54.971061,333
2021-10-14 14:44:54.971069,355
2021-10-14 14:44:54.971078,353
2021-10-14 14:44:54.971086,341
2021-10-14 14:44:54.971094,360
2021-10-14 14:44:54.971103,363
2021-10-14 14:44:54.971111,321
2021-10-14 14:44:54.971120,279
2021-10-14 14:44:54.971128,225
2021-10-14 14:44:54.971136,134
2021-10-14 14:44:55.239140,53
2021-10-14 14:44:55.239162,-7
2021-10-14 14:44:55.239172,-90
2021-10-14 14:44:55.239181,-174
2021-10-14 14:44:55.239189,-193
2021-10-14 14:44:55.239197,-191
2021-10-14 14:44:55.239206,-215
2021-10-14 14:44:55.239214,-225
2021-10-14 14:44:55.239222,-206
2021-10-14 14:44:55.239231,-186
2021-10-14 14:44:55.239239,-181
2021-10-14 14:44:55.239247,-191
2021-10-14 14:44:55.239256,-198
2021-10-14 14:44:55.239264,-174
2021-10-14 14:44:55.239272,-147
2021-10-14 14:44:55.239281,-157
2021-10-14 14:44:55.239289,-174
2021-10-14 14:44:55.239298,-161
2021-10-14 14:44:55.239306,-144
2021-10-14 14:44:55.239314,-139
2021-10-14 14:44:55.239330,-134
2021-10-14 14:44:55.239338,-159
2021-10-14 14:44:55.239347,-186
2021-10-14 14:44:55.239355,-157
2021-10-14 14:44:55.239363,-144
2021-10-14 14:44:55.239372,-159
2021-10-14 14:44:55.239380,-137
2021-10-14 14:44:55.239388,-122
2021-10-14 14:44:55.239397,-139
2021-10-14 14:44:55.239405,-159
2021-10-14 14:44:55.420791,-181
2021-10-14 14:44:55.420812,-179
2021-10-14 14:44:55.420822,-142
2021-10-14 14:44:55.420831,-115
2021-10-14 14:44:55.420840,-103
2021-10-14 14:44:55.420848,-85
2021-10-14 14:44:55.420856,-78
2021-10-14 14:44:55.420865,-73
2021-10-14 14:44:55.420873,-78
2021-10-14 14:44:55.420882,-107
2021-10-14 14:44:55.420890,-125
2021-10-14 14:44:55.420898,-107
2021-10-14 14:44:55.420907,-90
2021-10-14 14:44:55.420915,-98
2021-10-14 14:44:55.420924,-100
2021-10-14 14:44:55.420932,-83
2021-10-14 14:44:55.420941,-58
2021-10-14 14:44:55.420949,-41
2021-10-14 14:44:55.420958,36
2021-10-14 14:44:55.420966,338
2021-10-14 14:44:55.420974,745
2021-10-14 14:44:55.420983,760
2021-10-14 14:44:55.420991,73
2021-10-14 14:44:55.421000,-566
2021-10-14 14:44:55.421008,-306
2021-10-14 14:44:55.421017,110
2021-10-14 14:44:55.421025,14
2021-10-14 14:44:55.421034,-41
2021-10-14 14:44:55.421042,63
2021-10-14 14:44:55.421051,56
2021-10-14 14:44:55.690510,29
2021-10-14 14:44:55.690532,46
2021-10-14 14:44:55.690542,68
2021-10-14 14:44:55.690551,95
2021-10-14 14:44:55.690559,110
2021-10-14 14:44:55.690568,127
2021-10-14 14:44:55.690576,161
2021-10-14 14:44:55.690584,186
2021-10-14 14:44:55.690593,201
2021-10-14 14:44:55.690601,225
2021-10-14 14:44:55.690610,255
2021-10-14 14:44:55.690618,291
2021-10-14 14:44:55.690627,328
2021-10-14 14:44:55.690635,358
2021-10-14 14:44:55.690643,377
2021-10-14 14:44:55.690651,392
2021-10-14 14:44:55.690660,397
2021-10-14 14:44:55.690668,397
2021-10-14 14:44:55.690676,380
2021-10-14 14:44:55.690685,331
2021-10-14 14:44:55.690693,250
2021-10-14 14:44:55.690702,161
2021-10-14 14:44:55.690710,95
2021-10-14 14:44:55.690718,31
2021-10-14 14:44:55.690727,-44
2021-10-14 14:44:55.690735,-100
2021-10-14 14:44:55.690743,-132
2021-10-14 14:44:55.690752,-154
2021-10-14 14:44:55.690760,-161
2021-10-14 14:44:55.690768,-152
2021-10-14 14:44:55.915903,-159
2021-10-14 14:44:55.915925,-161
2021-10-14 14:44:55.915934,-149
2021-10-14 14:44:55.915943,-154
2021-10-14 14:44:55.915952,-149
2021-10-14 14:44:55.915960,-122
2021-10-14 14:44:55.915969,-105
2021-10-14 14:44:55.915977,-107
2021-10-14 14:44:55.915985,-137
2021-10-14 14:44:55.915994,-147
2021-10-14 14:44:55.916002,-112
2021-10-14 14:44:55.916011,-110
2021-10-14 14:44:55.916019,-137
2021-10-14 14:44:55.916028,-134
2021-10-14 14:44:55.916036,-127
2021-10-14 14:44:55.916044,-144
2021-10-14 14:44:55.916052,-154
2021-10-14 14:44:55.916061,-137
2021-10-14 14:44:55.916069,-117
2021-10-14 14:44:55.916077,-130
2021-10-14 14:44:55.916086,-144
2021-10-14 14:44:55.916094,-125
2021-10-14 14:44:55.916106,-110
2021-10-14 14:44:55.916114,-127
2021-10-14 14:44:55.916122,-132
2021-10-14 14:44:55.916131,-100
2021-10-14 14:44:55.916139,-58
2021-10-14 14:44:55.916147,-49
2021-10-14 14:44:55.916156,-56
2021-10-14 14:44:55.916164,-39
2021-10-14 14:44:56.230525,-39
2021-10-14 14:44:56.230546,-80
2021-10-14 14:44:56.230556,-95
2021-10-14 14:44:56.230565,-88
2021-10-14 14:44:56.230573,-88
2021-10-14 14:44:56.230582,-78
2021-10-14 14:44:56.230590,-63
2021-10-14 14:44:56.230599,-49
2021-10-14 14:44:56.230607,-49
2021-10-14 14:44:56.230615,-78
2021-10-14 14:44:56.230624,-22
2021-10-14 14:44:56.230632,267
2021-10-14 14:44:56.230641,677
2021-10-14 14:44:56.230649,834
2021-10-14 14:44:56.230657,328
2021-10-14 14:44:56.230665,-439
2021-10-14 14:44:56.230674,-436
2021-10-14 14:44:56.230682,34
2021-10-14 14:44:56.230691,41
2021-10-14 14:44:56.230699,-68
2021-10-14 14:44:56.230707,39
2021-10-14 14:44:56.230715,31
2021-10-14 14:44:56.230724,-14
2021-10-14 14:44:56.230732,66
2021-10-14 14:44:56.230740,100
2021-10-14 14:44:56.230749,76
2021-10-14 14:44:56.230757,100
2021-10-14 14:44:56.230765,127
2021-10-14 14:44:56.230774,139
2021-10-14 14:44:56.230782,184
2021-10-14 14:44:56.454999,215
2021-10-14 14:44:56.455021,215
2021-10-14 14:44:56.455031,238
2021-10-14 14:44:56.455040,282
2021-10-14 14:44:56.455048,306
2021-10-14 14:44:56.455057,328
2021-10-14 14:44:56.455065,360
2021-10-14 14:44:56.455073,370
2021-10-14 14:44:56.455082,358
2021-10-14 14:44:56.455097,343
2021-10-14 14:44:56.455109,328
2021-10-14 14:44:56.455118,306
2021-10-14 14:44:56.455127,247
2021-10-14 14:44:56.455135,147
2021-10-14 14:44:56.455144,56
2021-10-14 14:44:56.455152,-24
2021-10-14 14:44:56.455161,-93
2021-10-14 14:44:56.455170,-139
2021-10-14 14:44:56.455178,-169
2021-10-14 14:44:56.455332,-181
2021-10-14 14:44:56.455343,-179
2021-10-14 14:44:56.455351,-193
2021-10-14 14:44:56.455359,-213
2021-10-14 14:44:56.455367,-188
2021-10-14 14:44:56.455374,-166
2021-10-14 14:44:56.455382,-196
2021-10-14 14:44:56.455390,-201
2021-10-14 14:44:56.455402,-152
2021-10-14 14:44:56.455409,-134
2021-10-14 14:44:56.455417,-149
2021-10-14 14:44:56.590547,-137
2021-10-14 14:44:56.590569,-117
2021-10-14 14:44:56.590579,-117
2021-10-14 14:44:56.590588,-137
2021-10-14 14:44:56.590597,-159
2021-10-14 14:44:56.590605,-142
2021-10-14 14:44:56.590614,-122
2021-10-14 14:44:56.590622,-139
2021-10-14 14:44:56.590631,-159
2021-10-14 14:44:56.590639,-154
2021-10-14 14:44:56.590648,-149
2021-10-14 14:44:56.590656,-169
2021-10-14 14:44:56.590665,-191
2021-10-14 14:44:56.590673,-181
2021-10-14 14:44:56.590682,-159
2021-10-14 14:44:56.590690,-169
2021-10-14 14:44:56.590699,-176
2021-10-14 14:44:56.590707,-181
2021-10-14 14:44:56.590715,-188
2021-10-14 14:44:56.590724,-152
2021-10-14 14:44:56.590732,-103
2021-10-14 14:44:56.590740,-115
2021-10-14 14:44:56.590749,-142
2021-10-14 14:44:56.590757,-127
2021-10-14 14:44:56.590765,-127
2021-10-14 14:44:56.590774,-164
2021-10-14 14:44:56.590782,-171
2021-10-14 14:44:56.590791,-147
2021-10-14 14:44:56.590799,-147
2021-10-14 14:44:56.590808,-161
2021-10-14 14:44:56.860566,-152
2021-10-14 14:44:56.860588,-142
2021-10-14 14:44:56.860597,-147
2021-10-14 14:44:56.860606,-90
2021-10-14 14:44:56.860615,132
2021-10-14 14:44:56.860627,485
2021-10-14 14:44:56.860636,711
2021-10-14 14:44:56.860644,392
2021-10-14 14:44:56.860653,-392
2021-10-14 14:44:56.860661,-650
2021-10-14 14:44:56.860670,-198
2021-10-14 14:44:56.860678,-39
2021-10-14 14:44:56.860687,-188
2021-10-14 14:44:56.860696,-110
2021-10-14 14:44:56.860704,-53
2021-10-14 14:44:56.860713,-144
2021-10-14 14:44:56.860721,-122
2021-10-14 14:44:56.860730,-56
2021-10-14 14:44:56.860739,-83
2021-10-14 14:44:56.860747,-66
2021-10-14 14:44:56.860756,-7
2021-10-14 14:44:56.860764,-2
2021-10-14 14:44:56.860773,4
2021-10-14 14:44:56.860781,53
2021-10-14 14:44:56.860789,80
2021-10-14 14:44:56.860798,93
2021-10-14 14:44:56.860806,127
2021-10-14 14:44:56.860815,174
2021-10-14 14:44:56.860823,208
2021-10-14 14:44:56.860832,218
2021-10-14 14:44:57.040905,228
2021-10-14 14:44:57.040928,260
2021-10-14 14:44:57.040937,269
2021-10-14 14:44:57.040946,228
2021-10-14 14:44:57.040955,188
2021-10-14 14:44:57.040963,161
2021-10-14 14:44:57.040972,95
2021-10-14 14:44:57.040980,4
2021-10-14 14:44:57.040989,-71
2021-10-14 14:44:57.040997,-137
2021-10-14 14:44:57.041005,-203
2021-10-14 14:44:57.041014,-260
2021-10-14 14:44:57.041022,-289
2021-10-14 14:44:57.041031,-296
2021-10-14 14:44:57.041039,-304
2021-10-14 14:44:57.041048,-304
2021-10-14 14:44:57.041056,-289
2021-10-14 14:44:57.041065,-284
2021-10-14 14:44:57.041073,-282
2021-10-14 14:44:57.041082,-287
2021-10-14 14:44:57.041090,-274
2021-10-14 14:44:57.041099,-230
2021-10-14 14:44:57.041107,-220
2021-10-14 14:44:57.041115,-238
2021-10-14 14:44:57.041124,-220
2021-10-14 14:44:57.041132,-206
2021-10-14 14:44:57.041141,-228
2021-10-14 14:44:57.041149,-228
2021-10-14 14:44:57.041157,-213
2021-10-14 14:44:57.041166,-218
2021-10-14 14:44:57.444188,-218
2021-10-14 14:44:57.444205,-218
2021-10-14 14:44:57.444212,-225
2021-10-14 14:44:57.444218,-225
2021-10-14 14:44:57.444224,-228
2021-10-14 14:44:57.444230,-238
2021-10-14 14:44:57.444264,-238
2021-10-14 14:44:57.444271,-225
2021-10-14 14:44:57.444277,-215
2021-10-14 14:44:57.444284,-228
2021-10-14 14:44:57.444291,-235
2021-10-14 14:44:57.444298,-213
2021-10-14 14:44:57.444305,-179
2021-10-14 14:44:57.444313,-166
2021-10-14 14:44:57.444321,-181
2021-10-14 14:44:57.444329,-169
2021-10-14 14:44:57.444337,-139
2021-10-14 14:44:57.444344,-157
2021-10-14 14:44:57.444352,-196
2021-10-14 14:44:57.444360,-179
2021-10-14 14:44:57.444368,-159
2021-10-14 14:44:57.444376,-184
2021-10-14 14:44:57.444384,-193
2021-10-14 14:44:57.444392,-159
2021-10-14 14:44:57.444399,-139
2021-10-14 14:44:57.444407,-152
2021-10-14 14:44:57.444415,-134
2021-10-14 14:44:57.444423,4
2021-10-14 14:44:57.444431,296
2021-10-14 14:44:57.444438,615
2021-10-14 14:44:57.535841,625
2021-10-14 14:44:57.535861,-19
2021-10-14 14:44:57.535871,-687
2021-10-14 14:44:57.535880,-434
2021-10-14 14:44:57.535888,31
2021-10-14 14:44:57.535897,-49
2021-10-14 14:44:57.535906,-110
2021-10-14 14:44:57.535914,19
2021-10-14 14:44:57.535922,0
2021-10-14 14:44:57.535931,-53
2021-10-14 14:44:57.535939,7
2021-10-14 14:44:57.535948,51
2021-10-14 14:44:57.535956,34
2021-10-14 14:44:57.535964,56
2021-10-14 14:44:57.535973,98
2021-10-14 14:44:57.535981,107
2021-10-14 14:44:57.535989,120
2021-10-14 14:44:57.535997,171
2021-10-14 14:44:57.536006,228
2021-10-14 14:44:57.536014,257
2021-10-14 14:44:57.536022,269
2021-10-14 14:44:57.536030,294
2021-10-14 14:44:57.536039,343
2021-10-14 14:44:57.536047,382
2021-10-14 14:44:57.536055,392
2021-10-14 14:44:57.536064,399
2021-10-14 14:44:57.536072,392
2021-10-14 14:44:57.536080,353
2021-10-14 14:44:57.536088,306
2021-10-14 14:44:57.536097,262
2021-10-14 14:44:57.850632,188
2021-10-14 14:44:57.850657,93
2021-10-14 14:44:57.850667,0
2021-10-14 14:44:57.850676,-83
2021-10-14 14:44:57.850685,-125
2021-10-14 14:44:57.850693,-134
2021-10-14 14:44:57.850702,-144
2021-10-14 14:44:57.850710,-171
2021-10-14 14:44:57.850719,-196
2021-10-14 14:44:57.850727,-186
2021-10-14 14:44:57.850736,-169
2021-10-14 14:44:57.850744,-161
2021-10-14 14:44:57.850752,-139
2021-10-14 14:44:57.850761,-120
2021-10-14 14:44:57.850769,-115
2021-10-14 14:44:57.850778,-110
2021-10-14 14:44:57.850786,-93
2021-10-14 14:44:57.850794,-98
2021-10-14 14:44:57.850803,-105
2021-10-14 14:44:57.850811,-93
2021-10-14 14:44:57.850820,-93
2021-10-14 14:44:57.850858,-103
2021-10-14 14:44:57.850866,-98
2021-10-14 14:44:57.850875,-76
2021-10-14 14:44:57.850883,-68
2021-10-14 14:44:57.850891,-85
2021-10-14 14:44:57.850900,-103
2021-10-14 14:44:57.850908,-105
2021-10-14 14:44:57.850916,-95
2021-10-14 14:44:57.850925,-98
2021-10-14 14:44:58.030593,-105
2021-10-14 14:44:58.030614,-98
2021-10-14 14:44:58.030622,-100
2021-10-14 14:44:58.030629,-107
2021-10-14 14:44:58.030635,-78
2021-10-14 14:44:58.030641,-31
2021-10-14 14:44:58.030648,-14
2021-10-14 14:44:58.030654,-14
2021-10-14 14:44:58.030661,-24
2021-10-14 14:44:58.030668,-49
2021-10-14 14:44:58.030674,-51
2021-10-14 14:44:58.030680,-36
2021-10-14 14:44:58.030687,-44
2021-10-14 14:44:58.030694,-49
2021-10-14 14:44:58.030700,-34
2021-10-14 14:44:58.030706,-24
2021-10-14 14:44:58.030713,-26
2021-10-14 14:44:58.030719,-29
2021-10-14 14:44:58.030726,-14
2021-10-14 14:44:58.030732,76
2021-10-14 14:44:58.030739,331
2021-10-14 14:44:58.030745,709
2021-10-14 14:44:58.030752,846
2021-10-14 14:44:58.030758,294
2021-10-14 14:44:58.030765,-444
2021-10-14 14:44:58.030771,-336
2021-10-14 14:44:58.030807,120
2021-10-14 14:44:58.030814,61
2021-10-14 14:44:58.030820,-36
2021-10-14 14:44:58.030827,88
2021-10-14 14:44:58.389329,95
2021-10-14 14:44:58.389352,46
2021-10-14 14:44:58.389362,95
2021-10-14 14:44:58.389371,130
2021-10-14 14:44:58.389379,122
2021-10-14 14:44:58.389387,154
2021-10-14 14:44:58.389396,193
2021-10-14 14:44:58.389404,188
2021-10-14 14:44:58.389413,198
2021-10-14 14:44:58.389421,250
2021-10-14 14:44:58.389430,287
2021-10-14 14:44:58.389438,301
2021-10-14 14:44:58.389447,341
2021-10-14 14:44:58.389455,372
2021-10-14 14:44:58.389464,395
2021-10-14 14:44:58.389472,434
2021-10-14 14:44:58.389480,446
2021-10-14 14:44:58.389489,426
2021-10-14 14:44:58.389497,426
2021-10-14 14:44:58.389505,422
2021-10-14 14:44:58.389514,358
2021-10-14 14:44:58.389522,279
2021-10-14 14:44:58.389531,213
2021-10-14 14:44:58.389539,122
2021-10-14 14:44:58.389547,34
2021-10-14 14:44:58.389556,-24
2021-10-14 14:44:58.389564,-73
2021-10-14 14:44:58.389573,-110
2021-10-14 14:44:58.389581,-122
2021-10-14 14:44:58.389590,-127
2021-10-14 14:44:58.480545,-134
2021-10-14 14:44:58.480565,-132
2021-10-14 14:44:58.480575,-142
2021-10-14 14:44:58.480583,-144
2021-10-14 14:44:58.480592,-112
2021-10-14 14:44:58.480600,-103
2021-10-14 14:44:58.480609,-107
2021-10-14 14:44:58.480617,-90
2021-10-14 14:44:58.480626,-83
2021-10-14 14:44:58.480634,-83
2021-10-14 14:44:58.480643,-68
2021-10-14 14:44:58.480651,-68
2021-10-14 14:44:58.480659,-88
2021-10-14 14:44:58.480668,-88
2021-10-14 14:44:58.480677,-83
2021-10-14 14:44:58.480685,-80
2021-10-14 14:44:58.480693,-76
2021-10-14 14:44:58.480702,-78
2021-10-14 14:44:58.480710,-78
2021-10-14 14:44:58.480719,-76
2021-10-14 14:44:58.480727,-90
2021-10-14 14:44:58.480736,-105
2021-10-14 14:44:58.480744,-98
2021-10-14 14:44:58.480752,-95
2021-10-14 14:44:58.480760,-103
2021-10-14 14:44:58.480769,-105
2021-10-14 14:44:58.480777,-100
2021-10-14 14:44:58.480786,-76
2021-10-14 14:44:58.480795,-29
2021-10-14 14:44:58.480803,-19
2021-10-14 14:44:58.660506,-29
2021-10-14 14:44:58.660526,-9
2021-10-14 14:44:58.660535,-24
2021-10-14 14:44:58.660544,-71
2021-10-14 14:44:58.660553,-73
2021-10-14 14:44:58.660561,-56
2021-10-14 14:44:58.660570,-71
2021-10-14 14:44:58.660578,-73
2021-10-14 14:44:58.660586,-51
2021-10-14 14:44:58.660595,-29
2021-10-14 14:44:58.660603,-22
2021-10-14 14:44:58.660615,-29
2021-10-14 14:44:58.660623,31
2021-10-14 14:44:58.660632,311
2021-10-14 14:44:58.660640,709
2021-10-14 14:44:58.660649,824
2021-10-14 14:44:58.660657,279
2021-10-14 14:44:58.660665,-456
2021-10-14 14:44:58.660674,-395
2021-10-14 14:44:58.660682,61
2021-10-14 14:44:58.660691,44
2021-10-14 14:44:58.660699,-53
2021-10-14 14:44:58.660708,68
2021-10-14 14:44:58.660716,90
2021-10-14 14:44:58.660725,31
2021-10-14 14:44:58.660733,58
2021-10-14 14:44:58.660741,85
2021-10-14 14:44:58.660749,76
2021-10-14 14:44:58.660757,95
2021-10-14 14:44:58.660766,127
2021-10-14 14:44:58.885914,134
2021-10-14 14:44:58.885936,152
2021-10-14 14:44:58.885946,206
2021-10-14 14:44:58.885955,257
2021-10-14 14:44:58.885963,267
2021-10-14 14:44:58.885972,257
2021-10-14 14:44:58.885980,289
2021-10-14 14:44:58.885989,333
2021-10-14 14:44:58.885997,338
2021-10-14 14:44:58.886006,341
2021-10-14 14:44:58.886014,348
2021-10-14 14:44:58.886023,338
2021-10-14 14:44:58.886031,318
2021-10-14 14:44:58.886040,291
2021-10-14 14:44:58.886048,250
2021-10-14 14:44:58.886057,179
2021-10-14 14:44:58.886065,88
2021-10-14 14:44:58.886073,9
2021-10-14 14:44:58.886082,-39
2021-10-14 14:44:58.886090,-85
2021-10-14 14:44:58.886099,-132
2021-10-14 14:44:58.886107,-169
2021-10-14 14:44:58.886116,-188
2021-10-14 14:44:58.886124,-186
2021-10-14 14:44:58.886133,-174
2021-10-14 14:44:58.886141,-166
2021-10-14 14:44:58.886149,-157
2021-10-14 14:44:58.886158,-142
2021-10-14 14:44:58.886166,-134
2021-10-14 14:44:58.886174,-122
2021-10-14 14:44:59.110558,-110
2021-10-14 14:44:59.110581,-100
2021-10-14 14:44:59.110590,-93
2021-10-14 14:44:59.110599,-105
2021-10-14 14:44:59.110608,-132
2021-10-14 14:44:59.110616,-137
2021-10-14 14:44:59.110625,-127
2021-10-14 14:44:59.110633,-120
2021-10-14 14:44:59.110642,-120
2021-10-14 14:44:59.110650,-122
2021-10-14 14:44:59.110659,-127
2021-10-14 14:44:59.110667,-130
2021-10-14 14:44:59.110675,-132
2021-10-14 14:44:59.110684,-137
2021-10-14 14:44:59.110692,-147
2021-10-14 14:44:59.110700,-149
2021-10-14 14:44:59.110708,-142
2021-10-14 14:44:59.110717,-134
2021-10-14 14:44:59.110725,-139
2021-10-14 14:44:59.110734,-144
2021-10-14 14:44:59.110742,-127
2021-10-14 14:44:59.110750,-93
2021-10-14 14:44:59.110759,-78
2021-10-14 14:44:59.110767,-76
2021-10-14 14:44:59.110776,-56
2021-10-14 14:44:59.110784,-49
2021-10-14 14:44:59.110792,-83
2021-10-14 14:44:59.110801,-112
2021-10-14 14:44:59.110809,-103
2021-10-14 14:44:59.110818,-90
2021-10-14 14:44:59.470160,-100
2021-10-14 14:44:59.470181,-98
2021-10-14 14:44:59.470190,-76
2021-10-14 14:44:59.470198,-78
2021-10-14 14:44:59.470207,-105
2021-10-14 14:44:59.470215,-76
2021-10-14 14:44:59.470224,73
2021-10-14 14:44:59.470232,387
2021-10-14 14:44:59.470240,723
2021-10-14 14:44:59.470248,655
2021-10-14 14:44:59.470257,-66
2021-10-14 14:44:59.470265,-642
2021-10-14 14:44:59.470273,-311
2021-10-14 14:44:59.470282,61
2021-10-14 14:44:59.470290,-76
2021-10-14 14:44:59.470298,-110
2021-10-14 14:44:59.470306,7
2021-10-14 14:44:59.470315,-12
2021-10-14 14:44:59.470323,-26
2021-10-14 14:44:59.470331,26
2021-10-14 14:44:59.470340,39
2021-10-14 14:44:59.470348,44
2021-10-14 14:44:59.470356,76
2021-10-14 14:44:59.470364,93
2021-10-14 14:44:59.470373,100
2021-10-14 14:44:59.470381,134
2021-10-14 14:44:59.470389,179
2021-10-14 14:44:59.470397,218
2021-10-14 14:44:59.470406,250
2021-10-14 14:44:59.470414,262
2021-10-14 14:44:59.605934,282
2021-10-14 14:44:59.605956,338
2021-10-14 14:44:59.605965,353
2021-10-14 14:44:59.605974,326
2021-10-14 14:44:59.605983,333
2021-10-14 14:44:59.605991,348
2021-10-14 14:44:59.606000,323
2021-10-14 14:44:59.606008,284
2021-10-14 14:44:59.606017,228
2021-10-14 14:44:59.606025,139
2021-10-14 14:44:59.606033,49
2021-10-14 14:44:59.606042,-41
2021-10-14 14:44:59.606050,-120
2021-10-14 14:44:59.606059,-161
2021-10-14 14:44:59.606067,-193
2021-10-14 14:44:59.606076,-230
2021-10-14 14:44:59.606084,-233
2021-10-14 14:44:59.606092,-213
2021-10-14 14:44:59.606101,-198
2021-10-14 14:44:59.606109,-193
2021-10-14 14:44:59.606118,-213
2021-10-14 14:44:59.606126,-225
2021-10-14 14:44:59.606135,-206
2021-10-14 14:44:59.606143,-188
2021-10-14 14:44:59.606151,-174
2021-10-14 14:44:59.606160,-152
2021-10-14 14:44:59.606168,-164
2021-10-14 14:44:59.606177,-186
2021-10-14 14:44:59.606185,-166
2021-10-14 14:44:59.606193,-134
2021-10-14 14:44:59.830581,-137
2021-10-14 14:44:59.830602,-171
2021-10-14 14:44:59.830612,-191
2021-10-14 14:44:59.830621,-174
2021-10-14 14:44:59.830629,-166
2021-10-14 14:44:59.830638,-184
2021-10-14 14:44:59.830646,-186
2021-10-14 14:44:59.830655,-181
2021-10-14 14:44:59.830667,-191
2021-10-14 14:44:59.830675,-188
2021-10-14 14:44:59.830684,-186
2021-10-14 14:44:59.830692,-181
2021-10-14 14:44:59.830701,-120
2021-10-14 14:44:59.830709,-85
2021-10-14 14:44:59.830718,-132
2021-10-14 14:44:59.830726,-144
2021-10-14 14:44:59.830735,-120
2021-10-14 14:44:59.830743,-139
2021-10-14 14:44:59.830752,-154
2021-10-14 14:44:59.830760,-147
2021-10-14 14:44:59.830768,-149
2021-10-14 14:44:59.830777,-149
2021-10-14 14:44:59.830785,-132
2021-10-14 14:44:59.830794,-122
2021-10-14 14:44:59.830802,-122
2021-10-14 14:44:59.830811,-98
2021-10-14 14:44:59.830819,-19
2021-10-14 14:44:59.830828,198
2021-10-14 14:44:59.830836,556
2021-10-14 14:44:59.830845,738
2021-10-14 14:45:00.056067,272
2021-10-14 14:45:00.056091,-505
2021-10-14 14:45:00.056100,-525
2021-10-14 14:45:00.056109,-7
2021-10-14 14:45:00.056118,49
2021-10-14 14:45:00.056127,-88
2021-10-14 14:45:00.056135,2
2021-10-14 14:45:00.056144,26
2021-10-14 14:45:00.056152,-24
2021-10-14 14:45:00.056161,24
2021-10-14 14:45:00.056169,66
2021-10-14 14:45:00.056178,58
2021-10-14 14:45:00.056186,78
2021-10-14 14:45:00.056195,105
2021-10-14 14:45:00.056203,122
2021-10-14 14:45:00.056212,147
2021-10-14 14:45:00.056220,176
2021-10-14 14:45:00.056229,215
2021-10-14 14:45:00.056238,257
2021-10-14 14:45:00.056248,299
2021-10-14 14:45:00.056259,323
2021-10-14 14:45:00.056268,336
2021-10-14 14:45:00.056276,372
2021-10-14 14:45:00.056285,399
2021-10-14 14:45:00.056293,387
2021-10-14 14:45:00.056302,370
2021-10-14 14:45:00.056310,360
2021-10-14 14:45:00.056319,333
2021-10-14 14:45:00.056327,289
2021-10-14 14:45:00.056335,206
2021-10-14 14:45:00.324955,103
2021-10-14 14:45:00.324977,19
2021-10-14 14:45:00.324987,-51
2021-10-14 14:45:00.324995,-107
2021-10-14 14:45:00.325004,-134
2021-10-14 14:45:00.325012,-149
2021-10-14 14:45:00.325021,-169
2021-10-14 14:45:00.325029,-191
2021-10-14 14:45:00.325038,-203
2021-10-14 14:45:00.325047,-186
2021-10-14 14:45:00.325055,-152
2021-10-14 14:45:00.325064,-144
2021-10-14 14:45:00.325072,-154
2021-10-14 14:45:00.325081,-139
2021-10-14 14:45:00.325089,-112
2021-10-14 14:45:00.325098,-112
2021-10-14 14:45:00.325106,-110
2021-10-14 14:45:00.325114,-95
2021-10-14 14:45:00.325123,-98
2021-10-14 14:45:00.325131,-107
2021-10-14 14:45:00.325139,-107
2021-10-14 14:45:00.325148,-107
2021-10-14 14:45:00.325156,-105
2021-10-14 14:45:00.325165,-95
2021-10-14 14:45:00.325173,-95
2021-10-14 14:45:00.325181,-110
2021-10-14 14:45:00.325190,-122
2021-10-14 14:45:00.325198,-120
2021-10-14 14:45:00.325207,-122
2021-10-14 14:45:00.325215,-134
2021-10-14 14:45:00.505988,-139
2021-10-14 14:45:00.506010,-115
2021-10-14 14:45:00.506020,-68
2021-10-14 14:45:00.506029,-51
2021-10-14 14:45:00.506038,-63
2021-10-14 14:45:00.506047,-68
2021-10-14 14:45:00.506055,-78
2021-10-14 14:45:00.506064,-95
2021-10-14 14:45:00.506072,-105
2021-10-14 14:45:00.506080,-95
2021-10-14 14:45:00.506089,-90
2021-10-14 14:45:00.506097,-107
2021-10-14 14:45:00.506106,-110
2021-10-14 14:45:00.506114,-88
2021-10-14 14:45:00.506123,-93
2021-10-14 14:45:00.506131,-103
2021-10-14 14:45:00.506140,-22
2021-10-14 14:45:00.506149,198
2021-10-14 14:45:00.506157,552
2021-10-14 14:45:00.506166,807
2021-10-14 14:45:00.506174,468
2021-10-14 14:45:00.506183,-338
2021-10-14 14:45:00.506191,-534
2021-10-14 14:45:00.506199,-41
2021-10-14 14:45:00.506208,80
2021-10-14 14:45:00.506217,-73
2021-10-14 14:45:00.506225,4
2021-10-14 14:45:00.506233,49
2021-10-14 14:45:00.506242,-9
2021-10-14 14:45:00.506250,34
2021-10-14 14:45:00.730563,98
2021-10-14 14:45:00.730585,83
2021-10-14 14:45:00.730594,83
2021-10-14 14:45:00.730603,125
2021-10-14 14:45:00.730611,144
2021-10-14 14:45:00.730619,144
2021-10-14 14:45:00.730628,166
2021-10-14 14:45:00.730636,211
2021-10-14 14:45:00.730644,252
2021-10-14 14:45:00.730653,284
2021-10-14 14:45:00.730661,304
2021-10-14 14:45:00.730669,318
2021-10-14 14:45:00.730678,331
2021-10-14 14:45:00.730686,343
2021-10-14 14:45:00.730694,353
2021-10-14 14:45:00.730703,348
2021-10-14 14:45:00.730711,333
2021-10-14 14:45:00.730719,311
2021-10-14 14:45:00.730728,262
2021-10-14 14:45:00.730736,188
2021-10-14 14:45:00.730745,115
2021-10-14 14:45:00.730753,39
2021-10-14 14:45:00.730761,-51
2021-10-14 14:45:00.730770,-112
2021-10-14 14:45:00.730778,-127
2021-10-14 14:45:00.730786,-152
2021-10-14 14:45:00.730795,-179
2021-10-14 14:45:00.730803,-171
2021-10-14 14:45:00.730811,-159
2021-10-14 14:45:00.730819,-152
2021-10-14 14:45:00.955595,-147
2021-10-14 14:45:00.955618,-147
2021-10-14 14:45:00.955627,-139
2021-10-14 14:45:00.955636,-134
2021-10-14 14:45:00.955645,-147
2021-10-14 14:45:00.955653,-149
2021-10-14 14:45:00.955662,-122
2021-10-14 14:45:00.955670,-110
2021-10-14 14:45:00.955678,-115
2021-10-14 14:45:00.955687,-107
2021-10-14 14:45:00.955695,-105
2021-10-14 14:45:00.955704,-120
2021-10-14 14:45:00.955712,-115
2021-10-14 14:45:00.955720,-95
2021-10-14 14:45:00.955729,-110
2021-10-14 14:45:00.955737,-149
2021-10-14 14:45:00.955746,-147
2021-10-14 14:45:00.955754,-117
2021-10-14 14:45:00.955762,-110
2021-10-14 14:45:00.955770,-115
2021-10-14 14:45:00.955779,-110
2021-10-14 14:45:00.955787,-110
2021-10-14 14:45:00.955795,-130
2021-10-14 14:45:00.955808,-147
2021-10-14 14:45:00.955816,-139
2021-10-14 14:45:00.955825,-107
2021-10-14 14:45:00.955833,-71
2021-10-14 14:45:00.955841,-53
2021-10-14 14:45:00.955850,-53
2021-10-14 14:45:00.955858,-51
2021-10-14 14:45:01.225995,-63
2021-10-14 14:45:01.226017,-85
2021-10-14 14:45:01.226027,-83
2021-10-14 14:45:01.226036,-83
2021-10-14 14:45:01.226044,-105
2021-10-14 14:45:01.226053,-105
2021-10-14 14:45:01.226062,-73
2021-10-14 14:45:01.226070,-66
2021-10-14 14:45:01.226079,-80
2021-10-14 14:45:01.226087,-68
2021-10-14 14:45:01.226096,66
2021-10-14 14:45:01.226104,390
2021-10-14 14:45:01.226113,743
2021-10-14 14:45:01.226121,709
2021-10-14 14:45:01.226130,36
2021-10-14 14:45:01.226138,-559
2021-10-14 14:45:01.226147,-311
2021-10-14 14:45:01.226155,66
2021-10-14 14:45:01.226164,-24
2021-10-14 14:45:01.226172,-66
2021-10-14 14:45:01.226181,34
2021-10-14 14:45:01.226189,14
2021-10-14 14:45:01.226198,2
2021-10-14 14:45:01.226206,63
2021-10-14 14:45:01.226215,83
2021-10-14 14:45:01.226223,73
2021-10-14 14:45:01.226232,88
2021-10-14 14:45:01.226240,110
2021-10-14 14:45:01.226249,130
2021-10-14 14:45:01.226257,159
2021-10-14 14:45:01.539330,186
2021-10-14 14:45:01.539353,211
2021-10-14 14:45:01.539362,242
2021-10-14 14:45:01.539371,267
2021-10-14 14:45:01.539380,287
2021-10-14 14:45:01.539388,321
2021-10-14 14:45:01.539397,353
2021-10-14 14:45:01.539405,345
2021-10-14 14:45:01.539413,318
2021-10-14 14:45:01.539423,314
2021-10-14 14:45:01.539432,301
2021-10-14 14:45:01.539440,255
2021-10-14 14:45:01.539448,201
2021-10-14 14:45:01.539457,137
2021-10-14 14:45:01.539465,46
2021-10-14 14:45:01.539474,-41
2021-10-14 14:45:01.539482,-95
2021-10-14 14:45:01.539491,-130
2021-10-14 14:45:01.539499,-166
2021-10-14 14:45:01.539507,-181
2021-10-14 14:45:01.539516,-186
2021-10-14 14:45:01.539524,-213
2021-10-14 14:45:01.539533,-225
2021-10-14 14:45:01.539541,-191
2021-10-14 14:45:01.539549,-169
2021-10-14 14:45:01.539558,-174
2021-10-14 14:45:01.539566,-161
2021-10-14 14:45:01.539574,-144
2021-10-14 14:45:01.539583,-144
2021-10-14 14:45:01.539591,-139
2021-10-14 14:45:01.675587,-127
2021-10-14 14:45:01.675608,-122
2021-10-14 14:45:01.675617,-125
2021-10-14 14:45:01.675626,-122
2021-10-14 14:45:01.675635,-120
2021-10-14 14:45:01.675643,-127
2021-10-14 14:45:01.675652,-134
2021-10-14 14:45:01.675660,-142
2021-10-14 14:45:01.675669,-147
2021-10-14 14:45:01.675677,-142
2021-10-14 14:45:01.675686,-134
2021-10-14 14:45:01.675694,-139
2021-10-14 14:45:01.675703,-147
2021-10-14 14:45:01.675711,-144
2021-10-14 14:45:01.675720,-149
2021-10-14 14:45:01.675728,-149
2021-10-14 14:45:01.675736,-149
2021-10-14 14:45:01.675745,-161
2021-10-14 14:45:01.675753,-164
2021-10-14 14:45:01.675761,-152
2021-10-14 14:45:01.675770,-139
2021-10-14 14:45:01.675778,-110
2021-10-14 14:45:01.675786,-85
2021-10-14 14:45:01.675795,-80
2021-10-14 14:45:01.675803,-76
2021-10-14 14:45:01.675812,-83
2021-10-14 14:45:01.675820,-115
2021-10-14 14:45:01.675829,-130
2021-10-14 14:45:01.675837,-120
2021-10-14 14:45:01.675846,-110
2021-10-14 14:45:01.944994,-98
2021-10-14 14:45:01.945017,-90
2021-10-14 14:45:01.945026,-100
2021-10-14 14:45:01.945035,-95
2021-10-14 14:45:01.945044,-49
2021-10-14 14:45:01.945053,93
2021-10-14 14:45:01.945062,399
2021-10-14 14:45:01.945070,721
2021-10-14 14:45:01.945079,635
2021-10-14 14:45:01.945087,-90
2021-10-14 14:45:01.945096,-652
2021-10-14 14:45:01.945104,-304
2021-10-14 14:45:01.945113,66
2021-10-14 14:45:01.945121,-85
2021-10-14 14:45:01.945130,-107
2021-10-14 14:45:01.945138,12
2021-10-14 14:45:01.945147,-19
2021-10-14 14:45:01.945155,-26
2021-10-14 14:45:01.945163,34
2021-10-14 14:45:01.945172,31
2021-10-14 14:45:01.945180,29
2021-10-14 14:45:01.945189,71
2021-10-14 14:45:01.945197,83
2021-10-14 14:45:01.945205,85
2021-10-14 14:45:01.945214,127
2021-10-14 14:45:01.945222,161
2021-10-14 14:45:01.945230,171
2021-10-14 14:45:01.945239,203
2021-10-14 14:45:01.945247,255
2021-10-14 14:45:01.945256,301
2021-10-14 14:45:02.125978,331
2021-10-14 14:45:02.125999,338
2021-10-14 14:45:02.126009,338
2021-10-14 14:45:02.126017,343
2021-10-14 14:45:02.126026,343
2021-10-14 14:45:02.126034,323
2021-10-14 14:45:02.126042,277
2021-10-14 14:45:02.126051,223
2021-10-14 14:45:02.126059,149
2021-10-14 14:45:02.126068,49
2021-10-14 14:45:02.126076,-39
2021-10-14 14:45:02.126085,-98
2021-10-14 14:45:02.126093,-157
2021-10-14 14:45:02.126102,-201
2021-10-14 14:45:02.126110,-211
2021-10-14 14:45:02.126119,-211
2021-10-14 14:45:02.126127,-215
2021-10-14 14:45:02.126135,-211
2021-10-14 14:45:02.126143,-196
2021-10-14 14:45:02.126151,-191
2021-10-14 14:45:02.126160,-188
2021-10-14 14:45:02.126168,-176
2021-10-14 14:45:02.126176,-159
2021-10-14 14:45:02.126185,-152
2021-10-14 14:45:02.126193,-152
2021-10-14 14:45:02.126201,-149
2021-10-14 14:45:02.126210,-142
2021-10-14 14:45:02.126218,-142
2021-10-14 14:45:02.126226,-134
2021-10-14 14:45:02.126234,-137
2021-10-14 14:45:02.350576,-147
2021-10-14 14:45:02.350598,-144
2021-10-14 14:45:02.350607,-132
2021-10-14 14:45:02.350616,-134
2021-10-14 14:45:02.350625,-149
2021-10-14 14:45:02.350633,-157
2021-10-14 14:45:02.350642,-157
2021-10-14 14:45:02.350650,-154
2021-10-14 14:45:02.350659,-159
2021-10-14 14:45:02.350667,-169
2021-10-14 14:45:02.350676,-164
2021-10-14 14:45:02.350684,-149
2021-10-14 14:45:02.350693,-130
2021-10-14 14:45:02.350701,-98
2021-10-14 14:45:02.350709,-88
2021-10-14 14:45:02.350718,-98
2021-10-14 14:45:02.350726,-100
2021-10-14 14:45:02.350735,-100
2021-10-14 14:45:02.350743,-115
2021-10-14 14:45:02.350751,-142
2021-10-14 14:45:02.350760,-149
2021-10-14 14:45:02.350768,-130
2021-10-14 14:45:02.350777,-107
2021-10-14 14:45:02.350785,-115
2021-10-14 14:45:02.350794,-120
2021-10-14 14:45:02.350802,-90
2021-10-14 14:45:02.350811,-36
2021-10-14 14:45:02.350820,107
2021-10-14 14:45:02.350828,426
2021-10-14 14:45:02.350840,736
2021-10-14 14:45:02.575648,539
2021-10-14 14:45:02.575671,-250
2021-10-14 14:45:02.575680,-630
2021-10-14 14:45:02.575689,-169
2021-10-14 14:45:02.575698,85
2021-10-14 14:45:02.575707,-98
2021-10-14 14:45:02.575715,-73
2021-10-14 14:45:02.575724,46
2021-10-14 14:45:02.575732,22
2021-10-14 14:45:02.575741,7
2021-10-14 14:45:02.575749,34
2021-10-14 14:45:02.575757,39
2021-10-14 14:45:02.575766,56
2021-10-14 14:45:02.575775,93
2021-10-14 14:45:02.575783,112
2021-10-14 14:45:02.575792,120
2021-10-14 14:45:02.575800,149
2021-10-14 14:45:02.575809,193
2021-10-14 14:45:02.575817,230
2021-10-14 14:45:02.575826,252
2021-10-14 14:45:02.575835,289
2021-10-14 14:45:02.575843,336
2021-10-14 14:45:02.575852,353
2021-10-14 14:45:02.575860,345
2021-10-14 14:45:02.575869,353
2021-10-14 14:45:02.575877,363
2021-10-14 14:45:02.575885,348
2021-10-14 14:45:02.575894,314
2021-10-14 14:45:02.575902,264
2021-10-14 14:45:02.575911,191
2021-10-14 14:45:02.800985,112
2021-10-14 14:45:02.801008,39
2021-10-14 14:45:02.801018,-41
2021-10-14 14:45:02.801026,-112
2021-10-14 14:45:02.801035,-161
2021-10-14 14:45:02.801043,-196
2021-10-14 14:45:02.801052,-198
2021-10-14 14:45:02.801060,-191
2021-10-14 14:45:02.801069,-191
2021-10-14 14:45:02.801077,-188
2021-10-14 14:45:02.801086,-179
2021-10-14 14:45:02.801094,-171
2021-10-14 14:45:02.801102,-157
2021-10-14 14:45:02.801111,-137
2021-10-14 14:45:02.801119,-125
2021-10-14 14:45:02.801128,-125
2021-10-14 14:45:02.801136,-132
2021-10-14 14:45:02.801145,-115
2021-10-14 14:45:02.801153,-100
2021-10-14 14:45:02.801162,-112
2021-10-14 14:45:02.801170,-115
2021-10-14 14:45:02.801179,-103
2021-10-14 14:45:02.801187,-110
2021-10-14 14:45:02.801195,-125
2021-10-14 14:45:02.801204,-132
2021-10-14 14:45:02.801212,-132
2021-10-14 14:45:02.801221,-125
2021-10-14 14:45:02.801229,-122
2021-10-14 14:45:02.801237,-127
2021-10-14 14:45:02.801246,-127
2021-10-14 14:45:03.071013,-139
2021-10-14 14:45:03.071037,-161
2021-10-14 14:45:03.071046,-147
2021-10-14 14:45:03.071055,-117
2021-10-14 14:45:03.071064,-103
2021-10-14 14:45:03.071073,-90
2021-10-14 14:45:03.071082,-80
2021-10-14 14:45:03.071090,-85
2021-10-14 14:45:03.071099,-107
2021-10-14 14:45:03.071107,-134
2021-10-14 14:45:03.071116,-137
2021-10-14 14:45:03.071124,-125
2021-10-14 14:45:03.071133,-115
2021-10-14 14:45:03.071141,-105
2021-10-14 14:45:03.071150,-95
2021-10-14 14:45:03.071158,-107
2021-10-14 14:45:03.071167,-112
2021-10-14 14:45:03.071176,-71
2021-10-14 14:45:03.071184,17
2021-10-14 14:45:03.071193,233
2021-10-14 14:45:03.071201,593
2021-10-14 14:45:03.071210,797
2021-10-14 14:45:03.071218,370
2021-10-14 14:45:03.071226,-409
2021-10-14 14:45:03.071235,-476
2021-10-14 14:45:03.071243,4
2021-10-14 14:45:03.071251,53
2021-10-14 14:45:03.071260,-83
2021-10-14 14:45:03.071268,19
2021-10-14 14:45:03.071277,61
2021-10-14 14:45:03.340375,7
2021-10-14 14:45:03.340398,41
2021-10-14 14:45:03.340407,80
2021-10-14 14:45:03.340416,58
2021-10-14 14:45:03.340425,71
2021-10-14 14:45:03.340434,107
2021-10-14 14:45:03.340442,127
2021-10-14 14:45:03.340451,152
2021-10-14 14:45:03.340459,184
2021-10-14 14:45:03.340467,201
2021-10-14 14:45:03.340476,218
2021-10-14 14:45:03.340484,255
2021-10-14 14:45:03.340493,296
2021-10-14 14:45:03.340501,333
2021-10-14 14:45:03.340510,350
2021-10-14 14:45:03.340518,343
2021-10-14 14:45:03.340527,343
2021-10-14 14:45:03.340535,348
2021-10-14 14:45:03.340543,328
2021-10-14 14:45:03.340552,299
2021-10-14 14:45:03.340560,264
2021-10-14 14:45:03.340569,188
2021-10-14 14:45:03.340577,90
2021-10-14 14:45:03.340586,14
2021-10-14 14:45:03.340594,-49
2021-10-14 14:45:03.340602,-98
2021-10-14 14:45:03.340611,-130
2021-10-14 14:45:03.340619,-152
2021-10-14 14:45:03.340628,-161
2021-10-14 14:45:03.340636,-157
2021-10-14 14:45:03.564366,-157
2021-10-14 14:45:03.564389,-164
2021-10-14 14:45:03.564399,-169
2021-10-14 14:45:03.564408,-161
2021-10-14 14:45:03.564417,-149
2021-10-14 14:45:03.564426,-147
2021-10-14 14:45:03.564434,-127
2021-10-14 14:45:03.564443,-115
2021-10-14 14:45:03.564451,-142
2021-10-14 14:45:03.564459,-139
2021-10-14 14:45:03.564468,-103
2021-10-14 14:45:03.564476,-100
2021-10-14 14:45:03.564485,-117
2021-10-14 14:45:03.564493,-112
2021-10-14 14:45:03.564501,-125
2021-10-14 14:45:03.564510,-152
2021-10-14 14:45:03.564518,-137
2021-10-14 14:45:03.564527,-103
2021-10-14 14:45:03.564535,-95
2021-10-14 14:45:03.564544,-127
2021-10-14 14:45:03.564552,-154
2021-10-14 14:45:03.564561,-137
2021-10-14 14:45:03.564569,-115
2021-10-14 14:45:03.564577,-134
2021-10-14 14:45:03.564586,-142
2021-10-14 14:45:03.564594,-115
2021-10-14 14:45:03.564603,-88
2021-10-14 14:45:03.564611,-76
2021-10-14 14:45:03.564619,-78
2021-10-14 14:45:03.564628,-73
2021-10-14 14:45:03.745642,-63
2021-10-14 14:45:03.745664,-80
2021-10-14 14:45:03.745673,-105
2021-10-14 14:45:03.745682,-107
2021-10-14 14:45:03.745691,-88
2021-10-14 14:45:03.745699,-80
2021-10-14 14:45:03.745708,-103
2021-10-14 14:45:03.745716,-112
2021-10-14 14:45:03.745725,-103
2021-10-14 14:45:03.745733,-103
2021-10-14 14:45:03.745742,-61
2021-10-14 14:45:03.745750,117
2021-10-14 14:45:03.745759,461
2021-10-14 14:45:03.745767,775
2021-10-14 14:45:03.745776,583
2021-10-14 14:45:03.745784,-201
2021-10-14 14:45:03.745793,-606
2021-10-14 14:45:03.745801,-171
2021-10-14 14:45:03.745809,83
2021-10-14 14:45:03.745818,-103
2021-10-14 14:45:03.745826,-73
2021-10-14 14:45:03.745834,36
2021-10-14 14:45:03.745843,-12
2021-10-14 14:45:03.745851,-19
2021-10-14 14:45:03.745859,51
2021-10-14 14:45:03.745868,63
2021-10-14 14:45:03.745876,46
2021-10-14 14:45:03.745885,63
2021-10-14 14:45:03.745893,105
2021-10-14 14:45:03.745902,137
2021-10-14 14:45:03.971014,154
2021-10-14 14:45:03.971037,176
2021-10-14 14:45:03.971046,213
2021-10-14 14:45:03.971055,240
2021-10-14 14:45:03.971064,255
2021-10-14 14:45:03.971072,294
2021-10-14 14:45:03.971081,321
2021-10-14 14:45:03.971089,309
2021-10-14 14:45:03.971097,306
2021-10-14 14:45:03.971106,314
2021-10-14 14:45:03.971114,296
2021-10-14 14:45:03.971123,277
2021-10-14 14:45:03.971131,240
2021-10-14 14:45:03.971139,152
2021-10-14 14:45:03.971148,56
2021-10-14 14:45:03.971156,-2
2021-10-14 14:45:03.971165,-61
2021-10-14 14:45:03.971173,-134
2021-10-14 14:45:03.971181,-181
2021-10-14 14:45:03.971190,-179
2021-10-14 14:45:03.971198,-198
2021-10-14 14:45:03.971206,-250
2021-10-14 14:45:03.971215,-252
2021-10-14 14:45:03.971223,-208
2021-10-14 14:45:03.971231,-196
2021-10-14 14:45:03.971240,-203
2021-10-14 14:45:03.971248,-174
2021-10-14 14:45:03.971256,-142
2021-10-14 14:45:03.971269,-154
2021-10-14 14:45:03.971277,-157
2021-10-14 14:45:04.240632,-134
2021-10-14 14:45:04.240654,-157
2021-10-14 14:45:04.240663,-171
2021-10-14 14:45:04.240673,-137
2021-10-14 14:45:04.240681,-132
2021-10-14 14:45:04.240690,-149
2021-10-14 14:45:04.240698,-134
2021-10-14 14:45:04.240707,-142
2021-10-14 14:45:04.240716,-186
2021-10-14 14:45:04.240724,-186
2021-10-14 14:45:04.240733,-174
2021-10-14 14:45:04.240741,-206
2021-10-14 14:45:04.240750,-213
2021-10-14 14:45:04.240758,-196
2021-10-14 14:45:04.240767,-206
2021-10-14 14:45:04.240775,-206
2021-10-14 14:45:04.240783,-154
2021-10-14 14:45:04.240792,-117
2021-10-14 14:45:04.240800,-139
2021-10-14 14:45:04.240808,-144
2021-10-14 14:45:04.240817,-117
2021-10-14 14:45:04.240825,-154
2021-10-14 14:45:04.240833,-198
2021-10-14 14:45:04.240842,-171
2021-10-14 14:45:04.240850,-137
2021-10-14 14:45:04.240859,-161
2021-10-14 14:45:04.240867,-174
2021-10-14 14:45:04.240875,-137
2021-10-14 14:45:04.240884,-137
2021-10-14 14:45:04.240892,-184
2021-10-14 14:45:04.465303,-157
2021-10-14 14:45:04.465325,-7
2021-10-14 14:45:04.465335,267
2021-10-14 14:45:04.465344,591
2021-10-14 14:45:04.465352,615
2021-10-14 14:45:04.465361,-19
2021-10-14 14:45:04.465369,-709
2021-10-14 14:45:04.465378,-495
2021-10-14 14:45:04.465386,-2
2021-10-14 14:45:04.465395,-61
2021-10-14 14:45:04.465403,-152
2021-10-14 14:45:04.465412,-46
2021-10-14 14:45:04.465420,-83
2021-10-14 14:45:04.465429,-139
2021-10-14 14:45:04.465437,-68
2021-10-14 14:45:04.465446,-36
2021-10-14 14:45:04.465454,-44
2021-10-14 14:45:04.465463,-9
2021-10-14 14:45:04.465471,9
2021-10-14 14:45:04.465480,26
2021-10-14 14:45:04.465488,76
2021-10-14 14:45:04.465497,80
2021-10-14 14:45:04.465505,73
2021-10-14 14:45:04.465514,134
2021-10-14 14:45:04.465522,206
2021-10-14 14:45:04.465530,228
2021-10-14 14:45:04.465539,255
2021-10-14 14:45:04.465547,284
2021-10-14 14:45:04.465556,277
2021-10-14 14:45:04.465564,264
2021-10-14 14:45:04.691011,264
2021-10-14 14:45:04.691032,235
2021-10-14 14:45:04.691041,206
2021-10-14 14:45:04.691050,159
2021-10-14 14:45:04.691059,53
2021-10-14 14:45:04.691068,-46
2021-10-14 14:45:04.691076,-125
2021-10-14 14:45:04.691085,-196
2021-10-14 14:45:04.691093,-235
2021-10-14 14:45:04.691102,-279
2021-10-14 14:45:04.691110,-326
2021-10-14 14:45:04.691119,-321
2021-10-14 14:45:04.691128,-306
2021-10-14 14:45:04.691136,-296
2021-10-14 14:45:04.691145,-257
2021-10-14 14:45:04.691153,-252
2021-10-14 14:45:04.691162,-304
2021-10-14 14:45:04.691170,-299
2021-10-14 14:45:04.691179,-247
2021-10-14 14:45:04.691187,-250
2021-10-14 14:45:04.691196,-255
2021-10-14 14:45:04.691204,-233
2021-10-14 14:45:04.691213,-220
2021-10-14 14:45:04.691221,-213
2021-10-14 14:45:04.691230,-220
2021-10-14 14:45:04.691238,-228
2021-10-14 14:45:04.691246,-201
2021-10-14 14:45:04.691255,-206
2021-10-14 14:45:04.691264,-247
2021-10-14 14:45:04.691272,-225
2021-10-14 14:45:04.871045,-186
2021-10-14 14:45:04.871065,-213
2021-10-14 14:45:04.871074,-240
2021-10-14 14:45:04.871083,-220
2021-10-14 14:45:04.871091,-184
2021-10-14 14:45:04.871100,-157
2021-10-14 14:45:04.871108,-166
2021-10-14 14:45:04.871117,-184
2021-10-14 14:45:04.871125,-179
2021-10-14 14:45:04.871134,-196
2021-10-14 14:45:04.871142,-223
2021-10-14 14:45:04.871151,-206
2021-10-14 14:45:04.871159,-179
2021-10-14 14:45:04.871167,-186
2021-10-14 14:45:04.871176,-198
2021-10-14 14:45:04.871184,-184
2021-10-14 14:45:04.871193,-179
2021-10-14 14:45:04.871201,-213
2021-10-14 14:45:04.871209,-201
2021-10-14 14:45:04.871218,-61
2021-10-14 14:45:04.871226,203
2021-10-14 14:45:04.871234,510
2021-10-14 14:45:04.871243,559
2021-10-14 14:45:04.871251,-12
2021-10-14 14:45:04.871260,-674
2021-10-14 14:45:04.871268,-495
2021-10-14 14:45:04.871276,-29
2021-10-14 14:45:04.871285,-73
2021-10-14 14:45:04.871293,-161
2021-10-14 14:45:04.871302,-49
2021-10-14 14:45:05.141138,-22
2021-10-14 14:45:05.141162,-29
2021-10-14 14:45:05.141171,2
2021-10-14 14:45:05.141180,-29
2021-10-14 14:45:05.141188,-14
2021-10-14 14:45:05.141197,63
2021-10-14 14:45:05.141206,78
2021-10-14 14:45:05.141214,71
2021-10-14 14:45:05.141223,112
2021-10-14 14:45:05.141231,152
2021-10-14 14:45:05.141239,179
2021-10-14 14:45:05.141248,223
2021-10-14 14:45:05.141256,260
2021-10-14 14:45:05.141265,287
2021-10-14 14:45:05.141273,331
2021-10-14 14:45:05.141282,370
2021-10-14 14:45:05.141290,368
2021-10-14 14:45:05.141299,358
2021-10-14 14:45:05.141307,358
2021-10-14 14:45:05.141315,333
2021-10-14 14:45:05.141324,287
2021-10-14 14:45:05.141332,213
2021-10-14 14:45:05.141341,117
2021-10-14 14:45:05.141349,51
2021-10-14 14:45:05.141357,-34
2021-10-14 14:45:05.141366,-142
2021-10-14 14:45:05.141374,-174
2021-10-14 14:45:05.141382,-171
2021-10-14 14:45:05.141391,-201
2021-10-14 14:45:05.141399,-203
2021-10-14 14:45:05.366018,-176
2021-10-14 14:45:05.366039,-169
2021-10-14 14:45:05.366049,-174
2021-10-14 14:45:05.366058,-164
2021-10-14 14:45:05.366067,-147
2021-10-14 14:45:05.366075,-137
2021-10-14 14:45:05.366084,-115
2021-10-14 14:45:05.366093,-88
2021-10-14 14:45:05.366101,-85
2021-10-14 14:45:05.366110,-88
2021-10-14 14:45:05.366118,-73
2021-10-14 14:45:05.366127,-71
2021-10-14 14:45:05.366135,-76
2021-10-14 14:45:05.366144,-68
2021-10-14 14:45:05.366152,-78
2021-10-14 14:45:05.366161,-90
2021-10-14 14:45:05.366169,-83
2021-10-14 14:45:05.366178,-71
2021-10-14 14:45:05.366187,-63
2021-10-14 14:45:05.366195,-66
2021-10-14 14:45:05.366204,-51
2021-10-14 14:45:05.366212,-26
2021-10-14 14:45:05.366221,-29
2021-10-14 14:45:05.366230,-29
2021-10-14 14:45:05.366238,-31
2021-10-14 14:45:05.366246,-71
2021-10-14 14:45:05.366255,-110
2021-10-14 14:45:05.366263,-95
2021-10-14 14:45:05.366272,-78
2021-10-14 14:45:05.366280,-90
2021-10-14 14:45:05.724688,-88
2021-10-14 14:45:05.724709,-61
2021-10-14 14:45:05.724718,-49
2021-10-14 14:45:05.724727,-66
2021-10-14 14:45:05.724736,-39
2021-10-14 14:45:05.724745,120
2021-10-14 14:45:05.724753,429
2021-10-14 14:45:05.724762,738
2021-10-14 14:45:05.724771,642
2021-10-14 14:45:05.724779,-88
2021-10-14 14:45:05.724788,-613
2021-10-14 14:45:05.724796,-223
2021-10-14 14:45:05.724805,130
2021-10-14 14:45:05.724813,-31
2021-10-14 14:45:05.724822,-29
2021-10-14 14:45:05.724830,98
2021-10-14 14:45:05.724839,41
2021-10-14 14:45:05.724848,12
2021-10-14 14:45:05.724856,90
2021-10-14 14:45:05.724864,125
2021-10-14 14:45:05.724873,105
2021-10-14 14:45:05.724882,115
2021-10-14 14:45:05.724890,164
2021-10-14 14:45:05.724899,196
2021-10-14 14:45:05.724907,198
2021-10-14 14:45:05.724916,215
2021-10-14 14:45:05.724924,267
2021-10-14 14:45:05.724933,309
2021-10-14 14:45:05.724942,341
2021-10-14 14:45:05.724950,382
2021-10-14 14:45:05.815969,422
2021-10-14 14:45:05.815989,444
2021-10-14 14:45:05.815998,441
2021-10-14 14:45:05.816007,419
2021-10-14 14:45:05.816016,399
2021-10-14 14:45:05.816024,385
2021-10-14 14:45:05.816033,336
2021-10-14 14:45:05.816041,247
2021-10-14 14:45:05.816050,139
2021-10-14 14:45:05.816059,41
2021-10-14 14:45:05.816067,-29
2021-10-14 14:45:05.816076,-71
2021-10-14 14:45:05.816084,-93
2021-10-14 14:45:05.816092,-112
2021-10-14 14:45:05.816101,-137
2021-10-14 14:45:05.816109,-147
2021-10-14 14:45:05.816118,-134
2021-10-14 14:45:05.816126,-130
2021-10-14 14:45:05.816135,-130
2021-10-14 14:45:05.816143,-115
2021-10-14 14:45:05.816152,-98
2021-10-14 14:45:05.816160,-73
2021-10-14 14:45:05.816168,-56
2021-10-14 14:45:05.816180,-83
2021-10-14 14:45:05.816188,-85
2021-10-14 14:45:05.816197,-44
2021-10-14 14:45:05.816205,-36
2021-10-14 14:45:05.816214,-63
2021-10-14 14:45:05.816222,-76
2021-10-14 14:45:05.816231,-78
2021-10-14 14:45:06.040646,-63
2021-10-14 14:45:06.040668,-49
2021-10-14 14:45:06.040677,-73
2021-10-14 14:45:06.040686,-93
2021-10-14 14:45:06.040694,-68
2021-10-14 14:45:06.040703,-63
2021-10-14 14:45:06.040712,-95
2021-10-14 14:45:06.040720,-83
2021-10-14 14:45:06.040729,-34
2021-10-14 14:45:06.040737,-26
2021-10-14 14:45:06.040745,-22
2021-10-14 14:45:06.040754,-9
2021-10-14 14:45:06.040762,-44
2021-10-14 14:45:06.040771,-71
2021-10-14 14:45:06.040779,-53
2021-10-14 14:45:06.040788,-66
2021-10-14 14:45:06.040796,-93
2021-10-14 14:45:06.040805,-73
2021-10-14 14:45:06.040813,-46
2021-10-14 14:45:06.040822,-56
2021-10-14 14:45:06.040830,-76
2021-10-14 14:45:06.040838,-68
2021-10-14 14:45:06.040847,7
2021-10-14 14:45:06.040856,218
2021-10-14 14:45:06.040864,569
2021-10-14 14:45:06.040872,790
2021-10-14 14:45:06.040881,380
2021-10-14 14:45:06.040889,-446
2021-10-14 14:45:06.040898,-564
2021-10-14 14:45:06.040906,-26
2021-10-14 14:45:06.311030,66
2021-10-14 14:45:06.311053,-95
2021-10-14 14:45:06.311062,-4
2021-10-14 14:45:06.311071,49
2021-10-14 14:45:06.311080,-2
2021-10-14 14:45:06.311088,22
2021-10-14 14:45:06.311097,68
2021-10-14 14:45:06.311106,71
2021-10-14 14:45:06.311114,71
2021-10-14 14:45:06.311123,98
2021-10-14 14:45:06.311131,134
2021-10-14 14:45:06.311140,159
2021-10-14 14:45:06.311148,184
2021-10-14 14:45:06.311157,223
2021-10-14 14:45:06.311165,260
2021-10-14 14:45:06.311174,294
2021-10-14 14:45:06.311182,321
2021-10-14 14:45:06.311191,336
2021-10-14 14:45:06.311199,363
2021-10-14 14:45:06.311208,395
2021-10-14 14:45:06.311216,402
2021-10-14 14:45:06.311225,399
2021-10-14 14:45:06.311233,387
2021-10-14 14:45:06.311241,345
2021-10-14 14:45:06.311250,277
2021-10-14 14:45:06.311258,193
2021-10-14 14:45:06.311267,95
2021-10-14 14:45:06.311275,9
2021-10-14 14:45:06.311284,-58
2021-10-14 14:45:06.311292,-117
2021-10-14 14:45:06.535405,-161
2021-10-14 14:45:06.535428,-169
2021-10-14 14:45:06.535437,-154
2021-10-14 14:45:06.535446,-159
2021-10-14 14:45:06.535455,-186
2021-10-14 14:45:06.535463,-191
2021-10-14 14:45:06.535472,-159
2021-10-14 14:45:06.535481,-144
2021-10-14 14:45:06.535489,-152
2021-10-14 14:45:06.535498,-144
2021-10-14 14:45:06.535506,-127
2021-10-14 14:45:06.535515,-127
2021-10-14 14:45:06.535523,-122
2021-10-14 14:45:06.535532,-95
2021-10-14 14:45:06.535540,-85
2021-10-14 14:45:06.535549,-103
2021-10-14 14:45:06.535558,-112
2021-10-14 14:45:06.535566,-115
2021-10-14 14:45:06.535575,-115
2021-10-14 14:45:06.535583,-110
2021-10-14 14:45:06.535592,-112
2021-10-14 14:45:06.535600,-115
2021-10-14 14:45:06.535608,-88
2021-10-14 14:45:06.535617,-41
2021-10-14 14:45:06.535625,-19
2021-10-14 14:45:06.535634,-39
2021-10-14 14:45:06.535642,-58
2021-10-14 14:45:06.535651,-58
2021-10-14 14:45:06.535659,-73
2021-10-14 14:45:06.535668,-88
2021-10-14 14:45:06.760722,-73
2021-10-14 14:45:06.760745,-63
2021-10-14 14:45:06.760755,-68
2021-10-14 14:45:06.760764,-76
2021-10-14 14:45:06.760773,-98
2021-10-14 14:45:06.760781,-110
2021-10-14 14:45:06.760790,-71
2021-10-14 14:45:06.760799,61
2021-10-14 14:45:06.760807,343
2021-10-14 14:45:06.760816,684
2021-10-14 14:45:06.760824,682
2021-10-14 14:45:06.760833,-12
2021-10-14 14:45:06.760841,-696
2021-10-14 14:45:06.760850,-414
2021-10-14 14:45:06.760858,56
2021-10-14 14:45:06.760867,-63
2021-10-14 14:45:06.760875,-142
2021-10-14 14:45:06.760884,7
2021-10-14 14:45:06.760892,7
2021-10-14 14:45:06.760901,-46
2021-10-14 14:45:06.760909,2
2021-10-14 14:45:06.760918,49
2021-10-14 14:45:06.760926,36
2021-10-14 14:45:06.760935,46
2021-10-14 14:45:06.760943,85
2021-10-14 14:45:06.760952,115
2021-10-14 14:45:06.760960,139
2021-10-14 14:45:06.760968,174
2021-10-14 14:45:06.760977,208
2021-10-14 14:45:06.760985,240
2021-10-14 14:45:06.986055,282
2021-10-14 14:45:06.986077,316
2021-10-14 14:45:06.986087,336
2021-10-14 14:45:06.986096,355
2021-10-14 14:45:06.986105,370
2021-10-14 14:45:06.986113,368
2021-10-14 14:45:06.986122,355
2021-10-14 14:45:06.986130,318
2021-10-14 14:45:06.986139,262
2021-10-14 14:45:06.986147,181
2021-10-14 14:45:06.986156,76
2021-10-14 14:45:06.986164,-31
2021-10-14 14:45:06.986173,-107
2021-10-14 14:45:06.986181,-157
2021-10-14 14:45:06.986190,-213
2021-10-14 14:45:06.986199,-264
2021-10-14 14:45:06.986208,-264
2021-10-14 14:45:06.986216,-250
2021-10-14 14:45:06.986224,-257
2021-10-14 14:45:06.986233,-250
2021-10-14 14:45:06.986241,-218
2021-10-14 14:45:06.986250,-208
2021-10-14 14:45:06.986258,-203
2021-10-14 14:45:06.986267,-179
2021-10-14 14:45:06.986275,-174
2021-10-14 14:45:06.986284,-181
2021-10-14 14:45:06.986292,-161
2021-10-14 14:45:06.986301,-152
2021-10-14 14:45:06.986310,-154
2021-10-14 14:45:06.986318,-139
2021-10-14 14:45:07.256071,-132
2021-10-14 14:45:07.256093,-137
2021-10-14 14:45:07.256102,-130
2021-10-14 14:45:07.256111,-127
2021-10-14 14:45:07.256119,-142
2021-10-14 14:45:07.256128,-144
2021-10-14 14:45:07.256136,-112
2021-10-14 14:45:07.256145,-76
2021-10-14 14:45:07.256153,-83
2021-10-14 14:45:07.256162,-112
2021-10-14 14:45:07.256170,-115
2021-10-14 14:45:07.256179,-110
2021-10-14 14:45:07.256188,-127
2021-10-14 14:45:07.256196,-127
2021-10-14 14:45:07.256205,-115
2021-10-14 14:45:07.256213,-134
2021-10-14 14:45:07.256222,-144
2021-10-14 14:45:07.256230,-115
2021-10-14 14:45:07.256239,-100
2021-10-14 14:45:07.256247,-103
2021-10-14 14:45:07.256255,-51
2021-10-14 14:45:07.256264,157
2021-10-14 14:45:07.256273,512
2021-10-14 14:45:07.256281,728
2021-10-14 14:45:07.256289,350
2021-10-14 14:45:07.256298,-463
2021-10-14 14:45:07.256306,-642
2021-10-14 14:45:07.256315,-95
2021-10-14 14:45:07.256323,63
2021-10-14 14:45:07.256332,-112
2021-10-14 14:45:07.435784,-39
2021-10-14 14:45:07.435807,31
2021-10-14 14:45:07.435816,-24
2021-10-14 14:45:07.435826,0
2021-10-14 14:45:07.435835,53
2021-10-14 14:45:07.435843,41
2021-10-14 14:45:07.435852,29
2021-10-14 14:45:07.435861,56
2021-10-14 14:45:07.435869,80
2021-10-14 14:45:07.435878,100
2021-10-14 14:45:07.435886,130
2021-10-14 14:45:07.435895,171
2021-10-14 14:45:07.435904,206
2021-10-14 14:45:07.435912,238
2021-10-14 14:45:07.435921,279
2021-10-14 14:45:07.435929,289
2021-10-14 14:45:07.435938,277
2021-10-14 14:45:07.435946,304
2021-10-14 14:45:07.435955,323
2021-10-14 14:45:07.435963,301
2021-10-14 14:45:07.435972,272
2021-10-14 14:45:07.435980,233
2021-10-14 14:45:07.435989,169
2021-10-14 14:45:07.435998,76
2021-10-14 14:45:07.436006,-39
2021-10-14 14:45:07.436015,-127
2021-10-14 14:45:07.436023,-174
2021-10-14 14:45:07.436032,-213
2021-10-14 14:45:07.436040,-240
2021-10-14 14:45:07.436049,-240
2021-10-14 14:45:07.750577,-233
2021-10-14 14:45:07.750599,-235
2021-10-14 14:45:07.750609,-235
2021-10-14 14:45:07.750618,-228
2021-10-14 14:45:07.750626,-203
2021-10-14 14:45:07.750635,-184
2021-10-14 14:45:07.750643,-186
2021-10-14 14:45:07.750652,-179
2021-10-14 14:45:07.750661,-161
2021-10-14 14:45:07.750669,-164
2021-10-14 14:45:07.750678,-159
2021-10-14 14:45:07.750687,-132
2021-10-14 14:45:07.750695,-130
2021-10-14 14:45:07.750704,-159
2021-10-14 14:45:07.750712,-171
2021-10-14 14:45:07.750721,-157
2021-10-14 14:45:07.750729,-149
2021-10-14 14:45:07.750738,-147
2021-10-14 14:45:07.750746,-142
2021-10-14 14:45:07.750755,-147
2021-10-14 14:45:07.750763,-159
2021-10-14 14:45:07.750771,-154
2021-10-14 14:45:07.750780,-132
2021-10-14 14:45:07.750788,-105
2021-10-14 14:45:07.750797,-88
2021-10-14 14:45:07.750806,-85
2021-10-14 14:45:07.750814,-85
2021-10-14 14:45:07.750823,-88
2021-10-14 14:45:07.750831,-105
2021-10-14 14:45:07.750840,-112
2021-10-14 14:45:07.886067,-98
2021-10-14 14:45:07.886090,-88
2021-10-14 14:45:07.886100,-85
2021-10-14 14:45:07.886109,-78
2021-10-14 14:45:07.886118,-78
2021-10-14 14:45:07.886126,-88
2021-10-14 14:45:07.886135,-83
2021-10-14 14:45:07.886143,-34
2021-10-14 14:45:07.886152,107
2021-10-14 14:45:07.886161,404
2021-10-14 14:45:07.886169,691
2021-10-14 14:45:07.886178,512
2021-10-14 14:45:07.886186,-201
2021-10-14 14:45:07.886195,-554
2021-10-14 14:45:07.886203,-137
2021-10-14 14:45:07.886212,93
2021-10-14 14:45:07.886220,-71
2021-10-14 14:45:07.886232,-31
2021-10-14 14:45:07.886241,63
2021-10-14 14:45:07.886249,7
2021-10-14 14:45:07.886258,4
2021-10-14 14:45:07.886266,63
2021-10-14 14:45:07.886274,61
2021-10-14 14:45:07.886283,46
2021-10-14 14:45:07.886291,68
2021-10-14 14:45:07.886299,90
2021-10-14 14:45:07.886308,100
2021-10-14 14:45:07.886316,127
2021-10-14 14:45:07.886324,176
2021-10-14 14:45:07.886333,215
2021-10-14 14:45:08.111087,235
2021-10-14 14:45:08.111110,264
2021-10-14 14:45:08.111120,301
2021-10-14 14:45:08.111129,331
2021-10-14 14:45:08.111137,355
2021-10-14 14:45:08.111146,353
2021-10-14 14:45:08.111154,331
2021-10-14 14:45:08.111162,331
2021-10-14 14:45:08.111171,316
2021-10-14 14:45:08.111179,245
2021-10-14 14:45:08.111188,149
2021-10-14 14:45:08.111196,53
2021-10-14 14:45:08.111204,-34
2021-10-14 14:45:08.111213,-103
2021-10-14 14:45:08.111221,-161
2021-10-14 14:45:08.111230,-203
2021-10-14 14:45:08.111238,-211
2021-10-14 14:45:08.111247,-208
2021-10-14 14:45:08.111255,-225
2021-10-14 14:45:08.111263,-230
2021-10-14 14:45:08.111272,-211
2021-10-14 14:45:08.111280,-191
2021-10-14 14:45:08.111288,-179
2021-10-14 14:45:08.111297,-169
2021-10-14 14:45:08.111305,-154
2021-10-14 14:45:08.111314,-134
2021-10-14 14:45:08.111322,-127
2021-10-14 14:45:08.111331,-120
2021-10-14 14:45:08.111339,-115
2021-10-14 14:45:08.111347,-120
2021-10-14 14:45:08.426142,-110
2021-10-14 14:45:08.426162,-95
2021-10-14 14:45:08.426171,-105
2021-10-14 14:45:08.426180,-110
2021-10-14 14:45:08.426189,-100
2021-10-14 14:45:08.426197,-100
2021-10-14 14:45:08.426205,-95
2021-10-14 14:45:08.426214,-83
2021-10-14 14:45:08.426222,-93
2021-10-14 14:45:08.426230,-105
2021-10-14 14:45:08.426239,-100
2021-10-14 14:45:08.426247,-103
2021-10-14 14:45:08.426256,-112
2021-10-14 14:45:08.426264,-110
2021-10-14 14:45:08.426272,-80
2021-10-14 14:45:08.426281,-41
2021-10-14 14:45:08.426289,-26
2021-10-14 14:45:08.426297,-34
2021-10-14 14:45:08.426305,-44
2021-10-14 14:45:08.426313,-46
2021-10-14 14:45:08.426322,-66
2021-10-14 14:45:08.426330,-90
2021-10-14 14:45:08.426338,-78
2021-10-14 14:45:08.426346,-61
2021-10-14 14:45:08.426355,-58
2021-10-14 14:45:08.426363,-51
2021-10-14 14:45:08.426371,-49
2021-10-14 14:45:08.426379,-58
2021-10-14 14:45:08.426387,-24
2021-10-14 14:45:08.426396,103
2021-10-14 14:45:08.560768,397
2021-10-14 14:45:08.560790,733
2021-10-14 14:45:08.560800,623
2021-10-14 14:45:08.560809,-115
2021-10-14 14:45:08.560818,-569
2021-10-14 14:45:08.560827,-171
2021-10-14 14:45:08.560835,117
2021-10-14 14:45:08.560844,-56
2021-10-14 14:45:08.560852,-53
2021-10-14 14:45:08.560861,58
2021-10-14 14:45:08.560870,14
2021-10-14 14:45:08.560908,-9
2021-10-14 14:45:08.560916,46
2021-10-14 14:45:08.560925,63
2021-10-14 14:45:08.560933,56
2021-10-14 14:45:08.560942,76
2021-10-14 14:45:08.560951,93
2021-10-14 14:45:08.560959,103
2021-10-14 14:45:08.560968,125
2021-10-14 14:45:08.560976,159
2021-10-14 14:45:08.560985,196
2021-10-14 14:45:08.560993,220
2021-10-14 14:45:08.561001,238
2021-10-14 14:45:08.561010,282
2021-10-14 14:45:08.561018,321
2021-10-14 14:45:08.561027,341
2021-10-14 14:45:08.561035,363
2021-10-14 14:45:08.561044,363
2021-10-14 14:45:08.561052,318
2021-10-14 14:45:08.561061,279
2021-10-14 14:45:08.830712,257
2021-10-14 14:45:08.830733,188
2021-10-14 14:45:08.830742,78
2021-10-14 14:45:08.830750,-17
2021-10-14 14:45:08.830759,-85
2021-10-14 14:45:08.830767,-142
2021-10-14 14:45:08.830775,-176
2021-10-14 14:45:08.830784,-188
2021-10-14 14:45:08.830792,-213
2021-10-14 14:45:08.830800,-242
2021-10-14 14:45:08.830808,-230
2021-10-14 14:45:08.830816,-198
2021-10-14 14:45:08.830825,-184
2021-10-14 14:45:08.830833,-186
2021-10-14 14:45:08.830842,-179
2021-10-14 14:45:08.830850,-169
2021-10-14 14:45:08.830857,-161
2021-10-14 14:45:08.830865,-134
2021-10-14 14:45:08.830873,-117
2021-10-14 14:45:08.830882,-139
2021-10-14 14:45:08.830890,-139
2021-10-14 14:45:08.830898,-117
2021-10-14 14:45:08.830906,-122
2021-10-14 14:45:08.830914,-115
2021-10-14 14:45:08.830922,-103
2021-10-14 14:45:08.830929,-127
2021-10-14 14:45:08.830936,-127
2021-10-14 14:45:08.830943,-105
2021-10-14 14:45:08.830950,-107
2021-10-14 14:45:08.830956,-110
2021-10-14 14:45:09.056402,-110
2021-10-14 14:45:09.056425,-95
2021-10-14 14:45:09.056435,-83
2021-10-14 14:45:09.056444,-110
2021-10-14 14:45:09.056452,-127
2021-10-14 14:45:09.056461,-93
2021-10-14 14:45:09.056470,-76
2021-10-14 14:45:09.056478,-90
2021-10-14 14:45:09.056487,-103
2021-10-14 14:45:09.056496,-110
2021-10-14 14:45:09.056505,-98
2021-10-14 14:45:09.056513,-68
2021-10-14 14:45:09.056522,-76
2021-10-14 14:45:09.056531,-105
2021-10-14 14:45:09.056539,-83
2021-10-14 14:45:09.056548,-46
2021-10-14 14:45:09.056557,-36
2021-10-14 14:45:09.056565,-24
2021-10-14 14:45:09.056574,-7
2021-10-14 14:45:09.056583,-17
2021-10-14 14:45:09.056591,-44
2021-10-14 14:45:09.056600,-61
2021-10-14 14:45:09.056608,-53
2021-10-14 14:45:09.056617,-63
2021-10-14 14:45:09.056626,-85
2021-10-14 14:45:09.056634,-73
2021-10-14 14:45:09.056643,-53
2021-10-14 14:45:09.056651,-61
2021-10-14 14:45:09.056660,-26
2021-10-14 14:45:09.056668,137
2021-10-14 14:45:09.370693,468
2021-10-14 14:45:09.370716,780
2021-10-14 14:45:09.370726,598
2021-10-14 14:45:09.370735,-176
2021-10-14 14:45:09.370744,-588
2021-10-14 14:45:09.370752,-164
2021-10-14 14:45:09.370761,93
2021-10-14 14:45:09.370770,-78
2021-10-14 14:45:09.370778,-61
2021-10-14 14:45:09.370787,49
2021-10-14 14:45:09.370795,14
2021-10-14 14:45:09.370804,-17
2021-10-14 14:45:09.370812,29
2021-10-14 14:45:09.370821,61
2021-10-14 14:45:09.370829,58
2021-10-14 14:45:09.370838,78
2021-10-14 14:45:09.370846,105
2021-10-14 14:45:09.370854,122
2021-10-14 14:45:09.370863,159
2021-10-14 14:45:09.370871,196
2021-10-14 14:45:09.370880,208
2021-10-14 14:45:09.370888,230
2021-10-14 14:45:09.370896,267
2021-10-14 14:45:09.370905,311
2021-10-14 14:45:09.370913,343
2021-10-14 14:45:09.370922,350
2021-10-14 14:45:09.370930,345
2021-10-14 14:45:09.370939,338
2021-10-14 14:45:09.370947,338
2021-10-14 14:45:09.370955,338
2021-10-14 14:45:09.506604,304
2021-10-14 14:45:09.506625,213
2021-10-14 14:45:09.506635,117
2021-10-14 14:45:09.506643,46
2021-10-14 14:45:09.506652,-22
2021-10-14 14:45:09.506661,-85
2021-10-14 14:45:09.506669,-127
2021-10-14 14:45:09.506678,-159
2021-10-14 14:45:09.506686,-181
2021-10-14 14:45:09.506694,-174
2021-10-14 14:45:09.506703,-161
2021-10-14 14:45:09.506714,-196
2021-10-14 14:45:09.506736,-203
2021-10-14 14:45:09.506744,-157
2021-10-14 14:45:09.506753,-137
2021-10-14 14:45:09.506761,-152
2021-10-14 14:45:09.506769,-139
2021-10-14 14:45:09.506778,-107
2021-10-14 14:45:09.506786,-105
2021-10-14 14:45:09.506795,-125
2021-10-14 14:45:09.506803,-132
2021-10-14 14:45:09.506812,-122
2021-10-14 14:45:09.506820,-107
2021-10-14 14:45:09.506828,-90
2021-10-14 14:45:09.506837,-95
2021-10-14 14:45:09.506845,-112
2021-10-14 14:45:09.506854,-117
2021-10-14 14:45:09.506862,-120
2021-10-14 14:45:09.506870,-130
2021-10-14 14:45:09.506879,-127
2021-10-14 14:45:09.774389,-120
2021-10-14 14:45:09.774411,-112
2021-10-14 14:45:09.774421,-107
2021-10-14 14:45:09.774430,-115
2021-10-14 14:45:09.774439,-95
2021-10-14 14:45:09.774447,-66
2021-10-14 14:45:09.774456,-88
2021-10-14 14:45:09.774464,-115
2021-10-14 14:45:09.774473,-88
2021-10-14 14:45:09.774481,-83
2021-10-14 14:45:09.774490,-112
2021-10-14 14:45:09.774498,-103
2021-10-14 14:45:09.774507,-88
2021-10-14 14:45:09.774515,-105
2021-10-14 14:45:09.774524,-100
2021-10-14 14:45:09.774532,-78
2021-10-14 14:45:09.774541,-88
2021-10-14 14:45:09.774549,-115
2021-10-14 14:45:09.774558,-122
2021-10-14 14:45:09.774566,-103
2021-10-14 14:45:09.774575,-73
2021-10-14 14:45:09.774583,-44
2021-10-14 14:45:09.774592,-26
2021-10-14 14:45:09.774600,-29
2021-10-14 14:45:09.774609,-39
2021-10-14 14:45:09.774617,-41
2021-10-14 14:45:09.774626,-49
2021-10-14 14:45:09.774634,-61
2021-10-14 14:45:09.774643,-61
2021-10-14 14:45:09.774651,-58
2021-10-14 14:45:09.955721,-68
2021-10-14 14:45:09.955744,-68
2021-10-14 14:45:09.955753,-63
2021-10-14 14:45:09.955762,-49
2021-10-14 14:45:09.955771,24
2021-10-14 14:45:09.955779,225
2021-10-14 14:45:09.955788,549
2021-10-14 14:45:09.955796,770
2021-10-14 14:45:09.955805,419
2021-10-14 14:45:09.955813,-363
2021-10-14 14:45:09.955821,-500
2021-10-14 14:45:09.955830,-2
2021-10-14 14:45:09.955838,68
2021-10-14 14:45:09.955847,-107
2021-10-14 14:45:09.955855,-12
2021-10-14 14:45:09.955864,49
2021-10-14 14:45:09.955872,-7
2021-10-14 14:45:09.955881,22
2021-10-14 14:45:09.955889,83
2021-10-14 14:45:09.955897,76
2021-10-14 14:45:09.955906,61
2021-10-14 14:45:09.955915,95
2021-10-14 14:45:09.955923,142
2021-10-14 14:45:09.955931,159
2021-10-14 14:45:09.955940,176
2021-10-14 14:45:09.955948,215
2021-10-14 14:45:09.955957,269
2021-10-14 14:45:09.955965,301
2021-10-14 14:45:09.955974,304
2021-10-14 14:45:09.955982,323
2021-10-14 14:45:10.181099,348
2021-10-14 14:45:10.181122,353
2021-10-14 14:45:10.181131,368
2021-10-14 14:45:10.181140,382
2021-10-14 14:45:10.181149,358
2021-10-14 14:45:10.181157,316
2021-10-14 14:45:10.181166,277
2021-10-14 14:45:10.181174,223
2021-10-14 14:45:10.181182,149
2021-10-14 14:45:10.181191,66
2021-10-14 14:45:10.181199,-22
2021-10-14 14:45:10.181208,-78
2021-10-14 14:45:10.181216,-107
2021-10-14 14:45:10.181224,-147
2021-10-14 14:45:10.181240,-184
2021-10-14 14:45:10.181248,-181
2021-10-14 14:45:10.181257,-166
2021-10-14 14:45:10.181265,-159
2021-10-14 14:45:10.181274,-149
2021-10-14 14:45:10.181282,-127
2021-10-14 14:45:10.181291,-103
2021-10-14 14:45:10.181299,-117
2021-10-14 14:45:10.181308,-139
2021-10-14 14:45:10.181316,-110
2021-10-14 14:45:10.181325,-85
2021-10-14 14:45:10.181333,-90
2021-10-14 14:45:10.181341,-100
2021-10-14 14:45:10.181350,-100
2021-10-14 14:45:10.181358,-100
2021-10-14 14:45:10.181367,-98
2021-10-14 14:45:10.451101,-80
2021-10-14 14:45:10.451123,-95
2021-10-14 14:45:10.451132,-159
2021-10-14 14:45:10.451141,-169
2021-10-14 14:45:10.451150,-122
2021-10-14 14:45:10.451158,-127
2021-10-14 14:45:10.451166,-154
2021-10-14 14:45:10.451175,-134
2021-10-14 14:45:10.451183,-112
2021-10-14 14:45:10.451192,-132
2021-10-14 14:45:10.451200,-149
2021-10-14 14:45:10.451208,-122
2021-10-14 14:45:10.451217,-90
2021-10-14 14:45:10.451225,-103
2021-10-14 14:45:10.451233,-130
2021-10-14 14:45:10.451241,-110
2021-10-14 14:45:10.451250,-83
2021-10-14 14:45:10.451258,-112
2021-10-14 14:45:10.451267,-115
2021-10-14 14:45:10.451275,-76
2021-10-14 14:45:10.451283,-83
2021-10-14 14:45:10.451292,-127
2021-10-14 14:45:10.451300,-127
2021-10-14 14:45:10.451308,-98
2021-10-14 14:45:10.451316,-85
2021-10-14 14:45:10.451325,-63
2021-10-14 14:45:10.451333,-29
2021-10-14 14:45:10.451341,-19
2021-10-14 14:45:10.451350,-26
2021-10-14 14:45:10.451358,-17
2021-10-14 14:45:10.675747,-12
2021-10-14 14:45:10.675768,-39
2021-10-14 14:45:10.675778,-51
2021-10-14 14:45:10.675787,-17
2021-10-14 14:45:10.675795,-7
2021-10-14 14:45:10.675804,-41
2021-10-14 14:45:10.675812,-51
2021-10-14 14:45:10.675821,-31
2021-10-14 14:45:10.675829,-17
2021-10-14 14:45:10.675838,46
2021-10-14 14:45:10.675846,255
2021-10-14 14:45:10.675854,601
2021-10-14 14:45:10.675863,777
2021-10-14 14:45:10.675871,343
2021-10-14 14:45:10.675880,-417
2021-10-14 14:45:10.675888,-456
2021-10-14 14:45:10.675897,39
2021-10-14 14:45:10.675905,66
2021-10-14 14:45:10.675914,-68
2021-10-14 14:45:10.675922,68
2021-10-14 14:45:10.675931,117
2021-10-14 14:45:10.675939,44
2021-10-14 14:45:10.675948,73
2021-10-14 14:45:10.675956,130
2021-10-14 14:45:10.675965,127
2021-10-14 14:45:10.675973,105
2021-10-14 14:45:10.675981,120
2021-10-14 14:45:10.675990,169
2021-10-14 14:45:10.675998,201
2021-10-14 14:45:10.676007,211
2021-10-14 14:45:10.990121,240
2021-10-14 14:45:10.990143,299
2021-10-14 14:45:10.990152,331
2021-10-14 14:45:10.990161,309
2021-10-14 14:45:10.990169,323
2021-10-14 14:45:10.990178,397
2021-10-14 14:45:10.990186,409
2021-10-14 14:45:10.990194,353
2021-10-14 14:45:10.990203,338
2021-10-14 14:45:10.990211,343
2021-10-14 14:45:10.990219,294
2021-10-14 14:45:10.990228,240
2021-10-14 14:45:10.990236,196
2021-10-14 14:45:10.990244,112
2021-10-14 14:45:10.990253,12
2021-10-14 14:45:10.990261,-71
2021-10-14 14:45:10.990269,-120
2021-10-14 14:45:10.990277,-154
2021-10-14 14:45:10.990286,-198
2021-10-14 14:45:10.990294,-230
2021-10-14 14:45:10.990302,-223
2021-10-14 14:45:10.990310,-211
2021-10-14 14:45:10.990319,-206
2021-10-14 14:45:10.990327,-215
2021-10-14 14:45:10.990335,-223
2021-10-14 14:45:10.990344,-184
2021-10-14 14:45:10.990352,-152
2021-10-14 14:45:10.990360,-181
2021-10-14 14:45:10.990369,-198
2021-10-14 14:45:10.990377,-164
2021-10-14 14:45:11.126073,-132
2021-10-14 14:45:11.126095,-139
2021-10-14 14:45:11.126104,-171
2021-10-14 14:45:11.126113,-188
2021-10-14 14:45:11.126122,-161
2021-10-14 14:45:11.126130,-134
2021-10-14 14:45:11.126139,-144
2021-10-14 14:45:11.126147,-166
2021-10-14 14:45:11.126155,-169
2021-10-14 14:45:11.126164,-152
2021-10-14 14:45:11.126172,-152
2021-10-14 14:45:11.126181,-161
2021-10-14 14:45:11.126189,-127
2021-10-14 14:45:11.126197,-122
2021-10-14 14:45:11.126206,-157
2021-10-14 14:45:11.126214,-144
2021-10-14 14:45:11.126223,-115
2021-10-14 14:45:11.126231,-110
2021-10-14 14:45:11.126240,-120
2021-10-14 14:45:11.126248,-137
2021-10-14 14:45:11.126256,-125
2021-10-14 14:45:11.126265,-88
2021-10-14 14:45:11.126273,-73
2021-10-14 14:45:11.126281,-73
2021-10-14 14:45:11.126290,-53
2021-10-14 14:45:11.126298,-58
2021-10-14 14:45:11.126306,-110
2021-10-14 14:45:11.126315,-107
2021-10-14 14:45:11.126323,-58
2021-10-14 14:45:11.126331,-76
2021-10-14 14:45:11.396105,-95
2021-10-14 14:45:11.396127,-63
2021-10-14 14:45:11.396137,-78
2021-10-14 14:45:11.396146,-103
2021-10-14 14:45:11.396154,-41
2021-10-14 14:45:11.396163,49
2021-10-14 14:45:11.396171,213
2021-10-14 14:45:11.396180,529
2021-10-14 14:45:11.396188,699
2021-10-14 14:45:11.396197,213
2021-10-14 14:45:11.396205,-579
2021-10-14 14:45:11.396214,-556
2021-10-14 14:45:11.396222,12
2021-10-14 14:45:11.396230,53
2021-10-14 14:45:11.396239,-120
2021-10-14 14:45:11.396247,-7
2021-10-14 14:45:11.396256,58
2021-10-14 14:45:11.396264,-12
2021-10-14 14:45:11.396273,2
2021-10-14 14:45:11.396281,68
2021-10-14 14:45:11.396290,71
2021-10-14 14:45:11.396298,61
2021-10-14 14:45:11.396306,103
2021-10-14 14:45:11.396315,157
2021-10-14 14:45:11.396323,166
2021-10-14 14:45:11.396332,157
2021-10-14 14:45:11.396340,186
2021-10-14 14:45:11.396349,238
2021-10-14 14:45:11.396357,269
2021-10-14 14:45:11.396365,301
2021-10-14 14:45:11.575804,328
2021-10-14 14:45:11.575827,348
2021-10-14 14:45:11.575836,353
2021-10-14 14:45:11.575845,323
2021-10-14 14:45:11.575854,296
2021-10-14 14:45:11.575862,306
2021-10-14 14:45:11.575901,274
2021-10-14 14:45:11.575909,184
2021-10-14 14:45:11.575918,107
2021-10-14 14:45:11.575926,26
2021-10-14 14:45:11.575935,-78
2021-10-14 14:45:11.575943,-152
2021-10-14 14:45:11.575952,-213
2021-10-14 14:45:11.575960,-284
2021-10-14 14:45:11.575969,-301
2021-10-14 14:45:11.575977,-269
2021-10-14 14:45:11.575986,-260
2021-10-14 14:45:11.575994,-274
2021-10-14 14:45:11.576002,-274
2021-10-14 14:45:11.576011,-247
2021-10-14 14:45:11.576019,-228
2021-10-14 14:45:11.576028,-215
2021-10-14 14:45:11.576036,-193
2021-10-14 14:45:11.576044,-184
2021-10-14 14:45:11.576053,-196
2021-10-14 14:45:11.576061,-198
2021-10-14 14:45:11.576069,-176
2021-10-14 14:45:11.576078,-159
2021-10-14 14:45:11.576086,-154
2021-10-14 14:45:11.576095,-157
2021-10-14 14:45:11.889413,-161
2021-10-14 14:45:11.889434,-137
2021-10-14 14:45:11.889444,-122
2021-10-14 14:45:11.889452,-154
2021-10-14 14:45:11.889461,-169
2021-10-14 14:45:11.889470,-142
2021-10-14 14:45:11.889478,-115
2021-10-14 14:45:11.889487,-110
2021-10-14 14:45:11.889495,-120
2021-10-14 14:45:11.889504,-103
2021-10-14 14:45:11.889512,-68
2021-10-14 14:45:11.889521,-80
2021-10-14 14:45:11.889529,-112
2021-10-14 14:45:11.889538,-110
2021-10-14 14:45:11.889547,-103
2021-10-14 14:45:11.889555,-95
2021-10-14 14:45:11.889563,-78
2021-10-14 14:45:11.889572,-100
2021-10-14 14:45:11.889580,-120
2021-10-14 14:45:11.889589,-85
2021-10-14 14:45:11.889597,-61
2021-10-14 14:45:11.889605,-34
2021-10-14 14:45:11.889614,127
2021-10-14 14:45:11.889622,439
2021-10-14 14:45:11.889631,642
2021-10-14 14:45:11.889639,365
2021-10-14 14:45:11.889648,-350
2021-10-14 14:45:11.889656,-623
2021-10-14 14:45:11.889664,-132
2021-10-14 14:45:11.889672,110
2021-10-14 14:45:12.026116,-51
2021-10-14 14:45:12.026137,4
2021-10-14 14:45:12.026147,98
2021-10-14 14:45:12.026156,46
2021-10-14 14:45:12.026164,63
2021-10-14 14:45:12.026173,115
2021-10-14 14:45:12.026181,83
2021-10-14 14:45:12.026190,88
2021-10-14 14:45:12.026198,152
2021-10-14 14:45:12.026207,154
2021-10-14 14:45:12.026215,139
2021-10-14 14:45:12.026224,188
2021-10-14 14:45:12.026232,238
2021-10-14 14:45:12.026241,262
2021-10-14 14:45:12.026249,311
2021-10-14 14:45:12.026258,353
2021-10-14 14:45:12.026266,358
2021-10-14 14:45:12.026275,372
2021-10-14 14:45:12.026283,399
2021-10-14 14:45:12.026291,409
2021-10-14 14:45:12.026300,404
2021-10-14 14:45:12.026308,380
2021-10-14 14:45:12.026317,336
2021-10-14 14:45:12.026325,267
2021-10-14 14:45:12.026333,166
2021-10-14 14:45:12.026342,56
2021-10-14 14:45:12.026350,-39
2021-10-14 14:45:12.026359,-115
2021-10-14 14:45:12.026367,-166
2021-10-14 14:45:12.026376,-203
2021-10-14 14:45:12.251132,-223
2021-10-14 14:45:12.251154,-218
2021-10-14 14:45:12.251163,-218
2021-10-14 14:45:12.251172,-223
2021-10-14 14:45:12.251180,-213
2021-10-14 14:45:12.251189,-198
2021-10-14 14:45:12.251197,-184
2021-10-14 14:45:12.251206,-152
2021-10-14 14:45:12.251214,-130
2021-10-14 14:45:12.251223,-161
2021-10-14 14:45:12.251231,-184
2021-10-14 14:45:12.251239,-132
2021-10-14 14:45:12.251248,-98
2021-10-14 14:45:12.251256,-120
2021-10-14 14:45:12.251265,-127
2021-10-14 14:45:12.251273,-107
2021-10-14 14:45:12.251282,-103
2021-10-14 14:45:12.251290,-110
2021-10-14 14:45:12.251299,-112
2021-10-14 14:45:12.251307,-110
2021-10-14 14:45:12.251316,-103
2021-10-14 14:45:12.251324,-103
2021-10-14 14:45:12.251332,-105
2021-10-14 14:45:12.251341,-76
2021-10-14 14:45:12.251349,-44
2021-10-14 14:45:12.251358,-31
2021-10-14 14:45:12.251366,-31
2021-10-14 14:45:12.251374,-53
2021-10-14 14:45:12.251383,-78
2021-10-14 14:45:12.251391,-68
2021-10-14 14:45:12.475670,-58
2021-10-14 14:45:12.475690,-71
2021-10-14 14:45:12.475698,-71
2021-10-14 14:45:12.475704,-61
2021-10-14 14:45:12.475710,-56
2021-10-14 14:45:12.475717,-53
2021-10-14 14:45:12.475723,-51
2021-10-14 14:45:12.475729,-4
2021-10-14 14:45:12.475735,181
2021-10-14 14:45:12.475742,512
2021-10-14 14:45:12.475748,763
2021-10-14 14:45:12.475755,488
2021-10-14 14:45:12.475761,-301
2021-10-14 14:45:12.475769,-583
2021-10-14 14:45:12.475776,-76
2021-10-14 14:45:12.475783,95
2021-10-14 14:45:12.475789,-120
2021-10-14 14:45:12.475795,-31
2021-10-14 14:45:12.475802,76
2021-10-14 14:45:12.475809,0
2021-10-14 14:45:12.475816,22
2021-10-14 14:45:12.475823,95
2021-10-14 14:45:12.475830,78
2021-10-14 14:45:12.475837,71
2021-10-14 14:45:12.475843,115
2021-10-14 14:45:12.475850,149
2021-10-14 14:45:12.475856,161
2021-10-14 14:45:12.475863,176
2021-10-14 14:45:12.475869,215
2021-10-14 14:45:12.475875,269
2021-10-14 14:45:12.790514,301
2021-10-14 14:45:12.790536,323
2021-10-14 14:45:12.790545,368
2021-10-14 14:45:12.790554,395
2021-10-14 14:45:12.790562,395
2021-10-14 14:45:12.790571,385
2021-10-14 14:45:12.790579,380
2021-10-14 14:45:12.790588,377
2021-10-14 14:45:12.790596,338
2021-10-14 14:45:12.790605,255
2021-10-14 14:45:12.790613,157
2021-10-14 14:45:12.790621,68
2021-10-14 14:45:12.790629,0
2021-10-14 14:45:12.790638,-68
2021-10-14 14:45:12.790646,-161
2021-10-14 14:45:12.790654,-213
2021-10-14 14:45:12.790663,-196
2021-10-14 14:45:12.790671,-208
2021-10-14 14:45:12.790679,-225
2021-10-14 14:45:12.790698,-201
2021-10-14 14:45:12.790707,-184
2021-10-14 14:45:12.790715,-213
2021-10-14 14:45:12.790723,-233
2021-10-14 14:45:12.790731,-211
2021-10-14 14:45:12.790740,-193
2021-10-14 14:45:12.790748,-196
2021-10-14 14:45:12.790757,-184
2021-10-14 14:45:12.790765,-161
2021-10-14 14:45:12.790773,-164
2021-10-14 14:45:12.790781,-174
2021-10-14 14:45:12.971154,-164
2021-10-14 14:45:12.971176,-166
2021-10-14 14:45:12.971186,-174
2021-10-14 14:45:12.971195,-159
2021-10-14 14:45:12.971203,-161
2021-10-14 14:45:12.971211,-181
2021-10-14 14:45:12.971220,-166
2021-10-14 14:45:12.971228,-154
2021-10-14 14:45:12.971237,-171
2021-10-14 14:45:12.971245,-164
2021-10-14 14:45:12.971254,-117
2021-10-14 14:45:12.971262,-93
2021-10-14 14:45:12.971271,-95
2021-10-14 14:45:12.971279,-98
2021-10-14 14:45:12.971288,-130
2021-10-14 14:45:12.971296,-166
2021-10-14 14:45:12.971304,-157
2021-10-14 14:45:12.971313,-125
2021-10-14 14:45:12.971322,-122
2021-10-14 14:45:12.971330,-157
2021-10-14 14:45:12.971338,-176
2021-10-14 14:45:12.971347,-152
2021-10-14 14:45:12.971355,-134
2021-10-14 14:45:12.971363,-122
2021-10-14 14:45:12.971372,-34
2021-10-14 14:45:12.971380,220
2021-10-14 14:45:12.971389,593
2021-10-14 14:45:12.971397,728
2021-10-14 14:45:12.971406,176
2021-10-14 14:45:12.971414,-593
2021-10-14 14:45:13.240514,-510
2021-10-14 14:45:13.240536,-9
2021-10-14 14:45:13.240546,-22
2021-10-14 14:45:13.240554,-134
2021-10-14 14:45:13.240563,-19
2021-10-14 14:45:13.240571,4
2021-10-14 14:45:13.240580,-34
2021-10-14 14:45:13.240588,-9
2021-10-14 14:45:13.240597,9
2021-10-14 14:45:13.240605,19
2021-10-14 14:45:13.240614,51
2021-10-14 14:45:13.240622,90
2021-10-14 14:45:13.240631,120
2021-10-14 14:45:13.240639,132
2021-10-14 14:45:13.240647,144
2021-10-14 14:45:13.240656,179
2021-10-14 14:45:13.240664,215
2021-10-14 14:45:13.240673,260
2021-10-14 14:45:13.240681,301
2021-10-14 14:45:13.240689,309
2021-10-14 14:45:13.240698,321
2021-10-14 14:45:13.240706,353
2021-10-14 14:45:13.240714,365
2021-10-14 14:45:13.240723,348
2021-10-14 14:45:13.240731,318
2021-10-14 14:45:13.240739,287
2021-10-14 14:45:13.240748,218
2021-10-14 14:45:13.240756,103
2021-10-14 14:45:13.240764,2
2021-10-14 14:45:13.240773,-58
2021-10-14 14:45:13.421128,-122
2021-10-14 14:45:13.421150,-176
2021-10-14 14:45:13.421159,-198
2021-10-14 14:45:13.421168,-198
2021-10-14 14:45:13.421177,-203
2021-10-14 14:45:13.421185,-211
2021-10-14 14:45:13.421194,-213
2021-10-14 14:45:13.421203,-206
2021-10-14 14:45:13.421211,-191
2021-10-14 14:45:13.421220,-181
2021-10-14 14:45:13.421228,-171
2021-10-14 14:45:13.421236,-171
2021-10-14 14:45:13.421245,-176
2021-10-14 14:45:13.421253,-164
2021-10-14 14:45:13.421262,-152
2021-10-14 14:45:13.421270,-152
2021-10-14 14:45:13.421278,-144
2021-10-14 14:45:13.421287,-139
2021-10-14 14:45:13.421295,-147
2021-10-14 14:45:13.421303,-152
2021-10-14 14:45:13.421312,-137
2021-10-14 14:45:13.421320,-120
2021-10-14 14:45:13.421328,-130
2021-10-14 14:45:13.421337,-144
2021-10-14 14:45:13.421345,-161
2021-10-14 14:45:13.421353,-188
2021-10-14 14:45:13.421361,-164
2021-10-14 14:45:13.421369,-110
2021-10-14 14:45:13.421378,-107
2021-10-14 14:45:13.421386,-127
2021-10-14 14:45:13.645764,-130
2021-10-14 14:45:13.645786,-144
2021-10-14 14:45:13.645796,-164
2021-10-14 14:45:13.645805,-161
2021-10-14 14:45:13.645814,-147
2021-10-14 14:45:13.645822,-144
2021-10-14 14:45:13.645831,-161
2021-10-14 14:45:13.645839,-161
2021-10-14 14:45:13.645847,-157
2021-10-14 14:45:13.645856,-169
2021-10-14 14:45:13.645864,-147
2021-10-14 14:45:13.645873,-49
2021-10-14 14:45:13.645881,176
2021-10-14 14:45:13.645890,517
2021-10-14 14:45:13.645898,677
2021-10-14 14:45:13.645907,174
2021-10-14 14:45:13.645915,-623
2021-10-14 14:45:13.645924,-598
2021-10-14 14:45:13.645932,-53
2021-10-14 14:45:13.645941,-24
2021-10-14 14:45:13.645949,-169
2021-10-14 14:45:13.645958,-68
2021-10-14 14:45:13.645966,-29
2021-10-14 14:45:13.645975,-61
2021-10-14 14:45:13.645983,-14
2021-10-14 14:45:13.645992,4
2021-10-14 14:45:13.646000,-12
2021-10-14 14:45:13.646008,29
2021-10-14 14:45:13.646017,76
2021-10-14 14:45:13.646025,66
2021-10-14 14:45:13.960100,66
2021-10-14 14:45:13.960122,105
2021-10-14 14:45:13.960131,139
2021-10-14 14:45:13.960140,161
2021-10-14 14:45:13.960149,193
2021-10-14 14:45:13.960157,228
2021-10-14 14:45:13.960166,262
2021-10-14 14:45:13.960174,299
2021-10-14 14:45:13.960183,311
2021-10-14 14:45:13.960191,287
2021-10-14 14:45:13.960200,282
2021-10-14 14:45:13.960208,284
2021-10-14 14:45:13.960217,233
2021-10-14 14:45:13.960225,142
2021-10-14 14:45:13.960234,41
2021-10-14 14:45:13.960242,-56
2021-10-14 14:45:13.960250,-142
2021-10-14 14:45:13.960259,-213
2021-10-14 14:45:13.960267,-267
2021-10-14 14:45:13.960276,-289
2021-10-14 14:45:13.960284,-294
2021-10-14 14:45:13.960293,-299
2021-10-14 14:45:13.960301,-301
2021-10-14 14:45:13.960309,-294
2021-10-14 14:45:13.960317,-279
2021-10-14 14:45:13.960326,-269
2021-10-14 14:45:13.960334,-267
2021-10-14 14:45:13.960343,-255
2021-10-14 14:45:13.960351,-235
2021-10-14 14:45:13.960360,-245
2021-10-14 14:45:14.140505,-267
2021-10-14 14:45:14.140527,-242
2021-10-14 14:45:14.140537,-213
2021-10-14 14:45:14.140545,-223
2021-10-14 14:45:14.140554,-240
2021-10-14 14:45:14.140563,-238
2021-10-14 14:45:14.140571,-220
2021-10-14 14:45:14.140580,-206
2021-10-14 14:45:14.140588,-206
2021-10-14 14:45:14.140597,-211
2021-10-14 14:45:14.140605,-218
2021-10-14 14:45:14.140614,-228
2021-10-14 14:45:14.140622,-220
2021-10-14 14:45:14.140631,-181
2021-10-14 14:45:14.140639,-139
2021-10-14 14:45:14.140648,-134
2021-10-14 14:45:14.140656,-144
2021-10-14 14:45:14.140665,-152
2021-10-14 14:45:14.140673,-164
2021-10-14 14:45:14.140681,-176
2021-10-14 14:45:14.140690,-181
2021-10-14 14:45:14.140698,-186
2021-10-14 14:45:14.140707,-176
2021-10-14 14:45:14.140715,-166
2021-10-14 14:45:14.140723,-166
2021-10-14 14:45:14.140732,-149
2021-10-14 14:45:14.140740,-122
2021-10-14 14:45:14.140748,-112
2021-10-14 14:45:14.140757,-41
2021-10-14 14:45:14.140765,218
2021-10-14 14:45:14.321132,576
2021-10-14 14:45:14.321154,660
2021-10-14 14:45:14.321164,76
2021-10-14 14:45:14.321173,-657
2021-10-14 14:45:14.321181,-527
2021-10-14 14:45:14.321189,-34
2021-10-14 14:45:14.321198,-61
2021-10-14 14:45:14.321206,-154
2021-10-14 14:45:14.321215,-44
2021-10-14 14:45:14.321223,-39
2021-10-14 14:45:14.321232,-80
2021-10-14 14:45:14.321240,-24
2021-10-14 14:45:14.321248,12
2021-10-14 14:45:14.321257,7
2021-10-14 14:45:14.321265,26
2021-10-14 14:45:14.321274,61
2021-10-14 14:45:14.321282,98
2021-10-14 14:45:14.321290,127
2021-10-14 14:45:14.321299,161
2021-10-14 14:45:14.321307,215
2021-10-14 14:45:14.321315,247
2021-10-14 14:45:14.321324,272
2021-10-14 14:45:14.321332,321
2021-10-14 14:45:14.321341,358
2021-10-14 14:45:14.321349,382
2021-10-14 14:45:14.321358,414
2021-10-14 14:45:14.321366,419
2021-10-14 14:45:14.321374,380
2021-10-14 14:45:14.321383,360
2021-10-14 14:45:14.321391,341
2021-10-14 14:45:14.636155,255
2021-10-14 14:45:14.636177,142
2021-10-14 14:45:14.636186,56
2021-10-14 14:45:14.636195,-36
2021-10-14 14:45:14.636204,-117
2021-10-14 14:45:14.636213,-152
2021-10-14 14:45:14.636221,-171
2021-10-14 14:45:14.636230,-193
2021-10-14 14:45:14.636238,-203
2021-10-14 14:45:14.636247,-198
2021-10-14 14:45:14.636255,-181
2021-10-14 14:45:14.636264,-174
2021-10-14 14:45:14.636272,-166
2021-10-14 14:45:14.636281,-132
2021-10-14 14:45:14.636289,-112
2021-10-14 14:45:14.636298,-115
2021-10-14 14:45:14.636307,-105
2021-10-14 14:45:14.636315,-88
2021-10-14 14:45:14.636323,-85
2021-10-14 14:45:14.636332,-73
2021-10-14 14:45:14.636340,-49
2021-10-14 14:45:14.636349,-39
2021-10-14 14:45:14.636357,-31
2021-10-14 14:45:14.636366,-34
2021-10-14 14:45:14.636374,-53
2021-10-14 14:45:14.636383,-31
2021-10-14 14:45:14.636391,12
2021-10-14 14:45:14.636400,-9
2021-10-14 14:45:14.636408,-41
2021-10-14 14:45:14.636414,-19
2021-10-14 14:45:14.860155,-4
2021-10-14 14:45:14.860176,-17
2021-10-14 14:45:14.860186,0
2021-10-14 14:45:14.860195,34
2021-10-14 14:45:14.860204,49
2021-10-14 14:45:14.860212,49
2021-10-14 14:45:14.860221,61
2021-10-14 14:45:14.860229,58
2021-10-14 14:45:14.860237,29
2021-10-14 14:45:14.860246,9
2021-10-14 14:45:14.860254,17
2021-10-14 14:45:14.860263,26
2021-10-14 14:45:14.860271,29
2021-10-14 14:45:14.860279,24
2021-10-14 14:45:14.860288,12
2021-10-14 14:45:14.860296,9
2021-10-14 14:45:14.860305,24
2021-10-14 14:45:14.860313,78
2021-10-14 14:45:14.860321,274
2021-10-14 14:45:14.860330,667
2021-10-14 14:45:14.860338,971
2021-10-14 14:45:14.860347,640
2021-10-14 14:45:14.860355,-201
2021-10-14 14:45:14.860364,-434
2021-10-14 14:45:14.860372,51
2021-10-14 14:45:14.860380,171
2021-10-14 14:45:14.860389,-7
2021-10-14 14:45:14.860397,66
2021-10-14 14:45:14.860406,137
2021-10-14 14:45:14.860414,80
2021-10-14 14:45:15.130157,95
2021-10-14 14:45:15.130180,130
2021-10-14 14:45:15.130189,110
2021-10-14 14:45:15.130198,122
2021-10-14 14:45:15.130207,161
2021-10-14 14:45:15.130215,176
2021-10-14 14:45:15.130223,203
2021-10-14 14:45:15.130232,238
2021-10-14 14:45:15.130240,252
2021-10-14 14:45:15.130249,269
2021-10-14 14:45:15.130257,301
2021-10-14 14:45:15.130266,343
2021-10-14 14:45:15.130274,358
2021-10-14 14:45:15.130282,353
2021-10-14 14:45:15.130291,377
2021-10-14 14:45:15.130299,402
2021-10-14 14:45:15.130307,395
2021-10-14 14:45:15.130316,387
2021-10-14 14:45:15.130324,360
2021-10-14 14:45:15.130332,284
2021-10-14 14:45:15.130341,193
2021-10-14 14:45:15.130349,98
2021-10-14 14:45:15.130357,-4
2021-10-14 14:45:15.130366,-76
2021-10-14 14:45:15.130374,-105
2021-10-14 14:45:15.130382,-139
2021-10-14 14:45:15.130391,-164
2021-10-14 14:45:15.130399,-161
2021-10-14 14:45:15.130407,-152
2021-10-14 14:45:15.130416,-152
2021-10-14 14:45:15.311146,-149
2021-10-14 14:45:15.311168,-139
2021-10-14 14:45:15.311177,-127
2021-10-14 14:45:15.311186,-110
2021-10-14 14:45:15.311195,-100
2021-10-14 14:45:15.311203,-105
2021-10-14 14:45:15.311212,-98
2021-10-14 14:45:15.311220,-88
2021-10-14 14:45:15.311228,-85
2021-10-14 14:45:15.311237,-83
2021-10-14 14:45:15.311245,-73
2021-10-14 14:45:15.311254,-68
2021-10-14 14:45:15.311262,-73
2021-10-14 14:45:15.311270,-83
2021-10-14 14:45:15.311279,-88
2021-10-14 14:45:15.311287,-83
2021-10-14 14:45:15.311296,-76
2021-10-14 14:45:15.311304,-76
2021-10-14 14:45:15.311312,-76
2021-10-14 14:45:15.311321,-71
2021-10-14 14:45:15.311329,-71
2021-10-14 14:45:15.311337,-78
2021-10-14 14:45:15.311345,-78
2021-10-14 14:45:15.311354,-61
2021-10-14 14:45:15.311362,-66
2021-10-14 14:45:15.311370,-80
2021-10-14 14:45:15.311379,-68
2021-10-14 14:45:15.311387,-51
2021-10-14 14:45:15.311395,-63
2021-10-14 14:45:15.311403,-73
2021-10-14 14:45:15.491039,-46
2021-10-14 14:45:15.491061,-4
2021-10-14 14:45:15.491071,4
2021-10-14 14:45:15.491079,4
2021-10-14 14:45:15.491088,17
2021-10-14 14:45:15.491096,2
2021-10-14 14:45:15.491105,-34
2021-10-14 14:45:15.491113,-36
2021-10-14 14:45:15.491121,-26
2021-10-14 14:45:15.491130,-36
2021-10-14 14:45:15.491138,-39
2021-10-14 14:45:15.491146,-31
2021-10-14 14:45:15.491155,-41
2021-10-14 14:45:15.491163,-53
2021-10-14 14:45:15.491171,-17
2021-10-14 14:45:15.491180,147
2021-10-14 14:45:15.491188,488
2021-10-14 14:45:15.491197,824
2021-10-14 14:45:15.491205,647
2021-10-14 14:45:15.491213,-164
2021-10-14 14:45:15.491222,-601
2021-10-14 14:45:15.491230,-181
2021-10-14 14:45:15.491239,68
2021-10-14 14:45:15.491247,-110
2021-10-14 14:45:15.491255,-90
2021-10-14 14:45:15.491264,4
2021-10-14 14:45:15.491272,-39
2021-10-14 14:45:15.491281,-39
2021-10-14 14:45:15.491289,14
2021-10-14 14:45:15.491297,22
2021-10-14 14:45:15.715815,26
2021-10-14 14:45:15.715837,53
2021-10-14 14:45:15.715846,76
2021-10-14 14:45:15.715855,103
2021-10-14 14:45:15.715864,134
2021-10-14 14:45:15.715913,152
2021-10-14 14:45:15.715921,174
2021-10-14 14:45:15.715930,211
2021-10-14 14:45:15.715938,247
2021-10-14 14:45:15.715947,277
2021-10-14 14:45:15.715955,306
2021-10-14 14:45:15.715963,328
2021-10-14 14:45:15.715972,341
2021-10-14 14:45:15.715980,341
2021-10-14 14:45:15.715989,333
2021-10-14 14:45:15.715997,323
2021-10-14 14:45:15.716005,289
2021-10-14 14:45:15.716014,206
2021-10-14 14:45:15.716022,107
2021-10-14 14:45:15.716030,24
2021-10-14 14:45:15.716039,-56
2021-10-14 14:45:15.716047,-132
2021-10-14 14:45:15.716055,-181
2021-10-14 14:45:15.716064,-198
2021-10-14 14:45:15.716072,-201
2021-10-14 14:45:15.716080,-203
2021-10-14 14:45:15.716089,-203
2021-10-14 14:45:15.716097,-203
2021-10-14 14:45:15.716106,-203
2021-10-14 14:45:15.716114,-198
2021-10-14 14:45:16.074461,-184
2021-10-14 14:45:16.074484,-166
2021-10-14 14:45:16.074494,-164
2021-10-14 14:45:16.074503,-174
2021-10-14 14:45:16.074511,-176
2021-10-14 14:45:16.074520,-174
2021-10-14 14:45:16.074528,-171
2021-10-14 14:45:16.074537,-171
2021-10-14 14:45:16.074545,-161
2021-10-14 14:45:16.074554,-159
2021-10-14 14:45:16.074562,-179
2021-10-14 14:45:16.074571,-198
2021-10-14 14:45:16.074579,-186
2021-10-14 14:45:16.074588,-169
2021-10-14 14:45:16.074596,-169
2021-10-14 14:45:16.074604,-174
2021-10-14 14:45:16.074613,-179
2021-10-14 14:45:16.074622,-174
2021-10-14 14:45:16.074630,-171
2021-10-14 14:45:16.074638,-179
2021-10-14 14:45:16.074647,-193
2021-10-14 14:45:16.074655,-198
2021-10-14 14:45:16.074664,-198
2021-10-14 14:45:16.074673,-191
2021-10-14 14:45:16.074681,-184
2021-10-14 14:45:16.074690,-188
2021-10-14 14:45:16.074697,-191
2021-10-14 14:45:16.074704,-186
2021-10-14 14:45:16.074710,-188
2021-10-14 14:45:16.074716,-184
2021-10-14 14:45:16.166144,-176
2021-10-14 14:45:16.166165,-184
2021-10-14 14:45:16.166175,-206
2021-10-14 14:45:16.166184,-213
2021-10-14 14:45:16.166192,-174
2021-10-14 14:45:16.166201,-127
2021-10-14 14:45:16.166209,-120
2021-10-14 14:45:16.166218,-122
2021-10-14 14:45:16.166227,-127
2021-10-14 14:45:16.166235,-149
2021-10-14 14:45:16.166244,-166
2021-10-14 14:45:16.166252,-161
2021-10-14 14:45:16.166261,-152
2021-10-14 14:45:16.166270,-144
2021-10-14 14:45:16.166278,-137
2021-10-14 14:45:16.166286,-142
2021-10-14 14:45:16.166295,-152
2021-10-14 14:45:16.166303,-122
2021-10-14 14:45:16.166312,9
2021-10-14 14:45:16.166320,311
2021-10-14 14:45:16.166329,691
2021-10-14 14:45:16.166337,696
2021-10-14 14:45:16.166345,-26
2021-10-14 14:45:16.166354,-660
2021-10-14 14:45:16.166362,-333
2021-10-14 14:45:16.166370,56
2021-10-14 14:45:16.166379,-103
2021-10-14 14:45:16.166387,-144
2021-10-14 14:45:16.166396,-17
2021-10-14 14:45:16.166404,-46
2021-10-14 14:45:16.481083,-73
2021-10-14 14:45:16.481103,0
2021-10-14 14:45:16.481112,22
2021-10-14 14:45:16.481121,-17
2021-10-14 14:45:16.481129,-7
2021-10-14 14:45:16.481138,41
2021-10-14 14:45:16.481146,78
2021-10-14 14:45:16.481154,103
2021-10-14 14:45:16.481163,125
2021-10-14 14:45:16.481171,149
2021-10-14 14:45:16.481179,184
2021-10-14 14:45:16.481188,228
2021-10-14 14:45:16.481196,272
2021-10-14 14:45:16.481205,311
2021-10-14 14:45:16.481213,333
2021-10-14 14:45:16.481221,336
2021-10-14 14:45:16.481230,338
2021-10-14 14:45:16.481238,348
2021-10-14 14:45:16.481246,341
2021-10-14 14:45:16.481255,309
2021-10-14 14:45:16.481263,240
2021-10-14 14:45:16.481272,144
2021-10-14 14:45:16.481280,46
2021-10-14 14:45:16.481288,-44
2021-10-14 14:45:16.481296,-117
2021-10-14 14:45:16.481305,-166
2021-10-14 14:45:16.481313,-211
2021-10-14 14:45:16.481322,-238
2021-10-14 14:45:16.481330,-235
2021-10-14 14:45:16.481338,-233
2021-10-14 14:45:16.886137,-242
2021-10-14 14:45:16.886158,-235
2021-10-14 14:45:16.886167,-218
2021-10-14 14:45:16.886176,-215
2021-10-14 14:45:16.886184,-206
2021-10-14 14:45:16.886193,-186
2021-10-14 14:45:16.886201,-174
2021-10-14 14:45:16.886209,-164
2021-10-14 14:45:16.886217,-154
2021-10-14 14:45:16.886226,-149
2021-10-14 14:45:16.886234,-144
2021-10-14 14:45:16.886243,-149
2021-10-14 14:45:16.886251,-154
2021-10-14 14:45:16.886259,-139
2021-10-14 14:45:16.886268,-142
2021-10-14 14:45:16.886276,-152
2021-10-14 14:45:16.886284,-144
2021-10-14 14:45:16.886292,-139
2021-10-14 14:45:16.886301,-152
2021-10-14 14:45:16.886309,-164
2021-10-14 14:45:16.886317,-169
2021-10-14 14:45:16.886326,-166
2021-10-14 14:45:16.886334,-161
2021-10-14 14:45:16.886342,-157
2021-10-14 14:45:16.886351,-144
2021-10-14 14:45:16.886359,-137
2021-10-14 14:45:16.886367,-147
2021-10-14 14:45:16.886375,-144
2021-10-14 14:45:16.886384,-132
2021-10-14 14:45:16.886392,-125
2021-10-14 14:45:16.975749,-122
2021-10-14 14:45:16.975770,-125
2021-10-14 14:45:16.975779,-134
2021-10-14 14:45:16.975788,-132
2021-10-14 14:45:16.975797,-117
2021-10-14 14:45:16.975805,-83
2021-10-14 14:45:16.975813,-46
2021-10-14 14:45:16.975822,-34
2021-10-14 14:45:16.975830,-41
2021-10-14 14:45:16.975839,-49
2021-10-14 14:45:16.975847,-61
2021-10-14 14:45:16.975855,-66
2021-10-14 14:45:16.975863,-66
2021-10-14 14:45:16.975872,-71
2021-10-14 14:45:16.975880,-71
2021-10-14 14:45:16.975888,-58
2021-10-14 14:45:16.975897,-58
2021-10-14 14:45:16.975905,-71
2021-10-14 14:45:16.975913,-49
2021-10-14 14:45:16.975922,63
2021-10-14 14:45:16.975930,333
2021-10-14 14:45:16.975938,738
2021-10-14 14:45:16.975947,883
2021-10-14 14:45:16.975955,282
2021-10-14 14:45:16.975963,-441
2021-10-14 14:45:16.975972,-291
2021-10-14 14:45:16.975980,100
2021-10-14 14:45:16.975988,-7
2021-10-14 14:45:16.975996,-88
2021-10-14 14:45:16.976005,31
2021-10-14 14:45:17.110819,31
2021-10-14 14:45:17.110841,-2
2021-10-14 14:45:17.110851,29
2021-10-14 14:45:17.110859,34
2021-10-14 14:45:17.110868,29
2021-10-14 14:45:17.110876,66
2021-10-14 14:45:17.110885,85
2021-10-14 14:45:17.110893,85
2021-10-14 14:45:17.110902,107
2021-10-14 14:45:17.110910,149
2021-10-14 14:45:17.110919,181
2021-10-14 14:45:17.110927,211
2021-10-14 14:45:17.110935,242
2021-10-14 14:45:17.110944,274
2021-10-14 14:45:17.110952,314
2021-10-14 14:45:17.110961,348
2021-10-14 14:45:17.110969,355
2021-10-14 14:45:17.110978,363
2021-10-14 14:45:17.110986,365
2021-10-14 14:45:17.110994,338
2021-10-14 14:45:17.111003,289
2021-10-14 14:45:17.111011,233
2021-10-14 14:45:17.111020,159
2021-10-14 14:45:17.111028,66
2021-10-14 14:45:17.111037,-26
2021-10-14 14:45:17.111045,-98
2021-10-14 14:45:17.111053,-152
2021-10-14 14:45:17.111061,-191
2021-10-14 14:45:17.111070,-203
2021-10-14 14:45:17.111078,-208
2021-10-14 14:45:17.336270,-228
2021-10-14 14:45:17.336292,-233
2021-10-14 14:45:17.336301,-223
2021-10-14 14:45:17.336310,-220
2021-10-14 14:45:17.336318,-215
2021-10-14 14:45:17.336327,-198
2021-10-14 14:45:17.336335,-206
2021-10-14 14:45:17.336344,-211
2021-10-14 14:45:17.336352,-191
2021-10-14 14:45:17.336360,-176
2021-10-14 14:45:17.336369,-176
2021-10-14 14:45:17.336377,-171
2021-10-14 14:45:17.336386,-174
2021-10-14 14:45:17.336394,-174
2021-10-14 14:45:17.336402,-164
2021-10-14 14:45:17.336411,-159
2021-10-14 14:45:17.336419,-161
2021-10-14 14:45:17.336427,-164
2021-10-14 14:45:17.336436,-161
2021-10-14 14:45:17.336444,-154
2021-10-14 14:45:17.336452,-147
2021-10-14 14:45:17.336460,-154
2021-10-14 14:45:17.336469,-154
2021-10-14 14:45:17.336477,-137
2021-10-14 14:45:17.336485,-132
2021-10-14 14:45:17.336493,-139
2021-10-14 14:45:17.336502,-134
2021-10-14 14:45:17.336510,-130
2021-10-14 14:45:17.336519,-122
2021-10-14 14:45:17.336527,-110
2021-10-14 14:45:17.560885,-110
2021-10-14 14:45:17.560908,-112
2021-10-14 14:45:17.560917,-120
2021-10-14 14:45:17.560926,-144
2021-10-14 14:45:17.560935,-144
2021-10-14 14:45:17.560943,-105
2021-10-14 14:45:17.560951,-73
2021-10-14 14:45:17.560960,-68
2021-10-14 14:45:17.560968,-76
2021-10-14 14:45:17.560977,-85
2021-10-14 14:45:17.560985,-98
2021-10-14 14:45:17.560994,-117
2021-10-14 14:45:17.561002,-120
2021-10-14 14:45:17.561012,-107
2021-10-14 14:45:17.561020,-98
2021-10-14 14:45:17.561028,-95
2021-10-14 14:45:17.561037,-93
2021-10-14 14:45:17.561045,-95
2021-10-14 14:45:17.561054,-90
2021-10-14 14:45:17.561062,-26
2021-10-14 14:45:17.561070,201
2021-10-14 14:45:17.561079,596
2021-10-14 14:45:17.561087,866
2021-10-14 14:45:17.561096,500
2021-10-14 14:45:17.561104,-291
2021-10-14 14:45:17.561112,-441
2021-10-14 14:45:17.561121,-2
2021-10-14 14:45:17.561129,49
2021-10-14 14:45:17.561138,-110
2021-10-14 14:45:17.561146,-24
2021-10-14 14:45:17.786204,29
2021-10-14 14:45:17.786225,-24
2021-10-14 14:45:17.786234,-4
2021-10-14 14:45:17.786243,34
2021-10-14 14:45:17.786251,24
2021-10-14 14:45:17.786260,17
2021-10-14 14:45:17.786268,46
2021-10-14 14:45:17.786276,80
2021-10-14 14:45:17.786284,105
2021-10-14 14:45:17.786293,122
2021-10-14 14:45:17.786301,139
2021-10-14 14:45:17.786309,169
2021-10-14 14:45:17.786318,215
2021-10-14 14:45:17.786326,242
2021-10-14 14:45:17.786334,252
2021-10-14 14:45:17.786343,287
2021-10-14 14:45:17.786351,326
2021-10-14 14:45:17.786359,321
2021-10-14 14:45:17.786368,309
2021-10-14 14:45:17.786376,316
2021-10-14 14:45:17.786384,296
2021-10-14 14:45:17.786392,235
2021-10-14 14:45:17.786401,159
2021-10-14 14:45:17.786409,68
2021-10-14 14:45:17.786417,-29
2021-10-14 14:45:17.786425,-107
2021-10-14 14:45:17.786433,-157
2021-10-14 14:45:17.786442,-196
2021-10-14 14:45:17.786450,-223
2021-10-14 14:45:17.786458,-233
2021-10-14 14:45:18.099892,-228
2021-10-14 14:45:18.099915,-225
2021-10-14 14:45:18.099924,-230
2021-10-14 14:45:18.099933,-238
2021-10-14 14:45:18.099942,-230
2021-10-14 14:45:18.099950,-215
2021-10-14 14:45:18.099959,-215
2021-10-14 14:45:18.099967,-215
2021-10-14 14:45:18.099976,-198
2021-10-14 14:45:18.099984,-193
2021-10-14 14:45:18.099992,-196
2021-10-14 14:45:18.100001,-181
2021-10-14 14:45:18.100010,-176
2021-10-14 14:45:18.100018,-193
2021-10-14 14:45:18.100026,-203
2021-10-14 14:45:18.100035,-203
2021-10-14 14:45:18.100043,-203
2021-10-14 14:45:18.100051,-198
2021-10-14 14:45:18.100060,-179
2021-10-14 14:45:18.100068,-166
2021-10-14 14:45:18.100077,-171
2021-10-14 14:45:18.100085,-181
2021-10-14 14:45:18.100093,-179
2021-10-14 14:45:18.100102,-161
2021-10-14 14:45:18.100110,-154
2021-10-14 14:45:18.100119,-157
2021-10-14 14:45:18.100127,-149
2021-10-14 14:45:18.100136,-144
2021-10-14 14:45:18.100144,-149
2021-10-14 14:45:18.100152,-139
2021-10-14 14:45:18.280833,-125
2021-10-14 14:45:18.280854,-132
2021-10-14 14:45:18.280863,-144
2021-10-14 14:45:18.280872,-144
2021-10-14 14:45:18.280881,-120
2021-10-14 14:45:18.280889,-73
2021-10-14 14:45:18.280898,-46
2021-10-14 14:45:18.280906,-53
2021-10-14 14:45:18.280914,-68
2021-10-14 14:45:18.280923,-85
2021-10-14 14:45:18.280931,-93
2021-10-14 14:45:18.280940,-103
2021-10-14 14:45:18.280948,-103
2021-10-14 14:45:18.280956,-88
2021-10-14 14:45:18.280965,-95
2021-10-14 14:45:18.280973,-105
2021-10-14 14:45:18.280981,-98
2021-10-14 14:45:18.280990,-93
2021-10-14 14:45:18.280998,-63
2021-10-14 14:45:18.281007,107
2021-10-14 14:45:18.281016,476
2021-10-14 14:45:18.281024,817
2021-10-14 14:45:18.281032,642
2021-10-14 14:45:18.281041,-132
2021-10-14 14:45:18.281049,-522
2021-10-14 14:45:18.281058,-112
2021-10-14 14:45:18.281066,88
2021-10-14 14:45:18.281074,-105
2021-10-14 14:45:18.281083,-73
2021-10-14 14:45:18.281091,22
2021-10-14 14:45:18.506102,-26
2021-10-14 14:45:18.506125,-24
2021-10-14 14:45:18.506134,24
2021-10-14 14:45:18.506143,19
2021-10-14 14:45:18.506151,26
2021-10-14 14:45:18.506160,66
2021-10-14 14:45:18.506168,80
2021-10-14 14:45:18.506176,85
2021-10-14 14:45:18.506185,103
2021-10-14 14:45:18.506193,120
2021-10-14 14:45:18.506202,132
2021-10-14 14:45:18.506210,164
2021-10-14 14:45:18.506218,220
2021-10-14 14:45:18.506227,247
2021-10-14 14:45:18.506235,245
2021-10-14 14:45:18.506244,272
2021-10-14 14:45:18.506252,306
2021-10-14 14:45:18.506261,296
2021-10-14 14:45:18.506269,269
2021-10-14 14:45:18.506277,252
2021-10-14 14:45:18.506286,220
2021-10-14 14:45:18.506294,149
2021-10-14 14:45:18.506303,58
2021-10-14 14:45:18.506311,-31
2021-10-14 14:45:18.506320,-112
2021-10-14 14:45:18.506328,-179
2021-10-14 14:45:18.506337,-238
2021-10-14 14:45:18.506345,-269
2021-10-14 14:45:18.506353,-264
2021-10-14 14:45:18.506362,-255
2021-10-14 14:45:18.730865,-269
2021-10-14 14:45:18.730887,-279
2021-10-14 14:45:18.730897,-255
2021-10-14 14:45:18.730905,-233
2021-10-14 14:45:18.730914,-228
2021-10-14 14:45:18.730922,-213
2021-10-14 14:45:18.730931,-198
2021-10-14 14:45:18.730939,-208
2021-10-14 14:45:18.730948,-215
2021-10-14 14:45:18.730956,-193
2021-10-14 14:45:18.730964,-169
2021-10-14 14:45:18.730973,-166
2021-10-14 14:45:18.730981,-181
2021-10-14 14:45:18.730990,-196
2021-10-14 14:45:18.730998,-198
2021-10-14 14:45:18.731007,-179
2021-10-14 14:45:18.731015,-164
2021-10-14 14:45:18.731023,-171
2021-10-14 14:45:18.731032,-161
2021-10-14 14:45:18.731040,-152
2021-10-14 14:45:18.731048,-157
2021-10-14 14:45:18.731056,-154
2021-10-14 14:45:18.731065,-149
2021-10-14 14:45:18.731073,-157
2021-10-14 14:45:18.731081,-157
2021-10-14 14:45:18.731090,-147
2021-10-14 14:45:18.731098,-139
2021-10-14 14:45:18.731106,-117
2021-10-14 14:45:18.731115,-68
2021-10-14 14:45:18.731123,-44
2021-10-14 14:45:18.956231,-58
2021-10-14 14:45:18.956253,-58
2021-10-14 14:45:18.956262,-63
2021-10-14 14:45:18.956271,-90
2021-10-14 14:45:18.956280,-95
2021-10-14 14:45:18.956288,-78
2021-10-14 14:45:18.956296,-78
2021-10-14 14:45:18.956305,-93
2021-10-14 14:45:18.956363,-90
2021-10-14 14:45:18.956373,-71
2021-10-14 14:45:18.956381,-63
2021-10-14 14:45:18.956390,-71
2021-10-14 14:45:18.956398,-34
2021-10-14 14:45:18.956407,152
2021-10-14 14:45:18.956415,522
2021-10-14 14:45:18.956424,807
2021-10-14 14:45:18.956432,483
2021-10-14 14:45:18.956440,-311
2021-10-14 14:45:18.956449,-473
2021-10-14 14:45:18.956457,2
2021-10-14 14:45:18.956466,73
2021-10-14 14:45:18.956474,-107
2021-10-14 14:45:18.956483,-17
2021-10-14 14:45:18.956491,56
2021-10-14 14:45:18.956499,-17
2021-10-14 14:45:18.956508,-17
2021-10-14 14:45:18.956516,46
2021-10-14 14:45:18.956524,51
2021-10-14 14:45:18.956533,44
2021-10-14 14:45:18.956541,78
2021-10-14 14:45:19.270620,112
2021-10-14 14:45:19.270642,132
2021-10-14 14:45:19.270652,159
2021-10-14 14:45:19.270661,186
2021-10-14 14:45:19.270669,208
2021-10-14 14:45:19.270678,240
2021-10-14 14:45:19.270686,269
2021-10-14 14:45:19.270694,301
2021-10-14 14:45:19.270703,341
2021-10-14 14:45:19.270711,353
2021-10-14 14:45:19.270719,348
2021-10-14 14:45:19.270727,350
2021-10-14 14:45:19.270734,336
2021-10-14 14:45:19.270742,301
2021-10-14 14:45:19.270749,245
2021-10-14 14:45:19.270757,157
2021-10-14 14:45:19.270764,49
2021-10-14 14:45:19.270772,-41
2021-10-14 14:45:19.270780,-110
2021-10-14 14:45:19.270787,-166
2021-10-14 14:45:19.270795,-203
2021-10-14 14:45:19.270802,-206
2021-10-14 14:45:19.270809,-203
2021-10-14 14:45:19.270818,-223
2021-10-14 14:45:19.270825,-225
2021-10-14 14:45:19.270833,-208
2021-10-14 14:45:19.270842,-198
2021-10-14 14:45:19.270849,-179
2021-10-14 14:45:19.270857,-159
2021-10-14 14:45:19.270865,-157
2021-10-14 14:45:19.450642,-147
2021-10-14 14:45:19.450664,-117
2021-10-14 14:45:19.450674,-112
2021-10-14 14:45:19.450683,-125
2021-10-14 14:45:19.450691,-110
2021-10-14 14:45:19.450700,-85
2021-10-14 14:45:19.450708,-88
2021-10-14 14:45:19.450717,-103
2021-10-14 14:45:19.450725,-103
2021-10-14 14:45:19.450734,-98
2021-10-14 14:45:19.450742,-90
2021-10-14 14:45:19.450750,-85
2021-10-14 14:45:19.450759,-95
2021-10-14 14:45:19.450767,-80
2021-10-14 14:45:19.450776,-61
2021-10-14 14:45:19.450784,-68
2021-10-14 14:45:19.450792,-78
2021-10-14 14:45:19.450800,-76
2021-10-14 14:45:19.450809,-83
2021-10-14 14:45:19.450817,-78
2021-10-14 14:45:19.450825,-36
2021-10-14 14:45:19.450834,-2
