Time,ECG
2021-10-14 14:39:48.524357,24
2021-10-14 14:39:48.524377,26
2021-10-14 14:39:48.524387,76
2021-10-14 14:39:48.524395,71
2021-10-14 14:39:48.524404,66
2021-10-14 14:39:48.524413,83
2021-10-14 14:39:48.524421,100
2021-10-14 14:39:48.524430,122
2021-10-14 14:39:48.524438,134
2021-10-14 14:39:48.524447,144
2021-10-14 14:39:48.524455,179
2021-10-14 14:39:48.524464,213
2021-10-14 14:39:48.524472,230
2021-10-14 14:39:48.524480,240
2021-10-14 14:39:48.524489,247
2021-10-14 14:39:48.524497,252
2021-10-14 14:39:48.524506,262
2021-10-14 14:39:48.524515,262
2021-10-14 14:39:48.524523,250
2021-10-14 14:39:48.524532,230
2021-10-14 14:39:48.524540,196
2021-10-14 14:39:48.524548,149
2021-10-14 14:39:48.524557,95
2021-10-14 14:39:48.524565,34
2021-10-14 14:39:48.524573,-31
2021-10-14 14:39:48.524582,-85
2021-10-14 14:39:48.524591,-130
2021-10-14 14:39:48.524599,-166
2021-10-14 14:39:48.524607,-181
2021-10-14 14:39:48.524616,-176
2021-10-14 14:39:48.696134,-184
2021-10-14 14:39:48.696155,-188
2021-10-14 14:39:48.696165,-174
2021-10-14 14:39:48.696173,-164
2021-10-14 14:39:48.696182,-157
2021-10-14 14:39:48.696190,-142
2021-10-14 14:39:48.696200,-125
2021-10-14 14:39:48.696208,-120
2021-10-14 14:39:48.696217,-127
2021-10-14 14:39:48.696225,-130
2021-10-14 14:39:48.696234,-125
2021-10-14 14:39:48.696242,-115
2021-10-14 14:39:48.696251,-112
2021-10-14 14:39:48.696259,-120
2021-10-14 14:39:48.696267,-127
2021-10-14 14:39:48.696276,-120
2021-10-14 14:39:48.696284,-112
2021-10-14 14:39:48.696304,-110
2021-10-14 14:39:48.696313,-107
2021-10-14 14:39:48.696321,-105
2021-10-14 14:39:48.696329,-107
2021-10-14 14:39:48.696338,-117
2021-10-14 14:39:48.696346,-130
2021-10-14 14:39:48.696354,-122
2021-10-14 14:39:48.696363,-103
2021-10-14 14:39:48.696400,-103
2021-10-14 14:39:48.696409,-110
2021-10-14 14:39:48.696417,-103
2021-10-14 14:39:48.696425,-90
2021-10-14 14:39:48.696435,-88
2021-10-14 14:39:48.876659,-88
2021-10-14 14:39:48.876680,-85
2021-10-14 14:39:48.876689,-88
2021-10-14 14:39:48.876698,-95
2021-10-14 14:39:48.876706,-85
2021-10-14 14:39:48.876714,-44
2021-10-14 14:39:48.876723,-4
2021-10-14 14:39:48.876731,-4
2021-10-14 14:39:48.876740,-29
2021-10-14 14:39:48.876748,-46
2021-10-14 14:39:48.876756,-61
2021-10-14 14:39:48.876765,-85
2021-10-14 14:39:48.876773,-88
2021-10-14 14:39:48.876785,-76
2021-10-14 14:39:48.876794,-71
2021-10-14 14:39:48.876802,-71
2021-10-14 14:39:48.876811,-73
2021-10-14 14:39:48.876819,-73
2021-10-14 14:39:48.876828,-68
2021-10-14 14:39:48.876836,-34
2021-10-14 14:39:48.876844,125
2021-10-14 14:39:48.876853,453
2021-10-14 14:39:48.876861,760
2021-10-14 14:39:48.876870,625
2021-10-14 14:39:48.876878,-95
2021-10-14 14:39:48.876887,-542
2021-10-14 14:39:48.876895,-161
2021-10-14 14:39:48.876903,115
2021-10-14 14:39:48.876912,-49
2021-10-14 14:39:48.876922,-56
2021-10-14 14:39:49.101802,36
2021-10-14 14:39:49.101825,0
2021-10-14 14:39:49.101834,-2
2021-10-14 14:39:49.101843,49
2021-10-14 14:39:49.101852,49
2021-10-14 14:39:49.101861,39
2021-10-14 14:39:49.101869,63
2021-10-14 14:39:49.101878,88
2021-10-14 14:39:49.101886,107
2021-10-14 14:39:49.101895,117
2021-10-14 14:39:49.101903,134
2021-10-14 14:39:49.101912,166
2021-10-14 14:39:49.101920,186
2021-10-14 14:39:49.101929,201
2021-10-14 14:39:49.101937,213
2021-10-14 14:39:49.101946,213
2021-10-14 14:39:49.101954,228
2021-10-14 14:39:49.101967,235
2021-10-14 14:39:49.101975,220
2021-10-14 14:39:49.101984,225
2021-10-14 14:39:49.101992,225
2021-10-14 14:39:49.102000,184
2021-10-14 14:39:49.102009,139
2021-10-14 14:39:49.102018,88
2021-10-14 14:39:49.102026,4
2021-10-14 14:39:49.102035,-71
2021-10-14 14:39:49.102043,-130
2021-10-14 14:39:49.102051,-186
2021-10-14 14:39:49.102061,-211
2021-10-14 14:39:49.102069,-218
2021-10-14 14:39:49.326361,-238
2021-10-14 14:39:49.326382,-240
2021-10-14 14:39:49.326391,-228
2021-10-14 14:39:49.326400,-228
2021-10-14 14:39:49.326409,-218
2021-10-14 14:39:49.326418,-206
2021-10-14 14:39:49.326426,-203
2021-10-14 14:39:49.326440,-196
2021-10-14 14:39:49.326449,-176
2021-10-14 14:39:49.326457,-161
2021-10-14 14:39:49.326466,-169
2021-10-14 14:39:49.326474,-174
2021-10-14 14:39:49.326483,-164
2021-10-14 14:39:49.326491,-154
2021-10-14 14:39:49.326500,-157
2021-10-14 14:39:49.326508,-152
2021-10-14 14:39:49.326517,-159
2021-10-14 14:39:49.326525,-181
2021-10-14 14:39:49.326533,-174
2021-10-14 14:39:49.326542,-152
2021-10-14 14:39:49.326551,-164
2021-10-14 14:39:49.326559,-169
2021-10-14 14:39:49.326568,-149
2021-10-14 14:39:49.326576,-144
2021-10-14 14:39:49.326585,-147
2021-10-14 14:39:49.326593,-137
2021-10-14 14:39:49.326602,-132
2021-10-14 14:39:49.326610,-139
2021-10-14 14:39:49.326618,-147
2021-10-14 14:39:49.326628,-149
2021-10-14 14:39:49.551604,-147
2021-10-14 14:39:49.551625,-134
2021-10-14 14:39:49.551635,-120
2021-10-14 14:39:49.551644,-93
2021-10-14 14:39:49.551653,-73
2021-10-14 14:39:49.551661,-80
2021-10-14 14:39:49.551670,-78
2021-10-14 14:39:49.551678,-63
2021-10-14 14:39:49.551687,-76
2021-10-14 14:39:49.551695,-107
2021-10-14 14:39:49.551704,-107
2021-10-14 14:39:49.551712,-93
2021-10-14 14:39:49.551721,-93
2021-10-14 14:39:49.551729,-85
2021-10-14 14:39:49.551738,-88
2021-10-14 14:39:49.551746,-103
2021-10-14 14:39:49.551755,-98
2021-10-14 14:39:49.551763,-41
2021-10-14 14:39:49.551771,132
2021-10-14 14:39:49.551780,463
2021-10-14 14:39:49.551788,777
2021-10-14 14:39:49.551797,637
2021-10-14 14:39:49.551805,-83
2021-10-14 14:39:49.551813,-478
2021-10-14 14:39:49.551827,-80
2021-10-14 14:39:49.551835,137
2021-10-14 14:39:49.551844,-56
2021-10-14 14:39:49.551852,-53
2021-10-14 14:39:49.551861,39
2021-10-14 14:39:49.551869,0
2021-10-14 14:39:49.776690,-12
2021-10-14 14:39:49.776712,34
2021-10-14 14:39:49.776722,44
2021-10-14 14:39:49.776730,49
2021-10-14 14:39:49.776738,73
2021-10-14 14:39:49.776747,88
2021-10-14 14:39:49.776755,105
2021-10-14 14:39:49.776764,134
2021-10-14 14:39:49.776771,161
2021-10-14 14:39:49.776778,176
2021-10-14 14:39:49.776785,188
2021-10-14 14:39:49.776792,211
2021-10-14 14:39:49.776800,242
2021-10-14 14:39:49.776808,267
2021-10-14 14:39:49.776816,277
2021-10-14 14:39:49.776824,277
2021-10-14 14:39:49.776833,262
2021-10-14 14:39:49.776841,245
2021-10-14 14:39:49.776849,245
2021-10-14 14:39:49.776858,225
2021-10-14 14:39:49.776866,149
2021-10-14 14:39:49.776874,66
2021-10-14 14:39:49.776884,0
2021-10-14 14:39:49.776892,-71
2021-10-14 14:39:49.776901,-147
2021-10-14 14:39:49.776909,-193
2021-10-14 14:39:49.776917,-211
2021-10-14 14:39:49.776926,-223
2021-10-14 14:39:49.776934,-230
2021-10-14 14:39:49.776942,-225
2021-10-14 14:39:50.046573,-208
2021-10-14 14:39:50.046594,-203
2021-10-14 14:39:50.046602,-215
2021-10-14 14:39:50.046610,-218
2021-10-14 14:39:50.046615,-208
2021-10-14 14:39:50.046619,-198
2021-10-14 14:39:50.046623,-181
2021-10-14 14:39:50.046628,-161
2021-10-14 14:39:50.046632,-154
2021-10-14 14:39:50.046637,-154
2021-10-14 14:39:50.046642,-147
2021-10-14 14:39:50.046647,-137
2021-10-14 14:39:50.046651,-130
2021-10-14 14:39:50.046656,-120
2021-10-14 14:39:50.046660,-120
2021-10-14 14:39:50.046665,-132
2021-10-14 14:39:50.046669,-134
2021-10-14 14:39:50.046673,-127
2021-10-14 14:39:50.046678,-112
2021-10-14 14:39:50.046682,-98
2021-10-14 14:39:50.046686,-100
2021-10-14 14:39:50.046691,-105
2021-10-14 14:39:50.046695,-110
2021-10-14 14:39:50.046699,-117
2021-10-14 14:39:50.046707,-110
2021-10-14 14:39:50.046712,-85
2021-10-14 14:39:50.046716,-53
2021-10-14 14:39:50.046720,-34
2021-10-14 14:39:50.046725,-26
2021-10-14 14:39:50.046729,-22
2021-10-14 14:39:50.315500,-31
2021-10-14 14:39:50.315519,-56
2021-10-14 14:39:50.315528,-73
2021-10-14 14:39:50.315537,-76
2021-10-14 14:39:50.315545,-78
2021-10-14 14:39:50.315554,-73
2021-10-14 14:39:50.315563,-63
2021-10-14 14:39:50.315571,-58
2021-10-14 14:39:50.315580,-76
2021-10-14 14:39:50.315588,-93
2021-10-14 14:39:50.315596,-58
2021-10-14 14:39:50.315605,68
2021-10-14 14:39:50.315614,328
2021-10-14 14:39:50.315622,664
2021-10-14 14:39:50.315630,736
2021-10-14 14:39:50.315639,184
2021-10-14 14:39:50.315647,-424
2021-10-14 14:39:50.315656,-242
2021-10-14 14:39:50.315664,117
2021-10-14 14:39:50.315673,0
2021-10-14 14:39:50.315681,-80
2021-10-14 14:39:50.315690,24
2021-10-14 14:39:50.315698,17
2021-10-14 14:39:50.315706,-22
2021-10-14 14:39:50.315715,24
2021-10-14 14:39:50.315723,61
2021-10-14 14:39:50.315732,63
2021-10-14 14:39:50.315740,76
2021-10-14 14:39:50.315748,85
2021-10-14 14:39:50.315757,90
2021-10-14 14:39:50.541200,117
2021-10-14 14:39:50.541220,157
2021-10-14 14:39:50.541229,174
2021-10-14 14:39:50.541238,198
2021-10-14 14:39:50.541247,240
2021-10-14 14:39:50.541255,262
2021-10-14 14:39:50.541264,264
2021-10-14 14:39:50.541273,272
2021-10-14 14:39:50.541281,284
2021-10-14 14:39:50.541289,284
2021-10-14 14:39:50.541298,267
2021-10-14 14:39:50.541306,245
2021-10-14 14:39:50.541315,225
2021-10-14 14:39:50.541323,179
2021-10-14 14:39:50.541331,90
2021-10-14 14:39:50.541340,-9
2021-10-14 14:39:50.541348,-95
2021-10-14 14:39:50.541357,-144
2021-10-14 14:39:50.541365,-176
2021-10-14 14:39:50.541373,-215
2021-10-14 14:39:50.541382,-240
2021-10-14 14:39:50.541390,-240
2021-10-14 14:39:50.541399,-233
2021-10-14 14:39:50.541407,-223
2021-10-14 14:39:50.541416,-220
2021-10-14 14:39:50.541424,-218
2021-10-14 14:39:50.541433,-211
2021-10-14 14:39:50.541441,-198
2021-10-14 14:39:50.541449,-184
2021-10-14 14:39:50.541458,-166
2021-10-14 14:39:50.721733,-152
2021-10-14 14:39:50.721755,-152
2021-10-14 14:39:50.721764,-152
2021-10-14 14:39:50.721773,-142
2021-10-14 14:39:50.721781,-130
2021-10-14 14:39:50.721790,-117
2021-10-14 14:39:50.721798,-117
2021-10-14 14:39:50.721807,-132
2021-10-14 14:39:50.721815,-144
2021-10-14 14:39:50.721823,-137
2021-10-14 14:39:50.721838,-120
2021-10-14 14:39:50.721846,-112
2021-10-14 14:39:50.721855,-125
2021-10-14 14:39:50.721863,-139
2021-10-14 14:39:50.721872,-125
2021-10-14 14:39:50.721880,-103
2021-10-14 14:39:50.721888,-112
2021-10-14 14:39:50.721897,-125
2021-10-14 14:39:50.721905,-117
2021-10-14 14:39:50.721913,-112
2021-10-14 14:39:50.721922,-98
2021-10-14 14:39:50.721930,-58
2021-10-14 14:39:50.721938,-41
2021-10-14 14:39:50.721947,-46
2021-10-14 14:39:50.721955,-46
2021-10-14 14:39:50.721963,-68
2021-10-14 14:39:50.721972,-95
2021-10-14 14:39:50.721980,-85
2021-10-14 14:39:50.721988,-66
2021-10-14 14:39:50.721996,-76
2021-10-14 14:39:50.991701,-78
2021-10-14 14:39:50.991723,-63
2021-10-14 14:39:50.991733,-63
2021-10-14 14:39:50.991741,-68
2021-10-14 14:39:50.991750,-58
2021-10-14 14:39:50.991759,29
2021-10-14 14:39:50.991767,304
2021-10-14 14:39:50.991776,682
2021-10-14 14:39:50.991784,782
2021-10-14 14:39:50.991793,220
2021-10-14 14:39:50.991801,-449
2021-10-14 14:39:50.991810,-291
2021-10-14 14:39:50.991818,95
2021-10-14 14:39:50.991827,-26
2021-10-14 14:39:50.991835,-125
2021-10-14 14:39:50.991844,-22
2021-10-14 14:39:50.991852,-36
2021-10-14 14:39:50.991860,-66
2021-10-14 14:39:50.991869,-7
2021-10-14 14:39:50.991878,19
2021-10-14 14:39:50.991886,19
2021-10-14 14:39:50.991895,56
2021-10-14 14:39:50.991903,80
2021-10-14 14:39:50.991911,90
2021-10-14 14:39:50.991920,117
2021-10-14 14:39:50.991934,144
2021-10-14 14:39:50.991942,157
2021-10-14 14:39:50.991951,188
2021-10-14 14:39:50.991959,238
2021-10-14 14:39:50.991968,257
2021-10-14 14:39:51.171349,262
2021-10-14 14:39:51.171369,294
2021-10-14 14:39:51.171379,318
2021-10-14 14:39:51.171387,306
2021-10-14 14:39:51.171396,287
2021-10-14 14:39:51.171404,274
2021-10-14 14:39:51.171413,230
2021-10-14 14:39:51.171421,171
2021-10-14 14:39:51.171430,112
2021-10-14 14:39:51.171438,34
2021-10-14 14:39:51.171447,-49
2021-10-14 14:39:51.171455,-110
2021-10-14 14:39:51.171464,-166
2021-10-14 14:39:51.171472,-215
2021-10-14 14:39:51.171480,-235
2021-10-14 14:39:51.171489,-238
2021-10-14 14:39:51.171497,-235
2021-10-14 14:39:51.171505,-240
2021-10-14 14:39:51.171514,-238
2021-10-14 14:39:51.171522,-208
2021-10-14 14:39:51.171530,-184
2021-10-14 14:39:51.171539,-193
2021-10-14 14:39:51.171547,-201
2021-10-14 14:39:51.171556,-179
2021-10-14 14:39:51.171564,-166
2021-10-14 14:39:51.171573,-166
2021-10-14 14:39:51.171581,-149
2021-10-14 14:39:51.171589,-125
2021-10-14 14:39:51.171598,-130
2021-10-14 14:39:51.171607,-144
2021-10-14 14:39:51.396748,-130
2021-10-14 14:39:51.396770,-120
2021-10-14 14:39:51.396779,-132
2021-10-14 14:39:51.396788,-134
2021-10-14 14:39:51.396797,-120
2021-10-14 14:39:51.396805,-122
2021-10-14 14:39:51.396814,-127
2021-10-14 14:39:51.396822,-117
2021-10-14 14:39:51.396831,-122
2021-10-14 14:39:51.396839,-132
2021-10-14 14:39:51.396848,-134
2021-10-14 14:39:51.396856,-149
2021-10-14 14:39:51.396864,-159
2021-10-14 14:39:51.396873,-142
2021-10-14 14:39:51.396881,-139
2021-10-14 14:39:51.396889,-147
2021-10-14 14:39:51.396903,-105
2021-10-14 14:39:51.396911,-61
2021-10-14 14:39:51.396920,-58
2021-10-14 14:39:51.396928,-78
2021-10-14 14:39:51.396937,-90
2021-10-14 14:39:51.396945,-90
2021-10-14 14:39:51.396954,-93
2021-10-14 14:39:51.396962,-105
2021-10-14 14:39:51.396970,-93
2021-10-14 14:39:51.396979,-66
2021-10-14 14:39:51.396987,-63
2021-10-14 14:39:51.396995,-71
2021-10-14 14:39:51.397004,-66
2021-10-14 14:39:51.397012,-51
2021-10-14 14:39:51.621766,36
2021-10-14 14:39:51.621786,301
2021-10-14 14:39:51.621796,677
2021-10-14 14:39:51.621804,794
2021-10-14 14:39:51.621813,279
2021-10-14 14:39:51.621822,-399
2021-10-14 14:39:51.621830,-314
2021-10-14 14:39:51.621839,107
2021-10-14 14:39:51.621847,41
2021-10-14 14:39:51.621856,-93
2021-10-14 14:39:51.621864,4
2021-10-14 14:39:51.621873,41
2021-10-14 14:39:51.621882,12
2021-10-14 14:39:51.621890,34
2021-10-14 14:39:51.621899,58
2021-10-14 14:39:51.621907,58
2021-10-14 14:39:51.621916,66
2021-10-14 14:39:51.621925,100
2021-10-14 14:39:51.621934,130
2021-10-14 14:39:51.621943,132
2021-10-14 14:39:51.621955,154
2021-10-14 14:39:51.621963,203
2021-10-14 14:39:51.621972,225
2021-10-14 14:39:51.621982,235
2021-10-14 14:39:51.621993,267
2021-10-14 14:39:51.622005,314
2021-10-14 14:39:51.622017,326
2021-10-14 14:39:51.622029,311
2021-10-14 14:39:51.622071,328
2021-10-14 14:39:51.622089,345
2021-10-14 14:39:51.891327,316
2021-10-14 14:39:51.891348,289
2021-10-14 14:39:51.891357,257
2021-10-14 14:39:51.891366,171
2021-10-14 14:39:51.891374,61
2021-10-14 14:39:51.891383,-29
2021-10-14 14:39:51.891392,-80
2021-10-14 14:39:51.891400,-107
2021-10-14 14:39:51.891408,-154
2021-10-14 14:39:51.891417,-215
2021-10-14 14:39:51.891425,-220
2021-10-14 14:39:51.891434,-193
2021-10-14 14:39:51.891442,-206
2021-10-14 14:39:51.891454,-223
2021-10-14 14:39:51.891462,-206
2021-10-14 14:39:51.891471,-181
2021-10-14 14:39:51.891479,-186
2021-10-14 14:39:51.891488,-198
2021-10-14 14:39:51.891496,-201
2021-10-14 14:39:51.891504,-188
2021-10-14 14:39:51.891513,-169
2021-10-14 14:39:51.891521,-161
2021-10-14 14:39:51.891530,-166
2021-10-14 14:39:51.891538,-152
2021-10-14 14:39:51.891547,-122
2021-10-14 14:39:51.891555,-127
2021-10-14 14:39:51.891564,-152
2021-10-14 14:39:51.891572,-142
2021-10-14 14:39:51.891580,-115
2021-10-14 14:39:51.891589,-117
2021-10-14 14:39:52.116762,-130
2021-10-14 14:39:52.116785,-122
2021-10-14 14:39:52.116794,-115
2021-10-14 14:39:52.116803,-134
2021-10-14 14:39:52.116811,-142
2021-10-14 14:39:52.116820,-107
2021-10-14 14:39:52.116828,-76
2021-10-14 14:39:52.116837,-93
2021-10-14 14:39:52.116845,-120
2021-10-14 14:39:52.116854,-117
2021-10-14 14:39:52.116862,-83
2021-10-14 14:39:52.116871,-56
2021-10-14 14:39:52.116879,-49
2021-10-14 14:39:52.116887,-31
2021-10-14 14:39:52.116896,-31
2021-10-14 14:39:52.116904,-80
2021-10-14 14:39:52.116913,-103
2021-10-14 14:39:52.116921,-93
2021-10-14 14:39:52.116930,-85
2021-10-14 14:39:52.116938,-73
2021-10-14 14:39:52.116946,-66
2021-10-14 14:39:52.116955,-80
2021-10-14 14:39:52.116963,-93
2021-10-14 14:39:52.116971,-68
2021-10-14 14:39:52.116980,-17
2021-10-14 14:39:52.116988,100
2021-10-14 14:39:52.116996,365
2021-10-14 14:39:52.117005,687
2021-10-14 14:39:52.117013,655
2021-10-14 14:39:52.117021,24
2021-10-14 14:39:52.384990,-456
2021-10-14 14:39:52.385010,-144
2021-10-14 14:39:52.385020,139
2021-10-14 14:39:52.385029,-22
2021-10-14 14:39:52.385037,-51
2021-10-14 14:39:52.385046,44
2021-10-14 14:39:52.385054,19
2021-10-14 14:39:52.385063,12
2021-10-14 14:39:52.385071,41
2021-10-14 14:39:52.385080,39
2021-10-14 14:39:52.385088,58
2021-10-14 14:39:52.385096,103
2021-10-14 14:39:52.385105,110
2021-10-14 14:39:52.385113,107
2021-10-14 14:39:52.385122,134
2021-10-14 14:39:52.385130,169
2021-10-14 14:39:52.385138,184
2021-10-14 14:39:52.385149,206
2021-10-14 14:39:52.385158,250
2021-10-14 14:39:52.385166,291
2021-10-14 14:39:52.385175,309
2021-10-14 14:39:52.385183,311
2021-10-14 14:39:52.385191,306
2021-10-14 14:39:52.385200,294
2021-10-14 14:39:52.385208,296
2021-10-14 14:39:52.385217,287
2021-10-14 14:39:52.385225,245
2021-10-14 14:39:52.385234,174
2021-10-14 14:39:52.385242,103
2021-10-14 14:39:52.385250,31
2021-10-14 14:39:52.566636,-44
2021-10-14 14:39:52.566658,-112
2021-10-14 14:39:52.566667,-149
2021-10-14 14:39:52.566676,-171
2021-10-14 14:39:52.566685,-196
2021-10-14 14:39:52.566693,-198
2021-10-14 14:39:52.566702,-191
2021-10-14 14:39:52.566711,-208
2021-10-14 14:39:52.566719,-213
2021-10-14 14:39:52.566727,-193
2021-10-14 14:39:52.566736,-174
2021-10-14 14:39:52.566744,-157
2021-10-14 14:39:52.566753,-159
2021-10-14 14:39:52.566761,-176
2021-10-14 14:39:52.566770,-176
2021-10-14 14:39:52.566778,-159
2021-10-14 14:39:52.566786,-152
2021-10-14 14:39:52.566795,-154
2021-10-14 14:39:52.566803,-152
2021-10-14 14:39:52.566812,-144
2021-10-14 14:39:52.566820,-137
2021-10-14 14:39:52.566829,-134
2021-10-14 14:39:52.566837,-137
2021-10-14 14:39:52.566845,-134
2021-10-14 14:39:52.566854,-134
2021-10-14 14:39:52.566862,-147
2021-10-14 14:39:52.566871,-147
2021-10-14 14:39:52.566879,-130
2021-10-14 14:39:52.566888,-125
2021-10-14 14:39:52.566896,-125
2021-10-14 14:39:52.791742,-125
2021-10-14 14:39:52.791763,-125
2021-10-14 14:39:52.791773,-120
2021-10-14 14:39:52.791782,-117
2021-10-14 14:39:52.791791,-117
2021-10-14 14:39:52.791799,-112
2021-10-14 14:39:52.791808,-105
2021-10-14 14:39:52.791816,-107
2021-10-14 14:39:52.791825,-115
2021-10-14 14:39:52.791833,-120
2021-10-14 14:39:52.791841,-93
2021-10-14 14:39:52.791850,-46
2021-10-14 14:39:52.791858,-36
2021-10-14 14:39:52.791867,-51
2021-10-14 14:39:52.791875,-49
2021-10-14 14:39:52.791884,-58
2021-10-14 14:39:52.791892,-80
2021-10-14 14:39:52.791900,-83
2021-10-14 14:39:52.791909,-83
2021-10-14 14:39:52.791917,-90
2021-10-14 14:39:52.791925,-80
2021-10-14 14:39:52.791934,-61
2021-10-14 14:39:52.791942,-56
2021-10-14 14:39:52.791950,-66
2021-10-14 14:39:52.791959,-39
2021-10-14 14:39:52.791967,105
2021-10-14 14:39:52.791976,397
2021-10-14 14:39:52.791984,691
2021-10-14 14:39:52.791993,593
2021-10-14 14:39:52.792005,-66
2021-10-14 14:39:53.060876,-490
2021-10-14 14:39:53.060898,-144
2021-10-14 14:39:53.060908,107
2021-10-14 14:39:53.060917,-66
2021-10-14 14:39:53.060925,-76
2021-10-14 14:39:53.060933,22
2021-10-14 14:39:53.060942,-19
2021-10-14 14:39:53.060950,-41
2021-10-14 14:39:53.060959,9
2021-10-14 14:39:53.060967,24
2021-10-14 14:39:53.060975,17
2021-10-14 14:39:53.060983,39
2021-10-14 14:39:53.060991,68
2021-10-14 14:39:53.061000,93
2021-10-14 14:39:53.061008,117
2021-10-14 14:39:53.061017,144
2021-10-14 14:39:53.061025,174
2021-10-14 14:39:53.061033,201
2021-10-14 14:39:53.061042,218
2021-10-14 14:39:53.061051,247
2021-10-14 14:39:53.061059,291
2021-10-14 14:39:53.061067,301
2021-10-14 14:39:53.061076,284
2021-10-14 14:39:53.061084,299
2021-10-14 14:39:53.061092,316
2021-10-14 14:39:53.061100,296
2021-10-14 14:39:53.061109,255
2021-10-14 14:39:53.061117,198
2021-10-14 14:39:53.061126,127
2021-10-14 14:39:53.061134,34
2021-10-14 14:39:53.241459,-51
2021-10-14 14:39:53.241526,-93
2021-10-14 14:39:53.241536,-112
2021-10-14 14:39:53.241545,-164
2021-10-14 14:39:53.241554,-213
2021-10-14 14:39:53.241562,-215
2021-10-14 14:39:53.241571,-201
2021-10-14 14:39:53.241579,-196
2021-10-14 14:39:53.241588,-191
2021-10-14 14:39:53.241596,-191
2021-10-14 14:39:53.241605,-184
2021-10-14 14:39:53.241613,-181
2021-10-14 14:39:53.241622,-191
2021-10-14 14:39:53.241630,-176
2021-10-14 14:39:53.241638,-152
2021-10-14 14:39:53.241647,-154
2021-10-14 14:39:53.241655,-154
2021-10-14 14:39:53.241663,-147
2021-10-14 14:39:53.241671,-137
2021-10-14 14:39:53.241680,-122
2021-10-14 14:39:53.241688,-125
2021-10-14 14:39:53.241697,-139
2021-10-14 14:39:53.241705,-130
2021-10-14 14:39:53.241713,-122
2021-10-14 14:39:53.241721,-127
2021-10-14 14:39:53.241730,-122
2021-10-14 14:39:53.241738,-117
2021-10-14 14:39:53.241746,-120
2021-10-14 14:39:53.241754,-120
2021-10-14 14:39:53.241763,-117
2021-10-14 14:39:53.466815,-115
2021-10-14 14:39:53.466858,-122
2021-10-14 14:39:53.466868,-120
2021-10-14 14:39:53.466877,-120
2021-10-14 14:39:53.466885,-139
2021-10-14 14:39:53.466894,-142
2021-10-14 14:39:53.466902,-122
2021-10-14 14:39:53.466911,-112
2021-10-14 14:39:53.466919,-117
2021-10-14 14:39:53.466928,-122
2021-10-14 14:39:53.466936,-110
2021-10-14 14:39:53.466945,-103
2021-10-14 14:39:53.466953,-115
2021-10-14 14:39:53.466961,-120
2021-10-14 14:39:53.466970,-90
2021-10-14 14:39:53.466979,-46
2021-10-14 14:39:53.466987,-29
2021-10-14 14:39:53.466995,-34
2021-10-14 14:39:53.467004,-19
2021-10-14 14:39:53.467012,-7
2021-10-14 14:39:53.467024,-36
2021-10-14 14:39:53.467033,-61
2021-10-14 14:39:53.467041,-41
2021-10-14 14:39:53.467049,-29
2021-10-14 14:39:53.467058,-39
2021-10-14 14:39:53.467066,-39
2021-10-14 14:39:53.467075,-31
2021-10-14 14:39:53.467083,-24
2021-10-14 14:39:53.467091,-22
2021-10-14 14:39:53.467099,29
2021-10-14 14:39:53.735773,264
2021-10-14 14:39:53.735796,655
2021-10-14 14:39:53.735805,848
2021-10-14 14:39:53.735814,424
2021-10-14 14:39:53.735823,-304
2021-10-14 14:39:53.735831,-345
2021-10-14 14:39:53.735840,98
2021-10-14 14:39:53.735848,105
2021-10-14 14:39:53.735857,-61
2021-10-14 14:39:53.735865,17
2021-10-14 14:39:53.735874,51
2021-10-14 14:39:53.735882,0
2021-10-14 14:39:53.735891,29
2021-10-14 14:39:53.735899,80
2021-10-14 14:39:53.735908,85
2021-10-14 14:39:53.735916,93
2021-10-14 14:39:53.735924,120
2021-10-14 14:39:53.735933,142
2021-10-14 14:39:53.735941,161
2021-10-14 14:39:53.735949,184
2021-10-14 14:39:53.735958,203
2021-10-14 14:39:53.735966,228
2021-10-14 14:39:53.735975,262
2021-10-14 14:39:53.735983,311
2021-10-14 14:39:53.735991,343
2021-10-14 14:39:53.736000,355
2021-10-14 14:39:53.736008,365
2021-10-14 14:39:53.736017,370
2021-10-14 14:39:53.736025,375
2021-10-14 14:39:53.736033,365
2021-10-14 14:39:54.006155,331
2021-10-14 14:39:54.006177,301
2021-10-14 14:39:54.006186,242
2021-10-14 14:39:54.006195,137
2021-10-14 14:39:54.006204,66
2021-10-14 14:39:54.006212,9
2021-10-14 14:39:54.006221,-83
2021-10-14 14:39:54.006229,-142
2021-10-14 14:39:54.006238,-137
2021-10-14 14:39:54.006246,-159
2021-10-14 14:39:54.006255,-211
2021-10-14 14:39:54.006263,-208
2021-10-14 14:39:54.006272,-181
2021-10-14 14:39:54.006280,-174
2021-10-14 14:39:54.006289,-169
2021-10-14 14:39:54.006297,-159
2021-10-14 14:39:54.006305,-164
2021-10-14 14:39:54.006314,-152
2021-10-14 14:39:54.006322,-115
2021-10-14 14:39:54.006331,-110
2021-10-14 14:39:54.006340,-127
2021-10-14 14:39:54.006348,-105
2021-10-14 14:39:54.006356,-76
2021-10-14 14:39:54.006365,-80
2021-10-14 14:39:54.006373,-80
2021-10-14 14:39:54.006381,-58
2021-10-14 14:39:54.006390,-66
2021-10-14 14:39:54.006398,-83
2021-10-14 14:39:54.006407,-68
2021-10-14 14:39:54.006415,-56
2021-10-14 14:39:54.186762,-61
2021-10-14 14:39:54.186782,-63
2021-10-14 14:39:54.186792,-61
2021-10-14 14:39:54.186800,-58
2021-10-14 14:39:54.186809,-53
2021-10-14 14:39:54.186817,-51
2021-10-14 14:39:54.186826,-56
2021-10-14 14:39:54.186834,-63
2021-10-14 14:39:54.186843,-71
2021-10-14 14:39:54.186851,-68
2021-10-14 14:39:54.186860,-66
2021-10-14 14:39:54.186868,-56
2021-10-14 14:39:54.186876,-34
2021-10-14 14:39:54.186885,-26
2021-10-14 14:39:54.186893,-49
2021-10-14 14:39:54.186902,-61
2021-10-14 14:39:54.186910,-39
2021-10-14 14:39:54.186918,-17
2021-10-14 14:39:54.186927,-34
2021-10-14 14:39:54.186935,-63
2021-10-14 14:39:54.186943,-61
2021-10-14 14:39:54.186952,-7
2021-10-14 14:39:54.186964,36
2021-10-14 14:39:54.186973,31
2021-10-14 14:39:54.186981,22
2021-10-14 14:39:54.186990,26
2021-10-14 14:39:54.186998,2
2021-10-14 14:39:54.187007,-36
2021-10-14 14:39:54.187015,-26
2021-10-14 14:39:54.187023,12
2021-10-14 14:39:54.455142,0
2021-10-14 14:39:54.455164,-29
2021-10-14 14:39:54.455174,-9
2021-10-14 14:39:54.455182,9
2021-10-14 14:39:54.455191,-7
2021-10-14 14:39:54.455199,19
2021-10-14 14:39:54.455208,191
2021-10-14 14:39:54.455216,507
2021-10-14 14:39:54.455225,804
2021-10-14 14:39:54.455233,662
2021-10-14 14:39:54.455242,-76
2021-10-14 14:39:54.455250,-483
2021-10-14 14:39:54.455259,-66
2021-10-14 14:39:54.455267,174
2021-10-14 14:39:54.455276,-22
2021-10-14 14:39:54.455284,-24
2021-10-14 14:39:54.455293,56
2021-10-14 14:39:54.455301,7
2021-10-14 14:39:54.455309,4
2021-10-14 14:39:54.455318,58
2021-10-14 14:39:54.455326,66
2021-10-14 14:39:54.455334,58
2021-10-14 14:39:54.455343,85
2021-10-14 14:39:54.455351,115
2021-10-14 14:39:54.455360,122
2021-10-14 14:39:54.455368,134
2021-10-14 14:39:54.455376,161
2021-10-14 14:39:54.455385,186
2021-10-14 14:39:54.455393,211
2021-10-14 14:39:54.455402,247
2021-10-14 14:39:54.725778,274
2021-10-14 14:39:54.725801,272
2021-10-14 14:39:54.725810,287
2021-10-14 14:39:54.725819,314
2021-10-14 14:39:54.725828,304
2021-10-14 14:39:54.725837,301
2021-10-14 14:39:54.725845,294
2021-10-14 14:39:54.725854,245
2021-10-14 14:39:54.725862,196
2021-10-14 14:39:54.725870,144
2021-10-14 14:39:54.725879,53
2021-10-14 14:39:54.725888,-49
2021-10-14 14:39:54.725896,-120
2021-10-14 14:39:54.725905,-161
2021-10-14 14:39:54.725913,-193
2021-10-14 14:39:54.725921,-213
2021-10-14 14:39:54.725930,-218
2021-10-14 14:39:54.725938,-215
2021-10-14 14:39:54.725947,-213
2021-10-14 14:39:54.725955,-213
2021-10-14 14:39:54.725964,-206
2021-10-14 14:39:54.725972,-193
2021-10-14 14:39:54.725981,-174
2021-10-14 14:39:54.725989,-159
2021-10-14 14:39:54.725998,-159
2021-10-14 14:39:54.726006,-147
2021-10-14 14:39:54.726014,-122
2021-10-14 14:39:54.726023,-122
2021-10-14 14:39:54.726031,-130
2021-10-14 14:39:54.726040,-122
2021-10-14 14:39:54.861849,-117
2021-10-14 14:39:54.861872,-122
2021-10-14 14:39:54.861883,-115
2021-10-14 14:39:54.861892,-115
2021-10-14 14:39:54.861902,-122
2021-10-14 14:39:54.861911,-115
2021-10-14 14:39:54.861920,-107
2021-10-14 14:39:54.861929,-117
2021-10-14 14:39:54.861938,-117
2021-10-14 14:39:54.861948,-112
2021-10-14 14:39:54.861957,-107
2021-10-14 14:39:54.861966,-100
2021-10-14 14:39:54.861975,-105
2021-10-14 14:39:54.861984,-115
2021-10-14 14:39:54.861993,-107
2021-10-14 14:39:54.862003,-93
2021-10-14 14:39:54.862012,-90
2021-10-14 14:39:54.862021,-100
2021-10-14 14:39:54.862030,-103
2021-10-14 14:39:54.862039,-93
2021-10-14 14:39:54.862049,-85
2021-10-14 14:39:54.862058,-93
2021-10-14 14:39:54.862067,-107
2021-10-14 14:39:54.862076,-115
2021-10-14 14:39:54.862085,-110
2021-10-14 14:39:54.862094,-95
2021-10-14 14:39:54.862103,-63
2021-10-14 14:39:54.862113,-31
2021-10-14 14:39:54.862122,-36
2021-10-14 14:39:54.862131,-53
2021-10-14 14:39:55.086627,-56
2021-10-14 14:39:55.086647,-68
2021-10-14 14:39:55.086657,-80
2021-10-14 14:39:55.086666,-68
2021-10-14 14:39:55.086675,-66
2021-10-14 14:39:55.086686,-83
2021-10-14 14:39:55.086695,-73
2021-10-14 14:39:55.086703,-66
2021-10-14 14:39:55.086712,-85
2021-10-14 14:39:55.086720,-80
2021-10-14 14:39:55.086729,-19
2021-10-14 14:39:55.086737,174
2021-10-14 14:39:55.086746,532
2021-10-14 14:39:55.086755,785
2021-10-14 14:39:55.086763,436
2021-10-14 14:39:55.086772,-353
2021-10-14 14:39:55.086780,-529
2021-10-14 14:39:55.086789,-56
2021-10-14 14:39:55.086797,66
2021-10-14 14:39:55.086805,-95
2021-10-14 14:39:55.086814,-51
2021-10-14 14:39:55.086822,2
2021-10-14 14:39:55.086831,-34
2021-10-14 14:39:55.086839,-19
2021-10-14 14:39:55.086847,4
2021-10-14 14:39:55.086856,-4
2021-10-14 14:39:55.086864,7
2021-10-14 14:39:55.086873,44
2021-10-14 14:39:55.086881,66
2021-10-14 14:39:55.086889,83
2021-10-14 14:39:55.311787,115
2021-10-14 14:39:55.311808,139
2021-10-14 14:39:55.311817,166
2021-10-14 14:39:55.311826,208
2021-10-14 14:39:55.311834,230
2021-10-14 14:39:55.311843,233
2021-10-14 14:39:55.311851,267
2021-10-14 14:39:55.311859,306
2021-10-14 14:39:55.311867,306
2021-10-14 14:39:55.311876,296
2021-10-14 14:39:55.311884,301
2021-10-14 14:39:55.311893,279
2021-10-14 14:39:55.311901,235
2021-10-14 14:39:55.311909,184
2021-10-14 14:39:55.311917,115
2021-10-14 14:39:55.311926,24
2021-10-14 14:39:55.311934,-61
2021-10-14 14:39:55.311942,-130
2021-10-14 14:39:55.311950,-174
2021-10-14 14:39:55.311959,-196
2021-10-14 14:39:55.311967,-218
2021-10-14 14:39:55.311975,-240
2021-10-14 14:39:55.311983,-230
2021-10-14 14:39:55.311992,-213
2021-10-14 14:39:55.312000,-213
2021-10-14 14:39:55.312008,-206
2021-10-14 14:39:55.312016,-179
2021-10-14 14:39:55.312025,-171
2021-10-14 14:39:55.312033,-188
2021-10-14 14:39:55.312041,-176
2021-10-14 14:39:55.536852,-159
2021-10-14 14:39:55.536874,-164
2021-10-14 14:39:55.536883,-147
2021-10-14 14:39:55.536892,-130
2021-10-14 14:39:55.536901,-154
2021-10-14 14:39:55.536909,-154
2021-10-14 14:39:55.536918,-127
2021-10-14 14:39:55.536926,-127
2021-10-14 14:39:55.536934,-144
2021-10-14 14:39:55.536943,-147
2021-10-14 14:39:55.536951,-147
2021-10-14 14:39:55.536960,-134
2021-10-14 14:39:55.536968,-125
2021-10-14 14:39:55.536976,-132
2021-10-14 14:39:55.536985,-132
2021-10-14 14:39:55.536993,-127
2021-10-14 14:39:55.537001,-130
2021-10-14 14:39:55.537010,-127
2021-10-14 14:39:55.537018,-112
2021-10-14 14:39:55.537026,-100
2021-10-14 14:39:55.537035,-103
2021-10-14 14:39:55.537043,-117
2021-10-14 14:39:55.537051,-120
2021-10-14 14:39:55.537060,-110
2021-10-14 14:39:55.537068,-95
2021-10-14 14:39:55.537076,-66
2021-10-14 14:39:55.537085,-34
2021-10-14 14:39:55.537093,-26
2021-10-14 14:39:55.537101,-26
2021-10-14 14:39:55.537109,-17
2021-10-14 14:39:55.806417,-34
2021-10-14 14:39:55.806439,-61
2021-10-14 14:39:55.806448,-68
2021-10-14 14:39:55.806457,-71
2021-10-14 14:39:55.806466,-73
2021-10-14 14:39:55.806474,-61
2021-10-14 14:39:55.806483,-36
2021-10-14 14:39:55.806491,-31
2021-10-14 14:39:55.806500,-49
2021-10-14 14:39:55.806508,-56
2021-10-14 14:39:55.806517,19
2021-10-14 14:39:55.806525,279
2021-10-14 14:39:55.806533,664
2021-10-14 14:39:55.806542,819
2021-10-14 14:39:55.806551,311
2021-10-14 14:39:55.806559,-414
2021-10-14 14:39:55.806568,-336
2021-10-14 14:39:55.806576,105
2021-10-14 14:39:55.806585,44
2021-10-14 14:39:55.806593,-90
2021-10-14 14:39:55.806602,-7
2021-10-14 14:39:55.806610,2
2021-10-14 14:39:55.806619,-29
2021-10-14 14:39:55.806627,9
2021-10-14 14:39:55.806636,26
2021-10-14 14:39:55.806644,26
2021-10-14 14:39:55.806652,53
2021-10-14 14:39:55.806661,76
2021-10-14 14:39:55.806669,90
2021-10-14 14:39:55.806678,125
2021-10-14 14:39:56.031802,157
2021-10-14 14:39:56.031829,181
2021-10-14 14:39:56.031840,206
2021-10-14 14:39:56.031848,230
2021-10-14 14:39:56.031857,252
2021-10-14 14:39:56.031865,282
2021-10-14 14:39:56.031874,309
2021-10-14 14:39:56.031882,318
2021-10-14 14:39:56.031891,314
2021-10-14 14:39:56.031899,323
2021-10-14 14:39:56.031908,331
2021-10-14 14:39:56.031916,299
2021-10-14 14:39:56.031924,245
2021-10-14 14:39:56.031933,174
2021-10-14 14:39:56.031941,68
2021-10-14 14:39:56.031949,-29
2021-10-14 14:39:56.031958,-90
2021-10-14 14:39:56.031966,-137
2021-10-14 14:39:56.031974,-171
2021-10-14 14:39:56.031983,-188
2021-10-14 14:39:56.031991,-203
2021-10-14 14:39:56.032000,-208
2021-10-14 14:39:56.032008,-193
2021-10-14 14:39:56.032016,-184
2021-10-14 14:39:56.032025,-198
2021-10-14 14:39:56.032033,-188
2021-10-14 14:39:56.032041,-161
2021-10-14 14:39:56.032050,-157
2021-10-14 14:39:56.032058,-154
2021-10-14 14:39:56.032066,-125
2021-10-14 14:39:56.256498,-112
2021-10-14 14:39:56.256520,-117
2021-10-14 14:39:56.256530,-110
2021-10-14 14:39:56.256538,-100
2021-10-14 14:39:56.256547,-88
2021-10-14 14:39:56.256555,-76
2021-10-14 14:39:56.256564,-78
2021-10-14 14:39:56.256572,-95
2021-10-14 14:39:56.256581,-95
2021-10-14 14:39:56.256589,-85
2021-10-14 14:39:56.256598,-80
2021-10-14 14:39:56.256606,-76
2021-10-14 14:39:56.256614,-68
2021-10-14 14:39:56.256622,-78
2021-10-14 14:39:56.256631,-93
2021-10-14 14:39:56.256639,-90
2021-10-14 14:39:56.256647,-80
2021-10-14 14:39:56.256656,-71
2021-10-14 14:39:56.256664,-56
2021-10-14 14:39:56.256672,-61
2021-10-14 14:39:56.256681,-63
2021-10-14 14:39:56.256689,-53
2021-10-14 14:39:56.256697,-53
2021-10-14 14:39:56.256706,-66
2021-10-14 14:39:56.256714,-63
2021-10-14 14:39:56.256722,-36
2021-10-14 14:39:56.256730,-4
2021-10-14 14:39:56.256739,19
2021-10-14 14:39:56.256747,22
2021-10-14 14:39:56.256755,7
2021-10-14 14:39:56.525150,-7
2021-10-14 14:39:56.525173,-12
2021-10-14 14:39:56.525182,-19
2021-10-14 14:39:56.525191,-24
2021-10-14 14:39:56.525200,-19
2021-10-14 14:39:56.525208,-19
2021-10-14 14:39:56.525217,-24
2021-10-14 14:39:56.525225,-19
2021-10-14 14:39:56.525233,-19
2021-10-14 14:39:56.525242,-39
2021-10-14 14:39:56.525250,4
2021-10-14 14:39:56.525259,235
2021-10-14 14:39:56.525267,630
2021-10-14 14:39:56.525276,888
2021-10-14 14:39:56.525284,517
2021-10-14 14:39:56.525292,-262
2021-10-14 14:39:56.525301,-387
2021-10-14 14:39:56.525309,36
2021-10-14 14:39:56.525317,56
2021-10-14 14:39:56.525326,-98
2021-10-14 14:39:56.525334,-29
2021-10-14 14:39:56.525343,2
2021-10-14 14:39:56.525351,-29
2021-10-14 14:39:56.525359,7
2021-10-14 14:39:56.525368,26
2021-10-14 14:39:56.525376,9
2021-10-14 14:39:56.525384,29
2021-10-14 14:39:56.525393,58
2021-10-14 14:39:56.525401,66
2021-10-14 14:39:56.525409,90
2021-10-14 14:39:56.751826,125
2021-10-14 14:39:56.751850,149
2021-10-14 14:39:56.751859,179
2021-10-14 14:39:56.751868,218
2021-10-14 14:39:56.751876,250
2021-10-14 14:39:56.751885,274
2021-10-14 14:39:56.751894,296
2021-10-14 14:39:56.751902,316
2021-10-14 14:39:56.751910,326
2021-10-14 14:39:56.751919,333
2021-10-14 14:39:56.751927,333
2021-10-14 14:39:56.751936,316
2021-10-14 14:39:56.751944,257
2021-10-14 14:39:56.751953,181
2021-10-14 14:39:56.751961,110
2021-10-14 14:39:56.751970,34
2021-10-14 14:39:56.751978,-46
2021-10-14 14:39:56.751986,-112
2021-10-14 14:39:56.751995,-161
2021-10-14 14:39:56.752003,-171
2021-10-14 14:39:56.752012,-174
2021-10-14 14:39:56.752020,-184
2021-10-14 14:39:56.752028,-181
2021-10-14 14:39:56.752037,-174
2021-10-14 14:39:56.752045,-171
2021-10-14 14:39:56.752054,-159
2021-10-14 14:39:56.752062,-144
2021-10-14 14:39:56.752070,-132
2021-10-14 14:39:56.752079,-127
2021-10-14 14:39:56.752087,-117
2021-10-14 14:39:56.931372,-110
2021-10-14 14:39:56.931392,-112
2021-10-14 14:39:56.931401,-98
2021-10-14 14:39:56.931410,-80
2021-10-14 14:39:56.931418,-90
2021-10-14 14:39:56.931427,-105
2021-10-14 14:39:56.931435,-100
2021-10-14 14:39:56.931443,-80
2021-10-14 14:39:56.931451,-73
2021-10-14 14:39:56.931460,-85
2021-10-14 14:39:56.931468,-93
2021-10-14 14:39:56.931482,-90
2021-10-14 14:39:56.931490,-78
2021-10-14 14:39:56.931499,-73
2021-10-14 14:39:56.931507,-83
2021-10-14 14:39:56.931515,-83
2021-10-14 14:39:56.931524,-80
2021-10-14 14:39:56.931532,-100
2021-10-14 14:39:56.931540,-110
2021-10-14 14:39:56.931549,-93
2021-10-14 14:39:56.931557,-83
2021-10-14 14:39:56.931565,-80
2021-10-14 14:39:56.931574,-78
2021-10-14 14:39:56.931582,-93
2021-10-14 14:39:56.931591,-93
2021-10-14 14:39:56.931599,-46
2021-10-14 14:39:56.931607,0
2021-10-14 14:39:56.931616,0
2021-10-14 14:39:56.931624,-17
2021-10-14 14:39:56.931632,-14
2021-10-14 14:39:57.156442,-19
2021-10-14 14:39:57.156464,-46
2021-10-14 14:39:57.156474,-63
2021-10-14 14:39:57.156483,-66
2021-10-14 14:39:57.156491,-58
2021-10-14 14:39:57.156500,-49
2021-10-14 14:39:57.156508,-44
2021-10-14 14:39:57.156516,-53
2021-10-14 14:39:57.156525,-66
2021-10-14 14:39:57.156533,-61
2021-10-14 14:39:57.156541,19
2021-10-14 14:39:57.156550,284
2021-10-14 14:39:57.156558,691
2021-10-14 14:39:57.156567,902
2021-10-14 14:39:57.156575,444
2021-10-14 14:39:57.156583,-323
2021-10-14 14:39:57.156592,-355
2021-10-14 14:39:57.156600,63
2021-10-14 14:39:57.156609,44
2021-10-14 14:39:57.156617,-83
2021-10-14 14:39:57.156625,17
2021-10-14 14:39:57.156633,31
2021-10-14 14:39:57.156642,-31
2021-10-14 14:39:57.156650,2
2021-10-14 14:39:57.156658,41
2021-10-14 14:39:57.156666,22
2021-10-14 14:39:57.156675,34
2021-10-14 14:39:57.156683,78
2021-10-14 14:39:57.156692,88
2021-10-14 14:39:57.156700,95
2021-10-14 14:39:57.381823,132
2021-10-14 14:39:57.381845,174
2021-10-14 14:39:57.381855,208
2021-10-14 14:39:57.381864,215
2021-10-14 14:39:57.381872,228
2021-10-14 14:39:57.381881,277
2021-10-14 14:39:57.381889,318
2021-10-14 14:39:57.381902,331
2021-10-14 14:39:57.381910,328
2021-10-14 14:39:57.381919,323
2021-10-14 14:39:57.381927,321
2021-10-14 14:39:57.381936,304
2021-10-14 14:39:57.381944,250
2021-10-14 14:39:57.381952,179
2021-10-14 14:39:57.381961,100
2021-10-14 14:39:57.381969,9
2021-10-14 14:39:57.381978,-78
2021-10-14 14:39:57.381986,-139
2021-10-14 14:39:57.381995,-174
2021-10-14 14:39:57.382003,-188
2021-10-14 14:39:57.382012,-198
2021-10-14 14:39:57.382020,-223
2021-10-14 14:39:57.382028,-235
2021-10-14 14:39:57.382037,-211
2021-10-14 14:39:57.382045,-193
2021-10-14 14:39:57.382053,-201
2021-10-14 14:39:57.382062,-203
2021-10-14 14:39:57.382070,-179
2021-10-14 14:39:57.382079,-154
2021-10-14 14:39:57.382087,-137
2021-10-14 14:39:57.651799,-134
2021-10-14 14:39:57.651819,-134
2021-10-14 14:39:57.651829,-132
2021-10-14 14:39:57.651837,-137
2021-10-14 14:39:57.651846,-139
2021-10-14 14:39:57.651855,-125
2021-10-14 14:39:57.651863,-115
2021-10-14 14:39:57.651872,-120
2021-10-14 14:39:57.651881,-122
2021-10-14 14:39:57.651889,-122
2021-10-14 14:39:57.651898,-130
2021-10-14 14:39:57.651906,-134
2021-10-14 14:39:57.651914,-122
2021-10-14 14:39:57.651923,-103
2021-10-14 14:39:57.651931,-105
2021-10-14 14:39:57.651940,-117
2021-10-14 14:39:57.651948,-107
2021-10-14 14:39:57.651956,-93
2021-10-14 14:39:57.651965,-95
2021-10-14 14:39:57.651973,-88
2021-10-14 14:39:57.651982,-80
2021-10-14 14:39:57.651990,-90
2021-10-14 14:39:57.651998,-85
2021-10-14 14:39:57.652007,-73
2021-10-14 14:39:57.652015,-78
2021-10-14 14:39:57.652023,-85
2021-10-14 14:39:57.652032,-78
2021-10-14 14:39:57.652040,-51
2021-10-14 14:39:57.652048,-4
2021-10-14 14:39:57.652057,7
2021-10-14 14:39:57.876909,-9
2021-10-14 14:39:57.876931,-17
2021-10-14 14:39:57.876941,-26
2021-10-14 14:39:57.876950,-46
2021-10-14 14:39:57.876958,-49
2021-10-14 14:39:57.876967,-34
2021-10-14 14:39:57.876976,-34
2021-10-14 14:39:57.876984,-46
2021-10-14 14:39:57.876993,-51
2021-10-14 14:39:57.877001,-61
2021-10-14 14:39:57.877010,-63
2021-10-14 14:39:57.877018,-4
2021-10-14 14:39:57.877027,196
2021-10-14 14:39:57.877036,556
2021-10-14 14:39:57.877044,868
2021-10-14 14:39:57.877053,647
2021-10-14 14:39:57.877061,-139
2021-10-14 14:39:57.877070,-473
2021-10-14 14:39:57.877078,-41
2021-10-14 14:39:57.877087,125
2021-10-14 14:39:57.877097,-58
2021-10-14 14:39:57.877105,-22
2021-10-14 14:39:57.877114,51
2021-10-14 14:39:57.877122,-4
2021-10-14 14:39:57.877131,0
2021-10-14 14:39:57.877139,51
2021-10-14 14:39:57.877147,44
2021-10-14 14:39:57.877156,34
2021-10-14 14:39:57.877164,61
2021-10-14 14:39:57.877173,83
2021-10-14 14:39:58.101894,98
2021-10-14 14:39:58.101916,122
2021-10-14 14:39:58.101925,154
2021-10-14 14:39:58.101934,181
2021-10-14 14:39:58.101942,206
2021-10-14 14:39:58.101951,245
2021-10-14 14:39:58.101959,291
2021-10-14 14:39:58.101968,316
2021-10-14 14:39:58.101981,316
2021-10-14 14:39:58.101990,318
2021-10-14 14:39:58.101998,336
2021-10-14 14:39:58.102007,341
2021-10-14 14:39:58.102015,316
2021-10-14 14:39:58.102023,269
2021-10-14 14:39:58.102032,193
2021-10-14 14:39:58.102040,100
2021-10-14 14:39:58.102049,22
2021-10-14 14:39:58.102057,-53
2021-10-14 14:39:58.102065,-130
2021-10-14 14:39:58.102074,-184
2021-10-14 14:39:58.102082,-206
2021-10-14 14:39:58.102090,-213
2021-10-14 14:39:58.102099,-218
2021-10-14 14:39:58.102107,-223
2021-10-14 14:39:58.102116,-208
2021-10-14 14:39:58.102124,-193
2021-10-14 14:39:58.102133,-191
2021-10-14 14:39:58.102141,-186
2021-10-14 14:39:58.102149,-171
2021-10-14 14:39:58.102158,-154
2021-10-14 14:39:58.326445,-147
2021-10-14 14:39:58.326468,-139
2021-10-14 14:39:58.326477,-122
2021-10-14 14:39:58.326486,-115
2021-10-14 14:39:58.326494,-110
2021-10-14 14:39:58.326503,-98
2021-10-14 14:39:58.326511,-103
2021-10-14 14:39:58.326519,-112
2021-10-14 14:39:58.326527,-98
2021-10-14 14:39:58.326536,-83
2021-10-14 14:39:58.326544,-93
2021-10-14 14:39:58.326552,-105
2021-10-14 14:39:58.326560,-105
2021-10-14 14:39:58.326569,-103
2021-10-14 14:39:58.326577,-100
2021-10-14 14:39:58.326585,-100
2021-10-14 14:39:58.326594,-103
2021-10-14 14:39:58.326602,-103
2021-10-14 14:39:58.326610,-90
2021-10-14 14:39:58.326618,-88
2021-10-14 14:39:58.326627,-90
2021-10-14 14:39:58.326635,-78
2021-10-14 14:39:58.326643,-63
2021-10-14 14:39:58.326652,-63
2021-10-14 14:39:58.326660,-68
2021-10-14 14:39:58.326668,-71
2021-10-14 14:39:58.326676,-80
2021-10-14 14:39:58.326684,-71
2021-10-14 14:39:58.326693,-24
2021-10-14 14:39:58.326701,7
2021-10-14 14:39:58.598970,2
2021-10-14 14:39:58.598985,0
2021-10-14 14:39:58.598991,-7
2021-10-14 14:39:58.598996,-39
2021-10-14 14:39:58.599000,-46
2021-10-14 14:39:58.599005,-39
2021-10-14 14:39:58.599009,-49
2021-10-14 14:39:58.599014,-51
2021-10-14 14:39:58.599018,-36
2021-10-14 14:39:58.599022,-34
2021-10-14 14:39:58.599027,-39
2021-10-14 14:39:58.599031,-49
2021-10-14 14:39:58.599036,-34
2021-10-14 14:39:58.599040,98
2021-10-14 14:39:58.599045,429
2021-10-14 14:39:58.599049,829
2021-10-14 14:39:58.599053,856
2021-10-14 14:39:58.599058,188
2021-10-14 14:39:58.599062,-397
2021-10-14 14:39:58.599067,-147
2021-10-14 14:39:58.599071,139
2021-10-14 14:39:58.599076,-22
2021-10-14 14:39:58.599080,-53
2021-10-14 14:39:58.599084,56
2021-10-14 14:39:58.599089,24
2021-10-14 14:39:58.599093,0
2021-10-14 14:39:58.599098,61
2021-10-14 14:39:58.599102,73
2021-10-14 14:39:58.599106,56
2021-10-14 14:39:58.599111,76
2021-10-14 14:39:58.776853,103
2021-10-14 14:39:58.776876,127
2021-10-14 14:39:58.776885,147
2021-10-14 14:39:58.776894,159
2021-10-14 14:39:58.776902,186
2021-10-14 14:39:58.776911,220
2021-10-14 14:39:58.776919,235
2021-10-14 14:39:58.776928,262
2021-10-14 14:39:58.776936,304
2021-10-14 14:39:58.776945,326
2021-10-14 14:39:58.776953,338
2021-10-14 14:39:58.776962,343
2021-10-14 14:39:58.776970,331
2021-10-14 14:39:58.776979,316
2021-10-14 14:39:58.776987,287
2021-10-14 14:39:58.776995,211
2021-10-14 14:39:58.777004,107
2021-10-14 14:39:58.777012,19
2021-10-14 14:39:58.777021,-56
2021-10-14 14:39:58.777029,-125
2021-10-14 14:39:58.777038,-176
2021-10-14 14:39:58.777046,-215
2021-10-14 14:39:58.777054,-238
2021-10-14 14:39:58.777063,-247
2021-10-14 14:39:58.777071,-245
2021-10-14 14:39:58.777080,-242
2021-10-14 14:39:58.777088,-247
2021-10-14 14:39:58.777096,-247
2021-10-14 14:39:58.777105,-228
2021-10-14 14:39:58.777113,-223
2021-10-14 14:39:59.001482,-233
2021-10-14 14:39:59.001505,-223
2021-10-14 14:39:59.001514,-206
2021-10-14 14:39:59.001523,-208
2021-10-14 14:39:59.001532,-218
2021-10-14 14:39:59.001541,-215
2021-10-14 14:39:59.001549,-198
2021-10-14 14:39:59.001558,-193
2021-10-14 14:39:59.001566,-211
2021-10-14 14:39:59.001575,-223
2021-10-14 14:39:59.001584,-225
2021-10-14 14:39:59.001592,-223
2021-10-14 14:39:59.001600,-220
2021-10-14 14:39:59.001609,-218
2021-10-14 14:39:59.001618,-218
2021-10-14 14:39:59.001626,-218
2021-10-14 14:39:59.001635,-215
2021-10-14 14:39:59.001643,-215
2021-10-14 14:39:59.001652,-225
2021-10-14 14:39:59.001660,-228
2021-10-14 14:39:59.001669,-211
2021-10-14 14:39:59.001678,-198
2021-10-14 14:39:59.001686,-203
2021-10-14 14:39:59.001695,-203
2021-10-14 14:39:59.001703,-191
2021-10-14 14:39:59.001712,-176
2021-10-14 14:39:59.001720,-164
2021-10-14 14:39:59.001728,-164
2021-10-14 14:39:59.001737,-166
2021-10-14 14:39:59.001745,-159
2021-10-14 14:39:59.226411,-147
2021-10-14 14:39:59.226431,-137
2021-10-14 14:39:59.226441,-147
2021-10-14 14:39:59.226449,-164
2021-10-14 14:39:59.226458,-157
2021-10-14 14:39:59.226466,-112
2021-10-14 14:39:59.226475,-71
2021-10-14 14:39:59.226483,-66
2021-10-14 14:39:59.226491,-71
2021-10-14 14:39:59.226500,-80
2021-10-14 14:39:59.226508,-98
2021-10-14 14:39:59.226516,-105
2021-10-14 14:39:59.226525,-93
2021-10-14 14:39:59.226533,-83
2021-10-14 14:39:59.226542,-85
2021-10-14 14:39:59.226550,-90
2021-10-14 14:39:59.226558,-88
2021-10-14 14:39:59.226567,-85
2021-10-14 14:39:59.226575,-88
2021-10-14 14:39:59.226583,-61
2021-10-14 14:39:59.226592,95
2021-10-14 14:39:59.226600,441
2021-10-14 14:39:59.226608,804
2021-10-14 14:39:59.226620,740
2021-10-14 14:39:59.226628,39
2021-10-14 14:39:59.226637,-451
2021-10-14 14:39:59.226645,-139
2021-10-14 14:39:59.226654,98
2021-10-14 14:39:59.226662,-73
2021-10-14 14:39:59.226671,-78
2021-10-14 14:39:59.496488,2
2021-10-14 14:39:59.496511,-44
2021-10-14 14:39:59.496521,-49
2021-10-14 14:39:59.496530,-9
2021-10-14 14:39:59.496538,-9
2021-10-14 14:39:59.496547,-2
2021-10-14 14:39:59.496555,22
2021-10-14 14:39:59.496564,41
2021-10-14 14:39:59.496572,56
2021-10-14 14:39:59.496581,68
2021-10-14 14:39:59.496589,88
2021-10-14 14:39:59.496597,125
2021-10-14 14:39:59.496606,161
2021-10-14 14:39:59.496614,188
2021-10-14 14:39:59.496622,208
2021-10-14 14:39:59.496631,230
2021-10-14 14:39:59.496639,257
2021-10-14 14:39:59.496647,282
2021-10-14 14:39:59.496656,294
2021-10-14 14:39:59.496664,296
2021-10-14 14:39:59.496672,291
2021-10-14 14:39:59.496680,267
2021-10-14 14:39:59.496689,208
2021-10-14 14:39:59.496697,130
2021-10-14 14:39:59.496705,46
2021-10-14 14:39:59.496714,-31
2021-10-14 14:39:59.496722,-100
2021-10-14 14:39:59.496730,-154
2021-10-14 14:39:59.496738,-191
2021-10-14 14:39:59.496747,-208
2021-10-14 14:39:59.721815,-213
2021-10-14 14:39:59.721831,-215
2021-10-14 14:39:59.721836,-215
2021-10-14 14:39:59.721841,-211
2021-10-14 14:39:59.721845,-193
2021-10-14 14:39:59.721850,-181
2021-10-14 14:39:59.721854,-174
2021-10-14 14:39:59.721859,-164
2021-10-14 14:39:59.721863,-164
2021-10-14 14:39:59.721867,-164
2021-10-14 14:39:59.721872,-149
2021-10-14 14:39:59.721876,-139
2021-10-14 14:39:59.721880,-137
2021-10-14 14:39:59.721885,-127
2021-10-14 14:39:59.721889,-130
2021-10-14 14:39:59.721894,-137
2021-10-14 14:39:59.721898,-130
2021-10-14 14:39:59.721903,-117
2021-10-14 14:39:59.721907,-112
2021-10-14 14:39:59.721911,-112
2021-10-14 14:39:59.721916,-115
2021-10-14 14:39:59.721920,-115
2021-10-14 14:39:59.721925,-112
2021-10-14 14:39:59.721929,-117
2021-10-14 14:39:59.721933,-122
2021-10-14 14:39:59.721938,-110
2021-10-14 14:39:59.721942,-100
2021-10-14 14:39:59.721947,-110
2021-10-14 14:39:59.721951,-107
2021-10-14 14:39:59.721956,-95
2021-10-14 14:39:59.946859,-88
2021-10-14 14:39:59.946881,-78
2021-10-14 14:39:59.946890,-76
2021-10-14 14:39:59.946899,-80
2021-10-14 14:39:59.946908,-80
2021-10-14 14:39:59.946916,-71
2021-10-14 14:39:59.946925,-68
2021-10-14 14:39:59.946933,-80
2021-10-14 14:39:59.946942,-98
2021-10-14 14:39:59.946950,-100
2021-10-14 14:39:59.946959,-76
2021-10-14 14:39:59.946967,-34
2021-10-14 14:39:59.946976,-14
2021-10-14 14:39:59.946984,-19
2021-10-14 14:39:59.946992,-26
2021-10-14 14:39:59.947001,-34
2021-10-14 14:39:59.947009,-46
2021-10-14 14:39:59.947018,-51
2021-10-14 14:39:59.947026,-49
2021-10-14 14:39:59.947034,-49
2021-10-14 14:39:59.947043,-58
2021-10-14 14:39:59.947051,-63
2021-10-14 14:39:59.947059,-63
2021-10-14 14:39:59.947068,-61
2021-10-14 14:39:59.947076,-49
2021-10-14 14:39:59.947084,24
2021-10-14 14:39:59.947093,255
2021-10-14 14:39:59.947101,620
2021-10-14 14:39:59.947109,844
2021-10-14 14:39:59.947118,466
2021-10-14 14:40:00.171422,-318
2021-10-14 14:40:00.171445,-449
2021-10-14 14:40:00.171455,14
2021-10-14 14:40:00.171464,61
2021-10-14 14:40:00.171473,-105
2021-10-14 14:40:00.171481,-29
2021-10-14 14:40:00.171490,7
2021-10-14 14:40:00.171499,-53
2021-10-14 14:40:00.171507,-26
2021-10-14 14:40:00.171516,17
2021-10-14 14:40:00.171524,12
2021-10-14 14:40:00.171533,29
2021-10-14 14:40:00.171542,56
2021-10-14 14:40:00.171550,66
2021-10-14 14:40:00.171559,85
2021-10-14 14:40:00.171567,120
2021-10-14 14:40:00.171576,144
2021-10-14 14:40:00.171584,176
2021-10-14 14:40:00.171593,223
2021-10-14 14:40:00.171601,257
2021-10-14 14:40:00.171610,279
2021-10-14 14:40:00.171618,311
2021-10-14 14:40:00.171627,341
2021-10-14 14:40:00.171635,360
2021-10-14 14:40:00.171643,360
2021-10-14 14:40:00.171652,353
2021-10-14 14:40:00.171660,331
2021-10-14 14:40:00.171669,287
2021-10-14 14:40:00.171677,211
2021-10-14 14:40:00.171685,117
2021-10-14 14:40:00.396870,24
2021-10-14 14:40:00.396893,-53
2021-10-14 14:40:00.396903,-117
2021-10-14 14:40:00.396912,-166
2021-10-14 14:40:00.396920,-193
2021-10-14 14:40:00.396929,-203
2021-10-14 14:40:00.396937,-213
2021-10-14 14:40:00.396945,-220
2021-10-14 14:40:00.396954,-213
2021-10-14 14:40:00.396962,-201
2021-10-14 14:40:00.396971,-188
2021-10-14 14:40:00.396979,-181
2021-10-14 14:40:00.396988,-181
2021-10-14 14:40:00.396996,-171
2021-10-14 14:40:00.397005,-154
2021-10-14 14:40:00.397013,-147
2021-10-14 14:40:00.397022,-137
2021-10-14 14:40:00.397030,-125
2021-10-14 14:40:00.397039,-120
2021-10-14 14:40:00.397047,-120
2021-10-14 14:40:00.397056,-115
2021-10-14 14:40:00.397064,-105
2021-10-14 14:40:00.397073,-95
2021-10-14 14:40:00.397081,-93
2021-10-14 14:40:00.397090,-98
2021-10-14 14:40:00.397098,-105
2021-10-14 14:40:00.397107,-112
2021-10-14 14:40:00.397115,-112
2021-10-14 14:40:00.397124,-110
2021-10-14 14:40:00.397132,-110
2021-10-14 14:40:00.665598,-107
2021-10-14 14:40:00.665619,-103
2021-10-14 14:40:00.665627,-100
2021-10-14 14:40:00.665634,-103
2021-10-14 14:40:00.665643,-98
2021-10-14 14:40:00.665650,-95
2021-10-14 14:40:00.665658,-98
2021-10-14 14:40:00.665666,-93
2021-10-14 14:40:00.665674,-83
2021-10-14 14:40:00.665682,-83
2021-10-14 14:40:00.665691,-80
2021-10-14 14:40:00.665699,-83
2021-10-14 14:40:00.665707,-90
2021-10-14 14:40:00.665716,-93
2021-10-14 14:40:00.665724,-80
2021-10-14 14:40:00.665732,-51
2021-10-14 14:40:00.665741,-19
2021-10-14 14:40:00.665749,-9
2021-10-14 14:40:00.665757,-14
2021-10-14 14:40:00.665766,-12
2021-10-14 14:40:00.665774,-24
2021-10-14 14:40:00.665782,-41
2021-10-14 14:40:00.665790,-39
2021-10-14 14:40:00.665799,-26
2021-10-14 14:40:00.665807,-24
2021-10-14 14:40:00.665815,-22
2021-10-14 14:40:00.665823,-17
2021-10-14 14:40:00.665832,-24
2021-10-14 14:40:00.665840,-31
2021-10-14 14:40:00.665852,-4
2021-10-14 14:40:00.891590,137
2021-10-14 14:40:00.891611,463
2021-10-14 14:40:00.891621,834
2021-10-14 14:40:00.891630,794
2021-10-14 14:40:00.891638,85
2021-10-14 14:40:00.891647,-466
2021-10-14 14:40:00.891655,-161
2021-10-14 14:40:00.891664,115
2021-10-14 14:40:00.891672,-61
2021-10-14 14:40:00.891680,-83
2021-10-14 14:40:00.891689,22
2021-10-14 14:40:00.891697,-14
2021-10-14 14:40:00.891706,-31
2021-10-14 14:40:00.891714,17
2021-10-14 14:40:00.891723,26
2021-10-14 14:40:00.891731,24
2021-10-14 14:40:00.891739,61
2021-10-14 14:40:00.891747,95
2021-10-14 14:40:00.891756,105
2021-10-14 14:40:00.891764,125
2021-10-14 14:40:00.891772,157
2021-10-14 14:40:00.891781,188
2021-10-14 14:40:00.891789,215
2021-10-14 14:40:00.891797,247
2021-10-14 14:40:00.891806,284
2021-10-14 14:40:00.891814,318
2021-10-14 14:40:00.891823,341
2021-10-14 14:40:00.891831,360
2021-10-14 14:40:00.891839,370
2021-10-14 14:40:00.891848,375
2021-10-14 14:40:01.071845,365
2021-10-14 14:40:01.071868,321
2021-10-14 14:40:01.071877,252
2021-10-14 14:40:01.071886,171
2021-10-14 14:40:01.071895,76
2021-10-14 14:40:01.071904,-17
2021-10-14 14:40:01.071912,-85
2021-10-14 14:40:01.071920,-122
2021-10-14 14:40:01.071929,-152
2021-10-14 14:40:01.071937,-184
2021-10-14 14:40:01.071946,-198
2021-10-14 14:40:01.071955,-198
2021-10-14 14:40:01.071963,-188
2021-10-14 14:40:01.071972,-179
2021-10-14 14:40:01.071980,-171
2021-10-14 14:40:01.071989,-171
2021-10-14 14:40:01.071997,-169
2021-10-14 14:40:01.072006,-152
2021-10-14 14:40:01.072014,-130
2021-10-14 14:40:01.072022,-127
2021-10-14 14:40:01.072031,-125
2021-10-14 14:40:01.072039,-115
2021-10-14 14:40:01.072048,-105
2021-10-14 14:40:01.072056,-98
2021-10-14 14:40:01.072064,-88
2021-10-14 14:40:01.072073,-83
2021-10-14 14:40:01.072081,-80
2021-10-14 14:40:01.072090,-76
2021-10-14 14:40:01.072098,-76
2021-10-14 14:40:01.072106,-78
2021-10-14 14:40:01.386534,-71
2021-10-14 14:40:01.386556,-61
2021-10-14 14:40:01.386566,-71
2021-10-14 14:40:01.386575,-88
2021-10-14 14:40:01.386584,-90
2021-10-14 14:40:01.386593,-73
2021-10-14 14:40:01.386601,-71
2021-10-14 14:40:01.386610,-83
2021-10-14 14:40:01.386619,-83
2021-10-14 14:40:01.386627,-83
2021-10-14 14:40:01.386636,-88
2021-10-14 14:40:01.386644,-78
2021-10-14 14:40:01.386653,-66
2021-10-14 14:40:01.386661,-66
2021-10-14 14:40:01.386669,-68
2021-10-14 14:40:01.386678,-66
2021-10-14 14:40:01.386686,-61
2021-10-14 14:40:01.386695,-53
2021-10-14 14:40:01.386703,-49
2021-10-14 14:40:01.386712,-44
2021-10-14 14:40:01.386720,-49
2021-10-14 14:40:01.386729,-58
2021-10-14 14:40:01.386737,-31
2021-10-14 14:40:01.386745,17
2021-10-14 14:40:01.386754,34
2021-10-14 14:40:01.386762,24
2021-10-14 14:40:01.386771,12
2021-10-14 14:40:01.386779,-2
2021-10-14 14:40:01.386788,-14
2021-10-14 14:40:01.386796,-24
2021-10-14 14:40:01.567296,-26
2021-10-14 14:40:01.567319,-19
2021-10-14 14:40:01.567328,-19
2021-10-14 14:40:01.567337,-29
2021-10-14 14:40:01.567345,-36
2021-10-14 14:40:01.567354,-31
2021-10-14 14:40:01.567362,-22
2021-10-14 14:40:01.567371,66
2021-10-14 14:40:01.567379,331
2021-10-14 14:40:01.567388,699
2021-10-14 14:40:01.567396,814
2021-10-14 14:40:01.567404,296
2021-10-14 14:40:01.567413,-377
2021-10-14 14:40:01.567421,-314
2021-10-14 14:40:01.567429,51
2021-10-14 14:40:01.567438,-14
2021-10-14 14:40:01.567446,-105
2021-10-14 14:40:01.567455,-12
2021-10-14 14:40:01.567463,-4
2021-10-14 14:40:01.567471,-34
2021-10-14 14:40:01.567480,-4
2021-10-14 14:40:01.567488,9
2021-10-14 14:40:01.567496,14
2021-10-14 14:40:01.567505,46
2021-10-14 14:40:01.567513,68
2021-10-14 14:40:01.567522,76
2021-10-14 14:40:01.567530,100
2021-10-14 14:40:01.567538,132
2021-10-14 14:40:01.567547,159
2021-10-14 14:40:01.567555,186
2021-10-14 14:40:01.791865,220
2021-10-14 14:40:01.791887,250
2021-10-14 14:40:01.791897,274
2021-10-14 14:40:01.791906,299
2021-10-14 14:40:01.791914,323
2021-10-14 14:40:01.791923,336
2021-10-14 14:40:01.791931,338
2021-10-14 14:40:01.791939,331
2021-10-14 14:40:01.791948,309
2021-10-14 14:40:01.791956,267
2021-10-14 14:40:01.791965,198
2021-10-14 14:40:01.791973,107
2021-10-14 14:40:01.791982,26
2021-10-14 14:40:01.791991,-41
2021-10-14 14:40:01.791999,-112
2021-10-14 14:40:01.792008,-159
2021-10-14 14:40:01.792016,-169
2021-10-14 14:40:01.792025,-176
2021-10-14 14:40:01.792033,-188
2021-10-14 14:40:01.792041,-191
2021-10-14 14:40:01.792050,-184
2021-10-14 14:40:01.792058,-171
2021-10-14 14:40:01.792066,-157
2021-10-14 14:40:01.792074,-147
2021-10-14 14:40:01.792083,-144
2021-10-14 14:40:01.792091,-134
2021-10-14 14:40:01.792100,-117
2021-10-14 14:40:01.792108,-110
2021-10-14 14:40:01.792117,-110
2021-10-14 14:40:01.792126,-100
2021-10-14 14:40:02.016626,-93
2021-10-14 14:40:02.016647,-90
2021-10-14 14:40:02.016657,-93
2021-10-14 14:40:02.016665,-98
2021-10-14 14:40:02.016674,-93
2021-10-14 14:40:02.016682,-80
2021-10-14 14:40:02.016691,-88
2021-10-14 14:40:02.016699,-105
2021-10-14 14:40:02.016707,-107
2021-10-14 14:40:02.016716,-93
2021-10-14 14:40:02.016724,-90
2021-10-14 14:40:02.016733,-95
2021-10-14 14:40:02.016741,-98
2021-10-14 14:40:02.016749,-112
2021-10-14 14:40:02.016758,-120
2021-10-14 14:40:02.016765,-117
2021-10-14 14:40:02.016772,-112
2021-10-14 14:40:02.016778,-98
2021-10-14 14:40:02.016784,-85
2021-10-14 14:40:02.016791,-88
2021-10-14 14:40:02.016798,-88
2021-10-14 14:40:02.016805,-83
2021-10-14 14:40:02.016813,-78
2021-10-14 14:40:02.016820,-71
2021-10-14 14:40:02.016828,-63
2021-10-14 14:40:02.016835,-71
2021-10-14 14:40:02.016843,-88
2021-10-14 14:40:02.016850,-88
2021-10-14 14:40:02.016857,-46
2021-10-14 14:40:02.016864,-4
2021-10-14 14:40:02.241601,-4
2021-10-14 14:40:02.241623,-14
2021-10-14 14:40:02.241633,-17
2021-10-14 14:40:02.241642,-26
2021-10-14 14:40:02.241651,-39
2021-10-14 14:40:02.241659,-51
2021-10-14 14:40:02.241668,-63
2021-10-14 14:40:02.241676,-66
2021-10-14 14:40:02.241684,-66
2021-10-14 14:40:02.241693,-71
2021-10-14 14:40:02.241701,-71
2021-10-14 14:40:02.241710,-68
2021-10-14 14:40:02.241718,-63
2021-10-14 14:40:02.241727,46
2021-10-14 14:40:02.241735,343
2021-10-14 14:40:02.241744,696
2021-10-14 14:40:02.241752,782
2021-10-14 14:40:02.241761,228
2021-10-14 14:40:02.241769,-473
2021-10-14 14:40:02.241778,-363
2021-10-14 14:40:02.241786,58
2021-10-14 14:40:02.241795,-7
2021-10-14 14:40:02.241803,-103
2021-10-14 14:40:02.241812,7
2021-10-14 14:40:02.241820,7
2021-10-14 14:40:02.241828,-31
2021-10-14 14:40:02.241837,14
2021-10-14 14:40:02.241845,41
2021-10-14 14:40:02.241860,39
2021-10-14 14:40:02.241869,58
2021-10-14 14:40:02.467000,80
2021-10-14 14:40:02.467023,105
2021-10-14 14:40:02.467032,134
2021-10-14 14:40:02.467041,164
2021-10-14 14:40:02.467050,188
2021-10-14 14:40:02.467058,213
2021-10-14 14:40:02.467067,235
2021-10-14 14:40:02.467075,264
2021-10-14 14:40:02.467083,296
2021-10-14 14:40:02.467092,318
2021-10-14 14:40:02.467100,341
2021-10-14 14:40:02.467108,350
2021-10-14 14:40:02.467116,348
2021-10-14 14:40:02.467125,341
2021-10-14 14:40:02.467133,321
2021-10-14 14:40:02.467141,269
2021-10-14 14:40:02.467149,198
2021-10-14 14:40:02.467158,112
2021-10-14 14:40:02.467166,14
2021-10-14 14:40:02.467174,-68
2021-10-14 14:40:02.467183,-130
2021-10-14 14:40:02.467191,-171
2021-10-14 14:40:02.467199,-198
2021-10-14 14:40:02.467208,-211
2021-10-14 14:40:02.467216,-213
2021-10-14 14:40:02.467224,-203
2021-10-14 14:40:02.467233,-196
2021-10-14 14:40:02.467241,-191
2021-10-14 14:40:02.467249,-181
2021-10-14 14:40:02.467257,-176
2021-10-14 14:40:02.735134,-166
2021-10-14 14:40:02.735157,-142
2021-10-14 14:40:02.735168,-125
2021-10-14 14:40:02.735177,-122
2021-10-14 14:40:02.735187,-117
2021-10-14 14:40:02.735196,-115
2021-10-14 14:40:02.735205,-117
2021-10-14 14:40:02.735215,-110
2021-10-14 14:40:02.735224,-98
2021-10-14 14:40:02.735233,-95
2021-10-14 14:40:02.735242,-105
2021-10-14 14:40:02.735252,-112
2021-10-14 14:40:02.735261,-107
2021-10-14 14:40:02.735270,-90
2021-10-14 14:40:02.735279,-88
2021-10-14 14:40:02.735289,-90
2021-10-14 14:40:02.735298,-85
2021-10-14 14:40:02.735307,-88
2021-10-14 14:40:02.735317,-100
2021-10-14 14:40:02.735326,-107
2021-10-14 14:40:02.735335,-95
2021-10-14 14:40:02.735344,-80
2021-10-14 14:40:02.735354,-80
2021-10-14 14:40:02.735363,-83
2021-10-14 14:40:02.735372,-73
2021-10-14 14:40:02.735382,-61
2021-10-14 14:40:02.735391,-58
2021-10-14 14:40:02.735400,-56
2021-10-14 14:40:02.735409,-51
2021-10-14 14:40:02.735418,-56
2021-10-14 14:40:02.916899,-63
2021-10-14 14:40:02.916921,-44
2021-10-14 14:40:02.916931,-14
2021-10-14 14:40:02.916939,-2
2021-10-14 14:40:02.916948,0
2021-10-14 14:40:02.916957,-4
2021-10-14 14:40:02.916965,-19
2021-10-14 14:40:02.916974,-34
2021-10-14 14:40:02.916982,-44
2021-10-14 14:40:02.916990,-49
2021-10-14 14:40:02.916999,-53
2021-10-14 14:40:02.917007,-51
2021-10-14 14:40:02.917016,-31
2021-10-14 14:40:02.917024,-31
2021-10-14 14:40:02.917033,-56
2021-10-14 14:40:02.917041,-51
2021-10-14 14:40:02.917049,53
2021-10-14 14:40:02.917058,336
2021-10-14 14:40:02.917066,716
2021-10-14 14:40:02.917074,863
2021-10-14 14:40:02.917083,350
2021-10-14 14:40:02.917091,-392
2021-10-14 14:40:02.917100,-338
2021-10-14 14:40:02.917108,80
2021-10-14 14:40:02.917117,4
2021-10-14 14:40:02.917125,-115
2021-10-14 14:40:02.917134,0
2021-10-14 14:40:02.917142,2
2021-10-14 14:40:02.917150,-49
2021-10-14 14:40:02.917159,2
2021-10-14 14:40:03.186907,39
2021-10-14 14:40:03.186928,36
2021-10-14 14:40:03.186938,56
2021-10-14 14:40:03.186947,73
2021-10-14 14:40:03.186955,76
2021-10-14 14:40:03.186964,105
2021-10-14 14:40:03.186973,139
2021-10-14 14:40:03.186981,166
2021-10-14 14:40:03.186990,196
2021-10-14 14:40:03.186998,223
2021-10-14 14:40:03.187007,245
2021-10-14 14:40:03.187015,282
2021-10-14 14:40:03.187024,323
2021-10-14 14:40:03.187032,343
2021-10-14 14:40:03.187041,348
2021-10-14 14:40:03.187049,343
2021-10-14 14:40:03.187058,331
2021-10-14 14:40:03.187066,314
2021-10-14 14:40:03.187074,277
2021-10-14 14:40:03.187083,206
2021-10-14 14:40:03.187091,120
2021-10-14 14:40:03.187100,46
2021-10-14 14:40:03.187108,-26
2021-10-14 14:40:03.187117,-95
2021-10-14 14:40:03.187125,-137
2021-10-14 14:40:03.187134,-157
2021-10-14 14:40:03.187142,-169
2021-10-14 14:40:03.187150,-169
2021-10-14 14:40:03.187159,-159
2021-10-14 14:40:03.187167,-157
2021-10-14 14:40:03.411905,-152
2021-10-14 14:40:03.411927,-134
2021-10-14 14:40:03.411937,-130
2021-10-14 14:40:03.411946,-130
2021-10-14 14:40:03.411955,-112
2021-10-14 14:40:03.411963,-88
2021-10-14 14:40:03.411972,-80
2021-10-14 14:40:03.411980,-78
2021-10-14 14:40:03.411989,-88
2021-10-14 14:40:03.411997,-95
2021-10-14 14:40:03.412006,-85
2021-10-14 14:40:03.412014,-71
2021-10-14 14:40:03.412022,-63
2021-10-14 14:40:03.412031,-58
2021-10-14 14:40:03.412039,-66
2021-10-14 14:40:03.412048,-83
2021-10-14 14:40:03.412056,-80
2021-10-14 14:40:03.412064,-66
2021-10-14 14:40:03.412073,-71
2021-10-14 14:40:03.412081,-76
2021-10-14 14:40:03.412090,-71
2021-10-14 14:40:03.412098,-68
2021-10-14 14:40:03.412106,-61
2021-10-14 14:40:03.412115,-53
2021-10-14 14:40:03.412123,-61
2021-10-14 14:40:03.412132,-68
2021-10-14 14:40:03.412140,-66
2021-10-14 14:40:03.412149,-61
2021-10-14 14:40:03.412157,-61
2021-10-14 14:40:03.412166,-71
2021-10-14 14:40:03.636856,-71
2021-10-14 14:40:03.636878,-61
2021-10-14 14:40:03.636887,-68
2021-10-14 14:40:03.636896,-80
2021-10-14 14:40:03.636905,-66
2021-10-14 14:40:03.636913,-26
2021-10-14 14:40:03.636922,4
2021-10-14 14:40:03.636930,7
2021-10-14 14:40:03.636939,-9
2021-10-14 14:40:03.636948,-19
2021-10-14 14:40:03.636956,-19
2021-10-14 14:40:03.636965,-26
2021-10-14 14:40:03.636973,-36
2021-10-14 14:40:03.636982,-41
2021-10-14 14:40:03.636991,-51
2021-10-14 14:40:03.636999,-53
2021-10-14 14:40:03.637008,-41
2021-10-14 14:40:03.637016,-41
2021-10-14 14:40:03.637024,-51
2021-10-14 14:40:03.637033,-22
2021-10-14 14:40:03.637041,122
2021-10-14 14:40:03.637050,434
2021-10-14 14:40:03.637058,777
2021-10-14 14:40:03.637067,770
2021-10-14 14:40:03.637075,139
2021-10-14 14:40:03.637084,-426
2021-10-14 14:40:03.637092,-203
2021-10-14 14:40:03.637101,93
2021-10-14 14:40:03.637109,-39
2021-10-14 14:40:03.637118,-78
2021-10-14 14:40:03.862034,19
2021-10-14 14:40:03.862057,0
2021-10-14 14:40:03.862066,-14
2021-10-14 14:40:03.862075,34
2021-10-14 14:40:03.862084,44
2021-10-14 14:40:03.862092,31
2021-10-14 14:40:03.862100,63
2021-10-14 14:40:03.862109,88
2021-10-14 14:40:03.862117,90
2021-10-14 14:40:03.862125,115
2021-10-14 14:40:03.862134,147
2021-10-14 14:40:03.862142,164
2021-10-14 14:40:03.862150,191
2021-10-14 14:40:03.862158,220
2021-10-14 14:40:03.862167,250
2021-10-14 14:40:03.862175,272
2021-10-14 14:40:03.862183,289
2021-10-14 14:40:03.862192,306
2021-10-14 14:40:03.862200,314
2021-10-14 14:40:03.862208,316
2021-10-14 14:40:03.862216,316
2021-10-14 14:40:03.862225,301
2021-10-14 14:40:03.862233,262
2021-10-14 14:40:03.862241,206
2021-10-14 14:40:03.862250,125
2021-10-14 14:40:03.862258,24
2021-10-14 14:40:03.862266,-53
2021-10-14 14:40:03.862275,-95
2021-10-14 14:40:03.862283,-130
2021-10-14 14:40:03.862291,-159
2021-10-14 14:40:04.086643,-166
2021-10-14 14:40:04.086665,-154
2021-10-14 14:40:04.086675,-157
2021-10-14 14:40:04.086684,-164
2021-10-14 14:40:04.086692,-154
2021-10-14 14:40:04.086701,-144
2021-10-14 14:40:04.086709,-157
2021-10-14 14:40:04.086718,-159
2021-10-14 14:40:04.086726,-142
2021-10-14 14:40:04.086735,-130
2021-10-14 14:40:04.086743,-127
2021-10-14 14:40:04.086752,-125
2021-10-14 14:40:04.086760,-127
2021-10-14 14:40:04.086769,-130
2021-10-14 14:40:04.086777,-130
2021-10-14 14:40:04.086785,-120
2021-10-14 14:40:04.086794,-100
2021-10-14 14:40:04.086802,-90
2021-10-14 14:40:04.086811,-95
2021-10-14 14:40:04.086819,-95
2021-10-14 14:40:04.086828,-98
2021-10-14 14:40:04.086836,-103
2021-10-14 14:40:04.086844,-85
2021-10-14 14:40:04.086858,-73
2021-10-14 14:40:04.086867,-95
2021-10-14 14:40:04.086875,-100
2021-10-14 14:40:04.086884,-83
2021-10-14 14:40:04.086892,-83
2021-10-14 14:40:04.086901,-71
2021-10-14 14:40:04.086909,-46
2021-10-14 14:40:04.356562,-51
2021-10-14 14:40:04.356585,-66
2021-10-14 14:40:04.356594,-63
2021-10-14 14:40:04.356603,-61
2021-10-14 14:40:04.356611,-66
2021-10-14 14:40:04.356620,-58
2021-10-14 14:40:04.356629,-56
2021-10-14 14:40:04.356637,-73
2021-10-14 14:40:04.356645,-56
2021-10-14 14:40:04.356654,-4
2021-10-14 14:40:04.356662,9
2021-10-14 14:40:04.356671,-24
2021-10-14 14:40:04.356679,-22
2021-10-14 14:40:04.356688,12
2021-10-14 14:40:04.356696,-7
2021-10-14 14:40:04.356704,-44
2021-10-14 14:40:04.356713,-31
2021-10-14 14:40:04.356721,-22
2021-10-14 14:40:04.356730,-36
2021-10-14 14:40:04.356738,-36
2021-10-14 14:40:04.356747,-29
2021-10-14 14:40:04.356755,-31
2021-10-14 14:40:04.356763,-29
2021-10-14 14:40:04.356771,46
2021-10-14 14:40:04.356780,289
2021-10-14 14:40:04.356788,642
2021-10-14 14:40:04.356797,814
2021-10-14 14:40:04.356805,419
2021-10-14 14:40:04.356814,-299
2021-10-14 14:40:04.356822,-390
2021-10-14 14:40:04.581408,36
2021-10-14 14:40:04.581430,80
2021-10-14 14:40:04.581439,-63
2021-10-14 14:40:04.581448,0
2021-10-14 14:40:04.581457,26
2021-10-14 14:40:04.581465,-26
2021-10-14 14:40:04.581474,0
2021-10-14 14:40:04.581482,41
2021-10-14 14:40:04.581491,36
2021-10-14 14:40:04.581499,51
2021-10-14 14:40:04.581508,85
2021-10-14 14:40:04.581516,93
2021-10-14 14:40:04.581524,103
2021-10-14 14:40:04.581533,130
2021-10-14 14:40:04.581541,157
2021-10-14 14:40:04.581550,188
2021-10-14 14:40:04.581558,223
2021-10-14 14:40:04.581566,235
2021-10-14 14:40:04.581575,250
2021-10-14 14:40:04.581583,289
2021-10-14 14:40:04.581592,321
2021-10-14 14:40:04.581600,326
2021-10-14 14:40:04.581608,314
2021-10-14 14:40:04.581617,306
2021-10-14 14:40:04.581625,299
2021-10-14 14:40:04.581633,274
2021-10-14 14:40:04.581642,225
2021-10-14 14:40:04.581650,152
2021-10-14 14:40:04.581658,58
2021-10-14 14:40:04.581667,-26
2021-10-14 14:40:04.805192,-80
2021-10-14 14:40:04.805216,-120
2021-10-14 14:40:04.805226,-157
2021-10-14 14:40:04.805236,-164
2021-10-14 14:40:04.805245,-161
2021-10-14 14:40:04.805255,-171
2021-10-14 14:40:04.805264,-176
2021-10-14 14:40:04.805273,-161
2021-10-14 14:40:04.805282,-144
2021-10-14 14:40:04.805291,-139
2021-10-14 14:40:04.805300,-142
2021-10-14 14:40:04.805310,-147
2021-10-14 14:40:04.805319,-130
2021-10-14 14:40:04.805328,-100
2021-10-14 14:40:04.805338,-93
2021-10-14 14:40:04.805347,-105
2021-10-14 14:40:04.805356,-107
2021-10-14 14:40:04.805365,-103
2021-10-14 14:40:04.805374,-98
2021-10-14 14:40:04.805383,-98
2021-10-14 14:40:04.805392,-100
2021-10-14 14:40:04.805402,-90
2021-10-14 14:40:04.805411,-83
2021-10-14 14:40:04.805420,-93
2021-10-14 14:40:04.805429,-95
2021-10-14 14:40:04.805438,-85
2021-10-14 14:40:04.805447,-83
2021-10-14 14:40:04.805456,-85
2021-10-14 14:40:04.805465,-80
2021-10-14 14:40:04.805474,-76
2021-10-14 14:40:05.076381,-66
2021-10-14 14:40:05.076403,-56
2021-10-14 14:40:05.076413,-66
2021-10-14 14:40:05.076422,-88
2021-10-14 14:40:05.076482,-93
2021-10-14 14:40:05.076490,-68
2021-10-14 14:40:05.076499,-61
2021-10-14 14:40:05.076507,-90
2021-10-14 14:40:05.076516,-90
2021-10-14 14:40:05.076524,-41
2021-10-14 14:40:05.076533,-14
2021-10-14 14:40:05.076541,-29
2021-10-14 14:40:05.076550,-36
2021-10-14 14:40:05.076558,-31
2021-10-14 14:40:05.076567,-44
2021-10-14 14:40:05.076575,-66
2021-10-14 14:40:05.076584,-78
2021-10-14 14:40:05.076592,-88
2021-10-14 14:40:05.076600,-83
2021-10-14 14:40:05.076609,-61
2021-10-14 14:40:05.076617,-56
2021-10-14 14:40:05.076626,-68
2021-10-14 14:40:05.076634,-73
2021-10-14 14:40:05.076642,-31
2021-10-14 14:40:05.076651,125
2021-10-14 14:40:05.076659,458
2021-10-14 14:40:05.076668,804
2021-10-14 14:40:05.076676,718
2021-10-14 14:40:05.076685,7
2021-10-14 14:40:05.076693,-502
2021-10-14 14:40:05.256603,-181
2021-10-14 14:40:05.256626,107
2021-10-14 14:40:05.256636,-71
2021-10-14 14:40:05.256644,-120
2021-10-14 14:40:05.256653,-17
2021-10-14 14:40:05.256662,-34
2021-10-14 14:40:05.256670,-46
2021-10-14 14:40:05.256679,2
2021-10-14 14:40:05.256688,12
2021-10-14 14:40:05.256696,7
2021-10-14 14:40:05.256705,34
2021-10-14 14:40:05.256714,66
2021-10-14 14:40:05.256722,83
2021-10-14 14:40:05.256731,98
2021-10-14 14:40:05.256739,112
2021-10-14 14:40:05.256748,125
2021-10-14 14:40:05.256756,161
2021-10-14 14:40:05.256767,213
2021-10-14 14:40:05.256775,245
2021-10-14 14:40:05.256784,267
2021-10-14 14:40:05.256792,284
2021-10-14 14:40:05.256801,291
2021-10-14 14:40:05.256809,299
2021-10-14 14:40:05.256818,304
2021-10-14 14:40:05.256826,294
2021-10-14 14:40:05.256835,267
2021-10-14 14:40:05.256843,206
2021-10-14 14:40:05.256851,120
2021-10-14 14:40:05.256860,44
2021-10-14 14:40:05.256868,-26
2021-10-14 14:40:05.571545,-105
2021-10-14 14:40:05.571567,-157
2021-10-14 14:40:05.571577,-169
2021-10-14 14:40:05.571585,-201
2021-10-14 14:40:05.571594,-242
2021-10-14 14:40:05.571602,-223
2021-10-14 14:40:05.571611,-186
2021-10-14 14:40:05.571619,-193
2021-10-14 14:40:05.571627,-211
2021-10-14 14:40:05.571636,-203
2021-10-14 14:40:05.571644,-186
2021-10-14 14:40:05.571652,-179
2021-10-14 14:40:05.571661,-181
2021-10-14 14:40:05.571669,-179
2021-10-14 14:40:05.571677,-161
2021-10-14 14:40:05.571686,-164
2021-10-14 14:40:05.571694,-179
2021-10-14 14:40:05.571702,-166
2021-10-14 14:40:05.571711,-142
2021-10-14 14:40:05.571719,-137
2021-10-14 14:40:05.571727,-152
2021-10-14 14:40:05.571736,-154
2021-10-14 14:40:05.571744,-137
2021-10-14 14:40:05.571752,-144
2021-10-14 14:40:05.571761,-147
2021-10-14 14:40:05.571769,-142
2021-10-14 14:40:05.571777,-159
2021-10-14 14:40:05.571785,-152
2021-10-14 14:40:05.571794,-130
2021-10-14 14:40:05.571802,-134
2021-10-14 14:40:05.706975,-127
2021-10-14 14:40:05.706996,-112
2021-10-14 14:40:05.707006,-120
2021-10-14 14:40:05.707015,-117
2021-10-14 14:40:05.707023,-95
2021-10-14 14:40:05.707032,-98
2021-10-14 14:40:05.707040,-117
2021-10-14 14:40:05.707049,-103
2021-10-14 14:40:05.707057,-68
2021-10-14 14:40:05.707066,-41
2021-10-14 14:40:05.707074,-31
2021-10-14 14:40:05.707083,-39
2021-10-14 14:40:05.707091,-44
2021-10-14 14:40:05.707101,-49
2021-10-14 14:40:05.707111,-61
2021-10-14 14:40:05.707120,-68
2021-10-14 14:40:05.707128,-68
2021-10-14 14:40:05.707137,-61
2021-10-14 14:40:05.707145,-46
2021-10-14 14:40:05.707153,-39
2021-10-14 14:40:05.707162,-46
2021-10-14 14:40:05.707170,-51
2021-10-14 14:40:05.707179,-26
2021-10-14 14:40:05.707187,90
2021-10-14 14:40:05.707196,350
2021-10-14 14:40:05.707204,699
2021-10-14 14:40:05.707213,831
2021-10-14 14:40:05.707221,336
2021-10-14 14:40:05.707230,-353
2021-10-14 14:40:05.707238,-272
2021-10-14 14:40:05.931568,125
2021-10-14 14:40:05.931591,36
2021-10-14 14:40:05.931601,-78
2021-10-14 14:40:05.931610,26
2021-10-14 14:40:05.931619,34
2021-10-14 14:40:05.931627,-14
2021-10-14 14:40:05.931636,2
2021-10-14 14:40:05.931644,14
2021-10-14 14:40:05.931653,19
2021-10-14 14:40:05.931661,58
2021-10-14 14:40:05.931670,93
2021-10-14 14:40:05.931678,93
2021-10-14 14:40:05.931687,83
2021-10-14 14:40:05.931695,115
2021-10-14 14:40:05.931703,161
2021-10-14 14:40:05.931712,171
2021-10-14 14:40:05.931720,184
2021-10-14 14:40:05.931729,230
2021-10-14 14:40:05.931738,262
2021-10-14 14:40:05.931746,277
2021-10-14 14:40:05.931755,291
2021-10-14 14:40:05.931763,309
2021-10-14 14:40:05.931772,311
2021-10-14 14:40:05.931780,301
2021-10-14 14:40:05.931788,284
2021-10-14 14:40:05.931797,235
2021-10-14 14:40:05.931805,152
2021-10-14 14:40:05.931814,63
2021-10-14 14:40:05.931822,-19
2021-10-14 14:40:05.931831,-110
2021-10-14 14:40:06.156562,-164
2021-10-14 14:40:06.156585,-164
2021-10-14 14:40:06.156595,-186
2021-10-14 14:40:06.156604,-220
2021-10-14 14:40:06.156612,-218
2021-10-14 14:40:06.156621,-225
2021-10-14 14:40:06.156630,-245
2021-10-14 14:40:06.156638,-235
2021-10-14 14:40:06.156647,-201
2021-10-14 14:40:06.156655,-169
2021-10-14 14:40:06.156664,-149
2021-10-14 14:40:06.156672,-154
2021-10-14 14:40:06.156681,-184
2021-10-14 14:40:06.156689,-184
2021-10-14 14:40:06.156698,-147
2021-10-14 14:40:06.156706,-134
2021-10-14 14:40:06.156715,-137
2021-10-14 14:40:06.156730,-132
2021-10-14 14:40:06.156739,-120
2021-10-14 14:40:06.156747,-105
2021-10-14 14:40:06.156756,-125
2021-10-14 14:40:06.156764,-147
2021-10-14 14:40:06.156773,-115
2021-10-14 14:40:06.156781,-95
2021-10-14 14:40:06.156790,-127
2021-10-14 14:40:06.156798,-137
2021-10-14 14:40:06.156807,-115
2021-10-14 14:40:06.156815,-95
2021-10-14 14:40:06.156824,-93
2021-10-14 14:40:06.156832,-105
2021-10-14 14:40:06.515950,-115
2021-10-14 14:40:06.515974,-107
2021-10-14 14:40:06.515983,-115
2021-10-14 14:40:06.515991,-137
2021-10-14 14:40:06.515999,-98
2021-10-14 14:40:06.516007,-36
2021-10-14 14:40:06.516013,-46
2021-10-14 14:40:06.516021,-73
2021-10-14 14:40:06.516028,-63
2021-10-14 14:40:06.516036,-58
2021-10-14 14:40:06.516043,-83
2021-10-14 14:40:06.516051,-120
2021-10-14 14:40:06.516058,-132
2021-10-14 14:40:06.516066,-110
2021-10-14 14:40:06.516074,-85
2021-10-14 14:40:06.516081,-93
2021-10-14 14:40:06.516088,-115
2021-10-14 14:40:06.516095,-105
2021-10-14 14:40:06.516102,-66
2021-10-14 14:40:06.516110,-7
2021-10-14 14:40:06.516117,161
2021-10-14 14:40:06.516124,522
2021-10-14 14:40:06.516132,797
2021-10-14 14:40:06.516139,422
2021-10-14 14:40:06.516146,-350
2021-10-14 14:40:06.516154,-431
2021-10-14 14:40:06.516161,7
2021-10-14 14:40:06.516169,14
2021-10-14 14:40:06.516176,-132
2021-10-14 14:40:06.516183,-51
2021-10-14 14:40:06.606474,-14
2021-10-14 14:40:06.606496,-63
2021-10-14 14:40:06.606506,-56
2021-10-14 14:40:06.606514,-26
2021-10-14 14:40:06.606523,-14
2021-10-14 14:40:06.606532,-22
2021-10-14 14:40:06.606540,2
2021-10-14 14:40:06.606549,58
2021-10-14 14:40:06.606557,49
2021-10-14 14:40:06.606566,22
2021-10-14 14:40:06.606574,73
2021-10-14 14:40:06.606582,107
2021-10-14 14:40:06.606591,95
2021-10-14 14:40:06.606599,134
2021-10-14 14:40:06.606608,193
2021-10-14 14:40:06.606616,215
2021-10-14 14:40:06.606625,240
2021-10-14 14:40:06.606633,245
2021-10-14 14:40:06.606642,208
2021-10-14 14:40:06.606650,215
2021-10-14 14:40:06.606658,233
2021-10-14 14:40:06.606667,164
2021-10-14 14:40:06.606675,49
2021-10-14 14:40:06.606684,-34
2021-10-14 14:40:06.606692,-85
2021-10-14 14:40:06.606701,-161
2021-10-14 14:40:06.606709,-242
2021-10-14 14:40:06.606718,-269
2021-10-14 14:40:06.606726,-282
2021-10-14 14:40:06.606734,-318
2021-10-14 14:40:06.875576,-331
2021-10-14 14:40:06.875595,-301
2021-10-14 14:40:06.875605,-289
2021-10-14 14:40:06.875614,-301
2021-10-14 14:40:06.875623,-301
2021-10-14 14:40:06.875631,-279
2021-10-14 14:40:06.875640,-262
2021-10-14 14:40:06.875648,-255
2021-10-14 14:40:06.875657,-235
2021-10-14 14:40:06.875665,-218
2021-10-14 14:40:06.875674,-235
2021-10-14 14:40:06.875682,-242
2021-10-14 14:40:06.875691,-213
2021-10-14 14:40:06.875699,-206
2021-10-14 14:40:06.875708,-225
2021-10-14 14:40:06.875716,-206
2021-10-14 14:40:06.875725,-169
2021-10-14 14:40:06.875733,-179
2021-10-14 14:40:06.875742,-193
2021-10-14 14:40:06.875750,-174
2021-10-14 14:40:06.875759,-164
2021-10-14 14:40:06.875767,-184
2021-10-14 14:40:06.875776,-198
2021-10-14 14:40:06.875784,-188
2021-10-14 14:40:06.875793,-171
2021-10-14 14:40:06.875801,-161
2021-10-14 14:40:06.875810,-159
2021-10-14 14:40:06.875818,-161
2021-10-14 14:40:06.875827,-174
2021-10-14 14:40:06.875835,-166
2021-10-14 14:40:07.101959,-149
2021-10-14 14:40:07.101982,-166
2021-10-14 14:40:07.101991,-176
2021-10-14 14:40:07.102000,-120
2021-10-14 14:40:07.102009,-80
2021-10-14 14:40:07.102018,-88
2021-10-14 14:40:07.102027,-85
2021-10-14 14:40:07.102036,-98
2021-10-14 14:40:07.102044,-132
2021-10-14 14:40:07.102053,-157
2021-10-14 14:40:07.102062,-161
2021-10-14 14:40:07.102070,-154
2021-10-14 14:40:07.102079,-147
2021-10-14 14:40:07.102088,-130
2021-10-14 14:40:07.102096,-125
2021-10-14 14:40:07.102105,-132
2021-10-14 14:40:07.102113,-103
2021-10-14 14:40:07.102122,-78
2021-10-14 14:40:07.102131,7
2021-10-14 14:40:07.102139,338
2021-10-14 14:40:07.102148,740
2021-10-14 14:40:07.102156,704
2021-10-14 14:40:07.102164,7
2021-10-14 14:40:07.102173,-507
2021-10-14 14:40:07.102181,-179
2021-10-14 14:40:07.102190,93
2021-10-14 14:40:07.102198,-120
2021-10-14 14:40:07.102207,-147
2021-10-14 14:40:07.102215,9
2021-10-14 14:40:07.102224,2
2021-10-14 14:40:07.326685,-49
2021-10-14 14:40:07.326707,-14
2021-10-14 14:40:07.326717,26
2021-10-14 14:40:07.326726,34
2021-10-14 14:40:07.326735,26
2021-10-14 14:40:07.326744,56
2021-10-14 14:40:07.326752,120
2021-10-14 14:40:07.326761,130
2021-10-14 14:40:07.326769,105
2021-10-14 14:40:07.326778,132
2021-10-14 14:40:07.326786,179
2021-10-14 14:40:07.326795,206
2021-10-14 14:40:07.326803,230
2021-10-14 14:40:07.326812,262
2021-10-14 14:40:07.326820,289
2021-10-14 14:40:07.326829,309
2021-10-14 14:40:07.326837,289
2021-10-14 14:40:07.326845,257
2021-10-14 14:40:07.326854,264
2021-10-14 14:40:07.326862,245
2021-10-14 14:40:07.326871,174
2021-10-14 14:40:07.326879,115
2021-10-14 14:40:07.326887,51
2021-10-14 14:40:07.326896,-39
2021-10-14 14:40:07.326904,-122
2021-10-14 14:40:07.326913,-193
2021-10-14 14:40:07.326921,-215
2021-10-14 14:40:07.326930,-198
2021-10-14 14:40:07.326938,-238
2021-10-14 14:40:07.326947,-264
2021-10-14 14:40:07.551973,-215
2021-10-14 14:40:07.551996,-198
2021-10-14 14:40:07.552006,-220
2021-10-14 14:40:07.552014,-215
2021-10-14 14:40:07.552023,-191
2021-10-14 14:40:07.552031,-157
2021-10-14 14:40:07.552040,-149
2021-10-14 14:40:07.552049,-179
2021-10-14 14:40:07.552057,-184
2021-10-14 14:40:07.552065,-137
2021-10-14 14:40:07.552074,-100
2021-10-14 14:40:07.552082,-110
2021-10-14 14:40:07.552091,-134
2021-10-14 14:40:07.552099,-137
2021-10-14 14:40:07.552108,-112
2021-10-14 14:40:07.552116,-117
2021-10-14 14:40:07.552125,-161
2021-10-14 14:40:07.552133,-154
2021-10-14 14:40:07.552141,-107
2021-10-14 14:40:07.552150,-110
2021-10-14 14:40:07.552159,-125
2021-10-14 14:40:07.552167,-115
2021-10-14 14:40:07.552175,-98
2021-10-14 14:40:07.552184,-100
2021-10-14 14:40:07.552193,-117
2021-10-14 14:40:07.552201,-98
2021-10-14 14:40:07.552210,-71
2021-10-14 14:40:07.552218,-83
2021-10-14 14:40:07.552226,-78
2021-10-14 14:40:07.552235,-66
2021-10-14 14:40:07.776501,-98
2021-10-14 14:40:07.776522,-115
2021-10-14 14:40:07.776531,-53
2021-10-14 14:40:07.776540,7
2021-10-14 14:40:07.776549,0
2021-10-14 14:40:07.776558,-7
2021-10-14 14:40:07.776567,-4
2021-10-14 14:40:07.776575,-46
2021-10-14 14:40:07.776584,-76
2021-10-14 14:40:07.776592,-66
2021-10-14 14:40:07.776601,-53
2021-10-14 14:40:07.776610,-26
2021-10-14 14:40:07.776618,-17
2021-10-14 14:40:07.776627,-46
2021-10-14 14:40:07.776635,-66
2021-10-14 14:40:07.776644,-53
2021-10-14 14:40:07.776653,0
2021-10-14 14:40:07.776661,105
2021-10-14 14:40:07.776670,348
2021-10-14 14:40:07.776679,706
2021-10-14 14:40:07.776687,790
2021-10-14 14:40:07.776696,213
2021-10-14 14:40:07.776704,-434
2021-10-14 14:40:07.776713,-245
2021-10-14 14:40:07.776722,176
2021-10-14 14:40:07.776730,68
2021-10-14 14:40:07.776739,-53
2021-10-14 14:40:07.776747,56
2021-10-14 14:40:07.776756,80
2021-10-14 14:40:07.776764,41
2021-10-14 14:40:08.001964,68
2021-10-14 14:40:08.001987,100
2021-10-14 14:40:08.001997,117
2021-10-14 14:40:08.002006,127
2021-10-14 14:40:08.002015,122
2021-10-14 14:40:08.002023,147
2021-10-14 14:40:08.002032,181
2021-10-14 14:40:08.002040,186
2021-10-14 14:40:08.002048,206
2021-10-14 14:40:08.002057,255
2021-10-14 14:40:08.002066,287
2021-10-14 14:40:08.002074,291
2021-10-14 14:40:08.002082,331
2021-10-14 14:40:08.002091,365
2021-10-14 14:40:08.002099,345
2021-10-14 14:40:08.002108,350
2021-10-14 14:40:08.002116,387
2021-10-14 14:40:08.002125,360
2021-10-14 14:40:08.002133,287
2021-10-14 14:40:08.002141,238
2021-10-14 14:40:08.002150,186
2021-10-14 14:40:08.002158,83
2021-10-14 14:40:08.002167,-29
2021-10-14 14:40:08.002175,-78
2021-10-14 14:40:08.002184,-98
2021-10-14 14:40:08.002192,-164
2021-10-14 14:40:08.002200,-233
2021-10-14 14:40:08.002209,-213
2021-10-14 14:40:08.002217,-159
2021-10-14 14:40:08.002226,-186
2021-10-14 14:40:08.271826,-233
2021-10-14 14:40:08.271846,-191
2021-10-14 14:40:08.271854,-142
2021-10-14 14:40:08.271861,-166
2021-10-14 14:40:08.271868,-188
2021-10-14 14:40:08.271876,-159
2021-10-14 14:40:08.271884,-122
2021-10-14 14:40:08.271891,-117
2021-10-14 14:40:08.271898,-147
2021-10-14 14:40:08.271905,-134
2021-10-14 14:40:08.271913,-95
2021-10-14 14:40:08.271926,-105
2021-10-14 14:40:08.271961,-120
2021-10-14 14:40:08.271971,-105
2021-10-14 14:40:08.271981,-107
2021-10-14 14:40:08.271990,-117
2021-10-14 14:40:08.271997,-98
2021-10-14 14:40:08.272006,-80
2021-10-14 14:40:08.272015,-105
2021-10-14 14:40:08.272023,-107
2021-10-14 14:40:08.272031,-71
2021-10-14 14:40:08.272038,-63
2021-10-14 14:40:08.272046,-100
2021-10-14 14:40:08.272054,-105
2021-10-14 14:40:08.272062,-61
2021-10-14 14:40:08.272069,-46
2021-10-14 14:40:08.272077,-76
2021-10-14 14:40:08.272084,-85
2021-10-14 14:40:08.272093,-61
2021-10-14 14:40:08.272102,-34
2021-10-14 14:40:08.451607,-22
2021-10-14 14:40:08.451630,-41
2021-10-14 14:40:08.451639,-66
2021-10-14 14:40:08.451648,-44
2021-10-14 14:40:08.451657,2
2021-10-14 14:40:08.451665,2
2021-10-14 14:40:08.451674,-14
2021-10-14 14:40:08.451682,17
2021-10-14 14:40:08.451691,26
2021-10-14 14:40:08.451699,-7
2021-10-14 14:40:08.451708,-29
2021-10-14 14:40:08.451716,-39
2021-10-14 14:40:08.451725,-34
2021-10-14 14:40:08.451733,-12
2021-10-14 14:40:08.451754,-12
2021-10-14 14:40:08.451763,-26
2021-10-14 14:40:08.451771,-26
2021-10-14 14:40:08.451780,-24
2021-10-14 14:40:08.451788,-9
2021-10-14 14:40:08.451797,112
2021-10-14 14:40:08.451805,422
2021-10-14 14:40:08.451814,763
2021-10-14 14:40:08.451822,701
2021-10-14 14:40:08.451831,49
2021-10-14 14:40:08.451840,-439
2021-10-14 14:40:08.451848,-137
2021-10-14 14:40:08.451856,159
2021-10-14 14:40:08.451865,2
2021-10-14 14:40:08.451874,-29
2021-10-14 14:40:08.451882,63
2021-10-14 14:40:08.722020,29
2021-10-14 14:40:08.722043,14
2021-10-14 14:40:08.722053,76
2021-10-14 14:40:08.722061,95
2021-10-14 14:40:08.722070,83
2021-10-14 14:40:08.722078,107
2021-10-14 14:40:08.722087,139
2021-10-14 14:40:08.722095,132
2021-10-14 14:40:08.722104,147
2021-10-14 14:40:08.722112,196
2021-10-14 14:40:08.722121,203
2021-10-14 14:40:08.722129,206
2021-10-14 14:40:08.722137,257
2021-10-14 14:40:08.722146,291
2021-10-14 14:40:08.722154,299
2021-10-14 14:40:08.722163,338
2021-10-14 14:40:08.722171,358
2021-10-14 14:40:08.722179,323
2021-10-14 14:40:08.722188,331
2021-10-14 14:40:08.722196,360
2021-10-14 14:40:08.722204,294
2021-10-14 14:40:08.722213,188
2021-10-14 14:40:08.722221,149
2021-10-14 14:40:08.722229,98
2021-10-14 14:40:08.722238,-2
2021-10-14 14:40:08.722246,-71
2021-10-14 14:40:08.722254,-115
2021-10-14 14:40:08.722263,-164
2021-10-14 14:40:08.722271,-176
2021-10-14 14:40:08.722280,-174
2021-10-14 14:40:09.035606,-196
2021-10-14 14:40:09.035628,-201
2021-10-14 14:40:09.035637,-161
2021-10-14 14:40:09.035646,-147
2021-10-14 14:40:09.035655,-169
2021-10-14 14:40:09.035663,-166
2021-10-14 14:40:09.035672,-132
2021-10-14 14:40:09.035680,-100
2021-10-14 14:40:09.035689,-90
2021-10-14 14:40:09.035697,-107
2021-10-14 14:40:09.035706,-117
2021-10-14 14:40:09.035714,-90
2021-10-14 14:40:09.035723,-80
2021-10-14 14:40:09.035731,-80
2021-10-14 14:40:09.035739,-68
2021-10-14 14:40:09.035748,-80
2021-10-14 14:40:09.035757,-100
2021-10-14 14:40:09.035765,-85
2021-10-14 14:40:09.035773,-61
2021-10-14 14:40:09.035782,-76
2021-10-14 14:40:09.035790,-93
2021-10-14 14:40:09.035799,-73
2021-10-14 14:40:09.035807,-56
2021-10-14 14:40:09.035816,-53
2021-10-14 14:40:09.035824,-58
2021-10-14 14:40:09.035833,-66
2021-10-14 14:40:09.035841,-53
2021-10-14 14:40:09.035850,-51
2021-10-14 14:40:09.035858,-88
2021-10-14 14:40:09.035867,-73
2021-10-14 14:40:09.216688,-12
2021-10-14 14:40:09.216707,-14
2021-10-14 14:40:09.216715,-53
2021-10-14 14:40:09.216722,-68
2021-10-14 14:40:09.216730,-53
2021-10-14 14:40:09.216737,-41
2021-10-14 14:40:09.216744,-71
2021-10-14 14:40:09.216752,-85
2021-10-14 14:40:09.216760,-26
2021-10-14 14:40:09.216767,17
2021-10-14 14:40:09.216774,0
2021-10-14 14:40:09.216782,4
2021-10-14 14:40:09.216788,7
2021-10-14 14:40:09.216796,-19
2021-10-14 14:40:09.216803,-34
2021-10-14 14:40:09.216811,-29
2021-10-14 14:40:09.216818,-41
2021-10-14 14:40:09.216827,-56
2021-10-14 14:40:09.216835,-36
2021-10-14 14:40:09.216844,-31
2021-10-14 14:40:09.216852,-44
2021-10-14 14:40:09.216861,-14
2021-10-14 14:40:09.216869,49
2021-10-14 14:40:09.216878,206
2021-10-14 14:40:09.216886,527
2021-10-14 14:40:09.216895,804
2021-10-14 14:40:09.216903,579
2021-10-14 14:40:09.216912,-188
2021-10-14 14:40:09.216920,-522
2021-10-14 14:40:09.216929,-63
2021-10-14 14:40:09.441677,179
2021-10-14 14:40:09.441700,24
2021-10-14 14:40:09.441709,36
2021-10-14 14:40:09.441718,83
2021-10-14 14:40:09.441727,36
2021-10-14 14:40:09.441736,71
2021-10-14 14:40:09.441744,127
2021-10-14 14:40:09.441753,103
2021-10-14 14:40:09.441761,100
2021-10-14 14:40:09.441770,159
2021-10-14 14:40:09.441778,179
2021-10-14 14:40:09.441786,159
2021-10-14 14:40:09.441795,184
2021-10-14 14:40:09.441803,225
2021-10-14 14:40:09.441812,250
2021-10-14 14:40:09.441820,264
2021-10-14 14:40:09.441829,284
2021-10-14 14:40:09.441837,328
2021-10-14 14:40:09.441846,365
2021-10-14 14:40:09.441854,350
2021-10-14 14:40:09.441862,323
2021-10-14 14:40:09.441871,328
2021-10-14 14:40:09.441879,343
2021-10-14 14:40:09.441887,338
2021-10-14 14:40:09.441896,304
2021-10-14 14:40:09.441904,245
2021-10-14 14:40:09.441913,166
2021-10-14 14:40:09.441921,85
2021-10-14 14:40:09.441929,12
2021-10-14 14:40:09.441938,-66
2021-10-14 14:40:09.621958,-144
2021-10-14 14:40:09.621980,-171
2021-10-14 14:40:09.621990,-154
2021-10-14 14:40:09.621999,-159
2021-10-14 14:40:09.622007,-181
2021-10-14 14:40:09.622016,-188
2021-10-14 14:40:09.622024,-188
2021-10-14 14:40:09.622033,-164
2021-10-14 14:40:09.622041,-149
2021-10-14 14:40:09.622049,-161
2021-10-14 14:40:09.622058,-152
2021-10-14 14:40:09.622066,-127
2021-10-14 14:40:09.622075,-117
2021-10-14 14:40:09.622083,-122
2021-10-14 14:40:09.622092,-130
2021-10-14 14:40:09.622100,-130
2021-10-14 14:40:09.622109,-105
2021-10-14 14:40:09.622117,-93
2021-10-14 14:40:09.622126,-125
2021-10-14 14:40:09.622134,-134
2021-10-14 14:40:09.622143,-105
2021-10-14 14:40:09.622151,-98
2021-10-14 14:40:09.622160,-117
2021-10-14 14:40:09.622168,-120
2021-10-14 14:40:09.622176,-95
2021-10-14 14:40:09.622185,-78
2021-10-14 14:40:09.622194,-103
2021-10-14 14:40:09.622202,-115
2021-10-14 14:40:09.622211,-90
2021-10-14 14:40:09.622219,-71
2021-10-14 14:40:09.891679,-71
2021-10-14 14:40:09.891702,-83
2021-10-14 14:40:09.891711,-83
2021-10-14 14:40:09.891720,-49
2021-10-14 14:40:09.891729,-41
2021-10-14 14:40:09.891737,-71
2021-10-14 14:40:09.891746,-78
2021-10-14 14:40:09.891754,-66
2021-10-14 14:40:09.891763,-61
2021-10-14 14:40:09.891771,-66
2021-10-14 14:40:09.891780,-58
2021-10-14 14:40:09.891789,-31
2021-10-14 14:40:09.891797,-19
2021-10-14 14:40:09.891805,-12
2021-10-14 14:40:09.891813,19
2021-10-14 14:40:09.891822,26
2021-10-14 14:40:09.891831,-12
2021-10-14 14:40:09.891839,-36
2021-10-14 14:40:09.891847,-22
2021-10-14 14:40:09.891855,-17
2021-10-14 14:40:09.891864,-22
2021-10-14 14:40:09.891872,-22
2021-10-14 14:40:09.891881,-19
2021-10-14 14:40:09.891889,-14
2021-10-14 14:40:09.891897,-12
2021-10-14 14:40:09.891906,7
2021-10-14 14:40:09.891914,130
2021-10-14 14:40:09.891923,409
2021-10-14 14:40:09.891932,760
2021-10-14 14:40:09.891940,812
2021-10-14 14:40:10.116393,206
2021-10-14 14:40:10.116413,-422
2021-10-14 14:40:10.116422,-203
2021-10-14 14:40:10.116430,181
2021-10-14 14:40:10.116439,63
2021-10-14 14:40:10.116447,-7
2021-10-14 14:40:10.116456,88
2021-10-14 14:40:10.116464,41
2021-10-14 14:40:10.116473,12
2021-10-14 14:40:10.116481,93
2021-10-14 14:40:10.116489,112
2021-10-14 14:40:10.116496,88
2021-10-14 14:40:10.116504,100
2021-10-14 14:40:10.116512,127
2021-10-14 14:40:10.116521,125
2021-10-14 14:40:10.116529,107
2021-10-14 14:40:10.116536,139
2021-10-14 14:40:10.116544,191
2021-10-14 14:40:10.116552,203
2021-10-14 14:40:10.116559,235
2021-10-14 14:40:10.116567,287
2021-10-14 14:40:10.116575,289
2021-10-14 14:40:10.116582,277
2021-10-14 14:40:10.116590,309
2021-10-14 14:40:10.116598,341
2021-10-14 14:40:10.116605,333
2021-10-14 14:40:10.116612,309
2021-10-14 14:40:10.116619,289
2021-10-14 14:40:10.116627,245
2021-10-14 14:40:10.116634,174
2021-10-14 14:40:10.297002,112
2021-10-14 14:40:10.297025,41
2021-10-14 14:40:10.297034,-53
2021-10-14 14:40:10.297043,-115
2021-10-14 14:40:10.297051,-127
2021-10-14 14:40:10.297060,-144
2021-10-14 14:40:10.297068,-174
2021-10-14 14:40:10.297077,-184
2021-10-14 14:40:10.297085,-164
2021-10-14 14:40:10.297093,-147
2021-10-14 14:40:10.297102,-164
2021-10-14 14:40:10.297110,-174
2021-10-14 14:40:10.297119,-134
2021-10-14 14:40:10.297127,-110
2021-10-14 14:40:10.297135,-139
2021-10-14 14:40:10.297144,-125
2021-10-14 14:40:10.297152,-83
2021-10-14 14:40:10.297161,-90
2021-10-14 14:40:10.297169,-105
2021-10-14 14:40:10.297177,-85
2021-10-14 14:40:10.297186,-78
2021-10-14 14:40:10.297194,-98
2021-10-14 14:40:10.297202,-93
2021-10-14 14:40:10.297211,-76
2021-10-14 14:40:10.297219,-78
2021-10-14 14:40:10.297227,-78
2021-10-14 14:40:10.297236,-63
2021-10-14 14:40:10.297244,-61
2021-10-14 14:40:10.297252,-83
2021-10-14 14:40:10.297261,-105
2021-10-14 14:40:10.522000,-78
2021-10-14 14:40:10.522021,-51
2021-10-14 14:40:10.522031,-66
2021-10-14 14:40:10.522040,-66
2021-10-14 14:40:10.522049,-49
2021-10-14 14:40:10.522057,-49
2021-10-14 14:40:10.522066,-56
2021-10-14 14:40:10.522075,-53
2021-10-14 14:40:10.522083,-68
2021-10-14 14:40:10.522092,-80
2021-10-14 14:40:10.522100,-68
2021-10-14 14:40:10.522109,-73
2021-10-14 14:40:10.522117,-71
2021-10-14 14:40:10.522125,-26
2021-10-14 14:40:10.522134,4
2021-10-14 14:40:10.522142,2
2021-10-14 14:40:10.522151,7
2021-10-14 14:40:10.522159,29
2021-10-14 14:40:10.522168,4
2021-10-14 14:40:10.522176,-63
2021-10-14 14:40:10.522185,-85
2021-10-14 14:40:10.522193,-63
2021-10-14 14:40:10.522201,-56
2021-10-14 14:40:10.522210,-53
2021-10-14 14:40:10.522218,-46
2021-10-14 14:40:10.522227,-51
2021-10-14 14:40:10.522235,-41
2021-10-14 14:40:10.522244,-22
2021-10-14 14:40:10.522252,41
2021-10-14 14:40:10.522261,299
2021-10-14 14:40:10.836981,687
2021-10-14 14:40:10.837004,799
2021-10-14 14:40:10.837013,250
2021-10-14 14:40:10.837022,-490
2021-10-14 14:40:10.837031,-424
2021-10-14 14:40:10.837039,56
2021-10-14 14:40:10.837048,58
2021-10-14 14:40:10.837056,-61
2021-10-14 14:40:10.837065,9
2021-10-14 14:40:10.837074,9
2021-10-14 14:40:10.837082,-12
2021-10-14 14:40:10.837091,34
2021-10-14 14:40:10.837099,36
2021-10-14 14:40:10.837108,19
2021-10-14 14:40:10.837116,53
2021-10-14 14:40:10.837125,80
2021-10-14 14:40:10.837133,80
2021-10-14 14:40:10.837142,103
2021-10-14 14:40:10.837150,142
2021-10-14 14:40:10.837159,181
2021-10-14 14:40:10.837167,208
2021-10-14 14:40:10.837176,213
2021-10-14 14:40:10.837185,235
2021-10-14 14:40:10.837193,284
2021-10-14 14:40:10.837202,321
2021-10-14 14:40:10.837210,328
2021-10-14 14:40:10.837219,326
2021-10-14 14:40:10.837227,326
2021-10-14 14:40:10.837236,316
2021-10-14 14:40:10.837244,289
2021-10-14 14:40:11.060267,245
2021-10-14 14:40:11.060289,188
2021-10-14 14:40:11.060299,115
2021-10-14 14:40:11.060308,31
2021-10-14 14:40:11.060316,-53
2021-10-14 14:40:11.060325,-125
2021-10-14 14:40:11.060333,-147
2021-10-14 14:40:11.060342,-159
2021-10-14 14:40:11.060350,-208
2021-10-14 14:40:11.060359,-235
2021-10-14 14:40:11.060367,-211
2021-10-14 14:40:11.060376,-186
2021-10-14 14:40:11.060384,-176
2021-10-14 14:40:11.060393,-174
2021-10-14 14:40:11.060401,-166
2021-10-14 14:40:11.060410,-149
2021-10-14 14:40:11.060418,-137
2021-10-14 14:40:11.060427,-139
2021-10-14 14:40:11.060435,-144
2021-10-14 14:40:11.060447,-117
2021-10-14 14:40:11.060456,-110
2021-10-14 14:40:11.060464,-134
2021-10-14 14:40:11.060472,-125
2021-10-14 14:40:11.060481,-107
2021-10-14 14:40:11.060489,-125
2021-10-14 14:40:11.060497,-137
2021-10-14 14:40:11.060506,-127
2021-10-14 14:40:11.060514,-127
2021-10-14 14:40:11.060523,-137
2021-10-14 14:40:11.060531,-134
2021-10-14 14:40:11.241629,-127
2021-10-14 14:40:11.241649,-127
2021-10-14 14:40:11.241658,-130
2021-10-14 14:40:11.241667,-120
2021-10-14 14:40:11.241676,-112
2021-10-14 14:40:11.241684,-115
2021-10-14 14:40:11.241693,-110
2021-10-14 14:40:11.241701,-105
2021-10-14 14:40:11.241709,-127
2021-10-14 14:40:11.241718,-125
2021-10-14 14:40:11.241726,-71
2021-10-14 14:40:11.241734,-24
2021-10-14 14:40:11.241743,-31
2021-10-14 14:40:11.241751,-53
2021-10-14 14:40:11.241759,-49
2021-10-14 14:40:11.241768,-66
2021-10-14 14:40:11.241776,-98
2021-10-14 14:40:11.241785,-88
2021-10-14 14:40:11.241793,-63
2021-10-14 14:40:11.241801,-63
2021-10-14 14:40:11.241809,-56
2021-10-14 14:40:11.241818,-56
2021-10-14 14:40:11.241826,-76
2021-10-14 14:40:11.241834,-66
2021-10-14 14:40:11.241843,-41
2021-10-14 14:40:11.241851,14
2021-10-14 14:40:11.241860,230
2021-10-14 14:40:11.241868,598
2021-10-14 14:40:11.241877,824
2021-10-14 14:40:11.241885,461
2021-10-14 14:40:11.466954,-360
2021-10-14 14:40:11.466975,-576
2021-10-14 14:40:11.466985,-53
2021-10-14 14:40:11.466994,107
2021-10-14 14:40:11.467002,-68
2021-10-14 14:40:11.467011,-9
2021-10-14 14:40:11.467019,58
2021-10-14 14:40:11.467028,-2
2021-10-14 14:40:11.467036,7
2021-10-14 14:40:11.467045,53
2021-10-14 14:40:11.467053,49
2021-10-14 14:40:11.467062,53
2021-10-14 14:40:11.467071,83
2021-10-14 14:40:11.467079,90
2021-10-14 14:40:11.467087,90
2021-10-14 14:40:11.467096,112
2021-10-14 14:40:11.467104,157
2021-10-14 14:40:11.467113,191
2021-10-14 14:40:11.467121,215
2021-10-14 14:40:11.467130,247
2021-10-14 14:40:11.467139,287
2021-10-14 14:40:11.467147,314
2021-10-14 14:40:11.467156,336
2021-10-14 14:40:11.467164,350
2021-10-14 14:40:11.467173,338
2021-10-14 14:40:11.467181,316
2021-10-14 14:40:11.467189,306
2021-10-14 14:40:11.467198,272
2021-10-14 14:40:11.467206,181
2021-10-14 14:40:11.467215,83
2021-10-14 14:40:11.737062,-7
2021-10-14 14:40:11.737083,-98
2021-10-14 14:40:11.737093,-174
2021-10-14 14:40:11.737101,-203
2021-10-14 14:40:11.737110,-228
2021-10-14 14:40:11.737119,-274
2021-10-14 14:40:11.737127,-296
2021-10-14 14:40:11.737135,-284
2021-10-14 14:40:11.737144,-269
2021-10-14 14:40:11.737152,-257
2021-10-14 14:40:11.737161,-235
2021-10-14 14:40:11.737169,-223
2021-10-14 14:40:11.737177,-233
2021-10-14 14:40:11.737186,-220
2021-10-14 14:40:11.737194,-191
2021-10-14 14:40:11.737203,-188
2021-10-14 14:40:11.737211,-198
2021-10-14 14:40:11.737220,-184
2021-10-14 14:40:11.737228,-166
2021-10-14 14:40:11.737236,-166
2021-10-14 14:40:11.737245,-159
2021-10-14 14:40:11.737253,-149
2021-10-14 14:40:11.737262,-142
2021-10-14 14:40:11.737270,-134
2021-10-14 14:40:11.737278,-130
2021-10-14 14:40:11.737288,-132
2021-10-14 14:40:11.737297,-139
2021-10-14 14:40:11.737305,-134
2021-10-14 14:40:11.737314,-120
2021-10-14 14:40:11.737322,-107
2021-10-14 14:40:11.917076,-103
2021-10-14 14:40:11.917104,-110
2021-10-14 14:40:11.917113,-122
2021-10-14 14:40:11.917122,-125
2021-10-14 14:40:11.917131,-112
2021-10-14 14:40:11.917139,-85
2021-10-14 14:40:11.917148,-66
2021-10-14 14:40:11.917156,-58
2021-10-14 14:40:11.917163,-61
2021-10-14 14:40:11.917170,-71
2021-10-14 14:40:11.917176,-76
2021-10-14 14:40:11.917183,-80
2021-10-14 14:40:11.917189,-103
2021-10-14 14:40:11.917195,-88
2021-10-14 14:40:11.917201,-61
2021-10-14 14:40:11.917208,-66
2021-10-14 14:40:11.917214,-78
2021-10-14 14:40:11.917221,-80
2021-10-14 14:40:11.917227,-76
2021-10-14 14:40:11.917233,-7
2021-10-14 14:40:11.917240,201
2021-10-14 14:40:11.917246,547
2021-10-14 14:40:11.917252,807
2021-10-14 14:40:11.917258,532
2021-10-14 14:40:11.917265,-235
2021-10-14 14:40:11.917272,-490
2021-10-14 14:40:11.917278,-34
2021-10-14 14:40:11.917285,110
2021-10-14 14:40:11.917292,-66
2021-10-14 14:40:11.917298,-4
2021-10-14 14:40:12.141618,68
2021-10-14 14:40:12.141640,17
2021-10-14 14:40:12.141649,36
2021-10-14 14:40:12.141658,88
2021-10-14 14:40:12.141667,76
2021-10-14 14:40:12.141675,66
2021-10-14 14:40:12.141683,80
2021-10-14 14:40:12.141692,83
2021-10-14 14:40:12.141700,105
2021-10-14 14:40:12.141709,147
2021-10-14 14:40:12.141717,169
2021-10-14 14:40:12.141725,179
2021-10-14 14:40:12.141734,218
2021-10-14 14:40:12.141742,267
2021-10-14 14:40:12.141750,287
2021-10-14 14:40:12.141759,296
2021-10-14 14:40:12.141767,326
2021-10-14 14:40:12.141775,348
2021-10-14 14:40:12.141784,343
2021-10-14 14:40:12.141792,326
2021-10-14 14:40:12.141800,299
2021-10-14 14:40:12.141809,257
2021-10-14 14:40:12.141817,186
2021-10-14 14:40:12.141826,83
2021-10-14 14:40:12.141834,-22
2021-10-14 14:40:12.141842,-88
2021-10-14 14:40:12.141851,-130
2021-10-14 14:40:12.141859,-176
2021-10-14 14:40:12.141867,-223
2021-10-14 14:40:12.141876,-233
2021-10-14 14:40:12.366665,-211
2021-10-14 14:40:12.366687,-196
2021-10-14 14:40:12.366696,-201
2021-10-14 14:40:12.366705,-213
2021-10-14 14:40:12.366713,-208
2021-10-14 14:40:12.366721,-193
2021-10-14 14:40:12.366730,-174
2021-10-14 14:40:12.366738,-169
2021-10-14 14:40:12.366746,-169
2021-10-14 14:40:12.366755,-164
2021-10-14 14:40:12.366763,-159
2021-10-14 14:40:12.366771,-152
2021-10-14 14:40:12.366780,-139
2021-10-14 14:40:12.366788,-127
2021-10-14 14:40:12.366797,-117
2021-10-14 14:40:12.366805,-107
2021-10-14 14:40:12.366814,-105
2021-10-14 14:40:12.366822,-107
2021-10-14 14:40:12.366830,-100
2021-10-14 14:40:12.366838,-90
2021-10-14 14:40:12.366847,-85
2021-10-14 14:40:12.366855,-93
2021-10-14 14:40:12.366863,-100
2021-10-14 14:40:12.366872,-93
2021-10-14 14:40:12.366880,-83
2021-10-14 14:40:12.366889,-85
2021-10-14 14:40:12.366897,-90
2021-10-14 14:40:12.366905,-78
2021-10-14 14:40:12.366913,-36
2021-10-14 14:40:12.366922,-4
2021-10-14 14:40:12.636979,-9
2021-10-14 14:40:12.637001,-17
2021-10-14 14:40:12.637011,-24
2021-10-14 14:40:12.637019,-49
2021-10-14 14:40:12.637028,-73
2021-10-14 14:40:12.637036,-58
2021-10-14 14:40:12.637045,-36
2021-10-14 14:40:12.637053,-34
2021-10-14 14:40:12.637061,-41
2021-10-14 14:40:12.637070,-56
2021-10-14 14:40:12.637078,-61
2021-10-14 14:40:12.637086,-66
2021-10-14 14:40:12.637095,-49
2021-10-14 14:40:12.637103,88
2021-10-14 14:40:12.637112,404
2021-10-14 14:40:12.637120,770
2021-10-14 14:40:12.637128,775
2021-10-14 14:40:12.637137,100
2021-10-14 14:40:12.637145,-495
2021-10-14 14:40:12.637154,-213
2021-10-14 14:40:12.637163,122
2021-10-14 14:40:12.637171,-36
2021-10-14 14:40:12.637181,-76
2021-10-14 14:40:12.637190,44
2021-10-14 14:40:12.637198,29
2021-10-14 14:40:12.637207,9
2021-10-14 14:40:12.637215,56
2021-10-14 14:40:12.637223,66
2021-10-14 14:40:12.637232,63
2021-10-14 14:40:12.637240,93
2021-10-14 14:40:12.906715,122
2021-10-14 14:40:12.906737,144
2021-10-14 14:40:12.906749,171
2021-10-14 14:40:12.906758,193
2021-10-14 14:40:12.906767,213
2021-10-14 14:40:12.906775,252
2021-10-14 14:40:12.906784,291
2021-10-14 14:40:12.906792,314
2021-10-14 14:40:12.906801,331
2021-10-14 14:40:12.906809,345
2021-10-14 14:40:12.906817,350
2021-10-14 14:40:12.906826,348
2021-10-14 14:40:12.906834,321
2021-10-14 14:40:12.906843,277
2021-10-14 14:40:12.906851,223
2021-10-14 14:40:12.906860,139
2021-10-14 14:40:12.906868,41
2021-10-14 14:40:12.906876,-44
2021-10-14 14:40:12.906884,-134
2021-10-14 14:40:12.906893,-218
2021-10-14 14:40:12.906901,-262
2021-10-14 14:40:12.906909,-287
2021-10-14 14:40:12.906918,-301
2021-10-14 14:40:12.906926,-306
2021-10-14 14:40:12.906935,-306
2021-10-14 14:40:12.906943,-306
2021-10-14 14:40:12.906951,-294
2021-10-14 14:40:12.906960,-274
2021-10-14 14:40:12.906968,-264
2021-10-14 14:40:12.906976,-255
2021-10-14 14:40:13.130692,-240
2021-10-14 14:40:13.130714,-230
2021-10-14 14:40:13.130724,-228
2021-10-14 14:40:13.130733,-220
2021-10-14 14:40:13.130741,-201
2021-10-14 14:40:13.130749,-186
2021-10-14 14:40:13.130758,-186
2021-10-14 14:40:13.130766,-186
2021-10-14 14:40:13.130774,-188
2021-10-14 14:40:13.130783,-188
2021-10-14 14:40:13.130791,-176
2021-10-14 14:40:13.130799,-161
2021-10-14 14:40:13.130808,-149
2021-10-14 14:40:13.130816,-147
2021-10-14 14:40:13.130825,-152
2021-10-14 14:40:13.130833,-154
2021-10-14 14:40:13.130841,-152
2021-10-14 14:40:13.130849,-147
2021-10-14 14:40:13.130857,-149
2021-10-14 14:40:13.130866,-164
2021-10-14 14:40:13.130874,-174
2021-10-14 14:40:13.130882,-161
2021-10-14 14:40:13.130891,-147
2021-10-14 14:40:13.130899,-139
2021-10-14 14:40:13.130907,-139
2021-10-14 14:40:13.130915,-137
2021-10-14 14:40:13.130924,-120
2021-10-14 14:40:13.130932,-80
2021-10-14 14:40:13.130940,-51
2021-10-14 14:40:13.130949,-44
2021-10-14 14:40:13.312075,-49
2021-10-14 14:40:13.312097,-66
2021-10-14 14:40:13.312106,-85
2021-10-14 14:40:13.312115,-80
2021-10-14 14:40:13.312123,-66
2021-10-14 14:40:13.312131,-58
2021-10-14 14:40:13.312140,-66
2021-10-14 14:40:13.312148,-76
2021-10-14 14:40:13.312156,-68
2021-10-14 14:40:13.312165,-58
2021-10-14 14:40:13.312173,-51
2021-10-14 14:40:13.312182,12
2021-10-14 14:40:13.312190,235
2021-10-14 14:40:13.312198,618
2021-10-14 14:40:13.312207,871
2021-10-14 14:40:13.312215,517
2021-10-14 14:40:13.312223,-257
2021-10-14 14:40:13.312231,-426
2021-10-14 14:40:13.312240,2
2021-10-14 14:40:13.312248,71
2021-10-14 14:40:13.312256,-90
2021-10-14 14:40:13.312264,-26
2021-10-14 14:40:13.312273,31
2021-10-14 14:40:13.312281,-4
2021-10-14 14:40:13.312289,12
2021-10-14 14:40:13.312297,44
2021-10-14 14:40:13.312306,51
2021-10-14 14:40:13.312314,68
2021-10-14 14:40:13.312322,88
2021-10-14 14:40:13.312331,100
2021-10-14 14:40:13.536669,120
2021-10-14 14:40:13.536691,154
2021-10-14 14:40:13.536701,186
2021-10-14 14:40:13.536709,203
2021-10-14 14:40:13.536718,225
2021-10-14 14:40:13.536726,274
2021-10-14 14:40:13.536735,314
2021-10-14 14:40:13.536743,323
2021-10-14 14:40:13.536752,333
2021-10-14 14:40:13.536760,345
2021-10-14 14:40:13.536768,345
2021-10-14 14:40:13.536777,348
2021-10-14 14:40:13.536785,331
2021-10-14 14:40:13.536794,269
2021-10-14 14:40:13.536803,186
2021-10-14 14:40:13.536811,110
2021-10-14 14:40:13.536819,34
2021-10-14 14:40:13.536828,-36
2021-10-14 14:40:13.536836,-103
2021-10-14 14:40:13.536844,-166
2021-10-14 14:40:13.536853,-201
2021-10-14 14:40:13.536861,-203
2021-10-14 14:40:13.536869,-206
2021-10-14 14:40:13.536878,-213
2021-10-14 14:40:13.536886,-218
2021-10-14 14:40:13.536895,-218
2021-10-14 14:40:13.536903,-208
2021-10-14 14:40:13.536911,-198
2021-10-14 14:40:13.536920,-193
2021-10-14 14:40:13.536928,-188
2021-10-14 14:40:13.762102,-181
2021-10-14 14:40:13.762124,-164
2021-10-14 14:40:13.762134,-154
2021-10-14 14:40:13.762142,-154
2021-10-14 14:40:13.762151,-149
2021-10-14 14:40:13.762159,-147
2021-10-14 14:40:13.762168,-161
2021-10-14 14:40:13.762176,-164
2021-10-14 14:40:13.762184,-147
2021-10-14 14:40:13.762194,-142
2021-10-14 14:40:13.762204,-142
2021-10-14 14:40:13.762212,-142
2021-10-14 14:40:13.762221,-149
2021-10-14 14:40:13.762229,-152
2021-10-14 14:40:13.762237,-144
2021-10-14 14:40:13.762246,-144
2021-10-14 14:40:13.762254,-142
2021-10-14 14:40:13.762262,-134
2021-10-14 14:40:13.762271,-130
2021-10-14 14:40:13.762279,-127
2021-10-14 14:40:13.762288,-132
2021-10-14 14:40:13.762296,-134
2021-10-14 14:40:13.762304,-132
2021-10-14 14:40:13.762313,-127
2021-10-14 14:40:13.762321,-127
2021-10-14 14:40:13.762330,-125
2021-10-14 14:40:13.762338,-117
2021-10-14 14:40:13.762346,-125
2021-10-14 14:40:13.762355,-137
2021-10-14 14:40:13.762363,-134
2021-10-14 14:40:13.987055,-110
2021-10-14 14:40:13.987078,-73
2021-10-14 14:40:13.987087,-56
2021-10-14 14:40:13.987096,-61
2021-10-14 14:40:13.987104,-71
2021-10-14 14:40:13.987117,-85
2021-10-14 14:40:13.987125,-105
2021-10-14 14:40:13.987134,-110
2021-10-14 14:40:13.987142,-107
2021-10-14 14:40:13.987150,-110
2021-10-14 14:40:13.987159,-115
2021-10-14 14:40:13.987167,-122
2021-10-14 14:40:13.987176,-122
2021-10-14 14:40:13.987184,-125
2021-10-14 14:40:13.987192,-122
2021-10-14 14:40:13.987201,-66
2021-10-14 14:40:13.987209,142
2021-10-14 14:40:13.987218,512
2021-10-14 14:40:13.987226,785
2021-10-14 14:40:13.987234,485
2021-10-14 14:40:13.987242,-316
2021-10-14 14:40:13.987251,-561
2021-10-14 14:40:13.987259,-98
2021-10-14 14:40:13.987267,14
2021-10-14 14:40:13.987275,-179
2021-10-14 14:40:13.987284,-110
2021-10-14 14:40:13.987292,-49
2021-10-14 14:40:13.987300,-127
2021-10-14 14:40:13.987309,-120
2021-10-14 14:40:13.987317,-68
2021-10-14 14:40:14.211655,-76
2021-10-14 14:40:14.211677,-83
2021-10-14 14:40:14.211687,-53
2021-10-14 14:40:14.211695,-29
2021-10-14 14:40:14.211704,-22
2021-10-14 14:40:14.211713,-4
2021-10-14 14:40:14.211721,26
2021-10-14 14:40:14.211730,61
2021-10-14 14:40:14.211738,88
2021-10-14 14:40:14.211746,117
2021-10-14 14:40:14.211755,144
2021-10-14 14:40:14.211763,166
2021-10-14 14:40:14.211772,186
2021-10-14 14:40:14.211780,193
2021-10-14 14:40:14.211789,196
2021-10-14 14:40:14.211797,188
2021-10-14 14:40:14.211805,164
2021-10-14 14:40:14.211814,120
2021-10-14 14:40:14.211822,56
2021-10-14 14:40:14.211831,-24
2021-10-14 14:40:14.211839,-117
2021-10-14 14:40:14.211848,-211
2021-10-14 14:40:14.211856,-289
2021-10-14 14:40:14.211864,-345
2021-10-14 14:40:14.211873,-385
2021-10-14 14:40:14.211881,-407
2021-10-14 14:40:14.211889,-412
2021-10-14 14:40:14.211898,-414
2021-10-14 14:40:14.211906,-417
2021-10-14 14:40:14.211914,-404
2021-10-14 14:40:14.437045,-392
2021-10-14 14:40:14.437067,-380
2021-10-14 14:40:14.437077,-375
2021-10-14 14:40:14.437085,-382
2021-10-14 14:40:14.437094,-380
2021-10-14 14:40:14.437102,-358
2021-10-14 14:40:14.437111,-341
2021-10-14 14:40:14.437119,-338
2021-10-14 14:40:14.437128,-331
2021-10-14 14:40:14.437136,-331
2021-10-14 14:40:14.437144,-331
2021-10-14 14:40:14.437153,-326
2021-10-14 14:40:14.437161,-326
2021-10-14 14:40:14.437169,-323
2021-10-14 14:40:14.437178,-311
2021-10-14 14:40:14.437186,-309
2021-10-14 14:40:14.437195,-306
2021-10-14 14:40:14.437203,-301
2021-10-14 14:40:14.437212,-299
2021-10-14 14:40:14.437220,-291
2021-10-14 14:40:14.437228,-277
2021-10-14 14:40:14.437237,-282
2021-10-14 14:40:14.437245,-284
2021-10-14 14:40:14.437254,-269
2021-10-14 14:40:14.437262,-260
2021-10-14 14:40:14.437271,-260
2021-10-14 14:40:14.437279,-264
2021-10-14 14:40:14.437287,-267
2021-10-14 14:40:14.437296,-257
2021-10-14 14:40:14.437304,-240
2021-10-14 14:40:14.706981,-233
2021-10-14 14:40:14.707001,-225
2021-10-14 14:40:14.707011,-238
2021-10-14 14:40:14.707021,-260
2021-10-14 14:40:14.707029,-242
2021-10-14 14:40:14.707038,-198
2021-10-14 14:40:14.707046,-181
2021-10-14 14:40:14.707055,-181
2021-10-14 14:40:14.707063,-179
2021-10-14 14:40:14.707072,-188
2021-10-14 14:40:14.707080,-201
2021-10-14 14:40:14.707089,-201
2021-10-14 14:40:14.707097,-193
2021-10-14 14:40:14.707106,-176
2021-10-14 14:40:14.707114,-166
2021-10-14 14:40:14.707123,-174
2021-10-14 14:40:14.707131,-171
2021-10-14 14:40:14.707140,-157
2021-10-14 14:40:14.707148,-149
2021-10-14 14:40:14.707157,-120
2021-10-14 14:40:14.707165,29
2021-10-14 14:40:14.707174,365
2021-10-14 14:40:14.707182,748
2021-10-14 14:40:14.707191,718
2021-10-14 14:40:14.707199,7
2021-10-14 14:40:14.707208,-529
2021-10-14 14:40:14.707216,-203
2021-10-14 14:40:14.707225,78
2021-10-14 14:40:14.707233,-100
2021-10-14 14:40:14.707242,-117
2021-10-14 14:40:14.931668,-14
2021-10-14 14:40:14.931691,-46
2021-10-14 14:40:14.931700,-49
2021-10-14 14:40:14.931709,4
2021-10-14 14:40:14.931718,14
2021-10-14 14:40:14.931726,22
2021-10-14 14:40:14.931735,58
2021-10-14 14:40:14.931743,83
2021-10-14 14:40:14.931752,93
2021-10-14 14:40:14.931760,115
2021-10-14 14:40:14.931769,152
2021-10-14 14:40:14.931777,184
2021-10-14 14:40:14.931786,215
2021-10-14 14:40:14.931794,247
2021-10-14 14:40:14.931803,277
2021-10-14 14:40:14.931811,306
2021-10-14 14:40:14.931819,338
2021-10-14 14:40:14.931828,358
2021-10-14 14:40:14.931836,363
2021-10-14 14:40:14.931844,353
2021-10-14 14:40:14.931852,336
2021-10-14 14:40:14.931861,301
2021-10-14 14:40:14.931869,247
2021-10-14 14:40:14.931877,171
2021-10-14 14:40:14.931885,83
2021-10-14 14:40:14.931894,-9
2021-10-14 14:40:14.931902,-85
2021-10-14 14:40:14.931910,-132
2021-10-14 14:40:14.931919,-152
2021-10-14 14:40:14.931927,-159
2021-10-14 14:40:15.201338,-166
2021-10-14 14:40:15.201359,-179
2021-10-14 14:40:15.201369,-176
2021-10-14 14:40:15.201378,-157
2021-10-14 14:40:15.201386,-142
2021-10-14 14:40:15.201395,-130
2021-10-14 14:40:15.201403,-122
2021-10-14 14:40:15.201412,-122
2021-10-14 14:40:15.201420,-117
2021-10-14 14:40:15.201428,-98
2021-10-14 14:40:15.201437,-80
2021-10-14 14:40:15.201445,-83
2021-10-14 14:40:15.201454,-93
2021-10-14 14:40:15.201462,-88
2021-10-14 14:40:15.201470,-76
2021-10-14 14:40:15.201479,-71
2021-10-14 14:40:15.201487,-66
2021-10-14 14:40:15.201496,-56
2021-10-14 14:40:15.201504,-46
2021-10-14 14:40:15.201512,-46
2021-10-14 14:40:15.201521,-46
2021-10-14 14:40:15.201529,-41
2021-10-14 14:40:15.201538,-31
2021-10-14 14:40:15.201546,-24
2021-10-14 14:40:15.201554,-22
2021-10-14 14:40:15.201563,-14
2021-10-14 14:40:15.201571,-7
2021-10-14 14:40:15.201579,-7
2021-10-14 14:40:15.201588,0
2021-10-14 14:40:15.201596,9
2021-10-14 14:40:15.382065,14
2021-10-14 14:40:15.382088,17
2021-10-14 14:40:15.382097,17
2021-10-14 14:40:15.382106,7
2021-10-14 14:40:15.382114,4
2021-10-14 14:40:15.382123,19
2021-10-14 14:40:15.382131,26
2021-10-14 14:40:15.382140,19
2021-10-14 14:40:15.382148,19
2021-10-14 14:40:15.382156,29
2021-10-14 14:40:15.382165,34
2021-10-14 14:40:15.382173,36
2021-10-14 14:40:15.382182,31
2021-10-14 14:40:15.382190,14
2021-10-14 14:40:15.382198,14
2021-10-14 14:40:15.382207,44
2021-10-14 14:40:15.382215,80
2021-10-14 14:40:15.382224,103
2021-10-14 14:40:15.382232,98
2021-10-14 14:40:15.382240,83
2021-10-14 14:40:15.382249,76
2021-10-14 14:40:15.382257,63
2021-10-14 14:40:15.382266,53
2021-10-14 14:40:15.382274,61
2021-10-14 14:40:15.382282,68
2021-10-14 14:40:15.382291,68
2021-10-14 14:40:15.382299,66
2021-10-14 14:40:15.382308,66
2021-10-14 14:40:15.382316,63
2021-10-14 14:40:15.382324,71
2021-10-14 14:40:15.651794,147
2021-10-14 14:40:15.651812,385
2021-10-14 14:40:15.651822,765
2021-10-14 14:40:15.651830,1008
2021-10-14 14:40:15.651839,642
2021-10-14 14:40:15.651847,-137
2021-10-14 14:40:15.651856,-289
2021-10-14 14:40:15.651865,117
2021-10-14 14:40:15.651873,147
2021-10-14 14:40:15.651881,-7
2021-10-14 14:40:15.651890,68
2021-10-14 14:40:15.651898,103
2021-10-14 14:40:15.651907,39
2021-10-14 14:40:15.651915,53
2021-10-14 14:40:15.651924,88
2021-10-14 14:40:15.651932,78
2021-10-14 14:40:15.651940,98
2021-10-14 14:40:15.651949,122
2021-10-14 14:40:15.651957,117
2021-10-14 14:40:15.651966,132
2021-10-14 14:40:15.651974,164
2021-10-14 14:40:15.651982,188
2021-10-14 14:40:15.651991,218
2021-10-14 14:40:15.651999,252
2021-10-14 14:40:15.652007,279
2021-10-14 14:40:15.652016,306
2021-10-14 14:40:15.652024,336
2021-10-14 14:40:15.652033,353
2021-10-14 14:40:15.652041,370
2021-10-14 14:40:15.652049,377
2021-10-14 14:40:15.832127,375
2021-10-14 14:40:15.832149,360
2021-10-14 14:40:15.832158,318
2021-10-14 14:40:15.832167,252
2021-10-14 14:40:15.832175,176
2021-10-14 14:40:15.832184,88
2021-10-14 14:40:15.832192,2
2021-10-14 14:40:15.832201,-63
2021-10-14 14:40:15.832209,-115
2021-10-14 14:40:15.832217,-147
2021-10-14 14:40:15.832226,-159
2021-10-14 14:40:15.832234,-174
2021-10-14 14:40:15.832243,-179
2021-10-14 14:40:15.832251,-159
2021-10-14 14:40:15.832260,-147
2021-10-14 14:40:15.832268,-149
2021-10-14 14:40:15.832276,-147
2021-10-14 14:40:15.832285,-142
2021-10-14 14:40:15.832293,-130
2021-10-14 14:40:15.832302,-112
2021-10-14 14:40:15.832310,-107
2021-10-14 14:40:15.832318,-100
2021-10-14 14:40:15.832326,-85
2021-10-14 14:40:15.832335,-83
2021-10-14 14:40:15.832343,-85
2021-10-14 14:40:15.832351,-76
2021-10-14 14:40:15.832359,-71
2021-10-14 14:40:15.832368,-76
2021-10-14 14:40:15.832376,-71
2021-10-14 14:40:15.832384,-71
2021-10-14 14:40:16.056718,-68
2021-10-14 14:40:16.056740,-66
2021-10-14 14:40:16.056750,-63
2021-10-14 14:40:16.056759,-68
2021-10-14 14:40:16.056767,-73
2021-10-14 14:40:16.056776,-76
2021-10-14 14:40:16.056784,-66
2021-10-14 14:40:16.056793,-58
2021-10-14 14:40:16.056801,-61
2021-10-14 14:40:16.056810,-68
2021-10-14 14:40:16.056818,-78
2021-10-14 14:40:16.056826,-80
2021-10-14 14:40:16.056835,-73
2021-10-14 14:40:16.056843,-63
2021-10-14 14:40:16.056852,-58
2021-10-14 14:40:16.056860,-66
2021-10-14 14:40:16.056868,-68
2021-10-14 14:40:16.056877,-56
2021-10-14 14:40:16.056885,-49
2021-10-14 14:40:16.056894,-51
2021-10-14 14:40:16.056902,-51
2021-10-14 14:40:16.056910,-44
2021-10-14 14:40:16.056919,-41
2021-10-14 14:40:16.056927,-51
2021-10-14 14:40:16.056935,-56
2021-10-14 14:40:16.056944,-44
2021-10-14 14:40:16.056952,-34
2021-10-14 14:40:16.056960,-36
2021-10-14 14:40:16.056968,-51
2021-10-14 14:40:16.056977,-61
2021-10-14 14:40:16.282056,-39
2021-10-14 14:40:16.282076,-2
2021-10-14 14:40:16.282086,14
2021-10-14 14:40:16.282095,9
2021-10-14 14:40:16.282104,-7
2021-10-14 14:40:16.282112,-19
2021-10-14 14:40:16.282120,-36
2021-10-14 14:40:16.282129,-53
2021-10-14 14:40:16.282137,-63
2021-10-14 14:40:16.282145,-68
2021-10-14 14:40:16.282154,-71
2021-10-14 14:40:16.282162,-66
2021-10-14 14:40:16.282171,-66
2021-10-14 14:40:16.282179,-76
2021-10-14 14:40:16.282188,-71
2021-10-14 14:40:16.282196,14
2021-10-14 14:40:16.282204,277
2021-10-14 14:40:16.282213,660
2021-10-14 14:40:16.282221,863
2021-10-14 14:40:16.282229,439
2021-10-14 14:40:16.282238,-316
2021-10-14 14:40:16.282246,-372
2021-10-14 14:40:16.282255,46
2021-10-14 14:40:16.282263,39
2021-10-14 14:40:16.282271,-95
2021-10-14 14:40:16.282280,0
2021-10-14 14:40:16.282288,24
2021-10-14 14:40:16.282296,-29
2021-10-14 14:40:16.282305,4
2021-10-14 14:40:16.282313,49
2021-10-14 14:40:16.552083,49
2021-10-14 14:40:16.552105,63
2021-10-14 14:40:16.552115,83
2021-10-14 14:40:16.552124,83
2021-10-14 14:40:16.552132,98
2021-10-14 14:40:16.552141,132
2021-10-14 14:40:16.552150,161
2021-10-14 14:40:16.552158,191
2021-10-14 14:40:16.552167,225
2021-10-14 14:40:16.552175,245
2021-10-14 14:40:16.552218,274
2021-10-14 14:40:16.552232,314
2021-10-14 14:40:16.552241,333
2021-10-14 14:40:16.552250,333
2021-10-14 14:40:16.552259,328
2021-10-14 14:40:16.552268,323
2021-10-14 14:40:16.552276,318
2021-10-14 14:40:16.552285,294
2021-10-14 14:40:16.552294,230
2021-10-14 14:40:16.552303,144
2021-10-14 14:40:16.552311,66
2021-10-14 14:40:16.552320,-12
2021-10-14 14:40:16.552328,-83
2021-10-14 14:40:16.552337,-134
2021-10-14 14:40:16.552346,-159
2021-10-14 14:40:16.552354,-171
2021-10-14 14:40:16.552363,-186
2021-10-14 14:40:16.552371,-193
2021-10-14 14:40:16.552380,-193
2021-10-14 14:40:16.552388,-196
2021-10-14 14:40:16.821092,-193
2021-10-14 14:40:16.821115,-179
2021-10-14 14:40:16.821124,-169
2021-10-14 14:40:16.821133,-164
2021-10-14 14:40:16.821142,-152
2021-10-14 14:40:16.821151,-139
2021-10-14 14:40:16.821159,-130
2021-10-14 14:40:16.821168,-127
2021-10-14 14:40:16.821176,-137
2021-10-14 14:40:16.821185,-134
2021-10-14 14:40:16.821193,-117
2021-10-14 14:40:16.821202,-110
2021-10-14 14:40:16.821210,-120
2021-10-14 14:40:16.821219,-112
2021-10-14 14:40:16.821227,-107
2021-10-14 14:40:16.821236,-122
2021-10-14 14:40:16.821244,-132
2021-10-14 14:40:16.821252,-122
2021-10-14 14:40:16.821261,-112
2021-10-14 14:40:16.821269,-115
2021-10-14 14:40:16.821278,-112
2021-10-14 14:40:16.821286,-112
2021-10-14 14:40:16.821294,-107
2021-10-14 14:40:16.821303,-98
2021-10-14 14:40:16.821311,-98
2021-10-14 14:40:16.821320,-98
2021-10-14 14:40:16.821328,-95
2021-10-14 14:40:16.821336,-90
2021-10-14 14:40:16.821345,-83
2021-10-14 14:40:16.821353,-85
2021-10-14 14:40:17.002161,-90
2021-10-14 14:40:17.002184,-83
2021-10-14 14:40:17.002194,-73
2021-10-14 14:40:17.002202,-83
2021-10-14 14:40:17.002211,-88
2021-10-14 14:40:17.002220,-80
2021-10-14 14:40:17.002228,-85
2021-10-14 14:40:17.002236,-112
2021-10-14 14:40:17.002245,-105
2021-10-14 14:40:17.002253,-58
2021-10-14 14:40:17.002262,-31
2021-10-14 14:40:17.002270,-34
2021-10-14 14:40:17.002279,-36
2021-10-14 14:40:17.002287,-39
2021-10-14 14:40:17.002296,-61
2021-10-14 14:40:17.002304,-78
2021-10-14 14:40:17.002313,-78
2021-10-14 14:40:17.002321,-71
2021-10-14 14:40:17.002330,-71
2021-10-14 14:40:17.002339,-73
2021-10-14 14:40:17.002347,-63
2021-10-14 14:40:17.002355,-58
2021-10-14 14:40:17.002363,-56
2021-10-14 14:40:17.002372,7
2021-10-14 14:40:17.002380,225
2021-10-14 14:40:17.002389,579
2021-10-14 14:40:17.002397,836
2021-10-14 14:40:17.002406,552
2021-10-14 14:40:17.002414,-218
2021-10-14 14:40:17.002423,-453
2021-10-14 14:40:17.270374,-7
2021-10-14 14:40:17.270394,117
2021-10-14 14:40:17.270404,-58
2021-10-14 14:40:17.270412,-12
2021-10-14 14:40:17.270421,36
2021-10-14 14:40:17.270429,-17
2021-10-14 14:40:17.270437,-2
2021-10-14 14:40:17.270446,41
2021-10-14 14:40:17.270505,31
2021-10-14 14:40:17.270514,34
2021-10-14 14:40:17.270523,73
2021-10-14 14:40:17.270531,105
2021-10-14 14:40:17.270539,110
2021-10-14 14:40:17.270548,127
2021-10-14 14:40:17.270556,171
2021-10-14 14:40:17.270564,206
2021-10-14 14:40:17.270573,233
2021-10-14 14:40:17.270581,269
2021-10-14 14:40:17.270590,301
2021-10-14 14:40:17.270598,326
2021-10-14 14:40:17.270606,345
2021-10-14 14:40:17.270615,358
2021-10-14 14:40:17.270623,370
2021-10-14 14:40:17.270631,363
2021-10-14 14:40:17.270639,341
2021-10-14 14:40:17.270647,309
2021-10-14 14:40:17.270656,247
2021-10-14 14:40:17.270664,159
2021-10-14 14:40:17.270672,66
2021-10-14 14:40:17.270680,-17
2021-10-14 14:40:17.451720,-93
2021-10-14 14:40:17.451742,-142
2021-10-14 14:40:17.451751,-164
2021-10-14 14:40:17.451760,-181
2021-10-14 14:40:17.451768,-196
2021-10-14 14:40:17.451777,-198
2021-10-14 14:40:17.451785,-198
2021-10-14 14:40:17.451794,-193
2021-10-14 14:40:17.451802,-174
2021-10-14 14:40:17.451811,-159
2021-10-14 14:40:17.451819,-159
2021-10-14 14:40:17.451827,-169
2021-10-14 14:40:17.451836,-166
2021-10-14 14:40:17.451844,-147
2021-10-14 14:40:17.451852,-132
2021-10-14 14:40:17.451861,-130
2021-10-14 14:40:17.451869,-120
2021-10-14 14:40:17.451877,-107
2021-10-14 14:40:17.451885,-105
2021-10-14 14:40:17.451894,-105
2021-10-14 14:40:17.451902,-95
2021-10-14 14:40:17.451910,-93
2021-10-14 14:40:17.451919,-105
2021-10-14 14:40:17.451927,-107
2021-10-14 14:40:17.451935,-105
2021-10-14 14:40:17.451943,-105
2021-10-14 14:40:17.451951,-98
2021-10-14 14:40:17.451960,-88
2021-10-14 14:40:17.451968,-90
2021-10-14 14:40:17.451976,-93
2021-10-14 14:40:17.676984,-88
2021-10-14 14:40:17.677006,-80
2021-10-14 14:40:17.677016,-76
2021-10-14 14:40:17.677025,-78
2021-10-14 14:40:17.677033,-88
2021-10-14 14:40:17.677042,-95
2021-10-14 14:40:17.677050,-98
2021-10-14 14:40:17.677059,-85
2021-10-14 14:40:17.677067,-76
2021-10-14 14:40:17.677076,-88
2021-10-14 14:40:17.677084,-120
2021-10-14 14:40:17.677093,-157
2021-10-14 14:40:17.677101,-142
2021-10-14 14:40:17.677110,-80
2021-10-14 14:40:17.677118,-49
2021-10-14 14:40:17.677126,-58
2021-10-14 14:40:17.677135,-66
2021-10-14 14:40:17.677143,-71
2021-10-14 14:40:17.677152,-85
2021-10-14 14:40:17.677160,-88
2021-10-14 14:40:17.677168,-73
2021-10-14 14:40:17.677177,-68
2021-10-14 14:40:17.677185,-71
2021-10-14 14:40:17.677194,-73
2021-10-14 14:40:17.677202,-80
2021-10-14 14:40:17.677210,-80
2021-10-14 14:40:17.677219,-63
2021-10-14 14:40:17.677227,-2
2021-10-14 14:40:17.677235,191
2021-10-14 14:40:17.677244,566
2021-10-14 14:40:17.901707,898
2021-10-14 14:40:17.901729,664
2021-10-14 14:40:17.901738,-125
2021-10-14 14:40:17.901747,-419
2021-10-14 14:40:17.901755,-12
2021-10-14 14:40:17.901764,85
2021-10-14 14:40:17.901772,-103
