Time,ECG
2021-10-14 15:25:02.306597,-164
2021-10-14 15:25:02.306616,-188
2021-10-14 15:25:02.306626,-198
2021-10-14 15:25:02.306635,-184
2021-10-14 15:25:02.306644,-186
2021-10-14 15:25:02.306653,-186
2021-10-14 15:25:02.306661,-171
2021-10-14 15:25:02.306670,-169
2021-10-14 15:25:02.306678,-171
2021-10-14 15:25:02.306687,-169
2021-10-14 15:25:02.306696,-174
2021-10-14 15:25:02.306704,-164
2021-10-14 15:25:02.306713,-152
2021-10-14 15:25:02.306721,-152
2021-10-14 15:25:02.306730,-137
2021-10-14 15:25:02.306738,-122
2021-10-14 15:25:02.306747,-142
2021-10-14 15:25:02.306756,-154
2021-10-14 15:25:02.306764,-125
2021-10-14 15:25:02.306773,-80
2021-10-14 15:25:02.306781,-53
2021-10-14 15:25:02.306790,-61
2021-10-14 15:25:02.306798,-78
2021-10-14 15:25:02.306807,-93
2021-10-14 15:25:02.306816,-112
2021-10-14 15:25:02.306824,-125
2021-10-14 15:25:02.306833,-117
2021-10-14 15:25:02.306841,-110
2021-10-14 15:25:02.306850,-110
2021-10-14 15:25:02.306858,-107
2021-10-14 15:25:02.306937,-100
2021-10-14 15:25:02.306948,-88
2021-10-14 15:25:02.306956,-76
2021-10-14 15:25:02.306965,-24
2021-10-14 15:25:02.306973,181
2021-10-14 15:25:02.306982,559
2021-10-14 15:25:02.306991,792
2021-10-14 15:25:02.307000,372
2021-10-14 15:25:02.307008,-456
2021-10-14 15:25:02.307017,-574
2021-10-14 15:25:02.307025,-26
2021-10-14 15:25:02.307033,80
2021-10-14 15:25:02.307042,-83
2021-10-14 15:25:02.307050,9
2021-10-14 15:25:02.307058,58
2021-10-14 15:25:02.307067,-4
2021-10-14 15:25:02.307075,26
2021-10-14 15:25:02.307084,73
2021-10-14 15:25:02.307093,71
2021-10-14 15:25:02.307101,90
2021-10-14 15:25:02.307110,127
2021-10-14 15:25:02.307118,137
2021-10-14 15:25:02.307126,154
2021-10-14 15:25:02.307135,191
2021-10-14 15:25:02.307143,220
2021-10-14 15:25:02.307151,242
2021-10-14 15:25:02.307160,279
2021-10-14 15:25:02.307168,318
2021-10-14 15:25:02.307177,355
2021-10-14 15:25:02.307187,392
2021-10-14 15:25:02.502793,419
2021-10-14 15:25:02.502814,446
2021-10-14 15:25:02.502824,473
2021-10-14 15:25:02.502832,471
2021-10-14 15:25:02.502841,444
2021-10-14 15:25:02.502850,417
2021-10-14 15:25:02.502858,365
2021-10-14 15:25:02.502866,255
2021-10-14 15:25:02.502875,127
2021-10-14 15:25:02.502883,22
2021-10-14 15:25:02.502892,-63
2021-10-14 15:25:02.502901,-134
2021-10-14 15:25:02.502909,-179
2021-10-14 15:25:02.502921,-196
2021-10-14 15:25:02.502929,-213
2021-10-14 15:25:02.502938,-223
2021-10-14 15:25:02.502946,-213
2021-10-14 15:25:02.502955,-196
2021-10-14 15:25:02.502963,-188
2021-10-14 15:25:02.502972,-181
2021-10-14 15:25:02.502980,-174
2021-10-14 15:25:02.502989,-159
2021-10-14 15:25:02.502997,-134
2021-10-14 15:25:02.503005,-120
2021-10-14 15:25:02.503014,-117
2021-10-14 15:25:02.503022,-110
2021-10-14 15:25:02.503030,-88
2021-10-14 15:25:02.503038,-76
2021-10-14 15:25:02.503047,-76
2021-10-14 15:25:02.503057,-76
2021-10-14 15:25:02.727445,-63
2021-10-14 15:25:02.727466,-61
2021-10-14 15:25:02.727476,-73
2021-10-14 15:25:02.727485,-66
2021-10-14 15:25:02.727494,-49
2021-10-14 15:25:02.727502,-46
2021-10-14 15:25:02.727511,-53
2021-10-14 15:25:02.727520,-46
2021-10-14 15:25:02.727528,-51
2021-10-14 15:25:02.727537,-61
2021-10-14 15:25:02.727546,-41
2021-10-14 15:25:02.727554,-34
2021-10-14 15:25:02.727562,-46
2021-10-14 15:25:02.727571,-49
2021-10-14 15:25:02.727579,-41
2021-10-14 15:25:02.727588,-41
2021-10-14 15:25:02.727596,-41
2021-10-14 15:25:02.727609,-34
2021-10-14 15:25:02.727617,-29
2021-10-14 15:25:02.727626,-44
2021-10-14 15:25:02.727635,-49
2021-10-14 15:25:02.727643,-14
2021-10-14 15:25:02.727652,22
2021-10-14 15:25:02.727660,46
2021-10-14 15:25:02.727669,46
2021-10-14 15:25:02.727677,31
2021-10-14 15:25:02.727686,29
2021-10-14 15:25:02.727695,9
2021-10-14 15:25:02.727703,-29
2021-10-14 15:25:02.727712,-26
2021-10-14 15:25:02.952447,-2
2021-10-14 15:25:02.952469,-17
2021-10-14 15:25:02.952479,-44
2021-10-14 15:25:02.952488,-26
2021-10-14 15:25:02.952497,-4
2021-10-14 15:25:02.952505,-12
2021-10-14 15:25:02.952514,44
2021-10-14 15:25:02.952527,289
2021-10-14 15:25:02.952535,684
2021-10-14 15:25:02.952544,885
2021-10-14 15:25:02.952553,429
2021-10-14 15:25:02.952562,-407
2021-10-14 15:25:02.952570,-529
2021-10-14 15:25:02.952579,-9
2021-10-14 15:25:02.952587,95
2021-10-14 15:25:02.952596,-66
2021-10-14 15:25:02.952604,12
2021-10-14 15:25:02.952613,63
2021-10-14 15:25:02.952621,14
2021-10-14 15:25:02.952630,49
2021-10-14 15:25:02.952638,98
2021-10-14 15:25:02.952647,80
2021-10-14 15:25:02.952655,78
2021-10-14 15:25:02.952663,115
2021-10-14 15:25:02.952672,139
2021-10-14 15:25:02.952680,161
2021-10-14 15:25:02.952689,193
2021-10-14 15:25:02.952697,220
2021-10-14 15:25:02.952705,245
2021-10-14 15:25:02.952715,277
2021-10-14 15:25:03.132825,306
2021-10-14 15:25:03.132846,331
2021-10-14 15:25:03.132856,377
2021-10-14 15:25:03.132865,419
2021-10-14 15:25:03.132873,436
2021-10-14 15:25:03.132882,441
2021-10-14 15:25:03.132890,441
2021-10-14 15:25:03.132899,434
2021-10-14 15:25:03.132907,412
2021-10-14 15:25:03.132916,353
2021-10-14 15:25:03.132924,277
2021-10-14 15:25:03.132933,181
2021-10-14 15:25:03.132941,71
2021-10-14 15:25:03.132950,-19
2021-10-14 15:25:03.132958,-90
2021-10-14 15:25:03.132966,-142
2021-10-14 15:25:03.132975,-166
2021-10-14 15:25:03.132983,-198
2021-10-14 15:25:03.132992,-220
2021-10-14 15:25:03.133000,-198
2021-10-14 15:25:03.133009,-174
2021-10-14 15:25:03.133017,-179
2021-10-14 15:25:03.133026,-176
2021-10-14 15:25:03.133034,-169
2021-10-14 15:25:03.133048,-157
2021-10-14 15:25:03.133056,-132
2021-10-14 15:25:03.133065,-122
2021-10-14 15:25:03.133073,-130
2021-10-14 15:25:03.133082,-115
2021-10-14 15:25:03.133090,-90
2021-10-14 15:25:03.357871,-93
2021-10-14 15:25:03.357891,-98
2021-10-14 15:25:03.357899,-90
2021-10-14 15:25:03.357907,-100
2021-10-14 15:25:03.357915,-103
2021-10-14 15:25:03.357922,-88
2021-10-14 15:25:03.357930,-90
2021-10-14 15:25:03.357938,-100
2021-10-14 15:25:03.357945,-95
2021-10-14 15:25:03.357953,-76
2021-10-14 15:25:03.357961,-80
2021-10-14 15:25:03.357968,-105
2021-10-14 15:25:03.357976,-107
2021-10-14 15:25:03.357984,-93
2021-10-14 15:25:03.357991,-93
2021-10-14 15:25:03.357999,-95
2021-10-14 15:25:03.358006,-95
2021-10-14 15:25:03.358014,-98
2021-10-14 15:25:03.358022,-98
2021-10-14 15:25:03.358029,-95
2021-10-14 15:25:03.358037,-105
2021-10-14 15:25:03.358045,-107
2021-10-14 15:25:03.358054,-90
2021-10-14 15:25:03.358062,-68
2021-10-14 15:25:03.358070,-41
2021-10-14 15:25:03.358077,-12
2021-10-14 15:25:03.358085,-7
2021-10-14 15:25:03.358093,-31
2021-10-14 15:25:03.358100,-58
2021-10-14 15:25:03.358108,-61
2021-10-14 15:25:03.582446,-56
2021-10-14 15:25:03.582468,-73
2021-10-14 15:25:03.582478,-83
2021-10-14 15:25:03.582486,-68
2021-10-14 15:25:03.582495,-71
2021-10-14 15:25:03.582503,-78
2021-10-14 15:25:03.582512,-58
2021-10-14 15:25:03.582520,-44
2021-10-14 15:25:03.582529,49
2021-10-14 15:25:03.582537,370
2021-10-14 15:25:03.582546,755
2021-10-14 15:25:03.582555,736
2021-10-14 15:25:03.582563,4
2021-10-14 15:25:03.582571,-682
2021-10-14 15:25:03.582580,-402
2021-10-14 15:25:03.582588,56
2021-10-14 15:25:03.582597,-49
2021-10-14 15:25:03.582605,-117
2021-10-14 15:25:03.582614,7
2021-10-14 15:25:03.582622,2
2021-10-14 15:25:03.582630,-29
2021-10-14 15:25:03.582639,9
2021-10-14 15:25:03.582647,31
2021-10-14 15:25:03.582656,34
2021-10-14 15:25:03.582668,58
2021-10-14 15:25:03.582676,95
2021-10-14 15:25:03.582684,112
2021-10-14 15:25:03.582693,127
2021-10-14 15:25:03.582701,147
2021-10-14 15:25:03.582710,174
2021-10-14 15:25:03.896548,218
2021-10-14 15:25:03.896570,262
2021-10-14 15:25:03.896580,279
2021-10-14 15:25:03.896588,304
2021-10-14 15:25:03.896597,348
2021-10-14 15:25:03.896605,382
2021-10-14 15:25:03.896614,392
2021-10-14 15:25:03.896623,390
2021-10-14 15:25:03.896631,380
2021-10-14 15:25:03.896640,363
2021-10-14 15:25:03.896648,333
2021-10-14 15:25:03.896656,274
2021-10-14 15:25:03.896665,176
2021-10-14 15:25:03.896673,58
2021-10-14 15:25:03.896682,-51
2021-10-14 15:25:03.896690,-139
2021-10-14 15:25:03.896699,-206
2021-10-14 15:25:03.896707,-245
2021-10-14 15:25:03.896715,-274
2021-10-14 15:25:03.896724,-311
2021-10-14 15:25:03.896732,-321
2021-10-14 15:25:03.896740,-291
2021-10-14 15:25:03.896749,-277
2021-10-14 15:25:03.896757,-277
2021-10-14 15:25:03.896765,-277
2021-10-14 15:25:03.896774,-284
2021-10-14 15:25:03.896782,-272
2021-10-14 15:25:03.896791,-269
2021-10-14 15:25:03.896799,-282
2021-10-14 15:25:03.896808,-267
2021-10-14 15:25:04.122028,-242
2021-10-14 15:25:04.122050,-228
2021-10-14 15:25:04.122059,-228
2021-10-14 15:25:04.122067,-245
2021-10-14 15:25:04.122074,-250
2021-10-14 15:25:04.122081,-238
2021-10-14 15:25:04.122087,-230
2021-10-14 15:25:04.122095,-230
2021-10-14 15:25:04.122103,-238
2021-10-14 15:25:04.122111,-238
2021-10-14 15:25:04.122118,-228
2021-10-14 15:25:04.122125,-211
2021-10-14 15:25:04.122132,-191
2021-10-14 15:25:04.122140,-191
2021-10-14 15:25:04.122148,-211
2021-10-14 15:25:04.122156,-215
2021-10-14 15:25:04.122164,-196
2021-10-14 15:25:04.122171,-188
2021-10-14 15:25:04.122178,-188
2021-10-14 15:25:04.122186,-179
2021-10-14 15:25:04.122194,-198
2021-10-14 15:25:04.122201,-238
2021-10-14 15:25:04.122210,-215
2021-10-14 15:25:04.122217,-147
2021-10-14 15:25:04.122225,-120
2021-10-14 15:25:04.122233,-115
2021-10-14 15:25:04.122241,-112
2021-10-14 15:25:04.122249,-139
2021-10-14 15:25:04.122257,-169
2021-10-14 15:25:04.122265,-157
2021-10-14 15:25:04.302817,-139
2021-10-14 15:25:04.302844,-142
2021-10-14 15:25:04.302854,-144
2021-10-14 15:25:04.302862,-137
2021-10-14 15:25:04.302871,-120
2021-10-14 15:25:04.302879,-120
2021-10-14 15:25:04.302888,-134
2021-10-14 15:25:04.302896,-98
2021-10-14 15:25:04.302905,63
2021-10-14 15:25:04.302914,397
2021-10-14 15:25:04.302927,738
2021-10-14 15:25:04.302936,625
2021-10-14 15:25:04.302944,-161
2021-10-14 15:25:04.302953,-706
2021-10-14 15:25:04.302961,-306
2021-10-14 15:25:04.302970,63
2021-10-14 15:25:04.302978,-83
2021-10-14 15:25:04.302987,-107
2021-10-14 15:25:04.302995,0
2021-10-14 15:25:04.303004,-29
2021-10-14 15:25:04.303012,-58
2021-10-14 15:25:04.303021,-9
2021-10-14 15:25:04.303029,14
2021-10-14 15:25:04.303038,12
2021-10-14 15:25:04.303046,34
2021-10-14 15:25:04.303054,61
2021-10-14 15:25:04.303063,83
2021-10-14 15:25:04.303071,107
2021-10-14 15:25:04.303080,130
2021-10-14 15:25:04.303088,166
2021-10-14 15:25:04.572811,203
2021-10-14 15:25:04.572832,220
2021-10-14 15:25:04.572841,250
2021-10-14 15:25:04.572850,301
2021-10-14 15:25:04.572859,350
2021-10-14 15:25:04.572867,372
2021-10-14 15:25:04.572876,390
2021-10-14 15:25:04.572884,407
2021-10-14 15:25:04.572893,377
2021-10-14 15:25:04.572901,341
2021-10-14 15:25:04.572909,318
2021-10-14 15:25:04.572918,250
2021-10-14 15:25:04.572926,132
2021-10-14 15:25:04.572935,17
2021-10-14 15:25:04.572943,-80
2021-10-14 15:25:04.572952,-157
2021-10-14 15:25:04.572960,-208
2021-10-14 15:25:04.572969,-238
2021-10-14 15:25:04.572977,-255
2021-10-14 15:25:04.572985,-262
2021-10-14 15:25:04.572994,-264
2021-10-14 15:25:04.573002,-264
2021-10-14 15:25:04.573010,-247
2021-10-14 15:25:04.573019,-228
2021-10-14 15:25:04.573027,-233
2021-10-14 15:25:04.573038,-225
2021-10-14 15:25:04.573047,-206
2021-10-14 15:25:04.573055,-191
2021-10-14 15:25:04.573064,-174
2021-10-14 15:25:04.573072,-159
2021-10-14 15:25:04.797449,-157
2021-10-14 15:25:04.797471,-154
2021-10-14 15:25:04.797480,-137
2021-10-14 15:25:04.797489,-127
2021-10-14 15:25:04.797498,-142
2021-10-14 15:25:04.797506,-139
2021-10-14 15:25:04.797515,-120
2021-10-14 15:25:04.797523,-120
2021-10-14 15:25:04.797532,-132
2021-10-14 15:25:04.797540,-132
2021-10-14 15:25:04.797549,-115
2021-10-14 15:25:04.797557,-98
2021-10-14 15:25:04.797566,-105
2021-10-14 15:25:04.797574,-120
2021-10-14 15:25:04.797583,-103
2021-10-14 15:25:04.797591,-83
2021-10-14 15:25:04.797600,-95
2021-10-14 15:25:04.797608,-105
2021-10-14 15:25:04.797616,-93
2021-10-14 15:25:04.797625,-90
2021-10-14 15:25:04.797633,-100
2021-10-14 15:25:04.797642,-76
2021-10-14 15:25:04.797650,-29
2021-10-14 15:25:04.797659,-14
2021-10-14 15:25:04.797668,-17
2021-10-14 15:25:04.797676,-26
2021-10-14 15:25:04.797685,-49
2021-10-14 15:25:04.797693,-73
2021-10-14 15:25:04.797701,-76
2021-10-14 15:25:04.797710,-63
2021-10-14 15:25:05.066851,-56
2021-10-14 15:25:05.066872,-56
2021-10-14 15:25:05.066881,-66
2021-10-14 15:25:05.066890,-63
2021-10-14 15:25:05.066899,-46
2021-10-14 15:25:05.066907,-39
2021-10-14 15:25:05.066916,26
2021-10-14 15:25:05.066925,284
2021-10-14 15:25:05.066933,682
2021-10-14 15:25:05.066942,851
2021-10-14 15:25:05.066950,316
2021-10-14 15:25:05.066958,-510
2021-10-14 15:25:05.066967,-498
2021-10-14 15:25:05.066975,56
2021-10-14 15:25:05.066984,83
2021-10-14 15:25:05.066992,-85
2021-10-14 15:25:05.067003,17
2021-10-14 15:25:05.067012,53
2021-10-14 15:25:05.067020,-4
2021-10-14 15:25:05.067029,44
2021-10-14 15:25:05.067037,85
2021-10-14 15:25:05.067045,56
2021-10-14 15:25:05.067054,73
2021-10-14 15:25:05.067062,117
2021-10-14 15:25:05.067071,132
2021-10-14 15:25:05.067079,144
2021-10-14 15:25:05.067087,169
2021-10-14 15:25:05.067096,193
2021-10-14 15:25:05.067104,223
2021-10-14 15:25:05.067112,255
2021-10-14 15:25:05.202823,277
2021-10-14 15:25:05.202843,311
2021-10-14 15:25:05.202853,360
2021-10-14 15:25:05.202861,392
2021-10-14 15:25:05.202870,402
2021-10-14 15:25:05.202878,412
2021-10-14 15:25:05.202887,412
2021-10-14 15:25:05.202895,390
2021-10-14 15:25:05.202904,355
2021-10-14 15:25:05.202912,296
2021-10-14 15:25:05.202921,201
2021-10-14 15:25:05.202929,76
2021-10-14 15:25:05.202938,-34
2021-10-14 15:25:05.202946,-105
2021-10-14 15:25:05.202955,-157
2021-10-14 15:25:05.202963,-208
2021-10-14 15:25:05.202972,-245
2021-10-14 15:25:05.202980,-252
2021-10-14 15:25:05.202988,-242
2021-10-14 15:25:05.202997,-233
2021-10-14 15:25:05.203005,-235
2021-10-14 15:25:05.203013,-238
2021-10-14 15:25:05.203022,-215
2021-10-14 15:25:05.203030,-196
2021-10-14 15:25:05.203038,-193
2021-10-14 15:25:05.203047,-184
2021-10-14 15:25:05.203055,-164
2021-10-14 15:25:05.203063,-147
2021-10-14 15:25:05.203072,-139
2021-10-14 15:25:05.203080,-144
2021-10-14 15:25:05.427453,-149
2021-10-14 15:25:05.427473,-147
2021-10-14 15:25:05.427482,-134
2021-10-14 15:25:05.427490,-117
2021-10-14 15:25:05.427497,-127
2021-10-14 15:25:05.427505,-142
2021-10-14 15:25:05.427512,-132
2021-10-14 15:25:05.427520,-127
2021-10-14 15:25:05.427528,-137
2021-10-14 15:25:05.427536,-132
2021-10-14 15:25:05.427545,-122
2021-10-14 15:25:05.427554,-132
2021-10-14 15:25:05.427563,-147
2021-10-14 15:25:05.427576,-139
2021-10-14 15:25:05.427583,-130
2021-10-14 15:25:05.427591,-120
2021-10-14 15:25:05.427598,-100
2021-10-14 15:25:05.427605,-90
2021-10-14 15:25:05.427613,-85
2021-10-14 15:25:05.427620,-80
2021-10-14 15:25:05.427628,-80
2021-10-14 15:25:05.427635,-68
2021-10-14 15:25:05.427642,-34
2021-10-14 15:25:05.427648,-4
2021-10-14 15:25:05.427655,-2
2021-10-14 15:25:05.427661,-4
2021-10-14 15:25:05.427669,-7
2021-10-14 15:25:05.427676,-24
2021-10-14 15:25:05.427684,-44
2021-10-14 15:25:05.427691,-41
2021-10-14 15:25:05.697861,-31
2021-10-14 15:25:05.697882,-29
2021-10-14 15:25:05.697889,-31
2021-10-14 15:25:05.697895,-39
2021-10-14 15:25:05.697902,-46
2021-10-14 15:25:05.697908,-41
2021-10-14 15:25:05.697914,2
2021-10-14 15:25:05.697920,157
2021-10-14 15:25:05.697926,488
2021-10-14 15:25:05.697932,853
2021-10-14 15:25:05.697938,772
2021-10-14 15:25:05.697944,-7
2021-10-14 15:25:05.697950,-581
2021-10-14 15:25:05.697956,-203
2021-10-14 15:25:05.697962,171
2021-10-14 15:25:05.697968,0
2021-10-14 15:25:05.697974,-44
2021-10-14 15:25:05.697980,83
2021-10-14 15:25:05.697986,78
2021-10-14 15:25:05.698006,61
2021-10-14 15:25:05.698026,105
2021-10-14 15:25:05.698033,112
2021-10-14 15:25:05.698040,103
2021-10-14 15:25:05.698047,132
2021-10-14 15:25:05.698055,169
2021-10-14 15:25:05.698093,184
2021-10-14 15:25:05.698102,203
2021-10-14 15:25:05.698109,225
2021-10-14 15:25:05.698117,242
2021-10-14 15:25:05.698124,269
2021-10-14 15:25:05.966206,306
2021-10-14 15:25:05.966228,348
2021-10-14 15:25:05.966237,375
2021-10-14 15:25:05.966246,395
2021-10-14 15:25:05.966254,422
2021-10-14 15:25:05.966263,434
2021-10-14 15:25:05.966271,436
2021-10-14 15:25:05.966280,446
2021-10-14 15:25:05.966288,429
2021-10-14 15:25:05.966296,372
2021-10-14 15:25:05.966306,299
2021-10-14 15:25:05.966314,206
2021-10-14 15:25:05.966323,100
2021-10-14 15:25:05.966331,2
2021-10-14 15:25:05.966340,-88
2021-10-14 15:25:05.966348,-159
2021-10-14 15:25:05.966357,-188
2021-10-14 15:25:05.966370,-203
2021-10-14 15:25:05.966379,-230
2021-10-14 15:25:05.966387,-238
2021-10-14 15:25:05.966396,-225
2021-10-14 15:25:05.966404,-211
2021-10-14 15:25:05.966413,-193
2021-10-14 15:25:05.966421,-184
2021-10-14 15:25:05.966429,-171
2021-10-14 15:25:05.966438,-159
2021-10-14 15:25:05.966446,-152
2021-10-14 15:25:05.966455,-149
2021-10-14 15:25:05.966463,-137
2021-10-14 15:25:05.966472,-117
2021-10-14 15:25:06.237477,-107
2021-10-14 15:25:06.237496,-103
2021-10-14 15:25:06.237506,-95
2021-10-14 15:25:06.237515,-100
2021-10-14 15:25:06.237523,-100
2021-10-14 15:25:06.237532,-90
2021-10-14 15:25:06.237541,-93
2021-10-14 15:25:06.237549,-100
2021-10-14 15:25:06.237558,-100
2021-10-14 15:25:06.237567,-105
2021-10-14 15:25:06.237575,-107
2021-10-14 15:25:06.237584,-98
2021-10-14 15:25:06.237592,-88
2021-10-14 15:25:06.237601,-88
2021-10-14 15:25:06.237609,-93
2021-10-14 15:25:06.237618,-95
2021-10-14 15:25:06.237626,-90
2021-10-14 15:25:06.237635,-78
2021-10-14 15:25:06.237643,-66
2021-10-14 15:25:06.237652,-63
2021-10-14 15:25:06.237660,-66
2021-10-14 15:25:06.237669,-61
2021-10-14 15:25:06.237677,-56
2021-10-14 15:25:06.237686,-56
2021-10-14 15:25:06.237694,-46
2021-10-14 15:25:06.237702,-7
2021-10-14 15:25:06.237711,29
2021-10-14 15:25:06.237719,26
2021-10-14 15:25:06.237728,14
2021-10-14 15:25:06.237736,17
2021-10-14 15:25:06.372812,0
2021-10-14 15:25:06.372833,-19
2021-10-14 15:25:06.372842,-19
2021-10-14 15:25:06.372851,-12
2021-10-14 15:25:06.372860,-9
2021-10-14 15:25:06.372868,-4
2021-10-14 15:25:06.372877,0
2021-10-14 15:25:06.372886,0
2021-10-14 15:25:06.372894,-12
2021-10-14 15:25:06.372903,12
2021-10-14 15:25:06.372911,169
2021-10-14 15:25:06.372920,507
2021-10-14 15:25:06.372928,863
2021-10-14 15:25:06.372937,775
2021-10-14 15:25:06.372945,-2
2021-10-14 15:25:06.372954,-564
2021-10-14 15:25:06.372962,-179
2021-10-14 15:25:06.372971,186
2021-10-14 15:25:06.372979,22
2021-10-14 15:25:06.372988,-12
2021-10-14 15:25:06.372996,90
2021-10-14 15:25:06.373005,53
2021-10-14 15:25:06.373013,36
2021-10-14 15:25:06.373022,90
2021-10-14 15:25:06.373030,83
2021-10-14 15:25:06.373039,58
2021-10-14 15:25:06.373047,85
2021-10-14 15:25:06.373055,117
2021-10-14 15:25:06.373064,127
2021-10-14 15:25:06.373076,147
2021-10-14 15:25:06.642417,174
2021-10-14 15:25:06.642437,196
2021-10-14 15:25:06.642447,215
2021-10-14 15:25:06.642456,245
2021-10-14 15:25:06.642465,284
2021-10-14 15:25:06.642473,323
2021-10-14 15:25:06.642482,350
2021-10-14 15:25:06.642490,368
2021-10-14 15:25:06.642499,382
2021-10-14 15:25:06.642508,387
2021-10-14 15:25:06.642516,377
2021-10-14 15:25:06.642525,360
2021-10-14 15:25:06.642533,314
2021-10-14 15:25:06.642542,235
2021-10-14 15:25:06.642551,152
2021-10-14 15:25:06.642559,61
2021-10-14 15:25:06.642568,-46
2021-10-14 15:25:06.642576,-132
2021-10-14 15:25:06.642585,-184
2021-10-14 15:25:06.642593,-218
2021-10-14 15:25:06.642601,-235
2021-10-14 15:25:06.642610,-238
2021-10-14 15:25:06.642618,-240
2021-10-14 15:25:06.642627,-240
2021-10-14 15:25:06.642635,-220
2021-10-14 15:25:06.642643,-206
2021-10-14 15:25:06.642652,-206
2021-10-14 15:25:06.642660,-191
2021-10-14 15:25:06.642669,-174
2021-10-14 15:25:06.642677,-166
2021-10-14 15:25:06.822475,-157
2021-10-14 15:25:06.822497,-142
2021-10-14 15:25:06.822506,-134
2021-10-14 15:25:06.822514,-130
2021-10-14 15:25:06.822522,-122
2021-10-14 15:25:06.822530,-120
2021-10-14 15:25:06.822538,-125
2021-10-14 15:25:06.822545,-122
2021-10-14 15:25:06.822554,-117
2021-10-14 15:25:06.822562,-115
2021-10-14 15:25:06.822571,-120
2021-10-14 15:25:06.822579,-117
2021-10-14 15:25:06.822587,-112
2021-10-14 15:25:06.822595,-117
2021-10-14 15:25:06.822604,-122
2021-10-14 15:25:06.822612,-115
2021-10-14 15:25:06.822620,-100
2021-10-14 15:25:06.822629,-103
2021-10-14 15:25:06.822637,-117
2021-10-14 15:25:06.822645,-107
2021-10-14 15:25:06.822654,-85
2021-10-14 15:25:06.822662,-85
2021-10-14 15:25:06.822670,-90
2021-10-14 15:25:06.822678,-85
2021-10-14 15:25:06.822687,-83
2021-10-14 15:25:06.822695,-83
2021-10-14 15:25:06.822703,-78
2021-10-14 15:25:06.822711,-76
2021-10-14 15:25:06.822719,-83
2021-10-14 15:25:06.822728,-85
2021-10-14 15:25:07.047905,-71
2021-10-14 15:25:07.047927,-34
2021-10-14 15:25:07.047937,-9
2021-10-14 15:25:07.047946,-17
2021-10-14 15:25:07.047955,-39
2021-10-14 15:25:07.047964,-61
2021-10-14 15:25:07.047973,-85
2021-10-14 15:25:07.047981,-95
2021-10-14 15:25:07.047990,-83
2021-10-14 15:25:07.047998,-68
2021-10-14 15:25:07.048007,-63
2021-10-14 15:25:07.048016,-76
2021-10-14 15:25:07.048024,-88
2021-10-14 15:25:07.048033,-83
2021-10-14 15:25:07.048041,-56
2021-10-14 15:25:07.048050,66
2021-10-14 15:25:07.048058,390
2021-10-14 15:25:07.048067,750
2021-10-14 15:25:07.048075,655
2021-10-14 15:25:07.048084,-127
2021-10-14 15:25:07.048095,-714
2021-10-14 15:25:07.048104,-326
2021-10-14 15:25:07.048113,88
2021-10-14 15:25:07.048121,-58
2021-10-14 15:25:07.048129,-103
2021-10-14 15:25:07.048138,19
2021-10-14 15:25:07.048146,-4
2021-10-14 15:25:07.048155,-36
2021-10-14 15:25:07.048163,9
2021-10-14 15:25:07.048172,26
2021-10-14 15:25:07.317403,34
2021-10-14 15:25:07.317424,61
2021-10-14 15:25:07.317433,66
2021-10-14 15:25:07.317442,68
2021-10-14 15:25:07.317451,93
2021-10-14 15:25:07.317459,110
2021-10-14 15:25:07.317468,127
2021-10-14 15:25:07.317476,164
2021-10-14 15:25:07.317485,211
2021-10-14 15:25:07.317493,242
2021-10-14 15:25:07.317502,264
2021-10-14 15:25:07.317510,294
2021-10-14 15:25:07.317518,326
2021-10-14 15:25:07.317527,348
2021-10-14 15:25:07.317535,345
2021-10-14 15:25:07.317544,336
2021-10-14 15:25:07.317552,323
2021-10-14 15:25:07.317561,291
2021-10-14 15:25:07.317569,228
2021-10-14 15:25:07.317578,132
2021-10-14 15:25:07.317586,22
2021-10-14 15:25:07.317594,-90
2021-10-14 15:25:07.317603,-184
2021-10-14 15:25:07.317611,-245
2021-10-14 15:25:07.317619,-269
2021-10-14 15:25:07.317628,-282
2021-10-14 15:25:07.317636,-296
2021-10-14 15:25:07.317645,-304
2021-10-14 15:25:07.317653,-299
2021-10-14 15:25:07.317662,-289
2021-10-14 15:25:07.497490,-274
2021-10-14 15:25:07.497511,-252
2021-10-14 15:25:07.497520,-235
2021-10-14 15:25:07.497529,-225
2021-10-14 15:25:07.497537,-218
2021-10-14 15:25:07.497546,-213
2021-10-14 15:25:07.497555,-203
2021-10-14 15:25:07.497563,-188
2021-10-14 15:25:07.497572,-179
2021-10-14 15:25:07.497580,-181
2021-10-14 15:25:07.497589,-176
2021-10-14 15:25:07.497598,-169
2021-10-14 15:25:07.497607,-164
2021-10-14 15:25:07.497616,-159
2021-10-14 15:25:07.497625,-152
2021-10-14 15:25:07.497633,-161
2021-10-14 15:25:07.497642,-174
2021-10-14 15:25:07.497650,-164
2021-10-14 15:25:07.497658,-154
2021-10-14 15:25:07.497667,-154
2021-10-14 15:25:07.497676,-147
2021-10-14 15:25:07.497684,-142
2021-10-14 15:25:07.497692,-142
2021-10-14 15:25:07.497701,-137
2021-10-14 15:25:07.497709,-125
2021-10-14 15:25:07.497718,-115
2021-10-14 15:25:07.497726,-112
2021-10-14 15:25:07.497734,-117
2021-10-14 15:25:07.497743,-105
2021-10-14 15:25:07.497751,-93
2021-10-14 15:25:07.812251,-90
2021-10-14 15:25:07.812272,-90
2021-10-14 15:25:07.812281,-93
2021-10-14 15:25:07.812290,-78
2021-10-14 15:25:07.812299,-34
2021-10-14 15:25:07.812307,-7
2021-10-14 15:25:07.812315,-17
2021-10-14 15:25:07.812324,-29
2021-10-14 15:25:07.812332,-36
2021-10-14 15:25:07.812340,-61
2021-10-14 15:25:07.812349,-76
2021-10-14 15:25:07.812357,-63
2021-10-14 15:25:07.812365,-53
2021-10-14 15:25:07.812373,-49
2021-10-14 15:25:07.812382,-46
2021-10-14 15:25:07.812390,-51
2021-10-14 15:25:07.812398,-51
2021-10-14 15:25:07.812407,-12
2021-10-14 15:25:07.812415,112
2021-10-14 15:25:07.812424,404
2021-10-14 15:25:07.812432,775
2021-10-14 15:25:07.812440,772
2021-10-14 15:25:07.812452,58
2021-10-14 15:25:07.812460,-579
2021-10-14 15:25:07.812469,-264
2021-10-14 15:25:07.812477,154
2021-10-14 15:25:07.812485,9
2021-10-14 15:25:07.812494,-56
2021-10-14 15:25:07.812502,68
2021-10-14 15:25:07.812510,46
2021-10-14 15:25:08.036208,9
2021-10-14 15:25:08.036229,66
2021-10-14 15:25:08.036239,83
2021-10-14 15:25:08.036247,61
2021-10-14 15:25:08.036256,78
2021-10-14 15:25:08.036265,115
2021-10-14 15:25:08.036273,132
2021-10-14 15:25:08.036281,152
2021-10-14 15:25:08.036290,174
2021-10-14 15:25:08.036298,193
2021-10-14 15:25:08.036306,218
2021-10-14 15:25:08.036315,250
2021-10-14 15:25:08.036323,289
2021-10-14 15:25:08.036332,331
2021-10-14 15:25:08.036340,355
2021-10-14 15:25:08.036348,365
2021-10-14 15:25:08.036357,392
2021-10-14 15:25:08.036365,414
2021-10-14 15:25:08.036373,404
2021-10-14 15:25:08.036381,387
2021-10-14 15:25:08.036390,355
2021-10-14 15:25:08.036398,284
2021-10-14 15:25:08.036407,179
2021-10-14 15:25:08.036415,66
2021-10-14 15:25:08.036424,-29
2021-10-14 15:25:08.036432,-110
2021-10-14 15:25:08.036440,-181
2021-10-14 15:25:08.036449,-215
2021-10-14 15:25:08.036457,-213
2021-10-14 15:25:08.036466,-213
2021-10-14 15:25:08.217788,-225
2021-10-14 15:25:08.217808,-225
2021-10-14 15:25:08.217818,-215
2021-10-14 15:25:08.217826,-208
2021-10-14 15:25:08.217835,-193
2021-10-14 15:25:08.217843,-169
2021-10-14 15:25:08.217852,-149
2021-10-14 15:25:08.217860,-142
2021-10-14 15:25:08.217868,-137
2021-10-14 15:25:08.217877,-132
2021-10-14 15:25:08.217885,-122
2021-10-14 15:25:08.217894,-107
2021-10-14 15:25:08.217902,-98
2021-10-14 15:25:08.217910,-100
2021-10-14 15:25:08.217919,-103
2021-10-14 15:25:08.217927,-93
2021-10-14 15:25:08.217936,-83
2021-10-14 15:25:08.217944,-80
2021-10-14 15:25:08.217952,-80
2021-10-14 15:25:08.217961,-88
2021-10-14 15:25:08.217969,-85
2021-10-14 15:25:08.217978,-78
2021-10-14 15:25:08.217986,-71
2021-10-14 15:25:08.217994,-68
2021-10-14 15:25:08.218003,-71
2021-10-14 15:25:08.218011,-78
2021-10-14 15:25:08.218019,-78
2021-10-14 15:25:08.218028,-73
2021-10-14 15:25:08.218036,-66
2021-10-14 15:25:08.218044,-49
2021-10-14 15:25:08.487281,-46
2021-10-14 15:25:08.487301,-56
2021-10-14 15:25:08.487309,-51
2021-10-14 15:25:08.487315,-29
2021-10-14 15:25:08.487322,-26
2021-10-14 15:25:08.487329,-34
2021-10-14 15:25:08.487335,-36
2021-10-14 15:25:08.487342,-31
2021-10-14 15:25:08.487349,0
2021-10-14 15:25:08.487356,41
2021-10-14 15:25:08.487362,49
2021-10-14 15:25:08.487369,36
2021-10-14 15:25:08.487376,19
2021-10-14 15:25:08.487383,0
2021-10-14 15:25:08.487390,-14
2021-10-14 15:25:08.487396,-26
2021-10-14 15:25:08.487403,-31
2021-10-14 15:25:08.487410,-29
2021-10-14 15:25:08.487416,-22
2021-10-14 15:25:08.487423,-22
2021-10-14 15:25:08.487430,-22
2021-10-14 15:25:08.487437,-12
2021-10-14 15:25:08.487443,41
2021-10-14 15:25:08.487450,225
2021-10-14 15:25:08.487456,576
2021-10-14 15:25:08.487463,880
2021-10-14 15:25:08.487470,655
2021-10-14 15:25:08.487476,-169
2021-10-14 15:25:08.487483,-561
2021-10-14 15:25:08.487489,-100
2021-10-14 15:25:08.757285,139
2021-10-14 15:25:08.757305,-49
2021-10-14 15:25:08.757314,-26
2021-10-14 15:25:08.757321,68
2021-10-14 15:25:08.757329,19
2021-10-14 15:25:08.757340,22
2021-10-14 15:25:08.757348,68
2021-10-14 15:25:08.757356,68
2021-10-14 15:25:08.757363,76
2021-10-14 15:25:08.757371,100
2021-10-14 15:25:08.757378,120
2021-10-14 15:25:08.757386,142
2021-10-14 15:25:08.757394,157
2021-10-14 15:25:08.757401,179
2021-10-14 15:25:08.757409,211
2021-10-14 15:25:08.757416,240
2021-10-14 15:25:08.757424,272
2021-10-14 15:25:08.757432,311
2021-10-14 15:25:08.757440,350
2021-10-14 15:25:08.757447,387
2021-10-14 15:25:08.757455,407
2021-10-14 15:25:08.757462,414
2021-10-14 15:25:08.757470,419
2021-10-14 15:25:08.757478,422
2021-10-14 15:25:08.757485,407
2021-10-14 15:25:08.757493,360
2021-10-14 15:25:08.757501,291
2021-10-14 15:25:08.757508,196
2021-10-14 15:25:08.757516,83
2021-10-14 15:25:08.757523,-22
2021-10-14 15:25:08.892855,-95
2021-10-14 15:25:08.892875,-147
2021-10-14 15:25:08.892885,-191
2021-10-14 15:25:08.892894,-211
2021-10-14 15:25:08.892903,-208
2021-10-14 15:25:08.892911,-208
2021-10-14 15:25:08.892920,-211
2021-10-14 15:25:08.892928,-196
2021-10-14 15:25:08.892937,-181
2021-10-14 15:25:08.892945,-176
2021-10-14 15:25:08.892954,-166
2021-10-14 15:25:08.892963,-154
2021-10-14 15:25:08.892971,-147
2021-10-14 15:25:08.892980,-139
2021-10-14 15:25:08.892988,-130
2021-10-14 15:25:08.892997,-122
2021-10-14 15:25:08.893005,-125
2021-10-14 15:25:08.893014,-125
2021-10-14 15:25:08.893023,-120
2021-10-14 15:25:08.893031,-115
2021-10-14 15:25:08.893040,-120
2021-10-14 15:25:08.893048,-132
2021-10-14 15:25:08.893056,-134
2021-10-14 15:25:08.893065,-132
2021-10-14 15:25:08.893073,-132
2021-10-14 15:25:08.893082,-130
2021-10-14 15:25:08.893090,-122
2021-10-14 15:25:08.893099,-120
2021-10-14 15:25:08.893107,-117
2021-10-14 15:25:08.893115,-110
2021-10-14 15:25:09.162889,-107
2021-10-14 15:25:09.162910,-115
2021-10-14 15:25:09.162920,-117
2021-10-14 15:25:09.162929,-112
2021-10-14 15:25:09.162937,-110
2021-10-14 15:25:09.162946,-112
2021-10-14 15:25:09.162953,-110
2021-10-14 15:25:09.162960,-98
2021-10-14 15:25:09.162997,-88
2021-10-14 15:25:09.163011,-93
2021-10-14 15:25:09.163020,-107
2021-10-14 15:25:09.163051,-107
2021-10-14 15:25:09.163064,-76
2021-10-14 15:25:09.163072,-36
2021-10-14 15:25:09.163079,-26
2021-10-14 15:25:09.163087,-44
2021-10-14 15:25:09.163095,-63
2021-10-14 15:25:09.163104,-76
2021-10-14 15:25:09.163112,-78
2021-10-14 15:25:09.163121,-76
2021-10-14 15:25:09.163129,-78
2021-10-14 15:25:09.163137,-76
2021-10-14 15:25:09.163145,-76
2021-10-14 15:25:09.163154,-85
2021-10-14 15:25:09.163162,-93
2021-10-14 15:25:09.163170,-88
2021-10-14 15:25:09.163178,-58
2021-10-14 15:25:09.163187,85
2021-10-14 15:25:09.163195,414
2021-10-14 15:25:09.163204,765
2021-10-14 15:25:09.342464,662
2021-10-14 15:25:09.342485,-122
2021-10-14 15:25:09.342495,-694
2021-10-14 15:25:09.342504,-318
2021-10-14 15:25:09.342512,51
2021-10-14 15:25:09.342521,-103
2021-10-14 15:25:09.342530,-130
2021-10-14 15:25:09.342538,-14
2021-10-14 15:25:09.342547,-51
2021-10-14 15:25:09.342555,-76
2021-10-14 15:25:09.342564,-24
2021-10-14 15:25:09.342572,-12
2021-10-14 15:25:09.342581,-9
2021-10-14 15:25:09.342589,22
2021-10-14 15:25:09.342598,44
2021-10-14 15:25:09.342606,53
2021-10-14 15:25:09.342615,78
2021-10-14 15:25:09.342623,112
2021-10-14 15:25:09.342632,144
2021-10-14 15:25:09.342640,174
2021-10-14 15:25:09.342649,215
2021-10-14 15:25:09.342657,255
2021-10-14 15:25:09.342665,287
2021-10-14 15:25:09.342674,326
2021-10-14 15:25:09.342682,358
2021-10-14 15:25:09.342691,368
2021-10-14 15:25:09.342699,377
2021-10-14 15:25:09.342707,377
2021-10-14 15:25:09.342716,348
2021-10-14 15:25:09.342724,304
2021-10-14 15:25:09.612896,242
2021-10-14 15:25:09.612920,144
2021-10-14 15:25:09.612930,22
2021-10-14 15:25:09.612939,-93
2021-10-14 15:25:09.612947,-181
2021-10-14 15:25:09.612956,-245
2021-10-14 15:25:09.612964,-287
2021-10-14 15:25:09.612972,-301
2021-10-14 15:25:09.612981,-311
2021-10-14 15:25:09.612990,-326
2021-10-14 15:25:09.612998,-323
2021-10-14 15:25:09.613006,-304
2021-10-14 15:25:09.613015,-287
2021-10-14 15:25:09.613023,-269
2021-10-14 15:25:09.613032,-260
2021-10-14 15:25:09.613040,-255
2021-10-14 15:25:09.613049,-245
2021-10-14 15:25:09.613057,-230
2021-10-14 15:25:09.613066,-218
2021-10-14 15:25:09.613074,-211
2021-10-14 15:25:09.613083,-208
2021-10-14 15:25:09.613091,-213
2021-10-14 15:25:09.613100,-206
2021-10-14 15:25:09.613108,-186
2021-10-14 15:25:09.613116,-179
2021-10-14 15:25:09.613125,-179
2021-10-14 15:25:09.613133,-184
2021-10-14 15:25:09.613141,-186
2021-10-14 15:25:09.613149,-171
2021-10-14 15:25:09.613158,-159
2021-10-14 15:25:09.881933,-159
2021-10-14 15:25:09.881954,-154
2021-10-14 15:25:09.881964,-152
2021-10-14 15:25:09.881972,-152
2021-10-14 15:25:09.881981,-142
2021-10-14 15:25:09.881990,-132
2021-10-14 15:25:09.881998,-132
2021-10-14 15:25:09.882007,-132
2021-10-14 15:25:09.882015,-137
2021-10-14 15:25:09.882024,-142
2021-10-14 15:25:09.882032,-132
2021-10-14 15:25:09.882041,-120
2021-10-14 15:25:09.882049,-107
2021-10-14 15:25:09.882058,-107
2021-10-14 15:25:09.882066,-122
2021-10-14 15:25:09.882075,-130
2021-10-14 15:25:09.882083,-103
2021-10-14 15:25:09.882091,-53
2021-10-14 15:25:09.882100,-26
2021-10-14 15:25:09.882108,-29
2021-10-14 15:25:09.882117,-41
2021-10-14 15:25:09.882125,-51
2021-10-14 15:25:09.882134,-58
2021-10-14 15:25:09.882142,-66
2021-10-14 15:25:09.882151,-63
2021-10-14 15:25:09.882159,-53
2021-10-14 15:25:09.882168,-53
2021-10-14 15:25:09.882176,-53
2021-10-14 15:25:09.882185,-58
2021-10-14 15:25:09.882193,-63
2021-10-14 15:25:10.151224,-44
2021-10-14 15:25:10.151245,29
2021-10-14 15:25:10.151254,245
2021-10-14 15:25:10.151263,610
2021-10-14 15:25:10.151271,829
2021-10-14 15:25:10.151279,387
2021-10-14 15:25:10.151288,-451
2021-10-14 15:25:10.151296,-542
2021-10-14 15:25:10.151304,-19
2021-10-14 15:25:10.151313,34
2021-10-14 15:25:10.151321,-134
2021-10-14 15:25:10.151329,-31
2021-10-14 15:25:10.151338,22
2021-10-14 15:25:10.151346,-44
2021-10-14 15:25:10.151354,-24
2021-10-14 15:25:10.151362,24
2021-10-14 15:25:10.151371,26
2021-10-14 15:25:10.151379,41
2021-10-14 15:25:10.151387,71
2021-10-14 15:25:10.151395,90
2021-10-14 15:25:10.151404,110
2021-10-14 15:25:10.151412,139
2021-10-14 15:25:10.151420,166
2021-10-14 15:25:10.151428,193
2021-10-14 15:25:10.151437,235
2021-10-14 15:25:10.151445,279
2021-10-14 15:25:10.151454,316
2021-10-14 15:25:10.151462,345
2021-10-14 15:25:10.151470,375
2021-10-14 15:25:10.151479,407
2021-10-14 15:25:10.377865,426
2021-10-14 15:25:10.377885,424
2021-10-14 15:25:10.377895,409
2021-10-14 15:25:10.377903,390
2021-10-14 15:25:10.377912,348
2021-10-14 15:25:10.377920,257
2021-10-14 15:25:10.377929,142
2021-10-14 15:25:10.377937,31
2021-10-14 15:25:10.377945,-61
2021-10-14 15:25:10.377954,-130
2021-10-14 15:25:10.377962,-179
2021-10-14 15:25:10.377970,-208
2021-10-14 15:25:10.377979,-223
2021-10-14 15:25:10.377987,-235
2021-10-14 15:25:10.377995,-238
2021-10-14 15:25:10.378004,-225
2021-10-14 15:25:10.378012,-211
2021-10-14 15:25:10.378020,-201
2021-10-14 15:25:10.378029,-193
2021-10-14 15:25:10.378037,-176
2021-10-14 15:25:10.378046,-159
2021-10-14 15:25:10.378054,-152
2021-10-14 15:25:10.378062,-137
2021-10-14 15:25:10.378071,-125
2021-10-14 15:25:10.378079,-125
2021-10-14 15:25:10.378087,-117
2021-10-14 15:25:10.378096,-103
2021-10-14 15:25:10.378104,-103
2021-10-14 15:25:10.378112,-103
2021-10-14 15:25:10.378121,-85
2021-10-14 15:25:10.557525,-76
2021-10-14 15:25:10.557545,-83
2021-10-14 15:25:10.557555,-85
2021-10-14 15:25:10.557564,-78
2021-10-14 15:25:10.557572,-71
2021-10-14 15:25:10.557581,-68
2021-10-14 15:25:10.557589,-68
2021-10-14 15:25:10.557597,-71
2021-10-14 15:25:10.557606,-80
2021-10-14 15:25:10.557614,-90
2021-10-14 15:25:10.557622,-78
2021-10-14 15:25:10.557634,-66
2021-10-14 15:25:10.557642,-63
2021-10-14 15:25:10.557650,-68
2021-10-14 15:25:10.557659,-68
2021-10-14 15:25:10.557667,-66
2021-10-14 15:25:10.557676,-56
2021-10-14 15:25:10.557684,-51
2021-10-14 15:25:10.557692,-61
2021-10-14 15:25:10.557701,-63
2021-10-14 15:25:10.557709,-51
2021-10-14 15:25:10.557718,-44
2021-10-14 15:25:10.557726,-46
2021-10-14 15:25:10.557734,-41
2021-10-14 15:25:10.557742,-7
2021-10-14 15:25:10.557751,29
2021-10-14 15:25:10.557759,39
2021-10-14 15:25:10.557768,26
2021-10-14 15:25:10.557776,14
2021-10-14 15:25:10.557784,4
2021-10-14 15:25:10.737514,-9
2021-10-14 15:25:10.737544,-14
2021-10-14 15:25:10.737553,-9
2021-10-14 15:25:10.737562,-7
2021-10-14 15:25:10.737570,-9
2021-10-14 15:25:10.737579,-12
2021-10-14 15:25:10.737587,-14
2021-10-14 15:25:10.737595,-12
2021-10-14 15:25:10.737604,34
2021-10-14 15:25:10.737612,206
2021-10-14 15:25:10.737621,549
2021-10-14 15:25:10.737629,861
2021-10-14 15:25:10.737637,650
2021-10-14 15:25:10.737646,-149
2021-10-14 15:25:10.737654,-554
2021-10-14 15:25:10.737662,-122
2021-10-14 15:25:10.737671,127
2021-10-14 15:25:10.737679,-56
2021-10-14 15:25:10.737688,-46
2021-10-14 15:25:10.737696,51
2021-10-14 15:25:10.737705,17
2021-10-14 15:25:10.737713,14
2021-10-14 15:25:10.737721,68
2021-10-14 15:25:10.737730,76
2021-10-14 15:25:10.737738,76
2021-10-14 15:25:10.737746,103
2021-10-14 15:25:10.737755,125
2021-10-14 15:25:10.737763,144
2021-10-14 15:25:10.737771,169
2021-10-14 15:25:10.737780,196
2021-10-14 15:25:10.963023,225
2021-10-14 15:25:10.963062,262
2021-10-14 15:25:10.963079,296
2021-10-14 15:25:10.963089,331
2021-10-14 15:25:10.963098,368
2021-10-14 15:25:10.963106,392
2021-10-14 15:25:10.963115,409
2021-10-14 15:25:10.963123,429
2021-10-14 15:25:10.963132,436
2021-10-14 15:25:10.963140,431
2021-10-14 15:25:10.963149,417
2021-10-14 15:25:10.963157,380
2021-10-14 15:25:10.963166,318
2021-10-14 15:25:10.963174,225
2021-10-14 15:25:10.963182,110
2021-10-14 15:25:10.963190,12
2021-10-14 15:25:10.963199,-58
2021-10-14 15:25:10.963207,-122
2021-10-14 15:25:10.963216,-164
2021-10-14 15:25:10.963224,-179
2021-10-14 15:25:10.963232,-188
2021-10-14 15:25:10.963241,-193
2021-10-14 15:25:10.963249,-188
2021-10-14 15:25:10.963257,-176
2021-10-14 15:25:10.963266,-166
2021-10-14 15:25:10.963274,-152
2021-10-14 15:25:10.963282,-134
2021-10-14 15:25:10.963291,-125
2021-10-14 15:25:10.963299,-127
2021-10-14 15:25:10.963307,-122
2021-10-14 15:25:11.187512,-105
2021-10-14 15:25:11.187540,-98
2021-10-14 15:25:11.187549,-90
2021-10-14 15:25:11.187558,-83
2021-10-14 15:25:11.187566,-88
2021-10-14 15:25:11.187575,-93
2021-10-14 15:25:11.187583,-83
2021-10-14 15:25:11.187592,-73
2021-10-14 15:25:11.187600,-68
2021-10-14 15:25:11.187609,-76
2021-10-14 15:25:11.187617,-85
2021-10-14 15:25:11.187625,-80
2021-10-14 15:25:11.187634,-73
2021-10-14 15:25:11.187642,-71
2021-10-14 15:25:11.187651,-66
2021-10-14 15:25:11.187659,-58
2021-10-14 15:25:11.187668,-63
2021-10-14 15:25:11.187676,-58
2021-10-14 15:25:11.187685,-44
2021-10-14 15:25:11.187693,-51
2021-10-14 15:25:11.187701,-61
2021-10-14 15:25:11.187709,-53
2021-10-14 15:25:11.187718,-46
2021-10-14 15:25:11.187726,-44
2021-10-14 15:25:11.187734,-36
2021-10-14 15:25:11.187743,-31
2021-10-14 15:25:11.187751,-26
2021-10-14 15:25:11.187760,-24
2021-10-14 15:25:11.187768,-24
2021-10-14 15:25:11.187776,-19
2021-10-14 15:25:11.457907,-19
2021-10-14 15:25:11.457928,-22
2021-10-14 15:25:11.457936,-4
2021-10-14 15:25:11.457944,26
2021-10-14 15:25:11.457952,44
2021-10-14 15:25:11.457960,36
2021-10-14 15:25:11.457967,19
2021-10-14 15:25:11.457975,2
2021-10-14 15:25:11.457983,-14
2021-10-14 15:25:11.457991,-31
2021-10-14 15:25:11.457998,-31
2021-10-14 15:25:11.458006,-31
2021-10-14 15:25:11.458013,-36
2021-10-14 15:25:11.458021,-39
2021-10-14 15:25:11.458029,-39
2021-10-14 15:25:11.458037,-49
2021-10-14 15:25:11.458044,-34
2021-10-14 15:25:11.458052,66
2021-10-14 15:25:11.458060,333
2021-10-14 15:25:11.458067,706
2021-10-14 15:25:11.458075,817
2021-10-14 15:25:11.458083,238
2021-10-14 15:25:11.458090,-532
2021-10-14 15:25:11.458098,-441
2021-10-14 15:25:11.458106,61
2021-10-14 15:25:11.458113,41
2021-10-14 15:25:11.458121,-88
2021-10-14 15:25:11.458129,14
2021-10-14 15:25:11.458137,39
2021-10-14 15:25:11.458144,0
2021-10-14 15:25:11.682898,46
2021-10-14 15:25:11.682927,83
2021-10-14 15:25:11.682936,71
2021-10-14 15:25:11.682945,80
2021-10-14 15:25:11.682953,110
2021-10-14 15:25:11.682962,134
2021-10-14 15:25:11.682970,159
2021-10-14 15:25:11.682978,184
2021-10-14 15:25:11.682990,198
2021-10-14 15:25:11.682998,220
2021-10-14 15:25:11.683007,257
2021-10-14 15:25:11.683015,294
2021-10-14 15:25:11.683023,328
2021-10-14 15:25:11.683032,368
2021-10-14 15:25:11.683040,387
2021-10-14 15:25:11.683048,395
2021-10-14 15:25:11.683057,409
2021-10-14 15:25:11.683065,412
2021-10-14 15:25:11.683073,399
2021-10-14 15:25:11.683081,382
2021-10-14 15:25:11.683090,338
2021-10-14 15:25:11.683098,252
2021-10-14 15:25:11.683106,144
2021-10-14 15:25:11.683115,41
2021-10-14 15:25:11.683123,-51
2021-10-14 15:25:11.683132,-122
2021-10-14 15:25:11.683140,-171
2021-10-14 15:25:11.683148,-208
2021-10-14 15:25:11.683156,-218
2021-10-14 15:25:11.683165,-211
2021-10-14 15:25:11.907728,-206
2021-10-14 15:25:11.907749,-211
2021-10-14 15:25:11.907757,-208
2021-10-14 15:25:11.907765,-196
2021-10-14 15:25:11.907773,-174
2021-10-14 15:25:11.907781,-159
2021-10-14 15:25:11.907789,-154
2021-10-14 15:25:11.907796,-149
2021-10-14 15:25:11.907804,-152
2021-10-14 15:25:11.907812,-152
2021-10-14 15:25:11.907819,-142
2021-10-14 15:25:11.907827,-130
2021-10-14 15:25:11.907834,-127
2021-10-14 15:25:11.907842,-132
2021-10-14 15:25:11.907849,-134
2021-10-14 15:25:11.907857,-132
2021-10-14 15:25:11.907864,-130
2021-10-14 15:25:11.907879,-127
2021-10-14 15:25:11.907887,-122
2021-10-14 15:25:11.907894,-125
2021-10-14 15:25:11.907902,-132
2021-10-14 15:25:11.907910,-127
2021-10-14 15:25:11.907917,-117
2021-10-14 15:25:11.907925,-112
2021-10-14 15:25:11.907932,-110
2021-10-14 15:25:11.907940,-117
2021-10-14 15:25:11.907947,-130
2021-10-14 15:25:11.907955,-130
2021-10-14 15:25:11.907963,-120
2021-10-14 15:25:11.907970,-112
2021-10-14 15:25:12.176578,-110
2021-10-14 15:25:12.176598,-112
2021-10-14 15:25:12.176608,-112
2021-10-14 15:25:12.176617,-100
2021-10-14 15:25:12.176625,-98
2021-10-14 15:25:12.176634,-107
2021-10-14 15:25:12.176643,-110
2021-10-14 15:25:12.176651,-95
2021-10-14 15:25:12.176659,-66
2021-10-14 15:25:12.176668,-39
2021-10-14 15:25:12.176676,-34
2021-10-14 15:25:12.176684,-46
2021-10-14 15:25:12.176693,-71
2021-10-14 15:25:12.176701,-100
2021-10-14 15:25:12.176709,-122
2021-10-14 15:25:12.176718,-125
2021-10-14 15:25:12.176726,-120
2021-10-14 15:25:12.176734,-122
2021-10-14 15:25:12.176743,-125
2021-10-14 15:25:12.176751,-130
2021-10-14 15:25:12.176759,-132
2021-10-14 15:25:12.176768,-125
2021-10-14 15:25:12.176776,-80
2021-10-14 15:25:12.176784,93
2021-10-14 15:25:12.176793,441
2021-10-14 15:25:12.176801,740
2021-10-14 15:25:12.176809,505
2021-10-14 15:25:12.176818,-323
2021-10-14 15:25:12.176826,-711
2021-10-14 15:25:12.176834,-208
2021-10-14 15:25:12.357874,71
2021-10-14 15:25:12.357915,-120
2021-10-14 15:25:12.357942,-98
2021-10-14 15:25:12.357950,7
2021-10-14 15:25:12.357972,-36
2021-10-14 15:25:12.357982,-39
2021-10-14 15:25:12.357991,9
2021-10-14 15:25:12.357999,9
2021-10-14 15:25:12.358008,14
2021-10-14 15:25:12.358016,44
2021-10-14 15:25:12.358025,68
2021-10-14 15:25:12.358033,93
2021-10-14 15:25:12.358042,110
2021-10-14 15:25:12.358050,132
2021-10-14 15:25:12.358059,169
2021-10-14 15:25:12.358067,203
2021-10-14 15:25:12.358076,235
2021-10-14 15:25:12.358084,279
2021-10-14 15:25:12.358092,318
2021-10-14 15:25:12.358101,343
2021-10-14 15:25:12.358109,365
2021-10-14 15:25:12.358118,380
2021-10-14 15:25:12.358126,382
2021-10-14 15:25:12.358134,375
2021-10-14 15:25:12.358143,350
2021-10-14 15:25:12.358151,311
2021-10-14 15:25:12.358160,242
2021-10-14 15:25:12.358168,137
2021-10-14 15:25:12.358176,22
2021-10-14 15:25:12.358185,-78
2021-10-14 15:25:12.582561,-164
2021-10-14 15:25:12.582582,-233
2021-10-14 15:25:12.582592,-267
2021-10-14 15:25:12.582600,-279
2021-10-14 15:25:12.582609,-287
2021-10-14 15:25:12.582617,-289
2021-10-14 15:25:12.582626,-284
2021-10-14 15:25:12.582634,-272
2021-10-14 15:25:12.582643,-257
2021-10-14 15:25:12.582651,-240
2021-10-14 15:25:12.582660,-230
2021-10-14 15:25:12.582668,-228
2021-10-14 15:25:12.582677,-215
2021-10-14 15:25:12.582685,-196
2021-10-14 15:25:12.582693,-184
2021-10-14 15:25:12.582702,-176
2021-10-14 15:25:12.582710,-164
2021-10-14 15:25:12.582719,-154
2021-10-14 15:25:12.582727,-154
2021-10-14 15:25:12.582736,-147
2021-10-14 15:25:12.582744,-132
2021-10-14 15:25:12.582753,-132
2021-10-14 15:25:12.582761,-137
2021-10-14 15:25:12.582769,-132
2021-10-14 15:25:12.582778,-122
2021-10-14 15:25:12.582787,-117
2021-10-14 15:25:12.582795,-115
2021-10-14 15:25:12.582803,-110
2021-10-14 15:25:12.582812,-107
2021-10-14 15:25:12.582820,-105
2021-10-14 15:25:12.851947,-105
2021-10-14 15:25:12.851967,-103
2021-10-14 15:25:12.851977,-98
2021-10-14 15:25:12.851985,-98
2021-10-14 15:25:12.851994,-98
2021-10-14 15:25:12.852002,-100
2021-10-14 15:25:12.852011,-93
2021-10-14 15:25:12.852019,-85
2021-10-14 15:25:12.852027,-93
2021-10-14 15:25:12.852036,-93
2021-10-14 15:25:12.852044,-71
2021-10-14 15:25:12.852053,-31
2021-10-14 15:25:12.852061,-7
2021-10-14 15:25:12.852069,-7
2021-10-14 15:25:12.852078,-22
2021-10-14 15:25:12.852086,-39
2021-10-14 15:25:12.852094,-58
2021-10-14 15:25:12.852103,-71
2021-10-14 15:25:12.852111,-66
2021-10-14 15:25:12.852119,-58
2021-10-14 15:25:12.852127,-63
2021-10-14 15:25:12.852136,-68
2021-10-14 15:25:12.852144,-71
2021-10-14 15:25:12.852155,-71
2021-10-14 15:25:12.852164,-58
2021-10-14 15:25:12.852172,14
2021-10-14 15:25:12.852181,242
2021-10-14 15:25:12.852189,610
2021-10-14 15:25:12.852197,817
2021-10-14 15:25:12.852206,368
2021-10-14 15:25:13.032565,-434
2021-10-14 15:25:13.032586,-485
2021-10-14 15:25:13.032594,36
2021-10-14 15:25:13.032601,78
2021-10-14 15:25:13.032607,-93
2021-10-14 15:25:13.032614,0
2021-10-14 15:25:13.032621,44
2021-10-14 15:25:13.032629,-22
2021-10-14 15:25:13.032636,7
2021-10-14 15:25:13.032642,51
2021-10-14 15:25:13.032650,39
2021-10-14 15:25:13.032657,53
2021-10-14 15:25:13.032664,95
2021-10-14 15:25:13.032671,115
2021-10-14 15:25:13.032679,130
2021-10-14 15:25:13.032687,159
2021-10-14 15:25:13.032695,188
2021-10-14 15:25:13.032703,218
2021-10-14 15:25:13.032711,255
2021-10-14 15:25:13.032719,301
2021-10-14 15:25:13.032728,343
2021-10-14 15:25:13.032736,372
2021-10-14 15:25:13.032744,395
2021-10-14 15:25:13.032752,419
2021-10-14 15:25:13.032761,441
2021-10-14 15:25:13.032769,441
2021-10-14 15:25:13.032777,426
2021-10-14 15:25:13.032785,402
2021-10-14 15:25:13.032793,350
2021-10-14 15:25:13.032801,264
2021-10-14 15:25:13.347920,159
2021-10-14 15:25:13.347969,56
2021-10-14 15:25:13.347980,-22
2021-10-14 15:25:13.347989,-95
2021-10-14 15:25:13.347998,-159
2021-10-14 15:25:13.348006,-188
2021-10-14 15:25:13.348015,-193
2021-10-14 15:25:13.348023,-196
2021-10-14 15:25:13.348032,-196
2021-10-14 15:25:13.348040,-203
2021-10-14 15:25:13.348048,-201
2021-10-14 15:25:13.348057,-179
2021-10-14 15:25:13.348065,-159
2021-10-14 15:25:13.348074,-152
2021-10-14 15:25:13.348082,-142
2021-10-14 15:25:13.348090,-130
2021-10-14 15:25:13.348099,-125
2021-10-14 15:25:13.348107,-110
2021-10-14 15:25:13.348115,-98
2021-10-14 15:25:13.348124,-95
2021-10-14 15:25:13.348132,-90
2021-10-14 15:25:13.348140,-85
2021-10-14 15:25:13.348149,-90
2021-10-14 15:25:13.348157,-88
2021-10-14 15:25:13.348165,-76
2021-10-14 15:25:13.348174,-71
2021-10-14 15:25:13.348182,-73
2021-10-14 15:25:13.348190,-78
2021-10-14 15:25:13.348199,-78
2021-10-14 15:25:13.348207,-68
2021-10-14 15:25:13.527929,-58
2021-10-14 15:25:13.527949,-56
2021-10-14 15:25:13.527959,-58
2021-10-14 15:25:13.527968,-61
2021-10-14 15:25:13.527976,-61
2021-10-14 15:25:13.527985,-53
2021-10-14 15:25:13.527993,-44
2021-10-14 15:25:13.528002,-39
2021-10-14 15:25:13.528010,-49
2021-10-14 15:25:13.528018,-56
2021-10-14 15:25:13.528027,-49
2021-10-14 15:25:13.528035,-44
2021-10-14 15:25:13.528044,-56
2021-10-14 15:25:13.528052,-56
2021-10-14 15:25:13.528060,-29
2021-10-14 15:25:13.528069,9
2021-10-14 15:25:13.528077,34
2021-10-14 15:25:13.528086,36
2021-10-14 15:25:13.528094,26
2021-10-14 15:25:13.528102,12
2021-10-14 15:25:13.528111,-19
2021-10-14 15:25:13.528119,-41
2021-10-14 15:25:13.528127,-34
2021-10-14 15:25:13.528136,-24
2021-10-14 15:25:13.528144,-31
2021-10-14 15:25:13.528153,-31
2021-10-14 15:25:13.528161,-31
2021-10-14 15:25:13.528170,-46
2021-10-14 15:25:13.528178,-46
2021-10-14 15:25:13.528186,31
2021-10-14 15:25:13.752580,262
2021-10-14 15:25:13.752601,633
2021-10-14 15:25:13.752610,853
2021-10-14 15:25:13.752619,451
2021-10-14 15:25:13.752627,-368
2021-10-14 15:25:13.752636,-510
2021-10-14 15:25:13.752644,9
2021-10-14 15:25:13.752653,115
2021-10-14 15:25:13.752661,-66
2021-10-14 15:25:13.752669,-2
2021-10-14 15:25:13.752678,61
2021-10-14 15:25:13.752686,17
2021-10-14 15:25:13.752694,36
2021-10-14 15:25:13.752703,76
2021-10-14 15:25:13.752711,71
2021-10-14 15:25:13.752719,85
2021-10-14 15:25:13.752729,117
2021-10-14 15:25:13.752737,132
2021-10-14 15:25:13.752745,157
2021-10-14 15:25:13.752753,191
2021-10-14 15:25:13.752762,208
2021-10-14 15:25:13.752770,230
2021-10-14 15:25:13.752778,272
2021-10-14 15:25:13.752787,318
2021-10-14 15:25:13.752795,350
2021-10-14 15:25:13.752803,380
2021-10-14 15:25:13.752812,407
2021-10-14 15:25:13.752820,424
2021-10-14 15:25:13.752828,436
2021-10-14 15:25:13.752836,446
2021-10-14 15:25:13.977932,439
2021-10-14 15:25:13.977952,417
2021-10-14 15:25:13.977962,368
2021-10-14 15:25:13.977970,289
2021-10-14 15:25:13.977979,191
2021-10-14 15:25:13.977992,93
2021-10-14 15:25:13.978001,7
2021-10-14 15:25:13.978009,-71
2021-10-14 15:25:13.978017,-137
2021-10-14 15:25:13.978026,-169
2021-10-14 15:25:13.978034,-174
2021-10-14 15:25:13.978043,-179
2021-10-14 15:25:13.978051,-191
2021-10-14 15:25:13.978059,-193
2021-10-14 15:25:13.978068,-179
2021-10-14 15:25:13.978076,-166
2021-10-14 15:25:13.978085,-159
2021-10-14 15:25:13.978141,-152
2021-10-14 15:25:13.978153,-144
2021-10-14 15:25:13.978163,-142
2021-10-14 15:25:13.978171,-139
2021-10-14 15:25:13.978179,-134
2021-10-14 15:25:13.978188,-117
2021-10-14 15:25:13.978196,-105
2021-10-14 15:25:13.978204,-107
2021-10-14 15:25:13.978213,-107
2021-10-14 15:25:13.978221,-103
2021-10-14 15:25:13.978229,-105
2021-10-14 15:25:13.978237,-103
2021-10-14 15:25:13.978246,-95
2021-10-14 15:25:14.381156,-93
2021-10-14 15:25:14.381227,-93
2021-10-14 15:25:14.381238,-93
2021-10-14 15:25:14.381246,-93
2021-10-14 15:25:14.381255,-88
2021-10-14 15:25:14.381263,-83
2021-10-14 15:25:14.381272,-88
2021-10-14 15:25:14.381280,-90
2021-10-14 15:25:14.381288,-78
2021-10-14 15:25:14.381297,-73
2021-10-14 15:25:14.381305,-76
2021-10-14 15:25:14.381313,-73
2021-10-14 15:25:14.381321,-73
2021-10-14 15:25:14.381330,-80
2021-10-14 15:25:14.381338,-88
2021-10-14 15:25:14.381346,-90
2021-10-14 15:25:14.381355,-80
2021-10-14 15:25:14.381363,-71
2021-10-14 15:25:14.381371,-44
2021-10-14 15:25:14.381380,-9
2021-10-14 15:25:14.381388,9
2021-10-14 15:25:14.381396,2
2021-10-14 15:25:14.381404,-14
2021-10-14 15:25:14.381412,-31
2021-10-14 15:25:14.381421,-41
2021-10-14 15:25:14.381429,-46
2021-10-14 15:25:14.381438,-44
2021-10-14 15:25:14.381446,-46
2021-10-14 15:25:14.381454,-44
2021-10-14 15:25:14.381468,-39
2021-10-14 15:25:14.517305,-41
2021-10-14 15:25:14.517325,-44
2021-10-14 15:25:14.517335,-14
2021-10-14 15:25:14.517343,144
2021-10-14 15:25:14.517352,493
2021-10-14 15:25:14.517361,814
2021-10-14 15:25:14.517369,633
2021-10-14 15:25:14.517377,-184
2021-10-14 15:25:14.517386,-664
2021-10-14 15:25:14.517394,-218
2021-10-14 15:25:14.517403,115
2021-10-14 15:25:14.517411,-53
2021-10-14 15:25:14.517420,-68
2021-10-14 15:25:14.517428,39
2021-10-14 15:25:14.517437,7
2021-10-14 15:25:14.517445,-9
2021-10-14 15:25:14.517453,34
2021-10-14 15:25:14.517462,44
2021-10-14 15:25:14.517470,49
2021-10-14 15:25:14.517478,76
2021-10-14 15:25:14.517487,95
2021-10-14 15:25:14.517495,110
2021-10-14 15:25:14.517503,134
2021-10-14 15:25:14.517512,154
2021-10-14 15:25:14.517520,179
2021-10-14 15:25:14.517528,215
2021-10-14 15:25:14.517537,250
2021-10-14 15:25:14.517545,277
2021-10-14 15:25:14.517554,311
2021-10-14 15:25:14.517562,345
2021-10-14 15:25:14.652547,368
2021-10-14 15:25:14.652567,377
2021-10-14 15:25:14.652577,385
2021-10-14 15:25:14.652586,385
2021-10-14 15:25:14.652594,363
2021-10-14 15:25:14.652603,309
2021-10-14 15:25:14.652611,228
2021-10-14 15:25:14.652620,137
2021-10-14 15:25:14.652628,36
2021-10-14 15:25:14.652637,-66
2021-10-14 15:25:14.652645,-157
2021-10-14 15:25:14.652654,-223
2021-10-14 15:25:14.652662,-257
2021-10-14 15:25:14.652671,-267
2021-10-14 15:25:14.652679,-269
2021-10-14 15:25:14.652687,-272
2021-10-14 15:25:14.652696,-272
2021-10-14 15:25:14.652704,-264
2021-10-14 15:25:14.652713,-252
2021-10-14 15:25:14.652721,-245
2021-10-14 15:25:14.652729,-230
2021-10-14 15:25:14.652738,-218
2021-10-14 15:25:14.652746,-211
2021-10-14 15:25:14.652755,-211
2021-10-14 15:25:14.652763,-206
2021-10-14 15:25:14.652772,-198
2021-10-14 15:25:14.652780,-198
2021-10-14 15:25:14.652789,-196
2021-10-14 15:25:14.652797,-186
2021-10-14 15:25:14.652805,-181
2021-10-14 15:25:14.922612,-184
2021-10-14 15:25:14.922633,-186
2021-10-14 15:25:14.922643,-179
2021-10-14 15:25:14.922651,-174
2021-10-14 15:25:14.922660,-184
2021-10-14 15:25:14.922668,-188
2021-10-14 15:25:14.922677,-179
2021-10-14 15:25:14.922685,-169
2021-10-14 15:25:14.922694,-161
2021-10-14 15:25:14.922702,-164
2021-10-14 15:25:14.922711,-169
2021-10-14 15:25:14.922719,-161
2021-10-14 15:25:14.922728,-152
2021-10-14 15:25:14.922736,-149
2021-10-14 15:25:14.922744,-149
2021-10-14 15:25:14.922753,-142
2021-10-14 15:25:14.922761,-144
2021-10-14 15:25:14.922769,-152
2021-10-14 15:25:14.922778,-137
2021-10-14 15:25:14.922786,-95
2021-10-14 15:25:14.922795,-66
2021-10-14 15:25:14.922803,-63
2021-10-14 15:25:14.922811,-71
2021-10-14 15:25:14.922820,-85
2021-10-14 15:25:14.922828,-100
2021-10-14 15:25:14.922836,-103
2021-10-14 15:25:14.922845,-100
2021-10-14 15:25:14.922853,-100
2021-10-14 15:25:14.922861,-100
2021-10-14 15:25:14.922870,-103
2021-10-14 15:25:15.102584,-112
2021-10-14 15:25:15.102605,-115
2021-10-14 15:25:15.102615,-107
2021-10-14 15:25:15.102623,-76
2021-10-14 15:25:15.102632,76
2021-10-14 15:25:15.102640,412
2021-10-14 15:25:15.102649,760
2021-10-14 15:25:15.102657,628
2021-10-14 15:25:15.102666,-174
2021-10-14 15:25:15.102674,-682
2021-10-14 15:25:15.102682,-245
2021-10-14 15:25:15.102691,93
2021-10-14 15:25:15.102699,-88
2021-10-14 15:25:15.102707,-107
2021-10-14 15:25:15.102716,0
2021-10-14 15:25:15.102725,-44
2021-10-14 15:25:15.102733,-63
2021-10-14 15:25:15.102741,2
2021-10-14 15:25:15.102750,19
2021-10-14 15:25:15.102758,17
2021-10-14 15:25:15.102766,46
2021-10-14 15:25:15.102774,68
2021-10-14 15:25:15.102783,78
2021-10-14 15:25:15.102791,107
2021-10-14 15:25:15.102799,144
2021-10-14 15:25:15.102808,176
2021-10-14 15:25:15.102816,215
2021-10-14 15:25:15.102824,255
2021-10-14 15:25:15.102833,291
2021-10-14 15:25:15.102841,331
2021-10-14 15:25:15.372932,368
2021-10-14 15:25:15.372953,395
2021-10-14 15:25:15.372962,404
2021-10-14 15:25:15.372971,395
2021-10-14 15:25:15.372980,387
2021-10-14 15:25:15.372988,380
2021-10-14 15:25:15.372997,341
2021-10-14 15:25:15.373005,255
2021-10-14 15:25:15.373014,147
2021-10-14 15:25:15.373022,29
2021-10-14 15:25:15.373031,-68
2021-10-14 15:25:15.373039,-139
2021-10-14 15:25:15.373047,-186
2021-10-14 15:25:15.373056,-220
2021-10-14 15:25:15.373064,-240
2021-10-14 15:25:15.373073,-245
2021-10-14 15:25:15.373081,-240
2021-10-14 15:25:15.373090,-233
2021-10-14 15:25:15.373098,-223
2021-10-14 15:25:15.373106,-213
2021-10-14 15:25:15.373115,-201
2021-10-14 15:25:15.373123,-193
2021-10-14 15:25:15.373131,-184
2021-10-14 15:25:15.373140,-169
2021-10-14 15:25:15.373148,-157
2021-10-14 15:25:15.373156,-149
2021-10-14 15:25:15.373165,-144
2021-10-14 15:25:15.373173,-139
2021-10-14 15:25:15.373181,-127
2021-10-14 15:25:15.373190,-112
2021-10-14 15:25:15.597579,-105
2021-10-14 15:25:15.597599,-105
2021-10-14 15:25:15.597609,-112
2021-10-14 15:25:15.597618,-110
2021-10-14 15:25:15.597626,-107
2021-10-14 15:25:15.597635,-112
2021-10-14 15:25:15.597643,-115
2021-10-14 15:25:15.597652,-110
2021-10-14 15:25:15.597660,-117
2021-10-14 15:25:15.597669,-122
2021-10-14 15:25:15.597677,-105
2021-10-14 15:25:15.597686,-100
2021-10-14 15:25:15.597694,-100
2021-10-14 15:25:15.597702,-95
2021-10-14 15:25:15.597711,-98
2021-10-14 15:25:15.597719,-103
2021-10-14 15:25:15.597728,-90
2021-10-14 15:25:15.597736,-76
2021-10-14 15:25:15.597744,-68
2021-10-14 15:25:15.597753,-71
2021-10-14 15:25:15.597761,-85
2021-10-14 15:25:15.597770,-83
2021-10-14 15:25:15.597778,-44
2021-10-14 15:25:15.597786,2
2021-10-14 15:25:15.597795,19
2021-10-14 15:25:15.597803,14
2021-10-14 15:25:15.597811,0
2021-10-14 15:25:15.597820,-19
2021-10-14 15:25:15.597828,-34
2021-10-14 15:25:15.597837,-34
2021-10-14 15:25:15.866988,-26
2021-10-14 15:25:15.867010,-24
2021-10-14 15:25:15.867019,-29
2021-10-14 15:25:15.867028,-26
2021-10-14 15:25:15.867037,-22
2021-10-14 15:25:15.867045,-26
2021-10-14 15:25:15.867054,-12
2021-10-14 15:25:15.867066,61
2021-10-14 15:25:15.867074,287
2021-10-14 15:25:15.867083,669
2021-10-14 15:25:15.867091,883
2021-10-14 15:25:15.867100,412
2021-10-14 15:25:15.867108,-414
2021-10-14 15:25:15.867117,-466
2021-10-14 15:25:15.867125,46
2021-10-14 15:25:15.867134,85
2021-10-14 15:25:15.867142,-73
2021-10-14 15:25:15.867151,17
2021-10-14 15:25:15.867159,53
2021-10-14 15:25:15.867167,-4
2021-10-14 15:25:15.867175,31
2021-10-14 15:25:15.867184,76
2021-10-14 15:25:15.867192,66
2021-10-14 15:25:15.867201,83
2021-10-14 15:25:15.867209,112
2021-10-14 15:25:15.867217,125
2021-10-14 15:25:15.867226,144
2021-10-14 15:25:15.867234,171
2021-10-14 15:25:15.867246,191
2021-10-14 15:25:15.867255,215
2021-10-14 15:25:16.092336,252
2021-10-14 15:25:16.092357,287
2021-10-14 15:25:16.092366,323
2021-10-14 15:25:16.092375,360
2021-10-14 15:25:16.092383,387
2021-10-14 15:25:16.092392,404
2021-10-14 15:25:16.092400,412
2021-10-14 15:25:16.092409,412
2021-10-14 15:25:16.092417,404
2021-10-14 15:25:16.092425,377
2021-10-14 15:25:16.092434,321
2021-10-14 15:25:16.092442,225
2021-10-14 15:25:16.092451,110
2021-10-14 15:25:16.092459,2
2021-10-14 15:25:16.092467,-80
2021-10-14 15:25:16.092476,-139
2021-10-14 15:25:16.092484,-179
2021-10-14 15:25:16.092493,-201
2021-10-14 15:25:16.092501,-213
2021-10-14 15:25:16.092509,-213
2021-10-14 15:25:16.092518,-211
2021-10-14 15:25:16.092526,-206
2021-10-14 15:25:16.092534,-188
2021-10-14 15:25:16.092542,-171
2021-10-14 15:25:16.092551,-164
2021-10-14 15:25:16.092559,-152
2021-10-14 15:25:16.092567,-132
2021-10-14 15:25:16.092576,-122
2021-10-14 15:25:16.092584,-112
2021-10-14 15:25:16.092592,-105
2021-10-14 15:25:16.362201,-105
2021-10-14 15:25:16.362228,-105
2021-10-14 15:25:16.362237,-93
2021-10-14 15:25:16.362246,-83
2021-10-14 15:25:16.362255,-83
2021-10-14 15:25:16.362263,-88
2021-10-14 15:25:16.362272,-95
2021-10-14 15:25:16.362280,-95
2021-10-14 15:25:16.362289,-88
2021-10-14 15:25:16.362297,-83
2021-10-14 15:25:16.362306,-85
2021-10-14 15:25:16.362314,-83
2021-10-14 15:25:16.362323,-85
2021-10-14 15:25:16.362331,-83
2021-10-14 15:25:16.362339,-73
2021-10-14 15:25:16.362348,-68
2021-10-14 15:25:16.362356,-68
2021-10-14 15:25:16.362365,-71
2021-10-14 15:25:16.362373,-71
2021-10-14 15:25:16.362382,-61
2021-10-14 15:25:16.362390,-53
2021-10-14 15:25:16.362399,-56
2021-10-14 15:25:16.362407,-53
2021-10-14 15:25:16.362416,-46
2021-10-14 15:25:16.362424,-46
2021-10-14 15:25:16.362432,-41
2021-10-14 15:25:16.362441,-29
2021-10-14 15:25:16.362449,-26
2021-10-14 15:25:16.362458,-26
2021-10-14 15:25:16.362466,-24
2021-10-14 15:25:16.542976,-24
2021-10-14 15:25:16.542996,-29
2021-10-14 15:25:16.543006,-36
2021-10-14 15:25:16.543015,-14
2021-10-14 15:25:16.543023,34
2021-10-14 15:25:16.543032,46
2021-10-14 15:25:16.543040,29
2021-10-14 15:25:16.543049,24
2021-10-14 15:25:16.543057,17
2021-10-14 15:25:16.543066,0
2021-10-14 15:25:16.543074,-14
2021-10-14 15:25:16.543083,-14
2021-10-14 15:25:16.543091,-7
2021-10-14 15:25:16.543100,-7
2021-10-14 15:25:16.543109,-12
2021-10-14 15:25:16.543117,-14
2021-10-14 15:25:16.543126,-24
2021-10-14 15:25:16.543135,-19
2021-10-14 15:25:16.543144,103
2021-10-14 15:25:16.543153,412
2021-10-14 15:25:16.543161,775
2021-10-14 15:25:16.543170,772
2021-10-14 15:25:16.543179,76
2021-10-14 15:25:16.543187,-581
2021-10-14 15:25:16.543196,-309
2021-10-14 15:25:16.543204,115
2021-10-14 15:25:16.543213,-4
2021-10-14 15:25:16.543221,-76
2021-10-14 15:25:16.543230,39
2021-10-14 15:25:16.543238,31
2021-10-14 15:25:16.722620,2
2021-10-14 15:25:16.722641,56
2021-10-14 15:25:16.722651,80
2021-10-14 15:25:16.722659,63
2021-10-14 15:25:16.722668,76
2021-10-14 15:25:16.722676,107
2021-10-14 15:25:16.722685,130
2021-10-14 15:25:16.722693,152
2021-10-14 15:25:16.722701,176
2021-10-14 15:25:16.722710,201
2021-10-14 15:25:16.722718,223
2021-10-14 15:25:16.722726,252
2021-10-14 15:25:16.722735,291
2021-10-14 15:25:16.722743,331
2021-10-14 15:25:16.722751,358
2021-10-14 15:25:16.722759,375
2021-10-14 15:25:16.722768,385
2021-10-14 15:25:16.722776,397
2021-10-14 15:25:16.722784,404
2021-10-14 15:25:16.722793,395
2021-10-14 15:25:16.722801,370
2021-10-14 15:25:16.722810,321
2021-10-14 15:25:16.722818,225
2021-10-14 15:25:16.722827,120
2021-10-14 15:25:16.722835,36
2021-10-14 15:25:16.722843,-46
2021-10-14 15:25:16.722852,-120
2021-10-14 15:25:16.722860,-169
2021-10-14 15:25:16.722868,-188
2021-10-14 15:25:16.722877,-198
2021-10-14 15:25:16.992977,-208
2021-10-14 15:25:16.992998,-201
2021-10-14 15:25:16.993008,-186
2021-10-14 15:25:16.993016,-186
2021-10-14 15:25:16.993025,-198
2021-10-14 15:25:16.993033,-186
2021-10-14 15:25:16.993042,-166
2021-10-14 15:25:16.993051,-164
2021-10-14 15:25:16.993059,-161
2021-10-14 15:25:16.993068,-154
2021-10-14 15:25:16.993076,-154
2021-10-14 15:25:16.993085,-152
2021-10-14 15:25:16.993093,-144
2021-10-14 15:25:16.993101,-134
2021-10-14 15:25:16.993110,-122
2021-10-14 15:25:16.993118,-120
2021-10-14 15:25:16.993126,-127
2021-10-14 15:25:16.993135,-122
2021-10-14 15:25:16.993143,-117
2021-10-14 15:25:16.993151,-120
2021-10-14 15:25:16.993160,-115
2021-10-14 15:25:16.993168,-112
2021-10-14 15:25:16.993176,-122
2021-10-14 15:25:16.993184,-132
2021-10-14 15:25:16.993193,-130
2021-10-14 15:25:16.993201,-120
2021-10-14 15:25:16.993209,-115
2021-10-14 15:25:16.993218,-120
2021-10-14 15:25:16.993226,-110
2021-10-14 15:25:16.993235,-95
2021-10-14 15:25:17.263056,-93
2021-10-14 15:25:17.263077,-90
2021-10-14 15:25:17.263087,-93
2021-10-14 15:25:17.263095,-107
2021-10-14 15:25:17.263104,-103
2021-10-14 15:25:17.263112,-85
2021-10-14 15:25:17.263121,-80
2021-10-14 15:25:17.263129,-83
2021-10-14 15:25:17.263138,-88
2021-10-14 15:25:17.263146,-103
2021-10-14 15:25:17.263155,-103
2021-10-14 15:25:17.263163,-73
2021-10-14 15:25:17.263171,-36
2021-10-14 15:25:17.263180,-9
2021-10-14 15:25:17.263188,-7
2021-10-14 15:25:17.263197,-29
2021-10-14 15:25:17.263205,-51
2021-10-14 15:25:17.263213,-61
2021-10-14 15:25:17.263222,-71
2021-10-14 15:25:17.263230,-78
2021-10-14 15:25:17.263238,-83
2021-10-14 15:25:17.263247,-93
2021-10-14 15:25:17.263255,-88
2021-10-14 15:25:17.263263,-80
2021-10-14 15:25:17.263271,-85
2021-10-14 15:25:17.263280,-88
2021-10-14 15:25:17.263288,-29
2021-10-14 15:25:17.263296,191
2021-10-14 15:25:17.263305,566
2021-10-14 15:25:17.263313,799
2021-10-14 15:25:17.443012,402
2021-10-14 15:25:17.443032,-451
2021-10-14 15:25:17.443041,-628
2021-10-14 15:25:17.443050,-80
2021-10-14 15:25:17.443058,51
2021-10-14 15:25:17.443065,-132
2021-10-14 15:25:17.443073,-53
2021-10-14 15:25:17.443081,9
2021-10-14 15:25:17.443088,-63
2021-10-14 15:25:17.443096,-51
2021-10-14 15:25:17.443104,0
2021-10-14 15:25:17.443111,-2
2021-10-14 15:25:17.443119,7
2021-10-14 15:25:17.443127,46
2021-10-14 15:25:17.443135,56
2021-10-14 15:25:17.443143,63
2021-10-14 15:25:17.443151,103
2021-10-14 15:25:17.443158,142
2021-10-14 15:25:17.443166,174
2021-10-14 15:25:17.443174,206
2021-10-14 15:25:17.443182,235
2021-10-14 15:25:17.443189,269
2021-10-14 15:25:17.443197,309
2021-10-14 15:25:17.443205,343
2021-10-14 15:25:17.443212,368
2021-10-14 15:25:17.443220,382
2021-10-14 15:25:17.443228,382
2021-10-14 15:25:17.443235,370
2021-10-14 15:25:17.443243,345
2021-10-14 15:25:17.443251,299
2021-10-14 15:25:17.757026,213
2021-10-14 15:25:17.757048,100
2021-10-14 15:25:17.757057,-14
2021-10-14 15:25:17.757066,-112
2021-10-14 15:25:17.757075,-188
2021-10-14 15:25:17.757083,-238
2021-10-14 15:25:17.757092,-269
2021-10-14 15:25:17.757100,-294
2021-10-14 15:25:17.757108,-306
2021-10-14 15:25:17.757117,-299
2021-10-14 15:25:17.757125,-289
2021-10-14 15:25:17.757133,-279
2021-10-14 15:25:17.757142,-267
2021-10-14 15:25:17.757150,-267
2021-10-14 15:25:17.757158,-274
2021-10-14 15:25:17.757166,-262
2021-10-14 15:25:17.757175,-233
2021-10-14 15:25:17.757183,-215
2021-10-14 15:25:17.757191,-215
2021-10-14 15:25:17.757200,-211
2021-10-14 15:25:17.757208,-198
2021-10-14 15:25:17.757217,-186
2021-10-14 15:25:17.757225,-179
2021-10-14 15:25:17.757236,-171
2021-10-14 15:25:17.757245,-166
2021-10-14 15:25:17.757253,-169
2021-10-14 15:25:17.757261,-166
2021-10-14 15:25:17.757270,-157
2021-10-14 15:25:17.757278,-149
2021-10-14 15:25:17.757286,-144
2021-10-14 15:25:17.892974,-144
2021-10-14 15:25:17.892994,-139
2021-10-14 15:25:17.893004,-134
2021-10-14 15:25:17.893013,-130
2021-10-14 15:25:17.893021,-122
2021-10-14 15:25:17.893030,-112
2021-10-14 15:25:17.893038,-120
2021-10-14 15:25:17.893046,-125
2021-10-14 15:25:17.893055,-112
2021-10-14 15:25:17.893063,-103
2021-10-14 15:25:17.893072,-103
2021-10-14 15:25:17.893080,-93
2021-10-14 15:25:17.893089,-88
2021-10-14 15:25:17.893097,-93
2021-10-14 15:25:17.893105,-98
2021-10-14 15:25:17.893113,-103
2021-10-14 15:25:17.893122,-78
2021-10-14 15:25:17.893130,-31
2021-10-14 15:25:17.893139,-12
2021-10-14 15:25:17.893147,-24
2021-10-14 15:25:17.893155,-36
2021-10-14 15:25:17.893164,-53
2021-10-14 15:25:17.893172,-71
2021-10-14 15:25:17.893181,-76
2021-10-14 15:25:17.893189,-78
2021-10-14 15:25:17.893197,-78
2021-10-14 15:25:17.893206,-73
2021-10-14 15:25:17.893214,-73
2021-10-14 15:25:17.893222,-78
2021-10-14 15:25:17.893231,-85
2021-10-14 15:25:18.118016,-73
2021-10-14 15:25:18.118038,17
2021-10-14 15:25:18.118048,269
2021-10-14 15:25:18.118057,650
2021-10-14 15:25:18.118065,804
2021-10-14 15:25:18.118074,262
2021-10-14 15:25:18.118082,-544
2021-10-14 15:25:18.118090,-498
2021-10-14 15:25:18.118099,26
2021-10-14 15:25:18.118107,26
2021-10-14 15:25:18.118116,-125
2021-10-14 15:25:18.118124,-31
2021-10-14 15:25:18.118132,0
2021-10-14 15:25:18.118141,-39
2021-10-14 15:25:18.118149,2
2021-10-14 15:25:18.118158,36
2021-10-14 15:25:18.118166,29
2021-10-14 15:25:18.118175,39
2021-10-14 15:25:18.118183,68
2021-10-14 15:25:18.118191,90
2021-10-14 15:25:18.118200,120
2021-10-14 15:25:18.118208,152
2021-10-14 15:25:18.118216,179
2021-10-14 15:25:18.118225,215
2021-10-14 15:25:18.118233,252
2021-10-14 15:25:18.118241,289
2021-10-14 15:25:18.118250,331
2021-10-14 15:25:18.118258,377
2021-10-14 15:25:18.118266,409
2021-10-14 15:25:18.118275,424
2021-10-14 15:25:18.386642,439
2021-10-14 15:25:18.386663,446
2021-10-14 15:25:18.386672,431
2021-10-14 15:25:18.386681,397
2021-10-14 15:25:18.386689,343
2021-10-14 15:25:18.386698,242
2021-10-14 15:25:18.386706,120
2021-10-14 15:25:18.386715,24
2021-10-14 15:25:18.386723,-56
2021-10-14 15:25:18.386731,-132
2021-10-14 15:25:18.386739,-176
2021-10-14 15:25:18.386748,-203
2021-10-14 15:25:18.386756,-218
2021-10-14 15:25:18.386765,-213
2021-10-14 15:25:18.386773,-211
2021-10-14 15:25:18.386781,-211
2021-10-14 15:25:18.386790,-196
2021-10-14 15:25:18.386798,-186
2021-10-14 15:25:18.386806,-184
2021-10-14 15:25:18.386814,-171
2021-10-14 15:25:18.386822,-161
2021-10-14 15:25:18.386831,-152
2021-10-14 15:25:18.386839,-137
2021-10-14 15:25:18.386847,-127
2021-10-14 15:25:18.386855,-125
2021-10-14 15:25:18.386864,-107
2021-10-14 15:25:18.386872,-90
2021-10-14 15:25:18.386880,-95
2021-10-14 15:25:18.386889,-98
2021-10-14 15:25:18.386897,-88
2021-10-14 15:25:18.567646,-83
2021-10-14 15:25:18.567667,-80
2021-10-14 15:25:18.567676,-76
2021-10-14 15:25:18.567685,-76
2021-10-14 15:25:18.567693,-78
2021-10-14 15:25:18.567702,-78
2021-10-14 15:25:18.567710,-80
2021-10-14 15:25:18.567719,-80
2021-10-14 15:25:18.567727,-73
2021-10-14 15:25:18.567736,-76
2021-10-14 15:25:18.567744,-95
2021-10-14 15:25:18.567753,-100
2021-10-14 15:25:18.567761,-88
2021-10-14 15:25:18.567770,-78
2021-10-14 15:25:18.567778,-76
2021-10-14 15:25:18.567786,-73
2021-10-14 15:25:18.567795,-71
2021-10-14 15:25:18.567803,-61
2021-10-14 15:25:18.567812,-51
2021-10-14 15:25:18.567820,-49
2021-10-14 15:25:18.567828,-49
2021-10-14 15:25:18.567837,-63
2021-10-14 15:25:18.567845,-80
2021-10-14 15:25:18.567853,-76
2021-10-14 15:25:18.567861,-44
2021-10-14 15:25:18.567870,-7
2021-10-14 15:25:18.567878,9
2021-10-14 15:25:18.567887,0
2021-10-14 15:25:18.567895,-12
2021-10-14 15:25:18.567903,-24
2021-10-14 15:25:18.792610,-46
2021-10-14 15:25:18.792630,-56
2021-10-14 15:25:18.792639,-53
2021-10-14 15:25:18.792648,-53
2021-10-14 15:25:18.792656,-61
2021-10-14 15:25:18.792665,-61
2021-10-14 15:25:18.792673,-53
2021-10-14 15:25:18.792681,-51
2021-10-14 15:25:18.792690,-34
2021-10-14 15:25:18.792698,44
2021-10-14 15:25:18.792707,284
2021-10-14 15:25:18.792715,679
2021-10-14 15:25:18.792724,863
2021-10-14 15:25:18.792732,353
2021-10-14 15:25:18.792741,-441
2021-10-14 15:25:18.792749,-434
2021-10-14 15:25:18.792758,66
2021-10-14 15:25:18.792766,80
2021-10-14 15:25:18.792775,-58
2021-10-14 15:25:18.792783,51
2021-10-14 15:25:18.792791,85
2021-10-14 15:25:18.792800,29
2021-10-14 15:25:18.792808,56
2021-10-14 15:25:18.792817,90
2021-10-14 15:25:18.792825,93
2021-10-14 15:25:18.792834,115
2021-10-14 15:25:18.792842,144
2021-10-14 15:25:18.792850,152
2021-10-14 15:25:18.792859,169
2021-10-14 15:25:18.792867,203
2021-10-14 15:25:19.063057,235
2021-10-14 15:25:19.063079,262
2021-10-14 15:25:19.063088,291
2021-10-14 15:25:19.063097,314
2021-10-14 15:25:19.063105,343
2021-10-14 15:25:19.063114,387
2021-10-14 15:25:19.063122,422
2021-10-14 15:25:19.063130,441
2021-10-14 15:25:19.063139,449
2021-10-14 15:25:19.063147,441
2021-10-14 15:25:19.063156,429
2021-10-14 15:25:19.063164,407
2021-10-14 15:25:19.063173,360
2021-10-14 15:25:19.063181,279
2021-10-14 15:25:19.063190,166
2021-10-14 15:25:19.063198,44
2021-10-14 15:25:19.063207,-39
2021-10-14 15:25:19.063215,-93
2021-10-14 15:25:19.063223,-147
2021-10-14 15:25:19.063232,-181
2021-10-14 15:25:19.063240,-186
2021-10-14 15:25:19.063248,-191
2021-10-14 15:25:19.063257,-188
2021-10-14 15:25:19.063265,-179
2021-10-14 15:25:19.063274,-171
2021-10-14 15:25:19.063282,-169
2021-10-14 15:25:19.063290,-157
2021-10-14 15:25:19.063299,-149
2021-10-14 15:25:19.063307,-142
2021-10-14 15:25:19.063315,-127
2021-10-14 15:25:19.288007,-110
2021-10-14 15:25:19.288028,-105
2021-10-14 15:25:19.288037,-105
2021-10-14 15:25:19.288046,-100
2021-10-14 15:25:19.288055,-85
2021-10-14 15:25:19.288063,-78
2021-10-14 15:25:19.288071,-78
2021-10-14 15:25:19.288080,-78
2021-10-14 15:25:19.288088,-83
2021-10-14 15:25:19.288096,-90
2021-10-14 15:25:19.288105,-83
2021-10-14 15:25:19.288113,-78
2021-10-14 15:25:19.288121,-78
2021-10-14 15:25:19.288130,-73
2021-10-14 15:25:19.288138,-76
2021-10-14 15:25:19.288146,-88
2021-10-14 15:25:19.288155,-83
2021-10-14 15:25:19.288163,-68
2021-10-14 15:25:19.288171,-63
2021-10-14 15:25:19.288180,-66
2021-10-14 15:25:19.288188,-63
2021-10-14 15:25:19.288196,-63
2021-10-14 15:25:19.288205,-61
2021-10-14 15:25:19.288213,-56
2021-10-14 15:25:19.288221,-53
2021-10-14 15:25:19.288230,-51
2021-10-14 15:25:19.288238,-56
2021-10-14 15:25:19.288247,-63
2021-10-14 15:25:19.288255,-61
2021-10-14 15:25:19.288263,-51
2021-10-14 15:25:19.512647,-49
2021-10-14 15:25:19.512668,-53
2021-10-14 15:25:19.512677,-58
2021-10-14 15:25:19.512686,-66
2021-10-14 15:25:19.512695,-68
2021-10-14 15:25:19.512703,-66
2021-10-14 15:25:19.512712,-58
2021-10-14 15:25:19.512721,-36
2021-10-14 15:25:19.512729,-7
2021-10-14 15:25:19.512738,0
2021-10-14 15:25:19.512746,-7
2021-10-14 15:25:19.512754,-14
2021-10-14 15:25:19.512763,-24
2021-10-14 15:25:19.512771,-44
2021-10-14 15:25:19.512780,-63
2021-10-14 15:25:19.512788,-66
2021-10-14 15:25:19.512797,-51
2021-10-14 15:25:19.512805,-41
2021-10-14 15:25:19.512813,-41
2021-10-14 15:25:19.512822,-41
2021-10-14 15:25:19.512830,-49
2021-10-14 15:25:19.512839,-29
2021-10-14 15:25:19.512847,125
2021-10-14 15:25:19.512855,466
2021-10-14 15:25:19.512864,824
2021-10-14 15:25:19.512872,731
2021-10-14 15:25:19.512881,-41
2021-10-14 15:25:19.512889,-596
2021-10-14 15:25:19.512897,-218
2021-10-14 15:25:19.512906,132
2021-10-14 15:25:19.737649,-34
2021-10-14 15:25:19.737670,-63
2021-10-14 15:25:19.737679,51
2021-10-14 15:25:19.737688,24
2021-10-14 15:25:19.737696,9
2021-10-14 15:25:19.737705,61
2021-10-14 15:25:19.737713,71
2021-10-14 15:25:19.737721,63
2021-10-14 15:25:19.737730,85
2021-10-14 15:25:19.737738,112
2021-10-14 15:25:19.737746,132
2021-10-14 15:25:19.737754,157
2021-10-14 15:25:19.737763,176
2021-10-14 15:25:19.737771,198
2021-10-14 15:25:19.737779,228
2021-10-14 15:25:19.737788,262
2021-10-14 15:25:19.737796,296
2021-10-14 15:25:19.737808,333
2021-10-14 15:25:19.737816,370
2021-10-14 15:25:19.737824,399
2021-10-14 15:25:19.737833,417
2021-10-14 15:25:19.737841,422
2021-10-14 15:25:19.737848,426
2021-10-14 15:25:19.737857,417
2021-10-14 15:25:19.737865,380
2021-10-14 15:25:19.737873,318
2021-10-14 15:25:19.737881,238
2021-10-14 15:25:19.737890,127
2021-10-14 15:25:19.737898,19
2021-10-14 15:25:19.737906,-58
2021-10-14 15:25:20.007823,-117
2021-10-14 15:25:20.007845,-171
2021-10-14 15:25:20.007861,-208
2021-10-14 15:25:20.007870,-215
2021-10-14 15:25:20.007879,-220
2021-10-14 15:25:20.007887,-223
2021-10-14 15:25:20.007896,-218
2021-10-14 15:25:20.007904,-208
2021-10-14 15:25:20.007912,-201
2021-10-14 15:25:20.007921,-193
2021-10-14 15:25:20.007929,-181
2021-10-14 15:25:20.007938,-166
2021-10-14 15:25:20.007946,-166
2021-10-14 15:25:20.007955,-164
2021-10-14 15:25:20.007963,-149
2021-10-14 15:25:20.007972,-147
2021-10-14 15:25:20.007980,-149
2021-10-14 15:25:20.007988,-142
2021-10-14 15:25:20.007997,-134
2021-10-14 15:25:20.008005,-139
2021-10-14 15:25:20.008014,-147
2021-10-14 15:25:20.008022,-139
2021-10-14 15:25:20.008030,-127
2021-10-14 15:25:20.008039,-134
2021-10-14 15:25:20.008047,-142
2021-10-14 15:25:20.008056,-139
2021-10-14 15:25:20.008064,-152
2021-10-14 15:25:20.008072,-166
2021-10-14 15:25:20.008080,-154
2021-10-14 15:25:20.008089,-142
2021-10-14 15:25:20.232663,-139
2021-10-14 15:25:20.232683,-132
2021-10-14 15:25:20.232693,-134
2021-10-14 15:25:20.232702,-149
2021-10-14 15:25:20.232710,-144
2021-10-14 15:25:20.232719,-139
2021-10-14 15:25:20.232727,-154
2021-10-14 15:25:20.232736,-157
2021-10-14 15:25:20.232744,-147
2021-10-14 15:25:20.232753,-142
2021-10-14 15:25:20.232761,-142
2021-10-14 15:25:20.232770,-152
2021-10-14 15:25:20.232778,-154
2021-10-14 15:25:20.232786,-117
2021-10-14 15:25:20.232795,-76
2021-10-14 15:25:20.232803,-73
2021-10-14 15:25:20.232812,-90
2021-10-14 15:25:20.232820,-110
2021-10-14 15:25:20.232828,-127
2021-10-14 15:25:20.232837,-132
2021-10-14 15:25:20.232846,-137
2021-10-14 15:25:20.232854,-144
2021-10-14 15:25:20.232863,-144
2021-10-14 15:25:20.232871,-134
2021-10-14 15:25:20.232880,-132
2021-10-14 15:25:20.232888,-130
2021-10-14 15:25:20.232896,-125
2021-10-14 15:25:20.232905,-100
2021-10-14 15:25:20.232913,29
2021-10-14 15:25:20.232921,348
2021-10-14 15:25:20.456705,714
2021-10-14 15:25:20.456726,694
2021-10-14 15:25:20.456736,-34
2021-10-14 15:25:20.456745,-687
2021-10-14 15:25:20.456753,-370
2021-10-14 15:25:20.456761,76
2021-10-14 15:25:20.456770,-44
2021-10-14 15:25:20.456778,-105
2021-10-14 15:25:20.456787,14
2021-10-14 15:25:20.456795,-4
2021-10-14 15:25:20.456803,-36
2021-10-14 15:25:20.456812,17
2021-10-14 15:25:20.456820,44
2021-10-14 15:25:20.456829,36
2021-10-14 15:25:20.456837,58
2021-10-14 15:25:20.456846,85
2021-10-14 15:25:20.456855,100
2021-10-14 15:25:20.456863,120
2021-10-14 15:25:20.456872,157
2021-10-14 15:25:20.456880,196
2021-10-14 15:25:20.456889,225
2021-10-14 15:25:20.456897,260
2021-10-14 15:25:20.456906,301
2021-10-14 15:25:20.456914,343
2021-10-14 15:25:20.456923,372
2021-10-14 15:25:20.456931,399
2021-10-14 15:25:20.456939,424
2021-10-14 15:25:20.456948,429
2021-10-14 15:25:20.456956,422
2021-10-14 15:25:20.456964,414
2021-10-14 15:25:20.683014,392
2021-10-14 15:25:20.683035,326
2021-10-14 15:25:20.683044,208
2021-10-14 15:25:20.683053,68
2021-10-14 15:25:20.683062,-36
2021-10-14 15:25:20.683070,-105
2021-10-14 15:25:20.683079,-181
2021-10-14 15:25:20.683087,-247
2021-10-14 15:25:20.683095,-267
2021-10-14 15:25:20.683104,-269
2021-10-14 15:25:20.683112,-279
2021-10-14 15:25:20.683121,-272
2021-10-14 15:25:20.683129,-255
2021-10-14 15:25:20.683137,-238
2021-10-14 15:25:20.683146,-225
2021-10-14 15:25:20.683154,-215
2021-10-14 15:25:20.683162,-201
2021-10-14 15:25:20.683170,-186
2021-10-14 15:25:20.683179,-174
2021-10-14 15:25:20.683187,-157
2021-10-14 15:25:20.683195,-142
2021-10-14 15:25:20.683204,-149
2021-10-14 15:25:20.683212,-152
2021-10-14 15:25:20.683220,-132
2021-10-14 15:25:20.683229,-122
2021-10-14 15:25:20.683237,-130
2021-10-14 15:25:20.683246,-122
2021-10-14 15:25:20.683254,-107
2021-10-14 15:25:20.683263,-107
2021-10-14 15:25:20.683271,-105
2021-10-14 15:25:20.952666,-98
2021-10-14 15:25:20.952688,-100
2021-10-14 15:25:20.952698,-110
2021-10-14 15:25:20.952706,-110
2021-10-14 15:25:20.952715,-103
2021-10-14 15:25:20.952724,-98
2021-10-14 15:25:20.952732,-95
2021-10-14 15:25:20.952740,-88
2021-10-14 15:25:20.952749,-83
2021-10-14 15:25:20.952757,-90
2021-10-14 15:25:20.952765,-93
2021-10-14 15:25:20.952774,-83
2021-10-14 15:25:20.952782,-71
2021-10-14 15:25:20.952790,-66
2021-10-14 15:25:20.952799,-73
2021-10-14 15:25:20.952807,-85
2021-10-14 15:25:20.952816,-78
2021-10-14 15:25:20.952824,-63
2021-10-14 15:25:20.952832,-58
2021-10-14 15:25:20.952841,-58
2021-10-14 15:25:20.952849,-71
2021-10-14 15:25:20.952857,-78
2021-10-14 15:25:20.952866,-56
2021-10-14 15:25:20.952874,-19
2021-10-14 15:25:20.952882,2
2021-10-14 15:25:20.952891,4
2021-10-14 15:25:20.952899,-9
2021-10-14 15:25:20.952907,-31
2021-10-14 15:25:20.952916,-39
2021-10-14 15:25:20.952924,-41
2021-10-14 15:25:21.178059,-44
2021-10-14 15:25:21.178080,-41
2021-10-14 15:25:21.178089,-41
2021-10-14 15:25:21.178098,-44
2021-10-14 15:25:21.178106,-39
2021-10-14 15:25:21.178114,-34
2021-10-14 15:25:21.178123,-14
2021-10-14 15:25:21.178132,76
2021-10-14 15:25:21.178140,318
2021-10-14 15:25:21.178148,682
2021-10-14 15:25:21.178157,851
2021-10-14 15:25:21.178165,348
2021-10-14 15:25:21.178173,-453
2021-10-14 15:25:21.178182,-446
2021-10-14 15:25:21.178190,56
2021-10-14 15:25:21.178198,58
2021-10-14 15:25:21.178207,-80
2021-10-14 15:25:21.178215,24
2021-10-14 15:25:21.178224,58
2021-10-14 15:25:21.178232,7
2021-10-14 15:25:21.178240,34
2021-10-14 15:25:21.178249,68
2021-10-14 15:25:21.178257,76
2021-10-14 15:25:21.178265,98
2021-10-14 15:25:21.178273,117
2021-10-14 15:25:21.178282,130
2021-10-14 15:25:21.178290,149
2021-10-14 15:25:21.178298,176
2021-10-14 15:25:21.178307,208
2021-10-14 15:25:21.178315,242
2021-10-14 15:25:21.401964,279
2021-10-14 15:25:21.401983,316
2021-10-14 15:25:21.401992,343
2021-10-14 15:25:21.402001,370
2021-10-14 15:25:21.402010,402
2021-10-14 15:25:21.402018,431
2021-10-14 15:25:21.402027,441
2021-10-14 15:25:21.402035,434
2021-10-14 15:25:21.402043,417
2021-10-14 15:25:21.402052,395
2021-10-14 15:25:21.402060,353
2021-10-14 15:25:21.402069,274
2021-10-14 15:25:21.402077,169
2021-10-14 15:25:21.402085,51
2021-10-14 15:25:21.402094,-51
2021-10-14 15:25:21.402102,-117
2021-10-14 15:25:21.402111,-161
2021-10-14 15:25:21.402119,-198
2021-10-14 15:25:21.402127,-215
2021-10-14 15:25:21.402136,-228
2021-10-14 15:25:21.402144,-228
2021-10-14 15:25:21.402152,-223
2021-10-14 15:25:21.402161,-218
2021-10-14 15:25:21.402169,-196
2021-10-14 15:25:21.402177,-181
2021-10-14 15:25:21.402186,-179
2021-10-14 15:25:21.402194,-171
2021-10-14 15:25:21.402203,-161
2021-10-14 15:25:21.402211,-159
2021-10-14 15:25:21.402220,-144
2021-10-14 15:25:21.582632,-127
2021-10-14 15:25:21.582652,-127
2021-10-14 15:25:21.582661,-127
2021-10-14 15:25:21.582670,-120
2021-10-14 15:25:21.582678,-115
2021-10-14 15:25:21.582687,-110
2021-10-14 15:25:21.582695,-112
2021-10-14 15:25:21.582704,-117
2021-10-14 15:25:21.582712,-122
2021-10-14 15:25:21.582720,-122
2021-10-14 15:25:21.582729,-117
2021-10-14 15:25:21.582737,-105
2021-10-14 15:25:21.582746,-107
2021-10-14 15:25:21.582754,-120
2021-10-14 15:25:21.582763,-127
2021-10-14 15:25:21.582771,-147
2021-10-14 15:25:21.582779,-152
2021-10-14 15:25:21.582788,-125
2021-10-14 15:25:21.582796,-120
2021-10-14 15:25:21.582804,-142
2021-10-14 15:25:21.582813,-147
2021-10-14 15:25:21.582821,-134
2021-10-14 15:25:21.582830,-125
2021-10-14 15:25:21.582838,-122
2021-10-14 15:25:21.582846,-134
2021-10-14 15:25:21.582855,-142
2021-10-14 15:25:21.582863,-142
2021-10-14 15:25:21.582872,-152
2021-10-14 15:25:21.582880,-149
2021-10-14 15:25:21.582888,-110
2021-10-14 15:25:21.807643,-76
2021-10-14 15:25:21.807664,-78
2021-10-14 15:25:21.807673,-90
2021-10-14 15:25:21.807682,-95
2021-10-14 15:25:21.807690,-100
2021-10-14 15:25:21.807698,-112
2021-10-14 15:25:21.807707,-137
2021-10-14 15:25:21.807715,-137
2021-10-14 15:25:21.807723,-115
2021-10-14 15:25:21.807732,-112
2021-10-14 15:25:21.807740,-115
2021-10-14 15:25:21.807748,-110
2021-10-14 15:25:21.807757,-112
2021-10-14 15:25:21.807765,-85
2021-10-14 15:25:21.807773,66
2021-10-14 15:25:21.807782,392
2021-10-14 15:25:21.807790,738
2021-10-14 15:25:21.807798,664
2021-10-14 15:25:21.807807,-100
2021-10-14 15:25:21.807815,-696
2021-10-14 15:25:21.807823,-323
2021-10-14 15:25:21.807832,73
2021-10-14 15:25:21.807840,-80
2021-10-14 15:25:21.807848,-125
2021-10-14 15:25:21.807856,-12
2021-10-14 15:25:21.807865,-41
2021-10-14 15:25:21.807873,-63
2021-10-14 15:25:21.807881,-4
2021-10-14 15:25:21.807890,19
2021-10-14 15:25:21.807898,19
2021-10-14 15:25:22.032633,39
2021-10-14 15:25:22.032652,66
2021-10-14 15:25:22.032661,98
2021-10-14 15:25:22.032668,122
2021-10-14 15:25:22.032676,144
2021-10-14 15:25:22.032681,164
2021-10-14 15:25:22.032685,193
2021-10-14 15:25:22.032689,242
2021-10-14 15:25:22.032694,282
2021-10-14 15:25:22.032698,314
2021-10-14 15:25:22.032702,350
2021-10-14 15:25:22.032706,375
2021-10-14 15:25:22.032711,387
2021-10-14 15:25:22.032715,407
2021-10-14 15:25:22.032721,407
2021-10-14 15:25:22.032726,377
2021-10-14 15:25:22.032730,336
2021-10-14 15:25:22.032735,272
2021-10-14 15:25:22.032739,166
2021-10-14 15:25:22.032744,44
2021-10-14 15:25:22.032748,-71
2021-10-14 15:25:22.032752,-164
2021-10-14 15:25:22.032757,-228
2021-10-14 15:25:22.032761,-260
2021-10-14 15:25:22.032765,-279
2021-10-14 15:25:22.032770,-284
2021-10-14 15:25:22.032774,-282
2021-10-14 15:25:22.032778,-277
2021-10-14 15:25:22.032783,-264
2021-10-14 15:25:22.032787,-252
2021-10-14 15:25:22.257940,-240
2021-10-14 15:25:22.257959,-223
2021-10-14 15:25:22.257968,-208
2021-10-14 15:25:22.257977,-198
2021-10-14 15:25:22.257986,-193
2021-10-14 15:25:22.257994,-186
2021-10-14 15:25:22.258002,-174
2021-10-14 15:25:22.258011,-159
2021-10-14 15:25:22.258019,-152
2021-10-14 15:25:22.258027,-149
2021-10-14 15:25:22.258035,-149
2021-10-14 15:25:22.258044,-142
2021-10-14 15:25:22.258052,-137
2021-10-14 15:25:22.258060,-132
2021-10-14 15:25:22.258069,-130
2021-10-14 15:25:22.258077,-132
2021-10-14 15:25:22.258085,-125
2021-10-14 15:25:22.258093,-120
2021-10-14 15:25:22.258102,-120
2021-10-14 15:25:22.258110,-110
2021-10-14 15:25:22.258118,-100
2021-10-14 15:25:22.258126,-112
2021-10-14 15:25:22.258135,-125
2021-10-14 15:25:22.258143,-112
2021-10-14 15:25:22.258151,-98
2021-10-14 15:25:22.258160,-98
2021-10-14 15:25:22.258168,-93
2021-10-14 15:25:22.258176,-93
2021-10-14 15:25:22.258184,-95
2021-10-14 15:25:22.258193,-95
2021-10-14 15:25:22.526661,-95
2021-10-14 15:25:22.526681,-98
2021-10-14 15:25:22.526690,-85
2021-10-14 15:25:22.526699,-56
2021-10-14 15:25:22.526708,-34
2021-10-14 15:25:22.526716,-44
2021-10-14 15:25:22.526725,-56
2021-10-14 15:25:22.526733,-63
2021-10-14 15:25:22.526741,-80
2021-10-14 15:25:22.526750,-95
2021-10-14 15:25:22.526758,-100
2021-10-14 15:25:22.526767,-98
2021-10-14 15:25:22.526775,-88
2021-10-14 15:25:22.526784,-83
2021-10-14 15:25:22.526792,-85
2021-10-14 15:25:22.526800,-85
2021-10-14 15:25:22.526809,-68
2021-10-14 15:25:22.526817,-2
2021-10-14 15:25:22.526826,203
2021-10-14 15:25:22.526834,579
2021-10-14 15:25:22.526843,856
2021-10-14 15:25:22.526851,505
2021-10-14 15:25:22.526859,-345
2021-10-14 15:25:22.526868,-556
2021-10-14 15:25:22.526876,-26
2021-10-14 15:25:22.526884,107
2021-10-14 15:25:22.526893,-103
2021-10-14 15:25:22.526901,-44
2021-10-14 15:25:22.526910,39
2021-10-14 15:25:22.526918,-4
2021-10-14 15:25:22.752647,12
2021-10-14 15:25:22.752669,63
2021-10-14 15:25:22.752679,66
2021-10-14 15:25:22.752687,66
2021-10-14 15:25:22.752696,88
2021-10-14 15:25:22.752704,117
2021-10-14 15:25:22.752713,142
2021-10-14 15:25:22.752721,171
2021-10-14 15:25:22.752730,196
2021-10-14 15:25:22.752738,215
2021-10-14 15:25:22.752747,252
2021-10-14 15:25:22.752755,301
2021-10-14 15:25:22.752764,343
2021-10-14 15:25:22.752772,382
2021-10-14 15:25:22.752780,417
2021-10-14 15:25:22.752788,431
2021-10-14 15:25:22.752797,449
2021-10-14 15:25:22.752805,466
2021-10-14 15:25:22.752813,456
2021-10-14 15:25:22.752821,429
2021-10-14 15:25:22.752830,377
2021-10-14 15:25:22.752838,284
2021-10-14 15:25:22.752846,174
2021-10-14 15:25:22.752855,73
2021-10-14 15:25:22.752863,-17
2021-10-14 15:25:22.752871,-88
2021-10-14 15:25:22.752880,-142
2021-10-14 15:25:22.752888,-184
2021-10-14 15:25:22.752896,-196
2021-10-14 15:25:22.752905,-181
2021-10-14 15:25:22.978100,-169
2021-10-14 15:25:22.978122,-171
2021-10-14 15:25:22.978131,-174
2021-10-14 15:25:22.978140,-166
2021-10-14 15:25:22.978149,-149
2021-10-14 15:25:22.978157,-134
2021-10-14 15:25:22.978166,-125
2021-10-14 15:25:22.978174,-117
2021-10-14 15:25:22.978183,-117
2021-10-14 15:25:22.978191,-115
2021-10-14 15:25:22.978200,-100
2021-10-14 15:25:22.978208,-85
2021-10-14 15:25:22.978216,-80
2021-10-14 15:25:22.978225,-78
2021-10-14 15:25:22.978233,-80
2021-10-14 15:25:22.978242,-88
2021-10-14 15:25:22.978250,-80
2021-10-14 15:25:22.978259,-71
2021-10-14 15:25:22.978267,-73
2021-10-14 15:25:22.978276,-76
2021-10-14 15:25:22.978284,-76
2021-10-14 15:25:22.978292,-71
2021-10-14 15:25:22.978301,-63
2021-10-14 15:25:22.978309,-66
2021-10-14 15:25:22.978317,-58
2021-10-14 15:25:22.978326,-51
2021-10-14 15:25:22.978334,-58
2021-10-14 15:25:22.978343,-63
2021-10-14 15:25:22.978351,-63
2021-10-14 15:25:22.978360,-58
2021-10-14 15:25:23.203052,-49
2021-10-14 15:25:23.203073,-44
2021-10-14 15:25:23.203082,-53
2021-10-14 15:25:23.203091,-51
2021-10-14 15:25:23.203099,-41
2021-10-14 15:25:23.203108,-36
2021-10-14 15:25:23.203116,-31
2021-10-14 15:25:23.203124,-31
2021-10-14 15:25:23.203132,-41
2021-10-14 15:25:23.203141,-31
2021-10-14 15:25:23.203149,12
2021-10-14 15:25:23.203157,34
2021-10-14 15:25:23.203166,19
2021-10-14 15:25:23.203174,0
2021-10-14 15:25:23.203183,-17
2021-10-14 15:25:23.203191,-34
2021-10-14 15:25:23.203200,-46
2021-10-14 15:25:23.203208,-46
2021-10-14 15:25:23.203216,-44
2021-10-14 15:25:23.203224,-46
2021-10-14 15:25:23.203233,-49
2021-10-14 15:25:23.203241,-51
2021-10-14 15:25:23.203249,-49
2021-10-14 15:25:23.203258,-19
2021-10-14 15:25:23.203266,98
2021-10-14 15:25:23.203274,392
2021-10-14 15:25:23.203283,770
2021-10-14 15:25:23.203291,812
2021-10-14 15:25:23.203299,149
2021-10-14 15:25:23.203307,-547
2021-10-14 15:25:23.473122,-328
2021-10-14 15:25:23.473145,115
2021-10-14 15:25:23.473155,19
2021-10-14 15:25:23.473164,-68
2021-10-14 15:25:23.473173,51
2021-10-14 15:25:23.473181,53
2021-10-14 15:25:23.473190,17
2021-10-14 15:25:23.473198,58
2021-10-14 15:25:23.473207,83
2021-10-14 15:25:23.473215,78
2021-10-14 15:25:23.473224,103
2021-10-14 15:25:23.473233,130
2021-10-14 15:25:23.473241,139
2021-10-14 15:25:23.473250,159
2021-10-14 15:25:23.473258,191
2021-10-14 15:25:23.473267,218
2021-10-14 15:25:23.473276,252
2021-10-14 15:25:23.473284,289
2021-10-14 15:25:23.473293,323
2021-10-14 15:25:23.473301,358
2021-10-14 15:25:23.473310,395
2021-10-14 15:25:23.473318,422
2021-10-14 15:25:23.473327,449
2021-10-14 15:25:23.473335,468
2021-10-14 15:25:23.473343,471
2021-10-14 15:25:23.473352,458
2021-10-14 15:25:23.473360,429
2021-10-14 15:25:23.473369,363
2021-10-14 15:25:23.473377,267
2021-10-14 15:25:23.473386,161
2021-10-14 15:25:23.652706,63
2021-10-14 15:25:23.652727,-26
2021-10-14 15:25:23.652736,-100
2021-10-14 15:25:23.652745,-142
2021-10-14 15:25:23.652754,-159
2021-10-14 15:25:23.652762,-174
2021-10-14 15:25:23.652770,-184
2021-10-14 15:25:23.652779,-181
2021-10-14 15:25:23.652787,-186
2021-10-14 15:25:23.652795,-179
2021-10-14 15:25:23.652803,-149
2021-10-14 15:25:23.652812,-137
2021-10-14 15:25:23.652820,-149
2021-10-14 15:25:23.652829,-152
2021-10-14 15:25:23.652837,-134
2021-10-14 15:25:23.652845,-127
2021-10-14 15:25:23.652853,-134
2021-10-14 15:25:23.652862,-115
2021-10-14 15:25:23.652870,-93
2021-10-14 15:25:23.652878,-85
2021-10-14 15:25:23.652887,-88
2021-10-14 15:25:23.652895,-107
2021-10-14 15:25:23.652904,-107
2021-10-14 15:25:23.652912,-85
2021-10-14 15:25:23.652920,-83
2021-10-14 15:25:23.652928,-93
2021-10-14 15:25:23.652937,-93
2021-10-14 15:25:23.652945,-93
2021-10-14 15:25:23.652953,-93
2021-10-14 15:25:23.652962,-88
2021-10-14 15:25:23.922725,-78
2021-10-14 15:25:23.922746,-76
2021-10-14 15:25:23.922755,-85
2021-10-14 15:25:23.922764,-90
2021-10-14 15:25:23.922773,-88
2021-10-14 15:25:23.922781,-90
2021-10-14 15:25:23.922790,-95
2021-10-14 15:25:23.922798,-83
2021-10-14 15:25:23.922806,-73
2021-10-14 15:25:23.922815,-83
2021-10-14 15:25:23.922823,-80
2021-10-14 15:25:23.922832,-68
2021-10-14 15:25:23.922840,-76
2021-10-14 15:25:23.922848,-88
2021-10-14 15:25:23.922857,-76
2021-10-14 15:25:23.922865,-39
2021-10-14 15:25:23.922874,-12
2021-10-14 15:25:23.922882,-9
2021-10-14 15:25:23.922890,-17
2021-10-14 15:25:23.922899,-36
2021-10-14 15:25:23.922907,-46
2021-10-14 15:25:23.922916,-58
2021-10-14 15:25:23.922924,-78
2021-10-14 15:25:23.922932,-78
2021-10-14 15:25:23.922941,-76
2021-10-14 15:25:23.922949,-88
2021-10-14 15:25:23.922958,-93
2021-10-14 15:25:23.922966,-83
2021-10-14 15:25:23.922974,-71
2021-10-14 15:25:23.922983,-12
2021-10-14 15:25:24.102703,220
2021-10-14 15:25:24.102722,613
2021-10-14 15:25:24.102732,861
2021-10-14 15:25:24.102740,490
2021-10-14 15:25:24.102749,-382
2021-10-14 15:25:24.102757,-630
2021-10-14 15:25:24.102766,-90
2021-10-14 15:25:24.102774,83
2021-10-14 15:25:24.102782,-110
2021-10-14 15:25:24.102791,-34
2021-10-14 15:25:24.102799,61
2021-10-14 15:25:24.102807,-17
2021-10-14 15:25:24.102816,-26
2021-10-14 15:25:24.102824,26
2021-10-14 15:25:24.102832,26
2021-10-14 15:25:24.102841,29
2021-10-14 15:25:24.102849,56
2021-10-14 15:25:24.102858,71
2021-10-14 15:25:24.102866,85
2021-10-14 15:25:24.102874,122
2021-10-14 15:25:24.102882,157
2021-10-14 15:25:24.102891,181
2021-10-14 15:25:24.102899,211
2021-10-14 15:25:24.102907,260
2021-10-14 15:25:24.102918,316
2021-10-14 15:25:24.102927,350
2021-10-14 15:25:24.102935,380
2021-10-14 15:25:24.102943,409
2021-10-14 15:25:24.102952,404
2021-10-14 15:25:24.102960,399
2021-10-14 15:25:24.373716,419
2021-10-14 15:25:24.373737,404
2021-10-14 15:25:24.373747,341
2021-10-14 15:25:24.373755,242
2021-10-14 15:25:24.373763,130
2021-10-14 15:25:24.373772,19
2021-10-14 15:25:24.373780,-93
2021-10-14 15:25:24.373789,-186
2021-10-14 15:25:24.373797,-240
2021-10-14 15:25:24.373806,-277
2021-10-14 15:25:24.373814,-294
2021-10-14 15:25:24.373823,-294
2021-10-14 15:25:24.373831,-296
2021-10-14 15:25:24.373839,-296
2021-10-14 15:25:24.373848,-287
2021-10-14 15:25:24.373856,-272
2021-10-14 15:25:24.373864,-272
2021-10-14 15:25:24.373872,-272
2021-10-14 15:25:24.373881,-242
2021-10-14 15:25:24.373889,-208
2021-10-14 15:25:24.373898,-211
2021-10-14 15:25:24.373906,-223
2021-10-14 15:25:24.373914,-213
2021-10-14 15:25:24.373923,-201
2021-10-14 15:25:24.373931,-201
2021-10-14 15:25:24.373939,-186
2021-10-14 15:25:24.373948,-164
2021-10-14 15:25:24.373956,-169
2021-10-14 15:25:24.373964,-188
2021-10-14 15:25:24.373973,-193
2021-10-14 15:25:24.641397,-191
2021-10-14 15:25:24.641418,-179
2021-10-14 15:25:24.641427,-176
2021-10-14 15:25:24.641436,-196
2021-10-14 15:25:24.641444,-201
2021-10-14 15:25:24.641452,-184
2021-10-14 15:25:24.641461,-181
2021-10-14 15:25:24.641469,-186
2021-10-14 15:25:24.641478,-179
2021-10-14 15:25:24.641486,-174
2021-10-14 15:25:24.641494,-164
2021-10-14 15:25:24.641503,-161
2021-10-14 15:25:24.641511,-166
2021-10-14 15:25:24.641520,-137
2021-10-14 15:25:24.641528,-93
2021-10-14 15:25:24.641536,-100
2021-10-14 15:25:24.641545,-117
2021-10-14 15:25:24.641553,-110
2021-10-14 15:25:24.641562,-139
2021-10-14 15:25:24.641573,-181
2021-10-14 15:25:24.641582,-176
2021-10-14 15:25:24.641590,-169
2021-10-14 15:25:24.641599,-166
2021-10-14 15:25:24.641607,-149
2021-10-14 15:25:24.641615,-152
2021-10-14 15:25:24.641624,-174
2021-10-14 15:25:24.641632,-171
2021-10-14 15:25:24.641640,-127
2021-10-14 15:25:24.641648,2
2021-10-14 15:25:24.641657,314
2021-10-14 15:25:24.913104,694
2021-10-14 15:25:24.913125,652
2021-10-14 15:25:24.913134,-105
2021-10-14 15:25:24.913143,-726
2021-10-14 15:25:24.913151,-382
2021-10-14 15:25:24.913160,44
2021-10-14 15:25:24.913169,-93
2021-10-14 15:25:24.913177,-157
2021-10-14 15:25:24.913185,-36
2021-10-14 15:25:24.913194,-58
2021-10-14 15:25:24.913202,-76
2021-10-14 15:25:24.913211,-4
2021-10-14 15:25:24.913219,-19
2021-10-14 15:25:24.913227,-56
2021-10-14 15:25:24.913235,-7
2021-10-14 15:25:24.913244,26
2021-10-14 15:25:24.913252,9
2021-10-14 15:25:24.913261,31
2021-10-14 15:25:24.913269,100
2021-10-14 15:25:24.913277,144
2021-10-14 15:25:24.913286,152
2021-10-14 15:25:24.913294,184
2021-10-14 15:25:24.913303,252
2021-10-14 15:25:24.913318,296
2021-10-14 15:25:24.913326,314
2021-10-14 15:25:24.913335,353
2021-10-14 15:25:24.913343,390
2021-10-14 15:25:24.913351,395
2021-10-14 15:25:24.913360,377
2021-10-14 15:25:24.913368,348
2021-10-14 15:25:25.048128,304
2021-10-14 15:25:25.048150,233
2021-10-14 15:25:25.048159,117
2021-10-14 15:25:25.048168,-12
2021-10-14 15:25:25.048177,-122
2021-10-14 15:25:25.048186,-201
2021-10-14 15:25:25.048194,-247
2021-10-14 15:25:25.048203,-267
2021-10-14 15:25:25.048212,-291
2021-10-14 15:25:25.048220,-323
2021-10-14 15:25:25.048229,-314
2021-10-14 15:25:25.048237,-267
2021-10-14 15:25:25.048246,-247
2021-10-14 15:25:25.048254,-272
2021-10-14 15:25:25.048263,-272
2021-10-14 15:25:25.048271,-235
2021-10-14 15:25:25.048280,-220
2021-10-14 15:25:25.048288,-233
2021-10-14 15:25:25.048297,-220
2021-10-14 15:25:25.048305,-188
2021-10-14 15:25:25.048314,-181
2021-10-14 15:25:25.048322,-196
2021-10-14 15:25:25.048367,-181
2021-10-14 15:25:25.048380,-157
2021-10-14 15:25:25.048389,-179
2021-10-14 15:25:25.048397,-196
2021-10-14 15:25:25.048405,-159
2021-10-14 15:25:25.048413,-152
2021-10-14 15:25:25.048422,-171
2021-10-14 15:25:25.048430,-154
2021-10-14 15:25:25.272767,-139
2021-10-14 15:25:25.272787,-152
2021-10-14 15:25:25.272795,-152
2021-10-14 15:25:25.272802,-137
2021-10-14 15:25:25.272810,-134
2021-10-14 15:25:25.272818,-130
2021-10-14 15:25:25.272826,-115
2021-10-14 15:25:25.272835,-88
2021-10-14 15:25:25.272842,-46
2021-10-14 15:25:25.272850,-29
2021-10-14 15:25:25.272858,-44
2021-10-14 15:25:25.272866,-46
2021-10-14 15:25:25.272874,-58
2021-10-14 15:25:25.272881,-100
2021-10-14 15:25:25.272889,-105
2021-10-14 15:25:25.272897,-68
2021-10-14 15:25:25.272904,-66
2021-10-14 15:25:25.272912,-88
2021-10-14 15:25:25.272919,-88
2021-10-14 15:25:25.272927,-78
2021-10-14 15:25:25.272935,-61
2021-10-14 15:25:25.272943,-39
2021-10-14 15:25:25.272951,14
2021-10-14 15:25:25.272959,206
2021-10-14 15:25:25.272967,598
2021-10-14 15:25:25.272975,910
2021-10-14 15:25:25.272983,544
2021-10-14 15:25:25.272992,-341
2021-10-14 15:25:25.272998,-542
2021-10-14 15:25:25.273004,4
2021-10-14 15:25:25.498082,139
2021-10-14 15:25:25.498103,-49
2021-10-14 15:25:25.498113,9
2021-10-14 15:25:25.498121,66
2021-10-14 15:25:25.498130,29
2021-10-14 15:25:25.498139,71
2021-10-14 15:25:25.498147,88
2021-10-14 15:25:25.498155,44
2021-10-14 15:25:25.498164,78
2021-10-14 15:25:25.498172,127
2021-10-14 15:25:25.498180,120
2021-10-14 15:25:25.498189,139
2021-10-14 15:25:25.498197,181
2021-10-14 15:25:25.498205,201
2021-10-14 15:25:25.498214,215
2021-10-14 15:25:25.498222,250
2021-10-14 15:25:25.498231,314
2021-10-14 15:25:25.498239,370
2021-10-14 15:25:25.498247,387
2021-10-14 15:25:25.498256,404
2021-10-14 15:25:25.498264,456
2021-10-14 15:25:25.498273,483
2021-10-14 15:25:25.498281,453
2021-10-14 15:25:25.498289,446
2021-10-14 15:25:25.498298,449
2021-10-14 15:25:25.498306,358
2021-10-14 15:25:25.498314,223
2021-10-14 15:25:25.498323,117
2021-10-14 15:25:25.498331,24
2021-10-14 15:25:25.498340,-58
2021-10-14 15:25:25.767738,-139
2021-10-14 15:25:25.767759,-193
2021-10-14 15:25:25.767769,-193
2021-10-14 15:25:25.767777,-184
2021-10-14 15:25:25.767786,-193
2021-10-14 15:25:25.767794,-208
2021-10-14 15:25:25.767802,-198
2021-10-14 15:25:25.767811,-161
2021-10-14 15:25:25.767819,-152
2021-10-14 15:25:25.767827,-174
2021-10-14 15:25:25.767836,-169
2021-10-14 15:25:25.767844,-122
2021-10-14 15:25:25.767852,-88
2021-10-14 15:25:25.767861,-100
2021-10-14 15:25:25.767869,-117
2021-10-14 15:25:25.767877,-93
2021-10-14 15:25:25.767886,-58
2021-10-14 15:25:25.767894,-51
2021-10-14 15:25:25.767902,-56
2021-10-14 15:25:25.767911,-58
2021-10-14 15:25:25.767919,-71
2021-10-14 15:25:25.767927,-51
2021-10-14 15:25:25.767936,-22
2021-10-14 15:25:25.767944,-39
2021-10-14 15:25:25.767952,-56
2021-10-14 15:25:25.767960,-41
2021-10-14 15:25:25.767969,-36
2021-10-14 15:25:25.767977,-36
2021-10-14 15:25:25.767985,-31
2021-10-14 15:25:25.767994,-26
2021-10-14 15:25:25.948144,-17
2021-10-14 15:25:25.948165,-7
2021-10-14 15:25:25.948174,7
2021-10-14 15:25:25.948182,14
2021-10-14 15:25:25.948190,4
2021-10-14 15:25:25.948199,-12
2021-10-14 15:25:25.948207,2
2021-10-14 15:25:25.948216,49
2021-10-14 15:25:25.948224,73
2021-10-14 15:25:25.948232,68
2021-10-14 15:25:25.948241,61
2021-10-14 15:25:25.948249,41
2021-10-14 15:25:25.948258,14
2021-10-14 15:25:25.948266,7
2021-10-14 15:25:25.948274,17
2021-10-14 15:25:25.948283,17
2021-10-14 15:25:25.948291,9
2021-10-14 15:25:25.948300,4
2021-10-14 15:25:25.948308,4
2021-10-14 15:25:25.948317,0
2021-10-14 15:25:25.948325,12
2021-10-14 15:25:25.948333,56
2021-10-14 15:25:25.948349,208
2021-10-14 15:25:25.948387,554
2021-10-14 15:25:25.948402,917
2021-10-14 15:25:25.948412,763
2021-10-14 15:25:25.948421,-53
2021-10-14 15:25:25.948429,-547
2021-10-14 15:25:25.948438,-127
2021-10-14 15:25:25.948446,196
2021-10-14 15:25:26.173124,41
2021-10-14 15:25:26.173145,24
2021-10-14 15:25:26.173154,95
2021-10-14 15:25:26.173161,56
2021-10-14 15:25:26.173168,56
2021-10-14 15:25:26.173176,95
2021-10-14 15:25:26.173183,88
2021-10-14 15:25:26.173190,80
2021-10-14 15:25:26.173197,117
2021-10-14 15:25:26.173204,149
2021-10-14 15:25:26.173212,147
2021-10-14 15:25:26.173219,154
2021-10-14 15:25:26.173226,191
2021-10-14 15:25:26.173233,223
2021-10-14 15:25:26.173240,247
2021-10-14 15:25:26.173247,274
2021-10-14 15:25:26.173255,304
2021-10-14 15:25:26.173262,350
2021-10-14 15:25:26.173269,392
2021-10-14 15:25:26.173276,409
2021-10-14 15:25:26.173283,419
2021-10-14 15:25:26.173290,424
2021-10-14 15:25:26.173296,426
2021-10-14 15:25:26.173302,417
2021-10-14 15:25:26.173309,368
2021-10-14 15:25:26.173316,282
2021-10-14 15:25:26.173323,181
2021-10-14 15:25:26.173329,76
2021-10-14 15:25:26.173336,-34
2021-10-14 15:25:26.173343,-112
2021-10-14 15:25:26.443080,-149
2021-10-14 15:25:26.443101,-179
2021-10-14 15:25:26.443110,-201
2021-10-14 15:25:26.443119,-211
2021-10-14 15:25:26.443128,-211
2021-10-14 15:25:26.443136,-211
2021-10-14 15:25:26.443145,-201
2021-10-14 15:25:26.443153,-184
2021-10-14 15:25:26.443162,-181
2021-10-14 15:25:26.443170,-193
2021-10-14 15:25:26.443179,-198
2021-10-14 15:25:26.443187,-186
2021-10-14 15:25:26.443196,-181
2021-10-14 15:25:26.443205,-188
2021-10-14 15:25:26.443213,-196
2021-10-14 15:25:26.443222,-201
2021-10-14 15:25:26.443231,-203
2021-10-14 15:25:26.443240,-193
2021-10-14 15:25:26.443249,-193
2021-10-14 15:25:26.443257,-206
2021-10-14 15:25:26.443266,-230
2021-10-14 15:25:26.443274,-257
2021-10-14 15:25:26.443283,-269
2021-10-14 15:25:26.443291,-269
2021-10-14 15:25:26.443299,-277
2021-10-14 15:25:26.443307,-279
2021-10-14 15:25:26.443315,-296
2021-10-14 15:25:26.443323,-328
2021-10-14 15:25:26.443331,-314
2021-10-14 15:25:26.443340,-274
2021-10-14 15:25:26.711785,-272
2021-10-14 15:25:26.711806,-277
2021-10-14 15:25:26.711816,-255
2021-10-14 15:25:26.711825,-242
2021-10-14 15:25:26.711833,-255
2021-10-14 15:25:26.711841,-264
2021-10-14 15:25:26.711850,-252
2021-10-14 15:25:26.711858,-223
2021-10-14 15:25:26.711866,-201
2021-10-14 15:25:26.711875,-191
2021-10-14 15:25:26.711883,-191
2021-10-14 15:25:26.711891,-203
2021-10-14 15:25:26.711900,-228
2021-10-14 15:25:26.711908,-235
2021-10-14 15:25:26.711916,-252
2021-10-14 15:25:26.711925,-264
2021-10-14 15:25:26.711933,-250
2021-10-14 15:25:26.711941,-240
2021-10-14 15:25:26.711950,-245
2021-10-14 15:25:26.711958,-235
2021-10-14 15:25:26.711966,-235
2021-10-14 15:25:26.711974,-240
2021-10-14 15:25:26.711983,-166
2021-10-14 15:25:26.711991,83
2021-10-14 15:25:26.711999,505
2021-10-14 15:25:26.712008,767
2021-10-14 15:25:26.712016,321
2021-10-14 15:25:26.712024,-556
2021-10-14 15:25:26.712033,-660
2021-10-14 15:25:26.712041,-117
2021-10-14 15:25:26.893131,-51
2021-10-14 15:25:26.893164,-238
2021-10-14 15:25:26.893173,-152
2021-10-14 15:25:26.893182,-83
2021-10-14 15:25:26.893190,-130
2021-10-14 15:25:26.893199,-105
2021-10-14 15:25:26.893207,-53
2021-10-14 15:25:26.893215,-56
2021-10-14 15:25:26.893224,-56
2021-10-14 15:25:26.893232,-36
2021-10-14 15:25:26.893240,-9
2021-10-14 15:25:26.893248,26
2021-10-14 15:25:26.893257,56
2021-10-14 15:25:26.893265,53
2021-10-14 15:25:26.893273,56
2021-10-14 15:25:26.893282,105
2021-10-14 15:25:26.893290,161
2021-10-14 15:25:26.893298,188
2021-10-14 15:25:26.893307,218
2021-10-14 15:25:26.893315,252
2021-10-14 15:25:26.893323,267
2021-10-14 15:25:26.893331,269
2021-10-14 15:25:26.893339,279
2021-10-14 15:25:26.893347,272
2021-10-14 15:25:26.893356,242
2021-10-14 15:25:26.893364,206
2021-10-14 15:25:26.893372,122
2021-10-14 15:25:26.893381,-12
2021-10-14 15:25:26.893389,-127
2021-10-14 15:25:26.893397,-201
2021-10-14 15:25:27.117735,-264
2021-10-14 15:25:27.117756,-318
2021-10-14 15:25:27.117765,-345
2021-10-14 15:25:27.117774,-355
2021-10-14 15:25:27.117782,-350
2021-10-14 15:25:27.117791,-336
2021-10-14 15:25:27.117799,-331
2021-10-14 15:25:27.117808,-333
2021-10-14 15:25:27.117816,-328
2021-10-14 15:25:27.117824,-306
2021-10-14 15:25:27.117833,-287
2021-10-14 15:25:27.117841,-287
2021-10-14 15:25:27.117849,-277
2021-10-14 15:25:27.117858,-257
2021-10-14 15:25:27.117866,-252
2021-10-14 15:25:27.117874,-247
2021-10-14 15:25:27.117883,-238
2021-10-14 15:25:27.117891,-238
2021-10-14 15:25:27.117899,-235
2021-10-14 15:25:27.117908,-233
2021-10-14 15:25:27.117916,-235
2021-10-14 15:25:27.117924,-228
2021-10-14 15:25:27.117933,-230
2021-10-14 15:25:27.117941,-230
2021-10-14 15:25:27.117949,-198
2021-10-14 15:25:27.117958,-186
2021-10-14 15:25:27.117966,-198
2021-10-14 15:25:27.117974,-196
2021-10-14 15:25:27.117983,-181
2021-10-14 15:25:27.117991,-166
2021-10-14 15:25:27.387998,-164
2021-10-14 15:25:27.388017,-176
2021-10-14 15:25:27.388027,-171
2021-10-14 15:25:27.388036,-157
2021-10-14 15:25:27.388044,-154
2021-10-14 15:25:27.388053,-169
2021-10-14 15:25:27.388061,-184
2021-10-14 15:25:27.388070,-159
2021-10-14 15:25:27.388078,-107
2021-10-14 15:25:27.388086,-80
2021-10-14 15:25:27.388095,-76
2021-10-14 15:25:27.388103,-68
2021-10-14 15:25:27.388112,-76
2021-10-14 15:25:27.388120,-107
2021-10-14 15:25:27.388128,-127
2021-10-14 15:25:27.388137,-115
2021-10-14 15:25:27.388145,-98
2021-10-14 15:25:27.388154,-100
2021-10-14 15:25:27.388162,-100
2021-10-14 15:25:27.388170,-95
2021-10-14 15:25:27.388179,-95
2021-10-14 15:25:27.388187,-95
2021-10-14 15:25:27.388196,-71
2021-10-14 15:25:27.388204,61
2021-10-14 15:25:27.388213,395
2021-10-14 15:25:27.388221,787
2021-10-14 15:25:27.388230,748
2021-10-14 15:25:27.388238,-14
2021-10-14 15:25:27.388248,-623
2021-10-14 15:25:27.388256,-264
2021-10-14 15:25:27.613130,122
2021-10-14 15:25:27.613151,-36
2021-10-14 15:25:27.613160,-83
2021-10-14 15:25:27.613169,34
2021-10-14 15:25:27.613178,9
2021-10-14 15:25:27.613190,-24
2021-10-14 15:25:27.613199,19
2021-10-14 15:25:27.613207,46
2021-10-14 15:25:27.613216,49
2021-10-14 15:25:27.613224,76
2021-10-14 15:25:27.613233,107
2021-10-14 15:25:27.613241,117
2021-10-14 15:25:27.613250,134
2021-10-14 15:25:27.613258,164
2021-10-14 15:25:27.613266,181
2021-10-14 15:25:27.613274,215
2021-10-14 15:25:27.613288,277
2021-10-14 15:25:27.613299,309
2021-10-14 15:25:27.613308,311
2021-10-14 15:25:27.613331,343
2021-10-14 15:25:27.613340,382
2021-10-14 15:25:27.613349,382
2021-10-14 15:25:27.613357,365
2021-10-14 15:25:27.613365,360
2021-10-14 15:25:27.613374,348
2021-10-14 15:25:27.613382,296
2021-10-14 15:25:27.613391,218
2021-10-14 15:25:27.613399,122
2021-10-14 15:25:27.613407,9
2021-10-14 15:25:27.613416,-90
2021-10-14 15:25:27.792735,-161
2021-10-14 15:25:27.792755,-206
2021-10-14 15:25:27.792764,-240
2021-10-14 15:25:27.792773,-260
2021-10-14 15:25:27.792781,-260
2021-10-14 15:25:27.792790,-252
2021-10-14 15:25:27.792798,-255
2021-10-14 15:25:27.792807,-250
2021-10-14 15:25:27.792815,-233
2021-10-14 15:25:27.792824,-218
2021-10-14 15:25:27.792832,-218
2021-10-14 15:25:27.792840,-220
2021-10-14 15:25:27.792849,-206
2021-10-14 15:25:27.792857,-186
2021-10-14 15:25:27.792866,-181
2021-10-14 15:25:27.792874,-166
2021-10-14 15:25:27.792883,-149
2021-10-14 15:25:27.792891,-154
2021-10-14 15:25:27.792900,-154
2021-10-14 15:25:27.792908,-139
2021-10-14 15:25:27.792916,-132
2021-10-14 15:25:27.792925,-134
2021-10-14 15:25:27.792933,-137
2021-10-14 15:25:27.792941,-132
2021-10-14 15:25:27.792950,-127
2021-10-14 15:25:27.792958,-127
2021-10-14 15:25:27.792966,-115
2021-10-14 15:25:27.792974,-103
2021-10-14 15:25:27.792983,-105
2021-10-14 15:25:27.792991,-100
2021-10-14 15:25:28.107273,-85
2021-10-14 15:25:28.107294,-80
2021-10-14 15:25:28.107305,-88
2021-10-14 15:25:28.107314,-95
2021-10-14 15:25:28.107323,-98
2021-10-14 15:25:28.107332,-90
2021-10-14 15:25:28.107340,-56
2021-10-14 15:25:28.107349,-22
2021-10-14 15:25:28.107357,-22
2021-10-14 15:25:28.107366,-34
2021-10-14 15:25:28.107374,-49
2021-10-14 15:25:28.107383,-63
2021-10-14 15:25:28.107391,-73
2021-10-14 15:25:28.107399,-71
2021-10-14 15:25:28.107408,-58
2021-10-14 15:25:28.107416,-53
2021-10-14 15:25:28.107425,-61
2021-10-14 15:25:28.107433,-56
2021-10-14 15:25:28.107442,-46
2021-10-14 15:25:28.107450,-46
2021-10-14 15:25:28.107460,-31
2021-10-14 15:25:28.107492,103
2021-10-14 15:25:28.107520,453
2021-10-14 15:25:28.107529,858
2021-10-14 15:25:28.107537,804
2021-10-14 15:25:28.107545,58
2021-10-14 15:25:28.107554,-441
2021-10-14 15:25:28.107562,-98
2021-10-14 15:25:28.107570,139
2021-10-14 15:25:28.107578,-49
2021-10-14 15:25:28.243141,-49
2021-10-14 15:25:28.243162,49
2021-10-14 15:25:28.243172,4
2021-10-14 15:25:28.243180,-9
2021-10-14 15:25:28.243189,34
2021-10-14 15:25:28.243197,39
2021-10-14 15:25:28.243206,46
2021-10-14 15:25:28.243214,80
2021-10-14 15:25:28.243223,100
2021-10-14 15:25:28.243231,110
2021-10-14 15:25:28.243239,134
2021-10-14 15:25:28.243248,161
2021-10-14 15:25:28.243256,188
2021-10-14 15:25:28.243264,211
2021-10-14 15:25:28.243273,238
2021-10-14 15:25:28.243281,272
2021-10-14 15:25:28.243290,296
2021-10-14 15:25:28.243298,318
2021-10-14 15:25:28.243306,348
2021-10-14 15:25:28.243315,365
2021-10-14 15:25:28.243323,363
2021-10-14 15:25:28.243331,348
2021-10-14 15:25:28.243340,321
2021-10-14 15:25:28.243348,282
2021-10-14 15:25:28.243356,211
2021-10-14 15:25:28.243365,112
2021-10-14 15:25:28.243373,12
2021-10-14 15:25:28.243381,-78
2021-10-14 15:25:28.243390,-149
2021-10-14 15:25:28.243398,-193
2021-10-14 15:25:28.557757,-218
2021-10-14 15:25:28.557781,-238
2021-10-14 15:25:28.557790,-252
2021-10-14 15:25:28.557799,-257
2021-10-14 15:25:28.557808,-247
2021-10-14 15:25:28.557816,-238
2021-10-14 15:25:28.557825,-228
2021-10-14 15:25:28.557833,-215
2021-10-14 15:25:28.557842,-203
2021-10-14 15:25:28.557850,-193
2021-10-14 15:25:28.557859,-186
2021-10-14 15:25:28.557867,-174
2021-10-14 15:25:28.557876,-169
2021-10-14 15:25:28.557884,-171
2021-10-14 15:25:28.557893,-164
2021-10-14 15:25:28.557902,-159
2021-10-14 15:25:28.557910,-154
2021-10-14 15:25:28.557919,-149
2021-10-14 15:25:28.557927,-142
2021-10-14 15:25:28.557936,-132
2021-10-14 15:25:28.557944,-127
2021-10-14 15:25:28.557953,-132
2021-10-14 15:25:28.557961,-134
2021-10-14 15:25:28.557970,-127
2021-10-14 15:25:28.557978,-120
2021-10-14 15:25:28.557986,-120
2021-10-14 15:25:28.557995,-112
2021-10-14 15:25:28.558003,-105
2021-10-14 15:25:28.558012,-100
2021-10-14 15:25:28.558020,-93
2021-10-14 15:25:28.781577,-88
2021-10-14 15:25:28.781599,-88
2021-10-14 15:25:28.781609,-93
2021-10-14 15:25:28.781617,-93
2021-10-14 15:25:28.781626,-61
2021-10-14 15:25:28.781634,-29
2021-10-14 15:25:28.781642,-22
2021-10-14 15:25:28.781651,-31
2021-10-14 15:25:28.781659,-49
2021-10-14 15:25:28.781667,-71
2021-10-14 15:25:28.781676,-73
2021-10-14 15:25:28.781684,-68
2021-10-14 15:25:28.781693,-61
2021-10-14 15:25:28.781701,-49
2021-10-14 15:25:28.781709,-46
2021-10-14 15:25:28.781718,-58
2021-10-14 15:25:28.781726,-58
2021-10-14 15:25:28.781734,-53
2021-10-14 15:25:28.781743,-19
2021-10-14 15:25:28.781751,166
2021-10-14 15:25:28.781759,576
2021-10-14 15:25:28.781768,964
2021-10-14 15:25:28.781776,745
2021-10-14 15:25:28.781784,-105
2021-10-14 15:25:28.781793,-473
2021-10-14 15:25:28.781801,-39
2021-10-14 15:25:28.781809,122
2021-10-14 15:25:28.781817,-73
2021-10-14 15:25:28.781826,-26
2021-10-14 15:25:28.781834,56
2021-10-14 15:25:28.963160,7
2021-10-14 15:25:28.963181,14
2021-10-14 15:25:28.963190,58
2021-10-14 15:25:28.963199,61
2021-10-14 15:25:28.963207,73
2021-10-14 15:25:28.963216,110
2021-10-14 15:25:28.963224,120
2021-10-14 15:25:28.963233,125
2021-10-14 15:25:28.963241,147
2021-10-14 15:25:28.963249,176
2021-10-14 15:25:28.963258,206
2021-10-14 15:25:28.963266,230
2021-10-14 15:25:28.963274,252
2021-10-14 15:25:28.963285,274
2021-10-14 15:25:28.963293,296
2021-10-14 15:25:28.963302,316
2021-10-14 15:25:28.963310,333
2021-10-14 15:25:28.963319,336
2021-10-14 15:25:28.963327,323
2021-10-14 15:25:28.963336,314
2021-10-14 15:25:28.963344,304
2021-10-14 15:25:28.963352,262
2021-10-14 15:25:28.963361,188
2021-10-14 15:25:28.963369,105
2021-10-14 15:25:28.963378,14
2021-10-14 15:25:28.963386,-73
2021-10-14 15:25:28.963395,-144
2021-10-14 15:25:28.963403,-198
2021-10-14 15:25:28.963411,-228
2021-10-14 15:25:28.963420,-235
2021-10-14 15:25:29.187825,-242
2021-10-14 15:25:29.187846,-255
2021-10-14 15:25:29.187855,-262
2021-10-14 15:25:29.187908,-247
2021-10-14 15:25:29.187914,-206
2021-10-14 15:25:29.187918,-169
2021-10-14 15:25:29.187923,-169
2021-10-14 15:25:29.187927,-181
2021-10-14 15:25:29.187931,-184
2021-10-14 15:25:29.187936,-186
2021-10-14 15:25:29.187940,-188
2021-10-14 15:25:29.187944,-169
2021-10-14 15:25:29.187949,-161
2021-10-14 15:25:29.187953,-171
2021-10-14 15:25:29.187957,-166
2021-10-14 15:25:29.187961,-157
2021-10-14 15:25:29.187966,-164
2021-10-14 15:25:29.187970,-161
2021-10-14 15:25:29.187974,-139
2021-10-14 15:25:29.187979,-127
2021-10-14 15:25:29.187983,-134
2021-10-14 15:25:29.187988,-144
2021-10-14 15:25:29.187992,-142
2021-10-14 15:25:29.187996,-134
2021-10-14 15:25:29.188001,-125
2021-10-14 15:25:29.188005,-122
2021-10-14 15:25:29.188009,-137
2021-10-14 15:25:29.188014,-149
2021-10-14 15:25:29.188018,-125
2021-10-14 15:25:29.188022,-63
2021-10-14 15:25:29.413106,-26
2021-10-14 15:25:29.413127,-19
2021-10-14 15:25:29.413136,-19
2021-10-14 15:25:29.413145,-39
2021-10-14 15:25:29.413153,-66
2021-10-14 15:25:29.413162,-68
2021-10-14 15:25:29.413170,-66
2021-10-14 15:25:29.413179,-76
2021-10-14 15:25:29.413187,-71
2021-10-14 15:25:29.413195,-58
2021-10-14 15:25:29.413204,-61
2021-10-14 15:25:29.413212,-71
2021-10-14 15:25:29.413220,-63
2021-10-14 15:25:29.413229,-14
2021-10-14 15:25:29.413237,161
2021-10-14 15:25:29.413245,566
2021-10-14 15:25:29.413254,917
2021-10-14 15:25:29.413262,620
2021-10-14 15:25:29.413270,-215
2021-10-14 15:25:29.413280,-485
2021-10-14 15:25:29.413289,-29
2021-10-14 15:25:29.413297,98
2021-10-14 15:25:29.413306,-93
2021-10-14 15:25:29.413314,-31
2021-10-14 15:25:29.413322,31
2021-10-14 15:25:29.413331,-14
2021-10-14 15:25:29.413339,24
2021-10-14 15:25:29.413348,51
2021-10-14 15:25:29.413356,58
2021-10-14 15:25:29.413364,139
2021-10-14 15:25:29.637792,179
2021-10-14 15:25:29.637812,154
2021-10-14 15:25:29.637822,152
2021-10-14 15:25:29.637830,174
2021-10-14 15:25:29.637839,193
2021-10-14 15:25:29.637847,206
2021-10-14 15:25:29.637856,225
2021-10-14 15:25:29.637864,262
2021-10-14 15:25:29.637873,287
2021-10-14 15:25:29.637881,306
2021-10-14 15:25:29.637889,365
2021-10-14 15:25:29.637898,395
2021-10-14 15:25:29.637906,348
2021-10-14 15:25:29.637914,326
2021-10-14 15:25:29.637923,343
2021-10-14 15:25:29.637931,309
2021-10-14 15:25:29.637939,228
2021-10-14 15:25:29.637948,147
2021-10-14 15:25:29.637956,46
2021-10-14 15:25:29.637965,-68
2021-10-14 15:25:29.637973,-98
2021-10-14 15:25:29.637981,-53
2021-10-14 15:25:29.637990,-88
2021-10-14 15:25:29.637998,-171
2021-10-14 15:25:29.638006,-186
2021-10-14 15:25:29.638015,-184
2021-10-14 15:25:29.638023,-208
2021-10-14 15:25:29.638032,-218
2021-10-14 15:25:29.638040,-206
2021-10-14 15:25:29.638048,-201
2021-10-14 15:25:29.907812,-198
2021-10-14 15:25:29.907834,-166
2021-10-14 15:25:29.907843,-125
2021-10-14 15:25:29.907852,-107
2021-10-14 15:25:29.907860,-139
2021-10-14 15:25:29.907869,-174
2021-10-14 15:25:29.907877,-154
2021-10-14 15:25:29.907886,-112
2021-10-14 15:25:29.907894,-103
2021-10-14 15:25:29.907903,-125
2021-10-14 15:25:29.907911,-147
2021-10-14 15:25:29.907920,-152
2021-10-14 15:25:29.907928,-134
2021-10-14 15:25:29.907937,-132
2021-10-14 15:25:29.907945,-159
2021-10-14 15:25:29.907954,-152
2021-10-14 15:25:29.907962,-110
2021-10-14 15:25:29.907970,-122
2021-10-14 15:25:29.907979,-161
2021-10-14 15:25:29.907987,-132
2021-10-14 15:25:29.907996,-66
2021-10-14 15:25:29.908004,-56
2021-10-14 15:25:29.908012,-73
2021-10-14 15:25:29.908021,-44
2021-10-14 15:25:29.908029,-19
2021-10-14 15:25:29.908037,-36
2021-10-14 15:25:29.908046,-36
2021-10-14 15:25:29.908054,-41
2021-10-14 15:25:29.908063,-76
2021-10-14 15:25:29.908071,-100
2021-10-14 15:25:30.088208,-90
2021-10-14 15:25:30.088236,-63
2021-10-14 15:25:30.088245,-46
2021-10-14 15:25:30.088254,-58
2021-10-14 15:25:30.088263,-68
2021-10-14 15:25:30.088271,-49
2021-10-14 15:25:30.088280,-44
2021-10-14 15:25:30.088288,-4
2021-10-14 15:25:30.088297,230
2021-10-14 15:25:30.088305,630
2021-10-14 15:25:30.088314,807
2021-10-14 15:25:30.088322,365
2021-10-14 15:25:30.088331,-348
2021-10-14 15:25:30.088339,-407
2021-10-14 15:25:30.088348,31
2021-10-14 15:25:30.088356,76
2021-10-14 15:25:30.088365,-100
2021-10-14 15:25:30.088373,-34
2021-10-14 15:25:30.088381,49
2021-10-14 15:25:30.088390,14
2021-10-14 15:25:30.088398,9
2021-10-14 15:25:30.088407,39
2021-10-14 15:25:30.088415,46
2021-10-14 15:25:30.088423,58
2021-10-14 15:25:30.088432,85
2021-10-14 15:25:30.088440,105
2021-10-14 15:25:30.088448,125
2021-10-14 15:25:30.088457,144
2021-10-14 15:25:30.088466,161
2021-10-14 15:25:30.088474,188
2021-10-14 15:25:30.357786,220
2021-10-14 15:25:30.357806,238
2021-10-14 15:25:30.357816,252
2021-10-14 15:25:30.357825,269
2021-10-14 15:25:30.357834,291
2021-10-14 15:25:30.357843,306
2021-10-14 15:25:30.357851,309
2021-10-14 15:25:30.357860,314
2021-10-14 15:25:30.357868,309
2021-10-14 15:25:30.357877,264
2021-10-14 15:25:30.357885,198
2021-10-14 15:25:30.357894,147
2021-10-14 15:25:30.357902,88
2021-10-14 15:25:30.357911,2
2021-10-14 15:25:30.357919,-71
2021-10-14 15:25:30.357928,-115
2021-10-14 15:25:30.357936,-164
2021-10-14 15:25:30.357945,-203
2021-10-14 15:25:30.357953,-213
2021-10-14 15:25:30.357962,-218
2021-10-14 15:25:30.357970,-225
2021-10-14 15:25:30.357979,-218
2021-10-14 15:25:30.357987,-203
2021-10-14 15:25:30.357995,-188
2021-10-14 15:25:30.358004,-174
2021-10-14 15:25:30.358012,-164
2021-10-14 15:25:30.358020,-174
2021-10-14 15:25:30.358029,-174
2021-10-14 15:25:30.358037,-159
2021-10-14 15:25:30.358046,-157
2021-10-14 15:25:30.583176,-166
2021-10-14 15:25:30.583197,-157
2021-10-14 15:25:30.583206,-154
2021-10-14 15:25:30.583215,-164
2021-10-14 15:25:30.583223,-159
2021-10-14 15:25:30.583232,-147
2021-10-14 15:25:30.583241,-144
2021-10-14 15:25:30.583249,-144
2021-10-14 15:25:30.583258,-152
2021-10-14 15:25:30.583266,-159
2021-10-14 15:25:30.583274,-157
2021-10-14 15:25:30.583283,-149
2021-10-14 15:25:30.583291,-152
2021-10-14 15:25:30.583300,-161
2021-10-14 15:25:30.583308,-152
2021-10-14 15:25:30.583317,-120
2021-10-14 15:25:30.583325,-93
2021-10-14 15:25:30.583334,-85
2021-10-14 15:25:30.583342,-88
2021-10-14 15:25:30.583350,-98
2021-10-14 15:25:30.583359,-122
2021-10-14 15:25:30.583367,-132
2021-10-14 15:25:30.583375,-120
2021-10-14 15:25:30.583384,-112
2021-10-14 15:25:30.583392,-110
2021-10-14 15:25:30.583401,-107
2021-10-14 15:25:30.583409,-115
2021-10-14 15:25:30.583417,-122
2021-10-14 15:25:30.583426,-110
2021-10-14 15:25:30.583434,-51
2021-10-14 15:25:30.851479,149
2021-10-14 15:25:30.851501,507
2021-10-14 15:25:30.851512,780
2021-10-14 15:25:30.851521,495
2021-10-14 15:25:30.851531,-309
2021-10-14 15:25:30.851540,-603
2021-10-14 15:25:30.851549,-117
2021-10-14 15:25:30.851558,78
2021-10-14 15:25:30.851614,-107
2021-10-14 15:25:30.851624,-63
2021-10-14 15:25:30.851633,26
2021-10-14 15:25:30.851641,-22
2021-10-14 15:25:30.851650,-17
2021-10-14 15:25:30.851658,29
2021-10-14 15:25:30.851667,29
2021-10-14 15:25:30.851675,39
2021-10-14 15:25:30.851683,73
2021-10-14 15:25:30.851692,98
2021-10-14 15:25:30.851700,117
2021-10-14 15:25:30.851709,139
2021-10-14 15:25:30.851717,166
2021-10-14 15:25:30.851725,196
2021-10-14 15:25:30.851734,228
2021-10-14 15:25:30.851742,260
2021-10-14 15:25:30.851751,291
2021-10-14 15:25:30.851759,316
2021-10-14 15:25:30.851767,338
2021-10-14 15:25:30.851776,355
2021-10-14 15:25:30.851784,368
2021-10-14 15:25:30.851792,363
2021-10-14 15:25:31.077580,343
2021-10-14 15:25:31.077608,316
2021-10-14 15:25:31.077618,269
2021-10-14 15:25:31.077626,181
2021-10-14 15:25:31.077635,83
2021-10-14 15:25:31.077643,-2
2021-10-14 15:25:31.077652,-88
2021-10-14 15:25:31.077660,-166
2021-10-14 15:25:31.077668,-203
2021-10-14 15:25:31.077677,-215
2021-10-14 15:25:31.077685,-235
2021-10-14 15:25:31.077693,-245
2021-10-14 15:25:31.077702,-245
2021-10-14 15:25:31.077710,-242
2021-10-14 15:25:31.077719,-235
2021-10-14 15:25:31.077727,-225
2021-10-14 15:25:31.077736,-220
2021-10-14 15:25:31.077744,-211
2021-10-14 15:25:31.077752,-206
2021-10-14 15:25:31.077761,-208
2021-10-14 15:25:31.077769,-198
2021-10-14 15:25:31.077778,-186
2021-10-14 15:25:31.077786,-184
2021-10-14 15:25:31.077794,-181
2021-10-14 15:25:31.077803,-174
2021-10-14 15:25:31.077811,-169
2021-10-14 15:25:31.077819,-164
2021-10-14 15:25:31.077828,-166
2021-10-14 15:25:31.077836,-171
2021-10-14 15:25:31.077845,-169
2021-10-14 15:25:31.258210,-159
2021-10-14 15:25:31.258230,-169
2021-10-14 15:25:31.258240,-181
2021-10-14 15:25:31.258248,-176
2021-10-14 15:25:31.258257,-157
2021-10-14 15:25:31.258265,-142
2021-10-14 15:25:31.258274,-132
2021-10-14 15:25:31.258282,-115
2021-10-14 15:25:31.258291,-115
2021-10-14 15:25:31.258299,-137
2021-10-14 15:25:31.258308,-152
2021-10-14 15:25:31.258316,-152
2021-10-14 15:25:31.258324,-152
2021-10-14 15:25:31.258333,-144
2021-10-14 15:25:31.258341,-130
2021-10-14 15:25:31.258350,-125
2021-10-14 15:25:31.258358,-125
2021-10-14 15:25:31.258367,-122
2021-10-14 15:25:31.258375,-117
2021-10-14 15:25:31.258383,-71
2021-10-14 15:25:31.258392,120
2021-10-14 15:25:31.258400,488
2021-10-14 15:25:31.258408,797
2021-10-14 15:25:31.258417,529
2021-10-14 15:25:31.258425,-299
2021-10-14 15:25:31.258433,-583
2021-10-14 15:25:31.258442,-80
2021-10-14 15:25:31.258450,93
2021-10-14 15:25:31.258458,-103
2021-10-14 15:25:31.258467,-51
2021-10-14 15:25:31.527552,31
