Time,ECG
2021-10-14 15:04:55.316500,-29
2021-10-14 15:04:55.316515,-19
2021-10-14 15:04:55.316521,-4
2021-10-14 15:04:55.316525,-19
2021-10-14 15:04:55.316530,-63
2021-10-14 15:04:55.316535,-80
2021-10-14 15:04:55.316539,-73
2021-10-14 15:04:55.316544,-78
2021-10-14 15:04:55.316548,-73
2021-10-14 15:04:55.316553,-56
2021-10-14 15:04:55.316557,-53
2021-10-14 15:04:55.316562,-58
2021-10-14 15:04:55.316566,-68
2021-10-14 15:04:55.316571,-39
2021-10-14 15:04:55.316575,98
2021-10-14 15:04:55.316580,387
2021-10-14 15:04:55.316584,696
2021-10-14 15:04:55.316589,606
2021-10-14 15:04:55.316593,-100
2021-10-14 15:04:55.316598,-579
2021-10-14 15:04:55.316602,-184
2021-10-14 15:04:55.316607,147
2021-10-14 15:04:55.316611,-26
2021-10-14 15:04:55.316615,-49
2021-10-14 15:04:55.316620,68
2021-10-14 15:04:55.316624,36
2021-10-14 15:04:55.316630,14
2021-10-14 15:04:55.316634,63
2021-10-14 15:04:55.316639,78
2021-10-14 15:04:55.316643,83
2021-10-14 15:04:55.496412,117
2021-10-14 15:04:55.496432,139
2021-10-14 15:04:55.496442,157
2021-10-14 15:04:55.496450,188
2021-10-14 15:04:55.496459,223
2021-10-14 15:04:55.496467,247
2021-10-14 15:04:55.496477,272
2021-10-14 15:04:55.496485,301
2021-10-14 15:04:55.496494,343
2021-10-14 15:04:55.496502,380
2021-10-14 15:04:55.496510,397
2021-10-14 15:04:55.496519,399
2021-10-14 15:04:55.496527,399
2021-10-14 15:04:55.496536,392
2021-10-14 15:04:55.496544,375
2021-10-14 15:04:55.496552,336
2021-10-14 15:04:55.496561,272
2021-10-14 15:04:55.496570,171
2021-10-14 15:04:55.496578,49
2021-10-14 15:04:55.496587,-39
2021-10-14 15:04:55.496595,-100
2021-10-14 15:04:55.496604,-164
2021-10-14 15:04:55.496612,-208
2021-10-14 15:04:55.496620,-220
2021-10-14 15:04:55.496629,-220
2021-10-14 15:04:55.496637,-213
2021-10-14 15:04:55.496646,-206
2021-10-14 15:04:55.496654,-203
2021-10-14 15:04:55.496662,-193
2021-10-14 15:04:55.496673,-174
2021-10-14 15:04:55.722010,-166
2021-10-14 15:04:55.722030,-159
2021-10-14 15:04:55.722040,-144
2021-10-14 15:04:55.722049,-137
2021-10-14 15:04:55.722057,-137
2021-10-14 15:04:55.722066,-137
2021-10-14 15:04:55.722074,-127
2021-10-14 15:04:55.722083,-120
2021-10-14 15:04:55.722091,-125
2021-10-14 15:04:55.722100,-130
2021-10-14 15:04:55.722108,-127
2021-10-14 15:04:55.722117,-127
2021-10-14 15:04:55.722125,-130
2021-10-14 15:04:55.722138,-130
2021-10-14 15:04:55.722147,-120
2021-10-14 15:04:55.722155,-112
2021-10-14 15:04:55.722164,-115
2021-10-14 15:04:55.722173,-120
2021-10-14 15:04:55.722181,-112
2021-10-14 15:04:55.722189,-100
2021-10-14 15:04:55.722198,-100
2021-10-14 15:04:55.722206,-100
2021-10-14 15:04:55.722214,-98
2021-10-14 15:04:55.722223,-98
2021-10-14 15:04:55.722231,-88
2021-10-14 15:04:55.722239,-51
2021-10-14 15:04:55.722248,-24
2021-10-14 15:04:55.722256,-34
2021-10-14 15:04:55.722265,-36
2021-10-14 15:04:55.722285,-41
2021-10-14 15:04:55.901598,-66
2021-10-14 15:04:55.901619,-73
2021-10-14 15:04:55.901629,-58
2021-10-14 15:04:55.901638,-56
2021-10-14 15:04:55.901646,-68
2021-10-14 15:04:55.901655,-71
2021-10-14 15:04:55.901664,-58
2021-10-14 15:04:55.901672,-46
2021-10-14 15:04:55.901681,-51
2021-10-14 15:04:55.901689,-44
2021-10-14 15:04:55.901698,46
2021-10-14 15:04:55.901706,304
2021-10-14 15:04:55.901715,652
2021-10-14 15:04:55.901723,714
2021-10-14 15:04:55.901732,130
2021-10-14 15:04:55.901740,-500
2021-10-14 15:04:55.901749,-294
2021-10-14 15:04:55.901761,127
2021-10-14 15:04:55.901769,44
2021-10-14 15:04:55.901778,-44
2021-10-14 15:04:55.901786,66
2021-10-14 15:04:55.901795,66
2021-10-14 15:04:55.901803,26
2021-10-14 15:04:55.901812,83
2021-10-14 15:04:55.901820,127
2021-10-14 15:04:55.901829,127
2021-10-14 15:04:55.901837,142
2021-10-14 15:04:55.901846,169
2021-10-14 15:04:55.901854,186
2021-10-14 15:04:55.901863,208
2021-10-14 15:04:56.216990,242
2021-10-14 15:04:56.217011,269
2021-10-14 15:04:56.217021,299
2021-10-14 15:04:56.217030,328
2021-10-14 15:04:56.217039,355
2021-10-14 15:04:56.217047,395
2021-10-14 15:04:56.217056,429
2021-10-14 15:04:56.217069,449
2021-10-14 15:04:56.217078,453
2021-10-14 15:04:56.217087,436
2021-10-14 15:04:56.217095,409
2021-10-14 15:04:56.217104,382
2021-10-14 15:04:56.217112,323
2021-10-14 15:04:56.217121,223
2021-10-14 15:04:56.217129,115
2021-10-14 15:04:56.217138,24
2021-10-14 15:04:56.217146,-56
2021-10-14 15:04:56.217155,-112
2021-10-14 15:04:56.217163,-137
2021-10-14 15:04:56.217172,-154
2021-10-14 15:04:56.217180,-171
2021-10-14 15:04:56.217189,-174
2021-10-14 15:04:56.217197,-169
2021-10-14 15:04:56.217206,-164
2021-10-14 15:04:56.217215,-149
2021-10-14 15:04:56.217223,-127
2021-10-14 15:04:56.217231,-120
2021-10-14 15:04:56.217239,-117
2021-10-14 15:04:56.217248,-100
2021-10-14 15:04:56.217257,-85
2021-10-14 15:04:56.440277,-85
2021-10-14 15:04:56.440299,-85
2021-10-14 15:04:56.440309,-85
2021-10-14 15:04:56.440317,-93
2021-10-14 15:04:56.440326,-88
2021-10-14 15:04:56.440335,-83
2021-10-14 15:04:56.440343,-78
2021-10-14 15:04:56.440352,-73
2021-10-14 15:04:56.440360,-83
2021-10-14 15:04:56.440369,-103
2021-10-14 15:04:56.440377,-98
2021-10-14 15:04:56.440386,-80
2021-10-14 15:04:56.440394,-78
2021-10-14 15:04:56.440403,-85
2021-10-14 15:04:56.440411,-80
2021-10-14 15:04:56.440420,-76
2021-10-14 15:04:56.440428,-78
2021-10-14 15:04:56.440437,-68
2021-10-14 15:04:56.440446,-61
2021-10-14 15:04:56.440454,-68
2021-10-14 15:04:56.440463,-83
2021-10-14 15:04:56.440471,-85
2021-10-14 15:04:56.440480,-56
2021-10-14 15:04:56.440488,-17
2021-10-14 15:04:56.440506,0
2021-10-14 15:04:56.440515,4
2021-10-14 15:04:56.440524,0
2021-10-14 15:04:56.440532,-29
2021-10-14 15:04:56.440541,-49
2021-10-14 15:04:56.440549,-39
2021-10-14 15:04:56.712002,-24
2021-10-14 15:04:56.712035,-19
2021-10-14 15:04:56.712045,-22
2021-10-14 15:04:56.712054,-22
2021-10-14 15:04:56.712063,-19
2021-10-14 15:04:56.712071,-19
2021-10-14 15:04:56.712080,-7
2021-10-14 15:04:56.712089,39
2021-10-14 15:04:56.712097,201
2021-10-14 15:04:56.712106,537
2021-10-14 15:04:56.712114,804
2021-10-14 15:04:56.712123,493
2021-10-14 15:04:56.712132,-294
2021-10-14 15:04:56.712141,-498
2021-10-14 15:04:56.712149,-14
2021-10-14 15:04:56.712158,127
2021-10-14 15:04:56.712166,-36
2021-10-14 15:04:56.712175,22
2021-10-14 15:04:56.712183,85
2021-10-14 15:04:56.712192,36
2021-10-14 15:04:56.712201,53
2021-10-14 15:04:56.712209,95
2021-10-14 15:04:56.712219,98
2021-10-14 15:04:56.712228,115
2021-10-14 15:04:56.712237,149
2021-10-14 15:04:56.712245,161
2021-10-14 15:04:56.712254,181
2021-10-14 15:04:56.712262,211
2021-10-14 15:04:56.712271,240
2021-10-14 15:04:56.712279,269
2021-10-14 15:04:56.846614,309
2021-10-14 15:04:56.846634,348
2021-10-14 15:04:56.846644,387
2021-10-14 15:04:56.846652,417
2021-10-14 15:04:56.846661,439
2021-10-14 15:04:56.846670,449
2021-10-14 15:04:56.846678,451
2021-10-14 15:04:56.846687,444
2021-10-14 15:04:56.846696,407
2021-10-14 15:04:56.846704,350
2021-10-14 15:04:56.846712,279
2021-10-14 15:04:56.846721,174
2021-10-14 15:04:56.846730,58
2021-10-14 15:04:56.846738,-41
2021-10-14 15:04:56.846747,-120
2021-10-14 15:04:56.846755,-166
2021-10-14 15:04:56.846764,-188
2021-10-14 15:04:56.846773,-201
2021-10-14 15:04:56.846781,-218
2021-10-14 15:04:56.846790,-228
2021-10-14 15:04:56.846799,-223
2021-10-14 15:04:56.846807,-211
2021-10-14 15:04:56.846816,-196
2021-10-14 15:04:56.846824,-188
2021-10-14 15:04:56.846837,-184
2021-10-14 15:04:56.846846,-181
2021-10-14 15:04:56.846854,-166
2021-10-14 15:04:56.846863,-147
2021-10-14 15:04:56.846871,-139
2021-10-14 15:04:56.846879,-132
2021-10-14 15:04:57.071990,-125
2021-10-14 15:04:57.072011,-127
2021-10-14 15:04:57.072021,-127
2021-10-14 15:04:57.072030,-122
2021-10-14 15:04:57.072038,-115
2021-10-14 15:04:57.072047,-110
2021-10-14 15:04:57.072056,-107
2021-10-14 15:04:57.072064,-120
2021-10-14 15:04:57.072073,-127
2021-10-14 15:04:57.072081,-117
2021-10-14 15:04:57.072089,-105
2021-10-14 15:04:57.072099,-107
2021-10-14 15:04:57.072107,-117
2021-10-14 15:04:57.072116,-117
2021-10-14 15:04:57.072124,-107
2021-10-14 15:04:57.072133,-110
2021-10-14 15:04:57.072141,-112
2021-10-14 15:04:57.072150,-90
2021-10-14 15:04:57.072158,-58
2021-10-14 15:04:57.072167,-36
2021-10-14 15:04:57.072175,-36
2021-10-14 15:04:57.072184,-41
2021-10-14 15:04:57.072192,-44
2021-10-14 15:04:57.072200,-66
2021-10-14 15:04:57.072209,-85
2021-10-14 15:04:57.072217,-80
2021-10-14 15:04:57.072226,-68
2021-10-14 15:04:57.072234,-71
2021-10-14 15:04:57.072243,-66
2021-10-14 15:04:57.072251,-53
2021-10-14 15:04:57.296624,-53
2021-10-14 15:04:57.296645,-58
2021-10-14 15:04:57.296654,-44
2021-10-14 15:04:57.296663,17
2021-10-14 15:04:57.296672,230
2021-10-14 15:04:57.296680,596
2021-10-14 15:04:57.296689,750
2021-10-14 15:04:57.296697,250
2021-10-14 15:04:57.296706,-490
2021-10-14 15:04:57.296714,-456
2021-10-14 15:04:57.296723,41
2021-10-14 15:04:57.296731,76
2021-10-14 15:04:57.296740,-56
2021-10-14 15:04:57.296748,24
2021-10-14 15:04:57.296757,41
2021-10-14 15:04:57.296765,-4
2021-10-14 15:04:57.296774,39
2021-10-14 15:04:57.296782,76
2021-10-14 15:04:57.296791,68
2021-10-14 15:04:57.296799,88
2021-10-14 15:04:57.296807,122
2021-10-14 15:04:57.296815,139
2021-10-14 15:04:57.296824,159
2021-10-14 15:04:57.296832,181
2021-10-14 15:04:57.296841,211
2021-10-14 15:04:57.296849,252
2021-10-14 15:04:57.296857,294
2021-10-14 15:04:57.296866,326
2021-10-14 15:04:57.296874,365
2021-10-14 15:04:57.296882,402
2021-10-14 15:04:57.566994,422
2021-10-14 15:04:57.567015,429
2021-10-14 15:04:57.567024,426
2021-10-14 15:04:57.567033,412
2021-10-14 15:04:57.567042,380
2021-10-14 15:04:57.567051,326
2021-10-14 15:04:57.567060,235
2021-10-14 15:04:57.567068,122
2021-10-14 15:04:57.567077,17
2021-10-14 15:04:57.567085,-76
2021-10-14 15:04:57.567099,-149
2021-10-14 15:04:57.567108,-198
2021-10-14 15:04:57.567116,-228
2021-10-14 15:04:57.567125,-238
2021-10-14 15:04:57.567134,-240
2021-10-14 15:04:57.567142,-238
2021-10-14 15:04:57.567151,-235
2021-10-14 15:04:57.567160,-233
2021-10-14 15:04:57.567168,-218
2021-10-14 15:04:57.567176,-191
2021-10-14 15:04:57.567185,-179
2021-10-14 15:04:57.567194,-174
2021-10-14 15:04:57.567203,-169
2021-10-14 15:04:57.567212,-166
2021-10-14 15:04:57.567220,-161
2021-10-14 15:04:57.567229,-154
2021-10-14 15:04:57.567237,-147
2021-10-14 15:04:57.567246,-139
2021-10-14 15:04:57.567254,-134
2021-10-14 15:04:57.567263,-132
2021-10-14 15:04:57.746561,-127
2021-10-14 15:04:57.746581,-120
2021-10-14 15:04:57.746590,-117
2021-10-14 15:04:57.746599,-122
2021-10-14 15:04:57.746608,-132
2021-10-14 15:04:57.746617,-127
2021-10-14 15:04:57.746625,-122
2021-10-14 15:04:57.746634,-120
2021-10-14 15:04:57.746643,-117
2021-10-14 15:04:57.746651,-117
2021-10-14 15:04:57.746660,-125
2021-10-14 15:04:57.746669,-130
2021-10-14 15:04:57.746677,-117
2021-10-14 15:04:57.746686,-88
2021-10-14 15:04:57.746694,-51
2021-10-14 15:04:57.746703,-36
2021-10-14 15:04:57.746711,-41
2021-10-14 15:04:57.746720,-44
2021-10-14 15:04:57.746728,-63
2021-10-14 15:04:57.746737,-103
2021-10-14 15:04:57.746745,-110
2021-10-14 15:04:57.746754,-90
2021-10-14 15:04:57.746762,-85
2021-10-14 15:04:57.746771,-88
2021-10-14 15:04:57.746780,-80
2021-10-14 15:04:57.746794,-76
2021-10-14 15:04:57.746803,-76
2021-10-14 15:04:57.746811,-78
2021-10-14 15:04:57.746820,-41
2021-10-14 15:04:57.746828,122
2021-10-14 15:04:57.971978,456
2021-10-14 15:04:57.971999,758
2021-10-14 15:04:57.972008,576
2021-10-14 15:04:57.972017,-171
2021-10-14 15:04:57.972026,-556
2021-10-14 15:04:57.972034,-132
2021-10-14 15:04:57.972043,117
2021-10-14 15:04:57.972051,-44
2021-10-14 15:04:57.972060,-26
2021-10-14 15:04:57.972069,53
2021-10-14 15:04:57.972077,9
2021-10-14 15:04:57.972086,19
2021-10-14 15:04:57.972094,71
2021-10-14 15:04:57.972103,76
2021-10-14 15:04:57.972111,83
2021-10-14 15:04:57.972120,105
2021-10-14 15:04:57.972128,120
2021-10-14 15:04:57.972137,137
2021-10-14 15:04:57.972145,166
2021-10-14 15:04:57.972154,201
2021-10-14 15:04:57.972162,235
2021-10-14 15:04:57.972171,262
2021-10-14 15:04:57.972179,294
2021-10-14 15:04:57.972188,343
2021-10-14 15:04:57.972196,385
2021-10-14 15:04:57.972205,409
2021-10-14 15:04:57.972213,426
2021-10-14 15:04:57.972222,429
2021-10-14 15:04:57.972230,422
2021-10-14 15:04:57.972238,399
2021-10-14 15:04:58.241967,355
2021-10-14 15:04:58.241988,284
2021-10-14 15:04:58.241998,191
2021-10-14 15:04:58.242007,80
2021-10-14 15:04:58.242016,-19
2021-10-14 15:04:58.242024,-83
2021-10-14 15:04:58.242033,-122
2021-10-14 15:04:58.242042,-152
2021-10-14 15:04:58.242050,-181
2021-10-14 15:04:58.242059,-198
2021-10-14 15:04:58.242067,-208
2021-10-14 15:04:58.242076,-213
2021-10-14 15:04:58.242085,-191
2021-10-14 15:04:58.242093,-157
2021-10-14 15:04:58.242102,-161
2021-10-14 15:04:58.242110,-181
2021-10-14 15:04:58.242122,-164
2021-10-14 15:04:58.242131,-134
2021-10-14 15:04:58.242139,-125
2021-10-14 15:04:58.242148,-117
2021-10-14 15:04:58.242157,-120
2021-10-14 15:04:58.242165,-130
2021-10-14 15:04:58.242173,-125
2021-10-14 15:04:58.242182,-110
2021-10-14 15:04:58.242191,-107
2021-10-14 15:04:58.242199,-115
2021-10-14 15:04:58.242208,-122
2021-10-14 15:04:58.242216,-117
2021-10-14 15:04:58.242224,-115
2021-10-14 15:04:58.242232,-120
2021-10-14 15:04:58.556302,-112
2021-10-14 15:04:58.556324,-98
2021-10-14 15:04:58.556333,-110
2021-10-14 15:04:58.556342,-127
2021-10-14 15:04:58.556351,-117
2021-10-14 15:04:58.556360,-95
2021-10-14 15:04:58.556368,-90
2021-10-14 15:04:58.556377,-100
2021-10-14 15:04:58.556385,-112
2021-10-14 15:04:58.556394,-120
2021-10-14 15:04:58.556402,-107
2021-10-14 15:04:58.556411,-73
2021-10-14 15:04:58.556419,-31
2021-10-14 15:04:58.556428,-7
2021-10-14 15:04:58.556437,-24
2021-10-14 15:04:58.556445,-53
2021-10-14 15:04:58.556454,-66
2021-10-14 15:04:58.556462,-71
2021-10-14 15:04:58.556471,-63
2021-10-14 15:04:58.556479,-53
2021-10-14 15:04:58.556488,-63
2021-10-14 15:04:58.556496,-66
2021-10-14 15:04:58.556505,-51
2021-10-14 15:04:58.556513,-44
2021-10-14 15:04:58.556522,-39
2021-10-14 15:04:58.556530,-26
2021-10-14 15:04:58.556538,0
2021-10-14 15:04:58.556547,147
2021-10-14 15:04:58.556555,498
2021-10-14 15:04:58.556564,814
2021-10-14 15:04:58.737020,586
2021-10-14 15:04:58.737045,-191
2021-10-14 15:04:58.737055,-522
2021-10-14 15:04:58.737064,-85
2021-10-14 15:04:58.737072,122
2021-10-14 15:04:58.737081,-36
2021-10-14 15:04:58.737089,-2
2021-10-14 15:04:58.737098,68
2021-10-14 15:04:58.737107,19
2021-10-14 15:04:58.737115,26
2021-10-14 15:04:58.737124,78
2021-10-14 15:04:58.737132,90
2021-10-14 15:04:58.737140,98
2021-10-14 15:04:58.737153,117
2021-10-14 15:04:58.737162,134
2021-10-14 15:04:58.737170,154
2021-10-14 15:04:58.737179,186
2021-10-14 15:04:58.737188,223
2021-10-14 15:04:58.737196,252
2021-10-14 15:04:58.737205,274
2021-10-14 15:04:58.737213,306
2021-10-14 15:04:58.737222,350
2021-10-14 15:04:58.737231,387
2021-10-14 15:04:58.737239,407
2021-10-14 15:04:58.737247,429
2021-10-14 15:04:58.737256,439
2021-10-14 15:04:58.737264,424
2021-10-14 15:04:58.737273,407
2021-10-14 15:04:58.737281,372
2021-10-14 15:04:58.737290,299
2021-10-14 15:04:58.961666,193
2021-10-14 15:04:58.961687,76
2021-10-14 15:04:58.961697,-29
2021-10-14 15:04:58.961706,-110
2021-10-14 15:04:58.961715,-164
2021-10-14 15:04:58.961724,-193
2021-10-14 15:04:58.961732,-235
2021-10-14 15:04:58.961741,-262
2021-10-14 15:04:58.961749,-250
2021-10-14 15:04:58.961758,-245
2021-10-14 15:04:58.961766,-252
2021-10-14 15:04:58.961775,-233
2021-10-14 15:04:58.961783,-218
2021-10-14 15:04:58.961792,-220
2021-10-14 15:04:58.961801,-208
2021-10-14 15:04:58.961809,-186
2021-10-14 15:04:58.961817,-174
2021-10-14 15:04:58.961826,-164
2021-10-14 15:04:58.961834,-166
2021-10-14 15:04:58.961843,-181
2021-10-14 15:04:58.961851,-169
2021-10-14 15:04:58.961860,-139
2021-10-14 15:04:58.961868,-134
2021-10-14 15:04:58.961877,-144
2021-10-14 15:04:58.961885,-139
2021-10-14 15:04:58.961894,-125
2021-10-14 15:04:58.961902,-127
2021-10-14 15:04:58.961910,-142
2021-10-14 15:04:58.961919,-134
2021-10-14 15:04:58.961927,-120
2021-10-14 15:04:59.231435,-127
2021-10-14 15:04:59.231456,-130
2021-10-14 15:04:59.231465,-110
2021-10-14 15:04:59.231474,-98
2021-10-14 15:04:59.231483,-100
2021-10-14 15:04:59.231491,-103
2021-10-14 15:04:59.231499,-110
2021-10-14 15:04:59.231508,-103
2021-10-14 15:04:59.231516,-66
2021-10-14 15:04:59.231525,-44
2021-10-14 15:04:59.231533,-46
2021-10-14 15:04:59.231541,-41
2021-10-14 15:04:59.231550,-46
2021-10-14 15:04:59.231558,-73
2021-10-14 15:04:59.231567,-83
2021-10-14 15:04:59.231575,-71
2021-10-14 15:04:59.231584,-68
2021-10-14 15:04:59.231595,-76
2021-10-14 15:04:59.231604,-76
2021-10-14 15:04:59.231612,-73
2021-10-14 15:04:59.231621,-71
2021-10-14 15:04:59.231629,-61
2021-10-14 15:04:59.231637,-31
2021-10-14 15:04:59.231646,56
2021-10-14 15:04:59.231654,318
2021-10-14 15:04:59.231663,691
2021-10-14 15:04:59.231671,721
2021-10-14 15:04:59.231679,80
2021-10-14 15:04:59.231688,-537
2021-10-14 15:04:59.231697,-301
2021-10-14 15:04:59.502033,110
2021-10-14 15:04:59.502055,31
2021-10-14 15:04:59.502064,-31
2021-10-14 15:04:59.502073,71
2021-10-14 15:04:59.502081,66
2021-10-14 15:04:59.502090,44
2021-10-14 15:04:59.502099,88
2021-10-14 15:04:59.502107,93
2021-10-14 15:04:59.502115,83
2021-10-14 15:04:59.502124,107
2021-10-14 15:04:59.502132,127
2021-10-14 15:04:59.502141,120
2021-10-14 15:04:59.502149,137
2021-10-14 15:04:59.502158,188
2021-10-14 15:04:59.502166,223
2021-10-14 15:04:59.502175,242
2021-10-14 15:04:59.502183,289
2021-10-14 15:04:59.502192,333
2021-10-14 15:04:59.502200,358
2021-10-14 15:04:59.502209,395
2021-10-14 15:04:59.502217,419
2021-10-14 15:04:59.502225,417
2021-10-14 15:04:59.502234,414
2021-10-14 15:04:59.502242,399
2021-10-14 15:04:59.502251,363
2021-10-14 15:04:59.502259,309
2021-10-14 15:04:59.502267,228
2021-10-14 15:04:59.502276,117
2021-10-14 15:04:59.502284,7
2021-10-14 15:04:59.502292,-78
2021-10-14 15:04:59.591626,-139
2021-10-14 15:04:59.591647,-174
2021-10-14 15:04:59.591656,-198
2021-10-14 15:04:59.591665,-220
2021-10-14 15:04:59.591674,-230
2021-10-14 15:04:59.591682,-225
2021-10-14 15:04:59.591691,-203
2021-10-14 15:04:59.591699,-188
2021-10-14 15:04:59.591708,-191
2021-10-14 15:04:59.591717,-191
2021-10-14 15:04:59.591725,-184
2021-10-14 15:04:59.591734,-179
2021-10-14 15:04:59.591742,-159
2021-10-14 15:04:59.591751,-139
2021-10-14 15:04:59.591760,-144
2021-10-14 15:04:59.591768,-154
2021-10-14 15:04:59.591776,-137
2021-10-14 15:04:59.591785,-117
2021-10-14 15:04:59.591793,-112
2021-10-14 15:04:59.591802,-112
2021-10-14 15:04:59.591810,-110
2021-10-14 15:04:59.591818,-112
2021-10-14 15:04:59.591827,-117
2021-10-14 15:04:59.591835,-122
2021-10-14 15:04:59.591843,-110
2021-10-14 15:04:59.591852,-100
2021-10-14 15:04:59.591860,-103
2021-10-14 15:04:59.591869,-100
2021-10-14 15:04:59.591877,-98
2021-10-14 15:04:59.591889,-107
2021-10-14 15:04:59.907044,-110
2021-10-14 15:04:59.907065,-95
2021-10-14 15:04:59.907075,-90
2021-10-14 15:04:59.907084,-107
2021-10-14 15:04:59.907093,-117
2021-10-14 15:04:59.907102,-83
2021-10-14 15:04:59.907110,-31
2021-10-14 15:04:59.907119,-24
2021-10-14 15:04:59.907127,-34
2021-10-14 15:04:59.907136,-26
2021-10-14 15:04:59.907144,-49
2021-10-14 15:04:59.907153,-76
2021-10-14 15:04:59.907161,-85
2021-10-14 15:04:59.907170,-100
2021-10-14 15:04:59.907179,-110
2021-10-14 15:04:59.907187,-95
2021-10-14 15:04:59.907195,-76
2021-10-14 15:04:59.907204,-61
2021-10-14 15:04:59.907212,-66
2021-10-14 15:04:59.907221,-80
2021-10-14 15:04:59.907229,-31
2021-10-14 15:04:59.907238,159
2021-10-14 15:04:59.907246,493
2021-10-14 15:04:59.907255,767
2021-10-14 15:04:59.907263,547
2021-10-14 15:04:59.907271,-179
2021-10-14 15:04:59.907280,-485
2021-10-14 15:04:59.907288,-80
2021-10-14 15:04:59.907297,110
2021-10-14 15:04:59.907305,-44
2021-10-14 15:05:00.402034,-17
2021-10-14 15:05:00.402055,53
2021-10-14 15:05:00.402065,14
2021-10-14 15:05:00.402074,14
2021-10-14 15:05:00.402082,61
2021-10-14 15:05:00.402091,73
2021-10-14 15:05:00.402099,78
2021-10-14 15:05:00.402108,100
2021-10-14 15:05:00.402116,115
2021-10-14 15:05:00.402125,132
2021-10-14 15:05:00.402133,164
2021-10-14 15:05:00.402142,188
2021-10-14 15:05:00.402150,208
2021-10-14 15:05:00.402159,257
2021-10-14 15:05:00.402167,318
2021-10-14 15:05:00.402175,338
2021-10-14 15:05:00.402184,350
2021-10-14 15:05:00.402192,392
2021-10-14 15:05:00.402201,426
2021-10-14 15:05:00.402209,424
2021-10-14 15:05:00.402217,407
2021-10-14 15:05:00.402226,380
2021-10-14 15:05:00.402234,328
2021-10-14 15:05:00.402243,257
2021-10-14 15:05:00.402251,169
2021-10-14 15:05:00.402260,66
2021-10-14 15:05:00.402268,-24
2021-10-14 15:05:00.402277,-93
2021-10-14 15:05:00.402285,-152
2021-10-14 15:05:00.402294,-191
2021-10-14 15:05:00.627271,-213
2021-10-14 15:05:00.627293,-223
2021-10-14 15:05:00.627303,-225
2021-10-14 15:05:00.627311,-218
2021-10-14 15:05:00.627320,-208
2021-10-14 15:05:00.627329,-201
2021-10-14 15:05:00.627337,-188
2021-10-14 15:05:00.627346,-176
2021-10-14 15:05:00.627354,-179
2021-10-14 15:05:00.627362,-186
2021-10-14 15:05:00.627371,-174
2021-10-14 15:05:00.627379,-154
2021-10-14 15:05:00.627388,-137
2021-10-14 15:05:00.627396,-125
2021-10-14 15:05:00.627405,-130
2021-10-14 15:05:00.627413,-144
2021-10-14 15:05:00.627422,-152
2021-10-14 15:05:00.627430,-157
2021-10-14 15:05:00.627439,-164
2021-10-14 15:05:00.627447,-154
2021-10-14 15:05:00.627459,-154
2021-10-14 15:05:00.627468,-164
2021-10-14 15:05:00.627476,-152
2021-10-14 15:05:00.627485,-132
2021-10-14 15:05:00.627494,-142
2021-10-14 15:05:00.627502,-154
2021-10-14 15:05:00.627511,-147
2021-10-14 15:05:00.627519,-137
2021-10-14 15:05:00.627528,-127
2021-10-14 15:05:00.627536,-122
2021-10-14 15:05:00.940245,-117
2021-10-14 15:05:00.940266,-112
2021-10-14 15:05:00.940276,-120
2021-10-14 15:05:00.940285,-127
2021-10-14 15:05:00.940293,-115
2021-10-14 15:05:00.940302,-83
2021-10-14 15:05:00.940310,-49
2021-10-14 15:05:00.940319,-39
2021-10-14 15:05:00.940327,-46
2021-10-14 15:05:00.940336,-49
2021-10-14 15:05:00.940344,-61
2021-10-14 15:05:00.940352,-83
2021-10-14 15:05:00.940361,-83
2021-10-14 15:05:00.940369,-76
2021-10-14 15:05:00.940377,-78
2021-10-14 15:05:00.940386,-76
2021-10-14 15:05:00.940394,-71
2021-10-14 15:05:00.940403,-73
2021-10-14 15:05:00.940412,-61
2021-10-14 15:05:00.940420,-39
2021-10-14 15:05:00.940429,44
2021-10-14 15:05:00.940437,321
2021-10-14 15:05:00.940445,696
2021-10-14 15:05:00.940455,721
2021-10-14 15:05:00.940463,80
2021-10-14 15:05:00.940471,-537
2021-10-14 15:05:00.940480,-311
2021-10-14 15:05:00.940488,80
2021-10-14 15:05:00.940497,-2
2021-10-14 15:05:00.940505,-58
2021-10-14 15:05:01.076657,34
2021-10-14 15:05:01.076678,22
2021-10-14 15:05:01.076687,9
2021-10-14 15:05:01.076696,63
2021-10-14 15:05:01.076705,71
2021-10-14 15:05:01.076713,56
2021-10-14 15:05:01.076722,85
2021-10-14 15:05:01.076730,120
2021-10-14 15:05:01.076739,132
2021-10-14 15:05:01.076748,149
2021-10-14 15:05:01.076756,191
2021-10-14 15:05:01.076765,240
2021-10-14 15:05:01.076773,264
2021-10-14 15:05:01.076782,279
2021-10-14 15:05:01.076790,309
2021-10-14 15:05:01.076799,365
2021-10-14 15:05:01.076807,412
2021-10-14 15:05:01.076816,431
2021-10-14 15:05:01.076824,424
2021-10-14 15:05:01.076832,402
2021-10-14 15:05:01.076841,390
2021-10-14 15:05:01.076849,375
2021-10-14 15:05:01.076858,311
2021-10-14 15:05:01.076866,198
2021-10-14 15:05:01.076875,56
2021-10-14 15:05:01.076883,-63
2021-10-14 15:05:01.076892,-130
2021-10-14 15:05:01.076900,-176
2021-10-14 15:05:01.076908,-218
2021-10-14 15:05:01.076917,-238
2021-10-14 15:05:01.300461,-257
2021-10-14 15:05:01.300483,-272
2021-10-14 15:05:01.300493,-252
2021-10-14 15:05:01.300502,-235
2021-10-14 15:05:01.300510,-245
2021-10-14 15:05:01.300519,-238
2021-10-14 15:05:01.300527,-213
2021-10-14 15:05:01.300536,-208
2021-10-14 15:05:01.300544,-198
2021-10-14 15:05:01.300552,-174
2021-10-14 15:05:01.300561,-161
2021-10-14 15:05:01.300570,-166
2021-10-14 15:05:01.300578,-152
2021-10-14 15:05:01.300586,-132
2021-10-14 15:05:01.300595,-144
2021-10-14 15:05:01.300603,-152
2021-10-14 15:05:01.300612,-125
2021-10-14 15:05:01.300620,-117
2021-10-14 15:05:01.300628,-132
2021-10-14 15:05:01.300637,-130
2021-10-14 15:05:01.300645,-125
2021-10-14 15:05:01.300654,-117
2021-10-14 15:05:01.300666,-110
2021-10-14 15:05:01.300675,-122
2021-10-14 15:05:01.300683,-137
2021-10-14 15:05:01.300692,-120
2021-10-14 15:05:01.300700,-103
2021-10-14 15:05:01.300709,-103
2021-10-14 15:05:01.300717,-98
2021-10-14 15:05:01.300726,-105
2021-10-14 15:05:01.435447,-122
2021-10-14 15:05:01.435468,-110
2021-10-14 15:05:01.435478,-93
2021-10-14 15:05:01.435487,-78
2021-10-14 15:05:01.435496,-46
2021-10-14 15:05:01.435504,-34
2021-10-14 15:05:01.435513,-36
2021-10-14 15:05:01.435521,-29
2021-10-14 15:05:01.435530,-39
2021-10-14 15:05:01.435538,-63
2021-10-14 15:05:01.435547,-66
2021-10-14 15:05:01.435555,-58
2021-10-14 15:05:01.435564,-51
2021-10-14 15:05:01.435572,-44
2021-10-14 15:05:01.435581,-39
2021-10-14 15:05:01.435589,-44
2021-10-14 15:05:01.435598,-44
2021-10-14 15:05:01.435606,-31
2021-10-14 15:05:01.435615,26
2021-10-14 15:05:01.435623,230
2021-10-14 15:05:01.435632,588
2021-10-14 15:05:01.435640,804
2021-10-14 15:05:01.435649,407
2021-10-14 15:05:01.435657,-326
2021-10-14 15:05:01.435666,-402
2021-10-14 15:05:01.435674,26
2021-10-14 15:05:01.435683,61
2021-10-14 15:05:01.435691,-73
2021-10-14 15:05:01.435700,7
2021-10-14 15:05:01.435708,36
2021-10-14 15:05:01.571069,-7
2021-10-14 15:05:01.571089,24
2021-10-14 15:05:01.571099,53
2021-10-14 15:05:01.571108,51
2021-10-14 15:05:01.571116,66
2021-10-14 15:05:01.571125,78
2021-10-14 15:05:01.571133,95
2021-10-14 15:05:01.571142,130
2021-10-14 15:05:01.571151,159
2021-10-14 15:05:01.571159,179
2021-10-14 15:05:01.571167,203
2021-10-14 15:05:01.571176,245
2021-10-14 15:05:01.571184,299
2021-10-14 15:05:01.571193,338
2021-10-14 15:05:01.571202,353
2021-10-14 15:05:01.571210,368
2021-10-14 15:05:01.571219,387
2021-10-14 15:05:01.571227,392
2021-10-14 15:05:01.571235,375
2021-10-14 15:05:01.571244,343
2021-10-14 15:05:01.571252,294
2021-10-14 15:05:01.571261,213
2021-10-14 15:05:01.571269,98
2021-10-14 15:05:01.571277,7
2021-10-14 15:05:01.571286,-56
2021-10-14 15:05:01.571294,-139
2021-10-14 15:05:01.571302,-213
2021-10-14 15:05:01.571311,-240
2021-10-14 15:05:01.571319,-245
2021-10-14 15:05:01.571327,-242
2021-10-14 15:05:01.797098,-233
2021-10-14 15:05:01.797119,-230
2021-10-14 15:05:01.797129,-220
2021-10-14 15:05:01.797138,-203
2021-10-14 15:05:01.797147,-203
2021-10-14 15:05:01.797155,-206
2021-10-14 15:05:01.797163,-184
2021-10-14 15:05:01.797172,-176
2021-10-14 15:05:01.797180,-164
2021-10-14 15:05:01.797189,-152
2021-10-14 15:05:01.797197,-157
2021-10-14 15:05:01.797205,-154
2021-10-14 15:05:01.797214,-137
2021-10-14 15:05:01.797222,-132
2021-10-14 15:05:01.797230,-132
2021-10-14 15:05:01.797238,-132
2021-10-14 15:05:01.797247,-132
2021-10-14 15:05:01.797255,-127
2021-10-14 15:05:01.797263,-125
2021-10-14 15:05:01.797271,-112
2021-10-14 15:05:01.797280,-103
2021-10-14 15:05:01.797288,-110
2021-10-14 15:05:01.797296,-120
2021-10-14 15:05:01.797304,-115
2021-10-14 15:05:01.797313,-115
2021-10-14 15:05:01.797321,-115
2021-10-14 15:05:01.797329,-100
2021-10-14 15:05:01.797338,-93
2021-10-14 15:05:01.797346,-100
2021-10-14 15:05:01.797354,-93
2021-10-14 15:05:02.066527,-90
2021-10-14 15:05:02.066549,-103
2021-10-14 15:05:02.066559,-98
2021-10-14 15:05:02.066568,-80
2021-10-14 15:05:02.066576,-98
2021-10-14 15:05:02.066591,-115
2021-10-14 15:05:02.066600,-93
2021-10-14 15:05:02.066608,-56
2021-10-14 15:05:02.066617,-24
2021-10-14 15:05:02.066625,-9
2021-10-14 15:05:02.066634,-29
2021-10-14 15:05:02.066642,-53
2021-10-14 15:05:02.066651,-49
2021-10-14 15:05:02.066659,-41
2021-10-14 15:05:02.066668,-53
2021-10-14 15:05:02.066676,-56
2021-10-14 15:05:02.066684,-44
2021-10-14 15:05:02.066693,-39
2021-10-14 15:05:02.066701,-39
2021-10-14 15:05:02.066710,-46
2021-10-14 15:05:02.066718,-49
2021-10-14 15:05:02.066726,0
2021-10-14 15:05:02.066735,179
2021-10-14 15:05:02.066743,522
2021-10-14 15:05:02.066752,794
2021-10-14 15:05:02.066760,515
2021-10-14 15:05:02.066769,-242
2021-10-14 15:05:02.066777,-478
2021-10-14 15:05:02.066785,-36
2021-10-14 15:05:02.066794,105
2021-10-14 15:05:02.246660,-56
2021-10-14 15:05:02.246681,-2
2021-10-14 15:05:02.246691,46
2021-10-14 15:05:02.246699,-17
2021-10-14 15:05:02.246708,12
2021-10-14 15:05:02.246717,63
2021-10-14 15:05:02.246725,56
2021-10-14 15:05:02.246733,71
2021-10-14 15:05:02.246742,103
2021-10-14 15:05:02.246750,107
2021-10-14 15:05:02.246759,120
2021-10-14 15:05:02.246767,152
2021-10-14 15:05:02.246776,176
2021-10-14 15:05:02.246784,211
2021-10-14 15:05:02.246793,257
2021-10-14 15:05:02.246801,287
2021-10-14 15:05:02.246809,311
2021-10-14 15:05:02.246818,345
2021-10-14 15:05:02.246826,375
2021-10-14 15:05:02.246834,385
2021-10-14 15:05:02.246843,375
2021-10-14 15:05:02.246851,365
2021-10-14 15:05:02.246860,353
2021-10-14 15:05:02.246868,314
2021-10-14 15:05:02.246876,235
2021-10-14 15:05:02.246885,132
2021-10-14 15:05:02.246893,24
2021-10-14 15:05:02.246901,-63
2021-10-14 15:05:02.246910,-137
2021-10-14 15:05:02.246919,-193
2021-10-14 15:05:02.517222,-220
2021-10-14 15:05:02.517244,-235
2021-10-14 15:05:02.517254,-255
2021-10-14 15:05:02.517263,-257
2021-10-14 15:05:02.517271,-252
2021-10-14 15:05:02.517280,-247
2021-10-14 15:05:02.517289,-240
2021-10-14 15:05:02.517297,-240
2021-10-14 15:05:02.517306,-238
2021-10-14 15:05:02.517315,-228
2021-10-14 15:05:02.517324,-218
2021-10-14 15:05:02.517332,-206
2021-10-14 15:05:02.517341,-198
2021-10-14 15:05:02.517350,-193
2021-10-14 15:05:02.517358,-188
2021-10-14 15:05:02.517367,-186
2021-10-14 15:05:02.517376,-181
2021-10-14 15:05:02.517384,-169
2021-10-14 15:05:02.517393,-166
2021-10-14 15:05:02.517402,-171
2021-10-14 15:05:02.517410,-169
2021-10-14 15:05:02.517419,-161
2021-10-14 15:05:02.517427,-159
2021-10-14 15:05:02.517436,-154
2021-10-14 15:05:02.517444,-149
2021-10-14 15:05:02.517453,-152
2021-10-14 15:05:02.517462,-159
2021-10-14 15:05:02.517470,-159
2021-10-14 15:05:02.517479,-147
2021-10-14 15:05:02.517487,-137
2021-10-14 15:05:02.921016,-134
2021-10-14 15:05:02.921037,-132
2021-10-14 15:05:02.921047,-132
2021-10-14 15:05:02.921055,-130
2021-10-14 15:05:02.921063,-120
2021-10-14 15:05:02.921071,-117
2021-10-14 15:05:02.921079,-122
2021-10-14 15:05:02.921087,-122
2021-10-14 15:05:02.921095,-95
2021-10-14 15:05:02.921104,-66
2021-10-14 15:05:02.921112,-66
2021-10-14 15:05:02.921120,-61
2021-10-14 15:05:02.921128,-49
2021-10-14 15:05:02.921136,-71
2021-10-14 15:05:02.921144,-103
2021-10-14 15:05:02.921152,-98
2021-10-14 15:05:02.921160,-76
2021-10-14 15:05:02.921168,-73
2021-10-14 15:05:02.921176,-76
2021-10-14 15:05:02.921184,-78
2021-10-14 15:05:02.921192,-78
2021-10-14 15:05:02.921200,-63
2021-10-14 15:05:02.921208,-19
2021-10-14 15:05:02.921216,117
2021-10-14 15:05:02.921224,419
2021-10-14 15:05:02.921232,731
2021-10-14 15:05:02.921240,598
2021-10-14 15:05:02.921248,-98
2021-10-14 15:05:02.921256,-498
2021-10-14 15:05:02.921264,-132
2021-10-14 15:05:03.235476,105
2021-10-14 15:05:03.235500,-63
2021-10-14 15:05:03.235510,-68
2021-10-14 15:05:03.235519,31
2021-10-14 15:05:03.235527,17
2021-10-14 15:05:03.235536,7
2021-10-14 15:05:03.235544,41
2021-10-14 15:05:03.235553,46
2021-10-14 15:05:03.235561,41
2021-10-14 15:05:03.235570,46
2021-10-14 15:05:03.235578,68
2021-10-14 15:05:03.235587,103
2021-10-14 15:05:03.235595,117
2021-10-14 15:05:03.235603,127
2021-10-14 15:05:03.235612,164
2021-10-14 15:05:03.235620,191
2021-10-14 15:05:03.235628,213
2021-10-14 15:05:03.235637,264
2021-10-14 15:05:03.235645,306
2021-10-14 15:05:03.235654,318
2021-10-14 15:05:03.235662,338
2021-10-14 15:05:03.235670,360
2021-10-14 15:05:03.235679,350
2021-10-14 15:05:03.235687,326
2021-10-14 15:05:03.235695,301
2021-10-14 15:05:03.235704,240
2021-10-14 15:05:03.235712,142
2021-10-14 15:05:03.235720,44
2021-10-14 15:05:03.235728,-41
2021-10-14 15:05:03.235737,-117
2021-10-14 15:05:03.460485,-176
2021-10-14 15:05:03.460507,-208
2021-10-14 15:05:03.460516,-228
2021-10-14 15:05:03.460525,-238
2021-10-14 15:05:03.460534,-228
2021-10-14 15:05:03.460542,-211
2021-10-14 15:05:03.460551,-208
2021-10-14 15:05:03.460559,-203
2021-10-14 15:05:03.460568,-186
2021-10-14 15:05:03.460576,-188
2021-10-14 15:05:03.460585,-196
2021-10-14 15:05:03.460593,-186
2021-10-14 15:05:03.460601,-171
2021-10-14 15:05:03.460610,-164
2021-10-14 15:05:03.460618,-152
2021-10-14 15:05:03.460627,-130
2021-10-14 15:05:03.460635,-125
2021-10-14 15:05:03.460644,-132
2021-10-14 15:05:03.460652,-127
2021-10-14 15:05:03.460661,-122
2021-10-14 15:05:03.460669,-125
2021-10-14 15:05:03.460677,-117
2021-10-14 15:05:03.460686,-110
2021-10-14 15:05:03.460694,-117
2021-10-14 15:05:03.460702,-117
2021-10-14 15:05:03.460711,-112
2021-10-14 15:05:03.460719,-110
2021-10-14 15:05:03.460728,-107
2021-10-14 15:05:03.460736,-103
2021-10-14 15:05:03.460745,-105
2021-10-14 15:05:03.730500,-110
2021-10-14 15:05:03.730522,-100
2021-10-14 15:05:03.730532,-93
2021-10-14 15:05:03.730540,-95
2021-10-14 15:05:03.730549,-95
2021-10-14 15:05:03.730557,-98
2021-10-14 15:05:03.730566,-98
2021-10-14 15:05:03.730574,-80
2021-10-14 15:05:03.730582,-76
2021-10-14 15:05:03.730591,-80
2021-10-14 15:05:03.730599,-95
2021-10-14 15:05:03.730608,-112
2021-10-14 15:05:03.730616,-90
2021-10-14 15:05:03.730624,-36
2021-10-14 15:05:03.730633,-12
2021-10-14 15:05:03.730641,-24
2021-10-14 15:05:03.730650,-44
2021-10-14 15:05:03.730658,-58
2021-10-14 15:05:03.730667,-66
2021-10-14 15:05:03.730675,-63
2021-10-14 15:05:03.730683,-66
2021-10-14 15:05:03.730692,-66
2021-10-14 15:05:03.730700,-63
2021-10-14 15:05:03.730709,-73
2021-10-14 15:05:03.730717,-90
2021-10-14 15:05:03.730725,-76
2021-10-14 15:05:03.730734,-41
2021-10-14 15:05:03.730742,39
2021-10-14 15:05:03.730750,287
2021-10-14 15:05:03.730759,647
2021-10-14 15:05:03.912067,758
2021-10-14 15:05:03.912088,235
2021-10-14 15:05:03.912097,-424
2021-10-14 15:05:03.912106,-326
2021-10-14 15:05:03.912115,71
2021-10-14 15:05:03.912123,14
2021-10-14 15:05:03.912132,-93
2021-10-14 15:05:03.912140,0
2021-10-14 15:05:03.912149,14
2021-10-14 15:05:03.912157,-22
2021-10-14 15:05:03.912165,12
2021-10-14 15:05:03.912174,39
2021-10-14 15:05:03.912182,36
2021-10-14 15:05:03.912191,36
2021-10-14 15:05:03.912199,36
2021-10-14 15:05:03.912208,49
2021-10-14 15:05:03.912216,80
2021-10-14 15:05:03.912224,115
2021-10-14 15:05:03.912233,149
2021-10-14 15:05:03.912241,184
2021-10-14 15:05:03.912250,220
2021-10-14 15:05:03.912258,255
2021-10-14 15:05:03.912266,294
2021-10-14 15:05:03.912275,323
2021-10-14 15:05:03.912283,343
2021-10-14 15:05:03.912291,365
2021-10-14 15:05:03.912300,372
2021-10-14 15:05:03.912308,348
2021-10-14 15:05:03.912317,316
2021-10-14 15:05:03.912325,269
2021-10-14 15:05:04.225548,193
2021-10-14 15:05:04.225570,95
2021-10-14 15:05:04.225580,-19
2021-10-14 15:05:04.225589,-112
2021-10-14 15:05:04.225597,-169
2021-10-14 15:05:04.225606,-213
2021-10-14 15:05:04.225614,-247
2021-10-14 15:05:04.225623,-257
2021-10-14 15:05:04.225632,-242
2021-10-14 15:05:04.225640,-242
2021-10-14 15:05:04.225648,-252
2021-10-14 15:05:04.225689,-240
2021-10-14 15:05:04.225699,-233
2021-10-14 15:05:04.225708,-235
2021-10-14 15:05:04.225716,-220
2021-10-14 15:05:04.225725,-198
2021-10-14 15:05:04.225734,-193
2021-10-14 15:05:04.225742,-191
2021-10-14 15:05:04.225751,-174
2021-10-14 15:05:04.225759,-157
2021-10-14 15:05:04.225768,-149
2021-10-14 15:05:04.225776,-159
2021-10-14 15:05:04.225785,-152
2021-10-14 15:05:04.225793,-134
2021-10-14 15:05:04.225802,-132
2021-10-14 15:05:04.225810,-142
2021-10-14 15:05:04.225819,-159
2021-10-14 15:05:04.225827,-176
2021-10-14 15:05:04.225836,-169
2021-10-14 15:05:04.225844,-147
2021-10-14 15:05:04.407138,-134
2021-10-14 15:05:04.407159,-130
2021-10-14 15:05:04.407169,-142
2021-10-14 15:05:04.407178,-154
2021-10-14 15:05:04.407187,-137
2021-10-14 15:05:04.407196,-125
2021-10-14 15:05:04.407204,-142
2021-10-14 15:05:04.407213,-142
2021-10-14 15:05:04.407221,-132
2021-10-14 15:05:04.407230,-137
2021-10-14 15:05:04.407239,-127
2021-10-14 15:05:04.407247,-110
2021-10-14 15:05:04.407256,-117
2021-10-14 15:05:04.407264,-120
2021-10-14 15:05:04.407273,-95
2021-10-14 15:05:04.407281,-58
2021-10-14 15:05:04.407290,-41
2021-10-14 15:05:04.407298,-53
2021-10-14 15:05:04.407307,-66
2021-10-14 15:05:04.407316,-68
2021-10-14 15:05:04.407324,-76
2021-10-14 15:05:04.407333,-100
2021-10-14 15:05:04.407341,-103
2021-10-14 15:05:04.407350,-73
2021-10-14 15:05:04.407359,-53
2021-10-14 15:05:04.407367,-63
2021-10-14 15:05:04.407376,-76
2021-10-14 15:05:04.407385,-78
2021-10-14 15:05:04.407393,-63
2021-10-14 15:05:04.407402,9
2021-10-14 15:05:04.632107,213
2021-10-14 15:05:04.632128,539
2021-10-14 15:05:04.632138,740
2021-10-14 15:05:04.632146,397
2021-10-14 15:05:04.632155,-287
2021-10-14 15:05:04.632164,-382
2021-10-14 15:05:04.632172,34
2021-10-14 15:05:04.632180,66
2021-10-14 15:05:04.632189,-100
2021-10-14 15:05:04.632197,-39
2021-10-14 15:05:04.632206,4
2021-10-14 15:05:04.632214,-34
2021-10-14 15:05:04.632223,-7
2021-10-14 15:05:04.632231,19
2021-10-14 15:05:04.632240,2
2021-10-14 15:05:04.632248,19
2021-10-14 15:05:04.632257,63
2021-10-14 15:05:04.632265,76
2021-10-14 15:05:04.632274,88
2021-10-14 15:05:04.632282,130
2021-10-14 15:05:04.632291,157
2021-10-14 15:05:04.632299,166
2021-10-14 15:05:04.632308,206
2021-10-14 15:05:04.632316,267
2021-10-14 15:05:04.632324,301
2021-10-14 15:05:04.632333,323
2021-10-14 15:05:04.632341,350
2021-10-14 15:05:04.632350,368
2021-10-14 15:05:04.632358,365
2021-10-14 15:05:04.632366,355
2021-10-14 15:05:04.901728,353
2021-10-14 15:05:04.901749,314
2021-10-14 15:05:04.901758,218
2021-10-14 15:05:04.901767,112
2021-10-14 15:05:04.901776,31
2021-10-14 15:05:04.901785,-44
2021-10-14 15:05:04.901793,-125
2021-10-14 15:05:04.901802,-191
2021-10-14 15:05:04.901810,-218
2021-10-14 15:05:04.901819,-215
2021-10-14 15:05:04.901827,-208
2021-10-14 15:05:04.901836,-208
2021-10-14 15:05:04.901844,-208
2021-10-14 15:05:04.901853,-203
2021-10-14 15:05:04.901861,-198
2021-10-14 15:05:04.901870,-174
2021-10-14 15:05:04.901878,-147
2021-10-14 15:05:04.901887,-157
2021-10-14 15:05:04.901895,-176
2021-10-14 15:05:04.901904,-161
2021-10-14 15:05:04.901912,-137
2021-10-14 15:05:04.901921,-132
2021-10-14 15:05:04.901929,-132
2021-10-14 15:05:04.901938,-120
2021-10-14 15:05:04.901946,-107
2021-10-14 15:05:04.901954,-103
2021-10-14 15:05:04.901963,-103
2021-10-14 15:05:04.901971,-110
2021-10-14 15:05:04.901980,-122
2021-10-14 15:05:04.901988,-115
2021-10-14 15:05:05.350267,-100
2021-10-14 15:05:05.350288,-110
2021-10-14 15:05:05.350312,-112
2021-10-14 15:05:05.350322,-93
2021-10-14 15:05:05.350331,-93
2021-10-14 15:05:05.350340,-98
2021-10-14 15:05:05.350349,-95
2021-10-14 15:05:05.350357,-105
2021-10-14 15:05:05.350366,-112
2021-10-14 15:05:05.350375,-100
2021-10-14 15:05:05.350383,-83
2021-10-14 15:05:05.350392,-78
2021-10-14 15:05:05.350401,-76
2021-10-14 15:05:05.350409,-71
2021-10-14 15:05:05.350418,-73
2021-10-14 15:05:05.350449,-76
2021-10-14 15:05:05.350489,-68
2021-10-14 15:05:05.350499,-68
2021-10-14 15:05:05.350508,-76
2021-10-14 15:05:05.350516,-61
2021-10-14 15:05:05.350525,-12
2021-10-14 15:05:05.350533,22
2021-10-14 15:05:05.350542,17
2021-10-14 15:05:05.350550,-9
2021-10-14 15:05:05.350559,-24
2021-10-14 15:05:05.350568,-24
2021-10-14 15:05:05.350576,-22
2021-10-14 15:05:05.350585,-31
2021-10-14 15:05:05.350633,-44
2021-10-14 15:05:05.350641,-44
2021-10-14 15:05:05.575527,-41
2021-10-14 15:05:05.575548,-36
2021-10-14 15:05:05.575557,-29
2021-10-14 15:05:05.575566,-9
2021-10-14 15:05:05.575575,88
2021-10-14 15:05:05.575584,341
2021-10-14 15:05:05.575592,657
2021-10-14 15:05:05.575601,674
2021-10-14 15:05:05.575612,90
2021-10-14 15:05:05.575621,-473
2021-10-14 15:05:05.575630,-255
2021-10-14 15:05:05.575638,78
2021-10-14 15:05:05.575647,-58
2021-10-14 15:05:05.575655,-120
2021-10-14 15:05:05.575664,0
2021-10-14 15:05:05.575672,-12
2021-10-14 15:05:05.575681,-46
2021-10-14 15:05:05.575689,9
2021-10-14 15:05:05.575698,36
2021-10-14 15:05:05.575706,17
2021-10-14 15:05:05.575715,29
2021-10-14 15:05:05.575723,56
2021-10-14 15:05:05.575732,76
2021-10-14 15:05:05.575740,107
2021-10-14 15:05:05.575749,147
2021-10-14 15:05:05.575757,171
2021-10-14 15:05:05.575766,184
2021-10-14 15:05:05.575774,218
2021-10-14 15:05:05.575783,267
2021-10-14 15:05:05.575791,294
2021-10-14 15:05:05.710520,318
2021-10-14 15:05:05.710541,353
2021-10-14 15:05:05.710551,363
2021-10-14 15:05:05.710560,365
2021-10-14 15:05:05.710568,372
2021-10-14 15:05:05.710577,341
2021-10-14 15:05:05.710585,274
2021-10-14 15:05:05.710594,208
2021-10-14 15:05:05.710602,117
2021-10-14 15:05:05.710611,7
2021-10-14 15:05:05.710628,-76
2021-10-14 15:05:05.710636,-127
2021-10-14 15:05:05.710644,-166
2021-10-14 15:05:05.710652,-191
2021-10-14 15:05:05.710659,-196
2021-10-14 15:05:05.710667,-196
2021-10-14 15:05:05.710674,-198
2021-10-14 15:05:05.710682,-198
2021-10-14 15:05:05.710690,-184
2021-10-14 15:05:05.710697,-176
2021-10-14 15:05:05.710705,-174
2021-10-14 15:05:05.710712,-157
2021-10-14 15:05:05.710720,-137
2021-10-14 15:05:05.710727,-134
2021-10-14 15:05:05.710735,-139
2021-10-14 15:05:05.710742,-132
2021-10-14 15:05:05.710750,-105
2021-10-14 15:05:05.710757,-88
2021-10-14 15:05:05.710765,-103
2021-10-14 15:05:05.710773,-122
2021-10-14 15:05:05.845515,-110
2021-10-14 15:05:05.845537,-90
2021-10-14 15:05:05.845546,-95
2021-10-14 15:05:05.845555,-95
2021-10-14 15:05:05.845563,-93
2021-10-14 15:05:05.845572,-103
2021-10-14 15:05:05.845580,-107
2021-10-14 15:05:05.845589,-98
2021-10-14 15:05:05.845598,-88
2021-10-14 15:05:05.845606,-88
2021-10-14 15:05:05.845615,-93
2021-10-14 15:05:05.845623,-90
2021-10-14 15:05:05.845632,-90
2021-10-14 15:05:05.845640,-103
2021-10-14 15:05:05.845649,-115
2021-10-14 15:05:05.845657,-107
2021-10-14 15:05:05.845665,-93
2021-10-14 15:05:05.845674,-93
2021-10-14 15:05:05.845682,-93
2021-10-14 15:05:05.845691,-83
2021-10-14 15:05:05.845699,-71
2021-10-14 15:05:05.845707,-73
2021-10-14 15:05:05.845716,-73
2021-10-14 15:05:05.845724,-66
2021-10-14 15:05:05.845732,-68
2021-10-14 15:05:05.845741,-76
2021-10-14 15:05:05.845749,-71
2021-10-14 15:05:05.845757,-51
2021-10-14 15:05:05.845766,-14
2021-10-14 15:05:05.845775,17
2021-10-14 15:05:06.070516,9
2021-10-14 15:05:06.070536,-9
2021-10-14 15:05:06.070546,-22
2021-10-14 15:05:06.070554,-41
2021-10-14 15:05:06.070563,-51
2021-10-14 15:05:06.070572,-36
2021-10-14 15:05:06.070580,-26
2021-10-14 15:05:06.070589,-36
2021-10-14 15:05:06.070597,-46
2021-10-14 15:05:06.070606,-58
2021-10-14 15:05:06.070614,-53
2021-10-14 15:05:06.070623,-22
2021-10-14 15:05:06.070631,78
2021-10-14 15:05:06.070640,341
2021-10-14 15:05:06.070648,667
2021-10-14 15:05:06.070656,645
2021-10-14 15:05:06.070665,46
2021-10-14 15:05:06.070673,-458
2021-10-14 15:05:06.070681,-213
2021-10-14 15:05:06.070690,103
2021-10-14 15:05:06.070699,-9
2021-10-14 15:05:06.070707,-56
2021-10-14 15:05:06.070716,29
2021-10-14 15:05:06.070724,7
2021-10-14 15:05:06.070733,0
2021-10-14 15:05:06.070741,63
2021-10-14 15:05:06.070750,73
2021-10-14 15:05:06.070758,51
2021-10-14 15:05:06.070767,71
2021-10-14 15:05:06.070775,112
2021-10-14 15:05:06.295512,137
2021-10-14 15:05:06.295533,159
2021-10-14 15:05:06.295542,179
2021-10-14 15:05:06.295551,201
2021-10-14 15:05:06.295560,238
2021-10-14 15:05:06.295568,282
2021-10-14 15:05:06.295577,314
2021-10-14 15:05:06.295585,336
2021-10-14 15:05:06.295594,365
2021-10-14 15:05:06.295602,397
2021-10-14 15:05:06.295611,417
2021-10-14 15:05:06.295619,414
2021-10-14 15:05:06.295628,402
2021-10-14 15:05:06.295636,387
2021-10-14 15:05:06.295644,331
2021-10-14 15:05:06.295653,230
2021-10-14 15:05:06.295661,137
2021-10-14 15:05:06.295670,61
2021-10-14 15:05:06.295678,-9
2021-10-14 15:05:06.295687,-68
2021-10-14 15:05:06.295695,-120
2021-10-14 15:05:06.295703,-159
2021-10-14 15:05:06.295712,-164
2021-10-14 15:05:06.295720,-152
2021-10-14 15:05:06.295728,-144
2021-10-14 15:05:06.295737,-137
2021-10-14 15:05:06.295745,-127
2021-10-14 15:05:06.295753,-117
2021-10-14 15:05:06.295762,-110
2021-10-14 15:05:06.295770,-105
2021-10-14 15:05:06.430524,-93
2021-10-14 15:05:06.430545,-78
2021-10-14 15:05:06.430555,-73
2021-10-14 15:05:06.430564,-66
2021-10-14 15:05:06.430573,-56
2021-10-14 15:05:06.430581,-58
2021-10-14 15:05:06.430590,-53
2021-10-14 15:05:06.430598,-51
2021-10-14 15:05:06.430607,-66
2021-10-14 15:05:06.430616,-66
2021-10-14 15:05:06.430624,-56
2021-10-14 15:05:06.430632,-51
2021-10-14 15:05:06.430641,-46
2021-10-14 15:05:06.430649,-49
2021-10-14 15:05:06.430657,-58
2021-10-14 15:05:06.430666,-58
2021-10-14 15:05:06.430674,-46
2021-10-14 15:05:06.430683,-34
2021-10-14 15:05:06.430691,-26
2021-10-14 15:05:06.430700,-29
2021-10-14 15:05:06.430708,-31
2021-10-14 15:05:06.430716,-19
2021-10-14 15:05:06.430725,-12
2021-10-14 15:05:06.430737,-29
2021-10-14 15:05:06.430746,-34
2021-10-14 15:05:06.430754,-24
2021-10-14 15:05:06.430763,-19
2021-10-14 15:05:06.430771,-22
2021-10-14 15:05:06.430779,-17
2021-10-14 15:05:06.430788,-7
2021-10-14 15:05:06.565494,2
2021-10-14 15:05:06.565515,7
2021-10-14 15:05:06.565525,14
2021-10-14 15:05:06.565533,12
2021-10-14 15:05:06.565542,-4
2021-10-14 15:05:06.565550,4
2021-10-14 15:05:06.565559,51
2021-10-14 15:05:06.565567,66
2021-10-14 15:05:06.565576,56
2021-10-14 15:05:06.565584,51
2021-10-14 15:05:06.565593,41
2021-10-14 15:05:06.565601,22
2021-10-14 15:05:06.565609,7
2021-10-14 15:05:06.565618,-4
2021-10-14 15:05:06.565626,-7
2021-10-14 15:05:06.565635,2
2021-10-14 15:05:06.565643,7
2021-10-14 15:05:06.565651,-7
2021-10-14 15:05:06.565660,-9
2021-10-14 15:05:06.565668,26
2021-10-14 15:05:06.565676,105
2021-10-14 15:05:06.565685,301
2021-10-14 15:05:06.565693,633
2021-10-14 15:05:06.565701,804
2021-10-14 15:05:06.565710,387
2021-10-14 15:05:06.565718,-323
2021-10-14 15:05:06.565726,-350
2021-10-14 15:05:06.565735,110
2021-10-14 15:05:06.565743,130
2021-10-14 15:05:06.565752,-24
2021-10-14 15:05:06.700509,61
2021-10-14 15:05:06.700529,105
2021-10-14 15:05:06.700539,61
2021-10-14 15:05:06.700548,100
2021-10-14 15:05:06.700556,159
2021-10-14 15:05:06.700564,166
2021-10-14 15:05:06.700573,166
2021-10-14 15:05:06.700581,184
2021-10-14 15:05:06.700590,215
2021-10-14 15:05:06.700598,245
2021-10-14 15:05:06.700607,250
2021-10-14 15:05:06.700615,262
2021-10-14 15:05:06.700624,296
2021-10-14 15:05:06.700632,336
2021-10-14 15:05:06.700640,372
2021-10-14 15:05:06.700649,412
2021-10-14 15:05:06.700657,444
2021-10-14 15:05:06.700665,478
2021-10-14 15:05:06.700673,493
2021-10-14 15:05:06.700682,485
2021-10-14 15:05:06.700690,478
2021-10-14 15:05:06.700698,458
2021-10-14 15:05:06.700706,436
2021-10-14 15:05:06.700715,399
2021-10-14 15:05:06.700723,296
2021-10-14 15:05:06.700732,174
2021-10-14 15:05:06.700740,115
2021-10-14 15:05:06.700748,83
2021-10-14 15:05:06.700757,44
2021-10-14 15:05:06.700765,12
2021-10-14 15:05:06.791044,7
2021-10-14 15:05:06.791065,31
2021-10-14 15:05:06.791074,58
2021-10-14 15:05:06.791083,63
2021-10-14 15:05:06.791092,73
2021-10-14 15:05:06.791100,110
2021-10-14 15:05:06.791109,144
2021-10-14 15:05:06.791117,157
2021-10-14 15:05:06.791125,179
2021-10-14 15:05:06.791134,203
2021-10-14 15:05:06.791142,225
2021-10-14 15:05:06.791151,252
2021-10-14 15:05:06.791159,264
2021-10-14 15:05:06.791168,287
2021-10-14 15:05:06.791176,318
2021-10-14 15:05:06.791185,328
2021-10-14 15:05:06.791193,328
2021-10-14 15:05:06.791202,338
2021-10-14 15:05:06.791210,350
2021-10-14 15:05:06.791219,365
2021-10-14 15:05:06.791227,377
2021-10-14 15:05:06.791236,380
2021-10-14 15:05:06.791244,387
2021-10-14 15:05:06.791253,380
2021-10-14 15:05:06.791261,350
2021-10-14 15:05:06.791270,338
2021-10-14 15:05:06.791278,355
2021-10-14 15:05:06.791286,355
2021-10-14 15:05:06.791299,333
2021-10-14 15:05:06.791309,328
2021-10-14 15:05:07.061152,338
2021-10-14 15:05:07.061173,336
2021-10-14 15:05:07.061183,326
2021-10-14 15:05:07.061192,328
2021-10-14 15:05:07.061200,309
2021-10-14 15:05:07.061209,264
2021-10-14 15:05:07.061218,255
2021-10-14 15:05:07.061226,277
2021-10-14 15:05:07.061234,269
2021-10-14 15:05:07.061243,245
2021-10-14 15:05:07.061251,245
2021-10-14 15:05:07.061260,262
2021-10-14 15:05:07.061268,257
2021-10-14 15:05:07.061277,245
2021-10-14 15:05:07.061285,242
2021-10-14 15:05:07.061294,208
2021-10-14 15:05:07.061302,152
2021-10-14 15:05:07.061310,130
2021-10-14 15:05:07.061319,130
2021-10-14 15:05:07.061327,120
2021-10-14 15:05:07.061336,103
2021-10-14 15:05:07.061344,100
2021-10-14 15:05:07.061352,93
2021-10-14 15:05:07.061361,73
2021-10-14 15:05:07.061370,66
2021-10-14 15:05:07.061378,110
2021-10-14 15:05:07.061386,274
2021-10-14 15:05:07.061395,581
2021-10-14 15:05:07.061403,826
2021-10-14 15:05:07.061412,601
2021-10-14 15:05:07.241578,-122
2021-10-14 15:05:07.241601,-436
2021-10-14 15:05:07.241610,-7
2021-10-14 15:05:07.241619,218
2021-10-14 15:05:07.241628,66
2021-10-14 15:05:07.241636,103
2021-10-14 15:05:07.241645,211
2021-10-14 15:05:07.241653,174
2021-10-14 15:05:07.241662,159
2021-10-14 15:05:07.241670,223
2021-10-14 15:05:07.241678,252
2021-10-14 15:05:07.241687,245
2021-10-14 15:05:07.241696,255
2021-10-14 15:05:07.241704,277
2021-10-14 15:05:07.241713,306
2021-10-14 15:05:07.241721,336
2021-10-14 15:05:07.241730,338
2021-10-14 15:05:07.241738,333
2021-10-14 15:05:07.241747,370
2021-10-14 15:05:07.241755,434
2021-10-14 15:05:07.241764,473
2021-10-14 15:05:07.241772,471
2021-10-14 15:05:07.241781,468
2021-10-14 15:05:07.241789,505
2021-10-14 15:05:07.241798,539
2021-10-14 15:05:07.241806,505
2021-10-14 15:05:07.241815,458
2021-10-14 15:05:07.241823,453
2021-10-14 15:05:07.241831,422
2021-10-14 15:05:07.241840,328
2021-10-14 15:05:07.556578,240
2021-10-14 15:05:07.556601,174
2021-10-14 15:05:07.556611,88
2021-10-14 15:05:07.556620,4
2021-10-14 15:05:07.556629,-31
2021-10-14 15:05:07.556637,-34
2021-10-14 15:05:07.556646,-58
2021-10-14 15:05:07.556654,-85
2021-10-14 15:05:07.556663,-83
2021-10-14 15:05:07.556671,-78
2021-10-14 15:05:07.556679,-85
2021-10-14 15:05:07.556688,-83
2021-10-14 15:05:07.556696,-66
2021-10-14 15:05:07.556705,-49
2021-10-14 15:05:07.556714,-39
2021-10-14 15:05:07.556722,-39
2021-10-14 15:05:07.556731,-44
2021-10-14 15:05:07.556739,-51
2021-10-14 15:05:07.556748,-53
2021-10-14 15:05:07.556756,-41
2021-10-14 15:05:07.556765,-34
2021-10-14 15:05:07.556773,-39
2021-10-14 15:05:07.556783,-39
2021-10-14 15:05:07.556791,-34
2021-10-14 15:05:07.556799,-36
2021-10-14 15:05:07.556808,-41
2021-10-14 15:05:07.556817,-36
2021-10-14 15:05:07.556825,-36
2021-10-14 15:05:07.556833,-41
2021-10-14 15:05:07.556845,-36
2021-10-14 15:05:07.782215,-24
2021-10-14 15:05:07.782237,-9
2021-10-14 15:05:07.782246,-7
2021-10-14 15:05:07.782255,-19
2021-10-14 15:05:07.782264,-24
2021-10-14 15:05:07.782272,-7
2021-10-14 15:05:07.782281,2
2021-10-14 15:05:07.782289,-2
2021-10-14 15:05:07.782298,-12
2021-10-14 15:05:07.782307,-26
2021-10-14 15:05:07.782315,-14
2021-10-14 15:05:07.782324,26
2021-10-14 15:05:07.782332,68
2021-10-14 15:05:07.782341,73
2021-10-14 15:05:07.782349,49
2021-10-14 15:05:07.782358,31
2021-10-14 15:05:07.782366,17
2021-10-14 15:05:07.782375,-2
2021-10-14 15:05:07.782383,-9
2021-10-14 15:05:07.782392,-9
2021-10-14 15:05:07.782400,-22
2021-10-14 15:05:07.782409,-41
2021-10-14 15:05:07.782417,-56
2021-10-14 15:05:07.782425,-56
2021-10-14 15:05:07.782434,-49
2021-10-14 15:05:07.782442,-26
2021-10-14 15:05:07.782450,68
2021-10-14 15:05:07.782459,304
2021-10-14 15:05:07.782467,610
2021-10-14 15:05:07.782476,689
2021-10-14 15:05:07.917230,203
2021-10-14 15:05:07.917251,-446
2021-10-14 15:05:07.917261,-377
2021-10-14 15:05:07.917270,58
2021-10-14 15:05:07.917278,61
2021-10-14 15:05:07.917287,-44
2021-10-14 15:05:07.917295,49
2021-10-14 15:05:07.917304,78
2021-10-14 15:05:07.917313,34
2021-10-14 15:05:07.917321,68
2021-10-14 15:05:07.917330,105
2021-10-14 15:05:07.917338,98
2021-10-14 15:05:07.917347,110
2021-10-14 15:05:07.917355,130
2021-10-14 15:05:07.917364,130
2021-10-14 15:05:07.917372,139
2021-10-14 15:05:07.917381,166
2021-10-14 15:05:07.917389,203
2021-10-14 15:05:07.917398,233
2021-10-14 15:05:07.917406,252
2021-10-14 15:05:07.917415,284
2021-10-14 15:05:07.917423,318
2021-10-14 15:05:07.917432,343
2021-10-14 15:05:07.917440,368
2021-10-14 15:05:07.917449,382
2021-10-14 15:05:07.917458,377
2021-10-14 15:05:07.918113,372
2021-10-14 15:05:07.918127,363
2021-10-14 15:05:07.918135,309
2021-10-14 15:05:07.918143,225
2021-10-14 15:05:08.322188,152
2021-10-14 15:05:08.322210,76
2021-10-14 15:05:08.322220,-14
2021-10-14 15:05:08.322229,-71
2021-10-14 15:05:08.322237,-98
2021-10-14 15:05:08.322246,-127
2021-10-14 15:05:08.322254,-144
2021-10-14 15:05:08.322263,-157
2021-10-14 15:05:08.322271,-184
2021-10-14 15:05:08.322280,-176
2021-10-14 15:05:08.322288,-134
2021-10-14 15:05:08.322297,-122
2021-10-14 15:05:08.322306,-127
2021-10-14 15:05:08.322314,-130
2021-10-14 15:05:08.322323,-132
2021-10-14 15:05:08.322331,-122
2021-10-14 15:05:08.322340,-112
2021-10-14 15:05:08.322349,-127
2021-10-14 15:05:08.322357,-134
2021-10-14 15:05:08.322366,-120
2021-10-14 15:05:08.322374,-122
2021-10-14 15:05:08.322383,-139
2021-10-14 15:05:08.322392,-134
2021-10-14 15:05:08.322400,-115
2021-10-14 15:05:08.322409,-112
2021-10-14 15:05:08.322417,-122
2021-10-14 15:05:08.322426,-120
2021-10-14 15:05:08.322434,-107
2021-10-14 15:05:08.322442,-93
2021-10-14 15:05:08.322451,-80
2021-10-14 15:05:08.412134,-93
2021-10-14 15:05:08.412155,-107
2021-10-14 15:05:08.412165,-103
2021-10-14 15:05:08.412173,-95
2021-10-14 15:05:08.412182,-98
2021-10-14 15:05:08.412190,-93
2021-10-14 15:05:08.412199,-80
2021-10-14 15:05:08.412207,-73
2021-10-14 15:05:08.412216,-73
2021-10-14 15:05:08.412224,-78
2021-10-14 15:05:08.412233,-76
2021-10-14 15:05:08.412241,-53
2021-10-14 15:05:08.412249,-22
2021-10-14 15:05:08.412258,-4
2021-10-14 15:05:08.412266,2
2021-10-14 15:05:08.412275,2
2021-10-14 15:05:08.412283,-19
2021-10-14 15:05:08.412292,-36
2021-10-14 15:05:08.412300,-31
2021-10-14 15:05:08.412309,-36
2021-10-14 15:05:08.412317,-66
2021-10-14 15:05:08.412326,-88
2021-10-14 15:05:08.412334,-73
2021-10-14 15:05:08.412342,-44
2021-10-14 15:05:08.412351,-36
2021-10-14 15:05:08.412359,-26
2021-10-14 15:05:08.412368,68
2021-10-14 15:05:08.412376,328
2021-10-14 15:05:08.412385,635
2021-10-14 15:05:08.412393,642
2021-10-14 15:05:08.770559,88
2021-10-14 15:05:08.770581,-495
2021-10-14 15:05:08.770590,-336
2021-10-14 15:05:08.770599,73
2021-10-14 15:05:08.770608,46
2021-10-14 15:05:08.770616,-36
2021-10-14 15:05:08.770625,39
2021-10-14 15:05:08.770633,39
2021-10-14 15:05:08.770642,12
2021-10-14 15:05:08.770650,58
2021-10-14 15:05:08.770659,95
2021-10-14 15:05:08.770668,90
2021-10-14 15:05:08.770676,90
2021-10-14 15:05:08.770684,110
2021-10-14 15:05:08.770693,144
2021-10-14 15:05:08.770701,174
2021-10-14 15:05:08.770710,193
2021-10-14 15:05:08.770718,215
2021-10-14 15:05:08.770726,242
2021-10-14 15:05:08.770735,277
2021-10-14 15:05:08.770744,306
2021-10-14 15:05:08.770752,338
2021-10-14 15:05:08.770761,380
2021-10-14 15:05:08.770769,404
2021-10-14 15:05:08.770778,404
2021-10-14 15:05:08.770786,409
2021-10-14 15:05:08.770795,419
2021-10-14 15:05:08.770803,402
2021-10-14 15:05:08.770812,358
2021-10-14 15:05:08.770820,306
2021-10-14 15:05:08.950884,238
2021-10-14 15:05:08.950905,161
2021-10-14 15:05:08.950915,95
2021-10-14 15:05:08.950924,41
2021-10-14 15:05:08.950931,17
2021-10-14 15:05:08.950939,0
2021-10-14 15:05:08.950947,-19
2021-10-14 15:05:08.950955,-14
2021-10-14 15:05:08.950963,4
2021-10-14 15:05:08.950971,7
2021-10-14 15:05:08.950980,12
2021-10-14 15:05:08.950988,29
2021-10-14 15:05:08.950997,36
2021-10-14 15:05:08.951005,41
2021-10-14 15:05:08.951013,61
2021-10-14 15:05:08.951021,68
2021-10-14 15:05:08.951029,39
2021-10-14 15:05:08.951036,26
2021-10-14 15:05:08.951044,51
2021-10-14 15:05:08.951052,58
2021-10-14 15:05:08.951060,36
2021-10-14 15:05:08.951068,31
2021-10-14 15:05:08.951076,34
2021-10-14 15:05:08.951084,19
2021-10-14 15:05:08.951092,12
2021-10-14 15:05:08.951100,19
2021-10-14 15:05:08.951108,4
2021-10-14 15:05:08.951116,-17
2021-10-14 15:05:08.951124,-17
2021-10-14 15:05:08.951132,-14
2021-10-14 15:05:09.311796,-17
2021-10-14 15:05:09.311818,-7
2021-10-14 15:05:09.311828,-12
2021-10-14 15:05:09.311837,-17
2021-10-14 15:05:09.311846,-7
2021-10-14 15:05:09.311854,-14
2021-10-14 15:05:09.311863,-26
2021-10-14 15:05:09.311871,-12
2021-10-14 15:05:09.311880,19
2021-10-14 15:05:09.311888,56
2021-10-14 15:05:09.311897,80
2021-10-14 15:05:09.311905,73
2021-10-14 15:05:09.311914,63
2021-10-14 15:05:09.311922,53
2021-10-14 15:05:09.311931,36
2021-10-14 15:05:09.311939,17
2021-10-14 15:05:09.311948,2
2021-10-14 15:05:09.311956,4
2021-10-14 15:05:09.311964,17
2021-10-14 15:05:09.311973,17
2021-10-14 15:05:09.311981,12
2021-10-14 15:05:09.311990,24
2021-10-14 15:05:09.311998,34
2021-10-14 15:05:09.312007,90
2021-10-14 15:05:09.312015,301
2021-10-14 15:05:09.312023,618
2021-10-14 15:05:09.312032,753
2021-10-14 15:05:09.312040,382
2021-10-14 15:05:09.312053,-301
2021-10-14 15:05:09.312061,-444
2021-10-14 15:05:09.402177,-9
2021-10-14 15:05:09.402198,134
2021-10-14 15:05:09.402206,9
2021-10-14 15:05:09.402214,44
2021-10-14 15:05:09.402221,73
2021-10-14 15:05:09.402229,31
2021-10-14 15:05:09.402236,61
2021-10-14 15:05:09.402244,93
2021-10-14 15:05:09.402251,78
2021-10-14 15:05:09.402258,90
2021-10-14 15:05:09.402265,125
2021-10-14 15:05:09.402273,137
2021-10-14 15:05:09.402280,149
2021-10-14 15:05:09.402288,176
2021-10-14 15:05:09.402296,198
2021-10-14 15:05:09.402303,211
2021-10-14 15:05:09.402310,225
2021-10-14 15:05:09.402318,255
2021-10-14 15:05:09.402325,287
2021-10-14 15:05:09.402332,311
2021-10-14 15:05:09.402339,318
2021-10-14 15:05:09.402346,301
2021-10-14 15:05:09.402354,296
2021-10-14 15:05:09.402361,301
2021-10-14 15:05:09.402368,279
2021-10-14 15:05:09.402376,238
2021-10-14 15:05:09.402383,174
2021-10-14 15:05:09.402390,63
2021-10-14 15:05:09.402398,-68
2021-10-14 15:05:09.402405,-157
2021-10-14 15:05:09.582169,-215
2021-10-14 15:05:09.582190,-269
2021-10-14 15:05:09.582200,-296
2021-10-14 15:05:09.582209,-316
2021-10-14 15:05:09.582217,-323
2021-10-14 15:05:09.582226,-309
2021-10-14 15:05:09.582234,-316
2021-10-14 15:05:09.582243,-348
2021-10-14 15:05:09.582251,-343
2021-10-14 15:05:09.582260,-316
2021-10-14 15:05:09.582268,-321
2021-10-14 15:05:09.582277,-348
2021-10-14 15:05:09.582285,-363
2021-10-14 15:05:09.582294,-363
2021-10-14 15:05:09.582302,-382
2021-10-14 15:05:09.582311,-419
2021-10-14 15:05:09.582319,-449
2021-10-14 15:05:09.582328,-480
2021-10-14 15:05:09.582336,-512
2021-10-14 15:05:09.582344,-512
2021-10-14 15:05:09.582353,-507
2021-10-14 15:05:09.582361,-525
2021-10-14 15:05:09.582369,-544
2021-10-14 15:05:09.582378,-556
2021-10-14 15:05:09.582386,-566
2021-10-14 15:05:09.582395,-583
2021-10-14 15:05:09.582403,-625
2021-10-14 15:05:09.582412,-672
2021-10-14 15:05:09.582420,-696
2021-10-14 15:05:09.582429,-711
2021-10-14 15:05:09.852232,-748
2021-10-14 15:05:09.852254,-807
2021-10-14 15:05:09.852263,-863
2021-10-14 15:05:09.852271,-898
2021-10-14 15:05:09.852278,-895
2021-10-14 15:05:09.852286,-871
2021-10-14 15:05:09.852294,-866
2021-10-14 15:05:09.852302,-880
2021-10-14 15:05:09.852309,-898
2021-10-14 15:05:09.852317,-932
2021-10-14 15:05:09.852325,-949
2021-10-14 15:05:09.852332,-927
2021-10-14 15:05:09.852340,-902
2021-10-14 15:05:09.852348,-895
2021-10-14 15:05:09.852356,-893
2021-10-14 15:05:09.852363,-888
2021-10-14 15:05:09.852371,-878
2021-10-14 15:05:09.852379,-863
2021-10-14 15:05:09.852386,-809
2021-10-14 15:05:09.852394,-672
2021-10-14 15:05:09.852402,-402
2021-10-14 15:05:09.852410,-115
2021-10-14 15:05:09.852417,-181
2021-10-14 15:05:09.852425,-812
2021-10-14 15:05:09.852433,-1275
2021-10-14 15:05:09.852441,-900
2021-10-14 15:05:09.852448,-520
2021-10-14 15:05:09.852456,-635
2021-10-14 15:05:09.852464,-650
2021-10-14 15:05:09.852472,-525
2021-10-14 15:05:10.031204,-529
2021-10-14 15:05:10.031226,-527
2021-10-14 15:05:10.031235,-456
2021-10-14 15:05:10.031245,-422
2021-10-14 15:05:10.031253,-397
2021-10-14 15:05:10.031262,-365
2021-10-14 15:05:10.031270,-355
2021-10-14 15:05:10.031278,-336
2021-10-14 15:05:10.031287,-291
2021-10-14 15:05:10.031296,-252
2021-10-14 15:05:10.031304,-218
2021-10-14 15:05:10.031313,-179
2021-10-14 15:05:10.031321,-142
2021-10-14 15:05:10.031330,-100
2021-10-14 15:05:10.031338,-68
2021-10-14 15:05:10.031347,-53
2021-10-14 15:05:10.031355,-22
2021-10-14 15:05:10.031364,7
2021-10-14 15:05:10.031373,0
2021-10-14 15:05:10.031381,-22
2021-10-14 15:05:10.031390,-31
2021-10-14 15:05:10.031398,-71
2021-10-14 15:05:10.031407,-149
2021-10-14 15:05:10.031415,-230
2021-10-14 15:05:10.031424,-314
2021-10-14 15:05:10.031432,-402
2021-10-14 15:05:10.031441,-451
2021-10-14 15:05:10.031449,-466
2021-10-14 15:05:10.031457,-483
2021-10-14 15:05:10.031466,-485
2021-10-14 15:05:10.257190,-471
2021-10-14 15:05:10.257211,-463
2021-10-14 15:05:10.257221,-458
2021-10-14 15:05:10.257230,-458
2021-10-14 15:05:10.257238,-456
2021-10-14 15:05:10.257247,-439
2021-10-14 15:05:10.257255,-422
2021-10-14 15:05:10.257264,-422
2021-10-14 15:05:10.257272,-424
2021-10-14 15:05:10.257281,-412
2021-10-14 15:05:10.257289,-397
2021-10-14 15:05:10.257298,-395
2021-10-14 15:05:10.257306,-397
2021-10-14 15:05:10.257315,-390
2021-10-14 15:05:10.257323,-385
2021-10-14 15:05:10.257332,-382
2021-10-14 15:05:10.257340,-372
2021-10-14 15:05:10.257349,-363
2021-10-14 15:05:10.257357,-360
2021-10-14 15:05:10.257366,-363
2021-10-14 15:05:10.257374,-358
2021-10-14 15:05:10.257383,-345
2021-10-14 15:05:10.257391,-323
2021-10-14 15:05:10.257400,-282
2021-10-14 15:05:10.257408,-245
2021-10-14 15:05:10.257416,-238
2021-10-14 15:05:10.257425,-250
2021-10-14 15:05:10.257434,-279
2021-10-14 15:05:10.257442,-282
2021-10-14 15:05:10.257451,-267
2021-10-14 15:05:10.437159,-272
2021-10-14 15:05:10.437180,-262
2021-10-14 15:05:10.437190,-238
2021-10-14 15:05:10.437198,-245
2021-10-14 15:05:10.437207,-260
2021-10-14 15:05:10.437216,-242
2021-10-14 15:05:10.437224,-230
2021-10-14 15:05:10.437233,-179
2021-10-14 15:05:10.437242,7
2021-10-14 15:05:10.437250,321
2021-10-14 15:05:10.437259,529
2021-10-14 15:05:10.437267,193
2021-10-14 15:05:10.437276,-561
2021-10-14 15:05:10.437285,-718
2021-10-14 15:05:10.437293,-201
2021-10-14 15:05:10.437302,-51
2021-10-14 15:05:10.437311,-225
2021-10-14 15:05:10.437319,-186
2021-10-14 15:05:10.437328,-125
2021-10-14 15:05:10.437336,-159
2021-10-14 15:05:10.437345,-134
2021-10-14 15:05:10.437353,-80
2021-10-14 15:05:10.437362,-66
2021-10-14 15:05:10.437370,-53
2021-10-14 15:05:10.437379,-36
2021-10-14 15:05:10.437387,-17
2021-10-14 15:05:10.437396,4
2021-10-14 15:05:10.437404,26
2021-10-14 15:05:10.437413,71
2021-10-14 15:05:10.437421,115
2021-10-14 15:05:10.796571,142
2021-10-14 15:05:10.796591,179
2021-10-14 15:05:10.796601,225
2021-10-14 15:05:10.796610,255
2021-10-14 15:05:10.796619,274
2021-10-14 15:05:10.796627,274
2021-10-14 15:05:10.796635,255
2021-10-14 15:05:10.796644,245
2021-10-14 15:05:10.796652,223
2021-10-14 15:05:10.796661,159
2021-10-14 15:05:10.796669,63
2021-10-14 15:05:10.796678,-39
2021-10-14 15:05:10.796686,-147
2021-10-14 15:05:10.796695,-230
2021-10-14 15:05:10.796703,-287
2021-10-14 15:05:10.796712,-343
2021-10-14 15:05:10.796720,-372
2021-10-14 15:05:10.796729,-368
2021-10-14 15:05:10.796737,-382
2021-10-14 15:05:10.796746,-392
2021-10-14 15:05:10.796755,-368
2021-10-14 15:05:10.796763,-358
2021-10-14 15:05:10.796771,-358
2021-10-14 15:05:10.796780,-343
2021-10-14 15:05:10.796788,-331
2021-10-14 15:05:10.796797,-311
2021-10-14 15:05:10.796805,-287
2021-10-14 15:05:10.796814,-291
2021-10-14 15:05:10.796822,-299
2021-10-14 15:05:10.796830,-277
2021-10-14 15:05:11.065322,-255
2021-10-14 15:05:11.065349,-247
2021-10-14 15:05:11.065358,-242
2021-10-14 15:05:11.065367,-240
2021-10-14 15:05:11.065376,-242
2021-10-14 15:05:11.065384,-247
2021-10-14 15:05:11.065393,-238
2021-10-14 15:05:11.065402,-230
2021-10-14 15:05:11.065410,-245
2021-10-14 15:05:11.065419,-242
2021-10-14 15:05:11.065427,-203
2021-10-14 15:05:11.065435,-161
2021-10-14 15:05:11.065444,-149
2021-10-14 15:05:11.065452,-144
2021-10-14 15:05:11.065461,-152
2021-10-14 15:05:11.065469,-181
2021-10-14 15:05:11.065478,-203
2021-10-14 15:05:11.065486,-203
2021-10-14 15:05:11.065494,-215
2021-10-14 15:05:11.065503,-230
2021-10-14 15:05:11.065511,-208
2021-10-14 15:05:11.065520,-196
2021-10-14 15:05:11.065528,-208
2021-10-14 15:05:11.065540,-203
2021-10-14 15:05:11.065548,-159
2021-10-14 15:05:11.065557,-41
2021-10-14 15:05:11.065565,206
2021-10-14 15:05:11.065573,500
2021-10-14 15:05:11.065582,490
2021-10-14 15:05:11.065590,-95
2021-10-14 15:05:11.156178,-615
2021-10-14 15:05:11.156198,-343
2021-10-14 15:05:11.156207,17
2021-10-14 15:05:11.156216,-90
2021-10-14 15:05:11.156225,-139
2021-10-14 15:05:11.156233,-41
2021-10-14 15:05:11.156241,-56
2021-10-14 15:05:11.156250,-73
2021-10-14 15:05:11.156259,-22
2021-10-14 15:05:11.156267,-7
2021-10-14 15:05:11.156276,-14
2021-10-14 15:05:11.156284,14
2021-10-14 15:05:11.156293,39
2021-10-14 15:05:11.156301,56
2021-10-14 15:05:11.156310,95
2021-10-14 15:05:11.156318,122
2021-10-14 15:05:11.156327,130
2021-10-14 15:05:11.156335,164
2021-10-14 15:05:11.156344,218
2021-10-14 15:05:11.156352,262
2021-10-14 15:05:11.156361,289
2021-10-14 15:05:11.156369,306
2021-10-14 15:05:11.156378,326
2021-10-14 15:05:11.156386,341
2021-10-14 15:05:11.156394,343
2021-10-14 15:05:11.156403,323
2021-10-14 15:05:11.156411,282
2021-10-14 15:05:11.156419,208
2021-10-14 15:05:11.156428,107
2021-10-14 15:05:11.156436,4
2021-10-14 15:05:11.382090,-80
2021-10-14 15:05:11.382110,-137
2021-10-14 15:05:11.382120,-171
2021-10-14 15:05:11.382129,-203
2021-10-14 15:05:11.382137,-233
2021-10-14 15:05:11.382146,-233
2021-10-14 15:05:11.382154,-211
2021-10-14 15:05:11.382163,-206
2021-10-14 15:05:11.382171,-213
2021-10-14 15:05:11.382180,-208
2021-10-14 15:05:11.382188,-201
2021-10-14 15:05:11.382197,-201
2021-10-14 15:05:11.382205,-191
2021-10-14 15:05:11.382214,-159
2021-10-14 15:05:11.382222,-144
2021-10-14 15:05:11.382230,-179
2021-10-14 15:05:11.382239,-188
2021-10-14 15:05:11.382247,-154
2021-10-14 15:05:11.382255,-149
2021-10-14 15:05:11.382264,-169
2021-10-14 15:05:11.382272,-164
2021-10-14 15:05:11.382280,-154
2021-10-14 15:05:11.382289,-169
2021-10-14 15:05:11.382297,-179
2021-10-14 15:05:11.382305,-169
2021-10-14 15:05:11.382314,-166
2021-10-14 15:05:11.382322,-191
2021-10-14 15:05:11.382330,-206
2021-10-14 15:05:11.382339,-171
2021-10-14 15:05:11.382347,-117
2021-10-14 15:05:11.652215,-90
2021-10-14 15:05:11.652237,-95
2021-10-14 15:05:11.652247,-103
2021-10-14 15:05:11.652255,-107
2021-10-14 15:05:11.652264,-120
2021-10-14 15:05:11.652272,-134
2021-10-14 15:05:11.652281,-127
2021-10-14 15:05:11.652289,-112
2021-10-14 15:05:11.652298,-117
2021-10-14 15:05:11.652306,-122
2021-10-14 15:05:11.652314,-115
2021-10-14 15:05:11.652323,-107
2021-10-14 15:05:11.652331,-76
2021-10-14 15:05:11.652339,-2
2021-10-14 15:05:11.652348,139
2021-10-14 15:05:11.652356,414
2021-10-14 15:05:11.652365,637
2021-10-14 15:05:11.652373,326
2021-10-14 15:05:11.652381,-358
2021-10-14 15:05:11.652390,-458
2021-10-14 15:05:11.652398,-17
2021-10-14 15:05:11.652406,56
2021-10-14 15:05:11.652415,-93
2021-10-14 15:05:11.652423,-26
2021-10-14 15:05:11.652432,14
2021-10-14 15:05:11.652440,-31
2021-10-14 15:05:11.652449,2
2021-10-14 15:05:11.652457,51
2021-10-14 15:05:11.652465,46
2021-10-14 15:05:11.652474,58
2021-10-14 15:05:11.831734,95
2021-10-14 15:05:11.831753,115
2021-10-14 15:05:11.831763,127
2021-10-14 15:05:11.831772,152
2021-10-14 15:05:11.831780,184
2021-10-14 15:05:11.831789,223
2021-10-14 15:05:11.831797,264
2021-10-14 15:05:11.831806,289
2021-10-14 15:05:11.831814,306
2021-10-14 15:05:11.831823,345
2021-10-14 15:05:11.831831,385
2021-10-14 15:05:11.831840,390
2021-10-14 15:05:11.831848,387
2021-10-14 15:05:11.831857,377
2021-10-14 15:05:11.831865,336
2021-10-14 15:05:11.831874,277
2021-10-14 15:05:11.831882,206
2021-10-14 15:05:11.831891,107
2021-10-14 15:05:11.831899,17
2021-10-14 15:05:11.831908,-53
2021-10-14 15:05:11.831916,-117
2021-10-14 15:05:11.831925,-154
2021-10-14 15:05:11.831933,-161
2021-10-14 15:05:11.831942,-171
2021-10-14 15:05:11.831950,-176
2021-10-14 15:05:11.831958,-181
2021-10-14 15:05:11.831967,-186
2021-10-14 15:05:11.831975,-179
2021-10-14 15:05:11.831984,-166
2021-10-14 15:05:11.831992,-169
2021-10-14 15:05:12.101564,-164
2021-10-14 15:05:12.101584,-154
2021-10-14 15:05:12.101594,-152
2021-10-14 15:05:12.101603,-142
2021-10-14 15:05:12.101611,-120
2021-10-14 15:05:12.101620,-122
2021-10-14 15:05:12.101629,-137
2021-10-14 15:05:12.101637,-130
2021-10-14 15:05:12.101645,-115
2021-10-14 15:05:12.101654,-117
2021-10-14 15:05:12.101662,-120
2021-10-14 15:05:12.101671,-122
2021-10-14 15:05:12.101680,-127
2021-10-14 15:05:12.101688,-134
2021-10-14 15:05:12.101696,-137
2021-10-14 15:05:12.101705,-134
2021-10-14 15:05:12.101713,-134
2021-10-14 15:05:12.101721,-144
2021-10-14 15:05:12.101730,-161
2021-10-14 15:05:12.101738,-149
2021-10-14 15:05:12.101746,-112
2021-10-14 15:05:12.101755,-88
2021-10-14 15:05:12.101763,-76
2021-10-14 15:05:12.101771,-68
2021-10-14 15:05:12.101780,-85
2021-10-14 15:05:12.101788,-115
2021-10-14 15:05:12.101797,-132
2021-10-14 15:05:12.101805,-134
2021-10-14 15:05:12.101814,-117
2021-10-14 15:05:12.101822,-100
2021-10-14 15:05:12.282198,-105
2021-10-14 15:05:12.282220,-117
2021-10-14 15:05:12.282229,-107
2021-10-14 15:05:12.282238,-95
2021-10-14 15:05:12.282247,-68
2021-10-14 15:05:12.282256,56
2021-10-14 15:05:12.282264,331
2021-10-14 15:05:12.282273,625
2021-10-14 15:05:12.282282,542
2021-10-14 15:05:12.282290,-98
2021-10-14 15:05:12.282299,-534
2021-10-14 15:05:12.282307,-196
2021-10-14 15:05:12.282316,90
2021-10-14 15:05:12.282324,-63
2021-10-14 15:05:12.282333,-80
2021-10-14 15:05:12.282341,19
2021-10-14 15:05:12.282350,-9
2021-10-14 15:05:12.282358,-29
2021-10-14 15:05:12.282366,14
2021-10-14 15:05:12.282375,34
2021-10-14 15:05:12.282384,44
2021-10-14 15:05:12.282392,68
2021-10-14 15:05:12.282400,88
2021-10-14 15:05:12.282409,115
2021-10-14 15:05:12.282417,144
2021-10-14 15:05:12.282426,169
2021-10-14 15:05:12.282434,198
2021-10-14 15:05:12.282443,238
2021-10-14 15:05:12.282451,269
2021-10-14 15:05:12.282460,284
2021-10-14 15:05:12.551133,309
2021-10-14 15:05:12.551153,358
2021-10-14 15:05:12.551162,380
2021-10-14 15:05:12.551171,365
2021-10-14 15:05:12.551180,350
2021-10-14 15:05:12.551189,323
2021-10-14 15:05:12.551197,267
2021-10-14 15:05:12.551205,203
2021-10-14 15:05:12.551214,122
2021-10-14 15:05:12.551222,26
2021-10-14 15:05:12.551231,-51
2021-10-14 15:05:12.551239,-107
2021-10-14 15:05:12.551248,-154
2021-10-14 15:05:12.551256,-188
2021-10-14 15:05:12.551264,-213
2021-10-14 15:05:12.551273,-223
2021-10-14 15:05:12.551281,-211
2021-10-14 15:05:12.551290,-198
2021-10-14 15:05:12.551298,-191
2021-10-14 15:05:12.551306,-179
2021-10-14 15:05:12.551315,-161
2021-10-14 15:05:12.551323,-157
2021-10-14 15:05:12.551332,-147
2021-10-14 15:05:12.551340,-137
2021-10-14 15:05:12.551348,-134
2021-10-14 15:05:12.551357,-122
2021-10-14 15:05:12.551365,-115
2021-10-14 15:05:12.551373,-120
2021-10-14 15:05:12.551382,-103
2021-10-14 15:05:12.551390,-90
2021-10-14 15:05:12.822068,-103
2021-10-14 15:05:12.822087,-103
2021-10-14 15:05:12.822096,-93
2021-10-14 15:05:12.822105,-103
2021-10-14 15:05:12.822113,-107
2021-10-14 15:05:12.822122,-105
2021-10-14 15:05:12.822131,-107
2021-10-14 15:05:12.822139,-107
2021-10-14 15:05:12.822147,-112
2021-10-14 15:05:12.822156,-115
2021-10-14 15:05:12.822164,-107
2021-10-14 15:05:12.822173,-107
2021-10-14 15:05:12.822181,-115
2021-10-14 15:05:12.822190,-127
2021-10-14 15:05:12.822198,-134
2021-10-14 15:05:12.822207,-130
2021-10-14 15:05:12.822215,-110
2021-10-14 15:05:12.822224,-85
2021-10-14 15:05:12.822232,-66
2021-10-14 15:05:12.822241,-61
2021-10-14 15:05:12.822249,-76
2021-10-14 15:05:12.822258,-90
2021-10-14 15:05:12.822266,-100
2021-10-14 15:05:12.822275,-107
2021-10-14 15:05:12.822283,-98
2021-10-14 15:05:12.822291,-83
2021-10-14 15:05:12.822300,-85
2021-10-14 15:05:12.822308,-93
2021-10-14 15:05:12.822317,-85
2021-10-14 15:05:12.822325,-76
2021-10-14 15:05:13.180331,-61
2021-10-14 15:05:13.180352,17
2021-10-14 15:05:13.180362,257
2021-10-14 15:05:13.180370,598
2021-10-14 15:05:13.180379,660
2021-10-14 15:05:13.180387,100
2021-10-14 15:05:13.180396,-529
2021-10-14 15:05:13.180404,-360
2021-10-14 15:05:13.180413,78
2021-10-14 15:05:13.180421,4
2021-10-14 15:05:13.180430,-110
2021-10-14 15:05:13.180438,4
2021-10-14 15:05:13.180475,29
2021-10-14 15:05:13.180485,-17
2021-10-14 15:05:13.180518,12
2021-10-14 15:05:13.180533,46
2021-10-14 15:05:13.180542,46
2021-10-14 15:05:13.180557,71
2021-10-14 15:05:13.180565,105
2021-10-14 15:05:13.180572,117
2021-10-14 15:05:13.180580,139
2021-10-14 15:05:13.180588,164
2021-10-14 15:05:13.180596,191
2021-10-14 15:05:13.180604,235
2021-10-14 15:05:13.180611,272
2021-10-14 15:05:13.180619,301
2021-10-14 15:05:13.180627,336
2021-10-14 15:05:13.180635,363
2021-10-14 15:05:13.180643,382
2021-10-14 15:05:13.180652,399
2021-10-14 15:05:13.361178,404
2021-10-14 15:05:13.361199,392
2021-10-14 15:05:13.361209,368
2021-10-14 15:05:13.361217,311
2021-10-14 15:05:13.361226,220
2021-10-14 15:05:13.361235,117
2021-10-14 15:05:13.361243,26
2021-10-14 15:05:13.361252,-39
2021-10-14 15:05:13.361260,-103
2021-10-14 15:05:13.361269,-157
2021-10-14 15:05:13.361277,-171
2021-10-14 15:05:13.361285,-166
2021-10-14 15:05:13.361294,-164
2021-10-14 15:05:13.361302,-159
2021-10-14 15:05:13.361311,-149
2021-10-14 15:05:13.361319,-147
2021-10-14 15:05:13.361327,-142
2021-10-14 15:05:13.361335,-134
2021-10-14 15:05:13.361344,-125
2021-10-14 15:05:13.361352,-115
2021-10-14 15:05:13.361360,-107
2021-10-14 15:05:13.361369,-100
2021-10-14 15:05:13.361377,-88
2021-10-14 15:05:13.361385,-78
2021-10-14 15:05:13.361394,-68
2021-10-14 15:05:13.361402,-66
2021-10-14 15:05:13.361410,-68
2021-10-14 15:05:13.361419,-71
2021-10-14 15:05:13.361427,-61
2021-10-14 15:05:13.361435,-51
2021-10-14 15:05:13.542241,-58
2021-10-14 15:05:13.542293,-66
2021-10-14 15:05:13.542304,-63
2021-10-14 15:05:13.542312,-71
2021-10-14 15:05:13.542319,-83
2021-10-14 15:05:13.542326,-78
2021-10-14 15:05:13.542333,-73
2021-10-14 15:05:13.542339,-80
2021-10-14 15:05:13.542346,-90
2021-10-14 15:05:13.542354,-95
2021-10-14 15:05:13.542362,-83
2021-10-14 15:05:13.542370,-71
2021-10-14 15:05:13.542377,-80
2021-10-14 15:05:13.542385,-105
2021-10-14 15:05:13.542392,-115
2021-10-14 15:05:13.542400,-117
2021-10-14 15:05:13.542408,-122
2021-10-14 15:05:13.542416,-110
2021-10-14 15:05:13.542423,-61
2021-10-14 15:05:13.542431,-29
2021-10-14 15:05:13.542439,-34
2021-10-14 15:05:13.542446,-49
2021-10-14 15:05:13.542453,-58
2021-10-14 15:05:13.542461,-63
2021-10-14 15:05:13.542470,-61
2021-10-14 15:05:13.542478,-61
2021-10-14 15:05:13.542487,-73
2021-10-14 15:05:13.542495,-66
2021-10-14 15:05:13.542503,-44
2021-10-14 15:05:13.542512,-46
2021-10-14 15:05:13.676855,-51
2021-10-14 15:05:13.676876,-26
2021-10-14 15:05:13.676887,49
2021-10-14 15:05:13.676897,255
2021-10-14 15:05:13.676906,588
2021-10-14 15:05:13.676915,782
2021-10-14 15:05:13.676924,387
2021-10-14 15:05:13.676934,-331
2021-10-14 15:05:13.676943,-375
2021-10-14 15:05:13.676952,88
2021-10-14 15:05:13.676962,130
2021-10-14 15:05:13.676971,-19
2021-10-14 15:05:13.676980,53
2021-10-14 15:05:13.676990,107
2021-10-14 15:05:13.676999,68
2021-10-14 15:05:13.677008,83
2021-10-14 15:05:13.677017,130
2021-10-14 15:05:13.677026,149
2021-10-14 15:05:13.677036,171
2021-10-14 15:05:13.677045,198
2021-10-14 15:05:13.677054,206
2021-10-14 15:05:13.677063,211
2021-10-14 15:05:13.677073,235
2021-10-14 15:05:13.677082,272
2021-10-14 15:05:13.677091,309
2021-10-14 15:05:13.677100,341
2021-10-14 15:05:13.677108,365
2021-10-14 15:05:13.677117,407
2021-10-14 15:05:13.677126,449
2021-10-14 15:05:13.677135,478
2021-10-14 15:05:13.991266,485
2021-10-14 15:05:13.991287,473
2021-10-14 15:05:13.991297,463
2021-10-14 15:05:13.991306,456
2021-10-14 15:05:13.991314,424
2021-10-14 15:05:13.991323,365
2021-10-14 15:05:13.991331,279
2021-10-14 15:05:13.991340,186
2021-10-14 15:05:13.991348,112
2021-10-14 15:05:13.991357,51
2021-10-14 15:05:13.991365,-4
2021-10-14 15:05:13.991374,-34
2021-10-14 15:05:13.991383,-29
2021-10-14 15:05:13.991391,-31
2021-10-14 15:05:13.991400,-41
2021-10-14 15:05:13.991408,-39
2021-10-14 15:05:13.991417,-22
2021-10-14 15:05:13.991425,4
2021-10-14 15:05:13.991434,14
2021-10-14 15:05:13.991442,9
2021-10-14 15:05:13.991451,19
2021-10-14 15:05:13.991459,44
2021-10-14 15:05:13.991467,51
2021-10-14 15:05:13.991476,53
2021-10-14 15:05:13.991484,66
2021-10-14 15:05:13.991492,66
2021-10-14 15:05:13.991501,53
2021-10-14 15:05:13.991509,51
2021-10-14 15:05:13.991518,46
2021-10-14 15:05:13.991526,29
2021-10-14 15:05:14.171612,22
2021-10-14 15:05:14.171633,22
2021-10-14 15:05:14.171643,22
2021-10-14 15:05:14.171652,17
2021-10-14 15:05:14.171660,14
2021-10-14 15:05:14.171669,12
2021-10-14 15:05:14.171677,4
2021-10-14 15:05:14.171686,0
2021-10-14 15:05:14.171694,4
2021-10-14 15:05:14.171703,17
2021-10-14 15:05:14.171711,22
2021-10-14 15:05:14.171719,19
2021-10-14 15:05:14.171728,4
2021-10-14 15:05:14.171736,-4
2021-10-14 15:05:14.171744,0
2021-10-14 15:05:14.171752,14
2021-10-14 15:05:14.171761,17
2021-10-14 15:05:14.171769,4
2021-10-14 15:05:14.171777,-4
2021-10-14 15:05:14.171786,4
2021-10-14 15:05:14.171794,14
2021-10-14 15:05:14.171803,7
2021-10-14 15:05:14.171811,-4
2021-10-14 15:05:14.171819,2
2021-10-14 15:05:14.171827,36
2021-10-14 15:05:14.171836,85
2021-10-14 15:05:14.171844,110
2021-10-14 15:05:14.171852,105
2021-10-14 15:05:14.171861,105
2021-10-14 15:05:14.171869,100
2021-10-14 15:05:14.530631,80
2021-10-14 15:05:14.530653,73
2021-10-14 15:05:14.530662,83
2021-10-14 15:05:14.530671,88
2021-10-14 15:05:14.530679,83
2021-10-14 15:05:14.530688,76
2021-10-14 15:05:14.530697,66
2021-10-14 15:05:14.530705,71
2021-10-14 15:05:14.530713,103
2021-10-14 15:05:14.530722,208
2021-10-14 15:05:14.530730,471
2021-10-14 15:05:14.530739,807
2021-10-14 15:05:14.530747,772
2021-10-14 15:05:14.530756,85
2021-10-14 15:05:14.530764,-461
2021-10-14 15:05:14.530773,-137
2021-10-14 15:05:14.530782,215
2021-10-14 15:05:14.530790,76
2021-10-14 15:05:14.530798,34
2021-10-14 15:05:14.530807,132
2021-10-14 15:05:14.530815,107
2021-10-14 15:05:14.530824,98
2021-10-14 15:05:14.530833,144
2021-10-14 15:05:14.530841,147
2021-10-14 15:05:14.530849,144
2021-10-14 15:05:14.530857,174
2021-10-14 15:05:14.530866,191
2021-10-14 15:05:14.530875,186
2021-10-14 15:05:14.530883,193
2021-10-14 15:05:14.530891,223
2021-10-14 15:05:14.621570,257
2021-10-14 15:05:14.621590,289
2021-10-14 15:05:14.621600,318
2021-10-14 15:05:14.621609,343
2021-10-14 15:05:14.621617,375
2021-10-14 15:05:14.621626,404
2021-10-14 15:05:14.621634,417
2021-10-14 15:05:14.621643,424
2021-10-14 15:05:14.621651,426
2021-10-14 15:05:14.621660,414
2021-10-14 15:05:14.621669,385
2021-10-14 15:05:14.621677,338
2021-10-14 15:05:14.621686,257
2021-10-14 15:05:14.621694,154
2021-10-14 15:05:14.621703,63
2021-10-14 15:05:14.621711,-17
2021-10-14 15:05:14.621720,-90
2021-10-14 15:05:14.621728,-142
2021-10-14 15:05:14.621737,-166
2021-10-14 15:05:14.621745,-169
2021-10-14 15:05:14.621754,-174
2021-10-14 15:05:14.621762,-186
2021-10-14 15:05:14.621771,-184
2021-10-14 15:05:14.621779,-169
2021-10-14 15:05:14.621788,-161
2021-10-14 15:05:14.621796,-164
2021-10-14 15:05:14.621804,-157
2021-10-14 15:05:14.621813,-137
2021-10-14 15:05:14.621821,-134
2021-10-14 15:05:14.621830,-144
2021-10-14 15:05:14.891875,-130
2021-10-14 15:05:14.891895,-115
2021-10-14 15:05:14.891904,-117
2021-10-14 15:05:14.891913,-125
2021-10-14 15:05:14.891922,-125
2021-10-14 15:05:14.891930,-117
2021-10-14 15:05:14.891939,-120
2021-10-14 15:05:14.891947,-132
2021-10-14 15:05:14.891956,-122
2021-10-14 15:05:14.891964,-110
2021-10-14 15:05:14.891973,-122
2021-10-14 15:05:14.891981,-132
2021-10-14 15:05:14.891990,-127
2021-10-14 15:05:14.891998,-127
2021-10-14 15:05:14.892007,-127
2021-10-14 15:05:14.892015,-122
2021-10-14 15:05:14.892023,-120
2021-10-14 15:05:14.892032,-117
2021-10-14 15:05:14.892040,-115
2021-10-14 15:05:14.892048,-115
2021-10-14 15:05:14.892057,-120
2021-10-14 15:05:14.892065,-117
2021-10-14 15:05:14.892073,-105
2021-10-14 15:05:14.892082,-85
2021-10-14 15:05:14.892090,-83
2021-10-14 15:05:14.892098,-112
2021-10-14 15:05:14.892107,-125
2021-10-14 15:05:14.892115,-98
2021-10-14 15:05:14.892123,-63
2021-10-14 15:05:14.892132,-34
2021-10-14 15:05:15.115503,-14
2021-10-14 15:05:15.115523,-9
2021-10-14 15:05:15.115533,-24
2021-10-14 15:05:15.115542,-58
2021-10-14 15:05:15.115551,-85
2021-10-14 15:05:15.115559,-90
2021-10-14 15:05:15.115568,-95
2021-10-14 15:05:15.115577,-103
2021-10-14 15:05:15.115585,-103
2021-10-14 15:05:15.115594,-112
2021-10-14 15:05:15.115602,-132
2021-10-14 15:05:15.115610,-144
2021-10-14 15:05:15.115619,-137
2021-10-14 15:05:15.115627,-39
2021-10-14 15:05:15.115636,235
2021-10-14 15:05:15.115645,554
2021-10-14 15:05:15.115653,473
2021-10-14 15:05:15.115662,-240
2021-10-14 15:05:15.115670,-777
2021-10-14 15:05:15.115679,-431
2021-10-14 15:05:15.115687,-63
2021-10-14 15:05:15.115696,-186
2021-10-14 15:05:15.115704,-211
2021-10-14 15:05:15.115713,-107
2021-10-14 15:05:15.115721,-132
2021-10-14 15:05:15.115730,-134
2021-10-14 15:05:15.115738,-76
2021-10-14 15:05:15.115747,-71
2021-10-14 15:05:15.115755,-68
2021-10-14 15:05:15.115764,-39
2021-10-14 15:05:15.341620,-22
2021-10-14 15:05:15.341641,-14
2021-10-14 15:05:15.341651,2
2021-10-14 15:05:15.341660,26
2021-10-14 15:05:15.341668,51
2021-10-14 15:05:15.341677,85
2021-10-14 15:05:15.341686,130
2021-10-14 15:05:15.341694,169
2021-10-14 15:05:15.341703,196
2021-10-14 15:05:15.341711,213
2021-10-14 15:05:15.341720,238
2021-10-14 15:05:15.341728,257
2021-10-14 15:05:15.341737,272
2021-10-14 15:05:15.341745,257
2021-10-14 15:05:15.341757,198
2021-10-14 15:05:15.341766,132
2021-10-14 15:05:15.341774,66
2021-10-14 15:05:15.341782,-24
2021-10-14 15:05:15.341791,-125
2021-10-14 15:05:15.341800,-203
2021-10-14 15:05:15.341808,-255
2021-10-14 15:05:15.341817,-289
2021-10-14 15:05:15.341825,-321
2021-10-14 15:05:15.341834,-345
2021-10-14 15:05:15.341842,-345
2021-10-14 15:05:15.341850,-336
2021-10-14 15:05:15.341859,-338
2021-10-14 15:05:15.341867,-331
2021-10-14 15:05:15.341875,-314
2021-10-14 15:05:15.341884,-306
2021-10-14 15:05:15.566640,-296
2021-10-14 15:05:15.566661,-279
2021-10-14 15:05:15.566671,-272
2021-10-14 15:05:15.566680,-272
2021-10-14 15:05:15.566688,-262
2021-10-14 15:05:15.566697,-247
2021-10-14 15:05:15.566706,-235
2021-10-14 15:05:15.566714,-225
2021-10-14 15:05:15.566722,-225
2021-10-14 15:05:15.566731,-233
2021-10-14 15:05:15.566740,-238
2021-10-14 15:05:15.566748,-235
2021-10-14 15:05:15.566756,-228
2021-10-14 15:05:15.566765,-225
2021-10-14 15:05:15.566773,-225
2021-10-14 15:05:15.566782,-220
2021-10-14 15:05:15.566790,-215
2021-10-14 15:05:15.566799,-208
2021-10-14 15:05:15.566807,-201
2021-10-14 15:05:15.566816,-196
2021-10-14 15:05:15.566824,-193
2021-10-14 15:05:15.566832,-188
2021-10-14 15:05:15.566841,-181
2021-10-14 15:05:15.566849,-164
2021-10-14 15:05:15.566857,-161
2021-10-14 15:05:15.566866,-174
2021-10-14 15:05:15.566874,-176
2021-10-14 15:05:15.566883,-164
2021-10-14 15:05:15.566891,-130
2021-10-14 15:05:15.566900,-85
2021-10-14 15:05:15.836881,-68
2021-10-14 15:05:15.836902,-78
2021-10-14 15:05:15.836912,-88
2021-10-14 15:05:15.836921,-95
2021-10-14 15:05:15.836929,-98
2021-10-14 15:05:15.836938,-90
2021-10-14 15:05:15.836946,-93
2021-10-14 15:05:15.836954,-100
2021-10-14 15:05:15.836963,-103
2021-10-14 15:05:15.836972,-100
2021-10-14 15:05:15.836980,-95
2021-10-14 15:05:15.836989,-98
2021-10-14 15:05:15.836998,-90
2021-10-14 15:05:15.837006,-9
2021-10-14 15:05:15.837015,238
2021-10-14 15:05:15.837023,598
2021-10-14 15:05:15.837032,687
2021-10-14 15:05:15.837040,110
2021-10-14 15:05:15.837049,-561
2021-10-14 15:05:15.837057,-414
2021-10-14 15:05:15.837066,-17
2021-10-14 15:05:15.837074,-112
2021-10-14 15:05:15.837083,-198
2021-10-14 15:05:15.837091,-58
2021-10-14 15:05:15.837099,-51
2021-10-14 15:05:15.837108,-115
2021-10-14 15:05:15.837116,-83
2021-10-14 15:05:15.837124,-58
2021-10-14 15:05:15.837133,-71
2021-10-14 15:05:15.837141,-58
2021-10-14 15:05:16.061273,-39
2021-10-14 15:05:16.061294,-29
2021-10-14 15:05:16.061304,-4
2021-10-14 15:05:16.061312,31
2021-10-14 15:05:16.061321,63
2021-10-14 15:05:16.061329,93
2021-10-14 15:05:16.061338,127
2021-10-14 15:05:16.061346,174
2021-10-14 15:05:16.061355,218
2021-10-14 15:05:16.061363,245
2021-10-14 15:05:16.061372,274
2021-10-14 15:05:16.061380,291
2021-10-14 15:05:16.061389,282
2021-10-14 15:05:16.061397,267
2021-10-14 15:05:16.061405,255
2021-10-14 15:05:16.061414,203
2021-10-14 15:05:16.061422,105
2021-10-14 15:05:16.061431,2
2021-10-14 15:05:16.061439,-80
2021-10-14 15:05:16.061447,-154
2021-10-14 15:05:16.061456,-208
2021-10-14 15:05:16.061464,-242
2021-10-14 15:05:16.061473,-269
2021-10-14 15:05:16.061481,-284
2021-10-14 15:05:16.061489,-279
2021-10-14 15:05:16.061498,-269
2021-10-14 15:05:16.061506,-264
2021-10-14 15:05:16.061514,-262
2021-10-14 15:05:16.061523,-262
2021-10-14 15:05:16.061531,-260
2021-10-14 15:05:16.286241,-260
2021-10-14 15:05:16.286261,-260
2021-10-14 15:05:16.286271,-242
2021-10-14 15:05:16.286280,-225
2021-10-14 15:05:16.286289,-225
2021-10-14 15:05:16.286297,-228
2021-10-14 15:05:16.286306,-223
2021-10-14 15:05:16.286314,-215
2021-10-14 15:05:16.286323,-206
2021-10-14 15:05:16.286331,-198
2021-10-14 15:05:16.286340,-198
2021-10-14 15:05:16.286349,-203
2021-10-14 15:05:16.286357,-206
2021-10-14 15:05:16.286366,-201
2021-10-14 15:05:16.286374,-196
2021-10-14 15:05:16.286383,-188
2021-10-14 15:05:16.286391,-181
2021-10-14 15:05:16.286400,-184
2021-10-14 15:05:16.286408,-191
2021-10-14 15:05:16.286417,-179
2021-10-14 15:05:16.286425,-166
2021-10-14 15:05:16.286433,-166
2021-10-14 15:05:16.286442,-164
2021-10-14 15:05:16.286450,-157
2021-10-14 15:05:16.286458,-157
2021-10-14 15:05:16.286467,-159
2021-10-14 15:05:16.286475,-157
2021-10-14 15:05:16.286484,-152
2021-10-14 15:05:16.286492,-130
2021-10-14 15:05:16.286501,-85
2021-10-14 15:05:16.466915,-63
2021-10-14 15:05:16.466936,-73
2021-10-14 15:05:16.466945,-80
2021-10-14 15:05:16.466952,-88
2021-10-14 15:05:16.466992,-107
2021-10-14 15:05:16.467017,-122
2021-10-14 15:05:16.467028,-112
2021-10-14 15:05:16.467037,-100
2021-10-14 15:05:16.467045,-105
2021-10-14 15:05:16.467054,-107
2021-10-14 15:05:16.467063,-100
2021-10-14 15:05:16.467072,-100
2021-10-14 15:05:16.467080,-85
2021-10-14 15:05:16.467089,4
2021-10-14 15:05:16.467098,240
2021-10-14 15:05:16.467106,593
2021-10-14 15:05:16.467115,755
2021-10-14 15:05:16.467123,264
2021-10-14 15:05:16.467132,-451
2021-10-14 15:05:16.467140,-397
2021-10-14 15:05:16.467149,22
2021-10-14 15:05:16.467158,-29
2021-10-14 15:05:16.467166,-154
2021-10-14 15:05:16.467175,-66
2021-10-14 15:05:16.467183,-53
2021-10-14 15:05:16.467192,-90
2021-10-14 15:05:16.467201,-49
2021-10-14 15:05:16.467209,-17
2021-10-14 15:05:16.467218,-17
2021-10-14 15:05:16.467227,2
2021-10-14 15:05:16.691901,31
2021-10-14 15:05:16.691922,44
2021-10-14 15:05:16.691932,61
2021-10-14 15:05:16.691940,88
2021-10-14 15:05:16.691949,120
2021-10-14 15:05:16.691957,157
2021-10-14 15:05:16.691966,191
2021-10-14 15:05:16.691974,225
2021-10-14 15:05:16.691983,267
2021-10-14 15:05:16.691991,299
2021-10-14 15:05:16.692000,314
2021-10-14 15:05:16.692008,328
2021-10-14 15:05:16.692017,345
2021-10-14 15:05:16.692025,338
2021-10-14 15:05:16.692033,311
2021-10-14 15:05:16.692042,264
2021-10-14 15:05:16.692050,191
2021-10-14 15:05:16.692059,95
2021-10-14 15:05:16.692067,0
2021-10-14 15:05:16.692076,-76
2021-10-14 15:05:16.692084,-132
2021-10-14 15:05:16.692092,-181
2021-10-14 15:05:16.692101,-208
2021-10-14 15:05:16.692109,-211
2021-10-14 15:05:16.692117,-206
2021-10-14 15:05:16.692125,-203
2021-10-14 15:05:16.692134,-196
2021-10-14 15:05:16.692142,-191
2021-10-14 15:05:16.692150,-184
2021-10-14 15:05:16.692159,-169
2021-10-14 15:05:17.006329,-159
2021-10-14 15:05:17.006345,-154
2021-10-14 15:05:17.006350,-137
2021-10-14 15:05:17.006355,-132
2021-10-14 15:05:17.006359,-157
2021-10-14 15:05:17.006364,-164
2021-10-14 15:05:17.006368,-139
2021-10-14 15:05:17.006373,-125
2021-10-14 15:05:17.006377,-132
2021-10-14 15:05:17.006382,-132
2021-10-14 15:05:17.006386,-127
2021-10-14 15:05:17.006391,-125
2021-10-14 15:05:17.006395,-122
2021-10-14 15:05:17.006399,-112
2021-10-14 15:05:17.006404,-120
2021-10-14 15:05:17.006408,-142
2021-10-14 15:05:17.006413,-142
2021-10-14 15:05:17.006417,-120
2021-10-14 15:05:17.006421,-110
2021-10-14 15:05:17.006426,-110
2021-10-14 15:05:17.006430,-107
2021-10-14 15:05:17.006435,-110
2021-10-14 15:05:17.006439,-105
2021-10-14 15:05:17.006443,-93
2021-10-14 15:05:17.006448,-85
2021-10-14 15:05:17.006452,-80
2021-10-14 15:05:17.006457,-95
2021-10-14 15:05:17.006461,-122
2021-10-14 15:05:17.006466,-117
2021-10-14 15:05:17.006470,-83
2021-10-14 15:05:17.230937,-41
2021-10-14 15:05:17.230958,-17
2021-10-14 15:05:17.230968,-19
2021-10-14 15:05:17.230977,-34
2021-10-14 15:05:17.230985,-46
2021-10-14 15:05:17.230994,-51
2021-10-14 15:05:17.231003,-58
2021-10-14 15:05:17.231011,-58
2021-10-14 15:05:17.231020,-51
2021-10-14 15:05:17.231028,-53
2021-10-14 15:05:17.231037,-51
2021-10-14 15:05:17.231045,-36
2021-10-14 15:05:17.231054,-36
2021-10-14 15:05:17.231062,-24
2021-10-14 15:05:17.231071,73
2021-10-14 15:05:17.231079,316
2021-10-14 15:05:17.231088,679
2021-10-14 15:05:17.231097,829
2021-10-14 15:05:17.231105,301
2021-10-14 15:05:17.231114,-414
2021-10-14 15:05:17.231122,-321
2021-10-14 15:05:17.231130,100
2021-10-14 15:05:17.231139,41
2021-10-14 15:05:17.231147,-63
2021-10-14 15:05:17.231156,31
2021-10-14 15:05:17.231164,44
2021-10-14 15:05:17.231172,12
2021-10-14 15:05:17.231181,49
2021-10-14 15:05:17.231189,73
2021-10-14 15:05:17.231198,68
2021-10-14 15:05:17.456660,93
2021-10-14 15:05:17.456685,122
2021-10-14 15:05:17.456696,130
2021-10-14 15:05:17.456705,157
2021-10-14 15:05:17.456713,208
2021-10-14 15:05:17.456722,245
2021-10-14 15:05:17.456731,274
2021-10-14 15:05:17.456739,321
2021-10-14 15:05:17.456748,360
2021-10-14 15:05:17.456756,387
2021-10-14 15:05:17.456764,417
2021-10-14 15:05:17.456773,439
2021-10-14 15:05:17.456781,453
2021-10-14 15:05:17.456789,456
2021-10-14 15:05:17.456798,436
2021-10-14 15:05:17.456807,412
2021-10-14 15:05:17.456815,380
2021-10-14 15:05:17.456824,314
2021-10-14 15:05:17.456832,213
2021-10-14 15:05:17.456840,112
2021-10-14 15:05:17.456849,24
2021-10-14 15:05:17.456857,-39
2021-10-14 15:05:17.456866,-85
2021-10-14 15:05:17.456874,-110
2021-10-14 15:05:17.456882,-117
2021-10-14 15:05:17.456891,-125
2021-10-14 15:05:17.456899,-139
2021-10-14 15:05:17.456907,-132
2021-10-14 15:05:17.456916,-105
2021-10-14 15:05:17.456924,-100
2021-10-14 15:05:17.636877,-95
2021-10-14 15:05:17.636898,-76
2021-10-14 15:05:17.636907,-78
2021-10-14 15:05:17.636916,-90
2021-10-14 15:05:17.636924,-76
2021-10-14 15:05:17.636932,-56
2021-10-14 15:05:17.636940,-61
2021-10-14 15:05:17.636948,-73
2021-10-14 15:05:17.636957,-68
2021-10-14 15:05:17.636965,-58
2021-10-14 15:05:17.636973,-58
2021-10-14 15:05:17.636981,-73
2021-10-14 15:05:17.636990,-80
2021-10-14 15:05:17.636998,-80
2021-10-14 15:05:17.637006,-71
2021-10-14 15:05:17.637014,-73
2021-10-14 15:05:17.637022,-88
2021-10-14 15:05:17.637031,-88
2021-10-14 15:05:17.637039,-76
2021-10-14 15:05:17.637047,-78
2021-10-14 15:05:17.637056,-93
2021-10-14 15:05:17.637064,-90
2021-10-14 15:05:17.637072,-68
2021-10-14 15:05:17.637080,-56
2021-10-14 15:05:17.637088,-68
2021-10-14 15:05:17.637097,-71
2021-10-14 15:05:17.637105,-61
2021-10-14 15:05:17.637113,-61
2021-10-14 15:05:17.637121,-58
2021-10-14 15:05:17.637129,-17
2021-10-14 15:05:17.951810,36
2021-10-14 15:05:17.951832,71
2021-10-14 15:05:17.951842,85
2021-10-14 15:05:17.951851,83
2021-10-14 15:05:17.951860,68
2021-10-14 15:05:17.951869,51
2021-10-14 15:05:17.951878,31
2021-10-14 15:05:17.951887,14
2021-10-14 15:05:17.951895,17
2021-10-14 15:05:17.951904,26
2021-10-14 15:05:17.951913,34
2021-10-14 15:05:17.951921,36
2021-10-14 15:05:17.951930,26
2021-10-14 15:05:17.951938,17
2021-10-14 15:05:17.951947,53
2021-10-14 15:05:17.951956,211
2021-10-14 15:05:17.951964,529
2021-10-14 15:05:17.951973,846
2021-10-14 15:05:17.951991,701
2021-10-14 15:05:17.952006,-51
2021-10-14 15:05:17.952053,-490
2021-10-14 15:05:17.952065,-90
2021-10-14 15:05:17.952074,186
2021-10-14 15:05:17.952082,14
2021-10-14 15:05:17.952091,-2
2021-10-14 15:05:17.952100,93
2021-10-14 15:05:17.952108,71
2021-10-14 15:05:17.952116,61
2021-10-14 15:05:17.952129,90
2021-10-14 15:05:17.952138,85
2021-10-14 15:05:18.132264,76
2021-10-14 15:05:18.132285,98
2021-10-14 15:05:18.132295,120
2021-10-14 15:05:18.132304,132
2021-10-14 15:05:18.132312,154
2021-10-14 15:05:18.132320,176
2021-10-14 15:05:18.132329,196
2021-10-14 15:05:18.132337,233
2021-10-14 15:05:18.132346,277
2021-10-14 15:05:18.132355,287
2021-10-14 15:05:18.132363,294
2021-10-14 15:05:18.132372,333
2021-10-14 15:05:18.132380,358
2021-10-14 15:05:18.132389,360
2021-10-14 15:05:18.132397,358
2021-10-14 15:05:18.132405,336
2021-10-14 15:05:18.132413,299
2021-10-14 15:05:18.132422,245
2021-10-14 15:05:18.132430,159
2021-10-14 15:05:18.132439,53
2021-10-14 15:05:18.132447,-41
2021-10-14 15:05:18.132456,-110
2021-10-14 15:05:18.132464,-149
2021-10-14 15:05:18.132473,-196
2021-10-14 15:05:18.132481,-238
2021-10-14 15:05:18.132489,-235
2021-10-14 15:05:18.132497,-220
2021-10-14 15:05:18.132506,-225
2021-10-14 15:05:18.132514,-223
2021-10-14 15:05:18.132523,-211
2021-10-14 15:05:18.357293,-198
2021-10-14 15:05:18.357315,-184
2021-10-14 15:05:18.357325,-171
2021-10-14 15:05:18.357333,-159
2021-10-14 15:05:18.357342,-159
2021-10-14 15:05:18.357351,-166
2021-10-14 15:05:18.357408,-159
2021-10-14 15:05:18.357437,-139
2021-10-14 15:05:18.357445,-134
2021-10-14 15:05:18.357452,-134
2021-10-14 15:05:18.357459,-132
2021-10-14 15:05:18.357466,-132
2021-10-14 15:05:18.357474,-139
2021-10-14 15:05:18.357482,-137
2021-10-14 15:05:18.357491,-125
2021-10-14 15:05:18.357499,-115
2021-10-14 15:05:18.357507,-115
2021-10-14 15:05:18.357515,-112
2021-10-14 15:05:18.357524,-117
2021-10-14 15:05:18.357532,-127
2021-10-14 15:05:18.357540,-122
2021-10-14 15:05:18.357549,-107
2021-10-14 15:05:18.357557,-107
2021-10-14 15:05:18.357565,-117
2021-10-14 15:05:18.357574,-115
2021-10-14 15:05:18.357582,-95
2021-10-14 15:05:18.357590,-90
2021-10-14 15:05:18.357599,-103
2021-10-14 15:05:18.357607,-110
2021-10-14 15:05:18.357615,-88
2021-10-14 15:05:18.491907,-41
2021-10-14 15:05:18.491928,-17
2021-10-14 15:05:18.491938,-24
2021-10-14 15:05:18.491947,-29
2021-10-14 15:05:18.491956,-46
2021-10-14 15:05:18.491964,-73
2021-10-14 15:05:18.491973,-76
2021-10-14 15:05:18.491981,-63
2021-10-14 15:05:18.491990,-61
2021-10-14 15:05:18.491998,-53
2021-10-14 15:05:18.492007,-53
2021-10-14 15:05:18.492015,-58
2021-10-14 15:05:18.492024,-56
2021-10-14 15:05:18.492032,-53
2021-10-14 15:05:18.492040,-34
2021-10-14 15:05:18.492049,112
2021-10-14 15:05:18.492057,444
2021-10-14 15:05:18.492066,755
2021-10-14 15:05:18.492074,579
2021-10-14 15:05:18.492083,-176
2021-10-14 15:05:18.492091,-561
2021-10-14 15:05:18.492099,-139
2021-10-14 15:05:18.492108,93
2021-10-14 15:05:18.492116,-85
2021-10-14 15:05:18.492125,-58
2021-10-14 15:05:18.492133,41
2021-10-14 15:05:18.492142,-4
2021-10-14 15:05:18.492150,-7
2021-10-14 15:05:18.492159,41
2021-10-14 15:05:18.492167,44
2021-10-14 15:05:18.717272,53
2021-10-14 15:05:18.717303,93
2021-10-14 15:05:18.717313,110
2021-10-14 15:05:18.717322,107
2021-10-14 15:05:18.717330,117
2021-10-14 15:05:18.717339,147
2021-10-14 15:05:18.717347,184
2021-10-14 15:05:18.717356,201
2021-10-14 15:05:18.717365,220
2021-10-14 15:05:18.717373,262
2021-10-14 15:05:18.717381,291
2021-10-14 15:05:18.717390,318
2021-10-14 15:05:18.717398,343
2021-10-14 15:05:18.717407,353
2021-10-14 15:05:18.717415,345
2021-10-14 15:05:18.717424,333
2021-10-14 15:05:18.717432,301
2021-10-14 15:05:18.717441,245
2021-10-14 15:05:18.717449,171
2021-10-14 15:05:18.717457,80
2021-10-14 15:05:18.717466,-22
2021-10-14 15:05:18.717475,-103
2021-10-14 15:05:18.717483,-149
2021-10-14 15:05:18.717491,-176
2021-10-14 15:05:18.717500,-191
2021-10-14 15:05:18.717508,-203
2021-10-14 15:05:18.717516,-220
2021-10-14 15:05:18.717525,-211
2021-10-14 15:05:18.717533,-188
2021-10-14 15:05:18.717542,-191
2021-10-14 15:05:19.165712,-191
2021-10-14 15:05:19.165734,-169
2021-10-14 15:05:19.165743,-154
2021-10-14 15:05:19.165752,-164
2021-10-14 15:05:19.165761,-161
2021-10-14 15:05:19.165769,-139
2021-10-14 15:05:19.165778,-125
2021-10-14 15:05:19.165786,-122
2021-10-14 15:05:19.165795,-120
2021-10-14 15:05:19.165803,-127
2021-10-14 15:05:19.165812,-122
2021-10-14 15:05:19.165820,-112
2021-10-14 15:05:19.165829,-112
2021-10-14 15:05:19.165837,-110
2021-10-14 15:05:19.165845,-112
2021-10-14 15:05:19.165854,-115
2021-10-14 15:05:19.165862,-112
2021-10-14 15:05:19.165871,-112
2021-10-14 15:05:19.165879,-112
2021-10-14 15:05:19.165888,-115
2021-10-14 15:05:19.165896,-130
2021-10-14 15:05:19.165905,-132
2021-10-14 15:05:19.165913,-132
2021-10-14 15:05:19.165921,-149
2021-10-14 15:05:19.165930,-154
2021-10-14 15:05:19.165938,-142
2021-10-14 15:05:19.165947,-144
2021-10-14 15:05:19.165955,-144
2021-10-14 15:05:19.165964,-137
2021-10-14 15:05:19.165972,-117
2021-10-14 15:05:19.346204,-78
2021-10-14 15:05:19.346225,-46
2021-10-14 15:05:19.346234,-44
2021-10-14 15:05:19.346243,-61
2021-10-14 15:05:19.346252,-71
2021-10-14 15:05:19.346260,-73
2021-10-14 15:05:19.346269,-78
2021-10-14 15:05:19.346277,-83
2021-10-14 15:05:19.346286,-78
2021-10-14 15:05:19.346294,-68
2021-10-14 15:05:19.346303,-63
2021-10-14 15:05:19.346311,-61
2021-10-14 15:05:19.346320,-63
2021-10-14 15:05:19.346328,-53
2021-10-14 15:05:19.346337,12
2021-10-14 15:05:19.346345,220
2021-10-14 15:05:19.346354,571
2021-10-14 15:05:19.346362,799
2021-10-14 15:05:19.346371,424
2021-10-14 15:05:19.346379,-343
2021-10-14 15:05:19.346388,-461
2021-10-14 15:05:19.346396,4
2021-10-14 15:05:19.346405,85
2021-10-14 15:05:19.346413,-53
2021-10-14 15:05:19.346422,17
2021-10-14 15:05:19.346430,46
2021-10-14 15:05:19.346438,-2
2021-10-14 15:05:19.346446,31
2021-10-14 15:05:19.346455,41
2021-10-14 15:05:19.346463,9
2021-10-14 15:05:19.571969,58
2021-10-14 15:05:19.571991,105
2021-10-14 15:05:19.572001,88
2021-10-14 15:05:19.572010,98
2021-10-14 15:05:19.572018,139
2021-10-14 15:05:19.572026,164
2021-10-14 15:05:19.572035,184
2021-10-14 15:05:19.572043,213
2021-10-14 15:05:19.572051,238
2021-10-14 15:05:19.572060,269
2021-10-14 15:05:19.572068,304
2021-10-14 15:05:19.572076,311
2021-10-14 15:05:19.572085,309
2021-10-14 15:05:19.572093,316
2021-10-14 15:05:19.572102,311
2021-10-14 15:05:19.572110,294
2021-10-14 15:05:19.572118,269
2021-10-14 15:05:19.572127,193
2021-10-14 15:05:19.572135,95
2021-10-14 15:05:19.572144,17
2021-10-14 15:05:19.572152,-61
2021-10-14 15:05:19.572160,-134
2021-10-14 15:05:19.572169,-176
2021-10-14 15:05:19.572177,-201
2021-10-14 15:05:19.572186,-223
2021-10-14 15:05:19.572194,-233
2021-10-14 15:05:19.572203,-233
2021-10-14 15:05:19.572211,-245
2021-10-14 15:05:19.572220,-255
2021-10-14 15:05:19.572228,-240
2021-10-14 15:05:19.661926,-233
2021-10-14 15:05:19.661947,-228
2021-10-14 15:05:19.661957,-201
2021-10-14 15:05:19.661965,-203
2021-10-14 15:05:19.661974,-225
2021-10-14 15:05:19.661982,-220
2021-10-14 15:05:19.661991,-191
2021-10-14 15:05:19.661999,-174
2021-10-14 15:05:19.662008,-184
2021-10-14 15:05:19.662016,-196
2021-10-14 15:05:19.662025,-171
2021-10-14 15:05:19.662033,-154
2021-10-14 15:05:19.662042,-184
2021-10-14 15:05:19.662051,-196
2021-10-14 15:05:19.662059,-174
2021-10-14 15:05:19.662068,-164
2021-10-14 15:05:19.662076,-166
2021-10-14 15:05:19.662084,-171
2021-10-14 15:05:19.662093,-161
2021-10-14 15:05:19.662102,-161
2021-10-14 15:05:19.662110,-181
2021-10-14 15:05:19.662119,-166
2021-10-14 15:05:19.662127,-132
2021-10-14 15:05:19.662135,-137
2021-10-14 15:05:19.662144,-144
2021-10-14 15:05:19.662152,-127
2021-10-14 15:05:19.662161,-125
2021-10-14 15:05:19.662169,-142
2021-10-14 15:05:19.662177,-120
2021-10-14 15:05:19.662186,-73
2021-10-14 15:05:19.931706,-66
2021-10-14 15:05:19.931727,-88
2021-10-14 15:05:19.931736,-98
2021-10-14 15:05:19.931744,-100
2021-10-14 15:05:19.931752,-107
2021-10-14 15:05:19.931760,-132
2021-10-14 15:05:19.931768,-137
2021-10-14 15:05:19.931776,-107
2021-10-14 15:05:19.931784,-103
2021-10-14 15:05:19.931791,-120
2021-10-14 15:05:19.931799,-120
2021-10-14 15:05:19.931807,-115
2021-10-14 15:05:19.931815,-120
2021-10-14 15:05:19.931823,-83
2021-10-14 15:05:19.931831,117
2021-10-14 15:05:19.931839,488
2021-10-14 15:05:19.931847,758
2021-10-14 15:05:19.931854,451
2021-10-14 15:05:19.931862,-338
2021-10-14 15:05:19.931870,-547
2021-10-14 15:05:19.931879,-68
2021-10-14 15:05:19.931887,58
2021-10-14 15:05:19.931895,-134
2021-10-14 15:05:19.931903,-88
2021-10-14 15:05:19.931911,14
2021-10-14 15:05:19.931919,-9
2021-10-14 15:05:19.931926,-17
2021-10-14 15:05:19.931933,26
2021-10-14 15:05:19.931940,46
2021-10-14 15:05:19.931948,26
2021-10-14 15:05:20.201390,29
2021-10-14 15:05:20.201411,66
2021-10-14 15:05:20.201419,85
2021-10-14 15:05:20.201427,98
2021-10-14 15:05:20.201435,122
2021-10-14 15:05:20.201443,127
2021-10-14 15:05:20.201451,142
2021-10-14 15:05:20.201458,201
2021-10-14 15:05:20.201466,252
2021-10-14 15:05:20.201474,264
2021-10-14 15:05:20.201481,284
2021-10-14 15:05:20.201489,301
2021-10-14 15:05:20.201497,304
2021-10-14 15:05:20.201505,316
2021-10-14 15:05:20.201512,306
2021-10-14 15:05:20.201520,262
2021-10-14 15:05:20.201528,208
2021-10-14 15:05:20.201536,122
2021-10-14 15:05:20.201543,7
2021-10-14 15:05:20.201551,-83
2021-10-14 15:05:20.201558,-139
2021-10-14 15:05:20.201566,-196
2021-10-14 15:05:20.201574,-240
2021-10-14 15:05:20.201582,-247
2021-10-14 15:05:20.201589,-242
2021-10-14 15:05:20.201597,-240
2021-10-14 15:05:20.201605,-242
2021-10-14 15:05:20.201613,-250
2021-10-14 15:05:20.201621,-247
2021-10-14 15:05:20.201628,-223
2021-10-14 15:05:20.471718,-193
2021-10-14 15:05:20.471739,-181
2021-10-14 15:05:20.471748,-188
2021-10-14 15:05:20.471757,-201
2021-10-14 15:05:20.471765,-218
2021-10-14 15:05:20.471774,-220
2021-10-14 15:05:20.471782,-201
2021-10-14 15:05:20.471791,-191
2021-10-14 15:05:20.471799,-220
2021-10-14 15:05:20.471808,-235
2021-10-14 15:05:20.471816,-206
2021-10-14 15:05:20.471825,-211
2021-10-14 15:05:20.471833,-230
2021-10-14 15:05:20.471842,-201
2021-10-14 15:05:20.471850,-174
2021-10-14 15:05:20.471858,-193
2021-10-14 15:05:20.471867,-223
2021-10-14 15:05:20.471875,-228
2021-10-14 15:05:20.471884,-208
2021-10-14 15:05:20.471892,-196
2021-10-14 15:05:20.471900,-211
2021-10-14 15:05:20.471909,-218
2021-10-14 15:05:20.471917,-211
2021-10-14 15:05:20.471926,-201
2021-10-14 15:05:20.471934,-179
2021-10-14 15:05:20.471942,-137
2021-10-14 15:05:20.471951,-134
2021-10-14 15:05:20.471959,-181
2021-10-14 15:05:20.471968,-191
2021-10-14 15:05:20.471976,-159
2021-10-14 15:05:20.561895,-174
2021-10-14 15:05:20.561915,-211
2021-10-14 15:05:20.561925,-181
2021-10-14 15:05:20.561934,-152
2021-10-14 15:05:20.561942,-188
2021-10-14 15:05:20.561951,-203
2021-10-14 15:05:20.561959,-186
2021-10-14 15:05:20.561968,-198
2021-10-14 15:05:20.561977,-166
2021-10-14 15:05:20.561985,12
2021-10-14 15:05:20.561994,375
2021-10-14 15:05:20.562002,662
2021-10-14 15:05:20.562010,309
2021-10-14 15:05:20.562019,-502
2021-10-14 15:05:20.562027,-640
2021-10-14 15:05:20.562036,-137
2021-10-14 15:05:20.562044,-29
2021-10-14 15:05:20.562053,-174
2021-10-14 15:05:20.562061,-100
2021-10-14 15:05:20.562069,-34
2021-10-14 15:05:20.562078,-73
2021-10-14 15:05:20.562086,-78
2021-10-14 15:05:20.562094,-31
2021-10-14 15:05:20.562102,9
2021-10-14 15:05:20.562111,26
2021-10-14 15:05:20.562119,36
2021-10-14 15:05:20.562127,53
2021-10-14 15:05:20.562136,78
2021-10-14 15:05:20.562144,107
2021-10-14 15:05:20.562153,134
2021-10-14 15:05:20.876328,181
2021-10-14 15:05:20.876350,245
2021-10-14 15:05:20.876359,279
2021-10-14 15:05:20.876368,316
2021-10-14 15:05:20.876376,380
2021-10-14 15:05:20.876388,397
2021-10-14 15:05:20.876397,382
2021-10-14 15:05:20.876405,424
2021-10-14 15:05:20.876414,461
2021-10-14 15:05:20.876422,429
2021-10-14 15:05:20.876430,370
2021-10-14 15:05:20.876439,323
2021-10-14 15:05:20.876447,260
2021-10-14 15:05:20.876455,188
2021-10-14 15:05:20.876464,112
2021-10-14 15:05:20.876472,46
2021-10-14 15:05:20.876480,63
2021-10-14 15:05:20.876488,130
2021-10-14 15:05:20.876497,149
2021-10-14 15:05:20.876505,154
2021-10-14 15:05:20.876513,179
2021-10-14 15:05:20.876522,206
2021-10-14 15:05:20.876530,262
2021-10-14 15:05:20.876538,309
2021-10-14 15:05:20.876546,316
2021-10-14 15:05:20.876554,390
2021-10-14 15:05:20.876562,478
2021-10-14 15:05:20.876571,476
2021-10-14 15:05:20.876579,490
2021-10-14 15:05:20.876587,539
2021-10-14 15:05:21.101810,520
2021-10-14 15:05:21.101832,505
2021-10-14 15:05:21.101842,522
2021-10-14 15:05:21.101850,502
2021-10-14 15:05:21.101859,483
2021-10-14 15:05:21.101868,483
2021-10-14 15:05:21.101876,498
2021-10-14 15:05:21.101885,488
2021-10-14 15:05:21.101893,434
2021-10-14 15:05:21.101911,407
2021-10-14 15:05:21.101922,422
2021-10-14 15:05:21.101950,412
2021-10-14 15:05:21.101980,358
2021-10-14 15:05:21.101990,323
2021-10-14 15:05:21.101999,348
2021-10-14 15:05:21.102007,345
2021-10-14 15:05:21.102016,326
2021-10-14 15:05:21.102024,363
2021-10-14 15:05:21.102033,392
2021-10-14 15:05:21.102041,375
2021-10-14 15:05:21.102051,372
2021-10-14 15:05:21.102060,368
2021-10-14 15:05:21.102068,341
2021-10-14 15:05:21.102076,301
2021-10-14 15:05:21.102085,294
2021-10-14 15:05:21.102093,331
2021-10-14 15:05:21.102101,350
2021-10-14 15:05:21.102110,328
2021-10-14 15:05:21.102118,309
2021-10-14 15:05:21.102127,331
2021-10-14 15:05:21.371029,350
2021-10-14 15:05:21.371052,343
2021-10-14 15:05:21.371061,431
2021-10-14 15:05:21.371070,726
2021-10-14 15:05:21.371078,1133
2021-10-14 15:05:21.371087,1283
2021-10-14 15:05:21.371095,723
2021-10-14 15:05:21.371104,-34
2021-10-14 15:05:21.371112,41
2021-10-14 15:05:21.371121,490
2021-10-14 15:05:21.371129,456
2021-10-14 15:05:21.371138,333
2021-10-14 15:05:21.371146,424
2021-10-14 15:05:21.371155,446
2021-10-14 15:05:21.371163,397
2021-10-14 15:05:21.371172,417
2021-10-14 15:05:21.371180,453
2021-10-14 15:05:21.371189,463
2021-10-14 15:05:21.371197,463
2021-10-14 15:05:21.371205,473
2021-10-14 15:05:21.371214,490
2021-10-14 15:05:21.371222,507
2021-10-14 15:05:21.371231,537
2021-10-14 15:05:21.371239,559
2021-10-14 15:05:21.371247,569
2021-10-14 15:05:21.371256,598
2021-10-14 15:05:21.371264,640
2021-10-14 15:05:21.371273,684
2021-10-14 15:05:21.371281,704
2021-10-14 15:05:21.371290,684
2021-10-14 15:05:21.551349,662
2021-10-14 15:05:21.551372,650
2021-10-14 15:05:21.551382,615
2021-10-14 15:05:21.551391,556
2021-10-14 15:05:21.551400,505
2021-10-14 15:05:21.551408,434
2021-10-14 15:05:21.551416,314
2021-10-14 15:05:21.551424,191
2021-10-14 15:05:21.551462,120
2021-10-14 15:05:21.551510,98
2021-10-14 15:05:21.551527,73
2021-10-14 15:05:21.551535,34
2021-10-14 15:05:21.551542,24
2021-10-14 15:05:21.551549,46
2021-10-14 15:05:21.551556,53
2021-10-14 15:05:21.551562,39
2021-10-14 15:05:21.551570,36
2021-10-14 15:05:21.551577,46
2021-10-14 15:05:21.551584,46
2021-10-14 15:05:21.551591,31
2021-10-14 15:05:21.551599,41
2021-10-14 15:05:21.551607,58
2021-10-14 15:05:21.551615,58
2021-10-14 15:05:21.551623,73
2021-10-14 15:05:21.551632,90
2021-10-14 15:05:21.551640,71
2021-10-14 15:05:21.551648,56
2021-10-14 15:05:21.551655,53
2021-10-14 15:05:21.551662,36
2021-10-14 15:05:21.551669,46
2021-10-14 15:05:21.821713,56
2021-10-14 15:05:21.821734,36
2021-10-14 15:05:21.821744,31
2021-10-14 15:05:21.821753,36
2021-10-14 15:05:21.821761,24
2021-10-14 15:05:21.821769,19
2021-10-14 15:05:21.821778,12
2021-10-14 15:05:21.821786,-24
2021-10-14 15:05:21.821795,-71
2021-10-14 15:05:21.821803,-98
2021-10-14 15:05:21.821811,-103
2021-10-14 15:05:21.821820,-112
2021-10-14 15:05:21.821828,-152
2021-10-14 15:05:21.821836,-193
2021-10-14 15:05:21.821845,-220
2021-10-14 15:05:21.821853,-269
2021-10-14 15:05:21.821862,-343
2021-10-14 15:05:21.821870,-417
2021-10-14 15:05:21.821878,-451
2021-10-14 15:05:21.821886,-434
2021-10-14 15:05:21.821895,-419
2021-10-14 15:05:21.821903,-444
2021-10-14 15:05:21.821911,-463
2021-10-14 15:05:21.821920,-461
2021-10-14 15:05:21.821928,-466
2021-10-14 15:05:21.821936,-480
2021-10-14 15:05:21.821945,-397
2021-10-14 15:05:21.821953,-90
2021-10-14 15:05:21.821961,282
2021-10-14 15:05:21.821970,171
2021-10-14 15:05:22.046960,-684
2021-10-14 15:05:22.046981,-1275
2021-10-14 15:05:22.046991,-895
2021-10-14 15:05:22.047000,-591
2021-10-14 15:05:22.047009,-794
2021-10-14 15:05:22.047017,-817
2021-10-14 15:05:22.047025,-694
2021-10-14 15:05:22.047034,-716
2021-10-14 15:05:22.047043,-728
2021-10-14 15:05:22.047051,-684
2021-10-14 15:05:22.047059,-645
2021-10-14 15:05:22.047068,-603
2021-10-14 15:05:22.047076,-583
2021-10-14 15:05:22.047085,-576
2021-10-14 15:05:22.047093,-559
2021-10-14 15:05:22.047102,-520
2021-10-14 15:05:22.047110,-471
2021-10-14 15:05:22.047118,-444
2021-10-14 15:05:22.047127,-431
2021-10-14 15:05:22.047135,-385
2021-10-14 15:05:22.047144,-331
2021-10-14 15:05:22.047152,-294
2021-10-14 15:05:22.047160,-252
2021-10-14 15:05:22.047169,-233
2021-10-14 15:05:22.047177,-230
2021-10-14 15:05:22.047186,-211
2021-10-14 15:05:22.047194,-215
2021-10-14 15:05:22.047202,-247
2021-10-14 15:05:22.047211,-311
2021-10-14 15:05:22.047219,-424
2021-10-14 15:05:22.181949,-517
2021-10-14 15:05:22.181969,-583
2021-10-14 15:05:22.181979,-677
2021-10-14 15:05:22.181988,-731
2021-10-14 15:05:22.181996,-731
2021-10-14 15:05:22.182005,-743
2021-10-14 15:05:22.182014,-755
2021-10-14 15:05:22.182022,-738
2021-10-14 15:05:22.182031,-723
2021-10-14 15:05:22.182039,-723
2021-10-14 15:05:22.182048,-709
2021-10-14 15:05:22.182056,-684
2021-10-14 15:05:22.182065,-662
2021-10-14 15:05:22.182073,-628
2021-10-14 15:05:22.182082,-606
2021-10-14 15:05:22.182090,-591
2021-10-14 15:05:22.182099,-571
2021-10-14 15:05:22.182107,-556
2021-10-14 15:05:22.182116,-534
2021-10-14 15:05:22.182124,-520
2021-10-14 15:05:22.182133,-515
2021-10-14 15:05:22.182141,-507
2021-10-14 15:05:22.182149,-507
2021-10-14 15:05:22.182158,-502
2021-10-14 15:05:22.182166,-471
2021-10-14 15:05:22.182175,-434
2021-10-14 15:05:22.182183,-439
2021-10-14 15:05:22.182191,-446
2021-10-14 15:05:22.182200,-436
2021-10-14 15:05:22.182208,-431
2021-10-14 15:05:22.496803,-409
2021-10-14 15:05:22.496824,-380
2021-10-14 15:05:22.496834,-353
2021-10-14 15:05:22.496843,-316
2021-10-14 15:05:22.496851,-304
2021-10-14 15:05:22.496860,-311
2021-10-14 15:05:22.496868,-287
2021-10-14 15:05:22.496877,-277
2021-10-14 15:05:22.496885,-306
2021-10-14 15:05:22.496894,-326
2021-10-14 15:05:22.496902,-311
2021-10-14 15:05:22.496911,-289
2021-10-14 15:05:22.496919,-279
2021-10-14 15:05:22.496928,-269
2021-10-14 15:05:22.496936,-255
2021-10-14 15:05:22.496945,-269
2021-10-14 15:05:22.496953,-260
2021-10-14 15:05:22.496962,-142
2021-10-14 15:05:22.496970,120
2021-10-14 15:05:22.496979,502
2021-10-14 15:05:22.496987,650
2021-10-14 15:05:22.496996,78
2021-10-14 15:05:22.497004,-645
2021-10-14 15:05:22.497012,-471
2021-10-14 15:05:22.497020,-7
2021-10-14 15:05:22.497029,-98
2021-10-14 15:05:22.497037,-186
2021-10-14 15:05:22.497046,-56
2021-10-14 15:05:22.497054,-80
2021-10-14 15:05:22.497063,-120
2021-10-14 15:05:22.721366,-31
2021-10-14 15:05:22.721387,0
2021-10-14 15:05:22.721397,-24
2021-10-14 15:05:22.721406,-2
2021-10-14 15:05:22.721414,36
2021-10-14 15:05:22.721423,76
2021-10-14 15:05:22.721431,105
2021-10-14 15:05:22.721440,122
2021-10-14 15:05:22.721448,166
2021-10-14 15:05:22.721457,225
2021-10-14 15:05:22.721465,260
2021-10-14 15:05:22.721474,304
2021-10-14 15:05:22.721482,377
2021-10-14 15:05:22.721491,441
2021-10-14 15:05:22.721499,461
2021-10-14 15:05:22.721508,461
2021-10-14 15:05:22.721516,493
2021-10-14 15:05:22.721524,510
2021-10-14 15:05:22.721533,453
2021-10-14 15:05:22.721541,377
2021-10-14 15:05:22.721549,296
2021-10-14 15:05:22.721558,186
2021-10-14 15:05:22.721567,90
2021-10-14 15:05:22.721575,41
2021-10-14 15:05:22.721584,-14
2021-10-14 15:05:22.721592,-71
2021-10-14 15:05:22.721600,-85
2021-10-14 15:05:22.721609,-78
2021-10-14 15:05:22.721617,-90
2021-10-14 15:05:22.721625,-93
2021-10-14 15:05:22.902393,-63
2021-10-14 15:05:22.902414,-46
2021-10-14 15:05:22.902423,-73
2021-10-14 15:05:22.902432,-88
2021-10-14 15:05:22.902441,-58
2021-10-14 15:05:22.902449,-44
2021-10-14 15:05:22.902458,-58
2021-10-14 15:05:22.902466,-58
2021-10-14 15:05:22.902475,-68
2021-10-14 15:05:22.902483,-73
2021-10-14 15:05:22.902491,-44
2021-10-14 15:05:22.902500,-39
2021-10-14 15:05:22.902508,-51
2021-10-14 15:05:22.902517,-36
2021-10-14 15:05:22.902525,-36
2021-10-14 15:05:22.902533,-63
2021-10-14 15:05:22.902542,-61
2021-10-14 15:05:22.902550,-46
2021-10-14 15:05:22.902559,-46
2021-10-14 15:05:22.902567,-58
2021-10-14 15:05:22.902575,-76
2021-10-14 15:05:22.902584,-68
2021-10-14 15:05:22.902592,-44
2021-10-14 15:05:22.902601,-46
2021-10-14 15:05:22.902609,-68
2021-10-14 15:05:22.902617,-46
2021-10-14 15:05:22.902626,7
2021-10-14 15:05:22.902634,14
2021-10-14 15:05:22.902643,-2
2021-10-14 15:05:22.902651,-7
2021-10-14 15:05:23.305773,-34
2021-10-14 15:05:23.305796,-61
2021-10-14 15:05:23.305806,-80
2021-10-14 15:05:23.305814,-93
2021-10-14 15:05:23.305821,-71
2021-10-14 15:05:23.305829,-53
2021-10-14 15:05:23.305837,-68
2021-10-14 15:05:23.305844,-71
2021-10-14 15:05:23.305852,-78
2021-10-14 15:05:23.305860,-98
2021-10-14 15:05:23.305869,-56
2021-10-14 15:05:23.305877,164
2021-10-14 15:05:23.305885,576
2021-10-14 15:05:23.305894,885
2021-10-14 15:05:23.305902,520
2021-10-14 15:05:23.305910,-321
2021-10-14 15:05:23.305919,-483
2021-10-14 15:05:23.305927,-26
2021-10-14 15:05:23.305936,22
2021-10-14 15:05:23.305944,-144
2021-10-14 15:05:23.305952,-63
2021-10-14 15:05:23.305961,-9
2021-10-14 15:05:23.305969,-56
2021-10-14 15:05:23.305977,-41
2021-10-14 15:05:23.305985,2
2021-10-14 15:05:23.305993,9
2021-10-14 15:05:23.306001,19
2021-10-14 15:05:23.306010,41
2021-10-14 15:05:23.306018,46
2021-10-14 15:05:23.306026,61
2021-10-14 15:05:23.396224,88
2021-10-14 15:05:23.396244,117
2021-10-14 15:05:23.396254,154
2021-10-14 15:05:23.396262,198
2021-10-14 15:05:23.396271,233
2021-10-14 15:05:23.396279,264
2021-10-14 15:05:23.396288,309
2021-10-14 15:05:23.396297,341
2021-10-14 15:05:23.396305,336
2021-10-14 15:05:23.396313,321
2021-10-14 15:05:23.396322,326
2021-10-14 15:05:23.396330,311
2021-10-14 15:05:23.396338,240
2021-10-14 15:05:23.396347,147
2021-10-14 15:05:23.396355,36
2021-10-14 15:05:23.396363,-73
2021-10-14 15:05:23.396372,-154
2021-10-14 15:05:23.396380,-215
2021-10-14 15:05:23.396389,-294
2021-10-14 15:05:23.396397,-333
2021-10-14 15:05:23.396406,-314
2021-10-14 15:05:23.396414,-314
2021-10-14 15:05:23.396423,-326
2021-10-14 15:05:23.396431,-314
2021-10-14 15:05:23.396440,-333
2021-10-14 15:05:23.396448,-343
2021-10-14 15:05:23.396457,-309
2021-10-14 15:05:23.396465,-311
2021-10-14 15:05:23.396473,-338
2021-10-14 15:05:23.396482,-338
2021-10-14 15:05:23.667426,-331
2021-10-14 15:05:23.667447,-328
2021-10-14 15:05:23.667457,-328
2021-10-14 15:05:23.667466,-331
2021-10-14 15:05:23.667475,-326
2021-10-14 15:05:23.667484,-323
2021-10-14 15:05:23.667493,-343
2021-10-14 15:05:23.667501,-358
2021-10-14 15:05:23.667510,-343
2021-10-14 15:05:23.667519,-336
2021-10-14 15:05:23.667528,-350
2021-10-14 15:05:23.667536,-370
2021-10-14 15:05:23.667545,-368
2021-10-14 15:05:23.667554,-343
2021-10-14 15:05:23.667562,-338
2021-10-14 15:05:23.667571,-365
2021-10-14 15:05:23.667580,-372
2021-10-14 15:05:23.667589,-363
2021-10-14 15:05:23.667598,-372
2021-10-14 15:05:23.667606,-375
2021-10-14 15:05:23.667615,-370
2021-10-14 15:05:23.667623,-375
2021-10-14 15:05:23.667632,-341
2021-10-14 15:05:23.667641,-301
2021-10-14 15:05:23.667649,-309
2021-10-14 15:05:23.667658,-304
2021-10-14 15:05:23.667666,-291
2021-10-14 15:05:23.667675,-309
2021-10-14 15:05:23.667684,-341
2021-10-14 15:05:23.667692,-353
2021-10-14 15:05:23.802425,-328
2021-10-14 15:05:23.802448,-318
2021-10-14 15:05:23.802457,-343
2021-10-14 15:05:23.802466,-343
2021-10-14 15:05:23.802475,-333
2021-10-14 15:05:23.802483,-343
2021-10-14 15:05:23.802492,-318
2021-10-14 15:05:23.802500,-181
2021-10-14 15:05:23.802509,149
2021-10-14 15:05:23.802517,556
2021-10-14 15:05:23.802526,493
2021-10-14 15:05:23.802534,-301
2021-10-14 15:05:23.802543,-829
2021-10-14 15:05:23.802551,-419
2021-10-14 15:05:23.802560,-100
2021-10-14 15:05:23.802568,-289
2021-10-14 15:05:23.802577,-299
2021-10-14 15:05:23.802585,-191
2021-10-14 15:05:23.802593,-225
2021-10-14 15:05:23.802601,-220
2021-10-14 15:05:23.802610,-164
2021-10-14 15:05:23.802618,-166
2021-10-14 15:05:23.802627,-161
2021-10-14 15:05:23.802635,-125
2021-10-14 15:05:23.802643,-103
2021-10-14 15:05:23.802652,-78
2021-10-14 15:05:23.802660,-39
2021-10-14 15:05:23.802669,-7
2021-10-14 15:05:23.802677,26
2021-10-14 15:05:23.802685,80
2021-10-14 15:05:24.071760,134
2021-10-14 15:05:24.071781,179
2021-10-14 15:05:24.071791,223
2021-10-14 15:05:24.071799,260
2021-10-14 15:05:24.071808,269
2021-10-14 15:05:24.071816,264
2021-10-14 15:05:24.071825,262
2021-10-14 15:05:24.071833,240
2021-10-14 15:05:24.071899,193
2021-10-14 15:05:24.071909,122
2021-10-14 15:05:24.071917,19
2021-10-14 15:05:24.071926,-90
2021-10-14 15:05:24.071934,-188
2021-10-14 15:05:24.071943,-272
2021-10-14 15:05:24.071951,-321
2021-10-14 15:05:24.071960,-350
2021-10-14 15:05:24.071969,-380
2021-10-14 15:05:24.071977,-380
2021-10-14 15:05:24.071985,-363
2021-10-14 15:05:24.071994,-355
2021-10-14 15:05:24.072002,-348
2021-10-14 15:05:24.072011,-338
2021-10-14 15:05:24.072019,-331
2021-10-14 15:05:24.072027,-328
2021-10-14 15:05:24.072036,-331
2021-10-14 15:05:24.072044,-311
2021-10-14 15:05:24.072053,-277
2021-10-14 15:05:24.072061,-277
2021-10-14 15:05:24.072069,-287
2021-10-14 15:05:24.072078,-279
2021-10-14 15:05:24.386746,-264
2021-10-14 15:05:24.386767,-252
2021-10-14 15:05:24.386776,-250
2021-10-14 15:05:24.386785,-257
2021-10-14 15:05:24.386793,-264
2021-10-14 15:05:24.386802,-267
2021-10-14 15:05:24.386810,-252
2021-10-14 15:05:24.386819,-235
2021-10-14 15:05:24.386827,-240
2021-10-14 15:05:24.386835,-250
2021-10-14 15:05:24.386844,-252
2021-10-14 15:05:24.386852,-238
2021-10-14 15:05:24.386861,-220
2021-10-14 15:05:24.386869,-223
2021-10-14 15:05:24.386877,-238
2021-10-14 15:05:24.386886,-225
2021-10-14 15:05:24.386894,-211
2021-10-14 15:05:24.386902,-220
2021-10-14 15:05:24.386911,-206
2021-10-14 15:05:24.386919,-144
2021-10-14 15:05:24.386928,-110
2021-10-14 15:05:24.386936,-127
2021-10-14 15:05:24.386944,-120
2021-10-14 15:05:24.386953,-103
2021-10-14 15:05:24.386961,-137
2021-10-14 15:05:24.386969,-159
2021-10-14 15:05:24.386978,-132
2021-10-14 15:05:24.386986,-120
2021-10-14 15:05:24.386995,-142
2021-10-14 15:05:24.387003,-161
2021-10-14 15:05:24.611376,-147
2021-10-14 15:05:24.611398,-115
2021-10-14 15:05:24.611408,-103
2021-10-14 15:05:24.611417,-90
2021-10-14 15:05:24.611425,12
2021-10-14 15:05:24.611434,309
2021-10-14 15:05:24.611442,701
2021-10-14 15:05:24.611451,714
2021-10-14 15:05:24.611459,24
2021-10-14 15:05:24.611468,-537
2021-10-14 15:05:24.611476,-240
2021-10-14 15:05:24.611485,61
2021-10-14 15:05:24.611493,-112
2021-10-14 15:05:24.611501,-152
2021-10-14 15:05:24.611510,-31
2021-10-14 15:05:24.611518,-36
2021-10-14 15:05:24.611527,-58
2021-10-14 15:05:24.611535,-24
2021-10-14 15:05:24.611544,-9
2021-10-14 15:05:24.611552,-2
2021-10-14 15:05:24.611560,34
2021-10-14 15:05:24.611569,44
2021-10-14 15:05:24.611577,31
2021-10-14 15:05:24.611586,73
2021-10-14 15:05:24.611594,127
2021-10-14 15:05:24.611602,144
2021-10-14 15:05:24.611611,159
2021-10-14 15:05:24.611619,198
2021-10-14 15:05:24.611628,252
2021-10-14 15:05:24.611636,306
2021-10-14 15:05:24.837367,338
2021-10-14 15:05:24.837387,355
