Time,ECG
2021-10-14 14:34:47.374212,29
2021-10-14 14:34:47.374231,63
2021-10-14 14:34:47.374241,49
2021-10-14 14:34:47.374249,66
2021-10-14 14:34:47.374258,105
2021-10-14 14:34:47.374267,122
2021-10-14 14:34:47.374275,132
2021-10-14 14:34:47.374284,152
2021-10-14 14:34:47.374293,169
2021-10-14 14:34:47.374301,191
2021-10-14 14:34:47.374310,228
2021-10-14 14:34:47.374318,267
2021-10-14 14:34:47.374327,299
2021-10-14 14:34:47.374335,323
2021-10-14 14:34:47.374344,341
2021-10-14 14:34:47.374352,355
2021-10-14 14:34:47.374360,375
2021-10-14 14:34:47.374369,377
2021-10-14 14:34:47.374378,365
2021-10-14 14:34:47.374386,350
2021-10-14 14:34:47.374394,314
2021-10-14 14:34:47.374402,242
2021-10-14 14:34:47.374411,157
2021-10-14 14:34:47.374419,71
2021-10-14 14:34:47.374428,-4
2021-10-14 14:34:47.374436,-68
2021-10-14 14:34:47.374445,-115
2021-10-14 14:34:47.374453,-147
2021-10-14 14:34:47.374462,-164
2021-10-14 14:34:47.374470,-171
2021-10-14 14:34:47.416194,-181
2021-10-14 14:34:47.416213,-186
2021-10-14 14:34:47.416222,-169
2021-10-14 14:34:47.416231,-154
2021-10-14 14:34:47.416239,-152
2021-10-14 14:34:47.416248,-139
2021-10-14 14:34:47.416257,-125
2021-10-14 14:34:47.416266,-130
2021-10-14 14:34:47.416274,-139
2021-10-14 14:34:47.416282,-130
2021-10-14 14:34:47.416291,-112
2021-10-14 14:34:47.416299,-105
2021-10-14 14:34:47.416307,-107
2021-10-14 14:34:47.416316,-120
2021-10-14 14:34:47.416324,-125
2021-10-14 14:34:47.416333,-115
2021-10-14 14:34:47.416341,-107
2021-10-14 14:34:47.416350,-105
2021-10-14 14:34:47.416358,-105
2021-10-14 14:34:47.416367,-115
2021-10-14 14:34:47.416375,-120
2021-10-14 14:34:47.416383,-107
2021-10-14 14:34:47.416392,-103
2021-10-14 14:34:47.416400,-120
2021-10-14 14:34:47.416409,-142
2021-10-14 14:34:47.416417,-144
2021-10-14 14:34:47.416425,-142
2021-10-14 14:34:47.416434,-147
2021-10-14 14:34:47.416442,-144
2021-10-14 14:34:47.416452,-134
2021-10-14 14:34:47.597514,-122
2021-10-14 14:34:47.597533,-117
2021-10-14 14:34:47.597543,-132
2021-10-14 14:34:47.597551,-147
2021-10-14 14:34:47.597560,-134
2021-10-14 14:34:47.597569,-120
2021-10-14 14:34:47.597577,-127
2021-10-14 14:34:47.597585,-130
2021-10-14 14:34:47.597594,-120
2021-10-14 14:34:47.597602,-112
2021-10-14 14:34:47.597610,-107
2021-10-14 14:34:47.597619,-103
2021-10-14 14:34:47.597627,-107
2021-10-14 14:34:47.597639,-107
2021-10-14 14:34:47.597648,-98
2021-10-14 14:34:47.597656,-93
2021-10-14 14:34:47.597664,-95
2021-10-14 14:34:47.597673,-98
2021-10-14 14:34:47.597681,-78
2021-10-14 14:34:47.597690,-41
2021-10-14 14:34:47.597698,-22
2021-10-14 14:34:47.597706,-24
2021-10-14 14:34:47.597715,-22
2021-10-14 14:34:47.597723,-29
2021-10-14 14:34:47.597731,-46
2021-10-14 14:34:47.597739,-53
2021-10-14 14:34:47.597748,-51
2021-10-14 14:34:47.597756,-44
2021-10-14 14:34:47.597764,-31
2021-10-14 14:34:47.597775,-24
2021-10-14 14:34:47.822171,-29
2021-10-14 14:34:47.822191,-31
2021-10-14 14:34:47.822200,-4
2021-10-14 14:34:47.822209,105
2021-10-14 14:34:47.822218,382
2021-10-14 14:34:47.822226,743
2021-10-14 14:34:47.822235,809
2021-10-14 14:34:47.822244,203
2021-10-14 14:34:47.822252,-483
2021-10-14 14:34:47.822261,-311
2021-10-14 14:34:47.822270,105
2021-10-14 14:34:47.822278,14
2021-10-14 14:34:47.822287,-71
2021-10-14 14:34:47.822295,44
2021-10-14 14:34:47.822304,44
2021-10-14 14:34:47.822312,2
2021-10-14 14:34:47.822321,41
2021-10-14 14:34:47.822332,68
2021-10-14 14:34:47.822341,71
2021-10-14 14:34:47.822349,98
2021-10-14 14:34:47.822358,130
2021-10-14 14:34:47.822367,144
2021-10-14 14:34:47.822375,161
2021-10-14 14:34:47.822384,184
2021-10-14 14:34:47.822392,208
2021-10-14 14:34:47.822401,240
2021-10-14 14:34:47.822410,269
2021-10-14 14:34:47.822418,306
2021-10-14 14:34:47.822427,350
2021-10-14 14:34:47.822435,375
2021-10-14 14:34:48.047614,380
2021-10-14 14:34:48.047634,395
2021-10-14 14:34:48.047644,414
2021-10-14 14:34:48.047653,414
2021-10-14 14:34:48.047661,390
2021-10-14 14:34:48.047670,355
2021-10-14 14:34:48.047678,299
2021-10-14 14:34:48.047690,213
2021-10-14 14:34:48.047699,117
2021-10-14 14:34:48.047708,26
2021-10-14 14:34:48.047716,-53
2021-10-14 14:34:48.047725,-120
2021-10-14 14:34:48.047733,-154
2021-10-14 14:34:48.047741,-174
2021-10-14 14:34:48.047750,-191
2021-10-14 14:34:48.047759,-198
2021-10-14 14:34:48.047767,-193
2021-10-14 14:34:48.047776,-186
2021-10-14 14:34:48.047784,-171
2021-10-14 14:34:48.047793,-157
2021-10-14 14:34:48.047801,-147
2021-10-14 14:34:48.047810,-137
2021-10-14 14:34:48.047818,-127
2021-10-14 14:34:48.047827,-125
2021-10-14 14:34:48.047835,-125
2021-10-14 14:34:48.047844,-115
2021-10-14 14:34:48.047852,-105
2021-10-14 14:34:48.047860,-100
2021-10-14 14:34:48.047869,-105
2021-10-14 14:34:48.047878,-107
2021-10-14 14:34:48.272619,-100
2021-10-14 14:34:48.272638,-103
2021-10-14 14:34:48.272646,-112
2021-10-14 14:34:48.272653,-115
2021-10-14 14:34:48.272659,-122
2021-10-14 14:34:48.272666,-122
2021-10-14 14:34:48.272672,-110
2021-10-14 14:34:48.272679,-105
2021-10-14 14:34:48.272686,-115
2021-10-14 14:34:48.272692,-130
2021-10-14 14:34:48.272699,-130
2021-10-14 14:34:48.272706,-120
2021-10-14 14:34:48.272712,-112
2021-10-14 14:34:48.272719,-112
2021-10-14 14:34:48.272726,-110
2021-10-14 14:34:48.272733,-103
2021-10-14 14:34:48.272740,-100
2021-10-14 14:34:48.272746,-93
2021-10-14 14:34:48.272753,-80
2021-10-14 14:34:48.272760,-73
2021-10-14 14:34:48.272766,-71
2021-10-14 14:34:48.272773,-76
2021-10-14 14:34:48.272780,-83
2021-10-14 14:34:48.272786,-78
2021-10-14 14:34:48.272796,-53
2021-10-14 14:34:48.272803,-17
2021-10-14 14:34:48.272810,2
2021-10-14 14:34:48.272817,2
2021-10-14 14:34:48.272823,7
2021-10-14 14:34:48.272830,12
2021-10-14 14:34:48.542312,7
2021-10-14 14:34:48.542337,-2
2021-10-14 14:34:48.542348,-12
2021-10-14 14:34:48.542357,-24
2021-10-14 14:34:48.542365,-24
2021-10-14 14:34:48.542373,-19
2021-10-14 14:34:48.542380,-29
2021-10-14 14:34:48.542388,-31
2021-10-14 14:34:48.542396,-22
2021-10-14 14:34:48.542403,7
2021-10-14 14:34:48.542411,164
2021-10-14 14:34:48.542419,522
2021-10-14 14:34:48.542426,885
2021-10-14 14:34:48.542434,765
2021-10-14 14:34:48.542442,2
2021-10-14 14:34:48.542450,-463
2021-10-14 14:34:48.542458,-95
2021-10-14 14:34:48.542466,139
2021-10-14 14:34:48.542474,-36
2021-10-14 14:34:48.542482,-22
2021-10-14 14:34:48.542490,68
2021-10-14 14:34:48.542497,19
2021-10-14 14:34:48.542507,22
2021-10-14 14:34:48.542514,80
2021-10-14 14:34:48.542522,85
2021-10-14 14:34:48.542529,85
2021-10-14 14:34:48.542537,115
2021-10-14 14:34:48.542545,127
2021-10-14 14:34:48.542552,144
2021-10-14 14:34:48.542560,179
2021-10-14 14:34:48.812590,206
2021-10-14 14:34:48.812610,230
2021-10-14 14:34:48.812619,257
2021-10-14 14:34:48.812628,284
2021-10-14 14:34:48.812637,318
2021-10-14 14:34:48.812646,360
2021-10-14 14:34:48.812654,392
2021-10-14 14:34:48.812663,419
2021-10-14 14:34:48.812671,426
2021-10-14 14:34:48.812680,414
2021-10-14 14:34:48.812688,402
2021-10-14 14:34:48.812697,392
2021-10-14 14:34:48.812705,353
2021-10-14 14:34:48.812714,267
2021-10-14 14:34:48.812722,166
2021-10-14 14:34:48.812730,73
2021-10-14 14:34:48.812739,-2
2021-10-14 14:34:48.812747,-63
2021-10-14 14:34:48.812756,-115
2021-10-14 14:34:48.812764,-149
2021-10-14 14:34:48.812773,-166
2021-10-14 14:34:48.812781,-174
2021-10-14 14:34:48.812790,-169
2021-10-14 14:34:48.812798,-154
2021-10-14 14:34:48.812811,-149
2021-10-14 14:34:48.812819,-144
2021-10-14 14:34:48.812828,-137
2021-10-14 14:34:48.812836,-132
2021-10-14 14:34:48.812845,-125
2021-10-14 14:34:48.812853,-112
2021-10-14 14:34:48.992614,-105
2021-10-14 14:34:48.992635,-107
2021-10-14 14:34:48.992645,-107
2021-10-14 14:34:48.992653,-105
2021-10-14 14:34:48.992662,-100
2021-10-14 14:34:48.992670,-93
2021-10-14 14:34:48.992679,-93
2021-10-14 14:34:48.992687,-103
2021-10-14 14:34:48.992696,-120
2021-10-14 14:34:48.992704,-127
2021-10-14 14:34:48.992712,-120
2021-10-14 14:34:48.992721,-130
2021-10-14 14:34:48.992729,-137
2021-10-14 14:34:48.992737,-127
2021-10-14 14:34:48.992746,-132
2021-10-14 14:34:48.992754,-142
2021-10-14 14:34:48.992763,-134
2021-10-14 14:34:48.992771,-125
2021-10-14 14:34:48.992779,-122
2021-10-14 14:34:48.992788,-117
2021-10-14 14:34:48.992796,-120
2021-10-14 14:34:48.992805,-125
2021-10-14 14:34:48.992813,-120
2021-10-14 14:34:48.992822,-110
2021-10-14 14:34:48.992830,-103
2021-10-14 14:34:48.992838,-98
2021-10-14 14:34:48.992847,-98
2021-10-14 14:34:48.992855,-90
2021-10-14 14:34:48.992864,-80
2021-10-14 14:34:48.992872,-83
2021-10-14 14:34:49.217579,-93
2021-10-14 14:34:49.217599,-85
2021-10-14 14:34:49.217608,-58
2021-10-14 14:34:49.217617,-26
2021-10-14 14:34:49.217625,-2
2021-10-14 14:34:49.217634,4
2021-10-14 14:34:49.217642,-4
2021-10-14 14:34:49.217651,-29
2021-10-14 14:34:49.217659,-46
2021-10-14 14:34:49.217668,-46
2021-10-14 14:34:49.217676,-39
2021-10-14 14:34:49.217685,-29
2021-10-14 14:34:49.217693,-26
2021-10-14 14:34:49.217701,-34
2021-10-14 14:34:49.217710,-41
2021-10-14 14:34:49.217718,-41
2021-10-14 14:34:49.217726,-12
2021-10-14 14:34:49.217735,120
2021-10-14 14:34:49.217743,439
2021-10-14 14:34:49.217752,824
2021-10-14 14:34:49.217760,866
2021-10-14 14:34:49.217769,213
2021-10-14 14:34:49.217777,-429
2021-10-14 14:34:49.217786,-215
2021-10-14 14:34:49.217794,125
2021-10-14 14:34:49.217802,-7
2021-10-14 14:34:49.217811,-53
2021-10-14 14:34:49.217819,56
2021-10-14 14:34:49.217828,31
2021-10-14 14:34:49.217836,4
2021-10-14 14:34:49.486227,58
2021-10-14 14:34:49.486259,76
2021-10-14 14:34:49.486268,71
2021-10-14 14:34:49.486277,90
2021-10-14 14:34:49.486286,115
2021-10-14 14:34:49.486294,127
2021-10-14 14:34:49.486303,137
2021-10-14 14:34:49.486311,157
2021-10-14 14:34:49.486319,186
2021-10-14 14:34:49.486328,218
2021-10-14 14:34:49.486340,247
2021-10-14 14:34:49.486349,284
2021-10-14 14:34:49.486357,311
2021-10-14 14:34:49.486366,328
2021-10-14 14:34:49.486374,355
2021-10-14 14:34:49.486383,377
2021-10-14 14:34:49.486391,377
2021-10-14 14:34:49.486399,363
2021-10-14 14:34:49.486408,343
2021-10-14 14:34:49.486416,311
2021-10-14 14:34:49.486424,257
2021-10-14 14:34:49.486433,179
2021-10-14 14:34:49.486441,83
2021-10-14 14:34:49.486449,-7
2021-10-14 14:34:49.486458,-73
2021-10-14 14:34:49.486466,-125
2021-10-14 14:34:49.486474,-161
2021-10-14 14:34:49.486483,-181
2021-10-14 14:34:49.486491,-191
2021-10-14 14:34:49.486499,-188
2021-10-14 14:34:49.667255,-184
2021-10-14 14:34:49.667275,-184
2021-10-14 14:34:49.667285,-174
2021-10-14 14:34:49.667293,-159
2021-10-14 14:34:49.667302,-149
2021-10-14 14:34:49.667310,-154
2021-10-14 14:34:49.667319,-159
2021-10-14 14:34:49.667327,-147
2021-10-14 14:34:49.667337,-132
2021-10-14 14:34:49.667345,-127
2021-10-14 14:34:49.667354,-130
2021-10-14 14:34:49.667363,-134
2021-10-14 14:34:49.667371,-137
2021-10-14 14:34:49.667380,-132
2021-10-14 14:34:49.667388,-132
2021-10-14 14:34:49.667397,-137
2021-10-14 14:34:49.667405,-130
2021-10-14 14:34:49.667414,-127
2021-10-14 14:34:49.667422,-142
2021-10-14 14:34:49.667430,-142
2021-10-14 14:34:49.667439,-142
2021-10-14 14:34:49.667447,-161
2021-10-14 14:34:49.667456,-164
2021-10-14 14:34:49.667464,-157
2021-10-14 14:34:49.667473,-154
2021-10-14 14:34:49.667485,-149
2021-10-14 14:34:49.667494,-144
2021-10-14 14:34:49.667502,-139
2021-10-14 14:34:49.667511,-137
2021-10-14 14:34:49.667519,-139
2021-10-14 14:34:49.892539,-134
2021-10-14 14:34:49.892559,-125
2021-10-14 14:34:49.892568,-122
2021-10-14 14:34:49.892577,-125
2021-10-14 14:34:49.892586,-132
2021-10-14 14:34:49.892594,-137
2021-10-14 14:34:49.892603,-107
2021-10-14 14:34:49.892611,-61
2021-10-14 14:34:49.892619,-51
2021-10-14 14:34:49.892628,-63
2021-10-14 14:34:49.892636,-66
2021-10-14 14:34:49.892645,-76
2021-10-14 14:34:49.892653,-93
2021-10-14 14:34:49.892661,-90
2021-10-14 14:34:49.892670,-83
2021-10-14 14:34:49.892678,-83
2021-10-14 14:34:49.892686,-78
2021-10-14 14:34:49.892695,-71
2021-10-14 14:34:49.892703,-68
2021-10-14 14:34:49.892711,-68
2021-10-14 14:34:49.892720,-31
2021-10-14 14:34:49.892728,149
2021-10-14 14:34:49.892737,505
2021-10-14 14:34:49.892745,826
2021-10-14 14:34:49.892753,672
2021-10-14 14:34:49.892762,-100
2021-10-14 14:34:49.892770,-569
2021-10-14 14:34:49.892779,-169
2021-10-14 14:34:49.892787,107
2021-10-14 14:34:49.892795,-68
2021-10-14 14:34:50.117582,-66
2021-10-14 14:34:50.117603,39
2021-10-14 14:34:50.117613,-2
2021-10-14 14:34:50.117622,-12
2021-10-14 14:34:50.117630,34
2021-10-14 14:34:50.117639,36
2021-10-14 14:34:50.117647,41
2021-10-14 14:34:50.117656,73
2021-10-14 14:34:50.117664,90
2021-10-14 14:34:50.117672,105
2021-10-14 14:34:50.117681,127
2021-10-14 14:34:50.117689,157
2021-10-14 14:34:50.117698,191
2021-10-14 14:34:50.117706,218
2021-10-14 14:34:50.117714,242
2021-10-14 14:34:50.117723,279
2021-10-14 14:34:50.117735,316
2021-10-14 14:34:50.117743,345
2021-10-14 14:34:50.117752,372
2021-10-14 14:34:50.117760,395
2021-10-14 14:34:50.117769,399
2021-10-14 14:34:50.117777,385
2021-10-14 14:34:50.117785,358
2021-10-14 14:34:50.117793,316
2021-10-14 14:34:50.117802,255
2021-10-14 14:34:50.117810,157
2021-10-14 14:34:50.117819,44
2021-10-14 14:34:50.117827,-41
2021-10-14 14:34:50.117836,-107
2021-10-14 14:34:50.117844,-161
2021-10-14 14:34:50.387152,-196
2021-10-14 14:34:50.387172,-213
2021-10-14 14:34:50.387182,-215
2021-10-14 14:34:50.387190,-223
2021-10-14 14:34:50.387198,-228
2021-10-14 14:34:50.387207,-218
2021-10-14 14:34:50.387215,-201
2021-10-14 14:34:50.387223,-188
2021-10-14 14:34:50.387231,-184
2021-10-14 14:34:50.387240,-184
2021-10-14 14:34:50.387248,-179
2021-10-14 14:34:50.387256,-164
2021-10-14 14:34:50.387264,-147
2021-10-14 14:34:50.387273,-142
2021-10-14 14:34:50.387281,-139
2021-10-14 14:34:50.387289,-134
2021-10-14 14:34:50.387298,-132
2021-10-14 14:34:50.387306,-125
2021-10-14 14:34:50.387314,-117
2021-10-14 14:34:50.387322,-117
2021-10-14 14:34:50.387330,-117
2021-10-14 14:34:50.387338,-117
2021-10-14 14:34:50.387347,-115
2021-10-14 14:34:50.387355,-110
2021-10-14 14:34:50.387363,-110
2021-10-14 14:34:50.387371,-107
2021-10-14 14:34:50.387380,-105
2021-10-14 14:34:50.387388,-112
2021-10-14 14:34:50.387396,-122
2021-10-14 14:34:50.387405,-127
2021-10-14 14:34:50.612732,-117
2021-10-14 14:34:50.612753,-105
2021-10-14 14:34:50.612763,-110
2021-10-14 14:34:50.612771,-127
2021-10-14 14:34:50.612780,-127
2021-10-14 14:34:50.612788,-90
2021-10-14 14:34:50.612796,-49
2021-10-14 14:34:50.612805,-46
2021-10-14 14:34:50.612813,-61
2021-10-14 14:34:50.612822,-71
2021-10-14 14:34:50.612830,-93
2021-10-14 14:34:50.612838,-115
2021-10-14 14:34:50.612847,-112
2021-10-14 14:34:50.612859,-103
2021-10-14 14:34:50.612867,-107
2021-10-14 14:34:50.612876,-112
2021-10-14 14:34:50.612884,-103
2021-10-14 14:34:50.612892,-98
2021-10-14 14:34:50.612901,-98
2021-10-14 14:34:50.612909,-80
2021-10-14 14:34:50.612918,7
2021-10-14 14:34:50.612926,272
2021-10-14 14:34:50.612935,679
2021-10-14 14:34:50.612943,851
2021-10-14 14:34:50.612951,314
2021-10-14 14:34:50.612960,-456
2021-10-14 14:34:50.612968,-404
2021-10-14 14:34:50.612977,46
2021-10-14 14:34:50.612985,9
2021-10-14 14:34:50.612993,-110
2021-10-14 14:34:50.837252,-4
2021-10-14 14:34:50.837274,12
2021-10-14 14:34:50.837283,-29
2021-10-14 14:34:50.837292,7
2021-10-14 14:34:50.837301,34
2021-10-14 14:34:50.837310,34
2021-10-14 14:34:50.837318,61
2021-10-14 14:34:50.837326,88
2021-10-14 14:34:50.837335,88
2021-10-14 14:34:50.837343,98
2021-10-14 14:34:50.837352,137
2021-10-14 14:34:50.837360,174
2021-10-14 14:34:50.837368,201
2021-10-14 14:34:50.837377,228
2021-10-14 14:34:50.837385,257
2021-10-14 14:34:50.837394,294
2021-10-14 14:34:50.837402,336
2021-10-14 14:34:50.837410,365
2021-10-14 14:34:50.837419,380
2021-10-14 14:34:50.837427,392
2021-10-14 14:34:50.837435,385
2021-10-14 14:34:50.837444,363
2021-10-14 14:34:50.837452,333
2021-10-14 14:34:50.837460,272
2021-10-14 14:34:50.837469,184
2021-10-14 14:34:50.837477,93
2021-10-14 14:34:50.837485,4
2021-10-14 14:34:50.837494,-78
2021-10-14 14:34:50.837502,-130
2021-10-14 14:34:50.837510,-154
2021-10-14 14:34:51.069358,-179
2021-10-14 14:34:51.069384,-193
2021-10-14 14:34:51.069395,-193
2021-10-14 14:34:51.069404,-196
2021-10-14 14:34:51.069412,-201
2021-10-14 14:34:51.069421,-201
2021-10-14 14:34:51.069429,-198
2021-10-14 14:34:51.069438,-193
2021-10-14 14:34:51.069447,-179
2021-10-14 14:34:51.069455,-164
2021-10-14 14:34:51.069464,-154
2021-10-14 14:34:51.069472,-144
2021-10-14 14:34:51.069481,-139
2021-10-14 14:34:51.069489,-139
2021-10-14 14:34:51.069498,-132
2021-10-14 14:34:51.069506,-120
2021-10-14 14:34:51.069515,-117
2021-10-14 14:34:51.069526,-112
2021-10-14 14:34:51.069535,-105
2021-10-14 14:34:51.069543,-110
2021-10-14 14:34:51.069552,-117
2021-10-14 14:34:51.069560,-110
2021-10-14 14:34:51.069569,-93
2021-10-14 14:34:51.069577,-93
2021-10-14 14:34:51.069586,-98
2021-10-14 14:34:51.069594,-95
2021-10-14 14:34:51.069602,-90
2021-10-14 14:34:51.069611,-80
2021-10-14 14:34:51.069620,-73
2021-10-14 14:34:51.069628,-73
2021-10-14 14:34:51.287984,-76
2021-10-14 14:34:51.288000,-71
2021-10-14 14:34:51.288006,-66
2021-10-14 14:34:51.288010,-78
2021-10-14 14:34:51.288015,-90
2021-10-14 14:34:51.288019,-88
2021-10-14 14:34:51.288024,-93
2021-10-14 14:34:51.288028,-95
2021-10-14 14:34:51.288032,-56
2021-10-14 14:34:51.288037,-22
2021-10-14 14:34:51.288041,-17
2021-10-14 14:34:51.288054,-9
2021-10-14 14:34:51.288087,-14
2021-10-14 14:34:51.288101,-44
2021-10-14 14:34:51.288110,-63
2021-10-14 14:34:51.288118,-56
2021-10-14 14:34:51.288126,-39
2021-10-14 14:34:51.288134,-39
2021-10-14 14:34:51.288141,-41
2021-10-14 14:34:51.288149,-41
2021-10-14 14:34:51.288157,-46
2021-10-14 14:34:51.288164,-49
2021-10-14 14:34:51.288172,12
2021-10-14 14:34:51.288179,215
2021-10-14 14:34:51.288187,588
2021-10-14 14:34:51.288195,929
2021-10-14 14:34:51.288202,718
2021-10-14 14:34:51.288209,-103
2021-10-14 14:34:51.288217,-478
2021-10-14 14:34:51.288225,-66
2021-10-14 14:34:51.602728,93
2021-10-14 14:34:51.602748,-98
2021-10-14 14:34:51.602758,-53
2021-10-14 14:34:51.602766,24
2021-10-14 14:34:51.602775,-26
2021-10-14 14:34:51.602784,-29
2021-10-14 14:34:51.602792,4
2021-10-14 14:34:51.602800,2
2021-10-14 14:34:51.602809,12
2021-10-14 14:34:51.602817,39
2021-10-14 14:34:51.602825,49
2021-10-14 14:34:51.602834,53
2021-10-14 14:34:51.602842,68
2021-10-14 14:34:51.602851,98
2021-10-14 14:34:51.602859,132
2021-10-14 14:34:51.602867,166
2021-10-14 14:34:51.602876,201
2021-10-14 14:34:51.602884,235
2021-10-14 14:34:51.602892,267
2021-10-14 14:34:51.602900,301
2021-10-14 14:34:51.602909,328
2021-10-14 14:34:51.602917,341
2021-10-14 14:34:51.602926,343
2021-10-14 14:34:51.602934,341
2021-10-14 14:34:51.602942,326
2021-10-14 14:34:51.602950,287
2021-10-14 14:34:51.602959,213
2021-10-14 14:34:51.602967,122
2021-10-14 14:34:51.602975,41
2021-10-14 14:34:51.602987,-31
2021-10-14 14:34:51.737415,-103
2021-10-14 14:34:51.737436,-147
2021-10-14 14:34:51.737445,-171
2021-10-14 14:34:51.737454,-188
2021-10-14 14:34:51.737463,-196
2021-10-14 14:34:51.737471,-198
2021-10-14 14:34:51.737480,-196
2021-10-14 14:34:51.737488,-188
2021-10-14 14:34:51.737497,-181
2021-10-14 14:34:51.737505,-179
2021-10-14 14:34:51.737514,-169
2021-10-14 14:34:51.737522,-157
2021-10-14 14:34:51.737531,-149
2021-10-14 14:34:51.737539,-142
2021-10-14 14:34:51.737547,-134
2021-10-14 14:34:51.737556,-127
2021-10-14 14:34:51.737564,-125
2021-10-14 14:34:51.737573,-122
2021-10-14 14:34:51.737581,-115
2021-10-14 14:34:51.737590,-107
2021-10-14 14:34:51.737598,-105
2021-10-14 14:34:51.737607,-105
2021-10-14 14:34:51.737615,-98
2021-10-14 14:34:51.737623,-95
2021-10-14 14:34:51.737632,-93
2021-10-14 14:34:51.737640,-88
2021-10-14 14:34:51.737649,-88
2021-10-14 14:34:51.737657,-85
2021-10-14 14:34:51.737665,-80
2021-10-14 14:34:51.737674,-85
2021-10-14 14:34:51.962623,-78
2021-10-14 14:34:51.962643,-68
2021-10-14 14:34:51.962653,-73
2021-10-14 14:34:51.962661,-78
2021-10-14 14:34:51.962670,-73
2021-10-14 14:34:51.962679,-73
2021-10-14 14:34:51.962687,-73
2021-10-14 14:34:51.962696,-76
2021-10-14 14:34:51.962704,-83
2021-10-14 14:34:51.962713,-93
2021-10-14 14:34:51.962721,-85
2021-10-14 14:34:51.962730,-51
2021-10-14 14:34:51.962738,-22
2021-10-14 14:34:51.962747,-22
2021-10-14 14:34:51.962755,-29
2021-10-14 14:34:51.962764,-53
2021-10-14 14:34:51.962772,-80
2021-10-14 14:34:51.962780,-80
2021-10-14 14:34:51.962789,-66
2021-10-14 14:34:51.962797,-61
2021-10-14 14:34:51.962806,-63
2021-10-14 14:34:51.962814,-63
2021-10-14 14:34:51.962822,-56
2021-10-14 14:34:51.962831,-56
2021-10-14 14:34:51.962839,-51
2021-10-14 14:34:51.962847,31
2021-10-14 14:34:51.962856,284
2021-10-14 14:34:51.962864,667
2021-10-14 14:34:51.962872,915
2021-10-14 14:34:51.962881,537
2021-10-14 14:34:52.187582,-287
2021-10-14 14:34:52.187602,-449
2021-10-14 14:34:52.187612,9
2021-10-14 14:34:52.187621,51
2021-10-14 14:34:52.187629,-132
2021-10-14 14:34:52.187638,-56
2021-10-14 14:34:52.187646,0
2021-10-14 14:34:52.187655,-46
2021-10-14 14:34:52.187663,-29
2021-10-14 14:34:52.187671,-7
2021-10-14 14:34:52.187680,-17
2021-10-14 14:34:52.187688,0
2021-10-14 14:34:52.187697,34
2021-10-14 14:34:52.187705,51
2021-10-14 14:34:52.187713,66
2021-10-14 14:34:52.187722,85
2021-10-14 14:34:52.187730,115
2021-10-14 14:34:52.187738,152
2021-10-14 14:34:52.187747,186
2021-10-14 14:34:52.187755,220
2021-10-14 14:34:52.187766,252
2021-10-14 14:34:52.187774,284
2021-10-14 14:34:52.187782,314
2021-10-14 14:34:52.187791,328
2021-10-14 14:34:52.187799,343
2021-10-14 14:34:52.187808,355
2021-10-14 14:34:52.187816,345
2021-10-14 14:34:52.187824,316
2021-10-14 14:34:52.187833,269
2021-10-14 14:34:52.187841,201
2021-10-14 14:34:52.591875,105
2021-10-14 14:34:52.591890,12
2021-10-14 14:34:52.591896,-66
2021-10-14 14:34:52.591900,-139
2021-10-14 14:34:52.591905,-186
2021-10-14 14:34:52.591909,-208
2021-10-14 14:34:52.591914,-225
2021-10-14 14:34:52.591918,-228
2021-10-14 14:34:52.591922,-218
2021-10-14 14:34:52.591927,-220
2021-10-14 14:34:52.591931,-220
2021-10-14 14:34:52.591935,-206
2021-10-14 14:34:52.591940,-191
2021-10-14 14:34:52.591944,-186
2021-10-14 14:34:52.591949,-188
2021-10-14 14:34:52.591953,-184
2021-10-14 14:34:52.591957,-166
2021-10-14 14:34:52.591962,-159
2021-10-14 14:34:52.591966,-157
2021-10-14 14:34:52.591971,-144
2021-10-14 14:34:52.591975,-137
2021-10-14 14:34:52.591979,-157
2021-10-14 14:34:52.591984,-164
2021-10-14 14:34:52.591988,-147
2021-10-14 14:34:52.591992,-139
2021-10-14 14:34:52.591997,-142
2021-10-14 14:34:52.592001,-139
2021-10-14 14:34:52.592005,-139
2021-10-14 14:34:52.592010,-134
2021-10-14 14:34:52.592014,-125
2021-10-14 14:34:52.682583,-122
2021-10-14 14:34:52.682602,-117
2021-10-14 14:34:52.682611,-117
2021-10-14 14:34:52.682620,-125
2021-10-14 14:34:52.682629,-115
2021-10-14 14:34:52.682637,-100
2021-10-14 14:34:52.682646,-103
2021-10-14 14:34:52.682654,-103
2021-10-14 14:34:52.682662,-93
2021-10-14 14:34:52.682671,-93
2021-10-14 14:34:52.682679,-98
2021-10-14 14:34:52.682688,-98
2021-10-14 14:34:52.682696,-85
2021-10-14 14:34:52.682705,-63
2021-10-14 14:34:52.682713,-41
2021-10-14 14:34:52.682721,-39
2021-10-14 14:34:52.682734,-41
2021-10-14 14:34:52.682802,-44
2021-10-14 14:34:52.682817,-58
2021-10-14 14:34:52.682826,-83
2021-10-14 14:34:52.682835,-90
2021-10-14 14:34:52.682844,-76
2021-10-14 14:34:52.682852,-63
2021-10-14 14:34:52.682861,-71
2021-10-14 14:34:52.682869,-71
2021-10-14 14:34:52.682878,-56
2021-10-14 14:34:52.682886,-53
2021-10-14 14:34:52.682894,-26
2021-10-14 14:34:52.682903,142
2021-10-14 14:34:52.682911,498
2021-10-14 14:34:53.041652,834
2021-10-14 14:34:53.041673,691
2021-10-14 14:34:53.041683,-90
2021-10-14 14:34:53.041692,-586
2021-10-14 14:34:53.041701,-184
2021-10-14 14:34:53.041709,115
2021-10-14 14:34:53.041717,-63
2021-10-14 14:34:53.041726,-78
2021-10-14 14:34:53.041734,12
2021-10-14 14:34:53.041743,-26
2021-10-14 14:34:53.041751,-26
2021-10-14 14:34:53.041759,24
2021-10-14 14:34:53.041768,14
2021-10-14 14:34:53.041776,2
2021-10-14 14:34:53.041785,31
2021-10-14 14:34:53.041793,56
2021-10-14 14:34:53.041802,73
2021-10-14 14:34:53.041810,90
2021-10-14 14:34:53.041819,115
2021-10-14 14:34:53.041827,147
2021-10-14 14:34:53.041835,179
2021-10-14 14:34:53.041843,211
2021-10-14 14:34:53.041858,247
2021-10-14 14:34:53.041867,287
2021-10-14 14:34:53.041875,321
2021-10-14 14:34:53.041884,343
2021-10-14 14:34:53.041892,348
2021-10-14 14:34:53.041900,345
2021-10-14 14:34:53.041909,338
2021-10-14 14:34:53.041917,323
2021-10-14 14:34:53.177514,282
2021-10-14 14:34:53.177533,211
2021-10-14 14:34:53.177542,115
2021-10-14 14:34:53.177551,19
2021-10-14 14:34:53.177559,-58
2021-10-14 14:34:53.177568,-127
2021-10-14 14:34:53.177577,-188
2021-10-14 14:34:53.177585,-223
2021-10-14 14:34:53.177594,-223
2021-10-14 14:34:53.177602,-220
2021-10-14 14:34:53.177610,-223
2021-10-14 14:34:53.177619,-220
2021-10-14 14:34:53.177627,-218
2021-10-14 14:34:53.177636,-215
2021-10-14 14:34:53.177644,-201
2021-10-14 14:34:53.177653,-186
2021-10-14 14:34:53.177661,-174
2021-10-14 14:34:53.177670,-159
2021-10-14 14:34:53.177678,-139
2021-10-14 14:34:53.177687,-139
2021-10-14 14:34:53.177695,-142
2021-10-14 14:34:53.177703,-127
2021-10-14 14:34:53.177712,-115
2021-10-14 14:34:53.177720,-112
2021-10-14 14:34:53.177729,-107
2021-10-14 14:34:53.177737,-103
2021-10-14 14:34:53.177746,-98
2021-10-14 14:34:53.177754,-98
2021-10-14 14:34:53.177763,-98
2021-10-14 14:34:53.177771,-95
2021-10-14 14:34:53.492614,-90
2021-10-14 14:34:53.492633,-90
2021-10-14 14:34:53.492643,-95
2021-10-14 14:34:53.492651,-90
2021-10-14 14:34:53.492660,-78
2021-10-14 14:34:53.492669,-78
2021-10-14 14:34:53.492677,-90
2021-10-14 14:34:53.492686,-85
2021-10-14 14:34:53.492694,-85
2021-10-14 14:34:53.492702,-93
2021-10-14 14:34:53.492711,-90
2021-10-14 14:34:53.492719,-68
2021-10-14 14:34:53.492728,-34
2021-10-14 14:34:53.492736,-9
2021-10-14 14:34:53.492745,-9
2021-10-14 14:34:53.492753,-7
2021-10-14 14:34:53.492762,-7
2021-10-14 14:34:53.492771,-29
2021-10-14 14:34:53.492779,-51
2021-10-14 14:34:53.492788,-49
2021-10-14 14:34:53.492796,-41
2021-10-14 14:34:53.492805,-41
2021-10-14 14:34:53.492813,-36
2021-10-14 14:34:53.492822,-34
2021-10-14 14:34:53.492830,-41
2021-10-14 14:34:53.492839,-39
2021-10-14 14:34:53.492847,-4
2021-10-14 14:34:53.492855,115
2021-10-14 14:34:53.492864,431
2021-10-14 14:34:53.492872,846
2021-10-14 14:34:53.626533,898
2021-10-14 14:34:53.626552,223
2021-10-14 14:34:53.626562,-451
2021-10-14 14:34:53.626570,-238
2021-10-14 14:34:53.626579,125
2021-10-14 14:34:53.626587,0
2021-10-14 14:34:53.626596,-63
2021-10-14 14:34:53.626604,46
2021-10-14 14:34:53.626613,29
2021-10-14 14:34:53.626621,0
2021-10-14 14:34:53.626629,39
2021-10-14 14:34:53.626638,51
2021-10-14 14:34:53.626646,46
2021-10-14 14:34:53.626654,68
2021-10-14 14:34:53.626663,83
2021-10-14 14:34:53.626671,90
2021-10-14 14:34:53.626680,117
2021-10-14 14:34:53.626688,144
2021-10-14 14:34:53.626696,166
2021-10-14 14:34:53.626705,201
2021-10-14 14:34:53.626713,238
2021-10-14 14:34:53.626721,269
2021-10-14 14:34:53.626730,304
2021-10-14 14:34:53.626738,333
2021-10-14 14:34:53.626746,353
2021-10-14 14:34:53.626755,370
2021-10-14 14:34:53.626763,375
2021-10-14 14:34:53.626772,365
2021-10-14 14:34:53.626780,338
2021-10-14 14:34:53.626788,289
2021-10-14 14:34:53.852190,225
2021-10-14 14:34:53.852206,152
2021-10-14 14:34:53.852211,58
2021-10-14 14:34:53.852215,-31
2021-10-14 14:34:53.852220,-100
2021-10-14 14:34:53.852229,-149
2021-10-14 14:34:53.852234,-176
2021-10-14 14:34:53.852238,-186
2021-10-14 14:34:53.852242,-191
2021-10-14 14:34:53.852247,-193
2021-10-14 14:34:53.852251,-198
2021-10-14 14:34:53.852255,-201
2021-10-14 14:34:53.852260,-188
2021-10-14 14:34:53.852264,-171
2021-10-14 14:34:53.852269,-159
2021-10-14 14:34:53.852273,-154
2021-10-14 14:34:53.852277,-149
2021-10-14 14:34:53.852282,-139
2021-10-14 14:34:53.852286,-127
2021-10-14 14:34:53.852290,-117
2021-10-14 14:34:53.852295,-115
2021-10-14 14:34:53.852299,-112
2021-10-14 14:34:53.852303,-107
2021-10-14 14:34:53.852308,-100
2021-10-14 14:34:53.852312,-93
2021-10-14 14:34:53.852316,-98
2021-10-14 14:34:53.852321,-110
2021-10-14 14:34:53.852325,-105
2021-10-14 14:34:53.852329,-98
2021-10-14 14:34:53.852334,-95
2021-10-14 14:34:54.123512,-85
2021-10-14 14:34:54.123533,-78
2021-10-14 14:34:54.123543,-83
2021-10-14 14:34:54.123552,-90
2021-10-14 14:34:54.123561,-88
2021-10-14 14:34:54.123569,-78
2021-10-14 14:34:54.123578,-68
2021-10-14 14:34:54.123586,-68
2021-10-14 14:34:54.123594,-85
2021-10-14 14:34:54.123603,-103
2021-10-14 14:34:54.123611,-103
2021-10-14 14:34:54.123620,-95
2021-10-14 14:34:54.123628,-98
2021-10-14 14:34:54.123637,-98
2021-10-14 14:34:54.123645,-78
2021-10-14 14:34:54.123654,-49
2021-10-14 14:34:54.123662,-29
2021-10-14 14:34:54.123671,-24
2021-10-14 14:34:54.123679,-22
2021-10-14 14:34:54.123687,-26
2021-10-14 14:34:54.123696,-41
2021-10-14 14:34:54.123704,-56
2021-10-14 14:34:54.123713,-53
2021-10-14 14:34:54.123721,-46
2021-10-14 14:34:54.123730,-41
2021-10-14 14:34:54.123738,-26
2021-10-14 14:34:54.123746,-22
2021-10-14 14:34:54.123755,-34
2021-10-14 14:34:54.123763,-41
2021-10-14 14:34:54.123771,22
2021-10-14 14:34:54.347721,247
2021-10-14 14:34:54.347742,642
2021-10-14 14:34:54.347752,971
2021-10-14 14:34:54.347761,711
2021-10-14 14:34:54.347770,-115
2021-10-14 14:34:54.347778,-426
2021-10-14 14:34:54.347787,-4
2021-10-14 14:34:54.347796,110
2021-10-14 14:34:54.347804,-73
2021-10-14 14:34:54.347813,-17
2021-10-14 14:34:54.347821,49
2021-10-14 14:34:54.347830,-4
2021-10-14 14:34:54.347839,9
2021-10-14 14:34:54.347847,49
2021-10-14 14:34:54.347856,36
2021-10-14 14:34:54.347865,29
2021-10-14 14:34:54.347873,56
2021-10-14 14:34:54.347882,83
2021-10-14 14:34:54.347890,100
2021-10-14 14:34:54.347899,120
2021-10-14 14:34:54.347908,134
2021-10-14 14:34:54.347916,154
2021-10-14 14:34:54.347925,191
2021-10-14 14:34:54.347933,230
2021-10-14 14:34:54.347942,264
2021-10-14 14:34:54.347950,299
2021-10-14 14:34:54.347959,321
2021-10-14 14:34:54.347968,338
2021-10-14 14:34:54.347976,358
2021-10-14 14:34:54.347985,360
2021-10-14 14:34:54.572770,343
2021-10-14 14:34:54.572792,318
2021-10-14 14:34:54.572801,279
2021-10-14 14:34:54.572810,206
2021-10-14 14:34:54.572819,117
2021-10-14 14:34:54.572828,36
2021-10-14 14:34:54.572836,-39
2021-10-14 14:34:54.572845,-103
2021-10-14 14:34:54.572853,-149
2021-10-14 14:34:54.572862,-181
2021-10-14 14:34:54.572870,-193
2021-10-14 14:34:54.572879,-191
2021-10-14 14:34:54.572888,-188
2021-10-14 14:34:54.572896,-201
2021-10-14 14:34:54.572905,-220
2021-10-14 14:34:54.572914,-215
2021-10-14 14:34:54.572922,-188
2021-10-14 14:34:54.572931,-176
2021-10-14 14:34:54.572939,-174
2021-10-14 14:34:54.572948,-166
2021-10-14 14:34:54.572956,-161
2021-10-14 14:34:54.572965,-161
2021-10-14 14:34:54.572974,-154
2021-10-14 14:34:54.572983,-142
2021-10-14 14:34:54.572991,-137
2021-10-14 14:34:54.573000,-142
2021-10-14 14:34:54.573009,-139
2021-10-14 14:34:54.573017,-132
2021-10-14 14:34:54.573026,-132
2021-10-14 14:34:54.573034,-130
2021-10-14 14:34:54.797737,-120
2021-10-14 14:34:54.797766,-117
2021-10-14 14:34:54.797776,-125
2021-10-14 14:34:54.797785,-120
2021-10-14 14:34:54.797793,-110
2021-10-14 14:34:54.797802,-105
2021-10-14 14:34:54.797810,-110
2021-10-14 14:34:54.797819,-110
2021-10-14 14:34:54.797827,-103
2021-10-14 14:34:54.797835,-98
2021-10-14 14:34:54.797844,-98
2021-10-14 14:34:54.797852,-93
2021-10-14 14:34:54.797860,-88
2021-10-14 14:34:54.797869,-98
2021-10-14 14:34:54.797877,-112
2021-10-14 14:34:54.797885,-115
2021-10-14 14:34:54.797894,-93
2021-10-14 14:34:54.797902,-56
2021-10-14 14:34:54.797910,-34
2021-10-14 14:34:54.797918,-39
2021-10-14 14:34:54.797927,-44
2021-10-14 14:34:54.797935,-41
2021-10-14 14:34:54.797943,-56
2021-10-14 14:34:54.797951,-76
2021-10-14 14:34:54.797959,-76
2021-10-14 14:34:54.797968,-63
2021-10-14 14:34:54.797976,-56
2021-10-14 14:34:54.797984,-58
2021-10-14 14:34:54.797993,-51
2021-10-14 14:34:54.798001,-44
2021-10-14 14:34:55.113459,-46
2021-10-14 14:34:55.113479,0
2021-10-14 14:34:55.113488,208
2021-10-14 14:34:55.113497,581
2021-10-14 14:34:55.113506,873
2021-10-14 14:34:55.113514,618
2021-10-14 14:34:55.113522,-208
2021-10-14 14:34:55.113531,-554
2021-10-14 14:34:55.113540,-95
2021-10-14 14:34:55.113548,93
2021-10-14 14:34:55.113557,-100
2021-10-14 14:34:55.113565,-63
2021-10-14 14:34:55.113574,14
2021-10-14 14:34:55.113582,-39
2021-10-14 14:34:55.113591,-31
2021-10-14 14:34:55.113599,9
2021-10-14 14:34:55.113608,7
2021-10-14 14:34:55.113616,17
2021-10-14 14:34:55.113625,34
2021-10-14 14:34:55.113633,31
2021-10-14 14:34:55.113642,39
2021-10-14 14:34:55.113650,61
2021-10-14 14:34:55.113658,90
2021-10-14 14:34:55.113667,125
2021-10-14 14:34:55.113675,157
2021-10-14 14:34:55.113683,188
2021-10-14 14:34:55.113692,223
2021-10-14 14:34:55.113700,257
2021-10-14 14:34:55.113708,294
2021-10-14 14:34:55.113717,323
2021-10-14 14:34:55.247759,331
2021-10-14 14:34:55.247781,326
2021-10-14 14:34:55.247791,323
2021-10-14 14:34:55.247799,304
2021-10-14 14:34:55.247808,257
2021-10-14 14:34:55.247817,179
2021-10-14 14:34:55.247826,73
2021-10-14 14:34:55.247834,-19
2021-10-14 14:34:55.247843,-93
2021-10-14 14:34:55.247851,-157
2021-10-14 14:34:55.247860,-208
2021-10-14 14:34:55.247868,-240
2021-10-14 14:34:55.247876,-252
2021-10-14 14:34:55.247885,-257
2021-10-14 14:34:55.247893,-257
2021-10-14 14:34:55.247902,-250
2021-10-14 14:34:55.247910,-240
2021-10-14 14:34:55.247919,-235
2021-10-14 14:34:55.247927,-228
2021-10-14 14:34:55.247935,-208
2021-10-14 14:34:55.247944,-196
2021-10-14 14:34:55.247952,-196
2021-10-14 14:34:55.247960,-188
2021-10-14 14:34:55.247969,-176
2021-10-14 14:34:55.247977,-169
2021-10-14 14:34:55.247985,-161
2021-10-14 14:34:55.247994,-154
2021-10-14 14:34:55.248002,-154
2021-10-14 14:34:55.248010,-147
2021-10-14 14:34:55.248019,-147
2021-10-14 14:34:55.427785,-154
2021-10-14 14:34:55.427806,-154
2021-10-14 14:34:55.427815,-154
2021-10-14 14:34:55.427824,-149
2021-10-14 14:34:55.427832,-137
2021-10-14 14:34:55.427841,-132
2021-10-14 14:34:55.427850,-144
2021-10-14 14:34:55.427858,-147
2021-10-14 14:34:55.427867,-144
2021-10-14 14:34:55.427875,-144
2021-10-14 14:34:55.427883,-147
2021-10-14 14:34:55.427892,-142
2021-10-14 14:34:55.427900,-139
2021-10-14 14:34:55.427909,-142
2021-10-14 14:34:55.427917,-144
2021-10-14 14:34:55.427925,-134
2021-10-14 14:34:55.427934,-105
2021-10-14 14:34:55.427942,-83
2021-10-14 14:34:55.427951,-80
2021-10-14 14:34:55.427959,-73
2021-10-14 14:34:55.427968,-73
2021-10-14 14:34:55.427977,-98
2021-10-14 14:34:55.427985,-112
2021-10-14 14:34:55.427994,-103
2021-10-14 14:34:55.428002,-93
2021-10-14 14:34:55.428010,-98
2021-10-14 14:34:55.428019,-107
2021-10-14 14:34:55.428027,-103
2021-10-14 14:34:55.428035,-90
2021-10-14 14:34:55.428044,-88
2021-10-14 14:34:55.741395,-73
2021-10-14 14:34:55.741415,26
2021-10-14 14:34:55.741425,304
2021-10-14 14:34:55.741433,689
2021-10-14 14:34:55.741442,804
2021-10-14 14:34:55.741450,230
2021-10-14 14:34:55.741459,-505
2021-10-14 14:34:55.741467,-392
2021-10-14 14:34:55.741476,63
2021-10-14 14:34:55.741484,9
2021-10-14 14:34:55.741493,-110
2021-10-14 14:34:55.741507,-12
2021-10-14 14:34:55.741516,0
2021-10-14 14:34:55.741525,-44
2021-10-14 14:34:55.741533,4
2021-10-14 14:34:55.741542,39
2021-10-14 14:34:55.741550,31
2021-10-14 14:34:55.741559,46
2021-10-14 14:34:55.741567,66
2021-10-14 14:34:55.741576,80
2021-10-14 14:34:55.741585,98
2021-10-14 14:34:55.741593,127
2021-10-14 14:34:55.741602,159
2021-10-14 14:34:55.741610,186
2021-10-14 14:34:55.741619,215
2021-10-14 14:34:55.741627,255
2021-10-14 14:34:55.741636,291
2021-10-14 14:34:55.741645,321
2021-10-14 14:34:55.741654,348
2021-10-14 14:34:55.741662,370
2021-10-14 14:34:55.877775,385
2021-10-14 14:34:55.877797,385
2021-10-14 14:34:55.877807,370
2021-10-14 14:34:55.877815,323
2021-10-14 14:34:55.877824,238
2021-10-14 14:34:55.877833,147
2021-10-14 14:34:55.877841,71
2021-10-14 14:34:55.877850,-12
2021-10-14 14:34:55.877858,-98
2021-10-14 14:34:55.877867,-164
2021-10-14 14:34:55.877875,-206
2021-10-14 14:34:55.877883,-225
2021-10-14 14:34:55.877892,-235
2021-10-14 14:34:55.877900,-238
2021-10-14 14:34:55.877909,-230
2021-10-14 14:34:55.877918,-220
2021-10-14 14:34:55.877926,-211
2021-10-14 14:34:55.877934,-193
2021-10-14 14:34:55.877943,-181
2021-10-14 14:34:55.877951,-169
2021-10-14 14:34:55.877960,-157
2021-10-14 14:34:55.877968,-144
2021-10-14 14:34:55.877977,-137
2021-10-14 14:34:55.877985,-127
2021-10-14 14:34:55.877994,-117
2021-10-14 14:34:55.878002,-107
2021-10-14 14:34:55.878011,-103
2021-10-14 14:34:55.878019,-100
2021-10-14 14:34:55.878028,-93
2021-10-14 14:34:55.878036,-88
2021-10-14 14:34:56.149348,-85
2021-10-14 14:34:56.149395,-98
2021-10-14 14:34:56.149406,-112
2021-10-14 14:34:56.149414,-117
2021-10-14 14:34:56.149421,-112
2021-10-14 14:34:56.149427,-110
2021-10-14 14:34:56.149433,-110
2021-10-14 14:34:56.149439,-98
2021-10-14 14:34:56.149451,-93
2021-10-14 14:34:56.149467,-100
2021-10-14 14:34:56.149475,-98
2021-10-14 14:34:56.149481,-100
2021-10-14 14:34:56.149487,-115
2021-10-14 14:34:56.149493,-103
2021-10-14 14:34:56.149499,-61
2021-10-14 14:34:56.149506,-39
2021-10-14 14:34:56.149514,-41
2021-10-14 14:34:56.149520,-36
2021-10-14 14:34:56.149527,-29
2021-10-14 14:34:56.149533,-41
2021-10-14 14:34:56.149539,-61
2021-10-14 14:34:56.149546,-58
2021-10-14 14:34:56.149551,-46
2021-10-14 14:34:56.149558,-36
2021-10-14 14:34:56.149565,-34
2021-10-14 14:34:56.149571,-29
2021-10-14 14:34:56.149578,-26
2021-10-14 14:34:56.149583,-31
2021-10-14 14:34:56.149590,-7
2021-10-14 14:34:56.149597,115
2021-10-14 14:34:56.462053,429
2021-10-14 14:34:56.462084,846
2021-10-14 14:34:56.462094,934
2021-10-14 14:34:56.462102,296
2021-10-14 14:34:56.462111,-390
2021-10-14 14:34:56.462119,-213
2021-10-14 14:34:56.462128,157
2021-10-14 14:34:56.462136,29
2021-10-14 14:34:56.462144,-53
2021-10-14 14:34:56.462153,53
2021-10-14 14:34:56.462161,51
2021-10-14 14:34:56.462169,26
2021-10-14 14:34:56.462177,76
2021-10-14 14:34:56.462186,95
2021-10-14 14:34:56.462194,73
2021-10-14 14:34:56.462203,73
2021-10-14 14:34:56.462211,103
2021-10-14 14:34:56.462219,125
2021-10-14 14:34:56.462228,142
2021-10-14 14:34:56.462236,161
2021-10-14 14:34:56.462244,176
2021-10-14 14:34:56.462253,201
2021-10-14 14:34:56.462261,238
2021-10-14 14:34:56.462269,269
2021-10-14 14:34:56.462277,299
2021-10-14 14:34:56.462286,328
2021-10-14 14:34:56.462294,350
2021-10-14 14:34:56.462302,360
2021-10-14 14:34:56.462311,370
2021-10-14 14:34:56.462319,372
2021-10-14 14:34:56.597889,350
2021-10-14 14:34:56.597911,309
2021-10-14 14:34:56.597921,242
2021-10-14 14:34:56.597930,154
2021-10-14 14:34:56.597938,68
2021-10-14 14:34:56.597947,-9
2021-10-14 14:34:56.597955,-83
2021-10-14 14:34:56.597964,-144
2021-10-14 14:34:56.597972,-181
2021-10-14 14:34:56.597980,-193
2021-10-14 14:34:56.597989,-193
2021-10-14 14:34:56.597997,-188
2021-10-14 14:34:56.598006,-179
2021-10-14 14:34:56.598014,-179
2021-10-14 14:34:56.598022,-186
2021-10-14 14:34:56.598031,-181
2021-10-14 14:34:56.598039,-166
2021-10-14 14:34:56.598047,-149
2021-10-14 14:34:56.598056,-144
2021-10-14 14:34:56.598064,-154
2021-10-14 14:34:56.598072,-152
2021-10-14 14:34:56.598081,-139
2021-10-14 14:34:56.598089,-130
2021-10-14 14:34:56.598098,-122
2021-10-14 14:34:56.598106,-120
2021-10-14 14:34:56.598114,-120
2021-10-14 14:34:56.598123,-115
2021-10-14 14:34:56.598131,-105
2021-10-14 14:34:56.598139,-100
2021-10-14 14:34:56.598148,-103
2021-10-14 14:34:56.822293,-100
2021-10-14 14:34:56.822307,-93
2021-10-14 14:34:56.822312,-90
2021-10-14 14:34:56.822317,-93
2021-10-14 14:34:56.822321,-88
2021-10-14 14:34:56.822325,-80
2021-10-14 14:34:56.822330,-83
2021-10-14 14:34:56.822334,-93
2021-10-14 14:34:56.822340,-90
2021-10-14 14:34:56.822345,-80
2021-10-14 14:34:56.822349,-73
2021-10-14 14:34:56.822353,-68
2021-10-14 14:34:56.822358,-76
2021-10-14 14:34:56.822362,-93
2021-10-14 14:34:56.822366,-95
2021-10-14 14:34:56.822371,-66
2021-10-14 14:34:56.822375,-29
2021-10-14 14:34:56.822379,-12
2021-10-14 14:34:56.822384,-12
2021-10-14 14:34:56.822388,-12
2021-10-14 14:34:56.822392,-24
2021-10-14 14:34:56.822397,-49
2021-10-14 14:34:56.822401,-58
2021-10-14 14:34:56.822406,-51
2021-10-14 14:34:56.822410,-49
2021-10-14 14:34:56.822414,-46
2021-10-14 14:34:56.822419,-34
2021-10-14 14:34:56.822423,-29
2021-10-14 14:34:56.822428,-34
2021-10-14 14:34:56.822432,-31
2021-10-14 14:34:57.049269,26
2021-10-14 14:34:57.049296,228
2021-10-14 14:34:57.049305,608
2021-10-14 14:34:57.049313,961
2021-10-14 14:34:57.049321,767
2021-10-14 14:34:57.049327,-53
2021-10-14 14:34:57.049335,-458
2021-10-14 14:34:57.049342,-51
2021-10-14 14:34:57.049350,132
2021-10-14 14:34:57.049358,-58
2021-10-14 14:34:57.049365,-26
2021-10-14 14:34:57.049373,58
2021-10-14 14:34:57.049381,2
2021-10-14 14:34:57.049388,-9
2021-10-14 14:34:57.049396,19
2021-10-14 14:34:57.049405,19
2021-10-14 14:34:57.049415,31
2021-10-14 14:34:57.049424,63
2021-10-14 14:34:57.049433,76
2021-10-14 14:34:57.049442,83
2021-10-14 14:34:57.049452,105
2021-10-14 14:34:57.049463,127
2021-10-14 14:34:57.049473,139
2021-10-14 14:34:57.049483,157
2021-10-14 14:34:57.049493,196
2021-10-14 14:34:57.049500,233
2021-10-14 14:34:57.049571,262
2021-10-14 14:34:57.049615,291
2021-10-14 14:34:57.049624,321
2021-10-14 14:34:57.049629,333
2021-10-14 14:34:57.272727,323
2021-10-14 14:34:57.272747,316
2021-10-14 14:34:57.272757,306
2021-10-14 14:34:57.272766,267
2021-10-14 14:34:57.272774,196
2021-10-14 14:34:57.272783,103
2021-10-14 14:34:57.272791,7
2021-10-14 14:34:57.272800,-66
2021-10-14 14:34:57.272809,-122
2021-10-14 14:34:57.272817,-174
2021-10-14 14:34:57.272826,-208
2021-10-14 14:34:57.272834,-220
2021-10-14 14:34:57.272842,-230
2021-10-14 14:34:57.272851,-223
2021-10-14 14:34:57.272859,-213
2021-10-14 14:34:57.272868,-206
2021-10-14 14:34:57.272876,-196
2021-10-14 14:34:57.272885,-188
2021-10-14 14:34:57.272893,-184
2021-10-14 14:34:57.272901,-176
2021-10-14 14:34:57.272910,-161
2021-10-14 14:34:57.272918,-152
2021-10-14 14:34:57.272926,-147
2021-10-14 14:34:57.272935,-147
2021-10-14 14:34:57.272943,-149
2021-10-14 14:34:57.272951,-149
2021-10-14 14:34:57.272959,-142
2021-10-14 14:34:57.272968,-139
2021-10-14 14:34:57.272976,-137
2021-10-14 14:34:57.272984,-132
2021-10-14 14:34:57.497308,-125
2021-10-14 14:34:57.497328,-122
2021-10-14 14:34:57.497337,-120
2021-10-14 14:34:57.497345,-125
2021-10-14 14:34:57.497354,-139
2021-10-14 14:34:57.497362,-144
2021-10-14 14:34:57.497370,-125
2021-10-14 14:34:57.497379,-117
2021-10-14 14:34:57.497387,-130
2021-10-14 14:34:57.497395,-127
2021-10-14 14:34:57.497403,-120
2021-10-14 14:34:57.497412,-127
2021-10-14 14:34:57.497420,-122
2021-10-14 14:34:57.497429,-110
2021-10-14 14:34:57.497437,-112
2021-10-14 14:34:57.497445,-120
2021-10-14 14:34:57.497454,-112
2021-10-14 14:34:57.497462,-83
2021-10-14 14:34:57.497470,-51
2021-10-14 14:34:57.497479,-61
2021-10-14 14:34:57.497487,-73
2021-10-14 14:34:57.497495,-61
2021-10-14 14:34:57.497503,-66
2021-10-14 14:34:57.497512,-95
2021-10-14 14:34:57.497520,-105
2021-10-14 14:34:57.497528,-93
2021-10-14 14:34:57.497536,-93
2021-10-14 14:34:57.497545,-98
2021-10-14 14:34:57.497553,-85
2021-10-14 14:34:57.497561,-80
2021-10-14 14:34:57.765919,-83
2021-10-14 14:34:57.765938,-51
2021-10-14 14:34:57.765947,100
2021-10-14 14:34:57.765956,431
2021-10-14 14:34:57.765964,790
2021-10-14 14:34:57.765973,740
2021-10-14 14:34:57.765981,12
2021-10-14 14:34:57.765990,-581
2021-10-14 14:34:57.765998,-260
2021-10-14 14:34:57.766006,98
2021-10-14 14:34:57.766015,-68
2021-10-14 14:34:57.766023,-112
2021-10-14 14:34:57.766032,12
2021-10-14 14:34:57.766040,-7
2021-10-14 14:34:57.766048,-31
2021-10-14 14:34:57.766057,17
2021-10-14 14:34:57.766065,24
2021-10-14 14:34:57.766073,22
2021-10-14 14:34:57.766082,56
2021-10-14 14:34:57.766090,85
2021-10-14 14:34:57.766099,100
2021-10-14 14:34:57.766107,115
2021-10-14 14:34:57.766115,127
2021-10-14 14:34:57.766124,144
2021-10-14 14:34:57.766132,176
2021-10-14 14:34:57.766140,220
2021-10-14 14:34:57.766149,252
2021-10-14 14:34:57.766157,272
2021-10-14 14:34:57.766165,301
2021-10-14 14:34:57.766173,328
2021-10-14 14:34:57.992761,338
2021-10-14 14:34:57.992783,348
2021-10-14 14:34:57.992792,341
2021-10-14 14:34:57.992800,299
2021-10-14 14:34:57.992808,250
2021-10-14 14:34:57.992816,196
2021-10-14 14:34:57.992824,112
2021-10-14 14:34:57.992832,9
2021-10-14 14:34:57.992840,-83
2021-10-14 14:34:57.992848,-161
2021-10-14 14:34:57.992855,-215
2021-10-14 14:34:57.992863,-238
2021-10-14 14:34:57.992871,-242
2021-10-14 14:34:57.992879,-247
2021-10-14 14:34:57.992887,-262
2021-10-14 14:34:57.992895,-274
2021-10-14 14:34:57.992903,-257
2021-10-14 14:34:57.992911,-228
2021-10-14 14:34:57.992918,-211
2021-10-14 14:34:57.992926,-203
2021-10-14 14:34:57.992934,-206
2021-10-14 14:34:57.992942,-203
2021-10-14 14:34:57.992950,-184
2021-10-14 14:34:57.992966,-171
2021-10-14 14:34:57.992985,-174
2021-10-14 14:34:57.992992,-181
2021-10-14 14:34:57.993000,-179
2021-10-14 14:34:57.993008,-171
2021-10-14 14:34:57.993016,-161
2021-10-14 14:34:57.993024,-157
2021-10-14 14:34:58.217680,-164
2021-10-14 14:34:58.217708,-169
2021-10-14 14:34:58.217718,-169
2021-10-14 14:34:58.217729,-169
2021-10-14 14:34:58.217738,-169
2021-10-14 14:34:58.217746,-164
2021-10-14 14:34:58.217754,-159
2021-10-14 14:34:58.217763,-154
2021-10-14 14:34:58.217774,-157
2021-10-14 14:34:58.217783,-157
2021-10-14 14:34:58.217793,-147
2021-10-14 14:34:58.217802,-132
2021-10-14 14:34:58.217810,-130
2021-10-14 14:34:58.217818,-142
2021-10-14 14:34:58.217827,-157
2021-10-14 14:34:58.217835,-154
2021-10-14 14:34:58.217845,-120
2021-10-14 14:34:58.217854,-76
2021-10-14 14:34:58.217862,-56
2021-10-14 14:34:58.217871,-61
2021-10-14 14:34:58.217879,-71
2021-10-14 14:34:58.217887,-85
2021-10-14 14:34:58.217896,-95
2021-10-14 14:34:58.217906,-88
2021-10-14 14:34:58.217914,-76
2021-10-14 14:34:58.217922,-73
2021-10-14 14:34:58.218223,-71
2021-10-14 14:34:58.218234,-71
2021-10-14 14:34:58.218242,-73
2021-10-14 14:34:58.218249,-63
2021-10-14 14:34:58.488226,-44
2021-10-14 14:34:58.488248,22
2021-10-14 14:34:58.488257,240
2021-10-14 14:34:58.488266,615
2021-10-14 14:34:58.488275,846
2021-10-14 14:34:58.488284,449
2021-10-14 14:34:58.488292,-348
2021-10-14 14:34:58.488301,-476
2021-10-14 14:34:58.488309,0
2021-10-14 14:34:58.488317,73
2021-10-14 14:34:58.488326,-80
2021-10-14 14:34:58.488334,2
2021-10-14 14:34:58.488342,51
2021-10-14 14:34:58.488350,-4
2021-10-14 14:34:58.488359,22
2021-10-14 14:34:58.488367,68
2021-10-14 14:34:58.488376,68
2021-10-14 14:34:58.488384,76
2021-10-14 14:34:58.488392,103
2021-10-14 14:34:58.488401,115
2021-10-14 14:34:58.488409,125
2021-10-14 14:34:58.488417,157
2021-10-14 14:34:58.488426,191
2021-10-14 14:34:58.488434,213
2021-10-14 14:34:58.488442,235
2021-10-14 14:34:58.488451,264
2021-10-14 14:34:58.488459,296
2021-10-14 14:34:58.488467,323
2021-10-14 14:34:58.488476,353
2021-10-14 14:34:58.488484,370
2021-10-14 14:34:58.713963,363
2021-10-14 14:34:58.713997,350
2021-10-14 14:34:58.714010,345
2021-10-14 14:34:58.714020,316
2021-10-14 14:34:58.714031,252
2021-10-14 14:34:58.714042,164
2021-10-14 14:34:58.714052,66
2021-10-14 14:34:58.714062,-31
2021-10-14 14:34:58.714072,-115
2021-10-14 14:34:58.714082,-174
2021-10-14 14:34:58.714092,-208
2021-10-14 14:34:58.714102,-223
2021-10-14 14:34:58.714112,-230
2021-10-14 14:34:58.714122,-233
2021-10-14 14:34:58.714287,-225
2021-10-14 14:34:58.714342,-215
2021-10-14 14:34:58.714362,-203
2021-10-14 14:34:58.714371,-186
2021-10-14 14:34:58.714378,-181
2021-10-14 14:34:58.714385,-186
2021-10-14 14:34:58.714393,-176
2021-10-14 14:34:58.714402,-154
2021-10-14 14:34:58.714411,-142
2021-10-14 14:34:58.714419,-130
2021-10-14 14:34:58.714427,-122
2021-10-14 14:34:58.714437,-115
2021-10-14 14:34:58.714444,-107
2021-10-14 14:34:58.714454,-100
2021-10-14 14:34:58.714464,-95
2021-10-14 14:34:58.714474,-93
2021-10-14 14:34:58.937321,-90
2021-10-14 14:34:58.937336,-90
2021-10-14 14:34:58.937342,-88
2021-10-14 14:34:58.937347,-83
2021-10-14 14:34:58.937351,-80
2021-10-14 14:34:58.937356,-80
2021-10-14 14:34:58.937360,-78
2021-10-14 14:34:58.937364,-80
2021-10-14 14:34:58.937369,-76
2021-10-14 14:34:58.937373,-71
2021-10-14 14:34:58.937377,-63
2021-10-14 14:34:58.937382,-58
2021-10-14 14:34:58.937386,-71
2021-10-14 14:34:58.937390,-88
2021-10-14 14:34:58.937395,-88
2021-10-14 14:34:58.937399,-61
2021-10-14 14:34:58.937403,-24
2021-10-14 14:34:58.937408,-7
2021-10-14 14:34:58.937412,-12
2021-10-14 14:34:58.937416,-17
2021-10-14 14:34:58.937421,-19
2021-10-14 14:34:58.937425,-39
2021-10-14 14:34:58.937429,-44
2021-10-14 14:34:58.937434,-29
2021-10-14 14:34:58.937438,-26
2021-10-14 14:34:58.937442,-29
2021-10-14 14:34:58.937446,-22
2021-10-14 14:34:58.937451,-17
2021-10-14 14:34:58.937455,-19
2021-10-14 14:34:58.937459,-12
2021-10-14 14:34:59.208198,63
2021-10-14 14:34:59.208223,316
2021-10-14 14:34:59.208233,731
2021-10-14 14:34:59.208242,993
2021-10-14 14:34:59.208250,596
2021-10-14 14:34:59.208259,-223
2021-10-14 14:34:59.208267,-375
2021-10-14 14:34:59.208275,63
2021-10-14 14:34:59.208284,93
2021-10-14 14:34:59.208293,-76
2021-10-14 14:34:59.208301,7
2021-10-14 14:34:59.208310,51
2021-10-14 14:34:59.208318,-4
2021-10-14 14:34:59.208327,26
2021-10-14 14:34:59.208335,73
2021-10-14 14:34:59.208343,58
2021-10-14 14:34:59.208352,66
2021-10-14 14:34:59.208360,90
2021-10-14 14:34:59.208368,100
2021-10-14 14:34:59.208377,120
2021-10-14 14:34:59.208385,149
2021-10-14 14:34:59.208393,166
2021-10-14 14:34:59.208402,191
2021-10-14 14:34:59.208410,223
2021-10-14 14:34:59.208419,255
2021-10-14 14:34:59.208427,284
2021-10-14 14:34:59.208436,311
2021-10-14 14:34:59.208444,333
2021-10-14 14:34:59.208452,353
2021-10-14 14:34:59.208461,363
2021-10-14 14:34:59.387392,363
2021-10-14 14:34:59.387415,353
2021-10-14 14:34:59.387425,326
2021-10-14 14:34:59.387434,269
2021-10-14 14:34:59.387442,181
2021-10-14 14:34:59.387453,76
2021-10-14 14:34:59.387462,-12
2021-10-14 14:34:59.387471,-71
2021-10-14 14:34:59.387479,-125
2021-10-14 14:34:59.387488,-169
2021-10-14 14:34:59.387496,-191
2021-10-14 14:34:59.387505,-203
2021-10-14 14:34:59.387513,-201
2021-10-14 14:34:59.387522,-191
2021-10-14 14:34:59.387530,-186
2021-10-14 14:34:59.387539,-179
2021-10-14 14:34:59.387547,-169
2021-10-14 14:34:59.387556,-164
2021-10-14 14:34:59.387564,-157
2021-10-14 14:34:59.387573,-142
2021-10-14 14:34:59.387581,-132
2021-10-14 14:34:59.387590,-132
2021-10-14 14:34:59.387598,-134
2021-10-14 14:34:59.387607,-132
2021-10-14 14:34:59.387615,-117
2021-10-14 14:34:59.387624,-107
2021-10-14 14:34:59.387632,-110
2021-10-14 14:34:59.387640,-117
2021-10-14 14:34:59.387649,-115
2021-10-14 14:34:59.387660,-110
2021-10-14 14:34:59.567413,-105
2021-10-14 14:34:59.567436,-98
2021-10-14 14:34:59.567446,-88
2021-10-14 14:34:59.567455,-88
2021-10-14 14:34:59.567464,-90
2021-10-14 14:34:59.567473,-85
2021-10-14 14:34:59.567481,-78
2021-10-14 14:34:59.567490,-76
2021-10-14 14:34:59.567499,-73
2021-10-14 14:34:59.567507,-71
2021-10-14 14:34:59.567516,-83
2021-10-14 14:34:59.567524,-98
2021-10-14 14:34:59.567533,-103
2021-10-14 14:34:59.567542,-103
2021-10-14 14:34:59.567551,-100
2021-10-14 14:34:59.567559,-100
2021-10-14 14:34:59.567568,-107
2021-10-14 14:34:59.567577,-105
2021-10-14 14:34:59.567585,-90
2021-10-14 14:34:59.567594,-85
2021-10-14 14:34:59.567603,-93
2021-10-14 14:34:59.567611,-95
2021-10-14 14:34:59.567620,-71
2021-10-14 14:34:59.567629,-26
2021-10-14 14:34:59.567638,-2
2021-10-14 14:34:59.567647,-2
2021-10-14 14:34:59.567655,-2
2021-10-14 14:34:59.567664,-19
2021-10-14 14:34:59.567672,-36
2021-10-14 14:34:59.567681,-39
2021-10-14 14:34:59.926374,-31
2021-10-14 14:34:59.926395,-24
2021-10-14 14:34:59.926404,-22
2021-10-14 14:34:59.926413,-31
2021-10-14 14:34:59.926421,-36
2021-10-14 14:34:59.926430,-31
2021-10-14 14:34:59.926438,-19
2021-10-14 14:34:59.926447,78
2021-10-14 14:34:59.926455,353
2021-10-14 14:34:59.926463,750
2021-10-14 14:34:59.926472,952
2021-10-14 14:34:59.926480,483
2021-10-14 14:34:59.926488,-314
2021-10-14 14:34:59.926497,-353
2021-10-14 14:34:59.926505,78
2021-10-14 14:34:59.926513,41
2021-10-14 14:34:59.926522,-105
2021-10-14 14:34:59.926530,0
2021-10-14 14:34:59.926539,29
2021-10-14 14:34:59.926547,-14
2021-10-14 14:34:59.926555,19
2021-10-14 14:34:59.926564,34
2021-10-14 14:34:59.926572,14
2021-10-14 14:34:59.926580,34
2021-10-14 14:34:59.926588,61
2021-10-14 14:34:59.926597,76
2021-10-14 14:34:59.926605,95
2021-10-14 14:34:59.926613,112
2021-10-14 14:34:59.926621,139
2021-10-14 14:34:59.926630,174
2021-10-14 14:35:00.062653,208
2021-10-14 14:35:00.062668,240
2021-10-14 14:35:00.062674,267
2021-10-14 14:35:00.062678,289
2021-10-14 14:35:00.062683,318
2021-10-14 14:35:00.062687,343
2021-10-14 14:35:00.062691,353
2021-10-14 14:35:00.062696,353
2021-10-14 14:35:00.062700,341
2021-10-14 14:35:00.062705,301
2021-10-14 14:35:00.062709,250
2021-10-14 14:35:00.062713,188
2021-10-14 14:35:00.062718,110
2021-10-14 14:35:00.062722,19
2021-10-14 14:35:00.062726,-66
2021-10-14 14:35:00.062731,-139
2021-10-14 14:35:00.062735,-184
2021-10-14 14:35:00.062739,-223
2021-10-14 14:35:00.062744,-252
2021-10-14 14:35:00.062748,-252
2021-10-14 14:35:00.062753,-250
2021-10-14 14:35:00.062757,-252
2021-10-14 14:35:00.062761,-238
2021-10-14 14:35:00.062766,-220
2021-10-14 14:35:00.062770,-206
2021-10-14 14:35:00.062774,-191
2021-10-14 14:35:00.062779,-184
2021-10-14 14:35:00.062783,-181
2021-10-14 14:35:00.062788,-174
2021-10-14 14:35:00.062792,-159
2021-10-14 14:35:00.287676,-149
2021-10-14 14:35:00.287693,-149
2021-10-14 14:35:00.287699,-147
2021-10-14 14:35:00.287703,-149
2021-10-14 14:35:00.287708,-149
2021-10-14 14:35:00.287712,-137
2021-10-14 14:35:00.287716,-130
2021-10-14 14:35:00.287721,-137
2021-10-14 14:35:00.287725,-149
2021-10-14 14:35:00.287729,-149
2021-10-14 14:35:00.287734,-142
2021-10-14 14:35:00.287738,-137
2021-10-14 14:35:00.287743,-134
2021-10-14 14:35:00.287747,-134
2021-10-14 14:35:00.287752,-139
2021-10-14 14:35:00.287756,-139
2021-10-14 14:35:00.287761,-130
2021-10-14 14:35:00.287765,-122
2021-10-14 14:35:00.287770,-125
2021-10-14 14:35:00.287774,-139
2021-10-14 14:35:00.287778,-142
2021-10-14 14:35:00.287783,-127
2021-10-14 14:35:00.287787,-115
2021-10-14 14:35:00.287791,-112
2021-10-14 14:35:00.287796,-115
2021-10-14 14:35:00.287800,-117
2021-10-14 14:35:00.287805,-117
2021-10-14 14:35:00.287809,-115
2021-10-14 14:35:00.287814,-107
2021-10-14 14:35:00.287818,-76
2021-10-14 14:35:00.513759,-34
2021-10-14 14:35:00.513780,-24
2021-10-14 14:35:00.513790,-34
2021-10-14 14:35:00.513799,-41
2021-10-14 14:35:00.513808,-53
2021-10-14 14:35:00.513816,-66
2021-10-14 14:35:00.513825,-68
2021-10-14 14:35:00.513833,-71
2021-10-14 14:35:00.513842,-68
2021-10-14 14:35:00.513850,-63
2021-10-14 14:35:00.513859,-66
2021-10-14 14:35:00.513867,-68
2021-10-14 14:35:00.513876,-61
2021-10-14 14:35:00.513884,-26
2021-10-14 14:35:00.513893,130
2021-10-14 14:35:00.513901,468
2021-10-14 14:35:00.513910,804
2021-10-14 14:35:00.513919,674
2021-10-14 14:35:00.513927,-100
2021-10-14 14:35:00.513935,-596
2021-10-14 14:35:00.513944,-206
2021-10-14 14:35:00.513952,83
2021-10-14 14:35:00.513961,-98
2021-10-14 14:35:00.513969,-110
2021-10-14 14:35:00.513986,-22
2021-10-14 14:35:00.513994,-73
2021-10-14 14:35:00.514012,-85
2021-10-14 14:35:00.514021,-29
2021-10-14 14:35:00.514030,-22
2021-10-14 14:35:00.514038,-17
2021-10-14 14:35:00.737364,17
2021-10-14 14:35:00.737385,41
2021-10-14 14:35:00.737394,53
2021-10-14 14:35:00.737403,73
2021-10-14 14:35:00.737412,105
2021-10-14 14:35:00.737420,134
2021-10-14 14:35:00.737429,154
2021-10-14 14:35:00.737437,181
2021-10-14 14:35:00.737446,220
2021-10-14 14:35:00.737455,255
2021-10-14 14:35:00.737463,289
2021-10-14 14:35:00.737472,316
2021-10-14 14:35:00.737480,316
2021-10-14 14:35:00.737489,314
2021-10-14 14:35:00.737497,318
2021-10-14 14:35:00.737506,299
2021-10-14 14:35:00.737515,257
2021-10-14 14:35:00.737523,193
2021-10-14 14:35:00.737532,107
2021-10-14 14:35:00.737540,14
2021-10-14 14:35:00.737549,-76
2021-10-14 14:35:00.737557,-154
2021-10-14 14:35:00.737566,-208
2021-10-14 14:35:00.737574,-245
2021-10-14 14:35:00.737583,-267
2021-10-14 14:35:00.737591,-269
2021-10-14 14:35:00.737600,-264
2021-10-14 14:35:00.737608,-260
2021-10-14 14:35:00.737617,-242
2021-10-14 14:35:00.737625,-230
2021-10-14 14:35:00.962736,-230
2021-10-14 14:35:00.962757,-215
2021-10-14 14:35:00.962767,-196
2021-10-14 14:35:00.962775,-191
2021-10-14 14:35:00.962784,-179
2021-10-14 14:35:00.962794,-164
2021-10-14 14:35:00.962803,-164
2021-10-14 14:35:00.962811,-161
2021-10-14 14:35:00.962819,-149
2021-10-14 14:35:00.962827,-147
2021-10-14 14:35:00.962836,-147
2021-10-14 14:35:00.962844,-149
2021-10-14 14:35:00.962852,-152
2021-10-14 14:35:00.962861,-147
2021-10-14 14:35:00.962869,-139
2021-10-14 14:35:00.962877,-139
2021-10-14 14:35:00.962885,-139
2021-10-14 14:35:00.962893,-132
2021-10-14 14:35:00.962901,-132
2021-10-14 14:35:00.962910,-130
2021-10-14 14:35:00.962918,-122
2021-10-14 14:35:00.962926,-115
2021-10-14 14:35:00.962934,-110
2021-10-14 14:35:00.962943,-105
2021-10-14 14:35:00.962951,-107
2021-10-14 14:35:00.962959,-110
2021-10-14 14:35:00.962967,-107
2021-10-14 14:35:00.962975,-98
2021-10-14 14:35:00.962987,-95
2021-10-14 14:35:00.962995,-115
2021-10-14 14:35:01.231751,-125
2021-10-14 14:35:01.231773,-95
2021-10-14 14:35:01.231783,-56
2021-10-14 14:35:01.231791,-36
2021-10-14 14:35:01.231800,-31
2021-10-14 14:35:01.231809,-41
2021-10-14 14:35:01.231817,-56
2021-10-14 14:35:01.231826,-63
2021-10-14 14:35:01.231834,-68
2021-10-14 14:35:01.231843,-61
2021-10-14 14:35:01.231851,-53
2021-10-14 14:35:01.231860,-63
2021-10-14 14:35:01.231868,-63
2021-10-14 14:35:01.231877,-51
2021-10-14 14:35:01.231885,-51
2021-10-14 14:35:01.231893,-44
2021-10-14 14:35:01.231902,19
2021-10-14 14:35:01.231910,215
2021-10-14 14:35:01.231919,581
2021-10-14 14:35:01.231927,866
2021-10-14 14:35:01.231936,581
2021-10-14 14:35:01.231944,-218
2021-10-14 14:35:01.231953,-500
2021-10-14 14:35:01.231961,-46
2021-10-14 14:35:01.231969,105
2021-10-14 14:35:01.231978,-71
2021-10-14 14:35:01.231986,-24
2021-10-14 14:35:01.231995,29
2021-10-14 14:35:01.232003,-29
2021-10-14 14:35:01.232012,-9
2021-10-14 14:35:01.412274,46
2021-10-14 14:35:01.412295,46
2021-10-14 14:35:01.412304,46
2021-10-14 14:35:01.412313,76
2021-10-14 14:35:01.412322,95
2021-10-14 14:35:01.412330,105
2021-10-14 14:35:01.412339,130
2021-10-14 14:35:01.412348,161
2021-10-14 14:35:01.412356,188
2021-10-14 14:35:01.412365,218
2021-10-14 14:35:01.412373,245
2021-10-14 14:35:01.412382,274
2021-10-14 14:35:01.412390,318
2021-10-14 14:35:01.412399,355
2021-10-14 14:35:01.412407,372
2021-10-14 14:35:01.412416,377
2021-10-14 14:35:01.412424,370
2021-10-14 14:35:01.412433,360
2021-10-14 14:35:01.412442,350
2021-10-14 14:35:01.412450,306
2021-10-14 14:35:01.412458,218
2021-10-14 14:35:01.412467,122
2021-10-14 14:35:01.412476,39
2021-10-14 14:35:01.412484,-31
2021-10-14 14:35:01.412493,-88
2021-10-14 14:35:01.412501,-130
2021-10-14 14:35:01.412510,-161
2021-10-14 14:35:01.412518,-174
2021-10-14 14:35:01.412555,-179
2021-10-14 14:35:01.412565,-184
2021-10-14 14:35:01.682298,-181
2021-10-14 14:35:01.682319,-166
2021-10-14 14:35:01.682329,-154
2021-10-14 14:35:01.682337,-157
2021-10-14 14:35:01.682345,-161
2021-10-14 14:35:01.682353,-161
2021-10-14 14:35:01.682361,-154
2021-10-14 14:35:01.682369,-139
2021-10-14 14:35:01.682378,-122
2021-10-14 14:35:01.682387,-125
2021-10-14 14:35:01.682396,-134
2021-10-14 14:35:01.682404,-127
2021-10-14 14:35:01.682413,-107
2021-10-14 14:35:01.682422,-98
2021-10-14 14:35:01.682431,-100
2021-10-14 14:35:01.682440,-98
2021-10-14 14:35:01.682448,-95
2021-10-14 14:35:01.682457,-88
2021-10-14 14:35:01.682466,-83
2021-10-14 14:35:01.682474,-78
2021-10-14 14:35:01.682483,-76
2021-10-14 14:35:01.682492,-80
2021-10-14 14:35:01.682501,-78
2021-10-14 14:35:01.682510,-66
2021-10-14 14:35:01.682518,-61
2021-10-14 14:35:01.682527,-63
2021-10-14 14:35:01.682536,-63
2021-10-14 14:35:01.682545,-63
2021-10-14 14:35:01.682553,-58
2021-10-14 14:35:01.682562,-46
2021-10-14 14:35:01.951142,-41
2021-10-14 14:35:01.951164,-51
2021-10-14 14:35:01.951173,-53
2021-10-14 14:35:01.951182,-53
2021-10-14 14:35:01.951191,-61
2021-10-14 14:35:01.951199,-63
2021-10-14 14:35:01.951208,-34
2021-10-14 14:35:01.951216,7
2021-10-14 14:35:01.951225,19
2021-10-14 14:35:01.951234,7
2021-10-14 14:35:01.951242,4
2021-10-14 14:35:01.951250,9
2021-10-14 14:35:01.951259,0
2021-10-14 14:35:01.951267,-14
2021-10-14 14:35:01.951276,-29
2021-10-14 14:35:01.951300,-29
2021-10-14 14:35:01.951315,-12
2021-10-14 14:35:01.951328,-7
2021-10-14 14:35:01.951344,-17
2021-10-14 14:35:01.951363,-19
2021-10-14 14:35:01.951383,-4
2021-10-14 14:35:01.951398,76
2021-10-14 14:35:01.951406,328
2021-10-14 14:35:01.951419,733
2021-10-14 14:35:01.951438,961
2021-10-14 14:35:01.951454,522
2021-10-14 14:35:01.951473,-291
2021-10-14 14:35:01.951489,-387
2021-10-14 14:35:01.951498,58
2021-10-14 14:35:01.951506,63
2021-10-14 14:35:02.132755,-93
2021-10-14 14:35:02.132775,4
2021-10-14 14:35:02.132784,44
2021-10-14 14:35:02.132793,-17
2021-10-14 14:35:02.132801,4
2021-10-14 14:35:02.132810,44
2021-10-14 14:35:02.132819,44
2021-10-14 14:35:02.132827,56
2021-10-14 14:35:02.132836,66
2021-10-14 14:35:02.132844,71
2021-10-14 14:35:02.132853,98
2021-10-14 14:35:02.132861,120
2021-10-14 14:35:02.132870,134
2021-10-14 14:35:02.132878,164
2021-10-14 14:35:02.132887,193
2021-10-14 14:35:02.132895,218
2021-10-14 14:35:02.132904,260
2021-10-14 14:35:02.132913,301
2021-10-14 14:35:02.132921,323
2021-10-14 14:35:02.132929,341
2021-10-14 14:35:02.132938,348
2021-10-14 14:35:02.132949,343
2021-10-14 14:35:02.132958,338
2021-10-14 14:35:02.132966,321
2021-10-14 14:35:02.132974,274
2021-10-14 14:35:02.132983,201
2021-10-14 14:35:02.132992,115
2021-10-14 14:35:02.133000,36
2021-10-14 14:35:02.133009,-31
2021-10-14 14:35:02.133017,-88
2021-10-14 14:35:02.402814,-127
2021-10-14 14:35:02.402835,-149
2021-10-14 14:35:02.402844,-164
2021-10-14 14:35:02.402852,-174
2021-10-14 14:35:02.402859,-174
2021-10-14 14:35:02.402867,-171
2021-10-14 14:35:02.402875,-169
2021-10-14 14:35:02.402905,-164
2021-10-14 14:35:02.402924,-157
2021-10-14 14:35:02.402933,-149
2021-10-14 14:35:02.402941,-137
2021-10-14 14:35:02.402949,-122
2021-10-14 14:35:02.402957,-117
2021-10-14 14:35:02.402964,-122
2021-10-14 14:35:02.402972,-122
2021-10-14 14:35:02.402980,-115
2021-10-14 14:35:02.402988,-107
2021-10-14 14:35:02.402996,-103
2021-10-14 14:35:02.403004,-100
2021-10-14 14:35:02.403012,-100
2021-10-14 14:35:02.403020,-100
2021-10-14 14:35:02.403028,-93
2021-10-14 14:35:02.403036,-88
2021-10-14 14:35:02.403044,-85
2021-10-14 14:35:02.403052,-83
2021-10-14 14:35:02.403060,-83
2021-10-14 14:35:02.403068,-78
2021-10-14 14:35:02.403076,-73
2021-10-14 14:35:02.403084,-73
2021-10-14 14:35:02.403092,-73
2021-10-14 14:35:02.583174,-68
2021-10-14 14:35:02.583212,-63
2021-10-14 14:35:02.583228,-66
2021-10-14 14:35:02.583244,-66
2021-10-14 14:35:02.583257,-56
2021-10-14 14:35:02.583290,-46
2021-10-14 14:35:02.583306,-49
2021-10-14 14:35:02.583321,-51
2021-10-14 14:35:02.583336,-56
2021-10-14 14:35:02.583350,-61
2021-10-14 14:35:02.583366,-61
2021-10-14 14:35:02.583382,-58
2021-10-14 14:35:02.583395,-39
2021-10-14 14:35:02.583404,-4
2021-10-14 14:35:02.583416,14
2021-10-14 14:35:02.583428,2
2021-10-14 14:35:02.583438,-22
2021-10-14 14:35:02.583450,-41
2021-10-14 14:35:02.583460,-61
2021-10-14 14:35:02.583470,-73
2021-10-14 14:35:02.583478,-68
2021-10-14 14:35:02.583489,-58
2021-10-14 14:35:02.583501,-61
2021-10-14 14:35:02.583510,-63
2021-10-14 14:35:02.583518,-66
2021-10-14 14:35:02.583527,-78
2021-10-14 14:35:02.583535,-63
2021-10-14 14:35:02.583543,61
2021-10-14 14:35:02.583552,370
2021-10-14 14:35:02.583560,765
2021-10-14 14:35:02.852397,858
2021-10-14 14:35:02.852419,252
2021-10-14 14:35:02.852430,-456
2021-10-14 14:35:02.852439,-314
2021-10-14 14:35:02.852447,80
2021-10-14 14:35:02.852456,-22
2021-10-14 14:35:02.852465,-112
2021-10-14 14:35:02.852474,-2
2021-10-14 14:35:02.852483,-7
2021-10-14 14:35:02.852491,-56
2021-10-14 14:35:02.852500,-19
2021-10-14 14:35:02.852509,2
2021-10-14 14:35:02.852517,-2
2021-10-14 14:35:02.852526,24
2021-10-14 14:35:02.852535,56
2021-10-14 14:35:02.852543,73
2021-10-14 14:35:02.852552,93
2021-10-14 14:35:02.852561,115
2021-10-14 14:35:02.852570,142
2021-10-14 14:35:02.852578,179
2021-10-14 14:35:02.852587,206
2021-10-14 14:35:02.852596,233
2021-10-14 14:35:02.852604,269
2021-10-14 14:35:02.852616,304
2021-10-14 14:35:02.852625,323
2021-10-14 14:35:02.852634,341
2021-10-14 14:35:02.852642,348
2021-10-14 14:35:02.852651,341
2021-10-14 14:35:02.852660,331
2021-10-14 14:35:02.852668,309
2021-10-14 14:35:03.077895,257
2021-10-14 14:35:03.077917,184
2021-10-14 14:35:03.077927,100
2021-10-14 14:35:03.077936,17
2021-10-14 14:35:03.077944,-63
2021-10-14 14:35:03.077974,-127
2021-10-14 14:35:03.077983,-166
2021-10-14 14:35:03.077992,-188
2021-10-14 14:35:03.078000,-198
2021-10-14 14:35:03.078009,-196
2021-10-14 14:35:03.078017,-193
2021-10-14 14:35:03.078026,-196
2021-10-14 14:35:03.078034,-193
2021-10-14 14:35:03.078043,-171
2021-10-14 14:35:03.078051,-152
2021-10-14 14:35:03.078060,-159
2021-10-14 14:35:03.078069,-164
2021-10-14 14:35:03.078077,-161
2021-10-14 14:35:03.078086,-154
2021-10-14 14:35:03.078094,-137
2021-10-14 14:35:03.078103,-130
2021-10-14 14:35:03.078111,-147
2021-10-14 14:35:03.078120,-157
2021-10-14 14:35:03.078129,-147
2021-10-14 14:35:03.078137,-137
2021-10-14 14:35:03.078146,-142
2021-10-14 14:35:03.078154,-147
2021-10-14 14:35:03.078162,-139
2021-10-14 14:35:03.078171,-132
2021-10-14 14:35:03.078179,-132
2021-10-14 14:35:03.349292,-134
2021-10-14 14:35:03.349314,-130
2021-10-14 14:35:03.349324,-125
2021-10-14 14:35:03.349333,-120
2021-10-14 14:35:03.349341,-117
2021-10-14 14:35:03.349350,-120
2021-10-14 14:35:03.349358,-122
2021-10-14 14:35:03.349367,-112
2021-10-14 14:35:03.349375,-103
2021-10-14 14:35:03.349383,-105
2021-10-14 14:35:03.349392,-112
2021-10-14 14:35:03.349400,-110
2021-10-14 14:35:03.349408,-98
2021-10-14 14:35:03.349417,-100
2021-10-14 14:35:03.349425,-120
2021-10-14 14:35:03.349434,-127
2021-10-14 14:35:03.349442,-103
2021-10-14 14:35:03.349451,-63
2021-10-14 14:35:03.349459,-46
2021-10-14 14:35:03.349467,-49
2021-10-14 14:35:03.349476,-53
2021-10-14 14:35:03.349484,-63
2021-10-14 14:35:03.349493,-83
2021-10-14 14:35:03.349501,-90
2021-10-14 14:35:03.349509,-83
2021-10-14 14:35:03.349518,-78
2021-10-14 14:35:03.349526,-80
2021-10-14 14:35:03.349534,-83
2021-10-14 14:35:03.349543,-93
2021-10-14 14:35:03.349551,-90
2021-10-14 14:35:03.482740,-61
2021-10-14 14:35:03.482761,44
2021-10-14 14:35:03.482771,318
2021-10-14 14:35:03.482780,677
2021-10-14 14:35:03.482788,740
2021-10-14 14:35:03.482797,137
2021-10-14 14:35:03.482805,-569
2021-10-14 14:35:03.482814,-414
2021-10-14 14:35:03.482822,36
2021-10-14 14:35:03.482831,-36
2021-10-14 14:35:03.482839,-144
2021-10-14 14:35:03.482847,-26
2021-10-14 14:35:03.482856,-9
2021-10-14 14:35:03.482864,-56
2021-10-14 14:35:03.482873,-19
2021-10-14 14:35:03.482881,9
2021-10-14 14:35:03.482889,2
2021-10-14 14:35:03.482898,22
2021-10-14 14:35:03.482906,58
2021-10-14 14:35:03.482915,80
2021-10-14 14:35:03.482923,98
2021-10-14 14:35:03.482931,107
2021-10-14 14:35:03.482939,132
2021-10-14 14:35:03.482948,171
2021-10-14 14:35:03.482956,203
2021-10-14 14:35:03.482965,230
2021-10-14 14:35:03.482974,267
2021-10-14 14:35:03.482983,294
2021-10-14 14:35:03.482991,304
2021-10-14 14:35:03.483000,321
2021-10-14 14:35:03.752376,333
2021-10-14 14:35:03.752397,336
2021-10-14 14:35:03.752407,316
2021-10-14 14:35:03.752415,269
2021-10-14 14:35:03.752424,208
2021-10-14 14:35:03.752433,134
2021-10-14 14:35:03.752441,46
2021-10-14 14:35:03.752450,-36
2021-10-14 14:35:03.752458,-112
2021-10-14 14:35:03.752467,-181
2021-10-14 14:35:03.752475,-220
2021-10-14 14:35:03.752484,-233
2021-10-14 14:35:03.752492,-238
2021-10-14 14:35:03.752501,-235
2021-10-14 14:35:03.752509,-233
2021-10-14 14:35:03.752518,-228
2021-10-14 14:35:03.752526,-220
2021-10-14 14:35:03.752534,-215
2021-10-14 14:35:03.752543,-211
2021-10-14 14:35:03.752551,-193
2021-10-14 14:35:03.752560,-174
2021-10-14 14:35:03.752568,-166
2021-10-14 14:35:03.752576,-166
2021-10-14 14:35:03.752585,-164
2021-10-14 14:35:03.752593,-152
2021-10-14 14:35:03.752602,-134
2021-10-14 14:35:03.752610,-127
2021-10-14 14:35:03.752619,-127
2021-10-14 14:35:03.752628,-127
2021-10-14 14:35:03.752636,-125
2021-10-14 14:35:04.021033,-120
2021-10-14 14:35:04.021053,-112
2021-10-14 14:35:04.021063,-115
2021-10-14 14:35:04.021072,-117
2021-10-14 14:35:04.021080,-115
2021-10-14 14:35:04.021089,-110
2021-10-14 14:35:04.021098,-107
2021-10-14 14:35:04.021106,-105
2021-10-14 14:35:04.021115,-115
2021-10-14 14:35:04.021123,-122
2021-10-14 14:35:04.021132,-112
2021-10-14 14:35:04.021141,-95
2021-10-14 14:35:04.021149,-95
2021-10-14 14:35:04.021158,-105
2021-10-14 14:35:04.021166,-112
2021-10-14 14:35:04.021175,-95
2021-10-14 14:35:04.021183,-56
2021-10-14 14:35:04.021192,-29
2021-10-14 14:35:04.021200,-26
2021-10-14 14:35:04.021209,-26
2021-10-14 14:35:04.021217,-44
2021-10-14 14:35:04.021226,-68
2021-10-14 14:35:04.021234,-71
2021-10-14 14:35:04.021243,-58
2021-10-14 14:35:04.021251,-49
2021-10-14 14:35:04.021260,-49
2021-10-14 14:35:04.021268,-51
2021-10-14 14:35:04.021277,-46
2021-10-14 14:35:04.021285,-41
2021-10-14 14:35:04.021294,-34
2021-10-14 14:35:04.202744,4
2021-10-14 14:35:04.202765,166
2021-10-14 14:35:04.202774,520
2021-10-14 14:35:04.202783,851
2021-10-14 14:35:04.202792,662
2021-10-14 14:35:04.202800,-127
2021-10-14 14:35:04.202809,-547
2021-10-14 14:35:04.202818,-147
2021-10-14 14:35:04.202826,78
2021-10-14 14:35:04.202834,-95
2021-10-14 14:35:04.202843,-66
2021-10-14 14:35:04.202851,22
2021-10-14 14:35:04.202860,-29
2021-10-14 14:35:04.202868,-31
2021-10-14 14:35:04.202877,14
2021-10-14 14:35:04.202885,22
2021-10-14 14:35:04.202894,34
2021-10-14 14:35:04.202902,63
2021-10-14 14:35:04.202911,83
2021-10-14 14:35:04.202919,107
2021-10-14 14:35:04.202928,134
2021-10-14 14:35:04.202936,152
2021-10-14 14:35:04.202945,174
2021-10-14 14:35:04.202953,208
2021-10-14 14:35:04.202961,247
2021-10-14 14:35:04.202970,279
2021-10-14 14:35:04.202978,306
2021-10-14 14:35:04.202987,336
2021-10-14 14:35:04.202995,363
2021-10-14 14:35:04.203004,377
2021-10-14 14:35:04.427414,375
2021-10-14 14:35:04.427438,368
2021-10-14 14:35:04.427450,345
2021-10-14 14:35:04.427459,301
2021-10-14 14:35:04.427467,233
2021-10-14 14:35:04.427475,142
2021-10-14 14:35:04.427483,49
2021-10-14 14:35:04.427491,-34
2021-10-14 14:35:04.427498,-98
2021-10-14 14:35:04.427506,-142
2021-10-14 14:35:04.427515,-161
2021-10-14 14:35:04.427523,-164
2021-10-14 14:35:04.427532,-174
2021-10-14 14:35:04.427541,-186
2021-10-14 14:35:04.427550,-179
2021-10-14 14:35:04.427559,-171
2021-10-14 14:35:04.427568,-166
2021-10-14 14:35:04.427579,-154
2021-10-14 14:35:04.427587,-142
2021-10-14 14:35:04.427596,-125
2021-10-14 14:35:04.427605,-112
2021-10-14 14:35:04.427614,-110
2021-10-14 14:35:04.427622,-107
2021-10-14 14:35:04.427631,-98
2021-10-14 14:35:04.427640,-95
2021-10-14 14:35:04.427649,-95
2021-10-14 14:35:04.427658,-88
2021-10-14 14:35:04.427666,-78
2021-10-14 14:35:04.427675,-73
2021-10-14 14:35:04.427684,-76
2021-10-14 14:35:04.652368,-85
2021-10-14 14:35:04.652389,-83
2021-10-14 14:35:04.652398,-68
2021-10-14 14:35:04.652408,-63
2021-10-14 14:35:04.652416,-61
2021-10-14 14:35:04.652425,-63
2021-10-14 14:35:04.652433,-73
2021-10-14 14:35:04.652442,-76
2021-10-14 14:35:04.652450,-78
2021-10-14 14:35:04.652458,-93
2021-10-14 14:35:04.652467,-93
2021-10-14 14:35:04.652475,-80
2021-10-14 14:35:04.652484,-83
2021-10-14 14:35:04.652492,-90
2021-10-14 14:35:04.652501,-95
2021-10-14 14:35:04.652509,-95
2021-10-14 14:35:04.652518,-58
2021-10-14 14:35:04.652526,-14
2021-10-14 14:35:04.652534,-4
2021-10-14 14:35:04.652543,-14
2021-10-14 14:35:04.652551,-17
2021-10-14 14:35:04.652559,-24
2021-10-14 14:35:04.652568,-34
2021-10-14 14:35:04.652576,-36
2021-10-14 14:35:04.652584,-36
2021-10-14 14:35:04.652593,-34
2021-10-14 14:35:04.652601,-36
2021-10-14 14:35:04.652609,-34
2021-10-14 14:35:04.652617,-26
2021-10-14 14:35:04.652625,-31
2021-10-14 14:35:04.877817,-22
2021-10-14 14:35:04.877838,80
2021-10-14 14:35:04.877847,360
2021-10-14 14:35:04.877854,767
2021-10-14 14:35:04.877862,952
2021-10-14 14:35:04.877870,434
2021-10-14 14:35:04.877877,-355
2021-10-14 14:35:04.877885,-348
2021-10-14 14:35:04.877896,83
2021-10-14 14:35:04.877904,31
2021-10-14 14:35:04.877912,-105
2021-10-14 14:35:04.877920,-9
2021-10-14 14:35:04.877927,2
2021-10-14 14:35:04.877935,-39
2021-10-14 14:35:04.877943,2
2021-10-14 14:35:04.877950,34
2021-10-14 14:35:04.877958,26
2021-10-14 14:35:04.877972,41
2021-10-14 14:35:04.877980,71
2021-10-14 14:35:04.877987,93
2021-10-14 14:35:04.877995,110
2021-10-14 14:35:04.878003,130
2021-10-14 14:35:04.878011,159
2021-10-14 14:35:04.878019,188
2021-10-14 14:35:04.878027,220
2021-10-14 14:35:04.878036,262
2021-10-14 14:35:04.878044,294
2021-10-14 14:35:04.878052,311
2021-10-14 14:35:04.878059,326
2021-10-14 14:35:04.878067,343
2021-10-14 14:35:05.147366,358
2021-10-14 14:35:05.147386,355
2021-10-14 14:35:05.147396,341
2021-10-14 14:35:05.147404,311
2021-10-14 14:35:05.147413,255
2021-10-14 14:35:05.147421,164
2021-10-14 14:35:05.147430,76
2021-10-14 14:35:05.147438,2
2021-10-14 14:35:05.147447,-63
2021-10-14 14:35:05.147455,-122
2021-10-14 14:35:05.147464,-166
2021-10-14 14:35:05.147472,-191
2021-10-14 14:35:05.147480,-193
2021-10-14 14:35:05.147488,-186
2021-10-14 14:35:05.147497,-191
2021-10-14 14:35:05.147505,-203
2021-10-14 14:35:05.147513,-203
2021-10-14 14:35:05.147521,-186
2021-10-14 14:35:05.147530,-169
2021-10-14 14:35:05.147538,-159
2021-10-14 14:35:05.147546,-152
2021-10-14 14:35:05.147554,-142
2021-10-14 14:35:05.147563,-132
2021-10-14 14:35:05.147571,-127
2021-10-14 14:35:05.147579,-125
2021-10-14 14:35:05.147588,-122
2021-10-14 14:35:05.147596,-115
2021-10-14 14:35:05.147604,-107
2021-10-14 14:35:05.147613,-105
2021-10-14 14:35:05.147621,-107
2021-10-14 14:35:05.327671,-112
2021-10-14 14:35:05.327689,-117
2021-10-14 14:35:05.327699,-115
2021-10-14 14:35:05.327707,-112
2021-10-14 14:35:05.327716,-117
2021-10-14 14:35:05.327724,-115
2021-10-14 14:35:05.327733,-107
2021-10-14 14:35:05.327741,-105
2021-10-14 14:35:05.327750,-103
2021-10-14 14:35:05.327758,-105
2021-10-14 14:35:05.327767,-112
2021-10-14 14:35:05.327775,-105
2021-10-14 14:35:05.327784,-90
2021-10-14 14:35:05.327792,-85
2021-10-14 14:35:05.327801,-85
2021-10-14 14:35:05.327809,-93
2021-10-14 14:35:05.327817,-100
2021-10-14 14:35:05.327826,-103
2021-10-14 14:35:05.327834,-107
2021-10-14 14:35:05.327842,-98
2021-10-14 14:35:05.327851,-66
2021-10-14 14:35:05.327859,-31
2021-10-14 14:35:05.327867,-22
2021-10-14 14:35:05.327875,-22
2021-10-14 14:35:05.327884,-22
2021-10-14 14:35:05.327892,-36
2021-10-14 14:35:05.327900,-61
2021-10-14 14:35:05.327909,-66
2021-10-14 14:35:05.327917,-49
2021-10-14 14:35:05.327925,-39
2021-10-14 14:35:05.597707,-41
2021-10-14 14:35:05.597727,-44
2021-10-14 14:35:05.597737,-56
2021-10-14 14:35:05.597746,-80
2021-10-14 14:35:05.597755,-58
2021-10-14 14:35:05.597763,85
2021-10-14 14:35:05.597771,392
2021-10-14 14:35:05.597780,772
2021-10-14 14:35:05.597788,841
2021-10-14 14:35:05.597797,193
2021-10-14 14:35:05.597805,-529
2021-10-14 14:35:05.597813,-343
2021-10-14 14:35:05.597822,76
2021-10-14 14:35:05.597830,-34
2021-10-14 14:35:05.597838,-127
2021-10-14 14:35:05.597847,-22
2021-10-14 14:35:05.597855,-31
2021-10-14 14:35:05.597864,-66
2021-10-14 14:35:05.597872,-17
2021-10-14 14:35:05.597881,7
2021-10-14 14:35:05.597889,-4
2021-10-14 14:35:05.597898,0
2021-10-14 14:35:05.597906,19
2021-10-14 14:35:05.597914,44
2021-10-14 14:35:05.597923,63
2021-10-14 14:35:05.597931,85
2021-10-14 14:35:05.597940,117
2021-10-14 14:35:05.597948,154
2021-10-14 14:35:05.597956,184
2021-10-14 14:35:05.597965,218
2021-10-14 14:35:05.867356,255
2021-10-14 14:35:05.867376,282
2021-10-14 14:35:05.867386,301
2021-10-14 14:35:05.867395,314
2021-10-14 14:35:05.867403,314
2021-10-14 14:35:05.867412,316
2021-10-14 14:35:05.867420,306
2021-10-14 14:35:05.867429,262
2021-10-14 14:35:05.867437,193
2021-10-14 14:35:05.867446,105
2021-10-14 14:35:05.867454,14
2021-10-14 14:35:05.867463,-61
2021-10-14 14:35:05.867471,-122
2021-10-14 14:35:05.867479,-186
2021-10-14 14:35:05.867488,-250
2021-10-14 14:35:05.867496,-274
2021-10-14 14:35:05.867505,-267
2021-10-14 14:35:05.867513,-267
2021-10-14 14:35:05.867522,-269
2021-10-14 14:35:05.867530,-260
2021-10-14 14:35:05.867539,-252
2021-10-14 14:35:05.867547,-242
2021-10-14 14:35:05.867555,-225
2021-10-14 14:35:05.867564,-215
2021-10-14 14:35:05.867572,-211
2021-10-14 14:35:05.867581,-201
2021-10-14 14:35:05.867589,-193
2021-10-14 14:35:05.867597,-193
2021-10-14 14:35:05.867606,-184
2021-10-14 14:35:05.867614,-179
2021-10-14 14:35:06.091402,-171
2021-10-14 14:35:06.091421,-169
2021-10-14 14:35:06.091431,-171
2021-10-14 14:35:06.091440,-176
2021-10-14 14:35:06.091448,-174
2021-10-14 14:35:06.091457,-176
2021-10-14 14:35:06.091465,-181
2021-10-14 14:35:06.091474,-191
2021-10-14 14:35:06.091482,-201
2021-10-14 14:35:06.091491,-203
2021-10-14 14:35:06.091499,-196
2021-10-14 14:35:06.091508,-188
2021-10-14 14:35:06.091516,-176
2021-10-14 14:35:06.091525,-179
2021-10-14 14:35:06.091533,-184
2021-10-14 14:35:06.091542,-184
2021-10-14 14:35:06.091550,-176
2021-10-14 14:35:06.091558,-169
2021-10-14 14:35:06.091567,-174
2021-10-14 14:35:06.091575,-193
2021-10-14 14:35:06.091584,-201
2021-10-14 14:35:06.091592,-174
2021-10-14 14:35:06.091601,-130
2021-10-14 14:35:06.091609,-110
2021-10-14 14:35:06.091617,-110
2021-10-14 14:35:06.091626,-115
2021-10-14 14:35:06.091634,-137
2021-10-14 14:35:06.091642,-169
2021-10-14 14:35:06.091650,-181
2021-10-14 14:35:06.091659,-166
2021-10-14 14:35:06.272725,-159
2021-10-14 14:35:06.272746,-157
2021-10-14 14:35:06.272756,-149
2021-10-14 14:35:06.272765,-149
2021-10-14 14:35:06.272773,-152
2021-10-14 14:35:06.272782,-130
2021-10-14 14:35:06.272790,-36
2021-10-14 14:35:06.272799,225
2021-10-14 14:35:06.272807,601
2021-10-14 14:35:06.272816,711
2021-10-14 14:35:06.272824,147
2021-10-14 14:35:06.272833,-601
2021-10-14 14:35:06.272841,-517
2021-10-14 14:35:06.272850,-56
2021-10-14 14:35:06.272858,-95
2021-10-14 14:35:06.272867,-201
2021-10-14 14:35:06.272875,-80
2021-10-14 14:35:06.272883,-68
2021-10-14 14:35:06.272892,-122
2021-10-14 14:35:06.272900,-85
2021-10-14 14:35:06.272908,-61
2021-10-14 14:35:06.272916,-73
2021-10-14 14:35:06.272925,-49
2021-10-14 14:35:06.272933,-12
2021-10-14 14:35:06.272942,0
2021-10-14 14:35:06.272950,14
2021-10-14 14:35:06.272958,46
2021-10-14 14:35:06.272967,73
2021-10-14 14:35:06.272975,105
2021-10-14 14:35:06.272984,144
2021-10-14 14:35:06.542746,179
2021-10-14 14:35:06.542766,213
2021-10-14 14:35:06.542776,247
2021-10-14 14:35:06.542784,277
2021-10-14 14:35:06.542793,294
2021-10-14 14:35:06.542802,296
2021-10-14 14:35:06.542810,284
2021-10-14 14:35:06.542819,272
2021-10-14 14:35:06.542827,245
2021-10-14 14:35:06.542836,174
2021-10-14 14:35:06.542844,68
2021-10-14 14:35:06.542853,-31
2021-10-14 14:35:06.542861,-115
2021-10-14 14:35:06.542870,-188
2021-10-14 14:35:06.542878,-245
2021-10-14 14:35:06.542887,-274
2021-10-14 14:35:06.542895,-287
2021-10-14 14:35:06.542904,-294
2021-10-14 14:35:06.542912,-291
2021-10-14 14:35:06.542921,-279
2021-10-14 14:35:06.542929,-277
2021-10-14 14:35:06.542938,-264
2021-10-14 14:35:06.542946,-242
2021-10-14 14:35:06.542955,-235
2021-10-14 14:35:06.542963,-228
2021-10-14 14:35:06.542972,-203
2021-10-14 14:35:06.542981,-196
2021-10-14 14:35:06.542989,-196
2021-10-14 14:35:06.542997,-181
2021-10-14 14:35:06.543006,-166
2021-10-14 14:35:06.767359,-161
2021-10-14 14:35:06.767379,-152
2021-10-14 14:35:06.767389,-152
2021-10-14 14:35:06.767398,-161
2021-10-14 14:35:06.767406,-166
2021-10-14 14:35:06.767415,-171
2021-10-14 14:35:06.767423,-174
2021-10-14 14:35:06.767432,-161
2021-10-14 14:35:06.767440,-152
2021-10-14 14:35:06.767449,-152
2021-10-14 14:35:06.767457,-147
2021-10-14 14:35:06.767466,-139
2021-10-14 14:35:06.767474,-144
2021-10-14 14:35:06.767482,-149
2021-10-14 14:35:06.767490,-137
2021-10-14 14:35:06.767499,-125
2021-10-14 14:35:06.767507,-127
2021-10-14 14:35:06.767515,-130
2021-10-14 14:35:06.767524,-122
2021-10-14 14:35:06.767532,-120
2021-10-14 14:35:06.767540,-125
2021-10-14 14:35:06.767549,-125
2021-10-14 14:35:06.767557,-117
2021-10-14 14:35:06.767566,-88
2021-10-14 14:35:06.767574,-49
2021-10-14 14:35:06.767582,-29
2021-10-14 14:35:06.767591,-26
2021-10-14 14:35:06.767599,-26
2021-10-14 14:35:06.767607,-39
2021-10-14 14:35:06.767616,-61
2021-10-14 14:35:06.947708,-66
2021-10-14 14:35:06.947727,-46
2021-10-14 14:35:06.947736,-39
2021-10-14 14:35:06.947745,-44
2021-10-14 14:35:06.947753,-46
2021-10-14 14:35:06.947762,-49
2021-10-14 14:35:06.947770,-46
2021-10-14 14:35:06.947779,-22
2021-10-14 14:35:06.947787,90
2021-10-14 14:35:06.947795,382
2021-10-14 14:35:06.947804,792
2021-10-14 14:35:06.947812,925
2021-10-14 14:35:06.947821,341
2021-10-14 14:35:06.947829,-404
2021-10-14 14:35:06.947837,-301
2021-10-14 14:35:06.947846,103
2021-10-14 14:35:06.947854,9
2021-10-14 14:35:06.947862,-98
2021-10-14 14:35:06.947870,9
2021-10-14 14:35:06.947879,14
2021-10-14 14:35:06.947887,-19
2021-10-14 14:35:06.947895,24
2021-10-14 14:35:06.947903,44
2021-10-14 14:35:06.947912,31
2021-10-14 14:35:06.947920,49
2021-10-14 14:35:06.947928,76
2021-10-14 14:35:06.947936,88
2021-10-14 14:35:06.947944,107
2021-10-14 14:35:06.947953,130
2021-10-14 14:35:06.947961,157
2021-10-14 14:35:07.262188,188
2021-10-14 14:35:07.262209,223
2021-10-14 14:35:07.262219,260
2021-10-14 14:35:07.262228,289
2021-10-14 14:35:07.262236,309
2021-10-14 14:35:07.262245,338
2021-10-14 14:35:07.262253,360
2021-10-14 14:35:07.262262,365
2021-10-14 14:35:07.262270,350
2021-10-14 14:35:07.262278,318
2021-10-14 14:35:07.262287,274
2021-10-14 14:35:07.262295,215
2021-10-14 14:35:07.262303,144
2021-10-14 14:35:07.262312,61
2021-10-14 14:35:07.262327,-19
2021-10-14 14:35:07.262335,-93
2021-10-14 14:35:07.262343,-152
2021-10-14 14:35:07.262352,-186
2021-10-14 14:35:07.262360,-193
2021-10-14 14:35:07.262369,-196
2021-10-14 14:35:07.262377,-196
2021-10-14 14:35:07.262385,-198
2021-10-14 14:35:07.262394,-191
2021-10-14 14:35:07.262402,-176
2021-10-14 14:35:07.262411,-161
2021-10-14 14:35:07.262419,-149
2021-10-14 14:35:07.262428,-142
2021-10-14 14:35:07.262436,-139
2021-10-14 14:35:07.262444,-132
2021-10-14 14:35:07.262453,-117
2021-10-14 14:35:07.532794,-103
2021-10-14 14:35:07.532813,-90
2021-10-14 14:35:07.532822,-88
2021-10-14 14:35:07.532831,-90
2021-10-14 14:35:07.532840,-85
2021-10-14 14:35:07.532848,-78
2021-10-14 14:35:07.532857,-71
2021-10-14 14:35:07.532865,-61
2021-10-14 14:35:07.532873,-73
2021-10-14 14:35:07.532882,-93
2021-10-14 14:35:07.532890,-88
2021-10-14 14:35:07.532898,-73
2021-10-14 14:35:07.532907,-71
2021-10-14 14:35:07.532915,-63
2021-10-14 14:35:07.532924,-58
2021-10-14 14:35:07.532932,-66
2021-10-14 14:35:07.532940,-68
2021-10-14 14:35:07.532949,-61
2021-10-14 14:35:07.532957,-63
2021-10-14 14:35:07.532966,-68
2021-10-14 14:35:07.532974,-66
2021-10-14 14:35:07.532982,-68
2021-10-14 14:35:07.532991,-63
2021-10-14 14:35:07.532999,-51
2021-10-14 14:35:07.533008,-46
2021-10-14 14:35:07.533016,-41
2021-10-14 14:35:07.533024,-41
2021-10-14 14:35:07.533033,-49
2021-10-14 14:35:07.533041,-41
2021-10-14 14:35:07.533050,-26
2021-10-14 14:35:07.667356,-19
2021-10-14 14:35:07.667376,-19
2021-10-14 14:35:07.667385,-19
2021-10-14 14:35:07.667394,-26
2021-10-14 14:35:07.667403,-14
2021-10-14 14:35:07.667411,19
2021-10-14 14:35:07.667420,46
2021-10-14 14:35:07.667428,49
2021-10-14 14:35:07.667436,36
2021-10-14 14:35:07.667445,19
2021-10-14 14:35:07.667453,12
2021-10-14 14:35:07.667462,4
2021-10-14 14:35:07.667470,0
2021-10-14 14:35:07.667478,4
2021-10-14 14:35:07.667487,-2
2021-10-14 14:35:07.667495,-7
2021-10-14 14:35:07.667504,-2
2021-10-14 14:35:07.667512,-12
2021-10-14 14:35:07.667521,-9
2021-10-14 14:35:07.667529,73
2021-10-14 14:35:07.667538,316
2021-10-14 14:35:07.667546,706
2021-10-14 14:35:07.667555,971
2021-10-14 14:35:07.667563,579
2021-10-14 14:35:07.667572,-252
2021-10-14 14:35:07.667580,-407
2021-10-14 14:35:07.667588,29
2021-10-14 14:35:07.667597,53
2021-10-14 14:35:07.667605,-105
2021-10-14 14:35:07.667614,-12
2021-10-14 14:35:07.892803,39
2021-10-14 14:35:07.892824,-12
2021-10-14 14:35:07.892834,4
2021-10-14 14:35:07.892843,39
2021-10-14 14:35:07.892851,39
2021-10-14 14:35:07.892859,61
2021-10-14 14:35:07.892868,93
2021-10-14 14:35:07.892876,93
2021-10-14 14:35:07.892885,93
2021-10-14 14:35:07.892893,127
2021-10-14 14:35:07.892901,164
2021-10-14 14:35:07.892910,184
2021-10-14 14:35:07.892918,208
2021-10-14 14:35:07.892927,240
2021-10-14 14:35:07.892935,264
2021-10-14 14:35:07.892943,294
2021-10-14 14:35:07.892952,336
2021-10-14 14:35:07.892960,358
2021-10-14 14:35:07.892969,360
2021-10-14 14:35:07.892977,360
2021-10-14 14:35:07.892986,355
2021-10-14 14:35:07.892994,331
2021-10-14 14:35:07.893002,287
2021-10-14 14:35:07.893011,220
2021-10-14 14:35:07.893019,137
2021-10-14 14:35:07.893028,56
2021-10-14 14:35:07.893036,-22
2021-10-14 14:35:07.893044,-85
2021-10-14 14:35:07.893052,-127
2021-10-14 14:35:07.893061,-152
2021-10-14 14:35:08.207019,-174
2021-10-14 14:35:08.207039,-179
2021-10-14 14:35:08.207048,-169
2021-10-14 14:35:08.207057,-174
2021-10-14 14:35:08.207066,-176
2021-10-14 14:35:08.207074,-164
2021-10-14 14:35:08.207083,-154
2021-10-14 14:35:08.207091,-152
2021-10-14 14:35:08.207100,-149
2021-10-14 14:35:08.207108,-134
2021-10-14 14:35:08.207117,-122
2021-10-14 14:35:08.207125,-122
2021-10-14 14:35:08.207133,-125
2021-10-14 14:35:08.207142,-125
2021-10-14 14:35:08.207150,-120
2021-10-14 14:35:08.207158,-112
2021-10-14 14:35:08.207167,-103
2021-10-14 14:35:08.207175,-95
2021-10-14 14:35:08.207183,-105
2021-10-14 14:35:08.207192,-125
2021-10-14 14:35:08.207200,-132
2021-10-14 14:35:08.207208,-122
2021-10-14 14:35:08.207217,-115
2021-10-14 14:35:08.207225,-117
2021-10-14 14:35:08.207233,-117
2021-10-14 14:35:08.207241,-117
2021-10-14 14:35:08.207250,-115
2021-10-14 14:35:08.207258,-112
2021-10-14 14:35:08.207266,-107
2021-10-14 14:35:08.207274,-105
2021-10-14 14:35:08.567792,-105
2021-10-14 14:35:08.567812,-105
2021-10-14 14:35:08.567821,-100
2021-10-14 14:35:08.567830,-95
2021-10-14 14:35:08.567839,-98
2021-10-14 14:35:08.567847,-98
2021-10-14 14:35:08.567856,-98
2021-10-14 14:35:08.567864,-95
2021-10-14 14:35:08.567872,-90
2021-10-14 14:35:08.567881,-95
2021-10-14 14:35:08.567889,-95
2021-10-14 14:35:08.567898,-83
2021-10-14 14:35:08.567906,-88
2021-10-14 14:35:08.567915,-98
2021-10-14 14:35:08.567923,-98
2021-10-14 14:35:08.567931,-107
2021-10-14 14:35:08.567940,-112
2021-10-14 14:35:08.567948,-93
2021-10-14 14:35:08.567956,-68
2021-10-14 14:35:08.567965,-58
2021-10-14 14:35:08.567973,-53
2021-10-14 14:35:08.567982,-53
2021-10-14 14:35:08.567990,-71
2021-10-14 14:35:08.567999,-103
2021-10-14 14:35:08.568007,-127
2021-10-14 14:35:08.568015,-134
2021-10-14 14:35:08.568024,-142
2021-10-14 14:35:08.568032,-154
2021-10-14 14:35:08.568041,-157
2021-10-14 14:35:08.568049,-157
2021-10-14 14:35:08.657767,-164
2021-10-14 14:35:08.657788,-147
2021-10-14 14:35:08.657798,-73
2021-10-14 14:35:08.657807,132
2021-10-14 14:35:08.657816,493
2021-10-14 14:35:08.657824,740
2021-10-14 14:35:08.657833,380
2021-10-14 14:35:08.657841,-439
2021-10-14 14:35:08.657850,-633
2021-10-14 14:35:08.657858,-147
2021-10-14 14:35:08.657867,-39
2021-10-14 14:35:08.657875,-220
2021-10-14 14:35:08.657884,-152
2021-10-14 14:35:08.657892,-85
2021-10-14 14:35:08.657901,-144
2021-10-14 14:35:08.657909,-134
2021-10-14 14:35:08.657917,-85
2021-10-14 14:35:08.657926,-90
2021-10-14 14:35:08.657934,-90
2021-10-14 14:35:08.657942,-61
2021-10-14 14:35:08.657951,-34
2021-10-14 14:35:08.657959,-12
2021-10-14 14:35:08.657967,4
2021-10-14 14:35:08.657976,19
2021-10-14 14:35:08.657984,41
2021-10-14 14:35:08.657992,63
2021-10-14 14:35:08.658001,85
2021-10-14 14:35:08.658009,115
2021-10-14 14:35:08.658018,144
2021-10-14 14:35:08.658026,166
2021-10-14 14:35:08.836731,186
2021-10-14 14:35:08.836750,198
2021-10-14 14:35:08.836759,201
2021-10-14 14:35:08.836768,193
2021-10-14 14:35:08.836777,166
2021-10-14 14:35:08.836785,117
2021-10-14 14:35:08.836793,53
2021-10-14 14:35:08.836802,-24
2021-10-14 14:35:08.836810,-112
2021-10-14 14:35:08.836819,-198
2021-10-14 14:35:08.836827,-269
2021-10-14 14:35:08.836836,-323
2021-10-14 14:35:08.836844,-358
2021-10-14 14:35:08.836852,-368
2021-10-14 14:35:08.836861,-363
2021-10-14 14:35:08.836869,-368
2021-10-14 14:35:08.836878,-385
2021-10-14 14:35:08.836886,-382
2021-10-14 14:35:08.836894,-363
2021-10-14 14:35:08.836903,-343
2021-10-14 14:35:08.836911,-331
2021-10-14 14:35:08.836919,-321
2021-10-14 14:35:08.836927,-316
2021-10-14 14:35:08.836936,-309
2021-10-14 14:35:08.836944,-291
2021-10-14 14:35:08.836953,-282
2021-10-14 14:35:08.836961,-274
2021-10-14 14:35:08.836969,-267
2021-10-14 14:35:08.836978,-260
2021-10-14 14:35:08.836986,-252
2021-10-14 14:35:09.017817,-250
2021-10-14 14:35:09.017839,-252
2021-10-14 14:35:09.017848,-250
2021-10-14 14:35:09.017857,-252
2021-10-14 14:35:09.017866,-257
2021-10-14 14:35:09.017874,-247
2021-10-14 14:35:09.017883,-235
2021-10-14 14:35:09.017891,-230
2021-10-14 14:35:09.017900,-230
2021-10-14 14:35:09.017908,-230
2021-10-14 14:35:09.017917,-225
2021-10-14 14:35:09.017925,-213
2021-10-14 14:35:09.017934,-196
2021-10-14 14:35:09.017942,-186
2021-10-14 14:35:09.017951,-184
2021-10-14 14:35:09.017959,-181
2021-10-14 14:35:09.017968,-171
2021-10-14 14:35:09.017976,-159
2021-10-14 14:35:09.017984,-147
2021-10-14 14:35:09.017993,-132
2021-10-14 14:35:09.018001,-125
2021-10-14 14:35:09.018010,-130
2021-10-14 14:35:09.018018,-142
2021-10-14 14:35:09.018027,-142
2021-10-14 14:35:09.018035,-115
2021-10-14 14:35:09.018044,-66
2021-10-14 14:35:09.018052,-41
2021-10-14 14:35:09.018061,-49
2021-10-14 14:35:09.018070,-46
2021-10-14 14:35:09.018078,-51
2021-10-14 14:35:09.287804,-80
2021-10-14 14:35:09.287825,-100
2021-10-14 14:35:09.287834,-103
2021-10-14 14:35:09.287843,-103
2021-10-14 14:35:09.287851,-100
2021-10-14 14:35:09.287860,-88
2021-10-14 14:35:09.287869,-78
2021-10-14 14:35:09.287877,-73
2021-10-14 14:35:09.287886,-56
2021-10-14 14:35:09.287894,22
2021-10-14 14:35:09.287903,264
2021-10-14 14:35:09.287911,660
2021-10-14 14:35:09.287920,873
2021-10-14 14:35:09.287928,424
2021-10-14 14:35:09.287936,-350
2021-10-14 14:35:09.287945,-395
2021-10-14 14:35:09.287953,66
2021-10-14 14:35:09.287961,83
2021-10-14 14:35:09.287970,-51
2021-10-14 14:35:09.287978,51
2021-10-14 14:35:09.287987,78
2021-10-14 14:35:09.287995,26
2021-10-14 14:35:09.288003,83
2021-10-14 14:35:09.288012,134
2021-10-14 14:35:09.288020,120
2021-10-14 14:35:09.288028,134
2021-10-14 14:35:09.288037,166
2021-10-14 14:35:09.288045,179
2021-10-14 14:35:09.288053,203
2021-10-14 14:35:09.288062,242
2021-10-14 14:35:09.512791,272
2021-10-14 14:35:09.512812,299
2021-10-14 14:35:09.512822,323
2021-10-14 14:35:09.512830,350
2021-10-14 14:35:09.512839,392
2021-10-14 14:35:09.512847,424
2021-10-14 14:35:09.512856,444
2021-10-14 14:35:09.512864,461
2021-10-14 14:35:09.512873,466
2021-10-14 14:35:09.512881,456
2021-10-14 14:35:09.512889,444
2021-10-14 14:35:09.512898,424
2021-10-14 14:35:09.512906,370
2021-10-14 14:35:09.512914,291
2021-10-14 14:35:09.512923,198
2021-10-14 14:35:09.512931,103
2021-10-14 14:35:09.512940,22
2021-10-14 14:35:09.512948,-34
2021-10-14 14:35:09.512957,-71
2021-10-14 14:35:09.512965,-93
2021-10-14 14:35:09.512974,-110
2021-10-14 14:35:09.512982,-122
2021-10-14 14:35:09.512990,-112
2021-10-14 14:35:09.512999,-98
2021-10-14 14:35:09.513007,-100
2021-10-14 14:35:09.513016,-93
2021-10-14 14:35:09.513024,-80
2021-10-14 14:35:09.513032,-83
2021-10-14 14:35:09.513041,-78
2021-10-14 14:35:09.513049,-61
2021-10-14 14:35:09.782805,-49
2021-10-14 14:35:09.782827,-41
2021-10-14 14:35:09.782836,-36
2021-10-14 14:35:09.782845,-34
2021-10-14 14:35:09.782854,-31
2021-10-14 14:35:09.782862,-26
2021-10-14 14:35:09.782871,-44
2021-10-14 14:35:09.782879,-73
2021-10-14 14:35:09.782888,-76
2021-10-14 14:35:09.782896,-68
2021-10-14 14:35:09.782905,-76
2021-10-14 14:35:09.782914,-76
2021-10-14 14:35:09.782922,-61
2021-10-14 14:35:09.782931,-58
2021-10-14 14:35:09.782940,-68
2021-10-14 14:35:09.782948,-73
2021-10-14 14:35:09.782957,-63
2021-10-14 14:35:09.782965,-61
2021-10-14 14:35:09.782974,-63
2021-10-14 14:35:09.782990,-66
2021-10-14 14:35:09.782999,-68
2021-10-14 14:35:09.783007,-61
2021-10-14 14:35:09.783016,-51
2021-10-14 14:35:09.783024,-56
2021-10-14 14:35:09.783033,-56
2021-10-14 14:35:09.783041,-56
2021-10-14 14:35:09.783049,-63
2021-10-14 14:35:09.783058,-73
2021-10-14 14:35:09.783066,-85
2021-10-14 14:35:09.783075,-71
2021-10-14 14:35:10.007998,-31
2021-10-14 14:35:10.008018,-9
2021-10-14 14:35:10.008028,-17
2021-10-14 14:35:10.008037,-26
2021-10-14 14:35:10.008045,-31
2021-10-14 14:35:10.008054,-46
2021-10-14 14:35:10.008063,-68
2021-10-14 14:35:10.008071,-78
2021-10-14 14:35:10.008080,-68
2021-10-14 14:35:10.008088,-68
2021-10-14 14:35:10.008097,-76
2021-10-14 14:35:10.008105,-80
2021-10-14 14:35:10.008113,-80
2021-10-14 14:35:10.008122,-71
2021-10-14 14:35:10.008130,12
2021-10-14 14:35:10.008139,255
2021-10-14 14:35:10.008147,645
2021-10-14 14:35:10.008156,880
2021-10-14 14:35:10.008164,471
2021-10-14 14:35:10.008173,-326
2021-10-14 14:35:10.008181,-434
2021-10-14 14:35:10.008189,4
2021-10-14 14:35:10.008198,24
2021-10-14 14:35:10.008206,-127
2021-10-14 14:35:10.008215,-34
2021-10-14 14:35:10.008223,-2
2021-10-14 14:35:10.008231,-58
2021-10-14 14:35:10.008239,-29
2021-10-14 14:35:10.008248,4
2021-10-14 14:35:10.008256,-2
2021-10-14 14:35:10.231035,14
2021-10-14 14:35:10.231054,46
2021-10-14 14:35:10.231063,71
2021-10-14 14:35:10.231076,93
2021-10-14 14:35:10.231084,112
2021-10-14 14:35:10.231093,132
2021-10-14 14:35:10.231101,159
2021-10-14 14:35:10.231110,186
2021-10-14 14:35:10.231141,225
2021-10-14 14:35:10.231150,269
2021-10-14 14:35:10.231157,299
2021-10-14 14:35:10.231164,318
2021-10-14 14:35:10.231171,323
2021-10-14 14:35:10.231178,321
2021-10-14 14:35:10.231185,331
2021-10-14 14:35:10.231192,338
2021-10-14 14:35:10.231199,309
2021-10-14 14:35:10.231206,245
2021-10-14 14:35:10.231213,166
2021-10-14 14:35:10.231220,80
2021-10-14 14:35:10.231227,2
2021-10-14 14:35:10.231234,-63
2021-10-14 14:35:10.231242,-127
2021-10-14 14:35:10.231249,-179
2021-10-14 14:35:10.231257,-201
2021-10-14 14:35:10.231264,-208
2021-10-14 14:35:10.231271,-215
2021-10-14 14:35:10.231279,-218
2021-10-14 14:35:10.231286,-206
2021-10-14 14:35:10.231294,-196
2021-10-14 14:35:10.502806,-198
2021-10-14 14:35:10.502826,-186
2021-10-14 14:35:10.502836,-164
2021-10-14 14:35:10.502845,-149
2021-10-14 14:35:10.502854,-137
2021-10-14 14:35:10.502862,-130
2021-10-14 14:35:10.502871,-127
2021-10-14 14:35:10.502879,-122
2021-10-14 14:35:10.502888,-115
2021-10-14 14:35:10.502896,-103
2021-10-14 14:35:10.502905,-103
2021-10-14 14:35:10.502913,-117
2021-10-14 14:35:10.502922,-125
2021-10-14 14:35:10.502930,-125
2021-10-14 14:35:10.502939,-127
2021-10-14 14:35:10.502947,-120
2021-10-14 14:35:10.502956,-110
2021-10-14 14:35:10.502965,-107
2021-10-14 14:35:10.502973,-105
2021-10-14 14:35:10.502982,-105
2021-10-14 14:35:10.502990,-110
2021-10-14 14:35:10.502999,-107
2021-10-14 14:35:10.503007,-98
2021-10-14 14:35:10.503016,-100
2021-10-14 14:35:10.503024,-107
2021-10-14 14:35:10.503033,-103
2021-10-14 14:35:10.503041,-98
2021-10-14 14:35:10.503050,-98
2021-10-14 14:35:10.503058,-93
2021-10-14 14:35:10.503067,-95
2021-10-14 14:35:10.637433,-112
2021-10-14 14:35:10.637453,-112
2021-10-14 14:35:10.637462,-93
2021-10-14 14:35:10.637471,-68
2021-10-14 14:35:10.637480,-51
2021-10-14 14:35:10.637488,-51
2021-10-14 14:35:10.637496,-51
2021-10-14 14:35:10.637505,-53
2021-10-14 14:35:10.637513,-71
2021-10-14 14:35:10.637522,-88
2021-10-14 14:35:10.637530,-85
2021-10-14 14:35:10.637539,-80
2021-10-14 14:35:10.637547,-78
2021-10-14 14:35:10.637556,-76
2021-10-14 14:35:10.637564,-76
2021-10-14 14:35:10.637573,-80
2021-10-14 14:35:10.637582,-78
2021-10-14 14:35:10.637590,-19
2021-10-14 14:35:10.637599,198
2021-10-14 14:35:10.637607,571
2021-10-14 14:35:10.637615,836
2021-10-14 14:35:10.637624,547
2021-10-14 14:35:10.637632,-223
2021-10-14 14:35:10.637641,-480
2021-10-14 14:35:10.637649,-63
2021-10-14 14:35:10.637657,44
2021-10-14 14:35:10.637666,-127
2021-10-14 14:35:10.637674,-71
2021-10-14 14:35:10.637683,2
2021-10-14 14:35:10.637691,-46
2021-10-14 14:35:10.862344,-41
2021-10-14 14:35:10.862363,0
2021-10-14 14:35:10.862373,9
2021-10-14 14:35:10.862381,19
2021-10-14 14:35:10.862390,34
2021-10-14 14:35:10.862399,46
2021-10-14 14:35:10.862407,66
2021-10-14 14:35:10.862415,93
2021-10-14 14:35:10.862424,112
2021-10-14 14:35:10.862432,134
2021-10-14 14:35:10.862441,161
2021-10-14 14:35:10.862449,193
2021-10-14 14:35:10.862457,230
2021-10-14 14:35:10.862466,264
2021-10-14 14:35:10.862474,294
2021-10-14 14:35:10.862482,309
2021-10-14 14:35:10.862491,306
2021-10-14 14:35:10.862499,299
2021-10-14 14:35:10.862507,294
2021-10-14 14:35:10.862516,287
2021-10-14 14:35:10.862524,242
2021-10-14 14:35:10.862533,159
2021-10-14 14:35:10.862541,78
2021-10-14 14:35:10.862549,2
2021-10-14 14:35:10.862558,-76
2021-10-14 14:35:10.862566,-137
2021-10-14 14:35:10.862574,-186
2021-10-14 14:35:10.862583,-220
2021-10-14 14:35:10.862591,-228
2021-10-14 14:35:10.862599,-220
2021-10-14 14:35:11.132788,-220
2021-10-14 14:35:11.132807,-220
2021-10-14 14:35:11.132817,-215
2021-10-14 14:35:11.132825,-215
2021-10-14 14:35:11.132834,-213
2021-10-14 14:35:11.132842,-201
2021-10-14 14:35:11.132851,-193
2021-10-14 14:35:11.132859,-191
2021-10-14 14:35:11.132868,-181
2021-10-14 14:35:11.132876,-184
2021-10-14 14:35:11.132885,-188
2021-10-14 14:35:11.132893,-181
2021-10-14 14:35:11.132901,-171
2021-10-14 14:35:11.132910,-171
2021-10-14 14:35:11.132918,-179
2021-10-14 14:35:11.132927,-184
2021-10-14 14:35:11.132935,-176
2021-10-14 14:35:11.132943,-169
2021-10-14 14:35:11.132952,-166
2021-10-14 14:35:11.132960,-164
2021-10-14 14:35:11.132969,-169
2021-10-14 14:35:11.132977,-176
2021-10-14 14:35:11.132985,-174
2021-10-14 14:35:11.132994,-179
2021-10-14 14:35:11.133002,-193
2021-10-14 14:35:11.133010,-193
2021-10-14 14:35:11.133019,-181
2021-10-14 14:35:11.133027,-174
2021-10-14 14:35:11.133036,-169
2021-10-14 14:35:11.133044,-164
2021-10-14 14:35:11.357750,-161
2021-10-14 14:35:11.357769,-161
2021-10-14 14:35:11.357779,-166
2021-10-14 14:35:11.357787,-152
2021-10-14 14:35:11.357796,-115
2021-10-14 14:35:11.357804,-90
2021-10-14 14:35:11.357812,-98
2021-10-14 14:35:11.357821,-103
2021-10-14 14:35:11.357829,-115
2021-10-14 14:35:11.357838,-142
2021-10-14 14:35:11.357846,-161
2021-10-14 14:35:11.357854,-154
2021-10-14 14:35:11.357863,-142
2021-10-14 14:35:11.357871,-144
2021-10-14 14:35:11.357879,-161
2021-10-14 14:35:11.357888,-176
2021-10-14 14:35:11.357896,-161
2021-10-14 14:35:11.357905,-132
2021-10-14 14:35:11.357913,-34
2021-10-14 14:35:11.357921,238
2021-10-14 14:35:11.357930,596
2021-10-14 14:35:11.357938,650
2021-10-14 14:35:11.357947,61
2021-10-14 14:35:11.357955,-623
2021-10-14 14:35:11.357963,-478
2021-10-14 14:35:11.357972,-24
2021-10-14 14:35:11.357980,-66
2021-10-14 14:35:11.357988,-164
2021-10-14 14:35:11.357997,-66
2021-10-14 14:35:11.358005,-61
2021-10-14 14:35:11.582434,-90
2021-10-14 14:35:11.582453,-51
2021-10-14 14:35:11.582463,-31
2021-10-14 14:35:11.582472,-24
2021-10-14 14:35:11.582481,0
2021-10-14 14:35:11.582489,24
2021-10-14 14:35:11.582498,44
2021-10-14 14:35:11.582506,76
2021-10-14 14:35:11.582515,88
2021-10-14 14:35:11.582523,90
2021-10-14 14:35:11.582531,125
2021-10-14 14:35:11.582540,176
2021-10-14 14:35:11.582548,211
2021-10-14 14:35:11.582556,238
2021-10-14 14:35:11.582565,267
2021-10-14 14:35:11.582573,296
2021-10-14 14:35:11.582582,321
2021-10-14 14:35:11.582590,333
2021-10-14 14:35:11.582599,323
2021-10-14 14:35:11.582607,291
2021-10-14 14:35:11.582615,255
2021-10-14 14:35:11.582623,198
2021-10-14 14:35:11.582631,107
2021-10-14 14:35:11.582639,12
2021-10-14 14:35:11.582648,-80
2021-10-14 14:35:11.582656,-166
2021-10-14 14:35:11.582664,-215
2021-10-14 14:35:11.582672,-245
2021-10-14 14:35:11.582681,-279
2021-10-14 14:35:11.582689,-304
2021-10-14 14:35:11.852437,-296
2021-10-14 14:35:11.852457,-289
2021-10-14 14:35:11.852466,-299
2021-10-14 14:35:11.852475,-296
2021-10-14 14:35:11.852484,-277
2021-10-14 14:35:11.852492,-252
2021-10-14 14:35:11.852500,-235
2021-10-14 14:35:11.852509,-245
2021-10-14 14:35:11.852517,-262
2021-10-14 14:35:11.852526,-250
2021-10-14 14:35:11.852535,-230
2021-10-14 14:35:11.852543,-225
2021-10-14 14:35:11.852552,-220
2021-10-14 14:35:11.852560,-220
2021-10-14 14:35:11.852569,-225
2021-10-14 14:35:11.852577,-223
2021-10-14 14:35:11.852586,-223
2021-10-14 14:35:11.852594,-220
2021-10-14 14:35:11.852602,-218
2021-10-14 14:35:11.852611,-215
2021-10-14 14:35:11.852619,-220
2021-10-14 14:35:11.852627,-233
2021-10-14 14:35:11.852636,-245
2021-10-14 14:35:11.852644,-235
2021-10-14 14:35:11.852653,-211
2021-10-14 14:35:11.852661,-223
2021-10-14 14:35:11.852670,-262
2021-10-14 14:35:11.852678,-262
2021-10-14 14:35:11.852687,-225
2021-10-14 14:35:11.852695,-198
2021-10-14 14:35:12.077788,-181
2021-10-14 14:35:12.077810,-174
2021-10-14 14:35:12.077819,-179
2021-10-14 14:35:12.077828,-198
2021-10-14 14:35:12.077836,-211
2021-10-14 14:35:12.077845,-211
2021-10-14 14:35:12.077853,-218
2021-10-14 14:35:12.077862,-220
2021-10-14 14:35:12.077871,-208
2021-10-14 14:35:12.077879,-201
2021-10-14 14:35:12.077888,-208
2021-10-14 14:35:12.077896,-218
2021-10-14 14:35:12.077905,-215
2021-10-14 14:35:12.077913,-174
2021-10-14 14:35:12.077922,-34
2021-10-14 14:35:12.077931,262
2021-10-14 14:35:12.077939,554
2021-10-14 14:35:12.077948,446
2021-10-14 14:35:12.077956,-203
2021-10-14 14:35:12.077965,-628
2021-10-14 14:35:12.077973,-299
2021-10-14 14:35:12.077982,-41
2021-10-14 14:35:12.077990,-198
2021-10-14 14:35:12.077999,-203
2021-10-14 14:35:12.078007,-112
2021-10-14 14:35:12.078016,-149
2021-10-14 14:35:12.078024,-164
2021-10-14 14:35:12.078033,-127
2021-10-14 14:35:12.078041,-125
2021-10-14 14:35:12.078050,-122
2021-10-14 14:35:12.301450,-88
2021-10-14 14:35:12.301469,-63
2021-10-14 14:35:12.301478,-46
2021-10-14 14:35:12.301487,-24
2021-10-14 14:35:12.301495,2
2021-10-14 14:35:12.301504,29
2021-10-14 14:35:12.301512,46
2021-10-14 14:35:12.301521,76
2021-10-14 14:35:12.301529,117
2021-10-14 14:35:12.301537,147
2021-10-14 14:35:12.301546,176
2021-10-14 14:35:12.301554,215
2021-10-14 14:35:12.301562,223
2021-10-14 14:35:12.301571,213
2021-10-14 14:35:12.301579,220
2021-10-14 14:35:12.301588,211
2021-10-14 14:35:12.301596,164
2021-10-14 14:35:12.301605,85
2021-10-14 14:35:12.301613,-12
2021-10-14 14:35:12.301621,-83
2021-10-14 14:35:12.301630,-137
2021-10-14 14:35:12.301638,-201
2021-10-14 14:35:12.301646,-247
2021-10-14 14:35:12.301655,-257
2021-10-14 14:35:12.301663,-264
2021-10-14 14:35:12.301671,-267
2021-10-14 14:35:12.301680,-245
2021-10-14 14:35:12.301688,-233
2021-10-14 14:35:12.301696,-242
2021-10-14 14:35:12.301705,-235
2021-10-14 14:35:12.482370,-211
2021-10-14 14:35:12.482388,-193
2021-10-14 14:35:12.482398,-171
2021-10-14 14:35:12.482407,-157
2021-10-14 14:35:12.482416,-152
2021-10-14 14:35:12.482424,-149
2021-10-14 14:35:12.482433,-134
2021-10-14 14:35:12.482441,-120
2021-10-14 14:35:12.482449,-122
2021-10-14 14:35:12.482458,-117
2021-10-14 14:35:12.482467,-110
2021-10-14 14:35:12.482475,-112
2021-10-14 14:35:12.482484,-100
2021-10-14 14:35:12.482492,-76
2021-10-14 14:35:12.482501,-83
2021-10-14 14:35:12.482509,-98
2021-10-14 14:35:12.482517,-90
2021-10-14 14:35:12.482526,-83
2021-10-14 14:35:12.482534,-83
2021-10-14 14:35:12.482543,-76
2021-10-14 14:35:12.482551,-71
2021-10-14 14:35:12.482559,-66
2021-10-14 14:35:12.482568,-61
2021-10-14 14:35:12.482576,-58
2021-10-14 14:35:12.482585,-46
2021-10-14 14:35:12.482593,-26
2021-10-14 14:35:12.482601,-36
2021-10-14 14:35:12.482610,-53
2021-10-14 14:35:12.482618,-31
2021-10-14 14:35:12.482626,14
2021-10-14 14:35:12.752451,46
2021-10-14 14:35:12.752471,44
2021-10-14 14:35:12.752481,14
2021-10-14 14:35:12.752489,4
2021-10-14 14:35:12.752498,2
2021-10-14 14:35:12.752509,-17
2021-10-14 14:35:12.752518,-12
2021-10-14 14:35:12.752527,12
2021-10-14 14:35:12.752535,19
2021-10-14 14:35:12.752544,4
2021-10-14 14:35:12.752552,-12
2021-10-14 14:35:12.752561,-24
2021-10-14 14:35:12.752569,-7
2021-10-14 14:35:12.752578,78
2021-10-14 14:35:12.752586,291
2021-10-14 14:35:12.752594,635
2021-10-14 14:35:12.752603,856
2021-10-14 14:35:12.752611,500
2021-10-14 14:35:12.752619,-215
2021-10-14 14:35:12.752628,-314
2021-10-14 14:35:12.752636,83
2021-10-14 14:35:12.752645,90
2021-10-14 14:35:12.752653,-61
2021-10-14 14:35:12.752661,26
2021-10-14 14:35:12.752669,76
2021-10-14 14:35:12.752678,26
2021-10-14 14:35:12.752686,41
2021-10-14 14:35:12.752694,68
2021-10-14 14:35:12.752703,61
2021-10-14 14:35:12.752711,76
2021-10-14 14:35:12.977805,107
2021-10-14 14:35:12.977825,127
2021-10-14 14:35:12.977834,137
2021-10-14 14:35:12.977843,149
2021-10-14 14:35:12.977851,164
2021-10-14 14:35:12.977860,186
2021-10-14 14:35:12.977868,213
2021-10-14 14:35:12.977876,255
2021-10-14 14:35:12.977885,287
2021-10-14 14:35:12.977893,301
2021-10-14 14:35:12.977902,318
2021-10-14 14:35:12.977910,345
2021-10-14 14:35:12.977918,365
2021-10-14 14:35:12.977927,358
2021-10-14 14:35:12.977935,321
2021-10-14 14:35:12.977943,282
2021-10-14 14:35:12.977952,238
2021-10-14 14:35:12.977960,157
2021-10-14 14:35:12.977968,44
2021-10-14 14:35:12.977977,-49
2021-10-14 14:35:12.977985,-122
2021-10-14 14:35:12.977993,-188
2021-10-14 14:35:12.978002,-208
2021-10-14 14:35:12.978010,-211
2021-10-14 14:35:12.978018,-242
2021-10-14 14:35:12.978027,-260
2021-10-14 14:35:12.978035,-247
2021-10-14 14:35:12.978044,-250
2021-10-14 14:35:12.978052,-247
2021-10-14 14:35:12.978061,-233
2021-10-14 14:35:13.292793,-225
2021-10-14 14:35:13.292814,-211
2021-10-14 14:35:13.292824,-208
2021-10-14 14:35:13.292833,-228
2021-10-14 14:35:13.292841,-220
2021-10-14 14:35:13.292849,-186
2021-10-14 14:35:13.292858,-179
2021-10-14 14:35:13.292866,-196
2021-10-14 14:35:13.292874,-208
2021-10-14 14:35:13.292882,-211
2021-10-14 14:35:13.292891,-196
2021-10-14 14:35:13.292899,-176
2021-10-14 14:35:13.292907,-188
2021-10-14 14:35:13.292916,-196
2021-10-14 14:35:13.292924,-186
2021-10-14 14:35:13.292932,-201
2021-10-14 14:35:13.292940,-233
2021-10-14 14:35:13.292949,-245
2021-10-14 14:35:13.292957,-228
2021-10-14 14:35:13.292965,-220
2021-10-14 14:35:13.292973,-218
2021-10-14 14:35:13.292981,-186
2021-10-14 14:35:13.292990,-184
2021-10-14 14:35:13.292998,-223
2021-10-14 14:35:13.293006,-228
2021-10-14 14:35:13.293014,-193
2021-10-14 14:35:13.293022,-179
2021-10-14 14:35:13.293030,-179
2021-10-14 14:35:13.293039,-169
2021-10-14 14:35:13.293047,-149
2021-10-14 14:35:13.427445,-147
2021-10-14 14:35:13.427464,-169
2021-10-14 14:35:13.427473,-193
2021-10-14 14:35:13.427482,-184
2021-10-14 14:35:13.427490,-161
2021-10-14 14:35:13.427499,-171
2021-10-14 14:35:13.427507,-186
2021-10-14 14:35:13.427516,-179
2021-10-14 14:35:13.427524,-193
2021-10-14 14:35:13.427532,-211
2021-10-14 14:35:13.427541,-171
2021-10-14 14:35:13.427549,-44
2021-10-14 14:35:13.427558,211
2021-10-14 14:35:13.427566,463
2021-10-14 14:35:13.427575,377
2021-10-14 14:35:13.427583,-159
2021-10-14 14:35:13.427592,-591
2021-10-14 14:35:13.427600,-372
2021-10-14 14:35:13.427608,-34
2021-10-14 14:35:13.427617,-85
2021-10-14 14:35:13.427625,-142
2021-10-14 14:35:13.427634,-68
2021-10-14 14:35:13.427642,-68
2021-10-14 14:35:13.427650,-80
2021-10-14 14:35:13.427659,-46
2021-10-14 14:35:13.427667,-41
2021-10-14 14:35:13.427675,-51
2021-10-14 14:35:13.427684,-24
2021-10-14 14:35:13.427692,14
2021-10-14 14:35:13.427700,36
2021-10-14 14:35:13.652502,49
2021-10-14 14:35:13.652522,53
2021-10-14 14:35:13.652532,63
2021-10-14 14:35:13.652541,95
2021-10-14 14:35:13.652549,134
2021-10-14 14:35:13.652558,164
2021-10-14 14:35:13.652566,179
2021-10-14 14:35:13.652574,198
2021-10-14 14:35:13.652583,220
2021-10-14 14:35:13.652591,220
2021-10-14 14:35:13.652600,215
2021-10-14 14:35:13.652608,215
2021-10-14 14:35:13.652616,188
2021-10-14 14:35:13.652625,130
2021-10-14 14:35:13.652633,56
2021-10-14 14:35:13.652642,-39
2021-10-14 14:35:13.652650,-137
2021-10-14 14:35:13.652658,-203
2021-10-14 14:35:13.652667,-255
2021-10-14 14:35:13.652675,-311
2021-10-14 14:35:13.652684,-343
2021-10-14 14:35:13.652692,-353
2021-10-14 14:35:13.652700,-370
2021-10-14 14:35:13.652709,-385
2021-10-14 14:35:13.652717,-399
2021-10-14 14:35:13.652726,-402
2021-10-14 14:35:13.652734,-368
2021-10-14 14:35:13.652742,-343
2021-10-14 14:35:13.652750,-350
2021-10-14 14:35:13.652759,-338
2021-10-14 14:35:13.877779,-316
2021-10-14 14:35:13.877797,-306
2021-10-14 14:35:13.877807,-287
2021-10-14 14:35:13.877815,-269
2021-10-14 14:35:13.877824,-255
2021-10-14 14:35:13.877832,-240
2021-10-14 14:35:13.877840,-238
2021-10-14 14:35:13.877849,-240
2021-10-14 14:35:13.877857,-228
2021-10-14 14:35:13.877865,-220
2021-10-14 14:35:13.877873,-242
2021-10-14 14:35:13.877881,-257
2021-10-14 14:35:13.877889,-238
2021-10-14 14:35:13.877897,-228
2021-10-14 14:35:13.877905,-233
2021-10-14 14:35:13.877914,-218
2021-10-14 14:35:13.877922,-208
2021-10-14 14:35:13.877930,-215
2021-10-14 14:35:13.877938,-206
2021-10-14 14:35:13.877946,-191
2021-10-14 14:35:13.877954,-174
2021-10-14 14:35:13.877963,-147
2021-10-14 14:35:13.877971,-112
2021-10-14 14:35:13.877979,-125
2021-10-14 14:35:13.877987,-154
2021-10-14 14:35:13.877995,-139
2021-10-14 14:35:13.878003,-149
2021-10-14 14:35:13.878011,-186
2021-10-14 14:35:13.878019,-181
2021-10-14 14:35:13.878027,-159
2021-10-14 14:35:14.102472,-152
2021-10-14 14:35:14.102494,-137
2021-10-14 14:35:14.102503,-134
2021-10-14 14:35:14.102511,-132
2021-10-14 14:35:14.102520,-73
2021-10-14 14:35:14.102528,41
2021-10-14 14:35:14.102537,211
2021-10-14 14:35:14.102545,345
2021-10-14 14:35:14.102553,191
2021-10-14 14:35:14.102562,-255
2021-10-14 14:35:14.102570,-473
2021-10-14 14:35:14.102578,-188
2021-10-14 14:35:14.102587,14
2021-10-14 14:35:14.102595,-95
2021-10-14 14:35:14.102603,-105
2021-10-14 14:35:14.102612,-26
2021-10-14 14:35:14.102620,-36
2021-10-14 14:35:14.102628,-44
2021-10-14 14:35:14.102637,-2
2021-10-14 14:35:14.102645,24
2021-10-14 14:35:14.102653,22
2021-10-14 14:35:14.102662,24
2021-10-14 14:35:14.102670,44
2021-10-14 14:35:14.102678,71
2021-10-14 14:35:14.102687,103
2021-10-14 14:35:14.102695,127
2021-10-14 14:35:14.102703,137
2021-10-14 14:35:14.102712,152
2021-10-14 14:35:14.102720,181
2021-10-14 14:35:14.102728,206
2021-10-14 14:35:14.371702,238
2021-10-14 14:35:14.371722,272
2021-10-14 14:35:14.371732,272
2021-10-14 14:35:14.371740,252
2021-10-14 14:35:14.371749,257
2021-10-14 14:35:14.371757,257
2021-10-14 14:35:14.371766,208
2021-10-14 14:35:14.371774,147
2021-10-14 14:35:14.371782,73
2021-10-14 14:35:14.371791,-29
2021-10-14 14:35:14.371799,-105
2021-10-14 14:35:14.371807,-157
2021-10-14 14:35:14.371816,-242
2021-10-14 14:35:14.371824,-316
2021-10-14 14:35:14.371832,-309
2021-10-14 14:35:14.371840,-294
2021-10-14 14:35:14.371849,-314
2021-10-14 14:35:14.371857,-321
2021-10-14 14:35:14.371866,-301
2021-10-14 14:35:14.371874,-274
2021-10-14 14:35:14.371882,-272
2021-10-14 14:35:14.371891,-291
2021-10-14 14:35:14.371899,-282
2021-10-14 14:35:14.371907,-245
2021-10-14 14:35:14.371916,-252
2021-10-14 14:35:14.371924,-255
2021-10-14 14:35:14.371932,-215
2021-10-14 14:35:14.371941,-203
2021-10-14 14:35:14.371949,-228
2021-10-14 14:35:14.371957,-230
2021-10-14 14:35:14.597840,-186
2021-10-14 14:35:14.597859,-169
2021-10-14 14:35:14.597869,-208
2021-10-14 14:35:14.597878,-211
2021-10-14 14:35:14.597886,-176
2021-10-14 14:35:14.597895,-181
2021-10-14 14:35:14.597903,-196
2021-10-14 14:35:14.597912,-184
2021-10-14 14:35:14.597920,-169
2021-10-14 14:35:14.597928,-169
2021-10-14 14:35:14.597937,-193
2021-10-14 14:35:14.597945,-211
2021-10-14 14:35:14.597953,-176
2021-10-14 14:35:14.597962,-176
2021-10-14 14:35:14.597970,-211
2021-10-14 14:35:14.597979,-203
2021-10-14 14:35:14.597987,-181
2021-10-14 14:35:14.597996,-161
2021-10-14 14:35:14.598004,-147
2021-10-14 14:35:14.598012,-149
2021-10-14 14:35:14.598021,-147
2021-10-14 14:35:14.598029,-154
2021-10-14 14:35:14.598038,-186
2021-10-14 14:35:14.598046,-191
2021-10-14 14:35:14.598054,-166
2021-10-14 14:35:14.598063,-154
2021-10-14 14:35:14.598071,-154
2021-10-14 14:35:14.598079,-169
2021-10-14 14:35:14.598088,-166
2021-10-14 14:35:14.598096,-125
2021-10-14 14:35:14.777812,-73
2021-10-14 14:35:14.777831,51
2021-10-14 14:35:14.777841,260
2021-10-14 14:35:14.777850,299
2021-10-14 14:35:14.777858,0
2021-10-14 14:35:14.777867,-399
2021-10-14 14:35:14.777875,-441
2021-10-14 14:35:14.777884,-139
2021-10-14 14:35:14.777892,-34
2021-10-14 14:35:14.777901,-127
2021-10-14 14:35:14.777909,-115
2021-10-14 14:35:14.777917,-73
2021-10-14 14:35:14.777926,-71
2021-10-14 14:35:14.777934,-58
2021-10-14 14:35:14.777943,-53
2021-10-14 14:35:14.777951,-61
2021-10-14 14:35:14.777959,-36
2021-10-14 14:35:14.777968,2
2021-10-14 14:35:14.777976,4
2021-10-14 14:35:14.777984,7
2021-10-14 14:35:14.777992,31
2021-10-14 14:35:14.778001,39
2021-10-14 14:35:14.778009,53
2021-10-14 14:35:14.778017,100
2021-10-14 14:35:14.778025,122
2021-10-14 14:35:14.778034,134
2021-10-14 14:35:14.778042,179
2021-10-14 14:35:14.778050,201
2021-10-14 14:35:14.778059,206
2021-10-14 14:35:14.778067,228
2021-10-14 14:35:15.047894,240
2021-10-14 14:35:15.047914,223
2021-10-14 14:35:15.047924,184
2021-10-14 14:35:15.047932,110
2021-10-14 14:35:15.047941,24
2021-10-14 14:35:15.047950,-49
2021-10-14 14:35:15.047958,-134
2021-10-14 14:35:15.047967,-211
2021-10-14 14:35:15.047975,-247
2021-10-14 14:35:15.047984,-277
2021-10-14 14:35:15.047992,-311
2021-10-14 14:35:15.048001,-328
2021-10-14 14:35:15.048009,-323
2021-10-14 14:35:15.048018,-328
2021-10-14 14:35:15.048026,-331
2021-10-14 14:35:15.048035,-318
2021-10-14 14:35:15.048043,-304
2021-10-14 14:35:15.048052,-291
2021-10-14 14:35:15.048060,-282
2021-10-14 14:35:15.048068,-279
2021-10-14 14:35:15.048077,-272
2021-10-14 14:35:15.048085,-264
2021-10-14 14:35:15.048094,-262
2021-10-14 14:35:15.048102,-260
2021-10-14 14:35:15.048111,-247
2021-10-14 14:35:15.048119,-240
2021-10-14 14:35:15.048127,-238
2021-10-14 14:35:15.048136,-240
2021-10-14 14:35:15.048144,-238
2021-10-14 14:35:15.048152,-238
2021-10-14 14:35:15.317425,-235
2021-10-14 14:35:15.317444,-220
2021-10-14 14:35:15.317453,-225
2021-10-14 14:35:15.317462,-240
2021-10-14 14:35:15.317471,-238
2021-10-14 14:35:15.317479,-233
2021-10-14 14:35:15.317488,-225
2021-10-14 14:35:15.317496,-208
2021-10-14 14:35:15.317505,-223
2021-10-14 14:35:15.317513,-252
2021-10-14 14:35:15.317522,-245
2021-10-14 14:35:15.317530,-223
2021-10-14 14:35:15.317539,-233
2021-10-14 14:35:15.317547,-255
2021-10-14 14:35:15.317556,-250
2021-10-14 14:35:15.317564,-223
2021-10-14 14:35:15.317572,-193
2021-10-14 14:35:15.317581,-179
2021-10-14 14:35:15.317589,-166
2021-10-14 14:35:15.317598,-161
2021-10-14 14:35:15.317606,-171
2021-10-14 14:35:15.317614,-179
2021-10-14 14:35:15.317623,-179
2021-10-14 14:35:15.317631,-191
2021-10-14 14:35:15.317640,-206
2021-10-14 14:35:15.317648,-196
2021-10-14 14:35:15.317657,-181
2021-10-14 14:35:15.317665,-174
2021-10-14 14:35:15.317673,-169
2021-10-14 14:35:15.317682,-139
2021-10-14 14:35:15.497459,-46
2021-10-14 14:35:15.497479,137
2021-10-14 14:35:15.497488,301
2021-10-14 14:35:15.497496,233
2021-10-14 14:35:15.497504,-134
2021-10-14 14:35:15.497513,-476
2021-10-14 14:35:15.497520,-363
2021-10-14 14:35:15.497528,-73
2021-10-14 14:35:15.497536,-71
2021-10-14 14:35:15.497544,-110
2021-10-14 14:35:15.497552,-36
2021-10-14 14:35:15.497560,-39
2021-10-14 14:35:15.497568,-58
2021-10-14 14:35:15.497576,-14
2021-10-14 14:35:15.497584,-9
2021-10-14 14:35:15.497592,-19
2021-10-14 14:35:15.497599,14
2021-10-14 14:35:15.497607,46
2021-10-14 14:35:15.497615,46
2021-10-14 14:35:15.497622,61
2021-10-14 14:35:15.497630,95
2021-10-14 14:35:15.497638,110
2021-10-14 14:35:15.497646,122
2021-10-14 14:35:15.497654,171
2021-10-14 14:35:15.497662,223
2021-10-14 14:35:15.497670,242
2021-10-14 14:35:15.497678,260
2021-10-14 14:35:15.497686,282
2021-10-14 14:35:15.497693,299
2021-10-14 14:35:15.497702,316
2021-10-14 14:35:15.722544,306
2021-10-14 14:35:15.722563,269
2021-10-14 14:35:15.722573,240
2021-10-14 14:35:15.722581,208
2021-10-14 14:35:15.722590,125
2021-10-14 14:35:15.722598,26
2021-10-14 14:35:15.722607,-34
2021-10-14 14:35:15.722615,-95
2021-10-14 14:35:15.722624,-174
2021-10-14 14:35:15.722632,-215
2021-10-14 14:35:15.722641,-201
2021-10-14 14:35:15.722649,-174
2021-10-14 14:35:15.722657,-186
2021-10-14 14:35:15.722666,-238
2021-10-14 14:35:15.722674,-269
2021-10-14 14:35:15.722683,-252
2021-10-14 14:35:15.722691,-225
2021-10-14 14:35:15.722700,-218
2021-10-14 14:35:15.722708,-213
2021-10-14 14:35:15.722716,-188
2021-10-14 14:35:15.722725,-171
2021-10-14 14:35:15.722733,-166
2021-10-14 14:35:15.722741,-147
2021-10-14 14:35:15.722749,-134
2021-10-14 14:35:15.722758,-127
2021-10-14 14:35:15.722766,-105
2021-10-14 14:35:15.722774,-90
2021-10-14 14:35:15.722782,-90
2021-10-14 14:35:15.722791,-98
2021-10-14 14:35:15.722799,-105
2021-10-14 14:35:15.947470,-103
2021-10-14 14:35:15.947491,-93
2021-10-14 14:35:15.947500,-88
2021-10-14 14:35:15.947509,-90
2021-10-14 14:35:15.947517,-80
2021-10-14 14:35:15.947526,-68
2021-10-14 14:35:15.947534,-78
2021-10-14 14:35:15.947543,-98
2021-10-14 14:35:15.947601,-98
2021-10-14 14:35:15.947611,-83
2021-10-14 14:35:15.947619,-66
2021-10-14 14:35:15.947628,-76
2021-10-14 14:35:15.947636,-90
2021-10-14 14:35:15.947645,-93
2021-10-14 14:35:15.947653,-95
2021-10-14 14:35:15.947662,-83
2021-10-14 14:35:15.947670,-56
2021-10-14 14:35:15.947679,-44
2021-10-14 14:35:15.947687,-44
2021-10-14 14:35:15.947696,-41
2021-10-14 14:35:15.947704,-46
2021-10-14 14:35:15.947712,-61
2021-10-14 14:35:15.947721,-71
2021-10-14 14:35:15.947729,-68
2021-10-14 14:35:15.947738,-63
2021-10-14 14:35:15.947746,-56
2021-10-14 14:35:15.947754,-44
2021-10-14 14:35:15.947763,-44
2021-10-14 14:35:15.947771,-56
2021-10-14 14:35:15.947780,-44
2021-10-14 14:35:16.172831,39
2021-10-14 14:35:16.172851,282
2021-10-14 14:35:16.172861,586
2021-10-14 14:35:16.172869,608
2021-10-14 14:35:16.172878,117
2021-10-14 14:35:16.172887,-382
2021-10-14 14:35:16.172895,-230
2021-10-14 14:35:16.172904,85
2021-10-14 14:35:16.172912,2
2021-10-14 14:35:16.172920,-73
2021-10-14 14:35:16.172929,9
2021-10-14 14:35:16.172937,9
2021-10-14 14:35:16.172945,-19
2021-10-14 14:35:16.172954,22
2021-10-14 14:35:16.172962,46
2021-10-14 14:35:16.172970,39
2021-10-14 14:35:16.172979,49
2021-10-14 14:35:16.172987,73
2021-10-14 14:35:16.172995,98
2021-10-14 14:35:16.173004,125
2021-10-14 14:35:16.173012,144
2021-10-14 14:35:16.173020,154
2021-10-14 14:35:16.173029,164
2021-10-14 14:35:16.173037,186
2021-10-14 14:35:16.173045,218
2021-10-14 14:35:16.173053,240
2021-10-14 14:35:16.173062,255
2021-10-14 14:35:16.173070,274
2021-10-14 14:35:16.173078,291
2021-10-14 14:35:16.173087,294
2021-10-14 14:35:16.486541,284
2021-10-14 14:35:16.486561,257
2021-10-14 14:35:16.486571,215
2021-10-14 14:35:16.486579,149
2021-10-14 14:35:16.486588,66
2021-10-14 14:35:16.486596,-14
2021-10-14 14:35:16.486605,-83
2021-10-14 14:35:16.486613,-154
2021-10-14 14:35:16.486622,-208
2021-10-14 14:35:16.486630,-215
2021-10-14 14:35:16.486638,-225
2021-10-14 14:35:16.486647,-260
2021-10-14 14:35:16.486655,-274
2021-10-14 14:35:16.486664,-255
2021-10-14 14:35:16.486672,-235
2021-10-14 14:35:16.486680,-230
2021-10-14 14:35:16.486689,-215
2021-10-14 14:35:16.486697,-193
2021-10-14 14:35:16.486706,-174
2021-10-14 14:35:16.486714,-171
2021-10-14 14:35:16.486722,-171
2021-10-14 14:35:16.486731,-166
2021-10-14 14:35:16.486739,-157
2021-10-14 14:35:16.486748,-139
2021-10-14 14:35:16.486756,-122
2021-10-14 14:35:16.486765,-120
2021-10-14 14:35:16.486773,-122
