Time,ECG
2021-10-14 15:09:56.942914,-76
2021-10-14 15:09:56.942933,-76
2021-10-14 15:09:56.942943,-78
2021-10-14 15:09:56.942952,-83
2021-10-14 15:09:56.942960,-83
2021-10-14 15:09:56.942969,-90
2021-10-14 15:09:56.942977,-107
2021-10-14 15:09:56.942986,-103
2021-10-14 15:09:56.942994,-93
2021-10-14 15:09:56.943003,-93
2021-10-14 15:09:56.943012,-85
2021-10-14 15:09:56.943020,-78
2021-10-14 15:09:56.943029,-85
2021-10-14 15:09:56.943037,-80
2021-10-14 15:09:56.943046,-68
2021-10-14 15:09:56.943054,-68
2021-10-14 15:09:56.943062,-71
2021-10-14 15:09:56.943071,-76
2021-10-14 15:09:56.943080,-88
2021-10-14 15:09:56.943088,-76
2021-10-14 15:09:56.943097,-31
2021-10-14 15:09:56.943105,-2
2021-10-14 15:09:56.943113,0
2021-10-14 15:09:56.943122,0
2021-10-14 15:09:56.943130,-7
2021-10-14 15:09:56.943138,-14
2021-10-14 15:09:56.943147,-22
2021-10-14 15:09:56.943155,-36
2021-10-14 15:09:56.943164,-41
2021-10-14 15:09:56.943172,-34
2021-10-14 15:09:57.000866,-29
2021-10-14 15:09:57.000887,-34
2021-10-14 15:09:57.000896,-36
2021-10-14 15:09:57.000905,-34
2021-10-14 15:09:57.000913,7
2021-10-14 15:09:57.000922,166
2021-10-14 15:09:57.000931,502
2021-10-14 15:09:57.000939,841
2021-10-14 15:09:57.000948,687
2021-10-14 15:09:57.000956,-85
2021-10-14 15:09:57.000964,-490
2021-10-14 15:09:57.000973,-98
2021-10-14 15:09:57.000981,98
2021-10-14 15:09:57.000989,-83
2021-10-14 15:09:57.000998,-58
2021-10-14 15:09:57.001006,24
2021-10-14 15:09:57.001015,-17
2021-10-14 15:09:57.001024,-14
2021-10-14 15:09:57.001032,34
2021-10-14 15:09:57.001041,44
2021-10-14 15:09:57.001049,49
2021-10-14 15:09:57.001057,73
2021-10-14 15:09:57.001066,93
2021-10-14 15:09:57.001074,110
2021-10-14 15:09:57.001082,130
2021-10-14 15:09:57.001091,157
2021-10-14 15:09:57.001099,188
2021-10-14 15:09:57.001107,220
2021-10-14 15:09:57.001115,245
2021-10-14 15:09:57.001126,277
2021-10-14 15:09:57.224579,304
2021-10-14 15:09:57.224600,331
2021-10-14 15:09:57.224609,353
2021-10-14 15:09:57.224617,360
2021-10-14 15:09:57.224625,348
2021-10-14 15:09:57.224633,328
2021-10-14 15:09:57.224641,309
2021-10-14 15:09:57.224649,277
2021-10-14 15:09:57.224658,211
2021-10-14 15:09:57.224666,122
2021-10-14 15:09:57.224674,36
2021-10-14 15:09:57.224681,-49
2021-10-14 15:09:57.224688,-122
2021-10-14 15:09:57.224700,-161
2021-10-14 15:09:57.224708,-184
2021-10-14 15:09:57.224716,-201
2021-10-14 15:09:57.224724,-206
2021-10-14 15:09:57.224733,-198
2021-10-14 15:09:57.224741,-193
2021-10-14 15:09:57.224750,-186
2021-10-14 15:09:57.224759,-174
2021-10-14 15:09:57.224768,-166
2021-10-14 15:09:57.224776,-164
2021-10-14 15:09:57.224785,-149
2021-10-14 15:09:57.224794,-132
2021-10-14 15:09:57.224802,-122
2021-10-14 15:09:57.224811,-120
2021-10-14 15:09:57.224820,-115
2021-10-14 15:09:57.224829,-110
2021-10-14 15:09:57.224840,-103
2021-10-14 15:09:57.494914,-100
2021-10-14 15:09:57.494935,-107
2021-10-14 15:09:57.494945,-112
2021-10-14 15:09:57.494953,-112
2021-10-14 15:09:57.494962,-117
2021-10-14 15:09:57.494971,-112
2021-10-14 15:09:57.494979,-100
2021-10-14 15:09:57.494987,-95
2021-10-14 15:09:57.494996,-95
2021-10-14 15:09:57.495004,-107
2021-10-14 15:09:57.495013,-122
2021-10-14 15:09:57.495021,-115
2021-10-14 15:09:57.495030,-98
2021-10-14 15:09:57.495038,-93
2021-10-14 15:09:57.495047,-93
2021-10-14 15:09:57.495055,-93
2021-10-14 15:09:57.495064,-85
2021-10-14 15:09:57.495076,-71
2021-10-14 15:09:57.495084,-63
2021-10-14 15:09:57.495093,-73
2021-10-14 15:09:57.495102,-85
2021-10-14 15:09:57.495111,-80
2021-10-14 15:09:57.495119,-44
2021-10-14 15:09:57.495127,-4
2021-10-14 15:09:57.495136,9
2021-10-14 15:09:57.495144,9
2021-10-14 15:09:57.495153,-2
2021-10-14 15:09:57.495161,-26
2021-10-14 15:09:57.495170,-41
2021-10-14 15:09:57.495178,-36
2021-10-14 15:09:57.720926,-29
2021-10-14 15:09:57.720947,-31
2021-10-14 15:09:57.720956,-34
2021-10-14 15:09:57.720965,-41
2021-10-14 15:09:57.720974,-44
2021-10-14 15:09:57.720983,-39
2021-10-14 15:09:57.720991,2
2021-10-14 15:09:57.721004,166
2021-10-14 15:09:57.721013,500
2021-10-14 15:09:57.721021,807
2021-10-14 15:09:57.721030,613
2021-10-14 15:09:57.721038,-157
2021-10-14 15:09:57.721047,-534
2021-10-14 15:09:57.721055,-105
2021-10-14 15:09:57.721063,110
2021-10-14 15:09:57.721071,-83
2021-10-14 15:09:57.721080,-71
2021-10-14 15:09:57.721088,12
2021-10-14 15:09:57.721096,-34
2021-10-14 15:09:57.721105,-31
2021-10-14 15:09:57.721113,17
2021-10-14 15:09:57.721121,14
2021-10-14 15:09:57.721130,22
2021-10-14 15:09:57.721138,58
2021-10-14 15:09:57.721146,80
2021-10-14 15:09:57.721154,100
2021-10-14 15:09:57.721163,122
2021-10-14 15:09:57.721171,144
2021-10-14 15:09:57.721179,179
2021-10-14 15:09:57.721189,215
2021-10-14 15:09:57.945532,247
2021-10-14 15:09:57.945554,274
2021-10-14 15:09:57.945563,301
2021-10-14 15:09:57.945572,328
2021-10-14 15:09:57.945581,348
2021-10-14 15:09:57.945589,355
2021-10-14 15:09:57.945598,350
2021-10-14 15:09:57.945606,343
2021-10-14 15:09:57.945615,316
2021-10-14 15:09:57.945623,262
2021-10-14 15:09:57.945632,198
2021-10-14 15:09:57.945640,115
2021-10-14 15:09:57.945649,19
2021-10-14 15:09:57.945658,-66
2021-10-14 15:09:57.945667,-132
2021-10-14 15:09:57.945675,-181
2021-10-14 15:09:57.945684,-206
2021-10-14 15:09:57.945692,-213
2021-10-14 15:09:57.945700,-213
2021-10-14 15:09:57.945709,-213
2021-10-14 15:09:57.945718,-215
2021-10-14 15:09:57.945726,-213
2021-10-14 15:09:57.945735,-201
2021-10-14 15:09:57.945743,-181
2021-10-14 15:09:57.945756,-161
2021-10-14 15:09:57.945765,-149
2021-10-14 15:09:57.945773,-149
2021-10-14 15:09:57.945781,-144
2021-10-14 15:09:57.945790,-127
2021-10-14 15:09:57.945798,-120
2021-10-14 15:09:58.170281,-117
2021-10-14 15:09:58.170301,-115
2021-10-14 15:09:58.170310,-112
2021-10-14 15:09:58.170319,-112
2021-10-14 15:09:58.170327,-105
2021-10-14 15:09:58.170336,-100
2021-10-14 15:09:58.170344,-103
2021-10-14 15:09:58.170353,-105
2021-10-14 15:09:58.170361,-107
2021-10-14 15:09:58.170370,-107
2021-10-14 15:09:58.170378,-105
2021-10-14 15:09:58.170387,-98
2021-10-14 15:09:58.170395,-90
2021-10-14 15:09:58.170404,-93
2021-10-14 15:09:58.170412,-103
2021-10-14 15:09:58.170421,-103
2021-10-14 15:09:58.170429,-88
2021-10-14 15:09:58.170438,-83
2021-10-14 15:09:58.170446,-88
2021-10-14 15:09:58.170455,-90
2021-10-14 15:09:58.170464,-88
2021-10-14 15:09:58.170472,-83
2021-10-14 15:09:58.170482,-80
2021-10-14 15:09:58.170491,-85
2021-10-14 15:09:58.170499,-98
2021-10-14 15:09:58.170508,-107
2021-10-14 15:09:58.170516,-105
2021-10-14 15:09:58.170525,-80
2021-10-14 15:09:58.170533,-36
2021-10-14 15:09:58.170542,-9
2021-10-14 15:09:58.395505,-9
2021-10-14 15:09:58.395526,-14
2021-10-14 15:09:58.395536,-29
2021-10-14 15:09:58.395545,-49
2021-10-14 15:09:58.395554,-51
2021-10-14 15:09:58.395562,-44
2021-10-14 15:09:58.395571,-44
2021-10-14 15:09:58.395579,-44
2021-10-14 15:09:58.395588,-41
2021-10-14 15:09:58.395597,-51
2021-10-14 15:09:58.395605,-53
2021-10-14 15:09:58.395614,-22
2021-10-14 15:09:58.395623,83
2021-10-14 15:09:58.395631,350
2021-10-14 15:09:58.395640,696
2021-10-14 15:09:58.395649,706
2021-10-14 15:09:58.395658,56
2021-10-14 15:09:58.395667,-556
2021-10-14 15:09:58.395675,-287
2021-10-14 15:09:58.395684,103
2021-10-14 15:09:58.395692,-26
2021-10-14 15:09:58.395701,-90
2021-10-14 15:09:58.395709,22
2021-10-14 15:09:58.395717,9
2021-10-14 15:09:58.395731,-19
2021-10-14 15:09:58.395740,34
2021-10-14 15:09:58.395748,56
2021-10-14 15:09:58.395757,49
2021-10-14 15:09:58.395765,66
2021-10-14 15:09:58.395773,95
2021-10-14 15:09:58.620527,115
2021-10-14 15:09:58.620549,137
2021-10-14 15:09:58.620559,166
2021-10-14 15:09:58.620568,193
2021-10-14 15:09:58.620576,225
2021-10-14 15:09:58.620585,260
2021-10-14 15:09:58.620594,289
2021-10-14 15:09:58.620603,318
2021-10-14 15:09:58.620611,348
2021-10-14 15:09:58.620620,370
2021-10-14 15:09:58.620628,380
2021-10-14 15:09:58.620637,370
2021-10-14 15:09:58.620645,353
2021-10-14 15:09:58.620654,341
2021-10-14 15:09:58.620663,314
2021-10-14 15:09:58.620671,245
2021-10-14 15:09:58.620680,152
2021-10-14 15:09:58.620689,61
2021-10-14 15:09:58.620697,-26
2021-10-14 15:09:58.620706,-100
2021-10-14 15:09:58.620714,-154
2021-10-14 15:09:58.620722,-186
2021-10-14 15:09:58.620731,-203
2021-10-14 15:09:58.620739,-211
2021-10-14 15:09:58.620748,-211
2021-10-14 15:09:58.620756,-201
2021-10-14 15:09:58.620765,-186
2021-10-14 15:09:58.620773,-176
2021-10-14 15:09:58.620781,-176
2021-10-14 15:09:58.620790,-179
2021-10-14 15:09:58.845885,-166
2021-10-14 15:09:58.845907,-149
2021-10-14 15:09:58.845916,-139
2021-10-14 15:09:58.845925,-132
2021-10-14 15:09:58.845933,-125
2021-10-14 15:09:58.845942,-125
2021-10-14 15:09:58.845951,-120
2021-10-14 15:09:58.845959,-110
2021-10-14 15:09:58.845968,-107
2021-10-14 15:09:58.845976,-105
2021-10-14 15:09:58.845985,-100
2021-10-14 15:09:58.845993,-95
2021-10-14 15:09:58.846002,-95
2021-10-14 15:09:58.846010,-95
2021-10-14 15:09:58.846019,-100
2021-10-14 15:09:58.846027,-105
2021-10-14 15:09:58.846035,-105
2021-10-14 15:09:58.846044,-105
2021-10-14 15:09:58.846052,-100
2021-10-14 15:09:58.846061,-93
2021-10-14 15:09:58.846069,-93
2021-10-14 15:09:58.846078,-90
2021-10-14 15:09:58.846086,-83
2021-10-14 15:09:58.846095,-78
2021-10-14 15:09:58.846103,-68
2021-10-14 15:09:58.846111,-61
2021-10-14 15:09:58.846120,-61
2021-10-14 15:09:58.846128,-58
2021-10-14 15:09:58.846137,-49
2021-10-14 15:09:58.846145,-44
2021-10-14 15:09:59.070880,-41
2021-10-14 15:09:59.070901,-34
2021-10-14 15:09:59.070911,-29
2021-10-14 15:09:59.070920,-39
2021-10-14 15:09:59.070928,-63
2021-10-14 15:09:59.070937,-68
2021-10-14 15:09:59.070946,-22
2021-10-14 15:09:59.070954,26
2021-10-14 15:09:59.070963,29
2021-10-14 15:09:59.070972,19
2021-10-14 15:09:59.070985,19
2021-10-14 15:09:59.070993,9
2021-10-14 15:09:59.071002,-7
2021-10-14 15:09:59.071011,-4
2021-10-14 15:09:59.071019,0
2021-10-14 15:09:59.071027,-9
2021-10-14 15:09:59.071036,-26
2021-10-14 15:09:59.071044,-29
2021-10-14 15:09:59.071053,-22
2021-10-14 15:09:59.071061,-12
2021-10-14 15:09:59.071070,29
2021-10-14 15:09:59.071078,198
2021-10-14 15:09:59.071087,542
2021-10-14 15:09:59.071095,863
2021-10-14 15:09:59.071104,647
2021-10-14 15:09:59.071112,-130
2021-10-14 15:09:59.071120,-449
2021-10-14 15:09:59.071129,-34
2021-10-14 15:09:59.071137,103
2021-10-14 15:09:59.071146,-78
2021-10-14 15:09:59.384217,-24
2021-10-14 15:09:59.384239,51
2021-10-14 15:09:59.384249,-4
2021-10-14 15:09:59.384258,-2
2021-10-14 15:09:59.384266,34
2021-10-14 15:09:59.384275,26
2021-10-14 15:09:59.384283,41
2021-10-14 15:09:59.384292,76
2021-10-14 15:09:59.384300,93
2021-10-14 15:09:59.384309,103
2021-10-14 15:09:59.384317,117
2021-10-14 15:09:59.384326,142
2021-10-14 15:09:59.384334,179
2021-10-14 15:09:59.384342,215
2021-10-14 15:09:59.384351,245
2021-10-14 15:09:59.384359,269
2021-10-14 15:09:59.384368,296
2021-10-14 15:09:59.384376,321
2021-10-14 15:09:59.384385,336
2021-10-14 15:09:59.384393,348
2021-10-14 15:09:59.384402,350
2021-10-14 15:09:59.384410,333
2021-10-14 15:09:59.384418,309
2021-10-14 15:09:59.384427,272
2021-10-14 15:09:59.384435,203
2021-10-14 15:09:59.384452,110
2021-10-14 15:09:59.384461,24
2021-10-14 15:09:59.384469,-51
2021-10-14 15:09:59.384477,-115
2021-10-14 15:09:59.384486,-149
2021-10-14 15:09:59.565518,-169
2021-10-14 15:09:59.565540,-186
2021-10-14 15:09:59.565549,-198
2021-10-14 15:09:59.565558,-206
2021-10-14 15:09:59.565567,-206
2021-10-14 15:09:59.565575,-193
2021-10-14 15:09:59.565584,-181
2021-10-14 15:09:59.565592,-171
2021-10-14 15:09:59.565601,-164
2021-10-14 15:09:59.565609,-157
2021-10-14 15:09:59.565618,-144
2021-10-14 15:09:59.565626,-127
2021-10-14 15:09:59.565635,-120
2021-10-14 15:09:59.565643,-115
2021-10-14 15:09:59.565652,-107
2021-10-14 15:09:59.565660,-107
2021-10-14 15:09:59.565669,-105
2021-10-14 15:09:59.565677,-95
2021-10-14 15:09:59.565686,-88
2021-10-14 15:09:59.565694,-90
2021-10-14 15:09:59.565702,-103
2021-10-14 15:09:59.565711,-120
2021-10-14 15:09:59.565719,-115
2021-10-14 15:09:59.565728,-103
2021-10-14 15:09:59.565736,-95
2021-10-14 15:09:59.565745,-95
2021-10-14 15:09:59.565753,-100
2021-10-14 15:09:59.565761,-103
2021-10-14 15:09:59.565770,-93
2021-10-14 15:09:59.565778,-83
2021-10-14 15:09:59.834933,-83
2021-10-14 15:09:59.834954,-80
2021-10-14 15:09:59.834964,-76
2021-10-14 15:09:59.834973,-78
2021-10-14 15:09:59.834982,-76
2021-10-14 15:09:59.834990,-61
2021-10-14 15:09:59.834999,-51
2021-10-14 15:09:59.835007,-56
2021-10-14 15:09:59.835016,-71
2021-10-14 15:09:59.835024,-78
2021-10-14 15:09:59.835033,-80
2021-10-14 15:09:59.835042,-78
2021-10-14 15:09:59.835050,-68
2021-10-14 15:09:59.835059,-66
2021-10-14 15:09:59.835067,-76
2021-10-14 15:09:59.835076,-78
2021-10-14 15:09:59.835087,-76
2021-10-14 15:09:59.835096,-76
2021-10-14 15:09:59.835104,-71
2021-10-14 15:09:59.835113,-49
2021-10-14 15:09:59.835121,-26
2021-10-14 15:09:59.835130,-22
2021-10-14 15:09:59.835138,-24
2021-10-14 15:09:59.835147,-36
2021-10-14 15:09:59.835155,-56
2021-10-14 15:09:59.835163,-76
2021-10-14 15:09:59.835172,-85
2021-10-14 15:09:59.835180,-93
2021-10-14 15:09:59.835189,-85
2021-10-14 15:09:59.835197,-68
2021-10-14 15:10:00.059901,-61
2021-10-14 15:10:00.059922,-66
2021-10-14 15:10:00.059932,-63
2021-10-14 15:10:00.059941,-14
2021-10-14 15:10:00.059949,171
2021-10-14 15:10:00.059958,529
2021-10-14 15:10:00.059967,841
2021-10-14 15:10:00.059975,618
2021-10-14 15:10:00.059984,-181
2021-10-14 15:10:00.059993,-527
2021-10-14 15:10:00.060001,-71
2021-10-14 15:10:00.060010,120
2021-10-14 15:10:00.060018,-76
2021-10-14 15:10:00.060027,-53
2021-10-14 15:10:00.060036,19
2021-10-14 15:10:00.060044,-17
2021-10-14 15:10:00.060053,2
2021-10-14 15:10:00.060061,46
2021-10-14 15:10:00.060070,41
2021-10-14 15:10:00.060078,49
2021-10-14 15:10:00.060087,78
2021-10-14 15:10:00.060095,98
2021-10-14 15:10:00.060104,115
2021-10-14 15:10:00.060112,139
2021-10-14 15:10:00.060121,161
2021-10-14 15:10:00.060129,186
2021-10-14 15:10:00.060138,218
2021-10-14 15:10:00.060146,247
2021-10-14 15:10:00.060155,279
2021-10-14 15:10:00.060163,326
2021-10-14 15:10:00.240943,360
2021-10-14 15:10:00.240966,370
2021-10-14 15:10:00.240976,375
2021-10-14 15:10:00.240984,380
2021-10-14 15:10:00.240993,372
2021-10-14 15:10:00.241001,355
2021-10-14 15:10:00.241009,316
2021-10-14 15:10:00.241017,240
2021-10-14 15:10:00.241025,142
2021-10-14 15:10:00.241033,46
2021-10-14 15:10:00.241042,-39
2021-10-14 15:10:00.241050,-107
2021-10-14 15:10:00.241058,-161
2021-10-14 15:10:00.241068,-201
2021-10-14 15:10:00.241100,-213
2021-10-14 15:10:00.241115,-225
2021-10-14 15:10:00.241123,-247
2021-10-14 15:10:00.241132,-242
2021-10-14 15:10:00.241140,-223
2021-10-14 15:10:00.241147,-225
2021-10-14 15:10:00.241155,-218
2021-10-14 15:10:00.241163,-191
2021-10-14 15:10:00.241171,-181
2021-10-14 15:10:00.241178,-181
2021-10-14 15:10:00.241186,-176
2021-10-14 15:10:00.241193,-169
2021-10-14 15:10:00.241202,-161
2021-10-14 15:10:00.241210,-152
2021-10-14 15:10:00.241219,-139
2021-10-14 15:10:00.241227,-130
2021-10-14 15:10:00.510539,-127
2021-10-14 15:10:00.510563,-127
2021-10-14 15:10:00.510573,-122
2021-10-14 15:10:00.510581,-117
2021-10-14 15:10:00.510590,-112
2021-10-14 15:10:00.510599,-117
2021-10-14 15:10:00.510607,-132
2021-10-14 15:10:00.510616,-130
2021-10-14 15:10:00.510624,-117
2021-10-14 15:10:00.510633,-117
2021-10-14 15:10:00.510641,-110
2021-10-14 15:10:00.510650,-105
2021-10-14 15:10:00.510658,-110
2021-10-14 15:10:00.510667,-107
2021-10-14 15:10:00.510675,-93
2021-10-14 15:10:00.510683,-88
2021-10-14 15:10:00.510692,-88
2021-10-14 15:10:00.510700,-85
2021-10-14 15:10:00.510709,-85
2021-10-14 15:10:00.510717,-83
2021-10-14 15:10:00.510726,-76
2021-10-14 15:10:00.510734,-78
2021-10-14 15:10:00.510743,-80
2021-10-14 15:10:00.510751,-76
2021-10-14 15:10:00.510759,-78
2021-10-14 15:10:00.510768,-80
2021-10-14 15:10:00.510776,-71
2021-10-14 15:10:00.510785,-73
2021-10-14 15:10:00.510793,-85
2021-10-14 15:10:00.510801,-95
2021-10-14 15:10:00.735283,-105
2021-10-14 15:10:00.735312,-93
2021-10-14 15:10:00.735322,-56
2021-10-14 15:10:00.735330,-26
2021-10-14 15:10:00.735339,-17
2021-10-14 15:10:00.735347,-9
2021-10-14 15:10:00.735356,-17
2021-10-14 15:10:00.735364,-41
2021-10-14 15:10:00.735372,-61
2021-10-14 15:10:00.735381,-61
2021-10-14 15:10:00.735389,-46
2021-10-14 15:10:00.735398,-46
2021-10-14 15:10:00.735406,-56
2021-10-14 15:10:00.735415,-46
2021-10-14 15:10:00.735423,-36
2021-10-14 15:10:00.735432,-26
2021-10-14 15:10:00.735440,39
2021-10-14 15:10:00.735454,245
2021-10-14 15:10:00.735463,601
2021-10-14 15:10:00.735472,848
2021-10-14 15:10:00.735480,490
2021-10-14 15:10:00.735489,-309
2021-10-14 15:10:00.735497,-468
2021-10-14 15:10:00.735506,4
2021-10-14 15:10:00.735514,80
2021-10-14 15:10:00.735523,-88
2021-10-14 15:10:00.735531,-7
2021-10-14 15:10:00.735540,49
2021-10-14 15:10:00.735548,0
2021-10-14 15:10:00.735557,22
2021-10-14 15:10:01.094314,58
2021-10-14 15:10:01.094335,53
2021-10-14 15:10:01.094344,66
2021-10-14 15:10:01.094353,90
2021-10-14 15:10:01.094362,103
2021-10-14 15:10:01.094370,117
2021-10-14 15:10:01.094379,144
2021-10-14 15:10:01.094387,179
2021-10-14 15:10:01.094396,208
2021-10-14 15:10:01.094404,240
2021-10-14 15:10:01.094413,277
2021-10-14 15:10:01.094421,309
2021-10-14 15:10:01.094429,343
2021-10-14 15:10:01.094438,380
2021-10-14 15:10:01.094447,399
2021-10-14 15:10:01.094455,404
2021-10-14 15:10:01.094464,404
2021-10-14 15:10:01.094472,385
2021-10-14 15:10:01.094480,360
2021-10-14 15:10:01.094489,318
2021-10-14 15:10:01.094497,240
2021-10-14 15:10:01.094506,134
2021-10-14 15:10:01.094514,34
2021-10-14 15:10:01.094522,-44
2021-10-14 15:10:01.094531,-98
2021-10-14 15:10:01.094539,-137
2021-10-14 15:10:01.094548,-171
2021-10-14 15:10:01.094556,-191
2021-10-14 15:10:01.094565,-193
2021-10-14 15:10:01.094573,-188
2021-10-14 15:10:01.184919,-184
2021-10-14 15:10:01.184939,-181
2021-10-14 15:10:01.184949,-179
2021-10-14 15:10:01.184957,-171
2021-10-14 15:10:01.184966,-159
2021-10-14 15:10:01.184975,-152
2021-10-14 15:10:01.184983,-137
2021-10-14 15:10:01.184993,-120
2021-10-14 15:10:01.185002,-107
2021-10-14 15:10:01.185010,-105
2021-10-14 15:10:01.185019,-95
2021-10-14 15:10:01.185027,-83
2021-10-14 15:10:01.185036,-83
2021-10-14 15:10:01.185044,-88
2021-10-14 15:10:01.185053,-83
2021-10-14 15:10:01.185061,-76
2021-10-14 15:10:01.185069,-76
2021-10-14 15:10:01.185078,-71
2021-10-14 15:10:01.185086,-63
2021-10-14 15:10:01.185094,-63
2021-10-14 15:10:01.185103,-63
2021-10-14 15:10:01.185111,-61
2021-10-14 15:10:01.185120,-61
2021-10-14 15:10:01.185128,-63
2021-10-14 15:10:01.185136,-66
2021-10-14 15:10:01.185145,-63
2021-10-14 15:10:01.185153,-71
2021-10-14 15:10:01.185161,-98
2021-10-14 15:10:01.185170,-105
2021-10-14 15:10:01.185183,-95
2021-10-14 15:10:01.589061,-95
2021-10-14 15:10:01.589083,-105
2021-10-14 15:10:01.589093,-105
2021-10-14 15:10:01.589102,-107
2021-10-14 15:10:01.589111,-115
2021-10-14 15:10:01.589119,-110
2021-10-14 15:10:01.589128,-100
2021-10-14 15:10:01.589136,-95
2021-10-14 15:10:01.589145,-90
2021-10-14 15:10:01.589153,-103
2021-10-14 15:10:01.589162,-110
2021-10-14 15:10:01.589170,-90
2021-10-14 15:10:01.589179,-78
2021-10-14 15:10:01.589187,-80
2021-10-14 15:10:01.589196,-88
2021-10-14 15:10:01.589204,-98
2021-10-14 15:10:01.589213,-110
2021-10-14 15:10:01.589222,-107
2021-10-14 15:10:01.589230,-80
2021-10-14 15:10:01.589238,-41
2021-10-14 15:10:01.589247,-24
2021-10-14 15:10:01.589255,-34
2021-10-14 15:10:01.589263,-34
2021-10-14 15:10:01.589272,-24
2021-10-14 15:10:01.589281,-31
2021-10-14 15:10:01.589289,-51
2021-10-14 15:10:01.589298,-58
2021-10-14 15:10:01.589307,-51
2021-10-14 15:10:01.589315,-41
2021-10-14 15:10:01.589323,-36
2021-10-14 15:10:01.679886,-34
2021-10-14 15:10:01.679906,-34
2021-10-14 15:10:01.679916,-22
2021-10-14 15:10:01.679948,68
2021-10-14 15:10:01.679966,343
2021-10-14 15:10:01.679976,740
2021-10-14 15:10:01.679984,890
2021-10-14 15:10:01.679993,345
2021-10-14 15:10:01.680000,-409
2021-10-14 15:10:01.680008,-338
2021-10-14 15:10:01.680016,100
2021-10-14 15:10:01.680023,29
2021-10-14 15:10:01.680031,-93
2021-10-14 15:10:01.680039,22
2021-10-14 15:10:01.680047,34
2021-10-14 15:10:01.680071,-19
2021-10-14 15:10:01.680080,22
2021-10-14 15:10:01.680087,61
2021-10-14 15:10:01.680094,63
2021-10-14 15:10:01.680102,88
2021-10-14 15:10:01.680109,120
2021-10-14 15:10:01.680117,125
2021-10-14 15:10:01.680126,137
2021-10-14 15:10:01.680134,169
2021-10-14 15:10:01.680142,206
2021-10-14 15:10:01.680151,235
2021-10-14 15:10:01.680159,260
2021-10-14 15:10:01.680168,291
2021-10-14 15:10:01.680176,336
2021-10-14 15:10:01.680184,370
2021-10-14 15:10:01.815538,392
2021-10-14 15:10:01.815558,417
2021-10-14 15:10:01.815568,417
2021-10-14 15:10:01.815576,397
2021-10-14 15:10:01.815585,387
2021-10-14 15:10:01.815593,372
2021-10-14 15:10:01.815602,321
2021-10-14 15:10:01.815611,230
2021-10-14 15:10:01.815619,117
2021-10-14 15:10:01.815627,19
2021-10-14 15:10:01.815636,-46
2021-10-14 15:10:01.815645,-103
2021-10-14 15:10:01.815653,-147
2021-10-14 15:10:01.815662,-171
2021-10-14 15:10:01.815670,-184
2021-10-14 15:10:01.815679,-188
2021-10-14 15:10:01.815687,-188
2021-10-14 15:10:01.815695,-181
2021-10-14 15:10:01.815704,-174
2021-10-14 15:10:01.815713,-169
2021-10-14 15:10:01.815728,-169
2021-10-14 15:10:01.815737,-157
2021-10-14 15:10:01.815745,-130
2021-10-14 15:10:01.815753,-117
2021-10-14 15:10:01.815762,-117
2021-10-14 15:10:01.815771,-112
2021-10-14 15:10:01.815779,-105
2021-10-14 15:10:01.815788,-98
2021-10-14 15:10:01.815796,-95
2021-10-14 15:10:01.815805,-95
2021-10-14 15:10:02.130893,-88
2021-10-14 15:10:02.130913,-88
2021-10-14 15:10:02.130923,-93
2021-10-14 15:10:02.130932,-90
2021-10-14 15:10:02.130941,-93
2021-10-14 15:10:02.130949,-95
2021-10-14 15:10:02.130958,-100
2021-10-14 15:10:02.130966,-107
2021-10-14 15:10:02.130975,-107
2021-10-14 15:10:02.130984,-107
2021-10-14 15:10:02.130992,-122
2021-10-14 15:10:02.131001,-132
2021-10-14 15:10:02.131009,-122
2021-10-14 15:10:02.131018,-117
2021-10-14 15:10:02.131027,-117
2021-10-14 15:10:02.131035,-112
2021-10-14 15:10:02.131044,-107
2021-10-14 15:10:02.131052,-103
2021-10-14 15:10:02.131061,-98
2021-10-14 15:10:02.131069,-95
2021-10-14 15:10:02.131078,-90
2021-10-14 15:10:02.131086,-83
2021-10-14 15:10:02.131095,-80
2021-10-14 15:10:02.131103,-71
2021-10-14 15:10:02.131112,-63
2021-10-14 15:10:02.131120,-68
2021-10-14 15:10:02.131129,-66
2021-10-14 15:10:02.131137,-51
2021-10-14 15:10:02.131146,-41
2021-10-14 15:10:02.131154,-39
2021-10-14 15:10:02.265527,-46
2021-10-14 15:10:02.265546,-51
2021-10-14 15:10:02.265556,-44
2021-10-14 15:10:02.265564,-24
2021-10-14 15:10:02.265573,7
2021-10-14 15:10:02.265582,24
2021-10-14 15:10:02.265590,14
2021-10-14 15:10:02.265599,-4
2021-10-14 15:10:02.265607,-22
2021-10-14 15:10:02.265616,-34
2021-10-14 15:10:02.265624,-36
2021-10-14 15:10:02.265633,-36
2021-10-14 15:10:02.265642,-36
2021-10-14 15:10:02.265650,-34
2021-10-14 15:10:02.265659,-26
2021-10-14 15:10:02.265667,-24
2021-10-14 15:10:02.265676,-19
2021-10-14 15:10:02.265684,9
2021-10-14 15:10:02.265693,134
2021-10-14 15:10:02.265701,453
2021-10-14 15:10:02.265710,875
2021-10-14 15:10:02.265718,939
2021-10-14 15:10:02.265727,279
2021-10-14 15:10:02.265735,-372
2021-10-14 15:10:02.265744,-166
2021-10-14 15:10:02.265752,149
2021-10-14 15:10:02.265761,0
2021-10-14 15:10:02.265769,-56
2021-10-14 15:10:02.265778,44
2021-10-14 15:10:02.265786,17
2021-10-14 15:10:02.580568,-4
2021-10-14 15:10:02.580589,56
2021-10-14 15:10:02.580598,85
2021-10-14 15:10:02.580607,78
2021-10-14 15:10:02.580616,100
2021-10-14 15:10:02.580624,127
2021-10-14 15:10:02.580633,139
2021-10-14 15:10:02.580641,149
2021-10-14 15:10:02.580649,157
2021-10-14 15:10:02.580658,174
2021-10-14 15:10:02.580667,203
2021-10-14 15:10:02.580675,238
2021-10-14 15:10:02.580684,274
2021-10-14 15:10:02.580693,314
2021-10-14 15:10:02.580701,338
2021-10-14 15:10:02.580709,355
2021-10-14 15:10:02.580718,375
2021-10-14 15:10:02.580726,382
2021-10-14 15:10:02.580734,375
2021-10-14 15:10:02.580742,363
2021-10-14 15:10:02.580751,336
2021-10-14 15:10:02.580759,274
2021-10-14 15:10:02.580771,193
2021-10-14 15:10:02.580779,107
2021-10-14 15:10:02.580788,26
2021-10-14 15:10:02.580796,-49
2021-10-14 15:10:02.580804,-110
2021-10-14 15:10:02.580813,-147
2021-10-14 15:10:02.580822,-164
2021-10-14 15:10:02.580830,-171
2021-10-14 15:10:02.715810,-166
2021-10-14 15:10:02.715830,-161
2021-10-14 15:10:02.715839,-157
2021-10-14 15:10:02.715848,-154
2021-10-14 15:10:02.715856,-154
2021-10-14 15:10:02.715865,-147
2021-10-14 15:10:02.715873,-132
2021-10-14 15:10:02.715882,-120
2021-10-14 15:10:02.715890,-115
2021-10-14 15:10:02.715899,-117
2021-10-14 15:10:02.715907,-112
2021-10-14 15:10:02.715916,-105
2021-10-14 15:10:02.715924,-105
2021-10-14 15:10:02.715933,-115
2021-10-14 15:10:02.715941,-122
2021-10-14 15:10:02.715949,-130
2021-10-14 15:10:02.715958,-144
2021-10-14 15:10:02.715966,-144
2021-10-14 15:10:02.715974,-127
2021-10-14 15:10:02.715983,-115
2021-10-14 15:10:02.715991,-120
2021-10-14 15:10:02.716000,-127
2021-10-14 15:10:02.716008,-134
2021-10-14 15:10:02.716016,-137
2021-10-14 15:10:02.716025,-130
2021-10-14 15:10:02.716033,-120
2021-10-14 15:10:02.716041,-115
2021-10-14 15:10:02.716050,-112
2021-10-14 15:10:02.716058,-117
2021-10-14 15:10:02.716066,-115
2021-10-14 15:10:02.940914,-110
2021-10-14 15:10:02.940935,-107
2021-10-14 15:10:02.940944,-107
2021-10-14 15:10:02.940953,-107
2021-10-14 15:10:02.940962,-112
2021-10-14 15:10:02.940970,-112
2021-10-14 15:10:02.940979,-95
2021-10-14 15:10:02.940988,-88
2021-10-14 15:10:02.940996,-95
2021-10-14 15:10:02.941005,-90
2021-10-14 15:10:02.941013,-83
2021-10-14 15:10:02.941022,-95
2021-10-14 15:10:02.941030,-107
2021-10-14 15:10:02.941039,-90
2021-10-14 15:10:02.941047,-46
2021-10-14 15:10:02.941056,-22
2021-10-14 15:10:02.941064,-24
2021-10-14 15:10:02.941073,-24
2021-10-14 15:10:02.941081,-31
2021-10-14 15:10:02.941090,-56
2021-10-14 15:10:02.941098,-73
2021-10-14 15:10:02.941107,-76
2021-10-14 15:10:02.941115,-68
2021-10-14 15:10:02.941123,-61
2021-10-14 15:10:02.941132,-53
2021-10-14 15:10:02.941140,-53
2021-10-14 15:10:02.941149,-58
2021-10-14 15:10:02.941157,-53
2021-10-14 15:10:02.941165,19
2021-10-14 15:10:02.941174,255
2021-10-14 15:10:03.255270,623
2021-10-14 15:10:03.255291,861
2021-10-14 15:10:03.255300,532
2021-10-14 15:10:03.255308,-233
2021-10-14 15:10:03.255316,-441
2021-10-14 15:10:03.255324,-29
2021-10-14 15:10:03.255331,53
2021-10-14 15:10:03.255338,-105
2021-10-14 15:10:03.255346,-44
2021-10-14 15:10:03.255353,4
2021-10-14 15:10:03.255361,-46
2021-10-14 15:10:03.255368,-17
2021-10-14 15:10:03.255375,31
2021-10-14 15:10:03.255383,2
2021-10-14 15:10:03.255390,-9
2021-10-14 15:10:03.255398,31
2021-10-14 15:10:03.255405,56
2021-10-14 15:10:03.255413,66
2021-10-14 15:10:03.255421,98
2021-10-14 15:10:03.255428,117
2021-10-14 15:10:03.255436,112
2021-10-14 15:10:03.255443,127
2021-10-14 15:10:03.255450,166
2021-10-14 15:10:03.255457,198
2021-10-14 15:10:03.255465,225
2021-10-14 15:10:03.255473,257
2021-10-14 15:10:03.255481,272
2021-10-14 15:10:03.255490,267
2021-10-14 15:10:03.255498,260
2021-10-14 15:10:03.255506,260
2021-10-14 15:10:03.479291,252
2021-10-14 15:10:03.479310,213
2021-10-14 15:10:03.479320,152
2021-10-14 15:10:03.479329,90
2021-10-14 15:10:03.479338,17
2021-10-14 15:10:03.479349,-66
2021-10-14 15:10:03.479358,-132
2021-10-14 15:10:03.479366,-164
2021-10-14 15:10:03.479375,-196
2021-10-14 15:10:03.479384,-235
2021-10-14 15:10:03.479392,-238
2021-10-14 15:10:03.479401,-220
2021-10-14 15:10:03.479410,-215
2021-10-14 15:10:03.479418,-211
2021-10-14 15:10:03.479427,-198
2021-10-14 15:10:03.479435,-206
2021-10-14 15:10:03.479444,-203
2021-10-14 15:10:03.479452,-179
2021-10-14 15:10:03.479461,-159
2021-10-14 15:10:03.479469,-159
2021-10-14 15:10:03.479478,-179
2021-10-14 15:10:03.479487,-193
2021-10-14 15:10:03.479495,-184
2021-10-14 15:10:03.479504,-171
2021-10-14 15:10:03.479512,-169
2021-10-14 15:10:03.479521,-174
2021-10-14 15:10:03.479529,-186
2021-10-14 15:10:03.479538,-201
2021-10-14 15:10:03.479546,-201
2021-10-14 15:10:03.479555,-181
2021-10-14 15:10:03.660474,-166
2021-10-14 15:10:03.660514,-184
2021-10-14 15:10:03.660534,-191
2021-10-14 15:10:03.660544,-169
2021-10-14 15:10:03.660553,-161
2021-10-14 15:10:03.660561,-164
2021-10-14 15:10:03.660570,-154
2021-10-14 15:10:03.660578,-149
2021-10-14 15:10:03.660587,-157
2021-10-14 15:10:03.660595,-152
2021-10-14 15:10:03.660606,-144
2021-10-14 15:10:03.660618,-144
2021-10-14 15:10:03.660626,-134
2021-10-14 15:10:03.660635,-122
2021-10-14 15:10:03.660643,-130
2021-10-14 15:10:03.660652,-137
2021-10-14 15:10:03.660660,-127
2021-10-14 15:10:03.660669,-125
2021-10-14 15:10:03.660677,-134
2021-10-14 15:10:03.660686,-127
2021-10-14 15:10:03.660694,-93
2021-10-14 15:10:03.660702,-53
2021-10-14 15:10:03.660715,-34
2021-10-14 15:10:03.660724,-39
2021-10-14 15:10:03.660732,-58
2021-10-14 15:10:03.660741,-88
2021-10-14 15:10:03.660749,-115
2021-10-14 15:10:03.660758,-112
2021-10-14 15:10:03.660766,-95
2021-10-14 15:10:03.660775,-80
2021-10-14 15:10:03.931064,-58
2021-10-14 15:10:03.931086,-61
2021-10-14 15:10:03.931095,-100
2021-10-14 15:10:03.931103,-115
2021-10-14 15:10:03.931112,-31
2021-10-14 15:10:03.931119,198
2021-10-14 15:10:03.931128,534
2021-10-14 15:10:03.931136,767
2021-10-14 15:10:03.931144,529
2021-10-14 15:10:03.931153,-137
2021-10-14 15:10:03.931161,-426
2021-10-14 15:10:03.931170,-98
2021-10-14 15:10:03.931177,66
2021-10-14 15:10:03.931185,-63
2021-10-14 15:10:03.931193,-51
2021-10-14 15:10:03.931202,12
2021-10-14 15:10:03.931210,-19
2021-10-14 15:10:03.931219,-19
2021-10-14 15:10:03.931227,17
2021-10-14 15:10:03.931235,24
2021-10-14 15:10:03.931243,34
2021-10-14 15:10:03.931251,58
2021-10-14 15:10:03.931259,71
2021-10-14 15:10:03.931267,80
2021-10-14 15:10:03.931275,107
2021-10-14 15:10:03.931284,125
2021-10-14 15:10:03.931292,134
2021-10-14 15:10:03.931300,144
2021-10-14 15:10:03.931308,166
2021-10-14 15:10:03.931316,208
2021-10-14 15:10:04.110948,242
2021-10-14 15:10:04.110970,255
2021-10-14 15:10:04.110979,262
2021-10-14 15:10:04.110988,272
2021-10-14 15:10:04.110997,282
2021-10-14 15:10:04.111006,274
2021-10-14 15:10:04.111014,260
2021-10-14 15:10:04.111023,235
2021-10-14 15:10:04.111031,196
2021-10-14 15:10:04.111040,139
2021-10-14 15:10:04.111048,76
2021-10-14 15:10:04.111057,4
2021-10-14 15:10:04.111065,-56
2021-10-14 15:10:04.111074,-103
2021-10-14 15:10:04.111082,-132
2021-10-14 15:10:04.111091,-147
2021-10-14 15:10:04.111100,-152
2021-10-14 15:10:04.111108,-149
2021-10-14 15:10:04.111116,-152
2021-10-14 15:10:04.111125,-149
2021-10-14 15:10:04.111133,-134
2021-10-14 15:10:04.111141,-120
2021-10-14 15:10:04.111150,-112
2021-10-14 15:10:04.111159,-110
2021-10-14 15:10:04.111167,-98
2021-10-14 15:10:04.111175,-90
2021-10-14 15:10:04.111184,-100
2021-10-14 15:10:04.111193,-110
2021-10-14 15:10:04.111201,-110
2021-10-14 15:10:04.111210,-115
2021-10-14 15:10:04.335570,-112
2021-10-14 15:10:04.335592,-95
2021-10-14 15:10:04.335601,-105
2021-10-14 15:10:04.335609,-127
2021-10-14 15:10:04.335617,-122
2021-10-14 15:10:04.335625,-115
2021-10-14 15:10:04.335633,-127
2021-10-14 15:10:04.335640,-130
2021-10-14 15:10:04.335648,-122
2021-10-14 15:10:04.335656,-130
2021-10-14 15:10:04.335664,-132
2021-10-14 15:10:04.335672,-137
2021-10-14 15:10:04.335679,-144
2021-10-14 15:10:04.335687,-132
2021-10-14 15:10:04.335695,-120
2021-10-14 15:10:04.335703,-132
2021-10-14 15:10:04.335711,-139
2021-10-14 15:10:04.335718,-137
2021-10-14 15:10:04.335726,-120
2021-10-14 15:10:04.335734,-80
2021-10-14 15:10:04.335742,-49
2021-10-14 15:10:04.335750,-44
2021-10-14 15:10:04.335758,-56
2021-10-14 15:10:04.335765,-68
2021-10-14 15:10:04.335773,-80
2021-10-14 15:10:04.335781,-90
2021-10-14 15:10:04.335789,-93
2021-10-14 15:10:04.335797,-88
2021-10-14 15:10:04.335805,-80
2021-10-14 15:10:04.335812,-80
2021-10-14 15:10:04.560947,-83
2021-10-14 15:10:04.560968,-90
2021-10-14 15:10:04.560978,-88
2021-10-14 15:10:04.560987,7
2021-10-14 15:10:04.560995,267
2021-10-14 15:10:04.561004,606
2021-10-14 15:10:04.561012,733
2021-10-14 15:10:04.561021,331
2021-10-14 15:10:04.561030,-318
2021-10-14 15:10:04.561038,-422
2021-10-14 15:10:04.561046,-83
2021-10-14 15:10:04.561055,-7
2021-10-14 15:10:04.561063,-95
2021-10-14 15:10:04.561072,-53
2021-10-14 15:10:04.561080,-31
2021-10-14 15:10:04.561088,-58
2021-10-14 15:10:04.561097,-41
2021-10-14 15:10:04.561105,-17
2021-10-14 15:10:04.561113,4
2021-10-14 15:10:04.561122,22
2021-10-14 15:10:04.561130,34
2021-10-14 15:10:04.561138,56
2021-10-14 15:10:04.561147,76
2021-10-14 15:10:04.561155,85
2021-10-14 15:10:04.561163,105
2021-10-14 15:10:04.561172,134
2021-10-14 15:10:04.561180,166
2021-10-14 15:10:04.561188,191
2021-10-14 15:10:04.561197,203
2021-10-14 15:10:04.561205,223
2021-10-14 15:10:04.831013,252
2021-10-14 15:10:04.831034,262
2021-10-14 15:10:04.831044,252
2021-10-14 15:10:04.831053,235
2021-10-14 15:10:04.831061,223
2021-10-14 15:10:04.831070,206
2021-10-14 15:10:04.831079,186
2021-10-14 15:10:04.831087,147
2021-10-14 15:10:04.831095,73
2021-10-14 15:10:04.831104,-2
2021-10-14 15:10:04.831113,-58
2021-10-14 15:10:04.831121,-100
2021-10-14 15:10:04.831130,-139
2021-10-14 15:10:04.831138,-164
2021-10-14 15:10:04.831147,-169
2021-10-14 15:10:04.831155,-171
2021-10-14 15:10:04.831164,-166
2021-10-14 15:10:04.831172,-149
2021-10-14 15:10:04.831181,-139
2021-10-14 15:10:04.831190,-134
2021-10-14 15:10:04.831198,-122
2021-10-14 15:10:04.831207,-112
2021-10-14 15:10:04.831215,-112
2021-10-14 15:10:04.831224,-107
2021-10-14 15:10:04.831233,-100
2021-10-14 15:10:04.831241,-95
2021-10-14 15:10:04.831250,-93
2021-10-14 15:10:04.831258,-90
2021-10-14 15:10:04.831267,-90
2021-10-14 15:10:04.831276,-78
2021-10-14 15:10:05.100070,-76
2021-10-14 15:10:05.100091,-83
2021-10-14 15:10:05.100101,-76
2021-10-14 15:10:05.100110,-68
2021-10-14 15:10:05.100119,-73
2021-10-14 15:10:05.100127,-80
2021-10-14 15:10:05.100136,-73
2021-10-14 15:10:05.100145,-61
2021-10-14 15:10:05.100154,-58
2021-10-14 15:10:05.100163,-66
2021-10-14 15:10:05.100172,-68
2021-10-14 15:10:05.100181,-58
2021-10-14 15:10:05.100189,-51
2021-10-14 15:10:05.100198,-53
2021-10-14 15:10:05.100207,-68
2021-10-14 15:10:05.100215,-73
2021-10-14 15:10:05.100223,-41
2021-10-14 15:10:05.100232,4
2021-10-14 15:10:05.100241,17
2021-10-14 15:10:05.100249,7
2021-10-14 15:10:05.100257,-9
2021-10-14 15:10:05.100266,-44
2021-10-14 15:10:05.100274,-58
2021-10-14 15:10:05.100283,-41
2021-10-14 15:10:05.100293,-39
2021-10-14 15:10:05.100339,-51
2021-10-14 15:10:05.100353,-51
2021-10-14 15:10:05.100361,-46
2021-10-14 15:10:05.100370,-58
2021-10-14 15:10:05.100378,-58
2021-10-14 15:10:05.595587,7
2021-10-14 15:10:05.595608,218
2021-10-14 15:10:05.595618,564
2021-10-14 15:10:05.595626,785
2021-10-14 15:10:05.595635,461
2021-10-14 15:10:05.595644,-311
2021-10-14 15:10:05.595653,-591
2021-10-14 15:10:05.595661,-147
2021-10-14 15:10:05.595670,68
2021-10-14 15:10:05.595678,-80
2021-10-14 15:10:05.595686,-53
2021-10-14 15:10:05.595698,24
2021-10-14 15:10:05.595707,-9
2021-10-14 15:10:05.595715,-4
2021-10-14 15:10:05.595724,14
2021-10-14 15:10:05.595733,-7
2021-10-14 15:10:05.595741,4
2021-10-14 15:10:05.595750,51
2021-10-14 15:10:05.595758,71
2021-10-14 15:10:05.595767,80
2021-10-14 15:10:05.595776,107
2021-10-14 15:10:05.595784,142
2021-10-14 15:10:05.595793,171
2021-10-14 15:10:05.595801,191
2021-10-14 15:10:05.595809,218
2021-10-14 15:10:05.595818,245
2021-10-14 15:10:05.595826,262
2021-10-14 15:10:05.595835,279
2021-10-14 15:10:05.595844,304
2021-10-14 15:10:05.595852,309
2021-10-14 15:10:05.774083,291
2021-10-14 15:10:05.774104,279
2021-10-14 15:10:05.774114,264
2021-10-14 15:10:05.774123,220
2021-10-14 15:10:05.774131,166
2021-10-14 15:10:05.774140,112
2021-10-14 15:10:05.774148,51
2021-10-14 15:10:05.774157,-9
2021-10-14 15:10:05.774165,-73
2021-10-14 15:10:05.774174,-127
2021-10-14 15:10:05.774182,-149
2021-10-14 15:10:05.774191,-147
2021-10-14 15:10:05.774199,-154
2021-10-14 15:10:05.774207,-164
2021-10-14 15:10:05.774216,-164
2021-10-14 15:10:05.774225,-159
2021-10-14 15:10:05.774233,-137
2021-10-14 15:10:05.774241,-107
2021-10-14 15:10:05.774250,-105
2021-10-14 15:10:05.774258,-120
2021-10-14 15:10:05.774267,-110
2021-10-14 15:10:05.774275,-93
2021-10-14 15:10:05.774284,-95
2021-10-14 15:10:05.774292,-90
2021-10-14 15:10:05.774300,-85
2021-10-14 15:10:05.774309,-98
2021-10-14 15:10:05.774317,-98
2021-10-14 15:10:05.774325,-93
2021-10-14 15:10:05.774334,-103
2021-10-14 15:10:05.774342,-93
2021-10-14 15:10:05.954368,-66
2021-10-14 15:10:05.954390,-71
2021-10-14 15:10:05.954399,-88
2021-10-14 15:10:05.954408,-88
2021-10-14 15:10:05.954417,-85
2021-10-14 15:10:05.954425,-80
2021-10-14 15:10:05.954433,-85
2021-10-14 15:10:05.954442,-103
2021-10-14 15:10:05.954450,-88
2021-10-14 15:10:05.954458,-36
2021-10-14 15:10:05.954467,-7
2021-10-14 15:10:05.954475,-17
2021-10-14 15:10:05.954484,-24
2021-10-14 15:10:05.954492,-29
2021-10-14 15:10:05.954500,-49
2021-10-14 15:10:05.954509,-68
2021-10-14 15:10:05.954517,-56
2021-10-14 15:10:05.954526,-34
2021-10-14 15:10:05.954534,-36
2021-10-14 15:10:05.954542,-58
2021-10-14 15:10:05.954551,-68
2021-10-14 15:10:05.954559,-68
2021-10-14 15:10:05.954568,-66
2021-10-14 15:10:05.954617,-12
2021-10-14 15:10:05.954627,218
2021-10-14 15:10:05.954651,591
2021-10-14 15:10:05.954664,817
2021-10-14 15:10:05.954673,517
2021-10-14 15:10:05.954682,-188
2021-10-14 15:10:05.954689,-456
2021-10-14 15:10:06.090320,-125
2021-10-14 15:10:06.090342,12
2021-10-14 15:10:06.090351,-110
2021-10-14 15:10:06.090360,-88
2021-10-14 15:10:06.090369,-39
2021-10-14 15:10:06.090377,-71
2021-10-14 15:10:06.090386,-73
2021-10-14 15:10:06.090394,-46
2021-10-14 15:10:06.090403,-41
2021-10-14 15:10:06.090411,-31
2021-10-14 15:10:06.090419,-12
2021-10-14 15:10:06.090428,7
2021-10-14 15:10:06.090436,36
2021-10-14 15:10:06.090445,53
2021-10-14 15:10:06.090453,53
2021-10-14 15:10:06.090462,63
2021-10-14 15:10:06.090470,95
2021-10-14 15:10:06.090479,139
2021-10-14 15:10:06.090488,161
2021-10-14 15:10:06.090496,169
2021-10-14 15:10:06.090505,181
2021-10-14 15:10:06.090513,198
2021-10-14 15:10:06.090522,213
2021-10-14 15:10:06.090530,203
2021-10-14 15:10:06.090538,179
2021-10-14 15:10:06.090547,164
2021-10-14 15:10:06.090555,130
2021-10-14 15:10:06.090564,76
2021-10-14 15:10:06.090572,26
2021-10-14 15:10:06.090581,-39
2021-10-14 15:10:06.359359,-125
2021-10-14 15:10:06.359380,-159
2021-10-14 15:10:06.359389,-152
2021-10-14 15:10:06.359399,-179
2021-10-14 15:10:06.359407,-208
2021-10-14 15:10:06.359416,-206
2021-10-14 15:10:06.359424,-208
2021-10-14 15:10:06.359433,-211
2021-10-14 15:10:06.359441,-191
2021-10-14 15:10:06.359450,-176
2021-10-14 15:10:06.359459,-171
2021-10-14 15:10:06.359467,-166
2021-10-14 15:10:06.359476,-169
2021-10-14 15:10:06.359484,-159
2021-10-14 15:10:06.359493,-147
2021-10-14 15:10:06.359501,-139
2021-10-14 15:10:06.359509,-125
2021-10-14 15:10:06.359518,-127
2021-10-14 15:10:06.359526,-132
2021-10-14 15:10:06.359535,-134
2021-10-14 15:10:06.359543,-147
2021-10-14 15:10:06.359552,-130
2021-10-14 15:10:06.359560,-112
2021-10-14 15:10:06.359569,-134
2021-10-14 15:10:06.359577,-139
2021-10-14 15:10:06.359585,-122
2021-10-14 15:10:06.359594,-137
2021-10-14 15:10:06.359602,-159
2021-10-14 15:10:06.359611,-161
2021-10-14 15:10:06.359619,-142
2021-10-14 15:10:06.584377,-105
2021-10-14 15:10:06.584397,-68
2021-10-14 15:10:06.584407,-49
2021-10-14 15:10:06.584416,-44
2021-10-14 15:10:06.584424,-58
2021-10-14 15:10:06.584433,-88
2021-10-14 15:10:06.584442,-103
2021-10-14 15:10:06.584450,-90
2021-10-14 15:10:06.584461,-71
2021-10-14 15:10:06.584470,-68
2021-10-14 15:10:06.584479,-78
2021-10-14 15:10:06.584487,-80
2021-10-14 15:10:06.584496,-73
2021-10-14 15:10:06.584504,-56
2021-10-14 15:10:06.584512,31
2021-10-14 15:10:06.584521,282
2021-10-14 15:10:06.584530,628
2021-10-14 15:10:06.584538,760
2021-10-14 15:10:06.584547,355
2021-10-14 15:10:06.584555,-284
2021-10-14 15:10:06.584564,-399
2021-10-14 15:10:06.584572,-73
2021-10-14 15:10:06.584580,17
2021-10-14 15:10:06.584589,-63
2021-10-14 15:10:06.584597,-41
2021-10-14 15:10:06.584606,-24
2021-10-14 15:10:06.584614,-29
2021-10-14 15:10:06.584623,-9
2021-10-14 15:10:06.584631,-4
2021-10-14 15:10:06.584639,9
2021-10-14 15:10:07.979428,44
2021-10-14 15:10:07.979461,49
2021-10-14 15:10:07.979471,31
2021-10-14 15:10:07.979480,46
2021-10-14 15:10:07.979489,80
2021-10-14 15:10:07.979497,88
2021-10-14 15:10:07.979506,100
2021-10-14 15:10:07.979514,137
2021-10-14 15:10:07.979523,159
2021-10-14 15:10:07.979531,176
2021-10-14 15:10:07.979539,198
2021-10-14 15:10:07.979548,220
2021-10-14 15:10:07.979556,245
2021-10-14 15:10:07.979565,250
2021-10-14 15:10:07.979573,225
2021-10-14 15:10:07.979582,191
2021-10-14 15:10:07.979590,159
2021-10-14 15:10:07.979599,134
2021-10-14 15:10:07.979607,85
2021-10-14 15:10:07.979616,-2
2021-10-14 15:10:07.979624,-80
2021-10-14 15:10:07.979633,-132
2021-10-14 15:10:07.979642,-186
2021-10-14 15:10:07.979650,-235
2021-10-14 15:10:07.979658,-245
2021-10-14 15:10:07.979667,-230
2021-10-14 15:10:07.979675,-230
2021-10-14 15:10:07.979684,-242
2021-10-14 15:10:07.979692,-252
2021-10-14 15:10:07.979701,-262
2021-10-14 15:10:08.159366,-262
2021-10-14 15:10:08.159387,-245
2021-10-14 15:10:08.159397,-240
2021-10-14 15:10:08.159406,-257
2021-10-14 15:10:08.159414,-264
2021-10-14 15:10:08.159423,-252
2021-10-14 15:10:08.159431,-242
2021-10-14 15:10:08.159440,-230
2021-10-14 15:10:08.159448,-223
2021-10-14 15:10:08.159457,-235
2021-10-14 15:10:08.159465,-250
2021-10-14 15:10:08.159474,-238
2021-10-14 15:10:08.159482,-225
2021-10-14 15:10:08.159490,-220
2021-10-14 15:10:08.159499,-215
2021-10-14 15:10:08.159507,-223
2021-10-14 15:10:08.159516,-225
2021-10-14 15:10:08.159524,-193
2021-10-14 15:10:08.159532,-152
2021-10-14 15:10:08.159541,-132
2021-10-14 15:10:08.159549,-130
2021-10-14 15:10:08.159558,-144
2021-10-14 15:10:08.159566,-166
2021-10-14 15:10:08.159574,-169
2021-10-14 15:10:08.159583,-159
2021-10-14 15:10:08.159591,-152
2021-10-14 15:10:08.159599,-157
2021-10-14 15:10:08.159608,-159
2021-10-14 15:10:08.159616,-142
2021-10-14 15:10:08.159625,-125
2021-10-14 15:10:08.249340,-127
2021-10-14 15:10:08.249360,-98
2021-10-14 15:10:08.249370,-7
2021-10-14 15:10:08.249378,218
2021-10-14 15:10:08.249387,556
2021-10-14 15:10:08.249396,716
2021-10-14 15:10:08.249404,287
2021-10-14 15:10:08.249412,-488
2021-10-14 15:10:08.249421,-586
2021-10-14 15:10:08.249429,-61
2021-10-14 15:10:08.249438,51
2021-10-14 15:10:08.249446,-105
2021-10-14 15:10:08.249455,-29
2021-10-14 15:10:08.249463,29
2021-10-14 15:10:08.249472,-19
2021-10-14 15:10:08.249480,-14
2021-10-14 15:10:08.249488,24
2021-10-14 15:10:08.249497,44
2021-10-14 15:10:08.249505,51
2021-10-14 15:10:08.249513,56
2021-10-14 15:10:08.249522,73
2021-10-14 15:10:08.249530,107
2021-10-14 15:10:08.249538,144
2021-10-14 15:10:08.249547,161
2021-10-14 15:10:08.249555,169
2021-10-14 15:10:08.249564,203
2021-10-14 15:10:08.249572,240
2021-10-14 15:10:08.249580,252
2021-10-14 15:10:08.249589,277
2021-10-14 15:10:08.249597,314
2021-10-14 15:10:08.339344,323
2021-10-14 15:10:08.339365,306
2021-10-14 15:10:08.339374,294
2021-10-14 15:10:08.339383,282
2021-10-14 15:10:08.339392,247
2021-10-14 15:10:08.339400,186
2021-10-14 15:10:08.339409,105
2021-10-14 15:10:08.339417,9
2021-10-14 15:10:08.339453,-90
2021-10-14 15:10:08.339464,-171
2021-10-14 15:10:08.339472,-215
2021-10-14 15:10:08.339481,-245
2021-10-14 15:10:08.339491,-272
2021-10-14 15:10:08.339500,-284
2021-10-14 15:10:08.339508,-282
2021-10-14 15:10:08.339545,-274
2021-10-14 15:10:08.339555,-260
2021-10-14 15:10:08.339564,-242
2021-10-14 15:10:08.339571,-225
2021-10-14 15:10:08.339579,-218
2021-10-14 15:10:08.339586,-220
2021-10-14 15:10:08.339594,-218
2021-10-14 15:10:08.339602,-215
2021-10-14 15:10:08.339609,-211
2021-10-14 15:10:08.339617,-201
2021-10-14 15:10:08.339625,-196
2021-10-14 15:10:08.339634,-201
2021-10-14 15:10:08.339642,-203
2021-10-14 15:10:08.339650,-208
2021-10-14 15:10:08.339658,-213
2021-10-14 15:10:08.430284,-213
2021-10-14 15:10:08.430306,-228
2021-10-14 15:10:08.430315,-238
2021-10-14 15:10:08.430322,-206
2021-10-14 15:10:08.430329,-164
2021-10-14 15:10:08.430336,-159
2021-10-14 15:10:08.430343,-157
2021-10-14 15:10:08.430350,-157
2021-10-14 15:10:08.430357,-184
2021-10-14 15:10:08.430364,-203
2021-10-14 15:10:08.430372,-196
2021-10-14 15:10:08.430380,-184
2021-10-14 15:10:08.430387,-181
2021-10-14 15:10:08.430395,-184
2021-10-14 15:10:08.430403,-169
2021-10-14 15:10:08.430410,-152
2021-10-14 15:10:08.430418,-147
2021-10-14 15:10:08.430424,-120
2021-10-14 15:10:08.430432,-4
2021-10-14 15:10:08.430440,269
2021-10-14 15:10:08.430447,615
2021-10-14 15:10:08.430454,633
2021-10-14 15:10:08.430462,-7
2021-10-14 15:10:08.430474,-625
2021-10-14 15:10:08.430483,-368
2021-10-14 15:10:08.430492,26
2021-10-14 15:10:08.430500,-90
2021-10-14 15:10:08.430508,-149
2021-10-14 15:10:08.430517,-31
2021-10-14 15:10:08.430525,-39
2021-10-14 15:10:08.565703,-66
2021-10-14 15:10:08.565725,-19
2021-10-14 15:10:08.565735,-2
2021-10-14 15:10:08.565744,0
2021-10-14 15:10:08.565752,26
2021-10-14 15:10:08.565761,46
2021-10-14 15:10:08.565770,66
2021-10-14 15:10:08.565778,107
2021-10-14 15:10:08.565787,144
2021-10-14 15:10:08.565795,159
2021-10-14 15:10:08.565804,181
2021-10-14 15:10:08.565812,233
2021-10-14 15:10:08.565821,274
2021-10-14 15:10:08.565830,294
2021-10-14 15:10:08.565838,309
2021-10-14 15:10:08.565846,326
2021-10-14 15:10:08.565855,331
2021-10-14 15:10:08.565863,331
2021-10-14 15:10:08.565872,318
2021-10-14 15:10:08.565880,289
2021-10-14 15:10:08.565889,242
2021-10-14 15:10:08.565897,171
2021-10-14 15:10:08.565906,73
2021-10-14 15:10:08.565914,-24
2021-10-14 15:10:08.565922,-105
2021-10-14 15:10:08.565931,-161
2021-10-14 15:10:08.565940,-203
2021-10-14 15:10:08.565948,-225
2021-10-14 15:10:08.565957,-233
2021-10-14 15:10:08.565965,-242
2021-10-14 15:10:08.745984,-242
2021-10-14 15:10:08.746005,-225
2021-10-14 15:10:08.746015,-218
2021-10-14 15:10:08.746024,-220
2021-10-14 15:10:08.746033,-203
2021-10-14 15:10:08.746041,-184
2021-10-14 15:10:08.746050,-184
2021-10-14 15:10:08.746058,-171
2021-10-14 15:10:08.746067,-147
2021-10-14 15:10:08.746075,-132
2021-10-14 15:10:08.746084,-134
2021-10-14 15:10:08.746093,-137
2021-10-14 15:10:08.746101,-132
2021-10-14 15:10:08.746109,-112
2021-10-14 15:10:08.746118,-103
2021-10-14 15:10:08.746126,-107
2021-10-14 15:10:08.746134,-115
2021-10-14 15:10:08.746143,-117
2021-10-14 15:10:08.746151,-117
2021-10-14 15:10:08.746159,-110
2021-10-14 15:10:08.746168,-88
2021-10-14 15:10:08.746176,-61
2021-10-14 15:10:08.746184,-51
2021-10-14 15:10:08.746193,-56
2021-10-14 15:10:08.746201,-68
2021-10-14 15:10:08.746210,-88
2021-10-14 15:10:08.746218,-112
2021-10-14 15:10:08.746226,-122
2021-10-14 15:10:08.746235,-117
2021-10-14 15:10:08.746243,-120
2021-10-14 15:10:08.835553,-120
2021-10-14 15:10:08.835580,-120
2021-10-14 15:10:08.835592,-127
2021-10-14 15:10:08.835601,-115
2021-10-14 15:10:08.835609,-71
2021-10-14 15:10:08.835617,58
2021-10-14 15:10:08.835625,365
2021-10-14 15:10:08.835633,696
2021-10-14 15:10:08.835640,566
2021-10-14 15:10:08.835646,-137
2021-10-14 15:10:08.835654,-537
2021-10-14 15:10:08.835663,-179
2021-10-14 15:10:08.835671,41
2021-10-14 15:10:08.835679,-110
2021-10-14 15:10:08.835687,-83
2021-10-14 15:10:08.835695,2
2021-10-14 15:10:08.835703,-49
2021-10-14 15:10:08.835711,-36
2021-10-14 15:10:08.835719,24
2021-10-14 15:10:08.835727,19
2021-10-14 15:10:08.835735,9
2021-10-14 15:10:08.835743,34
2021-10-14 15:10:08.835752,53
2021-10-14 15:10:08.835760,61
2021-10-14 15:10:08.835768,80
2021-10-14 15:10:08.835776,122
2021-10-14 15:10:08.835784,154
2021-10-14 15:10:08.835792,171
2021-10-14 15:10:08.835800,198
2021-10-14 15:10:08.835808,235
2021-10-14 15:10:08.925565,272
2021-10-14 15:10:08.925585,304
2021-10-14 15:10:08.925595,316
2021-10-14 15:10:08.925604,306
2021-10-14 15:10:08.925612,287
2021-10-14 15:10:08.925621,272
2021-10-14 15:10:08.925629,242
2021-10-14 15:10:08.925638,184
2021-10-14 15:10:08.925646,98
2021-10-14 15:10:08.925654,9
2021-10-14 15:10:08.925663,-73
2021-10-14 15:10:08.925672,-142
2021-10-14 15:10:08.925680,-191
2021-10-14 15:10:08.925689,-228
2021-10-14 15:10:08.925697,-247
2021-10-14 15:10:08.925705,-250
2021-10-14 15:10:08.925714,-250
2021-10-14 15:10:08.925722,-252
2021-10-14 15:10:08.925731,-242
2021-10-14 15:10:08.925739,-225
2021-10-14 15:10:08.925747,-211
2021-10-14 15:10:08.925756,-213
2021-10-14 15:10:08.925764,-213
2021-10-14 15:10:08.925772,-198
2021-10-14 15:10:08.925781,-174
2021-10-14 15:10:08.925789,-159
2021-10-14 15:10:08.925798,-171
2021-10-14 15:10:08.925806,-184
2021-10-14 15:10:08.925814,-176
2021-10-14 15:10:08.925823,-176
2021-10-14 15:10:09.015890,-174
2021-10-14 15:10:09.015910,-149
2021-10-14 15:10:09.015919,-134
2021-10-14 15:10:09.015928,-154
2021-10-14 15:10:09.015937,-161
2021-10-14 15:10:09.015945,-149
2021-10-14 15:10:09.015954,-154
2021-10-14 15:10:09.015962,-154
2021-10-14 15:10:09.015970,-125
2021-10-14 15:10:09.015979,-85
2021-10-14 15:10:09.015987,-71
2021-10-14 15:10:09.015995,-78
2021-10-14 15:10:09.016004,-95
2021-10-14 15:10:09.016012,-88
2021-10-14 15:10:09.016021,-76
2021-10-14 15:10:09.016029,-98
2021-10-14 15:10:09.016038,-115
2021-10-14 15:10:09.016046,-110
2021-10-14 15:10:09.016055,-110
2021-10-14 15:10:09.016063,-107
2021-10-14 15:10:09.016071,-98
2021-10-14 15:10:09.016080,-112
2021-10-14 15:10:09.016088,-125
2021-10-14 15:10:09.016097,-31
2021-10-14 15:10:09.016105,220
2021-10-14 15:10:09.016114,583
2021-10-14 15:10:09.016122,826
2021-10-14 15:10:09.016131,463
2021-10-14 15:10:09.016139,-333
2021-10-14 15:10:09.016148,-463
2021-10-14 15:10:09.194409,-34
2021-10-14 15:10:09.194430,-34
2021-10-14 15:10:09.194440,-184
2021-10-14 15:10:09.194449,-83
2021-10-14 15:10:09.194457,-51
2021-10-14 15:10:09.194466,-93
2021-10-14 15:10:09.194474,-49
2021-10-14 15:10:09.194482,-14
2021-10-14 15:10:09.194490,-31
2021-10-14 15:10:09.194499,-14
2021-10-14 15:10:09.194507,22
2021-10-14 15:10:09.194516,34
2021-10-14 15:10:09.194524,51
2021-10-14 15:10:09.194532,80
2021-10-14 15:10:09.194541,95
2021-10-14 15:10:09.194549,122
2021-10-14 15:10:09.194558,159
2021-10-14 15:10:09.194566,188
2021-10-14 15:10:09.194574,215
2021-10-14 15:10:09.194583,252
2021-10-14 15:10:09.194591,274
2021-10-14 15:10:09.194599,262
2021-10-14 15:10:09.194608,262
2021-10-14 15:10:09.194616,287
2021-10-14 15:10:09.194624,282
2021-10-14 15:10:09.194633,242
2021-10-14 15:10:09.194641,184
2021-10-14 15:10:09.194650,120
2021-10-14 15:10:09.194658,56
2021-10-14 15:10:09.194669,4
2021-10-14 15:10:09.285344,-58
2021-10-14 15:10:09.285364,-125
2021-10-14 15:10:09.285374,-139
2021-10-14 15:10:09.285383,-125
2021-10-14 15:10:09.285392,-134
2021-10-14 15:10:09.285400,-154
2021-10-14 15:10:09.285409,-142
2021-10-14 15:10:09.285417,-122
2021-10-14 15:10:09.285426,-127
2021-10-14 15:10:09.285434,-142
2021-10-14 15:10:09.285443,-137
2021-10-14 15:10:09.285451,-107
2021-10-14 15:10:09.285460,-71
2021-10-14 15:10:09.285468,-78
2021-10-14 15:10:09.285476,-105
2021-10-14 15:10:09.285485,-95
2021-10-14 15:10:09.285493,-68
2021-10-14 15:10:09.285501,-68
2021-10-14 15:10:09.285510,-76
2021-10-14 15:10:09.285518,-71
2021-10-14 15:10:09.285527,-80
2021-10-14 15:10:09.285535,-88
2021-10-14 15:10:09.285543,-73
2021-10-14 15:10:09.285552,-66
2021-10-14 15:10:09.285591,-73
2021-10-14 15:10:09.285603,-80
2021-10-14 15:10:09.285612,-80
2021-10-14 15:10:09.285620,-76
2021-10-14 15:10:09.285628,-80
2021-10-14 15:10:09.285637,-85
2021-10-14 15:10:09.644412,-63
2021-10-14 15:10:09.644434,-24
2021-10-14 15:10:09.644444,-2
2021-10-14 15:10:09.644453,-12
2021-10-14 15:10:09.644462,-26
2021-10-14 15:10:09.644470,-31
2021-10-14 15:10:09.644479,-39
2021-10-14 15:10:09.644487,-58
2021-10-14 15:10:09.644496,-73
2021-10-14 15:10:09.644505,-63
2021-10-14 15:10:09.644513,-53
2021-10-14 15:10:09.644522,-66
2021-10-14 15:10:09.644530,-76
2021-10-14 15:10:09.644539,-66
2021-10-14 15:10:09.644547,-68
2021-10-14 15:10:09.644555,-19
2021-10-14 15:10:09.644564,233
2021-10-14 15:10:09.644573,623
2021-10-14 15:10:09.644581,821
2021-10-14 15:10:09.644589,456
2021-10-14 15:10:09.644598,-289
2021-10-14 15:10:09.644607,-512
2021-10-14 15:10:09.644615,-105
2021-10-14 15:10:09.644624,51
2021-10-14 15:10:09.644632,-73
2021-10-14 15:10:09.644641,-41
2021-10-14 15:10:09.644650,17
2021-10-14 15:10:09.644658,-17
2021-10-14 15:10:09.644667,-7
2021-10-14 15:10:09.644675,36
2021-10-14 15:10:09.779945,39
2021-10-14 15:10:09.779967,46
2021-10-14 15:10:09.779976,76
2021-10-14 15:10:09.779985,83
2021-10-14 15:10:09.779994,90
2021-10-14 15:10:09.780003,122
2021-10-14 15:10:09.780011,144
2021-10-14 15:10:09.780020,142
2021-10-14 15:10:09.780028,164
2021-10-14 15:10:09.780037,196
2021-10-14 15:10:09.780045,220
2021-10-14 15:10:09.780054,247
2021-10-14 15:10:09.780062,267
2021-10-14 15:10:09.780071,267
2021-10-14 15:10:09.780080,250
2021-10-14 15:10:09.780088,242
2021-10-14 15:10:09.780096,252
2021-10-14 15:10:09.780105,245
2021-10-14 15:10:09.780113,193
2021-10-14 15:10:09.780122,127
2021-10-14 15:10:09.780130,76
2021-10-14 15:10:09.780138,19
2021-10-14 15:10:09.780147,-46
2021-10-14 15:10:09.780155,-95
2021-10-14 15:10:09.780164,-125
2021-10-14 15:10:09.780172,-147
2021-10-14 15:10:09.780181,-164
2021-10-14 15:10:09.780189,-166
2021-10-14 15:10:09.780197,-161
2021-10-14 15:10:09.780206,-161
2021-10-14 15:10:09.960978,-161
2021-10-14 15:10:09.961000,-161
2021-10-14 15:10:09.961009,-154
2021-10-14 15:10:09.961018,-144
2021-10-14 15:10:09.961027,-139
2021-10-14 15:10:09.961035,-144
2021-10-14 15:10:09.961044,-157
2021-10-14 15:10:09.961052,-164
2021-10-14 15:10:09.961061,-164
2021-10-14 15:10:09.961070,-171
2021-10-14 15:10:09.961078,-179
2021-10-14 15:10:09.961087,-186
2021-10-14 15:10:09.961095,-184
2021-10-14 15:10:09.961103,-181
2021-10-14 15:10:09.961112,-186
2021-10-14 15:10:09.961120,-198
2021-10-14 15:10:09.961128,-201
2021-10-14 15:10:09.961137,-201
2021-10-14 15:10:09.961145,-201
2021-10-14 15:10:09.961154,-198
2021-10-14 15:10:09.961162,-196
2021-10-14 15:10:09.961171,-193
2021-10-14 15:10:09.961179,-198
2021-10-14 15:10:09.961187,-196
2021-10-14 15:10:09.961196,-181
2021-10-14 15:10:09.961204,-176
2021-10-14 15:10:09.961213,-196
2021-10-14 15:10:09.961221,-196
2021-10-14 15:10:09.961229,-144
2021-10-14 15:10:09.961238,-110
2021-10-14 15:10:10.140650,-132
2021-10-14 15:10:10.140671,-144
2021-10-14 15:10:10.140680,-139
2021-10-14 15:10:10.140689,-154
2021-10-14 15:10:10.140698,-166
2021-10-14 15:10:10.140707,-169
2021-10-14 15:10:10.140715,-181
2021-10-14 15:10:10.140723,-171
2021-10-14 15:10:10.140732,-157
2021-10-14 15:10:10.140740,-171
2021-10-14 15:10:10.140749,-181
2021-10-14 15:10:10.140757,-166
2021-10-14 15:10:10.140765,-103
2021-10-14 15:10:10.140774,132
2021-10-14 15:10:10.140782,505
2021-10-14 15:10:10.140791,679
2021-10-14 15:10:10.140800,255
2021-10-14 15:10:10.140808,-547
2021-10-14 15:10:10.140816,-682
2021-10-14 15:10:10.140825,-142
2021-10-14 15:10:10.140833,-2
2021-10-14 15:10:10.140841,-164
2021-10-14 15:10:10.140850,-100
2021-10-14 15:10:10.140858,-61
2021-10-14 15:10:10.140867,-115
2021-10-14 15:10:10.140875,-68
2021-10-14 15:10:10.140883,-17
2021-10-14 15:10:10.140892,-29
2021-10-14 15:10:10.140900,-12
2021-10-14 15:10:10.140908,17
2021-10-14 15:10:10.365746,36
2021-10-14 15:10:10.365767,68
2021-10-14 15:10:10.365777,100
2021-10-14 15:10:10.365785,125
2021-10-14 15:10:10.365794,144
2021-10-14 15:10:10.365802,159
2021-10-14 15:10:10.365811,198
2021-10-14 15:10:10.365819,245
2021-10-14 15:10:10.365828,264
2021-10-14 15:10:10.365836,274
2021-10-14 15:10:10.365845,272
2021-10-14 15:10:10.365853,267
2021-10-14 15:10:10.365861,272
2021-10-14 15:10:10.365870,269
2021-10-14 15:10:10.365878,233
2021-10-14 15:10:10.365887,161
2021-10-14 15:10:10.365896,78
2021-10-14 15:10:10.365904,-7
2021-10-14 15:10:10.365913,-76
2021-10-14 15:10:10.365921,-130
2021-10-14 15:10:10.365930,-188
2021-10-14 15:10:10.365938,-240
2021-10-14 15:10:10.365946,-264
2021-10-14 15:10:10.365955,-269
2021-10-14 15:10:10.365963,-260
2021-10-14 15:10:10.365971,-240
2021-10-14 15:10:10.365980,-228
2021-10-14 15:10:10.365988,-228
2021-10-14 15:10:10.365997,-220
2021-10-14 15:10:10.366005,-201
2021-10-14 15:10:10.590393,-184
2021-10-14 15:10:10.590414,-166
2021-10-14 15:10:10.590424,-154
2021-10-14 15:10:10.590432,-152
2021-10-14 15:10:10.590441,-157
2021-10-14 15:10:10.590449,-144
2021-10-14 15:10:10.590458,-127
2021-10-14 15:10:10.590466,-125
2021-10-14 15:10:10.590475,-127
2021-10-14 15:10:10.590483,-130
2021-10-14 15:10:10.590492,-142
2021-10-14 15:10:10.590500,-139
2021-10-14 15:10:10.590508,-120
2021-10-14 15:10:10.590517,-112
2021-10-14 15:10:10.590525,-125
2021-10-14 15:10:10.590534,-127
2021-10-14 15:10:10.590542,-120
2021-10-14 15:10:10.590551,-117
2021-10-14 15:10:10.590559,-122
2021-10-14 15:10:10.590568,-125
2021-10-14 15:10:10.590576,-110
2021-10-14 15:10:10.590584,-80
2021-10-14 15:10:10.590593,-63
2021-10-14 15:10:10.590601,-61
2021-10-14 15:10:10.590609,-66
2021-10-14 15:10:10.590618,-71
2021-10-14 15:10:10.590626,-83
2021-10-14 15:10:10.590634,-112
2021-10-14 15:10:10.590651,-117
2021-10-14 15:10:10.590659,-93
2021-10-14 15:10:10.861035,-80
2021-10-14 15:10:10.861056,-93
2021-10-14 15:10:10.861065,-93
2021-10-14 15:10:10.861074,-85
2021-10-14 15:10:10.861082,-83
2021-10-14 15:10:10.861091,-41
2021-10-14 15:10:10.861099,159
2021-10-14 15:10:10.861108,529
2021-10-14 15:10:10.861116,797
2021-10-14 15:10:10.861124,473
2021-10-14 15:10:10.861133,-353
2021-10-14 15:10:10.861141,-588
2021-10-14 15:10:10.861150,-71
2021-10-14 15:10:10.861158,85
2021-10-14 15:10:10.861166,-100
2021-10-14 15:10:10.861175,-31
2021-10-14 15:10:10.861183,49
2021-10-14 15:10:10.861192,-4
2021-10-14 15:10:10.861200,12
2021-10-14 15:10:10.861208,63
2021-10-14 15:10:10.861217,63
2021-10-14 15:10:10.861225,61
2021-10-14 15:10:10.861234,85
2021-10-14 15:10:10.861242,105
2021-10-14 15:10:10.861251,125
2021-10-14 15:10:10.861259,152
2021-10-14 15:10:10.861267,181
2021-10-14 15:10:10.861275,211
2021-10-14 15:10:10.861284,240
2021-10-14 15:10:10.861292,274
2021-10-14 15:10:11.040977,318
2021-10-14 15:10:11.040998,358
2021-10-14 15:10:11.041008,372
2021-10-14 15:10:11.041016,372
2021-10-14 15:10:11.041025,377
2021-10-14 15:10:11.041033,380
2021-10-14 15:10:11.041042,365
2021-10-14 15:10:11.041050,326
2021-10-14 15:10:11.041058,252
2021-10-14 15:10:11.041067,161
2021-10-14 15:10:11.041075,73
2021-10-14 15:10:11.041083,-4
2021-10-14 15:10:11.041092,-71
2021-10-14 15:10:11.041100,-142
2021-10-14 15:10:11.041108,-198
2021-10-14 15:10:11.041117,-206
2021-10-14 15:10:11.041125,-198
2021-10-14 15:10:11.041134,-213
2021-10-14 15:10:11.041142,-206
2021-10-14 15:10:11.041151,-188
2021-10-14 15:10:11.041159,-191
2021-10-14 15:10:11.041167,-186
2021-10-14 15:10:11.041176,-174
2021-10-14 15:10:11.041184,-161
2021-10-14 15:10:11.041193,-142
2021-10-14 15:10:11.041201,-127
2021-10-14 15:10:11.041209,-127
2021-10-14 15:10:11.041218,-125
2021-10-14 15:10:11.041226,-107
2021-10-14 15:10:11.041235,-93
2021-10-14 15:10:11.310651,-93
2021-10-14 15:10:11.310672,-95
2021-10-14 15:10:11.310682,-93
2021-10-14 15:10:11.310691,-90
2021-10-14 15:10:11.310699,-90
2021-10-14 15:10:11.310708,-93
2021-10-14 15:10:11.310716,-95
2021-10-14 15:10:11.310725,-98
2021-10-14 15:10:11.310733,-103
2021-10-14 15:10:11.310742,-110
2021-10-14 15:10:11.310750,-115
2021-10-14 15:10:11.310759,-105
2021-10-14 15:10:11.310767,-100
2021-10-14 15:10:11.310775,-125
2021-10-14 15:10:11.310784,-137
2021-10-14 15:10:11.310792,-103
2021-10-14 15:10:11.310800,-53
2021-10-14 15:10:11.310809,-34
2021-10-14 15:10:11.310817,-39
2021-10-14 15:10:11.310826,-39
2021-10-14 15:10:11.310834,-36
2021-10-14 15:10:11.310843,-53
2021-10-14 15:10:11.310851,-73
2021-10-14 15:10:11.310859,-61
2021-10-14 15:10:11.310868,-44
2021-10-14 15:10:11.310876,-41
2021-10-14 15:10:11.310884,-46
2021-10-14 15:10:11.310893,-58
2021-10-14 15:10:11.310901,-73
2021-10-14 15:10:11.310909,-61
2021-10-14 15:10:11.536032,29
2021-10-14 15:10:11.536053,296
2021-10-14 15:10:11.536062,716
2021-10-14 15:10:11.536070,905
2021-10-14 15:10:11.536078,363
2021-10-14 15:10:11.536086,-436
2021-10-14 15:10:11.536094,-402
2021-10-14 15:10:11.536102,58
2021-10-14 15:10:11.536111,36
2021-10-14 15:10:11.536119,-71
2021-10-14 15:10:11.536127,36
2021-10-14 15:10:11.536135,51
2021-10-14 15:10:11.536143,7
2021-10-14 15:10:11.536151,44
2021-10-14 15:10:11.536159,66
2021-10-14 15:10:11.536167,61
2021-10-14 15:10:11.536175,88
2021-10-14 15:10:11.536183,127
2021-10-14 15:10:11.536191,137
2021-10-14 15:10:11.536199,144
2021-10-14 15:10:11.536207,171
2021-10-14 15:10:11.536215,213
2021-10-14 15:10:11.536223,250
2021-10-14 15:10:11.536231,277
2021-10-14 15:10:11.536239,306
2021-10-14 15:10:11.536247,343
2021-10-14 15:10:11.536255,377
2021-10-14 15:10:11.536263,397
2021-10-14 15:10:11.536271,404
2021-10-14 15:10:11.536279,409
2021-10-14 15:10:11.804653,407
2021-10-14 15:10:11.804674,382
2021-10-14 15:10:11.804684,338
2021-10-14 15:10:11.804693,272
2021-10-14 15:10:11.804701,181
2021-10-14 15:10:11.804710,76
2021-10-14 15:10:11.804718,-19
2021-10-14 15:10:11.804726,-88
2021-10-14 15:10:11.804735,-134
2021-10-14 15:10:11.804743,-164
2021-10-14 15:10:11.804751,-171
2021-10-14 15:10:11.804760,-181
2021-10-14 15:10:11.804768,-191
2021-10-14 15:10:11.804776,-181
2021-10-14 15:10:11.804784,-169
2021-10-14 15:10:11.804793,-164
2021-10-14 15:10:11.804801,-157
2021-10-14 15:10:11.804809,-144
2021-10-14 15:10:11.804817,-142
2021-10-14 15:10:11.804826,-130
2021-10-14 15:10:11.804834,-107
2021-10-14 15:10:11.804842,-105
2021-10-14 15:10:11.804850,-115
2021-10-14 15:10:11.804859,-107
2021-10-14 15:10:11.804867,-93
2021-10-14 15:10:11.804875,-83
2021-10-14 15:10:11.804884,-85
2021-10-14 15:10:11.804892,-95
2021-10-14 15:10:11.804900,-98
2021-10-14 15:10:11.804909,-98
2021-10-14 15:10:11.940999,-98
2021-10-14 15:10:11.941019,-98
2021-10-14 15:10:11.941029,-117
2021-10-14 15:10:11.941037,-149
2021-10-14 15:10:11.941046,-154
2021-10-14 15:10:11.941055,-130
2021-10-14 15:10:11.941063,-115
2021-10-14 15:10:11.941072,-117
2021-10-14 15:10:11.941080,-117
2021-10-14 15:10:11.941088,-117
2021-10-14 15:10:11.941097,-112
2021-10-14 15:10:11.941105,-115
2021-10-14 15:10:11.941114,-122
2021-10-14 15:10:11.941122,-110
2021-10-14 15:10:11.941131,-95
2021-10-14 15:10:11.941139,-107
2021-10-14 15:10:11.941148,-120
2021-10-14 15:10:11.941156,-100
2021-10-14 15:10:11.941165,-53
2021-10-14 15:10:11.941173,-22
2021-10-14 15:10:11.941181,-29
2021-10-14 15:10:11.941190,-41
2021-10-14 15:10:11.941198,-51
2021-10-14 15:10:11.941207,-61
2021-10-14 15:10:11.941215,-66
2021-10-14 15:10:11.941224,-61
2021-10-14 15:10:11.941232,-51
2021-10-14 15:10:11.941240,-41
2021-10-14 15:10:11.941249,-36
2021-10-14 15:10:11.941257,-39
2021-10-14 15:10:12.210656,-39
2021-10-14 15:10:12.210677,-24
2021-10-14 15:10:12.210687,63
2021-10-14 15:10:12.210696,333
2021-10-14 15:10:12.210705,755
2021-10-14 15:10:12.210713,942
2021-10-14 15:10:12.210722,385
2021-10-14 15:10:12.210730,-434
2021-10-14 15:10:12.210739,-387
2021-10-14 15:10:12.210747,88
2021-10-14 15:10:12.210756,36
2021-10-14 15:10:12.210764,-98
2021-10-14 15:10:12.210772,17
2021-10-14 15:10:12.210781,39
2021-10-14 15:10:12.210789,-7
2021-10-14 15:10:12.210798,39
2021-10-14 15:10:12.210806,73
2021-10-14 15:10:12.210815,66
2021-10-14 15:10:12.210823,90
2021-10-14 15:10:12.210831,125
2021-10-14 15:10:12.210840,127
2021-10-14 15:10:12.210848,137
2021-10-14 15:10:12.210857,179
2021-10-14 15:10:12.210865,213
2021-10-14 15:10:12.210873,228
2021-10-14 15:10:12.210882,264
2021-10-14 15:10:12.210890,316
2021-10-14 15:10:12.210898,341
2021-10-14 15:10:12.210907,358
2021-10-14 15:10:12.210915,392
2021-10-14 15:10:12.391000,417
2021-10-14 15:10:12.391020,417
2021-10-14 15:10:12.391030,402
2021-10-14 15:10:12.391038,370
2021-10-14 15:10:12.391047,333
2021-10-14 15:10:12.391055,284
2021-10-14 15:10:12.391064,191
2021-10-14 15:10:12.391072,73
2021-10-14 15:10:12.391081,-12
2021-10-14 15:10:12.391089,-88
2021-10-14 15:10:12.391098,-161
2021-10-14 15:10:12.391106,-198
2021-10-14 15:10:12.391114,-220
2021-10-14 15:10:12.391123,-235
2021-10-14 15:10:12.391131,-230
2021-10-14 15:10:12.391140,-247
2021-10-14 15:10:12.391148,-269
2021-10-14 15:10:12.391157,-242
2021-10-14 15:10:12.391165,-220
2021-10-14 15:10:12.391174,-233
2021-10-14 15:10:12.391182,-225
2021-10-14 15:10:12.391190,-193
2021-10-14 15:10:12.391199,-164
2021-10-14 15:10:12.391213,-149
2021-10-14 15:10:12.391221,-149
2021-10-14 15:10:12.391230,-157
2021-10-14 15:10:12.391238,-147
2021-10-14 15:10:12.391246,-139
2021-10-14 15:10:12.391255,-144
2021-10-14 15:10:12.391263,-142
2021-10-14 15:10:12.705650,-132
2021-10-14 15:10:12.705671,-122
2021-10-14 15:10:12.705681,-120
2021-10-14 15:10:12.705690,-132
2021-10-14 15:10:12.705698,-130
2021-10-14 15:10:12.705707,-115
2021-10-14 15:10:12.705715,-107
2021-10-14 15:10:12.705724,-115
2021-10-14 15:10:12.705732,-130
2021-10-14 15:10:12.705741,-139
2021-10-14 15:10:12.705749,-142
2021-10-14 15:10:12.705758,-130
2021-10-14 15:10:12.705766,-117
2021-10-14 15:10:12.705775,-105
2021-10-14 15:10:12.705783,-88
2021-10-14 15:10:12.705792,-83
2021-10-14 15:10:12.705802,-80
2021-10-14 15:10:12.705810,-68
2021-10-14 15:10:12.705818,-73
2021-10-14 15:10:12.705827,-93
2021-10-14 15:10:12.705835,-88
2021-10-14 15:10:12.705843,-66
2021-10-14 15:10:12.705852,-31
2021-10-14 15:10:12.705860,2
2021-10-14 15:10:12.705869,9
2021-10-14 15:10:12.705877,7
2021-10-14 15:10:12.705885,2
2021-10-14 15:10:12.705894,-7
2021-10-14 15:10:12.705902,-19
2021-10-14 15:10:12.705910,-26
2021-10-14 15:10:12.931141,-14
2021-10-14 15:10:12.931162,-7
2021-10-14 15:10:12.931172,-12
2021-10-14 15:10:12.931181,-14
2021-10-14 15:10:12.931189,-9
2021-10-14 15:10:12.931198,14
2021-10-14 15:10:12.931206,100
2021-10-14 15:10:12.931215,345
2021-10-14 15:10:12.931223,721
2021-10-14 15:10:12.931232,898
2021-10-14 15:10:12.931240,412
2021-10-14 15:10:12.931248,-385
2021-10-14 15:10:12.931257,-409
2021-10-14 15:10:12.931265,73
2021-10-14 15:10:12.931274,83
2021-10-14 15:10:12.931282,-63
2021-10-14 15:10:12.931291,39
2021-10-14 15:10:12.931299,76
2021-10-14 15:10:12.931307,24
2021-10-14 15:10:12.931316,61
2021-10-14 15:10:12.931324,88
2021-10-14 15:10:12.931333,76
2021-10-14 15:10:12.931341,105
2021-10-14 15:10:12.931349,149
2021-10-14 15:10:12.931358,159
2021-10-14 15:10:12.931366,171
2021-10-14 15:10:12.931375,203
2021-10-14 15:10:12.931383,240
2021-10-14 15:10:12.931392,274
2021-10-14 15:10:12.931400,304
2021-10-14 15:10:13.155398,333
2021-10-14 15:10:13.155419,360
2021-10-14 15:10:13.155429,387
2021-10-14 15:10:13.155437,412
2021-10-14 15:10:13.155446,431
2021-10-14 15:10:13.155454,439
2021-10-14 15:10:13.155463,422
2021-10-14 15:10:13.155471,399
2021-10-14 15:10:13.155480,368
2021-10-14 15:10:13.155488,301
2021-10-14 15:10:13.155497,196
2021-10-14 15:10:13.155505,90
2021-10-14 15:10:13.155514,12
2021-10-14 15:10:13.155522,-46
2021-10-14 15:10:13.155531,-90
2021-10-14 15:10:13.155539,-130
2021-10-14 15:10:13.155547,-161
2021-10-14 15:10:13.155555,-171
2021-10-14 15:10:13.155563,-171
2021-10-14 15:10:13.155572,-184
2021-10-14 15:10:13.155580,-188
2021-10-14 15:10:13.155588,-176
2021-10-14 15:10:13.155596,-159
2021-10-14 15:10:13.155605,-152
2021-10-14 15:10:13.155613,-142
2021-10-14 15:10:13.155621,-125
2021-10-14 15:10:13.155630,-105
2021-10-14 15:10:13.155638,-107
2021-10-14 15:10:13.155647,-107
2021-10-14 15:10:13.155655,-85
2021-10-14 15:10:13.380241,-76
2021-10-14 15:10:13.380265,-88
2021-10-14 15:10:13.380275,-85
2021-10-14 15:10:13.380284,-71
2021-10-14 15:10:13.380292,-71
2021-10-14 15:10:13.380301,-71
2021-10-14 15:10:13.380309,-73
2021-10-14 15:10:13.380318,-76
2021-10-14 15:10:13.380326,-76
2021-10-14 15:10:13.380335,-71
2021-10-14 15:10:13.380343,-71
2021-10-14 15:10:13.380351,-71
2021-10-14 15:10:13.380360,-63
2021-10-14 15:10:13.380368,-61
2021-10-14 15:10:13.380377,-76
2021-10-14 15:10:13.380385,-88
2021-10-14 15:10:13.380394,-80
2021-10-14 15:10:13.380402,-71
2021-10-14 15:10:13.380411,-71
2021-10-14 15:10:13.380420,-71
2021-10-14 15:10:13.380428,-68
2021-10-14 15:10:13.380437,-68
2021-10-14 15:10:13.380445,-68
2021-10-14 15:10:13.380454,-66
2021-10-14 15:10:13.380462,-66
2021-10-14 15:10:13.380471,-61
2021-10-14 15:10:13.380479,-53
2021-10-14 15:10:13.380487,-44
2021-10-14 15:10:13.380496,-34
2021-10-14 15:10:13.380529,-44
2021-10-14 15:10:13.561059,-63
2021-10-14 15:10:13.561081,-41
2021-10-14 15:10:13.561091,0
2021-10-14 15:10:13.561099,17
2021-10-14 15:10:13.561108,22
2021-10-14 15:10:13.561117,26
2021-10-14 15:10:13.561125,22
2021-10-14 15:10:13.561134,12
2021-10-14 15:10:13.561142,0
2021-10-14 15:10:13.561150,-9
2021-10-14 15:10:13.561159,-7
2021-10-14 15:10:13.561167,0
2021-10-14 15:10:13.561176,-4
2021-10-14 15:10:13.561184,-2
2021-10-14 15:10:13.561193,7
2021-10-14 15:10:13.561201,-4
2021-10-14 15:10:13.561210,9
2021-10-14 15:10:13.561218,147
2021-10-14 15:10:13.561227,468
2021-10-14 15:10:13.561235,856
2021-10-14 15:10:13.561244,880
2021-10-14 15:10:13.561252,206
2021-10-14 15:10:13.561261,-444
2021-10-14 15:10:13.561270,-220
2021-10-14 15:10:13.561278,137
2021-10-14 15:10:13.561287,19
2021-10-14 15:10:13.561295,-29
2021-10-14 15:10:13.561303,73
2021-10-14 15:10:13.561312,56
2021-10-14 15:10:13.561320,31
2021-10-14 15:10:13.964238,71
2021-10-14 15:10:13.964259,93
2021-10-14 15:10:13.964341,83
2021-10-14 15:10:13.964353,88
2021-10-14 15:10:13.964361,117
2021-10-14 15:10:13.964369,134
2021-10-14 15:10:13.964376,127
2021-10-14 15:10:13.964383,142
2021-10-14 15:10:13.964390,181
2021-10-14 15:10:13.964397,213
2021-10-14 15:10:13.964404,238
2021-10-14 15:10:13.964411,257
2021-10-14 15:10:13.964418,279
2021-10-14 15:10:13.964425,306
2021-10-14 15:10:13.964432,331
2021-10-14 15:10:13.964440,350
2021-10-14 15:10:13.964447,355
2021-10-14 15:10:13.964454,345
2021-10-14 15:10:13.964462,318
2021-10-14 15:10:13.964469,287
2021-10-14 15:10:13.964477,240
2021-10-14 15:10:13.964484,159
2021-10-14 15:10:13.964492,56
2021-10-14 15:10:13.964499,-26
2021-10-14 15:10:13.964507,-88
2021-10-14 15:10:13.964514,-144
2021-10-14 15:10:13.964521,-191
2021-10-14 15:10:13.964528,-223
2021-10-14 15:10:13.964535,-238
2021-10-14 15:10:13.964542,-238
2021-10-14 15:10:14.145430,-238
2021-10-14 15:10:14.145451,-225
2021-10-14 15:10:14.145460,-211
2021-10-14 15:10:14.145469,-206
2021-10-14 15:10:14.145478,-201
2021-10-14 15:10:14.145487,-191
2021-10-14 15:10:14.145496,-186
2021-10-14 15:10:14.145505,-166
2021-10-14 15:10:14.145513,-142
2021-10-14 15:10:14.145522,-137
2021-10-14 15:10:14.145530,-152
2021-10-14 15:10:14.145539,-149
2021-10-14 15:10:14.145547,-134
2021-10-14 15:10:14.145556,-130
2021-10-14 15:10:14.145564,-125
2021-10-14 15:10:14.145573,-115
2021-10-14 15:10:14.145581,-122
2021-10-14 15:10:14.145590,-127
2021-10-14 15:10:14.145598,-117
2021-10-14 15:10:14.145607,-110
2021-10-14 15:10:14.145615,-120
2021-10-14 15:10:14.145624,-127
2021-10-14 15:10:14.145632,-125
2021-10-14 15:10:14.145641,-122
2021-10-14 15:10:14.145649,-117
2021-10-14 15:10:14.145658,-110
2021-10-14 15:10:14.145666,-110
2021-10-14 15:10:14.145674,-107
2021-10-14 15:10:14.145683,-103
2021-10-14 15:10:14.145691,-93
2021-10-14 15:10:14.236010,-83
2021-10-14 15:10:14.236031,-80
2021-10-14 15:10:14.236040,-88
2021-10-14 15:10:14.236049,-90
2021-10-14 15:10:14.236057,-85
2021-10-14 15:10:14.236065,-83
2021-10-14 15:10:14.236073,-83
2021-10-14 15:10:14.236081,-68
2021-10-14 15:10:14.236089,-56
2021-10-14 15:10:14.236097,-56
2021-10-14 15:10:14.236105,-61
2021-10-14 15:10:14.236113,-61
2021-10-14 15:10:14.236121,-61
2021-10-14 15:10:14.236129,-58
2021-10-14 15:10:14.236137,-53
2021-10-14 15:10:14.236145,-63
2021-10-14 15:10:14.236154,-68
2021-10-14 15:10:14.236162,-34
2021-10-14 15:10:14.236170,4
2021-10-14 15:10:14.236178,9
2021-10-14 15:10:14.236186,4
2021-10-14 15:10:14.236194,-2
2021-10-14 15:10:14.236202,-22
2021-10-14 15:10:14.236210,-39
2021-10-14 15:10:14.236219,-41
2021-10-14 15:10:14.236227,-36
2021-10-14 15:10:14.236235,-29
2021-10-14 15:10:14.236243,-31
2021-10-14 15:10:14.236251,-51
2021-10-14 15:10:14.236259,-56
2021-10-14 15:10:14.550674,-34
2021-10-14 15:10:14.550695,46
2021-10-14 15:10:14.550705,277
2021-10-14 15:10:14.550714,642
2021-10-14 15:10:14.550722,829
2021-10-14 15:10:14.550731,363
2021-10-14 15:10:14.550739,-426
2021-10-14 15:10:14.550748,-456
2021-10-14 15:10:14.550756,26
2021-10-14 15:10:14.550764,31
2021-10-14 15:10:14.550773,-117
2021-10-14 15:10:14.550781,-7
2021-10-14 15:10:14.550790,36
2021-10-14 15:10:14.550798,-12
2021-10-14 15:10:14.550807,9
2021-10-14 15:10:14.550815,41
2021-10-14 15:10:14.550824,46
2021-10-14 15:10:14.550835,71
2021-10-14 15:10:14.550844,98
2021-10-14 15:10:14.550853,117
2021-10-14 15:10:14.550861,142
2021-10-14 15:10:14.550870,166
2021-10-14 15:10:14.550878,186
2021-10-14 15:10:14.550886,215
2021-10-14 15:10:14.550895,255
2021-10-14 15:10:14.550903,294
2021-10-14 15:10:14.550912,318
2021-10-14 15:10:14.550920,336
2021-10-14 15:10:14.550928,358
2021-10-14 15:10:14.550936,382
2021-10-14 15:10:14.776099,392
2021-10-14 15:10:14.776120,387
2021-10-14 15:10:14.776129,368
2021-10-14 15:10:14.776138,336
2021-10-14 15:10:14.776146,294
2021-10-14 15:10:14.776155,225
2021-10-14 15:10:14.776163,130
2021-10-14 15:10:14.776171,39
2021-10-14 15:10:14.776180,-39
2021-10-14 15:10:14.776189,-115
2021-10-14 15:10:14.776198,-159
2021-10-14 15:10:14.776206,-176
2021-10-14 15:10:14.776214,-186
2021-10-14 15:10:14.776223,-196
2021-10-14 15:10:14.776232,-203
2021-10-14 15:10:14.776240,-201
2021-10-14 15:10:14.776248,-184
2021-10-14 15:10:14.776257,-171
2021-10-14 15:10:14.776265,-169
2021-10-14 15:10:14.776273,-159
2021-10-14 15:10:14.776282,-149
2021-10-14 15:10:14.776290,-154
2021-10-14 15:10:14.776298,-147
2021-10-14 15:10:14.776307,-125
2021-10-14 15:10:14.776315,-112
2021-10-14 15:10:14.776324,-107
2021-10-14 15:10:14.776332,-100
2021-10-14 15:10:14.776340,-100
2021-10-14 15:10:14.776348,-103
2021-10-14 15:10:14.776357,-98
2021-10-14 15:10:14.956041,-88
2021-10-14 15:10:14.956062,-93
2021-10-14 15:10:14.956071,-103
2021-10-14 15:10:14.956080,-98
2021-10-14 15:10:14.956088,-100
2021-10-14 15:10:14.956097,-98
2021-10-14 15:10:14.956105,-83
2021-10-14 15:10:14.956114,-85
2021-10-14 15:10:14.956122,-107
2021-10-14 15:10:14.956131,-100
2021-10-14 15:10:14.956139,-83
2021-10-14 15:10:14.956148,-80
2021-10-14 15:10:14.956156,-83
2021-10-14 15:10:14.956164,-80
2021-10-14 15:10:14.956173,-80
2021-10-14 15:10:14.956181,-78
2021-10-14 15:10:14.956190,-78
2021-10-14 15:10:14.956198,-83
2021-10-14 15:10:14.956206,-78
2021-10-14 15:10:14.956215,-76
2021-10-14 15:10:14.956223,-85
2021-10-14 15:10:14.956232,-93
2021-10-14 15:10:14.956240,-85
2021-10-14 15:10:14.956249,-76
2021-10-14 15:10:14.956257,-80
2021-10-14 15:10:14.956265,-95
2021-10-14 15:10:14.956274,-83
2021-10-14 15:10:14.956282,-46
2021-10-14 15:10:14.956290,-26
2021-10-14 15:10:14.956299,-39
2021-10-14 15:10:15.225683,-51
2021-10-14 15:10:15.225704,-51
2021-10-14 15:10:15.225714,-61
2021-10-14 15:10:15.225723,-76
2021-10-14 15:10:15.225731,-68
2021-10-14 15:10:15.225740,-46
2021-10-14 15:10:15.225748,-39
2021-10-14 15:10:15.225756,-49
2021-10-14 15:10:15.225765,-61
2021-10-14 15:10:15.225773,-61
2021-10-14 15:10:15.225782,-24
2021-10-14 15:10:15.225790,93
2021-10-14 15:10:15.225798,377
2021-10-14 15:10:15.225807,755
2021-10-14 15:10:15.225815,821
2021-10-14 15:10:15.225824,206
2021-10-14 15:10:15.225832,-446
2021-10-14 15:10:15.225841,-260
2021-10-14 15:10:15.225849,110
2021-10-14 15:10:15.225858,0
2021-10-14 15:10:15.225866,-66
2021-10-14 15:10:15.225875,41
2021-10-14 15:10:15.225883,26
2021-10-14 15:10:15.225891,9
2021-10-14 15:10:15.225900,53
2021-10-14 15:10:15.225908,66
2021-10-14 15:10:15.225916,76
2021-10-14 15:10:15.225925,103
2021-10-14 15:10:15.225933,117
2021-10-14 15:10:15.225942,132
2021-10-14 15:10:15.450692,159
2021-10-14 15:10:15.450713,181
2021-10-14 15:10:15.450722,203
2021-10-14 15:10:15.450731,233
2021-10-14 15:10:15.450739,264
2021-10-14 15:10:15.450748,296
2021-10-14 15:10:15.450756,328
2021-10-14 15:10:15.450765,350
2021-10-14 15:10:15.450773,370
2021-10-14 15:10:15.450781,390
2021-10-14 15:10:15.450790,392
2021-10-14 15:10:15.450798,385
2021-10-14 15:10:15.450806,365
2021-10-14 15:10:15.450815,318
2021-10-14 15:10:15.450823,252
2021-10-14 15:10:15.450832,176
2021-10-14 15:10:15.450840,85
2021-10-14 15:10:15.450848,-9
2021-10-14 15:10:15.450857,-95
2021-10-14 15:10:15.450865,-139
2021-10-14 15:10:15.450874,-152
2021-10-14 15:10:15.450882,-184
2021-10-14 15:10:15.450890,-211
2021-10-14 15:10:15.450899,-203
2021-10-14 15:10:15.450907,-188
2021-10-14 15:10:15.450916,-184
2021-10-14 15:10:15.450925,-176
2021-10-14 15:10:15.450934,-166
2021-10-14 15:10:15.450942,-157
2021-10-14 15:10:15.450951,-142
2021-10-14 15:10:15.676061,-130
2021-10-14 15:10:15.676080,-120
2021-10-14 15:10:15.676090,-112
2021-10-14 15:10:15.676098,-112
2021-10-14 15:10:15.676107,-105
2021-10-14 15:10:15.676115,-98
2021-10-14 15:10:15.676124,-103
2021-10-14 15:10:15.676132,-100
2021-10-14 15:10:15.676141,-90
2021-10-14 15:10:15.676149,-80
2021-10-14 15:10:15.676158,-80
2021-10-14 15:10:15.676166,-93
2021-10-14 15:10:15.676175,-107
2021-10-14 15:10:15.676183,-103
2021-10-14 15:10:15.676192,-93
2021-10-14 15:10:15.676200,-90
2021-10-14 15:10:15.676208,-85
2021-10-14 15:10:15.676217,-85
2021-10-14 15:10:15.676225,-93
2021-10-14 15:10:15.676234,-90
2021-10-14 15:10:15.676242,-78
2021-10-14 15:10:15.676251,-78
2021-10-14 15:10:15.676259,-85
2021-10-14 15:10:15.676268,-90
2021-10-14 15:10:15.676276,-88
2021-10-14 15:10:15.676284,-85
2021-10-14 15:10:15.676293,-93
2021-10-14 15:10:15.676301,-95
2021-10-14 15:10:15.676309,-85
2021-10-14 15:10:15.676318,-80
2021-10-14 15:10:15.899390,-85
2021-10-14 15:10:15.899410,-76
2021-10-14 15:10:15.899420,-56
2021-10-14 15:10:15.899428,-56
2021-10-14 15:10:15.899437,-63
2021-10-14 15:10:15.899445,-66
2021-10-14 15:10:15.899454,-71
2021-10-14 15:10:15.899462,-83
2021-10-14 15:10:15.899470,-83
2021-10-14 15:10:15.899479,-53
2021-10-14 15:10:15.899487,-12
2021-10-14 15:10:15.899496,-2
2021-10-14 15:10:15.899504,-9
2021-10-14 15:10:15.899512,-12
2021-10-14 15:10:15.899521,-7
2021-10-14 15:10:15.899529,-12
2021-10-14 15:10:15.899537,-34
2021-10-14 15:10:15.899545,-49
2021-10-14 15:10:15.899554,-53
2021-10-14 15:10:15.899562,-53
2021-10-14 15:10:15.899570,-49
2021-10-14 15:10:15.899579,-44
2021-10-14 15:10:15.899587,-41
2021-10-14 15:10:15.899596,4
2021-10-14 15:10:15.899604,159
2021-10-14 15:10:15.899612,478
2021-10-14 15:10:15.899621,831
2021-10-14 15:10:15.899629,782
2021-10-14 15:10:15.899638,100
2021-10-14 15:10:15.899646,-426
2021-10-14 15:10:16.125667,-149
2021-10-14 15:10:16.125688,122
2021-10-14 15:10:16.125698,-26
2021-10-14 15:10:16.125706,-41
2021-10-14 15:10:16.125715,53
2021-10-14 15:10:16.125724,19
2021-10-14 15:10:16.125732,9
2021-10-14 15:10:16.125740,58
2021-10-14 15:10:16.125749,63
2021-10-14 15:10:16.125757,66
2021-10-14 15:10:16.125766,85
2021-10-14 15:10:16.125774,95
2021-10-14 15:10:16.125782,112
2021-10-14 15:10:16.125791,139
2021-10-14 15:10:16.125799,164
2021-10-14 15:10:16.125808,186
2021-10-14 15:10:16.125816,215
2021-10-14 15:10:16.125824,250
2021-10-14 15:10:16.125833,287
2021-10-14 15:10:16.125841,323
2021-10-14 15:10:16.125850,355
2021-10-14 15:10:16.125858,372
2021-10-14 15:10:16.125867,375
2021-10-14 15:10:16.125875,387
2021-10-14 15:10:16.125883,395
2021-10-14 15:10:16.125892,368
2021-10-14 15:10:16.125900,321
2021-10-14 15:10:16.125908,267
2021-10-14 15:10:16.125917,186
2021-10-14 15:10:16.125925,93
2021-10-14 15:10:16.350665,9
2021-10-14 15:10:16.350686,-58
2021-10-14 15:10:16.350695,-120
2021-10-14 15:10:16.350704,-176
2021-10-14 15:10:16.350712,-191
2021-10-14 15:10:16.350721,-171
2021-10-14 15:10:16.350729,-171
2021-10-14 15:10:16.350738,-186
2021-10-14 15:10:16.350746,-179
2021-10-14 15:10:16.350755,-164
2021-10-14 15:10:16.350763,-164
2021-10-14 15:10:16.350771,-157
2021-10-14 15:10:16.350780,-137
2021-10-14 15:10:16.350788,-127
2021-10-14 15:10:16.350796,-132
2021-10-14 15:10:16.350805,-132
2021-10-14 15:10:16.350813,-110
2021-10-14 15:10:16.350822,-95
2021-10-14 15:10:16.350830,-103
2021-10-14 15:10:16.350839,-103
2021-10-14 15:10:16.350847,-90
2021-10-14 15:10:16.350855,-93
2021-10-14 15:10:16.350864,-103
2021-10-14 15:10:16.350872,-105
2021-10-14 15:10:16.350881,-112
2021-10-14 15:10:16.350889,-120
2021-10-14 15:10:16.350897,-120
2021-10-14 15:10:16.350906,-120
2021-10-14 15:10:16.350914,-117
2021-10-14 15:10:16.350923,-112
2021-10-14 15:10:16.576071,-112
2021-10-14 15:10:16.576090,-117
2021-10-14 15:10:16.576100,-122
2021-10-14 15:10:16.576108,-125
2021-10-14 15:10:16.576117,-120
2021-10-14 15:10:16.576125,-105
2021-10-14 15:10:16.576134,-90
2021-10-14 15:10:16.576142,-85
2021-10-14 15:10:16.576150,-95
2021-10-14 15:10:16.576159,-115
2021-10-14 15:10:16.576167,-112
2021-10-14 15:10:16.576176,-105
2021-10-14 15:10:16.576184,-107
2021-10-14 15:10:16.576192,-93
2021-10-14 15:10:16.576201,-80
2021-10-14 15:10:16.576209,-95
2021-10-14 15:10:16.576217,-103
2021-10-14 15:10:16.576225,-85
2021-10-14 15:10:16.576233,-73
2021-10-14 15:10:16.576242,-76
2021-10-14 15:10:16.576250,-76
2021-10-14 15:10:16.576258,-44
2021-10-14 15:10:16.576267,-14
2021-10-14 15:10:16.576275,-14
2021-10-14 15:10:16.576283,-9
2021-10-14 15:10:16.576292,0
2021-10-14 15:10:16.576300,-19
2021-10-14 15:10:16.576308,-41
2021-10-14 15:10:16.576317,-41
2021-10-14 15:10:16.576325,-29
2021-10-14 15:10:16.801016,-17
2021-10-14 15:10:16.801036,-2
2021-10-14 15:10:16.801045,-4
2021-10-14 15:10:16.801054,-17
2021-10-14 15:10:16.801063,7
2021-10-14 15:10:16.801071,98
2021-10-14 15:10:16.801080,336
2021-10-14 15:10:16.801088,704
2021-10-14 15:10:16.801096,883
2021-10-14 15:10:16.801105,429
2021-10-14 15:10:16.801113,-316
2021-10-14 15:10:16.801122,-350
2021-10-14 15:10:16.801130,83
2021-10-14 15:10:16.801139,78
2021-10-14 15:10:16.801150,-66
2021-10-14 15:10:16.801159,26
2021-10-14 15:10:16.801167,61
2021-10-14 15:10:16.801176,12
2021-10-14 15:10:16.801184,41
2021-10-14 15:10:16.801193,78
2021-10-14 15:10:16.801201,78
2021-10-14 15:10:16.801209,95
2021-10-14 15:10:16.801218,120
2021-10-14 15:10:16.801226,132
2021-10-14 15:10:16.801234,154
2021-10-14 15:10:16.801243,184
2021-10-14 15:10:16.801251,208
2021-10-14 15:10:16.801260,235
2021-10-14 15:10:16.801269,267
2021-10-14 15:10:16.801277,291
2021-10-14 15:10:17.026138,311
2021-10-14 15:10:17.026159,333
2021-10-14 15:10:17.026169,358
2021-10-14 15:10:17.026178,377
2021-10-14 15:10:17.026186,380
2021-10-14 15:10:17.026195,363
2021-10-14 15:10:17.026203,345
2021-10-14 15:10:17.026211,331
2021-10-14 15:10:17.026220,291
2021-10-14 15:10:17.026228,208
2021-10-14 15:10:17.026236,103
2021-10-14 15:10:17.026245,19
2021-10-14 15:10:17.026253,-39
2021-10-14 15:10:17.026261,-98
2021-10-14 15:10:17.026270,-157
2021-10-14 15:10:17.026278,-193
2021-10-14 15:10:17.026286,-211
2021-10-14 15:10:17.026295,-211
2021-10-14 15:10:17.026303,-201
2021-10-14 15:10:17.026311,-193
2021-10-14 15:10:17.026320,-191
2021-10-14 15:10:17.026328,-184
2021-10-14 15:10:17.026336,-164
2021-10-14 15:10:17.026345,-144
2021-10-14 15:10:17.026353,-130
2021-10-14 15:10:17.026361,-122
2021-10-14 15:10:17.026369,-115
2021-10-14 15:10:17.026377,-107
2021-10-14 15:10:17.026386,-100
2021-10-14 15:10:17.026394,-95
2021-10-14 15:10:17.250663,-98
2021-10-14 15:10:17.250686,-95
2021-10-14 15:10:17.250696,-88
2021-10-14 15:10:17.250705,-93
2021-10-14 15:10:17.250713,-98
2021-10-14 15:10:17.250722,-95
2021-10-14 15:10:17.250731,-100
2021-10-14 15:10:17.250739,-107
2021-10-14 15:10:17.250748,-103
2021-10-14 15:10:17.250757,-105
2021-10-14 15:10:17.250765,-107
2021-10-14 15:10:17.250774,-107
2021-10-14 15:10:17.250782,-117
2021-10-14 15:10:17.250791,-127
2021-10-14 15:10:17.250799,-127
2021-10-14 15:10:17.250808,-122
2021-10-14 15:10:17.250816,-115
2021-10-14 15:10:17.250825,-110
2021-10-14 15:10:17.250834,-103
2021-10-14 15:10:17.250842,-93
2021-10-14 15:10:17.250851,-98
2021-10-14 15:10:17.250859,-115
2021-10-14 15:10:17.250867,-110
2021-10-14 15:10:17.250876,-98
2021-10-14 15:10:17.250884,-98
2021-10-14 15:10:17.250893,-98
2021-10-14 15:10:17.250902,-85
2021-10-14 15:10:17.250910,-80
2021-10-14 15:10:17.250919,-73
2021-10-14 15:10:17.250927,-63
2021-10-14 15:10:17.476009,-61
2021-10-14 15:10:17.476028,-63
2021-10-14 15:10:17.476038,-61
2021-10-14 15:10:17.476047,-63
2021-10-14 15:10:17.476055,-61
2021-10-14 15:10:17.476064,-51
2021-10-14 15:10:17.476072,-29
2021-10-14 15:10:17.476080,-12
2021-10-14 15:10:17.476089,-17
2021-10-14 15:10:17.476097,-26
2021-10-14 15:10:17.476106,-29
2021-10-14 15:10:17.476114,-39
2021-10-14 15:10:17.476122,-49
2021-10-14 15:10:17.476131,-44
2021-10-14 15:10:17.476139,-39
2021-10-14 15:10:17.476148,-44
2021-10-14 15:10:17.476156,-39
2021-10-14 15:10:17.476164,-26
2021-10-14 15:10:17.476173,-14
2021-10-14 15:10:17.476181,78
2021-10-14 15:10:17.476189,350
2021-10-14 15:10:17.476198,714
2021-10-14 15:10:17.476206,834
2021-10-14 15:10:17.476214,318
2021-10-14 15:10:17.476223,-407
2021-10-14 15:10:17.476231,-345
2021-10-14 15:10:17.476239,98
2021-10-14 15:10:17.476248,56
2021-10-14 15:10:17.476256,-68
2021-10-14 15:10:17.476264,34
2021-10-14 15:10:17.745694,58
2021-10-14 15:10:17.745726,14
2021-10-14 15:10:17.745735,44
2021-10-14 15:10:17.745744,80
2021-10-14 15:10:17.745753,83
2021-10-14 15:10:17.745761,83
2021-10-14 15:10:17.745769,105
2021-10-14 15:10:17.745778,139
2021-10-14 15:10:17.745786,159
2021-10-14 15:10:17.745794,169
2021-10-14 15:10:17.745803,191
2021-10-14 15:10:17.745811,218
2021-10-14 15:10:17.745819,245
2021-10-14 15:10:17.745828,282
2021-10-14 15:10:17.745836,321
2021-10-14 15:10:17.745844,350
2021-10-14 15:10:17.745853,360
2021-10-14 15:10:17.745861,365
2021-10-14 15:10:17.745869,375
2021-10-14 15:10:17.745878,375
2021-10-14 15:10:17.745886,360
2021-10-14 15:10:17.745895,331
2021-10-14 15:10:17.745903,274
2021-10-14 15:10:17.745911,198
2021-10-14 15:10:17.745920,117
2021-10-14 15:10:17.745928,31
2021-10-14 15:10:17.745936,-46
2021-10-14 15:10:17.745945,-103
2021-10-14 15:10:17.745953,-149
2021-10-14 15:10:17.745961,-188
2021-10-14 15:10:17.969727,-196
2021-10-14 15:10:17.969749,-196
2021-10-14 15:10:17.969758,-201
2021-10-14 15:10:17.969767,-196
2021-10-14 15:10:17.969776,-193
2021-10-14 15:10:17.969784,-188
2021-10-14 15:10:17.969792,-171
2021-10-14 15:10:17.969801,-157
2021-10-14 15:10:17.969809,-142
2021-10-14 15:10:17.969818,-125
2021-10-14 15:10:17.969827,-134
2021-10-14 15:10:17.969835,-144
2021-10-14 15:10:17.969843,-130
2021-10-14 15:10:17.969852,-112
2021-10-14 15:10:17.969860,-115
2021-10-14 15:10:17.969868,-117
2021-10-14 15:10:17.969877,-122
2021-10-14 15:10:17.969885,-134
2021-10-14 15:10:17.969894,-134
2021-10-14 15:10:17.969902,-120
2021-10-14 15:10:17.969911,-120
2021-10-14 15:10:17.969919,-134
2021-10-14 15:10:17.969927,-139
2021-10-14 15:10:17.969936,-137
2021-10-14 15:10:17.969944,-137
2021-10-14 15:10:17.969953,-142
2021-10-14 15:10:17.969961,-147
2021-10-14 15:10:17.969969,-147
2021-10-14 15:10:17.969977,-137
2021-10-14 15:10:17.969986,-127
2021-10-14 15:10:18.195720,-125
2021-10-14 15:10:18.195741,-122
2021-10-14 15:10:18.195751,-117
2021-10-14 15:10:18.195759,-120
2021-10-14 15:10:18.195768,-125
2021-10-14 15:10:18.195776,-120
2021-10-14 15:10:18.195785,-112
2021-10-14 15:10:18.195793,-103
2021-10-14 15:10:18.195802,-98
2021-10-14 15:10:18.195810,-100
2021-10-14 15:10:18.195819,-112
2021-10-14 15:10:18.195827,-120
2021-10-14 15:10:18.195836,-110
2021-10-14 15:10:18.195844,-80
2021-10-14 15:10:18.195853,-51
2021-10-14 15:10:18.195861,-39
2021-10-14 15:10:18.195870,-31
2021-10-14 15:10:18.195878,-22
2021-10-14 15:10:18.195886,-29
2021-10-14 15:10:18.195895,-44
2021-10-14 15:10:18.195903,-49
2021-10-14 15:10:18.195912,-49
2021-10-14 15:10:18.195920,-51
2021-10-14 15:10:18.195929,-44
2021-10-14 15:10:18.195937,-24
2021-10-14 15:10:18.195945,-26
2021-10-14 15:10:18.195954,-46
2021-10-14 15:10:18.195962,-17
2021-10-14 15:10:18.195971,112
2021-10-14 15:10:18.195979,382
2021-10-14 15:10:18.420773,701
2021-10-14 15:10:18.420794,706
2021-10-14 15:10:18.420803,73
2021-10-14 15:10:18.420812,-559
2021-10-14 15:10:18.420821,-299
2021-10-14 15:10:18.420829,137
2021-10-14 15:10:18.420837,39
2021-10-14 15:10:18.420846,-29
2021-10-14 15:10:18.420854,83
2021-10-14 15:10:18.420862,66
2021-10-14 15:10:18.420871,26
2021-10-14 15:10:18.420879,80
2021-10-14 15:10:18.420887,112
2021-10-14 15:10:18.420896,110
2021-10-14 15:10:18.420904,130
2021-10-14 15:10:18.420912,142
2021-10-14 15:10:18.420920,137
2021-10-14 15:10:18.420929,157
2021-10-14 15:10:18.420937,206
2021-10-14 15:10:18.420945,235
2021-10-14 15:10:18.420954,247
2021-10-14 15:10:18.420962,282
2021-10-14 15:10:18.420970,331
2021-10-14 15:10:18.420979,358
2021-10-14 15:10:18.420998,382
2021-10-14 15:10:18.421007,422
2021-10-14 15:10:18.421015,431
2021-10-14 15:10:18.421023,409
2021-10-14 15:10:18.421031,390
2021-10-14 15:10:18.421040,380
2021-10-14 15:10:18.646106,350
2021-10-14 15:10:18.646127,289
2021-10-14 15:10:18.646136,198
2021-10-14 15:10:18.646145,90
2021-10-14 15:10:18.646153,-2
2021-10-14 15:10:18.646162,-76
2021-10-14 15:10:18.646170,-134
2021-10-14 15:10:18.646178,-166
2021-10-14 15:10:18.646187,-193
2021-10-14 15:10:18.646195,-218
2021-10-14 15:10:18.646203,-213
2021-10-14 15:10:18.646212,-198
2021-10-14 15:10:18.646220,-201
2021-10-14 15:10:18.646228,-198
2021-10-14 15:10:18.646237,-188
2021-10-14 15:10:18.646245,-179
2021-10-14 15:10:18.646254,-157
2021-10-14 15:10:18.646262,-144
2021-10-14 15:10:18.646271,-134
2021-10-14 15:10:18.646279,-125
2021-10-14 15:10:18.646287,-115
2021-10-14 15:10:18.646296,-115
2021-10-14 15:10:18.646304,-115
2021-10-14 15:10:18.646312,-105
2021-10-14 15:10:18.646320,-100
2021-10-14 15:10:18.646329,-105
2021-10-14 15:10:18.646337,-103
2021-10-14 15:10:18.646345,-103
2021-10-14 15:10:18.646354,-110
2021-10-14 15:10:18.646362,-110
2021-10-14 15:10:18.915560,-107
2021-10-14 15:10:18.915582,-105
2021-10-14 15:10:18.915591,-112
2021-10-14 15:10:18.915599,-127
2021-10-14 15:10:18.915606,-130
2021-10-14 15:10:18.915614,-112
2021-10-14 15:10:18.915622,-103
2021-10-14 15:10:18.915629,-117
2021-10-14 15:10:18.915637,-134
2021-10-14 15:10:18.915645,-132
2021-10-14 15:10:18.915652,-120
2021-10-14 15:10:18.915660,-120
2021-10-14 15:10:18.915668,-110
2021-10-14 15:10:18.915675,-98
2021-10-14 15:10:18.915683,-103
2021-10-14 15:10:18.915691,-115
2021-10-14 15:10:18.915698,-125
2021-10-14 15:10:18.915706,-112
2021-10-14 15:10:18.915714,-71
2021-10-14 15:10:18.915721,-34
2021-10-14 15:10:18.915729,-36
2021-10-14 15:10:18.915737,-53
2021-10-14 15:10:18.915744,-58
2021-10-14 15:10:18.915752,-61
2021-10-14 15:10:18.915759,-76
2021-10-14 15:10:18.915767,-83
2021-10-14 15:10:18.915775,-73
2021-10-14 15:10:18.915782,-66
2021-10-14 15:10:18.915790,-66
2021-10-14 15:10:18.915797,-56
2021-10-14 15:10:19.095707,-44
2021-10-14 15:10:19.095727,-36
2021-10-14 15:10:19.095737,-2
2021-10-14 15:10:19.095746,154
2021-10-14 15:10:19.095754,490
2021-10-14 15:10:19.095763,809
2021-10-14 15:10:19.095771,615
2021-10-14 15:10:19.095779,-159
2021-10-14 15:10:19.095787,-527
2021-10-14 15:10:19.095796,-95
2021-10-14 15:10:19.095804,110
2021-10-14 15:10:19.095813,-71
2021-10-14 15:10:19.095821,-26
2021-10-14 15:10:19.095829,61
2021-10-14 15:10:19.095838,14
2021-10-14 15:10:19.095846,24
2021-10-14 15:10:19.095855,76
2021-10-14 15:10:19.095863,83
2021-10-14 15:10:19.095871,90
2021-10-14 15:10:19.095879,115
2021-10-14 15:10:19.095888,127
2021-10-14 15:10:19.095896,139
2021-10-14 15:10:19.095904,171
2021-10-14 15:10:19.095913,213
2021-10-14 15:10:19.095921,233
2021-10-14 15:10:19.095929,247
2021-10-14 15:10:19.095938,289
2021-10-14 15:10:19.095946,333
2021-10-14 15:10:19.095954,363
2021-10-14 15:10:19.095963,395
2021-10-14 15:10:19.365791,426
2021-10-14 15:10:19.365813,441
2021-10-14 15:10:19.365822,429
2021-10-14 15:10:19.365828,399
2021-10-14 15:10:19.365836,370
2021-10-14 15:10:19.365843,326
2021-10-14 15:10:19.365850,238
2021-10-14 15:10:19.365857,125
2021-10-14 15:10:19.365865,26
2021-10-14 15:10:19.365872,-51
2021-10-14 15:10:19.365879,-115
2021-10-14 15:10:19.365887,-166
2021-10-14 15:10:19.365894,-203
2021-10-14 15:10:19.365901,-215
2021-10-14 15:10:19.365909,-208
2021-10-14 15:10:19.365916,-211
2021-10-14 15:10:19.365923,-213
2021-10-14 15:10:19.365930,-201
2021-10-14 15:10:19.365938,-186
2021-10-14 15:10:19.365948,-174
2021-10-14 15:10:19.365956,-157
2021-10-14 15:10:19.365963,-152
2021-10-14 15:10:19.365970,-152
2021-10-14 15:10:19.365977,-137
2021-10-14 15:10:19.365985,-115
2021-10-14 15:10:19.365992,-103
2021-10-14 15:10:19.366000,-107
2021-10-14 15:10:19.366007,-127
2021-10-14 15:10:19.366014,-130
2021-10-14 15:10:19.366022,-117
2021-10-14 15:10:19.546115,-112
2021-10-14 15:10:19.546136,-107
2021-10-14 15:10:19.546145,-93
2021-10-14 15:10:19.546154,-90
2021-10-14 15:10:19.546162,-100
2021-10-14 15:10:19.546171,-103
2021-10-14 15:10:19.546179,-98
2021-10-14 15:10:19.546187,-95
2021-10-14 15:10:19.546196,-98
2021-10-14 15:10:19.546204,-93
2021-10-14 15:10:19.546213,-95
2021-10-14 15:10:19.546221,-110
2021-10-14 15:10:19.546229,-112
2021-10-14 15:10:19.546238,-90
2021-10-14 15:10:19.546246,-85
2021-10-14 15:10:19.546254,-100
2021-10-14 15:10:19.546263,-115
2021-10-14 15:10:19.546272,-122
2021-10-14 15:10:19.546280,-115
2021-10-14 15:10:19.546288,-103
2021-10-14 15:10:19.546297,-103
2021-10-14 15:10:19.546305,-105
2021-10-14 15:10:19.546313,-100
2021-10-14 15:10:19.546322,-103
2021-10-14 15:10:19.546330,-105
2021-10-14 15:10:19.546338,-100
2021-10-14 15:10:19.546346,-85
2021-10-14 15:10:19.546355,-49
2021-10-14 15:10:19.546363,-24
2021-10-14 15:10:19.546371,-34
2021-10-14 15:10:19.860133,-41
2021-10-14 15:10:19.860154,-36
2021-10-14 15:10:19.860163,-44
2021-10-14 15:10:19.860172,-58
2021-10-14 15:10:19.860180,-66
2021-10-14 15:10:19.860189,-68
2021-10-14 15:10:19.860197,-66
2021-10-14 15:10:19.860206,-63
2021-10-14 15:10:19.860214,-68
2021-10-14 15:10:19.860223,-56
2021-10-14 15:10:19.860231,-22
2021-10-14 15:10:19.860240,98
2021-10-14 15:10:19.860248,399
2021-10-14 15:10:19.860257,760
2021-10-14 15:10:19.860265,726
2021-10-14 15:10:19.860273,56
2021-10-14 15:10:19.860282,-476
2021-10-14 15:10:19.860290,-196
2021-10-14 15:10:19.860299,95
2021-10-14 15:10:19.860307,-49
2021-10-14 15:10:19.860316,-66
2021-10-14 15:10:19.860324,31
2021-10-14 15:10:19.860333,2
2021-10-14 15:10:19.860342,0
2021-10-14 15:10:19.860350,53
2021-10-14 15:10:19.860359,66
2021-10-14 15:10:19.860367,68
2021-10-14 15:10:19.860376,100
2021-10-14 15:10:19.860384,115
2021-10-14 15:10:19.860393,117
2021-10-14 15:10:20.039929,139
2021-10-14 15:10:20.039950,169
2021-10-14 15:10:20.039960,196
2021-10-14 15:10:20.039969,213
2021-10-14 15:10:20.039978,233
2021-10-14 15:10:20.039986,279
2021-10-14 15:10:20.039994,323
2021-10-14 15:10:20.040003,345
2021-10-14 15:10:20.040011,368
2021-10-14 15:10:20.040020,382
2021-10-14 15:10:20.040028,375
2021-10-14 15:10:20.040036,365
2021-10-14 15:10:20.040045,355
2021-10-14 15:10:20.040053,321
2021-10-14 15:10:20.040062,245
2021-10-14 15:10:20.040070,137
2021-10-14 15:10:20.040078,29
2021-10-14 15:10:20.040087,-49
2021-10-14 15:10:20.040095,-112
2021-10-14 15:10:20.040104,-169
2021-10-14 15:10:20.040112,-201
2021-10-14 15:10:20.040121,-223
2021-10-14 15:10:20.040129,-235
2021-10-14 15:10:20.040137,-228
2021-10-14 15:10:20.040146,-213
2021-10-14 15:10:20.040154,-208
2021-10-14 15:10:20.040163,-203
2021-10-14 15:10:20.040171,-188
2021-10-14 15:10:20.040180,-169
2021-10-14 15:10:20.040188,-169
2021-10-14 15:10:20.355748,-164
2021-10-14 15:10:20.355769,-144
2021-10-14 15:10:20.355778,-142
2021-10-14 15:10:20.355787,-147
2021-10-14 15:10:20.355796,-139
2021-10-14 15:10:20.355804,-130
2021-10-14 15:10:20.355813,-125
2021-10-14 15:10:20.355821,-112
2021-10-14 15:10:20.355829,-112
2021-10-14 15:10:20.355838,-122
2021-10-14 15:10:20.355846,-117
2021-10-14 15:10:20.355855,-117
2021-10-14 15:10:20.355863,-142
2021-10-14 15:10:20.355872,-144
2021-10-14 15:10:20.355880,-127
2021-10-14 15:10:20.355889,-122
2021-10-14 15:10:20.355897,-127
2021-10-14 15:10:20.355906,-130
2021-10-14 15:10:20.355914,-122
2021-10-14 15:10:20.355923,-115
2021-10-14 15:10:20.355931,-115
2021-10-14 15:10:20.355939,-125
2021-10-14 15:10:20.355948,-130
2021-10-14 15:10:20.355956,-130
2021-10-14 15:10:20.355964,-120
2021-10-14 15:10:20.355973,-112
2021-10-14 15:10:20.355981,-122
2021-10-14 15:10:20.355990,-134
2021-10-14 15:10:20.355998,-127
2021-10-14 15:10:20.356006,-125
2021-10-14 15:10:20.535512,-134
2021-10-14 15:10:20.535532,-130
2021-10-14 15:10:20.535541,-125
2021-10-14 15:10:20.535549,-139
2021-10-14 15:10:20.535557,-139
2021-10-14 15:10:20.535565,-125
2021-10-14 15:10:20.535572,-120
2021-10-14 15:10:20.535578,-122
2021-10-14 15:10:20.535586,-137
2021-10-14 15:10:20.535593,-161
2021-10-14 15:10:20.535600,-154
2021-10-14 15:10:20.535611,-122
2021-10-14 15:10:20.535622,-103
2021-10-14 15:10:20.535634,-95
2021-10-14 15:10:20.535646,-98
2021-10-14 15:10:20.535657,-98
2021-10-14 15:10:20.535667,-93
2021-10-14 15:10:20.535675,-93
2021-10-14 15:10:20.535682,-88
2021-10-14 15:10:20.535691,-88
2021-10-14 15:10:20.535698,-115
2021-10-14 15:10:20.535706,-127
2021-10-14 15:10:20.535713,-103
2021-10-14 15:10:20.535720,-103
2021-10-14 15:10:20.535728,-112
2021-10-14 15:10:20.535736,-83
2021-10-14 15:10:20.535744,7
2021-10-14 15:10:20.535752,238
2021-10-14 15:10:20.535760,603
2021-10-14 15:10:20.535768,780
2021-10-14 15:10:20.716264,326
2021-10-14 15:10:20.716285,-404
2021-10-14 15:10:20.716295,-414
2021-10-14 15:10:20.716304,2
2021-10-14 15:10:20.716312,-39
2021-10-14 15:10:20.716321,-179
2021-10-14 15:10:20.716329,-73
2021-10-14 15:10:20.716338,-58
2021-10-14 15:10:20.716346,-125
2021-10-14 15:10:20.716355,-83
2021-10-14 15:10:20.716363,-29
2021-10-14 15:10:20.716372,-41
2021-10-14 15:10:20.716380,-36
2021-10-14 15:10:20.716389,2
2021-10-14 15:10:20.716397,34
2021-10-14 15:10:20.716406,51
2021-10-14 15:10:20.716414,63
2021-10-14 15:10:20.716422,83
2021-10-14 15:10:20.716431,110
2021-10-14 15:10:20.716439,144
2021-10-14 15:10:20.716448,193
2021-10-14 15:10:20.716456,228
2021-10-14 15:10:20.716464,252
2021-10-14 15:10:20.716473,294
2021-10-14 15:10:20.716481,321
2021-10-14 15:10:20.716490,314
2021-10-14 15:10:20.716498,306
2021-10-14 15:10:20.716506,299
2021-10-14 15:10:20.716515,277
2021-10-14 15:10:20.716523,240
2021-10-14 15:10:20.985737,169
2021-10-14 15:10:20.985758,56
2021-10-14 15:10:20.985767,-56
2021-10-14 15:10:20.985776,-132
2021-10-14 15:10:20.985785,-181
2021-10-14 15:10:20.985793,-225
2021-10-14 15:10:20.985802,-264
2021-10-14 15:10:20.985810,-282
2021-10-14 15:10:20.985818,-274
2021-10-14 15:10:20.985827,-272
2021-10-14 15:10:20.985835,-264
2021-10-14 15:10:20.985844,-245
2021-10-14 15:10:20.985852,-238
2021-10-14 15:10:20.985861,-260
2021-10-14 15:10:20.985869,-267
2021-10-14 15:10:20.985877,-238
2021-10-14 15:10:20.985886,-211
2021-10-14 15:10:20.985894,-208
2021-10-14 15:10:20.985903,-206
2021-10-14 15:10:20.985911,-198
2021-10-14 15:10:20.985919,-198
2021-10-14 15:10:20.985928,-188
2021-10-14 15:10:20.985936,-169
2021-10-14 15:10:20.985945,-154
2021-10-14 15:10:20.985953,-161
2021-10-14 15:10:20.985961,-157
2021-10-14 15:10:20.985970,-134
2021-10-14 15:10:20.985978,-134
2021-10-14 15:10:20.985987,-149
2021-10-14 15:10:20.985995,-130
2021-10-14 15:10:21.165864,-103
2021-10-14 15:10:21.165885,-107
2021-10-14 15:10:21.165894,-110
2021-10-14 15:10:21.165903,-110
2021-10-14 15:10:21.165912,-107
2021-10-14 15:10:21.165920,-95
2021-10-14 15:10:21.165929,-85
2021-10-14 15:10:21.165937,-93
2021-10-14 15:10:21.165946,-98
2021-10-14 15:10:21.165954,-90
2021-10-14 15:10:21.165963,-85
2021-10-14 15:10:21.165971,-83
2021-10-14 15:10:21.165979,-73
2021-10-14 15:10:21.165988,-78
2021-10-14 15:10:21.165996,-93
2021-10-14 15:10:21.166005,-85
2021-10-14 15:10:21.166013,-63
2021-10-14 15:10:21.166022,-71
2021-10-14 15:10:21.166030,-85
2021-10-14 15:10:21.166039,-73
2021-10-14 15:10:21.166047,-68
2021-10-14 15:10:21.166055,-71
2021-10-14 15:10:21.166064,-63
2021-10-14 15:10:21.166072,-58
2021-10-14 15:10:21.166081,-56
2021-10-14 15:10:21.166089,-53
2021-10-14 15:10:21.166098,-71
2021-10-14 15:10:21.166106,-66
2021-10-14 15:10:21.166114,-9
2021-10-14 15:10:21.166123,31
2021-10-14 15:10:21.436146,19
2021-10-14 15:10:21.436167,17
2021-10-14 15:10:21.436176,22
2021-10-14 15:10:21.436184,2
2021-10-14 15:10:21.436192,-12
2021-10-14 15:10:21.436200,-7
2021-10-14 15:10:21.436208,-12
2021-10-14 15:10:21.436216,-14
2021-10-14 15:10:21.436224,0
2021-10-14 15:10:21.436233,14
2021-10-14 15:10:21.436241,7
2021-10-14 15:10:21.436249,2
2021-10-14 15:10:21.436257,105
2021-10-14 15:10:21.436265,397
2021-10-14 15:10:21.436273,760
2021-10-14 15:10:21.436281,856
2021-10-14 15:10:21.436290,353
2021-10-14 15:10:21.436298,-336
2021-10-14 15:10:21.436306,-328
2021-10-14 15:10:21.436314,58
2021-10-14 15:10:21.436322,51
2021-10-14 15:10:21.436330,-58
2021-10-14 15:10:21.436337,9
2021-10-14 15:10:21.436345,26
2021-10-14 15:10:21.436353,2
2021-10-14 15:10:21.436361,39
2021-10-14 15:10:21.436369,63
2021-10-14 15:10:21.436377,58
2021-10-14 15:10:21.436385,73
2021-10-14 15:10:21.436393,105
2021-10-14 15:10:21.615888,125
2021-10-14 15:10:21.615909,149
2021-10-14 15:10:21.615919,179
2021-10-14 15:10:21.615928,201
2021-10-14 15:10:21.615936,225
2021-10-14 15:10:21.615944,262
2021-10-14 15:10:21.615953,296
2021-10-14 15:10:21.615961,316
2021-10-14 15:10:21.615969,341
2021-10-14 15:10:21.615978,370
2021-10-14 15:10:21.615986,370
2021-10-14 15:10:21.615995,365
2021-10-14 15:10:21.616003,375
2021-10-14 15:10:21.616011,375
2021-10-14 15:10:21.616019,343
2021-10-14 15:10:21.616028,294
2021-10-14 15:10:21.616036,228
2021-10-14 15:10:21.616045,147
2021-10-14 15:10:21.616053,56
2021-10-14 15:10:21.616061,-29
2021-10-14 15:10:21.616071,-95
2021-10-14 15:10:21.616079,-137
2021-10-14 15:10:21.616087,-169
2021-10-14 15:10:21.616096,-186
2021-10-14 15:10:21.616104,-193
2021-10-14 15:10:21.616113,-191
2021-10-14 15:10:21.616121,-181
2021-10-14 15:10:21.616129,-176
2021-10-14 15:10:21.616138,-174
2021-10-14 15:10:21.616146,-152
2021-10-14 15:10:21.841120,-134
2021-10-14 15:10:21.841142,-130
2021-10-14 15:10:21.841152,-125
2021-10-14 15:10:21.841162,-127
2021-10-14 15:10:21.841171,-132
2021-10-14 15:10:21.841181,-130
2021-10-14 15:10:21.841190,-120
2021-10-14 15:10:21.841199,-112
2021-10-14 15:10:21.841208,-107
2021-10-14 15:10:21.841217,-107
2021-10-14 15:10:21.841226,-127
2021-10-14 15:10:21.841235,-130
2021-10-14 15:10:21.841243,-110
2021-10-14 15:10:21.841252,-112
2021-10-14 15:10:21.841260,-125
2021-10-14 15:10:21.841269,-117
2021-10-14 15:10:21.841277,-110
2021-10-14 15:10:21.841286,-112
2021-10-14 15:10:21.841294,-112
2021-10-14 15:10:21.841302,-105
2021-10-14 15:10:21.841311,-107
2021-10-14 15:10:21.841319,-110
2021-10-14 15:10:21.841328,-107
2021-10-14 15:10:21.841336,-112
2021-10-14 15:10:21.841345,-130
2021-10-14 15:10:21.841353,-139
2021-10-14 15:10:21.841361,-137
2021-10-14 15:10:21.841370,-130
2021-10-14 15:10:21.841378,-127
2021-10-14 15:10:21.841387,-122
2021-10-14 15:10:22.154812,-112
2021-10-14 15:10:22.154833,-103
2021-10-14 15:10:22.154842,-103
2021-10-14 15:10:22.154851,-107
2021-10-14 15:10:22.154859,-103
2021-10-14 15:10:22.154868,-83
2021-10-14 15:10:22.154876,-95
2021-10-14 15:10:22.154885,-117
2021-10-14 15:10:22.154893,-88
2021-10-14 15:10:22.154907,-49
2021-10-14 15:10:22.154934,-39
2021-10-14 15:10:22.154943,-26
2021-10-14 15:10:22.154951,-4
2021-10-14 15:10:22.154958,-7
2021-10-14 15:10:22.154966,-31
2021-10-14 15:10:22.154973,-51
2021-10-14 15:10:22.154981,-41
2021-10-14 15:10:22.154989,-17
2021-10-14 15:10:22.154996,-17
2021-10-14 15:10:22.155004,-31
2021-10-14 15:10:22.155012,-22
2021-10-14 15:10:22.155019,-4
2021-10-14 15:10:22.155026,-7
2021-10-14 15:10:22.155034,31
2021-10-14 15:10:22.155042,247
2021-10-14 15:10:22.155049,620
2021-10-14 15:10:22.155057,834
2021-10-14 15:10:22.155065,473
2021-10-14 15:10:22.155073,-318
2021-10-14 15:10:22.155080,-554
2021-10-14 15:10:22.335778,-44
2021-10-14 15:10:22.335799,142
2021-10-14 15:10:22.335809,-46
2021-10-14 15:10:22.335818,14
2021-10-14 15:10:22.335827,117
2021-10-14 15:10:22.335838,49
2021-10-14 15:10:22.335847,44
2021-10-14 15:10:22.335856,100
2021-10-14 15:10:22.335864,90
2021-10-14 15:10:22.335873,78
2021-10-14 15:10:22.335881,115
2021-10-14 15:10:22.335890,152
2021-10-14 15:10:22.335898,166
2021-10-14 15:10:22.335907,188
2021-10-14 15:10:22.335916,196
2021-10-14 15:10:22.335924,196
2021-10-14 15:10:22.335933,230
2021-10-14 15:10:22.335942,279
2021-10-14 15:10:22.335950,311
2021-10-14 15:10:22.335958,331
2021-10-14 15:10:22.335967,360
2021-10-14 15:10:22.335975,395
2021-10-14 15:10:22.335983,399
2021-10-14 15:10:22.335992,375
2021-10-14 15:10:22.336000,350
2021-10-14 15:10:22.336009,333
2021-10-14 15:10:22.336017,291
2021-10-14 15:10:22.336025,220
2021-10-14 15:10:22.336034,134
2021-10-14 15:10:22.336042,39
2021-10-14 15:10:22.561113,-66
2021-10-14 15:10:22.561134,-152
2021-10-14 15:10:22.561143,-203
2021-10-14 15:10:22.561152,-230
2021-10-14 15:10:22.561161,-240
2021-10-14 15:10:22.561169,-240
2021-10-14 15:10:22.561178,-247
2021-10-14 15:10:22.561187,-247
2021-10-14 15:10:22.561195,-247
2021-10-14 15:10:22.561204,-238
2021-10-14 15:10:22.561212,-215
2021-10-14 15:10:22.561220,-203
2021-10-14 15:10:22.561229,-203
2021-10-14 15:10:22.561237,-191
2021-10-14 15:10:22.561246,-186
2021-10-14 15:10:22.561254,-201
2021-10-14 15:10:22.561262,-186
2021-10-14 15:10:22.561271,-154
2021-10-14 15:10:22.561279,-154
2021-10-14 15:10:22.561288,-176
2021-10-14 15:10:22.561296,-166
2021-10-14 15:10:22.561305,-152
2021-10-14 15:10:22.561313,-166
2021-10-14 15:10:22.561322,-166
2021-10-14 15:10:22.561330,-154
2021-10-14 15:10:22.561338,-152
2021-10-14 15:10:22.561347,-164
2021-10-14 15:10:22.561355,-186
2021-10-14 15:10:22.561363,-171
2021-10-14 15:10:22.561371,-149
2021-10-14 15:10:22.920191,-171
2021-10-14 15:10:22.920212,-176
2021-10-14 15:10:22.920222,-149
2021-10-14 15:10:22.920234,-159
2021-10-14 15:10:22.920243,-164
2021-10-14 15:10:22.920252,-130
2021-10-14 15:10:22.920260,-137
2021-10-14 15:10:22.920269,-176
2021-10-14 15:10:22.920277,-171
2021-10-14 15:10:22.920286,-159
2021-10-14 15:10:22.920294,-152
2021-10-14 15:10:22.920303,-125
2021-10-14 15:10:22.920311,-120
2021-10-14 15:10:22.920320,-144
2021-10-14 15:10:22.920328,-139
2021-10-14 15:10:22.920337,-132
2021-10-14 15:10:22.920345,-134
2021-10-14 15:10:22.920353,-105
2021-10-14 15:10:22.920362,-68
2021-10-14 15:10:22.920370,-56
2021-10-14 15:10:22.920379,-46
2021-10-14 15:10:22.920388,-36
2021-10-14 15:10:22.920396,-58
2021-10-14 15:10:22.920404,-85
2021-10-14 15:10:22.920413,-73
2021-10-14 15:10:22.920421,-58
2021-10-14 15:10:22.920429,-68
2021-10-14 15:10:22.920438,-71
2021-10-14 15:10:22.920446,-66
2021-10-14 15:10:22.920454,-66
2021-10-14 15:10:23.056153,-61
2021-10-14 15:10:23.056175,-36
2021-10-14 15:10:23.056184,78
2021-10-14 15:10:23.056193,355
2021-10-14 15:10:23.056202,701
2021-10-14 15:10:23.056210,787
2021-10-14 15:10:23.056219,186
2021-10-14 15:10:23.056227,-583
2021-10-14 15:10:23.056236,-431
2021-10-14 15:10:23.056245,88
2021-10-14 15:10:23.056253,12
2021-10-14 15:10:23.056262,-120
2021-10-14 15:10:23.056270,17
2021-10-14 15:10:23.056279,19
2021-10-14 15:10:23.056287,-51
2021-10-14 15:10:23.056295,17
2021-10-14 15:10:23.056304,76
2021-10-14 15:10:23.056312,61
2021-10-14 15:10:23.056321,58
2021-10-14 15:10:23.056329,80
2021-10-14 15:10:23.056337,110
2021-10-14 15:10:23.056346,149
2021-10-14 15:10:23.056354,176
2021-10-14 15:10:23.056362,191
2021-10-14 15:10:23.056370,228
2021-10-14 15:10:23.056379,264
2021-10-14 15:10:23.056387,287
2021-10-14 15:10:23.056396,341
2021-10-14 15:10:23.056404,399
2021-10-14 15:10:23.056412,412
2021-10-14 15:10:23.280796,402
2021-10-14 15:10:23.280817,424
2021-10-14 15:10:23.280827,446
2021-10-14 15:10:23.280836,402
2021-10-14 15:10:23.280844,348
2021-10-14 15:10:23.280853,316
2021-10-14 15:10:23.280861,225
2021-10-14 15:10:23.280870,83
2021-10-14 15:10:23.280878,-22
2021-10-14 15:10:23.280886,-90
2021-10-14 15:10:23.280895,-154
2021-10-14 15:10:23.280903,-213
2021-10-14 15:10:23.280912,-247
2021-10-14 15:10:23.280920,-245
2021-10-14 15:10:23.280929,-233
2021-10-14 15:10:23.280937,-242
2021-10-14 15:10:23.280946,-245
2021-10-14 15:10:23.280954,-220
2021-10-14 15:10:23.280963,-196
2021-10-14 15:10:23.280971,-203
2021-10-14 15:10:23.280979,-215
2021-10-14 15:10:23.280988,-191
2021-10-14 15:10:23.280996,-159
2021-10-14 15:10:23.281005,-161
2021-10-14 15:10:23.281013,-166
2021-10-14 15:10:23.281022,-139
2021-10-14 15:10:23.281030,-115
2021-10-14 15:10:23.281039,-127
2021-10-14 15:10:23.281047,-149
2021-10-14 15:10:23.281055,-132
2021-10-14 15:10:23.505759,-98
2021-10-14 15:10:23.505780,-105
2021-10-14 15:10:23.505789,-137
2021-10-14 15:10:23.505798,-142
2021-10-14 15:10:23.505806,-130
2021-10-14 15:10:23.505815,-149
2021-10-14 15:10:23.505824,-171
2021-10-14 15:10:23.505832,-152
2021-10-14 15:10:23.505840,-134
2021-10-14 15:10:23.505848,-149
2021-10-14 15:10:23.505857,-159
2021-10-14 15:10:23.505865,-152
2021-10-14 15:10:23.505873,-137
2021-10-14 15:10:23.505882,-132
2021-10-14 15:10:23.505890,-144
2021-10-14 15:10:23.505899,-147
2021-10-14 15:10:23.505907,-137
2021-10-14 15:10:23.505916,-147
2021-10-14 15:10:23.505924,-139
2021-10-14 15:10:23.505932,-112
2021-10-14 15:10:23.505941,-120
2021-10-14 15:10:23.505949,-142
2021-10-14 15:10:23.505957,-125
2021-10-14 15:10:23.505966,-73
2021-10-14 15:10:23.505974,-36
2021-10-14 15:10:23.505982,-46
2021-10-14 15:10:23.505991,-41
2021-10-14 15:10:23.505999,-34
2021-10-14 15:10:23.506007,-66
2021-10-14 15:10:23.506016,-90
2021-10-14 15:10:23.686209,-63
2021-10-14 15:10:23.686229,-51
2021-10-14 15:10:23.686238,-66
2021-10-14 15:10:23.686247,-61
2021-10-14 15:10:23.686256,-46
2021-10-14 15:10:23.686264,-53
2021-10-14 15:10:23.686272,-49
2021-10-14 15:10:23.686281,17
2021-10-14 15:10:23.686289,242
2021-10-14 15:10:23.686298,623
2021-10-14 15:10:23.686306,856
2021-10-14 15:10:23.686315,461
2021-10-14 15:10:23.686323,-345
2021-10-14 15:10:23.686331,-476
2021-10-14 15:10:23.686340,14
2021-10-14 15:10:23.686348,73
2021-10-14 15:10:23.686357,-103
2021-10-14 15:10:23.686365,0
2021-10-14 15:10:23.686374,58
2021-10-14 15:10:23.686382,7
2021-10-14 15:10:23.686390,46
2021-10-14 15:10:23.686399,78
2021-10-14 15:10:23.686407,61
2021-10-14 15:10:23.686415,93
2021-10-14 15:10:23.686424,134
2021-10-14 15:10:23.686432,134
2021-10-14 15:10:23.686441,149
2021-10-14 15:10:23.686449,181
2021-10-14 15:10:23.686457,203
2021-10-14 15:10:23.686466,240
2021-10-14 15:10:24.001167,291
2021-10-14 15:10:24.001189,328
2021-10-14 15:10:24.001198,353
2021-10-14 15:10:24.001207,375
2021-10-14 15:10:24.001216,407
2021-10-14 15:10:24.001224,449
2021-10-14 15:10:24.001233,466
2021-10-14 15:10:24.001242,456
2021-10-14 15:10:24.001250,426
2021-10-14 15:10:24.001258,382
2021-10-14 15:10:24.001267,328
2021-10-14 15:10:24.001275,245
2021-10-14 15:10:24.001284,132
2021-10-14 15:10:24.001292,29
2021-10-14 15:10:24.001301,-44
2021-10-14 15:10:24.001310,-115
2021-10-14 15:10:24.001318,-188
2021-10-14 15:10:24.001327,-242
2021-10-14 15:10:24.001335,-245
2021-10-14 15:10:24.001344,-228
2021-10-14 15:10:24.001352,-233
2021-10-14 15:10:24.001361,-230
2021-10-14 15:10:24.001369,-201
2021-10-14 15:10:24.001378,-179
2021-10-14 15:10:24.001386,-171
2021-10-14 15:10:24.001395,-169
2021-10-14 15:10:24.001403,-159
2021-10-14 15:10:24.001411,-147
2021-10-14 15:10:24.001420,-132
2021-10-14 15:10:24.001428,-120
2021-10-14 15:10:24.269471,-115
2021-10-14 15:10:24.269493,-115
2021-10-14 15:10:24.269503,-103
2021-10-14 15:10:24.269511,-95
2021-10-14 15:10:24.269520,-98
2021-10-14 15:10:24.269529,-88
2021-10-14 15:10:24.269537,-68
2021-10-14 15:10:24.269545,-66
2021-10-14 15:10:24.269554,-90
2021-10-14 15:10:24.269562,-105
2021-10-14 15:10:24.269571,-80
2021-10-14 15:10:24.269579,-73
2021-10-14 15:10:24.269587,-93
2021-10-14 15:10:24.269596,-90
2021-10-14 15:10:24.269604,-85
2021-10-14 15:10:24.269613,-100
2021-10-14 15:10:24.269621,-110
2021-10-14 15:10:24.269630,-98
2021-10-14 15:10:24.269638,-88
2021-10-14 15:10:24.269647,-100
2021-10-14 15:10:24.269655,-112
2021-10-14 15:10:24.269663,-110
2021-10-14 15:10:24.269671,-107
2021-10-14 15:10:24.269680,-115
2021-10-14 15:10:24.269688,-115
2021-10-14 15:10:24.269696,-100
2021-10-14 15:10:24.269705,-88
2021-10-14 15:10:24.269713,-83
2021-10-14 15:10:24.269721,-85
2021-10-14 15:10:24.269730,-98
2021-10-14 15:10:24.406114,-95
2021-10-14 15:10:24.406133,-63
2021-10-14 15:10:24.406142,-34
2021-10-14 15:10:24.406151,-26
2021-10-14 15:10:24.406159,-24
2021-10-14 15:10:24.406167,-14
2021-10-14 15:10:24.406176,-22
2021-10-14 15:10:24.406184,-49
2021-10-14 15:10:24.406192,-58
2021-10-14 15:10:24.406201,-46
2021-10-14 15:10:24.406209,-39
2021-10-14 15:10:24.406218,-39
2021-10-14 15:10:24.406226,-41
2021-10-14 15:10:24.406234,-51
2021-10-14 15:10:24.406243,-49
2021-10-14 15:10:24.406252,4
2021-10-14 15:10:24.406260,161
2021-10-14 15:10:24.406269,476
2021-10-14 15:10:24.406277,817
2021-10-14 15:10:24.406286,740
2021-10-14 15:10:24.406294,-12
2021-10-14 15:10:24.406302,-576
2021-10-14 15:10:24.406311,-220
2021-10-14 15:10:24.406319,93
2021-10-14 15:10:24.406327,-90
2021-10-14 15:10:24.406336,-93
2021-10-14 15:10:24.406344,34
2021-10-14 15:10:24.406353,-7
2021-10-14 15:10:24.406361,-17
2021-10-14 15:10:24.406369,49
2021-10-14 15:10:24.631160,58
2021-10-14 15:10:24.631182,51
2021-10-14 15:10:24.631191,71
2021-10-14 15:10:24.631200,93
2021-10-14 15:10:24.631209,122
2021-10-14 15:10:24.631217,157
2021-10-14 15:10:24.631225,174
2021-10-14 15:10:24.631234,184
2021-10-14 15:10:24.631242,228
2021-10-14 15:10:24.631251,274
2021-10-14 15:10:24.631259,299
2021-10-14 15:10:24.631268,343
2021-10-14 15:10:24.631276,392
2021-10-14 15:10:24.631284,404
2021-10-14 15:10:24.631293,402
2021-10-14 15:10:24.631301,409
2021-10-14 15:10:24.631310,414
2021-10-14 15:10:24.631318,395
2021-10-14 15:10:24.631326,341
2021-10-14 15:10:24.631335,260
2021-10-14 15:10:24.631343,159
2021-10-14 15:10:24.631351,44
2021-10-14 15:10:24.631360,-44
2021-10-14 15:10:24.631368,-110
2021-10-14 15:10:24.631377,-169
2021-10-14 15:10:24.631385,-213
2021-10-14 15:10:24.631393,-235
2021-10-14 15:10:24.631402,-245
2021-10-14 15:10:24.631410,-247
2021-10-14 15:10:24.631419,-238
2021-10-14 15:10:24.855790,-230
2021-10-14 15:10:24.855811,-228
2021-10-14 15:10:24.855820,-220
2021-10-14 15:10:24.855829,-206
2021-10-14 15:10:24.855837,-181
2021-10-14 15:10:24.855846,-174
2021-10-14 15:10:24.855854,-186
2021-10-14 15:10:24.855862,-169
2021-10-14 15:10:24.855871,-139
2021-10-14 15:10:24.855879,-144
2021-10-14 15:10:24.855887,-154
2021-10-14 15:10:24.855896,-142
2021-10-14 15:10:24.855904,-130
2021-10-14 15:10:24.855912,-130
2021-10-14 15:10:24.855921,-125
2021-10-14 15:10:24.855929,-115
2021-10-14 15:10:24.855937,-115
2021-10-14 15:10:24.855946,-127
2021-10-14 15:10:24.855954,-127
2021-10-14 15:10:24.855962,-117
2021-10-14 15:10:24.855971,-117
2021-10-14 15:10:24.855979,-120
2021-10-14 15:10:24.855988,-112
2021-10-14 15:10:24.855996,-105
2021-10-14 15:10:24.856004,-98
2021-10-14 15:10:24.856013,-88
2021-10-14 15:10:24.856021,-88
2021-10-14 15:10:24.856029,-103
2021-10-14 15:10:24.856038,-115
2021-10-14 15:10:24.856046,-117
2021-10-14 15:10:25.080668,-112
2021-10-14 15:10:25.080689,-107
2021-10-14 15:10:25.080698,-105
2021-10-14 15:10:25.080707,-103
2021-10-14 15:10:25.080716,-103
2021-10-14 15:10:25.080724,-112
2021-10-14 15:10:25.080733,-125
2021-10-14 15:10:25.080741,-120
2021-10-14 15:10:25.080750,-90
2021-10-14 15:10:25.080758,-66
2021-10-14 15:10:25.080767,-63
2021-10-14 15:10:25.080775,-66
2021-10-14 15:10:25.080784,-66
2021-10-14 15:10:25.080792,-76
2021-10-14 15:10:25.080801,-93
2021-10-14 15:10:25.080809,-95
2021-10-14 15:10:25.080818,-83
2021-10-14 15:10:25.080826,-83
2021-10-14 15:10:25.080835,-85
2021-10-14 15:10:25.080844,-78
2021-10-14 15:10:25.080852,-78
2021-10-14 15:10:25.080861,-71
2021-10-14 15:10:25.080869,-7
2021-10-14 15:10:25.080878,174
2021-10-14 15:10:25.080886,515
2021-10-14 15:10:25.080895,817
2021-10-14 15:10:25.080903,554
2021-10-14 15:10:25.080912,-262
2021-10-14 15:10:25.080920,-556
2021-10-14 15:10:25.080929,-80
2021-10-14 15:10:25.395197,83
2021-10-14 15:10:25.395218,-100
2021-10-14 15:10:25.395227,-41
2021-10-14 15:10:25.395236,41
2021-10-14 15:10:25.395244,-9
2021-10-14 15:10:25.395253,-4
2021-10-14 15:10:25.395261,46
2021-10-14 15:10:25.395270,53
2021-10-14 15:10:25.395278,58
2021-10-14 15:10:25.395287,85
2021-10-14 15:10:25.395295,105
2021-10-14 15:10:25.395303,115
2021-10-14 15:10:25.395312,142
2021-10-14 15:10:25.395320,181
2021-10-14 15:10:25.395329,213
2021-10-14 15:10:25.395337,238
2021-10-14 15:10:25.395346,267
2021-10-14 15:10:25.395354,304
2021-10-14 15:10:25.395362,350
2021-10-14 15:10:25.395371,392
2021-10-14 15:10:25.395379,412
2021-10-14 15:10:25.395388,419
2021-10-14 15:10:25.395396,424
2021-10-14 15:10:25.395405,409
2021-10-14 15:10:25.395413,370
2021-10-14 15:10:25.395421,314
2021-10-14 15:10:25.395430,218
2021-10-14 15:10:25.395438,100
2021-10-14 15:10:25.395446,-4
2021-10-14 15:10:25.395455,-93
2021-10-14 15:10:25.530812,-161
2021-10-14 15:10:25.530833,-201
2021-10-14 15:10:25.530842,-220
2021-10-14 15:10:25.530851,-238
2021-10-14 15:10:25.530860,-260
2021-10-14 15:10:25.530868,-264
2021-10-14 15:10:25.530877,-245
2021-10-14 15:10:25.530885,-228
2021-10-14 15:10:25.530938,-228
2021-10-14 15:10:25.530947,-235
2021-10-14 15:10:25.530956,-230
2021-10-14 15:10:25.530964,-213
2021-10-14 15:10:25.530972,-191
2021-10-14 15:10:25.530980,-176
2021-10-14 15:10:25.530989,-169
2021-10-14 15:10:25.530997,-157
2021-10-14 15:10:25.531005,-149
2021-10-14 15:10:25.531014,-142
2021-10-14 15:10:25.531022,-130
2021-10-14 15:10:25.531030,-130
2021-10-14 15:10:25.531038,-130
2021-10-14 15:10:25.531046,-122
2021-10-14 15:10:25.531055,-122
2021-10-14 15:10:25.531063,-120
2021-10-14 15:10:25.531071,-110
2021-10-14 15:10:25.531079,-105
2021-10-14 15:10:25.531087,-112
2021-10-14 15:10:25.531095,-134
2021-10-14 15:10:25.531104,-130
2021-10-14 15:10:25.531112,-110
2021-10-14 15:10:25.801189,-120
2021-10-14 15:10:25.801211,-117
2021-10-14 15:10:25.801221,-95
2021-10-14 15:10:25.801229,-105
2021-10-14 15:10:25.801238,-125
2021-10-14 15:10:25.801247,-110
2021-10-14 15:10:25.801255,-88
2021-10-14 15:10:25.801264,-90
2021-10-14 15:10:25.801272,-93
2021-10-14 15:10:25.801281,-103
2021-10-14 15:10:25.801289,-117
2021-10-14 15:10:25.801298,-105
2021-10-14 15:10:25.801306,-80
2021-10-14 15:10:25.801315,-90
2021-10-14 15:10:25.801323,-115
2021-10-14 15:10:25.801332,-110
2021-10-14 15:10:25.801340,-85
2021-10-14 15:10:25.801349,-63
2021-10-14 15:10:25.801357,-49
2021-10-14 15:10:25.801366,-51
2021-10-14 15:10:25.801374,-63
2021-10-14 15:10:25.801383,-80
2021-10-14 15:10:25.801391,-90
2021-10-14 15:10:25.801400,-83
2021-10-14 15:10:25.801408,-71
2021-10-14 15:10:25.801417,-66
2021-10-14 15:10:25.801425,-66
2021-10-14 15:10:25.801433,-66
2021-10-14 15:10:25.801442,-71
2021-10-14 15:10:25.801450,-63
2021-10-14 15:10:26.026173,-14
2021-10-14 15:10:26.026194,176
2021-10-14 15:10:26.026204,556
2021-10-14 15:10:26.026212,856
2021-10-14 15:10:26.026221,564
2021-10-14 15:10:26.026230,-238
2021-10-14 15:10:26.026238,-500
2021-10-14 15:10:26.026247,-56
2021-10-14 15:10:26.026255,66
2021-10-14 15:10:26.026263,-115
2021-10-14 15:10:26.026272,-61
2021-10-14 15:10:26.026280,4
2021-10-14 15:10:26.026289,-39
2021-10-14 15:10:26.026297,-12
2021-10-14 15:10:26.026305,29
2021-10-14 15:10:26.026314,7
2021-10-14 15:10:26.026322,9
2021-10-14 15:10:26.026331,53
2021-10-14 15:10:26.026339,80
2021-10-14 15:10:26.026347,95
2021-10-14 15:10:26.026356,127
2021-10-14 15:10:26.026364,157
2021-10-14 15:10:26.026373,174
2021-10-14 15:10:26.026381,206
2021-10-14 15:10:26.026389,264
2021-10-14 15:10:26.026398,311
2021-10-14 15:10:26.026406,336
2021-10-14 15:10:26.026415,365
2021-10-14 15:10:26.026423,407
2021-10-14 15:10:26.026432,422
2021-10-14 15:10:26.384877,409
2021-10-14 15:10:26.384898,395
