Time,ECG
2021-10-14 14:54:52.995136,-240
2021-10-14 14:54:52.995156,-218
2021-10-14 14:54:52.995165,-215
2021-10-14 14:54:52.995174,-235
2021-10-14 14:54:52.995183,-228
2021-10-14 14:54:52.995192,-208
2021-10-14 14:54:52.995201,-211
2021-10-14 14:54:52.995209,-211
2021-10-14 14:54:52.995218,-188
2021-10-14 14:54:52.995227,-179
2021-10-14 14:54:52.995236,-181
2021-10-14 14:54:52.995244,-176
2021-10-14 14:54:52.995253,-179
2021-10-14 14:54:52.995261,-174
2021-10-14 14:54:52.995270,-164
2021-10-14 14:54:52.995279,-161
2021-10-14 14:54:52.995287,-159
2021-10-14 14:54:52.995296,-157
2021-10-14 14:54:52.995305,-157
2021-10-14 14:54:52.995313,-147
2021-10-14 14:54:52.995322,-127
2021-10-14 14:54:52.995330,-134
2021-10-14 14:54:52.995339,-152
2021-10-14 14:54:52.995347,-142
2021-10-14 14:54:52.995355,-117
2021-10-14 14:54:52.995364,-115
2021-10-14 14:54:52.995373,-127
2021-10-14 14:54:52.995382,-112
2021-10-14 14:54:52.995391,-78
2021-10-14 14:54:52.995399,-88
2021-10-14 14:54:53.118620,-122
2021-10-14 14:54:53.118640,-125
2021-10-14 14:54:53.118649,-112
2021-10-14 14:54:53.118658,-98
2021-10-14 14:54:53.118666,-71
2021-10-14 14:54:53.118675,-41
2021-10-14 14:54:53.118684,-34
2021-10-14 14:54:53.118693,-34
2021-10-14 14:54:53.118701,-29
2021-10-14 14:54:53.118710,-34
2021-10-14 14:54:53.118718,-56
2021-10-14 14:54:53.118726,-71
2021-10-14 14:54:53.118735,-66
2021-10-14 14:54:53.118743,-53
2021-10-14 14:54:53.118751,-49
2021-10-14 14:54:53.118760,-46
2021-10-14 14:54:53.118768,-39
2021-10-14 14:54:53.118777,-44
2021-10-14 14:54:53.118786,-39
2021-10-14 14:54:53.118794,39
2021-10-14 14:54:53.118802,262
2021-10-14 14:54:53.118811,630
2021-10-14 14:54:53.118819,888
2021-10-14 14:54:53.118827,527
2021-10-14 14:54:53.118836,-294
2021-10-14 14:54:53.118844,-480
2021-10-14 14:54:53.118852,-7
2021-10-14 14:54:53.118860,88
2021-10-14 14:54:53.118869,-71
2021-10-14 14:54:53.118879,17
2021-10-14 14:54:53.388347,73
2021-10-14 14:54:53.388367,7
2021-10-14 14:54:53.388376,17
2021-10-14 14:54:53.388385,68
2021-10-14 14:54:53.388393,68
2021-10-14 14:54:53.388402,53
2021-10-14 14:54:53.388410,66
2021-10-14 14:54:53.388418,98
2021-10-14 14:54:53.388427,132
2021-10-14 14:54:53.388435,152
2021-10-14 14:54:53.388444,132
2021-10-14 14:54:53.388452,125
2021-10-14 14:54:53.388461,203
2021-10-14 14:54:53.388474,269
2021-10-14 14:54:53.388482,257
2021-10-14 14:54:53.388491,274
2021-10-14 14:54:53.388499,338
2021-10-14 14:54:53.388508,353
2021-10-14 14:54:53.388517,336
2021-10-14 14:54:53.388525,345
2021-10-14 14:54:53.388533,348
2021-10-14 14:54:53.388542,314
2021-10-14 14:54:53.388550,260
2021-10-14 14:54:53.388559,193
2021-10-14 14:54:53.388567,103
2021-10-14 14:54:53.388575,12
2021-10-14 14:54:53.388584,-56
2021-10-14 14:54:53.388592,-115
2021-10-14 14:54:53.388600,-161
2021-10-14 14:54:53.388610,-186
2021-10-14 14:54:53.568566,-196
2021-10-14 14:54:53.568586,-193
2021-10-14 14:54:53.568596,-186
2021-10-14 14:54:53.568605,-198
2021-10-14 14:54:53.568613,-211
2021-10-14 14:54:53.568622,-201
2021-10-14 14:54:53.568630,-184
2021-10-14 14:54:53.568639,-166
2021-10-14 14:54:53.568656,-149
2021-10-14 14:54:53.568665,-142
2021-10-14 14:54:53.568673,-139
2021-10-14 14:54:53.568682,-134
2021-10-14 14:54:53.568690,-125
2021-10-14 14:54:53.568699,-107
2021-10-14 14:54:53.568707,-105
2021-10-14 14:54:53.568716,-115
2021-10-14 14:54:53.568724,-105
2021-10-14 14:54:53.568736,-88
2021-10-14 14:54:53.568745,-80
2021-10-14 14:54:53.568753,-76
2021-10-14 14:54:53.568762,-78
2021-10-14 14:54:53.568770,-93
2021-10-14 14:54:53.568779,-98
2021-10-14 14:54:53.568787,-83
2021-10-14 14:54:53.568795,-71
2021-10-14 14:54:53.568804,-66
2021-10-14 14:54:53.568812,-66
2021-10-14 14:54:53.568820,-71
2021-10-14 14:54:53.568829,-68
2021-10-14 14:54:53.568837,-61
2021-10-14 14:54:53.838586,-56
2021-10-14 14:54:53.838607,-49
2021-10-14 14:54:53.838617,-44
2021-10-14 14:54:53.838625,-51
2021-10-14 14:54:53.838634,-66
2021-10-14 14:54:53.838642,-73
2021-10-14 14:54:53.838651,-56
2021-10-14 14:54:53.838664,-9
2021-10-14 14:54:53.838673,9
2021-10-14 14:54:53.838682,-14
2021-10-14 14:54:53.838690,-31
2021-10-14 14:54:53.838699,-41
2021-10-14 14:54:53.838707,-49
2021-10-14 14:54:53.838716,-24
2021-10-14 14:54:53.838724,-4
2021-10-14 14:54:53.838733,-26
2021-10-14 14:54:53.838741,-34
2021-10-14 14:54:53.838750,-19
2021-10-14 14:54:53.838758,-22
2021-10-14 14:54:53.838767,-26
2021-10-14 14:54:53.838775,4
2021-10-14 14:54:53.838784,117
2021-10-14 14:54:53.838792,395
2021-10-14 14:54:53.838801,767
2021-10-14 14:54:53.838809,836
2021-10-14 14:54:53.838818,225
2021-10-14 14:54:53.838826,-471
2021-10-14 14:54:53.838834,-326
2021-10-14 14:54:53.838843,90
2021-10-14 14:54:53.838852,4
2021-10-14 14:54:54.063951,-83
2021-10-14 14:54:54.063973,58
2021-10-14 14:54:54.063982,66
2021-10-14 14:54:54.063991,-9
2021-10-14 14:54:54.064000,26
2021-10-14 14:54:54.064008,71
2021-10-14 14:54:54.064017,63
2021-10-14 14:54:54.064025,71
2021-10-14 14:54:54.064033,76
2021-10-14 14:54:54.064042,71
2021-10-14 14:54:54.064050,103
2021-10-14 14:54:54.064059,130
2021-10-14 14:54:54.064067,132
2021-10-14 14:54:54.064075,161
2021-10-14 14:54:54.064084,191
2021-10-14 14:54:54.064093,208
2021-10-14 14:54:54.064101,242
2021-10-14 14:54:54.064110,277
2021-10-14 14:54:54.064118,287
2021-10-14 14:54:54.064126,311
2021-10-14 14:54:54.064135,333
2021-10-14 14:54:54.064143,316
2021-10-14 14:54:54.064151,304
2021-10-14 14:54:54.064160,299
2021-10-14 14:54:54.064173,257
2021-10-14 14:54:54.064182,174
2021-10-14 14:54:54.064190,73
2021-10-14 14:54:54.064199,-17
2021-10-14 14:54:54.064207,-73
2021-10-14 14:54:54.064215,-120
2021-10-14 14:54:54.288594,-161
2021-10-14 14:54:54.288615,-184
2021-10-14 14:54:54.288625,-196
2021-10-14 14:54:54.288633,-208
2021-10-14 14:54:54.288642,-198
2021-10-14 14:54:54.288650,-181
2021-10-14 14:54:54.288659,-174
2021-10-14 14:54:54.288667,-169
2021-10-14 14:54:54.288676,-176
2021-10-14 14:54:54.288684,-181
2021-10-14 14:54:54.288693,-171
2021-10-14 14:54:54.288701,-152
2021-10-14 14:54:54.288710,-144
2021-10-14 14:54:54.288718,-154
2021-10-14 14:54:54.288727,-159
2021-10-14 14:54:54.288735,-144
2021-10-14 14:54:54.288744,-132
2021-10-14 14:54:54.288752,-130
2021-10-14 14:54:54.288760,-132
2021-10-14 14:54:54.288769,-122
2021-10-14 14:54:54.288777,-117
2021-10-14 14:54:54.288786,-127
2021-10-14 14:54:54.288796,-125
2021-10-14 14:54:54.288804,-100
2021-10-14 14:54:54.288813,-98
2021-10-14 14:54:54.288821,-107
2021-10-14 14:54:54.288830,-110
2021-10-14 14:54:54.288838,-122
2021-10-14 14:54:54.288847,-134
2021-10-14 14:54:54.288855,-122
2021-10-14 14:54:54.558335,-112
2021-10-14 14:54:54.558355,-112
2021-10-14 14:54:54.558365,-103
2021-10-14 14:54:54.558373,-100
2021-10-14 14:54:54.558382,-103
2021-10-14 14:54:54.558391,-83
2021-10-14 14:54:54.558399,-73
2021-10-14 14:54:54.558407,-90
2021-10-14 14:54:54.558416,-105
2021-10-14 14:54:54.558424,-103
2021-10-14 14:54:54.558433,-83
2021-10-14 14:54:54.558441,-49
2021-10-14 14:54:54.558449,-34
2021-10-14 14:54:54.558458,-44
2021-10-14 14:54:54.558466,-49
2021-10-14 14:54:54.558475,-44
2021-10-14 14:54:54.558483,-51
2021-10-14 14:54:54.558491,-68
2021-10-14 14:54:54.558500,-78
2021-10-14 14:54:54.558508,-71
2021-10-14 14:54:54.558516,-58
2021-10-14 14:54:54.558524,-53
2021-10-14 14:54:54.558533,-58
2021-10-14 14:54:54.558541,-53
2021-10-14 14:54:54.558554,-34
2021-10-14 14:54:54.558562,29
2021-10-14 14:54:54.558571,242
2021-10-14 14:54:54.558579,615
2021-10-14 14:54:54.558587,878
2021-10-14 14:54:54.558596,542
2021-10-14 14:54:54.782233,-299
2021-10-14 14:54:54.782254,-559
2021-10-14 14:54:54.782264,-68
2021-10-14 14:54:54.782273,93
2021-10-14 14:54:54.782281,-76
2021-10-14 14:54:54.782290,-14
2021-10-14 14:54:54.782299,44
2021-10-14 14:54:54.782307,-24
2021-10-14 14:54:54.782316,-4
2021-10-14 14:54:54.782324,53
2021-10-14 14:54:54.782333,39
2021-10-14 14:54:54.782341,31
2021-10-14 14:54:54.782350,53
2021-10-14 14:54:54.782358,58
2021-10-14 14:54:54.782367,58
2021-10-14 14:54:54.782375,83
2021-10-14 14:54:54.782383,125
2021-10-14 14:54:54.782392,144
2021-10-14 14:54:54.782400,157
2021-10-14 14:54:54.782408,208
2021-10-14 14:54:54.782417,257
2021-10-14 14:54:54.782425,272
2021-10-14 14:54:54.782434,304
2021-10-14 14:54:54.782442,331
2021-10-14 14:54:54.782450,326
2021-10-14 14:54:54.782459,345
2021-10-14 14:54:54.782467,365
2021-10-14 14:54:54.782476,323
2021-10-14 14:54:54.782484,267
2021-10-14 14:54:54.782493,225
2021-10-14 14:54:55.008273,139
2021-10-14 14:54:55.008293,29
2021-10-14 14:54:55.008303,-49
2021-10-14 14:54:55.008312,-127
2021-10-14 14:54:55.008320,-196
2021-10-14 14:54:55.008329,-223
2021-10-14 14:54:55.008337,-228
2021-10-14 14:54:55.008346,-233
2021-10-14 14:54:55.008354,-233
2021-10-14 14:54:55.008363,-233
2021-10-14 14:54:55.008372,-230
2021-10-14 14:54:55.008380,-218
2021-10-14 14:54:55.008389,-203
2021-10-14 14:54:55.008397,-191
2021-10-14 14:54:55.008405,-181
2021-10-14 14:54:55.008414,-179
2021-10-14 14:54:55.008422,-171
2021-10-14 14:54:55.008430,-169
2021-10-14 14:54:55.008439,-161
2021-10-14 14:54:55.008447,-147
2021-10-14 14:54:55.008455,-147
2021-10-14 14:54:55.008464,-152
2021-10-14 14:54:55.008472,-122
2021-10-14 14:54:55.008480,-103
2021-10-14 14:54:55.008489,-130
2021-10-14 14:54:55.008497,-149
2021-10-14 14:54:55.008505,-127
2021-10-14 14:54:55.008514,-105
2021-10-14 14:54:55.008522,-115
2021-10-14 14:54:55.008530,-120
2021-10-14 14:54:55.188935,-110
2021-10-14 14:54:55.188956,-110
2021-10-14 14:54:55.188966,-112
2021-10-14 14:54:55.188975,-93
2021-10-14 14:54:55.188983,-83
2021-10-14 14:54:55.188992,-100
2021-10-14 14:54:55.189001,-103
2021-10-14 14:54:55.189009,-88
2021-10-14 14:54:55.189018,-90
2021-10-14 14:54:55.189026,-90
2021-10-14 14:54:55.189038,-78
2021-10-14 14:54:55.189047,-78
2021-10-14 14:54:55.189055,-76
2021-10-14 14:54:55.189064,-61
2021-10-14 14:54:55.189072,-66
2021-10-14 14:54:55.189081,-88
2021-10-14 14:54:55.189090,-73
2021-10-14 14:54:55.189098,-36
2021-10-14 14:54:55.189107,-17
2021-10-14 14:54:55.189115,-7
2021-10-14 14:54:55.189123,-7
2021-10-14 14:54:55.189132,-26
2021-10-14 14:54:55.189140,-39
2021-10-14 14:54:55.189149,-41
2021-10-14 14:54:55.189157,-44
2021-10-14 14:54:55.189166,-36
2021-10-14 14:54:55.189174,-26
2021-10-14 14:54:55.189183,-29
2021-10-14 14:54:55.189191,-22
2021-10-14 14:54:55.189199,-9
2021-10-14 14:54:55.413938,-4
2021-10-14 14:54:55.413957,63
2021-10-14 14:54:55.413967,306
2021-10-14 14:54:55.413976,682
2021-10-14 14:54:55.413985,878
2021-10-14 14:54:55.413993,446
2021-10-14 14:54:55.414002,-368
2021-10-14 14:54:55.414010,-483
2021-10-14 14:54:55.414019,7
2021-10-14 14:54:55.414027,53
2021-10-14 14:54:55.414036,-122
2021-10-14 14:54:55.414044,-39
2021-10-14 14:54:55.414053,7
2021-10-14 14:54:55.414061,-44
2021-10-14 14:54:55.414070,-14
2021-10-14 14:54:55.414078,29
2021-10-14 14:54:55.414087,31
2021-10-14 14:54:55.414095,46
2021-10-14 14:54:55.414104,61
2021-10-14 14:54:55.414112,63
2021-10-14 14:54:55.414121,85
2021-10-14 14:54:55.414129,107
2021-10-14 14:54:55.414138,132
2021-10-14 14:54:55.414146,171
2021-10-14 14:54:55.414155,215
2021-10-14 14:54:55.414167,245
2021-10-14 14:54:55.414176,264
2021-10-14 14:54:55.414184,291
2021-10-14 14:54:55.414192,328
2021-10-14 14:54:55.414201,353
2021-10-14 14:54:55.728996,370
2021-10-14 14:54:55.729015,382
2021-10-14 14:54:55.729022,375
2021-10-14 14:54:55.729030,343
2021-10-14 14:54:55.729037,291
2021-10-14 14:54:55.729045,215
2021-10-14 14:54:55.729052,120
2021-10-14 14:54:55.729060,31
2021-10-14 14:54:55.729067,-41
2021-10-14 14:54:55.729075,-115
2021-10-14 14:54:55.729083,-166
2021-10-14 14:54:55.729090,-171
2021-10-14 14:54:55.729097,-184
2021-10-14 14:54:55.729105,-201
2021-10-14 14:54:55.729112,-191
2021-10-14 14:54:55.729119,-188
2021-10-14 14:54:55.729126,-198
2021-10-14 14:54:55.729134,-186
2021-10-14 14:54:55.729141,-152
2021-10-14 14:54:55.729149,-139
2021-10-14 14:54:55.729156,-134
2021-10-14 14:54:55.729163,-115
2021-10-14 14:54:55.729171,-112
2021-10-14 14:54:55.729178,-122
2021-10-14 14:54:55.729186,-103
2021-10-14 14:54:55.729194,-88
2021-10-14 14:54:55.729201,-100
2021-10-14 14:54:55.729209,-103
2021-10-14 14:54:55.729217,-83
2021-10-14 14:54:55.729225,-76
2021-10-14 14:54:55.953595,-78
2021-10-14 14:54:55.953616,-71
2021-10-14 14:54:55.953626,-78
2021-10-14 14:54:55.953634,-76
2021-10-14 14:54:55.953643,-58
2021-10-14 14:54:55.953651,-66
2021-10-14 14:54:55.953659,-80
2021-10-14 14:54:55.953668,-63
2021-10-14 14:54:55.953676,-58
2021-10-14 14:54:55.953684,-78
2021-10-14 14:54:55.953693,-71
2021-10-14 14:54:55.953701,-51
2021-10-14 14:54:55.953709,-51
2021-10-14 14:54:55.953718,-56
2021-10-14 14:54:55.953726,-51
2021-10-14 14:54:55.953734,-66
2021-10-14 14:54:55.953746,-73
2021-10-14 14:54:55.953754,-53
2021-10-14 14:54:55.953763,-49
2021-10-14 14:54:55.953771,-61
2021-10-14 14:54:55.953779,-56
2021-10-14 14:54:55.953788,-44
2021-10-14 14:54:55.953796,-41
2021-10-14 14:54:55.953804,-49
2021-10-14 14:54:55.953812,-61
2021-10-14 14:54:55.953821,-41
2021-10-14 14:54:55.953829,4
2021-10-14 14:54:55.953837,24
2021-10-14 14:54:55.953845,-4
2021-10-14 14:54:55.953854,-17
2021-10-14 14:54:56.133606,7
2021-10-14 14:54:56.133627,7
2021-10-14 14:54:56.133637,-22
2021-10-14 14:54:56.133646,-29
2021-10-14 14:54:56.133654,-24
2021-10-14 14:54:56.133663,-24
2021-10-14 14:54:56.133671,-17
2021-10-14 14:54:56.133680,-14
2021-10-14 14:54:56.133688,-34
2021-10-14 14:54:56.133697,-9
2021-10-14 14:54:56.133705,154
2021-10-14 14:54:56.133714,480
2021-10-14 14:54:56.133722,821
2021-10-14 14:54:56.133731,772
2021-10-14 14:54:56.133740,66
2021-10-14 14:54:56.133748,-527
2021-10-14 14:54:56.133757,-250
2021-10-14 14:54:56.133766,85
2021-10-14 14:54:56.133774,-46
2021-10-14 14:54:56.133783,-80
2021-10-14 14:54:56.133791,24
2021-10-14 14:54:56.133799,2
2021-10-14 14:54:56.133808,-19
2021-10-14 14:54:56.133816,29
2021-10-14 14:54:56.133825,49
2021-10-14 14:54:56.133834,44
2021-10-14 14:54:56.133842,49
2021-10-14 14:54:56.133850,66
2021-10-14 14:54:56.133859,85
2021-10-14 14:54:56.133867,110
2021-10-14 14:54:56.403424,144
2021-10-14 14:54:56.403445,169
2021-10-14 14:54:56.403454,179
2021-10-14 14:54:56.403462,203
2021-10-14 14:54:56.403470,247
2021-10-14 14:54:56.403477,287
2021-10-14 14:54:56.403485,314
2021-10-14 14:54:56.403493,326
2021-10-14 14:54:56.403502,328
2021-10-14 14:54:56.403510,338
2021-10-14 14:54:56.403519,350
2021-10-14 14:54:56.403527,341
2021-10-14 14:54:56.403535,301
2021-10-14 14:54:56.403547,245
2021-10-14 14:54:56.403555,174
2021-10-14 14:54:56.403564,85
2021-10-14 14:54:56.403572,17
2021-10-14 14:54:56.403580,-39
2021-10-14 14:54:56.403589,-93
2021-10-14 14:54:56.403602,-134
2021-10-14 14:54:56.403627,-169
2021-10-14 14:54:56.403649,-208
2021-10-14 14:54:56.403658,-218
2021-10-14 14:54:56.403667,-181
2021-10-14 14:54:56.403675,-171
2021-10-14 14:54:56.403684,-188
2021-10-14 14:54:56.403692,-169
2021-10-14 14:54:56.403700,-157
2021-10-14 14:54:56.403709,-171
2021-10-14 14:54:56.403717,-154
2021-10-14 14:54:56.583956,-130
2021-10-14 14:54:56.583977,-142
2021-10-14 14:54:56.583986,-142
2021-10-14 14:54:56.583995,-117
2021-10-14 14:54:56.584003,-100
2021-10-14 14:54:56.584012,-105
2021-10-14 14:54:56.584020,-112
2021-10-14 14:54:56.584029,-110
2021-10-14 14:54:56.584037,-107
2021-10-14 14:54:56.584046,-110
2021-10-14 14:54:56.584054,-103
2021-10-14 14:54:56.584063,-95
2021-10-14 14:54:56.584071,-110
2021-10-14 14:54:56.584079,-122
2021-10-14 14:54:56.584088,-100
2021-10-14 14:54:56.584096,-83
2021-10-14 14:54:56.584105,-95
2021-10-14 14:54:56.584113,-98
2021-10-14 14:54:56.584121,-88
2021-10-14 14:54:56.584130,-95
2021-10-14 14:54:56.584138,-98
2021-10-14 14:54:56.584146,-85
2021-10-14 14:54:56.584155,-76
2021-10-14 14:54:56.584163,-76
2021-10-14 14:54:56.584171,-83
2021-10-14 14:54:56.584180,-83
2021-10-14 14:54:56.584188,-71
2021-10-14 14:54:56.584196,-63
2021-10-14 14:54:56.584205,-58
2021-10-14 14:54:56.584213,-49
2021-10-14 14:54:56.897263,-61
2021-10-14 14:54:56.897284,-63
2021-10-14 14:54:56.897292,-19
2021-10-14 14:54:56.897300,9
2021-10-14 14:54:56.897308,-9
2021-10-14 14:54:56.897316,-24
2021-10-14 14:54:56.897324,-26
2021-10-14 14:54:56.897331,-44
2021-10-14 14:54:56.897339,-63
2021-10-14 14:54:56.897347,-63
2021-10-14 14:54:56.897355,-53
2021-10-14 14:54:56.897362,-58
2021-10-14 14:54:56.897370,-68
2021-10-14 14:54:56.897378,-78
2021-10-14 14:54:56.897386,-88
2021-10-14 14:54:56.897393,-68
2021-10-14 14:54:56.897401,24
2021-10-14 14:54:56.897413,274
2021-10-14 14:54:56.897421,647
2021-10-14 14:54:56.897428,819
2021-10-14 14:54:56.897436,336
2021-10-14 14:54:56.897444,-456
2021-10-14 14:54:56.897452,-488
2021-10-14 14:54:56.897460,0
2021-10-14 14:54:56.897468,24
2021-10-14 14:54:56.897475,-115
2021-10-14 14:54:56.897483,-14
2021-10-14 14:54:56.897491,7
2021-10-14 14:54:56.897498,-53
2021-10-14 14:54:56.897506,-12
2021-10-14 14:54:57.079057,31
2021-10-14 14:54:57.079080,31
2021-10-14 14:54:57.079089,39
2021-10-14 14:54:57.079098,53
2021-10-14 14:54:57.079107,63
2021-10-14 14:54:57.079115,68
2021-10-14 14:54:57.079124,83
2021-10-14 14:54:57.079132,130
2021-10-14 14:54:57.079141,171
2021-10-14 14:54:57.079149,188
2021-10-14 14:54:57.079158,213
2021-10-14 14:54:57.079166,255
2021-10-14 14:54:57.079175,294
2021-10-14 14:54:57.079183,316
2021-10-14 14:54:57.079192,318
2021-10-14 14:54:57.079201,331
2021-10-14 14:54:57.079209,345
2021-10-14 14:54:57.079218,328
2021-10-14 14:54:57.079227,291
2021-10-14 14:54:57.079235,260
2021-10-14 14:54:57.079244,213
2021-10-14 14:54:57.079252,125
2021-10-14 14:54:57.079261,22
2021-10-14 14:54:57.079269,-58
2021-10-14 14:54:57.079278,-115
2021-10-14 14:54:57.079286,-159
2021-10-14 14:54:57.079295,-181
2021-10-14 14:54:57.079303,-186
2021-10-14 14:54:57.079312,-191
2021-10-14 14:54:57.079320,-203
2021-10-14 14:54:57.258995,-213
2021-10-14 14:54:57.259015,-201
2021-10-14 14:54:57.259024,-176
2021-10-14 14:54:57.259033,-166
2021-10-14 14:54:57.259042,-174
2021-10-14 14:54:57.259050,-176
2021-10-14 14:54:57.259058,-157
2021-10-14 14:54:57.259067,-127
2021-10-14 14:54:57.259075,-112
2021-10-14 14:54:57.259084,-115
2021-10-14 14:54:57.259093,-125
2021-10-14 14:54:57.259101,-137
2021-10-14 14:54:57.259110,-134
2021-10-14 14:54:57.259118,-115
2021-10-14 14:54:57.259127,-112
2021-10-14 14:54:57.259135,-125
2021-10-14 14:54:57.259144,-125
2021-10-14 14:54:57.259153,-122
2021-10-14 14:54:57.259161,-122
2021-10-14 14:54:57.259169,-112
2021-10-14 14:54:57.259178,-110
2021-10-14 14:54:57.259186,-117
2021-10-14 14:54:57.259195,-112
2021-10-14 14:54:57.259203,-95
2021-10-14 14:54:57.259212,-93
2021-10-14 14:54:57.259220,-107
2021-10-14 14:54:57.259229,-103
2021-10-14 14:54:57.259237,-78
2021-10-14 14:54:57.259246,-73
2021-10-14 14:54:57.259257,-88
2021-10-14 14:54:57.528731,-95
2021-10-14 14:54:57.528751,-98
2021-10-14 14:54:57.528760,-105
2021-10-14 14:54:57.528767,-83
2021-10-14 14:54:57.528773,-39
2021-10-14 14:54:57.528781,-34
2021-10-14 14:54:57.528788,-58
2021-10-14 14:54:57.528795,-80
2021-10-14 14:54:57.528803,-90
2021-10-14 14:54:57.528810,-98
2021-10-14 14:54:57.528819,-110
2021-10-14 14:54:57.528827,-120
2021-10-14 14:54:57.528835,-122
2021-10-14 14:54:57.528844,-107
2021-10-14 14:54:57.528852,-93
2021-10-14 14:54:57.528860,-105
2021-10-14 14:54:57.528869,-105
2021-10-14 14:54:57.528877,-34
2021-10-14 14:54:57.528885,174
2021-10-14 14:54:57.528893,520
2021-10-14 14:54:57.528902,780
2021-10-14 14:54:57.528910,493
2021-10-14 14:54:57.528919,-338
2021-10-14 14:54:57.528927,-657
2021-10-14 14:54:57.528935,-152
2021-10-14 14:54:57.528944,73
2021-10-14 14:54:57.528952,-107
2021-10-14 14:54:57.528960,-53
2021-10-14 14:54:57.528968,53
2021-10-14 14:54:57.528977,0
2021-10-14 14:54:57.798581,-14
2021-10-14 14:54:57.798601,34
2021-10-14 14:54:57.798610,29
2021-10-14 14:54:57.798619,24
2021-10-14 14:54:57.798628,66
2021-10-14 14:54:57.798636,95
2021-10-14 14:54:57.798645,112
2021-10-14 14:54:57.798653,144
2021-10-14 14:54:57.798662,157
2021-10-14 14:54:57.798671,157
2021-10-14 14:54:57.798679,198
2021-10-14 14:54:57.798688,242
2021-10-14 14:54:57.798696,269
2021-10-14 14:54:57.798705,309
2021-10-14 14:54:57.798713,348
2021-10-14 14:54:57.798722,368
2021-10-14 14:54:57.798730,380
2021-10-14 14:54:57.798739,380
2021-10-14 14:54:57.798747,368
2021-10-14 14:54:57.798756,353
2021-10-14 14:54:57.798764,311
2021-10-14 14:54:57.798773,230
2021-10-14 14:54:57.798781,142
2021-10-14 14:54:57.798790,56
2021-10-14 14:54:57.798798,-26
2021-10-14 14:54:57.798806,-88
2021-10-14 14:54:57.798815,-130
2021-10-14 14:54:57.798823,-164
2021-10-14 14:54:57.798832,-184
2021-10-14 14:54:57.798840,-181
2021-10-14 14:54:57.978989,-174
2021-10-14 14:54:57.979010,-181
2021-10-14 14:54:57.979020,-184
2021-10-14 14:54:57.979028,-161
2021-10-14 14:54:57.979037,-149
2021-10-14 14:54:57.979045,-147
2021-10-14 14:54:57.979054,-125
2021-10-14 14:54:57.979062,-107
2021-10-14 14:54:57.979071,-117
2021-10-14 14:54:57.979079,-127
2021-10-14 14:54:57.979088,-120
2021-10-14 14:54:57.979096,-117
2021-10-14 14:54:57.979104,-112
2021-10-14 14:54:57.979113,-107
2021-10-14 14:54:57.979121,-115
2021-10-14 14:54:57.979130,-105
2021-10-14 14:54:57.979138,-90
2021-10-14 14:54:57.979146,-95
2021-10-14 14:54:57.979155,-105
2021-10-14 14:54:57.979163,-107
2021-10-14 14:54:57.979174,-110
2021-10-14 14:54:57.979183,-98
2021-10-14 14:54:57.979191,-93
2021-10-14 14:54:57.979199,-107
2021-10-14 14:54:57.979208,-103
2021-10-14 14:54:57.979216,-83
2021-10-14 14:54:57.979224,-78
2021-10-14 14:54:57.979233,-80
2021-10-14 14:54:57.979241,-88
2021-10-14 14:54:57.979250,-80
2021-10-14 14:54:58.203673,-61
2021-10-14 14:54:58.203694,-36
2021-10-14 14:54:58.203703,-9
2021-10-14 14:54:58.203712,2
2021-10-14 14:54:58.203721,-4
2021-10-14 14:54:58.203729,-17
2021-10-14 14:54:58.203738,-31
2021-10-14 14:54:58.203747,-44
2021-10-14 14:54:58.203755,-56
2021-10-14 14:54:58.203764,-58
2021-10-14 14:54:58.203772,-49
2021-10-14 14:54:58.203781,-41
2021-10-14 14:54:58.203789,-61
2021-10-14 14:54:58.203798,-80
2021-10-14 14:54:58.203806,-63
2021-10-14 14:54:58.203815,-14
2021-10-14 14:54:58.203823,139
2021-10-14 14:54:58.203832,493
2021-10-14 14:54:58.203840,834
2021-10-14 14:54:58.203849,662
2021-10-14 14:54:58.203857,-137
2021-10-14 14:54:58.203866,-593
2021-10-14 14:54:58.203875,-188
2021-10-14 14:54:58.203883,73
2021-10-14 14:54:58.203892,-93
2021-10-14 14:54:58.203901,-73
2021-10-14 14:54:58.203909,19
2021-10-14 14:54:58.203918,-19
2021-10-14 14:54:58.203926,-7
2021-10-14 14:54:58.203935,46
2021-10-14 14:54:58.429014,41
2021-10-14 14:54:58.429034,31
2021-10-14 14:54:58.429044,68
2021-10-14 14:54:58.429052,90
2021-10-14 14:54:58.429061,93
2021-10-14 14:54:58.429069,125
2021-10-14 14:54:58.429078,157
2021-10-14 14:54:58.429086,166
2021-10-14 14:54:58.429094,191
2021-10-14 14:54:58.429103,235
2021-10-14 14:54:58.429111,272
2021-10-14 14:54:58.429120,301
2021-10-14 14:54:58.429128,321
2021-10-14 14:54:58.429137,338
2021-10-14 14:54:58.429145,341
2021-10-14 14:54:58.429153,326
2021-10-14 14:54:58.429162,318
2021-10-14 14:54:58.429170,304
2021-10-14 14:54:58.429178,264
2021-10-14 14:54:58.429187,206
2021-10-14 14:54:58.429195,125
2021-10-14 14:54:58.429203,36
2021-10-14 14:54:58.429212,-34
2021-10-14 14:54:58.429220,-93
2021-10-14 14:54:58.429228,-149
2021-10-14 14:54:58.429236,-188
2021-10-14 14:54:58.429245,-191
2021-10-14 14:54:58.429253,-179
2021-10-14 14:54:58.429262,-186
2021-10-14 14:54:58.429270,-193
2021-10-14 14:54:58.653587,-179
2021-10-14 14:54:58.653613,-159
2021-10-14 14:54:58.653622,-154
2021-10-14 14:54:58.653631,-144
2021-10-14 14:54:58.653639,-130
2021-10-14 14:54:58.653648,-127
2021-10-14 14:54:58.653656,-130
2021-10-14 14:54:58.653665,-122
2021-10-14 14:54:58.653673,-115
2021-10-14 14:54:58.653682,-107
2021-10-14 14:54:58.653690,-95
2021-10-14 14:54:58.653699,-90
2021-10-14 14:54:58.653707,-95
2021-10-14 14:54:58.653715,-105
2021-10-14 14:54:58.653724,-100
2021-10-14 14:54:58.653732,-100
2021-10-14 14:54:58.653740,-98
2021-10-14 14:54:58.653749,-98
2021-10-14 14:54:58.653757,-105
2021-10-14 14:54:58.653765,-98
2021-10-14 14:54:58.653773,-85
2021-10-14 14:54:58.653782,-90
2021-10-14 14:54:58.653793,-83
2021-10-14 14:54:58.653802,-80
2021-10-14 14:54:58.653810,-85
2021-10-14 14:54:58.653819,-71
2021-10-14 14:54:58.653827,-61
2021-10-14 14:54:58.653836,-78
2021-10-14 14:54:58.653844,-83
2021-10-14 14:54:58.653852,-68
2021-10-14 14:54:58.922620,-46
2021-10-14 14:54:58.922641,-12
2021-10-14 14:54:58.922651,4
2021-10-14 14:54:58.922659,4
2021-10-14 14:54:58.922668,0
2021-10-14 14:54:58.922677,-24
2021-10-14 14:54:58.922685,-46
2021-10-14 14:54:58.922693,-41
2021-10-14 14:54:58.922702,-39
2021-10-14 14:54:58.922710,-39
2021-10-14 14:54:58.922718,-31
2021-10-14 14:54:58.922727,-36
2021-10-14 14:54:58.922735,-49
2021-10-14 14:54:58.922744,-39
2021-10-14 14:54:58.922752,-7
2021-10-14 14:54:58.922760,103
2021-10-14 14:54:58.922768,387
2021-10-14 14:54:58.922777,770
2021-10-14 14:54:58.922785,844
2021-10-14 14:54:58.922794,215
2021-10-14 14:54:58.922802,-512
2021-10-14 14:54:58.922810,-382
2021-10-14 14:54:58.922819,34
2021-10-14 14:54:58.922827,-36
2021-10-14 14:54:58.922835,-130
2021-10-14 14:54:58.922843,-22
2021-10-14 14:54:58.922852,-7
2021-10-14 14:54:58.922860,-41
2021-10-14 14:54:58.922869,-12
2021-10-14 14:54:58.922877,9
2021-10-14 14:54:59.104008,19
2021-10-14 14:54:59.104029,46
2021-10-14 14:54:59.104038,49
2021-10-14 14:54:59.104047,46
2021-10-14 14:54:59.104056,76
2021-10-14 14:54:59.104064,105
2021-10-14 14:54:59.104073,122
2021-10-14 14:54:59.104081,152
2021-10-14 14:54:59.104090,186
2021-10-14 14:54:59.104098,206
2021-10-14 14:54:59.104107,230
2021-10-14 14:54:59.104115,267
2021-10-14 14:54:59.104124,299
2021-10-14 14:54:59.104132,318
2021-10-14 14:54:59.104141,316
2021-10-14 14:54:59.104149,304
2021-10-14 14:54:59.104158,296
2021-10-14 14:54:59.104166,279
2021-10-14 14:54:59.104175,235
2021-10-14 14:54:59.104183,157
2021-10-14 14:54:59.104191,76
2021-10-14 14:54:59.104200,4
2021-10-14 14:54:59.104208,-71
2021-10-14 14:54:59.104217,-134
2021-10-14 14:54:59.104225,-166
2021-10-14 14:54:59.104234,-176
2021-10-14 14:54:59.104242,-184
2021-10-14 14:54:59.104251,-206
2021-10-14 14:54:59.104259,-218
2021-10-14 14:54:59.104268,-191
2021-10-14 14:54:59.373019,-161
2021-10-14 14:54:59.373040,-159
2021-10-14 14:54:59.373050,-157
2021-10-14 14:54:59.373059,-149
2021-10-14 14:54:59.373067,-154
2021-10-14 14:54:59.373076,-149
2021-10-14 14:54:59.373084,-122
2021-10-14 14:54:59.373093,-107
2021-10-14 14:54:59.373101,-115
2021-10-14 14:54:59.373110,-127
2021-10-14 14:54:59.373118,-137
2021-10-14 14:54:59.373127,-134
2021-10-14 14:54:59.373135,-122
2021-10-14 14:54:59.373144,-117
2021-10-14 14:54:59.373152,-107
2021-10-14 14:54:59.373161,-107
2021-10-14 14:54:59.373170,-117
2021-10-14 14:54:59.373178,-110
2021-10-14 14:54:59.373186,-90
2021-10-14 14:54:59.373195,-80
2021-10-14 14:54:59.373203,-90
2021-10-14 14:54:59.373211,-107
2021-10-14 14:54:59.373220,-112
2021-10-14 14:54:59.373228,-100
2021-10-14 14:54:59.373236,-90
2021-10-14 14:54:59.373245,-100
2021-10-14 14:54:59.373253,-120
2021-10-14 14:54:59.373262,-120
2021-10-14 14:54:59.373270,-103
2021-10-14 14:54:59.373278,-105
2021-10-14 14:54:59.777579,-105
2021-10-14 14:54:59.777600,-68
2021-10-14 14:54:59.777609,-34
2021-10-14 14:54:59.777616,-31
2021-10-14 14:54:59.777624,-41
2021-10-14 14:54:59.777636,-46
2021-10-14 14:54:59.777644,-46
2021-10-14 14:54:59.777652,-53
2021-10-14 14:54:59.777660,-71
2021-10-14 14:54:59.777668,-83
2021-10-14 14:54:59.777676,-73
2021-10-14 14:54:59.777685,-51
2021-10-14 14:54:59.777693,-49
2021-10-14 14:54:59.777701,-63
2021-10-14 14:54:59.777709,-63
2021-10-14 14:54:59.777716,4
2021-10-14 14:54:59.777724,245
2021-10-14 14:54:59.777732,628
2021-10-14 14:54:59.777741,853
2021-10-14 14:54:59.777750,478
2021-10-14 14:54:59.777758,-345
2021-10-14 14:54:59.777766,-561
2021-10-14 14:54:59.777774,-58
2021-10-14 14:54:59.777782,88
2021-10-14 14:54:59.777789,-90
2021-10-14 14:54:59.777796,-29
2021-10-14 14:54:59.777802,29
2021-10-14 14:54:59.777808,-24
2021-10-14 14:54:59.777814,2
2021-10-14 14:54:59.777820,46
2021-10-14 14:54:59.867968,39
2021-10-14 14:54:59.867989,46
2021-10-14 14:54:59.867998,68
2021-10-14 14:54:59.868007,73
2021-10-14 14:54:59.868015,88
2021-10-14 14:54:59.868024,120
2021-10-14 14:54:59.868032,139
2021-10-14 14:54:59.868040,149
2021-10-14 14:54:59.868049,166
2021-10-14 14:54:59.868057,193
2021-10-14 14:54:59.868066,238
2021-10-14 14:54:59.868074,289
2021-10-14 14:54:59.868082,316
2021-10-14 14:54:59.868091,321
2021-10-14 14:54:59.868099,333
2021-10-14 14:54:59.868107,333
2021-10-14 14:54:59.868115,306
2021-10-14 14:54:59.868124,284
2021-10-14 14:54:59.868132,272
2021-10-14 14:54:59.868141,206
2021-10-14 14:54:59.868149,80
2021-10-14 14:54:59.868157,-22
2021-10-14 14:54:59.868166,-61
2021-10-14 14:54:59.868174,-105
2021-10-14 14:54:59.868182,-174
2021-10-14 14:54:59.868191,-208
2021-10-14 14:54:59.868199,-215
2021-10-14 14:54:59.868207,-230
2021-10-14 14:54:59.868216,-233
2021-10-14 14:54:59.868224,-215
2021-10-14 14:55:00.048626,-198
2021-10-14 14:55:00.048647,-208
2021-10-14 14:55:00.048657,-211
2021-10-14 14:55:00.048665,-188
2021-10-14 14:55:00.048674,-174
2021-10-14 14:55:00.048682,-176
2021-10-14 14:55:00.048691,-179
2021-10-14 14:55:00.048699,-166
2021-10-14 14:55:00.048708,-154
2021-10-14 14:55:00.048716,-147
2021-10-14 14:55:00.048725,-142
2021-10-14 14:55:00.048734,-142
2021-10-14 14:55:00.048743,-137
2021-10-14 14:55:00.048752,-125
2021-10-14 14:55:00.048760,-130
2021-10-14 14:55:00.048769,-144
2021-10-14 14:55:00.048777,-142
2021-10-14 14:55:00.048786,-127
2021-10-14 14:55:00.048794,-115
2021-10-14 14:55:00.048803,-132
2021-10-14 14:55:00.048811,-152
2021-10-14 14:55:00.048820,-130
2021-10-14 14:55:00.048828,-110
2021-10-14 14:55:00.048837,-115
2021-10-14 14:55:00.048845,-117
2021-10-14 14:55:00.048854,-107
2021-10-14 14:55:00.048863,-95
2021-10-14 14:55:00.048871,-85
2021-10-14 14:55:00.048880,-66
2021-10-14 14:55:00.048888,-49
2021-10-14 14:55:00.274034,-46
2021-10-14 14:55:00.274055,-44
2021-10-14 14:55:00.274064,-53
2021-10-14 14:55:00.274073,-76
2021-10-14 14:55:00.274082,-78
2021-10-14 14:55:00.274090,-71
2021-10-14 14:55:00.274099,-80
2021-10-14 14:55:00.274107,-76
2021-10-14 14:55:00.274115,-49
2021-10-14 14:55:00.274124,-49
2021-10-14 14:55:00.274132,-73
2021-10-14 14:55:00.274141,-68
2021-10-14 14:55:00.274149,-17
2021-10-14 14:55:00.274157,125
2021-10-14 14:55:00.274166,429
2021-10-14 14:55:00.274174,770
2021-10-14 14:55:00.274183,704
2021-10-14 14:55:00.274191,-26
2021-10-14 14:55:00.274200,-593
2021-10-14 14:55:00.274208,-260
2021-10-14 14:55:00.274216,107
2021-10-14 14:55:00.274225,-9
2021-10-14 14:55:00.274233,-34
2021-10-14 14:55:00.274242,58
2021-10-14 14:55:00.274250,24
2021-10-14 14:55:00.274258,14
2021-10-14 14:55:00.274267,76
2021-10-14 14:55:00.274275,85
2021-10-14 14:55:00.274284,78
2021-10-14 14:55:00.274292,110
2021-10-14 14:55:00.498648,142
2021-10-14 14:55:00.498672,137
2021-10-14 14:55:00.498682,142
2021-10-14 14:55:00.498691,176
2021-10-14 14:55:00.498699,206
2021-10-14 14:55:00.498708,220
2021-10-14 14:55:00.498716,238
2021-10-14 14:55:00.498725,255
2021-10-14 14:55:00.498733,279
2021-10-14 14:55:00.498741,309
2021-10-14 14:55:00.498750,323
2021-10-14 14:55:00.498758,331
2021-10-14 14:55:00.498767,333
2021-10-14 14:55:00.498775,321
2021-10-14 14:55:00.498783,306
2021-10-14 14:55:00.498792,269
2021-10-14 14:55:00.498800,191
2021-10-14 14:55:00.498809,100
2021-10-14 14:55:00.498817,17
2021-10-14 14:55:00.498825,-58
2021-10-14 14:55:00.498834,-122
2021-10-14 14:55:00.498842,-166
2021-10-14 14:55:00.498851,-193
2021-10-14 14:55:00.498859,-211
2021-10-14 14:55:00.498868,-225
2021-10-14 14:55:00.498876,-215
2021-10-14 14:55:00.498884,-193
2021-10-14 14:55:00.498893,-181
2021-10-14 14:55:00.498901,-188
2021-10-14 14:55:00.498910,-193
2021-10-14 14:55:00.768721,-176
2021-10-14 14:55:00.768742,-149
2021-10-14 14:55:00.768751,-137
2021-10-14 14:55:00.768760,-137
2021-10-14 14:55:00.768769,-137
2021-10-14 14:55:00.768777,-137
2021-10-14 14:55:00.768786,-137
2021-10-14 14:55:00.768795,-122
2021-10-14 14:55:00.768803,-110
2021-10-14 14:55:00.768812,-103
2021-10-14 14:55:00.768821,-105
2021-10-14 14:55:00.768829,-127
2021-10-14 14:55:00.768838,-134
2021-10-14 14:55:00.768847,-105
2021-10-14 14:55:00.768855,-90
2021-10-14 14:55:00.768864,-107
2021-10-14 14:55:00.768872,-107
2021-10-14 14:55:00.768881,-88
2021-10-14 14:55:00.768889,-93
2021-10-14 14:55:00.768898,-103
2021-10-14 14:55:00.768906,-83
2021-10-14 14:55:00.768915,-63
2021-10-14 14:55:00.768923,-66
2021-10-14 14:55:00.768932,-80
2021-10-14 14:55:00.768940,-90
2021-10-14 14:55:00.768949,-78
2021-10-14 14:55:00.768957,-49
2021-10-14 14:55:00.768965,-9
2021-10-14 14:55:00.768974,7
2021-10-14 14:55:00.768983,0
2021-10-14 14:55:00.992713,0
2021-10-14 14:55:00.992735,-4
2021-10-14 14:55:00.992744,-29
2021-10-14 14:55:00.992753,-41
2021-10-14 14:55:00.992762,-34
2021-10-14 14:55:00.992771,-31
2021-10-14 14:55:00.992779,-26
2021-10-14 14:55:00.992788,-19
2021-10-14 14:55:00.992796,-19
2021-10-14 14:55:00.992805,-24
2021-10-14 14:55:00.992813,-17
2021-10-14 14:55:00.992822,58
2021-10-14 14:55:00.992830,309
2021-10-14 14:55:00.992839,694
2021-10-14 14:55:00.992847,883
2021-10-14 14:55:00.992856,419
2021-10-14 14:55:00.992864,-377
2021-10-14 14:55:00.992872,-456
2021-10-14 14:55:00.992881,0
2021-10-14 14:55:00.992889,46
2021-10-14 14:55:00.992898,-71
2021-10-14 14:55:00.992906,9
2021-10-14 14:55:00.992914,22
2021-10-14 14:55:00.992923,-17
2021-10-14 14:55:00.992931,34
2021-10-14 14:55:00.992940,68
2021-10-14 14:55:00.992948,49
2021-10-14 14:55:00.992956,53
2021-10-14 14:55:00.992965,93
2021-10-14 14:55:00.992974,127
2021-10-14 14:55:01.219049,147
2021-10-14 14:55:01.219070,147
2021-10-14 14:55:01.219080,161
2021-10-14 14:55:01.219089,193
2021-10-14 14:55:01.219097,206
2021-10-14 14:55:01.219106,220
2021-10-14 14:55:01.219114,262
2021-10-14 14:55:01.219123,289
2021-10-14 14:55:01.219131,296
2021-10-14 14:55:01.219139,311
2021-10-14 14:55:01.219148,316
2021-10-14 14:55:01.219156,299
2021-10-14 14:55:01.219164,284
2021-10-14 14:55:01.219173,264
2021-10-14 14:55:01.219181,215
2021-10-14 14:55:01.219190,144
2021-10-14 14:55:01.219198,63
2021-10-14 14:55:01.219206,-26
2021-10-14 14:55:01.219215,-98
2021-10-14 14:55:01.219223,-134
2021-10-14 14:55:01.219232,-159
2021-10-14 14:55:01.219240,-196
2021-10-14 14:55:01.219249,-215
2021-10-14 14:55:01.219257,-208
2021-10-14 14:55:01.219265,-206
2021-10-14 14:55:01.219274,-206
2021-10-14 14:55:01.219282,-191
2021-10-14 14:55:01.219291,-176
2021-10-14 14:55:01.219299,-174
2021-10-14 14:55:01.219308,-169
2021-10-14 14:55:01.444074,-157
2021-10-14 14:55:01.444094,-144
2021-10-14 14:55:01.444103,-127
2021-10-14 14:55:01.444110,-122
2021-10-14 14:55:01.444117,-130
2021-10-14 14:55:01.444124,-122
2021-10-14 14:55:01.444131,-115
2021-10-14 14:55:01.444138,-110
2021-10-14 14:55:01.444146,-107
2021-10-14 14:55:01.444153,-115
2021-10-14 14:55:01.444160,-117
2021-10-14 14:55:01.444174,-112
2021-10-14 14:55:01.444182,-112
2021-10-14 14:55:01.444190,-103
2021-10-14 14:55:01.444197,-93
2021-10-14 14:55:01.444205,-112
2021-10-14 14:55:01.444212,-125
2021-10-14 14:55:01.444219,-105
2021-10-14 14:55:01.444227,-100
2021-10-14 14:55:01.444234,-112
2021-10-14 14:55:01.444241,-112
2021-10-14 14:55:01.444249,-110
2021-10-14 14:55:01.444258,-112
2021-10-14 14:55:01.444266,-105
2021-10-14 14:55:01.444274,-98
2021-10-14 14:55:01.444282,-100
2021-10-14 14:55:01.444291,-90
2021-10-14 14:55:01.444299,-80
2021-10-14 14:55:01.444307,-83
2021-10-14 14:55:01.444316,-61
2021-10-14 14:55:01.714114,-12
2021-10-14 14:55:01.714135,-9
2021-10-14 14:55:01.714145,-34
2021-10-14 14:55:01.714153,-29
2021-10-14 14:55:01.714162,-19
2021-10-14 14:55:01.714170,-44
2021-10-14 14:55:01.714179,-56
2021-10-14 14:55:01.714187,-41
2021-10-14 14:55:01.714196,-46
2021-10-14 14:55:01.714205,-56
2021-10-14 14:55:01.714213,-46
2021-10-14 14:55:01.714222,-44
2021-10-14 14:55:01.714230,-56
2021-10-14 14:55:01.714239,-26
2021-10-14 14:55:01.714248,98
2021-10-14 14:55:01.714256,387
2021-10-14 14:55:01.714265,760
2021-10-14 14:55:01.714273,790
2021-10-14 14:55:01.714282,120
2021-10-14 14:55:01.714290,-566
2021-10-14 14:55:01.714299,-358
2021-10-14 14:55:01.714307,76
2021-10-14 14:55:01.714316,7
2021-10-14 14:55:01.714324,-68
2021-10-14 14:55:01.714332,24
2021-10-14 14:55:01.714341,19
2021-10-14 14:55:01.714349,-2
2021-10-14 14:55:01.714358,44
2021-10-14 14:55:01.714366,61
2021-10-14 14:55:01.714375,61
2021-10-14 14:55:01.893723,88
2021-10-14 14:55:01.893743,105
2021-10-14 14:55:01.893753,103
2021-10-14 14:55:01.893761,120
2021-10-14 14:55:01.893770,152
2021-10-14 14:55:01.893778,176
2021-10-14 14:55:01.893787,193
2021-10-14 14:55:01.893795,211
2021-10-14 14:55:01.893804,230
2021-10-14 14:55:01.893813,260
2021-10-14 14:55:01.893822,291
2021-10-14 14:55:01.893830,311
2021-10-14 14:55:01.893839,326
2021-10-14 14:55:01.893847,328
2021-10-14 14:55:01.893856,309
2021-10-14 14:55:01.893864,289
2021-10-14 14:55:01.893872,272
2021-10-14 14:55:01.893881,230
2021-10-14 14:55:01.893889,159
2021-10-14 14:55:01.893897,63
2021-10-14 14:55:01.893906,-24
2021-10-14 14:55:01.893914,-95
2021-10-14 14:55:01.893923,-154
2021-10-14 14:55:01.893931,-193
2021-10-14 14:55:01.893940,-223
2021-10-14 14:55:01.893948,-242
2021-10-14 14:55:01.893956,-238
2021-10-14 14:55:01.893965,-235
2021-10-14 14:55:01.893973,-230
2021-10-14 14:55:01.893981,-223
2021-10-14 14:55:02.119064,-220
2021-10-14 14:55:02.119092,-206
2021-10-14 14:55:02.119100,-181
2021-10-14 14:55:02.119107,-164
2021-10-14 14:55:02.119115,-154
2021-10-14 14:55:02.119122,-147
2021-10-14 14:55:02.119130,-147
2021-10-14 14:55:02.119138,-154
2021-10-14 14:55:02.119145,-157
2021-10-14 14:55:02.119153,-144
2021-10-14 14:55:02.119161,-127
2021-10-14 14:55:02.119169,-117
2021-10-14 14:55:02.119176,-132
2021-10-14 14:55:02.119183,-154
2021-10-14 14:55:02.119191,-147
2021-10-14 14:55:02.119198,-134
2021-10-14 14:55:02.119207,-137
2021-10-14 14:55:02.119215,-137
2021-10-14 14:55:02.119223,-137
2021-10-14 14:55:02.119232,-139
2021-10-14 14:55:02.119240,-127
2021-10-14 14:55:02.119248,-120
2021-10-14 14:55:02.119255,-125
2021-10-14 14:55:02.119263,-112
2021-10-14 14:55:02.119271,-98
2021-10-14 14:55:02.119279,-112
2021-10-14 14:55:02.119288,-105
2021-10-14 14:55:02.119296,-78
2021-10-14 14:55:02.119304,-76
2021-10-14 14:55:02.119311,-83
2021-10-14 14:55:02.343987,-71
2021-10-14 14:55:02.344008,-73
2021-10-14 14:55:02.344018,-90
2021-10-14 14:55:02.344027,-85
2021-10-14 14:55:02.344035,-56
2021-10-14 14:55:02.344044,-22
2021-10-14 14:55:02.344052,-9
2021-10-14 14:55:02.344060,-17
2021-10-14 14:55:02.344068,-19
2021-10-14 14:55:02.344076,-24
2021-10-14 14:55:02.344269,-46
2021-10-14 14:55:02.344276,-63
2021-10-14 14:55:02.344280,-68
2021-10-14 14:55:02.344285,-51
2021-10-14 14:55:02.344289,-26
2021-10-14 14:55:02.344293,-22
2021-10-14 14:55:02.344298,-51
2021-10-14 14:55:02.344302,-61
2021-10-14 14:55:02.344306,-2
2021-10-14 14:55:02.344311,184
2021-10-14 14:55:02.344315,522
2021-10-14 14:55:02.344320,819
2021-10-14 14:55:02.344324,637
2021-10-14 14:55:02.344328,-152
2021-10-14 14:55:02.344333,-608
2021-10-14 14:55:02.344337,-176
2021-10-14 14:55:02.344341,127
2021-10-14 14:55:02.344346,-36
2021-10-14 14:55:02.344350,-24
2021-10-14 14:55:02.344354,71
2021-10-14 14:55:02.568735,12
2021-10-14 14:55:02.568756,0
2021-10-14 14:55:02.568766,51
2021-10-14 14:55:02.568774,49
2021-10-14 14:55:02.568783,46
2021-10-14 14:55:02.568791,68
2021-10-14 14:55:02.568800,80
2021-10-14 14:55:02.568808,95
2021-10-14 14:55:02.568820,120
2021-10-14 14:55:02.568829,139
2021-10-14 14:55:02.568837,159
2021-10-14 14:55:02.568846,186
2021-10-14 14:55:02.568854,211
2021-10-14 14:55:02.568863,240
2021-10-14 14:55:02.568871,272
2021-10-14 14:55:02.568879,304
2021-10-14 14:55:02.568888,321
2021-10-14 14:55:02.568896,336
2021-10-14 14:55:02.568904,341
2021-10-14 14:55:02.568912,336
2021-10-14 14:55:02.568921,326
2021-10-14 14:55:02.568930,304
2021-10-14 14:55:02.568938,230
2021-10-14 14:55:02.568947,117
2021-10-14 14:55:02.568955,29
2021-10-14 14:55:02.568963,-24
2021-10-14 14:55:02.568972,-95
2021-10-14 14:55:02.568980,-166
2021-10-14 14:55:02.568989,-191
2021-10-14 14:55:02.568997,-193
2021-10-14 14:55:02.794082,-206
2021-10-14 14:55:02.794109,-201
2021-10-14 14:55:02.794119,-184
2021-10-14 14:55:02.794127,-188
2021-10-14 14:55:02.794136,-206
2021-10-14 14:55:02.794144,-191
2021-10-14 14:55:02.794153,-157
2021-10-14 14:55:02.794161,-149
2021-10-14 14:55:02.794170,-157
2021-10-14 14:55:02.794178,-144
2021-10-14 14:55:02.794187,-132
2021-10-14 14:55:02.794196,-132
2021-10-14 14:55:02.794204,-117
2021-10-14 14:55:02.794213,-110
2021-10-14 14:55:02.794221,-105
2021-10-14 14:55:02.794229,-98
2021-10-14 14:55:02.794238,-107
2021-10-14 14:55:02.794246,-120
2021-10-14 14:55:02.794255,-100
2021-10-14 14:55:02.794263,-85
2021-10-14 14:55:02.794271,-98
2021-10-14 14:55:02.794280,-112
2021-10-14 14:55:02.794288,-117
2021-10-14 14:55:02.794297,-100
2021-10-14 14:55:02.794305,-78
2021-10-14 14:55:02.794314,-90
2021-10-14 14:55:02.794322,-93
2021-10-14 14:55:02.794331,-85
2021-10-14 14:55:02.794339,-88
2021-10-14 14:55:02.794348,-78
2021-10-14 14:55:03.062691,-63
2021-10-14 14:55:03.062711,-71
2021-10-14 14:55:03.062721,-73
2021-10-14 14:55:03.062729,-56
2021-10-14 14:55:03.062738,-66
2021-10-14 14:55:03.062747,-100
2021-10-14 14:55:03.062755,-107
2021-10-14 14:55:03.062764,-71
2021-10-14 14:55:03.062773,-34
2021-10-14 14:55:03.062781,-14
2021-10-14 14:55:03.062790,-22
2021-10-14 14:55:03.062798,-31
2021-10-14 14:55:03.062807,-14
2021-10-14 14:55:03.062815,-17
2021-10-14 14:55:03.062824,-46
2021-10-14 14:55:03.062832,-61
2021-10-14 14:55:03.062841,-53
2021-10-14 14:55:03.062849,-39
2021-10-14 14:55:03.062858,-24
2021-10-14 14:55:03.062866,-26
2021-10-14 14:55:03.062875,-34
2021-10-14 14:55:03.062883,-26
2021-10-14 14:55:03.062892,29
2021-10-14 14:55:03.062900,225
2021-10-14 14:55:03.062909,583
2021-10-14 14:55:03.062917,885
2021-10-14 14:55:03.062926,640
2021-10-14 14:55:03.062934,-176
2021-10-14 14:55:03.062942,-515
2021-10-14 14:55:03.062951,-68
2021-10-14 14:55:03.378582,107
2021-10-14 14:55:03.378605,-71
2021-10-14 14:55:03.378615,-17
2021-10-14 14:55:03.378623,51
2021-10-14 14:55:03.378631,-12
2021-10-14 14:55:03.378639,4
2021-10-14 14:55:03.378647,56
2021-10-14 14:55:03.378655,53
2021-10-14 14:55:03.378663,51
2021-10-14 14:55:03.378670,53
2021-10-14 14:55:03.378676,58
2021-10-14 14:55:03.378684,78
2021-10-14 14:55:03.378692,115
2021-10-14 14:55:03.378700,149
2021-10-14 14:55:03.378709,166
2021-10-14 14:55:03.378717,174
2021-10-14 14:55:03.378725,211
2021-10-14 14:55:03.378733,260
2021-10-14 14:55:03.378741,291
2021-10-14 14:55:03.378749,311
2021-10-14 14:55:03.378757,321
2021-10-14 14:55:03.378764,328
2021-10-14 14:55:03.378773,343
2021-10-14 14:55:03.378780,338
2021-10-14 14:55:03.378786,311
2021-10-14 14:55:03.378793,284
2021-10-14 14:55:03.378800,218
2021-10-14 14:55:03.378807,117
2021-10-14 14:55:03.378814,36
2021-10-14 14:55:03.378822,-24
2021-10-14 14:55:03.514050,-93
2021-10-14 14:55:03.514071,-137
2021-10-14 14:55:03.514081,-154
2021-10-14 14:55:03.514090,-179
2021-10-14 14:55:03.514098,-193
2021-10-14 14:55:03.514106,-184
2021-10-14 14:55:03.514115,-176
2021-10-14 14:55:03.514123,-179
2021-10-14 14:55:03.514131,-174
2021-10-14 14:55:03.514140,-164
2021-10-14 14:55:03.514148,-157
2021-10-14 14:55:03.514157,-161
2021-10-14 14:55:03.514165,-164
2021-10-14 14:55:03.514174,-144
2021-10-14 14:55:03.514182,-130
2021-10-14 14:55:03.514190,-134
2021-10-14 14:55:03.514199,-137
2021-10-14 14:55:03.514207,-120
2021-10-14 14:55:03.514216,-107
2021-10-14 14:55:03.514224,-115
2021-10-14 14:55:03.514232,-120
2021-10-14 14:55:03.514241,-107
2021-10-14 14:55:03.514249,-100
2021-10-14 14:55:03.514257,-110
2021-10-14 14:55:03.514266,-100
2021-10-14 14:55:03.514274,-88
2021-10-14 14:55:03.514282,-98
2021-10-14 14:55:03.514291,-107
2021-10-14 14:55:03.514299,-103
2021-10-14 14:55:03.514308,-98
2021-10-14 14:55:03.738710,-85
2021-10-14 14:55:03.738731,-80
2021-10-14 14:55:03.738741,-95
2021-10-14 14:55:03.738750,-90
2021-10-14 14:55:03.738758,-76
2021-10-14 14:55:03.738767,-73
2021-10-14 14:55:03.738775,-71
2021-10-14 14:55:03.738784,-76
2021-10-14 14:55:03.738792,-88
2021-10-14 14:55:03.738801,-78
2021-10-14 14:55:03.738810,-58
2021-10-14 14:55:03.738818,-61
2021-10-14 14:55:03.738827,-58
2021-10-14 14:55:03.738835,-56
2021-10-14 14:55:03.738844,-68
2021-10-14 14:55:03.738853,-58
2021-10-14 14:55:03.738861,-17
2021-10-14 14:55:03.738869,17
2021-10-14 14:55:03.738878,19
2021-10-14 14:55:03.738886,9
2021-10-14 14:55:03.738895,0
2021-10-14 14:55:03.738903,-14
2021-10-14 14:55:03.738912,-22
2021-10-14 14:55:03.738924,-17
2021-10-14 14:55:03.738932,-17
2021-10-14 14:55:03.738941,-22
2021-10-14 14:55:03.738949,-24
2021-10-14 14:55:03.738957,-19
2021-10-14 14:55:03.738966,-17
2021-10-14 14:55:03.738974,-22
2021-10-14 14:55:03.964070,2
2021-10-14 14:55:03.964092,188
2021-10-14 14:55:03.964101,559
2021-10-14 14:55:03.964110,848
2021-10-14 14:55:03.964119,615
2021-10-14 14:55:03.964128,-166
2021-10-14 14:55:03.964136,-554
2021-10-14 14:55:03.964145,-161
2021-10-14 14:55:03.964153,63
2021-10-14 14:55:03.964162,-85
2021-10-14 14:55:03.964170,-73
2021-10-14 14:55:03.964179,7
2021-10-14 14:55:03.964187,-22
2021-10-14 14:55:03.964196,-29
2021-10-14 14:55:03.964204,4
2021-10-14 14:55:03.964212,19
2021-10-14 14:55:03.964221,12
2021-10-14 14:55:03.964229,19
2021-10-14 14:55:03.964237,44
2021-10-14 14:55:03.964246,68
2021-10-14 14:55:03.964254,88
2021-10-14 14:55:03.964263,103
2021-10-14 14:55:03.964271,127
2021-10-14 14:55:03.964279,161
2021-10-14 14:55:03.964288,196
2021-10-14 14:55:03.964296,228
2021-10-14 14:55:03.964305,260
2021-10-14 14:55:03.964313,282
2021-10-14 14:55:03.964322,296
2021-10-14 14:55:03.964330,318
2021-10-14 14:55:04.189086,328
2021-10-14 14:55:04.189107,314
2021-10-14 14:55:04.189117,291
2021-10-14 14:55:04.189126,267
2021-10-14 14:55:04.189134,220
2021-10-14 14:55:04.189143,142
2021-10-14 14:55:04.189152,51
2021-10-14 14:55:04.189160,-26
2021-10-14 14:55:04.189169,-95
2021-10-14 14:55:04.189177,-157
2021-10-14 14:55:04.189186,-184
2021-10-14 14:55:04.189195,-184
2021-10-14 14:55:04.189203,-201
2021-10-14 14:55:04.189212,-218
2021-10-14 14:55:04.189221,-206
2021-10-14 14:55:04.189229,-196
2021-10-14 14:55:04.189237,-201
2021-10-14 14:55:04.189246,-188
2021-10-14 14:55:04.189254,-171
2021-10-14 14:55:04.189262,-161
2021-10-14 14:55:04.189271,-152
2021-10-14 14:55:04.189279,-142
2021-10-14 14:55:04.189288,-130
2021-10-14 14:55:04.189296,-107
2021-10-14 14:55:04.189304,-103
2021-10-14 14:55:04.189313,-120
2021-10-14 14:55:04.189321,-125
2021-10-14 14:55:04.189330,-105
2021-10-14 14:55:04.189338,-93
2021-10-14 14:55:04.189347,-107
2021-10-14 14:55:04.458703,-120
2021-10-14 14:55:04.458725,-103
2021-10-14 14:55:04.458734,-88
2021-10-14 14:55:04.458743,-100
2021-10-14 14:55:04.458752,-105
2021-10-14 14:55:04.458760,-105
2021-10-14 14:55:04.458768,-122
2021-10-14 14:55:04.458776,-122
2021-10-14 14:55:04.458785,-107
2021-10-14 14:55:04.458793,-105
2021-10-14 14:55:04.458801,-107
2021-10-14 14:55:04.458810,-107
2021-10-14 14:55:04.458818,-100
2021-10-14 14:55:04.458826,-95
2021-10-14 14:55:04.458835,-103
2021-10-14 14:55:04.458843,-98
2021-10-14 14:55:04.458851,-83
2021-10-14 14:55:04.458859,-83
2021-10-14 14:55:04.458868,-88
2021-10-14 14:55:04.458876,-80
2021-10-14 14:55:04.458884,-71
2021-10-14 14:55:04.458892,-49
2021-10-14 14:55:04.458901,-24
2021-10-14 14:55:04.458909,-29
2021-10-14 14:55:04.458917,-39
2021-10-14 14:55:04.458925,-36
2021-10-14 14:55:04.458933,-51
2021-10-14 14:55:04.458942,-76
2021-10-14 14:55:04.458950,-78
2021-10-14 14:55:04.458958,-66
2021-10-14 14:55:04.683130,-61
2021-10-14 14:55:04.683151,-68
2021-10-14 14:55:04.683160,-73
2021-10-14 14:55:04.683168,-63
2021-10-14 14:55:04.683176,-26
2021-10-14 14:55:04.683183,95
2021-10-14 14:55:04.683190,392
2021-10-14 14:55:04.683198,728
2021-10-14 14:55:04.683205,672
2021-10-14 14:55:04.683213,-51
2021-10-14 14:55:04.683220,-652
2021-10-14 14:55:04.683228,-333
2021-10-14 14:55:04.683235,71
2021-10-14 14:55:04.683243,-51
2021-10-14 14:55:04.683251,-98
2021-10-14 14:55:04.683259,4
2021-10-14 14:55:04.683266,-19
2021-10-14 14:55:04.683273,-31
2021-10-14 14:55:04.683281,26
2021-10-14 14:55:04.683288,39
2021-10-14 14:55:04.683295,31
2021-10-14 14:55:04.683303,53
2021-10-14 14:55:04.683311,78
2021-10-14 14:55:04.683320,100
2021-10-14 14:55:04.683329,120
2021-10-14 14:55:04.683338,144
2021-10-14 14:55:04.683347,171
2021-10-14 14:55:04.683354,201
2021-10-14 14:55:04.683362,233
2021-10-14 14:55:04.683369,262
2021-10-14 14:55:04.909077,296
2021-10-14 14:55:04.909099,336
2021-10-14 14:55:04.909108,363
2021-10-14 14:55:04.909117,370
2021-10-14 14:55:04.909126,360
2021-10-14 14:55:04.909135,355
2021-10-14 14:55:04.909143,358
2021-10-14 14:55:04.909152,331
2021-10-14 14:55:04.909160,257
2021-10-14 14:55:04.909169,164
2021-10-14 14:55:04.909178,66
2021-10-14 14:55:04.909186,-29
2021-10-14 14:55:04.909195,-90
2021-10-14 14:55:04.909203,-130
2021-10-14 14:55:04.909212,-176
2021-10-14 14:55:04.909220,-208
2021-10-14 14:55:04.909229,-220
2021-10-14 14:55:04.909237,-220
2021-10-14 14:55:04.909246,-208
2021-10-14 14:55:04.909254,-188
2021-10-14 14:55:04.909262,-176
2021-10-14 14:55:04.909271,-176
2021-10-14 14:55:04.909280,-176
2021-10-14 14:55:04.909288,-154
2021-10-14 14:55:04.909296,-125
2021-10-14 14:55:04.909305,-125
2021-10-14 14:55:04.909314,-117
2021-10-14 14:55:04.909322,-110
2021-10-14 14:55:04.909330,-125
2021-10-14 14:55:04.909339,-122
2021-10-14 14:55:05.177408,-95
2021-10-14 14:55:05.177433,-85
2021-10-14 14:55:05.177438,-100
2021-10-14 14:55:05.177443,-117
2021-10-14 14:55:05.177447,-117
2021-10-14 14:55:05.177452,-103
2021-10-14 14:55:05.177456,-93
2021-10-14 14:55:05.177461,-93
2021-10-14 14:55:05.177465,-98
2021-10-14 14:55:05.177470,-95
2021-10-14 14:55:05.177474,-88
2021-10-14 14:55:05.177478,-83
2021-10-14 14:55:05.177494,-83
2021-10-14 14:55:05.177510,-80
2021-10-14 14:55:05.177517,-83
2021-10-14 14:55:05.177524,-83
2021-10-14 14:55:05.177532,-76
2021-10-14 14:55:05.177540,-78
2021-10-14 14:55:05.177548,-85
2021-10-14 14:55:05.177555,-63
2021-10-14 14:55:05.177563,-19
2021-10-14 14:55:05.177570,-2
2021-10-14 14:55:05.177578,-4
2021-10-14 14:55:05.177586,2
2021-10-14 14:55:05.177595,-12
2021-10-14 14:55:05.177603,-39
2021-10-14 14:55:05.177611,-39
2021-10-14 14:55:05.177618,-26
2021-10-14 14:55:05.177626,-26
2021-10-14 14:55:05.177637,-29
2021-10-14 14:55:05.404086,-26
2021-10-14 14:55:05.404108,-31
2021-10-14 14:55:05.404118,-41
2021-10-14 14:55:05.404126,-31
2021-10-14 14:55:05.404135,31
2021-10-14 14:55:05.404144,203
2021-10-14 14:55:05.404152,534
2021-10-14 14:55:05.404161,861
2021-10-14 14:55:05.404170,647
2021-10-14 14:55:05.404178,-188
2021-10-14 14:55:05.404187,-574
2021-10-14 14:55:05.404195,-107
2021-10-14 14:55:05.404204,103
2021-10-14 14:55:05.404212,-98
2021-10-14 14:55:05.404221,-56
2021-10-14 14:55:05.404230,24
2021-10-14 14:55:05.404238,-46
2021-10-14 14:55:05.404247,-29
2021-10-14 14:55:05.404255,51
2021-10-14 14:55:05.404264,51
2021-10-14 14:55:05.404272,24
2021-10-14 14:55:05.404281,46
2021-10-14 14:55:05.404289,88
2021-10-14 14:55:05.404298,105
2021-10-14 14:55:05.404306,110
2021-10-14 14:55:05.404314,139
2021-10-14 14:55:05.404323,179
2021-10-14 14:55:05.404331,193
2021-10-14 14:55:05.404340,215
2021-10-14 14:55:05.404348,269
2021-10-14 14:55:05.629104,316
2021-10-14 14:55:05.629124,328
2021-10-14 14:55:05.629134,345
2021-10-14 14:55:05.629143,360
2021-10-14 14:55:05.629151,345
2021-10-14 14:55:05.629162,323
2021-10-14 14:55:05.629171,309
2021-10-14 14:55:05.629179,279
2021-10-14 14:55:05.629188,220
2021-10-14 14:55:05.629196,130
2021-10-14 14:55:05.629204,36
2021-10-14 14:55:05.629213,-34
2021-10-14 14:55:05.629222,-95
2021-10-14 14:55:05.629230,-147
2021-10-14 14:55:05.629239,-184
2021-10-14 14:55:05.629247,-193
2021-10-14 14:55:05.629255,-191
2021-10-14 14:55:05.629264,-184
2021-10-14 14:55:05.629272,-179
2021-10-14 14:55:05.629281,-184
2021-10-14 14:55:05.629289,-184
2021-10-14 14:55:05.629297,-169
2021-10-14 14:55:05.629306,-161
2021-10-14 14:55:05.629314,-157
2021-10-14 14:55:05.629323,-130
2021-10-14 14:55:05.629331,-110
2021-10-14 14:55:05.629339,-125
2021-10-14 14:55:05.629348,-120
2021-10-14 14:55:05.629356,-95
2021-10-14 14:55:05.629364,-85
2021-10-14 14:55:05.808725,-88
2021-10-14 14:55:05.808746,-93
2021-10-14 14:55:05.808755,-95
2021-10-14 14:55:05.808764,-85
2021-10-14 14:55:05.808773,-68
2021-10-14 14:55:05.808782,-68
2021-10-14 14:55:05.808790,-76
2021-10-14 14:55:05.808799,-78
2021-10-14 14:55:05.808807,-85
2021-10-14 14:55:05.808816,-80
2021-10-14 14:55:05.808824,-78
2021-10-14 14:55:05.808833,-85
2021-10-14 14:55:05.808841,-78
2021-10-14 14:55:05.808850,-66
2021-10-14 14:55:05.808858,-71
2021-10-14 14:55:05.808867,-78
2021-10-14 14:55:05.808875,-78
2021-10-14 14:55:05.808884,-85
2021-10-14 14:55:05.808892,-78
2021-10-14 14:55:05.808901,-44
2021-10-14 14:55:05.808909,-9
2021-10-14 14:55:05.808917,-14
2021-10-14 14:55:05.808926,-17
2021-10-14 14:55:05.808934,-9
2021-10-14 14:55:05.808942,-31
2021-10-14 14:55:05.808951,-51
2021-10-14 14:55:05.808959,-53
2021-10-14 14:55:05.808968,-46
2021-10-14 14:55:05.808976,-26
2021-10-14 14:55:05.808985,-17
2021-10-14 14:55:06.033977,-39
2021-10-14 14:55:06.033998,-39
2021-10-14 14:55:06.034008,-14
2021-10-14 14:55:06.034017,4
2021-10-14 14:55:06.034025,125
2021-10-14 14:55:06.034034,451
2021-10-14 14:55:06.034043,817
2021-10-14 14:55:06.034051,772
2021-10-14 14:55:06.034059,58
2021-10-14 14:55:06.034068,-554
2021-10-14 14:55:06.034076,-291
2021-10-14 14:55:06.034085,58
2021-10-14 14:55:06.034093,-71
2021-10-14 14:55:06.034102,-110
2021-10-14 14:55:06.034110,-2
2021-10-14 14:55:06.034119,-31
2021-10-14 14:55:06.034127,-51
2021-10-14 14:55:06.034135,7
2021-10-14 14:55:06.034144,9
2021-10-14 14:55:06.034153,-2
2021-10-14 14:55:06.034161,39
2021-10-14 14:55:06.034169,73
2021-10-14 14:55:06.034178,73
2021-10-14 14:55:06.034186,83
2021-10-14 14:55:06.034195,120
2021-10-14 14:55:06.034203,149
2021-10-14 14:55:06.034211,161
2021-10-14 14:55:06.034220,186
2021-10-14 14:55:06.034228,238
2021-10-14 14:55:06.034237,274
2021-10-14 14:55:06.259114,289
2021-10-14 14:55:06.259135,311
2021-10-14 14:55:06.259145,333
2021-10-14 14:55:06.259154,336
2021-10-14 14:55:06.259163,333
2021-10-14 14:55:06.259171,316
2021-10-14 14:55:06.259180,277
2021-10-14 14:55:06.259188,228
2021-10-14 14:55:06.259197,149
2021-10-14 14:55:06.259205,61
2021-10-14 14:55:06.259214,-17
2021-10-14 14:55:06.259222,-93
2021-10-14 14:55:06.259231,-157
2021-10-14 14:55:06.259239,-176
2021-10-14 14:55:06.259247,-184
2021-10-14 14:55:06.259256,-201
2021-10-14 14:55:06.259264,-206
2021-10-14 14:55:06.259273,-191
2021-10-14 14:55:06.259281,-181
2021-10-14 14:55:06.259289,-186
2021-10-14 14:55:06.259298,-193
2021-10-14 14:55:06.259306,-176
2021-10-14 14:55:06.259314,-154
2021-10-14 14:55:06.259323,-154
2021-10-14 14:55:06.259331,-152
2021-10-14 14:55:06.259340,-142
2021-10-14 14:55:06.259348,-134
2021-10-14 14:55:06.259356,-125
2021-10-14 14:55:06.259365,-117
2021-10-14 14:55:06.259373,-112
2021-10-14 14:55:06.483764,-107
2021-10-14 14:55:06.483786,-105
2021-10-14 14:55:06.483795,-110
2021-10-14 14:55:06.483804,-110
2021-10-14 14:55:06.483812,-112
2021-10-14 14:55:06.483821,-122
2021-10-14 14:55:06.483829,-122
2021-10-14 14:55:06.483838,-115
2021-10-14 14:55:06.483846,-110
2021-10-14 14:55:06.483855,-110
2021-10-14 14:55:06.483863,-117
2021-10-14 14:55:06.483872,-117
2021-10-14 14:55:06.483880,-115
2021-10-14 14:55:06.483889,-132
2021-10-14 14:55:06.483897,-147
2021-10-14 14:55:06.483906,-112
2021-10-14 14:55:06.483914,-68
2021-10-14 14:55:06.483923,-73
2021-10-14 14:55:06.483931,-88
2021-10-14 14:55:06.483940,-88
2021-10-14 14:55:06.483948,-103
2021-10-14 14:55:06.483957,-112
2021-10-14 14:55:06.483965,-107
2021-10-14 14:55:06.483973,-115
2021-10-14 14:55:06.483982,-112
2021-10-14 14:55:06.483990,-85
2021-10-14 14:55:06.483999,-83
2021-10-14 14:55:06.484007,-98
2021-10-14 14:55:06.484015,-93
2021-10-14 14:55:06.484024,-76
2021-10-14 14:55:06.709147,14
2021-10-14 14:55:06.709169,306
2021-10-14 14:55:06.709178,718
2021-10-14 14:55:06.709187,841
2021-10-14 14:55:06.709196,242
2021-10-14 14:55:06.709204,-571
2021-10-14 14:55:06.709213,-505
2021-10-14 14:55:06.709221,9
2021-10-14 14:55:06.709230,-9
2021-10-14 14:55:06.709238,-142
2021-10-14 14:55:06.709247,-29
2021-10-14 14:55:06.709255,-17
2021-10-14 14:55:06.709263,-63
2021-10-14 14:55:06.709272,-14
2021-10-14 14:55:06.709280,9
2021-10-14 14:55:06.709289,-9
2021-10-14 14:55:06.709297,9
2021-10-14 14:55:06.709306,44
2021-10-14 14:55:06.709314,63
2021-10-14 14:55:06.709326,83
2021-10-14 14:55:06.709335,112
2021-10-14 14:55:06.709343,137
2021-10-14 14:55:06.709352,164
2021-10-14 14:55:06.709360,203
2021-10-14 14:55:06.709369,240
2021-10-14 14:55:06.709377,264
2021-10-14 14:55:06.709386,296
2021-10-14 14:55:06.709394,326
2021-10-14 14:55:06.709406,350
2021-10-14 14:55:06.709415,368
2021-10-14 14:55:06.979201,368
2021-10-14 14:55:06.979223,355
2021-10-14 14:55:06.979232,318
2021-10-14 14:55:06.979241,238
2021-10-14 14:55:06.979250,134
2021-10-14 14:55:06.979258,46
2021-10-14 14:55:06.979267,-34
2021-10-14 14:55:06.979276,-112
2021-10-14 14:55:06.979284,-181
2021-10-14 14:55:06.979293,-228
2021-10-14 14:55:06.979302,-240
2021-10-14 14:55:06.979310,-235
2021-10-14 14:55:06.979319,-228
2021-10-14 14:55:06.979327,-228
2021-10-14 14:55:06.979335,-238
2021-10-14 14:55:06.979344,-230
2021-10-14 14:55:06.979352,-203
2021-10-14 14:55:06.979361,-196
2021-10-14 14:55:06.979369,-196
2021-10-14 14:55:06.979378,-176
2021-10-14 14:55:06.979386,-171
2021-10-14 14:55:06.979395,-179
2021-10-14 14:55:06.979403,-174
2021-10-14 14:55:06.979411,-164
2021-10-14 14:55:06.979420,-147
2021-10-14 14:55:06.979428,-130
2021-10-14 14:55:06.979437,-139
2021-10-14 14:55:06.979445,-159
2021-10-14 14:55:06.979454,-149
2021-10-14 14:55:06.979462,-130
2021-10-14 14:55:07.248020,-130
2021-10-14 14:55:07.248042,-127
2021-10-14 14:55:07.248052,-120
2021-10-14 14:55:07.248061,-122
2021-10-14 14:55:07.248069,-115
2021-10-14 14:55:07.248078,-110
2021-10-14 14:55:07.248086,-107
2021-10-14 14:55:07.248095,-98
2021-10-14 14:55:07.248103,-107
2021-10-14 14:55:07.248112,-134
2021-10-14 14:55:07.248121,-127
2021-10-14 14:55:07.248129,-80
2021-10-14 14:55:07.248137,-39
2021-10-14 14:55:07.248146,-29
2021-10-14 14:55:07.248154,-46
2021-10-14 14:55:07.248163,-71
2021-10-14 14:55:07.248171,-78
2021-10-14 14:55:07.248180,-80
2021-10-14 14:55:07.248188,-80
2021-10-14 14:55:07.248197,-68
2021-10-14 14:55:07.248205,-53
2021-10-14 14:55:07.248213,-61
2021-10-14 14:55:07.248222,-76
2021-10-14 14:55:07.248230,-76
2021-10-14 14:55:07.248239,-63
2021-10-14 14:55:07.248247,-29
2021-10-14 14:55:07.248255,68
2021-10-14 14:55:07.248264,326
2021-10-14 14:55:07.248272,701
2021-10-14 14:55:07.248281,792
2021-10-14 14:55:07.474121,184
2021-10-14 14:55:07.474142,-547
2021-10-14 14:55:07.474152,-404
2021-10-14 14:55:07.474161,63
2021-10-14 14:55:07.474169,17
2021-10-14 14:55:07.474178,-76
2021-10-14 14:55:07.474186,39
2021-10-14 14:55:07.474194,41
2021-10-14 14:55:07.474203,-9
2021-10-14 14:55:07.474211,29
2021-10-14 14:55:07.474220,63
2021-10-14 14:55:07.474228,68
2021-10-14 14:55:07.474236,95
2021-10-14 14:55:07.474245,130
2021-10-14 14:55:07.474253,127
2021-10-14 14:55:07.474262,122
2021-10-14 14:55:07.474270,139
2021-10-14 14:55:07.474278,171
2021-10-14 14:55:07.474287,213
2021-10-14 14:55:07.474295,247
2021-10-14 14:55:07.474304,267
2021-10-14 14:55:07.474312,309
2021-10-14 14:55:07.474320,353
2021-10-14 14:55:07.474329,375
2021-10-14 14:55:07.474337,382
2021-10-14 14:55:07.474346,370
2021-10-14 14:55:07.474354,345
2021-10-14 14:55:07.474362,333
2021-10-14 14:55:07.474371,301
2021-10-14 14:55:07.474379,238
2021-10-14 14:55:07.653871,147
2021-10-14 14:55:07.653893,36
2021-10-14 14:55:07.653903,-56
2021-10-14 14:55:07.653912,-122
2021-10-14 14:55:07.653920,-184
2021-10-14 14:55:07.653929,-220
2021-10-14 14:55:07.653937,-225
2021-10-14 14:55:07.653946,-235
2021-10-14 14:55:07.653954,-242
2021-10-14 14:55:07.653963,-233
2021-10-14 14:55:07.653971,-223
2021-10-14 14:55:07.653980,-223
2021-10-14 14:55:07.653988,-208
2021-10-14 14:55:07.653997,-191
2021-10-14 14:55:07.654005,-186
2021-10-14 14:55:07.654014,-171
2021-10-14 14:55:07.654022,-157
2021-10-14 14:55:07.654031,-149
2021-10-14 14:55:07.654039,-130
2021-10-14 14:55:07.654047,-120
2021-10-14 14:55:07.654056,-130
2021-10-14 14:55:07.654064,-132
2021-10-14 14:55:07.654073,-120
2021-10-14 14:55:07.654081,-103
2021-10-14 14:55:07.654090,-98
2021-10-14 14:55:07.654098,-103
2021-10-14 14:55:07.654107,-100
2021-10-14 14:55:07.654115,-98
2021-10-14 14:55:07.654123,-95
2021-10-14 14:55:07.654132,-83
2021-10-14 14:55:07.879178,-78
2021-10-14 14:55:07.879217,-90
2021-10-14 14:55:07.879232,-93
2021-10-14 14:55:07.879244,-90
2021-10-14 14:55:07.879253,-98
2021-10-14 14:55:07.879261,-95
2021-10-14 14:55:07.879305,-95
2021-10-14 14:55:07.879313,-90
2021-10-14 14:55:07.879320,-49
2021-10-14 14:55:07.879329,-12
2021-10-14 14:55:07.879369,-14
2021-10-14 14:55:07.879377,-19
2021-10-14 14:55:07.879385,-31
2021-10-14 14:55:07.879394,-66
2021-10-14 14:55:07.879435,-76
2021-10-14 14:55:07.879443,-56
2021-10-14 14:55:07.879451,-44
2021-10-14 14:55:07.879459,-46
2021-10-14 14:55:07.879500,-46
2021-10-14 14:55:07.879508,-49
2021-10-14 14:55:07.879516,-49
2021-10-14 14:55:07.879559,-34
2021-10-14 14:55:07.879567,17
2021-10-14 14:55:07.879575,176
2021-10-14 14:55:07.879583,515
2021-10-14 14:55:07.879625,880
2021-10-14 14:55:07.879633,792
2021-10-14 14:55:07.879642,17
2021-10-14 14:55:07.879650,-532
2021-10-14 14:55:07.879691,-179
2021-10-14 14:55:08.104136,132
2021-10-14 14:55:08.104157,-36
2021-10-14 14:55:08.104166,-56
2021-10-14 14:55:08.104175,49
2021-10-14 14:55:08.104183,19
2021-10-14 14:55:08.104192,0
2021-10-14 14:55:08.104200,36
2021-10-14 14:55:08.104209,49
2021-10-14 14:55:08.104217,51
2021-10-14 14:55:08.104225,71
2021-10-14 14:55:08.104234,90
2021-10-14 14:55:08.104242,107
2021-10-14 14:55:08.104251,125
2021-10-14 14:55:08.104259,149
2021-10-14 14:55:08.104267,181
2021-10-14 14:55:08.104276,215
2021-10-14 14:55:08.104284,250
2021-10-14 14:55:08.104292,284
2021-10-14 14:55:08.104301,316
2021-10-14 14:55:08.104309,343
2021-10-14 14:55:08.104317,370
2021-10-14 14:55:08.104326,380
2021-10-14 14:55:08.104334,370
2021-10-14 14:55:08.104342,360
2021-10-14 14:55:08.104350,353
2021-10-14 14:55:08.104359,318
2021-10-14 14:55:08.104367,233
2021-10-14 14:55:08.104376,122
2021-10-14 14:55:08.104384,36
2021-10-14 14:55:08.104393,-36
2021-10-14 14:55:08.328786,-107
2021-10-14 14:55:08.328807,-159
2021-10-14 14:55:08.328814,-186
2021-10-14 14:55:08.328822,-201
2021-10-14 14:55:08.328829,-208
2021-10-14 14:55:08.328836,-215
2021-10-14 14:55:08.328844,-223
2021-10-14 14:55:08.328853,-220
2021-10-14 14:55:08.328862,-208
2021-10-14 14:55:08.328871,-188
2021-10-14 14:55:08.328880,-179
2021-10-14 14:55:08.328889,-184
2021-10-14 14:55:08.328895,-176
2021-10-14 14:55:08.328902,-147
2021-10-14 14:55:08.328909,-137
2021-10-14 14:55:08.328916,-154
2021-10-14 14:55:08.328923,-149
2021-10-14 14:55:08.328929,-120
2021-10-14 14:55:08.328936,-105
2021-10-14 14:55:08.328943,-110
2021-10-14 14:55:08.328949,-110
2021-10-14 14:55:08.328956,-95
2021-10-14 14:55:08.328962,-95
2021-10-14 14:55:08.328969,-115
2021-10-14 14:55:08.328976,-110
2021-10-14 14:55:08.328982,-85
2021-10-14 14:55:08.328989,-85
2021-10-14 14:55:08.328996,-93
2021-10-14 14:55:08.329005,-95
2021-10-14 14:55:08.329013,-95
2021-10-14 14:55:08.554017,-76
2021-10-14 14:55:08.554038,-61
2021-10-14 14:55:08.554047,-73
2021-10-14 14:55:08.554056,-73
2021-10-14 14:55:08.554065,-66
2021-10-14 14:55:08.554073,-73
2021-10-14 14:55:08.554081,-83
2021-10-14 14:55:08.554090,-93
2021-10-14 14:55:08.554098,-100
2021-10-14 14:55:08.554107,-100
2021-10-14 14:55:08.554115,-100
2021-10-14 14:55:08.554123,-95
2021-10-14 14:55:08.554132,-83
2021-10-14 14:55:08.554140,-78
2021-10-14 14:55:08.554149,-78
2021-10-14 14:55:08.554157,-73
2021-10-14 14:55:08.554166,-61
2021-10-14 14:55:08.554174,-29
2021-10-14 14:55:08.554182,12
2021-10-14 14:55:08.554190,24
2021-10-14 14:55:08.554199,2
2021-10-14 14:55:08.554207,-17
2021-10-14 14:55:08.554216,-24
2021-10-14 14:55:08.554227,-41
2021-10-14 14:55:08.554236,-41
2021-10-14 14:55:08.554244,-12
2021-10-14 14:55:08.554253,2
2021-10-14 14:55:08.554261,-14
2021-10-14 14:55:08.554270,-17
2021-10-14 14:55:08.554278,-2
2021-10-14 14:55:08.779190,2
2021-10-14 14:55:08.779211,49
2021-10-14 14:55:08.779221,255
2021-10-14 14:55:08.779230,633
2021-10-14 14:55:08.779239,912
2021-10-14 14:55:08.779247,606
2021-10-14 14:55:08.779256,-213
2021-10-14 14:55:08.779264,-485
2021-10-14 14:55:08.779273,-36
2021-10-14 14:55:08.779281,98
2021-10-14 14:55:08.779290,-78
2021-10-14 14:55:08.779299,-19
2021-10-14 14:55:08.779307,56
2021-10-14 14:55:08.779316,2
2021-10-14 14:55:08.779324,12
2021-10-14 14:55:08.779333,51
2021-10-14 14:55:08.779341,41
2021-10-14 14:55:08.779350,56
2021-10-14 14:55:08.779358,90
2021-10-14 14:55:08.779366,105
2021-10-14 14:55:08.779375,117
2021-10-14 14:55:08.779383,125
2021-10-14 14:55:08.779392,134
2021-10-14 14:55:08.779400,179
2021-10-14 14:55:08.779409,220
2021-10-14 14:55:08.779417,230
2021-10-14 14:55:08.779426,257
2021-10-14 14:55:08.779434,289
2021-10-14 14:55:08.779443,287
2021-10-14 14:55:08.779451,289
2021-10-14 14:55:09.094203,323
2021-10-14 14:55:09.094224,343
2021-10-14 14:55:09.094233,318
2021-10-14 14:55:09.094242,282
2021-10-14 14:55:09.094251,260
2021-10-14 14:55:09.094259,220
2021-10-14 14:55:09.094268,142
2021-10-14 14:55:09.094276,61
2021-10-14 14:55:09.094285,-22
2021-10-14 14:55:09.094293,-112
2021-10-14 14:55:09.094302,-169
2021-10-14 14:55:09.094310,-174
2021-10-14 14:55:09.094319,-191
2021-10-14 14:55:09.094327,-228
2021-10-14 14:55:09.094336,-240
2021-10-14 14:55:09.094344,-230
2021-10-14 14:55:09.094353,-213
2021-10-14 14:55:09.094361,-206
2021-10-14 14:55:09.094369,-198
2021-10-14 14:55:09.094378,-179
2021-10-14 14:55:09.094386,-161
2021-10-14 14:55:09.094394,-166
2021-10-14 14:55:09.094403,-164
2021-10-14 14:55:09.094411,-137
2021-10-14 14:55:09.094420,-120
2021-10-14 14:55:09.094428,-134
2021-10-14 14:55:09.094436,-144
2021-10-14 14:55:09.094445,-122
2021-10-14 14:55:09.094453,-107
2021-10-14 14:55:09.094461,-115
2021-10-14 14:55:09.362838,-115
2021-10-14 14:55:09.362859,-98
2021-10-14 14:55:09.362869,-93
2021-10-14 14:55:09.362878,-112
2021-10-14 14:55:09.362886,-120
2021-10-14 14:55:09.362895,-107
2021-10-14 14:55:09.362904,-98
2021-10-14 14:55:09.362912,-98
2021-10-14 14:55:09.362921,-105
2021-10-14 14:55:09.362929,-112
2021-10-14 14:55:09.362938,-100
2021-10-14 14:55:09.362946,-93
2021-10-14 14:55:09.362955,-95
2021-10-14 14:55:09.362963,-83
2021-10-14 14:55:09.362972,-76
2021-10-14 14:55:09.362980,-90
2021-10-14 14:55:09.362989,-95
2021-10-14 14:55:09.362997,-88
2021-10-14 14:55:09.363006,-78
2021-10-14 14:55:09.363014,-68
2021-10-14 14:55:09.363023,-76
2021-10-14 14:55:09.363031,-83
2021-10-14 14:55:09.363040,-68
2021-10-14 14:55:09.363048,-61
2021-10-14 14:55:09.363056,-68
2021-10-14 14:55:09.363064,-66
2021-10-14 14:55:09.363073,-63
2021-10-14 14:55:09.363081,-63
2021-10-14 14:55:09.363089,-58
2021-10-14 14:55:09.363098,-31
2021-10-14 14:55:09.498756,9
2021-10-14 14:55:09.498776,19
2021-10-14 14:55:09.498786,9
2021-10-14 14:55:09.498794,7
2021-10-14 14:55:09.498803,2
2021-10-14 14:55:09.498812,-17
2021-10-14 14:55:09.498820,-34
2021-10-14 14:55:09.498829,-34
2021-10-14 14:55:09.498837,-31
2021-10-14 14:55:09.498846,-36
2021-10-14 14:55:09.498854,-29
2021-10-14 14:55:09.498862,-12
2021-10-14 14:55:09.498871,-7
2021-10-14 14:55:09.498879,9
2021-10-14 14:55:09.498888,147
2021-10-14 14:55:09.498896,478
2021-10-14 14:55:09.498905,814
2021-10-14 14:55:09.498913,718
2021-10-14 14:55:09.498921,-44
2021-10-14 14:55:09.498930,-642
2021-10-14 14:55:09.498938,-309
2021-10-14 14:55:09.498947,76
2021-10-14 14:55:09.498955,-53
2021-10-14 14:55:09.498964,-90
2021-10-14 14:55:09.498972,19
2021-10-14 14:55:09.498980,-7
2021-10-14 14:55:09.498989,-31
2021-10-14 14:55:09.498997,14
2021-10-14 14:55:09.499006,17
2021-10-14 14:55:09.499014,7
2021-10-14 14:55:09.768183,34
2021-10-14 14:55:09.768205,63
2021-10-14 14:55:09.768214,80
2021-10-14 14:55:09.768223,95
2021-10-14 14:55:09.768231,115
2021-10-14 14:55:09.768240,142
2021-10-14 14:55:09.768249,169
2021-10-14 14:55:09.768257,196
2021-10-14 14:55:09.768266,230
2021-10-14 14:55:09.768274,262
2021-10-14 14:55:09.768293,289
2021-10-14 14:55:09.768322,316
2021-10-14 14:55:09.768332,331
2021-10-14 14:55:09.768338,331
2021-10-14 14:55:09.768344,328
2021-10-14 14:55:09.768350,316
2021-10-14 14:55:09.768356,294
2021-10-14 14:55:09.768362,245
2021-10-14 14:55:09.768368,161
2021-10-14 14:55:09.768374,63
2021-10-14 14:55:09.768380,-17
2021-10-14 14:55:09.768386,-80
2021-10-14 14:55:09.768392,-139
2021-10-14 14:55:09.768398,-176
2021-10-14 14:55:09.768424,-196
2021-10-14 14:55:09.768443,-218
2021-10-14 14:55:09.768452,-228
2021-10-14 14:55:09.768459,-220
2021-10-14 14:55:09.768468,-213
2021-10-14 14:55:09.768476,-208
2021-10-14 14:55:09.949198,-193
2021-10-14 14:55:09.949230,-176
2021-10-14 14:55:09.949239,-174
2021-10-14 14:55:09.949248,-166
2021-10-14 14:55:09.949257,-144
2021-10-14 14:55:09.949265,-130
2021-10-14 14:55:09.949275,-132
2021-10-14 14:55:09.949284,-132
2021-10-14 14:55:09.949292,-125
2021-10-14 14:55:09.949299,-122
2021-10-14 14:55:09.949307,-115
2021-10-14 14:55:09.949314,-110
2021-10-14 14:55:09.949321,-127
2021-10-14 14:55:09.949329,-134
2021-10-14 14:55:09.949336,-117
2021-10-14 14:55:09.949343,-107
2021-10-14 14:55:09.949351,-112
2021-10-14 14:55:09.949358,-112
2021-10-14 14:55:09.949365,-110
2021-10-14 14:55:09.949372,-103
2021-10-14 14:55:09.949378,-105
2021-10-14 14:55:09.949385,-117
2021-10-14 14:55:09.949391,-115
2021-10-14 14:55:09.949398,-107
2021-10-14 14:55:09.949406,-107
2021-10-14 14:55:09.949413,-115
2021-10-14 14:55:09.949420,-112
2021-10-14 14:55:09.949427,-88
2021-10-14 14:55:09.949434,-71
2021-10-14 14:55:09.949441,-83
2021-10-14 14:55:10.174159,-93
2021-10-14 14:55:10.174180,-71
2021-10-14 14:55:10.174190,-61
2021-10-14 14:55:10.174199,-76
2021-10-14 14:55:10.174207,-76
2021-10-14 14:55:10.174216,-46
2021-10-14 14:55:10.174224,-14
2021-10-14 14:55:10.174232,-4
2021-10-14 14:55:10.174241,-4
2021-10-14 14:55:10.174249,-9
2021-10-14 14:55:10.174258,-29
2021-10-14 14:55:10.174266,-66
2021-10-14 14:55:10.174274,-61
2021-10-14 14:55:10.174283,-29
2021-10-14 14:55:10.174291,-29
2021-10-14 14:55:10.174300,-41
2021-10-14 14:55:10.174308,-41
2021-10-14 14:55:10.174316,-41
2021-10-14 14:55:10.174325,-34
2021-10-14 14:55:10.174333,46
2021-10-14 14:55:10.174341,284
2021-10-14 14:55:10.174350,642
2021-10-14 14:55:10.174358,841
2021-10-14 14:55:10.174366,419
2021-10-14 14:55:10.174374,-395
2021-10-14 14:55:10.174383,-512
2021-10-14 14:55:10.174391,-26
2021-10-14 14:55:10.174400,41
2021-10-14 14:55:10.174408,-105
2021-10-14 14:55:10.174416,-14
2021-10-14 14:55:10.398782,24
2021-10-14 14:55:10.398803,-24
2021-10-14 14:55:10.398813,17
2021-10-14 14:55:10.398822,58
2021-10-14 14:55:10.398830,41
2021-10-14 14:55:10.398839,44
2021-10-14 14:55:10.398847,68
2021-10-14 14:55:10.398856,85
2021-10-14 14:55:10.398864,112
2021-10-14 14:55:10.398872,142
2021-10-14 14:55:10.398881,154
2021-10-14 14:55:10.398889,176
2021-10-14 14:55:10.398898,211
2021-10-14 14:55:10.398906,247
2021-10-14 14:55:10.398915,279
2021-10-14 14:55:10.398923,314
2021-10-14 14:55:10.398932,345
2021-10-14 14:55:10.398940,365
2021-10-14 14:55:10.398949,365
2021-10-14 14:55:10.398957,375
2021-10-14 14:55:10.398966,377
2021-10-14 14:55:10.398974,338
2021-10-14 14:55:10.398983,296
2021-10-14 14:55:10.398991,242
2021-10-14 14:55:10.398999,144
2021-10-14 14:55:10.399008,39
2021-10-14 14:55:10.399016,-44
2021-10-14 14:55:10.399025,-112
2021-10-14 14:55:10.399033,-164
2021-10-14 14:55:10.399041,-196
2021-10-14 14:55:10.624167,-203
2021-10-14 14:55:10.624188,-198
2021-10-14 14:55:10.624198,-201
2021-10-14 14:55:10.624206,-208
2021-10-14 14:55:10.624215,-211
2021-10-14 14:55:10.624223,-196
2021-10-14 14:55:10.624232,-171
2021-10-14 14:55:10.624240,-157
2021-10-14 14:55:10.624248,-161
2021-10-14 14:55:10.624257,-161
2021-10-14 14:55:10.624265,-139
2021-10-14 14:55:10.624274,-125
2021-10-14 14:55:10.624282,-122
2021-10-14 14:55:10.624290,-112
2021-10-14 14:55:10.624299,-98
2021-10-14 14:55:10.624307,-93
2021-10-14 14:55:10.624315,-98
2021-10-14 14:55:10.624327,-90
2021-10-14 14:55:10.624335,-83
2021-10-14 14:55:10.624344,-83
2021-10-14 14:55:10.624352,-80
2021-10-14 14:55:10.624361,-80
2021-10-14 14:55:10.624369,-80
2021-10-14 14:55:10.624378,-73
2021-10-14 14:55:10.624386,-73
2021-10-14 14:55:10.624394,-71
2021-10-14 14:55:10.624403,-58
2021-10-14 14:55:10.624411,-56
2021-10-14 14:55:10.624420,-66
2021-10-14 14:55:10.624428,-66
2021-10-14 14:55:10.893819,-63
2021-10-14 14:55:10.893841,-53
2021-10-14 14:55:10.893851,-51
2021-10-14 14:55:10.893859,-63
2021-10-14 14:55:10.893868,-73
2021-10-14 14:55:10.893876,-56
2021-10-14 14:55:10.893885,-44
2021-10-14 14:55:10.893893,-56
2021-10-14 14:55:10.893902,-66
2021-10-14 14:55:10.893910,-49
2021-10-14 14:55:10.893918,-4
2021-10-14 14:55:10.893927,17
2021-10-14 14:55:10.893935,2
2021-10-14 14:55:10.893944,-9
2021-10-14 14:55:10.893952,-12
2021-10-14 14:55:10.893960,-29
2021-10-14 14:55:10.893969,-41
2021-10-14 14:55:10.893977,-36
2021-10-14 14:55:10.893985,-41
2021-10-14 14:55:10.893994,-56
2021-10-14 14:55:10.894002,-53
2021-10-14 14:55:10.894010,-46
2021-10-14 14:55:10.894019,-51
2021-10-14 14:55:10.894028,-39
2021-10-14 14:55:10.894036,83
2021-10-14 14:55:10.894044,377
2021-10-14 14:55:10.894053,753
2021-10-14 14:55:10.894061,848
2021-10-14 14:55:10.894070,267
2021-10-14 14:55:10.894078,-480
2021-10-14 14:55:11.119176,-387
2021-10-14 14:55:11.119198,53
2021-10-14 14:55:11.119207,2
2021-10-14 14:55:11.119215,-103
2021-10-14 14:55:11.119223,4
2021-10-14 14:55:11.119231,7
2021-10-14 14:55:11.119239,-39
2021-10-14 14:55:11.119246,7
2021-10-14 14:55:11.119254,36
2021-10-14 14:55:11.119262,19
2021-10-14 14:55:11.119270,39
2021-10-14 14:55:11.119278,78
2021-10-14 14:55:11.119286,88
2021-10-14 14:55:11.119293,93
2021-10-14 14:55:11.119300,115
2021-10-14 14:55:11.119308,134
2021-10-14 14:55:11.119315,161
2021-10-14 14:55:11.119323,203
2021-10-14 14:55:11.119331,242
2021-10-14 14:55:11.119339,277
2021-10-14 14:55:11.119346,304
2021-10-14 14:55:11.119353,328
2021-10-14 14:55:11.119361,343
2021-10-14 14:55:11.119369,348
2021-10-14 14:55:11.119376,348
2021-10-14 14:55:11.119384,348
2021-10-14 14:55:11.119392,328
2021-10-14 14:55:11.119399,269
2021-10-14 14:55:11.119407,186
2021-10-14 14:55:11.119414,115
2021-10-14 14:55:11.387853,51
2021-10-14 14:55:11.387873,-22
2021-10-14 14:55:11.387883,-98
2021-10-14 14:55:11.387892,-142
2021-10-14 14:55:11.387900,-161
2021-10-14 14:55:11.387909,-174
2021-10-14 14:55:11.387917,-171
2021-10-14 14:55:11.387925,-171
2021-10-14 14:55:11.387934,-191
2021-10-14 14:55:11.387942,-184
2021-10-14 14:55:11.387951,-161
2021-10-14 14:55:11.387959,-159
2021-10-14 14:55:11.387967,-142
2021-10-14 14:55:11.387976,-125
2021-10-14 14:55:11.387984,-137
2021-10-14 14:55:11.387993,-137
2021-10-14 14:55:11.388001,-120
2021-10-14 14:55:11.388009,-112
2021-10-14 14:55:11.388018,-115
2021-10-14 14:55:11.388026,-115
2021-10-14 14:55:11.388035,-112
2021-10-14 14:55:11.388043,-110
2021-10-14 14:55:11.388051,-95
2021-10-14 14:55:11.388060,-90
2021-10-14 14:55:11.388068,-98
2021-10-14 14:55:11.388076,-98
2021-10-14 14:55:11.388085,-93
2021-10-14 14:55:11.388093,-93
2021-10-14 14:55:11.388101,-93
2021-10-14 14:55:11.388110,-90
2021-10-14 14:55:11.613832,-90
2021-10-14 14:55:11.613859,-90
2021-10-14 14:55:11.613868,-83
2021-10-14 14:55:11.613876,-80
2021-10-14 14:55:11.613884,-85
2021-10-14 14:55:11.613891,-85
2021-10-14 14:55:11.613899,-90
2021-10-14 14:55:11.613906,-90
2021-10-14 14:55:11.613914,-88
2021-10-14 14:55:11.613922,-105
2021-10-14 14:55:11.613930,-125
2021-10-14 14:55:11.613937,-105
2021-10-14 14:55:11.613945,-61
2021-10-14 14:55:11.613953,-56
2021-10-14 14:55:11.613960,-71
2021-10-14 14:55:11.613968,-76
2021-10-14 14:55:11.613975,-73
2021-10-14 14:55:11.613983,-85
2021-10-14 14:55:11.613991,-115
2021-10-14 14:55:11.613999,-125
2021-10-14 14:55:11.614006,-103
2021-10-14 14:55:11.614014,-90
2021-10-14 14:55:11.614021,-90
2021-10-14 14:55:11.614029,-85
2021-10-14 14:55:11.614036,-85
2021-10-14 14:55:11.614044,-80
2021-10-14 14:55:11.614052,-24
2021-10-14 14:55:11.614060,186
2021-10-14 14:55:11.614067,554
2021-10-14 14:55:11.614075,824
2021-10-14 14:55:11.794164,544
2021-10-14 14:55:11.794185,-272
2021-10-14 14:55:11.794194,-603
2021-10-14 14:55:11.794203,-132
2021-10-14 14:55:11.794212,83
2021-10-14 14:55:11.794220,-107
2021-10-14 14:55:11.794229,-83
2021-10-14 14:55:11.794237,24
2021-10-14 14:55:11.794246,-2
2021-10-14 14:55:11.794254,-14
2021-10-14 14:55:11.794267,29
2021-10-14 14:55:11.794276,44
2021-10-14 14:55:11.794284,39
2021-10-14 14:55:11.794293,63
2021-10-14 14:55:11.794431,93
2021-10-14 14:55:11.794444,100
2021-10-14 14:55:11.794452,117
2021-10-14 14:55:11.794460,157
2021-10-14 14:55:11.794469,176
2021-10-14 14:55:11.794477,188
2021-10-14 14:55:11.794486,220
2021-10-14 14:55:11.794493,260
2021-10-14 14:55:11.794501,294
2021-10-14 14:55:11.794509,331
2021-10-14 14:55:11.794517,350
2021-10-14 14:55:11.794526,355
2021-10-14 14:55:11.794534,360
2021-10-14 14:55:11.794542,353
2021-10-14 14:55:11.794550,323
2021-10-14 14:55:11.794559,279
2021-10-14 14:55:12.019185,218
2021-10-14 14:55:12.019207,125
2021-10-14 14:55:12.019216,24
2021-10-14 14:55:12.019225,-58
2021-10-14 14:55:12.019234,-132
2021-10-14 14:55:12.019242,-186
2021-10-14 14:55:12.019250,-208
2021-10-14 14:55:12.019259,-225
2021-10-14 14:55:12.019268,-245
2021-10-14 14:55:12.019276,-250
2021-10-14 14:55:12.019285,-250
2021-10-14 14:55:12.019293,-250
2021-10-14 14:55:12.019302,-235
2021-10-14 14:55:12.019310,-218
2021-10-14 14:55:12.019319,-211
2021-10-14 14:55:12.019327,-208
2021-10-14 14:55:12.019336,-203
2021-10-14 14:55:12.019344,-203
2021-10-14 14:55:12.019353,-196
2021-10-14 14:55:12.019361,-174
2021-10-14 14:55:12.019370,-164
2021-10-14 14:55:12.019378,-166
2021-10-14 14:55:12.019386,-161
2021-10-14 14:55:12.019395,-152
2021-10-14 14:55:12.019403,-144
2021-10-14 14:55:12.019411,-142
2021-10-14 14:55:12.019419,-144
2021-10-14 14:55:12.019428,-139
2021-10-14 14:55:12.019436,-132
2021-10-14 14:55:12.019444,-137
2021-10-14 14:55:12.243826,-144
2021-10-14 14:55:12.243846,-139
2021-10-14 14:55:12.243856,-132
2021-10-14 14:55:12.243864,-130
2021-10-14 14:55:12.243873,-127
2021-10-14 14:55:12.243882,-127
2021-10-14 14:55:12.243890,-120
2021-10-14 14:55:12.243898,-110
2021-10-14 14:55:12.243907,-103
2021-10-14 14:55:12.243915,-83
2021-10-14 14:55:12.243924,-71
2021-10-14 14:55:12.243932,-76
2021-10-14 14:55:12.243941,-63
2021-10-14 14:55:12.243949,-66
2021-10-14 14:55:12.243957,-103
2021-10-14 14:55:12.243966,-103
2021-10-14 14:55:12.243974,-78
2021-10-14 14:55:12.243982,-98
2021-10-14 14:55:12.243991,-115
2021-10-14 14:55:12.243999,-88
2021-10-14 14:55:12.244007,-78
2021-10-14 14:55:12.244016,-85
2021-10-14 14:55:12.244024,-83
2021-10-14 14:55:12.244033,-51
2021-10-14 14:55:12.244041,95
2021-10-14 14:55:12.244050,424
2021-10-14 14:55:12.244058,743
2021-10-14 14:55:12.244066,606
2021-10-14 14:55:12.244075,-169
2021-10-14 14:55:12.244083,-696
2021-10-14 14:55:12.468838,-296
2021-10-14 14:55:12.468858,73
2021-10-14 14:55:12.468868,-73
2021-10-14 14:55:12.468877,-90
2021-10-14 14:55:12.468886,17
2021-10-14 14:55:12.468894,-19
2021-10-14 14:55:12.468903,-24
2021-10-14 14:55:12.468911,41
2021-10-14 14:55:12.468920,51
2021-10-14 14:55:12.468928,36
2021-10-14 14:55:12.468937,53
2021-10-14 14:55:12.468945,71
2021-10-14 14:55:12.468954,90
2021-10-14 14:55:12.468962,125
2021-10-14 14:55:12.468970,159
2021-10-14 14:55:12.468979,179
2021-10-14 14:55:12.468987,201
2021-10-14 14:55:12.468996,238
2021-10-14 14:55:12.469004,284
2021-10-14 14:55:12.469013,321
2021-10-14 14:55:12.469021,348
2021-10-14 14:55:12.469029,370
2021-10-14 14:55:12.469038,372
2021-10-14 14:55:12.469046,375
2021-10-14 14:55:12.469054,385
2021-10-14 14:55:12.469063,372
2021-10-14 14:55:12.469071,328
2021-10-14 14:55:12.469079,250
2021-10-14 14:55:12.469088,152
2021-10-14 14:55:12.469096,63
2021-10-14 14:55:12.738783,-17
2021-10-14 14:55:12.738803,-90
2021-10-14 14:55:12.738812,-147
2021-10-14 14:55:12.738821,-188
2021-10-14 14:55:12.738830,-203
2021-10-14 14:55:12.738838,-193
2021-10-14 14:55:12.738847,-188
2021-10-14 14:55:12.738856,-193
2021-10-14 14:55:12.738864,-193
2021-10-14 14:55:12.738873,-193
2021-10-14 14:55:12.738881,-181
2021-10-14 14:55:12.738889,-159
2021-10-14 14:55:12.738898,-149
2021-10-14 14:55:12.738906,-139
2021-10-14 14:55:12.738915,-132
2021-10-14 14:55:12.738923,-139
2021-10-14 14:55:12.738932,-132
2021-10-14 14:55:12.738940,-103
2021-10-14 14:55:12.738948,-103
2021-10-14 14:55:12.738957,-110
2021-10-14 14:55:12.738965,-98
2021-10-14 14:55:12.738974,-80
2021-10-14 14:55:12.738982,-88
2021-10-14 14:55:12.738990,-98
2021-10-14 14:55:12.738998,-80
2021-10-14 14:55:12.739007,-63
2021-10-14 14:55:12.739015,-76
2021-10-14 14:55:12.739024,-88
2021-10-14 14:55:12.739032,-85
2021-10-14 14:55:12.739040,-88
2021-10-14 14:55:13.008559,-88
2021-10-14 14:55:13.008580,-56
2021-10-14 14:55:13.008589,-14
2021-10-14 14:55:13.008598,-4
2021-10-14 14:55:13.008606,-9
2021-10-14 14:55:13.008615,-9
2021-10-14 14:55:13.008624,-17
2021-10-14 14:55:13.008632,-31
2021-10-14 14:55:13.008641,-49
2021-10-14 14:55:13.008649,-58
2021-10-14 14:55:13.008658,-53
2021-10-14 14:55:13.008667,-41
2021-10-14 14:55:13.008675,-31
2021-10-14 14:55:13.008684,-29
2021-10-14 14:55:13.008696,-36
2021-10-14 14:55:13.008704,-49
2021-10-14 14:55:13.008713,-29
2021-10-14 14:55:13.008721,71
2021-10-14 14:55:13.008730,345
2021-10-14 14:55:13.008738,736
2021-10-14 14:55:13.008747,844
2021-10-14 14:55:13.008755,242
2021-10-14 14:55:13.008764,-490
2021-10-14 14:55:13.008772,-360
2021-10-14 14:55:13.008781,88
2021-10-14 14:55:13.008789,34
2021-10-14 14:55:13.008798,-68
2021-10-14 14:55:13.008806,19
2021-10-14 14:55:13.008815,26
2021-10-14 14:55:13.008823,-2
2021-10-14 14:55:13.189153,34
2021-10-14 14:55:13.189173,56
2021-10-14 14:55:13.189183,56
2021-10-14 14:55:13.189191,68
2021-10-14 14:55:13.189200,80
2021-10-14 14:55:13.189208,100
2021-10-14 14:55:13.189217,125
2021-10-14 14:55:13.189225,130
2021-10-14 14:55:13.189234,139
2021-10-14 14:55:13.189242,186
2021-10-14 14:55:13.189250,225
2021-10-14 14:55:13.189259,242
2021-10-14 14:55:13.189267,282
2021-10-14 14:55:13.189275,316
2021-10-14 14:55:13.189284,326
2021-10-14 14:55:13.189292,333
2021-10-14 14:55:13.189301,341
2021-10-14 14:55:13.189309,331
2021-10-14 14:55:13.189318,309
2021-10-14 14:55:13.189326,284
2021-10-14 14:55:13.189334,225
2021-10-14 14:55:13.189343,127
2021-10-14 14:55:13.189351,39
2021-10-14 14:55:13.189359,-26
2021-10-14 14:55:13.189368,-95
2021-10-14 14:55:13.189376,-157
2021-10-14 14:55:13.189385,-184
2021-10-14 14:55:13.189393,-191
2021-10-14 14:55:13.189401,-198
2021-10-14 14:55:13.189410,-203
2021-10-14 14:55:13.457428,-186
2021-10-14 14:55:13.457446,-169
2021-10-14 14:55:13.457456,-171
2021-10-14 14:55:13.457465,-169
2021-10-14 14:55:13.457473,-149
2021-10-14 14:55:13.457482,-132
2021-10-14 14:55:13.457490,-130
2021-10-14 14:55:13.457499,-125
2021-10-14 14:55:13.457507,-117
2021-10-14 14:55:13.457516,-117
2021-10-14 14:55:13.457524,-112
2021-10-14 14:55:13.457533,-90
2021-10-14 14:55:13.457542,-76
2021-10-14 14:55:13.457550,-95
2021-10-14 14:55:13.457559,-112
2021-10-14 14:55:13.457567,-103
2021-10-14 14:55:13.457576,-95
2021-10-14 14:55:13.457584,-90
2021-10-14 14:55:13.457593,-80
2021-10-14 14:55:13.457601,-76
2021-10-14 14:55:13.457609,-85
2021-10-14 14:55:13.457618,-95
2021-10-14 14:55:13.457626,-78
2021-10-14 14:55:13.457634,-58
2021-10-14 14:55:13.457643,-68
2021-10-14 14:55:13.457651,-83
2021-10-14 14:55:13.457660,-68
2021-10-14 14:55:13.457668,-39
2021-10-14 14:55:13.457677,-22
2021-10-14 14:55:13.457685,-12
2021-10-14 14:55:13.638939,4
2021-10-14 14:55:13.638960,-2
2021-10-14 14:55:13.638969,-51
2021-10-14 14:55:13.638978,-78
2021-10-14 14:55:13.638986,-61
2021-10-14 14:55:13.638994,-56
2021-10-14 14:55:13.639003,-71
2021-10-14 14:55:13.639011,-58
2021-10-14 14:55:13.639020,-49
2021-10-14 14:55:13.639028,-58
2021-10-14 14:55:13.639036,-61
2021-10-14 14:55:13.639045,-51
2021-10-14 14:55:13.639053,31
2021-10-14 14:55:13.639062,309
2021-10-14 14:55:13.639070,723
2021-10-14 14:55:13.639079,898
2021-10-14 14:55:13.639087,387
2021-10-14 14:55:13.639095,-382
2021-10-14 14:55:13.639104,-382
2021-10-14 14:55:13.639112,46
2021-10-14 14:55:13.639121,26
2021-10-14 14:55:13.639129,-98
2021-10-14 14:55:13.639137,-7
2021-10-14 14:55:13.639146,17
2021-10-14 14:55:13.639154,-24
2021-10-14 14:55:13.639163,7
2021-10-14 14:55:13.639171,39
2021-10-14 14:55:13.639180,36
2021-10-14 14:55:13.639188,49
2021-10-14 14:55:13.639196,76
2021-10-14 14:55:13.864231,95
2021-10-14 14:55:13.864252,112
2021-10-14 14:55:13.864261,139
2021-10-14 14:55:13.864270,174
2021-10-14 14:55:13.864278,191
2021-10-14 14:55:13.864287,201
2021-10-14 14:55:13.864295,220
2021-10-14 14:55:13.864303,255
2021-10-14 14:55:13.864312,289
2021-10-14 14:55:13.864320,314
2021-10-14 14:55:13.864328,321
2021-10-14 14:55:13.864337,309
2021-10-14 14:55:13.864345,304
2021-10-14 14:55:13.864354,299
2021-10-14 14:55:13.864362,267
2021-10-14 14:55:13.864370,208
2021-10-14 14:55:13.864379,137
2021-10-14 14:55:13.864387,53
2021-10-14 14:55:13.864396,-31
2021-10-14 14:55:13.864404,-98
2021-10-14 14:55:13.864412,-159
2021-10-14 14:55:13.864421,-211
2021-10-14 14:55:13.864429,-218
2021-10-14 14:55:13.864437,-203
2021-10-14 14:55:13.864445,-218
2021-10-14 14:55:13.864454,-230
2021-10-14 14:55:13.864462,-211
2021-10-14 14:55:13.864470,-196
2021-10-14 14:55:13.864479,-191
2021-10-14 14:55:13.864487,-176
2021-10-14 14:55:14.088770,-164
2021-10-14 14:55:14.088792,-166
2021-10-14 14:55:14.088802,-176
2021-10-14 14:55:14.088811,-169
2021-10-14 14:55:14.088819,-142
2021-10-14 14:55:14.088828,-127
2021-10-14 14:55:14.088837,-130
2021-10-14 14:55:14.088846,-139
2021-10-14 14:55:14.088854,-161
2021-10-14 14:55:14.088863,-174
2021-10-14 14:55:14.088871,-171
2021-10-14 14:55:14.088880,-171
2021-10-14 14:55:14.088888,-176
2021-10-14 14:55:14.088897,-166
2021-10-14 14:55:14.088905,-147
2021-10-14 14:55:14.088914,-147
2021-10-14 14:55:14.088922,-154
2021-10-14 14:55:14.088930,-139
2021-10-14 14:55:14.088939,-127
2021-10-14 14:55:14.088947,-139
2021-10-14 14:55:14.088955,-139
2021-10-14 14:55:14.088964,-125
2021-10-14 14:55:14.088972,-103
2021-10-14 14:55:14.088981,-80
2021-10-14 14:55:14.088989,-53
2021-10-14 14:55:14.088997,-51
2021-10-14 14:55:14.089005,-71
2021-10-14 14:55:14.089014,-83
2021-10-14 14:55:14.089022,-93
2021-10-14 14:55:14.089031,-103
2021-10-14 14:55:14.314218,-98
2021-10-14 14:55:14.314239,-78
2021-10-14 14:55:14.314248,-76
2021-10-14 14:55:14.314257,-90
2021-10-14 14:55:14.314266,-100
2021-10-14 14:55:14.314274,-93
2021-10-14 14:55:14.314283,-73
2021-10-14 14:55:14.314291,-9
2021-10-14 14:55:14.314299,176
2021-10-14 14:55:14.314308,512
2021-10-14 14:55:14.314316,809
2021-10-14 14:55:14.314325,606
2021-10-14 14:55:14.314333,-196
2021-10-14 14:55:14.314342,-606
2021-10-14 14:55:14.314350,-159
2021-10-14 14:55:14.314359,100
2021-10-14 14:55:14.314367,-78
2021-10-14 14:55:14.314376,-61
2021-10-14 14:55:14.314384,46
2021-10-14 14:55:14.314392,19
2021-10-14 14:55:14.314401,14
2021-10-14 14:55:14.314410,46
2021-10-14 14:55:14.314418,53
2021-10-14 14:55:14.314427,68
2021-10-14 14:55:14.314435,93
2021-10-14 14:55:14.314443,112
2021-10-14 14:55:14.314452,137
2021-10-14 14:55:14.314460,159
2021-10-14 14:55:14.314469,179
2021-10-14 14:55:14.314477,211
2021-10-14 14:55:14.583846,245
2021-10-14 14:55:14.583868,267
2021-10-14 14:55:14.583878,284
2021-10-14 14:55:14.583886,309
2021-10-14 14:55:14.583895,343
2021-10-14 14:55:14.583903,365
2021-10-14 14:55:14.583911,375
2021-10-14 14:55:14.583920,390
2021-10-14 14:55:14.583928,380
2021-10-14 14:55:14.583937,326
2021-10-14 14:55:14.583945,264
2021-10-14 14:55:14.583954,203
2021-10-14 14:55:14.583962,120
2021-10-14 14:55:14.583971,14
2021-10-14 14:55:14.583979,-88
2021-10-14 14:55:14.583987,-176
2021-10-14 14:55:14.583995,-218
2021-10-14 14:55:14.584004,-225
2021-10-14 14:55:14.584012,-235
2021-10-14 14:55:14.584020,-247
2021-10-14 14:55:14.584029,-250
2021-10-14 14:55:14.584037,-247
2021-10-14 14:55:14.584045,-235
2021-10-14 14:55:14.584053,-220
2021-10-14 14:55:14.584062,-218
2021-10-14 14:55:14.584070,-201
2021-10-14 14:55:14.584078,-171
2021-10-14 14:55:14.584086,-159
2021-10-14 14:55:14.584095,-166
2021-10-14 14:55:14.584103,-164
2021-10-14 14:55:14.809256,-154
2021-10-14 14:55:14.809277,-144
2021-10-14 14:55:14.809287,-139
2021-10-14 14:55:14.809296,-142
2021-10-14 14:55:14.809304,-149
2021-10-14 14:55:14.809312,-139
2021-10-14 14:55:14.809321,-117
2021-10-14 14:55:14.809329,-107
2021-10-14 14:55:14.809338,-117
2021-10-14 14:55:14.809346,-134
2021-10-14 14:55:14.809354,-134
2021-10-14 14:55:14.809363,-122
2021-10-14 14:55:14.809371,-112
2021-10-14 14:55:14.809380,-105
2021-10-14 14:55:14.809388,-117
2021-10-14 14:55:14.809396,-139
2021-10-14 14:55:14.809405,-120
2021-10-14 14:55:14.809413,-73
2021-10-14 14:55:14.809421,-44
2021-10-14 14:55:14.809430,-39
2021-10-14 14:55:14.809438,-44
2021-10-14 14:55:14.809446,-49
2021-10-14 14:55:14.809455,-56
2021-10-14 14:55:14.809463,-63
2021-10-14 14:55:14.809472,-61
2021-10-14 14:55:14.809480,-58
2021-10-14 14:55:14.809488,-66
2021-10-14 14:55:14.809496,-63
2021-10-14 14:55:14.809505,-44
2021-10-14 14:55:14.809513,-31
2021-10-14 14:55:15.034231,-36
2021-10-14 14:55:15.034258,-41
2021-10-14 14:55:15.034268,-2
2021-10-14 14:55:15.034276,184
2021-10-14 14:55:15.034285,569
2021-10-14 14:55:15.034293,883
2021-10-14 14:55:15.034302,620
2021-10-14 14:55:15.034310,-188
2021-10-14 14:55:15.034319,-510
2021-10-14 14:55:15.034328,-76
2021-10-14 14:55:15.034336,93
2021-10-14 14:55:15.034345,-66
2021-10-14 14:55:15.034353,-9
2021-10-14 14:55:15.034361,53
2021-10-14 14:55:15.034370,-7
2021-10-14 14:55:15.034378,2
2021-10-14 14:55:15.034387,51
2021-10-14 14:55:15.034395,56
2021-10-14 14:55:15.034404,61
2021-10-14 14:55:15.034412,71
2021-10-14 14:55:15.034420,80
2021-10-14 14:55:15.034429,105
2021-10-14 14:55:15.034437,134
2021-10-14 14:55:15.034446,159
2021-10-14 14:55:15.034454,193
2021-10-14 14:55:15.034463,233
2021-10-14 14:55:15.034471,255
2021-10-14 14:55:15.034480,279
2021-10-14 14:55:15.034488,311
2021-10-14 14:55:15.034497,341
2021-10-14 14:55:15.304374,363
2021-10-14 14:55:15.304395,365
2021-10-14 14:55:15.304404,360
2021-10-14 14:55:15.304413,363
2021-10-14 14:55:15.304422,331
2021-10-14 14:55:15.304430,269
2021-10-14 14:55:15.304439,203
2021-10-14 14:55:15.304447,112
2021-10-14 14:55:15.304455,7
2021-10-14 14:55:15.304464,-63
2021-10-14 14:55:15.304472,-117
2021-10-14 14:55:15.304481,-157
2021-10-14 14:55:15.304489,-184
2021-10-14 14:55:15.304497,-208
2021-10-14 14:55:15.304506,-211
2021-10-14 14:55:15.304514,-188
2021-10-14 14:55:15.304523,-184
2021-10-14 14:55:15.304531,-188
2021-10-14 14:55:15.304539,-188
2021-10-14 14:55:15.304548,-181
2021-10-14 14:55:15.304556,-169
2021-10-14 14:55:15.304564,-166
2021-10-14 14:55:15.304572,-169
2021-10-14 14:55:15.304581,-154
2021-10-14 14:55:15.304589,-127
2021-10-14 14:55:15.304598,-125
2021-10-14 14:55:15.304606,-134
2021-10-14 14:55:15.304614,-122
2021-10-14 14:55:15.304623,-107
2021-10-14 14:55:15.304631,-125
2021-10-14 14:55:15.527902,-127
2021-10-14 14:55:15.527923,-105
2021-10-14 14:55:15.527933,-110
2021-10-14 14:55:15.527941,-120
2021-10-14 14:55:15.527950,-98
2021-10-14 14:55:15.527959,-85
2021-10-14 14:55:15.527967,-105
2021-10-14 14:55:15.527976,-115
2021-10-14 14:55:15.527984,-107
2021-10-14 14:55:15.527993,-100
2021-10-14 14:55:15.528001,-90
2021-10-14 14:55:15.528010,-80
2021-10-14 14:55:15.528018,-90
2021-10-14 14:55:15.528027,-110
2021-10-14 14:55:15.528035,-95
2021-10-14 14:55:15.528044,-71
2021-10-14 14:55:15.528052,-85
2021-10-14 14:55:15.528060,-98
2021-10-14 14:55:15.528069,-73
2021-10-14 14:55:15.528080,-39
2021-10-14 14:55:15.528089,-14
2021-10-14 14:55:15.528097,-9
2021-10-14 14:55:15.528106,-22
2021-10-14 14:55:15.528114,-26
2021-10-14 14:55:15.528122,-36
2021-10-14 14:55:15.528131,-66
2021-10-14 14:55:15.528139,-73
2021-10-14 14:55:15.528147,-56
2021-10-14 14:55:15.528156,-46
2021-10-14 14:55:15.528164,-51
2021-10-14 14:55:15.754007,-53
2021-10-14 14:55:15.754038,-41
2021-10-14 14:55:15.754047,-39
2021-10-14 14:55:15.754056,9
2021-10-14 14:55:15.754064,230
2021-10-14 14:55:15.754073,615
2021-10-14 14:55:15.754081,895
2021-10-14 14:55:15.754089,620
2021-10-14 14:55:15.754098,-181
2021-10-14 14:55:15.754106,-485
2021-10-14 14:55:15.754115,-51
2021-10-14 14:55:15.754123,88
2021-10-14 14:55:15.754131,-100
2021-10-14 14:55:15.754140,-51
2021-10-14 14:55:15.754148,22
2021-10-14 14:55:15.754156,-26
2021-10-14 14:55:15.754164,2
2021-10-14 14:55:15.754173,56
2021-10-14 14:55:15.754181,39
2021-10-14 14:55:15.754189,44
2021-10-14 14:55:15.754198,83
2021-10-14 14:55:15.754206,100
2021-10-14 14:55:15.754214,115
2021-10-14 14:55:15.754223,142
2021-10-14 14:55:15.754231,159
2021-10-14 14:55:15.754239,186
2021-10-14 14:55:15.754247,215
2021-10-14 14:55:15.754256,235
2021-10-14 14:55:15.754264,257
2021-10-14 14:55:15.754272,289
2021-10-14 14:55:15.934213,326
2021-10-14 14:55:15.934239,363
2021-10-14 14:55:15.934249,365
2021-10-14 14:55:15.934258,343
2021-10-14 14:55:15.934266,338
2021-10-14 14:55:15.934275,326
2021-10-14 14:55:15.934283,277
2021-10-14 14:55:15.934292,206
2021-10-14 14:55:15.934300,125
2021-10-14 14:55:15.934309,41
2021-10-14 14:55:15.934317,-34
2021-10-14 14:55:15.934325,-95
2021-10-14 14:55:15.934334,-139
2021-10-14 14:55:15.934342,-164
2021-10-14 14:55:15.934350,-169
2021-10-14 14:55:15.934359,-181
2021-10-14 14:55:15.934367,-196
2021-10-14 14:55:15.934375,-203
2021-10-14 14:55:15.934384,-198
2021-10-14 14:55:15.934392,-188
2021-10-14 14:55:15.934400,-184
2021-10-14 14:55:15.934409,-179
2021-10-14 14:55:15.934417,-161
2021-10-14 14:55:15.934425,-152
2021-10-14 14:55:15.934433,-149
2021-10-14 14:55:15.934442,-139
2021-10-14 14:55:15.934450,-127
2021-10-14 14:55:15.934458,-127
2021-10-14 14:55:15.934467,-132
2021-10-14 14:55:15.934475,-130
2021-10-14 14:55:16.158883,-130
2021-10-14 14:55:16.158904,-147
2021-10-14 14:55:16.158914,-152
2021-10-14 14:55:16.158922,-142
2021-10-14 14:55:16.158931,-137
2021-10-14 14:55:16.158940,-137
2021-10-14 14:55:16.158948,-139
2021-10-14 14:55:16.158957,-130
2021-10-14 14:55:16.158965,-115
2021-10-14 14:55:16.158973,-127
2021-10-14 14:55:16.158982,-144
2021-10-14 14:55:16.158990,-139
2021-10-14 14:55:16.158999,-127
2021-10-14 14:55:16.159007,-127
2021-10-14 14:55:16.159016,-132
2021-10-14 14:55:16.159024,-127
2021-10-14 14:55:16.159033,-117
2021-10-14 14:55:16.159041,-122
2021-10-14 14:55:16.159050,-112
2021-10-14 14:55:16.159058,-83
2021-10-14 14:55:16.159067,-85
2021-10-14 14:55:16.159075,-103
2021-10-14 14:55:16.159084,-98
2021-10-14 14:55:16.159092,-83
2021-10-14 14:55:16.159101,-80
2021-10-14 14:55:16.159109,-56
2021-10-14 14:55:16.159118,-14
2021-10-14 14:55:16.159126,-9
2021-10-14 14:55:16.159135,-24
2021-10-14 14:55:16.159143,-29
2021-10-14 14:55:16.473646,-29
2021-10-14 14:55:16.473665,-34
2021-10-14 14:55:16.473674,-36
2021-10-14 14:55:16.473683,-49
2021-10-14 14:55:16.473691,-58
2021-10-14 14:55:16.473700,-41
2021-10-14 14:55:16.473708,-22
2021-10-14 14:55:16.473717,-36
2021-10-14 14:55:16.473725,-44
2021-10-14 14:55:16.473733,14
2021-10-14 14:55:16.473742,211
2021-10-14 14:55:16.473750,561
2021-10-14 14:55:16.473759,853
2021-10-14 14:55:16.473767,625
2021-10-14 14:55:16.473776,-181
2021-10-14 14:55:16.473784,-564
2021-10-14 14:55:16.473792,-117
2021-10-14 14:55:16.473801,112
2021-10-14 14:55:16.473809,-63
2021-10-14 14:55:16.473817,-36
2021-10-14 14:55:16.473826,49
2021-10-14 14:55:16.473834,2
2021-10-14 14:55:16.473843,0
2021-10-14 14:55:16.473852,51
2021-10-14 14:55:16.473860,61
2021-10-14 14:55:16.473868,71
2021-10-14 14:55:16.473877,103
2021-10-14 14:55:16.473885,117
2021-10-14 14:55:16.473894,125
2021-10-14 14:55:16.473902,154
2021-10-14 14:55:16.654048,193
2021-10-14 14:55:16.654069,215
2021-10-14 14:55:16.654078,225
2021-10-14 14:55:16.654087,240
2021-10-14 14:55:16.654096,267
2021-10-14 14:55:16.654104,306
2021-10-14 14:55:16.654113,323
2021-10-14 14:55:16.654121,314
2021-10-14 14:55:16.654130,314
2021-10-14 14:55:16.654138,314
2021-10-14 14:55:16.654146,291
2021-10-14 14:55:16.654155,269
2021-10-14 14:55:16.654163,255
2021-10-14 14:55:16.654171,203
2021-10-14 14:55:16.654180,115
2021-10-14 14:55:16.654188,9
2021-10-14 14:55:16.654197,-76
2021-10-14 14:55:16.654205,-139
2021-10-14 14:55:16.654213,-188
2021-10-14 14:55:16.654222,-215
2021-10-14 14:55:16.654230,-228
2021-10-14 14:55:16.654238,-235
2021-10-14 14:55:16.654247,-238
2021-10-14 14:55:16.654255,-235
2021-10-14 14:55:16.654263,-218
2021-10-14 14:55:16.654271,-206
2021-10-14 14:55:16.654280,-208
2021-10-14 14:55:16.654288,-196
2021-10-14 14:55:16.654297,-174
2021-10-14 14:55:16.654305,-161
2021-10-14 14:55:16.924282,-152
2021-10-14 14:55:16.924304,-147
2021-10-14 14:55:16.924313,-142
2021-10-14 14:55:16.924322,-132
2021-10-14 14:55:16.924331,-127
2021-10-14 14:55:16.924339,-132
2021-10-14 14:55:16.924348,-130
2021-10-14 14:55:16.924356,-127
2021-10-14 14:55:16.924364,-142
2021-10-14 14:55:16.924373,-144
2021-10-14 14:55:16.924381,-130
2021-10-14 14:55:16.924390,-125
2021-10-14 14:55:16.924398,-125
2021-10-14 14:55:16.924407,-132
2021-10-14 14:55:16.924415,-130
2021-10-14 14:55:16.924423,-98
2021-10-14 14:55:16.924432,-85
2021-10-14 14:55:16.924440,-110
2021-10-14 14:55:16.924448,-125
2021-10-14 14:55:16.924456,-110
2021-10-14 14:55:16.924465,-103
2021-10-14 14:55:16.924473,-112
2021-10-14 14:55:16.924481,-115
2021-10-14 14:55:16.924490,-103
2021-10-14 14:55:16.924498,-90
2021-10-14 14:55:16.924506,-88
2021-10-14 14:55:16.924515,-83
2021-10-14 14:55:16.924523,-83
2021-10-14 14:55:16.924531,-90
2021-10-14 14:55:16.924539,-78
2021-10-14 14:55:17.104292,-46
2021-10-14 14:55:17.104327,-12
2021-10-14 14:55:17.104336,2
2021-10-14 14:55:17.104345,-4
2021-10-14 14:55:17.104353,-17
2021-10-14 14:55:17.104362,-17
2021-10-14 14:55:17.104371,-19
2021-10-14 14:55:17.104379,-44
2021-10-14 14:55:17.104388,-49
2021-10-14 14:55:17.104396,-34
2021-10-14 14:55:17.104405,-31
2021-10-14 14:55:17.104413,-29
2021-10-14 14:55:17.104422,-29
2021-10-14 14:55:17.104430,-29
2021-10-14 14:55:17.104439,19
2021-10-14 14:55:17.104447,211
2021-10-14 14:55:17.104456,566
2021-10-14 14:55:17.104464,851
2021-10-14 14:55:17.104473,574
2021-10-14 14:55:17.104481,-240
2021-10-14 14:55:17.104490,-564
2021-10-14 14:55:17.104498,-103
2021-10-14 14:55:17.104507,105
2021-10-14 14:55:17.104515,-61
2021-10-14 14:55:17.104524,-24
2021-10-14 14:55:17.104532,58
2021-10-14 14:55:17.104541,17
2021-10-14 14:55:17.104549,9
2021-10-14 14:55:17.104558,53
2021-10-14 14:55:17.104566,68
2021-10-14 14:55:17.328878,73
2021-10-14 14:55:17.328900,83
2021-10-14 14:55:17.328909,95
2021-10-14 14:55:17.328918,110
2021-10-14 14:55:17.328927,137
2021-10-14 14:55:17.328935,164
2021-10-14 14:55:17.328943,176
2021-10-14 14:55:17.328952,191
2021-10-14 14:55:17.328960,225
2021-10-14 14:55:17.328968,255
2021-10-14 14:55:17.328976,277
2021-10-14 14:55:17.328985,309
2021-10-14 14:55:17.328993,326
2021-10-14 14:55:17.329001,323
2021-10-14 14:55:17.329010,323
2021-10-14 14:55:17.329018,323
2021-10-14 14:55:17.329026,309
2021-10-14 14:55:17.329035,277
2021-10-14 14:55:17.329043,211
2021-10-14 14:55:17.329052,105
2021-10-14 14:55:17.329060,14
2021-10-14 14:55:17.329068,-44
2021-10-14 14:55:17.329077,-100
2021-10-14 14:55:17.329085,-154
2021-10-14 14:55:17.329093,-191
2021-10-14 14:55:17.329101,-211
2021-10-14 14:55:17.329110,-223
2021-10-14 14:55:17.329118,-213
2021-10-14 14:55:17.329126,-191
2021-10-14 14:55:17.329135,-188
2021-10-14 14:55:17.597551,-191
2021-10-14 14:55:17.597571,-176
2021-10-14 14:55:17.597581,-159
2021-10-14 14:55:17.597589,-147
2021-10-14 14:55:17.597598,-132
2021-10-14 14:55:17.597606,-127
2021-10-14 14:55:17.597615,-134
2021-10-14 14:55:17.597623,-125
2021-10-14 14:55:17.597632,-98
2021-10-14 14:55:17.597640,-100
2021-10-14 14:55:17.597649,-110
2021-10-14 14:55:17.597657,-107
2021-10-14 14:55:17.597665,-107
2021-10-14 14:55:17.597674,-115
2021-10-14 14:55:17.597682,-112
2021-10-14 14:55:17.597690,-95
2021-10-14 14:55:17.597699,-83
2021-10-14 14:55:17.597708,-90
2021-10-14 14:55:17.597716,-107
2021-10-14 14:55:17.597724,-120
2021-10-14 14:55:17.597733,-110
2021-10-14 14:55:17.597741,-100
2021-10-14 14:55:17.597749,-103
2021-10-14 14:55:17.597758,-93
2021-10-14 14:55:17.597766,-83
2021-10-14 14:55:17.597775,-85
2021-10-14 14:55:17.597783,-85
2021-10-14 14:55:17.597791,-80
2021-10-14 14:55:17.597800,-83
2021-10-14 14:55:17.597808,-90
2021-10-14 14:55:17.779282,-88
2021-10-14 14:55:17.779303,-68
2021-10-14 14:55:17.779313,-29
2021-10-14 14:55:17.779321,0
2021-10-14 14:55:17.779330,-4
2021-10-14 14:55:17.779338,-12
2021-10-14 14:55:17.779347,-14
2021-10-14 14:55:17.779355,-24
2021-10-14 14:55:17.779363,-34
2021-10-14 14:55:17.779371,-36
2021-10-14 14:55:17.779379,-41
2021-10-14 14:55:17.779388,-49
2021-10-14 14:55:17.779396,-39
2021-10-14 14:55:17.779404,-24
2021-10-14 14:55:17.779412,-26
2021-10-14 14:55:17.779420,-31
2021-10-14 14:55:17.779429,19
2021-10-14 14:55:17.779437,203
2021-10-14 14:55:17.779446,552
2021-10-14 14:55:17.779454,875
2021-10-14 14:55:17.779462,701
2021-10-14 14:55:17.779470,-76
2021-10-14 14:55:17.779479,-485
2021-10-14 14:55:17.779487,-85
2021-10-14 14:55:17.779495,125
2021-10-14 14:55:17.779503,-53
2021-10-14 14:55:17.779511,-36
2021-10-14 14:55:17.779520,46
2021-10-14 14:55:17.779528,4
2021-10-14 14:55:17.779536,7
2021-10-14 14:55:18.049297,53
2021-10-14 14:55:18.049319,44
2021-10-14 14:55:18.049328,34
2021-10-14 14:55:18.049337,61
2021-10-14 14:55:18.049346,78
2021-10-14 14:55:18.049354,80
2021-10-14 14:55:18.049363,100
2021-10-14 14:55:18.049371,137
2021-10-14 14:55:18.049380,169
2021-10-14 14:55:18.049388,191
2021-10-14 14:55:18.049397,201
2021-10-14 14:55:18.049405,230
2021-10-14 14:55:18.049414,277
2021-10-14 14:55:18.049422,311
2021-10-14 14:55:18.049431,321
2021-10-14 14:55:18.049439,321
2021-10-14 14:55:18.049448,316
2021-10-14 14:55:18.049456,311
2021-10-14 14:55:18.049464,296
2021-10-14 14:55:18.049473,264
2021-10-14 14:55:18.049481,208
2021-10-14 14:55:18.049490,127
2021-10-14 14:55:18.049498,39
2021-10-14 14:55:18.049506,-34
2021-10-14 14:55:18.049515,-95
2021-10-14 14:55:18.049523,-147
2021-10-14 14:55:18.049532,-169
2021-10-14 14:55:18.049540,-181
2021-10-14 14:55:18.049548,-201
2021-10-14 14:55:18.049557,-211
2021-10-14 14:55:18.229275,-203
2021-10-14 14:55:18.229296,-186
2021-10-14 14:55:18.229307,-171
2021-10-14 14:55:18.229315,-159
2021-10-14 14:55:18.229324,-152
2021-10-14 14:55:18.229332,-144
2021-10-14 14:55:18.229341,-132
2021-10-14 14:55:18.229349,-115
2021-10-14 14:55:18.229357,-110
2021-10-14 14:55:18.229366,-127
2021-10-14 14:55:18.229374,-127
2021-10-14 14:55:18.229383,-107
2021-10-14 14:55:18.229391,-103
2021-10-14 14:55:18.229400,-103
2021-10-14 14:55:18.229408,-98
2021-10-14 14:55:18.229416,-100
2021-10-14 14:55:18.229425,-107
2021-10-14 14:55:18.229433,-105
2021-10-14 14:55:18.229441,-95
2021-10-14 14:55:18.229450,-93
2021-10-14 14:55:18.229458,-95
2021-10-14 14:55:18.229466,-85
2021-10-14 14:55:18.229474,-76
2021-10-14 14:55:18.229483,-83
2021-10-14 14:55:18.229491,-88
2021-10-14 14:55:18.229499,-76
2021-10-14 14:55:18.229508,-66
2021-10-14 14:55:18.229516,-68
2021-10-14 14:55:18.229524,-68
2021-10-14 14:55:18.229533,-63
2021-10-14 14:55:18.499041,-66
2021-10-14 14:55:18.499062,-61
2021-10-14 14:55:18.499070,-51
2021-10-14 14:55:18.499078,-66
2021-10-14 14:55:18.499086,-76
2021-10-14 14:55:18.499096,-63
2021-10-14 14:55:18.499103,-61
2021-10-14 14:55:18.499111,-61
2021-10-14 14:55:18.499119,-31
2021-10-14 14:55:18.499127,-4
2021-10-14 14:55:18.499135,-4
2021-10-14 14:55:18.499144,-9
2021-10-14 14:55:18.499152,-7
2021-10-14 14:55:18.499160,-14
2021-10-14 14:55:18.499169,-36
2021-10-14 14:55:18.499177,-44
2021-10-14 14:55:18.499186,-29
2021-10-14 14:55:18.499194,-19
2021-10-14 14:55:18.499202,-29
2021-10-14 14:55:18.499211,-31
2021-10-14 14:55:18.499219,-34
2021-10-14 14:55:18.499227,-39
2021-10-14 14:55:18.499236,17
2021-10-14 14:55:18.499244,228
2021-10-14 14:55:18.499252,569
2021-10-14 14:55:18.499261,836
2021-10-14 14:55:18.499269,598
2021-10-14 14:55:18.499277,-176
2021-10-14 14:55:18.499286,-527
2021-10-14 14:55:18.499294,-117
2021-10-14 14:55:18.724281,66
2021-10-14 14:55:18.724301,-100
2021-10-14 14:55:18.724311,-66
2021-10-14 14:55:18.724319,9
2021-10-14 14:55:18.724328,-29
2021-10-14 14:55:18.724336,-19
2021-10-14 14:55:18.724345,22
2021-10-14 14:55:18.724353,17
2021-10-14 14:55:18.724362,17
2021-10-14 14:55:18.724370,39
2021-10-14 14:55:18.724378,58
2021-10-14 14:55:18.724387,78
2021-10-14 14:55:18.724395,107
2021-10-14 14:55:18.724403,132
2021-10-14 14:55:18.724412,142
2021-10-14 14:55:18.724420,157
2021-10-14 14:55:18.724428,193
2021-10-14 14:55:18.724437,233
2021-10-14 14:55:18.724445,262
2021-10-14 14:55:18.724453,289
2021-10-14 14:55:18.724462,304
2021-10-14 14:55:18.724470,304
2021-10-14 14:55:18.724479,304
2021-10-14 14:55:18.724487,304
2021-10-14 14:55:18.724495,294
2021-10-14 14:55:18.724504,269
2021-10-14 14:55:18.724512,215
2021-10-14 14:55:18.724520,134
2021-10-14 14:55:18.724529,51
2021-10-14 14:55:18.724537,-19
2021-10-14 14:55:18.994321,-76
2021-10-14 14:55:18.994343,-125
2021-10-14 14:55:18.994352,-157
2021-10-14 14:55:18.994360,-171
2021-10-14 14:55:18.994368,-176
2021-10-14 14:55:18.994376,-184
2021-10-14 14:55:18.994384,-191
2021-10-14 14:55:18.994391,-191
2021-10-14 14:55:18.994399,-186
2021-10-14 14:55:18.994406,-176
2021-10-14 14:55:18.994414,-161
2021-10-14 14:55:18.994422,-149
2021-10-14 14:55:18.994430,-134
2021-10-14 14:55:18.994438,-134
2021-10-14 14:55:18.994446,-139
2021-10-14 14:55:18.994455,-130
2021-10-14 14:55:18.994463,-115
2021-10-14 14:55:18.994471,-117
2021-10-14 14:55:18.994479,-120
2021-10-14 14:55:18.994487,-115
2021-10-14 14:55:18.994494,-110
2021-10-14 14:55:18.994502,-115
2021-10-14 14:55:18.994509,-120
2021-10-14 14:55:18.994517,-112
2021-10-14 14:55:18.994525,-98
2021-10-14 14:55:18.994533,-95
2021-10-14 14:55:18.994540,-98
2021-10-14 14:55:18.994548,-100
2021-10-14 14:55:18.994556,-105
2021-10-14 14:55:18.994564,-95
2021-10-14 14:55:19.173898,-83
2021-10-14 14:55:19.173918,-88
2021-10-14 14:55:19.173928,-85
2021-10-14 14:55:19.173936,-76
2021-10-14 14:55:19.173945,-71
2021-10-14 14:55:19.173953,-80
2021-10-14 14:55:19.173961,-90
2021-10-14 14:55:19.173970,-88
2021-10-14 14:55:19.173978,-90
2021-10-14 14:55:19.173987,-105
2021-10-14 14:55:19.173995,-105
2021-10-14 14:55:19.174004,-83
2021-10-14 14:55:19.174012,-46
2021-10-14 14:55:19.174020,-24
2021-10-14 14:55:19.174029,-26
2021-10-14 14:55:19.174037,-34
2021-10-14 14:55:19.174045,-34
2021-10-14 14:55:19.174054,-39
2021-10-14 14:55:19.174062,-58
2021-10-14 14:55:19.174070,-71
2021-10-14 14:55:19.174079,-71
2021-10-14 14:55:19.174087,-66
2021-10-14 14:55:19.174095,-58
2021-10-14 14:55:19.174104,-61
2021-10-14 14:55:19.174112,-73
2021-10-14 14:55:19.174121,-61
2021-10-14 14:55:19.174129,19
2021-10-14 14:55:19.174137,233
2021-10-14 14:55:19.174146,574
2021-10-14 14:55:19.174154,787
2021-10-14 14:55:19.444346,399
2021-10-14 14:55:19.444367,-407
2021-10-14 14:55:19.444377,-547
2021-10-14 14:55:19.444385,-49
2021-10-14 14:55:19.444394,41
2021-10-14 14:55:19.444402,-110
2021-10-14 14:55:19.444411,-29
2021-10-14 14:55:19.444419,9
2021-10-14 14:55:19.444428,-46
2021-10-14 14:55:19.444436,-17
2021-10-14 14:55:19.444445,29
2021-10-14 14:55:19.444453,19
2021-10-14 14:55:19.444462,17
2021-10-14 14:55:19.444470,49
2021-10-14 14:55:19.444479,78
2021-10-14 14:55:19.444487,90
2021-10-14 14:55:19.444496,115
2021-10-14 14:55:19.444504,149
2021-10-14 14:55:19.444513,171
2021-10-14 14:55:19.444521,191
2021-10-14 14:55:19.444529,223
2021-10-14 14:55:19.444538,260
2021-10-14 14:55:19.444546,299
2021-10-14 14:55:19.444555,323
2021-10-14 14:55:19.444563,336
2021-10-14 14:55:19.444572,343
2021-10-14 14:55:19.444580,338
2021-10-14 14:55:19.444588,331
2021-10-14 14:55:19.444597,314
2021-10-14 14:55:19.444606,277
2021-10-14 14:55:19.713591,211
2021-10-14 14:55:19.713612,122
2021-10-14 14:55:19.713621,36
2021-10-14 14:55:19.713629,-39
2021-10-14 14:55:19.713636,-105
2021-10-14 14:55:19.713644,-152
2021-10-14 14:55:19.713652,-186
2021-10-14 14:55:19.713659,-196
2021-10-14 14:55:19.713667,-193
2021-10-14 14:55:19.713674,-201
2021-10-14 14:55:19.713682,-213
2021-10-14 14:55:19.713690,-215
2021-10-14 14:55:19.713697,-201
2021-10-14 14:55:19.713705,-184
2021-10-14 14:55:19.713712,-176
2021-10-14 14:55:19.713720,-169
2021-10-14 14:55:19.713727,-157
2021-10-14 14:55:19.713735,-149
2021-10-14 14:55:19.713743,-139
2021-10-14 14:55:19.713750,-125
2021-10-14 14:55:19.713758,-117
2021-10-14 14:55:19.713765,-122
2021-10-14 14:55:19.713773,-122
2021-10-14 14:55:19.713781,-112
2021-10-14 14:55:19.713788,-110
2021-10-14 14:55:19.713796,-112
2021-10-14 14:55:19.713803,-112
2021-10-14 14:55:19.713811,-110
2021-10-14 14:55:19.713819,-107
2021-10-14 14:55:19.713826,-100
2021-10-14 14:55:19.938949,-95
2021-10-14 14:55:19.938970,-85
2021-10-14 14:55:19.938980,-78
2021-10-14 14:55:19.938988,-85
2021-10-14 14:55:19.938997,-100
2021-10-14 14:55:19.939006,-98
2021-10-14 14:55:19.939014,-80
2021-10-14 14:55:19.939022,-78
2021-10-14 14:55:19.939031,-83
2021-10-14 14:55:19.939039,-78
2021-10-14 14:55:19.939048,-53
2021-10-14 14:55:19.939056,-29
2021-10-14 14:55:19.939065,-26
2021-10-14 14:55:19.939073,-34
2021-10-14 14:55:19.939082,-39
2021-10-14 14:55:19.939090,-56
2021-10-14 14:55:19.939098,-76
2021-10-14 14:55:19.939107,-66
2021-10-14 14:55:19.939115,-51
2021-10-14 14:55:19.939123,-49
2021-10-14 14:55:19.939132,-49
2021-10-14 14:55:19.939141,-49
2021-10-14 14:55:19.939149,-56
2021-10-14 14:55:19.939157,-56
2021-10-14 14:55:19.939166,-34
2021-10-14 14:55:19.939174,41
2021-10-14 14:55:19.939182,269
2021-10-14 14:55:19.939191,645
2021-10-14 14:55:19.939199,819
2021-10-14 14:55:19.939207,338
2021-10-14 14:55:20.118714,-424
2021-10-14 14:55:20.118740,-446
2021-10-14 14:55:20.118749,12
2021-10-14 14:55:20.118756,22
2021-10-14 14:55:20.118764,-117
2021-10-14 14:55:20.118771,-22
2021-10-14 14:55:20.118778,17
2021-10-14 14:55:20.118786,-31
2021-10-14 14:55:20.118793,-9
2021-10-14 14:55:20.118801,9
2021-10-14 14:55:20.118808,-7
2021-10-14 14:55:20.118816,17
2021-10-14 14:55:20.118823,51
2021-10-14 14:55:20.118830,61
2021-10-14 14:55:20.118837,76
2021-10-14 14:55:20.118845,90
2021-10-14 14:55:20.118852,105
2021-10-14 14:55:20.118859,137
2021-10-14 14:55:20.118866,169
2021-10-14 14:55:20.118874,203
2021-10-14 14:55:20.118882,245
2021-10-14 14:55:20.118889,269
2021-10-14 14:55:20.118896,277
2021-10-14 14:55:20.118903,294
2021-10-14 14:55:20.118910,306
2021-10-14 14:55:20.118918,304
2021-10-14 14:55:20.118925,294
2021-10-14 14:55:20.118932,260
2021-10-14 14:55:20.118939,201
2021-10-14 14:55:20.118946,132
2021-10-14 14:55:20.344330,51
2021-10-14 14:55:20.344351,-34
2021-10-14 14:55:20.344359,-103
2021-10-14 14:55:20.344367,-164
2021-10-14 14:55:20.344375,-201
2021-10-14 14:55:20.344383,-201
2021-10-14 14:55:20.344391,-206
2021-10-14 14:55:20.344398,-220
2021-10-14 14:55:20.344406,-218
2021-10-14 14:55:20.344414,-203
2021-10-14 14:55:20.344422,-196
2021-10-14 14:55:20.344430,-188
2021-10-14 14:55:20.344438,-176
2021-10-14 14:55:20.344446,-164
2021-10-14 14:55:20.344453,-159
2021-10-14 14:55:20.344461,-149
2021-10-14 14:55:20.344468,-132
2021-10-14 14:55:20.344475,-132
2021-10-14 14:55:20.344483,-142
2021-10-14 14:55:20.344490,-130
2021-10-14 14:55:20.344498,-117
2021-10-14 14:55:20.344506,-122
2021-10-14 14:55:20.344514,-115
2021-10-14 14:55:20.344522,-105
2021-10-14 14:55:20.344530,-105
2021-10-14 14:55:20.344537,-105
2021-10-14 14:55:20.344545,-115
2021-10-14 14:55:20.344553,-120
2021-10-14 14:55:20.344560,-105
2021-10-14 14:55:20.344567,-88
2021-10-14 14:55:20.568943,-90
2021-10-14 14:55:20.568964,-95
2021-10-14 14:55:20.568973,-93
2021-10-14 14:55:20.568982,-83
2021-10-14 14:55:20.568991,-56
2021-10-14 14:55:20.568999,-31
2021-10-14 14:55:20.569008,-26
2021-10-14 14:55:20.569016,-31
2021-10-14 14:55:20.569024,-49
2021-10-14 14:55:20.569033,-68
2021-10-14 14:55:20.569041,-68
2021-10-14 14:55:20.569049,-61
2021-10-14 14:55:20.569057,-61
2021-10-14 14:55:20.569066,-61
2021-10-14 14:55:20.569074,-68
2021-10-14 14:55:20.569082,-76
2021-10-14 14:55:20.569091,-68
2021-10-14 14:55:20.569099,-51
2021-10-14 14:55:20.569108,-9
2021-10-14 14:55:20.569116,112
2021-10-14 14:55:20.569125,377
2021-10-14 14:55:20.569133,652
2021-10-14 14:55:20.569141,549
2021-10-14 14:55:20.569150,-80
2021-10-14 14:55:20.569158,-515
2021-10-14 14:55:20.569166,-206
2021-10-14 14:55:20.569175,85
2021-10-14 14:55:20.569183,-39
2021-10-14 14:55:20.569191,-51
2021-10-14 14:55:20.569199,49
2021-10-14 14:55:20.794378,19
2021-10-14 14:55:20.794400,0
2021-10-14 14:55:20.794410,49
2021-10-14 14:55:20.794418,68
2021-10-14 14:55:20.794427,68
2021-10-14 14:55:20.794436,88
2021-10-14 14:55:20.794445,100
2021-10-14 14:55:20.794453,95
2021-10-14 14:55:20.794462,100
2021-10-14 14:55:20.794470,132
2021-10-14 14:55:20.794479,179
2021-10-14 14:55:20.794488,193
2021-10-14 14:55:20.794496,203
2021-10-14 14:55:20.794505,242
2021-10-14 14:55:20.794514,287
2021-10-14 14:55:20.794522,299
2021-10-14 14:55:20.794531,299
2021-10-14 14:55:20.794539,318
2021-10-14 14:55:20.794548,336
2021-10-14 14:55:20.794556,321
2021-10-14 14:55:20.794565,304
2021-10-14 14:55:20.794574,274
2021-10-14 14:55:20.794583,179
2021-10-14 14:55:20.794591,63
2021-10-14 14:55:20.794600,-7
2021-10-14 14:55:20.794608,-58
2021-10-14 14:55:20.794639,-115
2021-10-14 14:55:20.794649,-161
2021-10-14 14:55:20.794658,-191
2021-10-14 14:55:20.794666,-193
2021-10-14 14:55:21.019335,-184
2021-10-14 14:55:21.019356,-186
2021-10-14 14:55:21.019365,-193
2021-10-14 14:55:21.019374,-179
2021-10-14 14:55:21.019382,-149
2021-10-14 14:55:21.019391,-139
2021-10-14 14:55:21.019399,-154
2021-10-14 14:55:21.019408,-149
2021-10-14 14:55:21.019416,-117
2021-10-14 14:55:21.019425,-105
2021-10-14 14:55:21.019433,-103
2021-10-14 14:55:21.019442,-90
2021-10-14 14:55:21.019450,-93
2021-10-14 14:55:21.019458,-105
2021-10-14 14:55:21.019467,-100
2021-10-14 14:55:21.019475,-88
2021-10-14 14:55:21.019483,-80
2021-10-14 14:55:21.019492,-76
2021-10-14 14:55:21.019500,-78
2021-10-14 14:55:21.019508,-78
2021-10-14 14:55:21.019517,-71
2021-10-14 14:55:21.019525,-73
2021-10-14 14:55:21.019534,-85
2021-10-14 14:55:21.019542,-83
2021-10-14 14:55:21.019550,-76
2021-10-14 14:55:21.019559,-73
2021-10-14 14:55:21.019567,-71
2021-10-14 14:55:21.019575,-49
2021-10-14 14:55:21.019584,-29
2021-10-14 14:55:21.019592,-34
2021-10-14 14:55:21.243989,-31
2021-10-14 14:55:21.244011,-26
2021-10-14 14:55:21.244019,-61
2021-10-14 14:55:21.244027,-85
2021-10-14 14:55:21.244035,-56
2021-10-14 14:55:21.244043,-36
2021-10-14 14:55:21.244051,-51
2021-10-14 14:55:21.244059,-56
2021-10-14 14:55:21.244067,-63
2021-10-14 14:55:21.244076,-66
2021-10-14 14:55:21.244084,-49
2021-10-14 14:55:21.244093,-36
2021-10-14 14:55:21.244101,49
2021-10-14 14:55:21.244109,333
2021-10-14 14:55:21.244116,689
2021-10-14 14:55:21.244124,699
2021-10-14 14:55:21.244132,90
2021-10-14 14:55:21.244140,-498
2021-10-14 14:55:21.244148,-287
2021-10-14 14:55:21.244157,83
2021-10-14 14:55:21.244165,-7
2021-10-14 14:55:21.244173,-53
2021-10-14 14:55:21.244182,56
2021-10-14 14:55:21.244190,46
2021-10-14 14:55:21.244198,19
2021-10-14 14:55:21.244207,63
2021-10-14 14:55:21.244214,66
2021-10-14 14:55:21.244221,56
2021-10-14 14:55:21.244228,95
2021-10-14 14:55:21.244236,115
2021-10-14 14:55:21.514318,112
2021-10-14 14:55:21.514341,144
2021-10-14 14:55:21.514350,171
2021-10-14 14:55:21.514358,179
2021-10-14 14:55:21.514366,213
2021-10-14 14:55:21.514374,242
2021-10-14 14:55:21.514381,250
2021-10-14 14:55:21.514389,272
2021-10-14 14:55:21.514397,309
2021-10-14 14:55:21.514404,331
2021-10-14 14:55:21.514412,333
2021-10-14 14:55:21.514419,316
2021-10-14 14:55:21.514427,284
2021-10-14 14:55:21.514434,267
2021-10-14 14:55:21.514442,247
2021-10-14 14:55:21.514450,193
2021-10-14 14:55:21.514458,98
2021-10-14 14:55:21.514465,0
2021-10-14 14:55:21.514473,-68
2021-10-14 14:55:21.514481,-112
2021-10-14 14:55:21.514489,-157
2021-10-14 14:55:21.514496,-193
2021-10-14 14:55:21.514504,-215
2021-10-14 14:55:21.514512,-225
2021-10-14 14:55:21.514519,-211
2021-10-14 14:55:21.514527,-191
2021-10-14 14:55:21.514534,-186
2021-10-14 14:55:21.514542,-191
2021-10-14 14:55:21.514549,-181
2021-10-14 14:55:21.514557,-169
2021-10-14 14:55:21.737605,-154
2021-10-14 14:55:21.737625,-125
2021-10-14 14:55:21.737635,-117
2021-10-14 14:55:21.737643,-137
2021-10-14 14:55:21.737652,-137
2021-10-14 14:55:21.737661,-122
2021-10-14 14:55:21.737669,-115
2021-10-14 14:55:21.737677,-105
2021-10-14 14:55:21.737734,-100
2021-10-14 14:55:21.737743,-105
2021-10-14 14:55:21.737751,-107
2021-10-14 14:55:21.737760,-112
2021-10-14 14:55:21.737768,-115
2021-10-14 14:55:21.737777,-107
2021-10-14 14:55:21.737785,-110
2021-10-14 14:55:21.737793,-107
2021-10-14 14:55:21.737802,-95
2021-10-14 14:55:21.737810,-88
2021-10-14 14:55:21.737818,-93
2021-10-14 14:55:21.737827,-98
2021-10-14 14:55:21.737835,-98
2021-10-14 14:55:21.737843,-88
2021-10-14 14:55:21.737852,-66
2021-10-14 14:55:21.737860,-31
2021-10-14 14:55:21.737868,-4
2021-10-14 14:55:21.737877,0
2021-10-14 14:55:21.737886,-12
2021-10-14 14:55:21.737894,-31
2021-10-14 14:55:21.737902,-53
2021-10-14 14:55:21.737910,-61
2021-10-14 14:55:21.919355,-51
2021-10-14 14:55:21.919377,-46
2021-10-14 14:55:21.919387,-53
2021-10-14 14:55:21.919395,-56
2021-10-14 14:55:21.919404,-56
2021-10-14 14:55:21.919412,-58
2021-10-14 14:55:21.919421,-46
2021-10-14 14:55:21.919429,26
2021-10-14 14:55:21.919438,242
2021-10-14 14:55:21.919446,596
2021-10-14 14:55:21.919454,814
2021-10-14 14:55:21.919463,436
2021-10-14 14:55:21.919471,-341
2021-10-14 14:55:21.919480,-466
2021-10-14 14:55:21.919488,12
2021-10-14 14:55:21.919497,85
2021-10-14 14:55:21.919505,-78
2021-10-14 14:55:21.919514,0
2021-10-14 14:55:21.919522,56
2021-10-14 14:55:21.919530,17
2021-10-14 14:55:21.919539,41
2021-10-14 14:55:21.919547,80
2021-10-14 14:55:21.919555,80
2021-10-14 14:55:21.919563,93
2021-10-14 14:55:21.919572,112
2021-10-14 14:55:21.919580,130
2021-10-14 14:55:21.919588,152
2021-10-14 14:55:21.919596,166
2021-10-14 14:55:21.919605,186
2021-10-14 14:55:21.919613,220
2021-10-14 14:55:22.189319,250
2021-10-14 14:55:22.189340,269
2021-10-14 14:55:22.189349,291
2021-10-14 14:55:22.189358,309
2021-10-14 14:55:22.189367,309
2021-10-14 14:55:22.189375,318
2021-10-14 14:55:22.189384,338
2021-10-14 14:55:22.189392,333
2021-10-14 14:55:22.189401,296
2021-10-14 14:55:22.189409,262
2021-10-14 14:55:22.189417,238
2021-10-14 14:55:22.189426,169
2021-10-14 14:55:22.189434,63
2021-10-14 14:55:22.189443,-24
2021-10-14 14:55:22.189451,-85
2021-10-14 14:55:22.189460,-137
2021-10-14 14:55:22.189468,-174
2021-10-14 14:55:22.189476,-203
2021-10-14 14:55:22.189485,-223
2021-10-14 14:55:22.189493,-211
2021-10-14 14:55:22.189502,-191
2021-10-14 14:55:22.189510,-191
2021-10-14 14:55:22.189519,-188
2021-10-14 14:55:22.189527,-176
2021-10-14 14:55:22.189535,-169
2021-10-14 14:55:22.189544,-157
2021-10-14 14:55:22.189552,-142
2021-10-14 14:55:22.189561,-142
2021-10-14 14:55:22.189569,-149
2021-10-14 14:55:22.189578,-132
2021-10-14 14:55:22.413941,-115
2021-10-14 14:55:22.413962,-122
2021-10-14 14:55:22.413970,-132
2021-10-14 14:55:22.413978,-137
2021-10-14 14:55:22.413986,-139
2021-10-14 14:55:22.413993,-127
2021-10-14 14:55:22.414001,-117
2021-10-14 14:55:22.414008,-125
